Mar. 29, 2025   13:20:26
Cyclic Voltammetry
File: c:/users/guazh/data/banditlqround7_x0exp518_r20/2025-03-28-exp980\exp980-2025-03-29t13_03_28-arkoh\exp980_cv_50mvs_efin_-1800mv.bin
Data Source:  Experiment
Instrument Model:  CHI760E
Header: CV ran at 50 mVs
Note: 

Init E (V) = -1
High E (V) = -1
Low E (V) = -1.8
Final E (V) = -1
Init P/N = N
Scan Rate (V/s) = 0.05
Segment = 7
Sample Interval (V) = 0.001
Quiet Time (sec) = 60
Sensitivity (A/V) = 0.001
Comp R (ohm) = 2.3

Results:

Channel 1:
Segment 1:

Segment 2:

Segment 3:

Segment 4:

Segment 5:

Segment 6:

Segment 7:

Potential/V, Current/A

-1.000, 9.649e-8
-1.001, 1.606e-7
-1.002, 1.863e-7
-1.003, 2.070e-7
-1.004, 2.228e-7
-1.005, 2.465e-7
-1.006, 2.622e-7
-1.007, 2.632e-7
-1.008, 2.770e-7
-1.009, 3.017e-7
-1.010, 3.096e-7
-1.011, 3.116e-7
-1.012, 3.195e-7
-1.013, 3.560e-7
-1.014, 3.491e-7
-1.015, 3.560e-7
-1.016, 3.727e-7
-1.017, 3.915e-7
-1.018, 3.944e-7
-1.019, 4.073e-7
-1.020, 4.171e-7
-1.021, 4.270e-7
-1.022, 4.359e-7
-1.023, 4.448e-7
-1.024, 4.566e-7
-1.025, 4.724e-7
-1.026, 4.773e-7
-1.027, 4.931e-7
-1.028, 5.030e-7
-1.029, 5.030e-7
-1.030, 5.099e-7
-1.031, 5.109e-7
-1.032, 5.168e-7
-1.033, 5.631e-7
-1.034, 5.474e-7
-1.035, 5.444e-7
-1.036, 5.750e-7
-1.037, 5.750e-7
-1.038, 5.858e-7
-1.039, 6.046e-7
-1.040, 6.016e-7
-1.041, 6.075e-7
-1.042, 6.125e-7
-1.043, 6.233e-7
-1.044, 6.322e-7
-1.045, 6.618e-7
-1.046, 6.638e-7
-1.047, 6.667e-7
-1.048, 6.579e-7
-1.049, 6.806e-7
-1.050, 6.973e-7
-1.051, 7.102e-7
-1.052, 7.062e-7
-1.053, 7.368e-7
-1.054, 7.240e-7
-1.055, 7.348e-7
-1.056, 7.417e-7
-1.057, 7.644e-7
-1.058, 7.733e-7
-1.059, 7.812e-7
-1.060, 7.782e-7
-1.061, 7.901e-7
-1.062, 8.118e-7
-1.063, 8.305e-7
-1.064, 8.216e-7
-1.065, 8.276e-7
-1.066, 8.394e-7
-1.067, 8.581e-7
-1.068, 8.769e-7
-1.069, 8.759e-7
-1.070, 8.828e-7
-1.071, 8.818e-7
-1.072, 9.055e-7
-1.073, 9.223e-7
-1.074, 9.134e-7
-1.075, 9.311e-7
-1.076, 9.341e-7
-1.077, 9.588e-7
-1.078, 9.785e-7
-1.079, 9.854e-7
-1.080, 9.785e-7
-1.081, 9.775e-7
-1.082, 1.003e-6
-1.083, 1.012e-6
-1.084, 1.022e-6
-1.085, 1.036e-6
-1.086, 1.034e-6
-1.087, 1.044e-6
-1.088, 1.084e-6
-1.089, 1.065e-6
-1.090, 1.090e-6
-1.091, 1.099e-6
-1.092, 1.098e-6
-1.093, 1.110e-6
-1.094, 1.115e-6
-1.095, 1.126e-6
-1.096, 1.134e-6
-1.097, 1.134e-6
-1.098, 1.150e-6
-1.099, 1.165e-6
-1.100, 1.160e-6
-1.101, 1.176e-6
-1.102, 1.178e-6
-1.103, 1.209e-6
-1.104, 1.214e-6
-1.105, 1.206e-6
-1.106, 1.211e-6
-1.107, 1.238e-6
-1.108, 1.255e-6
-1.109, 1.241e-6
-1.110, 1.248e-6
-1.111, 1.264e-6
-1.112, 1.269e-6
-1.113, 1.291e-6
-1.114, 1.279e-6
-1.115, 1.296e-6
-1.116, 1.298e-6
-1.117, 1.320e-6
-1.118, 1.327e-6
-1.119, 1.319e-6
-1.120, 1.333e-6
-1.121, 1.341e-6
-1.122, 1.348e-6
-1.123, 1.369e-6
-1.124, 1.360e-6
-1.125, 1.384e-6
-1.126, 1.384e-6
-1.127, 1.389e-6
-1.128, 1.417e-6
-1.129, 1.409e-6
-1.130, 1.422e-6
-1.131, 1.422e-6
-1.132, 1.438e-6
-1.133, 1.452e-6
-1.134, 1.455e-6
-1.135, 1.463e-6
-1.136, 1.468e-6
-1.137, 1.477e-6
-1.138, 1.489e-6
-1.139, 1.495e-6
-1.140, 1.498e-6
-1.141, 1.493e-6
-1.142, 1.509e-6
-1.143, 1.539e-6
-1.144, 1.531e-6
-1.145, 1.535e-6
-1.146, 1.547e-6
-1.147, 1.560e-6
-1.148, 1.575e-6
-1.149, 1.573e-6
-1.150, 1.581e-6
-1.151, 1.601e-6
-1.152, 1.606e-6
-1.153, 1.613e-6
-1.154, 1.633e-6
-1.155, 1.632e-6
-1.156, 1.622e-6
-1.157, 1.643e-6
-1.158, 1.652e-6
-1.159, 1.671e-6
-1.160, 1.674e-6
-1.161, 1.677e-6
-1.162, 1.680e-6
-1.163, 1.698e-6
-1.164, 1.702e-6
-1.165, 1.715e-6
-1.166, 1.717e-6
-1.167, 1.725e-6
-1.168, 1.731e-6
-1.169, 1.767e-6
-1.170, 1.752e-6
-1.171, 1.761e-6
-1.172, 1.783e-6
-1.173, 1.793e-6
-1.174, 1.795e-6
-1.175, 1.793e-6
-1.176, 1.789e-6
-1.177, 1.818e-6
-1.178, 1.842e-6
-1.179, 1.844e-6
-1.180, 1.859e-6
-1.181, 1.856e-6
-1.182, 1.861e-6
-1.183, 1.877e-6
-1.184, 1.879e-6
-1.185, 1.890e-6
-1.186, 1.899e-6
-1.187, 1.903e-6
-1.188, 1.929e-6
-1.189, 1.947e-6
-1.190, 1.936e-6
-1.191, 1.953e-6
-1.192, 1.962e-6
-1.193, 1.980e-6
-1.194, 1.982e-6
-1.195, 1.998e-6
-1.196, 1.990e-6
-1.197, 2.016e-6
-1.198, 2.020e-6
-1.199, 2.035e-6
-1.200, 2.047e-6
-1.201, 2.050e-6
-1.202, 2.050e-6
-1.203, 2.080e-6
-1.204, 2.086e-6
-1.205, 2.090e-6
-1.206, 2.091e-6
-1.207, 2.114e-6
-1.208, 2.109e-6
-1.209, 2.137e-6
-1.210, 2.131e-6
-1.211, 2.152e-6
-1.212, 2.141e-6
-1.213, 2.174e-6
-1.214, 2.177e-6
-1.215, 2.178e-6
-1.216, 2.182e-6
-1.217, 2.208e-6
-1.218, 2.213e-6
-1.219, 2.227e-6
-1.220, 2.228e-6
-1.221, 2.230e-6
-1.222, 2.245e-6
-1.223, 2.259e-6
-1.224, 2.263e-6
-1.225, 2.277e-6
-1.226, 2.279e-6
-1.227, 2.289e-6
-1.228, 2.291e-6
-1.229, 2.332e-6
-1.230, 2.313e-6
-1.231, 2.317e-6
-1.232, 2.341e-6
-1.233, 2.337e-6
-1.234, 2.332e-6
-1.235, 2.329e-6
-1.236, 2.335e-6
-1.237, 2.364e-6
-1.238, 2.358e-6
-1.239, 2.363e-6
-1.240, 2.368e-6
-1.241, 2.377e-6
-1.242, 2.382e-6
-1.243, 2.388e-6
-1.244, 2.375e-6
-1.245, 2.377e-6
-1.246, 2.396e-6
-1.247, 2.367e-6
-1.248, 2.406e-6
-1.249, 2.392e-6
-1.250, 2.415e-6
-1.251, 2.408e-6
-1.252, 2.394e-6
-1.253, 2.404e-6
-1.254, 2.415e-6
-1.255, 2.419e-6
-1.256, 2.410e-6
-1.257, 2.421e-6
-1.258, 2.439e-6
-1.259, 2.412e-6
-1.260, 2.405e-6
-1.261, 2.413e-6
-1.262, 2.421e-6
-1.263, 2.433e-6
-1.264, 2.415e-6
-1.265, 2.410e-6
-1.266, 2.428e-6
-1.267, 2.432e-6
-1.268, 2.438e-6
-1.269, 2.440e-6
-1.270, 2.437e-6
-1.271, 2.427e-6
-1.272, 2.439e-6
-1.273, 2.471e-6
-1.274, 2.469e-6
-1.275, 2.448e-6
-1.276, 2.469e-6
-1.277, 2.465e-6
-1.278, 2.482e-6
-1.279, 2.478e-6
-1.280, 2.474e-6
-1.281, 2.497e-6
-1.282, 2.489e-6
-1.283, 2.498e-6
-1.284, 2.517e-6
-1.285, 2.482e-6
-1.286, 2.492e-6
-1.287, 2.506e-6
-1.288, 2.524e-6
-1.289, 2.535e-6
-1.290, 2.527e-6
-1.291, 2.526e-6
-1.292, 2.533e-6
-1.293, 2.543e-6
-1.294, 2.549e-6
-1.295, 2.542e-6
-1.296, 2.572e-6
-1.297, 2.565e-6
-1.298, 2.571e-6
-1.299, 2.569e-6
-1.300, 2.580e-6
-1.301, 2.570e-6
-1.302, 2.585e-6
-1.303, 2.605e-6
-1.304, 2.602e-6
-1.305, 2.589e-6
-1.306, 2.608e-6
-1.307, 2.586e-6
-1.308, 2.624e-6
-1.309, 2.618e-6
-1.310, 2.617e-6
-1.311, 2.626e-6
-1.312, 2.618e-6
-1.313, 2.630e-6
-1.314, 2.630e-6
-1.315, 2.646e-6
-1.316, 2.649e-6
-1.317, 2.634e-6
-1.318, 2.662e-6
-1.319, 2.664e-6
-1.320, 2.653e-6
-1.321, 2.651e-6
-1.322, 2.665e-6
-1.323, 2.663e-6
-1.324, 2.673e-6
-1.325, 2.670e-6
-1.326, 2.674e-6
-1.327, 2.671e-6
-1.328, 2.695e-6
-1.329, 2.690e-6
-1.330, 2.699e-6
-1.331, 2.685e-6
-1.332, 2.698e-6
-1.333, 2.706e-6
-1.334, 2.697e-6
-1.335, 2.693e-6
-1.336, 2.701e-6
-1.337, 2.703e-6
-1.338, 2.715e-6
-1.339, 2.723e-6
-1.340, 2.724e-6
-1.341, 2.696e-6
-1.342, 2.720e-6
-1.343, 2.757e-6
-1.344, 2.745e-6
-1.345, 2.733e-6
-1.346, 2.740e-6
-1.347, 2.749e-6
-1.348, 2.761e-6
-1.349, 2.765e-6
-1.350, 2.763e-6
-1.351, 2.758e-6
-1.352, 2.754e-6
-1.353, 2.763e-6
-1.354, 2.783e-6
-1.355, 2.772e-6
-1.356, 2.766e-6
-1.357, 2.785e-6
-1.358, 2.786e-6
-1.359, 2.824e-6
-1.360, 2.781e-6
-1.361, 2.809e-6
-1.362, 2.821e-6
-1.363, 2.827e-6
-1.364, 2.832e-6
-1.365, 2.825e-6
-1.366, 2.832e-6
-1.367, 2.824e-6
-1.368, 2.864e-6
-1.369, 2.845e-6
-1.370, 2.845e-6
-1.371, 2.864e-6
-1.372, 2.872e-6
-1.373, 2.882e-6
-1.374, 2.885e-6
-1.375, 2.889e-6
-1.376, 2.890e-6
-1.377, 2.922e-6
-1.378, 2.921e-6
-1.379, 2.912e-6
-1.380, 2.926e-6
-1.381, 2.927e-6
-1.382, 2.933e-6
-1.383, 2.963e-6
-1.384, 2.966e-6
-1.385, 2.966e-6
-1.386, 2.964e-6
-1.387, 2.991e-6
-1.388, 3.004e-6
-1.389, 3.011e-6
-1.390, 3.014e-6
-1.391, 2.998e-6
-1.392, 3.008e-6
-1.393, 3.039e-6
-1.394, 3.041e-6
-1.395, 3.030e-6
-1.396, 3.049e-6
-1.397, 3.071e-6
-1.398, 3.086e-6
-1.399, 3.097e-6
-1.400, 3.098e-6
-1.401, 3.100e-6
-1.402, 3.083e-6
-1.403, 3.126e-6
-1.404, 3.126e-6
-1.405, 3.137e-6
-1.406, 3.155e-6
-1.407, 3.175e-6
-1.408, 3.181e-6
-1.409, 3.205e-6
-1.410, 3.203e-6
-1.411, 3.221e-6
-1.412, 3.219e-6
-1.413, 3.253e-6
-1.414, 3.262e-6
-1.415, 3.270e-6
-1.416, 3.268e-6
-1.417, 3.289e-6
-1.418, 3.311e-6
-1.419, 3.319e-6
-1.420, 3.345e-6
-1.421, 3.351e-6
-1.422, 3.385e-6
-1.423, 3.413e-6
-1.424, 3.427e-6
-1.425, 3.456e-6
-1.426, 3.479e-6
-1.427, 3.511e-6
-1.428, 3.532e-6
-1.429, 3.598e-6
-1.430, 3.639e-6
-1.431, 3.685e-6
-1.432, 3.725e-6
-1.433, 3.816e-6
-1.434, 3.896e-6
-1.435, 3.955e-6
-1.436, 4.014e-6
-1.437, 4.099e-6
-1.438, 4.166e-6
-1.439, 4.216e-6
-1.440, 4.271e-6
-1.441, 4.310e-6
-1.442, 4.402e-6
-1.443, 4.458e-6
-1.444, 4.514e-6
-1.445, 4.584e-6
-1.446, 4.643e-6
-1.447, 4.727e-6
-1.448, 4.809e-6
-1.449, 4.887e-6
-1.450, 4.932e-6
-1.451, 5.041e-6
-1.452, 5.115e-6
-1.453, 5.191e-6
-1.454, 5.288e-6
-1.455, 5.387e-6
-1.456, 5.483e-6
-1.457, 5.570e-6
-1.458, 5.678e-6
-1.459, 5.775e-6
-1.460, 5.912e-6
-1.461, 6.012e-6
-1.462, 6.128e-6
-1.463, 6.274e-6
-1.464, 6.408e-6
-1.465, 6.515e-6
-1.466, 6.694e-6
-1.467, 6.835e-6
-1.468, 7.025e-6
-1.469, 7.181e-6
-1.470, 7.341e-6
-1.471, 7.529e-6
-1.472, 7.712e-6
-1.473, 7.885e-6
-1.474, 8.070e-6
-1.475, 8.243e-6
-1.476, 8.446e-6
-1.477, 8.632e-6
-1.478, 8.848e-6
-1.479, 9.076e-6
-1.480, 9.285e-6
-1.481, 9.493e-6
-1.482, 9.729e-6
-1.483, 9.965e-6
-1.484, 1.021e-5
-1.485, 1.046e-5
-1.486, 1.072e-5
-1.487, 1.099e-5
-1.488, 1.127e-5
-1.489, 1.155e-5
-1.490, 1.181e-5
-1.491, 1.214e-5
-1.492, 1.244e-5
-1.493, 1.275e-5
-1.494, 1.309e-5
-1.495, 1.341e-5
-1.496, 1.376e-5
-1.497, 1.408e-5
-1.498, 1.446e-5
-1.499, 1.484e-5
-1.500, 1.523e-5
-1.501, 1.560e-5
-1.502, 1.604e-5
-1.503, 1.644e-5
-1.504, 1.687e-5
-1.505, 1.731e-5
-1.506, 1.776e-5
-1.507, 1.820e-5
-1.508, 1.869e-5
-1.509, 1.919e-5
-1.510, 1.967e-5
-1.511, 2.018e-5
-1.512, 2.068e-5
-1.513, 2.125e-5
-1.514, 2.182e-5
-1.515, 2.236e-5
-1.516, 2.292e-5
-1.517, 2.350e-5
-1.518, 2.413e-5
-1.519, 2.476e-5
-1.520, 2.541e-5
-1.521, 2.604e-5
-1.522, 2.669e-5
-1.523, 2.736e-5
-1.524, 2.809e-5
-1.525, 2.877e-5
-1.526, 2.948e-5
-1.527, 3.024e-5
-1.528, 3.102e-5
-1.529, 3.184e-5
-1.530, 3.268e-5
-1.531, 3.349e-5
-1.532, 3.428e-5
-1.533, 3.512e-5
-1.534, 3.600e-5
-1.535, 3.688e-5
-1.536, 3.775e-5
-1.537, 3.871e-5
-1.538, 3.958e-5
-1.539, 4.060e-5
-1.540, 4.154e-5
-1.541, 4.256e-5
-1.542, 4.363e-5
-1.543, 4.457e-5
-1.544, 4.565e-5
-1.545, 4.658e-5
-1.546, 4.759e-5
-1.547, 4.875e-5
-1.548, 4.983e-5
-1.549, 5.090e-5
-1.550, 5.212e-5
-1.551, 5.336e-5
-1.552, 5.467e-5
-1.553, 5.658e-5
-1.554, 5.732e-5
-1.555, 5.917e-5
-1.556, 5.963e-5
-1.557, 6.091e-5
-1.558, 6.210e-5
-1.559, 6.363e-5
-1.560, 6.539e-5
-1.561, 6.679e-5
-1.562, 6.835e-5
-1.563, 6.955e-5
-1.564, 7.123e-5
-1.565, 7.267e-5
-1.566, 7.465e-5
-1.567, 7.602e-5
-1.568, 7.740e-5
-1.569, 7.908e-5
-1.570, 8.056e-5
-1.571, 8.163e-5
-1.572, 8.310e-5
-1.573, 8.463e-5
-1.574, 8.609e-5
-1.575, 8.765e-5
-1.576, 8.952e-5
-1.577, 9.147e-5
-1.578, 9.337e-5
-1.579, 9.506e-5
-1.580, 9.693e-5
-1.581, 9.884e-5
-1.582, 1.012e-4
-1.583, 1.028e-4
-1.584, 1.048e-4
-1.585, 1.066e-4
-1.586, 1.089e-4
-1.587, 1.108e-4
-1.588, 1.125e-4
-1.589, 1.147e-4
-1.590, 1.167e-4
-1.591, 1.187e-4
-1.592, 1.208e-4
-1.593, 1.227e-4
-1.594, 1.250e-4
-1.595, 1.275e-4
-1.596, 1.293e-4
-1.597, 1.317e-4
-1.598, 1.345e-4
-1.599, 1.371e-4
-1.600, 1.397e-4
-1.601, 1.422e-4
-1.602, 1.449e-4
-1.603, 1.473e-4
-1.604, 1.495e-4
-1.605, 1.525e-4
-1.606, 1.556e-4
-1.607, 1.571e-4
-1.608, 1.601e-4
-1.609, 1.629e-4
-1.610, 1.661e-4
-1.611, 1.689e-4
-1.612, 1.714e-4
-1.613, 1.746e-4
-1.614, 1.780e-4
-1.615, 1.807e-4
-1.616, 1.840e-4
-1.617, 1.870e-4
-1.618, 1.900e-4
-1.619, 1.931e-4
-1.620, 1.962e-4
-1.621, 1.994e-4
-1.622, 2.030e-4
-1.623, 2.060e-4
-1.624, 2.086e-4
-1.625, 2.117e-4
-1.626, 2.154e-4
-1.627, 2.197e-4
-1.628, 2.238e-4
-1.629, 2.276e-4
-1.630, 2.310e-4
-1.631, 2.337e-4
-1.632, 2.384e-4
-1.633, 2.423e-4
-1.634, 2.459e-4
-1.635, 2.499e-4
-1.636, 2.538e-4
-1.637, 2.585e-4
-1.638, 2.626e-4
-1.639, 2.672e-4
-1.640, 2.712e-4
-1.641, 2.750e-4
-1.642, 2.797e-4
-1.643, 2.834e-4
-1.644, 2.877e-4
-1.645, 2.930e-4
-1.646, 2.970e-4
-1.647, 3.009e-4
-1.648, 3.057e-4
-1.649, 3.102e-4
-1.650, 3.148e-4
-1.651, 3.187e-4
-1.652, 3.230e-4
-1.653, 3.272e-4
-1.654, 3.318e-4
-1.655, 3.366e-4
-1.656, 3.420e-4
-1.657, 3.464e-4
-1.658, 3.518e-4
-1.659, 3.571e-4
-1.660, 3.614e-4
-1.661, 3.663e-4
-1.662, 3.719e-4
-1.663, 3.781e-4
-1.664, 3.832e-4
-1.665, 3.888e-4
-1.666, 3.938e-4
-1.667, 3.993e-4
-1.668, 4.046e-4
-1.669, 4.110e-4
-1.670, 4.169e-4
-1.671, 4.232e-4
-1.672, 4.293e-4
-1.673, 4.348e-4
-1.674, 4.397e-4
-1.675, 4.479e-4
-1.676, 4.560e-4
-1.677, 4.626e-4
-1.678, 4.687e-4
-1.679, 4.752e-4
-1.680, 4.827e-4
-1.681, 4.938e-4
-1.682, 4.985e-4
-1.683, 5.075e-4
-1.684, 5.169e-4
-1.685, 5.234e-4
-1.686, 5.307e-4
-1.687, 5.360e-4
-1.688, 5.416e-4
-1.689, 5.488e-4
-1.690, 5.587e-4
-1.691, 5.652e-4
-1.692, 5.748e-4
-1.693, 5.805e-4
-1.694, 5.898e-4
-1.695, 5.979e-4
-1.696, 6.040e-4
-1.697, 6.120e-4
-1.698, 6.183e-4
-1.699, 6.294e-4
-1.700, 6.357e-4
-1.701, 6.451e-4
-1.702, 6.537e-4
-1.703, 6.628e-4
-1.704, 6.740e-4
-1.705, 6.819e-4
-1.706, 6.897e-4
-1.707, 7.022e-4
-1.708, 7.073e-4
-1.709, 7.162e-4
-1.710, 7.241e-4
-1.711, 7.344e-4
-1.712, 7.457e-4
-1.713, 7.547e-4
-1.714, 7.685e-4
-1.715, 7.807e-4
-1.716, 7.874e-4
-1.717, 7.956e-4
-1.718, 8.051e-4
-1.719, 8.220e-4
-1.720, 8.269e-4
-1.721, 8.398e-4
-1.722, 8.497e-4
-1.723, 8.615e-4
-1.724, 8.735e-4
-1.725, 8.829e-4
-1.726, 8.984e-4
-1.727, 9.069e-4
-1.728, 9.227e-4
-1.729, 9.329e-4
-1.730, 9.427e-4
-1.731, 9.517e-4
-1.732, 9.703e-4
-1.733, 9.791e-4
-1.734, 9.932e-4
-1.735, 1.009e-3
-1.736, 1.022e-3
-1.737, 1.029e-3
-1.738, 1.050e-3
-1.739, 1.061e-3
-1.740, 1.074e-3
-1.741, 1.087e-3
-1.742, 1.107e-3
-1.743, 1.129e-3
-1.744, 1.136e-3
-1.745, 1.151e-3
-1.746, 1.172e-3
-1.747, 1.190e-3
-1.748, 1.205e-3
-1.749, 1.223e-3
-1.750, 1.242e-3
-1.751, 1.251e-3
-1.752, 1.274e-3
-1.753, 1.294e-3
-1.754, 1.313e-3
-1.755, 1.325e-3
-1.756, 1.334e-3
-1.757, 1.353e-3
-1.758, 1.360e-3
-1.759, 1.380e-3
-1.760, 1.402e-3
-1.761, 1.420e-3
-1.762, 1.437e-3
-1.763, 1.456e-3
-1.764, 1.482e-3
-1.765, 1.499e-3
-1.766, 1.515e-3
-1.767, 1.535e-3
-1.768, 1.567e-3
-1.769, 1.582e-3
-1.770, 1.605e-3
-1.771, 1.625e-3
-1.772, 1.647e-3
-1.773, 1.661e-3
-1.774, 1.680e-3
-1.775, 1.706e-3
-1.776, 1.714e-3
-1.777, 1.738e-3
-1.778, 1.762e-3
-1.779, 1.784e-3
-1.780, 1.810e-3
-1.781, 1.837e-3
-1.782, 1.865e-3
-1.783, 1.880e-3
-1.784, 1.911e-3
-1.785, 1.935e-3
-1.786, 1.958e-3
-1.787, 1.975e-3
-1.788, 1.998e-3
-1.789, 2.021e-3
-1.790, 2.047e-3
-1.791, 2.084e-3
-1.792, 2.103e-3
-1.793, 2.138e-3
-1.794, 2.164e-3
-1.795, 2.187e-3
-1.796, 2.204e-3
-1.797, 2.237e-3
-1.798, 2.277e-3
-1.799, 2.300e-3
-1.800, 2.315e-3
-1.799, 2.297e-3
-1.798, 2.292e-3
-1.797, 2.272e-3
-1.796, 2.261e-3
-1.795, 2.243e-3
-1.794, 2.216e-3
-1.793, 2.196e-3
-1.792, 2.178e-3
-1.791, 2.160e-3
-1.790, 2.147e-3
-1.789, 2.127e-3
-1.788, 2.102e-3
-1.787, 2.088e-3
-1.786, 2.083e-3
-1.785, 2.060e-3
-1.784, 2.041e-3
-1.783, 2.022e-3
-1.782, 2.007e-3
-1.781, 1.984e-3
-1.780, 1.965e-3
-1.779, 1.941e-3
-1.778, 1.931e-3
-1.777, 1.902e-3
-1.776, 1.888e-3
-1.775, 1.869e-3
-1.774, 1.857e-3
-1.773, 1.840e-3
-1.772, 1.825e-3
-1.771, 1.806e-3
-1.770, 1.789e-3
-1.769, 1.770e-3
-1.768, 1.753e-3
-1.767, 1.734e-3
-1.766, 1.711e-3
-1.765, 1.690e-3
-1.764, 1.673e-3
-1.763, 1.659e-3
-1.762, 1.641e-3
-1.761, 1.625e-3
-1.760, 1.611e-3
-1.759, 1.588e-3
-1.758, 1.574e-3
-1.757, 1.555e-3
-1.756, 1.537e-3
-1.755, 1.520e-3
-1.754, 1.500e-3
-1.753, 1.486e-3
-1.752, 1.466e-3
-1.751, 1.450e-3
-1.750, 1.433e-3
-1.749, 1.421e-3
-1.748, 1.403e-3
-1.747, 1.386e-3
-1.746, 1.374e-3
-1.745, 1.356e-3
-1.744, 1.341e-3
-1.743, 1.321e-3
-1.742, 1.305e-3
-1.741, 1.287e-3
-1.740, 1.277e-3
-1.739, 1.258e-3
-1.738, 1.249e-3
-1.737, 1.233e-3
-1.736, 1.218e-3
-1.735, 1.206e-3
-1.734, 1.192e-3
-1.733, 1.176e-3
-1.732, 1.162e-3
-1.731, 1.146e-3
-1.730, 1.135e-3
-1.729, 1.120e-3
-1.728, 1.106e-3
-1.727, 1.098e-3
-1.726, 1.083e-3
-1.725, 1.066e-3
-1.724, 1.057e-3
-1.723, 1.040e-3
-1.722, 1.030e-3
-1.721, 1.015e-3
-1.720, 9.998e-4
-1.719, 9.854e-4
-1.718, 9.671e-4
-1.717, 9.576e-4
-1.716, 9.412e-4
-1.715, 9.323e-4
-1.714, 9.196e-4
-1.713, 9.086e-4
-1.712, 8.951e-4
-1.711, 8.831e-4
-1.710, 8.701e-4
-1.709, 8.602e-4
-1.708, 8.495e-4
-1.707, 8.329e-4
-1.706, 8.220e-4
-1.705, 8.150e-4
-1.704, 8.021e-4
-1.703, 7.952e-4
-1.702, 7.848e-4
-1.701, 7.714e-4
-1.700, 7.586e-4
-1.699, 7.481e-4
-1.698, 7.363e-4
-1.697, 7.295e-4
-1.696, 7.163e-4
-1.695, 7.052e-4
-1.694, 6.969e-4
-1.693, 6.849e-4
-1.692, 6.770e-4
-1.691, 6.657e-4
-1.690, 6.574e-4
-1.689, 6.488e-4
-1.688, 6.394e-4
-1.687, 6.297e-4
-1.686, 6.187e-4
-1.685, 6.101e-4
-1.684, 6.047e-4
-1.683, 5.948e-4
-1.682, 5.867e-4
-1.681, 5.794e-4
-1.680, 5.732e-4
-1.679, 5.621e-4
-1.678, 5.513e-4
-1.677, 5.448e-4
-1.676, 5.411e-4
-1.675, 5.301e-4
-1.674, 5.199e-4
-1.673, 5.135e-4
-1.672, 5.046e-4
-1.671, 4.992e-4
-1.670, 4.928e-4
-1.669, 4.844e-4
-1.668, 4.772e-4
-1.667, 4.693e-4
-1.666, 4.622e-4
-1.665, 4.552e-4
-1.664, 4.478e-4
-1.663, 4.411e-4
-1.662, 4.340e-4
-1.661, 4.274e-4
-1.660, 4.194e-4
-1.659, 4.153e-4
-1.658, 4.090e-4
-1.657, 4.011e-4
-1.656, 3.942e-4
-1.655, 3.882e-4
-1.654, 3.815e-4
-1.653, 3.747e-4
-1.652, 3.688e-4
-1.651, 3.640e-4
-1.650, 3.570e-4
-1.649, 3.506e-4
-1.648, 3.454e-4
-1.647, 3.395e-4
-1.646, 3.327e-4
-1.645, 3.261e-4
-1.644, 3.217e-4
-1.643, 3.172e-4
-1.642, 3.111e-4
-1.641, 3.062e-4
-1.640, 3.015e-4
-1.639, 2.989e-4
-1.638, 2.932e-4
-1.637, 2.878e-4
-1.636, 2.821e-4
-1.635, 2.772e-4
-1.634, 2.727e-4
-1.633, 2.687e-4
-1.632, 2.641e-4
-1.631, 2.595e-4
-1.630, 2.562e-4
-1.629, 2.509e-4
-1.628, 2.462e-4
-1.627, 2.413e-4
-1.626, 2.381e-4
-1.625, 2.340e-4
-1.624, 2.303e-4
-1.623, 2.264e-4
-1.622, 2.225e-4
-1.621, 2.182e-4
-1.620, 2.140e-4
-1.619, 2.103e-4
-1.618, 2.062e-4
-1.617, 2.024e-4
-1.616, 1.991e-4
-1.615, 1.959e-4
-1.614, 1.927e-4
-1.613, 1.894e-4
-1.612, 1.863e-4
-1.611, 1.833e-4
-1.610, 1.794e-4
-1.609, 1.758e-4
-1.608, 1.731e-4
-1.607, 1.699e-4
-1.606, 1.671e-4
-1.605, 1.633e-4
-1.604, 1.609e-4
-1.603, 1.582e-4
-1.602, 1.551e-4
-1.601, 1.519e-4
-1.600, 1.486e-4
-1.599, 1.467e-4
-1.598, 1.441e-4
-1.597, 1.408e-4
-1.596, 1.383e-4
-1.595, 1.354e-4
-1.594, 1.334e-4
-1.593, 1.308e-4
-1.592, 1.280e-4
-1.591, 1.255e-4
-1.590, 1.231e-4
-1.589, 1.205e-4
-1.588, 1.184e-4
-1.587, 1.165e-4
-1.586, 1.139e-4
-1.585, 1.120e-4
-1.584, 1.100e-4
-1.583, 1.078e-4
-1.582, 1.060e-4
-1.581, 1.036e-4
-1.580, 1.016e-4
-1.579, 9.967e-5
-1.578, 9.768e-5
-1.577, 9.553e-5
-1.576, 9.359e-5
-1.575, 9.207e-5
-1.574, 8.986e-5
-1.573, 8.811e-5
-1.572, 8.618e-5
-1.571, 8.439e-5
-1.570, 8.269e-5
-1.569, 8.111e-5
-1.568, 7.943e-5
-1.567, 7.752e-5
-1.566, 7.618e-5
-1.565, 7.461e-5
-1.564, 7.314e-5
-1.563, 7.140e-5
-1.562, 6.988e-5
-1.561, 6.847e-5
-1.560, 6.731e-5
-1.559, 6.557e-5
-1.558, 6.444e-5
-1.557, 6.319e-5
-1.556, 6.162e-5
-1.555, 6.035e-5
-1.554, 5.924e-5
-1.553, 5.767e-5
-1.552, 5.658e-5
-1.551, 5.539e-5
-1.550, 5.438e-5
-1.549, 5.298e-5
-1.548, 5.176e-5
-1.547, 5.094e-5
-1.546, 4.986e-5
-1.545, 4.839e-5
-1.544, 4.747e-5
-1.543, 4.657e-5
-1.542, 4.542e-5
-1.541, 4.440e-5
-1.540, 4.323e-5
-1.539, 4.232e-5
-1.538, 4.148e-5
-1.537, 4.050e-5
-1.536, 3.963e-5
-1.535, 3.870e-5
-1.534, 3.785e-5
-1.533, 3.700e-5
-1.532, 3.621e-5
-1.531, 3.522e-5
-1.530, 3.448e-5
-1.529, 3.368e-5
-1.528, 3.300e-5
-1.527, 3.213e-5
-1.526, 3.134e-5
-1.525, 3.056e-5
-1.524, 2.980e-5
-1.523, 2.913e-5
-1.522, 2.834e-5
-1.521, 2.762e-5
-1.520, 2.699e-5
-1.519, 2.620e-5
-1.518, 2.553e-5
-1.517, 2.492e-5
-1.516, 2.432e-5
-1.515, 2.375e-5
-1.514, 2.333e-5
-1.513, 2.277e-5
-1.512, 2.213e-5
-1.511, 2.157e-5
-1.510, 2.097e-5
-1.509, 2.044e-5
-1.508, 1.991e-5
-1.507, 1.936e-5
-1.506, 1.887e-5
-1.505, 1.836e-5
-1.504, 1.792e-5
-1.503, 1.743e-5
-1.502, 1.695e-5
-1.501, 1.651e-5
-1.500, 1.604e-5
-1.499, 1.563e-5
-1.498, 1.524e-5
-1.497, 1.482e-5
-1.496, 1.445e-5
-1.495, 1.408e-5
-1.494, 1.367e-5
-1.493, 1.331e-5
-1.492, 1.297e-5
-1.491, 1.256e-5
-1.490, 1.226e-5
-1.489, 1.190e-5
-1.488, 1.156e-5
-1.487, 1.126e-5
-1.486, 1.093e-5
-1.485, 1.065e-5
-1.484, 1.039e-5
-1.483, 1.005e-5
-1.482, 9.811e-6
-1.481, 9.498e-6
-1.480, 9.219e-6
-1.479, 8.971e-6
-1.478, 8.707e-6
-1.477, 8.471e-6
-1.476, 8.251e-6
-1.475, 7.994e-6
-1.474, 7.780e-6
-1.473, 7.532e-6
-1.472, 7.354e-6
-1.471, 7.120e-6
-1.470, 6.923e-6
-1.469, 6.691e-6
-1.468, 6.513e-6
-1.467, 6.337e-6
-1.466, 6.178e-6
-1.465, 5.977e-6
-1.464, 5.784e-6
-1.463, 5.615e-6
-1.462, 5.444e-6
-1.461, 5.271e-6
-1.460, 5.134e-6
-1.459, 4.954e-6
-1.458, 4.805e-6
-1.457, 4.642e-6
-1.456, 4.524e-6
-1.455, 4.366e-6
-1.454, 4.239e-6
-1.453, 4.098e-6
-1.452, 3.981e-6
-1.451, 3.867e-6
-1.450, 3.762e-6
-1.449, 3.629e-6
-1.448, 3.537e-6
-1.447, 3.401e-6
-1.446, 3.307e-6
-1.445, 3.205e-6
-1.444, 3.071e-6
-1.443, 2.989e-6
-1.442, 2.896e-6
-1.441, 2.815e-6
-1.440, 2.716e-6
-1.439, 2.632e-6
-1.438, 2.543e-6
-1.437, 2.468e-6
-1.436, 2.384e-6
-1.435, 2.302e-6
-1.434, 2.220e-6
-1.433, 2.145e-6
-1.432, 2.080e-6
-1.431, 2.020e-6
-1.430, 1.953e-6
-1.429, 1.863e-6
-1.428, 1.814e-6
-1.427, 1.744e-6
-1.426, 1.707e-6
-1.425, 1.652e-6
-1.424, 1.586e-6
-1.423, 1.525e-6
-1.422, 1.472e-6
-1.421, 1.434e-6
-1.420, 1.378e-6
-1.419, 1.337e-6
-1.418, 1.276e-6
-1.417, 1.224e-6
-1.416, 1.199e-6
-1.415, 1.152e-6
-1.414, 1.103e-6
-1.413, 1.058e-6
-1.412, 1.019e-6
-1.411, 9.992e-7
-1.410, 9.568e-7
-1.409, 9.183e-7
-1.408, 8.631e-7
-1.407, 8.256e-7
-1.406, 8.098e-7
-1.405, 7.664e-7
-1.404, 7.279e-7
-1.403, 7.092e-7
-1.402, 6.667e-7
-1.401, 6.312e-7
-1.400, 6.312e-7
-1.399, 5.898e-7
-1.398, 5.592e-7
-1.397, 5.345e-7
-1.396, 5.227e-7
-1.395, 4.704e-7
-1.394, 4.625e-7
-1.393, 4.240e-7
-1.392, 3.984e-7
-1.391, 3.905e-7
-1.390, 3.737e-7
-1.389, 3.510e-7
-1.388, 3.264e-7
-1.387, 2.968e-7
-1.386, 2.968e-7
-1.385, 2.514e-7
-1.384, 2.652e-7
-1.383, 2.139e-7
-1.382, 1.863e-7
-1.381, 1.991e-7
-1.380, 1.656e-7
-1.379, 1.409e-7
-1.378, 1.350e-7
-1.377, 1.212e-7
-1.376, 1.241e-7
-1.375, 9.156e-8
-1.374, 6.689e-8
-1.373, 5.012e-8
-1.372, 3.039e-8
-1.371, 3.335e-8
-1.370, 2.249e-8
-1.369, -1.993e-8
-1.368, -1.500e-8
-1.367, -3.769e-8
-1.366, -5.347e-8
-1.365, -6.433e-8
-1.364, -6.334e-8
-1.363, -8.800e-8
-1.362, -9.392e-8
-1.361, -9.886e-8
-1.360, -1.146e-7
-1.359, -1.600e-7
-1.358, -1.304e-7
-1.357, -1.640e-7
-1.356, -1.807e-7
-1.355, -1.985e-7
-1.354, -1.886e-7
-1.353, -2.084e-7
-1.352, -2.301e-7
-1.351, -2.084e-7
-1.350, -2.390e-7
-1.349, -2.518e-7
-1.348, -2.547e-7
-1.347, -2.686e-7
-1.346, -2.725e-7
-1.345, -2.952e-7
-1.344, -3.041e-7
-1.343, -3.031e-7
-1.342, -3.258e-7
-1.341, -3.080e-7
-1.340, -3.307e-7
-1.339, -3.544e-7
-1.338, -3.633e-7
-1.337, -3.741e-7
-1.336, -3.643e-7
-1.335, -3.869e-7
-1.334, -4.037e-7
-1.333, -4.086e-7
-1.332, -4.057e-7
-1.331, -4.126e-7
-1.330, -4.392e-7
-1.329, -4.452e-7
-1.328, -4.530e-7
-1.327, -4.649e-7
-1.326, -4.669e-7
-1.325, -4.708e-7
-1.324, -4.738e-7
-1.323, -4.807e-7
-1.322, -5.053e-7
-1.321, -5.073e-7
-1.320, -4.984e-7
-1.319, -5.241e-7
-1.318, -5.418e-7
-1.317, -5.359e-7
-1.316, -5.497e-7
-1.315, -5.478e-7
-1.314, -5.695e-7
-1.313, -5.734e-7
-1.312, -5.852e-7
-1.311, -5.813e-7
-1.310, -5.793e-7
-1.309, -5.902e-7
-1.308, -6.148e-7
-1.307, -6.296e-7
-1.306, -6.168e-7
-1.305, -6.336e-7
-1.304, -6.385e-7
-1.303, -6.484e-7
-1.302, -6.553e-7
-1.301, -6.573e-7
-1.300, -6.701e-7
-1.299, -6.790e-7
-1.298, -6.839e-7
-1.297, -7.056e-7
-1.296, -6.888e-7
-1.295, -7.056e-7
-1.294, -7.283e-7
-1.293, -7.204e-7
-1.292, -7.362e-7
-1.291, -7.273e-7
-1.290, -7.342e-7
-1.289, -7.678e-7
-1.288, -7.668e-7
-1.287, -7.697e-7
-1.286, -7.717e-7
-1.285, -7.826e-7
-1.284, -8.033e-7
-1.283, -7.954e-7
-1.282, -8.092e-7
-1.281, -8.062e-7
-1.280, -8.250e-7
-1.279, -8.358e-7
-1.278, -8.408e-7
-1.277, -8.467e-7
-1.276, -8.566e-7
-1.275, -8.654e-7
-1.274, -8.714e-7
-1.273, -8.891e-7
-1.272, -9.059e-7
-1.271, -8.911e-7
-1.270, -9.118e-7
-1.269, -9.069e-7
-1.268, -9.335e-7
-1.267, -9.463e-7
-1.266, -9.355e-7
-1.265, -9.493e-7
-1.264, -9.552e-7
-1.263, -9.671e-7
-1.262, -9.700e-7
-1.261, -9.809e-7
-1.260, -9.819e-7
-1.259, -9.898e-7
-1.258, -1.002e-6
-1.257, -1.017e-6
-1.256, -1.002e-6
-1.255, -1.019e-6
-1.254, -1.044e-6
-1.253, -1.050e-6
-1.252, -1.066e-6
-1.251, -1.057e-6
-1.250, -1.060e-6
-1.249, -1.059e-6
-1.248, -1.078e-6
-1.247, -1.082e-6
-1.246, -1.085e-6
-1.245, -1.105e-6
-1.244, -1.113e-6
-1.243, -1.125e-6
-1.242, -1.124e-6
-1.241, -1.116e-6
-1.240, -1.136e-6
-1.239, -1.154e-6
-1.238, -1.167e-6
-1.237, -1.153e-6
-1.236, -1.151e-6
-1.235, -1.179e-6
-1.234, -1.175e-6
-1.233, -1.180e-6
-1.232, -1.177e-6
-1.231, -1.185e-6
-1.230, -1.208e-6
-1.229, -1.238e-6
-1.228, -1.230e-6
-1.227, -1.238e-6
-1.226, -1.228e-6
-1.225, -1.255e-6
-1.224, -1.257e-6
-1.223, -1.257e-6
-1.222, -1.279e-6
-1.221, -1.262e-6
-1.220, -1.270e-6
-1.219, -1.300e-6
-1.218, -1.283e-6
-1.217, -1.304e-6
-1.216, -1.296e-6
-1.215, -1.317e-6
-1.214, -1.319e-6
-1.213, -1.316e-6
-1.212, -1.319e-6
-1.211, -1.332e-6
-1.210, -1.325e-6
-1.209, -1.319e-6
-1.208, -1.327e-6
-1.207, -1.353e-6
-1.206, -1.325e-6
-1.205, -1.324e-6
-1.204, -1.352e-6
-1.203, -1.364e-6
-1.202, -1.345e-6
-1.201, -1.357e-6
-1.200, -1.355e-6
-1.199, -1.366e-6
-1.198, -1.374e-6
-1.197, -1.360e-6
-1.196, -1.375e-6
-1.195, -1.367e-6
-1.194, -1.387e-6
-1.193, -1.406e-6
-1.192, -1.415e-6
-1.191, -1.407e-6
-1.190, -1.420e-6
-1.189, -1.387e-6
-1.188, -1.388e-6
-1.187, -1.392e-6
-1.186, -1.390e-6
-1.185, -1.381e-6
-1.184, -1.391e-6
-1.183, -1.386e-6
-1.182, -1.395e-6
-1.181, -1.382e-6
-1.180, -1.388e-6
-1.179, -1.402e-6
-1.178, -1.391e-6
-1.177, -1.412e-6
-1.176, -1.383e-6
-1.175, -1.395e-6
-1.174, -1.410e-6
-1.173, -1.397e-6
-1.172, -1.414e-6
-1.171, -1.396e-6
-1.170, -1.403e-6
-1.169, -1.417e-6
-1.168, -1.415e-6
-1.167, -1.421e-6
-1.166, -1.428e-6
-1.165, -1.411e-6
-1.164, -1.441e-6
-1.163, -1.433e-6
-1.162, -1.419e-6
-1.161, -1.429e-6
-1.160, -1.439e-6
-1.159, -1.442e-6
-1.158, -1.449e-6
-1.157, -1.451e-6
-1.156, -1.437e-6
-1.155, -1.453e-6
-1.154, -1.459e-6
-1.153, -1.472e-6
-1.152, -1.469e-6
-1.151, -1.467e-6
-1.150, -1.473e-6
-1.149, -1.474e-6
-1.148, -1.505e-6
-1.147, -1.499e-6
-1.146, -1.488e-6
-1.145, -1.489e-6
-1.144, -1.517e-6
-1.143, -1.517e-6
-1.142, -1.514e-6
-1.141, -1.503e-6
-1.140, -1.518e-6
-1.139, -1.528e-6
-1.138, -1.530e-6
-1.137, -1.546e-6
-1.136, -1.530e-6
-1.135, -1.538e-6
-1.134, -1.556e-6
-1.133, -1.562e-6
-1.132, -1.569e-6
-1.131, -1.557e-6
-1.130, -1.556e-6
-1.129, -1.580e-6
-1.128, -1.576e-6
-1.127, -1.580e-6
-1.126, -1.597e-6
-1.125, -1.592e-6
-1.124, -1.612e-6
-1.123, -1.622e-6
-1.122, -1.607e-6
-1.121, -1.613e-6
-1.120, -1.616e-6
-1.119, -1.625e-6
-1.118, -1.644e-6
-1.117, -1.634e-6
-1.116, -1.649e-6
-1.115, -1.647e-6
-1.114, -1.672e-6
-1.113, -1.663e-6
-1.112, -1.678e-6
-1.111, -1.670e-6
-1.110, -1.684e-6
-1.109, -1.696e-6
-1.108, -1.696e-6
-1.107, -1.707e-6
-1.106, -1.696e-6
-1.105, -1.708e-6
-1.104, -1.717e-6
-1.103, -1.730e-6
-1.102, -1.735e-6
-1.101, -1.742e-6
-1.100, -1.734e-6
-1.099, -1.763e-6
-1.098, -1.767e-6
-1.097, -1.768e-6
-1.096, -1.774e-6
-1.095, -1.773e-6
-1.094, -1.791e-6
-1.093, -1.799e-6
-1.092, -1.819e-6
-1.091, -1.818e-6
-1.090, -1.794e-6
-1.089, -1.813e-6
-1.088, -1.817e-6
-1.087, -1.824e-6
-1.086, -1.818e-6
-1.085, -1.831e-6
-1.084, -1.838e-6
-1.083, -1.831e-6
-1.082, -1.839e-6
-1.081, -1.838e-6
-1.080, -1.851e-6
-1.079, -1.860e-6
-1.078, -1.872e-6
-1.077, -1.873e-6
-1.076, -1.875e-6
-1.075, -1.884e-6
-1.074, -1.892e-6
-1.073, -1.904e-6
-1.072, -1.910e-6
-1.071, -1.901e-6
-1.070, -1.906e-6
-1.069, -1.962e-6
-1.068, -2.007e-6
-1.067, -2.000e-6
-1.066, -1.982e-6
-1.065, -1.984e-6
-1.064, -1.971e-6
-1.063, -1.979e-6
-1.062, -1.974e-6
-1.061, -1.987e-6
-1.060, -1.986e-6
-1.059, -1.976e-6
-1.058, -1.975e-6
-1.057, -1.983e-6
-1.056, -1.986e-6
-1.055, -1.987e-6
-1.054, -2.000e-6
-1.053, -2.007e-6
-1.052, -2.019e-6
-1.051, -2.000e-6
-1.050, -2.007e-6
-1.049, -2.014e-6
-1.048, -2.034e-6
-1.047, -2.018e-6
-1.046, -2.031e-6
-1.045, -2.019e-6
-1.044, -2.031e-6
-1.043, -2.045e-6
-1.042, -2.035e-6
-1.041, -2.019e-6
-1.040, -2.030e-6
-1.039, -2.015e-6
-1.038, -2.030e-6
-1.037, -2.035e-6
-1.036, -2.026e-6
-1.035, -2.039e-6
-1.034, -2.046e-6
-1.033, -2.051e-6
-1.032, -2.051e-6
-1.031, -2.035e-6
-1.030, -2.046e-6
-1.029, -2.051e-6
-1.028, -2.055e-6
-1.027, -2.066e-6
-1.026, -2.048e-6
-1.025, -2.057e-6
-1.024, -2.073e-6
-1.023, -2.071e-6
-1.022, -2.061e-6
-1.021, -2.060e-6
-1.020, -2.059e-6
-1.019, -2.073e-6
-1.018, -2.065e-6
-1.017, -2.062e-6
-1.016, -2.068e-6
-1.015, -2.066e-6
-1.014, -2.083e-6
-1.013, -2.064e-6
-1.012, -2.066e-6
-1.011, -2.055e-6
-1.010, -2.080e-6
-1.009, -2.069e-6
-1.008, -2.086e-6
-1.007, -2.081e-6
-1.006, -2.078e-6
-1.005, -2.081e-6
-1.004, -2.079e-6
-1.003, -2.085e-6
-1.002, -2.096e-6
-1.001, -2.082e-6
-1.000, -1.786e-6
-1.001, -1.602e-6
-1.002, -1.480e-6
-1.003, -1.379e-6
-1.004, -1.316e-6
-1.005, -1.229e-6
-1.006, -1.168e-6
-1.007, -1.104e-6
-1.008, -1.047e-6
-1.009, -1.006e-6
-1.010, -9.621e-7
-1.011, -9.315e-7
-1.012, -8.457e-7
-1.013, -8.230e-7
-1.014, -7.766e-7
-1.015, -7.540e-7
-1.016, -7.007e-7
-1.017, -6.711e-7
-1.018, -6.474e-7
-1.019, -6.030e-7
-1.020, -5.774e-7
-1.021, -5.695e-7
-1.022, -5.428e-7
-1.023, -5.034e-7
-1.024, -4.728e-7
-1.025, -4.363e-7
-1.026, -4.304e-7
-1.027, -4.086e-7
-1.028, -3.948e-7
-1.029, -3.573e-7
-1.030, -3.307e-7
-1.031, -3.208e-7
-1.032, -3.060e-7
-1.033, -2.784e-7
-1.034, -2.587e-7
-1.035, -2.271e-7
-1.036, -2.074e-7
-1.037, -2.113e-7
-1.038, -1.659e-7
-1.039, -1.511e-7
-1.040, -1.571e-7
-1.041, -1.373e-7
-1.042, -1.146e-7
-1.043, -1.038e-7
-1.044, -7.814e-8
-1.045, -6.827e-8
-1.046, -5.742e-8
-1.047, -4.854e-8
-1.048, -3.177e-8
-1.049, -2.171e-9
-1.050, 2.348e-8
-1.051, 2.841e-8
-1.052, 3.828e-8
-1.053, 5.012e-8
-1.054, 6.492e-8
-1.055, 7.972e-8
-1.056, 9.057e-8
-1.057, 9.649e-8
-1.058, 1.142e-7
-1.059, 1.290e-7
-1.060, 1.379e-7
-1.061, 1.577e-7
-1.062, 1.774e-7
-1.063, 1.764e-7
-1.064, 1.951e-7
-1.065, 2.011e-7
-1.066, 2.109e-7
-1.067, 2.188e-7
-1.068, 2.435e-7
-1.069, 2.573e-7
-1.070, 2.662e-7
-1.071, 2.711e-7
-1.072, 2.622e-7
-1.073, 2.908e-7
-1.074, 3.293e-7
-1.075, 3.323e-7
-1.076, 3.274e-7
-1.077, 3.303e-7
-1.078, 3.570e-7
-1.079, 3.658e-7
-1.080, 3.619e-7
-1.081, 3.767e-7
-1.082, 3.925e-7
-1.083, 3.895e-7
-1.084, 4.142e-7
-1.085, 4.309e-7
-1.086, 4.309e-7
-1.087, 4.369e-7
-1.088, 4.507e-7
-1.089, 4.625e-7
-1.090, 4.763e-7
-1.091, 4.872e-7
-1.092, 5.000e-7
-1.093, 4.980e-7
-1.094, 5.188e-7
-1.095, 5.286e-7
-1.096, 5.375e-7
-1.097, 5.385e-7
-1.098, 5.503e-7
-1.099, 5.701e-7
-1.100, 5.730e-7
-1.101, 5.829e-7
-1.102, 5.918e-7
-1.103, 6.016e-7
-1.104, 6.125e-7
-1.105, 6.273e-7
-1.106, 6.302e-7
-1.107, 6.371e-7
-1.108, 6.421e-7
-1.109, 6.579e-7
-1.110, 6.756e-7
-1.111, 6.806e-7
-1.112, 6.845e-7
-1.113, 6.934e-7
-1.114, 7.269e-7
-1.115, 7.250e-7
-1.116, 7.230e-7
-1.117, 7.447e-7
-1.118, 7.476e-7
-1.119, 7.496e-7
-1.120, 7.644e-7
-1.121, 7.693e-7
-1.122, 7.851e-7
-1.123, 7.970e-7
-1.124, 8.108e-7
-1.125, 8.039e-7
-1.126, 8.088e-7
-1.127, 8.305e-7
-1.128, 8.315e-7
-1.129, 8.522e-7
-1.130, 8.433e-7
-1.131, 8.660e-7
-1.132, 8.591e-7
-1.133, 8.828e-7
-1.134, 8.808e-7
-1.135, 8.798e-7
-1.136, 9.035e-7
-1.137, 9.163e-7
-1.138, 9.302e-7
-1.139, 9.459e-7
-1.140, 9.617e-7
-1.141, 9.361e-7
-1.142, 9.686e-7
-1.143, 9.627e-7
-1.144, 9.726e-7
-1.145, 9.943e-7
-1.146, 9.903e-7
-1.147, 1.001e-6
-1.148, 1.007e-6
-1.149, 1.024e-6
-1.150, 1.027e-6
-1.151, 1.024e-6
-1.152, 1.047e-6
-1.153, 1.056e-6
-1.154, 1.085e-6
-1.155, 1.091e-6
-1.156, 1.091e-6
-1.157, 1.078e-6
-1.158, 1.113e-6
-1.159, 1.125e-6
-1.160, 1.121e-6
-1.161, 1.129e-6
-1.162, 1.133e-6
-1.163, 1.145e-6
-1.164, 1.162e-6
-1.165, 1.175e-6
-1.166, 1.173e-6
-1.167, 1.181e-6
-1.168, 1.210e-6
-1.169, 1.202e-6
-1.170, 1.221e-6
-1.171, 1.227e-6
-1.172, 1.221e-6
-1.173, 1.241e-6
-1.174, 1.264e-6
-1.175, 1.249e-6
-1.176, 1.258e-6
-1.177, 1.282e-6
-1.178, 1.287e-6
-1.179, 1.296e-6
-1.180, 1.302e-6
-1.181, 1.315e-6
-1.182, 1.329e-6
-1.183, 1.317e-6
-1.184, 1.338e-6
-1.185, 1.353e-6
-1.186, 1.354e-6
-1.187, 1.356e-6
-1.188, 1.372e-6
-1.189, 1.390e-6
-1.190, 1.384e-6
-1.191, 1.403e-6
-1.192, 1.415e-6
-1.193, 1.408e-6
-1.194, 1.432e-6
-1.195, 1.434e-6
-1.196, 1.435e-6
-1.197, 1.458e-6
-1.198, 1.447e-6
-1.199, 1.452e-6
-1.200, 1.494e-6
-1.201, 1.478e-6
-1.202, 1.496e-6
-1.203, 1.509e-6
-1.204, 1.515e-6
-1.205, 1.522e-6
-1.206, 1.517e-6
-1.207, 1.532e-6
-1.208, 1.533e-6
-1.209, 1.547e-6
-1.210, 1.558e-6
-1.211, 1.554e-6
-1.212, 1.554e-6
-1.213, 1.561e-6
-1.214, 1.565e-6
-1.215, 1.591e-6
-1.216, 1.579e-6
-1.217, 1.606e-6
-1.218, 1.593e-6
-1.219, 1.631e-6
-1.220, 1.609e-6
-1.221, 1.612e-6
-1.222, 1.629e-6
-1.223, 1.636e-6
-1.224, 1.644e-6
-1.225, 1.660e-6
-1.226, 1.637e-6
-1.227, 1.647e-6
-1.228, 1.684e-6
-1.229, 1.691e-6
-1.230, 1.678e-6
-1.231, 1.680e-6
-1.232, 1.707e-6
-1.233, 1.702e-6
-1.234, 1.700e-6
-1.235, 1.723e-6
-1.236, 1.720e-6
-1.237, 1.715e-6
-1.238, 1.714e-6
-1.239, 1.730e-6
-1.240, 1.734e-6
-1.241, 1.732e-6
-1.242, 1.741e-6
-1.243, 1.756e-6
-1.244, 1.749e-6
-1.245, 1.771e-6
-1.246, 1.768e-6
-1.247, 1.782e-6
-1.248, 1.770e-6
-1.249, 1.792e-6
-1.250, 1.803e-6
-1.251, 1.798e-6
-1.252, 1.810e-6
-1.253, 1.802e-6
-1.254, 1.822e-6
-1.255, 1.839e-6
-1.256, 1.846e-6
-1.257, 1.817e-6
-1.258, 1.851e-6
-1.259, 1.858e-6
-1.260, 1.864e-6
-1.261, 1.876e-6
-1.262, 1.861e-6
-1.263, 1.856e-6
-1.264, 1.887e-6
-1.265, 1.892e-6
-1.266, 1.919e-6
-1.267, 1.919e-6
-1.268, 1.922e-6
-1.269, 1.929e-6
-1.270, 1.944e-6
-1.271, 1.959e-6
-1.272, 1.958e-6
-1.273, 1.952e-6
-1.274, 1.986e-6
-1.275, 1.984e-6
-1.276, 2.004e-6
-1.277, 2.008e-6
-1.278, 2.010e-6
-1.279, 2.022e-6
-1.280, 2.036e-6
-1.281, 2.038e-6
-1.282, 2.043e-6
-1.283, 2.049e-6
-1.284, 2.062e-6
-1.285, 2.076e-6
-1.286, 2.075e-6
-1.287, 2.089e-6
-1.288, 2.086e-6
-1.289, 2.129e-6
-1.290, 2.123e-6
-1.291, 2.122e-6
-1.292, 2.128e-6
-1.293, 2.130e-6
-1.294, 2.161e-6
-1.295, 2.179e-6
-1.296, 2.158e-6
-1.297, 2.175e-6
-1.298, 2.178e-6
-1.299, 2.203e-6
-1.300, 2.210e-6
-1.301, 2.207e-6
-1.302, 2.206e-6
-1.303, 2.232e-6
-1.304, 2.228e-6
-1.305, 2.259e-6
-1.306, 2.261e-6
-1.307, 2.251e-6
-1.308, 2.270e-6
-1.309, 2.267e-6
-1.310, 2.275e-6
-1.311, 2.295e-6
-1.312, 2.282e-6
-1.313, 2.283e-6
-1.314, 2.288e-6
-1.315, 2.291e-6
-1.316, 2.283e-6
-1.317, 2.287e-6
-1.318, 2.292e-6
-1.319, 2.311e-6
-1.320, 2.298e-6
-1.321, 2.304e-6
-1.322, 2.299e-6
-1.323, 2.298e-6
-1.324, 2.304e-6
-1.325, 2.333e-6
-1.326, 2.308e-6
-1.327, 2.304e-6
-1.328, 2.292e-6
-1.329, 2.299e-6
-1.330, 2.315e-6
-1.331, 2.303e-6
-1.332, 2.293e-6
-1.333, 2.291e-6
-1.334, 2.296e-6
-1.335, 2.302e-6
-1.336, 2.296e-6
-1.337, 2.285e-6
-1.338, 2.297e-6
-1.339, 2.285e-6
-1.340, 2.304e-6
-1.341, 2.277e-6
-1.342, 2.286e-6
-1.343, 2.284e-6
-1.344, 2.286e-6
-1.345, 2.279e-6
-1.346, 2.282e-6
-1.347, 2.280e-6
-1.348, 2.284e-6
-1.349, 2.285e-6
-1.350, 2.301e-6
-1.351, 2.298e-6
-1.352, 2.290e-6
-1.353, 2.276e-6
-1.354, 2.300e-6
-1.355, 2.295e-6
-1.356, 2.303e-6
-1.357, 2.299e-6
-1.358, 2.295e-6
-1.359, 2.308e-6
-1.360, 2.308e-6
-1.361, 2.306e-6
-1.362, 2.291e-6
-1.363, 2.307e-6
-1.364, 2.330e-6
-1.365, 2.329e-6
-1.366, 2.321e-6
-1.367, 2.324e-6
-1.368, 2.329e-6
-1.369, 2.336e-6
-1.370, 2.338e-6
-1.371, 2.329e-6
-1.372, 2.357e-6
-1.373, 2.364e-6
-1.374, 2.361e-6
-1.375, 2.383e-6
-1.376, 2.369e-6
-1.377, 2.371e-6
-1.378, 2.386e-6
-1.379, 2.388e-6
-1.380, 2.388e-6
-1.381, 2.395e-6
-1.382, 2.403e-6
-1.383, 2.451e-6
-1.384, 2.445e-6
-1.385, 2.455e-6
-1.386, 2.454e-6
-1.387, 2.450e-6
-1.388, 2.474e-6
-1.389, 2.496e-6
-1.390, 2.503e-6
-1.391, 2.503e-6
-1.392, 2.497e-6
-1.393, 2.519e-6
-1.394, 2.517e-6
-1.395, 2.548e-6
-1.396, 2.563e-6
-1.397, 2.571e-6
-1.398, 2.569e-6
-1.399, 2.598e-6
-1.400, 2.609e-6
-1.401, 2.598e-6
-1.402, 2.634e-6
-1.403, 2.646e-6
-1.404, 2.659e-6
-1.405, 2.691e-6
-1.406, 2.700e-6
-1.407, 2.722e-6
-1.408, 2.757e-6
-1.409, 2.785e-6
-1.410, 2.786e-6
-1.411, 2.814e-6
-1.412, 2.836e-6
-1.413, 2.841e-6
-1.414, 2.881e-6
-1.415, 2.907e-6
-1.416, 2.929e-6
-1.417, 2.956e-6
-1.418, 2.989e-6
-1.419, 3.019e-6
-1.420, 3.067e-6
-1.421, 3.110e-6
-1.422, 3.142e-6
-1.423, 3.185e-6
-1.424, 3.226e-6
-1.425, 3.266e-6
-1.426, 3.325e-6
-1.427, 3.364e-6
-1.428, 3.415e-6
-1.429, 3.468e-6
-1.430, 3.515e-6
-1.431, 3.555e-6
-1.432, 3.608e-6
-1.433, 3.664e-6
-1.434, 3.718e-6
-1.435, 3.784e-6
-1.436, 3.816e-6
-1.437, 3.871e-6
-1.438, 3.934e-6
-1.439, 3.983e-6
-1.440, 4.060e-6
-1.441, 4.132e-6
-1.442, 4.174e-6
-1.443, 4.220e-6
-1.444, 4.300e-6
-1.445, 4.382e-6
-1.446, 4.432e-6
-1.447, 4.530e-6
-1.448, 4.589e-6
-1.449, 4.667e-6
-1.450, 4.763e-6
-1.451, 4.828e-6
-1.452, 4.914e-6
-1.453, 5.014e-6
-1.454, 5.097e-6
-1.455, 5.208e-6
-1.456, 5.311e-6
-1.457, 5.404e-6
-1.458, 5.512e-6
-1.459, 5.607e-6
-1.460, 5.742e-6
-1.461, 5.841e-6
-1.462, 5.958e-6
-1.463, 6.084e-6
-1.464, 6.216e-6
-1.465, 6.350e-6
-1.466, 6.457e-6
-1.467, 6.618e-6
-1.468, 6.749e-6
-1.469, 6.917e-6
-1.470, 7.059e-6
-1.471, 7.215e-6
-1.472, 7.359e-6
-1.473, 7.551e-6
-1.474, 7.703e-6
-1.475, 7.898e-6
-1.476, 8.066e-6
-1.477, 8.236e-6
-1.478, 8.440e-6
-1.479, 8.671e-6
-1.480, 8.883e-6
-1.481, 9.067e-6
-1.482, 9.259e-6
-1.483, 9.489e-6
-1.484, 9.733e-6
-1.485, 9.983e-6
-1.486, 1.023e-5
-1.487, 1.049e-5
-1.488, 1.075e-5
-1.489, 1.103e-5
-1.490, 1.131e-5
-1.491, 1.159e-5
-1.492, 1.191e-5
-1.493, 1.219e-5
-1.494, 1.252e-5
-1.495, 1.286e-5
-1.496, 1.316e-5
-1.497, 1.354e-5
-1.498, 1.391e-5
-1.499, 1.425e-5
-1.500, 1.462e-5
-1.501, 1.500e-5
-1.502, 1.538e-5
-1.503, 1.577e-5
-1.504, 1.618e-5
-1.505, 1.661e-5
-1.506, 1.703e-5
-1.507, 1.747e-5
-1.508, 1.794e-5
-1.509, 1.839e-5
-1.510, 1.890e-5
-1.511, 1.940e-5
-1.512, 1.987e-5
-1.513, 2.037e-5
-1.514, 2.088e-5
-1.515, 2.146e-5
-1.516, 2.204e-5
-1.517, 2.256e-5
-1.518, 2.313e-5
-1.519, 2.372e-5
-1.520, 2.439e-5
-1.521, 2.503e-5
-1.522, 2.574e-5
-1.523, 2.639e-5
-1.524, 2.706e-5
-1.525, 2.779e-5
-1.526, 2.850e-5
-1.527, 2.922e-5
-1.528, 2.992e-5
-1.529, 3.071e-5
-1.530, 3.153e-5
-1.531, 3.229e-5
-1.532, 3.307e-5
-1.533, 3.383e-5
-1.534, 3.468e-5
-1.535, 3.562e-5
-1.536, 3.649e-5
-1.537, 3.721e-5
-1.538, 3.805e-5
-1.539, 3.887e-5
-1.540, 3.983e-5
-1.541, 4.084e-5
-1.542, 4.181e-5
-1.543, 4.273e-5
-1.544, 4.380e-5
-1.545, 4.488e-5
-1.546, 4.604e-5
-1.547, 4.714e-5
-1.548, 4.820e-5
-1.549, 4.931e-5
-1.550, 5.054e-5
-1.551, 5.184e-5
-1.552, 5.295e-5
-1.553, 5.412e-5
-1.554, 5.547e-5
-1.555, 5.677e-5
-1.556, 5.807e-5
-1.557, 5.905e-5
-1.558, 6.035e-5
-1.559, 6.188e-5
-1.560, 6.335e-5
-1.561, 6.478e-5
-1.562, 6.635e-5
-1.563, 6.756e-5
-1.564, 6.879e-5
-1.565, 7.044e-5
-1.566, 7.208e-5
-1.567, 7.370e-5
-1.568, 7.559e-5
-1.569, 7.715e-5
-1.570, 7.859e-5
-1.571, 8.025e-5
-1.572, 8.203e-5
-1.573, 8.390e-5
-1.574, 8.580e-5
-1.575, 8.755e-5
-1.576, 8.926e-5
-1.577, 9.104e-5
-1.578, 9.302e-5
-1.579, 9.413e-5
-1.580, 9.620e-5
-1.581, 9.758e-5
-1.582, 9.965e-5
-1.583, 1.016e-4
-1.584, 1.034e-4
-1.585, 1.058e-4
-1.586, 1.081e-4
-1.587, 1.099e-4
-1.588, 1.124e-4
-1.589, 1.145e-4
-1.590, 1.174e-4
-1.591, 1.193e-4
-1.592, 1.210e-4
-1.593, 1.239e-4
-1.594, 1.257e-4
-1.595, 1.288e-4
-1.596, 1.312e-4
-1.597, 1.341e-4
-1.598, 1.362e-4
-1.599, 1.389e-4
-1.600, 1.411e-4
-1.601, 1.430e-4
-1.602, 1.459e-4
-1.603, 1.487e-4
-1.604, 1.512e-4
-1.605, 1.546e-4
-1.606, 1.568e-4
-1.607, 1.600e-4
-1.608, 1.630e-4
-1.609, 1.654e-4
-1.610, 1.694e-4
-1.611, 1.718e-4
-1.612, 1.754e-4
-1.613, 1.781e-4
-1.614, 1.809e-4
-1.615, 1.846e-4
-1.616, 1.878e-4
-1.617, 1.913e-4
-1.618, 1.957e-4
-1.619, 1.987e-4
-1.620, 2.011e-4
-1.621, 2.052e-4
-1.622, 2.075e-4
-1.623, 2.117e-4
-1.624, 2.152e-4
-1.625, 2.177e-4
-1.626, 2.217e-4
-1.627, 2.262e-4
-1.628, 2.303e-4
-1.629, 2.345e-4
-1.630, 2.381e-4
-1.631, 2.424e-4
-1.632, 2.460e-4
-1.633, 2.501e-4
-1.634, 2.539e-4
-1.635, 2.590e-4
-1.636, 2.632e-4
-1.637, 2.672e-4
-1.638, 2.711e-4
-1.639, 2.764e-4
-1.640, 2.803e-4
-1.641, 2.858e-4
-1.642, 2.896e-4
-1.643, 2.958e-4
-1.644, 3.006e-4
-1.645, 3.058e-4
-1.646, 3.092e-4
-1.647, 3.138e-4
-1.648, 3.191e-4
-1.649, 3.249e-4
-1.650, 3.299e-4
-1.651, 3.318e-4
-1.652, 3.387e-4
-1.653, 3.433e-4
-1.654, 3.481e-4
-1.655, 3.535e-4
-1.656, 3.580e-4
-1.657, 3.632e-4
-1.658, 3.678e-4
-1.659, 3.764e-4
-1.660, 3.813e-4
-1.661, 3.859e-4
-1.662, 3.904e-4
-1.663, 3.944e-4
-1.664, 4.014e-4
-1.665, 4.082e-4
-1.666, 4.120e-4
-1.667, 4.189e-4
-1.668, 4.243e-4
-1.669, 4.303e-4
-1.670, 4.386e-4
-1.671, 4.442e-4
-1.672, 4.522e-4
-1.673, 4.581e-4
-1.674, 4.633e-4
-1.675, 4.708e-4
-1.676, 4.793e-4
-1.677, 4.845e-4
-1.678, 4.897e-4
-1.679, 4.973e-4
-1.680, 5.051e-4
-1.681, 5.120e-4
-1.682, 5.190e-4
-1.683, 5.289e-4
-1.684, 5.328e-4
-1.685, 5.401e-4
-1.686, 5.473e-4
-1.687, 5.553e-4
-1.688, 5.626e-4
-1.689, 5.686e-4
-1.690, 5.784e-4
-1.691, 5.867e-4
-1.692, 5.929e-4
-1.693, 6.026e-4
-1.694, 6.126e-4
-1.695, 6.180e-4
-1.696, 6.293e-4
-1.697, 6.329e-4
-1.698, 6.449e-4
-1.699, 6.537e-4
-1.700, 6.664e-4
-1.701, 6.729e-4
-1.702, 6.801e-4
-1.703, 6.898e-4
-1.704, 6.987e-4
-1.705, 7.079e-4
-1.706, 7.199e-4
-1.707, 7.290e-4
-1.708, 7.352e-4
-1.709, 7.453e-4
-1.710, 7.533e-4
-1.711, 7.634e-4
-1.712, 7.757e-4
-1.713, 7.861e-4
-1.714, 7.981e-4
-1.715, 8.061e-4
-1.716, 8.214e-4
-1.717, 8.335e-4
-1.718, 8.429e-4
-1.719, 8.562e-4
-1.720, 8.642e-4
-1.721, 8.814e-4
-1.722, 8.913e-4
-1.723, 9.060e-4
-1.724, 9.200e-4
-1.725, 9.405e-4
-1.726, 9.542e-4
-1.727, 9.622e-4
-1.728, 9.745e-4
-1.729, 9.879e-4
-1.730, 1.001e-3
-1.731, 1.017e-3
-1.732, 1.031e-3
-1.733, 1.041e-3
-1.734, 1.056e-3
-1.735, 1.067e-3
-1.736, 1.079e-3
-1.737, 1.096e-3
-1.738, 1.109e-3
-1.739, 1.130e-3
-1.740, 1.143e-3
-1.741, 1.157e-3
-1.742, 1.168e-3
-1.743, 1.188e-3
-1.744, 1.203e-3
-1.745, 1.215e-3
-1.746, 1.232e-3
-1.747, 1.253e-3
-1.748, 1.265e-3
-1.749, 1.282e-3
-1.750, 1.295e-3
-1.751, 1.314e-3
-1.752, 1.334e-3
-1.753, 1.346e-3
-1.754, 1.362e-3
-1.755, 1.378e-3
-1.756, 1.399e-3
-1.757, 1.418e-3
-1.758, 1.436e-3
-1.759, 1.456e-3
-1.760, 1.471e-3
-1.761, 1.491e-3
-1.762, 1.515e-3
-1.763, 1.528e-3
-1.764, 1.557e-3
-1.765, 1.581e-3
-1.766, 1.594e-3
-1.767, 1.615e-3
-1.768, 1.631e-3
-1.769, 1.651e-3
-1.770, 1.671e-3
-1.771, 1.689e-3
-1.772, 1.705e-3
-1.773, 1.725e-3
-1.774, 1.747e-3
-1.775, 1.773e-3
-1.776, 1.797e-3
-1.777, 1.822e-3
-1.778, 1.837e-3
-1.779, 1.862e-3
-1.780, 1.888e-3
-1.781, 1.910e-3
-1.782, 1.929e-3
-1.783, 1.954e-3
-1.784, 1.974e-3
-1.785, 1.997e-3
-1.786, 2.030e-3
-1.787, 2.060e-3
-1.788, 2.079e-3
-1.789, 2.100e-3
-1.790, 2.121e-3
-1.791, 2.155e-3
-1.792, 2.188e-3
-1.793, 2.210e-3
-1.794, 2.238e-3
-1.795, 2.264e-3
-1.796, 2.300e-3
-1.797, 2.324e-3
-1.798, 2.349e-3
-1.799, 2.373e-3
-1.800, 2.378e-3
-1.799, 2.357e-3
-1.798, 2.345e-3
-1.797, 2.330e-3
-1.796, 2.313e-3
-1.795, 2.289e-3
-1.794, 2.275e-3
-1.793, 2.261e-3
-1.792, 2.239e-3
-1.791, 2.217e-3
-1.790, 2.201e-3
-1.789, 2.179e-3
-1.788, 2.159e-3
-1.787, 2.142e-3
-1.786, 2.129e-3
-1.785, 2.112e-3
-1.784, 2.095e-3
-1.783, 2.076e-3
-1.782, 2.061e-3
-1.781, 2.042e-3
-1.780, 2.021e-3
-1.779, 2.006e-3
-1.778, 1.985e-3
-1.777, 1.963e-3
-1.776, 1.937e-3
-1.775, 1.913e-3
-1.774, 1.891e-3
-1.773, 1.880e-3
-1.772, 1.864e-3
-1.771, 1.846e-3
-1.770, 1.823e-3
-1.769, 1.802e-3
-1.768, 1.782e-3
-1.767, 1.765e-3
-1.766, 1.743e-3
-1.765, 1.728e-3
-1.764, 1.707e-3
-1.763, 1.685e-3
-1.762, 1.667e-3
-1.761, 1.657e-3
-1.760, 1.635e-3
-1.759, 1.620e-3
-1.758, 1.605e-3
-1.757, 1.587e-3
-1.756, 1.568e-3
-1.755, 1.553e-3
-1.754, 1.535e-3
-1.753, 1.517e-3
-1.752, 1.499e-3
-1.751, 1.487e-3
-1.750, 1.467e-3
-1.749, 1.447e-3
-1.748, 1.430e-3
-1.747, 1.414e-3
-1.746, 1.394e-3
-1.745, 1.376e-3
-1.744, 1.366e-3
-1.743, 1.343e-3
-1.742, 1.324e-3
-1.741, 1.308e-3
-1.740, 1.295e-3
-1.739, 1.279e-3
-1.738, 1.260e-3
-1.737, 1.241e-3
-1.736, 1.229e-3
-1.735, 1.215e-3
-1.734, 1.203e-3
-1.733, 1.185e-3
-1.732, 1.166e-3
-1.731, 1.154e-3
-1.730, 1.144e-3
-1.729, 1.128e-3
-1.728, 1.112e-3
-1.727, 1.097e-3
-1.726, 1.080e-3
-1.725, 1.071e-3
-1.724, 1.054e-3
-1.723, 1.043e-3
-1.722, 1.025e-3
-1.721, 1.009e-3
-1.720, 9.964e-4
-1.719, 9.833e-4
-1.718, 9.694e-4
-1.717, 9.570e-4
-1.716, 9.449e-4
-1.715, 9.319e-4
-1.714, 9.216e-4
-1.713, 9.072e-4
-1.712, 8.938e-4
-1.711, 8.821e-4
-1.710, 8.726e-4
-1.709, 8.614e-4
-1.708, 8.500e-4
-1.707, 8.392e-4
-1.706, 8.264e-4
-1.705, 8.139e-4
-1.704, 8.032e-4
-1.703, 7.957e-4
-1.702, 7.795e-4
-1.701, 7.691e-4
-1.700, 7.582e-4
-1.699, 7.471e-4
-1.698, 7.381e-4
-1.697, 7.261e-4
-1.696, 7.177e-4
-1.695, 7.101e-4
-1.694, 7.024e-4
-1.693, 6.902e-4
-1.692, 6.826e-4
-1.691, 6.695e-4
-1.690, 6.612e-4
-1.689, 6.537e-4
-1.688, 6.418e-4
-1.687, 6.318e-4
-1.686, 6.249e-4
-1.685, 6.158e-4
-1.684, 6.058e-4
-1.683, 5.937e-4
-1.682, 5.843e-4
-1.681, 5.729e-4
-1.680, 5.659e-4
-1.679, 5.599e-4
-1.678, 5.490e-4
-1.677, 5.395e-4
-1.676, 5.314e-4
-1.675, 5.232e-4
-1.674, 5.158e-4
-1.673, 5.072e-4
-1.672, 4.999e-4
-1.671, 4.912e-4
-1.670, 4.844e-4
-1.669, 4.759e-4
-1.668, 4.627e-4
-1.667, 4.563e-4
-1.666, 4.479e-4
-1.665, 4.407e-4
-1.664, 4.344e-4
-1.663, 4.291e-4
-1.662, 4.207e-4
-1.661, 4.160e-4
-1.660, 4.099e-4
-1.659, 4.032e-4
-1.658, 3.953e-4
-1.657, 3.920e-4
-1.656, 3.880e-4
-1.655, 3.838e-4
-1.654, 3.780e-4
-1.653, 3.705e-4
-1.652, 3.643e-4
-1.651, 3.613e-4
-1.650, 3.549e-4
-1.649, 3.491e-4
-1.648, 3.424e-4
-1.647, 3.359e-4
-1.646, 3.314e-4
-1.645, 3.261e-4
-1.644, 3.206e-4
-1.643, 3.150e-4
-1.642, 3.103e-4
-1.641, 3.049e-4
-1.640, 3.000e-4
-1.639, 2.956e-4
-1.638, 2.897e-4
-1.637, 2.847e-4
-1.636, 2.800e-4
-1.635, 2.743e-4
-1.634, 2.705e-4
-1.633, 2.662e-4
-1.632, 2.614e-4
-1.631, 2.564e-4
-1.630, 2.527e-4
-1.629, 2.484e-4
-1.628, 2.446e-4
-1.627, 2.392e-4
-1.626, 2.348e-4
-1.625, 2.309e-4
-1.624, 2.269e-4
-1.623, 2.227e-4
-1.622, 2.190e-4
-1.621, 2.144e-4
-1.620, 2.104e-4
-1.619, 2.067e-4
-1.618, 2.033e-4
-1.617, 1.993e-4
-1.616, 1.955e-4
-1.615, 1.915e-4
-1.614, 1.885e-4
-1.613, 1.848e-4
-1.612, 1.813e-4
-1.611, 1.780e-4
-1.610, 1.749e-4
-1.609, 1.717e-4
-1.608, 1.683e-4
-1.607, 1.654e-4
-1.606, 1.622e-4
-1.605, 1.595e-4
-1.604, 1.561e-4
-1.603, 1.533e-4
-1.602, 1.505e-4
-1.601, 1.472e-4
-1.600, 1.453e-4
-1.599, 1.426e-4
-1.598, 1.400e-4
-1.597, 1.363e-4
-1.596, 1.339e-4
-1.595, 1.317e-4
-1.594, 1.291e-4
-1.593, 1.263e-4
-1.592, 1.240e-4
-1.591, 1.217e-4
-1.590, 1.197e-4
-1.589, 1.172e-4
-1.588, 1.150e-4
-1.587, 1.122e-4
-1.586, 1.101e-4
-1.585, 1.076e-4
-1.584, 1.052e-4
-1.583, 1.033e-4
-1.582, 1.015e-4
-1.581, 9.855e-5
-1.580, 9.752e-5
-1.579, 9.568e-5
-1.578, 9.363e-5
-1.577, 9.123e-5
-1.576, 8.917e-5
-1.575, 8.774e-5
-1.574, 8.596e-5
-1.573, 8.434e-5
-1.572, 8.278e-5
-1.571, 8.068e-5
-1.570, 7.866e-5
-1.569, 7.745e-5
-1.568, 7.587e-5
-1.567, 7.442e-5
-1.566, 7.275e-5
-1.565, 7.124e-5
-1.564, 6.967e-5
-1.563, 6.791e-5
-1.562, 6.655e-5
-1.561, 6.561e-5
-1.560, 6.418e-5
-1.559, 6.278e-5
-1.558, 6.120e-5
-1.557, 5.985e-5
-1.556, 5.852e-5
-1.555, 5.721e-5
-1.554, 5.580e-5
-1.553, 5.479e-5
-1.552, 5.349e-5
-1.551, 5.218e-5
-1.550, 5.111e-5
-1.549, 4.995e-5
-1.548, 4.879e-5
-1.547, 4.776e-5
-1.546, 4.686e-5
-1.545, 4.575e-5
-1.544, 4.464e-5
-1.543, 4.366e-5
-1.542, 4.266e-5
-1.541, 4.189e-5
-1.540, 4.058e-5
-1.539, 3.979e-5
-1.538, 3.881e-5
-1.537, 3.814e-5
-1.536, 3.707e-5
-1.535, 3.606e-5
-1.534, 3.517e-5
-1.533, 3.438e-5
-1.532, 3.362e-5
-1.531, 3.272e-5
-1.530, 3.205e-5
-1.529, 3.133e-5
-1.528, 3.055e-5
-1.527, 2.969e-5
-1.526, 2.895e-5
-1.525, 2.829e-5
-1.524, 2.756e-5
-1.523, 2.694e-5
-1.522, 2.624e-5
-1.521, 2.561e-5
-1.520, 2.506e-5
-1.519, 2.450e-5
-1.518, 2.388e-5
-1.517, 2.330e-5
-1.516, 2.268e-5
-1.515, 2.206e-5
-1.514, 2.152e-5
-1.513, 2.088e-5
-1.512, 2.038e-5
-1.511, 1.984e-5
-1.510, 1.936e-5
-1.509, 1.884e-5
-1.508, 1.841e-5
-1.507, 1.790e-5
-1.506, 1.737e-5
-1.505, 1.685e-5
-1.504, 1.643e-5
-1.503, 1.599e-5
-1.502, 1.558e-5
-1.501, 1.520e-5
-1.500, 1.473e-5
-1.499, 1.435e-5
-1.498, 1.394e-5
-1.497, 1.359e-5
-1.496, 1.322e-5
-1.495, 1.291e-5
-1.494, 1.251e-5
-1.493, 1.218e-5
-1.492, 1.186e-5
-1.491, 1.152e-5
-1.490, 1.116e-5
-1.489, 1.086e-5
-1.488, 1.056e-5
-1.487, 1.026e-5
-1.486, 9.958e-6
-1.485, 9.673e-6
-1.484, 9.405e-6
-1.483, 9.127e-6
-1.482, 8.872e-6
-1.481, 8.630e-6
-1.480, 8.391e-6
-1.479, 8.158e-6
-1.478, 7.908e-6
-1.477, 7.709e-6
-1.476, 7.466e-6
-1.475, 7.240e-6
-1.474, 7.029e-6
-1.473, 6.845e-6
-1.472, 6.641e-6
-1.471, 6.413e-6
-1.470, 6.278e-6
-1.469, 6.097e-6
-1.468, 5.934e-6
-1.467, 5.764e-6
-1.466, 5.587e-6
-1.465, 5.415e-6
-1.464, 5.236e-6
-1.463, 5.087e-6
-1.462, 4.938e-6
-1.461, 4.772e-6
-1.460, 4.672e-6
-1.459, 4.508e-6
-1.458, 4.345e-6
-1.457, 4.216e-6
-1.456, 4.095e-6
-1.455, 4.001e-6
-1.454, 3.849e-6
-1.453, 3.716e-6
-1.452, 3.589e-6
-1.451, 3.492e-6
-1.450, 3.433e-6
-1.449, 3.284e-6
-1.448, 3.199e-6
-1.447, 3.072e-6
-1.446, 2.981e-6
-1.445, 2.886e-6
-1.444, 2.786e-6
-1.443, 2.724e-6
-1.442, 2.627e-6
-1.441, 2.526e-6
-1.440, 2.439e-6
-1.439, 2.381e-6
-1.438, 2.265e-6
-1.437, 2.222e-6
-1.436, 2.126e-6
-1.435, 2.068e-6
-1.434, 1.991e-6
-1.433, 1.898e-6
-1.432, 1.832e-6
-1.431, 1.789e-6
-1.430, 1.719e-6
-1.429, 1.657e-6
-1.428, 1.605e-6
-1.427, 1.537e-6
-1.426, 1.501e-6
-1.425, 1.449e-6
-1.424, 1.405e-6
-1.423, 1.340e-6
-1.422, 1.275e-6
-1.421, 1.254e-6
-1.420, 1.204e-6
-1.419, 1.172e-6
-1.418, 1.112e-6
-1.417, 1.082e-6
-1.416, 1.033e-6
-1.415, 9.903e-7
-1.414, 9.538e-7
-1.413, 8.966e-7
-1.412, 8.591e-7
-1.411, 8.354e-7
-1.410, 7.970e-7
-1.409, 7.595e-7
-1.408, 7.397e-7
-1.407, 7.032e-7
-1.406, 6.746e-7
-1.405, 6.569e-7
-1.404, 6.164e-7
-1.403, 5.947e-7
-1.402, 5.691e-7
-1.401, 5.336e-7
-1.400, 5.128e-7
-1.399, 4.744e-7
-1.398, 4.526e-7
-1.397, 4.290e-7
-1.396, 4.033e-7
-1.395, 3.619e-7
-1.394, 3.698e-7
-1.393, 3.254e-7
-1.392, 3.175e-7
-1.391, 2.968e-7
-1.390, 2.662e-7
-1.389, 2.691e-7
-1.388, 2.830e-7
-1.387, 3.135e-7
-1.386, 2.119e-7
-1.385, 1.873e-7
-1.384, 1.734e-7
-1.383, 1.409e-7
-1.382, 1.103e-7
-1.381, 1.024e-7
-1.380, 9.748e-8
-1.379, 8.465e-8
-1.378, 4.815e-8
-1.377, 3.532e-8
-1.376, 3.137e-8
-1.375, 1.164e-8
-1.374, 1.263e-8
-1.373, -2.684e-8
-1.372, -2.190e-8
-1.371, -5.249e-8
-1.370, -5.051e-8
-1.369, -5.742e-8
-1.368, -8.998e-8
-1.367, -1.087e-7
-1.366, -1.117e-7
-1.365, -1.087e-7
-1.364, -1.176e-7
-1.363, -1.472e-7
-1.362, -1.590e-7
-1.361, -1.788e-7
-1.360, -1.778e-7
-1.359, -1.886e-7
-1.358, -1.995e-7
-1.357, -2.251e-7
-1.356, -2.360e-7
-1.355, -2.192e-7
-1.354, -2.459e-7
-1.353, -2.508e-7
-1.352, -2.626e-7
-1.351, -2.676e-7
-1.350, -2.903e-7
-1.349, -3.021e-7
-1.348, -3.169e-7
-1.347, -2.991e-7
-1.346, -3.297e-7
-1.345, -3.347e-7
-1.344, -3.347e-7
-1.343, -3.544e-7
-1.342, -3.633e-7
-1.341, -3.800e-7
-1.340, -3.652e-7
-1.339, -3.712e-7
-1.338, -3.988e-7
-1.337, -4.225e-7
-1.336, -4.057e-7
-1.335, -4.106e-7
-1.334, -4.146e-7
-1.333, -4.304e-7
-1.332, -4.471e-7
-1.331, -4.600e-7
-1.330, -4.718e-7
-1.329, -4.767e-7
-1.328, -4.886e-7
-1.327, -4.925e-7
-1.326, -4.965e-7
-1.325, -5.014e-7
-1.324, -5.004e-7
-1.323, -5.379e-7
-1.322, -5.231e-7
-1.321, -5.418e-7
-1.320, -5.191e-7
-1.319, -5.310e-7
-1.318, -5.635e-7
-1.317, -5.576e-7
-1.316, -5.843e-7
-1.315, -5.685e-7
-1.314, -5.912e-7
-1.313, -5.961e-7
-1.312, -5.991e-7
-1.311, -6.139e-7
-1.310, -6.257e-7
-1.309, -6.089e-7
-1.308, -6.257e-7
-1.307, -6.277e-7
-1.306, -6.533e-7
-1.305, -6.425e-7
-1.304, -6.701e-7
-1.303, -6.809e-7
-1.302, -6.879e-7
-1.301, -6.977e-7
-1.300, -6.711e-7
-1.299, -7.027e-7
-1.298, -7.145e-7
-1.297, -7.224e-7
-1.296, -7.293e-7
-1.295, -7.066e-7
-1.294, -7.283e-7
-1.293, -7.382e-7
-1.292, -7.688e-7
-1.291, -7.688e-7
-1.290, -7.628e-7
-1.289, -7.757e-7
-1.288, -7.786e-7
-1.287, -7.895e-7
-1.286, -7.914e-7
-1.285, -7.954e-7
-1.284, -8.072e-7
-1.283, -8.141e-7
-1.282, -8.141e-7
-1.281, -8.368e-7
-1.280, -8.171e-7
-1.279, -8.368e-7
-1.278, -8.566e-7
-1.277, -8.575e-7
-1.276, -8.487e-7
-1.275, -8.654e-7
-1.274, -8.783e-7
-1.273, -8.862e-7
-1.272, -8.862e-7
-1.271, -8.931e-7
-1.270, -9.059e-7
-1.269, -9.177e-7
-1.268, -9.266e-7
-1.267, -9.454e-7
-1.266, -9.345e-7
-1.265, -9.523e-7
-1.264, -9.572e-7
-1.263, -9.621e-7
-1.262, -9.779e-7
-1.261, -9.661e-7
-1.260, -9.661e-7
-1.259, -9.986e-7
-1.258, -9.868e-7
-1.257, -1.017e-6
-1.256, -1.034e-6
-1.255, -1.027e-6
-1.254, -1.020e-6
-1.253, -1.035e-6
-1.252, -1.026e-6
-1.251, -1.048e-6
-1.250, -1.056e-6
-1.249, -1.033e-6
-1.248, -1.098e-6
-1.247, -1.093e-6
-1.246, -1.107e-6
-1.245, -1.095e-6
-1.244, -1.106e-6
-1.243, -1.100e-6
-1.242, -1.108e-6
-1.241, -1.130e-6
-1.240, -1.137e-6
-1.239, -1.139e-6
-1.238, -1.142e-6
-1.237, -1.149e-6
-1.236, -1.160e-6
-1.235, -1.166e-6
-1.234, -1.158e-6
-1.233, -1.183e-6
-1.232, -1.180e-6
-1.231, -1.218e-6
-1.230, -1.195e-6
-1.229, -1.227e-6
-1.228, -1.236e-6
-1.227, -1.233e-6
-1.226, -1.237e-6
-1.225, -1.252e-6
-1.224, -1.236e-6
-1.223, -1.252e-6
-1.222, -1.270e-6
-1.221, -1.264e-6
-1.220, -1.251e-6
-1.219, -1.271e-6
-1.218, -1.298e-6
-1.217, -1.290e-6
-1.216, -1.298e-6
-1.215, -1.292e-6
-1.214, -1.293e-6
-1.213, -1.318e-6
-1.212, -1.306e-6
-1.211, -1.323e-6
-1.210, -1.301e-6
-1.209, -1.333e-6
-1.208, -1.329e-6
-1.207, -1.330e-6
-1.206, -1.334e-6
-1.205, -1.349e-6
-1.204, -1.363e-6
-1.203, -1.378e-6
-1.202, -1.354e-6
-1.201, -1.375e-6
-1.200, -1.374e-6
-1.199, -1.357e-6
-1.198, -1.374e-6
-1.197, -1.375e-6
-1.196, -1.369e-6
-1.195, -1.361e-6
-1.194, -1.357e-6
-1.193, -1.538e-6
-1.192, -1.367e-6
-1.191, -1.379e-6
-1.190, -1.354e-6
-1.189, -1.356e-6
-1.188, -1.373e-6
-1.187, -1.396e-6
-1.186, -1.370e-6
-1.185, -1.359e-6
-1.184, -1.391e-6
-1.183, -1.392e-6
-1.182, -1.399e-6
-1.181, -1.384e-6
-1.180, -1.379e-6
-1.179, -1.361e-6
-1.178, -1.387e-6
-1.177, -1.394e-6
-1.176, -1.400e-6
-1.175, -1.381e-6
-1.174, -1.380e-6
-1.173, -1.401e-6
-1.172, -1.380e-6
-1.171, -1.401e-6
-1.170, -1.393e-6
-1.169, -1.399e-6
-1.168, -1.410e-6
-1.167, -1.418e-6
-1.166, -1.403e-6
-1.165, -1.392e-6
-1.164, -1.416e-6
-1.163, -1.426e-6
-1.162, -1.429e-6
-1.161, -1.425e-6
-1.160, -1.424e-6
-1.159, -1.428e-6
-1.158, -1.427e-6
-1.157, -1.432e-6
-1.156, -1.462e-6
-1.155, -1.445e-6
-1.154, -1.453e-6
-1.153, -1.451e-6
-1.152, -1.459e-6
-1.151, -1.457e-6
-1.150, -1.462e-6
-1.149, -1.469e-6
-1.148, -1.463e-6
-1.147, -1.472e-6
-1.146, -1.480e-6
-1.145, -1.491e-6
-1.144, -1.493e-6
-1.143, -1.495e-6
-1.142, -1.509e-6
-1.141, -1.505e-6
-1.140, -1.507e-6
-1.139, -1.531e-6
-1.138, -1.509e-6
-1.137, -1.522e-6
-1.136, -1.524e-6
-1.135, -1.524e-6
-1.134, -1.514e-6
-1.133, -1.549e-6
-1.132, -1.548e-6
-1.131, -1.543e-6
-1.130, -1.556e-6
-1.129, -1.548e-6
-1.128, -1.543e-6
-1.127, -1.563e-6
-1.126, -1.584e-6
-1.125, -1.577e-6
-1.124, -1.572e-6
-1.123, -1.593e-6
-1.122, -1.588e-6
-1.121, -1.593e-6
-1.120, -1.603e-6
-1.119, -1.613e-6
-1.118, -1.628e-6
-1.117, -1.615e-6
-1.116, -1.644e-6
-1.115, -1.641e-6
-1.114, -1.612e-6
-1.113, -1.654e-6
-1.112, -1.667e-6
-1.111, -1.670e-6
-1.110, -1.681e-6
-1.109, -1.684e-6
-1.108, -1.682e-6
-1.107, -1.676e-6
-1.106, -1.694e-6
-1.105, -1.682e-6
-1.104, -1.700e-6
-1.103, -1.708e-6
-1.102, -1.701e-6
-1.101, -1.718e-6
-1.100, -1.726e-6
-1.099, -1.730e-6
-1.098, -1.751e-6
-1.097, -1.745e-6
-1.096, -1.761e-6
-1.095, -1.744e-6
-1.094, -1.744e-6
-1.093, -1.756e-6
-1.092, -1.781e-6
-1.091, -1.793e-6
-1.090, -1.782e-6
-1.089, -1.773e-6
-1.088, -1.788e-6
-1.087, -1.802e-6
-1.086, -1.803e-6
-1.085, -1.805e-6
-1.084, -1.808e-6
-1.083, -1.810e-6
-1.082, -1.840e-6
-1.081, -1.844e-6
-1.080, -1.865e-6
-1.079, -1.841e-6
-1.078, -1.871e-6
-1.077, -1.852e-6
-1.076, -1.858e-6
-1.075, -1.869e-6
-1.074, -1.867e-6
-1.073, -1.867e-6
-1.072, -1.907e-6
-1.071, -1.877e-6
-1.070, -1.876e-6
-1.069, -1.889e-6
-1.068, -1.906e-6
-1.067, -1.909e-6
-1.066, -1.911e-6
-1.065, -1.881e-6
-1.064, -1.901e-6
-1.063, -1.927e-6
-1.062, -1.923e-6
-1.061, -1.937e-6
-1.060, -1.922e-6
-1.059, -1.942e-6
-1.058, -1.948e-6
-1.057, -1.961e-6
-1.056, -1.963e-6
-1.055, -1.952e-6
-1.054, -1.949e-6
-1.053, -1.975e-6
-1.052, -1.985e-6
-1.051, -1.965e-6
-1.050, -1.970e-6
-1.049, -1.983e-6
-1.048, -1.986e-6
-1.047, -1.996e-6
-1.046, -2.000e-6
-1.045, -1.992e-6
-1.044, -1.987e-6
-1.043, -2.008e-6
-1.042, -2.019e-6
-1.041, -2.017e-6
-1.040, -2.010e-6
-1.039, -2.007e-6
-1.038, -2.000e-6
-1.037, -2.032e-6
-1.036, -2.034e-6
-1.035, -2.028e-6
-1.034, -2.032e-6
-1.033, -2.050e-6
-1.032, -2.059e-6
-1.031, -2.053e-6
-1.030, -2.061e-6
-1.029, -2.051e-6
-1.028, -2.076e-6
-1.027, -2.074e-6
-1.026, -2.091e-6
-1.025, -2.077e-6
-1.024, -2.078e-6
-1.023, -2.088e-6
-1.022, -2.100e-6
-1.021, -2.095e-6
-1.020, -2.083e-6
-1.019, -2.064e-6
-1.018, -2.072e-6
-1.017, -2.077e-6
-1.016, -2.090e-6
-1.015, -2.081e-6
-1.014, -2.077e-6
-1.013, -2.086e-6
-1.012, -2.104e-6
-1.011, -2.105e-6
-1.010, -2.095e-6
-1.009, -2.107e-6
-1.008, -2.100e-6
-1.007, -2.103e-6
-1.006, -2.111e-6
-1.005, -2.112e-6
-1.004, -2.100e-6
-1.003, -2.106e-6
-1.002, -2.104e-6
-1.001, -2.128e-6
-1.000, -1.845e-6
-1.001, -1.634e-6
-1.002, -1.512e-6
-1.003, -1.426e-6
-1.004, -1.334e-6
-1.005, -1.250e-6
-1.006, -1.186e-6
-1.007, -1.128e-6
-1.008, -1.073e-6
-1.009, -1.018e-6
-1.010, -9.602e-7
-1.011, -9.148e-7
-1.012, -8.812e-7
-1.013, -8.289e-7
-1.014, -8.122e-7
-1.015, -7.520e-7
-1.016, -7.214e-7
-1.017, -6.948e-7
-1.018, -6.701e-7
-1.019, -6.425e-7
-1.020, -5.872e-7
-1.021, -5.695e-7
-1.022, -5.665e-7
-1.023, -5.172e-7
-1.024, -4.678e-7
-1.025, -4.530e-7
-1.026, -4.343e-7
-1.027, -3.938e-7
-1.028, -3.820e-7
-1.029, -3.573e-7
-1.030, -3.327e-7
-1.031, -3.070e-7
-1.032, -2.991e-7
-1.033, -2.745e-7
-1.034, -2.705e-7
-1.035, -2.380e-7
-1.036, -2.182e-7
-1.037, -2.113e-7
-1.038, -1.877e-7
-1.039, -1.630e-7
-1.040, -1.225e-7
-1.041, -1.156e-7
-1.042, -1.156e-7
-1.043, -9.491e-8
-1.044, -9.195e-8
-1.045, -5.939e-8
-1.046, -4.065e-8
-1.047, -3.275e-8
-1.048, -3.571e-8
-1.049, -1.204e-8
-1.050, 1.756e-8
-1.051, 3.631e-8
-1.052, 3.631e-8
-1.053, 4.321e-8
-1.054, 8.268e-8
-1.055, 8.860e-8
-1.056, 9.748e-8
-1.057, 1.083e-7
-1.058, 1.290e-7
-1.059, 1.221e-7
-1.060, 1.438e-7
-1.061, 1.675e-7
-1.062, 1.794e-7
-1.063, 1.902e-7
-1.064, 1.951e-7
-1.065, 2.228e-7
-1.066, 2.386e-7
-1.067, 2.415e-7
-1.068, 2.465e-7
-1.069, 2.524e-7
-1.070, 2.662e-7
-1.071, 2.849e-7
-1.072, 2.968e-7
-1.073, 2.948e-7
-1.074, 3.155e-7
-1.075, 3.283e-7
-1.076, 3.589e-7
-1.077, 3.579e-7
-1.078, 3.668e-7
-1.079, 3.747e-7
-1.080, 3.895e-7
-1.081, 4.063e-7
-1.082, 4.023e-7
-1.083, 4.211e-7
-1.084, 4.201e-7
-1.085, 4.457e-7
-1.086, 4.576e-7
-1.087, 4.388e-7
-1.088, 4.615e-7
-1.089, 4.635e-7
-1.090, 4.822e-7
-1.091, 5.128e-7
-1.092, 4.931e-7
-1.093, 5.227e-7
-1.094, 5.266e-7
-1.095, 5.345e-7
-1.096, 5.572e-7
-1.097, 5.622e-7
-1.098, 5.622e-7
-1.099, 5.770e-7
-1.100, 5.839e-7
-1.101, 6.026e-7
-1.102, 6.194e-7
-1.103, 6.105e-7
-1.104, 6.095e-7
-1.105, 6.490e-7
-1.106, 6.480e-7
-1.107, 6.490e-7
-1.108, 6.519e-7
-1.109, 6.727e-7
-1.110, 6.796e-7
-1.111, 7.082e-7
-1.112, 7.082e-7
-1.113, 7.032e-7
-1.114, 7.200e-7
-1.115, 7.407e-7
-1.116, 7.417e-7
-1.117, 7.526e-7
-1.118, 7.624e-7
-1.119, 7.516e-7
-1.120, 7.743e-7
-1.121, 7.901e-7
-1.122, 7.851e-7
-1.123, 8.019e-7
-1.124, 8.059e-7
-1.125, 8.157e-7
-1.126, 8.424e-7
-1.127, 8.384e-7
-1.128, 8.433e-7
-1.129, 8.631e-7
-1.130, 8.660e-7
-1.131, 8.789e-7
-1.132, 8.868e-7
-1.133, 8.907e-7
-1.134, 8.986e-7
-1.135, 9.134e-7
-1.136, 9.163e-7
-1.137, 9.242e-7
-1.138, 9.193e-7
-1.139, 9.331e-7
-1.140, 9.440e-7
-1.141, 9.627e-7
-1.142, 9.667e-7
-1.143, 9.884e-7
-1.144, 9.657e-7
-1.145, 9.943e-7
-1.146, 1.003e-6
-1.147, 1.017e-6
-1.148, 1.010e-6
-1.149, 1.028e-6
-1.150, 1.055e-6
-1.151, 1.070e-6
-1.152, 1.049e-6
-1.153, 1.065e-6
-1.154, 1.086e-6
-1.155, 1.103e-6
-1.156, 1.094e-6
-1.157, 1.099e-6
-1.158, 1.108e-6
-1.159, 1.111e-6
-1.160, 1.124e-6
-1.161, 1.133e-6
-1.162, 1.151e-6
-1.163, 1.136e-6
-1.164, 1.100e-6
-1.165, 1.107e-6
-1.166, 1.139e-6
-1.167, 1.133e-6
-1.168, 1.124e-6
-1.169, 1.187e-6
-1.170, 1.223e-6
-1.171, 1.239e-6
-1.172, 1.261e-6
-1.173, 1.262e-6
-1.174, 1.252e-6
-1.175, 1.272e-6
-1.176, 1.288e-6
-1.177, 1.286e-6
-1.178, 1.290e-6
-1.179, 1.303e-6
-1.180, 1.325e-6
-1.181, 1.320e-6
-1.182, 1.335e-6
-1.183, 1.334e-6
-1.184, 1.340e-6
-1.185, 1.353e-6
-1.186, 1.369e-6
-1.187, 1.368e-6
-1.188, 1.394e-6
-1.189, 1.376e-6
-1.190, 1.402e-6
-1.191, 1.428e-6
-1.192, 1.405e-6
-1.193, 1.405e-6
-1.194, 1.428e-6
-1.195, 1.441e-6
-1.196, 1.455e-6
-1.197, 1.455e-6
-1.198, 1.437e-6
-1.199, 1.465e-6
-1.200, 1.470e-6
-1.201, 1.494e-6
-1.202, 1.491e-6
-1.203, 1.505e-6
-1.204, 1.500e-6
-1.205, 1.512e-6
-1.206, 1.526e-6
-1.207, 1.521e-6
-1.208, 1.533e-6
-1.209, 1.536e-6
-1.210, 1.546e-6
-1.211, 1.565e-6
-1.212, 1.550e-6
-1.213, 1.564e-6
-1.214, 1.574e-6
-1.215, 1.599e-6
-1.216, 1.600e-6
-1.217, 1.596e-6
-1.218, 1.592e-6
-1.219, 1.605e-6
-1.220, 1.630e-6
-1.221, 1.638e-6
-1.222, 1.646e-6
-1.223, 1.655e-6
-1.224, 1.662e-6
-1.225, 1.656e-6
-1.226, 1.651e-6
-1.227, 1.688e-6
-1.228, 1.664e-6
-1.229, 1.700e-6
-1.230, 1.702e-6
-1.231, 1.716e-6
-1.232, 1.700e-6
-1.233, 1.709e-6
-1.234, 1.705e-6
-1.235, 1.710e-6
-1.236, 1.714e-6
-1.237, 1.716e-6
-1.238, 1.719e-6
-1.239, 1.735e-6
-1.240, 1.739e-6
-1.241, 1.747e-6
-1.242, 1.755e-6
-1.243, 1.772e-6
-1.244, 1.766e-6
-1.245, 1.785e-6
-1.246, 1.792e-6
-1.247, 1.785e-6
-1.248, 1.792e-6
-1.249, 1.788e-6
-1.250, 1.822e-6
-1.251, 1.814e-6
-1.252, 1.825e-6
-1.253, 1.833e-6
-1.254, 1.846e-6
-1.255, 1.844e-6
-1.256, 1.849e-6
-1.257, 1.855e-6
-1.258, 1.858e-6
-1.259, 1.853e-6
-1.260, 1.876e-6
-1.261, 1.889e-6
-1.262, 1.897e-6
-1.263, 1.885e-6
-1.264, 1.916e-6
-1.265, 1.916e-6
-1.266, 1.924e-6
-1.267, 1.923e-6
-1.268, 1.932e-6
-1.269, 1.960e-6
-1.270, 2.008e-6
-1.271, 1.990e-6
-1.272, 1.979e-6
-1.273, 1.983e-6
-1.274, 1.996e-6
-1.275, 2.007e-6
-1.276, 2.014e-6
-1.277, 2.020e-6
-1.278, 2.106e-6
-1.279, 2.018e-6
-1.280, 2.064e-6
-1.281, 2.077e-6
-1.282, 2.118e-6
-1.283, 2.102e-6
-1.284, 2.061e-6
-1.285, 2.081e-6
-1.286, 2.100e-6
-1.287, 2.119e-6
-1.288, 2.111e-6
-1.289, 2.125e-6
-1.290, 2.132e-6
-1.291, 2.147e-6
-1.292, 2.139e-6
-1.293, 2.196e-6
-1.294, 2.177e-6
-1.295, 2.197e-6
-1.296, 2.202e-6
-1.297, 2.203e-6
-1.298, 2.188e-6
-1.299, 2.200e-6
-1.300, 2.215e-6
-1.301, 2.238e-6
-1.302, 2.239e-6
-1.303, 2.229e-6
-1.304, 2.245e-6
-1.305, 2.252e-6
-1.306, 2.272e-6
-1.307, 2.264e-6
-1.308, 2.262e-6
-1.309, 2.265e-6
-1.310, 2.274e-6
-1.311, 2.278e-6
-1.312, 2.306e-6
-1.313, 2.311e-6
-1.314, 2.308e-6
-1.315, 2.297e-6
-1.316, 2.323e-6
-1.317, 2.299e-6
-1.318, 2.304e-6
-1.319, 2.302e-6
-1.320, 2.312e-6
-1.321, 2.314e-6
-1.322, 2.312e-6
-1.323, 2.301e-6
-1.324, 2.294e-6
-1.325, 2.311e-6
-1.326, 2.299e-6
-1.327, 2.295e-6
-1.328, 2.308e-6
-1.329, 2.288e-6
-1.330, 2.299e-6
-1.331, 2.315e-6
-1.332, 2.292e-6
-1.333, 2.287e-6
-1.334, 2.298e-6
-1.335, 2.301e-6
-1.336, 2.301e-6
-1.337, 2.298e-6
-1.338, 2.298e-6
-1.339, 2.274e-6
-1.340, 2.296e-6
-1.341, 2.298e-6
-1.342, 2.270e-6
-1.343, 2.266e-6
-1.344, 2.281e-6
-1.345, 2.274e-6
-1.346, 2.291e-6
-1.347, 2.280e-6
-1.348, 2.280e-6
-1.349, 2.289e-6
-1.350, 2.286e-6
-1.351, 2.294e-6
-1.352, 2.288e-6
-1.353, 2.294e-6
-1.354, 2.282e-6
-1.355, 2.288e-6
-1.356, 2.302e-6
-1.357, 2.305e-6
-1.358, 2.300e-6
-1.359, 2.325e-6
-1.360, 2.312e-6
-1.361, 2.301e-6
-1.362, 2.317e-6
-1.363, 2.314e-6
-1.364, 2.305e-6
-1.365, 2.327e-6
-1.366, 2.336e-6
-1.367, 2.341e-6
-1.368, 2.325e-6
-1.369, 2.344e-6
-1.370, 2.352e-6
-1.371, 2.341e-6
-1.372, 2.367e-6
-1.373, 2.368e-6
-1.374, 2.382e-6
-1.375, 2.355e-6
-1.376, 2.387e-6
-1.377, 2.397e-6
-1.378, 2.379e-6
-1.379, 2.401e-6
-1.380, 2.402e-6
-1.381, 2.418e-6
-1.382, 2.416e-6
-1.383, 2.429e-6
-1.384, 2.422e-6
-1.385, 2.451e-6
-1.386, 2.461e-6
-1.387, 2.472e-6
-1.388, 2.467e-6
-1.389, 2.493e-6
-1.390, 2.498e-6
-1.391, 2.511e-6
-1.392, 2.532e-6
-1.393, 2.524e-6
-1.394, 2.547e-6
-1.395, 2.551e-6
-1.396, 2.582e-6
-1.397, 2.565e-6
-1.398, 2.571e-6
-1.399, 2.599e-6
-1.400, 2.645e-6
-1.401, 2.654e-6
-1.402, 2.660e-6
-1.403, 2.658e-6
-1.404, 2.678e-6
-1.405, 2.693e-6
-1.406, 2.726e-6
-1.407, 2.744e-6
-1.408, 2.777e-6
-1.409, 2.786e-6
-1.410, 2.824e-6
-1.411, 2.879e-6
-1.412, 2.868e-6
-1.413, 2.852e-6
-1.414, 2.888e-6
-1.415, 2.925e-6
-1.416, 2.966e-6
-1.417, 3.005e-6
-1.418, 3.012e-6
-1.419, 3.058e-6
-1.420, 3.084e-6
-1.421, 3.412e-6
-1.422, 3.169e-6
-1.423, 3.215e-6
-1.424, 3.277e-6
-1.425, 3.505e-6
-1.426, 3.423e-6
-1.427, 3.434e-6
-1.428, 3.448e-6
-1.429, 3.517e-6
-1.430, 3.532e-6
-1.431, 3.600e-6
-1.432, 3.646e-6
-1.433, 3.702e-6
-1.434, 3.747e-6
-1.435, 3.819e-6
-1.436, 3.861e-6
-1.437, 3.902e-6
-1.438, 4.034e-6
-1.439, 4.025e-6
-1.440, 4.089e-6
-1.441, 4.172e-6
-1.442, 4.279e-6
-1.443, 4.263e-6
-1.444, 4.322e-6
-1.445, 4.431e-6
-1.446, 4.481e-6
-1.447, 4.646e-6
-1.448, 4.665e-6
-1.449, 4.760e-6
-1.450, 4.805e-6
-1.451, 4.908e-6
-1.452, 5.061e-6
-1.453, 5.127e-6
-1.454, 5.304e-6
-1.455, 5.437e-6
-1.456, 5.497e-6
-1.457, 5.536e-6
-1.458, 5.530e-6
-1.459, 5.667e-6
-1.460, 5.779e-6
-1.461, 5.912e-6
-1.462, 6.008e-6
-1.463, 6.136e-6
-1.464, 6.252e-6
-1.465, 6.377e-6
-1.466, 6.498e-6
-1.467, 6.639e-6
-1.468, 6.798e-6
-1.469, 6.894e-6
-1.470, 7.046e-6
-1.471, 7.238e-6
-1.472, 7.401e-6
-1.473, 7.550e-6
-1.474, 7.706e-6
-1.475, 7.879e-6
-1.476, 8.065e-6
-1.477, 8.232e-6
-1.478, 8.445e-6
-1.479, 8.642e-6
-1.480, 8.834e-6
-1.481, 9.064e-6
-1.482, 9.279e-6
-1.483, 9.486e-6
-1.484, 9.731e-6
-1.485, 9.936e-6
-1.486, 1.018e-5
-1.487, 1.045e-5
-1.488, 1.069e-5
-1.489, 1.097e-5
-1.490, 1.125e-5
-1.491, 1.155e-5
-1.492, 1.182e-5
-1.493, 1.213e-5
-1.494, 1.239e-5
-1.495, 1.269e-5
-1.496, 1.303e-5
-1.497, 1.336e-5
-1.498, 1.371e-5
-1.499, 1.405e-5
-1.500, 1.443e-5
-1.501, 1.477e-5
-1.502, 1.514e-5
-1.503, 1.555e-5
-1.504, 1.595e-5
-1.505, 1.639e-5
-1.506, 1.681e-5
-1.507, 1.726e-5
-1.508, 1.772e-5
-1.509, 1.813e-5
-1.510, 1.864e-5
-1.511, 1.916e-5
-1.512, 1.964e-5
-1.513, 2.012e-5
-1.514, 2.064e-5
-1.515, 2.118e-5
-1.516, 2.171e-5
-1.517, 2.225e-5
-1.518, 2.282e-5
-1.519, 2.337e-5
-1.520, 2.395e-5
-1.521, 2.461e-5
-1.522, 2.530e-5
-1.523, 2.594e-5
-1.524, 2.657e-5
-1.525, 2.739e-5
-1.526, 2.817e-5
-1.527, 2.886e-5
-1.528, 2.952e-5
-1.529, 3.016e-5
-1.530, 3.099e-5
-1.531, 3.180e-5
-1.532, 3.266e-5
-1.533, 3.351e-5
-1.534, 3.420e-5
-1.535, 3.503e-5
-1.536, 3.594e-5
-1.537, 3.687e-5
-1.538, 3.762e-5
-1.539, 3.852e-5
-1.540, 3.953e-5
-1.541, 4.046e-5
-1.542, 4.150e-5
-1.543, 4.248e-5
-1.544, 4.349e-5
-1.545, 4.475e-5
-1.546, 4.586e-5
-1.547, 4.698e-5
-1.548, 4.788e-5
-1.549, 4.908e-5
-1.550, 5.012e-5
-1.551, 5.125e-5
-1.552, 5.249e-5
-1.553, 5.406e-5
-1.554, 5.531e-5
-1.555, 5.666e-5
-1.556, 5.799e-5
-1.557, 5.930e-5
-1.558, 6.053e-5
-1.559, 6.190e-5
-1.560, 6.330e-5
-1.561, 6.453e-5
-1.562, 6.578e-5
-1.563, 6.730e-5
-1.564, 6.870e-5
-1.565, 7.037e-5
-1.566, 7.223e-5
-1.567, 7.355e-5
-1.568, 7.485e-5
-1.569, 7.663e-5
-1.570, 7.851e-5
-1.571, 8.025e-5
-1.572, 8.161e-5
-1.573, 8.404e-5
-1.574, 8.549e-5
-1.575, 8.725e-5
-1.576, 8.887e-5
-1.577, 9.080e-5
-1.578, 9.323e-5
-1.579, 9.464e-5
-1.580, 9.608e-5
-1.581, 9.835e-5
-1.582, 1.005e-4
-1.583, 1.023e-4
-1.584, 1.046e-4
-1.585, 1.070e-4
-1.586, 1.093e-4
-1.587, 1.115e-4
-1.588, 1.136e-4
-1.589, 1.160e-4
-1.590, 1.175e-4
-1.591, 1.203e-4
-1.592, 1.233e-4
-1.593, 1.257e-4
-1.594, 1.286e-4
-1.595, 1.310e-4
-1.596, 1.340e-4
-1.597, 1.359e-4
-1.598, 1.381e-4
-1.599, 1.409e-4
-1.600, 1.434e-4
-1.601, 1.466e-4
-1.602, 1.487e-4
-1.603, 1.529e-4
-1.604, 1.554e-4
-1.605, 1.581e-4
-1.606, 1.610e-4
-1.607, 1.642e-4
-1.608, 1.663e-4
-1.609, 1.696e-4
-1.610, 1.733e-4
-1.611, 1.776e-4
-1.612, 1.808e-4
-1.613, 1.836e-4
-1.614, 1.868e-4
-1.615, 1.895e-4
-1.616, 1.929e-4
-1.617, 1.970e-4
-1.618, 2.000e-4
-1.619, 2.041e-4
-1.620, 2.073e-4
-1.621, 2.115e-4
-1.622, 2.140e-4
-1.623, 2.179e-4
-1.624, 2.222e-4
-1.625, 2.262e-4
-1.626, 2.301e-4
-1.627, 2.353e-4
-1.628, 2.389e-4
-1.629, 2.428e-4
-1.630, 2.473e-4
-1.631, 2.516e-4
-1.632, 2.553e-4
-1.633, 2.587e-4
-1.634, 2.633e-4
-1.635, 2.686e-4
-1.636, 2.731e-4
-1.637, 2.769e-4
-1.638, 2.834e-4
-1.639, 2.886e-4
-1.640, 2.923e-4
-1.641, 2.980e-4
-1.642, 3.013e-4
-1.643, 3.063e-4
-1.644, 3.122e-4
-1.645, 3.154e-4
-1.646, 3.207e-4
-1.647, 3.263e-4
-1.648, 3.322e-4
-1.649, 3.363e-4
-1.650, 3.413e-4
-1.651, 3.474e-4
-1.652, 3.532e-4
-1.653, 3.573e-4
-1.654, 3.620e-4
-1.655, 3.680e-4
-1.656, 3.745e-4
-1.657, 3.798e-4
-1.658, 3.871e-4
-1.659, 3.934e-4
-1.660, 4.012e-4
-1.661, 4.081e-4
-1.662, 4.161e-4
-1.663, 4.204e-4
-1.664, 4.271e-4
-1.665, 4.352e-4
-1.666, 4.428e-4
-1.667, 4.500e-4
-1.668, 4.533e-4
-1.669, 4.631e-4
-1.670, 4.672e-4
-1.671, 4.733e-4
-1.672, 4.819e-4
-1.673, 4.890e-4
-1.674, 4.960e-4
-1.675, 5.030e-4
-1.676, 5.115e-4
-1.677, 5.174e-4
-1.678, 5.269e-4
-1.679, 5.336e-4
-1.680, 5.393e-4
-1.681, 5.474e-4
-1.682, 5.560e-4
-1.683, 5.667e-4
-1.684, 5.744e-4
-1.685, 5.814e-4
-1.686, 5.907e-4
-1.687, 6.000e-4
-1.688, 6.083e-4
-1.689, 6.146e-4
-1.690, 6.245e-4
-1.691, 6.324e-4
-1.692, 6.428e-4
-1.693, 6.504e-4
-1.694, 6.587e-4
-1.695, 6.685e-4
-1.696, 6.783e-4
-1.697, 6.851e-4
-1.698, 7.003e-4
-1.699, 7.113e-4
-1.700, 7.206e-4
-1.701, 7.306e-4
-1.702, 7.379e-4
-1.703, 7.485e-4
-1.704, 7.589e-4
-1.705, 7.671e-4
-1.706, 7.768e-4
-1.707, 7.890e-4
-1.708, 8.013e-4
-1.709, 8.112e-4
-1.710, 8.211e-4
-1.711, 8.349e-4
-1.712, 8.463e-4
-1.713, 8.590e-4
-1.714, 8.668e-4
-1.715, 8.801e-4
-1.716, 8.925e-4
-1.717, 9.022e-4
-1.718, 9.125e-4
-1.719, 9.275e-4
-1.720, 9.381e-4
-1.721, 9.471e-4
-1.722, 9.602e-4
-1.723, 9.731e-4
-1.724, 9.832e-4
-1.725, 9.954e-4
-1.726, 1.010e-3
-1.727, 1.024e-3
-1.728, 1.035e-3
-1.729, 1.051e-3
-1.730, 1.067e-3
-1.731, 1.078e-3
-1.732, 1.091e-3
-1.733, 1.104e-3
-1.734, 1.119e-3
-1.735, 1.139e-3
-1.736, 1.152e-3
-1.737, 1.176e-3
-1.738, 1.190e-3
-1.739, 1.211e-3
-1.740, 1.218e-3
-1.741, 1.234e-3
-1.742, 1.252e-3
-1.743, 1.268e-3
-1.744, 1.282e-3
-1.745, 1.296e-3
-1.746, 1.316e-3
-1.747, 1.338e-3
-1.748, 1.357e-3
-1.749, 1.375e-3
-1.750, 1.395e-3
-1.751, 1.410e-3
-1.752, 1.425e-3
-1.753, 1.443e-3
-1.754, 1.466e-3
-1.755, 1.482e-3
-1.756, 1.496e-3
-1.757, 1.517e-3
-1.758, 1.537e-3
-1.759, 1.559e-3
-1.760, 1.575e-3
-1.761, 1.596e-3
-1.762, 1.617e-3
-1.763, 1.638e-3
-1.764, 1.659e-3
-1.765, 1.678e-3
-1.766, 1.701e-3
-1.767, 1.717e-3
-1.768, 1.742e-3
-1.769, 1.760e-3
-1.770, 1.784e-3
-1.771, 1.800e-3
-1.772, 1.826e-3
-1.773, 1.849e-3
-1.774, 1.862e-3
-1.775, 1.881e-3
-1.776, 1.911e-3
-1.777, 1.930e-3
-1.778, 1.954e-3
-1.779, 1.972e-3
-1.780, 2.000e-3
-1.781, 2.027e-3
-1.782, 2.054e-3
-1.783, 2.074e-3
-1.784, 2.101e-3
-1.785, 2.126e-3
-1.786, 2.149e-3
-1.787, 2.177e-3
-1.788, 2.199e-3
-1.789, 2.225e-3
-1.790, 2.257e-3
-1.791, 2.278e-3
-1.792, 2.311e-3
-1.793, 2.338e-3
-1.794, 2.366e-3
-1.795, 2.390e-3
-1.796, 2.416e-3
-1.797, 2.442e-3
-1.798, 2.476e-3
-1.799, 2.503e-3
-1.800, 2.518e-3
-1.799, 2.493e-3
-1.798, 2.477e-3
-1.797, 2.462e-3
-1.796, 2.435e-3
-1.795, 2.417e-3
-1.794, 2.400e-3
-1.793, 2.381e-3
-1.792, 2.362e-3
-1.791, 2.354e-3
-1.790, 2.333e-3
-1.789, 2.307e-3
-1.788, 2.283e-3
-1.787, 2.267e-3
-1.786, 2.254e-3
-1.785, 2.234e-3
-1.784, 2.209e-3
-1.783, 2.186e-3
-1.782, 2.163e-3
-1.781, 2.142e-3
-1.780, 2.119e-3
-1.779, 2.104e-3
-1.778, 2.088e-3
-1.777, 2.060e-3
-1.776, 2.040e-3
-1.775, 2.016e-3
-1.774, 1.995e-3
-1.773, 1.974e-3
-1.772, 1.953e-3
-1.771, 1.934e-3
-1.770, 1.915e-3
-1.769, 1.900e-3
-1.768, 1.879e-3
-1.767, 1.853e-3
-1.766, 1.832e-3
-1.765, 1.813e-3
-1.764, 1.795e-3
-1.763, 1.779e-3
-1.762, 1.759e-3
-1.761, 1.740e-3
-1.760, 1.717e-3
-1.759, 1.695e-3
-1.758, 1.674e-3
-1.757, 1.656e-3
-1.756, 1.639e-3
-1.755, 1.623e-3
-1.754, 1.603e-3
-1.753, 1.583e-3
-1.752, 1.567e-3
-1.751, 1.546e-3
-1.750, 1.527e-3
-1.749, 1.508e-3
-1.748, 1.488e-3
-1.747, 1.475e-3
-1.746, 1.459e-3
-1.745, 1.442e-3
-1.744, 1.424e-3
-1.743, 1.404e-3
-1.742, 1.389e-3
-1.741, 1.367e-3
-1.740, 1.356e-3
-1.739, 1.337e-3
-1.738, 1.322e-3
-1.737, 1.305e-3
-1.736, 1.288e-3
-1.735, 1.276e-3
-1.734, 1.256e-3
-1.733, 1.244e-3
-1.732, 1.225e-3
-1.731, 1.210e-3
-1.730, 1.194e-3
-1.729, 1.177e-3
-1.728, 1.162e-3
-1.727, 1.149e-3
-1.726, 1.134e-3
-1.725, 1.119e-3
-1.724, 1.105e-3
-1.723, 1.090e-3
-1.722, 1.071e-3
-1.721, 1.056e-3
-1.720, 1.045e-3
-1.719, 1.026e-3
-1.718, 1.010e-3
-1.717, 9.968e-4
-1.716, 9.838e-4
-1.715, 9.705e-4
-1.714, 9.554e-4
-1.713, 9.444e-4
-1.712, 9.315e-4
-1.711, 9.169e-4
-1.710, 9.067e-4
-1.709, 8.948e-4
-1.708, 8.813e-4
-1.707, 8.690e-4
-1.706, 8.569e-4
-1.705, 8.424e-4
-1.704, 8.290e-4
-1.703, 8.159e-4
-1.702, 8.045e-4
-1.701, 7.936e-4
-1.700, 7.814e-4
-1.699, 7.710e-4
-1.698, 7.617e-4
-1.697, 7.490e-4
-1.696, 7.385e-4
-1.695, 7.268e-4
-1.694, 7.162e-4
-1.693, 7.052e-4
-1.692, 6.958e-4
-1.691, 6.846e-4
-1.690, 6.741e-4
-1.689, 6.651e-4
-1.688, 6.540e-4
-1.687, 6.445e-4
-1.686, 6.341e-4
-1.685, 6.256e-4
-1.684, 6.147e-4
-1.683, 6.056e-4
-1.682, 5.962e-4
-1.681, 5.874e-4
-1.680, 5.778e-4
-1.679, 5.676e-4
-1.678, 5.602e-4
-1.677, 5.516e-4
-1.676, 5.433e-4
-1.675, 5.346e-4
-1.674, 5.262e-4
-1.673, 5.169e-4
-1.672, 5.114e-4
-1.671, 5.040e-4
-1.670, 4.943e-4
-1.669, 4.863e-4
-1.668, 4.819e-4
-1.667, 4.729e-4
-1.666, 4.645e-4
-1.665, 4.565e-4
-1.664, 4.494e-4
-1.663, 4.423e-4
-1.662, 4.346e-4
-1.661, 4.282e-4
-1.660, 4.225e-4
-1.659, 4.147e-4
-1.658, 4.087e-4
-1.657, 4.022e-4
-1.656, 3.943e-4
-1.655, 3.888e-4
-1.654, 3.816e-4
-1.653, 3.753e-4
-1.652, 3.699e-4
-1.651, 3.631e-4
-1.650, 3.571e-4
-1.649, 3.528e-4
-1.648, 3.468e-4
-1.647, 3.402e-4
-1.646, 3.341e-4
-1.645, 3.269e-4
-1.644, 3.222e-4
-1.643, 3.180e-4
-1.642, 3.133e-4
-1.641, 3.064e-4
-1.640, 3.018e-4
-1.639, 2.966e-4
-1.638, 2.918e-4
-1.637, 2.861e-4
-1.636, 2.810e-4
-1.635, 2.760e-4
-1.634, 2.716e-4
-1.633, 2.670e-4
-1.632, 2.627e-4
-1.631, 2.578e-4
-1.630, 2.530e-4
-1.629, 2.476e-4
-1.628, 2.446e-4
-1.627, 2.402e-4
-1.626, 2.360e-4
-1.625, 2.303e-4
-1.624, 2.265e-4
-1.623, 2.228e-4
-1.622, 2.185e-4
-1.621, 2.151e-4
-1.620, 2.101e-4
-1.619, 2.068e-4
-1.618, 2.031e-4
-1.617, 1.992e-4
-1.616, 1.960e-4
-1.615, 1.918e-4
-1.614, 1.884e-4
-1.613, 1.846e-4
-1.612, 1.812e-4
-1.611, 1.778e-4
-1.610, 1.748e-4
-1.609, 1.717e-4
-1.608, 1.685e-4
-1.607, 1.651e-4
-1.606, 1.623e-4
-1.605, 1.591e-4
-1.604, 1.562e-4
-1.603, 1.527e-4
-1.602, 1.495e-4
-1.601, 1.472e-4
-1.600, 1.442e-4
-1.599, 1.416e-4
-1.598, 1.390e-4
-1.597, 1.362e-4
-1.596, 1.335e-4
-1.595, 1.311e-4
-1.594, 1.287e-4
-1.593, 1.264e-4
-1.592, 1.237e-4
-1.591, 1.214e-4
-1.590, 1.186e-4
-1.589, 1.158e-4
-1.588, 1.139e-4
-1.587, 1.115e-4
-1.586, 1.093e-4
-1.585, 1.074e-4
-1.584, 1.050e-4
-1.583, 1.029e-4
-1.582, 1.014e-4
-1.581, 9.931e-5
-1.580, 9.716e-5
-1.579, 9.503e-5
-1.578, 9.312e-5
-1.577, 9.116e-5
-1.576, 8.925e-5
-1.575, 8.717e-5
-1.574, 8.561e-5
-1.573, 8.410e-5
-1.572, 8.189e-5
-1.571, 8.024e-5
-1.570, 7.860e-5
-1.569, 7.716e-5
-1.568, 7.541e-5
-1.567, 7.384e-5
-1.566, 7.204e-5
-1.565, 7.050e-5
-1.564, 6.904e-5
-1.563, 6.765e-5
-1.562, 6.615e-5
-1.561, 6.488e-5
-1.560, 6.397e-5
-1.559, 6.211e-5
-1.558, 6.069e-5
-1.557, 5.938e-5
-1.556, 5.802e-5
-1.555, 5.672e-5
-1.554, 5.549e-5
-1.553, 5.417e-5
-1.552, 5.292e-5
-1.551, 5.198e-5
-1.550, 5.064e-5
-1.549, 4.956e-5
-1.548, 4.846e-5
-1.547, 4.732e-5
-1.546, 4.635e-5
-1.545, 4.532e-5
-1.544, 4.436e-5
-1.543, 4.315e-5
-1.542, 4.214e-5
-1.541, 4.118e-5
-1.540, 4.033e-5
-1.539, 3.926e-5
-1.538, 3.845e-5
-1.537, 3.765e-5
-1.536, 3.670e-5
-1.535, 3.599e-5
-1.534, 3.511e-5
-1.533, 3.428e-5
-1.532, 3.345e-5
-1.531, 3.257e-5
-1.530, 3.180e-5
-1.529, 3.111e-5
-1.528, 3.041e-5
-1.527, 2.960e-5
-1.526, 2.888e-5
-1.525, 2.814e-5
-1.524, 2.751e-5
-1.523, 2.686e-5
-1.522, 2.616e-5
-1.521, 2.556e-5
-1.520, 2.489e-5
-1.519, 2.430e-5
-1.518, 2.365e-5
-1.517, 2.307e-5
-1.516, 2.240e-5
-1.515, 2.174e-5
-1.514, 2.130e-5
-1.513, 2.079e-5
-1.512, 2.024e-5
-1.511, 1.967e-5
-1.510, 1.918e-5
-1.509, 1.871e-5
-1.508, 1.819e-5
-1.507, 1.774e-5
-1.506, 1.721e-5
-1.505, 1.688e-5
-1.504, 1.640e-5
-1.503, 1.592e-5
-1.502, 1.546e-5
-1.501, 1.505e-5
-1.500, 1.469e-5
-1.499, 1.430e-5
-1.498, 1.397e-5
-1.497, 1.359e-5
-1.496, 1.320e-5
-1.495, 1.287e-5
-1.494, 1.247e-5
-1.493, 1.213e-5
-1.492, 1.183e-5
-1.491, 1.152e-5
-1.490, 1.116e-5
-1.489, 1.087e-5
-1.488, 1.056e-5
-1.487, 1.024e-5
-1.486, 9.960e-6
-1.485, 9.686e-6
-1.484, 9.375e-6
-1.483, 9.135e-6
-1.482, 8.890e-6
-1.481, 8.657e-6
-1.480, 8.397e-6
-1.479, 8.115e-6
-1.478, 7.907e-6
-1.477, 7.652e-6
-1.476, 7.441e-6
-1.475, 7.240e-6
-1.474, 7.014e-6
-1.473, 6.821e-6
-1.472, 6.613e-6
-1.471, 6.429e-6
-1.470, 6.243e-6
-1.469, 6.053e-6
-1.468, 5.866e-6
-1.467, 5.684e-6
-1.466, 5.538e-6
-1.465, 5.376e-6
-1.464, 5.183e-6
-1.463, 5.044e-6
-1.462, 4.888e-6
-1.461, 4.719e-6
-1.460, 4.564e-6
-1.459, 4.416e-6
-1.458, 4.291e-6
-1.457, 4.186e-6
-1.456, 4.036e-6
-1.455, 3.889e-6
-1.454, 3.770e-6
-1.453, 3.685e-6
-1.452, 3.553e-6
-1.451, 3.434e-6
-1.450, 3.301e-6
-1.449, 3.215e-6
-1.448, 3.136e-6
-1.447, 3.013e-6
-1.446, 2.914e-6
-1.445, 2.810e-6
-1.444, 2.714e-6
-1.443, 2.637e-6
-1.442, 2.543e-6
-1.441, 2.457e-6
-1.440, 2.362e-6
-1.439, 2.296e-6
-1.438, 2.233e-6
-1.437, 2.133e-6
-1.436, 2.095e-6
-1.435, 2.019e-6
-1.434, 1.946e-6
-1.433, 1.862e-6
-1.432, 1.796e-6
-1.431, 1.715e-6
-1.430, 1.686e-6
-1.429, 1.616e-6
-1.428, 1.557e-6
-1.427, 1.492e-6
-1.426, 1.453e-6
-1.425, 1.401e-6
-1.424, 1.352e-6
-1.423, 1.301e-6
-1.422, 1.258e-6
-1.421, 1.188e-6
-1.420, 1.140e-6
-1.419, 1.087e-6
-1.418, 1.087e-6
-1.417, 1.023e-6
-1.416, 9.933e-7
-1.415, 9.578e-7
-1.414, 9.371e-7
-1.413, 8.789e-7
-1.412, 8.631e-7
-1.411, 7.930e-7
-1.410, 7.615e-7
-1.409, 7.328e-7
-1.408, 6.894e-7
-1.407, 6.460e-7
-1.406, 6.223e-7
-1.405, 5.878e-7
-1.404, 5.839e-7
-1.403, 5.483e-7
-1.402, 5.266e-7
-1.401, 4.694e-7
-1.400, 4.734e-7
-1.399, 4.359e-7
-1.398, 4.152e-7
-1.397, 3.836e-7
-1.396, 3.629e-7
-1.395, 3.155e-7
-1.394, 3.027e-7
-1.393, 2.987e-7
-1.392, 2.514e-7
-1.391, 2.465e-7
-1.390, 2.198e-7
-1.389, 2.001e-7
-1.388, 1.912e-7
-1.387, 1.705e-7
-1.386, 1.596e-7
-1.385, 1.103e-7
-1.384, 1.064e-7
-1.383, 8.860e-8
-1.382, 7.873e-8
-1.381, 6.294e-8
-1.380, 3.828e-8
-1.379, 2.447e-8
-1.378, 2.052e-8
-1.377, -1.006e-8
-1.376, -3.275e-8
-1.375, -3.769e-8
-1.374, -5.051e-8
-1.373, -6.038e-8
-1.372, -7.518e-8
-1.371, -8.998e-8
-1.370, -1.176e-7
-1.369, -1.255e-7
-1.368, -1.235e-7
-1.367, -1.413e-7
-1.366, -1.659e-7
-1.365, -1.679e-7
-1.364, -2.064e-7
-1.363, -1.788e-7
-1.362, -2.153e-7
-1.361, -2.242e-7
-1.360, -2.360e-7
-1.359, -2.419e-7
-1.358, -2.587e-7
-1.357, -2.646e-7
-1.356, -2.636e-7
-1.355, -3.060e-7
-1.354, -2.962e-7
-1.353, -2.873e-7
-1.352, -3.110e-7
-1.351, -3.248e-7
-1.350, -3.425e-7
-1.349, -3.524e-7
-1.348, -3.376e-7
-1.347, -3.662e-7
-1.346, -3.702e-7
-1.345, -3.929e-7
-1.344, -4.037e-7
-1.343, -3.781e-7
-1.342, -4.027e-7
-1.341, -4.264e-7
-1.340, -4.294e-7
-1.339, -4.392e-7
-1.338, -4.501e-7
-1.337, -4.511e-7
-1.336, -4.609e-7
-1.335, -4.649e-7
-1.334, -4.915e-7
-1.333, -4.728e-7
-1.332, -4.856e-7
-1.331, -5.063e-7
-1.330, -5.310e-7
-1.329, -5.251e-7
-1.328, -5.270e-7
-1.327, -5.359e-7
-1.326, -5.468e-7
-1.325, -5.685e-7
-1.324, -5.606e-7
-1.323, -5.734e-7
-1.322, -5.754e-7
-1.321, -5.813e-7
-1.320, -5.991e-7
-1.319, -5.991e-7
-1.318, -6.139e-7
-1.317, -6.316e-7
-1.316, -6.168e-7
-1.315, -6.425e-7
-1.314, -6.366e-7
-1.313, -6.277e-7
-1.312, -6.661e-7
-1.311, -6.691e-7
-1.310, -6.819e-7
-1.309, -6.731e-7
-1.308, -6.908e-7
-1.307, -6.819e-7
-1.306, -6.948e-7
-1.305, -7.165e-7
-1.304, -7.214e-7
-1.303, -7.125e-7
-1.302, -7.283e-7
-1.301, -7.244e-7
-1.300, -7.678e-7
-1.299, -7.461e-7
-1.298, -7.352e-7
-1.297, -7.549e-7
-1.296, -7.717e-7
-1.295, -7.786e-7
-1.294, -7.944e-7
-1.293, -7.776e-7
-1.292, -8.062e-7
-1.291, -8.141e-7
-1.290, -8.171e-7
-1.289, -8.082e-7
-1.288, -8.181e-7
-1.287, -8.457e-7
-1.286, -8.516e-7
-1.285, -8.556e-7
-1.284, -8.427e-7
-1.283, -8.536e-7
-1.282, -8.753e-7
-1.281, -8.664e-7
-1.280, -8.931e-7
-1.279, -8.921e-7
-1.278, -9.059e-7
-1.277, -9.098e-7
-1.276, -9.177e-7
-1.275, -9.276e-7
-1.274, -9.306e-7
-1.273, -9.394e-7
-1.272, -9.276e-7
-1.271, -9.582e-7
-1.270, -9.858e-7
-1.269, -9.572e-7
-1.268, -9.828e-7
-1.267, -9.710e-7
-1.266, -1.003e-6
-1.265, -1.011e-6
-1.264, -1.002e-6
-1.263, -1.019e-6
-1.262, -1.021e-6
-1.261, -1.046e-6
-1.260, -1.062e-6
-1.259, -1.039e-6
-1.258, -1.044e-6
-1.257, -1.045e-6
-1.256, -1.061e-6
-1.255, -1.093e-6
-1.254, -1.073e-6
-1.253, -1.070e-6
-1.252, -1.086e-6
-1.251, -1.104e-6
-1.250, -1.098e-6
-1.249, -1.115e-6
-1.248, -1.110e-6
-1.247, -1.143e-6
-1.246, -1.139e-6
-1.245, -1.159e-6
-1.244, -1.150e-6
-1.243, -1.135e-6
-1.242, -1.161e-6
-1.241, -1.173e-6
-1.240, -1.167e-6
-1.239, -1.175e-6
-1.238, -1.171e-6
-1.237, -1.206e-6
-1.236, -1.203e-6
-1.235, -1.236e-6
-1.234, -1.213e-6
-1.233, -1.220e-6
-1.232, -1.228e-6
-1.231, -1.229e-6
-1.230, -1.247e-6
-1.229, -1.268e-6
-1.228, -1.281e-6
-1.227, -1.294e-6
-1.226, -1.277e-6
-1.225, -1.288e-6
-1.224, -1.280e-6
-1.223, -1.293e-6
-1.222, -1.346e-6
-1.221, -1.310e-6
-1.220, -1.335e-6
-1.219, -1.360e-6
-1.218, -1.334e-6
-1.217, -1.325e-6
-1.216, -1.357e-6
-1.215, -1.370e-6
-1.214, -1.374e-6
-1.213, -1.379e-6
-1.212, -1.367e-6
-1.211, -1.353e-6
-1.210, -1.388e-6
-1.209, -1.404e-6
-1.208, -1.416e-6
-1.207, -1.408e-6
-1.206, -1.385e-6
-1.205, -1.433e-6
-1.204, -1.397e-6
-1.203, -1.393e-6
-1.202, -1.397e-6
-1.201, -1.428e-6
-1.200, -1.437e-6
-1.199, -1.430e-6
-1.198, -1.417e-6
-1.197, -1.438e-6
-1.196, -1.449e-6
-1.195, -1.428e-6
-1.194, -1.421e-6
-1.193, -1.416e-6
-1.192, -1.428e-6
-1.191, -1.430e-6
-1.190, -1.450e-6
-1.189, -1.455e-6
-1.188, -1.465e-6
-1.187, -1.468e-6
-1.186, -1.492e-6
-1.185, -1.452e-6
-1.184, -1.459e-6
-1.183, -1.443e-6
-1.182, -1.448e-6
-1.181, -1.455e-6
-1.180, -1.463e-6
-1.179, -1.469e-6
-1.178, -1.468e-6
-1.177, -1.494e-6
-1.176, -1.508e-6
-1.175, -1.514e-6
-1.174, -1.496e-6
-1.173, -1.469e-6
-1.172, -1.481e-6
-1.171, -1.476e-6
-1.170, -1.491e-6
-1.169, -1.485e-6
-1.168, -1.485e-6
-1.167, -1.504e-6
-1.166, -1.540e-6
-1.165, -1.538e-6
-1.164, -1.512e-6
-1.163, -1.503e-6
-1.162, -1.512e-6
-1.161, -1.518e-6
-1.160, -1.511e-6
-1.159, -1.526e-6
-1.158, -1.514e-6
-1.157, -1.518e-6
-1.156, -1.533e-6
-1.155, -1.533e-6
-1.154, -1.531e-6
-1.153, -1.524e-6
-1.152, -1.545e-6
-1.151, -1.548e-6
-1.150, -1.576e-6
-1.149, -1.563e-6
-1.148, -1.574e-6
-1.147, -1.563e-6
-1.146, -1.572e-6
-1.145, -1.575e-6
-1.144, -1.563e-6
-1.143, -1.574e-6
-1.142, -1.585e-6
-1.141, -1.591e-6
-1.140, -1.597e-6
-1.139, -1.595e-6
-1.138, -1.595e-6
-1.137, -1.611e-6
-1.136, -1.611e-6
-1.135, -1.619e-6
-1.134, -1.621e-6
-1.133, -1.632e-6
-1.132, -1.646e-6
-1.131, -1.625e-6
-1.130, -1.636e-6
-1.129, -1.642e-6
-1.128, -1.635e-6
-1.127, -1.657e-6
-1.126, -1.683e-6
-1.125, -1.702e-6
-1.124, -1.698e-6
-1.123, -1.677e-6
-1.122, -1.697e-6
-1.121, -1.717e-6
-1.120, -1.722e-6
-1.119, -1.711e-6
-1.118, -1.710e-6
-1.117, -1.698e-6
-1.116, -1.714e-6
-1.115, -1.726e-6
-1.114, -1.727e-6
-1.113, -1.719e-6
-1.112, -1.737e-6
-1.111, -1.722e-6
-1.110, -1.743e-6
-1.109, -1.776e-6
-1.108, -1.736e-6
-1.107, -1.745e-6
-1.106, -1.786e-6
-1.105, -1.780e-6
-1.104, -1.783e-6
-1.103, -1.763e-6
-1.102, -1.782e-6
-1.101, -1.792e-6
-1.100, -1.842e-6
-1.099, -1.799e-6
-1.098, -1.805e-6
-1.097, -1.833e-6
-1.096, -1.825e-6
-1.095, -1.839e-6
-1.094, -1.866e-6
-1.093, -1.817e-6
-1.092, -1.836e-6
-1.091, -1.834e-6
-1.090, -1.846e-6
-1.089, -1.877e-6
-1.088, -1.877e-6
-1.087, -1.854e-6
-1.086, -1.884e-6
-1.085, -1.899e-6
-1.084, -1.905e-6
-1.083, -1.875e-6
-1.082, -1.955e-6
-1.081, -1.948e-6
-1.080, -1.948e-6
-1.079, -1.932e-6
-1.078, -1.940e-6
-1.077, -1.951e-6
-1.076, -1.971e-6
-1.075, -1.973e-6
-1.074, -1.957e-6
-1.073, -1.993e-6
-1.072, -2.012e-6
-1.071, -1.983e-6
-1.070, -1.982e-6
-1.069, -2.002e-6
-1.068, -1.981e-6
-1.067, -2.026e-6
-1.066, -2.027e-6
-1.065, -1.977e-6
-1.064, -1.982e-6
-1.063, -1.965e-6
-1.062, -1.976e-6
-1.061, -2.042e-6
-1.060, -2.008e-6
-1.059, -1.998e-6
-1.058, -1.993e-6
-1.057, -2.000e-6
-1.056, -2.023e-6
-1.055, -2.011e-6
-1.054, -2.030e-6
-1.053, -2.037e-6
-1.052, -2.025e-6
-1.051, -2.069e-6
-1.050, -2.029e-6
-1.049, -2.045e-6
-1.048, -2.018e-6
-1.047, -2.036e-6
-1.046, -2.038e-6
-1.045, -2.043e-6
-1.044, -2.068e-6
-1.043, -2.048e-6
-1.042, -2.056e-6
-1.041, -2.119e-6
-1.040, -2.074e-6
-1.039, -2.061e-6
-1.038, -2.062e-6
-1.037, -2.061e-6
-1.036, -2.081e-6
-1.035, -2.077e-6
-1.034, -2.095e-6
-1.033, -2.114e-6
-1.032, -2.113e-6
-1.031, -2.118e-6
-1.030, -2.100e-6
-1.029, -2.101e-6
-1.028, -2.100e-6
-1.027, -2.112e-6
-1.026, -2.188e-6
-1.025, -2.164e-6
-1.024, -2.180e-6
-1.023, -2.126e-6
-1.022, -2.121e-6
-1.021, -2.142e-6
-1.020, -2.123e-6
-1.019, -2.126e-6
-1.018, -2.132e-6
-1.017, -2.163e-6
-1.016, -2.210e-6
-1.015, -2.181e-6
-1.014, -2.184e-6
-1.013, -2.138e-6
-1.012, -2.147e-6
-1.011, -2.170e-6
-1.010, -2.161e-6
-1.009, -2.181e-6
-1.008, -2.214e-6
-1.007, -2.165e-6
-1.006, -2.162e-6
-1.005, -2.177e-6
-1.004, -2.174e-6
-1.003, -2.162e-6
-1.002, -2.182e-6
-1.001, -2.228e-6
