Potential V vs RHE, Current mA cm-2
0.013299999999999867,17.797068152302163
0.012299999999999978,16.22673860945197
0.011299999999999866,14.65640906660178
0.010299999999999976,13.127106151447675
0.009299999999999864,11.686930048185067
0.008299999999999974,10.292024706518141
0.007299999999999862,8.851848603255535
0.006299999999999972,7.456943261588608
0.00529999999999986,6.1044792589176335
0.0042999999999999705,4.708159205950842
0.0032999999999998586,3.313253864283916
0.0022999999999999687,1.8730777610213083
0.0012999999999998568,0.5211796428702795
0.00029999999999996696,-0.9181476336124089
-0.000700000000000145,-2.226755585987568
-0.0017000000000000348,-3.579219588658543
-0.0027000000000001467,-4.843971490737885
-0.0037000000000000366,-6.064867342521412
-0.0047000000000001485,-7.28576319430494
-0.005700000000000038,-8.508073757388331
-0.00670000000000015,-9.641257508580225
-0.00770000000000004,-10.775855971071984
-0.008700000000000152,-11.996751822855511
-0.009700000000000042,-13.175206335643086
-0.010700000000000154,-14.401761032626075
-0.011700000000000044,-15.618412750510005
-0.012700000000000156,-16.835064468393938
-0.013700000000000045,-18.009274847281915
-0.014700000000000157,-19.2400736781645
-0.015700000000000047,-20.414284057052477
-0.01670000000000016,-21.58849443594046
-0.01770000000000005,-22.72026347583249
-0.01870000000000016,-23.767149837732617
-0.01970000000000005,-24.870624651627345
-0.020700000000000163,-25.91751101352747
-0.021700000000000053,-26.907808923433
-0.022700000000000164,-27.954695285333123
-0.023700000000000054,-29.001581647233255
-0.024700000000000166,-30.04846800913338
-0.025700000000000056,-31.137795710029454
-0.026700000000000168,-32.24127052392419
-0.027700000000000058,-33.373039563816214
-0.02870000000000017,-34.462367264712285
-0.02970000000000006,-35.594136304604326
-0.03070000000000017,-36.5985813275085
-0.03170000000000006,-37.687909028404576
-0.03270000000000017,-38.692354051308754
-0.03370000000000006,-39.654357735216976
-0.034700000000000175,-40.616361419125205
-0.035700000000000065,-41.56421799003478
-0.03670000000000018,-42.483780334947056
-0.03770000000000007,-43.44578401885527
-0.03870000000000018,-44.4077877027635
-0.03970000000000007,-45.36979138667173
-0.04070000000000018,-46.37423640957591
-0.04170000000000007,-47.36453431948143
-0.04270000000000018,-48.36897934238561
-0.04370000000000007,-49.41586570428573
-0.044700000000000184,-50.42031072718991
-0.045700000000000074,-51.424755750094086
-0.046700000000000186,-52.42920077299826
-0.047700000000000076,-53.348763117910536
-0.04870000000000019,-54.31076680181876
-0.04970000000000008,-55.17374069473642
-0.05070000000000019,-56.05086170065276
-0.05170000000000008,-56.927982706569075
-0.05270000000000019,-57.79095659948675
-0.05370000000000008,-58.66807760540307
-0.05470000000000019,-59.587639950315335
-0.05570000000000008,-60.49305518222897
-0.056700000000000195,-61.455058866137186
-0.057700000000000085,-62.459503889041365
-0.058700000000000196,-63.421507572949594
-0.059700000000000086,-64.38351125685783
-0.0607000000000002,-65.34551494076604
-0.06170000000000009,-66.29337151167562
-0.0627000000000002,-67.21293385658788
-0.06370000000000009,-68.0900548625042
-0.0647000000000002,-68.96717586842054
-0.06570000000000009,-69.8301497613382
-0.0667000000000002,-70.62238808926263
-0.0677000000000001,-71.44292064318435
-0.0687000000000002,-72.32004164910067
-0.0697000000000001,-73.15472131602105
-0.07070000000000021,-74.06013654793468
-0.0717000000000001,-74.97969889284694
-0.07270000000000021,-75.94170257675518
-0.0737000000000001,-76.9037062606634
-0.07470000000000021,-77.86570994457162
-0.0757000000000001,-78.8135665154812
-0.07670000000000021,-79.73312886039348
-0.0777000000000001,-80.61024986630979
-0.07870000000000021,-81.43078242023151
-0.0797000000000001,-82.30790342614785
-0.08070000000000022,-83.14258309306821
-0.0817000000000001,-83.92067430799398
-0.08270000000000022,-84.75535397491434
-0.08370000000000011,-85.57588652883607
-0.08470000000000022,-86.45300753475239
-0.08570000000000011,-87.37256987966467
-0.08670000000000022,-88.27798511157829
-0.08770000000000011,-89.19754745649055
-0.08870000000000022,-90.15955114039879
-0.08970000000000011,-91.12155482430701
-0.09070000000000022,-92.04111716921928
-0.09170000000000011,-92.98897374012887
-0.09270000000000023,-93.82365340704924
-0.09370000000000012,-94.70077441296557
-0.09470000000000023,-95.52130696688728
-0.09570000000000012,-96.31354529481169
-0.09670000000000023,-97.09163650973747
-0.09770000000000012,-97.92631617665783
-0.09870000000000023,-98.74684873057957
-0.09970000000000012,-99.66641107549184
-0.10070000000000023,-100.54353208140815
-0.10170000000000012,-101.44894731332178
-0.10270000000000024,-102.45339233622596
-0.10370000000000013,-103.37295468113824
-0.10470000000000024,-104.3773997040424
-0.10570000000000013,-105.33940338795064
-0.10670000000000024,-106.2589657328629
-0.10770000000000013,-107.16438096477653
-0.10870000000000024,-108.0839433096888
-0.10970000000000013,-109.00350565460108
-0.11070000000000024,-109.8806266605174
-0.11170000000000013,-110.70115921443913
-0.11270000000000002,-111.57828022035544
-0.11370000000000013,-112.48369545226906
-0.11470000000000002,-113.31837511918944
-0.11570000000000014,-114.23793746410173
-0.11670000000000003,-115.15749980901398
-0.11770000000000014,-116.06291504092759
-0.11870000000000003,-116.98247738583989
-0.11970000000000014,-117.94448106974811
-0.12070000000000003,-118.86404341466037
-0.12170000000000014,-119.72701730757805
-0.12270000000000003,-120.56169697449842
-0.12370000000000014,-121.33978818942418
-0.12470000000000003,-122.1320265173486
-0.12570000000000014,-122.91011773227437
-0.12670000000000003,-123.70235606019881
-0.12770000000000015,-124.48044727512458
-0.12870000000000004,-125.272685603049
-0.12970000000000015,-126.05077681797478
-0.13070000000000004,-126.88545648489513
-0.13170000000000015,-127.72013615181551
-0.13270000000000004,-128.45578602774532
-0.13370000000000015,-129.2338772426711
-0.13470000000000004,-130.06855690959148
-0.13570000000000015,-130.8042067855213
-0.13670000000000004,-131.5964451134457
-0.13770000000000016,-132.41697766736743
-0.13870000000000005,-133.2516573342878
-0.13970000000000016,-134.08633700120816
-0.14070000000000005,-134.86442821613394
-0.14170000000000016,-135.6142252050624
-0.14270000000000005,-136.43475775898415
-0.14370000000000016,-137.2694374259045
-0.14470000000000005,-138.13241131882216
-0.14570000000000016,-139.0095323247385
-0.14670000000000005,-139.97153600864672
-0.14770000000000016,-140.93353969255494
-0.14870000000000005,-141.89554337646317
-0.14970000000000017,-142.7443701563822
-0.15070000000000006,-143.73466806628772
-0.15170000000000017,-144.72496597619326
-0.15270000000000006,-145.57379275611228
-0.15370000000000017,-146.28114840604482
-0.15470000000000006,-147.1299751859638
-0.15570000000000017,-147.97880196588284
-0.15670000000000006,-148.68615761581535
-0.15770000000000017,-149.53498439573437
-0.15870000000000006,-150.38381117565342
-0.15970000000000018,-151.23263795557244
-0.16070000000000007,-152.0814647354914
-0.16170000000000018,-153.07176264539694
-0.16270000000000007,-154.0620605553025
-0.16370000000000018,-154.9108873352215
-0.16470000000000007,-155.90118524512707
-0.16570000000000018,-156.89148315503257
-0.16670000000000007,-157.7403099349516
-0.16770000000000018,-158.5891367148706
-0.16870000000000007,-159.43796349478964
-0.16970000000000018,-160.28679027470866
-0.17070000000000007,-161.1356170546277
-0.17170000000000019,-161.84297270456022
-0.17270000000000008,-162.6917994844792
-0.1737000000000002,-163.54062626439824
-0.17470000000000008,-164.38945304431726
-0.1757000000000002,-165.2382798242363
-0.17670000000000008,-166.22857773414182
-0.1777000000000002,-167.07740451406085
-0.17870000000000008,-168.06770242396635
-0.1797000000000002,-168.91652920388537
-0.18070000000000008,-169.9068271137909
-0.1817000000000002,-170.75565389370993
-0.18270000000000008,-171.60448067362896
-0.1837000000000002,-172.31183632356147
-0.1847000000000001,-173.16066310348046
-0.1857000000000002,-174.0094898833995
-0.1867000000000001,-174.71684553333202
-0.1877000000000002,-175.56567231325104
-0.1887000000000001,-176.4144990931701
-0.1897000000000002,-177.2633258730891
-0.1907000000000001,-177.82921039303508
-0.1917000000000001,-178.67803717295413
-0.19269999999999998,-179.66833508285964
-0.1937000000000001,-180.65863299276518
-0.19469999999999998,-181.64893090267074
-0.1957000000000001,-182.63922881257625
-0.19669999999999999,-183.48805559249527
-0.1977000000000001,-184.47835350240078
-0.1987,-185.3271802823198
-0.1997000000000001,-186.31747819222534
-0.2007,-187.16630497214436
-0.2017000000000001,-188.01513175206335
-0.2027,-188.8639585319824
-0.2037000000000001,-189.71278531190143
-0.2047,-190.56161209182042
-0.2057000000000001,-191.551910001726
-0.2067,-192.54220791163152
-0.2077000000000001,-193.532505821537
-0.2087,-194.52280373144254
-0.2097000000000001,-195.51310164134807
-0.2107,-196.50339955125358
-0.2117000000000001,-197.49369746115914
-0.2127,-198.3425242410781
-0.2137000000000001,-199.19135102099716
-0.2147,-200.04017780091618
-0.2157000000000001,-200.88900458083523
-0.2167,-201.73783136075423
-0.21770000000000012,-202.58665814067325
-0.2187,-203.43548492059227
-0.21970000000000012,-204.2843117005113
-0.2207,-204.9916673504438
-0.22170000000000012,-205.98196526034934
-0.2227,-206.97226317025488
-0.22370000000000012,-207.8210899501739
-0.2247,-208.8113878600794
-0.22570000000000012,-209.66021463999843
-0.2267,-210.65051254990397
-0.22770000000000012,-211.35786819983647
-0.22870000000000001,-212.2066949797555
-0.22970000000000013,-212.914050629688
-0.23070000000000002,-213.62140627962054
-0.23170000000000013,-214.32876192955305
-0.23270000000000002,-215.17758870947208
-0.23370000000000013,-215.88494435940459
-0.23470000000000002,-216.59230000933712
-0.23570000000000013,-217.44112678925615
-0.23670000000000002,-218.14848243918865
-0.2376999999999999,-218.99730921910768
-0.23870000000000002,-219.98760712901318
-0.2396999999999999,-220.83643390893224
-0.24070000000000003,-221.54378955886475
-0.24169999999999991,-222.3926163387838
-0.24270000000000003,-223.09997198871628
-0.24369999999999992,-223.9487987686353
-0.24470000000000003,-224.93909667854084
-0.24569999999999992,-225.78792345845983
-0.24670000000000003,-226.63675023837888
-0.24769999999999992,-227.4855770182979
-0.24870000000000003,-228.47587492820347
-0.24969999999999992,-229.32470170812243
-0.25070000000000003,-230.31499961802797
-0.2516999999999999,-231.163826397947
-0.25270000000000004,-232.15412430785253
-0.2536999999999999,-233.1444222177581
-0.25470000000000004,-234.13472012766357
-0.2556999999999999,-235.12501803756908
-0.25670000000000004,-236.1153159474746
-0.25769999999999993,-237.10561385738015
-0.25870000000000004,-237.9544406372992
-0.25969999999999993,-238.8032674172182
-0.26070000000000004,-239.65209419713722
-0.26169999999999993,-240.50092097705624
-0.26270000000000004,-241.34974775697523
-0.26369999999999993,-242.19857453689428
-0.26470000000000005,-243.04740131681334
-0.26569999999999994,-243.8962280967323
-0.26670000000000005,-244.8865260066378
-0.26769999999999994,-245.73535278655686
-0.26870000000000005,-246.7256506964624
-0.26969999999999994,-247.71594860636796
-0.27070000000000005,-248.56477538628693
-0.27169999999999994,-249.5550732961925
-0.27270000000000005,-250.4039000761115
-0.27369999999999994,-251.39419798601702
-0.27470000000000006,-252.10155363594956
-0.27569999999999995,-252.95038041586852
-0.27670000000000006,-253.65773606580112
-0.27769999999999995,-254.64803397570657
-0.27870000000000006,-255.35538962563913
-0.27969999999999995,-256.4871586655312
-0.28070000000000006,-257.33598544545015
-0.28169999999999995,-258.32628335535566
-0.28270000000000006,-259.3165812652612
-0.28369999999999995,-260.3068791751668
-0.28470000000000006,-261.2971770850723
-0.28569999999999995,-262.1460038649913
-0.28670000000000007,-262.9948306449103
-0.28769999999999996,-263.84365742482936
-0.28870000000000007,-264.6924842047484
-0.28969999999999996,-265.6827821146539
-0.29070000000000007,-266.5316088945729
-0.29169999999999996,-267.38043567449193
-0.29270000000000007,-268.22926245441096
-0.29369999999999996,-269.2195603643164
-0.2947000000000001,-270.0683871442355
-0.29569999999999996,-271.05868505414105
-0.2967000000000001,-272.04898296404656
-0.29769999999999996,-273.1807520039386
-0.2987000000000001,-274.0295787838576
-0.29969999999999997,-275.0198766937631
-0.3007000000000001,-276.01017460366864
-0.30169999999999997,-276.8590013835877
-0.3027000000000001,-277.84929929349323
-0.30369999999999997,-278.6981260734122
-0.3047000000000001,-279.5469528533313
-0.30569999999999997,-280.3957796332503
-0.3067000000000001,-281.24460641316927
-0.3077,-282.09343319308834
-0.3087000000000001,-283.08373110299385
-0.3097,-283.9325578829129
-0.3107000000000001,-284.9228557928184
-0.3117,-285.7716825727374
-0.3127000000000001,-286.76198048264297
-0.3137,-287.893749522535
-0.3147000000000001,-288.8840474324405
-0.3157,-289.73287421235955
-0.3167000000000001,-290.86464325225154
-0.3177,-291.71347003217056
-0.3187000000000001,-292.70376794207607
-0.3197,-293.55259472199515
-0.3207000000000001,-294.54289263190066
-0.3217,-295.25024828183314
-0.3227000000000001,-296.0990750617522
-0.3237,-296.94790184167124
-0.3247000000000001,-297.79672862159026
-0.3257,-298.50408427152274
-0.3267000000000001,-299.49438218142825
-0.3277,-300.3432089613473
-0.3287000000000001,-301.33350687125284
-0.3297,-302.32380478115834
-0.3307000000000001,-303.31410269106385
-0.3317,-304.3044006009694
-0.3327000000000001,-305.1532273808884
-0.3337,-306.1435252907939
-0.3347000000000001,-306.99235207071297
-0.3357,-307.841178850632
-0.3367000000000001,-308.690005630551
-0.3377,-309.53883241047004
-0.3387000000000001,-310.52913032037554
-0.3397,-311.3779571002945
-0.3407000000000001,-312.2267838802136
-0.3417,-313.0756106601326
-0.3427000000000001,-314.0659085700381
-0.3437,-315.0562064799437
-0.3447000000000001,-316.04650438984913
-0.3457,-317.03680229975475
-0.3467000000000001,-317.8856290796738
-0.3477,-318.73445585959274
-0.3487000000000001,-319.72475376949825
-0.3497,-320.57358054941733
-0.3507000000000001,-321.42240732933635
-0.3517,-322.2712341092554
-0.3527000000000001,-323.1200608891744
-0.3537,-323.9688876690934
-0.3547000000000001,-324.81771444901244
-0.3557,-325.80801235891795
-0.35670000000000013,-326.79831026882346
-0.3577,-327.788608178729
-0.35870000000000013,-328.92037721862107
-0.3597,-329.76920399854004
-0.36070000000000013,-330.7595019084456
-0.3617,-331.74979981835105
-0.3626999999999999,-332.7400977282566
-0.3637,-333.5889245081757
-0.3646999999999999,-334.43775128809466
-0.3657,-335.2865780680136
-0.3666999999999999,-336.1354048479327
-0.3677,-336.9842316278517
-0.3686999999999999,-337.83305840777075
-0.36970000000000003,-338.96482744766274
-0.3706999999999999,-339.8136542275818
-0.37170000000000003,-340.80395213748733
-0.3726999999999999,-341.7942500473929
-0.37370000000000003,-342.92601908728494
-0.3746999999999999,-343.9163169971904
-0.37570000000000003,-344.90661490709596
-0.3766999999999999,-346.03838394698795
-0.37770000000000004,-346.88721072690697
-0.3786999999999999,-347.87750863681254
-0.37970000000000004,-348.86780654671804
-0.3806999999999999,-349.5751621966506
-0.38170000000000004,-350.5654601065561
-0.38269999999999993,-351.4142868864751
-0.38370000000000004,-352.4045847963807
-0.38469999999999993,-353.3948827062862
-0.38570000000000004,-354.3851806161917
-0.38669999999999993,-354.10223835621866
-0.38570000000000004,-351.69722914644814
-0.38469999999999993,-349.43369106666404
-0.38370000000000004,-347.17015298688
-0.38269999999999993,-344.90661490709596
-0.38170000000000004,-342.64307682731186
-0.3806999999999999,-340.3795387475279
-0.37970000000000004,-338.2574717977303
-0.3786999999999999,-335.9939337179462
-0.37770000000000004,-333.87186676814866
-0.3766999999999999,-331.6083286883646
-0.37570000000000003,-329.62773286855355
-0.3746999999999999,-327.505665918756
-0.37370000000000003,-325.24212783897195
-0.3726999999999999,-323.2615320191609
-0.37170000000000003,-321.1394650693634
-0.3706999999999999,-319.15886924955225
-0.36970000000000003,-317.03680229975475
-0.3686999999999999,-315.0562064799437
-0.3677,-312.9341395301461
-0.3666999999999999,-310.95354371033505
-0.3657,-308.972947890524
-0.3646999999999999,-306.99235207071297
-0.3637,-305.0117562509019
-0.3626999999999999,-303.0311604310908
-0.3617,-300.9090934812933
-0.36070000000000013,-298.9284976614822
-0.3597,-296.94790184167124
-0.35870000000000013,-294.8258348918736
-0.3577,-292.9867102020491
-0.35670000000000013,-291.0061143822381
-0.3557,-289.1669896924135
-0.3547000000000001,-287.327865002589
-0.3537,-285.4887403127644
-0.3527000000000001,-283.64961562293985
-0.3517,-281.8104909331153
-0.3507000000000001,-279.82989511330425
-0.3497,-277.84929929349323
-0.3487000000000001,-275.86870347368216
-0.3477,-274.0295787838576
-0.3467000000000001,-271.9075118340601
-0.3457,-270.0683871442355
-0.3447000000000001,-268.22926245441096
-0.3437,-266.3901377645864
-0.3427000000000001,-264.55101307476184
-0.3417,-262.7118883849373
-0.3407000000000001,-261.01423482509927
-0.3397,-259.3165812652612
-0.3387000000000001,-257.4774565754367
-0.3377,-255.77980301559862
-0.3367000000000001,-253.94067832577412
-0.3357,-252.10155363594956
-0.3347000000000001,-250.262428946125
-0.3337,-248.42330425630044
-0.3327000000000001,-246.5841795664759
-0.3317,-244.60358374666484
-0.3307000000000001,-242.76445905684034
-0.3297,-240.92533436701575
-0.3287000000000001,-239.0862096771912
-0.3277,-237.38855611735315
-0.3267000000000001,-235.69090255751513
-0.3257,-233.85177786769057
-0.3247000000000001,-232.29559543783904
-0.3237,-230.45647074801445
-0.3227000000000001,-228.75881718817644
-0.3217,-227.06116362833836
-0.3207000000000001,-225.36351006850035
-0.3197,-223.6658565086623
-0.3187000000000001,-221.82673181883774
-0.3177,-219.98760712901318
-0.3167000000000001,-218.14848243918865
-0.3157,-216.4508288793506
-0.3147000000000001,-214.75317531951256
-0.3137,-212.914050629688
-0.3127000000000001,-211.21639706985
-0.3117,-209.66021463999843
-0.3107000000000001,-207.96256108016038
-0.3097,-206.26490752032234
-0.3087000000000001,-204.7087250904708
-0.3077,-203.01107153063276
-0.3067000000000001,-201.31341797079472
-0.30569999999999997,-199.61576441095667
-0.3047000000000001,-197.91811085111863
-0.30369999999999997,-196.0789861612941
-0.3027000000000001,-194.2398614714695
-0.30169999999999997,-192.40073678164498
-0.3007000000000001,-190.70308322180696
-0.29969999999999997,-188.8639585319824
-0.2987000000000001,-187.30777610213087
-0.29769999999999996,-185.6101225422928
-0.2967000000000001,-183.91246898245475
-0.29569999999999996,-182.35628655260325
-0.2947000000000001,-180.8001041227517
-0.29369999999999996,-179.10245056291362
-0.29270000000000007,-177.54626813306209
-0.29169999999999996,-175.84861457322407
-0.29070000000000007,-174.2924321433725
-0.28969999999999996,-172.59477858353446
-0.28870000000000007,-171.03859615368293
-0.28769999999999996,-169.3409425938449
-0.28670000000000007,-167.6432890340068
-0.28569999999999995,-165.94563547416882
-0.28470000000000006,-164.24798191433075
-0.28369999999999995,-162.6917994844792
-0.28270000000000006,-161.1356170546277
-0.28169999999999995,-159.57943462477613
-0.28070000000000006,-158.02325219492457
-0.27969999999999995,-156.46706976507306
-0.27870000000000006,-154.9108873352215
-0.27769999999999995,-153.35470490536997
-0.27670000000000006,-151.93999360550492
-0.27569999999999995,-150.24234004566688
-0.27470000000000006,-148.54468648582886
-0.27369999999999994,-146.8470329259908
-0.27270000000000005,-145.29085049613926
-0.27169999999999994,-143.73466806628772
-0.27070000000000005,-142.17848563643616
-0.26969999999999994,-140.62230320658463
-0.26870000000000005,-139.09441500273041
-0.26769999999999994,-137.56652679887617
