Potential V vs RHE, Current mA cm-2
0.013299999999999867,24.16326900169483
0.012299999999999978,22.508056780852733
0.011299999999999866,20.980168576998494
0.010299999999999976,19.537163051136158
0.009299999999999864,18.19318731626437
0.008299999999999974,16.792623129397985
0.007299999999999862,15.43450028152755
0.006299999999999972,14.042424362460354
0.00529999999999986,12.603662970497613
0.0042999999999999705,11.163486867235004
0.0032999999999998586,9.768581525568079
0.0022999999999999687,8.459973573192919
0.0012999999999998568,7.195221671113577
0.00029999999999996696,6.016767158326001
-0.000700000000000145,4.883583407134107
-0.0017000000000000348,3.748984944642347
-0.0027000000000001467,2.5705304318547717
-0.0037000000000000366,1.349917522331218
-0.0047000000000001485,0.08502414912188871
-0.005700000000000038,-1.1798692240874404
-0.00670000000000015,-2.4007650758709675
-0.00770000000000004,-3.579219588658543
-0.008700000000000152,-4.668547289554621
-0.009700000000000042,-5.715433651454749
-0.010700000000000154,-6.719878674358924
-0.011700000000000044,-7.7653503249591855
-0.012700000000000156,-8.769795347863363
-0.013700000000000045,-9.902979099055257
-0.014700000000000157,-11.037577561547016
-0.015700000000000047,-12.214617363034726
-0.01670000000000016,-13.349215825526485
-0.01770000000000005,-14.444202371622024
-0.01870000000000016,-15.3920589425316
-0.01970000000000005,-16.354062626439823
-0.020700000000000163,-17.231183632356142
-0.021700000000000053,-18.19318731626437
-0.022700000000000164,-19.155191000172596
-0.023700000000000054,-20.159636023076775
-0.024700000000000166,-21.248963723972853
-0.025700000000000056,-22.295850085872978
-0.026700000000000168,-23.342736447773106
-0.027700000000000058,-24.389622809673234
-0.02870000000000017,-25.295038041586857
-0.02970000000000006,-26.17215904750318
-0.03070000000000017,-27.049280053419505
-0.03170000000000006,-27.912253946337174
-0.03270000000000017,-28.789374952253496
-0.03370000000000006,-29.751378636161718
-0.034700000000000175,-30.71338232006995
-0.035700000000000065,-31.76026868197007
-0.03670000000000018,-32.70812525287965
-0.03770000000000007,-33.670128936787876
-0.03870000000000018,-34.5472499427042
-0.03970000000000007,-35.38192960962457
-0.04070000000000018,-36.16002082455034
-0.04170000000000007,-36.99470049147071
-0.04270000000000018,-37.81523304539243
-0.04370000000000007,-38.777236729300654
-0.044700000000000184,-39.696799074212926
-0.045700000000000074,-40.65880275812115
-0.046700000000000186,-41.56421799003478
-0.047700000000000076,-42.483780334947056
-0.04870000000000019,-43.31846000186743
-0.04970000000000008,-44.096551216793195
-0.05070000000000019,-44.84634820572166
-0.05170000000000008,-45.666880759643384
-0.05270000000000019,-46.41667774857186
-0.05370000000000008,-47.27965164148953
-0.05470000000000019,-48.1992139864018
-0.05570000000000008,-49.16121767031002
-0.056700000000000195,-50.024191563227696
-0.057700000000000085,-50.943753908139975
-0.058700000000000196,-51.73599223606439
-0.059700000000000086,-52.514083450990164
-0.0607000000000002,-53.26388043991864
-0.06170000000000009,-54.0419716548444
-0.0627000000000002,-54.876651321764776
-0.06370000000000009,-55.6971838756865
-0.0647000000000002,-56.61674622059877
-0.06570000000000009,-57.53630856551105
-0.0667000000000002,-58.39928245842871
-0.0677000000000001,-59.27640346434504
-0.0687000000000002,-60.02620045327351
-0.0697000000000001,-60.761850329203334
-0.07070000000000021,-61.49750020513315
-0.0717000000000001,-62.24729719406162
-0.07270000000000021,-62.98294706999144
-0.0737000000000001,-63.81762673691181
-0.07470000000000021,-64.68060062982947
-0.0757000000000001,-65.60016297474175
-0.07670000000000021,-66.47728398065809
-0.0777000000000001,-67.2978165345798
-0.07870000000000021,-68.0900548625042
-0.0797000000000001,-68.78326339943808
-0.08070000000000022,-69.4906190493706
-0.0817000000000001,-70.22626892530042
-0.08270000000000022,-70.96191880123024
-0.08370000000000011,-71.7965984681506
-0.08470000000000022,-72.63127813507097
-0.08570000000000011,-73.53669336698461
-0.08670000000000022,-74.41381437290093
-0.08770000000000011,-75.2484940398213
-0.08870000000000022,-75.98414391575112
-0.08970000000000011,-76.7622351306769
-0.09070000000000022,-77.42714944161345
-0.09170000000000011,-78.16279931754329
-0.09270000000000023,-78.91259630647174
-0.09370000000000012,-79.73312886039348
-0.09470000000000023,-80.56780852731384
-0.09570000000000012,-81.43078242023151
-0.09670000000000023,-82.30790342614785
-0.09770000000000012,-83.14258309306821
-0.09870000000000023,-83.87823296899803
-0.09970000000000012,-84.57144150593189
-0.10070000000000023,-85.27879715586442
-0.10170000000000012,-86.01444703179425
-0.10270000000000024,-86.75009690772404
-0.10370000000000013,-87.58477657464444
-0.10470000000000024,-88.46189758056073
-0.10570000000000013,-89.32487147347842
-0.10670000000000024,-90.20199247939475
-0.10770000000000013,-91.03667214631511
-0.10870000000000024,-91.81476336124088
-0.10970000000000013,-92.50797189817473
-0.11070000000000024,-93.21532754810727
-0.11170000000000013,-93.90853608504113
-0.11270000000000002,-94.70077441296557
-0.11370000000000013,-95.47886562789132
-0.11470000000000002,-96.35598663380765
-0.11570000000000014,-97.26140186572127
-0.11670000000000003,-98.09608153264163
-0.11770000000000014,-98.97320253855796
-0.11870000000000003,-99.70885241448778
-0.11970000000000014,-100.40206095142165
-0.12070000000000003,-101.10941660135417
-0.12170000000000014,-101.80262513828804
-0.12270000000000003,-102.5524221272165
-0.12370000000000014,-103.33051334214227
-0.12470000000000003,-104.2076343480586
-0.12570000000000014,-105.07060824097626
-0.12670000000000003,-105.94772924689259
-0.12770000000000015,-106.73996757481702
-0.12870000000000004,-107.51805878974278
-0.12970000000000015,-108.21126732667666
-0.13070000000000004,-108.87618163761321
-0.13170000000000015,-109.654272852539
-0.13270000000000004,-110.40406984146746
-0.13370000000000015,-111.22460239538917
-0.13470000000000004,-112.10172340130552
-0.13570000000000015,-113.00713863321914
-0.13670000000000004,-113.88425963913545
-0.13770000000000016,-114.80382198404773
-0.13870000000000005,-115.5819131989735
-0.13970000000000016,-116.33171018790196
-0.14070000000000005,-117.02491872483584
-0.14170000000000016,-117.77471571376431
-0.14270000000000005,-118.55280692869007
-0.14370000000000016,-119.38748659561045
-0.14470000000000005,-120.25046048852812
-0.14570000000000016,-121.21246417243634
-0.14670000000000005,-122.1320265173486
-0.14770000000000016,-123.00914752326493
-0.14870000000000005,-123.82968007718667
-0.14970000000000017,-124.62191840511109
-0.15070000000000006,-125.35756828104091
-0.15170000000000017,-126.09321815697072
-0.15270000000000006,-126.84301514589919
-0.15370000000000017,-127.72013615181551
-0.15470000000000006,-128.54066870573723
-0.15570000000000017,-129.41778971165354
-0.15670000000000006,-130.28076360457123
-0.15770000000000017,-131.1154432714916
-0.15870000000000006,-131.89353448641737
-0.15970000000000018,-132.64333147534586
-0.16070000000000007,-133.37898135127566
-0.16170000000000018,-134.12877834020412
-0.16270000000000007,-134.9068695551299
-0.16370000000000018,-135.78399056104624
-0.16470000000000007,-136.70355290595847
-0.16570000000000018,-137.6089681378721
-0.16670000000000007,-138.48608914378846
-0.16770000000000018,-139.36321014970477
-0.16870000000000007,-140.0988600256346
-0.16970000000000018,-140.79206856256846
-0.17070000000000007,-141.47112998650366
-0.17170000000000019,-142.31995676642268
-0.17270000000000008,-143.0273124163552
-0.1737000000000002,-143.87613919627424
-0.17470000000000008,-144.72496597619326
-0.1757000000000002,-145.7152638860988
-0.17670000000000008,-146.5640906660178
-0.1777000000000002,-147.4129174459368
-0.17870000000000008,-148.26174422585584
-0.1797000000000002,-148.96909987578834
-0.18070000000000008,-149.6764555257209
-0.1817000000000002,-150.38381117565342
-0.18270000000000008,-151.23263795557244
-0.1837000000000002,-151.93999360550492
-0.1847000000000001,-152.93029151541046
-0.1857000000000002,-153.77911829532948
-0.1867000000000001,-154.76941620523502
-0.1877000000000002,-155.61824298515404
-0.1887000000000001,-156.32559863508658
-0.1897000000000002,-157.17442541500557
-0.1907000000000001,-157.7403099349516
-0.1917000000000001,-158.5891367148706
-0.19269999999999998,-159.29649236480313
-0.1937000000000001,-160.14531914472215
-0.19469999999999998,-160.99414592464117
-0.1957000000000001,-161.84297270456022
-0.19669999999999999,-162.6917994844792
-0.1977000000000001,-163.54062626439824
-0.1987,-164.38945304431726
-0.1997000000000001,-165.09680869424977
-0.2007,-165.8041643441823
-0.2017000000000001,-166.51151999411482
-0.2027,-167.21887564404733
-0.2037000000000001,-168.06770242396635
-0.2047,-168.91652920388537
-0.2057000000000001,-169.7653559838044
-0.2067,-170.61418276372342
-0.2077000000000001,-171.46300954364247
-0.2087,-172.31183632356147
-0.2097000000000001,-173.01919197349397
-0.2107,-173.72654762342648
-0.2117000000000001,-174.57537440334553
-0.2127,-175.42420118326456
-0.2137000000000001,-176.27302796318358
-0.2147,-177.2633258730891
-0.2157000000000001,-178.25362378299462
-0.2167,-179.10245056291362
-0.21770000000000012,-179.95127734283267
-0.2187,-180.8001041227517
-0.21970000000000012,-181.64893090267074
-0.2207,-182.35628655260325
-0.22170000000000012,-183.06364220253573
-0.2227,-183.91246898245475
-0.22370000000000012,-184.7612957623738
-0.2247,-185.6101225422928
-0.22570000000000012,-186.60042045219836
-0.2267,-187.44924723211736
-0.22770000000000012,-188.4395451420229
-0.22870000000000001,-189.1469007919554
-0.22970000000000013,-189.8542564418879
-0.23070000000000002,-190.70308322180696
-0.23170000000000013,-191.41043887173947
-0.23270000000000002,-192.2592656516585
-0.23370000000000013,-193.10809243157752
-0.23470000000000002,-193.9569192114965
-0.23570000000000013,-194.94721712140205
-0.23670000000000002,-195.79604390132107
-0.2376999999999999,-196.7863418112266
-0.23870000000000002,-197.63516859114563
-0.2396999999999999,-198.3425242410781
-0.24070000000000003,-199.19135102099716
-0.24169999999999991,-199.89870667092967
-0.24270000000000003,-200.7475334508487
-0.24369999999999992,-201.59636023076774
-0.24470000000000003,-202.58665814067325
-0.24569999999999992,-203.43548492059227
-0.24670000000000003,-204.42578283049778
-0.24769999999999992,-205.27460961041683
-0.24870000000000003,-206.12343639033585
-0.24969999999999992,-206.97226317025488
-0.25070000000000003,-207.67961882018741
-0.2516999999999999,-208.52844560010638
-0.25270000000000004,-209.23580125003892
-0.2536999999999999,-210.08462802995794
-0.25470000000000004,-211.07492593986345
-0.2556999999999999,-211.9237527197825
-0.25670000000000004,-212.914050629688
-0.25769999999999993,-213.76287740960703
-0.25870000000000004,-214.75317531951256
-0.25969999999999993,-215.4605309694451
-0.26070000000000004,-216.1678866193776
-0.26169999999999993,-217.01671339929663
-0.26270000000000004,-217.72406904922914
-0.26369999999999993,-218.57289582914817
-0.26470000000000005,-219.42172260906716
-0.26569999999999994,-220.41202051897272
-0.26670000000000005,-221.26084729889175
-0.26769999999999994,-222.25114520879725
-0.26870000000000005,-223.09997198871628
-0.26969999999999994,-223.9487987686353
-0.27070000000000005,-224.65615441856778
-0.27169999999999994,-225.50498119848683
-0.27270000000000005,-226.35380797840588
-0.27369999999999994,-227.2026347583249
-0.27470000000000006,-228.1929326682304
-0.27569999999999995,-229.18323057813595
-0.27670000000000006,-230.17352848804146
-0.27769999999999995,-231.0223552679605
-0.27870000000000006,-232.01265317786604
-0.27969999999999995,-232.86147995778504
-0.28070000000000006,-233.71030673770406
-0.28169999999999995,-234.4176623876366
-0.28270000000000006,-235.26648916755556
-0.28369999999999995,-236.25678707746113
-0.28470000000000006,-237.10561385738015
-0.28569999999999995,-238.0959117672857
-0.28670000000000007,-239.0862096771912
-0.28769999999999996,-239.93503645711021
-0.28870000000000007,-240.64239210704275
-0.28969999999999996,-241.49121888696175
-0.29070000000000007,-242.34004566688077
-0.29169999999999996,-243.18887244679982
-0.29270000000000007,-243.8962280967323
-0.29369999999999996,-244.8865260066378
-0.2947000000000001,-245.87682391654337
-0.29569999999999996,-246.7256506964624
-0.2967000000000001,-247.71594860636796
-0.29769999999999996,-248.56477538628693
-0.2987000000000001,-249.41360216620598
-0.29969999999999997,-250.1209578161385
-0.3007000000000001,-250.9697845960575
-0.30169999999999997,-251.81861137597656
-0.3027000000000001,-252.80890928588207
-0.30369999999999997,-253.79920719578757
-0.3047000000000001,-254.78950510569314
-0.30569999999999997,-255.77980301559862
-0.3067000000000001,-256.62862979551767
-0.3077,-257.4774565754367
-0.3087000000000001,-258.32628335535566
-0.3097,-259.3165812652612
-0.3107000000000001,-260.02393691519376
-0.3117,-260.8727636951128
-0.3127000000000001,-261.7215904750318
-0.3137,-262.42894612496434
-0.3147000000000001,-263.41924403486985
-0.3157,-264.40954194477536
-0.3167000000000001,-265.39983985468086
-0.3177,-266.3901377645864
-0.3187000000000001,-267.38043567449193
-0.3197,-268.22926245441096
-0.3207000000000001,-269.07808923433
-0.3217,-269.926916014249
-0.3227000000000001,-270.63427166418154
-0.3237,-271.62456957408705
-0.3247000000000001,-272.47339635400607
-0.3257,-273.4636942639116
-0.3267000000000001,-274.31252104383066
-0.3277,-275.30281895373616
-0.3287000000000001,-276.29311686364167
-0.3297,-277.1419436435607
-0.3307000000000001,-277.9907704234797
-0.3317,-278.9810683333853
-0.3327000000000001,-279.82989511330425
-0.3337,-280.67872189322327
-0.3347000000000001,-281.52754867314235
-0.3357,-282.51784658304786
-0.3367000000000001,-283.5081444929533
-0.3377,-284.35697127287233
-0.3387000000000001,-285.2057980527914
-0.3397,-286.196095962697
-0.3407000000000001,-286.9034516126294
-0.3417,-287.7522783925485
-0.3427000000000001,-288.6011051724675
-0.3437,-289.59140308237295
-0.3447000000000001,-290.5817009922785
-0.3457,-291.71347003217056
-0.3467000000000001,-292.70376794207607
-0.3477,-293.6940658519816
-0.3487000000000001,-294.54289263190066
-0.3497,-295.3917194118196
-0.3507000000000001,-296.0990750617522
-0.3517,-296.94790184167124
-0.3527000000000001,-297.79672862159026
-0.3537,-298.6455554015092
-0.3547000000000001,-299.49438218142825
-0.3557,-300.48468009133376
-0.35670000000000013,-301.33350687125284
-0.3577,-302.18233365117186
-0.35870000000000013,-303.17263156107737
-0.3597,-304.3044006009694
-0.36070000000000013,-305.1532273808884
-0.3617,-306.1435252907939
-0.3626999999999999,-306.99235207071297
-0.3637,-307.69970772064545
-0.3646999999999999,-308.54853450056453
-0.3657,-309.53883241047004
-0.3666999999999999,-310.38765919038906
-0.3677,-311.5194282302811
-0.3686999999999999,-312.65119727017316
-0.36970000000000003,-313.6414951800786
-0.3706999999999999,-314.6317930899841
-0.37170000000000003,-315.6220909998897
-0.3726999999999999,-316.6123889097952
-0.37370000000000003,-317.74415794968724
-0.3746999999999999,-318.73445585959274
-0.37570000000000003,-319.8662248994848
-0.3766999999999999,-321.1394650693634
-0.37770000000000004,-322.2712341092554
-0.3786999999999999,-323.40300314914737
-0.37970000000000004,-324.25182992906645
-0.3806999999999999,-324.9591855789989
-0.38170000000000004,-325.94948348890443
-0.38269999999999993,-326.656839138837
-0.38370000000000004,-327.6471370487425
-0.38469999999999993,-328.92037721862107
-0.38570000000000004,-330.19361738849955
-0.38669999999999993,-330.05214625851306
-0.38570000000000004,-327.6471370487425
-0.38469999999999993,-325.3835989689584
-0.38370000000000004,-322.97858975918786
-0.38269999999999993,-320.71505167940376
-0.38170000000000004,-318.4515135996198
-0.3806999999999999,-316.3294466498222
-0.37970000000000004,-314.20737970002466
-0.3786999999999999,-312.2267838802136
-0.37770000000000004,-310.10471693041603
-0.3766999999999999,-307.98264998061853
-0.37570000000000003,-306.00205416080746
-0.3746999999999999,-303.87998721100985
-0.37370000000000003,-301.6164491312258
-0.3726999999999999,-299.2114399214552
-0.37170000000000003,-296.6649595816982
-0.3706999999999999,-294.2599503719276
-0.36970000000000003,-291.9964122921436
-0.3686999999999999,-290.0158164723325
-0.3677,-288.03522065252145
-0.3666999999999999,-285.9131537027239
-0.3657,-283.9325578829129
-0.3646999999999999,-281.66901980312883
-0.3637,-279.6884239833177
-0.3626999999999999,-277.56635703352015
-0.3617,-275.44429008372265
-0.36070000000000013,-273.3222231339251
-0.3597,-271.05868505414105
-0.35870000000000013,-269.07808923433
-0.3577,-267.09749341451896
-0.35670000000000013,-265.2583687246944
-0.3557,-263.41924403486985
-0.3547000000000001,-261.58011934504526
-0.3537,-259.59952352523425
-0.3527000000000001,-257.6189277054232
-0.3517,-255.49686075562562
-0.3507000000000001,-253.51626493581452
-0.3497,-251.39419798601702
-0.3487000000000001,-249.5550732961925
-0.3477,-247.71594860636796
-0.3467000000000001,-245.87682391654337
-0.3457,-244.17917035670533
-0.3447000000000001,-242.48151679686728
-0.3437,-240.78386323702924
-0.3427000000000001,-239.0862096771912
-0.3417,-237.38855611735315
-0.3407000000000001,-235.69090255751513
-0.3397,-233.85177786769057
-0.3387000000000001,-232.15412430785253
-0.3377,-230.31499961802797
-0.3367000000000001,-228.47587492820347
-0.3357,-226.77822136836537
-0.3347000000000001,-224.79762554855435
-0.3337,-222.9585008587298
-0.3327000000000001,-221.11937616890526
-0.3317,-219.42172260906716
-0.3307000000000001,-217.58259791924263
-0.3297,-215.88494435940459
-0.3287000000000001,-214.18729079956654
-0.3277,-212.48963723972852
-0.3267000000000001,-210.79198367989048
-0.3257,-208.95285899006592
-0.3247000000000001,-207.1137343002414
-0.3237,-205.13313848043032
-0.3227000000000001,-203.29401379060576
-0.3217,-201.59636023076774
-0.3207000000000001,-199.89870667092967
-0.3197,-198.3425242410781
-0.3187000000000001,-196.6448706812401
-0.3177,-195.08868825138856
-0.3167000000000001,-193.532505821537
-0.3157,-191.83485226169896
-0.3147000000000001,-190.13719870186094
-0.3137,-188.29807401203638
-0.3127000000000001,-186.45894932221185
-0.3117,-184.7612957623738
-0.3107000000000001,-183.06364220253573
-0.3097,-181.5074597726842
-0.3087000000000001,-179.80980621284618
-0.3077,-178.25362378299462
-0.3067000000000001,-176.6974413531431
-0.30569999999999997,-175.14125892329156
-0.3047000000000001,-173.302134233467
-0.30369999999999997,-171.60448067362896
-0.3027000000000001,-169.7653559838044
-0.30169999999999997,-168.06770242396635
-0.3007000000000001,-166.51151999411482
-0.29969999999999997,-164.81386643427678
-0.2987000000000001,-163.39915513441173
-0.29769999999999996,-161.84297270456022
-0.2967000000000001,-160.14531914472215
-0.29569999999999996,-158.73060784485713
-0.2947000000000001,-157.03295428501906
-0.29369999999999996,-155.19382959519453
-0.29270000000000007,-153.35470490536997
-0.29169999999999996,-151.65705134553193
-0.29070000000000007,-149.95939778569388
-0.28969999999999996,-148.40321535584232
-0.28870000000000007,-146.8470329259908
-0.28769999999999996,-145.43232162612577
-0.28670000000000007,-143.87613919627424
-0.28569999999999995,-142.31995676642268
-0.28470000000000006,-140.66474454558062
-0.28369999999999995,-139.05197366373446
-0.28270000000000006,-137.3543201038964
-0.28169999999999995,-135.74154922205025
-0.28070000000000006,-134.12877834020412
-0.27969999999999995,-132.60089013634988
-0.27870000000000006,-131.1154432714916
-0.27769999999999995,-129.67243774562928
-0.27670000000000006,-128.144549541775
-0.27569999999999995,-126.6732497899154
-0.27470000000000006,-125.10292024706521
-0.27369999999999994,-123.532590704215
-0.27270000000000005,-121.86323137037427
-0.27169999999999994,-120.33534316652002
-0.27070000000000005,-118.82160207566443
-0.26969999999999994,-117.42103788879804
-0.26870000000000005,-116.02047370193165
