Potential V vs RHE, Current mA cm-2
0.013299999999999867,0.37815233045392427
0.012299999999999978,-0.8025657204134353
0.011299999999999866,-1.6891652920388538
0.010299999999999976,-2.4488652600663787
0.009299999999999864,-3.110950148403216
0.008299999999999974,-3.6556139988512544
0.007299999999999862,-4.125298150406447
0.006299999999999972,-4.541223272566767
0.00529999999999986,-4.941586570428573
0.0042999999999999705,-5.337705734390783
0.0032999999999998586,-5.685724714157582
0.0022999999999999687,-5.97149639673032
0.0012999999999998568,-6.245950388904137
0.00029999999999996696,-6.5246485149775495
-0.000700000000000145,-6.824567310548938
-0.0017000000000000348,-7.094777168823159
-0.0027000000000001467,-7.308398575102779
-0.0037000000000000366,-7.529093537881726
-0.0047000000000001485,-7.7653503249591855
-0.005700000000000038,-8.015754225035298
-0.00670000000000015,-8.244937455613433
-0.00770000000000004,-8.430264635895755
-0.008700000000000152,-8.6226653726774
-0.009700000000000042,-8.846189758056074
-0.010700000000000154,-9.09517894683232
-0.011700000000000044,-9.307385641812077
-0.012700000000000156,-9.48563926559507
-0.013700000000000045,-9.661063466778335
-0.014700000000000157,-9.880343718257414
-0.015700000000000047,-10.092550413237172
-0.01670000000000016,-10.300512974317332
-0.01770000000000005,-10.474522464200732
-0.01870000000000016,-10.649946665383997
-0.01970000000000005,-10.874885762062537
-0.020700000000000163,-11.119630816939189
-0.021700000000000053,-11.324763955419618
-0.022700000000000164,-11.514335269601535
-0.023700000000000054,-11.698247738583987
-0.024700000000000166,-11.916113278763204
-0.025700000000000056,-12.17642015793837
-0.026700000000000168,-12.375894451219342
-0.027700000000000058,-12.55839220890193
-0.02870000000000017,-12.74654881178398
-0.02970000000000006,-12.979976176261713
-0.03070000000000017,-13.253015457135664
-0.03170000000000006,-13.486442821613394
-0.03270000000000017,-13.69299067139369
-0.03370000000000006,-13.90378265507358
-0.034700000000000175,-14.140039442151041
-0.035700000000000065,-14.415908145624723
-0.03670000000000018,-14.642261953603128
-0.03770000000000007,-14.840321535584234
-0.03870000000000018,-15.06667534356264
-0.03970000000000007,-15.321323377538347
-0.04070000000000018,-15.590118524512702
-0.04170000000000007,-15.844766558488407
-0.04270000000000018,-16.071120366466815
-0.04370000000000007,-16.311621287443874
-0.044700000000000184,-16.59456354741688
-0.045700000000000074,-16.891652920388537
-0.046700000000000186,-17.132153841365596
-0.047700000000000076,-17.358507649344002
-0.04870000000000019,-17.627302796318357
-0.04970000000000008,-17.910245056291366
-0.05070000000000019,-18.221481542261674
-0.05170000000000008,-18.53271802823198
-0.05270000000000019,-18.759071836210385
-0.05370000000000008,-19.01371987018609
-0.05470000000000019,-19.31080924315775
-0.05570000000000008,-19.60789861612941
-0.056700000000000195,-19.904987989101066
-0.057700000000000085,-20.159636023076775
-0.058700000000000196,-20.42843117005113
-0.059700000000000086,-20.75381476902009
-0.0607000000000002,-21.065051254990397
-0.06170000000000009,-21.376287740960702
-0.0627000000000002,-21.645082887935057
-0.06370000000000009,-21.91387803490942
-0.0647000000000002,-22.225114520879725
-0.06570000000000009,-22.550498119848687
-0.0667000000000002,-22.861734605818995
-0.0677000000000001,-23.1729710917893
-0.0687000000000002,-23.45591335176231
-0.0697000000000001,-23.795444063729917
-0.07070000000000021,-24.134974775697525
-0.0717000000000001,-24.44621126166783
-0.07270000000000021,-24.70085929564354
-0.0737000000000001,-25.012095781613848
-0.07470000000000021,-25.337479380582806
-0.0757000000000001,-25.691157205549064
-0.07670000000000021,-26.030687917516673
-0.0777000000000001,-26.313630177489685
-0.07870000000000021,-26.62486666345999
-0.0797000000000001,-26.95025026242895
-0.08070000000000022,-27.31807520039386
-0.0817000000000001,-27.64345879936282
-0.08270000000000022,-27.940548172334477
-0.08370000000000011,-28.237637545306132
-0.08470000000000022,-28.591315370272387
-0.08570000000000011,-29.001581647233255
-0.08670000000000022,-29.35525947219951
-0.08770000000000011,-29.62405461917387
-0.08870000000000022,-29.935291105144174
-0.08970000000000011,-30.317263156107735
-0.09070000000000022,-30.699235207071297
-0.09170000000000011,-30.982177467044306
-0.09270000000000023,-31.265119727017314
-0.09370000000000012,-31.57635621298762
-0.09470000000000023,-31.95832826395118
-0.09570000000000012,-32.340300314914735
-0.09670000000000023,-32.693978139881004
-0.09770000000000012,-33.01936173884996
-0.09870000000000023,-33.358892450817564
-0.09970000000000012,-33.712570275783825
-0.10070000000000023,-34.06624810075008
-0.10170000000000012,-34.39163169971904
-0.10270000000000024,-34.702868185689354
-0.10370000000000013,-35.014104671659666
-0.10470000000000024,-35.367782496625914
-0.10570000000000013,-35.74975454758948
-0.10670000000000024,-36.07513814655844
-0.10770000000000013,-36.40052174552739
-0.10870000000000024,-36.796640909489604
-0.10970000000000013,-37.206907186450465
-0.11070000000000024,-37.60302635041268
-0.11170000000000013,-37.95670417537893
-0.11270000000000002,-38.22549932235329
-0.11370000000000013,-38.5084415823263
-0.11470000000000002,-38.84797229429391
-0.11570000000000014,-39.272385684253415
-0.11670000000000003,-39.54118083122778
-0.11770000000000014,-39.85241731719808
-0.11870000000000003,-40.220242255162994
-0.11970000000000014,-40.630508532123855
-0.12070000000000003,-41.05492192208336
-0.12170000000000014,-41.43689397304693
-0.12270000000000003,-41.69154200702263
-0.12370000000000014,-41.98863137999429
-0.12470000000000003,-42.3281620919619
-0.12570000000000014,-42.71013414292546
-0.12670000000000003,-43.06381196789171
-0.12770000000000015,-43.34675422786472
-0.12870000000000004,-43.70043205283099
-0.12970000000000015,-44.124845442790495
-0.13070000000000004,-44.4926703807554
-0.13170000000000015,-44.86049531872031
-0.13270000000000004,-45.20002603068792
-0.13370000000000015,-45.52540962965688
-0.13470000000000004,-45.86494034162449
-0.13570000000000015,-46.24691239258805
-0.13670000000000004,-46.60059021755431
-0.13770000000000016,-46.982562268517874
-0.13870000000000005,-47.350387206482786
-0.13970000000000016,-47.689917918450384
-0.14070000000000005,-48.029448630417996
-0.14170000000000016,-48.45386202037751
-0.14270000000000005,-48.79339273234511
-0.14370000000000016,-49.062187879319474
-0.14470000000000005,-49.514895495276285
-0.14570000000000016,-49.98175022423175
-0.14670000000000005,-50.2788395972034
-0.14770000000000016,-50.60422319617236
-0.14870000000000005,-50.957901021138625
-0.14970000000000017,-51.29743173310623
-0.15070000000000006,-51.70769801006709
-0.15170000000000017,-52.075522948032
-0.15270000000000006,-52.44334788599691
-0.15370000000000017,-52.78287859796452
-0.15470000000000006,-53.24973332691998
-0.15570000000000017,-53.77317650787004
-0.15670000000000006,-53.999530315848446
-0.15770000000000017,-54.18344278483091
-0.15870000000000006,-54.508826383799864
-0.15970000000000018,-55.046416677748574
-0.16070000000000007,-55.527418519702685
-0.16170000000000018,-55.90939057066625
-0.16270000000000007,-56.20647994363791
-0.16370000000000018,-56.51771642960822
-0.16470000000000007,-56.88554136757313
-0.16570000000000018,-57.30995475753264
-0.16670000000000007,-57.7202210344935
-0.16770000000000018,-58.05975174646111
-0.16870000000000007,-58.39928245842871
-0.16970000000000018,-58.79540162239092
-0.17070000000000007,-59.17737367335449
-0.17170000000000019,-59.587639950315335
-0.17270000000000008,-60.02620045327351
-0.1737000000000002,-60.47890806923032
-0.17470000000000008,-60.95990991118443
-0.1757000000000002,-61.37017618814529
-0.17670000000000008,-61.7662953521075
-0.1777000000000002,-62.10582606407511
-0.17870000000000008,-62.36047409805081
-0.1797000000000002,-62.65756347102247
-0.18070000000000008,-63.06782974798333
-0.1817000000000002,-63.49224313794284
-0.18270000000000008,-63.930803640901004
-0.1837000000000002,-64.39765836985646
-0.1847000000000001,-64.86451309881193
-0.1857000000000002,-65.28892648877145
-0.1867000000000001,-65.65675142673635
-0.1877000000000002,-66.02457636470128
-0.1887000000000001,-66.43484264166212
-0.1897000000000002,-66.84510891862298
-0.1907000000000001,-67.2695223085825
-0.1917000000000001,-67.6656414725447
-0.19269999999999998,-68.07590774950557
-0.1937000000000001,-68.51446825246373
-0.19469999999999998,-68.9530287554219
-0.1957000000000001,-69.41988348437735
-0.19669999999999999,-69.87259110033416
-0.1977000000000001,-70.35359294228827
-0.1987,-70.80630055824508
-0.1997000000000001,-71.2307139482046
-0.2007,-71.7117157901587
-0.2017000000000001,-72.10783495412092
-0.2027,-72.50395411808313
-0.2037000000000001,-72.98495596003725
-0.2047,-73.50839914098731
-0.2057000000000001,-73.98940098294142
-0.2067,-74.45625571189689
-0.2077000000000001,-74.9089633278537
-0.2087,-75.36167094381051
-0.2097000000000001,-75.85681989876326
-0.2107,-76.35196885371603
-0.2117000000000001,-76.81882358267148
-0.2127,-77.243236972631
-0.2137000000000001,-77.69594458858782
-0.2147,-78.26182910853383
-0.2157000000000001,-78.82771362847984
-0.2167,-79.3228625834326
-0.21770000000000012,-79.7472759733921
-0.2187,-80.27071915434219
-0.21970000000000012,-80.72342677029899
-0.2207,-81.21857572525175
-0.22170000000000012,-81.75616601920048
-0.2227,-82.32205053914649
-0.22370000000000012,-82.87378794609386
-0.2247,-83.48211380503581
-0.22570000000000012,-84.03385121198318
-0.2267,-84.48655882793999
-0.22770000000000012,-84.89682510490086
-0.22870000000000001,-85.42026828585092
-0.22970000000000013,-85.91541724080368
-0.23070000000000002,-86.49544887374834
-0.23170000000000013,-87.075480506693
-0.23270000000000002,-87.62721791364037
-0.23370000000000013,-88.20724954658505
-0.23470000000000002,-88.7872811795297
-0.23570000000000013,-89.33901858647707
-0.23670000000000002,-89.96149155841768
-0.2376999999999999,-90.51322896536506
-0.23870000000000002,-91.17814327630163
-0.2396999999999999,-91.72988068324898
-0.24070000000000003,-92.33820654219093
-0.24169999999999991,-92.94653240113291
-0.24270000000000003,-93.44168135608567
-0.24369999999999992,-93.97927165003438
-0.24470000000000003,-94.61589173497366
-0.24569999999999992,-95.25251181991293
-0.24670000000000003,-95.87498479185354
-0.24769999999999992,-96.49745776379415
-0.24870000000000003,-97.09163650973747
-0.24969999999999992,-97.75655082067404
-0.25070000000000003,-98.33658245361869
-0.2516999999999999,-98.95905542555931
-0.25270000000000004,-99.56738128450128
-0.2536999999999999,-100.09082446545133
-0.25470000000000004,-100.69915032439332
-0.2556999999999999,-101.32162329633393
-0.25670000000000004,-101.8167722512867
-0.25769999999999993,-102.46753944922462
-0.25870000000000004,-103.03342396917063
-0.25969999999999993,-103.64174982811258
-0.26070000000000004,-104.41984104303836
-0.26169999999999993,-104.99987267598301
-0.26270000000000004,-105.33940338795064
-0.26369999999999993,-105.76381677791014
-0.26470000000000005,-106.52776087983727
-0.26569999999999994,-107.19267519077383
-0.26670000000000005,-107.81514816271445
-0.26769999999999994,-108.43762113465506
-0.26870000000000005,-109.17327101058488
-0.26969999999999994,-109.7957439825255
-0.27070000000000005,-110.34748138947285
-0.27169999999999994,-110.88507168342157
-0.27270000000000005,-111.43680909036894
-0.27369999999999994,-112.11587051430415
-0.27470000000000006,-112.87981461623129
-0.27569999999999995,-112.97884440722183
-0.27670000000000006,-113.74278850914895
-0.27769999999999995,-114.39355570708686
-0.27870000000000006,-115.01602867902749
-0.27969999999999995,-115.72338432896
-0.28070000000000006,-116.44488709189118
-0.28169999999999995,-117.09565428982908
-0.28270000000000006,-117.78886282676295
-0.28369999999999995,-118.51036558969413
-0.28470000000000006,-119.23186835262528
-0.28569999999999995,-119.96751822855511
-0.28670000000000007,-120.61828542649305
-0.28769999999999996,-121.33978818942418
-0.28870000000000007,-121.97640827436345
-0.28969999999999996,-122.65546969829869
-0.29070000000000007,-123.40526668722715
-0.29169999999999996,-124.05603388516508
-0.29270000000000007,-124.72094819610162
-0.29369999999999996,-125.44245095903281
-0.2947000000000001,-126.50348443393159
-0.29569999999999996,-127.04107472788029
-0.2967000000000001,-127.43719389184253
-0.29769999999999996,-128.11625531577772
-0.2987000000000001,-128.93678786969946
-0.29969999999999997,-129.68658485862792
-0.3007000000000001,-130.40808762155908
-0.30169999999999997,-131.18617883648483
-0.3027000000000001,-131.68132779143764
-0.30369999999999997,-132.33209498937555
-0.3047000000000001,-132.92627373531886
-0.30569999999999997,-133.5063053682635
-0.3067000000000001,-134.07218988820952
-0.3077,-134.6805157471515
-0.3087000000000001,-135.387871397084
-0.3097,-136.10937416001516
-0.3107000000000001,-136.7318471319558
-0.3117,-137.50993834688154
-0.3127000000000001,-138.16070554481948
-0.3137,-138.7265900647655
-0.3147000000000001,-139.3773572627034
-0.3157,-140.04227157363997
-0.3167000000000001,-140.5798618675887
-0.3177,-141.07501082254146
-0.3187000000000001,-141.61260111649017
-0.3197,-142.17848563643616
-0.3207000000000001,-142.7443701563822
-0.3217,-143.0273124163552
-0.3227000000000001,-143.0273124163552
-0.3237,-143.0273124163552
-0.3247000000000001,-143.0273124163552
-0.3257,-143.0273124163552
-0.3267000000000001,-143.0273124163552
-0.3277,-143.0273124163552
-0.3287000000000001,-143.0273124163552
-0.3297,-143.0273124163552
-0.3307000000000001,-143.0273124163552
-0.3317,-143.0273124163552
-0.3327000000000001,-143.0273124163552
-0.3337,-143.0273124163552
-0.3347000000000001,-143.0273124163552
-0.3357,-143.0273124163552
-0.3367000000000001,-143.0273124163552
-0.3377,-143.0273124163552
-0.3387000000000001,-143.0273124163552
-0.3397,-143.0273124163552
-0.3407000000000001,-143.0273124163552
-0.3417,-143.0273124163552
-0.3427000000000001,-143.0273124163552
-0.3437,-143.0273124163552
-0.3447000000000001,-143.0273124163552
-0.3457,-143.0273124163552
-0.3467000000000001,-143.0273124163552
-0.3477,-143.0273124163552
-0.3487000000000001,-143.0273124163552
-0.3497,-143.0273124163552
-0.3507000000000001,-143.0273124163552
-0.3517,-143.0273124163552
-0.3527000000000001,-143.0273124163552
-0.3537,-143.0273124163552
-0.3547000000000001,-143.0273124163552
-0.3557,-143.0273124163552
-0.35670000000000013,-143.0273124163552
-0.3577,-143.0273124163552
-0.35870000000000013,-143.0273124163552
-0.3597,-143.0273124163552
-0.36070000000000013,-143.0273124163552
-0.3617,-143.0273124163552
-0.3626999999999999,-143.0273124163552
-0.3637,-143.0273124163552
-0.3646999999999999,-143.0273124163552
-0.3657,-143.0273124163552
-0.3666999999999999,-143.0273124163552
-0.3677,-143.0273124163552
-0.3686999999999999,-143.0273124163552
-0.36970000000000003,-143.0273124163552
-0.3706999999999999,-143.0273124163552
-0.37170000000000003,-143.0273124163552
-0.3726999999999999,-143.0273124163552
-0.37370000000000003,-143.0273124163552
-0.3746999999999999,-143.0273124163552
-0.37570000000000003,-143.0273124163552
-0.3766999999999999,-143.0273124163552
-0.37770000000000004,-143.0273124163552
-0.3786999999999999,-143.0273124163552
-0.37970000000000004,-143.0273124163552
-0.3806999999999999,-143.0273124163552
-0.38170000000000004,-143.0273124163552
-0.38269999999999993,-143.0273124163552
-0.38370000000000004,-143.0273124163552
-0.38469999999999993,-143.0273124163552
-0.38570000000000004,-143.0273124163552
-0.38669999999999993,-143.0273124163552
-0.38570000000000004,-143.0273124163552
-0.38469999999999993,-143.0273124163552
-0.38370000000000004,-143.0273124163552
-0.38269999999999993,-143.0273124163552
-0.38170000000000004,-143.0273124163552
-0.3806999999999999,-143.0273124163552
-0.37970000000000004,-143.0273124163552
-0.3786999999999999,-143.0273124163552
-0.37770000000000004,-143.0273124163552
-0.3766999999999999,-142.8858412863687
-0.37570000000000003,-141.06086370954282
-0.3746999999999999,-138.79732562975875
-0.37370000000000003,-136.36402219399088
-0.3726999999999999,-133.9873072102176
-0.37170000000000003,-131.6530335654403
-0.3706999999999999,-129.4602310506495
-0.36970000000000003,-127.43719389184253
-0.3686999999999999,-125.3292740550436
-0.3677,-123.43356091322445
-0.3666999999999999,-121.35393530242285
-0.3657,-119.27430969162123
-0.3646999999999999,-117.25127253281424
-0.3637,-115.31311805199914
-0.3626999999999999,-113.38911068418268
-0.3617,-111.4509562033676
-0.36070000000000013,-109.6825670785363
-0.3597,-107.8292952757131
-0.35870000000000013,-106.01846481188585
-0.3577,-104.2925170260505
-0.35670000000000013,-102.46753944922462
-0.3557,-100.74159166338926
-0.3547000000000001,-99.01564387755391
-0.3537,-97.33213743071452
-0.3527000000000001,-95.71936654886838
-0.3517,-94.02171298903033
-0.3507000000000001,-92.35235365518959
-0.3497,-90.6971414343475
-0.3487000000000001,-89.04192921350541
-0.3477,-87.47159967065522
-0.3467000000000001,-85.97200569279828
-0.3457,-84.41582326294673
-0.3447000000000001,-82.8313466070979
-0.3437,-81.33175262924095
-0.3427000000000001,-79.93118844237456
-0.3417,-78.44574157751629
-0.3407000000000001,-76.91785337366204
-0.3397,-75.53143629979431
-0.3387000000000001,-74.22990190391847
-0.3377,-72.8859261690467
-0.3367000000000001,-71.52780332117625
-0.3357,-70.12723913430986
-0.3347000000000001,-68.82570473843404
-0.3337,-67.4958761165609
-0.3327000000000001,-66.23678305968102
-0.3317,-64.86451309881193
-0.3307000000000001,-63.4780960249442
-0.3297,-62.17656162906836
-0.3287000000000001,-60.974057024183075
-0.3277,-59.828140871292405
-0.3267000000000001,-58.68222471840172
-0.3257,-57.53630856551105
-0.3247000000000001,-56.31965684762711
-0.3237,-55.13129935574048
-0.3227000000000001,-53.985383202849796
-0.3217,-52.91020261495237
-0.3207000000000001,-51.75013934906303
-0.3197,-50.63251742216966
-0.3187000000000001,-49.642219512264134
-0.3177,-48.538744698369406
-0.3167000000000001,-47.435269884474685
-0.3157,-46.37423640957591
-0.3147000000000001,-45.18587891768927
-0.3137,-44.124845442790495
-0.3127000000000001,-43.106253306887666
-0.3117,-42.073514057986195
-0.3107000000000001,-41.15395171307392
-0.3097,-40.20609514216434
-0.3087000000000001,-39.272385684253415
-0.3077,-38.32452911334384
-0.3067000000000001,-37.376672542434264
-0.30569999999999997,-36.40052174552739
-0.3047000000000001,-35.42437094862052
-0.30369999999999997,-34.5472499427042
-0.3027000000000001,-33.68427604978652
-0.30169999999999997,-32.7788608178729
-0.3007000000000001,-31.873445585959274
-0.29969999999999997,-31.024618806040255
-0.2987000000000001,-30.189939139119886
-0.29769999999999996,-29.34111235920086
-0.2967000000000001,-28.463991353284538
-0.29569999999999996,-27.615164573365515
-0.2947000000000001,-26.808779132442442
-0.29369999999999996,-26.044835030515326
-0.29270000000000007,-25.252596702590903
-0.29169999999999996,-24.40376992267188
-0.29070000000000007,-23.61153159474746
-0.28969999999999996,-22.833440379821692
-0.28870000000000007,-22.097790503891872
-0.28769999999999996,-21.362140627962056
-0.28670000000000007,-20.598196526034933
-0.28569999999999995,-19.848399537106463
-0.28470000000000006,-19.141043887173947
-0.28369999999999995,-18.461982463238726
-0.28270000000000006,-17.76877392630486
-0.28169999999999995,-16.99068271137909
-0.28070000000000006,-16.24088572245062
-0.27969999999999995,-15.547677185516752
-0.27870000000000006,-14.911057100577487
-0.27769999999999995,-14.231995676642269
-0.27670000000000006,-13.575569633504891
-0.27569999999999995,-12.895093498269809
-0.27470000000000006,-12.272620526329193
-0.27369999999999994,-11.674197646486283
-0.27270000000000005,-11.047480540646072
-0.27169999999999994,-10.392469208808558
-0.27070000000000005,-9.731799031771587
-0.26969999999999994,-9.11498490503043
-0.26870000000000005,-8.546270962484687
-0.26769999999999994,-7.9690687521397505
-0.26670000000000005,-7.349425202798865
-0.26569999999999994,-6.7212933856587895
