Potential V vs RHE, Current mA cm-2
0.013299999999999867,-0.2202705493889862
0.012299999999999978,-1.1362961160515976
0.011299999999999866,-1.9650339955125358
0.010299999999999976,-2.662486666345999
0.009299999999999864,-3.317497998183511
0.008299999999999974,-3.840941179133574
0.007299999999999862,-4.406825699079589
0.006299999999999972,-4.887827541033701
0.00529999999999986,-5.323558621392133
0.0042999999999999705,-5.715433651454749
0.0032999999999998586,-6.064867342521412
0.0022999999999999687,-6.37044498329226
0.0012999999999998568,-6.719878674358924
0.00029999999999996696,-6.981600264833956
-0.000700000000000145,-7.199465805013171
-0.0017000000000000348,-7.461187395488204
-0.0027000000000001467,-7.635196885371603
-0.0037000000000000366,-7.809206375255003
-0.0047000000000001485,-7.940774526142452
-0.005700000000000038,-8.11478401602585
-0.00670000000000015,-8.246352166913299
-0.00770000000000004,-8.332649556205066
-0.008700000000000152,-8.464217707092514
-0.009700000000000042,-8.55051509638428
-0.010700000000000154,-8.638227196975913
-0.011700000000000044,-8.725939297567548
-0.012700000000000156,-8.812236686859313
-0.013700000000000045,-8.899948787450944
-0.014700000000000157,-8.987660888042578
-0.015700000000000047,-9.031516938338395
-0.01670000000000016,-9.073958277334345
-0.01770000000000005,-9.11781432763016
-0.01870000000000016,-9.161670377925978
-0.01970000000000005,-9.24938247851761
-0.020700000000000163,-9.24938247851761
-0.021700000000000053,-9.335679867809377
-0.022700000000000164,-9.423391968401008
-0.023700000000000054,-9.511104068992642
-0.024700000000000166,-9.55496011928846
-0.025700000000000056,-9.641257508580225
-0.026700000000000168,-9.685113558876042
-0.027700000000000058,-9.728969609171857
-0.02870000000000017,-9.772825659467674
-0.02970000000000006,-9.81668170976349
-0.03070000000000017,-9.81668170976349
-0.03170000000000006,-9.85912304875944
-0.03270000000000017,-9.85912304875944
-0.03370000000000006,-9.85912304875944
-0.034700000000000175,-9.85912304875944
-0.035700000000000065,-9.946835149351072
-0.03670000000000018,-9.946835149351072
-0.03770000000000007,-9.946835149351072
-0.03870000000000018,-9.946835149351072
-0.03970000000000007,-9.99069119964689
-0.04070000000000018,-9.99069119964689
-0.04170000000000007,-9.99069119964689
-0.04270000000000018,-9.99069119964689
-0.04370000000000007,-10.034547249942705
-0.044700000000000184,-10.034547249942705
-0.045700000000000074,-10.078403300238522
-0.046700000000000186,-10.120844639234473
-0.047700000000000076,-10.164700689530287
-0.04870000000000019,-10.208556739826104
-0.04970000000000008,-10.25241279012192
-0.05070000000000019,-10.296268840417738
-0.05170000000000008,-10.340124890713554
-0.05270000000000019,-10.382566229709504
-0.05370000000000008,-10.382566229709504
-0.05470000000000019,-10.382566229709504
-0.05570000000000008,-10.382566229709504
-0.056700000000000195,-10.382566229709504
-0.057700000000000085,-10.340124890713554
-0.058700000000000196,-10.340124890713554
-0.059700000000000086,-10.340124890713554
-0.0607000000000002,-10.340124890713554
-0.06170000000000009,-10.340124890713554
-0.0627000000000002,-10.382566229709504
-0.06370000000000009,-10.382566229709504
-0.0647000000000002,-10.382566229709504
-0.06570000000000009,-10.42642228000532
-0.0667000000000002,-10.42642228000532
-0.0677000000000001,-10.42642228000532
-0.0687000000000002,-10.470278330301136
-0.0697000000000001,-10.470278330301136
-0.07070000000000021,-10.514134380596953
-0.0717000000000001,-10.514134380596953
-0.07270000000000021,-10.557990430892769
-0.0737000000000001,-10.557990430892769
-0.07470000000000021,-10.557990430892769
-0.0757000000000001,-10.601846481188586
-0.07670000000000021,-10.601846481188586
-0.0777000000000001,-10.557990430892769
-0.07870000000000021,-10.601846481188586
-0.0797000000000001,-10.557990430892769
-0.08070000000000022,-10.601846481188586
-0.0817000000000001,-10.601846481188586
-0.08270000000000022,-10.601846481188586
-0.08370000000000011,-10.601846481188586
-0.08470000000000022,-10.601846481188586
-0.08570000000000011,-10.601846481188586
-0.08670000000000022,-10.601846481188586
-0.08770000000000011,-10.601846481188586
-0.08870000000000022,-10.601846481188586
-0.08970000000000011,-10.644287820184536
-0.09070000000000022,-10.601846481188586
-0.09170000000000011,-10.601846481188586
-0.09270000000000023,-10.644287820184536
-0.09370000000000012,-10.601846481188586
-0.09470000000000023,-10.601846481188586
-0.09570000000000012,-10.601846481188586
-0.09670000000000023,-10.601846481188586
-0.09770000000000012,-10.601846481188586
-0.09870000000000023,-10.557990430892769
-0.09970000000000012,-10.601846481188586
-0.10070000000000023,-10.601846481188586
-0.10170000000000012,-10.601846481188586
-0.10270000000000024,-10.644287820184536
-0.10370000000000013,-10.688143870480351
-0.10470000000000024,-10.688143870480351
-0.10570000000000013,-10.775855971071984
-0.10670000000000024,-10.819712021367803
-0.10770000000000013,-10.819712021367803
-0.10870000000000024,-10.906009410659568
-0.10970000000000013,-10.949865460955383
-0.11070000000000024,-10.906009410659568
-0.11170000000000013,-10.949865460955383
-0.11270000000000002,-10.949865460955383
-0.11370000000000013,-10.949865460955383
-0.11470000000000002,-10.949865460955383
-0.11570000000000014,-10.949865460955383
-0.11670000000000003,-10.906009410659568
-0.11770000000000014,-10.863568071663616
-0.11870000000000003,-10.906009410659568
-0.11970000000000014,-10.863568071663616
-0.12070000000000003,-10.819712021367803
-0.12170000000000014,-10.775855971071984
-0.12270000000000003,-10.688143870480351
-0.12370000000000014,-10.688143870480351
-0.12470000000000003,-10.644287820184536
-0.12570000000000014,-10.688143870480351
-0.12670000000000003,-10.644287820184536
-0.12770000000000015,-10.688143870480351
-0.12870000000000004,-10.688143870480351
-0.12970000000000015,-10.775855971071984
-0.13070000000000004,-10.819712021367803
-0.13170000000000015,-10.863568071663616
-0.13270000000000004,-10.906009410659568
-0.13370000000000015,-10.993721511251199
-0.13470000000000004,-11.037577561547016
-0.13570000000000015,-11.081433611842833
-0.13670000000000004,-11.081433611842833
-0.13770000000000016,-11.123874950838783
-0.13870000000000005,-11.1677310011346
-0.13970000000000016,-11.1677310011346
-0.14070000000000005,-11.1677310011346
-0.14170000000000016,-11.211587051430415
-0.14270000000000005,-11.211587051430415
-0.14370000000000016,-11.211587051430415
-0.14470000000000005,-11.1677310011346
-0.14570000000000016,-11.1677310011346
-0.14670000000000005,-11.123874950838783
-0.14770000000000016,-11.123874950838783
-0.14870000000000005,-11.081433611842833
-0.14970000000000017,-11.081433611842833
-0.15070000000000006,-11.037577561547016
-0.15170000000000017,-11.037577561547016
-0.15270000000000006,-11.037577561547016
-0.15370000000000017,-11.037577561547016
-0.15470000000000006,-11.037577561547016
-0.15570000000000017,-11.081433611842833
-0.15670000000000006,-11.081433611842833
-0.15770000000000017,-11.081433611842833
-0.15870000000000006,-11.081433611842833
-0.15970000000000018,-11.123874950838783
-0.16070000000000007,-11.123874950838783
-0.16170000000000018,-11.123874950838783
-0.16270000000000007,-11.1677310011346
-0.16370000000000018,-11.1677310011346
-0.16470000000000007,-11.211587051430415
-0.16570000000000018,-11.211587051430415
-0.16670000000000007,-11.255443101726232
-0.16770000000000018,-11.255443101726232
-0.16870000000000007,-11.299299152022046
-0.16970000000000018,-11.299299152022046
-0.17070000000000007,-11.343155202317865
-0.17170000000000019,-11.343155202317865
-0.17270000000000008,-11.343155202317865
-0.1737000000000002,-11.299299152022046
-0.17470000000000008,-11.343155202317865
-0.1757000000000002,-11.343155202317865
-0.17670000000000008,-11.343155202317865
-0.1777000000000002,-11.343155202317865
-0.17870000000000008,-11.343155202317865
-0.1797000000000002,-11.343155202317865
-0.18070000000000008,-11.299299152022046
-0.1817000000000002,-11.299299152022046
-0.18270000000000008,-11.299299152022046
-0.1837000000000002,-11.343155202317865
-0.1847000000000001,-11.343155202317865
-0.1857000000000002,-11.385596541313816
-0.1867000000000001,-11.385596541313816
-0.1877000000000002,-11.385596541313816
-0.1887000000000001,-11.385596541313816
-0.1897000000000002,-11.385596541313816
-0.1907000000000001,-11.385596541313816
-0.1917000000000001,-11.385596541313816
-0.19269999999999998,-11.385596541313816
-0.1937000000000001,-11.42945259160963
-0.19469999999999998,-11.42945259160963
-0.1957000000000001,-11.473308641905447
-0.19669999999999999,-11.517164692201263
-0.1977000000000001,-11.517164692201263
-0.1987,-11.604876792792895
-0.1997000000000001,-11.647318131788847
-0.2007,-11.691174182084664
-0.2017000000000001,-11.73503023238048
-0.2027,-11.73503023238048
-0.2037000000000001,-11.778886282676295
-0.2047,-11.82274233297211
-0.2057000000000001,-11.82274233297211
-0.2067,-11.82274233297211
-0.2077000000000001,-11.82274233297211
-0.2087,-11.82274233297211
-0.2097000000000001,-11.82274233297211
-0.2107,-11.82274233297211
-0.2117000000000001,-11.86659838326793
-0.2127,-11.82274233297211
-0.2137000000000001,-11.86659838326793
-0.2147,-11.82274233297211
-0.2157000000000001,-11.86659838326793
-0.2167,-11.86659838326793
-0.21770000000000012,-11.86659838326793
-0.2187,-11.86659838326793
-0.21970000000000012,-11.909039722263879
-0.2207,-11.909039722263879
-0.22170000000000012,-11.996751822855511
-0.2227,-12.040607873151327
-0.22370000000000012,-12.084463923447142
-0.2247,-12.12831997374296
-0.22570000000000012,-12.170761312738911
-0.2267,-12.214617363034726
-0.22770000000000012,-12.258473413330542
-0.22870000000000001,-12.302329463626359
-0.22970000000000013,-12.346185513922174
-0.23070000000000002,-12.390041564217992
-0.23170000000000013,-12.390041564217992
-0.23270000000000002,-12.432482903213943
-0.23370000000000013,-12.520195003805576
-0.23470000000000002,-12.520195003805576
-0.23570000000000013,-12.56405105410139
-0.23670000000000002,-12.56405105410139
-0.2376999999999999,-12.607907104397206
-0.23870000000000002,-12.651763154693022
-0.2396999999999999,-12.651763154693022
-0.24070000000000003,-12.694204493688973
-0.24169999999999991,-12.694204493688973
-0.24270000000000003,-12.694204493688973
-0.24369999999999992,-12.694204493688973
-0.24470000000000003,-12.694204493688973
-0.24569999999999992,-12.694204493688973
-0.24670000000000003,-12.694204493688973
-0.24769999999999992,-12.694204493688973
-0.24870000000000003,-12.73806054398479
-0.24969999999999992,-12.781916594280606
-0.25070000000000003,-12.781916594280606
-0.2516999999999999,-12.825772644576423
-0.25270000000000004,-12.825772644576423
-0.2536999999999999,-12.825772644576423
-0.25470000000000004,-12.869628694872238
-0.2556999999999999,-12.913484745168056
-0.25670000000000004,-12.955926084164007
-0.25769999999999993,-12.99978213445982
-0.25870000000000004,-13.043638184755638
-0.25969999999999993,-13.13135028534727
-0.26070000000000004,-13.217647674639037
-0.26169999999999993,-13.261503724934855
-0.26270000000000004,-13.349215825526485
-0.26369999999999993,-13.3930718758223
-0.26470000000000005,-13.47936926511407
-0.26569999999999994,-13.567081365705702
-0.26670000000000005,-13.654793466297335
-0.26769999999999994,-13.741090855589102
-0.26870000000000005,-13.784946905884919
-0.26969999999999994,-13.828802956180734
-0.27070000000000005,-13.916515056772363
-0.27169999999999994,-13.916515056772363
-0.27270000000000005,-13.960371107068182
-0.27369999999999994,-14.002812446064135
-0.27470000000000006,-14.046668496359947
-0.27569999999999995,-14.090524546655764
-0.27670000000000006,-14.13438059695158
-0.27769999999999995,-14.175407224647667
-0.27870000000000006,-14.217848563643619
-0.27969999999999995,-14.26028990263957
-0.28070000000000006,-14.26028990263957
-0.28169999999999995,-14.30273124163552
-0.28270000000000006,-14.30273124163552
-0.28369999999999995,-14.345172580631472
-0.28470000000000006,-14.401761032626075
-0.28569999999999995,-14.444202371622024
-0.28670000000000007,-14.486643710617974
-0.28769999999999996,-14.57152638860988
-0.28870000000000007,-14.61396772760583
-0.28969999999999996,-14.741291744593681
-0.29070000000000007,-14.868615761581536
-0.29169999999999996,-14.967645552572087
-0.29270000000000007,-15.137410908555893
-0.29369999999999996,-15.264734925543747
-0.2947000000000001,-15.3920589425316
-0.29569999999999996,-15.533530072518102
-0.2967000000000001,-15.618412750510005
-0.29769999999999996,-15.70329542850191
-0.2987000000000001,-15.78817810649381
-0.29969999999999997,-15.830619445489761
-0.3007000000000001,-15.91550212348166
-0.30169999999999997,-15.972090575476265
-0.3027000000000001,-16.056973253468165
-0.30369999999999997,-16.099414592464115
-0.3047000000000001,-16.184297270456018
-0.30569999999999997,-16.22673860945197
-0.3067000000000001,-16.311621287443874
-0.3077,-16.396503965435777
-0.3087000000000001,-16.495533756426326
-0.3097,-16.53797509542228
-0.3107000000000001,-16.580416434418233
-0.3117,-16.665299112410132
-0.3127000000000001,-16.792623129397985
-0.3137,-16.919947146385837
-0.3147000000000001,-17.061418276372343
-0.3157,-17.146300954364243
-0.3167000000000001,-17.2736249713521
-0.3177,-17.40094898833995
-0.3187000000000001,-17.542420118326454
-0.3197,-17.71218547431026
-0.3207000000000001,-17.797068152302163
-0.3217,-17.966833508285966
-0.3227000000000001,-18.10830463827247
-0.3237,-18.27806999425627
-0.3247000000000001,-18.40539401124413
-0.3257,-18.589306480226583
-0.3267000000000001,-18.674189158218486
-0.3277,-18.843954514202288
-0.3287000000000001,-18.97127853119014
-0.3297,-19.155191000172596
-0.3307000000000001,-19.28251501716045
-0.3317,-19.452280373144255
-0.3327000000000001,-19.537163051136158
-0.3337,-19.678634181122664
-0.3347000000000001,-19.763516859114564
-0.3357,-19.890840876102416
-0.3367000000000001,-20.06060623208622
-0.3377,-20.159636023076775
-0.3387000000000001,-20.286960040064624
-0.3397,-20.456725396048434
-0.3407000000000001,-20.626490752032236
-0.3417,-20.76796188201874
-0.3427000000000001,-20.980168576998494
-0.3437,-21.2065223849769
-0.3447000000000001,-21.376287740960702
-0.3457,-21.58849443594046
-0.3467000000000001,-21.857289582914817
-0.3477,-22.111937616890522
-0.3487000000000001,-22.42317410286083
-0.3497,-22.67782213683654
-0.3507000000000001,-22.904175944814945
-0.3517,-23.1163826397947
-0.3527000000000001,-23.385177786769056
-0.3537,-23.55494314275286
-0.3547000000000001,-23.767149837732617
-0.3557,-23.993503645711023
-0.35670000000000013,-24.16326900169483
-0.3577,-24.34718147067728
-0.35870000000000013,-24.474505487665134
-0.3597,-24.516946826661083
-0.36070000000000013,-24.601829504652986
-0.3617,-24.729153521640843
-0.3626999999999999,-24.870624651627345
-0.3637,-25.0828313466071
-0.3646999999999999,-25.252596702590903
-0.3657,-25.43650917157336
-0.3666999999999999,-25.563833188561212
-0.3677,-25.73359854454502
-0.3686999999999999,-26.002393691519377
-0.36970000000000003,-26.29948306449103
-0.3706999999999999,-26.61071955046134
-0.37170000000000003,-26.907808923433
-0.3726999999999999,-27.134162731411404
-0.37370000000000003,-27.34636942639116
-0.3746999999999999,-27.572723234369565
-0.37570000000000003,-27.827371268345274
-0.3766999999999999,-28.09616641531963
-0.37770000000000004,-28.393255788291288
-0.3786999999999999,-28.704492274261593
-0.37970000000000004,-29.001581647233255
-0.3806999999999999,-29.35525947219951
-0.38170000000000004,-29.66649595816982
-0.38269999999999993,-30.00602667013743
-0.38370000000000004,-30.317263156107735
-0.38469999999999993,-30.71338232006995
-0.38570000000000004,-31.052913032037555
-0.38669999999999993,-31.36414951800786
-0.38770000000000004,-31.618797551983565
-0.38869999999999993,-31.84515135996197
-0.38970000000000005,-32.05735805494172
-0.39069999999999994,-32.32615320191609
-0.39170000000000005,-32.58080123589179
-0.39269999999999994,-32.84959638286615
-0.39370000000000005,-33.06180307784591
-0.39469999999999994,-33.231568433829715
-0.39570000000000005,-33.45792224180811
-0.39669999999999994,-33.627687597791926
-0.39770000000000005,-33.85404140577033
-0.39869999999999994,-34.15113077874198
-0.39970000000000006,-34.462367264712285
-0.40069999999999995,-34.85848642867451
-0.40170000000000006,-35.240458479638065
-0.40269999999999995,-35.721460321592176
-0.40370000000000006,-36.20246216354629
-0.40469999999999995,-36.6834640055004
-0.40570000000000006,-37.164465847454515
-0.40669999999999995,-37.56058501141672
-0.40770000000000006,-38.04158685337084
-0.40869999999999995,-38.46600024333035
-0.40970000000000006,-38.94700208528445
-0.41069999999999995,-39.42800392723857
-0.41170000000000007,-39.86656443019674
-0.41269999999999996,-40.30512493315489
-0.41370000000000007,-40.743685436113054
-0.41469999999999996,-41.139804600075266
-0.41570000000000007,-41.52177665103883
-0.41669999999999996,-41.87545447600508
-0.41770000000000007,-42.229132300971344
-0.41869999999999996,-42.526221673943
-0.4197000000000001,-42.87989949890926
-0.42069999999999996,-43.17698887188092
-0.4217000000000001,-43.53066669684718
-0.42269999999999996,-43.92678586080939
-0.4237000000000001,-44.3229050247716
-0.42469999999999997,-44.619994397743255
-0.4257000000000001,-44.93123088371356
-0.42669999999999997,-45.22832025668522
-0.4277000000000001,-45.53955674265553
-0.42869999999999997,-45.93567590661774
-0.4297000000000001,-46.37423640957591
-0.43069999999999997,-46.88353247752732
-0.4317000000000001,-47.46356411047198
-0.4327,-48.029448630417996
-0.4337000000000001,-48.68021582835591
-0.4347,-49.33098302629383
-0.4357000000000001,-49.98175022423175
-0.4367,-50.68910587416426
-0.4377000000000001,-51.424755750094086
-0.4387,-52.11796428702795
-0.4397000000000001,-52.78287859796452
-0.4407,-53.39120445690648
-0.4417000000000001,-53.999530315848446
-0.4427,-54.480532157802564
-0.4437000000000001,-54.961533999756675
-0.4447,-55.357653163718886
-0.4457000000000001,-55.73962521468245
-0.4467,-56.1781857176406
-0.4477000000000001,-56.57430488160282
-0.4487,-56.927982706569075
-0.4497000000000001,-57.26751341853669
-0.4507,-57.57874990450699
-0.4517000000000001,-57.87583927747865
-0.4527,-58.14463442445301
-0.4537000000000001,-58.54075358841522
-0.4547,-58.97931409137338
-0.4557000000000001,-59.44616882032884
-0.4567,-59.9696120012789
-0.4577000000000001,-60.54964363422357
-0.4587,-61.15796949316553
-0.4597000000000001,-61.80873669110345
-0.4607,-62.544386567033264
-0.4617000000000001,-63.3366248949577
-0.4627,-64.19959878787537
-0.4637000000000001,-65.0767197937917
-0.4647,-65.91139946071206
-0.4657000000000001,-66.64704933664189
-0.4667,-67.2978165345798
-0.4677000000000001,-67.9202895065204
-0.4687,-68.52861536546239
-0.4697000000000001,-69.1793825634003
-0.4707,-69.87259110033416
-0.4717000000000001,-70.62238808926263
-0.4727,-71.18827260920865
-0.4737000000000001,-71.7117157901587
-0.4747,-72.19271763211282
-0.4757000000000001,-72.67371947406694
-0.4767,-73.23960399401295
-0.4777000000000001,-73.76304717496302
-0.4787,-74.45625571189689
-0.4797000000000001,-75.06458157083884
-0.4807,-75.6729074297808
-0.48170000000000013,-76.29538040172143
-0.4827,-76.9037062606634
-0.48370000000000013,-77.55447345860131
-0.4847,-78.24768199553519
-0.48570000000000013,-78.9550376454677
-0.4867,-78.99747898446365
-0.48570000000000013,-77.86570994457162
-0.4847,-76.86126492166746
-0.48370000000000013,-75.8992612377592
-0.4827,-75.06458157083884
-0.48170000000000013,-74.28649035591307
-0.4807,-73.57913470598055
-0.4797000000000001,-72.97080884703858
-0.4787,-72.40492432709259
-0.4777000000000001,-71.83903980714656
-0.4767,-71.27315528720055
-0.4757000000000001,-70.66482942825859
-0.4747,-70.05650356931662
-0.4737000000000001,-69.39158925838004
-0.4727,-68.78326339943808
-0.4717000000000001,-68.13249620150016
-0.4707,-67.48172900356225
-0.4697000000000001,-66.87340314462028
-0.4687,-66.34995996367022
-0.4677000000000001,-65.76992833072556
-0.4667,-65.3030736017701
-0.4657000000000001,-64.77963042082003
