Potential V vs RHE, Current mA cm-2
0.013299999999999867,1.219056727093702
0.012299999999999978,-0.5692798270656908
0.011299999999999866,-2.1828995356917518
0.010299999999999976,-3.623075638954359
0.009299999999999864,-5.017980980621284
0.008299999999999974,-6.282732882700628
0.007299999999999862,-7.50504344578402
0.006299999999999972,-8.638227196975913
0.00529999999999986,-9.728969609171857
0.0042999999999999705,-10.775855971071984
0.0032999999999998586,-11.778886282676295
0.0022999999999999687,-12.73806054398479
0.0012999999999998568,-13.654793466297335
0.00029999999999996696,-14.529085049613924
-0.000700000000000145,-15.349617603535648
-0.0017000000000000348,-16.141855931460068
-0.0027000000000001467,-16.877505807389888
-0.0037000000000000366,-17.584861457322408
-0.0047000000000001485,-18.23562865526032
-0.005700000000000038,-18.88639585319824
-0.00670000000000015,-19.537163051136158
-0.00770000000000004,-20.159636023076775
-0.008700000000000152,-20.810403221014692
-0.009700000000000042,-21.418729079956652
-0.010700000000000154,-21.98461359990267
-0.011700000000000044,-22.63538079784059
-0.012700000000000156,-23.2012653177866
-0.013700000000000045,-23.767149837732617
-0.014700000000000157,-24.290593018682678
-0.015700000000000047,-24.771594860636792
-0.01670000000000016,-25.252596702590903
-0.01770000000000005,-25.73359854454502
-0.01870000000000016,-26.17215904750318
-0.01970000000000005,-26.61071955046134
-0.020700000000000163,-27.091721392415455
-0.021700000000000053,-27.65760591236147
-0.022700000000000164,-28.18104909331153
-0.023700000000000054,-28.746933613257543
-0.024700000000000166,-29.27037679420761
-0.025700000000000056,-29.793819975157668
-0.026700000000000168,-30.274821817111786
-0.027700000000000058,-30.7558236590659
-0.02870000000000017,-31.137795710029454
-0.02970000000000006,-31.533914873991666
-0.03070000000000017,-31.930034037953877
-0.03170000000000006,-32.32615320191609
-0.03270000000000017,-32.764713704874254
-0.03370000000000006,-33.231568433829715
-0.034700000000000175,-33.712570275783825
-0.035700000000000065,-34.236013456733886
-0.03670000000000018,-34.717015298688004
-0.03770000000000007,-35.198017140642115
-0.03870000000000018,-35.721460321592176
-0.03970000000000007,-36.16002082455034
-0.04070000000000018,-36.64102266650445
-0.04170000000000007,-37.122024508458566
-0.04270000000000018,-37.56058501141672
-0.04370000000000007,-37.90011572338433
-0.044700000000000184,-38.29623488734655
-0.045700000000000074,-38.692354051308754
-0.046700000000000186,-39.258238571254765
-0.047700000000000076,-39.82412309120078
-0.04870000000000019,-40.43244895014274
-0.04970000000000008,-41.04077480908471
-0.05070000000000019,-41.606659329030734
-0.05170000000000008,-42.087661170984845
-0.05270000000000019,-42.526221673943
-0.05370000000000008,-43.007223515897124
-0.05470000000000019,-43.40334267985933
-0.05570000000000008,-43.88434452181344
-0.056700000000000195,-44.36534636376755
-0.057700000000000085,-44.84634820572166
-0.058700000000000196,-45.32735004767578
-0.059700000000000086,-45.85079322862584
-0.0607000000000002,-46.37423640957591
-0.06170000000000009,-46.88353247752732
-0.0627000000000002,-47.46356411047198
-0.06370000000000009,-47.987007291422046
-0.0647000000000002,-48.55289181136806
-0.06570000000000009,-49.03389365332217
-0.0667000000000002,-49.557336834272235
-0.0677000000000001,-50.0807800152223
-0.0687000000000002,-50.547634744177756
-0.0697000000000001,-51.071077925127824
-0.07070000000000021,-51.594521106077885
-0.0717000000000001,-52.075522948032
-0.07270000000000021,-52.59896612898206
-0.0737000000000001,-53.12240930993213
-0.07470000000000021,-53.603411151886235
-0.0757000000000001,-54.2117370108282
-0.07670000000000021,-54.73518019177827
-0.0777000000000001,-55.31521182472294
-0.07870000000000021,-55.9235376836649
-0.0797000000000001,-56.489422203610914
-0.08070000000000022,-57.05530672355693
-0.0817000000000001,-57.57874990450699
-0.08270000000000022,-58.14463442445301
-0.08370000000000011,-58.66807760540307
-0.08470000000000022,-59.19152078635314
-0.08570000000000011,-59.7149639673032
-0.08670000000000022,-60.23840714825326
-0.08770000000000011,-60.71940899020737
-0.08870000000000022,-61.28529351015339
-0.08970000000000011,-61.80873669110345
-0.09070000000000022,-62.33217987205352
-0.09170000000000011,-62.89806439199953
-0.09270000000000023,-63.46394891194555
-0.09370000000000012,-64.02983343189156
-0.09470000000000023,-64.55327661284163
-0.09570000000000012,-65.0767197937917
-0.09670000000000023,-65.64260431373769
-0.09770000000000012,-66.20848883368372
-0.09870000000000023,-66.68949067563783
-0.09970000000000012,-67.21293385658788
-0.10070000000000023,-67.73637703753796
-0.10170000000000012,-68.30226155748396
-0.10270000000000024,-68.78326339943808
-0.10370000000000013,-69.30670658038814
-0.10470000000000024,-69.8301497613382
-0.10570000000000013,-70.35359294228827
-0.10670000000000024,-70.8345947842424
-0.10770000000000013,-71.31559662619651
-0.10870000000000024,-71.7965984681506
-0.10970000000000013,-72.19271763211282
-0.11070000000000024,-72.67371947406694
-0.11170000000000013,-73.09813286402644
-0.11270000000000002,-73.53669336698461
-0.11370000000000013,-74.06013654793468
-0.11470000000000002,-74.54113838988879
-0.11570000000000014,-75.06458157083884
-0.11670000000000003,-75.5880247517889
-0.11770000000000014,-76.15390927173492
-0.11870000000000003,-76.71979379168094
-0.11970000000000014,-77.243236972631
-0.12070000000000003,-77.80912149257702
-0.12170000000000014,-78.29012333453113
-0.12270000000000003,-78.8135665154812
-0.12370000000000014,-79.2945683574353
-0.12470000000000003,-79.7755701993894
-0.12570000000000014,-80.21413070234757
-0.12670000000000003,-80.69513254430169
-0.12770000000000015,-81.13369304725985
-0.12870000000000004,-81.65713622820991
-0.12970000000000015,-82.09569673116808
-0.13070000000000004,-82.61913991211814
-0.13170000000000015,-83.08599464107361
-0.13270000000000004,-83.60943782202366
-0.13370000000000015,-84.09043966397778
-0.13470000000000004,-84.48655882793999
-0.13570000000000015,-84.96756066989411
-0.13670000000000004,-85.44856251184822
-0.13770000000000016,-85.88712301480638
-0.13870000000000005,-86.36812485676049
-0.13970000000000016,-86.80668535971866
-0.14070000000000005,-87.18865741068221
-0.14170000000000016,-87.58477657464444
-0.14270000000000005,-88.02333707760259
-0.14370000000000016,-88.4194562415648
-0.14470000000000005,-88.9004580835189
-0.14570000000000016,-89.32487147347842
-0.14670000000000005,-89.76343197643658
-0.14770000000000016,-90.11710980140283
-0.14870000000000005,-90.41419917437449
-0.14970000000000017,-90.7254356603448
-0.15070000000000006,-91.07911348531105
-0.15170000000000017,-91.41864419727867
-0.15270000000000006,-91.77232202224494
-0.15370000000000017,-92.16844118620713
-0.15470000000000006,-92.6070016891653
-0.15570000000000017,-92.98897374012887
-0.15670000000000006,-93.38509290409107
-0.15770000000000017,-93.82365340704924
-0.15870000000000006,-94.26221391000739
-0.15970000000000018,-94.70077441296557
-0.16070000000000007,-95.18177625491967
-0.16170000000000018,-95.56374830588322
-0.16270000000000007,-96.00230880884139
-0.16370000000000018,-96.4833106507955
-0.16470000000000007,-96.96431249274961
-0.16570000000000018,-97.44531433470372
-0.16670000000000007,-97.92631617665783
-0.16770000000000018,-98.40731801861195
-0.16870000000000007,-98.7892900695755
-0.16970000000000018,-99.18540923353773
-0.17070000000000007,-99.53908705850398
-0.17170000000000019,-99.93520622246619
-0.17270000000000008,-100.31717827342976
-0.1737000000000002,-100.79818011538387
-0.17470000000000008,-101.23674061834203
-0.1757000000000002,-101.59041844330828
-0.17670000000000008,-101.97239049427183
-0.1777000000000002,-102.28362698024215
-0.17870000000000008,-102.63730480520842
-0.1797000000000002,-102.93439417818009
-0.18070000000000008,-103.28807200314633
-0.1817000000000002,-103.64174982811258
-0.18270000000000008,-103.93883920108425
-0.1837000000000002,-104.25007568705455
-0.1847000000000001,-104.64619485101677
-0.1857000000000002,-104.98572556298437
-0.1867000000000001,-105.38184472694657
-0.1877000000000002,-105.7779638909088
-0.1887000000000001,-106.11749460287639
-0.1897000000000002,-106.4287310888467
-0.1907000000000001,-106.73996757481702
-0.1917000000000001,-107.03705694778867
-0.19269999999999998,-107.39073477275493
-0.1937000000000001,-107.8292952757131
-0.19469999999999998,-108.21126732667666
-0.1957000000000001,-108.64982782963483
-0.19669999999999999,-109.00350565460108
-0.1977000000000001,-109.30059502757274
-0.1987,-109.654272852539
-0.1997000000000001,-110.00795067750525
-0.2007,-110.40406984146746
-0.2017000000000001,-110.82848323142699
-0.2027,-111.22460239538917
-0.2037000000000001,-111.6207215593514
-0.2047,-111.96025227131899
-0.2057000000000001,-112.31393009628526
-0.2067,-112.62516658225556
-0.2077000000000001,-112.96469729422319
-0.2087,-113.31837511918944
-0.2097000000000001,-113.67205294415571
-0.2107,-114.0115836561233
-0.2117000000000001,-114.3228201420936
-0.2127,-114.63405662806393
-0.2137000000000001,-114.88870466203963
-0.2147,-115.19994114800993
-0.2157000000000001,-115.53947185997755
-0.2167,-115.8931496849438
-0.21770000000000012,-116.20438617091412
-0.2187,-116.45903420488982
-0.21970000000000012,-116.77027069086012
-0.2207,-117.10980140282774
-0.22170000000000012,-117.46347922779398
-0.2227,-117.90203973075215
-0.22370000000000012,-118.29815889471436
-0.2247,-118.68013094567793
-0.22570000000000012,-119.03380877064419
-0.2267,-119.3450452566145
-0.22770000000000012,-119.64213462958614
-0.22870000000000001,-119.99581245455242
-0.22970000000000013,-120.29290182752408
-0.23070000000000002,-120.64657965249035
-0.23170000000000013,-120.9153747994647
-0.23270000000000002,-121.17002283344038
-0.23370000000000013,-121.38222952842017
-0.23470000000000002,-121.60858333639854
-0.23570000000000013,-121.82079003137831
-0.23670000000000002,-122.08958517835266
-0.2376999999999999,-122.34423321232836
-0.23870000000000002,-122.61302835930273
-0.2396999999999999,-122.82523505428249
-0.24070000000000003,-123.1364715402528
-0.24169999999999991,-123.34867823523254
-0.24270000000000003,-123.6174733822069
-0.24369999999999992,-123.82968007718667
-0.24470000000000003,-124.05603388516508
-0.24569999999999992,-124.26824058014482
-0.24670000000000003,-124.48044727512458
-0.24769999999999992,-124.66435974410705
-0.24870000000000003,-124.87656643908679
-0.24969999999999992,-125.04633179507057
-0.25070000000000003,-125.23024426405304
-0.2516999999999999,-125.40000962003687
-0.25270000000000004,-125.56977497602065
-0.2536999999999999,-125.7536874450031
-0.25470000000000004,-125.88101146199097
-0.2556999999999999,-126.09321815697072
-0.25670000000000004,-126.3195719649491
-0.25769999999999993,-126.48933732093293
-0.25870000000000004,-126.71569112891132
-0.25969999999999993,-126.88545648489513
-0.26070000000000004,-127.012780501883
-0.26169999999999993,-127.14010451887084
-0.26270000000000004,-127.28157564885734
-0.26369999999999993,-127.4088996658452
-0.26470000000000005,-127.57866502182902
-0.26569999999999994,-127.76257749081147
-0.26670000000000005,-127.93234284679528
-0.26769999999999994,-128.05966686378312
-0.26870000000000005,-128.144549541775
-0.26969999999999994,-128.2294322197669
-0.27070000000000005,-128.2294322197669
-0.27169999999999994,-128.18699088077096
-0.27270000000000005,-128.2294322197669
-0.27369999999999994,-128.2294322197669
-0.27470000000000006,-128.2294322197669
-0.27569999999999995,-128.28602067176152
-0.27670000000000006,-128.32846201075745
-0.27769999999999995,-128.41334468874936
-0.27870000000000006,-128.45578602774532
-0.27969999999999995,-128.4982273667413
-0.28070000000000006,-128.45578602774532
-0.28169999999999995,-128.37090334975343
-0.28270000000000006,-128.18699088077096
-0.28369999999999995,-128.05966686378312
-0.28470000000000006,-127.84746016880335
-0.28569999999999995,-127.76257749081147
-0.28670000000000007,-127.62110636082497
-0.28769999999999996,-127.4937823438371
-0.28870000000000007,-127.36645832684925
-0.28969999999999996,-127.23913430986138
-0.29070000000000007,-127.09766317987489
-0.29169999999999996,-127.012780501883
-0.29270000000000007,-126.9278978238911
-0.29369999999999996,-126.88545648489513
-0.2947000000000001,-126.75813246790726
-0.29569999999999996,-126.6732497899154
-0.2967000000000001,-126.5317786599289
-0.29769999999999996,-126.36201330394509
-0.2987000000000001,-126.14980660896532
-0.29969999999999997,-126.00833547897882
-0.3007000000000001,-125.79612878399907
-0.30169999999999997,-125.56977497602065
-0.3027000000000001,-125.35756828104091
-0.30369999999999997,-125.10292024706521
-0.3047000000000001,-124.91900777808273
-0.30569999999999997,-124.70680108310299
-0.3067000000000001,-124.48044727512458
-0.3077,-124.26824058014482
-0.3087000000000001,-123.99944543317046
-0.3097,-123.70235606019881
-0.3107000000000001,-123.39111957422851
-0.3117,-123.00914752326493
-0.3127000000000001,-122.65546969829869
-0.3137,-122.34423321232836
-0.3147000000000001,-122.0471438393567
-0.3157,-121.77834869238235
-0.3167000000000001,-121.43881798041474
-0.3177,-121.04269881645253
-0.3187000000000001,-120.68902099148629
-0.3197,-120.29290182752408
-0.3207000000000001,-119.95337111555646
-0.3217,-119.51481061259831
-0.3227000000000001,-119.03380877064419
-0.3237,-118.51036558969413
-0.3247000000000001,-117.98692240874406
-0.3257,-117.50592056678994
-0.3267000000000001,-117.02491872483584
-0.3277,-116.58635822187767
-0.3287000000000001,-116.24682750991008
-0.3297,-115.93559102393975
-0.3307000000000001,-115.62435453796945
-0.3317,-115.32726516499778
-0.3327000000000001,-115.01602867902749
-0.3337,-114.71893930605583
-0.3347000000000001,-114.36526148108955
-0.3357,-113.96914231712736
-0.3367000000000001,-113.58717026616378
-0.3377,-113.14860976320564
-0.3387000000000001,-112.66760792125153
-0.3397,-112.22904741829338
-0.3407000000000001,-111.74804557633925
-0.3417,-111.35192641237703
-0.3427000000000001,-110.96995436141347
-0.3437,-110.57383519745127
-0.3447000000000001,-110.1352746944931
-0.3457,-109.73915553053091
-0.3467000000000001,-109.30059502757274
-0.3477,-109.00350565460108
-0.3487000000000001,-108.64982782963483
-0.3497,-108.35273845666316
-0.3507000000000001,-108.0839433096888
-0.3517,-107.68782414572658
-0.3527000000000001,-107.4331761117509
-0.3537,-107.12193962578058
-0.3547000000000001,-106.82485025280893
-0.3557,-106.51361376683862
-0.35670000000000013,-106.21652439386696
-0.3577,-105.90528790789664
-0.35870000000000013,-105.63649276092228
-0.3597,-105.29696204895468
-0.36070000000000013,-104.98572556298437
-0.3617,-104.73107752900866
-0.3626999999999999,-104.46228238203432
-0.3637,-104.2076343480586
-0.3646999999999999,-103.89639786208829
-0.3657,-103.64174982811258
-0.3666999999999999,-103.37295468113824
-0.3677,-103.11830664716253
-0.3686999999999999,-102.93439417818009
-0.36970000000000003,-102.80707016119221
-0.3706999999999999,-102.63730480520842
-0.37170000000000003,-102.5524221272165
-0.3726999999999999,-102.36850965823406
-0.37370000000000003,-102.24118564124619
-0.3746999999999999,-102.02897894626645
-0.37570000000000003,-101.80262513828804
-0.3766999999999999,-101.63285978230424
-0.37770000000000004,-101.40650597432582
-0.3786999999999999,-101.15185794035013
-0.37970000000000004,-100.98209258436633
-0.3806999999999999,-100.71329743739196
-0.38170000000000004,-100.58597342040412
-0.38269999999999993,-100.45864940341626
-0.38370000000000004,-100.35961961242569
-0.38469999999999993,-100.31717827342976
-0.38570000000000004,-100.2747369344338
-0.38669999999999993,-98.7892900695755
-0.38570000000000004,-94.95542244694126
-0.38469999999999993,-91.33376151928677
-0.38370000000000004,-87.93845439961068
-0.38269999999999993,-84.7129126359184
-0.38170000000000004,-81.65713622820991
-0.3806999999999999,-78.72868383748929
-0.37970000000000004,-75.94170257675518
-0.3786999999999999,-73.2820453330089
-0.37770000000000004,-70.79215344524643
-0.3766999999999999,-68.30226155748396
-0.37570000000000003,-65.99628213870396
-0.3746999999999999,-63.732744058919906
-0.37370000000000003,-61.63897133511965
-0.3726999999999999,-59.502757272323436
-0.37170000000000003,-57.493867226515086
-0.3706999999999999,-55.527418519702685
-0.36970000000000003,-53.603411151886235
-0.3686999999999999,-51.77843357506035
-0.3677,-49.939308885235796
-0.3666999999999999,-48.156772647405845
-0.3657,-46.45911908756781
-0.3646999999999999,-44.74731841473111
-0.3637,-43.134547532884966
-0.3626999999999999,-41.606659329030734
-0.3617,-40.092918238175145
-0.36070000000000013,-38.6499127123128
-0.3597,-37.206907186450465
-0.35870000000000013,-35.721460321592176
-0.3577,-34.278454795729836
-0.35670000000000013,-32.84959638286615
-0.3557,-31.449032195999767
-0.3547000000000001,-30.147497800123933
-0.3537,-28.91669896924135
-0.3527000000000001,-27.700047251357418
-0.3517,-26.568278211465387
-0.3507000000000001,-25.43650917157336
-0.3497,-24.389622809673234
-0.3487000000000001,-23.300295108777156
-0.3477,-22.15437895588647
-0.3467000000000001,-21.107492593986347
-0.3457,-20.06060623208622
-0.3447000000000001,-19.01371987018609
-0.3437,-17.966833508285966
-0.3427000000000001,-16.919947146385837
-0.3417,-15.91550212348166
-0.3407000000000001,-14.967645552572087
-0.3397,-14.002812446064135
-0.3387000000000001,-13.13135028534727
-0.3377,-12.214617363034726
-0.3367000000000001,-11.343155202317865
-0.3357,-10.557990430892769
-0.3347000000000001,-9.728969609171857
-0.3337,-8.899948787450944
-0.3327000000000001,-8.11478401602585
-0.3317,-7.28576319430494
-0.3307000000000001,-6.500598422879844
-0.3297,-5.672992312458796
-0.3287000000000001,-4.887827541033701
-0.3277,-4.102662769608606
-0.3267000000000001,-3.361354048479327
-0.3257,-2.618630616050183
-0.3247000000000001,-1.92117794521672
-0.3237,-1.2234423321232837
-0.3227000000000001,-0.5692798270656908
-0.3217,0.08502414912188871
-0.3207000000000001,0.7393281253094681
-0.3197,1.349917522331218
-0.3187000000000001,2.048501962204573
-0.3177,2.6143864821505876
-0.3167000000000001,3.313253864283916
-0.3157,3.922994434525747
-0.3147000000000001,4.578005766363259
-0.3137,5.145304997609139
-0.3127000000000001,5.75504556785097
-0.3117,6.278488748801033
-0.3107000000000001,6.845787980046913
-0.3097,7.369231160996977
-0.3087000000000001,7.936530392242855
-0.3077,8.459973573192919
-0.3067000000000001,8.939560703847167
-0.30569999999999997,9.463003884797232
-0.3047000000000001,9.986447065747294
-0.30369999999999997,10.509890246697358
-0.3027000000000001,11.033333427647422
-0.30169999999999997,11.556776608597485
-0.3007000000000001,12.080219789547549
-0.29969999999999997,12.559806920201796
-0.2987000000000001,12.995538000560227
-0.29769999999999996,13.475125131214474
-0.2967000000000001,13.868414872576954
-0.29569999999999996,14.30273124163552
-0.2947000000000001,14.741291744593681
-0.29369999999999996,15.137410908555893
-0.29270000000000007,15.575971411514052
-0.29169999999999996,16.000384801473565
-0.29070000000000007,16.396503965435777
-0.28969999999999996,16.835064468393938
-0.28870000000000007,17.316066310348052
-0.28769999999999996,17.71218547431026
-0.28670000000000007,18.13659886426977
-0.28569999999999995,18.49027668923603
-0.28470000000000006,18.88639585319824
-0.28369999999999995,19.28251501716045
-0.28270000000000006,19.622045729128057
-0.28169999999999995,19.97572355409432
-0.28070000000000006,20.329401379060574
-0.27969999999999995,20.668932091028186
-0.27870000000000006,21.022609915994444
-0.27769999999999995,21.376287740960702
-0.27670000000000006,21.758259791924264
-0.27569999999999995,22.15437895588647
-0.27470000000000006,22.550498119848687
-0.27369999999999994,22.890028831816295
-0.27270000000000005,23.24370665678255
-0.27169999999999994,23.55494314275286
-0.27070000000000005,23.894473854720466
-0.26969999999999994,24.20571034069078
-0.26870000000000005,24.516946826661083
-0.26769999999999994,24.771594860636792
-0.26670000000000005,25.12527268560305
