Potential V vs RHE, Current mA cm-2
0.4132999999999999,0.0067778818376533915
0.4122999999999999,0.005019395691921149
0.4112999999999999,0.00446341415107419
0.4102999999999999,0.004129542284306042
0.4092999999999999,0.003925823857125477
0.4082999999999999,0.0037178612960453166
0.4072999999999999,0.0035240458479638063
0.4062999999999999,0.0033118391529840512
0.4052999999999999,0.0031038765919038903
0.4042999999999999,0.0029553319054180615
0.4032999999999999,0.002825178465830478
0.4022999999999999,0.0026723896454450544
0.4012999999999999,0.002467256506964624
0.4002999999999999,0.002321541243078525
0.3992999999999999,0.0021786554017921567
0.3982999999999999,0.002047087250904708
0.3972999999999999,0.0019353250582153704
0.3962999999999999,0.0017768773926304863
0.3952999999999999,0.001625503283544927
0.3942999999999999,0.0015293029151541046
0.39329999999999987,0.001423199567664227
0.39229999999999987,0.001310871490454943
0.39129999999999987,0.0011504432290502479
0.39029999999999987,0.0010359930848911664
0.38929999999999987,0.0009479980420395612
0.38829999999999987,0.0008418946945496833
0.38729999999999987,0.0007428649035591307
0.38629999999999987,0.0005977155241929779
0.38529999999999986,0.0004650156042656376
0.38429999999999986,0.0003743326099442887
0.38329999999999986,0.00028775227839254844
0.38229999999999986,0.00019013719870186093
0.38129999999999986,6.867008649544888e-05
0.38029999999999986,-5.9743258193300494e-05
0.37929999999999986,-0.00013091738368951048
0.37829999999999986,-0.00020909433012005242
0.37729999999999986,-0.0003290618483486076
0.37629999999999986,-0.0004184716025000779
0.37529999999999986,-0.0005426832546282281
0.37429999999999986,-0.0005914907944735719
0.37329999999999985,-0.000673826992125717
0.37229999999999985,-0.0007756862057159997
0.37129999999999985,-0.0008817895532058774
0.37029999999999985,-0.0009962396973649589
0.36929999999999985,-0.0010590528790789663
0.36829999999999985,-0.0011121045528239052
0.36729999999999985,-0.0012251399856831218
0.36629999999999985,-0.001324311247803661
0.36529999999999985,-0.0014175407224647667
0.36429999999999985,-0.0014727144631595033
0.36329999999999985,-0.0015293029151541046
0.36229999999999984,-0.0016141855931460067
0.36129999999999984,-0.001734436053634535
0.36029999999999984,-0.0018263922881257626
0.35929999999999984,-0.001885810162720094
0.35829999999999984,-0.0019296662130159098
0.35729999999999984,-0.002014548891007812
0.35629999999999984,-0.0021489464644949908
0.35529999999999984,-0.0022309997198871625
0.35429999999999984,-0.0022706116362833837
0.35329999999999984,-0.0023342736447773105
0.35229999999999984,-0.0024177416114693475
0.35129999999999983,-0.00251111255726044
0.35029999999999983,-0.0026030687917516677
0.34929999999999983,-0.0026455101307476182
0.34829999999999983,-0.002723319252240196
0.34729999999999983,-0.0027898106833338524
0.34629999999999983,-0.002894499319523865
0.34529999999999983,-0.0029822114201154973
0.34429999999999983,-0.0030090909348129326
0.3432999999999998,-0.0030784117885063193
0.3422999999999998,-0.003127926684001596
0.3412999999999998,-0.003242518299290664
0.3402999999999998,-0.003334474533781891
0.3392999999999998,-0.003359939337179462
0.3382999999999998,-0.0034250160569732537
0.3372999999999998,-0.00348867806546718
0.3362999999999998,-0.0035990255468566533
0.3352999999999998,-0.0036952259152474754
0.3342999999999998,-0.003723520141244776
0.3332999999999998,-0.0037758644593397827
0.3322999999999998,-0.0038649912712312804
0.3312999999999998,-0.003949873949223182
0.3302999999999998,-0.00399938884471846
0.3292999999999998,-0.00406446556451225
0.3282999999999998,-0.004108321614808067
0.3272999999999998,-0.004191789581500104
0.3262999999999998,-0.004293648795090386
0.3252999999999999,-0.004377116761782424
0.3242999999999999,-0.004406825699079589
0.3232999999999999,-0.004419558100778375
0.3222999999999999,-0.004511514335269602
0.3212999999999999,-0.00461761768275948
0.3202999999999999,-0.004668547289554621
0.3192999999999999,-0.004701085649451517
0.3182999999999999,-0.0047520152562466585
0.3172999999999999,-0.004810018419541124
0.3162999999999999,-0.0049189511896307325
0.3152999999999999,-0.004978369064225064
0.3142999999999999,-0.005009492712822095
0.3132999999999999,-0.005059007608317371
0.3122999999999999,-0.005112766637712243
0.3112999999999999,-0.0052146258513025255
0.3102999999999999,-0.005264140746797801
0.3092999999999999,-0.005309411508393483
0.3082999999999999,-0.005357511692588894
0.3072999999999999,-0.00541834427848309
0.3062999999999999,-0.005524447625972969
0.3052999999999999,-0.0055838655005673
0.3042999999999999,-0.005616403860464196
0.3032999999999999,-0.005658845199460146
0.3022999999999999,-0.005721092496654209
0.3012999999999999,-0.005810219308545706
0.3002999999999999,-0.005879540162239092
0.2992999999999999,-0.005917737367335449
0.2982999999999999,-0.005954519861131939
0.2972999999999999,-0.006013937735726271
0.2962999999999999,-0.006091746857218848
0.2952999999999999,-0.00617662953521075
0.2942999999999999,-0.0061822883804102105
0.2932999999999999,-0.006217656162906836
0.2922999999999999,-0.006295465284399413
0.2912999999999999,-0.0063647861380928
0.2902999999999999,-0.006424204012687132
0.2892999999999999,-0.0064609865064836226
0.2882999999999999,-0.006468060062982948
0.2872999999999999,-0.00655011331837512
0.2862999999999999,-0.006625093017267966
0.2852999999999999,-0.006684510891862298
0.2842999999999999,-0.006721293385658789
0.2832999999999999,-0.00675807587945528
0.2822999999999999,-0.006813249620150017
0.2812999999999999,-0.006899547009441784
0.2802999999999999,-0.00695472075013652
0.2792999999999999,-0.0069915032439330106
0.2782999999999999,-0.007007065068231527
0.2772999999999999,-0.007087703612323834
0.2762999999999999,-0.007186733403314387
0.2752999999999999,-0.007210783495412092
0.2742999999999999,-0.007241907144009123
0.2732999999999999,-0.007282933771705209
0.2722999999999999,-0.007314057420302239
0.2712999999999999,-0.007442796148589959
0.2702999999999999,-0.007495140466684964
0.2692999999999999,-0.007495140466684964
0.26829999999999987,-0.007546070073480107
0.26729999999999987,-0.007582852567276597
0.26629999999999987,-0.007686126492166745
0.26529999999999987,-0.007739885521561615
0.26429999999999987,-0.007748373789360804
0.26329999999999987,-0.007800718107455813
0.26229999999999987,-0.007834671178652573
0.26129999999999987,-0.007939359814842588
0.26029999999999986,-0.007983215865138404
0.25929999999999986,-0.008007265957236108
0.25829999999999986,-0.0080723426770299
0.25729999999999986,-0.00811478401602585
0.25629999999999986,-0.008178446024519778
0.25529999999999986,-0.00824069332171384
0.25429999999999986,-0.008250596300812893
0.25329999999999986,-0.00828313466070979
0.25229999999999986,-0.008349626091803447
0.25129999999999986,-0.008433094058495483
0.25029999999999986,-0.008472705974891704
0.24929999999999986,-0.008498170778289274
0.24829999999999985,-0.008532123849486036
0.24729999999999985,-0.008590127012780502
0.24629999999999985,-0.008673594979472541
0.24529999999999985,-0.008757062946164578
0.24429999999999985,-0.008762721791364036
0.24329999999999985,-0.008781113038262282
0.24229999999999985,-0.0088532633145554
0.24129999999999985,-0.008916925323049326
0.24029999999999985,-0.008965025507244737
0.23929999999999985,-0.009007466846240689
0.23829999999999985,-0.009031516938338395
0.23729999999999984,-0.009078202411233941
0.23629999999999984,-0.009171573357025033
0.23529999999999984,-0.009209770562121388
0.23429999999999984,-0.00923806478811869
0.23329999999999984,-0.009273432570615317
0.23229999999999984,-0.009318703332210998
0.23129999999999984,-0.0094318802362002
0.23029999999999984,-0.009474321575196152
0.22929999999999984,-0.009484224554295205
0.22829999999999984,-0.009521007048091697
0.22729999999999984,-0.009566277809687378
0.22629999999999983,-0.009666722311977795
0.22529999999999983,-0.009711993073573478
0.22429999999999983,-0.009719066630072803
0.22329999999999983,-0.009745946144770238
0.22229999999999983,-0.009789802195066054
0.22129999999999983,-0.009881758429557281
0.22029999999999983,-0.009946835149351073
0.21929999999999983,-0.009960982262349724
0.21829999999999983,-0.009989276488347024
0.21729999999999983,-0.010054353208140816
0.21629999999999983,-0.010137821174832855
0.21529999999999982,-0.010178847802528939
0.21429999999999982,-0.010184506647728398
0.21329999999999982,-0.010231192120623945
0.21229999999999982,-0.010303342396917062
0.21129999999999982,-0.010345783735913012
0.21029999999999982,-0.010412275167006671
0.20929999999999982,-0.010422178146105724
0.20829999999999982,-0.010458960639902216
0.20729999999999982,-0.010528281493595602
0.20629999999999982,-0.010610334748987775
0.20529999999999982,-0.010659849644483051
0.20429999999999982,-0.010679655602681162
0.20329999999999981,-0.010703705694778867
0.2022999999999998,-0.01076878241457266
0.2012999999999998,-0.010835273845666316
0.20029999999999992,-0.010874885762062537
0.19929999999999992,-0.010901765276759973
0.19829999999999992,-0.01094562132705579
0.19729999999999992,-0.011003624490350255
0.19629999999999992,-0.011077189477943237
0.19529999999999992,-0.011135192641237704
0.19429999999999992,-0.01120168407233136
0.19329999999999992,-0.011251198967826637
0.19229999999999992,-0.011265346080825288
0.19129999999999991,-0.011360131737916244
0.1902999999999999,-0.011409646633411522
0.1892999999999999,-0.011405402499511925
0.1882999999999999,-0.011466235085406123
0.1872999999999999,-0.01153272651649978
0.1862999999999999,-0.01159214439109411
0.1852999999999999,-0.01162609746229087
0.1842999999999999,-0.011648732843088714
0.1832999999999999,-0.011688344759484933
0.1822999999999999,-0.011725127253281424
0.1812999999999999,-0.011834060023371031
0.1802999999999999,-0.011863768960668198
0.1792999999999999,-0.011883574918866309
0.1782999999999999,-0.01193167510306172
0.1772999999999999,-0.012005240090654701
0.1762999999999999,-0.012068902099148628
0.1752999999999999,-0.012126905262443095
0.1742999999999999,-0.012139637664141879
0.1732999999999999,-0.012175005446638505
0.1722999999999999,-0.012228764476033377
0.1712999999999999,-0.01230798830882582
0.1702999999999999,-0.012363162049520557
0.1692999999999999,-0.012365991472120287
0.1682999999999999,-0.012421165212815022
0.1672999999999999,-0.012489071355208544
0.1662999999999999,-0.01254707451850301
0.1652999999999999,-0.012607907104397208
0.1642999999999999,-0.012631957196494913
0.1632999999999999,-0.012658836711192348
0.1622999999999999,-0.01272674285358587
0.1612999999999999,-0.012820113799376963
0.1602999999999999,-0.012842749180174803
0.1592999999999999,-0.012872458117471968
0.15829999999999989,-0.012895093498269809
0.15729999999999988,-0.01295451137286414
0.15629999999999988,-0.013046467607355368
0.15529999999999988,-0.01310022663675024
0.15429999999999988,-0.013132764996647135
0.15329999999999988,-0.013163888645244166
0.15229999999999988,-0.013219062385938904
0.15129999999999988,-0.013296871507431479
0.15029999999999988,-0.013332239289928105
0.14929999999999988,-0.01337043649502446
0.14829999999999988,-0.013410048411420683
0.14729999999999988,-0.013458148595616094
0.14629999999999987,-0.013560007809206376
0.14529999999999987,-0.013599619725602599
0.14429999999999987,-0.013605278570802059
0.14329999999999987,-0.013674599424495443
0.14229999999999987,-0.013743920278188831
0.14129999999999987,-0.013811826420582355
0.14029999999999987,-0.01387548842907628
0.13929999999999987,-0.013879732562975875
0.13829999999999987,-0.013941979860169935
0.13729999999999987,-0.013994324178264943
0.13629999999999987,-0.014082036278856576
0.13529999999999986,-0.01411457463875347
0.13429999999999986,-0.014132965885651718
0.13329999999999986,-0.014175407224647668
0.13229999999999986,-0.01424614278964092
0.13129999999999986,-0.014316878354634173
0.13029999999999986,-0.014387613919627423
0.12929999999999986,-0.014415908145624722
0.12829999999999986,-0.014444202371622025
0.12729999999999986,-0.014500790823616624
0.12629999999999986,-0.014571526388609878
0.12529999999999986,-0.01461396772760583
0.12429999999999986,-0.01465640906660178
0.12329999999999985,-0.01469885040559773
0.12229999999999985,-0.014755438857592333
0.12129999999999985,-0.014854468648582884
0.12029999999999985,-0.014882762874580187
0.11929999999999985,-0.014911057100577486
0.11829999999999985,-0.014953498439573438
0.11729999999999985,-0.015024234004566688
0.11629999999999985,-0.015123263795557243
0.11529999999999985,-0.015151558021554544
0.11429999999999985,-0.015193999360550494
0.11329999999999985,-0.015236440699546445
0.11229999999999984,-0.015278882038542396
0.11129999999999984,-0.015377911829532949
0.11029999999999984,-0.015406206055530251
0.10929999999999984,-0.01543450028152755
0.10829999999999984,-0.015491088733522153
0.10729999999999984,-0.015533530072518101
0.10629999999999984,-0.015618412750510005
0.10529999999999984,-0.015660854089505957
0.10429999999999984,-0.01568914831550326
0.10329999999999984,-0.015745736767497857
0.10229999999999984,-0.01578817810649381
0.10129999999999983,-0.01588720789748436
0.10029999999999983,-0.015943796349478963
0.09929999999999983,-0.015943796349478963
0.09829999999999983,-0.016000384801473564
0.09729999999999983,-0.016071120366466816
0.09629999999999983,-0.01615600304445872
0.09529999999999983,-0.016212591496453318
0.09429999999999983,-0.016226738609451972
0.09329999999999983,-0.016269179948447923
0.09229999999999983,-0.016339915513441175
0.09129999999999983,-0.016438945304431726
0.09029999999999982,-0.01646723953042903
0.08929999999999982,-0.01650968086942498
0.08829999999999982,-0.016537975095422278
0.08729999999999982,-0.01662285777341418
0.08629999999999982,-0.01670774045140608
0.08529999999999982,-0.016778476016399334
0.08429999999999982,-0.016792623129397985
0.08329999999999982,-0.016806770242396636
0.08229999999999982,-0.01690580003338719
0.08129999999999982,-0.017004829824377742
0.08029999999999982,-0.01703312405037504
0.07929999999999982,-0.01706141827637234
0.07829999999999981,-0.017118006728366945
0.07729999999999981,-0.017188742293360197
0.07629999999999981,-0.0173019191973494
0.07529999999999992,-0.0173019191973494
0.07429999999999992,-0.017372654762342652
0.07329999999999992,-0.017400948988339954
0.07229999999999992,-0.017457537440334552
0.07129999999999992,-0.017570714344323755
0.07029999999999992,-0.017584861457322406
0.06929999999999992,-0.017613155683319705
0.06829999999999992,-0.01768389124831296
0.06729999999999992,-0.017754626813306213
0.06629999999999991,-0.01785365660429676
0.06529999999999991,-0.017924392169290013
0.06429999999999991,-0.017938539282288665
0.06329999999999991,-0.017980980621284618
0.06229999999999991,-0.018065863299276518
0.06129999999999991,-0.018150745977268422
0.06029999999999991,-0.018193187316264375
0.05929999999999991,-0.018249775768258973
0.05829999999999991,-0.018278069994256275
0.05729999999999991,-0.018391246898245478
0.056299999999999906,-0.018447835350240076
0.055299999999999905,-0.01851857091523333
0.054299999999999904,-0.01853271802823198
0.0532999999999999,-0.01858930648022658
0.0522999999999999,-0.018674189158218484
0.0512999999999999,-0.018759071836210388
0.0502999999999999,-0.018815660288204986
0.0492999999999999,-0.01885810162720094
0.0482999999999999,-0.018900542966196893
0.0472999999999999,-0.019013719870186095
0.0462999999999999,-0.019098602548177995
0.045299999999999896,-0.019141043887173945
0.044299999999999895,-0.019169338113171244
0.043299999999999894,-0.01922592656516585
0.04229999999999989,-0.019310809243157753
0.04129999999999989,-0.0194098390341483
0.04029999999999989,-0.019480574599141553
0.03929999999999989,-0.019523015938137503
0.03829999999999989,-0.019565457277133456
0.03729999999999989,-0.01963619284212671
0.03629999999999989,-0.019749369746115915
0.03529999999999989,-0.019777663972113214
0.034299999999999886,-0.019820105311109164
0.033299999999999885,-0.019890840876102416
0.032299999999999884,-0.019961576441095665
0.031299999999999883,-0.02007475334508487
0.030299999999999883,-0.020103047571082173
0.02929999999999988,-0.020145488910078124
0.02829999999999988,-0.020230371588070024
0.02729999999999988,-0.02032940137906058
0.02629999999999988,-0.02042843117005113
0.025299999999999878,-0.020470872509047083
0.024299999999999877,-0.020513313848043033
0.023299999999999876,-0.02055575518703898
0.022299999999999875,-0.020654784978029535
0.021299999999999875,-0.02075381476902009
0.020299999999999874,-0.020824550334013342
0.019299999999999873,-0.02086699167300929
0.018299999999999872,-0.020923580125003893
0.01729999999999987,-0.021008462802995797
0.01629999999999987,-0.021107492593986348
0.01529999999999987,-0.0211782281589796
0.014299999999999868,-0.02122066949797555
0.013299999999999867,-0.021277257949970152
0.012299999999999978,-0.021376287740960703
0.011299999999999866,-0.021461170418952607
0.010299999999999976,-0.021546053096944507
0.009299999999999864,-0.02158849443594046
0.008299999999999974,-0.02165923000093371
0.007299999999999862,-0.021758259791924264
0.006299999999999972,-0.021843142469916164
0.00529999999999986,-0.02189973092191077
0.0042999999999999705,-0.021956319373905367
0.0032999999999998586,-0.022012907825899968
0.0022999999999999687,-0.022111937616890523
0.0012999999999998568,-0.022253408746877028
0.00029999999999996696,-0.022281702972874327
-0.000700000000000145,-0.02235243853786758
-0.0017000000000000348,-0.02240902698986218
-0.0027000000000001467,-0.022522203893851383
-0.0037000000000000366,-0.02264952791083924
-0.0047000000000001485,-0.02272026347583249
-0.005700000000000038,-0.02273441058883114
-0.00670000000000015,-0.02279099904082574
-0.00770000000000004,-0.022904175944814944
-0.008700000000000152,-0.022989058622806844
-0.009700000000000042,-0.023045647074801445
-0.010700000000000154,-0.02313052975279335
-0.011700000000000044,-0.0232012653177866
-0.012700000000000156,-0.02327200088277985
-0.013700000000000045,-0.023399324899767704
-0.014700000000000157,-0.02345591335176231
-0.015700000000000047,-0.023498354690758262
-0.01670000000000016,-0.02356909025575151
-0.01770000000000005,-0.023668120046742062
-0.01870000000000016,-0.023767149837732617
-0.01970000000000005,-0.02385203251572452
-0.020700000000000163,-0.02388032674172182
-0.021700000000000053,-0.023965209419713723
-0.022700000000000164,-0.024064239210704275
-0.023700000000000054,-0.02417741611469348
-0.024700000000000166,-0.02424815167968673
-0.025700000000000056,-0.02429059301868268
-0.026700000000000168,-0.02436132858367593
-0.027700000000000058,-0.02447450548766513
-0.02870000000000017,-0.024559388165657038
-0.02970000000000006,-0.02461597661765164
-0.03070000000000017,-0.02468671218264489
-0.03170000000000006,-0.02475744774763814
-0.03270000000000017,-0.024870624651627343
-0.03370000000000006,-0.024955507329619247
-0.034700000000000175,-0.025012095781613848
-0.035700000000000065,-0.02509697845960575
-0.03670000000000018,-0.025139419798601705
-0.03770000000000007,-0.025238449589592253
-0.03870000000000018,-0.025365773606580107
-0.03970000000000007,-0.02540821494557606
-0.04070000000000018,-0.025493097623567964
-0.04170000000000007,-0.02554968607556256
-0.04270000000000018,-0.025648715866553113
-0.04370000000000007,-0.02576189277054232
-0.044700000000000184,-0.025818481222536924
-0.045700000000000074,-0.025889216787530173
-0.046700000000000186,-0.02594580523952477
-0.047700000000000076,-0.026044835030515325
-0.04870000000000019,-0.026172159047503182
-0.04970000000000008,-0.02622874749949778
-0.05070000000000019,-0.02627118883849373
-0.05170000000000008,-0.026341924403486983
-0.05270000000000019,-0.026469248420474833
-0.05370000000000008,-0.02658242532446404
-0.05470000000000019,-0.026639013776458643
-0.05570000000000008,-0.02668145511545459
-0.056700000000000195,-0.026780484906445145
-0.057700000000000085,-0.026865367584437045
-0.058700000000000196,-0.026978544488426247
-0.059700000000000086,-0.027049280053419503
-0.0607000000000002,-0.0270775742794168
-0.06170000000000009,-0.027190751183406005
-0.0627000000000002,-0.02731807520039386
