Potential V vs RHE, Current mA cm-2
0.013299999999999867,1.5208146473549145
0.012299999999999978,0.5077398855215616
0.011299999999999866,-0.13088908946351321
0.010299999999999976,-0.6053549652122492
0.009299999999999864,-0.9690772404075502
0.008299999999999974,-1.2394285698117586
0.007299999999999862,-1.4741291744593683
0.006299999999999972,-1.7047271163373692
0.00529999999999986,-1.9183485226169896
0.0042999999999999705,-2.102260991599445
0.0032999999999998586,-2.2437321215859485
0.0022999999999999687,-2.3767149837732613
0.0012999999999998568,-2.539406783257741
0.00029999999999996696,-2.6907808923433
-0.000700000000000145,-2.822349043230748
-0.0017000000000000348,-2.919964122921436
-0.0027000000000001467,-3.0076762235130676
-0.0037000000000000366,-3.1335855292010564
-0.0047000000000001485,-3.2580801235891794
-0.005700000000000038,-3.358524625879597
-0.00670000000000015,-3.436333747372174
-0.00770000000000004,-3.5141428688647514
-0.008700000000000152,-3.6174167937548987
-0.009700000000000042,-3.734837831643697
-0.010700000000000154,-3.8310382000345196
-0.011700000000000044,-3.887626652029121
-0.012700000000000156,-3.9484592379233177
-0.013700000000000045,-4.037586049814815
-0.014700000000000157,-4.143689397304692
-0.015700000000000047,-4.222913230097134
-0.01670000000000016,-4.283745815991331
-0.01770000000000005,-4.348822535785122
-0.01870000000000016,-4.422387523378105
-0.01970000000000005,-4.532735004767577
-0.020700000000000163,-4.597811724561368
-0.021700000000000053,-4.633179507057995
-0.022700000000000164,-4.705329783351112
-0.023700000000000054,-4.795871306542475
-0.024700000000000166,-4.887827541033701
-0.025700000000000056,-4.959977817326819
-0.026700000000000168,-5.001004445022905
-0.027700000000000058,-5.0547634744177765
-0.02870000000000017,-5.139646152409678
-0.02970000000000006,-5.228772964301175
-0.03070000000000017,-5.306582085793753
-0.03170000000000006,-5.341949868290378
-0.03270000000000017,-5.3815617846866
-0.03370000000000006,-5.4622003287789065
-0.034700000000000175,-5.552741851970269
-0.035700000000000065,-5.630550973462847
-0.03670000000000018,-5.681480580257988
-0.03770000000000007,-5.7309954757532635
-0.03870000000000018,-5.798901618146785
-0.03970000000000007,-5.866807760540307
-0.04070000000000018,-5.9347139029338285
-0.04170000000000007,-5.978569953229646
-0.04270000000000018,-6.018181869625866
-0.04370000000000007,-6.101649836317904
-0.044700000000000184,-6.1907766482094
-0.045700000000000074,-6.250194522803732
-0.046700000000000186,-6.294050573099549
-0.047700000000000076,-6.320930087796984
-0.04870000000000019,-6.388836230190505
-0.04970000000000008,-6.4864513098811925
-0.05070000000000019,-6.55011331837512
-0.05170000000000008,-6.591139946071206
-0.05270000000000019,-6.639240130266617
-0.05370000000000008,-6.704316850060409
-0.05470000000000019,-6.792028950652041
-0.05570000000000008,-6.850032113946507
-0.056700000000000195,-6.879741051243673
-0.057700000000000085,-6.927841235439085
-0.058700000000000196,-7.001406223032068
-0.059700000000000086,-7.083459478424238
-0.0607000000000002,-7.149950909517895
-0.06170000000000009,-7.2079540728123614
-0.0627000000000002,-7.256054257007774
-0.06370000000000009,-7.278689637805614
-0.0647000000000002,-7.370645872296841
-0.06570000000000009,-7.451284416389148
-0.0667000000000002,-7.486652198885773
-0.0677000000000001,-7.543240650880375
-0.0687000000000002,-7.625293906272548
-0.0697000000000001,-7.69885889386553
-0.07070000000000021,-7.768179747558916
-0.0717000000000001,-7.800718107455811
-0.07270000000000021,-7.8431594464517636
-0.0737000000000001,-7.9153097227448805
-0.07470000000000021,-7.998777689436918
-0.0757000000000001,-8.068098543130306
-0.07670000000000021,-8.121857572525176
-0.0777000000000001,-8.161469488921396
-0.07870000000000021,-8.253425723412624
-0.0797000000000001,-8.343967246603986
-0.08070000000000022,-8.410458677697642
-0.0817000000000001,-8.457144150593189
-0.08270000000000022,-8.5052443347886
-0.08370000000000011,-8.584468167581042
-0.08470000000000022,-8.67359497947254
-0.08570000000000011,-8.761307080064174
-0.08670000000000022,-8.826383799857965
-0.08770000000000011,-8.87306927275351
-0.08870000000000022,-8.942390126446897
-0.08970000000000011,-9.061225875635559
-0.09070000000000022,-9.143279131027732
-0.09170000000000011,-9.198452871722468
-0.09270000000000023,-9.262114880216396
-0.09370000000000012,-9.349826980808027
-0.09470000000000023,-9.46583330739696
-0.09570000000000012,-9.545057140189403
-0.09670000000000023,-9.607304437383464
-0.09770000000000012,-9.675210579776985
-0.09870000000000023,-9.7516049899697
-0.09970000000000012,-9.860537760059307
-0.10070000000000023,-9.946835149351072
-0.10170000000000012,-9.99917946744608
-0.10270000000000024,-10.069915032439331
-0.10370000000000013,-10.166115400830154
-0.10470000000000024,-10.280707016119223
-0.10570000000000013,-10.374077961910315
-0.10670000000000024,-10.436325259104375
-0.10770000000000013,-10.497157844998572
-0.10870000000000024,-10.576381677791014
-0.10970000000000013,-10.690973293080082
-0.11070000000000024,-10.809809042268745
-0.11170000000000013,-10.82537086656726
-0.11270000000000002,-10.877715184662266
-0.11370000000000013,-10.995136222551066
-0.11470000000000002,-11.116801394339458
-0.11570000000000014,-11.224319453129201
-0.11670000000000003,-11.278078482524071
-0.11770000000000014,-11.331837511918945
-0.11870000000000003,-11.425208457710037
-0.11970000000000014,-11.528482382600183
-0.12070000000000003,-11.60912092669249
-0.12170000000000014,-11.668538801286822
-0.12270000000000003,-11.723712541981559
-0.12370000000000014,-11.817083487772651
-0.12470000000000003,-11.92884568046199
-0.12570000000000014,-12.008069513254432
-0.12670000000000003,-12.066072676548897
-0.12770000000000015,-12.12549055114323
-0.12870000000000004,-12.19905553873621
-0.12970000000000015,-12.264132258530003
-0.13070000000000004,-12.351844359121635
-0.13170000000000015,-12.395700409417453
-0.13270000000000004,-12.432482903213943
-0.13370000000000015,-12.513121447306249
-0.13470000000000004,-12.617810083496263
-0.13570000000000015,-12.658836711192349
-0.13670000000000004,-12.723913430986139
-0.13770000000000016,-12.779087171680876
-0.13870000000000005,-12.846993314074398
-0.13970000000000016,-12.94036425986549
-0.14070000000000005,-12.975732042362116
-0.14170000000000016,-12.991293866660634
-0.14270000000000005,-13.019588092657932
-0.14370000000000016,-13.06910298815321
-0.14470000000000005,-13.15964451134457
-0.14570000000000016,-13.219062385938905
-0.14670000000000005,-13.230380076337823
-0.14770000000000016,-13.254430168435528
-0.14870000000000005,-13.306774486530536
-0.14970000000000017,-13.374680628924057
-0.15070000000000006,-13.427024947019063
-0.15170000000000017,-13.445416193917309
-0.15270000000000006,-13.4539044617165
-0.15370000000000017,-13.483613399013665
-0.15470000000000006,-13.520395892810155
-0.15570000000000017,-13.560007809206377
-0.15670000000000006,-13.56425194310597
-0.15770000000000017,-13.56425194310597
-0.15870000000000006,-13.595375591703002
-0.15970000000000018,-13.629328662899765
-0.16070000000000007,-13.657622888897064
-0.16170000000000018,-13.671770001895714
-0.16270000000000007,-13.653378754997467
-0.16370000000000018,-13.680258269694905
-0.16470000000000007,-13.776458638085728
-0.16570000000000018,-13.717040763491397
-0.16670000000000007,-13.700064227893014
-0.16770000000000018,-13.674599424495446
-0.16870000000000007,-13.69299067139369
-0.16970000000000018,-13.71562605219153
-0.17070000000000007,-13.647719909798008
-0.17170000000000019,-13.615181549901113
-0.17270000000000008,-13.609522704701652
-0.1737000000000002,-13.636402219399088
-0.17470000000000008,-13.65054933239774
-0.1757000000000002,-13.622255106400438
-0.17670000000000008,-13.591131457803407
-0.1777000000000002,-13.54444598490786
-0.17870000000000008,-13.476539842514338
-0.1797000000000002,-13.46239272951569
-0.18070000000000008,-13.434098503518388
-0.1817000000000002,-13.383168896723246
-0.18270000000000008,-13.323751022128915
-0.1837000000000002,-13.27706554923337
-0.1847000000000001,-13.262918436234719
-0.1857000000000002,-13.237453632837148
-0.1867000000000001,-13.163888645244166
-0.1877000000000002,-13.070517699453074
-0.1887000000000001,-13.009685113558877
-0.1897000000000002,-12.982805598861441
-0.1907000000000001,-12.923387724267112
-0.1917000000000001,-12.811625531577771
-0.19269999999999998,-12.725328142286005
-0.1937000000000001,-12.646104309493563
-0.19469999999999998,-12.596589413998286
-0.1957000000000001,-12.55273336370247
-0.19669999999999999,-12.465021263110838
-0.1977000000000001,-12.33628253482312
-0.1987,-12.240082166432298
-0.1997000000000001,-12.216032074334592
-0.2007,-12.145296509341339
-0.2017000000000001,-11.998166534155375
-0.2027,-11.849621847669546
-0.2037000000000001,-11.753421479278725
-0.2047,-11.692588893384528
-0.2057000000000001,-11.638829863989658
-0.2067,-11.532726516499778
-0.2077000000000001,-11.379937696114355
-0.2087,-11.261101946925693
-0.2097000000000001,-11.186122248032843
-0.2107,-11.092751302241753
-0.2117000000000001,-10.97674497565282
-0.2127,-10.833859134366449
-0.2137000000000001,-10.736244054675764
-0.2147,-10.686729159180487
-0.2157000000000001,-10.618823016786965
-0.2167,-10.491498999799111
-0.21770000000000012,-10.345783735913013
-0.2187,-10.200068472026913
-0.21970000000000012,-10.126503484433933
-0.2207,-10.035961961242569
-0.22170000000000012,-9.925614479853097
-0.2227,-9.820925843663083
-0.22370000000000012,-9.738872588270914
-0.2247,-9.649745776379415
-0.22570000000000012,-9.559204253188051
-0.2267,-9.440368503999391
-0.22770000000000012,-9.303141507912482
-0.22870000000000001,-9.202697005622065
-0.22970000000000013,-9.144693842327596
-0.23070000000000002,-9.090934812932726
-0.23170000000000013,-8.962196084645006
-0.23270000000000002,-8.853263314555399
-0.23370000000000013,-8.779698326962418
-0.23470000000000002,-8.725939297567548
-0.23570000000000013,-8.65944786647389
-0.23670000000000002,-8.559003364183472
-0.2376999999999999,-8.455729439293325
-0.23870000000000002,-8.387823296899802
-0.2396999999999999,-8.33406426750493
-0.24070000000000003,-8.28596408330952
-0.24169999999999991,-8.205325539217212
-0.24270000000000003,-8.093563346527874
-0.24369999999999992,-8.031316049333814
-0.24470000000000003,-7.987459999037997
-0.24569999999999992,-7.937945103542721
-0.24670000000000003,-7.87286838374893
-0.24769999999999992,-7.786570994457163
-0.24870000000000003,-7.752617923260401
-0.24969999999999992,-7.729982542462561
-0.25070000000000003,-7.6861264921667445
-0.2516999999999999,-7.6267086175724135
-0.25270000000000004,-7.554558341279295
-0.2536999999999999,-7.495140466684964
-0.25470000000000004,-7.479578642386449
-0.2556999999999999,-7.435722592090633
-0.25670000000000004,-7.374890006196437
-0.25769999999999993,-7.32254568810143
-0.25870000000000004,-7.288592616904668
-0.25969999999999993,-7.288592616904668
-0.26070000000000004,-7.271616081306289
-0.26169999999999993,-7.224930608410742
-0.26270000000000004,-7.178245135515196
-0.26369999999999993,-7.1414626417187055
-0.26470000000000005,-7.15136562081776
-0.26569999999999994,-7.131559662619649
-0.26670000000000005,-7.100436014022619
-0.26769999999999994,-7.060824097626399
-0.26870000000000005,-7.0565799637268025
-0.26969999999999994,-7.063653520226129
-0.27070000000000005,-7.065068231525992
-0.27169999999999994,-7.019797469930312
-0.27270000000000005,-6.975941419634496
-0.27369999999999994,-6.970282574435036
-0.27470000000000006,-6.987259110033416
-0.27569999999999995,-7.004235645631797
-0.27670000000000006,-6.987259110033416
-0.27769999999999995,-6.960379595335981
-0.27870000000000006,-6.974526708334631
-0.27969999999999995,-6.98584439873355
-0.28070000000000006,-6.998576800432337
-0.28169999999999995,-6.992917955232877
-0.28270000000000006,-6.963209017935711
-0.28369999999999995,-6.983014976133821
-0.28470000000000006,-7.009894490831256
-0.28569999999999995,-7.033944582928963
-0.28670000000000007,-7.033944582928963
-0.28769999999999996,-7.009894490831256
-0.28870000000000007,-7.0297004490293675
-0.28969999999999996,-7.074971210625048
-0.29070000000000007,-7.103265436622349
-0.29169999999999996,-7.103265436622349
-0.29270000000000007,-7.097606591422889
-0.29369999999999996,-7.12873024001992
-0.2947000000000001,-7.178245135515196
-0.29569999999999996,-7.217857051911418
-0.2967000000000001,-7.223515897110879
-0.29769999999999996,-7.229174742310337
-0.2987000000000001,-7.257468968307639
-0.29969999999999997,-7.311227997702509
-0.3007000000000001,-7.357913470598056
-0.30169999999999997,-7.380548851395897
-0.3027000000000001,-7.393281253094682
-0.30369999999999997,-7.418746056492251
-0.3047000000000001,-7.48806691018564
-0.30569999999999997,-7.548899496079835
-0.3067000000000001,-7.5743642994774065
-0.3077,-7.602658525474708
-0.3087000000000001,-7.642270441870928
-0.3097,-7.71017658426445
-0.3107000000000001,-7.789400417056893
-0.3117,-7.820524065653922
-0.3127000000000001,-7.8431594464517636
-0.3137,-7.916724434044746
-0.3147000000000001,-7.990289421637726
-0.3157,-8.08366036742882
-0.3167000000000001,-8.11195459342612
-0.3177,-8.158640066321666
-0.3187000000000001,-8.23786389911411
-0.3197,-8.317087731906552
-0.3207000000000001,-8.421776368096562
-0.3217,-8.492511933089816
-0.3227000000000001,-8.536367983385631
-0.3237,-8.618421238777803
-0.3247000000000001,-8.731598142767007
-0.3257,-8.833457356357288
-0.3267000000000001,-8.92116945694892
-0.3277,-9.000393289741364
-0.3287000000000001,-9.113570193730567
-0.3297,-9.245138344618015
-0.3307000000000001,-9.373877072905733
-0.3317,-9.49129811079453
-0.3327000000000001,-9.569107232287108
-0.3337,-9.703504805774287
-0.3347000000000001,-9.876099584357823
-0.3357,-10.026058982143516
-0.3367000000000001,-10.177433091229075
-0.3377,-10.318904221215577
-0.3387000000000001,-10.475937175500595
-0.3397,-10.678240891381297
-0.3407000000000001,-10.889032875061186
-0.3417,-11.080018900542967
-0.3427000000000001,-11.275249059924343
-0.3437,-11.514335269601535
-0.3447000000000001,-11.781715705276024
-0.3457,-12.043437295751058
-0.3467000000000001,-12.2966706184269
-0.3477,-12.559806920201796
-0.3487000000000001,-12.852652159273859
-0.3497,-13.193597582541333
-0.3507000000000001,-13.567081365705702
-0.3517,-13.916515056772363
-0.3527000000000001,-14.288584128636872
-0.3537,-14.71299751859638
-0.3547000000000001,-15.179852247551842
-0.3557,-15.689148315503255
-0.35670000000000013,-16.19844438345467
-0.3577,-16.721887564404735
-0.35870000000000013,-17.301919197349395
-0.3597,-17.966833508285966
-0.36070000000000013,-18.730777610213085
-0.3617,-19.409839034148305
-0.3626999999999999,-20.13134179707947
-0.3637,-21.065051254990397
-0.3646999999999999,-22.055349164895922
-0.3657,-23.144676865792
-0.3666999999999999,-24.17741611469348
-0.3677,-25.224302476593607
-0.3686999999999999,-26.34192440348698
-0.36970000000000003,-27.516134782374962
-0.3706999999999999,-28.732786500258893
-0.37170000000000003,-30.00602667013743
-0.3726999999999999,-31.20853127502271
-0.37370000000000003,-32.48177144490124
-0.3746999999999999,-33.755011614779775
-0.37570000000000003,-35.05654601065561
-0.3766999999999999,-36.329786180534136
-0.37770000000000004,-37.631320576409976
-0.3786999999999999,-39.00359053727906
-0.37970000000000004,-40.40415472414545
-0.3806999999999999,-41.79057179801318
-0.38170000000000004,-43.24772443687417
-0.38269999999999993,-44.67658284973786
-0.38370000000000004,-46.2610595055867
-0.38469999999999993,-47.81724193543825
-0.38570000000000004,-49.43001281728438
-0.38669999999999993,-49.67051373826144
-0.38570000000000004,-49.03389365332217
-0.38469999999999993,-48.94901097533027
-0.38370000000000004,-49.062187879319474
-0.38269999999999993,-49.18951189630732
-0.38170000000000004,-49.34513013929248
-0.3806999999999999,-49.35927725229113
-0.37970000000000004,-49.26024746130057
-0.3786999999999999,-49.23195323530328
-0.37770000000000004,-49.090482105316774
-0.3766999999999999,-48.86412829733837
-0.37570000000000003,-48.65192160235861
-0.3746999999999999,-48.43971490737886
-0.37370000000000003,-48.2275082123991
-0.3726999999999999,-47.972860178423396
-0.37170000000000003,-47.67577080545174
-0.3706999999999999,-47.25135741549222
-0.36970000000000003,-46.88353247752732
-0.3686999999999999,-46.515707539562406
-0.3677,-46.091294149602895
-0.3666999999999999,-45.63858653364609
-0.3657,-45.05855490070142
-0.3646999999999999,-44.690729962736505
-0.3637,-44.266316572776994
-0.3626999999999999,-43.79946184382153
-0.3617,-43.30431288886877
-0.36070000000000013,-42.752575481921404
-0.3597,-42.158396735978094
-0.35870000000000013,-41.63495355502803
-0.3577,-41.06906903508202
-0.35670000000000013,-40.40415472414545
-0.3557,-39.88071154319538
-0.3547000000000001,-39.244091458256115
-0.3537,-38.678206938310105
-0.3527000000000001,-38.05573396636949
-0.3517,-37.43326099442887
-0.3507000000000001,-36.78249379649095
-0.3497,-36.11757948555439
-0.3487000000000001,-35.693166095594876
-0.3477,-34.98581044566235
-0.3467000000000001,-34.36333747372174
-0.3457,-33.755011614779775
-0.3447000000000001,-33.17497998183511
-0.3437,-32.59494834889044
-0.3427000000000001,-32.269564749921486
-0.3417,-31.618797551983565
-0.3407000000000001,-31.08120725803486
-0.3397,-30.416292947098288
-0.3387000000000001,-29.949438218142824
-0.3377,-29.539171941181966
-0.3367000000000001,-28.831816291249446
-0.3357,-28.32252022329803
-0.3347000000000001,-27.813224155346617
-0.3337,-27.190751183406004
-0.3327000000000001,-26.59657243746269
-0.3317,-26.058982143513976
-0.3307000000000001,-25.478950510569312
-0.3297,-24.927213103621945
-0.3287000000000001,-24.460358374666487
-0.3277,-24.00765075870967
-0.3267000000000001,-23.66812004674206
-0.3257,-23.088088413797397
-0.3247000000000001,-22.522203893851387
-0.3237,-22.055349164895922
-0.3227000000000001,-21.54605309694451
-0.3217,-21.036757028993097
-0.3207000000000001,-20.48501962204573
-0.3197,-20.01816489309027
-0.3187000000000001,-19.593751503130758
-0.3177,-19.169338113171246
-0.3167000000000001,-18.660042045219836
-0.3157,-18.17904020326572
-0.3147000000000001,-17.74047970030756
-0.3137,-17.28777208435075
-0.3127000000000001,-16.820917355395284
-0.3117,-16.396503965435777
-0.3107000000000001,-15.91550212348166
-0.3097,-15.519382959519453
-0.3087000000000001,-15.080822456561293
-0.3077,-14.65640906660178
-0.3067000000000001,-14.26028990263957
-0.30569999999999997,-13.807582286682758
-0.3047000000000001,-13.428439658318927
-0.30369999999999997,-13.07476183335267
-0.3027000000000001,-12.694204493688973
-0.30169999999999997,-12.278279371528653
-0.3007000000000001,-11.852451270269277
-0.29969999999999997,-11.481796909704636
-0.2987000000000001,-11.13660735253757
-0.29769999999999996,-10.760294146773468
-0.2967000000000001,-10.408031033107076
-0.29569999999999996,-10.031717827342977
-0.2947000000000001,-9.6624781780782
-0.29369999999999996,-9.349826980808027
-0.29270000000000007,-9.014540402740012
-0.29169999999999996,-8.689156803771056
-0.29070000000000007,-8.368017338701693
-0.28969999999999996,-8.001607112036647
-0.28870000000000007,-7.71017658426445
-0.28769999999999996,-7.4244049016917115
-0.28670000000000007,-7.131559662619649
-0.28569999999999995,-6.790614239352177
-0.28470000000000006,-6.497769000280114
-0.28369999999999995,-6.227559142005892
-0.28270000000000006,-5.929055057734368
-0.28169999999999995,-5.622062705663656
-0.28070000000000006,-5.344779290890109
-0.27969999999999995,-5.098619524713592
-0.27870000000000006,-4.851045047237211
-0.27769999999999995,-4.594982301961639
-0.27670000000000006,-4.344578401885528
-0.27569999999999995,-4.0644655645122505
-0.27470000000000006,-3.812646953136274
-0.27369999999999994,-3.6131726598553033
-0.27270000000000005,-3.447651437771094
-0.27169999999999994,-3.208565228093903
-0.27070000000000005,-2.9440142150191413
-0.26969999999999994,-2.737466365238846
-0.26870000000000005,-2.550724473656661
-0.26769999999999994,-2.352664891675556
-0.26670000000000005,-2.1347993514963406
