Potential V vs RHE, Current mA cm-2
0.4132999999999999,-0.016891652920388536
0.4122999999999999,-0.018235628655260322
0.4112999999999999,-0.018575159367227933
0.4102999999999999,-0.018773218949209036
0.4092999999999999,-0.01891469007919554
0.4082999999999999,-0.019027866983184743
0.4072999999999999,-0.019141043887173945
0.4062999999999999,-0.019211779452167198
0.4052999999999999,-0.019310809243157753
0.4042999999999999,-0.0194098390341483
0.4032999999999999,-0.019466427486142905
0.4022999999999999,-0.019537163051136158
0.4012999999999999,-0.019607898616129407
0.4002999999999999,-0.01967863418112266
0.3992999999999999,-0.019791811085111865
0.3982999999999999,-0.019862546650105117
0.3972999999999999,-0.019919135102099715
0.3962999999999999,-0.01997572355409432
0.3952999999999999,-0.02006060623208622
0.3942999999999999,-0.020145488910078124
0.39329999999999987,-0.020216224475071376
0.39229999999999987,-0.020272812927065977
0.39129999999999987,-0.02032940137906058
0.39029999999999987,-0.020371842718056525
0.38929999999999987,-0.020400136944053827
0.38829999999999987,-0.02048501962204573
0.38729999999999987,-0.02052746096104168
0.38629999999999987,-0.020598196526034934
0.38529999999999986,-0.020683079204026837
0.38429999999999986,-0.020725520543022787
0.38329999999999986,-0.020810403221014687
0.38229999999999986,-0.02085284456001064
0.38129999999999986,-0.02088113878600794
0.38029999999999986,-0.020966021463999843
0.37929999999999986,-0.021008462802995797
0.37829999999999986,-0.021079198367989046
0.37729999999999986,-0.021121639706984996
0.37629999999999986,-0.021135786819983647
0.37529999999999986,-0.0212065223849769
0.37429999999999986,-0.0212631108369715
0.37329999999999985,-0.021333846401964753
0.37229999999999985,-0.021390434853959358
0.37129999999999985,-0.021432876192955305
0.37029999999999985,-0.021517758870947205
0.36929999999999985,-0.02157434732294181
0.36829999999999985,-0.02163093577493641
0.36729999999999985,-0.021687524226931015
0.36629999999999985,-0.021715818452928314
0.36529999999999985,-0.021758259791924264
0.36429999999999985,-0.021814848243918866
0.36329999999999985,-0.02185728958291482
0.36229999999999984,-0.021913878034909417
0.36129999999999984,-0.02198461359990267
0.36029999999999984,-0.02205534916489592
0.35929999999999984,-0.022111937616890523
0.35829999999999984,-0.022154378955886473
0.35729999999999984,-0.022196820294882423
0.35629999999999984,-0.022239261633878377
0.35529999999999984,-0.02226755585987568
0.35429999999999984,-0.022338291424868928
0.35329999999999984,-0.02238073276386488
0.35229999999999984,-0.02242317410286083
0.35129999999999983,-0.022493909667854084
0.35029999999999983,-0.022536351006850038
0.34929999999999983,-0.022578792345845984
0.34829999999999983,-0.022663675023837888
0.34729999999999983,-0.02272026347583249
0.34629999999999983,-0.02273441058883114
0.34529999999999983,-0.02279099904082574
0.34429999999999983,-0.022819293266823044
0.3432999999999998,-0.02287588171881764
0.3422999999999998,-0.022918323057813595
0.3412999999999998,-0.022946617283810897
0.3402999999999998,-0.023017352848804146
0.3392999999999998,-0.023073941300798748
0.3382999999999998,-0.023144676865792004
0.3372999999999998,-0.0232012653177866
0.3362999999999998,-0.023215412430785252
0.3352999999999998,-0.023286147995778505
0.3342999999999998,-0.023314442221775804
0.3332999999999998,-0.023356883560771757
0.3322999999999998,-0.023399324899767704
0.3312999999999998,-0.023399324899767704
0.3302999999999998,-0.023498354690758262
0.3292999999999998,-0.02355494314275286
0.3282999999999998,-0.023611531594747465
0.3272999999999998,-0.023668120046742062
0.3262999999999998,-0.023696414272739365
0.3252999999999999,-0.023753002724733966
0.3242999999999999,-0.023795444063729916
0.3232999999999999,-0.023837885402725866
0.3222999999999999,-0.02388032674172182
0.3212999999999999,-0.02390862096771912
0.3202999999999999,-0.02397935653271237
0.3192999999999999,-0.024050092097705623
0.3182999999999999,-0.024092533436701577
0.3172999999999999,-0.024134974775697527
0.3162999999999999,-0.02417741611469348
0.3152999999999999,-0.02420571034069078
0.3142999999999999,-0.02424815167968673
0.3132999999999999,-0.02429059301868268
0.3122999999999999,-0.02433303435767863
0.3112999999999999,-0.024375475696674583
0.3102999999999999,-0.024432064148669184
0.3092999999999999,-0.024488652600663786
0.3082999999999999,-0.024545241052658383
0.3072999999999999,-0.024559388165657038
0.3062999999999999,-0.024601829504652988
0.3052999999999999,-0.02467256506964624
0.3042999999999999,-0.024700859295643543
0.3032999999999999,-0.02475744774763814
0.3022999999999999,-0.02479988908663409
0.3012999999999999,-0.024842330425630044
0.3002999999999999,-0.024913065990623297
0.2992999999999999,-0.024955507329619247
0.2982999999999999,-0.0250262428946125
0.2972999999999999,-0.0250545371206098
0.2962999999999999,-0.02509697845960575
0.2952999999999999,-0.02515356691160035
0.2942999999999999,-0.025181861137597652
0.2932999999999999,-0.025224302476593602
0.2922999999999999,-0.025266743815589552
0.2912999999999999,-0.025295038041586858
0.2902999999999999,-0.02537992071957876
0.2892999999999999,-0.025422362058574708
0.2882999999999999,-0.02547895051056931
0.2872999999999999,-0.025521391849565263
0.2862999999999999,-0.025563833188561213
0.2852999999999999,-0.02562042164055581
0.2842999999999999,-0.025677010092550415
0.2832999999999999,-0.025705304318547718
0.2822999999999999,-0.025747745657543668
0.2812999999999999,-0.02577603988354097
0.2802999999999999,-0.025832628335535568
0.2792999999999999,-0.02587506967453152
0.2782999999999999,-0.025931658126526123
0.2772999999999999,-0.025974099465522073
0.2762999999999999,-0.026030687917516674
0.2752999999999999,-0.026101423482509926
0.2742999999999999,-0.026158011934504528
0.2732999999999999,-0.02621460038649913
0.2722999999999999,-0.02622874749949778
0.2712999999999999,-0.026257041725495082
0.2702999999999999,-0.026313630177489684
0.2692999999999999,-0.026356071516485634
0.26829999999999987,-0.026412659968480235
0.26729999999999987,-0.026426807081478886
0.26629999999999987,-0.026483395533473487
0.26529999999999987,-0.026539983985468085
0.26429999999999987,-0.02659657243746269
0.26329999999999987,-0.026667308002455942
0.26229999999999987,-0.02668145511545459
0.26129999999999987,-0.02673804356744919
0.26029999999999986,-0.026780484906445145
0.25929999999999986,-0.02682292624544109
0.25829999999999986,-0.026865367584437045
0.25729999999999986,-0.02692195603643165
0.25629999999999986,-0.02695025026242895
0.25529999999999986,-0.027006838714423546
0.25429999999999986,-0.027049280053419503
0.25329999999999986,-0.02709172139241545
0.25229999999999986,-0.027176604070407354
0.25129999999999986,-0.027204898296404656
0.25029999999999986,-0.02727563386139791
0.24929999999999986,-0.02731807520039386
0.24829999999999985,-0.02736051653938981
0.24729999999999985,-0.02740295787838576
0.24629999999999985,-0.02743125210438306
0.24529999999999985,-0.02750198766937631
0.24429999999999985,-0.02755857612137091
0.24329999999999985,-0.027601017460366868
0.24229999999999985,-0.027657605912361466
0.24129999999999985,-0.02768590013835877
0.24029999999999985,-0.02772834147735472
0.23929999999999985,-0.027770782816350672
0.23829999999999985,-0.027813224155346622
0.23729999999999984,-0.027841518381343924
0.23629999999999984,-0.02788395972033987
0.23529999999999984,-0.027940548172334476
0.23429999999999984,-0.027982989511330426
0.23329999999999984,-0.028082019302320977
0.23229999999999984,-0.02811031352831828
0.23129999999999984,-0.02815275486731423
0.23029999999999984,-0.02820934331930883
0.22929999999999984,-0.028265931771303435
0.22829999999999984,-0.028308373110299385
0.22729999999999984,-0.028336667336296688
0.22629999999999983,-0.028379108675292634
0.22529999999999983,-0.028421550014288588
0.22429999999999983,-0.028463991353284535
0.22329999999999983,-0.02852057980527914
0.22229999999999983,-0.028577168257273744
0.22129999999999983,-0.028633756709268345
0.22029999999999983,-0.028732786500258897
0.21929999999999983,-0.028775227839254847
0.21829999999999983,-0.028831816291249444
0.21729999999999983,-0.028845963404248096
0.21629999999999983,-0.028845963404248096
0.21529999999999982,-0.0289025518562427
0.21429999999999982,-0.0289591403082373
0.21329999999999982,-0.029015728760231903
0.21229999999999982,-0.029086464325225152
0.21129999999999982,-0.02912890566422111
0.21029999999999982,-0.029185494116215707
0.20929999999999982,-0.02921378834221301
0.20829999999999982,-0.02927037679420761
0.20729999999999982,-0.029298671020204912
0.20629999999999982,-0.029326965246202208
0.20529999999999982,-0.029383553698196813
0.20429999999999982,-0.029425995037192763
0.20329999999999981,-0.02949673060218601
0.2022999999999998,-0.029553319054180613
0.2012999999999998,-0.02959576039317657
0.20029999999999992,-0.02966649595816982
0.19929999999999992,-0.02969479018416712
0.19829999999999992,-0.029751378636161722
0.19729999999999992,-0.029779672862159025
0.19629999999999992,-0.029836261314153626
0.19529999999999992,-0.02986455554015093
0.19429999999999992,-0.029963585331141473
0.19329999999999992,-0.03000602667013743
0.19229999999999992,-0.03002017378313608
0.19129999999999991,-0.03006261512213203
0.1902999999999999,-0.03011920357412663
0.1892999999999999,-0.030161644913122586
0.1882999999999999,-0.030218233365117184
0.1872999999999999,-0.030260674704113137
0.1862999999999999,-0.030317263156107735
0.1852999999999999,-0.030387998721100987
0.1842999999999999,-0.030430440060096934
0.1832999999999999,-0.03047288139909289
0.1822999999999999,-0.030501175625090193
0.1812999999999999,-0.030529469851087492
0.1802999999999999,-0.030600205416080745
0.1792999999999999,-0.030600205416080745
0.1782999999999999,-0.030685088094072648
0.1772999999999999,-0.030713382320069947
0.1762999999999999,-0.030755823659065897
0.1752999999999999,-0.03082655922405915
0.1742999999999999,-0.030883147676053754
0.1732999999999999,-0.030939736128048352
0.1722999999999999,-0.030982177467044306
0.1712999999999999,-0.031010471693041605
0.1702999999999999,-0.031095354371033508
0.1692999999999999,-0.031123648597030807
0.1682999999999999,-0.031180237049025412
0.1672999999999999,-0.031222678388021355
0.1662999999999999,-0.03123682550102001
0.1652999999999999,-0.03130756106601326
0.1642999999999999,-0.031350002405009215
0.1632999999999999,-0.03139244374400516
0.1622999999999999,-0.031434885083001116
0.1612999999999999,-0.03149147353499571
0.1602999999999999,-0.03154806198699031
0.1592999999999999,-0.03159050332598627
0.15829999999999989,-0.03166123889097952
0.15729999999999988,-0.03170368022997547
0.15629999999999988,-0.03176026868197007
0.15529999999999988,-0.03181685713396468
0.15429999999999988,-0.03185929847296063
0.15329999999999988,-0.031887592698957926
0.15229999999999988,-0.03193003403795388
0.15129999999999988,-0.031972475376949826
0.15029999999999988,-0.03200076960294713
0.14929999999999988,-0.032057358054941726
0.14829999999999988,-0.03214224073293363
0.14729999999999988,-0.03217053495893094
0.14629999999999987,-0.03221297629792688
0.14529999999999987,-0.03228371186292014
0.14429999999999987,-0.032340300314914736
0.14329999999999987,-0.032425182992906636
0.14229999999999987,-0.03248177144490124
0.14129999999999987,-0.03251006567089854
0.14029999999999987,-0.032552507009894496
0.13929999999999987,-0.03259494834889044
0.13829999999999987,-0.03265153680088505
0.13729999999999987,-0.03267983102688235
0.13629999999999987,-0.032722272365878304
0.13529999999999986,-0.0327788608178729
0.13429999999999986,-0.0328354492698675
0.13329999999999986,-0.03293447906085806
0.13229999999999986,-0.032991067512852655
0.13129999999999986,-0.033005214625851306
0.13029999999999986,-0.033090097303843206
0.12929999999999986,-0.03311839152984051
0.12829999999999986,-0.03316083286883646
0.12729999999999986,-0.03318912709483376
0.12629999999999986,-0.03323156843382971
0.12529999999999986,-0.03330230399882296
0.12429999999999986,-0.03340133378981351
0.12329999999999985,-0.03347206935480676
0.12229999999999985,-0.03352865780680137
0.12129999999999985,-0.03359939337179463
0.12029999999999985,-0.033655981823789226
0.11929999999999985,-0.03368427604978652
0.11829999999999985,-0.03368427604978652
0.11729999999999985,-0.033740864501781126
0.11629999999999985,-0.03378330584077707
0.11529999999999985,-0.03386818851876898
0.11429999999999985,-0.03393892408376223
0.11329999999999985,-0.03399551253575683
0.11229999999999984,-0.03405210098775143
0.11129999999999984,-0.03408039521374873
0.11029999999999984,-0.03413698366574334
0.10929999999999984,-0.034179425004739285
0.10829999999999984,-0.03425016056973254
0.10729999999999984,-0.034278454795729836
0.10629999999999984,-0.03432089613472579
0.10529999999999984,-0.034377484586720394
0.10429999999999984,-0.03441992592571634
0.10329999999999984,-0.0344906614907096
0.10229999999999984,-0.03453310282970555
0.10129999999999983,-0.0346038383946988
0.10029999999999983,-0.03467457395969205
0.09929999999999983,-0.034717015298688
0.09829999999999983,-0.03478775086368125
0.09729999999999983,-0.03485848642867451
0.09629999999999983,-0.03488678065467181
0.09529999999999983,-0.03494336910666641
0.09429999999999983,-0.034999957558661005
0.09329999999999983,-0.03504239889765696
0.09229999999999983,-0.03507069312365426
0.09129999999999983,-0.035127281575648865
0.09029999999999982,-0.03521216425364076
0.08929999999999982,-0.03526875270563536
0.08829999999999982,-0.03532534115762996
0.08729999999999982,-0.03535363538362727
0.08629999999999982,-0.03539607672262322
0.08529999999999982,-0.035466812287616466
0.08429999999999982,-0.035551694965608366
0.08329999999999982,-0.03562243053060162
0.08229999999999982,-0.035679018982596226
0.08129999999999982,-0.03573560743459083
0.08029999999999982,-0.03577804877358678
0.07929999999999982,-0.03583463722558138
0.07829999999999981,-0.03589122567757598
0.07729999999999981,-0.03590537279057463
0.07629999999999981,-0.03597610835556788
0.07529999999999992,-0.03604684392056113
0.07429999999999992,-0.036117579485554385
0.07329999999999992,-0.036202462163546285
0.07229999999999992,-0.03624490350254224
0.07129999999999992,-0.03628734484153819
0.07029999999999992,-0.03635808040653144
0.06929999999999992,-0.03642881597152469
0.06829999999999992,-0.0365419928755139
0.06729999999999992,-0.036584434214509846
0.06629999999999991,-0.03666931689250175
0.06529999999999991,-0.036740052457495
0.06429999999999991,-0.036768346683492305
0.06329999999999991,-0.0368249351354869
0.06229999999999991,-0.036853229361484205
0.06129999999999991,-0.036881523587481514
0.06029999999999991,-0.0369664062654734
0.05929999999999991,-0.03702299471746801
0.05829999999999991,-0.03710787739545991
0.05729999999999991,-0.03716446584745452
0.056299999999999906,-0.037221054299449115
0.055299999999999905,-0.037320084090439666
0.054299999999999904,-0.037390819655432915
0.0532999999999999,-0.03747570233342482
0.0522999999999999,-0.037518143672420776
0.0512999999999999,-0.03757473212441537
0.0502999999999999,-0.03764546768940863
0.0492999999999999,-0.03770205614140323
0.0482999999999999,-0.03774449748039918
0.0472999999999999,-0.03781523304539243
0.0462999999999999,-0.037885968610385685
0.045299999999999896,-0.03798499840137624
0.044299999999999895,-0.03802743974037219
0.043299999999999894,-0.03809817530536544
0.04229999999999989,-0.038126469531362735
0.04129999999999989,-0.03821135220935464
0.04029999999999989,-0.0383103820003452
0.03929999999999989,-0.03835282333934115
0.03829999999999989,-0.038423558904334396
0.03729999999999989,-0.03848014735632899
0.03629999999999989,-0.03855088292132225
0.03529999999999989,-0.0385933242603182
0.034299999999999886,-0.0386782069383101
0.033299999999999885,-0.03872064827730605
0.032299999999999884,-0.03879138384229931
0.031299999999999883,-0.03889041363328985
0.030299999999999883,-0.038961149198283106
0.02929999999999988,-0.03903188476327636
0.02829999999999988,-0.03910262032826961
0.02729999999999988,-0.03913091455426691
0.02629999999999988,-0.03918750300626152
0.025299999999999878,-0.03925823857125477
0.024299999999999877,-0.03935726836224532
0.023299999999999876,-0.039442151040237225
0.022299999999999875,-0.03949873949223183
0.021299999999999875,-0.03954118083122777
0.020299999999999874,-0.039626063509219676
0.019299999999999873,-0.039682651961214274
0.018299999999999872,-0.03978168175220483
0.01729999999999987,-0.03985241731719808
0.01629999999999987,-0.03992315288219133
0.01529999999999987,-0.04000803556018324
0.014299999999999868,-0.040078771125176486
0.013299999999999867,-0.04013535957717109
0.012299999999999978,-0.04017780091616704
0.011299999999999866,-0.04024853648116029
0.010299999999999976,-0.040347566272150845
0.009299999999999864,-0.04040415472414544
0.008299999999999974,-0.04051733162813465
0.007299999999999862,-0.04060221430612655
0.006299999999999972,-0.04068709698411845
0.00529999999999986,-0.04077197966211036
0.0042999999999999705,-0.04084271522710361
0.0032999999999998586,-0.040885156566099555
0.0022999999999999687,-0.040955892131092804
0.0012999999999998568,-0.041012480583087416
0.00029999999999996696,-0.04108321614808067
-0.000700000000000145,-0.04113980460007527
-0.0017000000000000348,-0.04125298150406447
-0.0027000000000001467,-0.04133786418205637
-0.0037000000000000366,-0.04142274686004828
-0.0047000000000001485,-0.04149348242504153
-0.005700000000000038,-0.041550070877036126
-0.00670000000000015,-0.041606659329030724
-0.00770000000000004,-0.04163495355502803
-0.008700000000000152,-0.04171983623301993
-0.009700000000000042,-0.04180471891101184
-0.010700000000000154,-0.041917895815001036
-0.011700000000000044,-0.042002778492992936
-0.012700000000000156,-0.04203107271899024
-0.013700000000000045,-0.04208766117098484
-0.014700000000000157,-0.04214424962297945
-0.015700000000000047,-0.042186690961975394
-0.01670000000000016,-0.04228572075296595
-0.01770000000000005,-0.04234230920496055
-0.01870000000000016,-0.04242719188295245
-0.01970000000000005,-0.042526221673943
-0.020700000000000163,-0.04259695723893625
-0.021700000000000053,-0.04269598702992681
-0.022700000000000164,-0.042780869707918716
-0.023700000000000054,-0.042851605272911965
-0.024700000000000166,-0.042922340837905214
-0.025700000000000056,-0.04296478217690116
-0.026700000000000168,-0.043021370628895765
-0.027700000000000058,-0.04303551774189441
-0.02870000000000017,-0.043092106193889014
-0.02970000000000006,-0.043191135984879565
-0.03070000000000017,-0.043290165775870124
-0.03170000000000006,-0.043389195566860675
-0.03270000000000017,-0.043459931131853924
-0.03370000000000006,-0.04355896092284448
-0.034700000000000175,-0.04362969648783773
-0.035700000000000065,-0.04372872627882829
-0.03670000000000018,-0.043771167617824236
-0.03770000000000007,-0.04381360895682019
-0.03870000000000018,-0.043841903182817485
-0.03970000000000007,-0.04389849163481209
-0.04070000000000018,-0.04398337431280399
-0.04170000000000007,-0.04406825699079589
-0.04270000000000018,-0.044124845442790495
-0.04370000000000007,-0.0442097281207824
-0.044700000000000184,-0.0442946107987743
-0.045700000000000074,-0.04436534636376756
-0.046700000000000186,-0.04445022904175945
-0.047700000000000076,-0.0445209646067527
-0.04870000000000019,-0.04461999439774326
-0.04970000000000008,-0.044676582849737856
-0.05070000000000019,-0.04471902418873381
-0.05170000000000008,-0.044775612640728414
-0.05270000000000019,-0.04480390686672571
-0.05370000000000008,-0.04488878954471761
-0.05470000000000019,-0.04497367222270952
-0.05570000000000008,-0.045044407787702766
-0.056700000000000195,-0.045143437578693324
-0.057700000000000085,-0.04517173180469062
-0.058700000000000196,-0.04527076159568117
-0.059700000000000086,-0.04536979138667173
-0.0607000000000002,-0.04545467406466363
-0.06170000000000009,-0.04555370385565418
-0.0627000000000002,-0.045624439420647436
-0.06370000000000009,-0.045681027872642034
-0.0647000000000002,-0.04573761632463663
-0.06570000000000009,-0.045794204776631244
-0.0667000000000002,-0.04586494034162449
