Potential V vs RHE, Current mA cm-2
0.05339999999999995,-0.020923580125003893
0.05239999999999995,-0.02197046648690402
0.051399999999999946,-0.02245146832885813
0.050399999999999945,-0.02277685192782709
0.049399999999999944,-0.0230880884137974
0.04839999999999994,-0.023371030673770405
0.04739999999999994,-0.023668120046742062
0.04639999999999994,-0.02393691519371642
0.04539999999999994,-0.024191563227692125
0.04439999999999994,-0.024446211261667832
0.04339999999999994,-0.02471500640864219
0.04239999999999994,-0.0249979486686152
0.04139999999999994,-0.025224302476593602
0.040399999999999936,-0.02547895051056931
0.039399999999999935,-0.02573359854454502
0.038399999999999934,-0.025988246578520724
0.03739999999999993,-0.02627118883849373
0.03639999999999993,-0.026511689759470786
0.03539999999999993,-0.026752190680447843
0.03439999999999993,-0.026992691601424906
0.03339999999999993,-0.02723319252240196
0.03239999999999993,-0.027530281895373616
0.03139999999999993,-0.027784929929349323
0.030399999999999927,-0.027997136624329073
0.029399999999999926,-0.028265931771303435
0.028399999999999925,-0.02852057980527914
0.027399999999999924,-0.02880352206525215
0.026399999999999924,-0.0290723172122265
0.025399999999999923,-0.029326965246202208
0.024399999999999922,-0.029567466167179264
0.02339999999999992,-0.02986455554015093
0.02239999999999992,-0.030133350687125283
0.02139999999999992,-0.030416292947098293
0.020399999999999918,-0.030670940981073994
0.019399999999999917,-0.030897294789052406
0.018399999999999916,-0.031180237049025412
0.017399999999999916,-0.03144903219599977
0.016399999999999915,-0.03170368022997547
0.015399999999999914,-0.03195832826395118
0.014399999999999913,-0.03221297629792688
0.013399999999999912,-0.03251006567089854
0.012399999999999911,-0.032807155043870204
0.01139999999999991,-0.033075950190844555
0.01039999999999991,-0.033358892450817565
0.009399999999999908,-0.033655981823789226
0.008399999999999908,-0.03393892408376223
0.007399999999999907,-0.03425016056973254
0.006399999999999906,-0.03453310282970555
0.005399999999999905,-0.03480189797667991
0.004399999999999904,-0.03507069312365426
0.003399999999999903,-0.03535363538362727
0.002399999999999902,-0.035679018982596226
0.0013999999999999013,-0.03599025546856653
0.00039999999999990044,-0.03628734484153819
-0.0006000000000001005,-0.036598581327508505
-0.0016000000000001013,-0.03689567070048015
-0.0026000000000001022,-0.03724934852544641
-0.003600000000000103,-0.03757473212441537
-0.004600000000000104,-0.037843527271389725
-0.005600000000000105,-0.03816891087035869
-0.006600000000000106,-0.03848014735632899
-0.007600000000000107,-0.0388196780682966
-0.008600000000000108,-0.03913091455426691
-0.009600000000000108,-0.039442151040237225
-0.01060000000000011,-0.03976753463920618
-0.01160000000000011,-0.04009291823817514
-0.012600000000000111,-0.04046074317614005
-0.013600000000000112,-0.04078612677510901
-0.014600000000000113,-0.04111151037407796
-0.015600000000000114,-0.04143689397304692
-0.016600000000000115,-0.04177642468501453
-0.017600000000000116,-0.042130102509980796
-0.018600000000000116,-0.04245548610894975
-0.019600000000000117,-0.04279501682091736
-0.020600000000000118,-0.04314869464588362
-0.02160000000000012,-0.043502372470849884
-0.02260000000000012,-0.043870197408814794
-0.02360000000000012,-0.044223875233781046
-0.024600000000000122,-0.04456340594574865
-0.025600000000000123,-0.04493123088371357
-0.026600000000000124,-0.04529905582167848
-0.027600000000000124,-0.045681027872642034
-0.028600000000000125,-0.04602055858460964
-0.029600000000000126,-0.046360089296577256
-0.030600000000000127,-0.04672791423454216
-0.03160000000000013,-0.04712403339850437
-0.03260000000000013,-0.047520152562466576
-0.03360000000000013,-0.04787383038743284
-0.03460000000000002,-0.04824165532539775
-0.03560000000000002,-0.04862362737636131
-0.03660000000000002,-0.049005599427324874
-0.03760000000000002,-0.04941586570428573
-0.03860000000000002,-0.04978369064225065
-0.039600000000000024,-0.05015151558021554
-0.040600000000000025,-0.050533487631179104
-0.041600000000000026,-0.05092960679514132
-0.04260000000000003,-0.05135402018510083
-0.04360000000000003,-0.05175013934906304
-0.04460000000000003,-0.052132111400026604
-0.04560000000000003,-0.05252823056398881
-0.04660000000000003,-0.05292434972795102
-0.04760000000000003,-0.053348763117910536
-0.04860000000000003,-0.05375902939487139
-0.04960000000000003,-0.0541551485588336
-0.050600000000000034,-0.05457956194879311
-0.051600000000000035,-0.05498982822575398
-0.052600000000000036,-0.05540009450271484
-0.053600000000000037,-0.0558103607796757
-0.05460000000000004,-0.05620647994363791
-0.05560000000000004,-0.05660259910760012
-0.05660000000000004,-0.05704115961055828
-0.05760000000000004,-0.05746557300051779
-0.05860000000000004,-0.0578899863904773
-0.05960000000000004,-0.05828610555443951
-0.06060000000000004,-0.05869637183140037
-0.061600000000000044,-0.059106638108361226
-0.06260000000000004,-0.05954519861131939
-0.06360000000000005,-0.059955464888280255
-0.06460000000000005,-0.06035158405224247
-0.06560000000000005,-0.060775997442201975
-0.06660000000000005,-0.06120041083216149
-0.06760000000000005,-0.0616531184481183
-0.06860000000000005,-0.06207753183807782
-0.06960000000000005,-0.06251609234103597
-0.07060000000000005,-0.06294050573099548
-0.07160000000000005,-0.06337906623395365
-0.07260000000000005,-0.06386006807590776
-0.07360000000000005,-0.06429862857886592
-0.07460000000000006,-0.06470889485582677
-0.07560000000000006,-0.06514745535878494
-0.07660000000000006,-0.06557186874874445
-0.07760000000000006,-0.06605287059069856
-0.07860000000000006,-0.06650557820665538
-0.07960000000000006,-0.06690169737061757
-0.08060000000000006,-0.06734025787357575
-0.08160000000000006,-0.06779296548953255
-0.08260000000000006,-0.06827396733148668
-0.08360000000000006,-0.06869838072144617
-0.08460000000000006,-0.06912279411140569
-0.08560000000000006,-0.0695472075013652
-0.08660000000000007,-0.06998576800432338
-0.08760000000000007,-0.07046676984627748
-0.08860000000000007,-0.07091947746223429
-0.08960000000000007,-0.07135803796519245
-0.09060000000000007,-0.07178245135515196
-0.09160000000000007,-0.07224930608410743
-0.09260000000000007,-0.07270201370006424
-0.09360000000000007,-0.07315472131602105
-0.09460000000000007,-0.07357913470598056
-0.09560000000000007,-0.07400354809594006
-0.09660000000000007,-0.07445625571189689
-0.09760000000000008,-0.07492311044085233
-0.09860000000000008,-0.07536167094381051
-0.09960000000000008,-0.07578608433377002
-0.10060000000000008,-0.07621049772372954
-0.10160000000000008,-0.07663491111368903
-0.10260000000000008,-0.0771300600686418
-0.10360000000000008,-0.07755447345860131
-0.10460000000000008,-0.07797888684856082
-0.10560000000000008,-0.07841744735151898
-0.10660000000000008,-0.07887015496747579
-0.10760000000000008,-0.0793511568094299
-0.10860000000000009,-0.07976142308639078
-0.10960000000000009,-0.08017168936335163
-0.11060000000000009,-0.08059610275331114
-0.11160000000000009,-0.081006369030272
-0.11260000000000009,-0.0814873708722261
-0.11360000000000009,-0.08191178426218561
-0.11460000000000009,-0.08232205053914649
-0.11560000000000009,-0.08274646392910599
-0.11660000000000009,-0.0831425830930682
-0.1176000000000001,-0.08356699648302772
-0.1186000000000001,-0.08396311564698994
-0.1196000000000001,-0.08431679347195618
-0.1206000000000001,-0.0847412068619157
-0.1216000000000001,-0.08515147313887655
-0.1226000000000001,-0.08557588652883606
-0.1236000000000001,-0.08600029991879557
-0.1246000000000001,-0.0863681248567605
-0.1256000000000001,-0.08675009690772406
-0.1266000000000001,-0.08714621607168627
-0.1276000000000001,-0.08755648234864712
-0.1286000000000001,-0.08792430728661203
-0.1296000000000001,-0.08827798511157829
-0.1306000000000001,-0.0886458100495432
-0.1316000000000001,-0.08902778210050676
-0.1326000000000001,-0.08942390126446896
-0.1336000000000001,-0.08982002042843118
-0.1346000000000001,-0.09015955114039878
-0.1356000000000001,-0.09052737607836371
-0.1366000000000001,-0.09090934812932726
-0.1376000000000001,-0.09130546729328948
-0.1386000000000001,-0.09164499800525706
-0.1396000000000001,-0.09198452871722468
-0.1406000000000001,-0.09233820654219095
-0.14160000000000011,-0.09270603148015585
-0.14260000000000012,-0.09307385641812077
-0.14360000000000012,-0.09341338713008837
-0.14460000000000012,-0.09373877072905733
-0.14560000000000012,-0.0940641543280263
-0.14660000000000012,-0.0944036850399939
-0.14760000000000012,-0.0947432157519615
-0.14860000000000012,-0.09506859935093047
-0.14960000000000012,-0.09537983583690077
-0.15060000000000012,-0.09569107232287108
-0.15160000000000012,-0.09600230880884139
-0.15260000000000012,-0.09634183952080899
-0.15360000000000013,-0.0966530760067793
-0.15460000000000013,-0.09693601826675231
-0.15560000000000013,-0.09720481341372668
-0.15660000000000013,-0.09750190278669833
-0.15760000000000013,-0.09781313927266864
-0.15860000000000013,-0.098081934419643
-0.15960000000000002,-0.098364876679616
-0.16060000000000002,-0.09863367182659036
-0.16160000000000002,-0.09888831986056607
-0.16260000000000002,-0.09918540923353773
-0.16360000000000002,-0.09944005726751343
-0.16460000000000002,-0.09968055818849049
-0.16560000000000002,-0.09996350044846349
-0.16660000000000003,-0.10026058982143515
-0.16760000000000003,-0.10052938496840952
-0.16860000000000003,-0.10075573877638791
-0.16960000000000003,-0.10096794547136766
-0.17060000000000003,-0.10119429927934608
-0.17160000000000003,-0.10142065308732448
-0.17260000000000003,-0.10166115400830154
-0.17360000000000003,-0.10188750781627993
-0.17460000000000003,-0.10208556739826105
-0.17560000000000003,-0.10228362698024217
-0.17660000000000003,-0.10248168656222324
-0.17760000000000004,-0.10270804037020166
-0.17860000000000004,-0.10290609995218276
-0.17960000000000004,-0.10309001242116521
-0.18060000000000004,-0.10324563066415038
-0.18160000000000004,-0.10344369024613147
-0.18260000000000004,-0.10364174982811258
-0.18360000000000004,-0.10379736807109774
-0.18460000000000004,-0.10396713342708154
-0.18560000000000004,-0.1041227516700667
-0.18660000000000004,-0.1042925170260505
-0.18760000000000004,-0.10446228238203431
-0.18860000000000005,-0.10460375351202081
-0.18960000000000005,-0.1047452246420073
-0.19060000000000005,-0.10490084288499248
-0.19160000000000005,-0.10502816690198033
-0.19260000000000005,-0.10519793225796412
-0.19360000000000005,-0.10533940338795064
-0.19460000000000005,-0.10546672740493848
-0.19560000000000005,-0.10557990430892769
-0.19660000000000005,-0.10570722832591554
-0.19760000000000005,-0.1058628465689007
-0.19860000000000005,-0.1059760234728899
-0.19960000000000006,-0.10607505326388045
-0.20060000000000006,-0.10617408305487101
-0.20160000000000006,-0.10627311284586156
-0.20260000000000006,-0.10638628974985076
-0.20360000000000006,-0.10649946665383996
-0.20460000000000006,-0.10658434933183186
-0.20560000000000006,-0.10665508489682511
-0.20660000000000006,-0.10673996757481702
-0.20760000000000006,-0.10683899736580757
-0.20860000000000006,-0.10692388004379948
-0.20960000000000006,-0.10698046849579408
-0.21060000000000006,-0.10707949828678462
-0.21160000000000007,-0.10712193962578058
-0.21260000000000007,-0.10720682230377249
-0.21360000000000007,-0.10730585209476304
-0.21460000000000007,-0.10733414632076034
-0.21560000000000007,-0.10739073477275493
-0.21660000000000007,-0.10746147033774818
-0.21760000000000007,-0.10756050012873873
-0.21860000000000007,-0.10761708858073335
-0.21960000000000007,-0.10764538280673064
-0.22060000000000007,-0.10770197125872524
-0.22160000000000007,-0.10771611837172389
-0.22260000000000008,-0.1078010010497158
-0.22360000000000008,-0.1078292952757131
-0.22460000000000008,-0.10787173661470904
-0.22560000000000008,-0.1078858837277077
-0.22660000000000008,-0.10792832506670365
-0.22760000000000008,-0.1079990606316969
-0.22860000000000008,-0.10801320774469556
-0.22960000000000008,-0.10804150197069286
-0.23060000000000008,-0.1080839433096888
-0.23160000000000008,-0.1080839433096888
-0.23260000000000008,-0.1081405317616834
-0.23360000000000009,-0.10815467887468207
-0.2346000000000001,-0.10816882598768068
-0.2356000000000001,-0.10818297310067936
-0.2366000000000001,-0.10819712021367801
-0.2376000000000001,-0.10825370866567262
-0.2386000000000001,-0.10829615000466856
-0.2396000000000001,-0.10828200289166989
-0.2406000000000001,-0.10829615000466856
-0.2416000000000001,-0.10832444423066585
-0.2426000000000001,-0.1083668855696618
-0.2436000000000001,-0.10839517979565912
-0.2446000000000001,-0.10845176824765372
-0.2456000000000001,-0.10846591536065237
-0.2466000000000001,-0.10846591536065237
-0.2476000000000001,-0.10848006247365101
-0.2486000000000001,-0.10848006247365101
-0.2496000000000001,-0.10845176824765372
-0.2506000000000001,-0.10845176824765372
-0.2516000000000001,-0.10845176824765372
-0.2526000000000001,-0.10848006247365101
-0.2536000000000001,-0.10849420958664967
-0.2546000000000001,-0.10846591536065237
-0.2556000000000001,-0.10845176824765372
-0.2566000000000001,-0.10848006247365101
-0.2576000000000001,-0.10849420958664967
-0.2586000000000001,-0.10849420958664967
-0.2596000000000001,-0.10848006247365101
-0.2606000000000001,-0.10845176824765372
-0.2616000000000001,-0.10843762113465506
-0.2626000000000001,-0.10849420958664967
-0.2636000000000001,-0.10849420958664967
-0.2646000000000001,-0.10848006247365101
-0.2656000000000001,-0.10845176824765372
-0.2666000000000001,-0.10848006247365101
-0.2676000000000001,-0.10850835669964831
-0.2686000000000001,-0.10850835669964831
-0.2696000000000001,-0.10849420958664967
-0.2706000000000001,-0.10848006247365101
-0.2716000000000001,-0.10846591536065237
-0.2726000000000001,-0.10849420958664967
-0.2736000000000001,-0.10849420958664967
-0.2746000000000001,-0.10848006247365101
-0.2756000000000001,-0.10848006247365101
-0.2766000000000001,-0.10848006247365101
-0.2776000000000001,-0.10849420958664967
-0.2786000000000001,-0.10850835669964831
-0.2796000000000001,-0.10850835669964831
-0.2806000000000001,-0.10849420958664967
-0.28160000000000013,-0.10850835669964831
-0.28260000000000013,-0.10856494515164292
-0.28360000000000013,-0.10859323937764022
-0.2846,-0.10856494515164292
-0.2856,-0.10856494515164292
-0.2866,-0.10857909226464157
-0.2876,-0.10859323937764022
-0.2886,-0.10860738649063886
-0.2896,-0.10859323937764022
-0.2906,-0.10859323937764022
-0.2916,-0.10859323937764022
-0.2926,-0.10863568071663617
-0.2936,-0.10866397494263345
-0.29460000000000003,-0.10863568071663617
-0.29560000000000003,-0.10867812205563213
-0.29660000000000003,-0.10881959318561862
-0.29760000000000003,-0.10897521142860378
-0.29860000000000003,-0.10907424121959435
-0.29960000000000003,-0.10907424121959435
-0.30060000000000003,-0.10903179988059837
-0.30160000000000003,-0.10900350565460108
-0.30260000000000004,-0.10901765276759973
-0.30360000000000004,-0.10901765276759973
-0.30460000000000004,-0.10900350565460108
-0.30560000000000004,-0.10900350565460108
-0.30660000000000004,-0.10901765276759973
-0.30760000000000004,-0.10906009410659567
-0.30860000000000004,-0.10907424121959435
-0.30960000000000004,-0.10910253544559163
-0.31060000000000004,-0.10910253544559163
-0.31160000000000004,-0.10910253544559163
-0.31260000000000004,-0.10915912389758622
-0.31360000000000005,-0.10918741812358353
-0.31460000000000005,-0.10920156523658218
-0.31560000000000005,-0.10922985946257947
-0.31660000000000005,-0.10924400657557813
-0.31760000000000005,-0.10930059502757274
-0.31860000000000005,-0.1093430363665687
-0.31960000000000005,-0.10938547770556464
-0.32060000000000005,-0.10939962481856329
-0.32160000000000005,-0.10942791904456058
-0.32260000000000005,-0.10949865460955385
-0.32360000000000005,-0.10954109594854979
-0.32460000000000006,-0.10954109594854979
-0.32560000000000006,-0.10961183151354303
-0.32660000000000006,-0.10964012573954035
-0.32760000000000006,-0.10971086130453359
-0.32860000000000006,-0.1097957439825255
-0.32960000000000006,-0.1098240382085228
-0.33060000000000006,-0.10985233243452008
-0.33160000000000006,-0.1099089208865147
-0.33260000000000006,-0.10995136222551065
-0.33360000000000006,-0.11003624490350256
-0.33460000000000006,-0.1100786862424985
-0.33560000000000006,-0.1101069804684958
-0.33660000000000007,-0.11014942180749175
-0.33760000000000007,-0.11020601025948636
-0.33860000000000007,-0.11026259871148097
-0.33960000000000007,-0.11029089293747825
-0.34060000000000007,-0.11034748138947285
-0.34160000000000007,-0.1103899227284688
-0.34260000000000007,-0.11046065829346206
-0.34360000000000007,-0.11051724674545668
-0.3446000000000001,-0.11055968808445263
-0.3456000000000001,-0.11060212942344858
-0.3466000000000001,-0.11064457076244452
-0.34759999999999996,-0.11071530632743777
-0.3486000000000001,-0.11078604189243102
-0.34959999999999997,-0.11081433611842831
-0.3506000000000001,-0.11085677745742427
-0.35159999999999997,-0.11089921879642024
-0.3526000000000001,-0.11099824858741078
-0.35359999999999997,-0.11104068992640674
-0.3546000000000001,-0.11109727837840132
-0.35559999999999997,-0.11115386683039592
-0.3566000000000001,-0.11116801394339458
-0.3576,-0.11126704373438513
-0.3586000000000001,-0.11132363218637975
-0.3596,-0.11135192641237703
-0.3606000000000001,-0.11140851486437164
-0.3616,-0.11143680909036893
-0.3626000000000001,-0.11152169176836085
-0.3636,-0.11160657444635275
-0.3646000000000001,-0.11163486867235005
-0.3656,-0.111677310011346
-0.3666000000000001,-0.11173389846334059
-0.3676,-0.11180463402833385
-0.3686000000000001,-0.11190366381932441
-0.3696,-0.11194610515832035
-0.3706000000000001,-0.11204513494931091
-0.3716,-0.11210172340130552
-0.3726000000000001,-0.11217245896629877
-0.3736,-0.11224319453129203
-0.3746000000000001,-0.11229978298328659
-0.3756,-0.11234222432228257
-0.3766000000000001,-0.11239881277427716
-0.3776,-0.11246954833927042
-0.3786000000000001,-0.11255443101726233
-0.3796,-0.1126393136952542
-0.3806000000000001,-0.11272419637324613
-0.3816,-0.11278078482524072
-0.3826000000000001,-0.11287981461623127
-0.3836,-0.11296469729422319
-0.3846000000000001,-0.11302128574621777
-0.3856,-0.11306372708521374
-0.3866000000000001,-0.11313446265020698
-0.3876,-0.11323349244119754
-0.3886000000000001,-0.11331837511918944
-0.3896,-0.11337496357118404
-0.3906000000000001,-0.11350228758817188
-0.3916,-0.11398328943012599
-0.3926000000000001,-0.1142379374641017
-0.3936,-0.11428037880309765
-0.3946000000000001,-0.11425208457710037
-0.3956,-0.11422379035110306
-0.3966000000000001,-0.11428037880309765
-0.3976,-0.11437940859408821
-0.3986000000000001,-0.11445014415908147
-0.3996,-0.11452087972407471
-0.4006000000000001,-0.11469064508005854
-0.4016,-0.11481796909704638
-0.4026000000000001,-0.11487455754904098
-0.4036,-0.11494529311403422
-0.4046000000000001,-0.11495944022703289
-0.4056,-0.11505847001802343
-0.40660000000000013,-0.11529897093900049
-0.4076,-0.11573753144195865
-0.40860000000000013,-0.1159214439109411
-0.4096,-0.1159780323629357
-0.41060000000000013,-0.11616194483191816
-0.4116,-0.11626097462290871
-0.41260000000000013,-0.11640244575289523
-0.4136,-0.11651562265688443
-0.41460000000000014,-0.11660050533487633
-0.4156,-0.11668538801286822
-0.41660000000000014,-0.11675612357786147
-0.4176,-0.11686930048185068
-0.41860000000000014,-0.11698247738583989
-0.41960000000000003,-0.1170956542898291
-0.42060000000000014,-0.11720883119381828
-0.42160000000000003,-0.11730786098480883
-0.42260000000000014,-0.117463479227794
-0.42360000000000003,-0.11757665613178321
-0.42460000000000014,-0.11767568592277375
-0.42560000000000003,-0.11778886282676294
-0.42660000000000015,-0.11790203973075215
-0.42760000000000004,-0.11807180508673595
-0.42860000000000015,-0.11819912910372382
-0.42960000000000004,-0.11831230600771302
-0.43060000000000015,-0.11843963002470087
-0.43160000000000004,-0.11855280692869007
-0.43260000000000015,-0.11872257228467388
-0.43360000000000004,-0.11887819052765905
-0.43460000000000015,-0.11900551454464689
-0.43560000000000004,-0.11914698567463339
