Potential V vs RHE, Current mA cm-2
0.013299999999999867,-0.06264341635802383
0.012299999999999978,-0.36216609276544937
0.011299999999999866,-0.5095790102113862
0.010299999999999976,-0.6135602907514663
0.009299999999999864,-0.6991503243933012
0.008299999999999974,-0.7754032634560265
0.007299999999999862,-0.847129126359184
0.006299999999999972,-0.8990490310642308
0.00529999999999986,-0.9537983583690077
0.0042999999999999705,-1.0051523785541088
0.0032999999999998586,-1.0467448907701407
0.0022999999999999687,-1.0884788741161593
0.0012999999999998568,-1.1330422800619078
0.00029999999999996696,-1.1681271202985608
-0.000700000000000145,-1.2012313647154027
-0.0017000000000000348,-1.2431068191914076
-0.0027000000000001467,-1.2766354769982091
-0.0037000000000000366,-1.3142667975746192
-0.0047000000000001485,-1.360244914820233
-0.005700000000000038,-1.420370145064497
-0.00670000000000015,-1.4571526388609877
-0.00770000000000004,-1.512326379555724
-0.008700000000000152,-1.5675001202504606
-0.009700000000000042,-1.6170150157457368
-0.010700000000000154,-1.6637004886412832
-0.011700000000000044,-1.7202889406358846
-0.012700000000000156,-1.771218547431026
-0.013700000000000045,-1.8094157525273817
-0.014700000000000157,-1.8660042045219833
-0.015700000000000047,-1.9126896774175295
-0.01670000000000016,-1.9579604390132106
-0.01770000000000005,-2.013134179707947
-0.01870000000000016,-2.0697226317025486
-0.01970000000000005,-2.127725794997015
-0.020700000000000163,-2.194217226090672
-0.021700000000000053,-2.2649527910839233
-0.022700000000000164,-2.347006046476096
-0.023700000000000054,-2.417741611469348
-0.024700000000000166,-2.506868423360845
-0.025700000000000056,-2.5959952352523423
-0.026700000000000168,-2.670974934145189
-0.027700000000000058,-2.7572723234369563
-0.02870000000000017,-2.836496156229398
-0.02970000000000006,-2.9072317212226504
-0.03070000000000017,-2.9807967088156326
-0.03170000000000006,-3.044458717309559
-0.03270000000000017,-3.1081207258034858
-0.03370000000000006,-3.156220909998897
-0.034700000000000175,-3.211394650693633
-0.035700000000000065,-3.2623242574887747
-0.03670000000000018,-3.2976920399854004
-0.03770000000000007,-3.3387186676814866
-0.03870000000000018,-3.3854041405770325
-0.03970000000000007,-3.4165277891740633
-0.04070000000000018,-3.4448220151713644
-0.04170000000000007,-3.4886780654671803
-0.04270000000000018,-3.5212164253640763
-0.04370000000000007,-3.543851806161917
-0.044700000000000184,-3.579219588658543
-0.045700000000000074,-3.6145873711551686
-0.046700000000000186,-3.6329786180534143
-0.047700000000000076,-3.6683464005500404
-0.04870000000000019,-3.7037141830466664
-0.04970000000000008,-3.747570233342482
-0.05070000000000019,-3.780108593239378
-0.05170000000000008,-3.833867622634249
-0.05270000000000019,-3.889041363328986
-0.05370000000000008,-3.9286532797252063
-0.05470000000000019,-3.9979741334185936
-0.05570000000000008,-4.054562585413195
-0.056700000000000195,-4.101248058308742
-0.057700000000000085,-4.1564217990034775
-0.058700000000000196,-4.211595539698214
-0.059700000000000086,-4.2526221673943
-0.0607000000000002,-4.279501682091736
-0.06170000000000009,-4.323357732387552
-0.0627000000000002,-4.354481380984582
-0.06370000000000009,-4.361554937483908
-0.0647000000000002,-4.379946184382153
-0.06570000000000009,-4.398337431280399
-0.0667000000000002,-4.391263874781075
-0.0677000000000001,-4.396922719980535
-0.0687000000000002,-4.405410987779724
-0.0697000000000001,-4.396922719980535
-0.07070000000000021,-4.384190318281749
-0.0717000000000001,-4.378531473082289
-0.07270000000000021,-4.375702050482558
-0.0737000000000001,-4.358725514884178
-0.07470000000000021,-4.347407824485257
-0.0757000000000001,-4.3403342679859325
-0.07670000000000021,-4.321943021087687
-0.0777000000000001,-4.303551774189442
-0.07870000000000021,-4.303551774189442
-0.0797000000000001,-4.285160527291196
-0.08070000000000022,-4.26393985779322
-0.0817000000000001,-4.259695723893626
-0.08270000000000022,-4.251207456094435
-0.08370000000000011,-4.229986786596459
-0.08470000000000022,-4.22149851879727
-0.08570000000000011,-4.214424962297944
-0.08670000000000022,-4.201692560599159
-0.08770000000000011,-4.1833013137009125
-0.08870000000000022,-4.181886602401049
-0.08970000000000011,-4.167739489402398
-0.09070000000000022,-4.143689397304692
-0.09170000000000011,-4.140859974704963
-0.09270000000000023,-4.135201129505503
-0.09370000000000012,-4.111151037407797
-0.09470000000000023,-4.109736326107932
-0.09570000000000012,-4.099833347008876
-0.09670000000000023,-4.089930367909821
-0.09770000000000012,-4.080027388810766
-0.09870000000000023,-4.072953832311441
-0.09970000000000012,-4.0644655645122505
-0.10070000000000023,-4.057392008012925
-0.10170000000000012,-4.04748902891387
-0.10270000000000024,-4.043244895014275
-0.10370000000000013,-4.029097782015624
-0.10470000000000024,-4.027683070715759
-0.10570000000000013,-4.030512493315489
-0.10670000000000024,-4.01070653511738
-0.10770000000000013,-4.002218267318188
-0.10870000000000024,-4.009291823817514
-0.10970000000000013,-3.995144710818863
-0.11070000000000024,-3.9852417317198086
-0.11170000000000013,-3.9852417317198086
-0.11270000000000002,-3.988071154319539
-0.11370000000000013,-3.979582886520348
-0.11470000000000002,-3.973924041320888
-0.11570000000000014,-3.979582886520348
-0.11670000000000003,-3.9668504848215624
-0.11770000000000014,-3.9640210622218324
-0.11870000000000003,-3.9725093300210226
-0.11970000000000014,-3.962606350921967
-0.12070000000000003,-3.9597769283222375
-0.12170000000000014,-3.9597769283222375
-0.12270000000000003,-3.958362217022373
-0.12370000000000014,-3.952703371822913
-0.12470000000000003,-3.9512886605230477
-0.12570000000000014,-3.9541180831227782
-0.12670000000000003,-3.9541180831227782
-0.12770000000000015,-3.944215104023722
-0.12870000000000004,-3.958362217022373
-0.12970000000000015,-3.956947505722508
-0.13070000000000004,-3.944215104023722
-0.13170000000000015,-3.9498739492231825
-0.13270000000000004,-3.961191639622102
-0.13370000000000015,-3.944215104023722
-0.13470000000000004,-3.9555327944226426
-0.13570000000000015,-3.956947505722508
-0.13670000000000004,-3.9484592379233177
-0.13770000000000016,-3.9555327944226426
-0.13870000000000005,-3.9668504848215624
-0.13970000000000016,-3.9597769283222375
-0.14070000000000005,-3.9640210622218324
-0.14170000000000016,-3.965435773521698
-0.14270000000000005,-3.979582886520348
-0.14370000000000016,-3.969679907421293
-0.14470000000000005,-3.975338752620753
-0.14570000000000016,-3.9894858656194034
-0.14670000000000005,-3.988071154319539
-0.14770000000000016,-3.9838270204199433
-0.14870000000000005,-3.999388844718459
-0.14970000000000017,-3.999388844718459
-0.15070000000000006,-3.999388844718459
-0.15170000000000017,-4.01070653511738
-0.15270000000000006,-4.019194802916569
-0.15370000000000017,-4.014950669016974
-0.15470000000000006,-4.0220242255163
-0.15570000000000017,-4.03900076111468
-0.15670000000000006,-4.037586049814815
-0.15770000000000017,-4.03900076111468
-0.15870000000000006,-4.060221430612655
-0.15970000000000018,-4.06163614191252
-0.16070000000000007,-4.063050853212385
-0.16170000000000018,-4.074368543611305
-0.16270000000000007,-4.091345079209686
-0.16370000000000018,-4.09275979050955
-0.16470000000000007,-4.108321614808066
-0.16570000000000018,-4.1238834391065815
-0.16670000000000007,-4.1238834391065815
-0.16770000000000018,-4.1295422843060425
-0.16870000000000007,-4.142274686004828
-0.16970000000000018,-4.153592376403748
-0.17070000000000007,-4.157836510303343
-0.17170000000000019,-4.174813045901724
-0.17270000000000008,-4.187545447600509
-0.1737000000000002,-4.191789581500104
-0.17470000000000008,-4.20735140579862
-0.1757000000000002,-4.218669096197539
-0.17670000000000008,-4.2285720752965945
-0.1777000000000002,-4.239889765695515
-0.17870000000000008,-4.256866301293895
-0.1797000000000002,-4.272428125592412
-0.18070000000000008,-4.276672259492005
-0.1817000000000002,-4.299307640289847
-0.18270000000000008,-4.3205283097878215
-0.1837000000000002,-4.324772443687417
-0.1847000000000001,-4.347407824485257
-0.1857000000000002,-4.374287339182693
-0.1867000000000001,-4.385605029581614
-0.1877000000000002,-4.398337431280399
-0.1887000000000001,-4.425216945977835
-0.1897000000000002,-4.445022904175945
-0.1907000000000001,-4.459170017174596
-0.1917000000000001,-4.480390686672571
-0.19269999999999998,-4.507270201370006
-0.1937000000000001,-4.515758469169198
-0.19469999999999998,-4.538393849967037
-0.1957000000000001,-4.566688075964338
-0.19669999999999999,-4.585079322862584
-0.1977000000000001,-4.607714703660425
-0.1987,-4.640253063557321
-0.1997000000000001,-4.66005902175543
-0.2007,-4.684109113853137
-0.2017000000000001,-4.712403339850438
-0.2027,-4.739282854547873
-0.2037000000000001,-4.763332946645578
-0.2047,-4.793041883942744
-0.2057000000000001,-4.829824377739236
-0.2067,-4.856703892436671
-0.2077000000000001,-4.876509850634781
-0.2087,-4.918951189630732
-0.2097000000000001,-4.954318972127359
-0.2107,-4.968466085126009
-0.2117000000000001,-5.0094927128220945
-0.2127,-5.046275206618586
-0.2137000000000001,-5.070325298716291
-0.2147,-5.114181349012108
-0.2157000000000001,-5.175013934906304
-0.2167,-5.203308160903605
-0.21770000000000012,-5.240090654700095
-0.2187,-5.282531993696048
-0.21970000000000012,-5.326388043991862
-0.2207,-5.361755826488489
-0.22170000000000012,-5.40419716548444
-0.2227,-5.4551267722795815
-0.22370000000000012,-5.4947386886758025
-0.2247,-5.540009450271484
-0.22570000000000012,-5.600842036165679
-0.2267,-5.639039241262036
-0.22770000000000012,-5.689968848057178
-0.22870000000000001,-5.750801433951374
-0.22970000000000013,-5.80031632944665
-0.23070000000000002,-5.849831224941926
-0.23170000000000013,-5.906419676936528
-0.23270000000000002,-5.975740530629915
-0.23370000000000013,-6.026670137425056
-0.23470000000000002,-6.083258589419658
-0.23570000000000013,-6.1624824222121
-0.23670000000000002,-6.219070874206701
-0.2376999999999999,-6.284147594000493
-0.23870000000000002,-6.35629787029361
-0.2396999999999999,-6.421374590087401
-0.24070000000000003,-6.492110155080653
-0.24169999999999991,-6.569919276573231
-0.24270000000000003,-6.651972531965402
-0.24369999999999992,-6.7212933856587895
-0.24470000000000003,-6.797687795851501
-0.24569999999999992,-6.883985185143269
-0.24670000000000003,-6.9646237292355755
-0.24769999999999992,-7.0367740055286925
-0.24870000000000003,-7.134389085219379
-0.24969999999999992,-7.227760031010472
-0.25070000000000003,-7.306983863802915
-0.2516999999999999,-7.414501922592657
-0.25270000000000004,-7.510702290983478
-0.2536999999999999,-7.6083173706741665
-0.25470000000000004,-7.711591295564315
-0.2556999999999999,-7.820524065653922
-0.25670000000000004,-7.922383279244204
-0.25769999999999993,-8.029901338033948
-0.25870000000000004,-8.147322375922746
-0.25969999999999993,-8.26898754771114
-0.26070000000000004,-8.377920317800747
-0.26169999999999993,-8.49958548958914
-0.26270000000000004,-8.629738929176723
-0.26369999999999993,-8.742915833165926
-0.26470000000000005,-8.863166293654455
-0.26569999999999994,-9.004637423640958
-0.26670000000000005,-9.140449708428003
-0.26769999999999994,-9.276261993215044
-0.26870000000000005,-9.423391968401008
-0.26969999999999994,-9.569107232287108
-0.27070000000000005,-9.70774893967388
-0.27169999999999994,-9.85912304875944
-0.27270000000000005,-10.020400136944055
-0.27369999999999994,-10.174603668629343
-0.27470000000000006,-10.327392489014768
-0.27569999999999995,-10.509890246697358
-0.27670000000000006,-10.661264355782917
-0.27769999999999995,-10.833859134366449
-0.27870000000000006,-11.014942180749173
-0.27969999999999995,-11.194610515832036
-0.28070000000000006,-11.368620005715435
-0.28169999999999995,-11.559606031197214
-0.28270000000000006,-11.754836190578589
-0.28369999999999995,-11.941578082160774
-0.28470000000000006,-12.129734685042823
-0.28569999999999995,-12.340526668722715
-0.28670000000000007,-12.537171539403955
-0.28769999999999996,-12.735231121385059
-0.28870000000000007,-12.955926084164007
-0.28969999999999996,-13.173791624343222
-0.29070000000000007,-13.383168896723246
-0.29169999999999996,-13.606693282101922
-0.29270000000000007,-13.842950069179384
-0.29369999999999996,-14.0608156093586
-0.2947000000000001,-14.288584128636872
-0.29569999999999996,-14.529085049613924
-0.2967000000000001,-14.769585970590983
-0.29769999999999996,-14.995939778569388
-0.2987000000000001,-15.264734925543747
-0.29969999999999997,-15.519382959519453
-0.3007000000000001,-15.759883880496508
-0.30169999999999997,-16.014531914472215
-0.3027000000000001,-16.28332706144657
-0.30369999999999997,-16.55212220842093
-0.3047000000000001,-16.806770242396635
-0.30569999999999997,-17.089712502369647
-0.3067000000000001,-17.34436053634535
-0.3077,-17.627302796318357
-0.3087000000000001,-17.910245056291366
-0.3097,-18.207334429263025
-0.3107000000000001,-18.504423802234676
-0.3117,-18.80151317520634
-0.3127000000000001,-19.112749661176647
-0.3137,-19.395691921149652
-0.3147000000000001,-19.70692840711996
-0.3157,-20.03231200608892
-0.3167000000000001,-20.329401379060574
-0.3177,-20.654784978029536
-0.3187000000000001,-20.980168576998494
-0.3197,-21.30555217596745
-0.3207000000000001,-21.63093577493641
-0.3217,-21.97046648690402
-0.3227000000000001,-22.309997198871628
-0.3237,-22.649527910839236
-0.3247000000000001,-22.989058622806844
-0.3257,-23.356883560771752
-0.3267000000000001,-23.710561385738018
-0.3277,-24.050092097705623
-0.3287000000000001,-24.44621126166783
-0.3297,-24.814036199632742
-0.3307000000000001,-25.167714024599
-0.3317,-25.535538962563912
-0.3327000000000001,-25.90336390052882
-0.3337,-26.27118883849373
-0.3347000000000001,-26.63901377645864
-0.3357,-27.035132940420848
-0.3367000000000001,-27.417104991384413
-0.3377,-27.813224155346617
-0.3387000000000001,-28.19519620631018
-0.3397,-28.591315370272387
-0.3407000000000001,-28.987434534234602
-0.3417,-29.39770081119546
-0.3427000000000001,-29.836261314153624
-0.3437,-30.246527591114486
-0.3447000000000001,-30.685088094072643
-0.3457,-31.12364859703081
-0.3467000000000001,-31.54806198699032
-0.3477,-31.972475376949827
-0.3487000000000001,-32.42518299290664
-0.3497,-32.892037721862096
-0.3507000000000001,-33.302303998822964
-0.3517,-33.755011614779775
-0.3527000000000001,-34.221866343735236
-0.3537,-34.67457395969205
-0.3547000000000001,-35.12728157564886
-0.3557,-35.608283417602976
-0.35670000000000013,-36.06099103355979
-0.3577,-36.54199287551389
-0.35870000000000013,-37.037141830466666
-0.3597,-37.51814367242077
-0.36070000000000013,-38.02743974037218
-0.3617,-38.5367358083236
-0.3626999999999999,-39.03188476327636
-0.3637,-39.52703371822913
-0.3646999999999999,-40.00803556018324
-0.3657,-40.51733162813464
-0.3666999999999999,-41.02662769608606
-0.3677,-41.52177665103883
-0.3686999999999999,-42.04521983198889
-0.36970000000000003,-42.582810125937606
-0.3706999999999999,-43.106253306887666
-0.37170000000000003,-43.643843600836384
-0.3726999999999999,-44.195581007783744
-0.37370000000000003,-44.73317130173246
-0.3746999999999999,-45.29905582167847
-0.37570000000000003,-45.86494034162449
-0.3766999999999999,-46.41667774857186
-0.37770000000000004,-46.96841515551922
-0.3786999999999999,-47.534299675465235
-0.37970000000000004,-48.100184195411245
-0.3806999999999999,-48.65192160235861
-0.38170000000000004,-49.24610034830193
-0.38269999999999993,-49.84027909424525
-0.38370000000000004,-50.43445784018856
-0.38469999999999993,-51.028636586131874
-0.38570000000000004,-51.65110955807249
-0.38669999999999993,-51.14181349012107
-0.38570000000000004,-49.71295507725739
-0.38469999999999993,-48.68021582835591
-0.38370000000000004,-47.84553616143554
-0.38269999999999993,-47.067444946509774
-0.38170000000000004,-46.37423640957591
-0.3806999999999999,-45.75176343763528
-0.37970000000000004,-45.10099623969737
-0.3786999999999999,-44.4643761547581
-0.37770000000000004,-43.87019740881479
-0.3766999999999999,-43.26187154987282
-0.37570000000000003,-42.667692803929505
-0.3746999999999999,-42.073514057986195
-0.37370000000000003,-41.49348242504152
-0.3726999999999999,-40.8993036790982
-0.37170000000000003,-40.33341915915219
-0.3706999999999999,-39.78168175220483
-0.36970000000000003,-39.21579723225882
-0.3686999999999999,-38.6499127123128
-0.3677,-38.11232241836409
-0.3666999999999999,-37.56058501141672
-0.3657,-37.00884760446935
-0.3646999999999999,-36.47125731052064
-0.3637,-35.96196124256923
-0.3626999999999999,-35.45266517461782
-0.3617,-34.92922199366775
-0.36070000000000013,-34.4057788127177
-0.3597,-33.88233563176763
-0.35870000000000013,-33.358892450817564
-0.3577,-32.8637434958648
-0.35670000000000013,-32.340300314914735
-0.3557,-31.816857133964678
-0.3547000000000001,-31.335855292010564
-0.3537,-30.854853450056453
-0.3527000000000001,-30.359704495103685
-0.3517,-29.892849766148224
-0.3507000000000001,-29.42599503719276
-0.3497,-28.959140308237306
-0.3487000000000001,-28.506432692280487
-0.3477,-28.05372507632368
-0.3467000000000001,-27.601017460366865
-0.3457,-27.134162731411404
-0.3447000000000001,-26.709749341451893
-0.3437,-26.27118883849373
-0.3427000000000001,-25.81848122253692
-0.3417,-25.39406783257741
-0.3407000000000001,-24.969654442617898
-0.3397,-24.545241052658387
-0.3387000000000001,-24.120827662698876
-0.3377,-23.724708498736668
-0.3367000000000001,-23.300295108777156
-0.3357,-22.904175944814945
-0.3347000000000001,-22.508056780852733
-0.3337,-22.111937616890522
-0.3327000000000001,-21.71581845292831
-0.3317,-21.333846401964752
-0.3307000000000001,-20.95187435100119
-0.3297,-20.569902300037633
-0.3287000000000001,-20.17378313607542
-0.3277,-19.820105311109163
-0.3267000000000001,-19.4381332601456
-0.3257,-19.070308322180697
-0.3247000000000001,-18.716630497214435
-0.3237,-18.362952672248177
-0.3227000000000001,-17.995127734283265
-0.3217,-17.655597022315657
-0.3207000000000001,-17.316066310348052
-0.3197,-16.97653559838044
-0.3187000000000001,-16.651151999411482
-0.3177,-16.325768400442524
-0.3167000000000001,-15.986237688474914
-0.3157,-15.646706976507305
-0.3147000000000001,-15.335470490536997
-0.3137,-15.02423400456669
-0.3127000000000001,-14.69885040559773
-0.3117,-14.387613919627421
-0.3107000000000001,-14.089109835355902
-0.3097,-13.77787334938559
-0.3087000000000001,-13.473710419914608
-0.3077,-13.172376913043358
-0.3067000000000001,-12.879531673971293
-0.30569999999999997,-12.5838570122995
-0.3047000000000001,-12.295255907127034
-0.30369999999999997,-12.013728358453893
-0.3027000000000001,-11.716638985482234
-0.30169999999999997,-11.439355570708686
-0.3007000000000001,-11.163486867235004
-0.29969999999999997,-10.879129895962132
-0.2987000000000001,-10.613164171587506
-0.29769999999999996,-10.351442581112472
-0.2967000000000001,-10.082647434138115
-0.29569999999999996,-9.822340554962949
-0.2947000000000001,-9.563448387087647
-0.29369999999999996,-9.32011804351086
-0.29270000000000007,-9.054152319136236
-0.29169999999999996,-8.80799255295972
-0.29070000000000007,-8.573150477182121
-0.28969999999999996,-8.328405422305472
-0.28870000000000007,-8.085075078728684
-0.28769999999999996,-7.864380115949738
-0.28670000000000007,-7.619635061073087
-0.28569999999999995,-7.384792985295491
-0.28470000000000006,-7.16268331121668
-0.28369999999999995,-6.934914791938409
-0.28270000000000006,-6.712805117859599
-0.28169999999999995,-6.500598422879844
-0.28070000000000006,-6.289806439199953
-0.27969999999999995,-6.077599744220197
-0.27870000000000006,-5.869637183140037
-0.27769999999999995,-5.677236446358393
-0.27670000000000006,-5.466444462678503
-0.27569999999999995,-5.257067190298477
-0.27470000000000006,-5.067495876116562
-0.27369999999999994,-4.875095139334916
-0.27270000000000005,-4.672791423454216
-0.27169999999999994,-4.490293665771627
-0.27070000000000005,-4.307795908089036
-0.26969999999999994,-4.118224593907121
-0.26870000000000005,-3.945629815323587
-0.26769999999999994,-3.7758644593397825
-0.26670000000000005,-3.5877078564577327
-0.26569999999999994,-3.4193572117737934
