Potential V vs RHE, Current mA cm-2
0.013299999999999867,-0.26384365742482935
0.012299999999999978,-1.1798692240874404
0.011299999999999866,-1.9650339955125358
0.010299999999999976,-2.662486666345999
0.009299999999999864,-3.1859298472960624
0.008299999999999974,-3.7093730282461257
0.007299999999999862,-4.102662769608606
0.006299999999999972,-4.450681749375406
0.00529999999999986,-4.756259390146253
0.0042999999999999705,-5.017980980621284
0.0032999999999998586,-5.279702571096316
0.0022999999999999687,-5.497568111275533
0.0012999999999998568,-5.672992312458796
0.00029999999999996696,-5.847001802342197
-0.000700000000000145,-5.977155241929781
-0.0017000000000000348,-6.108723392817228
-0.0027000000000001467,-6.152579443113044
-0.0037000000000000366,-6.282732882700628
-0.0047000000000001485,-6.326588932996443
-0.005700000000000038,-6.414301033588076
-0.00670000000000015,-6.500598422879844
-0.00770000000000004,-6.54445447317566
-0.008700000000000152,-6.632166573767292
-0.009700000000000042,-6.6760226240631075
-0.010700000000000154,-6.719878674358924
-0.011700000000000044,-6.762320013354876
-0.012700000000000156,-6.806176063650692
-0.013700000000000045,-6.806176063650692
-0.014700000000000157,-6.850032113946507
-0.015700000000000047,-6.850032113946507
-0.01670000000000016,-6.893888164242324
-0.01770000000000005,-6.893888164242324
-0.01870000000000016,-6.893888164242324
-0.01970000000000005,-6.93774421453814
-0.020700000000000163,-6.93774421453814
-0.021700000000000053,-6.981600264833956
-0.022700000000000164,-6.981600264833956
-0.023700000000000054,-6.981600264833956
-0.024700000000000166,-7.024041603829907
-0.025700000000000056,-6.981600264833956
-0.026700000000000168,-7.024041603829907
-0.027700000000000058,-7.024041603829907
-0.02870000000000017,-7.024041603829907
-0.02970000000000006,-7.024041603829907
-0.03070000000000017,-7.024041603829907
-0.03170000000000006,-7.024041603829907
-0.03270000000000017,-7.067897654125724
-0.03370000000000006,-7.067897654125724
-0.034700000000000175,-7.067897654125724
-0.035700000000000065,-7.067897654125724
-0.03670000000000018,-7.067897654125724
-0.03770000000000007,-7.067897654125724
-0.03870000000000018,-7.067897654125724
-0.03970000000000007,-7.067897654125724
-0.04070000000000018,-7.111753704421539
-0.04170000000000007,-7.111753704421539
-0.04270000000000018,-7.111753704421539
-0.04370000000000007,-7.067897654125724
-0.044700000000000184,-7.067897654125724
-0.045700000000000074,-7.067897654125724
-0.046700000000000186,-7.111753704421539
-0.047700000000000076,-7.111753704421539
-0.04870000000000019,-7.111753704421539
-0.04970000000000008,-7.111753704421539
-0.05070000000000019,-7.111753704421539
-0.05170000000000008,-7.111753704421539
-0.05270000000000019,-7.111753704421539
-0.05370000000000008,-7.067897654125724
-0.05470000000000019,-7.067897654125724
-0.05570000000000008,-7.067897654125724
-0.056700000000000195,-7.111753704421539
-0.057700000000000085,-7.111753704421539
-0.058700000000000196,-7.111753704421539
-0.059700000000000086,-7.111753704421539
-0.0607000000000002,-7.111753704421539
-0.06170000000000009,-7.155609754717355
-0.0627000000000002,-7.155609754717355
-0.06370000000000009,-7.155609754717355
-0.0647000000000002,-7.155609754717355
-0.06570000000000009,-7.155609754717355
-0.0667000000000002,-7.155609754717355
-0.0677000000000001,-7.155609754717355
-0.0687000000000002,-7.155609754717355
-0.0697000000000001,-7.155609754717355
-0.07070000000000021,-7.155609754717355
-0.0717000000000001,-7.155609754717355
-0.07270000000000021,-7.155609754717355
-0.0737000000000001,-7.155609754717355
-0.07470000000000021,-7.199465805013171
-0.0757000000000001,-7.199465805013171
-0.07670000000000021,-7.155609754717355
-0.0777000000000001,-7.155609754717355
-0.07870000000000021,-7.155609754717355
-0.0797000000000001,-7.155609754717355
-0.08070000000000022,-7.199465805013171
-0.0817000000000001,-7.199465805013171
-0.08270000000000022,-7.199465805013171
-0.08370000000000011,-7.199465805013171
-0.08470000000000022,-7.199465805013171
-0.08570000000000011,-7.199465805013171
-0.08670000000000022,-7.155609754717355
-0.08770000000000011,-7.155609754717355
-0.08870000000000022,-7.155609754717355
-0.08970000000000011,-7.199465805013171
-0.09070000000000022,-7.199465805013171
-0.09170000000000011,-7.199465805013171
-0.09270000000000023,-7.199465805013171
-0.09370000000000012,-7.155609754717355
-0.09470000000000023,-7.199465805013171
-0.09570000000000012,-7.155609754717355
-0.09670000000000023,-7.199465805013171
-0.09770000000000012,-7.243321855308987
-0.09870000000000023,-7.243321855308987
-0.09970000000000012,-7.243321855308987
-0.10070000000000023,-7.243321855308987
-0.10170000000000012,-7.243321855308987
-0.10270000000000024,-7.243321855308987
-0.10370000000000013,-7.243321855308987
-0.10470000000000024,-7.28576319430494
-0.10570000000000013,-7.243321855308987
-0.10670000000000024,-7.243321855308987
-0.10770000000000013,-7.28576319430494
-0.10870000000000024,-7.28576319430494
-0.10970000000000013,-7.243321855308987
-0.11070000000000024,-7.243321855308987
-0.11170000000000013,-7.28576319430494
-0.11270000000000002,-7.28576319430494
-0.11370000000000013,-7.28576319430494
-0.11470000000000002,-7.28576319430494
-0.11570000000000014,-7.28576319430494
-0.11670000000000003,-7.28576319430494
-0.11770000000000014,-7.28576319430494
-0.11870000000000003,-7.329619244600755
-0.11970000000000014,-7.329619244600755
-0.12070000000000003,-7.329619244600755
-0.12170000000000014,-7.329619244600755
-0.12270000000000003,-7.329619244600755
-0.12370000000000014,-7.329619244600755
-0.12470000000000003,-7.329619244600755
-0.12570000000000014,-7.329619244600755
-0.12670000000000003,-7.37347529489657
-0.12770000000000015,-7.37347529489657
-0.12870000000000004,-7.37347529489657
-0.12970000000000015,-7.329619244600755
-0.13070000000000004,-7.37347529489657
-0.13170000000000015,-7.37347529489657
-0.13270000000000004,-7.37347529489657
-0.13370000000000015,-7.37347529489657
-0.13470000000000004,-7.37347529489657
-0.13570000000000015,-7.37347529489657
-0.13670000000000004,-7.37347529489657
-0.13770000000000016,-7.37347529489657
-0.13870000000000005,-7.37347529489657
-0.13970000000000016,-7.4173313451923875
-0.14070000000000005,-7.4173313451923875
-0.14170000000000016,-7.461187395488204
-0.14270000000000005,-7.461187395488204
-0.14370000000000016,-7.4173313451923875
-0.14470000000000005,-7.4173313451923875
-0.14570000000000016,-7.4173313451923875
-0.14670000000000005,-7.461187395488204
-0.14770000000000016,-7.50504344578402
-0.14870000000000005,-7.461187395488204
-0.14970000000000017,-7.50504344578402
-0.15070000000000006,-7.461187395488204
-0.15170000000000017,-7.461187395488204
-0.15270000000000006,-7.461187395488204
-0.15370000000000017,-7.50504344578402
-0.15470000000000006,-7.50504344578402
-0.15570000000000017,-7.50504344578402
-0.15670000000000006,-7.50504344578402
-0.15770000000000017,-7.5474847847799715
-0.15870000000000006,-7.5474847847799715
-0.15970000000000018,-7.591340835075788
-0.16070000000000007,-7.591340835075788
-0.16170000000000018,-7.5474847847799715
-0.16270000000000007,-7.5474847847799715
-0.16370000000000018,-7.591340835075788
-0.16470000000000007,-7.591340835075788
-0.16570000000000018,-7.635196885371603
-0.16670000000000007,-7.679052935667419
-0.16770000000000018,-7.679052935667419
-0.16870000000000007,-7.679052935667419
-0.16970000000000018,-7.679052935667419
-0.17070000000000007,-7.635196885371603
-0.17170000000000019,-7.679052935667419
-0.17270000000000008,-7.722908985963235
-0.1737000000000002,-7.722908985963235
-0.17470000000000008,-7.722908985963235
-0.1757000000000002,-7.722908985963235
-0.17670000000000008,-7.722908985963235
-0.1777000000000002,-7.722908985963235
-0.17870000000000008,-7.7653503249591855
-0.1797000000000002,-7.809206375255003
-0.18070000000000008,-7.853062425550818
-0.1817000000000002,-7.853062425550818
-0.18270000000000008,-7.896918475846635
-0.1837000000000002,-7.896918475846635
-0.1847000000000001,-7.896918475846635
-0.1857000000000002,-7.896918475846635
-0.1867000000000001,-7.896918475846635
-0.1877000000000002,-7.940774526142452
-0.1887000000000001,-7.940774526142452
-0.1897000000000002,-7.984630576438266
-0.1907000000000001,-8.027071915434218
-0.1917000000000001,-8.027071915434218
-0.19269999999999998,-8.070927965730034
-0.1937000000000001,-8.070927965730034
-0.19469999999999998,-8.11478401602585
-0.1957000000000001,-8.11478401602585
-0.19669999999999999,-8.11478401602585
-0.1977000000000001,-8.11478401602585
-0.1987,-8.158640066321666
-0.1997000000000001,-8.202496116617484
-0.2007,-8.246352166913299
-0.2017000000000001,-8.288793505909249
-0.2027,-8.288793505909249
-0.2037000000000001,-8.288793505909249
-0.2047,-8.332649556205066
-0.2057000000000001,-8.332649556205066
-0.2067,-8.376505606500881
-0.2077000000000001,-8.4203616567967
-0.2087,-8.464217707092514
-0.2097000000000001,-8.508073757388331
-0.2107,-8.508073757388331
-0.2117000000000001,-8.508073757388331
-0.2127,-8.508073757388331
-0.2137000000000001,-8.508073757388331
-0.2147,-8.55051509638428
-0.2157000000000001,-8.638227196975913
-0.2167,-8.68208324727173
-0.21770000000000012,-8.725939297567548
-0.2187,-8.769795347863363
-0.21970000000000012,-8.812236686859313
-0.2207,-8.812236686859313
-0.22170000000000012,-8.85609273715513
-0.2227,-8.85609273715513
-0.22370000000000012,-8.899948787450944
-0.2247,-8.987660888042578
-0.22570000000000012,-9.031516938338395
-0.2267,-9.073958277334345
-0.22770000000000012,-9.073958277334345
-0.22870000000000001,-9.161670377925978
-0.22970000000000013,-9.205526428221793
-0.23070000000000002,-9.24938247851761
-0.23170000000000013,-9.293238528813426
-0.23270000000000002,-9.293238528813426
-0.23370000000000013,-9.335679867809377
-0.23470000000000002,-9.379535918105192
-0.23570000000000013,-9.423391968401008
-0.23670000000000002,-9.511104068992642
-0.2376999999999999,-9.55496011928846
-0.23870000000000002,-9.641257508580225
-0.2396999999999999,-9.685113558876042
-0.24070000000000003,-9.728969609171857
-0.24169999999999991,-9.772825659467674
-0.24270000000000003,-9.81668170976349
-0.24369999999999992,-9.85912304875944
-0.24470000000000003,-9.902979099055257
-0.24569999999999992,-9.99069119964689
-0.24670000000000003,-10.078403300238522
-0.24769999999999992,-10.164700689530287
-0.24870000000000003,-10.208556739826104
-0.24969999999999992,-10.25241279012192
-0.25070000000000003,-10.296268840417738
-0.2516999999999999,-10.340124890713554
-0.25270000000000004,-10.470278330301136
-0.2536999999999999,-10.557990430892769
-0.25470000000000004,-10.644287820184536
-0.2556999999999999,-10.688143870480351
-0.25670000000000004,-10.775855971071984
-0.25769999999999993,-10.819712021367803
-0.25870000000000004,-10.863568071663616
-0.25969999999999993,-10.993721511251199
-0.26070000000000004,-11.037577561547016
-0.26169999999999993,-11.123874950838783
-0.26270000000000004,-11.211587051430415
-0.26369999999999993,-11.255443101726232
-0.26470000000000005,-11.385596541313816
-0.26569999999999994,-11.42945259160963
-0.26670000000000005,-11.56102074249708
-0.26769999999999994,-11.691174182084664
-0.26870000000000005,-11.778886282676295
-0.26969999999999994,-11.86659838326793
-0.27070000000000005,-11.952895772559694
-0.27169999999999994,-12.040607873151327
-0.27270000000000005,-12.12831997374296
-0.27369999999999994,-12.258473413330542
-0.27470000000000006,-12.390041564217992
-0.27569999999999995,-12.432482903213943
-0.27670000000000006,-12.520195003805576
-0.27769999999999995,-12.607907104397206
-0.27870000000000006,-12.73806054398479
-0.27969999999999995,-12.869628694872238
-0.28070000000000006,-12.99978213445982
-0.28169999999999995,-13.13135028534727
-0.28270000000000006,-13.217647674639037
-0.28369999999999995,-13.30535977523067
-0.28470000000000006,-13.349215825526485
-0.28569999999999995,-13.47936926511407
-0.28670000000000007,-13.654793466297335
-0.28769999999999996,-13.784946905884919
-0.28870000000000007,-13.916515056772363
-0.28969999999999996,-14.090524546655764
-0.29070000000000007,-14.217848563643619
-0.29169999999999996,-14.345172580631472
-0.29270000000000007,-14.486643710617974
-0.29369999999999996,-14.57152638860988
-0.2947000000000001,-14.741291744593681
-0.29569999999999996,-14.826174422585586
-0.2967000000000001,-15.01008689156804
-0.29769999999999996,-15.222293586547794
-0.2987000000000001,-15.3920589425316
-0.29969999999999997,-15.575971411514052
-0.3007000000000001,-15.70329542850191
-0.30169999999999997,-15.830619445489761
-0.3027000000000001,-15.91550212348166
-0.30369999999999997,-16.099414592464115
-0.3047000000000001,-16.269179948447924
-0.30569999999999997,-16.53797509542228
-0.3067000000000001,-16.70774045140608
-0.3077,-16.877505807389888
-0.3087000000000001,-17.061418276372343
-0.3097,-17.188742293360193
-0.3107000000000001,-17.316066310348052
-0.3117,-17.4433903273359
-0.3127000000000001,-17.669744135314307
-0.3137,-17.881950830294063
-0.3147000000000001,-18.15074597726842
-0.3157,-18.320511333252224
-0.3167000000000001,-18.49027668923603
-0.3177,-18.674189158218486
-0.3187000000000001,-18.80151317520634
-0.3197,-19.056161209182044
-0.3207000000000001,-19.3249563561564
-0.3217,-19.579604390132108
-0.3227000000000001,-19.848399537106463
-0.3237,-20.01816489309027
-0.3247000000000001,-20.202077362072725
-0.3257,-20.371842718056527
-0.3267000000000001,-20.584049413036283
-0.3277,-20.810403221014692
-0.3287000000000001,-21.065051254990397
-0.3297,-21.333846401964752
-0.3307000000000001,-21.58849443594046
-0.3317,-21.814848243918867
-0.3327000000000001,-21.98461359990267
-0.3337,-22.196820294882425
-0.3347000000000001,-22.46561544185678
-0.3357,-22.72026347583249
-0.3367000000000001,-22.989058622806844
-0.3377,-23.24370665678255
-0.3387000000000001,-23.51250180375691
-0.3397,-23.724708498736668
-0.3407000000000001,-23.951062306715073
-0.3417,-24.24815167968673
-0.3427000000000001,-24.559388165657033
-0.3437,-24.870624651627345
-0.3447000000000001,-25.12527268560305
-0.3457,-25.337479380582806
-0.3467000000000001,-25.563833188561212
-0.3477,-25.86092256153287
-0.3487000000000001,-26.17215904750318
-0.3497,-26.525836872469437
-0.3507000000000001,-26.822926245441096
-0.3517,-27.091721392415455
-0.3527000000000001,-27.34636942639116
-0.3537,-27.572723234369565
-0.3547000000000001,-27.827371268345274
-0.3557,-28.18104909331153
-0.35670000000000013,-28.478138466283188
-0.3577,-28.831816291249446
-0.35870000000000013,-29.100611438223805
-0.3597,-29.35525947219951
-0.36070000000000013,-29.62405461917387
-0.3617,-29.921143992145527
-0.3626999999999999,-30.232380478115836
-0.3637,-30.571911190083444
-0.3646999999999999,-30.88314767605375
-0.3657,-31.19438416202406
-0.3666999999999999,-31.49147353499572
-0.3677,-31.802710020966025
-0.3686999999999999,-32.14224073293363
-0.36970000000000003,-32.45347721890394
-0.3706999999999999,-32.807155043870196
-0.37170000000000003,-33.14668575583781
-0.3726999999999999,-33.54280491980002
-0.37370000000000003,-33.85404140577033
-0.3746999999999999,-34.15113077874198
-0.37570000000000003,-34.377484586720385
-0.3766999999999999,-34.717015298688004
-0.37770000000000004,-35.11313446265021
-0.3786999999999999,-35.55169496560837
-0.37970000000000004,-35.99025546856653
-0.3806999999999999,-36.329786180534136
-0.38170000000000004,-36.64102266650445
-0.38269999999999993,-36.95225915247476
-0.38370000000000004,-37.249348525446415
-0.38469999999999993,-37.60302635041268
-0.38570000000000004,-37.94255706238028
-0.38669999999999993,-38.29623488734655
-0.38770000000000004,-38.6499127123128
-0.38869999999999993,-38.98944342428042
-0.38970000000000005,-39.42800392723857
-0.39069999999999994,-39.86656443019674
-0.39170000000000005,-40.30512493315489
-0.39269999999999994,-40.65880275812115
-0.39370000000000005,-40.91345079209687
-0.39469999999999994,-41.139804600075266
-0.39570000000000005,-41.43689397304693
-0.39669999999999994,-41.79057179801318
-0.39770000000000005,-42.186690961975394
-0.39869999999999994,-42.568663012938956
-0.39970000000000006,-43.007223515897124
-0.40069999999999995,-43.48822535785123
-0.40170000000000006,-43.96922719980534
-0.40269999999999995,-44.3229050247716
-0.40370000000000006,-44.619994397743255
-0.40469999999999995,-44.88878954471762
-0.40570000000000006,-45.18587891768927
-0.40669999999999995,-45.624439420647434
-0.40770000000000006,-46.19032394059345
-0.40869999999999995,-46.75620846053947
-0.40970000000000006,-47.19476896349763
-0.41069999999999995,-47.54844678846388
-0.41170000000000007,-47.80309482243959
-0.41269999999999996,-48.156772647405845
-0.41370000000000007,-48.45386202037751
-0.41469999999999996,-48.89242252333566
-0.41570000000000007,-49.41586570428573
-0.41669999999999996,-49.939308885235796
-0.41770000000000007,-50.46275206618586
-0.41869999999999996,-50.81642989115212
-0.4197000000000001,-51.127666377122424
-0.42069999999999996,-51.46719708909004
-0.4217000000000001,-51.86331625305225
-0.42269999999999996,-52.34431809500636
-0.4237000000000001,-52.86776127595642
-0.42469999999999997,-53.476087134898386
-0.4257000000000001,-53.91464763785655
-0.42669999999999997,-54.2117370108282
-0.4277000000000001,-54.480532157802564
-0.42869999999999997,-54.834209982768826
-0.4297000000000001,-55.31521182472294
-0.43069999999999997,-55.881096344668954
-0.4317000000000001,-56.44698086461496
-0.4327,-56.927982706569075
-0.4337000000000001,-57.26751341853669
-0.4347,-57.62119124350295
-0.4357000000000001,-58.017310407465146
-0.4367,-58.54075358841522
-0.4377000000000001,-59.10663810836124
-0.4387,-59.587639950315335
-0.4397000000000001,-60.02620045327351
-0.4407,-60.40817250423707
-0.4417000000000001,-60.889174346191176
-0.4427,-61.37017618814529
-0.4437000000000001,-61.89361936909536
-0.4447,-62.37462121104946
-0.4457000000000001,-62.81318171400764
-0.4467,-63.20930087796983
-0.4477000000000001,-63.54883158993744
-0.4487,-64.02983343189156
-0.4497000000000001,-64.55327661284163
-0.4507,-65.11916113278764
-0.4517000000000001,-65.68504565273366
-0.4527,-66.12360615569182
-0.4537000000000001,-66.56216665864997
-0.4547,-66.9582858226122
-0.4557000000000001,-67.52417034255821
-0.4567,-68.04761352350828
-0.4577000000000001,-68.52861536546239
-0.4587,-69.05205854641244
-0.4597000000000001,-69.61794306635846
-0.4607,-70.26871026429637
-0.4617000000000001,-70.8345947842424
-0.4627,-71.31559662619651
-0.4637000000000001,-71.66927445116276
-0.4647,-72.00880516313036
-0.4657000000000001,-72.48980700508447
-0.4667,-73.0556915250305
-0.4677000000000001,-73.72060583596706
-0.4687,-74.37137303390499
-0.4697000000000001,-74.89481621485504
-0.4707,-75.29093537881725
-0.4717000000000001,-75.63046609078486
-0.4727,-75.94170257675518
-0.4737000000000001,-76.29538040172143
-0.4747,-76.81882358267148
-0.4757000000000001,-77.42714944161345
-0.4767,-78.16279931754329
-0.4777000000000001,-78.8135665154812
-0.4787,-79.2945683574353
-0.4797000000000001,-79.60580484340561
-0.4807,-79.90289421637728
-0.48170000000000013,-80.38389605833139
-0.4827,-80.99222191727335
-0.48370000000000013,-81.74201890620182
-0.4847,-82.43522744313569
-0.48570000000000013,-83.0011119630817
-0.4867,-82.61913991211814
-0.48570000000000013,-81.04881036926795
-0.4847,-79.73312886039348
-0.48370000000000013,-78.77112517648524
-0.4827,-77.99303396155948
-0.48170000000000013,-77.243236972631
-0.4807,-76.42270441870929
-0.4797000000000001,-75.46070073480107
-0.4787,-74.37137303390499
-0.4777000000000001,-73.3669280110008
-0.4767,-72.57468968307639
-0.4757000000000001,-71.8814811461425
-0.4747,-71.31559662619651
-0.4737000000000001,-70.74971210625048
-0.4727,-70.01406223032066
-0.4717000000000001,-69.22182390239624
-0.4707,-68.38714423547587
-0.4697000000000001,-67.65149435954605
-0.4687,-66.91584448361623
-0.4677000000000001,-66.20848883368372
-0.4667,-65.5577216357458
-0.4657000000000001,-64.94939577680383
-0.4647,-64.34106991786187
-0.4637000000000001,-63.77518539791585
-0.4627,-63.15271242597524
-0.4617000000000001,-62.501945228037314
-0.4607,-61.7662953521075
-0.4597000000000001,-60.93161568518713
