Potential V vs RHE, Current mA cm-2
0.013299999999999867,-0.26384365742482935
0.012299999999999978,-1.2671569112891135
0.011299999999999866,-2.1390434853959355
0.010299999999999976,-2.924208256821031
0.009299999999999864,-3.623075638954359
0.008299999999999974,-4.276672259492005
0.007299999999999862,-4.9302688800296535
0.006299999999999972,-5.453712060979717
0.00529999999999986,-5.977155241929781
0.0042999999999999705,-6.458157083883892
0.0032999999999998586,-6.850032113946507
0.0022999999999999687,-7.28576319430494
0.0012999999999998568,-7.635196885371603
0.00029999999999996696,-7.984630576438266
-0.000700000000000145,-8.288793505909249
-0.0017000000000000348,-8.594371146680096
-0.0027000000000001467,-8.85609273715513
-0.0037000000000000366,-9.11781432763016
-0.0047000000000001485,-9.379535918105192
-0.005700000000000038,-9.59740145828441
-0.00670000000000015,-9.81668170976349
-0.00770000000000004,-9.946835149351072
-0.008700000000000152,-10.120844639234473
-0.009700000000000042,-10.25241279012192
-0.010700000000000154,-10.382566229709504
-0.011700000000000044,-10.514134380596953
-0.012700000000000156,-10.644287820184536
-0.013700000000000045,-10.775855971071984
-0.014700000000000157,-10.906009410659568
-0.015700000000000047,-10.993721511251199
-0.01670000000000016,-11.081433611842833
-0.01770000000000005,-11.211587051430415
-0.01870000000000016,-11.299299152022046
-0.01970000000000005,-11.343155202317865
-0.020700000000000163,-11.42945259160963
-0.021700000000000053,-11.473308641905447
-0.022700000000000164,-11.56102074249708
-0.023700000000000054,-11.604876792792895
-0.024700000000000166,-11.647318131788847
-0.025700000000000056,-11.691174182084664
-0.026700000000000168,-11.73503023238048
-0.027700000000000058,-11.778886282676295
-0.02870000000000017,-11.778886282676295
-0.02970000000000006,-11.86659838326793
-0.03070000000000017,-11.86659838326793
-0.03170000000000006,-11.909039722263879
-0.03270000000000017,-11.952895772559694
-0.03370000000000006,-11.996751822855511
-0.034700000000000175,-12.040607873151327
-0.035700000000000065,-12.040607873151327
-0.03670000000000018,-12.084463923447142
-0.03770000000000007,-12.12831997374296
-0.03870000000000018,-12.170761312738911
-0.03970000000000007,-12.12831997374296
-0.04070000000000018,-12.170761312738911
-0.04170000000000007,-12.170761312738911
-0.04270000000000018,-12.12831997374296
-0.04370000000000007,-12.12831997374296
-0.044700000000000184,-12.170761312738911
-0.045700000000000074,-12.214617363034726
-0.046700000000000186,-12.214617363034726
-0.047700000000000076,-12.258473413330542
-0.04870000000000019,-12.302329463626359
-0.04970000000000008,-12.302329463626359
-0.05070000000000019,-12.302329463626359
-0.05170000000000008,-12.302329463626359
-0.05270000000000019,-12.346185513922174
-0.05370000000000008,-12.302329463626359
-0.05470000000000019,-12.302329463626359
-0.05570000000000008,-12.302329463626359
-0.056700000000000195,-12.302329463626359
-0.057700000000000085,-12.302329463626359
-0.058700000000000196,-12.302329463626359
-0.059700000000000086,-12.302329463626359
-0.0607000000000002,-12.302329463626359
-0.06170000000000009,-12.346185513922174
-0.0627000000000002,-12.346185513922174
-0.06370000000000009,-12.390041564217992
-0.0647000000000002,-12.390041564217992
-0.06570000000000009,-12.390041564217992
-0.0667000000000002,-12.432482903213943
-0.0677000000000001,-12.476338953509758
-0.0687000000000002,-12.476338953509758
-0.0697000000000001,-12.432482903213943
-0.07070000000000021,-12.432482903213943
-0.0717000000000001,-12.390041564217992
-0.07270000000000021,-12.390041564217992
-0.0737000000000001,-12.346185513922174
-0.07470000000000021,-12.390041564217992
-0.0757000000000001,-12.432482903213943
-0.07670000000000021,-12.432482903213943
-0.0777000000000001,-12.476338953509758
-0.07870000000000021,-12.520195003805576
-0.0797000000000001,-12.476338953509758
-0.08070000000000022,-12.476338953509758
-0.0817000000000001,-12.520195003805576
-0.08270000000000022,-12.476338953509758
-0.08370000000000011,-12.476338953509758
-0.08470000000000022,-12.476338953509758
-0.08570000000000011,-12.432482903213943
-0.08670000000000022,-12.432482903213943
-0.08770000000000011,-12.432482903213943
-0.08870000000000022,-12.432482903213943
-0.08970000000000011,-12.476338953509758
-0.09070000000000022,-12.476338953509758
-0.09170000000000011,-12.520195003805576
-0.09270000000000023,-12.520195003805576
-0.09370000000000012,-12.520195003805576
-0.09470000000000023,-12.520195003805576
-0.09570000000000012,-12.520195003805576
-0.09670000000000023,-12.520195003805576
-0.09770000000000012,-12.520195003805576
-0.09870000000000023,-12.520195003805576
-0.09970000000000012,-12.520195003805576
-0.10070000000000023,-12.520195003805576
-0.10170000000000012,-12.520195003805576
-0.10270000000000024,-12.520195003805576
-0.10370000000000013,-12.520195003805576
-0.10470000000000024,-12.56405105410139
-0.10570000000000013,-12.607907104397206
-0.10670000000000024,-12.56405105410139
-0.10770000000000013,-12.607907104397206
-0.10870000000000024,-12.56405105410139
-0.10970000000000013,-12.56405105410139
-0.11070000000000024,-12.520195003805576
-0.11170000000000013,-12.520195003805576
-0.11270000000000002,-12.56405105410139
-0.11370000000000013,-12.520195003805576
-0.11470000000000002,-12.56405105410139
-0.11570000000000014,-12.56405105410139
-0.11670000000000003,-12.607907104397206
-0.11770000000000014,-12.607907104397206
-0.11870000000000003,-12.607907104397206
-0.11970000000000014,-12.651763154693022
-0.12070000000000003,-12.651763154693022
-0.12170000000000014,-12.607907104397206
-0.12270000000000003,-12.607907104397206
-0.12370000000000014,-12.607907104397206
-0.12470000000000003,-12.607907104397206
-0.12570000000000014,-12.651763154693022
-0.12670000000000003,-12.651763154693022
-0.12770000000000015,-12.694204493688973
-0.12870000000000004,-12.694204493688973
-0.12970000000000015,-12.694204493688973
-0.13070000000000004,-12.694204493688973
-0.13170000000000015,-12.694204493688973
-0.13270000000000004,-12.694204493688973
-0.13370000000000015,-12.694204493688973
-0.13470000000000004,-12.73806054398479
-0.13570000000000015,-12.73806054398479
-0.13670000000000004,-12.781916594280606
-0.13770000000000016,-12.781916594280606
-0.13870000000000005,-12.825772644576423
-0.13970000000000016,-12.825772644576423
-0.14070000000000005,-12.825772644576423
-0.14170000000000016,-12.781916594280606
-0.14270000000000005,-12.825772644576423
-0.14370000000000016,-12.781916594280606
-0.14470000000000005,-12.781916594280606
-0.14570000000000016,-12.781916594280606
-0.14670000000000005,-12.825772644576423
-0.14770000000000016,-12.825772644576423
-0.14870000000000005,-12.825772644576423
-0.14970000000000017,-12.869628694872238
-0.15070000000000006,-12.869628694872238
-0.15170000000000017,-12.869628694872238
-0.15270000000000006,-12.955926084164007
-0.15370000000000017,-12.955926084164007
-0.15470000000000006,-12.955926084164007
-0.15570000000000017,-12.99978213445982
-0.15670000000000006,-13.043638184755638
-0.15770000000000017,-13.043638184755638
-0.15870000000000006,-13.087494235051453
-0.15970000000000018,-13.087494235051453
-0.16070000000000007,-13.043638184755638
-0.16170000000000018,-13.043638184755638
-0.16270000000000007,-12.99978213445982
-0.16370000000000018,-12.99978213445982
-0.16470000000000007,-13.043638184755638
-0.16570000000000018,-13.043638184755638
-0.16670000000000007,-13.043638184755638
-0.16770000000000018,-13.13135028534727
-0.16870000000000007,-13.175206335643086
-0.16970000000000018,-13.175206335643086
-0.17070000000000007,-13.261503724934855
-0.17170000000000019,-13.30535977523067
-0.17270000000000008,-13.30535977523067
-0.1737000000000002,-13.30535977523067
-0.17470000000000008,-13.261503724934855
-0.1757000000000002,-13.261503724934855
-0.17670000000000008,-13.217647674639037
-0.1777000000000002,-13.175206335643086
-0.17870000000000008,-13.175206335643086
-0.1797000000000002,-13.175206335643086
-0.18070000000000008,-13.217647674639037
-0.1817000000000002,-13.217647674639037
-0.18270000000000008,-13.261503724934855
-0.1837000000000002,-13.30535977523067
-0.1847000000000001,-13.349215825526485
-0.1857000000000002,-13.3930718758223
-0.1867000000000001,-13.436927926118118
-0.1877000000000002,-13.47936926511407
-0.1887000000000001,-13.47936926511407
-0.1897000000000002,-13.523225315409885
-0.1907000000000001,-13.523225315409885
-0.1917000000000001,-13.567081365705702
-0.19269999999999998,-13.567081365705702
-0.1937000000000001,-13.567081365705702
-0.19469999999999998,-13.567081365705702
-0.1957000000000001,-13.567081365705702
-0.19669999999999999,-13.567081365705702
-0.1977000000000001,-13.610937416001518
-0.1987,-13.610937416001518
-0.1997000000000001,-13.654793466297335
-0.2007,-13.698649516593148
-0.2017000000000001,-13.741090855589102
-0.2027,-13.828802956180734
-0.2037000000000001,-13.872659006476551
-0.2047,-13.916515056772363
-0.2057000000000001,-13.960371107068182
-0.2067,-14.002812446064135
-0.2077000000000001,-14.002812446064135
-0.2087,-14.046668496359947
-0.2097000000000001,-14.046668496359947
-0.2107,-14.090524546655764
-0.2117000000000001,-14.090524546655764
-0.2127,-14.13438059695158
-0.2137000000000001,-14.13438059695158
-0.2147,-14.175407224647667
-0.2157000000000001,-14.217848563643619
-0.2167,-14.26028990263957
-0.21770000000000012,-14.30273124163552
-0.2187,-14.345172580631472
-0.21970000000000012,-14.444202371622024
-0.2207,-14.486643710617974
-0.22170000000000012,-14.529085049613924
-0.2227,-14.57152638860988
-0.22370000000000012,-14.61396772760583
-0.2247,-14.65640906660178
-0.22570000000000012,-14.65640906660178
-0.2267,-14.69885040559773
-0.22770000000000012,-14.69885040559773
-0.22870000000000001,-14.741291744593681
-0.22970000000000013,-14.783733083589633
-0.23070000000000002,-14.826174422585586
-0.23170000000000013,-14.925204213576137
-0.23270000000000002,-15.01008689156804
-0.23370000000000013,-15.05252823056399
-0.23470000000000002,-15.137410908555893
-0.23570000000000013,-15.222293586547794
-0.23670000000000002,-15.222293586547794
-0.2376999999999999,-15.264734925543747
-0.23870000000000002,-15.307176264539699
-0.2396999999999999,-15.307176264539699
-0.24070000000000003,-15.349617603535648
-0.24169999999999991,-15.448647394526201
-0.24270000000000003,-15.491088733522153
-0.24369999999999992,-15.575971411514052
-0.24470000000000003,-15.660854089505953
-0.24569999999999992,-15.70329542850191
-0.24670000000000003,-15.830619445489761
-0.24769999999999992,-15.91550212348166
-0.24870000000000003,-15.972090575476265
-0.24969999999999992,-16.014531914472215
-0.25070000000000003,-16.056973253468165
-0.2516999999999999,-16.099414592464115
-0.25270000000000004,-16.141855931460068
-0.2536999999999999,-16.184297270456018
-0.25470000000000004,-16.269179948447924
-0.2556999999999999,-16.311621287443874
-0.25670000000000004,-16.396503965435777
-0.25769999999999993,-16.495533756426326
-0.25870000000000004,-16.622857773414182
-0.25969999999999993,-16.70774045140608
-0.26070000000000004,-16.792623129397985
-0.26169999999999993,-16.919947146385837
-0.26270000000000004,-17.018976937376394
-0.26369999999999993,-17.061418276372343
-0.26470000000000005,-17.146300954364243
-0.26569999999999994,-17.188742293360193
-0.26670000000000005,-17.2736249713521
-0.26769999999999994,-17.358507649344002
-0.26870000000000005,-17.40094898833995
-0.26969999999999994,-17.48583166633185
-0.27070000000000005,-17.627302796318357
-0.27169999999999994,-17.71218547431026
-0.27270000000000005,-17.839509491298113
-0.27369999999999994,-17.966833508285966
-0.27470000000000006,-18.06586329927652
-0.27569999999999995,-18.19318731626437
-0.27670000000000006,-18.320511333252224
-0.27769999999999995,-18.40539401124413
-0.27870000000000006,-18.53271802823198
-0.27969999999999995,-18.631747819222536
-0.28070000000000006,-18.716630497214435
-0.28169999999999995,-18.843954514202288
-0.28270000000000006,-18.88639585319824
-0.28369999999999995,-19.01371987018609
-0.28470000000000006,-19.155191000172596
-0.28569999999999995,-19.3249563561564
-0.28670000000000007,-19.409839034148305
-0.28769999999999996,-19.579604390132108
-0.28870000000000007,-19.678634181122664
-0.28969999999999996,-19.805958198110513
-0.29070000000000007,-19.93328221509837
-0.29169999999999996,-20.06060623208622
-0.29270000000000007,-20.202077362072725
-0.29369999999999996,-20.329401379060574
-0.2947000000000001,-20.499166735044383
-0.29569999999999996,-20.626490752032236
-0.2967000000000001,-20.810403221014692
-0.29769999999999996,-20.93772723800254
-0.2987000000000001,-21.065051254990397
-0.29969999999999997,-21.248963723972853
-0.3007000000000001,-21.376287740960702
-0.30169999999999997,-21.503611757948562
-0.3027000000000001,-21.63093577493641
-0.30369999999999997,-21.772406904922917
-0.3047000000000001,-21.94217226090672
-0.30569999999999997,-22.069496277894572
-0.3067000000000001,-22.295850085872978
-0.3077,-22.46561544185678
-0.3087000000000001,-22.67782213683654
-0.3097,-22.904175944814945
-0.3107000000000001,-23.073941300798747
-0.3117,-23.24370665678255
-0.3127000000000001,-23.385177786769056
-0.3137,-23.55494314275286
-0.3147000000000001,-23.724708498736668
-0.3157,-23.908620967719123
-0.3167000000000001,-24.078386323702922
-0.3177,-24.24815167968673
-0.3187000000000001,-24.432064148669184
-0.3197,-24.559388165657033
-0.3207000000000001,-24.771594860636792
-0.3217,-24.997948668615198
-0.3227000000000001,-25.252596702590903
-0.3237,-25.478950510569312
-0.3247000000000001,-25.691157205549064
-0.3257,-25.91751101352747
-0.3267000000000001,-26.087276369511276
-0.3277,-26.257041725495082
-0.3287000000000001,-26.483395533473487
-0.3297,-26.69560222845324
-0.3307000000000001,-26.86536758443705
-0.3317,-27.091721392415455
-0.3327000000000001,-27.303928087395207
-0.3337,-27.572723234369565
-0.3347000000000001,-27.827371268345274
-0.3357,-28.09616641531963
-0.3367000000000001,-28.350814449295335
-0.3377,-28.619609596269694
-0.3387000000000001,-28.831816291249446
-0.3397,-29.100611438223805
-0.3407000000000001,-29.31281813320356
-0.3417,-29.482583489187363
-0.3427000000000001,-29.708937297165768
-0.3437,-29.921143992145527
-0.3447000000000001,-30.189939139119886
-0.3457,-30.444587173095588
-0.3467000000000001,-30.71338232006995
-0.3477,-31.010471693041605
-0.3487000000000001,-31.321708179011907
-0.3497,-31.618797551983565
-0.3507000000000001,-31.972475376949827
-0.3517,-32.24127052392419
-0.3527000000000001,-32.49591855789989
-0.3537,-32.764713704874254
-0.3547000000000001,-33.01936173884996
-0.3557,-33.288156885824314
-0.35670000000000013,-33.50036358080407
-0.3577,-33.755011614779775
-0.35870000000000013,-34.06624810075008
-0.3597,-34.377484586720385
-0.36070000000000013,-34.67457395969205
-0.3617,-34.98581044566235
-0.3626999999999999,-35.32534115762997
-0.3637,-35.636577643600276
-0.3646999999999999,-35.94781412957058
-0.3657,-36.244903502542236
-0.3666999999999999,-36.55613998851254
-0.3677,-36.8532293614842
-0.3686999999999999,-37.164465847454515
-0.36970000000000003,-37.51814367242077
-0.3706999999999999,-37.81523304539243
-0.37170000000000003,-38.16891087035869
-0.3726999999999999,-38.522588695324956
-0.37370000000000003,-38.86211940729255
-0.3746999999999999,-39.173355893262865
-0.37570000000000003,-39.47044526623452
-0.3766999999999999,-39.739240413208876
-0.37770000000000004,-40.03632978618054
-0.3786999999999999,-40.34756627215084
-0.37970000000000004,-40.701244097117105
-0.3806999999999999,-40.99833347008877
-0.38170000000000004,-41.43689397304693
-0.38269999999999993,-41.83301313700913
-0.38370000000000004,-42.229132300971344
-0.38469999999999993,-42.6111043519349
-0.38570000000000004,-42.96478217690117
-0.38669999999999993,-43.27601866287147
-0.38770000000000004,-43.57310803584313
-0.38869999999999993,-43.88434452181344
-0.38970000000000005,-44.181433894785094
-0.39069999999999994,-44.535111719751356
-0.39170000000000005,-44.93123088371356
-0.39269999999999994,-45.32735004767578
-0.39370000000000005,-45.75176343763528
-0.39469999999999994,-46.147882601597495
-0.39570000000000005,-46.544001765559706
-0.39669999999999994,-46.88353247752732
-0.39770000000000005,-47.23721030249357
-0.39869999999999994,-47.54844678846388
-0.39970000000000006,-47.84553616143554
-0.40069999999999995,-48.156772647405845
-0.40170000000000006,-48.51045047237211
-0.40269999999999995,-48.84998118433972
-0.40370000000000006,-49.28854168729788
-0.40469999999999995,-49.76954352925199
-0.40570000000000006,-50.2505453712061
-0.40669999999999995,-50.77398855215617
-0.40770000000000006,-51.29743173310623
-0.40869999999999995,-51.77843357506035
-0.40970000000000006,-52.2169940780185
-0.41069999999999995,-52.64140746797801
-0.41170000000000007,-53.03752663194023
-0.41269999999999996,-53.348763117910536
-0.41370000000000007,-53.64585249088219
-0.41469999999999996,-53.999530315848446
-0.41570000000000007,-54.35320814081471
-0.41669999999999996,-54.791768643772876
-0.41770000000000007,-55.21618203373238
-0.41869999999999996,-55.65474253669055
-0.4197000000000001,-56.13574437864466
-0.42069999999999996,-56.61674622059877
-0.4217000000000001,-57.012865384560975
-0.42269999999999996,-57.53630856551105
-0.4237000000000001,-57.87583927747865
-0.42469999999999997,-58.31439978043681
-0.4257000000000001,-58.75296028339497
-0.42669999999999997,-59.14907944735718
-0.4277000000000001,-59.6300812893113
-0.42869999999999997,-60.11108313126541
-0.4297000000000001,-60.63452631221547
-0.43069999999999997,-61.07308681517363
-0.4317000000000001,-61.53994154412909
-0.4327,-61.97850204708726
-0.4337000000000001,-62.41706255004542
-0.4347,-62.81318171400764
-0.4357000000000001,-63.15271242597524
-0.4367,-63.54883158993744
-0.4377000000000001,-63.98739209289561
-0.4387,-64.38351125685783
-0.4397000000000001,-64.86451309881193
-0.4407,-65.34551494076604
-0.4417000000000001,-65.91139946071206
-0.4427,-66.47728398065809
-0.4437000000000001,-67.04316850060408
-0.4447,-67.56661168155415
-0.4457000000000001,-68.0900548625042
-0.4467,-68.57105670445833
-0.4477000000000001,-69.0096172074165
-0.4487,-69.43403059737601
-0.4497000000000001,-69.8301497613382
-0.4507,-70.18382758630447
-0.4517000000000001,-70.57994675026669
-0.4527,-71.06094859222078
-0.4537000000000001,-71.52780332117625
-0.4547,-72.05124650212633
-0.4557000000000001,-72.63127813507097
-0.4567,-73.2820453330089
-0.4577000000000001,-73.89037119195086
-0.4587,-74.49869705089283
-0.4597000000000001,-75.02214023184291
-0.4607,-75.54558341279296
-0.4617000000000001,-76.02658525474708
-0.4627,-76.42270441870929
-0.4637000000000001,-76.86126492166746
-0.4647,-77.243236972631
-0.4657000000000001,-77.63935613659322
-0.4667,-78.12035797854733
-0.4677000000000001,-78.64380115949739
-0.4687,-79.25212701843935
-0.4697000000000001,-79.86045287738132
-0.4707,-80.52536718831789
-0.4717000000000001,-81.1761343862558
-0.4727,-81.74201890620182
-0.4737000000000001,-82.18057940915998
-0.4747,-82.56255146012353
-0.4757000000000001,-82.95867062408576
-0.4767,-83.26990711005605
-0.4777000000000001,-83.66602627401826
-0.4787,-84.00555698598588
-0.4797000000000001,-84.44411748894404
-0.4807,-84.96756066989411
-0.48170000000000013,-85.53344518984011
-0.4827,-86.18421238777805
-0.48370000000000013,-86.84912669871461
-0.4847,-87.54233523564847
-0.48570000000000013,-88.19310243358639
-0.4867,-88.10821975559449
-0.48570000000000013,-86.75009690772404
-0.4847,-85.49100385084417
-0.48370000000000013,-84.31679347195619
-0.4827,-83.22746577106011
-0.48170000000000013,-82.18057940915998
-0.4807,-81.09125170826391
-0.4797000000000001,-80.12924802435568
-0.4787,-79.16724434044745
-0.4777000000000001,-78.24768199553519
-0.4767,-77.38470810261751
-0.4757000000000001,-76.5924697746931
-0.4747,-75.81437855976732
-0.4737000000000001,-75.06458157083884
-0.4727,-74.37137303390499
-0.4717000000000001,-73.62157604497652
-0.4707,-72.8859261690467
-0.4697000000000001,-72.19271763211282
-0.4687,-71.52780332117625
-0.4677000000000001,-70.8345947842424
-0.4667,-70.22626892530042
