Potential V vs RHE, Current mA cm-2
0.013299999999999867,-0.26384365742482935
0.012299999999999978,-1.1362961160515976
0.011299999999999866,-1.7910245056291363
0.010299999999999976,-2.2706116362833835
0.009299999999999864,-2.662486666345999
0.008299999999999974,-2.924208256821031
0.007299999999999862,-3.1859298472960624
0.006299999999999972,-3.361354048479327
0.00529999999999986,-3.4915074880669104
0.0042999999999999705,-3.623075638954359
0.0032999999999998586,-3.7093730282461257
0.0022999999999999687,-3.7970851288377587
0.0012999999999998568,-3.884797229429391
0.00029999999999996696,-3.927238568425342
-0.000700000000000145,-3.971094618721158
-0.0017000000000000348,-4.0588067193127895
-0.0027000000000001467,-4.102662769608606
-0.0037000000000000366,-4.146518819904423
-0.0047000000000001485,-4.1889601589003735
-0.005700000000000038,-4.1889601589003735
-0.00670000000000015,-4.1889601589003735
-0.00770000000000004,-4.1889601589003735
-0.008700000000000152,-4.23281620919619
-0.009700000000000042,-4.23281620919619
-0.010700000000000154,-4.276672259492005
-0.011700000000000044,-4.3205283097878215
-0.012700000000000156,-4.364384360083638
-0.013700000000000045,-4.406825699079589
-0.014700000000000157,-4.450681749375406
-0.015700000000000047,-4.494537799671222
-0.01670000000000016,-4.494537799671222
-0.01770000000000005,-4.538393849967037
-0.01870000000000016,-4.538393849967037
-0.01970000000000005,-4.538393849967037
-0.020700000000000163,-4.538393849967037
-0.021700000000000053,-4.538393849967037
-0.022700000000000164,-4.582249900262854
-0.023700000000000054,-4.582249900262854
-0.024700000000000166,-4.582249900262854
-0.025700000000000056,-4.582249900262854
-0.026700000000000168,-4.582249900262854
-0.027700000000000058,-4.626105950558669
-0.02870000000000017,-4.626105950558669
-0.02970000000000006,-4.668547289554621
-0.03070000000000017,-4.668547289554621
-0.03170000000000006,-4.756259390146253
-0.03270000000000017,-4.756259390146253
-0.03370000000000006,-4.800115440442069
-0.034700000000000175,-4.843971490737885
-0.035700000000000065,-4.843971490737885
-0.03670000000000018,-4.843971490737885
-0.03770000000000007,-4.843971490737885
-0.03870000000000018,-4.843971490737885
-0.03970000000000007,-4.843971490737885
-0.04070000000000018,-4.843971490737885
-0.04170000000000007,-4.843971490737885
-0.04270000000000018,-4.843971490737885
-0.04370000000000007,-4.887827541033701
-0.044700000000000184,-4.887827541033701
-0.045700000000000074,-4.9302688800296535
-0.046700000000000186,-4.9302688800296535
-0.047700000000000076,-4.9302688800296535
-0.04870000000000019,-4.974124930325469
-0.04970000000000008,-4.974124930325469
-0.05070000000000019,-5.017980980621284
-0.05170000000000008,-5.017980980621284
-0.05270000000000019,-5.017980980621284
-0.05370000000000008,-5.017980980621284
-0.05470000000000019,-5.0618370309171015
-0.05570000000000008,-5.0618370309171015
-0.056700000000000195,-5.0618370309171015
-0.057700000000000085,-5.0618370309171015
-0.058700000000000196,-5.017980980621284
-0.059700000000000086,-5.017980980621284
-0.0607000000000002,-5.017980980621284
-0.06170000000000009,-5.017980980621284
-0.0627000000000002,-5.017980980621284
-0.06370000000000009,-5.017980980621284
-0.0647000000000002,-5.0618370309171015
-0.06570000000000009,-5.105693081212917
-0.0667000000000002,-5.105693081212917
-0.0677000000000001,-5.149549131508733
-0.0687000000000002,-5.191990470504685
-0.0697000000000001,-5.191990470504685
-0.07070000000000021,-5.191990470504685
-0.0717000000000001,-5.191990470504685
-0.07270000000000021,-5.235846520800501
-0.0737000000000001,-5.235846520800501
-0.07470000000000021,-5.191990470504685
-0.0757000000000001,-5.191990470504685
-0.07670000000000021,-5.191990470504685
-0.0777000000000001,-5.149549131508733
-0.07870000000000021,-5.149549131508733
-0.0797000000000001,-5.105693081212917
-0.08070000000000022,-5.105693081212917
-0.0817000000000001,-5.105693081212917
-0.08270000000000022,-5.105693081212917
-0.08370000000000011,-5.149549131508733
-0.08470000000000022,-5.149549131508733
-0.08570000000000011,-5.191990470504685
-0.08670000000000022,-5.191990470504685
-0.08770000000000011,-5.279702571096316
-0.08870000000000022,-5.235846520800501
-0.08970000000000011,-5.235846520800501
-0.09070000000000022,-5.235846520800501
-0.09170000000000011,-5.235846520800501
-0.09270000000000023,-5.191990470504685
-0.09370000000000012,-5.191990470504685
-0.09470000000000023,-5.191990470504685
-0.09570000000000012,-5.191990470504685
-0.09670000000000023,-5.191990470504685
-0.09770000000000012,-5.149549131508733
-0.09870000000000023,-5.149549131508733
-0.09970000000000012,-5.149549131508733
-0.10070000000000023,-5.149549131508733
-0.10170000000000012,-5.191990470504685
-0.10270000000000024,-5.235846520800501
-0.10370000000000013,-5.235846520800501
-0.10470000000000024,-5.235846520800501
-0.10570000000000013,-5.279702571096316
-0.10670000000000024,-5.235846520800501
-0.10770000000000013,-5.235846520800501
-0.10870000000000024,-5.235846520800501
-0.10970000000000013,-5.235846520800501
-0.11070000000000024,-5.235846520800501
-0.11170000000000013,-5.191990470504685
-0.11270000000000002,-5.191990470504685
-0.11370000000000013,-5.235846520800501
-0.11470000000000002,-5.191990470504685
-0.11570000000000014,-5.235846520800501
-0.11670000000000003,-5.235846520800501
-0.11770000000000014,-5.191990470504685
-0.11870000000000003,-5.191990470504685
-0.11970000000000014,-5.191990470504685
-0.12070000000000003,-5.191990470504685
-0.12170000000000014,-5.191990470504685
-0.12270000000000003,-5.191990470504685
-0.12370000000000014,-5.191990470504685
-0.12470000000000003,-5.191990470504685
-0.12570000000000014,-5.191990470504685
-0.12670000000000003,-5.191990470504685
-0.12770000000000015,-5.191990470504685
-0.12870000000000004,-5.191990470504685
-0.12970000000000015,-5.191990470504685
-0.13070000000000004,-5.235846520800501
-0.13170000000000015,-5.235846520800501
-0.13270000000000004,-5.235846520800501
-0.13370000000000015,-5.235846520800501
-0.13470000000000004,-5.191990470504685
-0.13570000000000015,-5.235846520800501
-0.13670000000000004,-5.191990470504685
-0.13770000000000016,-5.191990470504685
-0.13870000000000005,-5.191990470504685
-0.13970000000000016,-5.191990470504685
-0.14070000000000005,-5.191990470504685
-0.14170000000000016,-5.191990470504685
-0.14270000000000005,-5.191990470504685
-0.14370000000000016,-5.191990470504685
-0.14470000000000005,-5.235846520800501
-0.14570000000000016,-5.279702571096316
-0.14670000000000005,-5.235846520800501
-0.14770000000000016,-5.235846520800501
-0.14870000000000005,-5.235846520800501
-0.14970000000000017,-5.235846520800501
-0.15070000000000006,-5.191990470504685
-0.15170000000000017,-5.191990470504685
-0.15270000000000006,-5.191990470504685
-0.15370000000000017,-5.235846520800501
-0.15470000000000006,-5.235846520800501
-0.15570000000000017,-5.235846520800501
-0.15670000000000006,-5.235846520800501
-0.15770000000000017,-5.235846520800501
-0.15870000000000006,-5.235846520800501
-0.15970000000000018,-5.235846520800501
-0.16070000000000007,-5.235846520800501
-0.16170000000000018,-5.279702571096316
-0.16270000000000007,-5.279702571096316
-0.16370000000000018,-5.279702571096316
-0.16470000000000007,-5.279702571096316
-0.16570000000000018,-5.279702571096316
-0.16670000000000007,-5.279702571096316
-0.16770000000000018,-5.235846520800501
-0.16870000000000007,-5.235846520800501
-0.16970000000000018,-5.235846520800501
-0.17070000000000007,-5.279702571096316
-0.17170000000000019,-5.279702571096316
-0.17270000000000008,-5.323558621392133
-0.1737000000000002,-5.323558621392133
-0.17470000000000008,-5.367414671687949
-0.1757000000000002,-5.367414671687949
-0.17670000000000008,-5.367414671687949
-0.1777000000000002,-5.367414671687949
-0.17870000000000008,-5.367414671687949
-0.1797000000000002,-5.367414671687949
-0.18070000000000008,-5.367414671687949
-0.1817000000000002,-5.367414671687949
-0.18270000000000008,-5.367414671687949
-0.1837000000000002,-5.367414671687949
-0.1847000000000001,-5.411270721983764
-0.1857000000000002,-5.411270721983764
-0.1867000000000001,-5.453712060979717
-0.1877000000000002,-5.453712060979717
-0.1887000000000001,-5.453712060979717
-0.1897000000000002,-5.453712060979717
-0.1907000000000001,-5.497568111275533
-0.1917000000000001,-5.497568111275533
-0.19269999999999998,-5.497568111275533
-0.1937000000000001,-5.497568111275533
-0.19469999999999998,-5.5414241615713475
-0.1957000000000001,-5.585280211867165
-0.19669999999999999,-5.585280211867165
-0.1977000000000001,-5.585280211867165
-0.1987,-5.585280211867165
-0.1997000000000001,-5.585280211867165
-0.2007,-5.585280211867165
-0.2017000000000001,-5.629136262162981
-0.2027,-5.672992312458796
-0.2037000000000001,-5.672992312458796
-0.2047,-5.715433651454749
-0.2057000000000001,-5.715433651454749
-0.2067,-5.715433651454749
-0.2077000000000001,-5.759289701750564
-0.2087,-5.759289701750564
-0.2097000000000001,-5.80314575204638
-0.2107,-5.80314575204638
-0.2117000000000001,-5.847001802342197
-0.2127,-5.847001802342197
-0.2137000000000001,-5.890857852638012
-0.2147,-5.9347139029338285
-0.2157000000000001,-5.977155241929781
-0.2167,-5.977155241929781
-0.21770000000000012,-5.977155241929781
-0.2187,-5.977155241929781
-0.21970000000000012,-6.021011292225596
-0.2207,-6.021011292225596
-0.22170000000000012,-6.064867342521412
-0.2227,-6.108723392817228
-0.22370000000000012,-6.108723392817228
-0.2247,-6.196435493408861
-0.22570000000000012,-6.196435493408861
-0.2267,-6.238876832404812
-0.22770000000000012,-6.282732882700628
-0.22870000000000001,-6.326588932996443
-0.22970000000000013,-6.37044498329226
-0.23070000000000002,-6.37044498329226
-0.23170000000000013,-6.414301033588076
-0.23270000000000002,-6.458157083883892
-0.23370000000000013,-6.500598422879844
-0.23470000000000002,-6.500598422879844
-0.23570000000000013,-6.54445447317566
-0.23670000000000002,-6.54445447317566
-0.2376999999999999,-6.588310523471475
-0.23870000000000002,-6.632166573767292
-0.2396999999999999,-6.632166573767292
-0.24070000000000003,-6.6760226240631075
-0.24169999999999991,-6.762320013354876
-0.24270000000000003,-6.806176063650692
-0.24369999999999992,-6.893888164242324
-0.24470000000000003,-6.93774421453814
-0.24569999999999992,-7.024041603829907
-0.24670000000000003,-7.067897654125724
-0.24769999999999992,-7.111753704421539
-0.24870000000000003,-7.155609754717355
-0.24969999999999992,-7.199465805013171
-0.25070000000000003,-7.243321855308987
-0.2516999999999999,-7.28576319430494
-0.25270000000000004,-7.329619244600755
-0.2536999999999999,-7.4173313451923875
-0.25470000000000004,-7.461187395488204
-0.2556999999999999,-7.50504344578402
-0.25670000000000004,-7.5474847847799715
-0.25769999999999993,-7.591340835075788
-0.25870000000000004,-7.635196885371603
-0.25969999999999993,-7.679052935667419
-0.26070000000000004,-7.7653503249591855
-0.26169999999999993,-7.853062425550818
-0.26270000000000004,-7.940774526142452
-0.26369999999999993,-8.027071915434218
-0.26470000000000005,-8.11478401602585
-0.26569999999999994,-8.202496116617484
-0.26670000000000005,-8.246352166913299
-0.26769999999999994,-8.332649556205066
-0.26870000000000005,-8.376505606500881
-0.26969999999999994,-8.464217707092514
-0.27070000000000005,-8.508073757388331
-0.27169999999999994,-8.594371146680096
-0.27270000000000005,-8.68208324727173
-0.27369999999999994,-8.769795347863363
-0.27470000000000006,-8.812236686859313
-0.27569999999999995,-8.943804837746763
-0.27670000000000006,-8.987660888042578
-0.27769999999999995,-9.073958277334345
-0.27870000000000006,-9.161670377925978
-0.27969999999999995,-9.24938247851761
-0.28070000000000006,-9.335679867809377
-0.28169999999999995,-9.467248018696827
-0.28270000000000006,-9.55496011928846
-0.28369999999999995,-9.685113558876042
-0.28470000000000006,-9.772825659467674
-0.28569999999999995,-9.902979099055257
-0.28670000000000007,-9.99069119964689
-0.28769999999999996,-10.078403300238522
-0.28870000000000007,-10.164700689530287
-0.28969999999999996,-10.25241279012192
-0.29070000000000007,-10.382566229709504
-0.29169999999999996,-10.470278330301136
-0.29270000000000007,-10.601846481188586
-0.29369999999999996,-10.731999920776168
-0.2947000000000001,-10.863568071663616
-0.29569999999999996,-10.993721511251199
-0.2967000000000001,-11.081433611842833
-0.29769999999999996,-11.1677310011346
-0.2987000000000001,-11.299299152022046
-0.29969999999999997,-11.42945259160963
-0.3007000000000001,-11.517164692201263
-0.30169999999999997,-11.691174182084664
-0.3027000000000001,-11.82274233297211
-0.30369999999999997,-11.996751822855511
-0.3047000000000001,-12.12831997374296
-0.30569999999999997,-12.258473413330542
-0.3067000000000001,-12.390041564217992
-0.3077,-12.476338953509758
-0.3087000000000001,-12.607907104397206
-0.3097,-12.694204493688973
-0.3107000000000001,-12.825772644576423
-0.3117,-12.99978213445982
-0.3127000000000001,-13.13135028534727
-0.3137,-13.349215825526485
-0.3147000000000001,-13.47936926511407
-0.3157,-13.698649516593148
-0.3167000000000001,-13.872659006476551
-0.3177,-14.090524546655764
-0.3187000000000001,-14.26028990263957
-0.3197,-14.401761032626075
-0.3207000000000001,-14.57152638860988
-0.3217,-14.741291744593681
-0.3227000000000001,-14.925204213576137
-0.3237,-15.05252823056399
-0.3247000000000001,-15.179852247551842
-0.3257,-15.349617603535648
-0.3267000000000001,-15.533530072518102
-0.3277,-15.70329542850191
-0.3287000000000001,-15.87306078448571
-0.3297,-16.099414592464115
-0.3307000000000001,-16.311621287443874
-0.3317,-16.53797509542228
-0.3327000000000001,-16.750181790402035
-0.3337,-16.962388485381787
-0.3347000000000001,-17.188742293360193
-0.3357,-17.40094898833995
-0.3367000000000001,-17.584861457322408
-0.3377,-17.71218547431026
-0.3387000000000001,-17.881950830294063
-0.3397,-18.10830463827247
-0.3407000000000001,-18.27806999425627
-0.3417,-18.49027668923603
-0.3427000000000001,-18.716630497214435
-0.3437,-18.92883719219419
-0.3447000000000001,-19.155191000172596
-0.3457,-19.367397695152352
-0.3467000000000001,-19.636192842126707
-0.3477,-19.848399537106463
-0.3487000000000001,-20.06060623208622
-0.3497,-20.371842718056527
-0.3507000000000001,-20.584049413036283
-0.3517,-20.85284456001064
-0.3527000000000001,-21.065051254990397
-0.3537,-21.333846401964752
-0.3547000000000001,-21.54605309694451
-0.3557,-21.772406904922917
-0.35670000000000013,-21.98461359990267
-0.3577,-22.253408746877028
-0.35870000000000013,-22.508056780852733
-0.3597,-22.776851927827092
-0.36070000000000013,-23.031499961802798
-0.3617,-23.342736447773106
-0.3626999999999999,-23.597384481748815
-0.3637,-23.908620967719123
-0.3646999999999999,-24.16326900169483
-0.3657,-24.432064148669184
-0.3666999999999999,-24.729153521640843
-0.3677,-24.997948668615198
-0.3686999999999999,-25.295038041586857
-0.36970000000000003,-25.60627452755716
-0.3706999999999999,-25.91751101352747
-0.37170000000000003,-26.21460038649913
-0.3726999999999999,-26.568278211465387
-0.37370000000000003,-26.907808923433
-0.3746999999999999,-27.176604070407354
-0.37570000000000003,-27.487840556377662
-0.3766999999999999,-27.742488590353368
-0.37770000000000004,-27.954695285333123
-0.3786999999999999,-28.22349043230748
-0.37970000000000004,-28.478138466283188
-0.3806999999999999,-28.746933613257543
-0.38170000000000004,-29.058170099227848
-0.38269999999999993,-29.35525947219951
-0.38370000000000004,-29.708937297165768
-0.38469999999999993,-30.04846800913338
-0.38570000000000004,-30.444587173095588
-0.38669999999999993,-30.88314767605375
-0.38770000000000004,-31.321708179011907
-0.38869999999999993,-31.661238890979522
-0.38970000000000005,-32.09979939393769
-0.39069999999999994,-32.45347721890394
-0.39170000000000005,-32.764713704874254
-0.39269999999999994,-33.10424441684186
-0.39370000000000005,-33.373039563816214
-0.39469999999999994,-33.627687597791926
-0.39570000000000005,-33.93892408376223
-0.39669999999999994,-34.236013456733886
-0.39770000000000005,-34.5472499427042
-0.39869999999999994,-34.85848642867451
-0.39970000000000006,-35.198017140642115
-0.40069999999999995,-35.594136304604326
-0.40170000000000006,-36.03269680756248
-0.40269999999999995,-36.5136986495166
-0.40370000000000006,-36.95225915247476
-0.40469999999999995,-37.376672542434264
-0.40570000000000006,-37.77279170639648
-0.40669999999999995,-38.12646953136274
-0.40770000000000006,-38.46600024333035
-0.40869999999999995,-38.90456074628851
-0.40970000000000006,-39.38556258824262
-0.41069999999999995,-39.90900576919269
-0.41170000000000007,-40.4748902891387
-0.41269999999999996,-40.99833347008877
-0.41370000000000007,-41.39445263405098
-0.41469999999999996,-41.83301313700913
-0.41570000000000007,-42.229132300971344
-0.41669999999999996,-42.6111043519349
-0.41770000000000007,-42.96478217690117
-0.41869999999999996,-43.27601866287147
-0.4197000000000001,-43.61554937483908
-0.42069999999999996,-43.88434452181344
-0.4217000000000001,-44.096551216793195
-0.42269999999999996,-44.36534636376755
-0.4237000000000001,-44.619994397743255
-0.42469999999999997,-44.97367222270952
-0.4257000000000001,-45.412232725667685
-0.42669999999999997,-45.97811724561369
-0.4277000000000001,-46.628884443551605
-0.42869999999999997,-47.27965164148953
-0.4297000000000001,-47.93041883942744
-0.43069999999999997,-48.51045047237211
-0.4317000000000001,-49.076334992318124
-0.4327,-49.642219512264134
-0.4337000000000001,-50.2505453712061
-0.4347,-50.73154721316022
-0.4357000000000001,-51.127666377122424
-0.4367,-51.46719708909004
-0.4377000000000001,-51.77843357506035
-0.4387,-52.17455273902255
-0.4397000000000001,-52.64140746797801
-0.4407,-53.079967970936174
-0.4417000000000001,-53.56096981289029
-0.4427,-54.1268543328363
-0.4437000000000001,-54.69273885278232
-0.4447,-55.25862337272834
-0.4457000000000001,-55.881096344668954
-0.4467,-56.489422203610914
-0.4477000000000001,-57.012865384560975
-0.4487,-57.53630856551105
-0.4497000000000001,-58.017310407465146
-0.4507,-58.498312249419264
-0.4517000000000001,-58.97931409137338
-0.4527,-59.44616882032884
-0.4537000000000001,-59.92717066228296
-0.4547,-60.40817250423707
-0.4557000000000001,-60.93161568518713
-0.4567,-61.412617527141244
-0.4577000000000001,-61.97850204708726
-0.4587,-62.501945228037314
-0.4597000000000001,-63.02538840898739
-0.4607,-63.54883158993744
-0.4617000000000001,-64.11471610988345
-0.4627,-64.68060062982947
-0.4637000000000001,-65.20404381077954
-0.4647,-65.82651678272015
-0.4657000000000001,-66.39240130266617
-0.4667,-66.9582858226122
-0.4677000000000001,-67.56661168155415
-0.4687,-68.17493754049613
-0.4697000000000001,-68.82570473843404
-0.4707,-69.4906190493706
-0.4717000000000001,-70.09894490831257
-0.4727,-70.70727076725453
-0.4737000000000001,-71.31559662619651
-0.4747,-72.00880516313036
-0.4757000000000001,-72.75860215205884
-0.4767,-73.32448667200485
-0.4777000000000001,-73.93281253094682
-0.4787,-74.49869705089283
-0.4797000000000001,-74.93725755385098
-0.4807,-75.37581805680915
-0.48170000000000013,-75.81437855976732
-0.4827,-76.19635061073087
-0.48370000000000013,-76.67735245268499
-0.4847,-77.11591295564315
-0.48570000000000013,-77.63935613659322
-0.4867,-77.38470810261751
-0.48570000000000013,-76.02658525474708
-0.4847,-75.02214023184291
-0.48370000000000013,-74.28649035591307
-0.4827,-73.72060583596706
-0.48170000000000013,-73.23960399401295
-0.4807,-72.71616081306288
-0.4797000000000001,-72.23515897110877
-0.4787,-71.66927445116276
-0.4777000000000001,-70.96191880123024
-0.4767,-70.18382758630447
-0.4757000000000001,-69.26426524139221
-0.4747,-68.34470289647993
-0.4737000000000001,-67.34025787357575
-0.4727,-66.39240130266617
-0.4717000000000001,-65.5577216357458
-0.4707,-64.68060062982947
-0.4697000000000001,-63.944950753899654
-0.4687,-63.3366248949577
-0.4677000000000001,-62.855623053003576
-0.4667,-62.459503889041365
-0.4657000000000001,-62.11997317707376
-0.4647,-61.72385401311155
-0.4637000000000001,-61.20041083216149
-0.4627,-60.67696765121143
-0.4617000000000001,-60.11108313126541
-0.4607,-59.44616882032884
