Potential V vs RHE, Current mA cm-2
0.013299999999999867,0.0826615812511141
0.012299999999999978,-0.7519190558782669
0.011299999999999866,-1.3763726236386942
0.010299999999999976,-1.884395451420229
0.009299999999999864,-2.3045647074801447
0.008299999999999974,-2.6455101307476188
0.007299999999999862,-2.922793545521166
0.006299999999999972,-3.174612156897142
0.00529999999999986,-3.4136983665743337
0.0042999999999999705,-3.6386374632528744
0.0032999999999998586,-3.822549932235329
0.0022999999999999687,-3.9809975978202137
0.0012999999999998568,-4.143689397304692
0.00029999999999996696,-4.302137062889576
-0.000700000000000145,-4.461999439774326
-0.0017000000000000348,-4.6020558584609645
-0.0027000000000001467,-4.7208916076496275
-0.0037000000000000366,-4.84821562463748
-0.0047000000000001485,-4.98827204332412
-0.005700000000000038,-5.133987307210218
-0.00670000000000015,-5.261311324198071
-0.00770000000000004,-5.358926403888759
-0.008700000000000152,-5.466444462678503
-0.009700000000000042,-5.600842036165679
-0.010700000000000154,-5.736654320952724
-0.011700000000000044,-5.847001802342197
-0.012700000000000156,-5.9347139029338285
-0.013700000000000045,-6.049305518222896
-0.014700000000000157,-6.18511780300994
-0.015700000000000047,-6.318100665197254
-0.01670000000000016,-6.435521703086052
-0.01770000000000005,-6.543039761875795
-0.01870000000000016,-6.646313686765942
-0.01970000000000005,-6.753831745555685
-0.020700000000000163,-6.891058741642594
-0.021700000000000053,-7.019797469930312
-0.022700000000000164,-7.134389085219379
-0.023700000000000054,-7.256054257007774
-0.024700000000000166,-7.406013654793467
-0.025700000000000056,-7.553143629979432
-0.026700000000000168,-7.6733940904679585
-0.027700000000000058,-7.7837415718574325
-0.02870000000000017,-7.9082361662455565
-0.02970000000000006,-8.058195564031248
-0.03070000000000017,-8.213813807016404
-0.03170000000000006,-8.348211380503582
-0.03270000000000017,-8.478364820091164
-0.03370000000000006,-8.6226653726774
-0.034700000000000175,-8.771210059163227
-0.035700000000000065,-8.931072436047977
-0.03670000000000018,-9.093764235532456
-0.03770000000000007,-9.218258829920579
-0.03870000000000018,-9.388024185904383
-0.03970000000000007,-9.525251181991292
-0.04070000000000018,-9.692187115375367
-0.04170000000000007,-9.84214651316106
-0.04270000000000018,-10.000594178745946
-0.04370000000000007,-10.154797710431232
-0.044700000000000184,-10.321733643815307
-0.045700000000000074,-10.531110916195333
-0.046700000000000186,-10.706535117378598
-0.047700000000000076,-10.856494515164291
-0.04870000000000019,-11.00786862424985
-0.04970000000000008,-11.18470753673298
-0.05070000000000019,-11.382767118714085
-0.05170000000000008,-11.568094298996405
-0.05270000000000019,-11.72654196458129
-0.05370000000000008,-11.907625010964015
-0.05470000000000019,-12.084463923447142
-0.05570000000000008,-12.283938216728114
-0.056700000000000195,-12.47916837610949
-0.057700000000000085,-12.661666133792078
-0.058700000000000196,-12.841334468874939
-0.059700000000000086,-13.037979339556179
-0.0607000000000002,-13.243112478036608
-0.06170000000000009,-13.455319173016363
-0.0627000000000002,-13.646305198498144
-0.06370000000000009,-13.81889997708168
-0.0647000000000002,-14.007056579963729
-0.06570000000000009,-14.217848563643619
-0.0667000000000002,-14.430055258623375
-0.0677000000000001,-14.61396772760583
-0.0687000000000002,-14.826174422585586
-0.0697000000000001,-15.03838111756534
-0.07070000000000021,-15.264734925543747
-0.0717000000000001,-15.462794507524851
-0.07270000000000021,-15.646706976507305
-0.0737000000000001,-15.830619445489761
-0.07470000000000021,-16.04282614046952
-0.0757000000000001,-16.269179948447924
-0.07670000000000021,-16.495533756426326
-0.0777000000000001,-16.70774045140608
-0.07870000000000021,-16.919947146385837
-0.0797000000000001,-17.132153841365596
-0.08070000000000022,-17.34436053634535
-0.0817000000000001,-17.542420118326454
-0.08270000000000022,-17.74047970030756
-0.08370000000000011,-17.952686395287316
-0.08470000000000022,-18.19318731626437
-0.08570000000000011,-18.44783535024008
-0.08670000000000022,-18.674189158218486
-0.08770000000000011,-18.858101627200938
-0.08870000000000022,-19.070308322180697
-0.08970000000000011,-19.2683679041618
-0.09070000000000022,-19.480574599141555
-0.09170000000000011,-19.721075520118614
-0.09270000000000023,-19.919135102099716
-0.09370000000000012,-20.159636023076775
-0.09470000000000023,-20.42843117005113
-0.09570000000000012,-20.612343639033586
-0.09670000000000023,-20.85284456001064
-0.09770000000000012,-21.093345480987697
-0.09870000000000023,-21.319699288966106
-0.09970000000000012,-21.489464644949905
-0.10070000000000023,-21.71581845292831
-0.10170000000000012,-21.94217226090672
-0.10270000000000024,-22.168526068885125
-0.10370000000000013,-22.36658565086623
-0.10470000000000024,-22.592939458844636
-0.10570000000000013,-22.84758749282034
-0.10670000000000024,-23.059794187800097
-0.10770000000000013,-23.257853769781203
-0.10870000000000024,-23.51250180375691
-0.10970000000000013,-23.738855611735314
-0.11070000000000024,-23.97935653271237
-0.11170000000000013,-24.21985745368943
-0.11270000000000002,-24.40376992267188
-0.11370000000000013,-24.61597661765164
-0.11470000000000002,-24.842330425630045
-0.11570000000000014,-25.111125572604404
-0.11670000000000003,-25.337479380582806
-0.11770000000000014,-25.549686075562565
-0.11870000000000003,-25.747745657543668
-0.11970000000000014,-25.974099465522073
-0.12070000000000003,-26.21460038649913
-0.12170000000000014,-26.469248420474838
-0.12270000000000003,-26.723896454450543
-0.12370000000000014,-26.921956036431645
-0.12470000000000003,-27.14830984441005
-0.12570000000000014,-27.40295787838576
-0.12670000000000003,-27.65760591236147
-0.12770000000000015,-27.869812607341224
-0.12870000000000004,-28.12446064131693
-0.12970000000000015,-28.379108675292635
-0.13070000000000004,-28.577168257273744
-0.13170000000000015,-28.789374952253496
-0.13270000000000004,-29.029875873230555
-0.13370000000000015,-29.27037679420761
-0.13470000000000004,-29.567466167179266
-0.13570000000000015,-29.822114201154974
-0.13670000000000004,-30.06261512213203
-0.13770000000000016,-30.246527591114486
-0.13870000000000005,-30.43044006009694
-0.13970000000000016,-30.58605830308209
-0.14070000000000005,-30.82655922405915
-0.14170000000000016,-31.151942823028104
-0.14270000000000005,-31.47732642199707
-0.14370000000000016,-31.717827342974125
-0.14470000000000005,-31.930034037953877
-0.14570000000000016,-32.14224073293363
-0.14670000000000005,-32.39688876690934
-0.14770000000000016,-32.65153680088505
-0.14870000000000005,-32.87789060886345
-0.14970000000000017,-33.10424441684186
-0.15070000000000006,-33.38718667681487
-0.15170000000000017,-33.655981823789226
-0.15270000000000006,-33.89648274476628
-0.15370000000000017,-34.10868943974604
-0.15470000000000006,-34.292601908728486
-0.15570000000000017,-34.60383839469879
-0.15670000000000006,-34.95751621966506
-0.15770000000000017,-35.14142868864751
-0.15870000000000006,-35.268752705635364
-0.15970000000000018,-35.56584207860703
-0.16070000000000007,-35.87707856457733
-0.16170000000000018,-36.16002082455034
-0.16270000000000007,-36.35808040653144
-0.16370000000000018,-36.570287101511205
-0.16470000000000007,-36.88152358748151
-0.16570000000000018,-37.136171621457216
-0.16670000000000007,-37.44740810742752
-0.16770000000000018,-37.73035036740053
-0.16870000000000007,-37.98499840137623
-0.16970000000000018,-38.22549932235329
-0.17070000000000007,-38.5084415823263
-0.17170000000000019,-38.777236729300654
-0.17270000000000008,-39.060178989273666
-0.1737000000000002,-39.34312124924667
-0.17470000000000008,-39.61191639622103
-0.1757000000000002,-39.89485865619403
-0.17670000000000008,-40.20609514216434
-0.1777000000000002,-40.43244895014274
-0.17870000000000008,-40.729538323114404
-0.1797000000000002,-41.01248058308742
-0.18070000000000008,-41.32371706905772
-0.1817000000000002,-41.66324778102533
-0.18270000000000008,-41.94619004099834
-0.1837000000000002,-42.25742652696865
-0.1847000000000001,-42.582810125937606
-0.1857000000000002,-42.89404661190791
-0.1867000000000001,-43.219430210876865
-0.1877000000000002,-43.43163690585662
-0.1887000000000001,-43.61554937483908
-0.1897000000000002,-43.91263874781074
-0.1907000000000001,-44.33705213777025
-0.1917000000000001,-44.66243573673921
-0.19269999999999998,-44.98781933570817
-0.1937000000000001,-45.31320293467712
-0.19469999999999998,-45.61029230764878
-0.1957000000000001,-45.87908745462314
-0.19669999999999999,-46.218618166590744
-0.1977000000000001,-46.61473733055296
-0.1987,-46.96841515551922
-0.1997000000000001,-47.26550452849088
-0.2007,-47.57674101446119
-0.2017000000000001,-47.902124613430146
-0.2027,-48.086037082412595
-0.2037000000000001,-48.538744698369406
-0.2047,-49.005599427324874
-0.2057000000000001,-49.40171859128708
-0.2067,-49.543189721273585
-0.2077000000000001,-49.79783775524929
-0.2087,-50.179809806212845
-0.2097000000000001,-50.60422319617236
-0.2107,-50.98619524713592
-0.2117000000000001,-51.33987307210218
-0.2127,-51.69355089706845
-0.2137000000000001,-52.033081609036046
-0.2147,-52.41505365999961
-0.2157000000000001,-52.79702571096317
-0.2167,-53.23558621392132
-0.21770000000000012,-53.57511692588894
-0.2187,-53.985383202849796
-0.21970000000000012,-54.36735525381336
-0.2207,-54.86250420876612
-0.22170000000000012,-55.17374069473642
-0.2227,-55.484977180706736
-0.22370000000000012,-55.96597902266086
-0.2247,-56.23477416963521
-0.22570000000000012,-56.65918755959472
-0.2267,-57.097748062552874
-0.22770000000000012,-57.53630856551105
-0.22870000000000001,-57.9465748424719
-0.22970000000000013,-58.38513534543006
-0.23070000000000002,-58.965166978374725
-0.23170000000000013,-59.21981501235043
-0.23270000000000002,-59.34713902933829
-0.23370000000000013,-59.78569953229645
-0.23470000000000002,-60.23840714825326
-0.23570000000000013,-60.691114764210084
-0.23670000000000002,-61.17211660616418
-0.2376999999999999,-61.58238288312505
-0.23870000000000002,-61.9926491600859
-0.2396999999999999,-62.36047409805081
-0.24070000000000003,-62.841475940004926
-0.24169999999999991,-63.26588932996445
-0.24270000000000003,-63.60542004193205
-0.24369999999999992,-64.00153920589426
-0.24470000000000003,-64.46839393484973
-0.24569999999999992,-64.9352486638052
-0.24670000000000003,-65.3596620537647
-0.24769999999999992,-65.7557812177269
-0.24870000000000003,-66.12360615569182
-0.24969999999999992,-66.54801954565133
-0.25070000000000003,-67.0997569525987
-0.2516999999999999,-67.67978858554335
-0.25270000000000004,-68.03346641050962
-0.2536999999999999,-68.33055578348127
-0.25470000000000004,-68.74082206044213
-0.2556999999999999,-69.16523545040164
-0.25670000000000004,-69.70282574435035
-0.25769999999999993,-70.29700449029367
-0.25870000000000004,-70.74971210625048
-0.25969999999999993,-70.93362457523294
-0.26070000000000004,-71.32974373919515
-0.26169999999999993,-71.7965984681506
-0.26270000000000004,-72.32004164910067
-0.26369999999999993,-72.75860215205884
-0.26470000000000005,-73.16886842901971
-0.26569999999999994,-73.57913470598055
-0.26670000000000005,-74.0176952089387
-0.26769999999999994,-74.47040282489553
-0.26870000000000005,-74.97969889284694
-0.26969999999999994,-75.48899496079835
-0.27070000000000005,-75.96999680275246
-0.27169999999999994,-76.43685153170793
-0.27270000000000005,-76.70564667868229
-0.27369999999999994,-77.0734716166472
-0.27470000000000006,-77.51203211960537
-0.27569999999999995,-78.02132818755678
-0.27670000000000006,-78.48818291651223
-0.27769999999999995,-78.8984491934731
-0.27870000000000006,-79.25212701843935
-0.27969999999999995,-79.67654040839886
-0.28070000000000006,-80.19998358934893
-0.28169999999999995,-80.68098543130303
-0.28270000000000006,-80.86489790028548
-0.28369999999999995,-81.1478401602585
-0.28470000000000006,-81.57225355021802
-0.28569999999999995,-82.06740250517078
-0.28670000000000007,-82.50596300812894
-0.28769999999999996,-82.93037639808846
-0.28870000000000007,-83.26990711005605
-0.28969999999999996,-83.60943782202366
-0.29070000000000007,-84.09043966397778
-0.29169999999999996,-84.52900016693594
-0.29270000000000007,-84.89682510490086
-0.29369999999999996,-85.23635581686847
-0.2947000000000001,-85.56173941583742
-0.29569999999999996,-85.78809322381582
-0.2967000000000001,-86.19835950077669
-0.29769999999999996,-86.5661844387416
-0.2987000000000001,-86.93400937670651
-0.29969999999999997,-87.41501121866061
-0.3007000000000001,-87.64136502663902
-0.30169999999999997,-87.96674862560798
-0.3027000000000001,-88.36286778957019
-0.30369999999999997,-88.71654561453644
-0.3047000000000001,-89.0985176655
-0.30569999999999997,-89.46634260346492
-0.3067000000000001,-89.77757908943524
-0.3077,-90.13125691440149
-0.3087000000000001,-90.30102227038529
-0.3097,-90.76787699934074
-0.3107000000000001,-91.09326059830971
-0.3117,-91.34790863228542
-0.3127000000000001,-91.81476336124088
-0.3137,-91.89964603923279
-0.3147000000000001,-92.05526428221793
-0.3157,-92.40894210718419
-0.3167000000000001,-92.74847281915181
-0.3177,-93.03141507912481
-0.3187000000000001,-93.32850445209648
-0.3197,-93.48412269508162
-0.3207000000000001,-93.62559382506812
-0.3217,-93.86609474604518
-0.3227000000000001,-94.09244855402359
-0.3237,-94.14903700601819
-0.3247000000000001,-94.29050813600469
-0.3257,-94.53100905698176
-0.3267000000000001,-94.6583330739696
-0.3277,-94.7432157519615
-0.3287000000000001,-95.23836470691427
-0.3297,-95.6344838708765
-0.3307000000000001,-95.88913190485218
-0.3317,-96.03060303483868
-0.3327000000000001,-96.14377993882789
-0.3337,-96.00230880884139
-0.3347000000000001,-95.95986746984543
-0.3357,-96.03060303483868
-0.3367000000000001,-96.15792705182655
-0.3377,-96.4267221988009
-0.3387000000000001,-96.4267221988009
-0.3397,-96.44086931179956
-0.3407000000000001,-96.3984279728036
-0.3417,-96.58234044178606
-0.3427000000000001,-96.624781780782
-0.3437,-96.65307600677932
-0.3447000000000001,-96.5398991027901
-0.3457,-96.5681933287874
-0.3467000000000001,-96.7662529107685
-0.3477,-96.89357692775637
-0.3487000000000001,-96.99260671874691
-0.3497,-96.80869424976446
-0.3507000000000001,-96.5398991027901
-0.3517,-96.624781780782
-0.3527000000000001,-96.70966445877391
-0.3537,-96.2852510688144
-0.3547000000000001,-96.18622127782385
-0.3557,-96.35598663380765
-0.35670000000000013,-96.21451550382113
-0.3577,-96.12963282582925
-0.35870000000000013,-96.15792705182655
-0.3597,-96.2852510688144
-0.36070000000000013,-96.20036839082249
-0.3617,-96.14377993882789
-0.3626999999999999,-96.05889726083599
-0.3637,-95.95986746984543
-0.3646999999999999,-95.71936654886838
-0.3657,-95.50715985388862
-0.3666999999999999,-95.35154161090348
-0.3677,-95.21007048091697
-0.3686999999999999,-95.29495315890887
-0.36970000000000003,-95.19592336791831
-0.3706999999999999,-94.72906863896286
-0.37170000000000003,-94.3753908139966
-0.3726999999999999,-94.29050813600469
-0.37370000000000003,-94.10659566702225
-0.3746999999999999,-93.82365340704924
-0.37570000000000003,-93.71047650306002
-0.3766999999999999,-93.62559382506812
-0.37770000000000004,-93.45582846908432
-0.3786999999999999,-93.27191600010187
-0.37970000000000004,-93.17288620911131
-0.3806999999999999,-93.03141507912481
-0.38170000000000004,-92.93238528813426
-0.38269999999999993,-92.93238528813426
-0.38370000000000004,-92.76261993215046
-0.38469999999999993,-92.5504132371707
-0.38570000000000004,-92.5504132371707
-0.38669999999999993,-92.59285457616664
-0.38770000000000004,-92.8050612711464
-0.38869999999999993,-92.33820654219093
-0.38970000000000005,-92.14014696020983
-0.39069999999999994,-92.29576520319499
-0.39170000000000005,-92.28161809019635
-0.39269999999999994,-92.16844118620713
-0.39370000000000005,-92.14014696020983
-0.39469999999999994,-91.98452871722468
-0.39570000000000005,-92.01282294322199
-0.39669999999999994,-91.95623449122738
-0.39770000000000005,-91.99867583022333
-0.39869999999999994,-91.97038160422603
-0.39970000000000006,-92.16844118620713
-0.40069999999999995,-92.18258829920579
-0.40170000000000006,-92.25332386419905
-0.40269999999999995,-92.36650076818825
-0.40370000000000006,-92.50797189817473
-0.40469999999999995,-92.5504132371707
-0.40570000000000006,-92.53626612417206
-0.40669999999999995,-92.6352959151626
-0.40770000000000006,-92.88994394913831
-0.40869999999999995,-92.94653240113291
-0.40970000000000006,-93.03141507912481
-0.41069999999999995,-93.17288620911131
-0.41170000000000007,-93.28606311310051
-0.41269999999999996,-93.41338713008837
-0.41370000000000007,-93.44168135608567
-0.41469999999999996,-93.38509290409107
-0.41570000000000007,-93.39924001708972
-0.41669999999999996,-93.46997558208298
-0.41770000000000007,-93.63974093806678
-0.41869999999999996,-93.58315248607218
-0.4197000000000001,-93.71047650306002
-0.42069999999999996,-93.97927165003438
-0.4217000000000001,-94.14903700601819
-0.42269999999999996,-94.21977257101145
-0.4237000000000001,-94.17733123201549
-0.42469999999999997,-94.24806679700876
-0.4257000000000001,-94.4319792659912
-0.42669999999999997,-94.2339196840101
-0.4277000000000001,-94.4319792659912
-0.42869999999999997,-94.75736286496016
-0.4297000000000001,-94.7432157519615
-0.43069999999999997,-94.72906863896286
-0.4317000000000001,-94.94127533394261
-0.4327,-95.04030512493317
-0.4337000000000001,-95.15348202892238
-0.4347,-95.12518780292505
-0.4357000000000001,-95.35154161090348
-0.4367,-95.69107232287108
-0.4377000000000001,-96.00230880884139
-0.4387,-96.11548571283059
-0.4397000000000001,-96.31354529481169
-0.4407,-96.49745776379415
-0.4417000000000001,-96.80869424976446
-0.4427,-97.4877556736997
-0.4437000000000001,-98.03949308064705
-0.4447,-97.89802195066054
-0.4457000000000001,-98.2234055496295
-0.4467,-98.81758429557281
-0.4477000000000001,-99.39761592851748
-0.4487,-100.06253023945405
-0.4497000000000001,-100.62841475940007
-0.4507,-100.76988588938657
-0.4517000000000001,-100.62841475940007
-0.4527,-100.14741291744595
-0.4537000000000001,-100.40206095142165
-0.4547,-100.91135701937307
-0.4557000000000001,-101.18015216634743
-0.4567,-101.44894731332178
-0.4577000000000001,-101.8167722512867
-0.4587,-102.1845971892516
-0.4597000000000001,-102.4392452232273
-0.4607,-102.70804037020166
-0.4617000000000001,-103.20318932515443
-0.4627,-103.59930848911664
-0.4637000000000001,-104.06616321807209
-0.4647,-104.58960639902216
-0.4657000000000001,-105.32525627495198
-0.4667,-106.4287310888467
-0.4677000000000001,-107.58879435473604
-0.4687,-108.81959318561863
-0.4697000000000001,-110.09283335549715
-0.4707,-111.49339754236355
-0.4717000000000001,-113.9549952041287
-0.4727,-116.37415152689792
-0.4737000000000001,-119.1469856746334
-0.4747,-121.73590735338641
-0.4757000000000001,-123.63162049520555
-0.4767,-126.65910267691672
-0.4777000000000001,-129.27631858166706
-0.4787,-131.90768159941604
-0.4797000000000001,-133.83168896723245
-0.4807,-136.80258269694903
-0.48170000000000013,-141.25892329152393
-0.4827,-143.0273124163552
-0.48370000000000013,-143.0273124163552
-0.4847,-143.0273124163552
-0.48570000000000013,-143.0273124163552
-0.4867,-143.0273124163552
-0.48570000000000013,-143.0273124163552
-0.4847,-143.0273124163552
-0.48370000000000013,-143.0273124163552
-0.4827,-143.0273124163552
-0.48170000000000013,-143.0273124163552
-0.4807,-143.0273124163552
-0.4797000000000001,-143.0273124163552
-0.4787,-143.0273124163552
-0.4777000000000001,-143.0273124163552
-0.4767,-143.0273124163552
-0.4757000000000001,-143.0273124163552
-0.4747,-143.0273124163552
-0.4737000000000001,-143.0273124163552
-0.4727,-143.0273124163552
-0.4717000000000001,-143.0273124163552
-0.4707,-143.0273124163552
-0.4697000000000001,-143.0273124163552
-0.4687,-143.0273124163552
-0.4677000000000001,-142.8858412863687
-0.4667,-141.89554337646317
-0.4657000000000001,-141.13159927453606
-0.4647,-140.2403311556211
-0.4637000000000001,-138.99538521173986
-0.4627,-137.65140947686808
-0.4617000000000001,-136.5337875499747
-0.4607,-135.47275407507593
