Potential V vs RHE, Current mA cm-2
0.013299999999999867,0.346321326206961
0.012299999999999978,0.21715818452928315
0.011299999999999866,0.1433102546763282
0.010299999999999976,0.08573150477182122
0.009299999999999864,0.03617416793754899
0.008299999999999974,-0.0034617985507697452
0.007299999999999862,-0.04003632978618053
0.006299999999999972,-0.07632367462771873
0.00529999999999986,-0.10576381677791014
0.0042999999999999705,-0.13619425683800707
0.0032999999999998586,-0.16410651078434427
0.0022999999999999687,-0.192966621301591
0.0012999999999998568,-0.21800701130920216
0.00029999999999996696,-0.2460182950465299
-0.000700000000000145,-0.2726148674839926
-0.0017000000000000348,-0.2955331905418062
-0.0027000000000001467,-0.3171782734297412
-0.0037000000000000366,-0.3420771923073659
-0.0047000000000001485,-0.3661272844050715
-0.005700000000000038,-0.38918707859287155
-0.00670000000000015,-0.41054921922083365
-0.00770000000000004,-0.42879899498909263
-0.008700000000000152,-0.4486049531872031
-0.009700000000000042,-0.4691182670352462
-0.010700000000000154,-0.49147070557311373
-0.011700000000000044,-0.5037786938819395
-0.012700000000000156,-0.519906402700401
-0.013700000000000045,-0.5330632177891458
-0.014700000000000157,-0.5479176864377286
-0.015700000000000047,-0.5603671458765411
-0.01670000000000016,-0.5702701249755963
-0.01770000000000005,-0.5831439978043682
-0.01870000000000016,-0.5906419676936527
-0.01970000000000005,-0.6016767158326001
-0.020700000000000163,-0.6115796949316553
-0.021700000000000053,-0.616814126741156
-0.022700000000000164,-0.6243120966304406
-0.023700000000000054,-0.6318100665197254
-0.024700000000000166,-0.6397324497989695
-0.025700000000000056,-0.6466645351683082
-0.026700000000000168,-0.6511916113278763
-0.027700000000000058,-0.657274869917296
-0.02870000000000017,-0.6620848883368372
-0.02970000000000006,-0.6691584448361624
-0.03070000000000017,-0.6756661168155416
-0.03170000000000006,-0.6784955394152716
-0.03270000000000017,-0.6821737887949207
-0.03370000000000006,-0.6882570473843403
-0.034700000000000175,-0.6936329503238275
-0.035700000000000065,-0.6984429687433686
-0.03670000000000018,-0.7033944582928963
-0.03770000000000007,-0.7060824097626398
-0.03870000000000018,-0.712024197222073
-0.03970000000000007,-0.7145706775618301
-0.04070000000000018,-0.7212198206711957
-0.04170000000000007,-0.7247565989208583
-0.04270000000000018,-0.7282933771705209
-0.04370000000000007,-0.729425146210413
-0.044700000000000184,-0.7338107512399946
-0.045700000000000074,-0.7369231160996975
-0.046700000000000186,-0.7376304717496301
-0.047700000000000076,-0.7400354809594006
-0.04870000000000019,-0.7421575479091983
-0.04970000000000008,-0.7483822776286043
-0.05070000000000019,-0.7483822776286043
-0.05170000000000008,-0.7485237487585908
-0.05270000000000019,-0.7514946424883074
-0.05370000000000008,-0.7534752383081186
-0.05470000000000019,-0.7546070073480106
-0.05570000000000008,-0.7571534876877677
-0.056700000000000195,-0.755597305257916
-0.057700000000000085,-0.7580023144676866
-0.058700000000000196,-0.7580023144676866
-0.059700000000000086,-0.7601243814174842
-0.0607000000000002,-0.7608317370674167
-0.06170000000000009,-0.7601243814174842
-0.0627000000000002,-0.7642270441870929
-0.06370000000000009,-0.7625293906272548
-0.0647000000000002,-0.7629538040172142
-0.06570000000000009,-0.7652173420969983
-0.0667000000000002,-0.7626708617572412
-0.0677000000000001,-0.7621049772372952
-0.0687000000000002,-0.7635196885371602
-0.0697000000000001,-0.7638026307971333
-0.07070000000000021,-0.7640855730571063
-0.0717000000000001,-0.7646514575770523
-0.07270000000000021,-0.7636611596671468
-0.0737000000000001,-0.7642270441870929
-0.07470000000000021,-0.7652173420969983
-0.0757000000000001,-0.7650758709670118
-0.07670000000000021,-0.7650758709670118
-0.0777000000000001,-0.7632367462771872
-0.07870000000000021,-0.7632367462771872
-0.0797000000000001,-0.7628123328872277
-0.08070000000000022,-0.7649343998370254
-0.0817000000000001,-0.7647929287070389
-0.08270000000000022,-0.7622464483672817
-0.08370000000000011,-0.7623879194972683
-0.08470000000000022,-0.7638026307971333
-0.08570000000000011,-0.7629538040172142
-0.08670000000000022,-0.7623879194972683
-0.08770000000000011,-0.7632367462771872
-0.08870000000000022,-0.7616805638473357
-0.08970000000000011,-0.7645099864470658
-0.09070000000000022,-0.7650758709670118
-0.09170000000000011,-0.7622464483672817
-0.09270000000000023,-0.7646514575770523
-0.09370000000000012,-0.7632367462771872
-0.09470000000000023,-0.7652173420969983
-0.09570000000000012,-0.7657832266169443
-0.09670000000000023,-0.7632367462771872
-0.09770000000000012,-0.7639441019271197
-0.09870000000000023,-0.7643685153170794
-0.09970000000000012,-0.7650758709670118
-0.10070000000000023,-0.7674808801767823
-0.10170000000000012,-0.7629538040172142
-0.10270000000000024,-0.7664905822668768
-0.10370000000000013,-0.7652173420969983
-0.10470000000000024,-0.7662076400069039
-0.10570000000000013,-0.7667735245268499
-0.10670000000000024,-0.7669149956568363
-0.10770000000000013,-0.7659246977469308
-0.10870000000000024,-0.7697444182565665
-0.10970000000000013,-0.7693200048666069
-0.11070000000000024,-0.7704517739064989
-0.11170000000000013,-0.7694614759965934
-0.11270000000000002,-0.7708761872964585
-0.11370000000000013,-0.7731397253762425
-0.11470000000000002,-0.7717250140763775
-0.11570000000000014,-0.7748373789360805
-0.11670000000000003,-0.7751203211960536
-0.11770000000000014,-0.774130023286148
-0.11870000000000003,-0.7742714944161345
-0.11970000000000014,-0.7786570994457161
-0.12070000000000003,-0.7799303396155948
-0.12170000000000014,-0.7796473973556217
-0.12270000000000003,-0.7809206375255002
-0.12370000000000014,-0.7807791663955137
-0.12470000000000003,-0.7855891848150548
-0.12570000000000014,-0.7860135982050144
-0.12670000000000003,-0.7872868383748929
-0.12770000000000015,-0.7877112517648525
-0.12870000000000004,-0.789550376454677
-0.12970000000000015,-0.7913895011445016
-0.13070000000000004,-0.7939359814842585
-0.13170000000000015,-0.794643337134191
-0.13270000000000004,-0.7976142308639076
-0.13370000000000015,-0.7983215865138401
-0.13470000000000004,-0.8014339513735432
-0.13570000000000015,-0.8029901338033948
-0.13670000000000004,-0.8048292584932193
-0.13770000000000016,-0.8072342677029899
-0.13870000000000005,-0.81006369030272
-0.13970000000000016,-0.812327228382504
-0.14070000000000005,-0.8177031313219912
-0.14170000000000016,-0.8152981221122206
-0.14270000000000005,-0.8188349003618833
-0.14370000000000016,-0.8226546208715189
-0.14470000000000005,-0.8246352166913299
-0.14570000000000016,-0.8302940618907901
-0.14670000000000005,-0.8287378794609385
-0.14770000000000016,-0.8331234844905201
-0.14870000000000005,-0.8369432050001557
-0.14970000000000017,-0.8389238008199668
-0.15070000000000006,-0.8444411748894404
-0.15170000000000017,-0.846280299579265
-0.15270000000000006,-0.8486853087890355
-0.15370000000000017,-0.8537782694685497
-0.15470000000000006,-0.8566076920682798
-0.15570000000000017,-0.8608518259678749
-0.15670000000000006,-0.8631153640476589
-0.15770000000000017,-0.8673594979472539
-0.15870000000000006,-0.8716036318468491
-0.15970000000000018,-0.8749989389665251
-0.16070000000000007,-0.8802333707760258
-0.16170000000000018,-0.8813651398159178
-0.16270000000000007,-0.8854678025855264
-0.16370000000000018,-0.8911266477849867
-0.16470000000000007,-0.8979172620243387
-0.16570000000000018,-0.9003222712341092
-0.16670000000000007,-0.9038590494837719
-0.16770000000000018,-0.9076787699934075
-0.16870000000000007,-0.9130546729328947
-0.16970000000000018,-0.9184305758723817
-0.17070000000000007,-0.9242308922018284
-0.17170000000000019,-0.926070016891653
-0.17270000000000008,-0.9330021022609917
-0.1737000000000002,-0.9358315248607216
-0.17470000000000008,-0.9429050813600469
-0.1757000000000002,-0.9487053976894935
-0.17670000000000008,-0.9521007048091696
-0.1777000000000002,-0.9601645592184004
-0.17870000000000008,-0.96341839520809
-0.1797000000000002,-0.9696431249274962
-0.18070000000000008,-0.9769996236867944
-0.1817000000000002,-0.9813852287163759
-0.18270000000000008,-0.9869026027858494
-0.1837000000000002,-0.9921370345953502
-0.1847000000000001,-0.9989276488347025
-0.1857000000000002,-1.0076988588938656
-0.1867000000000001,-1.011518579403501
-0.1877000000000002,-1.0177433091229073
-0.1887000000000001,-1.0255242212721651
-0.1897000000000002,-1.0328807200314631
-0.1907000000000001,-1.0410860455706805
-0.1917000000000001,-1.0463204773801813
-0.19269999999999998,-1.0526866782295738
-0.1937000000000001,-1.0610334748987775
-0.19469999999999998,-1.0693802715679812
-0.1957000000000001,-1.077161183717239
-0.19669999999999999,-1.0849420958664966
-0.1977000000000001,-1.0918741812358355
-0.1987,-1.100786862424985
-0.1997000000000001,-1.1095580724841483
-0.2007,-1.1177633980233654
-0.2017000000000001,-1.124695483392704
-0.2027,-1.1337496357118404
-0.2037000000000001,-1.1436526148108959
-0.2047,-1.154121478429897
-0.2057000000000001,-1.1633171018790196
-0.2067,-1.1718053696782098
-0.2077000000000001,-1.1808595219973461
-0.2087,-1.191186914486361
-0.2097000000000001,-1.202787547145254
-0.2107,-1.21226611285435
-0.2117000000000001,-1.2213202651734862
-0.2127,-1.233628253482312
-0.2137000000000001,-1.2428238769314346
-0.2147,-1.2568295188000984
-0.2157000000000001,-1.2725328142286005
-0.2167,-1.2781916594280607
-0.21770000000000012,-1.2916314167767784
-0.2187,-1.3022417515257663
-0.21970000000000012,-1.3155400377444977
-0.2207,-1.3267162570134312
-0.22170000000000012,-1.3367607072424732
-0.2227,-1.3527469449309482
-0.22370000000000012,-1.3637816930698954
-0.2247,-1.3777873349385592
-0.22570000000000012,-1.3922173901971826
-0.2267,-1.4025447826861974
-0.22770000000000012,-1.4161260111649017
-0.22870000000000001,-1.433102546763282
-0.22970000000000013,-1.4458349484620676
-0.23070000000000002,-1.462811484060448
-0.23170000000000013,-1.472714463159503
-0.23270000000000002,-1.4896909987578837
-0.23370000000000013,-1.505252823056399
-0.23470000000000002,-1.5208146473549145
-0.23570000000000013,-1.53920589425316
-0.23670000000000002,-1.55052358465208
-0.2376999999999999,-1.5660854089505953
-0.23870000000000002,-1.583061944548976
-0.2396999999999999,-1.6000384801473564
-0.24070000000000003,-1.6170150157457368
-0.24169999999999991,-1.6339915513441174
-0.24270000000000003,-1.6523827982423631
-0.24369999999999992,-1.6679446225408785
-0.24470000000000003,-1.6891652920388538
-0.24569999999999992,-1.7061418276372344
-0.24670000000000003,-1.7231183632356148
-0.24769999999999992,-1.7415096101338603
-0.24870000000000003,-1.7599008570321055
-0.24969999999999992,-1.779706815230216
-0.25070000000000003,-1.7995127734283267
-0.2516999999999999,-1.8179040203265722
-0.25270000000000004,-1.8391246898245475
-0.2536999999999999,-1.857515936722793
-0.25470000000000004,-1.8773218949209036
-0.2556999999999999,-1.8985425644188794
-0.25670000000000004,-1.9169338113171246
-0.25769999999999993,-1.9409839034148304
-0.25870000000000004,-1.959375150313076
-0.25969999999999993,-1.9834252424107812
-0.26070000000000004,-2.004645911908757
-0.26169999999999993,-2.0258665814067327
-0.26270000000000004,-2.048501962204573
-0.26369999999999993,-2.0697226317025486
-0.26470000000000005,-2.0937727238002544
-0.26569999999999994,-2.11782281589796
-0.26670000000000005,-2.1418729079956655
-0.26769999999999994,-2.1659230000933714
-0.26870000000000005,-2.1885583808912115
-0.26969999999999994,-2.2140231842887825
-0.27070000000000005,-2.2394879876863527
-0.27169999999999994,-2.2621233684841937
-0.27270000000000005,-2.286173460581899
-0.27369999999999994,-2.3130529752793345
-0.27470000000000006,-2.3371030673770408
-0.27569999999999995,-2.3639825820744766
-0.27670000000000006,-2.389447385472047
-0.27769999999999995,-2.4134974775697526
-0.27870000000000006,-2.4403769922671885
-0.27969999999999995,-2.4700859295643536
-0.28070000000000006,-2.49413602166206
-0.28169999999999995,-2.5238449589592253
-0.28270000000000006,-2.5478950510569307
-0.28369999999999995,-2.5776039883540967
-0.28470000000000006,-2.6058982143513973
-0.28569999999999995,-2.6356071516485633
-0.28670000000000007,-2.663901377645864
-0.28769999999999996,-2.6921956036431647
-0.28870000000000007,-2.720489829640466
-0.28969999999999996,-2.7516134782374966
-0.29070000000000007,-2.778492992934932
-0.29169999999999996,-2.8096166415319628
-0.29270000000000007,-2.840740290128994
-0.29369999999999996,-2.8690345161262942
-0.2947000000000001,-2.90157287602319
-0.29569999999999996,-2.9341112359200863
-0.2967000000000001,-2.9624054619173865
-0.29769999999999996,-2.994943821814283
-0.2987000000000001,-3.0260674704113137
-0.29969999999999997,-3.0600205416080746
-0.3007000000000001,-3.09255890150497
-0.30169999999999997,-3.123682550102001
-0.3027000000000001,-3.156220909998897
-0.30369999999999997,-3.1901739811956578
-0.3047000000000001,-3.2241270523924186
-0.30569999999999997,-3.2594948348890447
-0.3067000000000001,-3.2920331947859403
-0.3077,-3.325986265982701
-0.3087000000000001,-3.359939337179462
-0.3097,-3.3953071196760884
-0.3107000000000001,-3.432089613472579
-0.3117,-3.4674573959692045
-0.3127000000000001,-3.5014104671659654
-0.3137,-3.541022383562187
-0.3147000000000001,-3.576390166058813
-0.3157,-3.6145873711551686
-0.3167000000000001,-3.6513698649516595
-0.3177,-3.688152358748151
-0.3187000000000001,-3.727764275144372
-0.3197,-3.7673761915405932
-0.3207000000000001,-3.8041586853370832
-0.3217,-3.8437706017333046
-0.3227000000000001,-3.8833825181295256
-0.3237,-3.922994434525747
-0.3247000000000001,-3.9640210622218324
-0.3257,-4.003632978618054
-0.3267000000000001,-4.0446596063141405
-0.3277,-4.085686234010226
-0.3287000000000001,-4.128127573006177
-0.3297,-4.171983623301993
-0.3307000000000001,-4.213010250998079
-0.3317,-4.25545158999403
-0.3327000000000001,-4.299307640289847
-0.3337,-4.3403342679859325
-0.3347000000000001,-4.388434452181344
-0.3357,-4.430875791177296
-0.3367000000000001,-4.473317130173245
-0.3377,-4.518587891768927
-0.3387000000000001,-4.5638586533646075
-0.3397,-4.610544126260154
-0.3407000000000001,-4.658644310455566
-0.3417,-4.702500360751382
-0.3427000000000001,-4.749185833646928
-0.3437,-4.798700729142205
-0.3447000000000001,-4.8453862020377505
-0.3457,-4.894901097533027
-0.3467000000000001,-4.941586570428573
-0.3477,-4.991101465923849
-0.3487000000000001,-5.039201650119261
-0.3497,-5.088716545614537
-0.3507000000000001,-5.141060863709543
-0.3517,-5.189161047904955
-0.3527000000000001,-5.241505365999961
-0.3537,-5.2924349727951014
-0.3547000000000001,-5.341949868290378
-0.3557,-5.39570889768525
-0.35670000000000013,-5.446638504480391
-0.3577,-5.496153399975667
-0.35870000000000013,-5.551327140670404
-0.3597,-5.605086170065275
-0.36070000000000013,-5.658845199460147
-0.3617,-5.709774806255288
-0.3626999999999999,-5.763533835650159
-0.3637,-5.817292865045031
-0.3646999999999999,-5.872466605739767
-0.3657,-5.927640346434504
-0.3666999999999999,-5.98281408712924
-0.3677,-6.037987827823977
-0.3686999999999999,-6.094576279818578
-0.36970000000000003,-6.155408865712774
-0.3706999999999999,-6.209167895107646
-0.37170000000000003,-6.268585769701978
-0.3726999999999999,-6.323759510396714
-0.37370000000000003,-6.384592096290911
-0.3746999999999999,-6.442595259585377
-0.37570000000000003,-6.503427845479574
-0.3766999999999999,-6.56143100877404
-0.37770000000000004,-6.622263594668237
-0.3786999999999999,-6.685925603162163
-0.37970000000000004,-6.7481729003562245
-0.3806999999999999,-6.810420197550286
-0.38170000000000004,-6.874082206044213
-0.38269999999999993,-6.939158925838006
-0.38370000000000004,-7.002820934331931
-0.38469999999999993,-7.069312365425588
-0.38570000000000004,-7.135803796519245
-0.38669999999999993,-7.2022952276129
-0.38770000000000004,-7.267371947406693
-0.38869999999999993,-7.3381075123999455
-0.38970000000000005,-7.407428366093333
-0.39069999999999994,-7.4767492197867185
-0.39170000000000005,-7.548899496079835
-0.39269999999999994,-7.618220349773223
-0.39370000000000005,-7.694614759965935
-0.39469999999999994,-7.768179747558916
-0.39570000000000005,-7.8431594464517636
-0.39669999999999994,-7.918139145344611
-0.39770000000000005,-7.991704132937592
-0.39869999999999994,-8.069513254430168
-0.39970000000000006,-8.147322375922746
-0.40069999999999995,-8.226546208715188
-0.40170000000000006,-8.304355330207764
-0.40269999999999995,-8.383579163000208
-0.40370000000000006,-8.464217707092514
-0.40469999999999995,-8.549100385084417
-0.40570000000000006,-8.631153640476589
-0.40669999999999995,-8.714621607168628
-0.40770000000000006,-8.798089573860663
-0.40869999999999995,-8.885801674452297
-0.40970000000000006,-8.976343197643658
-0.41069999999999995,-9.062640586935425
-0.41170000000000007,-9.151767398826921
-0.41269999999999996,-9.245138344618015
-0.41370000000000007,-9.334265156509511
-0.41469999999999996,-9.429050813600469
-0.41570000000000007,-9.522421759391563
-0.41669999999999996,-9.615792705182653
-0.41770000000000007,-9.714822496173207
-0.41869999999999996,-9.811022864564029
-0.4197000000000001,-9.914296789454177
-0.42069999999999996,-10.01615600304446
-0.4217000000000001,-10.113771082735147
-0.42269999999999996,-10.217045007625295
-0.4237000000000001,-10.323148355115173
-0.42469999999999997,-10.427836991305185
-0.4257000000000001,-10.538184472694656
-0.42669999999999997,-10.645702531484401
-0.4277000000000001,-10.753220590274143
-0.42869999999999997,-10.866397494263348
-0.4297000000000001,-10.980989109552414
-0.43069999999999997,-11.096995436141347
-0.4317000000000001,-11.211587051430415
-0.4327,-11.331837511918945
-0.4337000000000001,-11.454917395007202
-0.4347,-11.576582566795595
-0.4357000000000001,-11.701077161183719
-0.4367,-11.828401178171571
-0.4377000000000001,-11.954310483859562
-0.4387,-12.084463923447142
-0.4397000000000001,-12.217446785634456
-0.4407,-12.349014936521906
-0.4417000000000001,-12.483412510009083
-0.4427,-12.616395372196397
-0.4437000000000001,-12.756451790883034
-0.4447,-12.896508209569674
-0.4457000000000001,-13.039394050856043
-0.4467,-13.187938737341872
-0.4477000000000001,-13.332239289928106
-0.4487,-13.4821986877138
-0.4497000000000001,-13.636402219399088
-0.4507,-13.787776328484648
-0.4517000000000001,-13.944809282769667
-0.4527,-14.101842237054685
-0.4537000000000001,-14.26028990263957
-0.4547,-14.430055258623375
-0.4557000000000001,-14.585673501608527
-0.4567,-14.755438857592333
-0.4577000000000001,-14.925204213576137
-0.4587,-15.10911668255859
-0.4597000000000001,-15.278882038542395
-0.4607,-15.462794507524851
-0.4617000000000001,-15.646706976507305
-0.4627,-15.830619445489761
-0.4637000000000001,-16.014531914472215
-0.4647,-16.21259149645332
-0.4657000000000001,-16.410651078434423
-0.4667,-16.60871066041553
-0.4677000000000001,-16.806770242396635
-0.4687,-17.00482982437774
-0.4697000000000001,-17.20288940635885
-0.4707,-17.4150961013386
-0.4717000000000001,-17.627302796318357
-0.4727,-17.853656604296763
-0.4737000000000001,-18.08001041227517
-0.4747,-18.306364220253574
-0.4757000000000001,-18.546865141230633
-0.4767,-18.77321894920904
-0.4777000000000001,-19.01371987018609
-0.4787,-19.25422079116315
-0.4797000000000001,-19.508868825138855
-0.4807,-19.749369746115914
-0.48170000000000013,-20.00401778009162
-0.4827,-20.272812927065978
-0.48370000000000013,-20.52746096104168
-0.4847,-20.79625610801604
-0.48570000000000013,-21.079198367989047
-0.4867,-21.347993514963402
-0.4876999999999999,-21.63093577493641
-0.4887,-21.91387803490942
-0.4896999999999999,-22.210967407881075
-0.4907,-22.508056780852733
-0.4916999999999999,-22.819293266823045
-0.4927,-23.13052975279335
-0.4936999999999999,-23.427619125765005
-0.49470000000000003,-23.753002724733967
-0.4956999999999999,-24.078386323702922
-0.49670000000000003,-24.389622809673234
-0.4976999999999999,-24.729153521640843
-0.49870000000000003,-25.06868423360845
-0.4996999999999999,-25.40821494557606
-0.5007,-25.761892770542314
-0.5016999999999999,-26.101423482509926
-0.5027,-26.469248420474838
-0.5036999999999999,-26.837073358439746
