Oct. 19, 2024   11:54:32
Linear Sweep Voltammetry
File: c:/users/guazh/data/banditlqround2/2024-10-18-exp575\regeneratedgce-2024-10-19t11_44_54-lsvinkoh\regeneratedgce_lsv_50mvs_efin_-2500mv.bin
Data Source:  Experiment
Instrument Model:  CHI760E
Header: LSV ran at 50 mVs with Efin at -2500mV
Note: 

Init E (V) = -0.6
Final E (V) = -2.5
Scan Rate (V/s) = 0.05
Sample Interval (V) = 0.001
Quiet Time (sec) = 2
Sensitivity (A/V) = 1e-4

Results:

Channel 1:

Potential/V, Current/A

-0.600, 1.488e-8
-0.601, 1.626e-8
-0.602, 1.478e-8
-0.603, 1.290e-8
-0.604, 1.488e-8
-0.605, 1.577e-8
-0.606, 1.557e-8
-0.607, 1.399e-8
-0.608, 1.172e-8
-0.609, 1.429e-8
-0.610, 1.468e-8
-0.611, 1.468e-8
-0.612, 1.271e-8
-0.613, 1.064e-8
-0.614, 1.310e-8
-0.615, 1.527e-8
-0.616, 1.458e-8
-0.617, 1.399e-8
-0.618, 1.133e-8
-0.619, 1.389e-8
-0.620, 1.468e-8
-0.621, 1.478e-8
-0.622, 1.281e-8
-0.623, 1.083e-8
-0.624, 1.281e-8
-0.625, 1.330e-8
-0.626, 1.438e-8
-0.627, 1.271e-8
-0.628, 1.192e-8
-0.629, 1.340e-8
-0.630, 1.438e-8
-0.631, 1.409e-8
-0.632, 1.162e-8
-0.633, 1.073e-8
-0.634, 1.261e-8
-0.635, 1.369e-8
-0.636, 1.389e-8
-0.637, 1.290e-8
-0.638, 1.004e-8
-0.639, 1.281e-8
-0.640, 1.330e-8
-0.641, 1.438e-8
-0.642, 1.290e-8
-0.643, 1.024e-8
-0.644, 1.192e-8
-0.645, 1.300e-8
-0.646, 1.310e-8
-0.647, 1.054e-8
-0.648, 9.846e-9
-0.649, 1.172e-8
-0.650, 1.340e-8
-0.651, 1.350e-8
-0.652, 1.123e-8
-0.653, 9.945e-9
-0.654, 1.212e-8
-0.655, 1.360e-8
-0.656, 1.320e-8
-0.657, 1.123e-8
-0.658, 9.550e-9
-0.659, 1.162e-8
-0.660, 1.369e-8
-0.661, 1.300e-8
-0.662, 1.093e-8
-0.663, 9.353e-9
-0.664, 1.073e-8
-0.665, 1.271e-8
-0.666, 1.300e-8
-0.667, 1.054e-8
-0.668, 9.452e-9
-0.669, 1.152e-8
-0.670, 1.320e-8
-0.671, 1.251e-8
-0.672, 1.073e-8
-0.673, 1.044e-8
-0.674, 1.133e-8
-0.675, 1.162e-8
-0.676, 1.221e-8
-0.677, 1.083e-8
-0.678, 8.366e-9
-0.679, 1.113e-8
-0.680, 1.251e-8
-0.681, 1.172e-8
-0.682, 9.748e-9
-0.683, 8.268e-9
-0.684, 1.152e-8
-0.685, 1.320e-8
-0.686, 1.231e-8
-0.687, 1.004e-8
-0.688, 9.156e-9
-0.689, 1.113e-8
-0.690, 1.202e-8
-0.691, 1.162e-8
-0.692, 1.004e-8
-0.693, 8.564e-9
-0.694, 1.103e-8
-0.695, 1.221e-8
-0.696, 1.212e-8
-0.697, 1.044e-8
-0.698, 9.550e-9
-0.699, 1.152e-8
-0.700, 1.192e-8
-0.701, 1.152e-8
-0.702, 8.958e-9
-0.703, 8.070e-9
-0.704, 1.014e-8
-0.705, 1.231e-8
-0.706, 1.212e-8
-0.707, 9.846e-9
-0.708, 8.169e-9
-0.709, 1.004e-8
-0.710, 1.152e-8
-0.711, 1.172e-8
-0.712, 9.945e-9
-0.713, 9.353e-9
-0.714, 1.073e-8
-0.715, 1.133e-8
-0.716, 1.142e-8
-0.717, 1.004e-8
-0.718, 9.156e-9
-0.719, 1.093e-8
-0.720, 1.261e-8
-0.721, 1.103e-8
-0.722, 8.169e-9
-0.723, 7.478e-9
-0.724, 1.103e-8
-0.725, 1.152e-8
-0.726, 1.142e-8
-0.727, 9.649e-9
-0.728, 8.662e-9
-0.729, 1.064e-8
-0.730, 1.212e-8
-0.731, 1.152e-8
-0.732, 9.057e-9
-0.733, 8.958e-9
-0.734, 1.064e-8
-0.735, 1.202e-8
-0.736, 1.221e-8
-0.737, 9.156e-9
-0.738, 8.564e-9
-0.739, 1.024e-8
-0.740, 1.044e-8
-0.741, 9.945e-9
-0.742, 8.268e-9
-0.743, 8.070e-9
-0.744, 1.034e-8
-0.745, 1.221e-8
-0.746, 1.113e-8
-0.747, 8.268e-9
-0.748, 7.577e-9
-0.749, 1.014e-8
-0.750, 1.083e-8
-0.751, 1.162e-8
-0.752, 9.156e-9
-0.753, 7.972e-9
-0.754, 9.846e-9
-0.755, 1.103e-8
-0.756, 1.103e-8
-0.757, 8.070e-9
-0.758, 7.281e-9
-0.759, 9.945e-9
-0.760, 1.044e-8
-0.761, 1.044e-8
-0.762, 8.268e-9
-0.763, 7.084e-9
-0.764, 9.748e-9
-0.765, 1.083e-8
-0.766, 1.054e-8
-0.767, 6.886e-9
-0.768, 7.676e-9
-0.769, 9.945e-9
-0.770, 1.064e-8
-0.771, 1.004e-8
-0.772, 7.972e-9
-0.773, 7.676e-9
-0.774, 1.034e-8
-0.775, 1.093e-8
-0.776, 1.044e-8
-0.777, 7.380e-9
-0.778, 6.393e-9
-0.779, 9.550e-9
-0.780, 9.846e-9
-0.781, 1.064e-8
-0.782, 8.564e-9
-0.783, 8.268e-9
-0.784, 1.113e-8
-0.785, 1.142e-8
-0.786, 9.945e-9
-0.787, 8.169e-9
-0.788, 7.380e-9
-0.789, 9.057e-9
-0.790, 1.093e-8
-0.791, 1.064e-8
-0.792, 6.689e-9
-0.793, 6.985e-9
-0.794, 1.073e-8
-0.795, 1.064e-8
-0.796, 9.452e-9
-0.797, 7.380e-9
-0.798, 7.182e-9
-0.799, 9.057e-9
-0.800, 9.846e-9
-0.801, 9.846e-9
-0.802, 6.788e-9
-0.803, 7.182e-9
-0.804, 9.649e-9
-0.805, 9.945e-9
-0.806, 9.353e-9
-0.807, 6.788e-9
-0.808, 7.084e-9
-0.809, 9.550e-9
-0.810, 1.044e-8
-0.811, 9.748e-9
-0.812, 7.774e-9
-0.813, 7.182e-9
-0.814, 9.452e-9
-0.815, 1.064e-8
-0.816, 1.004e-8
-0.817, 7.281e-9
-0.818, 7.182e-9
-0.819, 9.846e-9
-0.820, 1.202e-8
-0.821, 1.162e-8
-0.822, 7.182e-9
-0.823, 8.169e-9
-0.824, 9.748e-9
-0.825, 1.014e-8
-0.826, 1.024e-8
-0.827, 7.577e-9
-0.828, 7.577e-9
-0.829, 9.649e-9
-0.830, 1.123e-8
-0.831, 1.103e-8
-0.832, 8.366e-9
-0.833, 7.873e-9
-0.834, 9.748e-9
-0.835, 1.054e-8
-0.836, 1.024e-8
-0.837, 7.972e-9
-0.838, 8.761e-9
-0.839, 1.004e-8
-0.840, 1.133e-8
-0.841, 9.550e-9
-0.842, 6.985e-9
-0.843, 7.182e-9
-0.844, 9.156e-9
-0.845, 1.152e-8
-0.846, 1.083e-8
-0.847, 8.169e-9
-0.848, 8.268e-9
-0.849, 1.073e-8
-0.850, 9.945e-9
-0.851, 1.004e-8
-0.852, 7.774e-9
-0.853, 7.873e-9
-0.854, 1.054e-8
-0.855, 1.113e-8
-0.856, 1.054e-8
-0.857, 7.478e-9
-0.858, 7.281e-9
-0.859, 9.748e-9
-0.860, 1.123e-8
-0.861, 1.093e-8
-0.862, 7.873e-9
-0.863, 7.380e-9
-0.864, 9.846e-9
-0.865, 1.142e-8
-0.866, 9.649e-9
-0.867, 7.873e-9
-0.868, 8.169e-9
-0.869, 9.748e-9
-0.870, 1.172e-8
-0.871, 1.054e-8
-0.872, 8.564e-9
-0.873, 8.564e-9
-0.874, 1.093e-8
-0.875, 1.073e-8
-0.876, 1.054e-8
-0.877, 7.182e-9
-0.878, 8.366e-9
-0.879, 1.004e-8
-0.880, 1.073e-8
-0.881, 1.103e-8
-0.882, 7.577e-9
-0.883, 8.860e-9
-0.884, 1.103e-8
-0.885, 1.103e-8
-0.886, 1.064e-8
-0.887, 6.886e-9
-0.888, 8.564e-9
-0.889, 9.649e-9
-0.890, 1.073e-8
-0.891, 1.044e-8
-0.892, 6.886e-9
-0.893, 8.268e-9
-0.894, 9.649e-9
-0.895, 1.083e-8
-0.896, 1.054e-8
-0.897, 7.676e-9
-0.898, 7.873e-9
-0.899, 9.550e-9
-0.900, 1.064e-8
-0.901, 1.014e-8
-0.902, 6.985e-9
-0.903, 8.169e-9
-0.904, 1.004e-8
-0.905, 1.093e-8
-0.906, 9.649e-9
-0.907, 6.788e-9
-0.908, 8.169e-9
-0.909, 9.649e-9
-0.910, 1.103e-8
-0.911, 9.156e-9
-0.912, 8.268e-9
-0.913, 8.268e-9
-0.914, 9.353e-9
-0.915, 1.073e-8
-0.916, 1.024e-8
-0.917, 6.196e-9
-0.918, 7.774e-9
-0.919, 9.748e-9
-0.920, 9.156e-9
-0.921, 9.945e-9
-0.922, 6.689e-9
-0.923, 7.577e-9
-0.924, 9.254e-9
-0.925, 1.093e-8
-0.926, 1.054e-8
-0.927, 7.281e-9
-0.928, 7.478e-9
-0.929, 9.353e-9
-0.930, 1.073e-8
-0.931, 9.748e-9
-0.932, 7.182e-9
-0.933, 8.169e-9
-0.934, 9.945e-9
-0.935, 1.064e-8
-0.936, 9.846e-9
-0.937, 7.577e-9
-0.938, 6.886e-9
-0.939, 9.452e-9
-0.940, 1.073e-8
-0.941, 8.662e-9
-0.942, 6.985e-9
-0.943, 8.366e-9
-0.944, 1.024e-8
-0.945, 1.064e-8
-0.946, 1.014e-8
-0.947, 8.169e-9
-0.948, 8.169e-9
-0.949, 1.004e-8
-0.950, 1.093e-8
-0.951, 9.057e-9
-0.952, 6.294e-9
-0.953, 8.070e-9
-0.954, 1.054e-8
-0.955, 1.044e-8
-0.956, 1.024e-8
-0.957, 6.788e-9
-0.958, 8.169e-9
-0.959, 9.353e-9
-0.960, 1.073e-8
-0.961, 1.024e-8
-0.962, 6.788e-9
-0.963, 9.550e-9
-0.964, 9.846e-9
-0.965, 1.004e-8
-0.966, 9.452e-9
-0.967, 7.577e-9
-0.968, 8.465e-9
-0.969, 9.945e-9
-0.970, 1.103e-8
-0.971, 9.156e-9
-0.972, 7.478e-9
-0.973, 8.761e-9
-0.974, 9.452e-9
-0.975, 9.452e-9
-0.976, 8.958e-9
-0.977, 6.788e-9
-0.978, 7.478e-9
-0.979, 9.550e-9
-0.980, 1.064e-8
-0.981, 9.156e-9
-0.982, 6.788e-9
-0.983, 7.873e-9
-0.984, 8.860e-9
-0.985, 9.748e-9
-0.986, 9.550e-9
-0.987, 6.886e-9
-0.988, 7.774e-9
-0.989, 9.649e-9
-0.990, 1.083e-8
-0.991, 9.846e-9
-0.992, 6.886e-9
-0.993, 8.662e-9
-0.994, 1.024e-8
-0.995, 1.162e-8
-0.996, 8.958e-9
-0.997, 6.097e-9
-0.998, 8.070e-9
-0.999, 1.024e-8
-1.000, 1.093e-8
-1.001, 9.452e-9
-1.002, 8.366e-9
-1.003, 9.057e-9
-1.004, 1.004e-8
-1.005, 1.004e-8
-1.006, 9.254e-9
-1.007, 6.196e-9
-1.008, 7.577e-9
-1.009, 1.004e-8
-1.010, 9.254e-9
-1.011, 8.662e-9
-1.012, 6.689e-9
-1.013, 8.465e-9
-1.014, 1.014e-8
-1.015, 1.113e-8
-1.016, 9.649e-9
-1.017, 6.689e-9
-1.018, 7.774e-9
-1.019, 1.054e-8
-1.020, 9.550e-9
-1.021, 9.156e-9
-1.022, 7.182e-9
-1.023, 7.972e-9
-1.024, 9.550e-9
-1.025, 1.093e-8
-1.026, 9.846e-9
-1.027, 6.985e-9
-1.028, 8.958e-9
-1.029, 1.014e-8
-1.030, 1.024e-8
-1.031, 9.846e-9
-1.032, 7.281e-9
-1.033, 7.972e-9
-1.034, 1.044e-8
-1.035, 9.748e-9
-1.036, 9.452e-9
-1.037, 6.393e-9
-1.038, 8.761e-9
-1.039, 1.054e-8
-1.040, 1.133e-8
-1.041, 9.945e-9
-1.042, 7.380e-9
-1.043, 8.268e-9
-1.044, 9.550e-9
-1.045, 9.649e-9
-1.046, 9.254e-9
-1.047, 5.900e-9
-1.048, 8.268e-9
-1.049, 9.452e-9
-1.050, 9.649e-9
-1.051, 9.649e-9
-1.052, 7.478e-9
-1.053, 8.958e-9
-1.054, 1.083e-8
-1.055, 1.073e-8
-1.056, 9.748e-9
-1.057, 7.380e-9
-1.058, 8.662e-9
-1.059, 1.093e-8
-1.060, 9.945e-9
-1.061, 8.366e-9
-1.062, 7.577e-9
-1.063, 8.761e-9
-1.064, 1.054e-8
-1.065, 1.093e-8
-1.066, 9.550e-9
-1.067, 6.788e-9
-1.068, 7.774e-9
-1.069, 1.083e-8
-1.070, 1.044e-8
-1.071, 9.057e-9
-1.072, 7.873e-9
-1.073, 9.057e-9
-1.074, 9.945e-9
-1.075, 1.113e-8
-1.076, 9.452e-9
-1.077, 6.788e-9
-1.078, 9.254e-9
-1.079, 1.044e-8
-1.080, 9.649e-9
-1.081, 8.564e-9
-1.082, 7.972e-9
-1.083, 9.057e-9
-1.084, 1.004e-8
-1.085, 9.649e-9
-1.086, 9.550e-9
-1.087, 6.886e-9
-1.088, 9.254e-9
-1.089, 1.083e-8
-1.090, 1.014e-8
-1.091, 9.156e-9
-1.092, 6.393e-9
-1.093, 9.254e-9
-1.094, 1.054e-8
-1.095, 1.064e-8
-1.096, 8.958e-9
-1.097, 7.478e-9
-1.098, 8.761e-9
-1.099, 1.064e-8
-1.100, 1.142e-8
-1.101, 9.748e-9
-1.102, 7.478e-9
-1.103, 9.156e-9
-1.104, 1.054e-8
-1.105, 9.649e-9
-1.106, 8.662e-9
-1.107, 7.478e-9
-1.108, 9.254e-9
-1.109, 1.024e-8
-1.110, 1.014e-8
-1.111, 9.057e-9
-1.112, 7.084e-9
-1.113, 9.156e-9
-1.114, 1.034e-8
-1.115, 1.044e-8
-1.116, 9.057e-9
-1.117, 6.886e-9
-1.118, 9.156e-9
-1.119, 1.014e-8
-1.120, 1.083e-8
-1.121, 9.156e-9
-1.122, 7.577e-9
-1.123, 9.452e-9
-1.124, 1.004e-8
-1.125, 1.142e-8
-1.126, 8.662e-9
-1.127, 7.380e-9
-1.128, 8.958e-9
-1.129, 1.083e-8
-1.130, 1.093e-8
-1.131, 8.564e-9
-1.132, 7.676e-9
-1.133, 9.254e-9
-1.134, 1.113e-8
-1.135, 1.054e-8
-1.136, 9.057e-9
-1.137, 7.478e-9
-1.138, 9.452e-9
-1.139, 1.123e-8
-1.140, 1.162e-8
-1.141, 8.761e-9
-1.142, 7.478e-9
-1.143, 8.860e-9
-1.144, 9.846e-9
-1.145, 1.044e-8
-1.146, 8.366e-9
-1.147, 6.393e-9
-1.148, 8.958e-9
-1.149, 1.044e-8
-1.150, 1.093e-8
-1.151, 8.761e-9
-1.152, 7.380e-9
-1.153, 9.353e-9
-1.154, 9.550e-9
-1.155, 1.004e-8
-1.156, 9.057e-9
-1.157, 7.676e-9
-1.158, 8.662e-9
-1.159, 1.014e-8
-1.160, 1.054e-8
-1.161, 8.366e-9
-1.162, 6.689e-9
-1.163, 8.761e-9
-1.164, 1.054e-8
-1.165, 1.044e-8
-1.166, 8.564e-9
-1.167, 7.084e-9
-1.168, 9.156e-9
-1.169, 9.846e-9
-1.170, 1.024e-8
-1.171, 8.366e-9
-1.172, 6.492e-9
-1.173, 9.156e-9
-1.174, 1.024e-8
-1.175, 1.024e-8
-1.176, 7.478e-9
-1.177, 6.689e-9
-1.178, 9.945e-9
-1.179, 1.044e-8
-1.180, 1.044e-8
-1.181, 9.254e-9
-1.182, 7.478e-9
-1.183, 9.353e-9
-1.184, 1.093e-8
-1.185, 1.073e-8
-1.186, 9.353e-9
-1.187, 6.492e-9
-1.188, 9.452e-9
-1.189, 1.014e-8
-1.190, 1.123e-8
-1.191, 8.761e-9
-1.192, 8.366e-9
-1.193, 9.846e-9
-1.194, 1.024e-8
-1.195, 1.054e-8
-1.196, 8.070e-9
-1.197, 8.169e-9
-1.198, 9.254e-9
-1.199, 9.945e-9
-1.200, 1.024e-8
-1.201, 7.972e-9
-1.202, 7.478e-9
-1.203, 8.958e-9
-1.204, 1.152e-8
-1.205, 1.054e-8
-1.206, 8.366e-9
-1.207, 7.577e-9
-1.208, 9.649e-9
-1.209, 1.054e-8
-1.210, 1.054e-8
-1.211, 7.774e-9
-1.212, 7.873e-9
-1.213, 9.748e-9
-1.214, 9.945e-9
-1.215, 1.044e-8
-1.216, 9.057e-9
-1.217, 7.676e-9
-1.218, 9.057e-9
-1.219, 1.103e-8
-1.220, 1.024e-8
-1.221, 8.465e-9
-1.222, 7.084e-9
-1.223, 9.945e-9
-1.224, 9.846e-9
-1.225, 1.054e-8
-1.226, 8.169e-9
-1.227, 7.478e-9
-1.228, 9.452e-9
-1.229, 1.182e-8
-1.230, 1.172e-8
-1.231, 9.452e-9
-1.232, 7.676e-9
-1.233, 9.156e-9
-1.234, 1.014e-8
-1.235, 9.649e-9
-1.236, 9.353e-9
-1.237, 7.873e-9
-1.238, 9.945e-9
-1.239, 1.133e-8
-1.240, 1.152e-8
-1.241, 8.169e-9
-1.242, 7.380e-9
-1.243, 1.044e-8
-1.244, 1.093e-8
-1.245, 1.133e-8
-1.246, 8.761e-9
-1.247, 7.281e-9
-1.248, 9.945e-9
-1.249, 1.123e-8
-1.250, 1.014e-8
-1.251, 8.169e-9
-1.252, 7.478e-9
-1.253, 9.846e-9
-1.254, 1.093e-8
-1.255, 1.182e-8
-1.256, 9.945e-9
-1.257, 8.761e-9
-1.258, 9.649e-9
-1.259, 1.093e-8
-1.260, 1.103e-8
-1.261, 8.564e-9
-1.262, 7.873e-9
-1.263, 1.014e-8
-1.264, 1.142e-8
-1.265, 1.093e-8
-1.266, 8.662e-9
-1.267, 7.774e-9
-1.268, 1.024e-8
-1.269, 1.152e-8
-1.270, 1.162e-8
-1.271, 8.465e-9
-1.272, 7.084e-9
-1.273, 1.034e-8
-1.274, 1.162e-8
-1.275, 1.113e-8
-1.276, 8.564e-9
-1.277, 7.281e-9
-1.278, 9.452e-9
-1.279, 1.073e-8
-1.280, 1.034e-8
-1.281, 9.057e-9
-1.282, 7.281e-9
-1.283, 1.064e-8
-1.284, 1.152e-8
-1.285, 1.083e-8
-1.286, 8.958e-9
-1.287, 8.465e-9
-1.288, 9.945e-9
-1.289, 1.004e-8
-1.290, 1.024e-8
-1.291, 7.577e-9
-1.292, 6.985e-9
-1.293, 1.034e-8
-1.294, 1.113e-8
-1.295, 1.093e-8
-1.296, 8.564e-9
-1.297, 8.860e-9
-1.298, 1.054e-8
-1.299, 1.133e-8
-1.300, 1.123e-8
-1.301, 8.070e-9
-1.302, 7.478e-9
-1.303, 8.860e-9
-1.304, 1.073e-8
-1.305, 1.073e-8
-1.306, 9.452e-9
-1.307, 7.774e-9
-1.308, 1.034e-8
-1.309, 1.073e-8
-1.310, 1.103e-8
-1.311, 9.156e-9
-1.312, 7.873e-9
-1.313, 1.004e-8
-1.314, 1.103e-8
-1.315, 1.152e-8
-1.316, 7.774e-9
-1.317, 6.689e-9
-1.318, 9.353e-9
-1.319, 1.113e-8
-1.320, 1.073e-8
-1.321, 8.958e-9
-1.322, 8.465e-9
-1.323, 9.945e-9
-1.324, 1.103e-8
-1.325, 1.083e-8
-1.326, 9.254e-9
-1.327, 8.169e-9
-1.328, 9.649e-9
-1.329, 1.133e-8
-1.330, 1.054e-8
-1.331, 8.958e-9
-1.332, 8.169e-9
-1.333, 1.004e-8
-1.334, 1.152e-8
-1.335, 1.083e-8
-1.336, 9.057e-9
-1.337, 8.070e-9
-1.338, 1.004e-8
-1.339, 1.064e-8
-1.340, 1.064e-8
-1.341, 8.465e-9
-1.342, 8.169e-9
-1.343, 1.044e-8
-1.344, 1.113e-8
-1.345, 1.044e-8
-1.346, 8.564e-9
-1.347, 8.860e-9
-1.348, 1.103e-8
-1.349, 1.113e-8
-1.350, 1.073e-8
-1.351, 8.564e-9
-1.352, 8.958e-9
-1.353, 9.353e-9
-1.354, 1.162e-8
-1.355, 1.073e-8
-1.356, 7.873e-9
-1.357, 8.070e-9
-1.358, 1.113e-8
-1.359, 1.123e-8
-1.360, 1.172e-8
-1.361, 8.761e-9
-1.362, 8.465e-9
-1.363, 1.034e-8
-1.364, 1.241e-8
-1.365, 1.113e-8
-1.366, 8.268e-9
-1.367, 7.084e-9
-1.368, 9.748e-9
-1.369, 1.064e-8
-1.370, 1.034e-8
-1.371, 7.873e-9
-1.372, 8.070e-9
-1.373, 9.846e-9
-1.374, 1.142e-8
-1.375, 1.014e-8
-1.376, 8.564e-9
-1.377, 8.169e-9
-1.378, 1.034e-8
-1.379, 1.073e-8
-1.380, 1.123e-8
-1.381, 7.676e-9
-1.382, 8.268e-9
-1.383, 1.034e-8
-1.384, 1.103e-8
-1.385, 1.064e-8
-1.386, 8.958e-9
-1.387, 7.380e-9
-1.388, 9.550e-9
-1.389, 1.152e-8
-1.390, 9.452e-9
-1.391, 7.182e-9
-1.392, 7.577e-9
-1.393, 9.748e-9
-1.394, 1.054e-8
-1.395, 1.024e-8
-1.396, 8.564e-9
-1.397, 7.972e-9
-1.398, 9.748e-9
-1.399, 1.142e-8
-1.400, 1.064e-8
-1.401, 7.478e-9
-1.402, 7.873e-9
-1.403, 9.254e-9
-1.404, 1.073e-8
-1.405, 1.034e-8
-1.406, 8.564e-9
-1.407, 6.985e-9
-1.408, 1.034e-8
-1.409, 1.172e-8
-1.410, 1.064e-8
-1.411, 7.577e-9
-1.412, 8.366e-9
-1.413, 1.024e-8
-1.414, 1.054e-8
-1.415, 1.004e-8
-1.416, 8.366e-9
-1.417, 8.366e-9
-1.418, 1.044e-8
-1.419, 1.113e-8
-1.420, 1.044e-8
-1.421, 8.958e-9
-1.422, 7.676e-9
-1.423, 9.550e-9
-1.424, 1.142e-8
-1.425, 1.073e-8
-1.426, 7.873e-9
-1.427, 7.281e-9
-1.428, 1.004e-8
-1.429, 1.152e-8
-1.430, 1.054e-8
-1.431, 8.070e-9
-1.432, 7.873e-9
-1.433, 1.044e-8
-1.434, 1.142e-8
-1.435, 1.113e-8
-1.436, 8.366e-9
-1.437, 8.958e-9
-1.438, 1.024e-8
-1.439, 1.231e-8
-1.440, 1.152e-8
-1.441, 8.564e-9
-1.442, 7.774e-9
-1.443, 1.093e-8
-1.444, 1.103e-8
-1.445, 1.172e-8
-1.446, 9.156e-9
-1.447, 8.860e-9
-1.448, 1.133e-8
-1.449, 1.290e-8
-1.450, 1.123e-8
-1.451, 8.958e-9
-1.452, 8.070e-9
-1.453, 1.103e-8
-1.454, 1.142e-8
-1.455, 1.202e-8
-1.456, 8.958e-9
-1.457, 8.070e-9
-1.458, 1.034e-8
-1.459, 1.192e-8
-1.460, 1.093e-8
-1.461, 8.662e-9
-1.462, 8.958e-9
-1.463, 1.113e-8
-1.464, 1.192e-8
-1.465, 1.093e-8
-1.466, 8.761e-9
-1.467, 8.564e-9
-1.468, 1.103e-8
-1.469, 1.172e-8
-1.470, 1.142e-8
-1.471, 8.169e-9
-1.472, 8.958e-9
-1.473, 1.182e-8
-1.474, 1.113e-8
-1.475, 1.103e-8
-1.476, 8.662e-9
-1.477, 7.676e-9
-1.478, 1.044e-8
-1.479, 1.231e-8
-1.480, 1.093e-8
-1.481, 7.873e-9
-1.482, 7.873e-9
-1.483, 1.014e-8
-1.484, 1.152e-8
-1.485, 1.172e-8
-1.486, 9.452e-9
-1.487, 9.452e-9
-1.488, 9.846e-9
-1.489, 1.073e-8
-1.490, 1.103e-8
-1.491, 8.465e-9
-1.492, 8.761e-9
-1.493, 1.133e-8
-1.494, 1.241e-8
-1.495, 1.123e-8
-1.496, 9.254e-9
-1.497, 9.748e-9
-1.498, 1.212e-8
-1.499, 1.172e-8
-1.500, 1.142e-8
-1.501, 7.774e-9
-1.502, 7.972e-9
-1.503, 1.103e-8
-1.504, 1.212e-8
-1.505, 1.024e-8
-1.506, 9.254e-9
-1.507, 8.860e-9
-1.508, 1.034e-8
-1.509, 1.192e-8
-1.510, 1.133e-8
-1.511, 9.748e-9
-1.512, 8.070e-9
-1.513, 1.083e-8
-1.514, 1.152e-8
-1.515, 1.113e-8
-1.516, 8.860e-9
-1.517, 9.452e-9
-1.518, 1.142e-8
-1.519, 1.202e-8
-1.520, 1.133e-8
-1.521, 7.873e-9
-1.522, 8.662e-9
-1.523, 1.152e-8
-1.524, 1.162e-8
-1.525, 1.103e-8
-1.526, 9.254e-9
-1.527, 9.945e-9
-1.528, 1.221e-8
-1.529, 1.182e-8
-1.530, 1.093e-8
-1.531, 8.268e-9
-1.532, 8.564e-9
-1.533, 1.103e-8
-1.534, 1.251e-8
-1.535, 1.034e-8
-1.536, 8.366e-9
-1.537, 8.465e-9
-1.538, 1.103e-8
-1.539, 1.261e-8
-1.540, 1.103e-8
-1.541, 9.353e-9
-1.542, 8.761e-9
-1.543, 1.034e-8
-1.544, 1.182e-8
-1.545, 1.123e-8
-1.546, 8.169e-9
-1.547, 8.761e-9
-1.548, 1.034e-8
-1.549, 1.221e-8
-1.550, 1.172e-8
-1.551, 1.004e-8
-1.552, 9.452e-9
-1.553, 1.133e-8
-1.554, 1.103e-8
-1.555, 1.083e-8
-1.556, 8.465e-9
-1.557, 9.748e-9
-1.558, 1.113e-8
-1.559, 1.182e-8
-1.560, 1.113e-8
-1.561, 8.958e-9
-1.562, 9.649e-9
-1.563, 1.172e-8
-1.564, 1.221e-8
-1.565, 1.024e-8
-1.566, 7.873e-9
-1.567, 8.564e-9
-1.568, 1.133e-8
-1.569, 1.261e-8
-1.570, 1.142e-8
-1.571, 8.366e-9
-1.572, 8.070e-9
-1.573, 1.034e-8
-1.574, 1.162e-8
-1.575, 1.133e-8
-1.576, 8.268e-9
-1.577, 8.465e-9
-1.578, 1.083e-8
-1.579, 1.202e-8
-1.580, 1.093e-8
-1.581, 8.662e-9
-1.582, 9.353e-9
-1.583, 1.083e-8
-1.584, 1.300e-8
-1.585, 1.113e-8
-1.586, 8.958e-9
-1.587, 8.958e-9
-1.588, 1.083e-8
-1.589, 1.103e-8
-1.590, 1.162e-8
-1.591, 8.169e-9
-1.592, 9.057e-9
-1.593, 1.162e-8
-1.594, 1.172e-8
-1.595, 1.024e-8
-1.596, 8.268e-9
-1.597, 8.958e-9
-1.598, 9.748e-9
-1.599, 1.152e-8
-1.600, 1.123e-8
-1.601, 8.366e-9
-1.602, 8.761e-9
-1.603, 1.142e-8
-1.604, 1.192e-8
-1.605, 1.044e-8
-1.606, 8.761e-9
-1.607, 8.761e-9
-1.608, 1.054e-8
-1.609, 1.133e-8
-1.610, 1.073e-8
-1.611, 7.774e-9
-1.612, 8.366e-9
-1.613, 1.142e-8
-1.614, 1.261e-8
-1.615, 1.054e-8
-1.616, 9.254e-9
-1.617, 1.034e-8
-1.618, 1.202e-8
-1.619, 1.271e-8
-1.620, 1.083e-8
-1.621, 8.268e-9
-1.622, 8.169e-9
-1.623, 1.113e-8
-1.624, 1.133e-8
-1.625, 9.846e-9
-1.626, 9.057e-9
-1.627, 8.761e-9
-1.628, 1.083e-8
-1.629, 1.182e-8
-1.630, 1.073e-8
-1.631, 8.761e-9
-1.632, 8.465e-9
-1.633, 1.103e-8
-1.634, 1.113e-8
-1.635, 1.004e-8
-1.636, 8.268e-9
-1.637, 8.564e-9
-1.638, 1.133e-8
-1.639, 1.340e-8
-1.640, 1.231e-8
-1.641, 9.649e-9
-1.642, 1.024e-8
-1.643, 1.083e-8
-1.644, 1.251e-8
-1.645, 1.152e-8
-1.646, 8.860e-9
-1.647, 1.034e-8
-1.648, 1.152e-8
-1.649, 1.212e-8
-1.650, 1.142e-8
-1.651, 9.254e-9
-1.652, 1.034e-8
-1.653, 1.152e-8
-1.654, 1.192e-8
-1.655, 1.172e-8
-1.656, 9.057e-9
-1.657, 1.004e-8
-1.658, 1.202e-8
-1.659, 1.212e-8
-1.660, 1.073e-8
-1.661, 8.662e-9
-1.662, 9.353e-9
-1.663, 1.162e-8
-1.664, 1.281e-8
-1.665, 1.133e-8
-1.666, 9.156e-9
-1.667, 1.004e-8
-1.668, 1.142e-8
-1.669, 1.221e-8
-1.670, 1.152e-8
-1.671, 9.353e-9
-1.672, 1.054e-8
-1.673, 1.221e-8
-1.674, 1.251e-8
-1.675, 1.152e-8
-1.676, 8.761e-9
-1.677, 9.945e-9
-1.678, 1.103e-8
-1.679, 1.271e-8
-1.680, 1.162e-8
-1.681, 9.156e-9
-1.682, 9.057e-9
-1.683, 1.221e-8
-1.684, 1.212e-8
-1.685, 1.152e-8
-1.686, 8.268e-9
-1.687, 1.004e-8
-1.688, 1.142e-8
-1.689, 1.261e-8
-1.690, 1.212e-8
-1.691, 1.014e-8
-1.692, 1.073e-8
-1.693, 1.241e-8
-1.694, 1.271e-8
-1.695, 1.083e-8
-1.696, 8.662e-9
-1.697, 9.649e-9
-1.698, 1.202e-8
-1.699, 1.261e-8
-1.700, 1.064e-8
-1.701, 8.465e-9
-1.702, 9.550e-9
-1.703, 1.192e-8
-1.704, 1.261e-8
-1.705, 1.182e-8
-1.706, 9.254e-9
-1.707, 9.550e-9
-1.708, 1.281e-8
-1.709, 1.251e-8
-1.710, 1.073e-8
-1.711, 9.057e-9
-1.712, 1.004e-8
-1.713, 1.093e-8
-1.714, 1.192e-8
-1.715, 1.152e-8
-1.716, 9.254e-9
-1.717, 1.024e-8
-1.718, 1.202e-8
-1.719, 1.271e-8
-1.720, 1.133e-8
-1.721, 8.860e-9
-1.722, 9.846e-9
-1.723, 1.202e-8
-1.724, 1.350e-8
-1.725, 1.142e-8
-1.726, 8.761e-9
-1.727, 1.004e-8
-1.728, 1.182e-8
-1.729, 1.231e-8
-1.730, 1.261e-8
-1.731, 9.156e-9
-1.732, 1.113e-8
-1.733, 1.221e-8
-1.734, 1.261e-8
-1.735, 1.231e-8
-1.736, 8.761e-9
-1.737, 1.004e-8
-1.738, 1.202e-8
-1.739, 1.320e-8
-1.740, 1.064e-8
-1.741, 9.254e-9
-1.742, 1.054e-8
-1.743, 1.271e-8
-1.744, 1.182e-8
-1.745, 1.123e-8
-1.746, 9.353e-9
-1.747, 1.054e-8
-1.748, 1.221e-8
-1.749, 1.172e-8
-1.750, 1.093e-8
-1.751, 8.958e-9
-1.752, 1.083e-8
-1.753, 1.162e-8
-1.754, 1.330e-8
-1.755, 1.152e-8
-1.756, 9.945e-9
-1.757, 1.073e-8
-1.758, 1.162e-8
-1.759, 1.202e-8
-1.760, 1.162e-8
-1.761, 9.550e-9
-1.762, 1.024e-8
-1.763, 1.241e-8
-1.764, 1.241e-8
-1.765, 1.133e-8
-1.766, 9.748e-9
-1.767, 1.103e-8
-1.768, 1.281e-8
-1.769, 1.192e-8
-1.770, 1.113e-8
-1.771, 8.860e-9
-1.772, 1.004e-8
-1.773, 1.133e-8
-1.774, 1.221e-8
-1.775, 1.113e-8
-1.776, 8.662e-9
-1.777, 1.073e-8
-1.778, 1.133e-8
-1.779, 1.221e-8
-1.780, 1.133e-8
-1.781, 9.353e-9
-1.782, 1.014e-8
-1.783, 1.162e-8
-1.784, 1.271e-8
-1.785, 1.113e-8
-1.786, 8.465e-9
-1.787, 1.034e-8
-1.788, 1.192e-8
-1.789, 1.261e-8
-1.790, 1.133e-8
-1.791, 8.070e-9
-1.792, 1.044e-8
-1.793, 1.231e-8
-1.794, 1.340e-8
-1.795, 1.142e-8
-1.796, 9.254e-9
-1.797, 1.034e-8
-1.798, 1.182e-8
-1.799, 1.212e-8
-1.800, 1.113e-8
-1.801, 9.945e-9
-1.802, 9.846e-9
-1.803, 1.172e-8
-1.804, 1.142e-8
-1.805, 1.083e-8
-1.806, 9.057e-9
-1.807, 1.014e-8
-1.808, 1.212e-8
-1.809, 1.231e-8
-1.810, 1.073e-8
-1.811, 8.465e-9
-1.812, 9.550e-9
-1.813, 1.113e-8
-1.814, 1.271e-8
-1.815, 9.550e-9
-1.816, 8.958e-9
-1.817, 1.034e-8
-1.818, 1.221e-8
-1.819, 1.261e-8
-1.820, 1.192e-8
-1.821, 9.452e-9
-1.822, 1.024e-8
-1.823, 1.172e-8
-1.824, 1.212e-8
-1.825, 1.172e-8
-1.826, 9.649e-9
-1.827, 9.748e-9
-1.828, 1.142e-8
-1.829, 1.182e-8
-1.830, 1.142e-8
-1.831, 9.748e-9
-1.832, 1.064e-8
-1.833, 1.133e-8
-1.834, 1.182e-8
-1.835, 1.172e-8
-1.836, 8.662e-9
-1.837, 1.113e-8
-1.838, 1.172e-8
-1.839, 1.123e-8
-1.840, 1.212e-8
-1.841, 9.057e-9
-1.842, 9.748e-9
-1.843, 1.231e-8
-1.844, 1.251e-8
-1.845, 1.182e-8
-1.846, 9.057e-9
-1.847, 1.044e-8
-1.848, 1.221e-8
-1.849, 1.320e-8
-1.850, 1.182e-8
-1.851, 9.057e-9
-1.852, 1.024e-8
-1.853, 1.172e-8
-1.854, 1.192e-8
-1.855, 1.123e-8
-1.856, 8.564e-9
-1.857, 1.133e-8
-1.858, 1.300e-8
-1.859, 1.350e-8
-1.860, 1.093e-8
-1.861, 9.057e-9
-1.862, 1.044e-8
-1.863, 1.231e-8
-1.864, 1.202e-8
-1.865, 1.103e-8
-1.866, 9.353e-9
-1.867, 1.123e-8
-1.868, 1.162e-8
-1.869, 1.330e-8
-1.870, 1.221e-8
-1.871, 1.004e-8
-1.872, 1.113e-8
-1.873, 1.251e-8
-1.874, 1.241e-8
-1.875, 1.093e-8
-1.876, 9.353e-9
-1.877, 1.162e-8
-1.878, 1.251e-8
-1.879, 1.300e-8
-1.880, 1.093e-8
-1.881, 8.958e-9
-1.882, 1.113e-8
-1.883, 1.310e-8
-1.884, 1.330e-8
-1.885, 1.162e-8
-1.886, 9.452e-9
-1.887, 1.073e-8
-1.888, 1.271e-8
-1.889, 1.212e-8
-1.890, 1.093e-8
-1.891, 9.550e-9
-1.892, 1.113e-8
-1.893, 1.212e-8
-1.894, 1.231e-8
-1.895, 1.182e-8
-1.896, 1.004e-8
-1.897, 1.172e-8
-1.898, 1.300e-8
-1.899, 1.281e-8
-1.900, 1.073e-8
-1.901, 9.353e-9
-1.902, 1.113e-8
-1.903, 1.300e-8
-1.904, 1.409e-8
-1.905, 1.113e-8
-1.906, 9.353e-9
-1.907, 1.172e-8
-1.908, 1.212e-8
-1.909, 1.290e-8
-1.910, 1.162e-8
-1.911, 9.945e-9
-1.912, 1.113e-8
-1.913, 1.212e-8
-1.914, 1.350e-8
-1.915, 1.133e-8
-1.916, 9.550e-9
-1.917, 1.064e-8
-1.918, 1.182e-8
-1.919, 1.290e-8
-1.920, 1.152e-8
-1.921, 9.452e-9
-1.922, 1.044e-8
-1.923, 1.212e-8
-1.924, 1.261e-8
-1.925, 1.044e-8
-1.926, 9.550e-9
-1.927, 1.142e-8
-1.928, 1.221e-8
-1.929, 1.261e-8
-1.930, 1.152e-8
-1.931, 9.945e-9
-1.932, 9.748e-9
-1.933, 1.221e-8
-1.934, 1.310e-8
-1.935, 1.113e-8
-1.936, 1.014e-8
-1.937, 1.093e-8
-1.938, 1.251e-8
-1.939, 1.330e-8
-1.940, 1.172e-8
-1.941, 9.945e-9
-1.942, 1.083e-8
-1.943, 1.202e-8
-1.944, 1.350e-8
-1.945, 1.064e-8
-1.946, 9.649e-9
-1.947, 1.192e-8
-1.948, 1.330e-8
-1.949, 1.369e-8
-1.950, 1.064e-8
-1.951, 9.748e-9
-1.952, 1.172e-8
-1.953, 1.182e-8
-1.954, 1.251e-8
-1.955, 1.212e-8
-1.956, 8.958e-9
-1.957, 1.024e-8
-1.958, 1.271e-8
-1.959, 1.241e-8
-1.960, 1.133e-8
-1.961, 9.945e-9
-1.962, 1.182e-8
-1.963, 1.251e-8
-1.964, 1.192e-8
-1.965, 1.123e-8
-1.966, 8.860e-9
-1.967, 9.945e-9
-1.968, 1.133e-8
-1.969, 1.231e-8
-1.970, 1.073e-8
-1.971, 8.662e-9
-1.972, 1.064e-8
-1.973, 1.241e-8
-1.974, 1.360e-8
-1.975, 1.133e-8
-1.976, 9.452e-9
-1.977, 1.162e-8
-1.978, 1.320e-8
-1.979, 1.300e-8
-1.980, 1.123e-8
-1.981, 8.761e-9
-1.982, 1.034e-8
-1.983, 1.360e-8
-1.984, 1.221e-8
-1.985, 1.133e-8
-1.986, 9.550e-9
-1.987, 1.152e-8
-1.988, 1.330e-8
-1.989, 1.271e-8
-1.990, 1.152e-8
-1.991, 9.550e-9
-1.992, 9.846e-9
-1.993, 1.162e-8
-1.994, 1.310e-8
-1.995, 1.142e-8
-1.996, 8.860e-9
-1.997, 1.182e-8
-1.998, 1.290e-8
-1.999, 1.350e-8
-2.000, 1.172e-8
-2.001, 8.860e-9
-2.002, 1.133e-8
-2.003, 1.212e-8
-2.004, 1.330e-8
-2.005, 1.044e-8
-2.006, 9.353e-9
-2.007, 1.142e-8
-2.008, 1.202e-8
-2.009, 1.290e-8
-2.010, 1.083e-8
-2.011, 1.054e-8
-2.012, 1.123e-8
-2.013, 1.261e-8
-2.014, 1.281e-8
-2.015, 1.113e-8
-2.016, 8.860e-9
-2.017, 1.103e-8
-2.018, 1.231e-8
-2.019, 1.271e-8
-2.020, 9.846e-9
-2.021, 8.169e-9
-2.022, 1.093e-8
-2.023, 1.212e-8
-2.024, 1.300e-8
-2.025, 1.133e-8
-2.026, 9.649e-9
-2.027, 1.044e-8
-2.028, 1.241e-8
-2.029, 1.182e-8
-2.030, 1.014e-8
-2.031, 8.564e-9
-2.032, 1.024e-8
-2.033, 1.202e-8
-2.034, 1.221e-8
-2.035, 1.202e-8
-2.036, 1.014e-8
-2.037, 1.152e-8
-2.038, 1.310e-8
-2.039, 1.192e-8
-2.040, 1.093e-8
-2.041, 8.958e-9
-2.042, 1.044e-8
-2.043, 1.290e-8
-2.044, 1.379e-8
-2.045, 1.093e-8
-2.046, 9.649e-9
-2.047, 1.083e-8
-2.048, 1.261e-8
-2.049, 1.438e-8
-2.050, 1.192e-8
-2.051, 9.649e-9
-2.052, 1.290e-8
-2.053, 1.251e-8
-2.054, 1.300e-8
-2.055, 1.221e-8
-2.056, 9.254e-9
-2.057, 1.064e-8
-2.058, 1.320e-8
-2.059, 1.320e-8
-2.060, 1.083e-8
-2.061, 1.034e-8
-2.062, 1.202e-8
-2.063, 1.330e-8
-2.064, 1.330e-8
-2.065, 1.192e-8
-2.066, 9.452e-9
-2.067, 1.212e-8
-2.068, 1.350e-8
-2.069, 1.290e-8
-2.070, 1.113e-8
-2.071, 1.014e-8
-2.072, 1.133e-8
-2.073, 1.290e-8
-2.074, 1.389e-8
-2.075, 1.221e-8
-2.076, 1.024e-8
-2.077, 1.152e-8
-2.078, 1.251e-8
-2.079, 1.281e-8
-2.080, 1.271e-8
-2.081, 1.044e-8
-2.082, 1.182e-8
-2.083, 1.320e-8
-2.084, 1.281e-8
-2.085, 1.231e-8
-2.086, 9.452e-9
-2.087, 1.271e-8
-2.088, 1.448e-8
-2.089, 1.419e-8
-2.090, 1.103e-8
-2.091, 1.024e-8
-2.092, 1.113e-8
-2.093, 1.320e-8
-2.094, 1.360e-8
-2.095, 1.103e-8
-2.096, 9.452e-9
-2.097, 1.152e-8
-2.098, 1.290e-8
-2.099, 1.350e-8
-2.100, 1.142e-8
-2.101, 1.093e-8
-2.102, 1.221e-8
-2.103, 1.221e-8
-2.104, 1.389e-8
-2.105, 1.221e-8
-2.106, 1.123e-8
-2.107, 1.261e-8
-2.108, 1.340e-8
-2.109, 1.409e-8
-2.110, 1.133e-8
-2.111, 1.004e-8
-2.112, 1.162e-8
-2.113, 1.369e-8
-2.114, 1.310e-8
-2.115, 1.152e-8
-2.116, 9.748e-9
-2.117, 1.212e-8
-2.118, 1.320e-8
-2.119, 1.320e-8
-2.120, 1.123e-8
-2.121, 1.014e-8
-2.122, 1.182e-8
-2.123, 1.310e-8
-2.124, 1.281e-8
-2.125, 1.152e-8
-2.126, 9.945e-9
-2.127, 1.241e-8
-2.128, 1.389e-8
-2.129, 1.281e-8
-2.130, 1.202e-8
-2.131, 1.024e-8
-2.132, 1.271e-8
-2.133, 1.399e-8
-2.134, 1.369e-8
-2.135, 1.103e-8
-2.136, 9.649e-9
-2.137, 1.172e-8
-2.138, 1.290e-8
-2.139, 1.340e-8
-2.140, 1.182e-8
-2.141, 1.034e-8
-2.142, 1.241e-8
-2.143, 1.290e-8
-2.144, 1.300e-8
-2.145, 1.182e-8
-2.146, 9.945e-9
-2.147, 1.231e-8
-2.148, 1.241e-8
-2.149, 1.300e-8
-2.150, 1.202e-8
-2.151, 1.073e-8
-2.152, 1.152e-8
-2.153, 1.389e-8
-2.154, 1.369e-8
-2.155, 1.064e-8
-2.156, 9.945e-9
-2.157, 1.152e-8
-2.158, 1.310e-8
-2.159, 1.369e-8
-2.160, 1.054e-8
-2.161, 9.452e-9
-2.162, 1.192e-8
-2.163, 1.330e-8
-2.164, 1.438e-8
-2.165, 1.142e-8
-2.166, 1.044e-8
-2.167, 1.152e-8
-2.168, 1.261e-8
-2.169, 1.281e-8
-2.170, 1.152e-8
-2.171, 9.846e-9
-2.172, 1.330e-8
-2.173, 1.310e-8
-2.174, 1.360e-8
-2.175, 1.142e-8
-2.176, 1.064e-8
-2.177, 1.133e-8
-2.178, 1.369e-8
-2.179, 1.350e-8
-2.180, 1.172e-8
-2.181, 1.024e-8
-2.182, 1.142e-8
-2.183, 1.330e-8
-2.184, 1.330e-8
-2.185, 1.054e-8
-2.186, 1.024e-8
-2.187, 1.251e-8
-2.188, 1.330e-8
-2.189, 1.429e-8
-2.190, 1.133e-8
-2.191, 1.014e-8
-2.192, 1.271e-8
-2.193, 1.330e-8
-2.194, 1.310e-8
-2.195, 1.212e-8
-2.196, 1.014e-8
-2.197, 1.192e-8
-2.198, 1.281e-8
-2.199, 1.350e-8
-2.200, 1.162e-8
-2.201, 1.024e-8
-2.202, 1.310e-8
-2.203, 1.419e-8
-2.204, 1.340e-8
-2.205, 1.172e-8
-2.206, 1.044e-8
-2.207, 1.281e-8
-2.208, 1.379e-8
-2.209, 1.399e-8
-2.210, 1.152e-8
-2.211, 9.748e-9
-2.212, 1.202e-8
-2.213, 1.340e-8
-2.214, 1.360e-8
-2.215, 1.261e-8
-2.216, 1.034e-8
-2.217, 1.202e-8
-2.218, 1.271e-8
-2.219, 1.369e-8
-2.220, 1.093e-8
-2.221, 9.254e-9
-2.222, 1.271e-8
-2.223, 1.261e-8
-2.224, 1.369e-8
-2.225, 1.024e-8
-2.226, 1.004e-8
-2.227, 1.290e-8
-2.228, 1.369e-8
-2.229, 1.271e-8
-2.230, 1.044e-8
-2.231, 9.550e-9
-2.232, 1.241e-8
-2.233, 1.360e-8
-2.234, 1.360e-8
-2.235, 1.152e-8
-2.236, 9.649e-9
-2.237, 1.231e-8
-2.238, 1.300e-8
-2.239, 1.330e-8
-2.240, 1.271e-8
-2.241, 1.113e-8
-2.242, 1.271e-8
-2.243, 1.350e-8
-2.244, 1.409e-8
-2.245, 1.123e-8
-2.246, 9.550e-9
-2.247, 1.064e-8
-2.248, 1.330e-8
-2.249, 1.409e-8
-2.250, 1.133e-8
-2.251, 9.748e-9
-2.252, 1.192e-8
-2.253, 1.369e-8
-2.254, 1.438e-8
-2.255, 1.152e-8
-2.256, 1.034e-8
-2.257, 1.152e-8
-2.258, 1.271e-8
-2.259, 1.409e-8
-2.260, 1.212e-8
-2.261, 9.945e-9
-2.262, 1.231e-8
-2.263, 1.340e-8
-2.264, 1.330e-8
-2.265, 1.133e-8
-2.266, 1.004e-8
-2.267, 1.202e-8
-2.268, 1.369e-8
-2.269, 1.379e-8
-2.270, 1.142e-8
-2.271, 1.014e-8
-2.272, 1.212e-8
-2.273, 1.369e-8
-2.274, 1.389e-8
-2.275, 1.093e-8
-2.276, 9.254e-9
-2.277, 1.103e-8
-2.278, 1.290e-8
-2.279, 1.429e-8
-2.280, 1.271e-8
-2.281, 1.073e-8
-2.282, 1.251e-8
-2.283, 1.350e-8
-2.284, 1.340e-8
-2.285, 1.192e-8
-2.286, 1.024e-8
-2.287, 1.300e-8
-2.288, 1.350e-8
-2.289, 1.300e-8
-2.290, 1.044e-8
-2.291, 1.004e-8
-2.292, 1.251e-8
-2.293, 1.438e-8
-2.294, 1.458e-8
-2.295, 1.073e-8
-2.296, 1.044e-8
-2.297, 1.369e-8
-2.298, 1.458e-8
-2.299, 1.360e-8
-2.300, 1.192e-8
-2.301, 9.846e-9
-2.302, 1.241e-8
-2.303, 1.360e-8
-2.304, 1.379e-8
-2.305, 1.231e-8
-2.306, 1.142e-8
-2.307, 1.330e-8
-2.308, 1.409e-8
-2.309, 1.438e-8
-2.310, 1.192e-8
-2.311, 1.093e-8
-2.312, 1.330e-8
-2.313, 1.261e-8
-2.314, 1.320e-8
-2.315, 1.241e-8
-2.316, 1.083e-8
-2.317, 1.271e-8
-2.318, 1.389e-8
-2.319, 1.498e-8
-2.320, 1.182e-8
-2.321, 9.649e-9
-2.322, 1.350e-8
-2.323, 1.448e-8
-2.324, 1.458e-8
-2.325, 1.202e-8
-2.326, 1.172e-8
-2.327, 1.310e-8
-2.328, 1.281e-8
-2.329, 1.330e-8
-2.330, 1.192e-8
-2.331, 9.452e-9
-2.332, 1.231e-8
-2.333, 1.419e-8
-2.334, 1.399e-8
-2.335, 1.162e-8
-2.336, 1.123e-8
-2.337, 1.281e-8
-2.338, 1.419e-8
-2.339, 1.369e-8
-2.340, 1.142e-8
-2.341, 1.034e-8
-2.342, 1.172e-8
-2.343, 1.419e-8
-2.344, 1.409e-8
-2.345, 1.162e-8
-2.346, 1.034e-8
-2.347, 1.172e-8
-2.348, 1.330e-8
-2.349, 1.419e-8
-2.350, 1.192e-8
-2.351, 1.034e-8
-2.352, 1.202e-8
-2.353, 1.389e-8
-2.354, 1.350e-8
-2.355, 1.133e-8
-2.356, 1.024e-8
-2.357, 1.320e-8
-2.358, 1.360e-8
-2.359, 1.409e-8
-2.360, 1.113e-8
-2.361, 9.550e-9
-2.362, 1.261e-8
-2.363, 1.369e-8
-2.364, 1.379e-8
-2.365, 1.290e-8
-2.366, 1.093e-8
-2.367, 1.172e-8
-2.368, 1.360e-8
-2.369, 1.340e-8
-2.370, 1.152e-8
-2.371, 1.073e-8
-2.372, 1.231e-8
-2.373, 1.508e-8
-2.374, 1.517e-8
-2.375, 1.212e-8
-2.376, 1.103e-8
-2.377, 1.172e-8
-2.378, 1.310e-8
-2.379, 1.389e-8
-2.380, 1.113e-8
-2.381, 1.024e-8
-2.382, 1.281e-8
-2.383, 1.350e-8
-2.384, 1.438e-8
-2.385, 1.172e-8
-2.386, 1.054e-8
-2.387, 1.231e-8
-2.388, 1.281e-8
-2.389, 1.310e-8
-2.390, 1.172e-8
-2.391, 1.054e-8
-2.392, 1.182e-8
-2.393, 1.389e-8
-2.394, 1.330e-8
-2.395, 1.192e-8
-2.396, 1.113e-8
-2.397, 1.271e-8
-2.398, 1.379e-8
-2.399, 1.369e-8
-2.400, 1.123e-8
-2.401, 9.649e-9
-2.402, 1.192e-8
-2.403, 1.409e-8
-2.404, 1.379e-8
-2.405, 1.133e-8
-2.406, 9.748e-9
-2.407, 1.290e-8
-2.408, 1.399e-8
-2.409, 1.369e-8
-2.410, 1.162e-8
-2.411, 1.093e-8
-2.412, 1.290e-8
-2.413, 1.310e-8
-2.414, 1.478e-8
-2.415, 1.202e-8
-2.416, 1.044e-8
-2.417, 1.271e-8
-2.418, 1.409e-8
-2.419, 1.389e-8
-2.420, 1.202e-8
-2.421, 1.083e-8
-2.422, 1.231e-8
-2.423, 1.429e-8
-2.424, 1.409e-8
-2.425, 1.162e-8
-2.426, 1.073e-8
-2.427, 1.202e-8
-2.428, 1.340e-8
-2.429, 1.379e-8
-2.430, 1.093e-8
-2.431, 9.452e-9
-2.432, 1.251e-8
-2.433, 1.478e-8
-2.434, 1.379e-8
-2.435, 1.182e-8
-2.436, 1.093e-8
-2.437, 1.221e-8
-2.438, 1.369e-8
-2.439, 1.360e-8
-2.440, 1.192e-8
-2.441, 9.550e-9
-2.442, 1.310e-8
-2.443, 1.310e-8
-2.444, 1.369e-8
-2.445, 1.152e-8
-2.446, 1.004e-8
-2.447, 1.271e-8
-2.448, 1.419e-8
-2.449, 1.419e-8
-2.450, 1.142e-8
-2.451, 1.044e-8
-2.452, 1.202e-8
-2.453, 1.212e-8
-2.454, 1.330e-8
-2.455, 1.093e-8
-2.456, 9.353e-9
-2.457, 1.330e-8
-2.458, 1.448e-8
-2.459, 1.399e-8
-2.460, 1.212e-8
-2.461, 1.103e-8
-2.462, 1.281e-8
-2.463, 1.369e-8
-2.464, 1.438e-8
-2.465, 1.202e-8
-2.466, 1.142e-8
-2.467, 1.290e-8
-2.468, 1.429e-8
-2.469, 1.330e-8
-2.470, 1.251e-8
-2.471, 1.113e-8
-2.472, 1.300e-8
-2.473, 1.508e-8
-2.474, 1.468e-8
-2.475, 1.221e-8
-2.476, 1.113e-8
-2.477, 1.340e-8
-2.478, 1.399e-8
-2.479, 1.330e-8
-2.480, 1.231e-8
-2.481, 1.044e-8
-2.482, 1.281e-8
-2.483, 1.498e-8
-2.484, 1.369e-8
-2.485, 1.202e-8
-2.486, 1.083e-8
-2.487, 1.281e-8
-2.488, 1.429e-8
-2.489, 1.310e-8
-2.490, 1.182e-8
-2.491, 1.054e-8
-2.492, 1.330e-8
-2.493, 1.409e-8
-2.494, 1.429e-8
-2.495, 1.172e-8
-2.496, 1.103e-8
-2.497, 1.300e-8
-2.498, 1.399e-8
-2.499, 1.419e-8
