Apr. 26, 2025   06:01:09
Linear Sweep Voltammetry
File: c:/users/guazh/data/banditlqround7_x0exp590_r20/2025-04-16-exp1192\regeneratedgce-2025-04-26t05_58_07-lsvinkoh\regeneratedgce_lsv_50mvs_efin_-1700mv.bin
Data Source:  Experiment
Instrument Model:  CHI760E
Header: LSV ran at 50 mVs with Efin at -1700mV
Note: 

Init E (V) = -0.6
Final E (V) = -1.7
Scan Rate (V/s) = 0.05
Sample Interval (V) = 0.001
Quiet Time (sec) = 2
Sensitivity (A/V) = 1e-4
Comp R (ohm) = 2.5

Results:

Channel 1:
Ep = -1.563V
ip = 8.093e-4A
Ah = 6.397e-4C

Potential/V, Current/A

-0.600, 2.182e-6
-0.601, 2.427e-6
-0.602, 2.469e-6
-0.603, 2.485e-6
-0.604, 2.502e-6
-0.605, 2.516e-6
-0.606, 2.526e-6
-0.607, 2.530e-6
-0.608, 2.538e-6
-0.609, 2.552e-6
-0.610, 2.561e-6
-0.611, 2.566e-6
-0.612, 2.572e-6
-0.613, 2.577e-6
-0.614, 2.594e-6
-0.615, 2.605e-6
-0.616, 2.605e-6
-0.617, 2.605e-6
-0.618, 2.607e-6
-0.619, 2.619e-6
-0.620, 2.629e-6
-0.621, 2.630e-6
-0.622, 2.632e-6
-0.623, 2.634e-6
-0.624, 2.647e-6
-0.625, 2.659e-6
-0.626, 2.658e-6
-0.627, 2.659e-6
-0.628, 2.662e-6
-0.629, 2.671e-6
-0.630, 2.680e-6
-0.631, 2.679e-6
-0.632, 2.682e-6
-0.633, 2.686e-6
-0.634, 2.693e-6
-0.635, 2.702e-6
-0.636, 2.703e-6
-0.637, 2.702e-6
-0.638, 2.706e-6
-0.639, 2.716e-6
-0.640, 2.725e-6
-0.641, 2.729e-6
-0.642, 2.728e-6
-0.643, 2.731e-6
-0.644, 2.742e-6
-0.645, 2.749e-6
-0.646, 2.752e-6
-0.647, 2.750e-6
-0.648, 2.754e-6
-0.649, 2.765e-6
-0.650, 2.773e-6
-0.651, 2.776e-6
-0.652, 2.777e-6
-0.653, 2.780e-6
-0.654, 2.793e-6
-0.655, 2.801e-6
-0.656, 2.800e-6
-0.657, 2.803e-6
-0.658, 2.804e-6
-0.659, 2.816e-6
-0.660, 2.826e-6
-0.661, 2.826e-6
-0.662, 2.829e-6
-0.663, 2.833e-6
-0.664, 2.844e-6
-0.665, 2.856e-6
-0.666, 2.861e-6
-0.667, 2.857e-6
-0.668, 2.862e-6
-0.669, 2.870e-6
-0.670, 2.884e-6
-0.671, 2.884e-6
-0.672, 2.887e-6
-0.673, 2.894e-6
-0.674, 2.903e-6
-0.675, 2.916e-6
-0.676, 2.917e-6
-0.677, 2.916e-6
-0.678, 2.922e-6
-0.679, 2.933e-6
-0.680, 2.942e-6
-0.681, 2.942e-6
-0.682, 2.941e-6
-0.683, 2.946e-6
-0.684, 2.958e-6
-0.685, 2.963e-6
-0.686, 2.967e-6
-0.687, 2.966e-6
-0.688, 2.969e-6
-0.689, 2.981e-6
-0.690, 2.987e-6
-0.691, 2.988e-6
-0.692, 2.990e-6
-0.693, 2.990e-6
-0.694, 3.002e-6
-0.695, 3.008e-6
-0.696, 3.007e-6
-0.697, 3.009e-6
-0.698, 3.009e-6
-0.699, 3.023e-6
-0.700, 3.033e-6
-0.701, 3.033e-6
-0.702, 3.035e-6
-0.703, 3.038e-6
-0.704, 3.050e-6
-0.705, 3.058e-6
-0.706, 3.056e-6
-0.707, 3.057e-6
-0.708, 3.060e-6
-0.709, 3.067e-6
-0.710, 3.078e-6
-0.711, 3.076e-6
-0.712, 3.076e-6
-0.713, 3.083e-6
-0.714, 3.091e-6
-0.715, 3.099e-6
-0.716, 3.100e-6
-0.717, 3.098e-6
-0.718, 3.104e-6
-0.719, 3.110e-6
-0.720, 3.120e-6
-0.721, 3.122e-6
-0.722, 3.124e-6
-0.723, 3.129e-6
-0.724, 3.142e-6
-0.725, 3.147e-6
-0.726, 3.148e-6
-0.727, 3.148e-6
-0.728, 3.153e-6
-0.729, 3.164e-6
-0.730, 3.171e-6
-0.731, 3.171e-6
-0.732, 3.171e-6
-0.733, 3.174e-6
-0.734, 3.188e-6
-0.735, 3.197e-6
-0.736, 3.199e-6
-0.737, 3.201e-6
-0.738, 3.203e-6
-0.739, 3.213e-6
-0.740, 3.221e-6
-0.741, 3.222e-6
-0.742, 3.222e-6
-0.743, 3.228e-6
-0.744, 3.240e-6
-0.745, 3.250e-6
-0.746, 3.248e-6
-0.747, 3.249e-6
-0.748, 3.255e-6
-0.749, 3.264e-6
-0.750, 3.274e-6
-0.751, 3.273e-6
-0.752, 3.272e-6
-0.753, 3.279e-6
-0.754, 3.288e-6
-0.755, 3.294e-6
-0.756, 3.296e-6
-0.757, 3.296e-6
-0.758, 3.305e-6
-0.759, 3.315e-6
-0.760, 3.323e-6
-0.761, 3.323e-6
-0.762, 3.321e-6
-0.763, 3.326e-6
-0.764, 3.338e-6
-0.765, 3.345e-6
-0.766, 3.347e-6
-0.767, 3.346e-6
-0.768, 3.357e-6
-0.769, 3.368e-6
-0.770, 3.372e-6
-0.771, 3.374e-6
-0.772, 3.375e-6
-0.773, 3.381e-6
-0.774, 3.395e-6
-0.775, 3.401e-6
-0.776, 3.403e-6
-0.777, 3.406e-6
-0.778, 3.411e-6
-0.779, 3.427e-6
-0.780, 3.436e-6
-0.781, 3.437e-6
-0.782, 3.441e-6
-0.783, 3.446e-6
-0.784, 3.460e-6
-0.785, 3.472e-6
-0.786, 3.472e-6
-0.787, 3.477e-6
-0.788, 3.485e-6
-0.789, 3.496e-6
-0.790, 3.507e-6
-0.791, 3.507e-6
-0.792, 3.510e-6
-0.793, 3.521e-6
-0.794, 3.534e-6
-0.795, 3.543e-6
-0.796, 3.547e-6
-0.797, 3.550e-6
-0.798, 3.561e-6
-0.799, 3.576e-6
-0.800, 3.585e-6
-0.801, 3.593e-6
-0.802, 3.596e-6
-0.803, 3.612e-6
-0.804, 3.630e-6
-0.805, 3.642e-6
-0.806, 3.650e-6
-0.807, 3.658e-6
-0.808, 3.672e-6
-0.809, 3.692e-6
-0.810, 3.706e-6
-0.811, 3.715e-6
-0.812, 3.726e-6
-0.813, 3.741e-6
-0.814, 3.768e-6
-0.815, 3.786e-6
-0.816, 3.798e-6
-0.817, 3.814e-6
-0.818, 3.835e-6
-0.819, 3.869e-6
-0.820, 3.892e-6
-0.821, 3.900e-6
-0.822, 3.918e-6
-0.823, 3.941e-6
-0.824, 3.970e-6
-0.825, 3.998e-6
-0.826, 4.016e-6
-0.827, 4.038e-6
-0.828, 4.069e-6
-0.829, 4.101e-6
-0.830, 4.130e-6
-0.831, 4.155e-6
-0.832, 4.182e-6
-0.833, 4.215e-6
-0.834, 4.251e-6
-0.835, 4.286e-6
-0.836, 4.314e-6
-0.837, 4.345e-6
-0.838, 4.381e-6
-0.839, 4.425e-6
-0.840, 4.463e-6
-0.841, 4.501e-6
-0.842, 4.537e-6
-0.843, 4.582e-6
-0.844, 4.633e-6
-0.845, 4.681e-6
-0.846, 4.720e-6
-0.847, 4.755e-6
-0.848, 4.802e-6
-0.849, 4.857e-6
-0.850, 4.900e-6
-0.851, 4.942e-6
-0.852, 4.985e-6
-0.853, 5.034e-6
-0.854, 5.093e-6
-0.855, 5.142e-6
-0.856, 5.187e-6
-0.857, 5.236e-6
-0.858, 5.286e-6
-0.859, 5.347e-6
-0.860, 5.400e-6
-0.861, 5.445e-6
-0.862, 5.502e-6
-0.863, 5.559e-6
-0.864, 5.619e-6
-0.865, 5.676e-6
-0.866, 5.724e-6
-0.867, 5.776e-6
-0.868, 5.833e-6
-0.869, 5.890e-6
-0.870, 5.950e-6
-0.871, 6.000e-6
-0.872, 6.054e-6
-0.873, 6.117e-6
-0.874, 6.177e-6
-0.875, 6.233e-6
-0.876, 6.285e-6
-0.877, 6.342e-6
-0.878, 6.408e-6
-0.879, 6.476e-6
-0.880, 6.539e-6
-0.881, 6.596e-6
-0.882, 6.652e-6
-0.883, 6.717e-6
-0.884, 6.786e-6
-0.885, 6.846e-6
-0.886, 6.904e-6
-0.887, 6.960e-6
-0.888, 7.024e-6
-0.889, 7.094e-6
-0.890, 7.157e-6
-0.891, 7.214e-6
-0.892, 7.274e-6
-0.893, 7.338e-6
-0.894, 7.414e-6
-0.895, 7.479e-6
-0.896, 7.538e-6
-0.897, 7.603e-6
-0.898, 7.673e-6
-0.899, 7.751e-6
-0.900, 7.823e-6
-0.901, 7.889e-6
-0.902, 7.957e-6
-0.903, 8.030e-6
-0.904, 8.109e-6
-0.905, 8.187e-6
-0.906, 8.256e-6
-0.907, 8.332e-6
-0.908, 8.414e-6
-0.909, 8.500e-6
-0.910, 8.578e-6
-0.911, 8.647e-6
-0.912, 8.723e-6
-0.913, 8.812e-6
-0.914, 8.898e-6
-0.915, 8.980e-6
-0.916, 9.059e-6
-0.917, 9.138e-6
-0.918, 9.226e-6
-0.919, 9.315e-6
-0.920, 9.397e-6
-0.921, 9.479e-6
-0.922, 9.559e-6
-0.923, 9.651e-6
-0.924, 9.743e-6
-0.925, 9.831e-6
-0.926, 9.915e-6
-0.927, 1.000e-5
-0.928, 1.009e-5
-0.929, 1.019e-5
-0.930, 1.028e-5
-0.931, 1.036e-5
-0.932, 1.045e-5
-0.933, 1.054e-5
-0.934, 1.064e-5
-0.935, 1.073e-5
-0.936, 1.082e-5
-0.937, 1.091e-5
-0.938, 1.100e-5
-0.939, 1.110e-5
-0.940, 1.120e-5
-0.941, 1.128e-5
-0.942, 1.137e-5
-0.943, 1.147e-5
-0.944, 1.157e-5
-0.945, 1.166e-5
-0.946, 1.175e-5
-0.947, 1.185e-5
-0.948, 1.195e-5
-0.949, 1.205e-5
-0.950, 1.214e-5
-0.951, 1.222e-5
-0.952, 1.232e-5
-0.953, 1.241e-5
-0.954, 1.251e-5
-0.955, 1.261e-5
-0.956, 1.271e-5
-0.957, 1.280e-5
-0.958, 1.291e-5
-0.959, 1.301e-5
-0.960, 1.311e-5
-0.961, 1.321e-5
-0.962, 1.330e-5
-0.963, 1.341e-5
-0.964, 1.352e-5
-0.965, 1.362e-5
-0.966, 1.372e-5
-0.967, 1.383e-5
-0.968, 1.395e-5
-0.969, 1.407e-5
-0.970, 1.417e-5
-0.971, 1.428e-5
-0.972, 1.442e-5
-0.973, 1.453e-5
-0.974, 1.464e-5
-0.975, 1.476e-5
-0.976, 1.487e-5
-0.977, 1.499e-5
-0.978, 1.512e-5
-0.979, 1.525e-5
-0.980, 1.538e-5
-0.981, 1.549e-5
-0.982, 1.562e-5
-0.983, 1.574e-5
-0.984, 1.588e-5
-0.985, 1.602e-5
-0.986, 1.614e-5
-0.987, 1.628e-5
-0.988, 1.644e-5
-0.989, 1.658e-5
-0.990, 1.673e-5
-0.991, 1.686e-5
-0.992, 1.700e-5
-0.993, 1.715e-5
-0.994, 1.730e-5
-0.995, 1.745e-5
-0.996, 1.760e-5
-0.997, 1.775e-5
-0.998, 1.790e-5
-0.999, 1.806e-5
-1.000, 1.821e-5
-1.001, 1.836e-5
-1.002, 1.852e-5
-1.003, 1.869e-5
-1.004, 1.886e-5
-1.005, 1.902e-5
-1.006, 1.918e-5
-1.007, 1.933e-5
-1.008, 1.950e-5
-1.009, 1.968e-5
-1.010, 1.984e-5
-1.011, 2.000e-5
-1.012, 2.017e-5
-1.013, 2.034e-5
-1.014, 2.052e-5
-1.015, 2.069e-5
-1.016, 2.086e-5
-1.017, 2.103e-5
-1.018, 2.121e-5
-1.019, 2.139e-5
-1.020, 2.156e-5
-1.021, 2.173e-5
-1.022, 2.190e-5
-1.023, 2.208e-5
-1.024, 2.227e-5
-1.025, 2.244e-5
-1.026, 2.261e-5
-1.027, 2.278e-5
-1.028, 2.296e-5
-1.029, 2.313e-5
-1.030, 2.330e-5
-1.031, 2.346e-5
-1.032, 2.362e-5
-1.033, 2.380e-5
-1.034, 2.397e-5
-1.035, 2.415e-5
-1.036, 2.431e-5
-1.037, 2.447e-5
-1.038, 2.464e-5
-1.039, 2.482e-5
-1.040, 2.498e-5
-1.041, 2.513e-5
-1.042, 2.529e-5
-1.043, 2.546e-5
-1.044, 2.562e-5
-1.045, 2.578e-5
-1.046, 2.593e-5
-1.047, 2.607e-5
-1.048, 2.624e-5
-1.049, 2.641e-5
-1.050, 2.657e-5
-1.051, 2.672e-5
-1.052, 2.687e-5
-1.053, 2.702e-5
-1.054, 2.717e-5
-1.055, 2.731e-5
-1.056, 2.745e-5
-1.057, 2.759e-5
-1.058, 2.773e-5
-1.059, 2.787e-5
-1.060, 2.800e-5
-1.061, 2.812e-5
-1.062, 2.826e-5
-1.063, 2.839e-5
-1.064, 2.853e-5
-1.065, 2.866e-5
-1.066, 2.878e-5
-1.067, 2.890e-5
-1.068, 2.904e-5
-1.069, 2.917e-5
-1.070, 2.928e-5
-1.071, 2.939e-5
-1.072, 2.950e-5
-1.073, 2.964e-5
-1.074, 2.976e-5
-1.075, 2.988e-5
-1.076, 3.000e-5
-1.077, 3.010e-5
-1.078, 3.023e-5
-1.079, 3.034e-5
-1.080, 3.045e-5
-1.081, 3.056e-5
-1.082, 3.066e-5
-1.083, 3.078e-5
-1.084, 3.091e-5
-1.085, 3.102e-5
-1.086, 3.112e-5
-1.087, 3.123e-5
-1.088, 3.135e-5
-1.089, 3.147e-5
-1.090, 3.158e-5
-1.091, 3.168e-5
-1.092, 3.179e-5
-1.093, 3.191e-5
-1.094, 3.203e-5
-1.095, 3.214e-5
-1.096, 3.225e-5
-1.097, 3.236e-5
-1.098, 3.247e-5
-1.099, 3.260e-5
-1.100, 3.271e-5
-1.101, 3.282e-5
-1.102, 3.294e-5
-1.103, 3.306e-5
-1.104, 3.320e-5
-1.105, 3.332e-5
-1.106, 3.343e-5
-1.107, 3.356e-5
-1.108, 3.369e-5
-1.109, 3.382e-5
-1.110, 3.395e-5
-1.111, 3.407e-5
-1.112, 3.420e-5
-1.113, 3.435e-5
-1.114, 3.449e-5
-1.115, 3.463e-5
-1.116, 3.475e-5
-1.117, 3.488e-5
-1.118, 3.504e-5
-1.119, 3.519e-5
-1.120, 3.534e-5
-1.121, 3.548e-5
-1.122, 3.563e-5
-1.123, 3.579e-5
-1.124, 3.595e-5
-1.125, 3.610e-5
-1.126, 3.625e-5
-1.127, 3.640e-5
-1.128, 3.656e-5
-1.129, 3.672e-5
-1.130, 3.687e-5
-1.131, 3.703e-5
-1.132, 3.718e-5
-1.133, 3.735e-5
-1.134, 3.753e-5
-1.135, 3.770e-5
-1.136, 3.785e-5
-1.137, 3.801e-5
-1.138, 3.818e-5
-1.139, 3.836e-5
-1.140, 3.852e-5
-1.141, 3.867e-5
-1.142, 3.884e-5
-1.143, 3.901e-5
-1.144, 3.918e-5
-1.145, 3.934e-5
-1.146, 3.949e-5
-1.147, 3.965e-5
-1.148, 3.982e-5
-1.149, 3.999e-5
-1.150, 4.014e-5
-1.151, 4.028e-5
-1.152, 4.043e-5
-1.153, 4.059e-5
-1.154, 4.075e-5
-1.155, 4.090e-5
-1.156, 4.105e-5
-1.157, 4.118e-5
-1.158, 4.134e-5
-1.159, 4.148e-5
-1.160, 4.163e-5
-1.161, 4.176e-5
-1.162, 4.189e-5
-1.163, 4.204e-5
-1.164, 4.219e-5
-1.165, 4.233e-5
-1.166, 4.248e-5
-1.167, 4.261e-5
-1.168, 4.276e-5
-1.169, 4.290e-5
-1.170, 4.304e-5
-1.171, 4.318e-5
-1.172, 4.333e-5
-1.173, 4.348e-5
-1.174, 4.364e-5
-1.175, 4.377e-5
-1.176, 4.392e-5
-1.177, 4.409e-5
-1.178, 4.428e-5
-1.179, 4.446e-5
-1.180, 4.463e-5
-1.181, 4.480e-5
-1.182, 4.499e-5
-1.183, 4.520e-5
-1.184, 4.540e-5
-1.185, 4.561e-5
-1.186, 4.581e-5
-1.187, 4.602e-5
-1.188, 4.627e-5
-1.189, 4.651e-5
-1.190, 4.675e-5
-1.191, 4.699e-5
-1.192, 4.725e-5
-1.193, 4.752e-5
-1.194, 4.780e-5
-1.195, 4.808e-5
-1.196, 4.835e-5
-1.197, 4.864e-5
-1.198, 4.894e-5
-1.199, 4.924e-5
-1.200, 4.953e-5
-1.201, 4.981e-5
-1.202, 5.010e-5
-1.203, 5.040e-5
-1.204, 5.070e-5
-1.205, 5.097e-5
-1.206, 5.126e-5
-1.207, 5.154e-5
-1.208, 5.181e-5
-1.209, 5.209e-5
-1.210, 5.235e-5
-1.211, 5.261e-5
-1.212, 5.288e-5
-1.213, 5.316e-5
-1.214, 5.343e-5
-1.215, 5.369e-5
-1.216, 5.395e-5
-1.217, 5.422e-5
-1.218, 5.449e-5
-1.219, 5.477e-5
-1.220, 5.504e-5
-1.221, 5.530e-5
-1.222, 5.560e-5
-1.223, 5.592e-5
-1.224, 5.623e-5
-1.225, 5.653e-5
-1.226, 5.683e-5
-1.227, 5.715e-5
-1.228, 5.748e-5
-1.229, 5.785e-5
-1.230, 5.819e-5
-1.231, 5.854e-5
-1.232, 5.890e-5
-1.233, 5.929e-5
-1.234, 5.967e-5
-1.235, 6.007e-5
-1.236, 6.047e-5
-1.237, 6.090e-5
-1.238, 6.135e-5
-1.239, 6.181e-5
-1.240, 6.227e-5
-1.241, 6.272e-5
-1.242, 6.320e-5
-1.243, 6.370e-5
-1.244, 6.422e-5
-1.245, 6.472e-5
-1.246, 6.522e-5
-1.247, 6.574e-5
-1.248, 6.628e-5
-1.249, 6.682e-5
-1.250, 6.736e-5
-1.251, 6.789e-5
-1.252, 6.846e-5
-1.253, 6.903e-5
-1.254, 6.962e-5
-1.255, 7.020e-5
-1.256, 7.076e-5
-1.257, 7.134e-5
-1.258, 7.194e-5
-1.259, 7.254e-5
-1.260, 7.315e-5
-1.261, 7.373e-5
-1.262, 7.433e-5
-1.263, 7.496e-5
-1.264, 7.558e-5
-1.265, 7.618e-5
-1.266, 7.679e-5
-1.267, 7.742e-5
-1.268, 7.804e-5
-1.269, 7.867e-5
-1.270, 7.929e-5
-1.271, 7.991e-5
-1.272, 8.053e-5
-1.273, 8.115e-5
-1.274, 8.176e-5
-1.275, 8.238e-5
-1.276, 8.297e-5
-1.277, 8.359e-5
-1.278, 8.420e-5
-1.279, 8.481e-5
-1.280, 8.542e-5
-1.281, 8.601e-5
-1.282, 8.660e-5
-1.283, 8.721e-5
-1.284, 8.780e-5
-1.285, 8.836e-5
-1.286, 8.893e-5
-1.287, 8.950e-5
-1.288, 9.009e-5
-1.289, 9.067e-5
-1.290, 9.121e-5
-1.291, 9.172e-5
-1.292, 9.231e-5
-1.293, 9.284e-5
-1.294, 9.339e-5
-1.295, 9.391e-5
-1.296, 9.445e-5
-1.297, 9.499e-5
-1.298, 9.551e-5
-1.299, 9.600e-5
-1.300, 9.650e-5
-1.301, 9.697e-5
-1.302, 9.742e-5
-1.303, 9.792e-5
-1.304, 9.841e-5
-1.305, 9.883e-5
-1.306, 9.929e-5
-1.307, 9.977e-5
-1.308, 1.002e-4
-1.309, 1.007e-4
-1.310, 1.011e-4
-1.311, 1.015e-4
-1.312, 1.020e-4
-1.313, 1.024e-4
-1.314, 1.029e-4
-1.315, 1.033e-4
-1.316, 1.037e-4
-1.317, 1.041e-4
-1.318, 1.045e-4
-1.319, 1.050e-4
-1.320, 1.054e-4
-1.321, 1.057e-4
-1.322, 1.061e-4
-1.323, 1.065e-4
-1.324, 1.069e-4
-1.325, 1.074e-4
-1.326, 1.078e-4
-1.327, 1.082e-4
-1.328, 1.086e-4
-1.329, 1.089e-4
-1.330, 1.093e-4
-1.331, 1.096e-4
-1.332, 1.100e-4
-1.333, 1.104e-4
-1.334, 1.108e-4
-1.335, 1.112e-4
-1.336, 1.117e-4
-1.337, 1.120e-4
-1.338, 1.124e-4
-1.339, 1.127e-4
-1.340, 1.132e-4
-1.341, 1.136e-4
-1.342, 1.140e-4
-1.343, 1.145e-4
-1.344, 1.149e-4
-1.345, 1.152e-4
-1.346, 1.156e-4
-1.347, 1.160e-4
-1.348, 1.165e-4
-1.349, 1.169e-4
-1.350, 1.173e-4
-1.351, 1.176e-4
-1.352, 1.180e-4
-1.353, 1.184e-4
-1.354, 1.188e-4
-1.355, 1.192e-4
-1.356, 1.196e-4
-1.357, 1.201e-4
-1.358, 1.206e-4
-1.359, 1.210e-4
-1.360, 1.215e-4
-1.361, 1.220e-4
-1.362, 1.224e-4
-1.363, 1.229e-4
-1.364, 1.233e-4
-1.365, 1.238e-4
-1.366, 1.242e-4
-1.367, 1.247e-4
-1.368, 1.252e-4
-1.369, 1.257e-4
-1.370, 1.262e-4
-1.371, 1.266e-4
-1.372, 1.271e-4
-1.373, 1.276e-4
-1.374, 1.283e-4
-1.375, 1.290e-4
-1.376, 1.298e-4
-1.377, 1.302e-4
-1.378, 1.307e-4
-1.379, 1.316e-4
-1.380, 1.326e-4
-1.381, 1.335e-4
-1.382, 1.343e-4
-1.383, 1.348e-4
-1.384, 1.353e-4
-1.385, 1.358e-4
-1.386, 1.364e-4
-1.387, 1.370e-4
-1.388, 1.381e-4
-1.389, 1.395e-4
-1.390, 1.397e-4
-1.391, 1.400e-4
-1.392, 1.405e-4
-1.393, 1.411e-4
-1.394, 1.419e-4
-1.395, 1.428e-4
-1.396, 1.436e-4
-1.397, 1.445e-4
-1.398, 1.454e-4
-1.399, 1.463e-4
-1.400, 1.471e-4
-1.401, 1.480e-4
-1.402, 1.492e-4
-1.403, 1.503e-4
-1.404, 1.515e-4
-1.405, 1.528e-4
-1.406, 1.540e-4
-1.407, 1.551e-4
-1.408, 1.555e-4
-1.409, 1.565e-4
-1.410, 1.568e-4
-1.411, 1.571e-4
-1.412, 1.579e-4
-1.413, 1.590e-4
-1.414, 1.602e-4
-1.415, 1.613e-4
-1.416, 1.629e-4
-1.417, 1.650e-4
-1.418, 1.667e-4
-1.419, 1.677e-4
-1.420, 1.683e-4
-1.421, 1.700e-4
-1.422, 1.713e-4
-1.423, 1.717e-4
-1.424, 1.729e-4
-1.425, 1.738e-4
-1.426, 1.754e-4
-1.427, 1.767e-4
-1.428, 1.780e-4
-1.429, 1.801e-4
-1.430, 1.823e-4
-1.431, 1.849e-4
-1.432, 1.867e-4
-1.433, 1.871e-4
-1.434, 1.875e-4
-1.435, 1.882e-4
-1.436, 1.901e-4
-1.437, 1.916e-4
-1.438, 1.945e-4
-1.439, 1.971e-4
-1.440, 1.993e-4
-1.441, 2.015e-4
-1.442, 2.032e-4
-1.443, 2.044e-4
-1.444, 2.069e-4
-1.445, 2.099e-4
-1.446, 2.116e-4
-1.447, 2.128e-4
-1.448, 2.118e-4
-1.449, 2.119e-4
-1.450, 2.124e-4
-1.451, 2.132e-4
-1.452, 2.149e-4
-1.453, 2.194e-4
-1.454, 2.256e-4
-1.455, 2.282e-4
-1.456, 2.278e-4
-1.457, 2.285e-4
-1.458, 2.305e-4
-1.459, 2.342e-4
-1.460, 2.381e-4
-1.461, 2.431e-4
-1.462, 2.447e-4
-1.463, 2.418e-4
-1.464, 2.435e-4
-1.465, 2.453e-4
-1.466, 2.469e-4
-1.467, 2.490e-4
-1.468, 2.506e-4
-1.469, 2.504e-4
-1.470, 2.511e-4
-1.471, 2.555e-4
-1.472, 2.544e-4
-1.473, 2.557e-4
-1.474, 2.609e-4
-1.475, 2.604e-4
-1.476, 2.649e-4
-1.477, 2.716e-4
-1.478, 2.740e-4
-1.479, 2.717e-4
-1.480, 2.705e-4
-1.481, 2.714e-4
-1.482, 2.779e-4
-1.483, 2.830e-4
-1.484, 2.833e-4
-1.485, 2.841e-4
-1.486, 2.909e-4
-1.487, 2.961e-4
-1.488, 3.005e-4
-1.489, 3.004e-4
-1.490, 3.023e-4
-1.491, 3.032e-4
-1.492, 3.065e-4
-1.493, 3.069e-4
-1.494, 3.139e-4
-1.495, 3.187e-4
-1.496, 3.201e-4
-1.497, 3.209e-4
-1.498, 3.248e-4
-1.499, 3.286e-4
-1.500, 3.327e-4
-1.501, 3.376e-4
-1.502, 3.468e-4
-1.503, 3.526e-4
-1.504, 3.577e-4
-1.505, 3.662e-4
-1.506, 3.732e-4
-1.507, 3.720e-4
-1.508, 3.712e-4
-1.509, 3.756e-4
-1.510, 3.796e-4
-1.511, 3.861e-4
-1.512, 3.970e-4
-1.513, 4.050e-4
-1.514, 4.093e-4
-1.515, 4.101e-4
-1.516, 4.150e-4
-1.517, 4.208e-4
-1.518, 4.334e-4
-1.519, 4.426e-4
-1.520, 4.446e-4
-1.521, 4.467e-4
-1.522, 4.555e-4
-1.523, 4.668e-4
-1.524, 4.707e-4
-1.525, 4.805e-4
-1.526, 4.903e-4
-1.527, 5.011e-4
-1.528, 5.150e-4
-1.529, 5.289e-4
-1.530, 5.285e-4
-1.531, 5.316e-4
-1.532, 5.420e-4
-1.533, 5.539e-4
-1.534, 5.679e-4
-1.535, 5.760e-4
-1.536, 5.828e-4
-1.537, 5.934e-4
-1.538, 6.028e-4
-1.539, 6.129e-4
-1.540, 6.302e-4
-1.541, 6.444e-4
-1.542, 6.595e-4
-1.543, 6.734e-4
-1.544, 6.812e-4
-1.545, 6.905e-4
-1.546, 7.026e-4
-1.547, 7.142e-4
-1.548, 7.378e-4
-1.549, 7.594e-4
-1.550, 7.700e-4
-1.551, 7.841e-4
-1.552, 8.032e-4
-1.553, 8.181e-4
-1.554, 8.326e-4
-1.555, 8.430e-4
-1.556, 8.664e-4
-1.557, 8.899e-4
-1.558, 9.047e-4
-1.559, 9.214e-4
-1.560, 9.481e-4
-1.561, 9.809e-4
-1.562, 1.005e-3
-1.563, 1.011e-3
-1.564, 1.011e-3
-1.565, 1.011e-3
-1.566, 1.011e-3
-1.567, 1.011e-3
-1.568, 1.011e-3
-1.569, 1.011e-3
-1.570, 1.011e-3
-1.571, 1.011e-3
-1.572, 1.011e-3
-1.573, 1.011e-3
-1.574, 1.011e-3
-1.575, 1.011e-3
-1.576, 1.011e-3
-1.577, 1.011e-3
-1.578, 1.011e-3
-1.579, 1.011e-3
-1.580, 1.011e-3
-1.581, 1.011e-3
-1.582, 1.011e-3
-1.583, 1.011e-3
-1.584, 1.011e-3
-1.585, 1.011e-3
-1.586, 1.011e-3
-1.587, 1.011e-3
-1.588, 1.011e-3
-1.589, 1.011e-3
-1.590, 1.011e-3
-1.591, 1.011e-3
-1.592, 1.011e-3
-1.593, 1.011e-3
-1.594, 1.011e-3
-1.595, 1.011e-3
-1.596, 1.011e-3
-1.597, 1.011e-3
-1.598, 1.011e-3
-1.599, 1.011e-3
-1.600, 1.011e-3
-1.601, 1.011e-3
-1.602, 1.011e-3
-1.603, 1.011e-3
-1.604, 1.011e-3
-1.605, 1.011e-3
-1.606, 1.011e-3
-1.607, 1.011e-3
-1.608, 1.011e-3
-1.609, 1.011e-3
-1.610, 1.011e-3
-1.611, 1.011e-3
-1.612, 1.011e-3
-1.613, 1.011e-3
-1.614, 1.011e-3
-1.615, 1.011e-3
-1.616, 1.011e-3
-1.617, 1.011e-3
-1.618, 1.011e-3
-1.619, 1.011e-3
-1.620, 1.011e-3
-1.621, 1.011e-3
-1.622, 1.011e-3
-1.623, 1.011e-3
-1.624, 1.011e-3
-1.625, 1.011e-3
-1.626, 1.011e-3
-1.627, 1.011e-3
-1.628, 1.011e-3
-1.629, 1.011e-3
-1.630, 1.011e-3
-1.631, 1.011e-3
-1.632, 1.011e-3
-1.633, 1.011e-3
-1.634, 1.011e-3
-1.635, 1.011e-3
-1.636, 1.011e-3
-1.637, 1.011e-3
-1.638, 1.011e-3
-1.639, 1.011e-3
-1.640, 1.011e-3
-1.641, 1.011e-3
-1.642, 1.011e-3
-1.643, 1.011e-3
-1.644, 1.011e-3
-1.645, 1.011e-3
-1.646, 1.011e-3
-1.647, 1.011e-3
-1.648, 1.011e-3
-1.649, 1.011e-3
-1.650, 1.011e-3
-1.651, 1.011e-3
-1.652, 1.011e-3
-1.653, 1.011e-3
-1.654, 1.011e-3
-1.655, 1.011e-3
-1.656, 1.011e-3
-1.657, 1.011e-3
-1.658, 1.011e-3
-1.659, 1.011e-3
-1.660, 1.011e-3
-1.661, 1.011e-3
-1.662, 1.011e-3
-1.663, 1.011e-3
-1.664, 1.011e-3
-1.665, 1.011e-3
-1.666, 1.011e-3
-1.667, 1.011e-3
-1.668, 1.011e-3
-1.669, 1.011e-3
-1.670, 1.011e-3
-1.671, 1.011e-3
-1.672, 1.011e-3
-1.673, 1.011e-3
-1.674, 1.011e-3
-1.675, 1.011e-3
-1.676, 1.011e-3
-1.677, 1.011e-3
-1.678, 1.011e-3
-1.679, 1.011e-3
-1.680, 1.011e-3
-1.681, 1.011e-3
-1.682, 1.011e-3
-1.683, 1.011e-3
-1.684, 1.011e-3
-1.685, 1.011e-3
-1.686, 1.011e-3
-1.687, 1.011e-3
-1.688, 1.011e-3
-1.689, 1.011e-3
-1.690, 1.011e-3
-1.691, 1.011e-3
-1.692, 1.011e-3
-1.693, 1.011e-3
-1.694, 1.011e-3
-1.695, 1.011e-3
-1.696, 1.011e-3
-1.697, 1.011e-3
-1.698, 1.011e-3
-1.699, 1.011e-3
