Potential V vs RHE, Current mA cm-2
0.013299999999999867,-0.7437137303390498
0.012299999999999978,-2.1828995356917518
0.011299999999999866,-3.0119203574126634
0.010299999999999976,-3.4915074880669104
0.009299999999999864,-3.7970851288377587
0.008299999999999974,-4.014950669016974
0.007299999999999862,-4.1889601589003735
0.006299999999999972,-4.276672259492005
0.00529999999999986,-4.364384360083638
0.0042999999999999705,-4.406825699079589
0.0032999999999998586,-4.494537799671222
0.0022999999999999687,-4.494537799671222
0.0012999999999998568,-4.494537799671222
0.00029999999999996696,-4.450681749375406
-0.000700000000000145,-4.450681749375406
-0.0017000000000000348,-4.494537799671222
-0.0027000000000001467,-4.494537799671222
-0.0037000000000000366,-4.494537799671222
-0.0047000000000001485,-4.538393849967037
-0.005700000000000038,-4.582249900262854
-0.00670000000000015,-4.582249900262854
-0.00770000000000004,-4.582249900262854
-0.008700000000000152,-4.538393849967037
-0.009700000000000042,-4.538393849967037
-0.010700000000000154,-4.538393849967037
-0.011700000000000044,-4.538393849967037
-0.012700000000000156,-4.582249900262854
-0.013700000000000045,-4.582249900262854
-0.014700000000000157,-4.582249900262854
-0.015700000000000047,-4.626105950558669
-0.01670000000000016,-4.626105950558669
-0.01770000000000005,-4.626105950558669
-0.01870000000000016,-4.582249900262854
-0.01970000000000005,-4.582249900262854
-0.020700000000000163,-4.582249900262854
-0.021700000000000053,-4.582249900262854
-0.022700000000000164,-4.626105950558669
-0.023700000000000054,-4.626105950558669
-0.024700000000000166,-4.626105950558669
-0.025700000000000056,-4.668547289554621
-0.026700000000000168,-4.626105950558669
-0.027700000000000058,-4.626105950558669
-0.02870000000000017,-4.626105950558669
-0.02970000000000006,-4.626105950558669
-0.03070000000000017,-4.582249900262854
-0.03170000000000006,-4.582249900262854
-0.03270000000000017,-4.626105950558669
-0.03370000000000006,-4.626105950558669
-0.034700000000000175,-4.626105950558669
-0.035700000000000065,-4.668547289554621
-0.03670000000000018,-4.668547289554621
-0.03770000000000007,-4.668547289554621
-0.03870000000000018,-4.626105950558669
-0.03970000000000007,-4.626105950558669
-0.04070000000000018,-4.626105950558669
-0.04170000000000007,-4.582249900262854
-0.04270000000000018,-4.626105950558669
-0.04370000000000007,-4.626105950558669
-0.044700000000000184,-4.626105950558669
-0.045700000000000074,-4.668547289554621
-0.046700000000000186,-4.668547289554621
-0.047700000000000076,-4.668547289554621
-0.04870000000000019,-4.668547289554621
-0.04970000000000008,-4.626105950558669
-0.05070000000000019,-4.582249900262854
-0.05170000000000008,-4.582249900262854
-0.05270000000000019,-4.626105950558669
-0.05370000000000008,-4.626105950558669
-0.05470000000000019,-4.668547289554621
-0.05570000000000008,-4.668547289554621
-0.056700000000000195,-4.712403339850438
-0.057700000000000085,-4.668547289554621
-0.058700000000000196,-4.626105950558669
-0.059700000000000086,-4.626105950558669
-0.0607000000000002,-4.626105950558669
-0.06170000000000009,-4.626105950558669
-0.0627000000000002,-4.626105950558669
-0.06370000000000009,-4.668547289554621
-0.0647000000000002,-4.668547289554621
-0.06570000000000009,-4.668547289554621
-0.0667000000000002,-4.668547289554621
-0.0677000000000001,-4.668547289554621
-0.0687000000000002,-4.626105950558669
-0.0697000000000001,-4.626105950558669
-0.07070000000000021,-4.626105950558669
-0.0717000000000001,-4.626105950558669
-0.07270000000000021,-4.626105950558669
-0.0737000000000001,-4.626105950558669
-0.07470000000000021,-4.668547289554621
-0.0757000000000001,-4.712403339850438
-0.07670000000000021,-4.712403339850438
-0.0777000000000001,-4.712403339850438
-0.07870000000000021,-4.668547289554621
-0.0797000000000001,-4.626105950558669
-0.08070000000000022,-4.626105950558669
-0.0817000000000001,-4.626105950558669
-0.08270000000000022,-4.626105950558669
-0.08370000000000011,-4.668547289554621
-0.08470000000000022,-4.668547289554621
-0.08570000000000011,-4.668547289554621
-0.08670000000000022,-4.712403339850438
-0.08770000000000011,-4.668547289554621
-0.08870000000000022,-4.668547289554621
-0.08970000000000011,-4.668547289554621
-0.09070000000000022,-4.626105950558669
-0.09170000000000011,-4.626105950558669
-0.09270000000000023,-4.626105950558669
-0.09370000000000012,-4.626105950558669
-0.09470000000000023,-4.712403339850438
-0.09570000000000012,-4.712403339850438
-0.09670000000000023,-4.712403339850438
-0.09770000000000012,-4.712403339850438
-0.09870000000000023,-4.668547289554621
-0.09970000000000012,-4.668547289554621
-0.10070000000000023,-4.626105950558669
-0.10170000000000012,-4.626105950558669
-0.10270000000000024,-4.668547289554621
-0.10370000000000013,-4.668547289554621
-0.10470000000000024,-4.712403339850438
-0.10570000000000013,-4.712403339850438
-0.10670000000000024,-4.712403339850438
-0.10770000000000013,-4.712403339850438
-0.10870000000000024,-4.668547289554621
-0.10970000000000013,-4.668547289554621
-0.11070000000000024,-4.668547289554621
-0.11170000000000013,-4.668547289554621
-0.11270000000000002,-4.668547289554621
-0.11370000000000013,-4.668547289554621
-0.11470000000000002,-4.712403339850438
-0.11570000000000014,-4.712403339850438
-0.11670000000000003,-4.712403339850438
-0.11770000000000014,-4.712403339850438
-0.11870000000000003,-4.712403339850438
-0.11970000000000014,-4.668547289554621
-0.12070000000000003,-4.668547289554621
-0.12170000000000014,-4.668547289554621
-0.12270000000000003,-4.668547289554621
-0.12370000000000014,-4.712403339850438
-0.12470000000000003,-4.712403339850438
-0.12570000000000014,-4.756259390146253
-0.12670000000000003,-4.756259390146253
-0.12770000000000015,-4.712403339850438
-0.12870000000000004,-4.712403339850438
-0.12970000000000015,-4.712403339850438
-0.13070000000000004,-4.668547289554621
-0.13170000000000015,-4.712403339850438
-0.13270000000000004,-4.712403339850438
-0.13370000000000015,-4.712403339850438
-0.13470000000000004,-4.756259390146253
-0.13570000000000015,-4.756259390146253
-0.13670000000000004,-4.756259390146253
-0.13770000000000016,-4.756259390146253
-0.13870000000000005,-4.712403339850438
-0.13970000000000016,-4.756259390146253
-0.14070000000000005,-4.712403339850438
-0.14170000000000016,-4.712403339850438
-0.14270000000000005,-4.756259390146253
-0.14370000000000016,-4.756259390146253
-0.14470000000000005,-4.800115440442069
-0.14570000000000016,-4.800115440442069
-0.14670000000000005,-4.800115440442069
-0.14770000000000016,-4.800115440442069
-0.14870000000000005,-4.756259390146253
-0.14970000000000017,-4.756259390146253
-0.15070000000000006,-4.756259390146253
-0.15170000000000017,-4.800115440442069
-0.15270000000000006,-4.756259390146253
-0.15370000000000017,-4.800115440442069
-0.15470000000000006,-4.843971490737885
-0.15570000000000017,-4.887827541033701
-0.15670000000000006,-4.887827541033701
-0.15770000000000017,-4.843971490737885
-0.15870000000000006,-4.843971490737885
-0.15970000000000018,-4.843971490737885
-0.16070000000000007,-4.800115440442069
-0.16170000000000018,-4.843971490737885
-0.16270000000000007,-4.843971490737885
-0.16370000000000018,-4.887827541033701
-0.16470000000000007,-4.9302688800296535
-0.16570000000000018,-4.9302688800296535
-0.16670000000000007,-4.9302688800296535
-0.16770000000000018,-4.887827541033701
-0.16870000000000007,-4.9302688800296535
-0.16970000000000018,-4.887827541033701
-0.17070000000000007,-4.887827541033701
-0.17170000000000019,-4.9302688800296535
-0.17270000000000008,-4.9302688800296535
-0.1737000000000002,-4.9302688800296535
-0.17470000000000008,-4.974124930325469
-0.1757000000000002,-4.974124930325469
-0.17670000000000008,-5.017980980621284
-0.1777000000000002,-5.017980980621284
-0.17870000000000008,-4.974124930325469
-0.1797000000000002,-4.974124930325469
-0.18070000000000008,-4.974124930325469
-0.1817000000000002,-4.974124930325469
-0.18270000000000008,-4.974124930325469
-0.1837000000000002,-5.0618370309171015
-0.1847000000000001,-5.0618370309171015
-0.1857000000000002,-5.105693081212917
-0.1867000000000001,-5.105693081212917
-0.1877000000000002,-5.105693081212917
-0.1887000000000001,-5.105693081212917
-0.1897000000000002,-5.105693081212917
-0.1907000000000001,-5.105693081212917
-0.1917000000000001,-5.105693081212917
-0.19269999999999998,-5.149549131508733
-0.1937000000000001,-5.149549131508733
-0.19469999999999998,-5.191990470504685
-0.1957000000000001,-5.235846520800501
-0.19669999999999999,-5.235846520800501
-0.1977000000000001,-5.235846520800501
-0.1987,-5.235846520800501
-0.1997000000000001,-5.235846520800501
-0.2007,-5.235846520800501
-0.2017000000000001,-5.279702571096316
-0.2027,-5.279702571096316
-0.2037000000000001,-5.323558621392133
-0.2047,-5.367414671687949
-0.2057000000000001,-5.411270721983764
-0.2067,-5.411270721983764
-0.2077000000000001,-5.411270721983764
-0.2087,-5.411270721983764
-0.2097000000000001,-5.411270721983764
-0.2107,-5.411270721983764
-0.2117000000000001,-5.453712060979717
-0.2127,-5.453712060979717
-0.2137000000000001,-5.497568111275533
-0.2147,-5.5414241615713475
-0.2157000000000001,-5.629136262162981
-0.2167,-5.672992312458796
-0.21770000000000012,-5.672992312458796
-0.2187,-5.672992312458796
-0.21970000000000012,-5.672992312458796
-0.2207,-5.672992312458796
-0.22170000000000012,-5.672992312458796
-0.2227,-5.715433651454749
-0.22370000000000012,-5.759289701750564
-0.2247,-5.80314575204638
-0.22570000000000012,-5.890857852638012
-0.2267,-5.890857852638012
-0.22770000000000012,-5.9347139029338285
-0.22870000000000001,-5.9347139029338285
-0.22970000000000013,-5.9347139029338285
-0.23070000000000002,-5.977155241929781
-0.23170000000000013,-5.977155241929781
-0.23270000000000002,-6.021011292225596
-0.23370000000000013,-6.064867342521412
-0.23470000000000002,-6.152579443113044
-0.23570000000000013,-6.196435493408861
-0.23670000000000002,-6.238876832404812
-0.2376999999999999,-6.238876832404812
-0.23870000000000002,-6.282732882700628
-0.2396999999999999,-6.282732882700628
-0.24070000000000003,-6.326588932996443
-0.24169999999999991,-6.37044498329226
-0.24270000000000003,-6.414301033588076
-0.24369999999999992,-6.500598422879844
-0.24470000000000003,-6.54445447317566
-0.24569999999999992,-6.632166573767292
-0.24670000000000003,-6.6760226240631075
-0.24769999999999992,-6.719878674358924
-0.24870000000000003,-6.719878674358924
-0.24969999999999992,-6.762320013354876
-0.25070000000000003,-6.762320013354876
-0.2516999999999999,-6.850032113946507
-0.25270000000000004,-6.93774421453814
-0.2536999999999999,-7.024041603829907
-0.25470000000000004,-7.067897654125724
-0.2556999999999999,-7.155609754717355
-0.25670000000000004,-7.199465805013171
-0.25769999999999993,-7.243321855308987
-0.25870000000000004,-7.28576319430494
-0.25969999999999993,-7.37347529489657
-0.26070000000000004,-7.37347529489657
-0.26169999999999993,-7.4173313451923875
-0.26270000000000004,-7.50504344578402
-0.26369999999999993,-7.591340835075788
-0.26470000000000005,-7.679052935667419
-0.26569999999999994,-7.809206375255003
-0.26670000000000005,-7.853062425550818
-0.26769999999999994,-7.984630576438266
-0.26870000000000005,-7.984630576438266
-0.26969999999999994,-8.027071915434218
-0.27070000000000005,-8.11478401602585
-0.27169999999999994,-8.158640066321666
-0.27270000000000005,-8.246352166913299
-0.27369999999999994,-8.376505606500881
-0.27470000000000006,-8.464217707092514
-0.27569999999999995,-8.594371146680096
-0.27670000000000006,-8.638227196975913
-0.27769999999999995,-8.725939297567548
-0.27870000000000006,-8.812236686859313
-0.27969999999999995,-8.899948787450944
-0.28070000000000006,-8.987660888042578
-0.28169999999999995,-9.073958277334345
-0.28270000000000006,-9.161670377925978
-0.28369999999999995,-9.293238528813426
-0.28470000000000006,-9.423391968401008
-0.28569999999999995,-9.55496011928846
-0.28670000000000007,-9.641257508580225
-0.28769999999999996,-9.728969609171857
-0.28870000000000007,-9.81668170976349
-0.28969999999999996,-9.946835149351072
-0.29070000000000007,-10.034547249942705
-0.29169999999999996,-10.120844639234473
-0.29270000000000007,-10.25241279012192
-0.29369999999999996,-10.42642228000532
-0.2947000000000001,-10.557990430892769
-0.29569999999999996,-10.688143870480351
-0.2967000000000001,-10.819712021367803
-0.29769999999999996,-10.949865460955383
-0.2987000000000001,-11.081433611842833
-0.29969999999999997,-11.211587051430415
-0.3007000000000001,-11.299299152022046
-0.30169999999999997,-11.473308641905447
-0.3027000000000001,-11.604876792792895
-0.30369999999999997,-11.778886282676295
-0.3047000000000001,-11.909039722263879
-0.30569999999999997,-12.084463923447142
-0.3067000000000001,-12.258473413330542
-0.3077,-12.390041564217992
-0.3087000000000001,-12.520195003805576
-0.3097,-12.651763154693022
-0.3107000000000001,-12.825772644576423
-0.3117,-12.99978213445982
-0.3127000000000001,-13.175206335643086
-0.3137,-13.349215825526485
-0.3147000000000001,-13.523225315409885
-0.3157,-13.741090855589102
-0.3167000000000001,-13.916515056772363
-0.3177,-14.090524546655764
-0.3187000000000001,-14.26028990263957
-0.3197,-14.444202371622024
-0.3207000000000001,-14.61396772760583
-0.3217,-14.783733083589633
-0.3227000000000001,-15.01008689156804
-0.3237,-15.222293586547794
-0.3247000000000001,-15.448647394526201
-0.3257,-15.70329542850191
-0.3267000000000001,-15.87306078448571
-0.3277,-16.099414592464115
-0.3287000000000001,-16.311621287443874
-0.3297,-16.53797509542228
-0.3307000000000001,-16.750181790402035
-0.3317,-16.919947146385837
-0.3327000000000001,-17.146300954364243
-0.3337,-17.40094898833995
-0.3347000000000001,-17.669744135314307
-0.3357,-17.924392169290012
-0.3367000000000001,-18.19318731626437
-0.3377,-18.40539401124413
-0.3387000000000001,-18.674189158218486
-0.3397,-18.88639585319824
-0.3407000000000001,-19.112749661176647
-0.3417,-19.409839034148305
-0.3427000000000001,-19.721075520118614
-0.3437,-19.97572355409432
-0.3447000000000001,-20.286960040064624
-0.3457,-20.584049413036283
-0.3467000000000001,-20.85284456001064
-0.3477,-21.149933932982297
-0.3487000000000001,-21.418729079956652
-0.3497,-21.729965565926964
-0.3507000000000001,-21.98461359990267
-0.3517,-22.295850085872978
-0.3527000000000001,-22.63538079784059
-0.3537,-22.946617283810895
-0.3547000000000001,-23.300295108777156
-0.3557,-23.639825820744765
-0.35670000000000013,-23.951062306715073
-0.3577,-24.290593018682678
-0.35870000000000013,-24.601829504652986
-0.3597,-24.9130659906233
-0.36070000000000013,-25.252596702590903
-0.3617,-25.60627452755716
-0.3626999999999999,-25.959952352523427
-0.3637,-26.34192440348698
-0.3646999999999999,-26.69560222845324
-0.3657,-27.091721392415455
-0.3666999999999999,-27.487840556377662
-0.3677,-27.827371268345274
-0.3686999999999999,-28.22349043230748
-0.36970000000000003,-28.619609596269694
-0.3706999999999999,-28.959140308237306
-0.37170000000000003,-29.31281813320356
-0.3726999999999999,-29.751378636161718
-0.37370000000000003,-30.147497800123933
-0.3746999999999999,-30.571911190083444
-0.37570000000000003,-31.010471693041605
-0.3766999999999999,-31.40659085700382
-0.37770000000000004,-31.802710020966025
-0.3786999999999999,-32.24127052392419
-0.37970000000000004,-32.66568391388369
-0.3806999999999999,-33.06180307784591
-0.38170000000000004,-33.50036358080407
-0.38269999999999993,-33.98136542275818
-0.38370000000000004,-34.462367264712285
-0.38469999999999993,-34.94336910666641
-0.38570000000000004,-35.42437094862052
-0.38669999999999993,-35.848784338580025
-0.38770000000000004,-36.329786180534136
-0.38869999999999993,-36.81078802248826
-0.38970000000000005,-37.249348525446415
-0.39069999999999994,-37.73035036740053
-0.39170000000000005,-38.211352209354644
-0.39269999999999994,-38.692354051308754
-0.39370000000000005,-39.258238571254765
-0.39469999999999994,-39.739240413208876
-0.39570000000000005,-40.26268359415894
-0.39669999999999994,-40.828568114104954
-0.39770000000000005,-41.30956995605907
-0.39869999999999994,-41.87545447600508
-0.39970000000000006,-42.39889765695515
-0.40069999999999995,-42.92234083790521
-0.40170000000000006,-43.48822535785123
-0.40269999999999995,-44.011668538801295
-0.40370000000000006,-44.577553058747306
-0.40469999999999995,-45.18587891768927
-0.40570000000000006,-45.75176343763528
-0.40669999999999995,-46.3176479575813
-0.40770000000000006,-46.88353247752732
-0.40869999999999995,-47.46356411047198
-0.40970000000000006,-48.071889969413945
-0.41069999999999995,-48.63777448935996
-0.41170000000000007,-49.24610034830193
-0.41269999999999996,-49.85442620724389
-0.41370000000000007,-50.50519340518181
-0.41469999999999996,-51.17010771611838
-0.41570000000000007,-51.77843357506035
-0.41669999999999996,-52.42920077299826
-0.41770000000000007,-53.079967970936174
-0.41869999999999996,-53.68829382987814
-0.4197000000000001,-54.35320814081471
-0.42069999999999996,-54.961533999756675
-0.4217000000000001,-55.612301197694585
-0.42269999999999996,-56.30550973462846
-0.4237000000000001,-56.97042404556503
-0.42469999999999997,-57.66363258249889
-0.4257000000000001,-58.39928245842871
-0.42669999999999997,-59.06419676936528
-0.4277000000000001,-59.757405306299155
-0.42869999999999997,-60.45061384323302
-0.4297000000000001,-61.15796949316553
-0.43069999999999997,-61.851178030099405
-0.4317000000000001,-62.544386567033264
-0.4327,-63.29418355596174
-0.4337000000000001,-64.02983343189156
-0.4347,-64.77963042082003
-0.4357000000000001,-65.51528029674984
-0.4367,-66.25093017267966
-0.4377000000000001,-67.04316850060408
-0.4387,-67.7788183765339
-0.4397000000000001,-68.52861536546239
-0.4407,-69.30670658038814
-0.4417000000000001,-70.05650356931662
-0.4427,-70.8345947842424
-0.4437000000000001,-71.66927445116276
-0.4447,-72.48980700508447
-0.4457000000000001,-73.32448667200485
-0.4467,-74.10257788693062
-0.4477000000000001,-74.89481621485504
-0.4487,-75.71534876877676
-0.4497000000000001,-76.50758709670117
-0.4507,-77.34226676362155
-0.4517000000000001,-78.16279931754329
-0.4527,-78.99747898446365
-0.4537000000000001,-79.81801153838538
-0.4547,-80.73757388329766
-0.4557000000000001,-81.57225355021802
-0.4567,-82.43522744313569
-0.4577000000000001,-83.31234844905201
-0.4587,-84.18946945496833
-0.4597000000000001,-85.052443347886
-0.4607,-85.97200569279828
-0.4617000000000001,-86.89156803771054
-0.4627,-87.79698326962418
-0.4637000000000001,-88.7589869535324
-0.4647,-89.67854929844468
-0.4657000000000001,-90.6405529823529
-0.4667,-91.56011532726518
-0.4677000000000001,-92.4655305591788
-0.4687,-93.34265156509512
-0.4697000000000001,-94.30465524900335
-0.4707,-95.22421759391563
-0.4717000000000001,-96.21451550382113
-0.4727,-97.17651918772938
-0.4737000000000001,-98.18096421063355
-0.4747,-99.18540923353773
-0.4757000000000001,-100.18985425644189
-0.4767,-101.19429927934607
-0.4777000000000001,-102.19874430225026
-0.4787,-103.20318932515443
-0.4797000000000001,-104.16519300906265
-0.4807,-105.11304957997223
-0.48170000000000013,-106.11749460287639
-0.4827,-107.12193962578058
-0.48370000000000013,-108.1688259876807
-0.4847,-109.21571234958083
-0.48570000000000013,-110.3050400504769
-0.4867,-109.9655093385093
-0.48570000000000013,-107.73026548472255
-0.4847,-106.21652439386696
-0.48370000000000013,-104.90084288499246
-0.4827,-103.7266325061045
-0.48170000000000013,-102.63730480520842
-0.4807,-101.50553576531638
-0.4797000000000001,-100.45864940341626
-0.4787,-99.35517458952152
-0.4777000000000001,-98.3082882276214
-0.4767,-97.26140186572127
-0.4757000000000001,-96.17207416482519
-0.4747,-95.18177625491967
-0.4737000000000001,-94.13488989301955
-0.4727,-93.08800353111941
-0.4717000000000001,-92.08355850821525
-0.4707,-91.07911348531105
-0.4697000000000001,-90.15955114039879
-0.4687,-89.15510611749461
-0.4677000000000001,-88.19310243358639
-0.4667,-87.23109874967815
-0.4657000000000001,-86.28324217876859
-0.4647,-85.32123849486035
-0.4637000000000001,-84.35923481095215
-0.4627,-83.39723112704392
-0.4617000000000001,-82.43522744313569
-0.4607,-81.51566509822342
