Mar. 5, 2025   21:21:19
Cyclic Voltammetry
File: c:/users/guazh/data/banditlqround7_x0exp169_r20_3/2025-03-03-exp881\exp881-2025-03-05t21_10_42-arkoh\exp881_cv_sr_400mvs_efin_-1500mv.bin
Data Source:  Experiment
Instrument Model:  CHI760E
Header: CV ran at 400 mVs
Note: 

Init E (V) = -1
High E (V) = -1
Low E (V) = -1.5
Final E (V) = -1
Init P/N = N
Scan Rate (V/s) = 0.4
Segment = 3
Sample Interval (V) = 0.001
Quiet Time (sec) = 2
Sensitivity (A/V) = 0.01
Comp R (ohm) = 1.9

Results:

Channel 1:
Segment 1:

Segment 2:

Segment 3:

Potential/V, Current/A

-1.000, 4.640e-5
-1.001, 1.327e-4
-1.002, 1.697e-4
-1.003, 1.882e-4
-1.004, 1.975e-4
-1.005, 2.036e-4
-1.006, 2.067e-4
-1.007, 2.129e-4
-1.008, 2.160e-4
-1.009, 2.160e-4
-1.010, 2.160e-4
-1.011, 2.129e-4
-1.012, 2.160e-4
-1.013, 2.160e-4
-1.014, 2.191e-4
-1.015, 2.221e-4
-1.016, 2.191e-4
-1.017, 2.191e-4
-1.018, 2.160e-4
-1.019, 2.191e-4
-1.020, 2.191e-4
-1.021, 2.221e-4
-1.022, 2.221e-4
-1.023, 2.221e-4
-1.024, 2.191e-4
-1.025, 2.191e-4
-1.026, 2.221e-4
-1.027, 2.221e-4
-1.028, 2.252e-4
-1.029, 2.221e-4
-1.030, 2.221e-4
-1.031, 2.191e-4
-1.032, 2.191e-4
-1.033, 2.221e-4
-1.034, 2.252e-4
-1.035, 2.252e-4
-1.036, 2.252e-4
-1.037, 2.221e-4
-1.038, 2.221e-4
-1.039, 2.221e-4
-1.040, 2.221e-4
-1.041, 2.252e-4
-1.042, 2.252e-4
-1.043, 2.221e-4
-1.044, 2.191e-4
-1.045, 2.221e-4
-1.046, 2.221e-4
-1.047, 2.252e-4
-1.048, 2.252e-4
-1.049, 2.252e-4
-1.050, 2.221e-4
-1.051, 2.221e-4
-1.052, 2.221e-4
-1.053, 2.221e-4
-1.054, 2.252e-4
-1.055, 2.252e-4
-1.056, 2.252e-4
-1.057, 2.221e-4
-1.058, 2.221e-4
-1.059, 2.221e-4
-1.060, 2.252e-4
-1.061, 2.252e-4
-1.062, 2.252e-4
-1.063, 2.252e-4
-1.064, 2.221e-4
-1.065, 2.221e-4
-1.066, 2.221e-4
-1.067, 2.252e-4
-1.068, 2.283e-4
-1.069, 2.252e-4
-1.070, 2.221e-4
-1.071, 2.221e-4
-1.072, 2.221e-4
-1.073, 2.252e-4
-1.074, 2.252e-4
-1.075, 2.283e-4
-1.076, 2.252e-4
-1.077, 2.221e-4
-1.078, 2.221e-4
-1.079, 2.221e-4
-1.080, 2.252e-4
-1.081, 2.283e-4
-1.082, 2.252e-4
-1.083, 2.252e-4
-1.084, 2.252e-4
-1.085, 2.221e-4
-1.086, 2.221e-4
-1.087, 2.252e-4
-1.088, 2.252e-4
-1.089, 2.252e-4
-1.090, 2.221e-4
-1.091, 2.221e-4
-1.092, 2.221e-4
-1.093, 2.221e-4
-1.094, 2.252e-4
-1.095, 2.283e-4
-1.096, 2.252e-4
-1.097, 2.221e-4
-1.098, 2.221e-4
-1.099, 2.221e-4
-1.100, 2.252e-4
-1.101, 2.283e-4
-1.102, 2.283e-4
-1.103, 2.252e-4
-1.104, 2.221e-4
-1.105, 2.221e-4
-1.106, 2.221e-4
-1.107, 2.252e-4
-1.108, 2.252e-4
-1.109, 2.252e-4
-1.110, 2.252e-4
-1.111, 2.221e-4
-1.112, 2.221e-4
-1.113, 2.252e-4
-1.114, 2.283e-4
-1.115, 2.283e-4
-1.116, 2.252e-4
-1.117, 2.252e-4
-1.118, 2.221e-4
-1.119, 2.221e-4
-1.120, 2.252e-4
-1.121, 2.283e-4
-1.122, 2.283e-4
-1.123, 2.252e-4
-1.124, 2.221e-4
-1.125, 2.221e-4
-1.126, 2.252e-4
-1.127, 2.283e-4
-1.128, 2.252e-4
-1.129, 2.283e-4
-1.130, 2.252e-4
-1.131, 2.252e-4
-1.132, 2.252e-4
-1.133, 2.252e-4
-1.134, 2.283e-4
-1.135, 2.283e-4
-1.136, 2.283e-4
-1.137, 2.252e-4
-1.138, 2.221e-4
-1.139, 2.252e-4
-1.140, 2.283e-4
-1.141, 2.283e-4
-1.142, 2.283e-4
-1.143, 2.283e-4
-1.144, 2.252e-4
-1.145, 2.252e-4
-1.146, 2.283e-4
-1.147, 2.283e-4
-1.148, 2.314e-4
-1.149, 2.314e-4
-1.150, 2.283e-4
-1.151, 2.283e-4
-1.152, 2.283e-4
-1.153, 2.283e-4
-1.154, 2.314e-4
-1.155, 2.314e-4
-1.156, 2.314e-4
-1.157, 2.283e-4
-1.158, 2.283e-4
-1.159, 2.283e-4
-1.160, 2.314e-4
-1.161, 2.314e-4
-1.162, 2.314e-4
-1.163, 2.314e-4
-1.164, 2.283e-4
-1.165, 2.283e-4
-1.166, 2.314e-4
-1.167, 2.345e-4
-1.168, 2.345e-4
-1.169, 2.345e-4
-1.170, 2.314e-4
-1.171, 2.314e-4
-1.172, 2.314e-4
-1.173, 2.345e-4
-1.174, 2.376e-4
-1.175, 2.376e-4
-1.176, 2.376e-4
-1.177, 2.345e-4
-1.178, 2.345e-4
-1.179, 2.345e-4
-1.180, 2.376e-4
-1.181, 2.406e-4
-1.182, 2.406e-4
-1.183, 2.376e-4
-1.184, 2.376e-4
-1.185, 2.376e-4
-1.186, 2.376e-4
-1.187, 2.406e-4
-1.188, 2.437e-4
-1.189, 2.437e-4
-1.190, 2.406e-4
-1.191, 2.406e-4
-1.192, 2.406e-4
-1.193, 2.437e-4
-1.194, 2.468e-4
-1.195, 2.468e-4
-1.196, 2.468e-4
-1.197, 2.468e-4
-1.198, 2.468e-4
-1.199, 2.468e-4
-1.200, 2.499e-4
-1.201, 2.530e-4
-1.202, 2.530e-4
-1.203, 2.499e-4
-1.204, 2.499e-4
-1.205, 2.499e-4
-1.206, 2.530e-4
-1.207, 2.530e-4
-1.208, 2.561e-4
-1.209, 2.591e-4
-1.210, 2.561e-4
-1.211, 2.530e-4
-1.212, 2.561e-4
-1.213, 2.591e-4
-1.214, 2.622e-4
-1.215, 2.653e-4
-1.216, 2.622e-4
-1.217, 2.622e-4
-1.218, 2.622e-4
-1.219, 2.653e-4
-1.220, 2.684e-4
-1.221, 2.715e-4
-1.222, 2.715e-4
-1.223, 2.715e-4
-1.224, 2.715e-4
-1.225, 2.715e-4
-1.226, 2.746e-4
-1.227, 2.776e-4
-1.228, 2.807e-4
-1.229, 2.838e-4
-1.230, 2.838e-4
-1.231, 2.807e-4
-1.232, 2.807e-4
-1.233, 2.869e-4
-1.234, 2.900e-4
-1.235, 2.931e-4
-1.236, 2.931e-4
-1.237, 2.931e-4
-1.238, 2.931e-4
-1.239, 2.961e-4
-1.240, 2.992e-4
-1.241, 3.023e-4
-1.242, 3.054e-4
-1.243, 3.054e-4
-1.244, 3.054e-4
-1.245, 3.054e-4
-1.246, 3.115e-4
-1.247, 3.146e-4
-1.248, 3.177e-4
-1.249, 3.208e-4
-1.250, 3.208e-4
-1.251, 3.208e-4
-1.252, 3.239e-4
-1.253, 3.300e-4
-1.254, 3.331e-4
-1.255, 3.393e-4
-1.256, 3.362e-4
-1.257, 3.393e-4
-1.258, 3.424e-4
-1.259, 3.424e-4
-1.260, 3.516e-4
-1.261, 3.547e-4
-1.262, 3.578e-4
-1.263, 3.609e-4
-1.264, 3.609e-4
-1.265, 3.640e-4
-1.266, 3.701e-4
-1.267, 3.763e-4
-1.268, 3.794e-4
-1.269, 3.825e-4
-1.270, 3.855e-4
-1.271, 3.855e-4
-1.272, 3.917e-4
-1.273, 3.979e-4
-1.274, 4.040e-4
-1.275, 4.071e-4
-1.276, 4.102e-4
-1.277, 4.133e-4
-1.278, 4.164e-4
-1.279, 4.195e-4
-1.280, 4.287e-4
-1.281, 4.349e-4
-1.282, 4.380e-4
-1.283, 4.441e-4
-1.284, 4.472e-4
-1.285, 4.503e-4
-1.286, 4.565e-4
-1.287, 4.657e-4
-1.288, 4.719e-4
-1.289, 4.780e-4
-1.290, 4.811e-4
-1.291, 4.842e-4
-1.292, 4.904e-4
-1.293, 4.996e-4
-1.294, 5.089e-4
-1.295, 5.150e-4
-1.296, 5.212e-4
-1.297, 5.243e-4
-1.298, 5.305e-4
-1.299, 5.397e-4
-1.300, 5.459e-4
-1.301, 5.582e-4
-1.302, 5.644e-4
-1.303, 5.705e-4
-1.304, 5.736e-4
-1.305, 5.829e-4
-1.306, 5.921e-4
-1.307, 6.014e-4
-1.308, 6.106e-4
-1.309, 6.199e-4
-1.310, 6.260e-4
-1.311, 6.322e-4
-1.312, 6.414e-4
-1.313, 6.538e-4
-1.314, 6.661e-4
-1.315, 6.754e-4
-1.316, 6.846e-4
-1.317, 6.908e-4
-1.318, 7.000e-4
-1.319, 7.093e-4
-1.320, 7.247e-4
-1.321, 7.370e-4
-1.322, 7.463e-4
-1.323, 7.555e-4
-1.324, 7.648e-4
-1.325, 7.740e-4
-1.326, 7.894e-4
-1.327, 8.018e-4
-1.328, 8.141e-4
-1.329, 8.264e-4
-1.330, 8.388e-4
-1.331, 8.480e-4
-1.332, 8.634e-4
-1.333, 8.758e-4
-1.334, 8.912e-4
-1.335, 9.066e-4
-1.336, 9.189e-4
-1.337, 9.343e-4
-1.338, 9.467e-4
-1.339, 9.590e-4
-1.340, 9.775e-4
-1.341, 9.929e-4
-1.342, 1.011e-3
-1.343, 1.024e-3
-1.344, 1.036e-3
-1.345, 1.051e-3
-1.346, 1.070e-3
-1.347, 1.088e-3
-1.348, 1.107e-3
-1.349, 1.122e-3
-1.350, 1.138e-3
-1.351, 1.153e-3
-1.352, 1.172e-3
-1.353, 1.193e-3
-1.354, 1.212e-3
-1.355, 1.230e-3
-1.356, 1.246e-3
-1.357, 1.264e-3
-1.358, 1.283e-3
-1.359, 1.304e-3
-1.360, 1.326e-3
-1.361, 1.347e-3
-1.362, 1.369e-3
-1.363, 1.388e-3
-1.364, 1.409e-3
-1.365, 1.428e-3
-1.366, 1.452e-3
-1.367, 1.477e-3
-1.368, 1.502e-3
-1.369, 1.523e-3
-1.370, 1.545e-3
-1.371, 1.566e-3
-1.372, 1.591e-3
-1.373, 1.619e-3
-1.374, 1.647e-3
-1.375, 1.671e-3
-1.376, 1.696e-3
-1.377, 1.721e-3
-1.378, 1.742e-3
-1.379, 1.770e-3
-1.380, 1.798e-3
-1.381, 1.828e-3
-1.382, 1.856e-3
-1.383, 1.884e-3
-1.384, 1.906e-3
-1.385, 1.933e-3
-1.386, 1.964e-3
-1.387, 1.995e-3
-1.388, 2.026e-3
-1.389, 2.054e-3
-1.390, 2.087e-3
-1.391, 2.118e-3
-1.392, 2.146e-3
-1.393, 2.177e-3
-1.394, 2.211e-3
-1.395, 2.242e-3
-1.396, 2.275e-3
-1.397, 2.306e-3
-1.398, 2.337e-3
-1.399, 2.371e-3
-1.400, 2.405e-3
-1.401, 2.442e-3
-1.402, 2.476e-3
-1.403, 2.510e-3
-1.404, 2.547e-3
-1.405, 2.581e-3
-1.406, 2.618e-3
-1.407, 2.655e-3
-1.408, 2.695e-3
-1.409, 2.732e-3
-1.410, 2.766e-3
-1.411, 2.800e-3
-1.412, 2.837e-3
-1.413, 2.877e-3
-1.414, 2.920e-3
-1.415, 2.963e-3
-1.416, 3.000e-3
-1.417, 3.040e-3
-1.418, 3.080e-3
-1.419, 3.120e-3
-1.420, 3.163e-3
-1.421, 3.207e-3
-1.422, 3.250e-3
-1.423, 3.290e-3
-1.424, 3.330e-3
-1.425, 3.376e-3
-1.426, 3.422e-3
-1.427, 3.469e-3
-1.428, 3.518e-3
-1.429, 3.561e-3
-1.430, 3.607e-3
-1.431, 3.651e-3
-1.432, 3.694e-3
-1.433, 3.746e-3
-1.434, 3.795e-3
-1.435, 3.845e-3
-1.436, 3.891e-3
-1.437, 3.937e-3
-1.438, 3.984e-3
-1.439, 4.033e-3
-1.440, 4.085e-3
-1.441, 4.141e-3
-1.442, 4.190e-3
-1.443, 4.239e-3
-1.444, 4.289e-3
-1.445, 4.338e-3
-1.446, 4.391e-3
-1.447, 4.446e-3
-1.448, 4.501e-3
-1.449, 4.557e-3
-1.450, 4.609e-3
-1.451, 4.662e-3
-1.452, 4.720e-3
-1.453, 4.779e-3
-1.454, 4.841e-3
-1.455, 4.899e-3
-1.456, 4.955e-3
-1.457, 5.010e-3
-1.458, 5.066e-3
-1.459, 5.124e-3
-1.460, 5.186e-3
-1.461, 5.248e-3
-1.462, 5.309e-3
-1.463, 5.368e-3
-1.464, 5.426e-3
-1.465, 5.488e-3
-1.466, 5.550e-3
-1.467, 5.614e-3
-1.468, 5.679e-3
-1.469, 5.741e-3
-1.470, 5.803e-3
-1.471, 5.864e-3
-1.472, 5.923e-3
-1.473, 5.991e-3
-1.474, 6.055e-3
-1.475, 6.120e-3
-1.476, 6.188e-3
-1.477, 6.253e-3
-1.478, 6.321e-3
-1.479, 6.395e-3
-1.480, 6.462e-3
-1.481, 6.533e-3
-1.482, 6.595e-3
-1.483, 6.663e-3
-1.484, 6.728e-3
-1.485, 6.795e-3
-1.486, 6.866e-3
-1.487, 6.937e-3
-1.488, 7.014e-3
-1.489, 7.088e-3
-1.490, 7.159e-3
-1.491, 7.230e-3
-1.492, 7.298e-3
-1.493, 7.369e-3
-1.494, 7.443e-3
-1.495, 7.511e-3
-1.496, 7.582e-3
-1.497, 7.659e-3
-1.498, 7.733e-3
-1.499, 7.810e-3
-1.500, 7.791e-3
-1.499, 7.656e-3
-1.498, 7.557e-3
-1.497, 7.471e-3
-1.496, 7.387e-3
-1.495, 7.304e-3
-1.494, 7.227e-3
-1.493, 7.156e-3
-1.492, 7.085e-3
-1.491, 7.017e-3
-1.490, 6.949e-3
-1.489, 6.872e-3
-1.488, 6.798e-3
-1.487, 6.724e-3
-1.486, 6.650e-3
-1.485, 6.576e-3
-1.484, 6.506e-3
-1.483, 6.438e-3
-1.482, 6.370e-3
-1.481, 6.302e-3
-1.480, 6.231e-3
-1.479, 6.163e-3
-1.478, 6.095e-3
-1.477, 6.028e-3
-1.476, 5.957e-3
-1.475, 5.889e-3
-1.474, 5.824e-3
-1.473, 5.756e-3
-1.472, 5.695e-3
-1.471, 5.630e-3
-1.470, 5.562e-3
-1.469, 5.500e-3
-1.468, 5.433e-3
-1.467, 5.371e-3
-1.466, 5.309e-3
-1.465, 5.248e-3
-1.464, 5.183e-3
-1.463, 5.121e-3
-1.462, 5.053e-3
-1.461, 4.992e-3
-1.460, 4.933e-3
-1.459, 4.878e-3
-1.458, 4.822e-3
-1.457, 4.764e-3
-1.456, 4.702e-3
-1.455, 4.640e-3
-1.454, 4.585e-3
-1.453, 4.529e-3
-1.452, 4.471e-3
-1.451, 4.415e-3
-1.450, 4.360e-3
-1.449, 4.301e-3
-1.448, 4.249e-3
-1.447, 4.196e-3
-1.446, 4.144e-3
-1.445, 4.091e-3
-1.444, 4.036e-3
-1.443, 3.984e-3
-1.442, 3.928e-3
-1.441, 3.876e-3
-1.440, 3.826e-3
-1.439, 3.774e-3
-1.438, 3.725e-3
-1.437, 3.675e-3
-1.436, 3.626e-3
-1.435, 3.577e-3
-1.434, 3.527e-3
-1.433, 3.481e-3
-1.432, 3.432e-3
-1.431, 3.385e-3
-1.430, 3.336e-3
-1.429, 3.287e-3
-1.428, 3.244e-3
-1.427, 3.200e-3
-1.426, 3.157e-3
-1.425, 3.111e-3
-1.424, 3.068e-3
-1.423, 3.022e-3
-1.422, 2.975e-3
-1.421, 2.932e-3
-1.420, 2.892e-3
-1.419, 2.852e-3
-1.418, 2.809e-3
-1.417, 2.766e-3
-1.416, 2.726e-3
-1.415, 2.682e-3
-1.414, 2.642e-3
-1.413, 2.605e-3
-1.412, 2.568e-3
-1.411, 2.531e-3
-1.410, 2.491e-3
-1.409, 2.448e-3
-1.408, 2.411e-3
-1.407, 2.371e-3
-1.406, 2.337e-3
-1.405, 2.303e-3
-1.404, 2.266e-3
-1.403, 2.229e-3
-1.402, 2.192e-3
-1.401, 2.155e-3
-1.400, 2.128e-3
-1.399, 2.094e-3
-1.398, 2.060e-3
-1.397, 2.026e-3
-1.396, 1.989e-3
-1.395, 1.958e-3
-1.394, 1.924e-3
-1.393, 1.893e-3
-1.392, 1.862e-3
-1.391, 1.832e-3
-1.390, 1.801e-3
-1.389, 1.770e-3
-1.388, 1.736e-3
-1.387, 1.711e-3
-1.386, 1.684e-3
-1.385, 1.656e-3
-1.384, 1.625e-3
-1.383, 1.594e-3
-1.382, 1.563e-3
-1.381, 1.532e-3
-1.380, 1.508e-3
-1.379, 1.483e-3
-1.378, 1.458e-3
-1.377, 1.431e-3
-1.376, 1.403e-3
-1.375, 1.375e-3
-1.374, 1.354e-3
-1.373, 1.329e-3
-1.372, 1.304e-3
-1.371, 1.280e-3
-1.370, 1.252e-3
-1.369, 1.227e-3
-1.368, 1.206e-3
-1.367, 1.184e-3
-1.366, 1.162e-3
-1.365, 1.141e-3
-1.364, 1.116e-3
-1.363, 1.095e-3
-1.362, 1.070e-3
-1.361, 1.048e-3
-1.360, 1.030e-3
-1.359, 1.008e-3
-1.358, 9.898e-4
-1.357, 9.683e-4
-1.356, 9.436e-4
-1.355, 9.251e-4
-1.354, 9.066e-4
-1.353, 8.881e-4
-1.352, 8.696e-4
-1.351, 8.511e-4
-1.350, 8.295e-4
-1.349, 8.110e-4
-1.348, 7.894e-4
-1.347, 7.740e-4
-1.346, 7.586e-4
-1.345, 7.432e-4
-1.344, 7.247e-4
-1.343, 7.031e-4
-1.342, 6.877e-4
-1.341, 6.723e-4
-1.340, 6.569e-4
-1.339, 6.414e-4
-1.338, 6.260e-4
-1.337, 6.075e-4
-1.336, 5.921e-4
-1.335, 5.767e-4
-1.334, 5.613e-4
-1.333, 5.489e-4
-1.332, 5.335e-4
-1.331, 5.212e-4
-1.330, 5.058e-4
-1.329, 4.904e-4
-1.328, 4.780e-4
-1.327, 4.657e-4
-1.326, 4.534e-4
-1.325, 4.410e-4
-1.324, 4.287e-4
-1.323, 4.102e-4
-1.322, 4.010e-4
-1.321, 3.855e-4
-1.320, 3.763e-4
-1.319, 3.640e-4
-1.318, 3.547e-4
-1.317, 3.424e-4
-1.316, 3.270e-4
-1.315, 3.146e-4
-1.314, 3.054e-4
-1.313, 2.961e-4
-1.312, 2.869e-4
-1.311, 2.746e-4
-1.310, 2.622e-4
-1.309, 2.530e-4
-1.308, 2.406e-4
-1.307, 2.314e-4
-1.306, 2.252e-4
-1.305, 2.160e-4
-1.304, 2.067e-4
-1.303, 1.944e-4
-1.302, 1.851e-4
-1.301, 1.759e-4
-1.300, 1.666e-4
-1.299, 1.605e-4
-1.298, 1.512e-4
-1.297, 1.420e-4
-1.296, 1.327e-4
-1.295, 1.235e-4
-1.294, 1.173e-4
-1.293, 1.111e-4
-1.292, 1.050e-4
-1.291, 9.573e-5
-1.290, 8.648e-5
-1.289, 7.723e-5
-1.288, 7.107e-5
-1.287, 6.490e-5
-1.286, 5.873e-5
-1.285, 5.565e-5
-1.284, 4.640e-5
-1.283, 3.715e-5
-1.282, 3.099e-5
-1.281, 2.482e-5
-1.280, 1.865e-5
-1.279, 1.249e-5
-1.278, 6.322e-6
-1.277, 1.559e-7
-1.276, -6.010e-6
-1.275, -1.218e-5
-1.274, -1.834e-5
-1.273, -2.143e-5
-1.272, -2.451e-5
-1.271, -3.068e-5
-1.270, -3.684e-5
-1.269, -4.301e-5
-1.268, -4.917e-5
-1.267, -5.226e-5
-1.266, -5.534e-5
-1.265, -5.842e-5
-1.264, -6.459e-5
-1.263, -7.076e-5
-1.262, -7.692e-5
-1.261, -8.309e-5
-1.260, -8.309e-5
-1.259, -8.617e-5
-1.258, -8.925e-5
-1.257, -9.542e-5
-1.256, -9.850e-5
-1.255, -1.047e-4
-1.254, -1.078e-4
-1.253, -1.078e-4
-1.252, -1.108e-4
-1.251, -1.139e-4
-1.250, -1.201e-4
-1.249, -1.263e-4
-1.248, -1.293e-4
-1.247, -1.293e-4
-1.246, -1.324e-4
-1.245, -1.324e-4
-1.244, -1.355e-4
-1.243, -1.417e-4
-1.242, -1.448e-4
-1.241, -1.478e-4
-1.240, -1.478e-4
-1.239, -1.478e-4
-1.238, -1.509e-4
-1.237, -1.540e-4
-1.236, -1.602e-4
-1.235, -1.632e-4
-1.234, -1.632e-4
-1.233, -1.663e-4
-1.232, -1.663e-4
-1.231, -1.663e-4
-1.230, -1.725e-4
-1.229, -1.787e-4
-1.228, -1.787e-4
-1.227, -1.787e-4
-1.226, -1.787e-4
-1.225, -1.787e-4
-1.224, -1.817e-4
-1.223, -1.848e-4
-1.222, -1.879e-4
-1.221, -1.910e-4
-1.220, -1.910e-4
-1.219, -1.879e-4
-1.218, -1.879e-4
-1.217, -1.941e-4
-1.216, -1.972e-4
-1.215, -2.002e-4
-1.214, -1.972e-4
-1.213, -1.972e-4
-1.212, -1.972e-4
-1.211, -1.972e-4
-1.210, -2.033e-4
-1.209, -2.064e-4
-1.208, -2.064e-4
-1.207, -2.064e-4
-1.206, -2.064e-4
-1.205, -2.033e-4
-1.204, -2.095e-4
-1.203, -2.095e-4
-1.202, -2.126e-4
-1.201, -2.157e-4
-1.200, -2.126e-4
-1.199, -2.126e-4
-1.198, -2.126e-4
-1.197, -2.126e-4
-1.196, -2.187e-4
-1.195, -2.187e-4
-1.194, -2.187e-4
-1.193, -2.187e-4
-1.192, -2.157e-4
-1.191, -2.157e-4
-1.190, -2.218e-4
-1.189, -2.218e-4
-1.188, -2.249e-4
-1.187, -2.218e-4
-1.186, -2.218e-4
-1.185, -2.218e-4
-1.184, -2.218e-4
-1.183, -2.249e-4
-1.182, -2.280e-4
-1.181, -2.249e-4
-1.180, -2.249e-4
-1.179, -2.249e-4
-1.178, -2.249e-4
-1.177, -2.280e-4
-1.176, -2.311e-4
-1.175, -2.311e-4
-1.174, -2.280e-4
-1.173, -2.280e-4
-1.172, -2.249e-4
-1.171, -2.280e-4
-1.170, -2.311e-4
-1.169, -2.311e-4
-1.168, -2.311e-4
-1.167, -2.311e-4
-1.166, -2.280e-4
-1.165, -2.280e-4
-1.164, -2.311e-4
-1.163, -2.342e-4
-1.162, -2.342e-4
-1.161, -2.342e-4
-1.160, -2.311e-4
-1.159, -2.311e-4
-1.158, -2.311e-4
-1.157, -2.342e-4
-1.156, -2.342e-4
-1.155, -2.372e-4
-1.154, -2.342e-4
-1.153, -2.342e-4
-1.152, -2.311e-4
-1.151, -2.342e-4
-1.150, -2.342e-4
-1.149, -2.372e-4
-1.148, -2.372e-4
-1.147, -2.342e-4
-1.146, -2.342e-4
-1.145, -2.342e-4
-1.144, -2.342e-4
-1.143, -2.372e-4
-1.142, -2.403e-4
-1.141, -2.372e-4
-1.140, -2.372e-4
-1.139, -2.342e-4
-1.138, -2.342e-4
-1.137, -2.372e-4
-1.136, -2.403e-4
-1.135, -2.403e-4
-1.134, -2.403e-4
-1.133, -2.372e-4
-1.132, -2.372e-4
-1.131, -2.342e-4
-1.130, -2.372e-4
-1.129, -2.403e-4
-1.128, -2.403e-4
-1.127, -2.403e-4
-1.126, -2.372e-4
-1.125, -2.372e-4
-1.124, -2.372e-4
-1.123, -2.403e-4
-1.122, -2.434e-4
-1.121, -2.403e-4
-1.120, -2.403e-4
-1.119, -2.372e-4
-1.118, -2.372e-4
-1.117, -2.403e-4
-1.116, -2.403e-4
-1.115, -2.434e-4
-1.114, -2.403e-4
-1.113, -2.403e-4
-1.112, -2.372e-4
-1.111, -2.372e-4
-1.110, -2.403e-4
-1.109, -2.434e-4
-1.108, -2.434e-4
-1.107, -2.434e-4
-1.106, -2.403e-4
-1.105, -2.372e-4
-1.104, -2.403e-4
-1.103, -2.434e-4
-1.102, -2.434e-4
-1.101, -2.434e-4
-1.100, -2.434e-4
-1.099, -2.403e-4
-1.098, -2.372e-4
-1.097, -2.403e-4
-1.096, -2.434e-4
-1.095, -2.434e-4
-1.094, -2.434e-4
-1.093, -2.403e-4
-1.092, -2.403e-4
-1.091, -2.403e-4
-1.090, -2.434e-4
-1.089, -2.465e-4
-1.088, -2.465e-4
-1.087, -2.434e-4
-1.086, -2.403e-4
-1.085, -2.403e-4
-1.084, -2.434e-4
-1.083, -2.434e-4
-1.082, -2.465e-4
-1.081, -2.465e-4
-1.080, -2.465e-4
-1.079, -2.434e-4
-1.078, -2.434e-4
-1.077, -2.434e-4
-1.076, -2.465e-4
-1.075, -2.496e-4
-1.074, -2.465e-4
-1.073, -2.465e-4
-1.072, -2.434e-4
-1.071, -2.434e-4
-1.070, -2.465e-4
-1.069, -2.496e-4
-1.068, -2.496e-4
-1.067, -2.496e-4
-1.066, -2.434e-4
-1.065, -2.465e-4
-1.064, -2.465e-4
-1.063, -2.465e-4
-1.062, -2.496e-4
-1.061, -2.496e-4
-1.060, -2.496e-4
-1.059, -2.465e-4
-1.058, -2.465e-4
-1.057, -2.496e-4
-1.056, -2.496e-4
-1.055, -2.527e-4
-1.054, -2.527e-4
-1.053, -2.496e-4
-1.052, -2.465e-4
-1.051, -2.465e-4
-1.050, -2.496e-4
-1.049, -2.527e-4
-1.048, -2.527e-4
-1.047, -2.527e-4
-1.046, -2.496e-4
-1.045, -2.496e-4
-1.044, -2.496e-4
-1.043, -2.527e-4
-1.042, -2.557e-4
-1.041, -2.557e-4
-1.040, -2.527e-4
-1.039, -2.527e-4
-1.038, -2.527e-4
-1.037, -2.527e-4
-1.036, -2.557e-4
-1.035, -2.588e-4
-1.034, -2.557e-4
-1.033, -2.557e-4
-1.032, -2.527e-4
-1.031, -2.527e-4
-1.030, -2.557e-4
-1.029, -2.588e-4
-1.028, -2.588e-4
-1.027, -2.588e-4
-1.026, -2.557e-4
-1.025, -2.557e-4
-1.024, -2.588e-4
-1.023, -2.588e-4
-1.022, -2.619e-4
-1.021, -2.619e-4
-1.020, -2.588e-4
-1.019, -2.588e-4
-1.018, -2.588e-4
-1.017, -2.619e-4
-1.016, -2.619e-4
-1.015, -2.619e-4
-1.014, -2.619e-4
-1.013, -2.619e-4
-1.012, -2.619e-4
-1.011, -2.619e-4
-1.010, -2.650e-4
-1.009, -2.650e-4
-1.008, -2.650e-4
-1.007, -2.681e-4
-1.006, -2.650e-4
-1.005, -2.619e-4
-1.004, -2.650e-4
-1.003, -2.681e-4
-1.002, -2.681e-4
-1.001, -2.712e-4
