Potential V vs RHE, Current mA cm-2
0.013299999999999867,-0.6128529351015338
0.012299999999999978,-2.4884771764625997
0.011299999999999866,-4.0588067193127895
0.010299999999999976,-5.497568111275533
0.009299999999999864,-6.719878674358924
0.008299999999999974,-7.809206375255003
0.007299999999999862,-8.769795347863363
0.006299999999999972,-9.59740145828441
0.00529999999999986,-10.296268840417738
0.0042999999999999705,-10.949865460955383
0.0032999999999998586,-11.517164692201263
0.0022999999999999687,-12.040607873151327
0.0012999999999998568,-12.520195003805576
0.00029999999999996696,-12.913484745168056
-0.000700000000000145,-13.30535977523067
-0.0017000000000000348,-13.654793466297335
-0.0027000000000001467,-14.002812446064135
-0.0037000000000000366,-14.26028990263957
-0.0047000000000001485,-14.486643710617974
-0.005700000000000038,-14.69885040559773
-0.00670000000000015,-14.868615761581536
-0.00770000000000004,-15.01008689156804
-0.008700000000000152,-15.179852247551842
-0.009700000000000042,-15.264734925543747
-0.010700000000000154,-15.448647394526201
-0.011700000000000044,-15.533530072518102
-0.012700000000000156,-15.660854089505953
-0.013700000000000045,-15.74573676749786
-0.014700000000000157,-15.830619445489761
-0.015700000000000047,-15.972090575476265
-0.01670000000000016,-16.056973253468165
-0.01770000000000005,-16.099414592464115
-0.01870000000000016,-16.099414592464115
-0.01970000000000005,-16.141855931460068
-0.020700000000000163,-16.141855931460068
-0.021700000000000053,-16.141855931460068
-0.022700000000000164,-16.22673860945197
-0.023700000000000054,-16.22673860945197
-0.024700000000000166,-16.269179948447924
-0.025700000000000056,-16.311621287443874
-0.026700000000000168,-16.354062626439823
-0.027700000000000058,-16.396503965435777
-0.02870000000000017,-16.396503965435777
-0.02970000000000006,-16.396503965435777
-0.03070000000000017,-16.396503965435777
-0.03170000000000006,-16.396503965435777
-0.03270000000000017,-16.396503965435777
-0.03370000000000006,-16.396503965435777
-0.034700000000000175,-16.438945304431726
-0.035700000000000065,-16.438945304431726
-0.03670000000000018,-16.495533756426326
-0.03770000000000007,-16.53797509542228
-0.03870000000000018,-16.53797509542228
-0.03970000000000007,-16.580416434418233
-0.04070000000000018,-16.580416434418233
-0.04170000000000007,-16.53797509542228
-0.04270000000000018,-16.53797509542228
-0.04370000000000007,-16.53797509542228
-0.044700000000000184,-16.495533756426326
-0.045700000000000074,-16.495533756426326
-0.046700000000000186,-16.53797509542228
-0.047700000000000076,-16.53797509542228
-0.04870000000000019,-16.53797509542228
-0.04970000000000008,-16.580416434418233
-0.05070000000000019,-16.622857773414182
-0.05170000000000008,-16.622857773414182
-0.05270000000000019,-16.580416434418233
-0.05370000000000008,-16.580416434418233
-0.05470000000000019,-16.53797509542228
-0.05570000000000008,-16.53797509542228
-0.056700000000000195,-16.53797509542228
-0.057700000000000085,-16.53797509542228
-0.058700000000000196,-16.53797509542228
-0.059700000000000086,-16.580416434418233
-0.0607000000000002,-16.665299112410132
-0.06170000000000009,-16.70774045140608
-0.0627000000000002,-16.70774045140608
-0.06370000000000009,-16.622857773414182
-0.0647000000000002,-16.622857773414182
-0.06570000000000009,-16.622857773414182
-0.0667000000000002,-16.580416434418233
-0.0677000000000001,-16.580416434418233
-0.0687000000000002,-16.53797509542228
-0.0697000000000001,-16.580416434418233
-0.07070000000000021,-16.580416434418233
-0.0717000000000001,-16.580416434418233
-0.07270000000000021,-16.622857773414182
-0.0737000000000001,-16.622857773414182
-0.07470000000000021,-16.665299112410132
-0.0757000000000001,-16.622857773414182
-0.07670000000000021,-16.622857773414182
-0.0777000000000001,-16.580416434418233
-0.07870000000000021,-16.580416434418233
-0.0797000000000001,-16.580416434418233
-0.08070000000000022,-16.580416434418233
-0.0817000000000001,-16.622857773414182
-0.08270000000000022,-16.622857773414182
-0.08370000000000011,-16.665299112410132
-0.08470000000000022,-16.665299112410132
-0.08570000000000011,-16.70774045140608
-0.08670000000000022,-16.70774045140608
-0.08770000000000011,-16.70774045140608
-0.08870000000000022,-16.665299112410132
-0.08970000000000011,-16.665299112410132
-0.09070000000000022,-16.665299112410132
-0.09170000000000011,-16.665299112410132
-0.09270000000000023,-16.622857773414182
-0.09370000000000012,-16.665299112410132
-0.09470000000000023,-16.665299112410132
-0.09570000000000012,-16.70774045140608
-0.09670000000000023,-16.750181790402035
-0.09770000000000012,-16.792623129397985
-0.09870000000000023,-16.792623129397985
-0.09970000000000012,-16.792623129397985
-0.10070000000000023,-16.792623129397985
-0.10170000000000012,-16.750181790402035
-0.10270000000000024,-16.70774045140608
-0.10370000000000013,-16.70774045140608
-0.10470000000000024,-16.70774045140608
-0.10570000000000013,-16.750181790402035
-0.10670000000000024,-16.750181790402035
-0.10770000000000013,-16.792623129397985
-0.10870000000000024,-16.792623129397985
-0.10970000000000013,-16.792623129397985
-0.11070000000000024,-16.792623129397985
-0.11170000000000013,-16.750181790402035
-0.11270000000000002,-16.750181790402035
-0.11370000000000013,-16.750181790402035
-0.11470000000000002,-16.750181790402035
-0.11570000000000014,-16.750181790402035
-0.11670000000000003,-16.792623129397985
-0.11770000000000014,-16.792623129397985
-0.11870000000000003,-16.877505807389888
-0.11970000000000014,-16.877505807389888
-0.12070000000000003,-16.877505807389888
-0.12170000000000014,-16.919947146385837
-0.12270000000000003,-16.877505807389888
-0.12370000000000014,-16.919947146385837
-0.12470000000000003,-16.877505807389888
-0.12570000000000014,-16.877505807389888
-0.12670000000000003,-16.877505807389888
-0.12770000000000015,-16.877505807389888
-0.12870000000000004,-16.919947146385837
-0.12970000000000015,-16.919947146385837
-0.13070000000000004,-16.962388485381787
-0.13170000000000015,-16.962388485381787
-0.13270000000000004,-17.018976937376394
-0.13370000000000015,-17.018976937376394
-0.13470000000000004,-17.018976937376394
-0.13570000000000015,-17.061418276372343
-0.13670000000000004,-17.061418276372343
-0.13770000000000016,-17.061418276372343
-0.13870000000000005,-17.061418276372343
-0.13970000000000016,-17.061418276372343
-0.14070000000000005,-17.061418276372343
-0.14170000000000016,-17.103859615368293
-0.14270000000000005,-17.146300954364243
-0.14370000000000016,-17.146300954364243
-0.14470000000000005,-17.146300954364243
-0.14570000000000016,-17.146300954364243
-0.14670000000000005,-17.146300954364243
-0.14770000000000016,-17.103859615368293
-0.14870000000000005,-17.103859615368293
-0.14970000000000017,-17.103859615368293
-0.15070000000000006,-17.146300954364243
-0.15170000000000017,-17.146300954364243
-0.15270000000000006,-17.188742293360193
-0.15370000000000017,-17.231183632356142
-0.15470000000000006,-17.2736249713521
-0.15570000000000017,-17.316066310348052
-0.15670000000000006,-17.316066310348052
-0.15770000000000017,-17.316066310348052
-0.15870000000000006,-17.316066310348052
-0.15970000000000018,-17.316066310348052
-0.16070000000000007,-17.316066310348052
-0.16170000000000018,-17.316066310348052
-0.16270000000000007,-17.358507649344002
-0.16370000000000018,-17.40094898833995
-0.16470000000000007,-17.40094898833995
-0.16570000000000018,-17.48583166633185
-0.16670000000000007,-17.48583166633185
-0.16770000000000018,-17.542420118326454
-0.16870000000000007,-17.542420118326454
-0.16970000000000018,-17.584861457322408
-0.17070000000000007,-17.584861457322408
-0.17170000000000019,-17.584861457322408
-0.17270000000000008,-17.584861457322408
-0.1737000000000002,-17.627302796318357
-0.17470000000000008,-17.627302796318357
-0.1757000000000002,-17.669744135314307
-0.17670000000000008,-17.71218547431026
-0.1777000000000002,-17.797068152302163
-0.17870000000000008,-17.797068152302163
-0.1797000000000002,-17.839509491298113
-0.18070000000000008,-17.881950830294063
-0.1817000000000002,-17.881950830294063
-0.18270000000000008,-17.881950830294063
-0.1837000000000002,-17.881950830294063
-0.1847000000000001,-17.924392169290012
-0.1857000000000002,-17.924392169290012
-0.1867000000000001,-17.966833508285966
-0.1877000000000002,-18.06586329927652
-0.1887000000000001,-18.15074597726842
-0.1897000000000002,-18.19318731626437
-0.1907000000000001,-18.27806999425627
-0.1917000000000001,-18.27806999425627
-0.19269999999999998,-18.27806999425627
-0.1937000000000001,-18.320511333252224
-0.19469999999999998,-18.27806999425627
-0.1957000000000001,-18.320511333252224
-0.19669999999999999,-18.320511333252224
-0.1977000000000001,-18.40539401124413
-0.1987,-18.40539401124413
-0.1997000000000001,-18.49027668923603
-0.2007,-18.53271802823198
-0.2017000000000001,-18.631747819222536
-0.2027,-18.674189158218486
-0.2037000000000001,-18.716630497214435
-0.2047,-18.80151317520634
-0.2057000000000001,-18.80151317520634
-0.2067,-18.843954514202288
-0.2077000000000001,-18.88639585319824
-0.2087,-18.97127853119014
-0.2097000000000001,-19.056161209182044
-0.2107,-19.112749661176647
-0.2117000000000001,-19.197632339168546
-0.2127,-19.28251501716045
-0.2137000000000001,-19.367397695152352
-0.2147,-19.452280373144255
-0.2157000000000001,-19.537163051136158
-0.2167,-19.579604390132108
-0.21770000000000012,-19.636192842126707
-0.2187,-19.636192842126707
-0.21970000000000012,-19.721075520118614
-0.2207,-19.763516859114564
-0.22170000000000012,-19.848399537106463
-0.2227,-19.97572355409432
-0.22370000000000012,-20.06060623208622
-0.2247,-20.159636023076775
-0.22570000000000012,-20.244518701068674
-0.2267,-20.329401379060574
-0.22770000000000012,-20.414284057052477
-0.22870000000000001,-20.499166735044383
-0.22970000000000013,-20.584049413036283
-0.23070000000000002,-20.683079204026836
-0.23170000000000013,-20.76796188201874
-0.23270000000000002,-20.85284456001064
-0.23370000000000013,-20.980168576998494
-0.23470000000000002,-21.065051254990397
-0.23570000000000013,-21.2065223849769
-0.23670000000000002,-21.333846401964752
-0.2376999999999999,-21.461170418952605
-0.23870000000000002,-21.58849443594046
-0.2396999999999999,-21.63093577493641
-0.24070000000000003,-21.772406904922917
-0.24169999999999991,-21.857289582914817
-0.24270000000000003,-21.98461359990267
-0.24369999999999992,-22.111937616890522
-0.24470000000000003,-22.295850085872978
-0.24569999999999992,-22.42317410286083
-0.24670000000000003,-22.592939458844636
-0.24769999999999992,-22.776851927827092
-0.24870000000000003,-22.946617283810895
-0.24969999999999992,-23.073941300798747
-0.25070000000000003,-23.24370665678255
-0.2516999999999999,-23.427619125765005
-0.25270000000000004,-23.55494314275286
-0.2536999999999999,-23.639825820744765
-0.25470000000000004,-23.823738289727217
-0.2556999999999999,-23.993503645711023
-0.25670000000000004,-24.16326900169483
-0.25769999999999993,-24.34718147067728
-0.25870000000000004,-24.559388165657033
-0.25969999999999993,-24.771594860636792
-0.26070000000000004,-24.95550732961925
-0.26169999999999993,-25.167714024599
-0.26270000000000004,-25.337479380582806
-0.26369999999999993,-25.521391849565262
-0.26470000000000005,-25.73359854454502
-0.26569999999999994,-25.959952352523427
-0.26670000000000005,-26.17215904750318
-0.26769999999999994,-26.440954194477534
-0.26870000000000005,-26.69560222845324
-0.26969999999999994,-26.907808923433
-0.27070000000000005,-27.219045409403304
-0.27169999999999994,-27.43125210438306
-0.27270000000000005,-27.700047251357418
-0.27369999999999994,-28.011283737327723
-0.27470000000000006,-28.22349043230748
-0.27569999999999995,-28.478138466283188
-0.27670000000000006,-28.662050935265643
-0.27769999999999995,-28.959140308237306
-0.27870000000000006,-29.18549411621571
-0.27969999999999995,-29.482583489187363
-0.28070000000000006,-29.793819975157668
-0.28169999999999995,-30.10505646112798
-0.28270000000000006,-30.402145834099635
-0.28369999999999995,-30.71338232006995
-0.28470000000000006,-31.010471693041605
-0.28569999999999995,-31.321708179011907
-0.28670000000000007,-31.717827342974125
-0.28769999999999996,-32.01491671594578
-0.28870000000000007,-32.41103587990799
-0.28969999999999996,-32.764713704874254
-0.29070000000000007,-33.14668575583781
-0.29169999999999996,-33.50036358080407
-0.29270000000000007,-33.89648274476628
-0.29369999999999996,-34.236013456733886
-0.2947000000000001,-34.632132620696105
-0.29569999999999996,-34.98581044566235
-0.2967000000000001,-35.38192960962457
-0.29769999999999996,-35.763901660588125
-0.2987000000000001,-36.11757948555439
-0.29969999999999997,-36.5136986495166
-0.3007000000000001,-36.8532293614842
-0.30169999999999997,-37.249348525446415
-0.3027000000000001,-37.687909028404576
-0.30369999999999997,-38.12646953136274
-0.3047000000000001,-38.607471373316855
-0.30569999999999997,-39.08847321527096
-0.3067000000000001,-39.51288660523048
-0.3077,-40.03632978618054
-0.3087000000000001,-40.4748902891387
-0.3097,-40.99833347008877
-0.3107000000000001,-41.47933531204288
-0.3117,-42.00277849299294
-0.3127000000000001,-42.526221673943
-0.3137,-43.007223515897124
-0.3147000000000001,-43.53066669684718
-0.3157,-44.054109877797245
-0.3167000000000001,-44.577553058747306
-0.3177,-45.143437578693316
-0.3187000000000001,-45.666880759643384
-0.3197,-46.2327652795894
-0.3207000000000001,-46.79864979953541
-0.3217,-47.36453431948143
-0.3227000000000001,-47.93041883942744
-0.3237,-48.51045047237211
-0.3247000000000001,-49.076334992318124
-0.3257,-49.68466085126009
-0.3267000000000001,-50.29298671020206
-0.3277,-50.90131256914402
-0.3287000000000001,-51.55207976708194
-0.3297,-52.2169940780185
-0.3307000000000001,-52.82531993696047
-0.3317,-53.476087134898386
-0.3327000000000001,-54.1268543328363
-0.3337,-54.791768643772876
-0.3347000000000001,-55.484977180706736
-0.3357,-56.13574437864466
-0.3367000000000001,-56.82895291557852
-0.3377,-57.53630856551105
-0.3387000000000001,-58.22951710244491
-0.3397,-58.97931409137338
-0.3407000000000001,-59.7149639673032
-0.3417,-60.45061384323302
-0.3427000000000001,-61.20041083216149
-0.3437,-61.936060708091304
-0.3447000000000001,-62.64341635802381
-0.3457,-63.37906623395363
-0.3467000000000001,-64.11471610988345
-0.3477,-64.90695443780788
-0.3487000000000001,-65.64260431373769
-0.3497,-66.43484264166212
-0.3507000000000001,-67.25537519558385
-0.3517,-68.0900548625042
-0.3527000000000001,-68.91058741642594
-0.3537,-69.74526708334632
-0.3547000000000001,-70.62238808926263
-0.3557,-71.52780332117625
-0.35670000000000013,-72.40492432709259
-0.3577,-73.23960399401295
-0.35870000000000013,-74.06013654793468
-0.3597,-74.89481621485504
-0.36070000000000013,-75.77193722077136
-0.3617,-76.63491111368903
-0.3626999999999999,-77.51203211960537
-0.3637,-78.43159446451764
-0.3646999999999999,-79.2945683574353
-0.3657,-80.25657204134353
-0.3666999999999999,-81.1761343862558
-0.3677,-82.09569673116808
-0.3686999999999999,-83.04355330207765
-0.36970000000000003,-84.00555698598588
-0.3706999999999999,-85.01000200889004
-0.37170000000000003,-85.97200569279828
-0.3726999999999999,-86.93400937670651
-0.37370000000000003,-87.85357172161878
-0.3746999999999999,-88.80142829252836
-0.37570000000000003,-89.76343197643658
-0.3766999999999999,-90.85275967733266
-0.37770000000000004,-91.94208737822873
-0.3786999999999999,-93.08800353111941
-0.37970000000000004,-94.17733123201549
-0.3806999999999999,-95.18177625491967
-0.38170000000000004,-96.0871914868333
-0.38269999999999993,-97.04919517074151
-0.38370000000000004,-98.01119885464975
-0.38469999999999993,-99.05808521654988
-0.38570000000000004,-100.10497157844999
-0.38669999999999993,-99.70885241448778
-0.38570000000000004,-97.00675383174556
-0.38469999999999993,-94.70077441296557
-0.38370000000000004,-92.6918843671572
-0.38269999999999993,-90.89520101632861
-0.38170000000000004,-89.23998879548651
-0.3806999999999999,-87.71210059163228
-0.37970000000000004,-86.28324217876859
-0.3786999999999999,-84.92511933089816
-0.37770000000000004,-83.66602627401826
-0.3766999999999999,-82.39278610413973
-0.37570000000000003,-81.26101706424771
-0.3746999999999999,-80.12924802435568
-0.37370000000000003,-79.0399203234596
-0.3726999999999999,-77.90815128356756
-0.37170000000000003,-76.81882358267148
-0.3706999999999999,-75.77193722077136
-0.36970000000000003,-74.62602106788069
-0.3686999999999999,-73.53669336698461
-0.3677,-72.40492432709259
-0.3666999999999999,-71.27315528720055
-0.3657,-70.26871026429637
-0.3646999999999999,-69.26426524139221
-0.3637,-68.25982021848802
-0.3626999999999999,-67.2978165345798
-0.3617,-66.25093017267966
-0.36070000000000013,-65.2464851497755
-0.3597,-64.25618723986996
-0.35870000000000013,-63.20930087796983
-0.3577,-62.24729719406162
-0.35670000000000013,-61.242852171157445
-0.3557,-60.23840714825326
-0.3547000000000001,-59.23396212534908
-0.3537,-58.27195844144086
-0.3527000000000001,-57.352396096528594
-0.3517,-56.44698086461496
-0.3507000000000001,-55.527418519702685
-0.3497,-54.65029751378637
-0.3487000000000001,-53.74488228187274
-0.3477,-52.82531993696047
-0.3467000000000001,-51.90575759204819
-0.3457,-50.943753908139975
-0.3447000000000001,-50.024191563227696
-0.3437,-49.118776331314066
-0.3427000000000001,-48.156772647405845
-0.3417,-47.27965164148953
-0.3407000000000001,-46.501560426563756
-0.3397,-45.75176343763528
-0.3387000000000001,-44.93123088371356
-0.3377,-44.054109877797245
-0.3367000000000001,-43.134547532884966
-0.3357,-42.229132300971344
-0.3347000000000001,-41.352011295055014
-0.3337,-40.4748902891387
-0.3327000000000001,-39.654357735216976
-0.3317,-38.777236729300654
-0.3307000000000001,-37.99914551437489
-0.3297,-37.164465847454515
-0.3287000000000001,-36.37222751953009
-0.3277,-35.636577643600276
-0.3267000000000001,-34.8018979766799
-0.3257,-34.06624810075008
-0.3247000000000001,-33.288156885824314
-0.3237,-32.49591855789989
-0.3227000000000001,-31.717827342974125
-0.3217,-30.925589015049702
-0.3207000000000001,-30.189939139119886
-0.3197,-29.440142150191413
-0.3187000000000001,-28.704492274261593
-0.3177,-28.011283737327723
-0.3167000000000001,-27.303928087395207
-0.3157,-26.61071955046134
-0.3147000000000001,-25.91751101352747
-0.3137,-25.210155363594954
-0.3127000000000001,-24.516946826661083
-0.3117,-23.823738289727217
-0.3107000000000001,-23.073941300798747
-0.3097,-22.38073276386488
-0.3087000000000001,-21.67337711393236
-0.3077,-20.980168576998494
-0.3067000000000001,-20.371842718056527
-0.30569999999999997,-19.763516859114564
-0.3047000000000001,-19.112749661176647
-0.30369999999999997,-18.49027668923603
-0.3027000000000001,-17.881950830294063
-0.30169999999999997,-17.2736249713521
-0.3007000000000001,-16.665299112410132
-0.29969999999999997,-16.056973253468165
-0.2987000000000001,-15.3920589425316
-0.29769999999999996,-14.783733083589633
-0.2967000000000001,-14.175407224647667
-0.29569999999999996,-13.610937416001518
-0.2947000000000001,-12.99978213445982
-0.29369999999999996,-12.476338953509758
-0.29270000000000007,-11.952895772559694
-0.29169999999999996,-11.385596541313816
-0.29070000000000007,-10.863568071663616
-0.28969999999999996,-10.296268840417738
-0.28870000000000007,-9.728969609171857
-0.28769999999999996,-9.205526428221793
-0.28670000000000007,-8.638227196975913
-0.28569999999999995,-8.11478401602585
-0.28470000000000006,-7.635196885371603
-0.28369999999999995,-7.111753704421539
-0.28270000000000006,-6.6760226240631075
-0.28169999999999995,-6.196435493408861
-0.28070000000000006,-5.715433651454749
-0.27969999999999995,-5.235846520800501
-0.27870000000000006,-4.800115440442069
-0.27769999999999995,-4.276672259492005
-0.27670000000000006,-3.840941179133574
-0.27569999999999995,-3.361354048479327
-0.27470000000000006,-2.924208256821031
-0.27369999999999994,-2.4446211261667834
-0.27270000000000005,-2.008890045808352
-0.27169999999999994,-1.6156003044458718
-0.27070000000000005,-1.1798692240874404
-0.26969999999999994,-0.8308599464107361
-0.26870000000000005,-0.4384190318281749
