Mar. 5, 2025   23:26:52
Cyclic Voltammetry
File: c:/users/guazh/data/banditlqround7_x0exp169_r20_3/2025-03-03-exp882\exp882-2025-03-05t23_20_57-arkoh\exp882_cv_sr_100mvs_efin_-1400mv.bin
Data Source:  Experiment
Instrument Model:  CHI760E
Header: CV ran at 100 mVs
Note: 

Init E (V) = -1
High E (V) = -1
Low E (V) = -1.4
Final E (V) = -1
Init P/N = N
Scan Rate (V/s) = 0.1
Segment = 3
Sample Interval (V) = 0.001
Quiet Time (sec) = 2
Sensitivity (A/V) = 0.01
Comp R (ohm) = 1.3

Results:

Channel 1:
Segment 1:

Segment 2:

Segment 3:

Potential/V, Current/A

-1.000, 4.530e-5
-1.001, 1.135e-4
-1.002, 1.408e-4
-1.003, 1.575e-4
-1.004, 1.622e-4
-1.005, 1.672e-4
-1.006, 1.699e-4
-1.007, 1.698e-4
-1.008, 1.735e-4
-1.009, 1.716e-4
-1.010, 1.738e-4
-1.011, 1.750e-4
-1.012, 1.742e-4
-1.013, 1.765e-4
-1.014, 1.746e-4
-1.015, 1.765e-4
-1.016, 1.769e-4
-1.017, 1.758e-4
-1.018, 1.785e-4
-1.019, 1.759e-4
-1.020, 1.778e-4
-1.021, 1.779e-4
-1.022, 1.767e-4
-1.023, 1.795e-4
-1.024, 1.778e-4
-1.025, 1.792e-4
-1.026, 1.796e-4
-1.027, 1.771e-4
-1.028, 1.806e-4
-1.029, 1.775e-4
-1.030, 1.790e-4
-1.031, 1.797e-4
-1.032, 1.775e-4
-1.033, 1.804e-4
-1.034, 1.783e-4
-1.035, 1.793e-4
-1.036, 1.800e-4
-1.037, 1.778e-4
-1.038, 1.808e-4
-1.039, 1.782e-4
-1.040, 1.796e-4
-1.041, 1.801e-4
-1.042, 1.782e-4
-1.043, 1.811e-4
-1.044, 1.789e-4
-1.045, 1.792e-4
-1.046, 1.799e-4
-1.047, 1.787e-4
-1.048, 1.809e-4
-1.049, 1.786e-4
-1.050, 1.801e-4
-1.051, 1.799e-4
-1.052, 1.791e-4
-1.053, 1.809e-4
-1.054, 1.787e-4
-1.055, 1.806e-4
-1.056, 1.800e-4
-1.057, 1.780e-4
-1.058, 1.814e-4
-1.059, 1.785e-4
-1.060, 1.804e-4
-1.061, 1.805e-4
-1.062, 1.786e-4
-1.063, 1.819e-4
-1.064, 1.784e-4
-1.065, 1.800e-4
-1.066, 1.809e-4
-1.067, 1.781e-4
-1.068, 1.817e-4
-1.069, 1.783e-4
-1.070, 1.801e-4
-1.071, 1.811e-4
-1.072, 1.784e-4
-1.073, 1.821e-4
-1.074, 1.793e-4
-1.075, 1.813e-4
-1.076, 1.819e-4
-1.077, 1.790e-4
-1.078, 1.819e-4
-1.079, 1.796e-4
-1.080, 1.807e-4
-1.081, 1.813e-4
-1.082, 1.790e-4
-1.083, 1.820e-4
-1.084, 1.798e-4
-1.085, 1.808e-4
-1.086, 1.816e-4
-1.087, 1.795e-4
-1.088, 1.824e-4
-1.089, 1.798e-4
-1.090, 1.816e-4
-1.091, 1.815e-4
-1.092, 1.800e-4
-1.093, 1.827e-4
-1.094, 1.799e-4
-1.095, 1.821e-4
-1.096, 1.823e-4
-1.097, 1.806e-4
-1.098, 1.835e-4
-1.099, 1.805e-4
-1.100, 1.828e-4
-1.101, 1.830e-4
-1.102, 1.808e-4
-1.103, 1.842e-4
-1.104, 1.815e-4
-1.105, 1.832e-4
-1.106, 1.834e-4
-1.107, 1.815e-4
-1.108, 1.847e-4
-1.109, 1.816e-4
-1.110, 1.835e-4
-1.111, 1.842e-4
-1.112, 1.823e-4
-1.113, 1.854e-4
-1.114, 1.831e-4
-1.115, 1.845e-4
-1.116, 1.855e-4
-1.117, 1.828e-4
-1.118, 1.866e-4
-1.119, 1.845e-4
-1.120, 1.854e-4
-1.121, 1.862e-4
-1.122, 1.846e-4
-1.123, 1.876e-4
-1.124, 1.853e-4
-1.125, 1.861e-4
-1.126, 1.872e-4
-1.127, 1.864e-4
-1.128, 1.888e-4
-1.129, 1.864e-4
-1.130, 1.879e-4
-1.131, 1.887e-4
-1.132, 1.872e-4
-1.133, 1.903e-4
-1.134, 1.876e-4
-1.135, 1.902e-4
-1.136, 1.900e-4
-1.137, 1.890e-4
-1.138, 1.922e-4
-1.139, 1.897e-4
-1.140, 1.920e-4
-1.141, 1.920e-4
-1.142, 1.902e-4
-1.143, 1.943e-4
-1.144, 1.918e-4
-1.145, 1.939e-4
-1.146, 1.946e-4
-1.147, 1.928e-4
-1.148, 1.969e-4
-1.149, 1.938e-4
-1.150, 1.961e-4
-1.151, 1.973e-4
-1.152, 1.957e-4
-1.153, 1.996e-4
-1.154, 1.967e-4
-1.155, 1.989e-4
-1.156, 2.002e-4
-1.157, 1.988e-4
-1.158, 2.024e-4
-1.159, 2.006e-4
-1.160, 2.020e-4
-1.161, 2.033e-4
-1.162, 2.024e-4
-1.163, 2.060e-4
-1.164, 2.045e-4
-1.165, 2.062e-4
-1.166, 2.078e-4
-1.167, 2.066e-4
-1.168, 2.101e-4
-1.169, 2.085e-4
-1.170, 2.113e-4
-1.171, 2.125e-4
-1.172, 2.117e-4
-1.173, 2.150e-4
-1.174, 2.136e-4
-1.175, 2.167e-4
-1.176, 2.175e-4
-1.177, 2.177e-4
-1.178, 2.225e-4
-1.179, 2.198e-4
-1.180, 2.229e-4
-1.181, 2.239e-4
-1.182, 2.236e-4
-1.183, 2.284e-4
-1.184, 2.264e-4
-1.185, 2.301e-4
-1.186, 2.319e-4
-1.187, 2.309e-4
-1.188, 2.362e-4
-1.189, 2.346e-4
-1.190, 2.382e-4
-1.191, 2.408e-4
-1.192, 2.399e-4
-1.193, 2.455e-4
-1.194, 2.447e-4
-1.195, 2.477e-4
-1.196, 2.505e-4
-1.197, 2.506e-4
-1.198, 2.562e-4
-1.199, 2.558e-4
-1.200, 2.594e-4
-1.201, 2.628e-4
-1.202, 2.634e-4
-1.203, 2.690e-4
-1.204, 2.694e-4
-1.205, 2.728e-4
-1.206, 2.766e-4
-1.207, 2.780e-4
-1.208, 2.830e-4
-1.209, 2.842e-4
-1.210, 2.890e-4
-1.211, 2.917e-4
-1.212, 2.946e-4
-1.213, 3.004e-4
-1.214, 3.017e-4
-1.215, 3.067e-4
-1.216, 3.106e-4
-1.217, 3.134e-4
-1.218, 3.203e-4
-1.219, 3.218e-4
-1.220, 3.279e-4
-1.221, 3.322e-4
-1.222, 3.356e-4
-1.223, 3.431e-4
-1.224, 3.456e-4
-1.225, 3.518e-4
-1.226, 3.576e-4
-1.227, 3.609e-4
-1.228, 3.699e-4
-1.229, 3.749e-4
-1.230, 3.807e-4
-1.231, 3.871e-4
-1.232, 3.905e-4
-1.233, 3.995e-4
-1.234, 4.043e-4
-1.235, 4.118e-4
-1.236, 4.191e-4
-1.237, 4.242e-4
-1.238, 4.338e-4
-1.239, 4.394e-4
-1.240, 4.483e-4
-1.241, 4.562e-4
-1.242, 4.630e-4
-1.243, 4.738e-4
-1.244, 4.806e-4
-1.245, 4.905e-4
-1.246, 4.992e-4
-1.247, 5.075e-4
-1.248, 5.200e-4
-1.249, 5.270e-4
-1.250, 5.391e-4
-1.251, 5.496e-4
-1.252, 5.581e-4
-1.253, 5.725e-4
-1.254, 5.807e-4
-1.255, 5.939e-4
-1.256, 6.058e-4
-1.257, 6.165e-4
-1.258, 6.314e-4
-1.259, 6.405e-4
-1.260, 6.558e-4
-1.261, 6.700e-4
-1.262, 6.820e-4
-1.263, 6.991e-4
-1.264, 7.097e-4
-1.265, 7.272e-4
-1.266, 7.428e-4
-1.267, 7.559e-4
-1.268, 7.752e-4
-1.269, 7.893e-4
-1.270, 8.073e-4
-1.271, 8.257e-4
-1.272, 8.399e-4
-1.273, 8.619e-4
-1.274, 8.777e-4
-1.275, 8.968e-4
-1.276, 9.175e-4
-1.277, 9.353e-4
-1.278, 9.590e-4
-1.279, 9.751e-4
-1.280, 9.991e-4
-1.281, 1.021e-3
-1.282, 1.040e-3
-1.283, 1.066e-3
-1.284, 1.084e-3
-1.285, 1.110e-3
-1.286, 1.135e-3
-1.287, 1.155e-3
-1.288, 1.183e-3
-1.289, 1.206e-3
-1.290, 1.232e-3
-1.291, 1.257e-3
-1.292, 1.283e-3
-1.293, 1.313e-3
-1.294, 1.338e-3
-1.295, 1.368e-3
-1.296, 1.396e-3
-1.297, 1.424e-3
-1.298, 1.457e-3
-1.299, 1.482e-3
-1.300, 1.515e-3
-1.301, 1.547e-3
-1.302, 1.576e-3
-1.303, 1.612e-3
-1.304, 1.642e-3
-1.305, 1.679e-3
-1.306, 1.710e-3
-1.307, 1.742e-3
-1.308, 1.783e-3
-1.309, 1.814e-3
-1.310, 1.853e-3
-1.311, 1.887e-3
-1.312, 1.922e-3
-1.313, 1.964e-3
-1.314, 1.997e-3
-1.315, 2.039e-3
-1.316, 2.078e-3
-1.317, 2.114e-3
-1.318, 2.157e-3
-1.319, 2.195e-3
-1.320, 2.238e-3
-1.321, 2.279e-3
-1.322, 2.319e-3
-1.323, 2.366e-3
-1.324, 2.406e-3
-1.325, 2.451e-3
-1.326, 2.494e-3
-1.327, 2.539e-3
-1.328, 2.588e-3
-1.329, 2.629e-3
-1.330, 2.676e-3
-1.331, 2.726e-3
-1.332, 2.769e-3
-1.333, 2.824e-3
-1.334, 2.863e-3
-1.335, 2.912e-3
-1.336, 2.964e-3
-1.337, 3.008e-3
-1.338, 3.066e-3
-1.339, 3.112e-3
-1.340, 3.167e-3
-1.341, 3.223e-3
-1.342, 3.267e-3
-1.343, 3.325e-3
-1.344, 3.376e-3
-1.345, 3.427e-3
-1.346, 3.486e-3
-1.347, 3.533e-3
-1.348, 3.593e-3
-1.349, 3.645e-3
-1.350, 3.699e-3
-1.351, 3.762e-3
-1.352, 3.812e-3
-1.353, 3.874e-3
-1.354, 3.928e-3
-1.355, 3.985e-3
-1.356, 4.047e-3
-1.357, 4.108e-3
-1.358, 4.168e-3
-1.359, 4.221e-3
-1.360, 4.284e-3
-1.361, 4.342e-3
-1.362, 4.401e-3
-1.363, 4.467e-3
-1.364, 4.520e-3
-1.365, 4.585e-3
-1.366, 4.648e-3
-1.367, 4.703e-3
-1.368, 4.775e-3
-1.369, 4.830e-3
-1.370, 4.900e-3
-1.371, 4.959e-3
-1.372, 5.021e-3
-1.373, 5.090e-3
-1.374, 5.155e-3
-1.375, 5.230e-3
-1.376, 5.290e-3
-1.377, 5.349e-3
-1.378, 5.419e-3
-1.379, 5.484e-3
-1.380, 5.550e-3
-1.381, 5.618e-3
-1.382, 5.687e-3
-1.383, 5.751e-3
-1.384, 5.814e-3
-1.385, 5.877e-3
-1.386, 5.947e-3
-1.387, 6.015e-3
-1.388, 6.084e-3
-1.389, 6.149e-3
-1.390, 6.211e-3
-1.391, 6.288e-3
-1.392, 6.366e-3
-1.393, 6.427e-3
-1.394, 6.500e-3
-1.395, 6.565e-3
-1.396, 6.642e-3
-1.397, 6.714e-3
-1.398, 6.779e-3
-1.399, 6.844e-3
-1.400, 6.810e-3
-1.399, 6.690e-3
-1.398, 6.605e-3
-1.397, 6.534e-3
-1.396, 6.444e-3
-1.395, 6.363e-3
-1.394, 6.282e-3
-1.393, 6.193e-3
-1.392, 6.127e-3
-1.391, 6.039e-3
-1.390, 5.964e-3
-1.389, 5.882e-3
-1.388, 5.802e-3
-1.387, 5.732e-3
-1.386, 5.647e-3
-1.385, 5.573e-3
-1.384, 5.493e-3
-1.383, 5.420e-3
-1.382, 5.351e-3
-1.381, 5.279e-3
-1.380, 5.212e-3
-1.379, 5.141e-3
-1.378, 5.089e-3
-1.377, 5.022e-3
-1.376, 4.955e-3
-1.375, 4.888e-3
-1.374, 4.824e-3
-1.373, 4.754e-3
-1.372, 4.683e-3
-1.371, 4.613e-3
-1.370, 4.562e-3
-1.369, 4.493e-3
-1.368, 4.423e-3
-1.367, 4.363e-3
-1.366, 4.298e-3
-1.365, 4.235e-3
-1.364, 4.177e-3
-1.363, 4.115e-3
-1.362, 4.059e-3
-1.361, 3.998e-3
-1.360, 3.953e-3
-1.359, 3.882e-3
-1.358, 3.824e-3
-1.357, 3.767e-3
-1.356, 3.709e-3
-1.355, 3.646e-3
-1.354, 3.591e-3
-1.353, 3.531e-3
-1.352, 3.479e-3
-1.351, 3.416e-3
-1.350, 3.364e-3
-1.349, 3.315e-3
-1.348, 3.254e-3
-1.347, 3.200e-3
-1.346, 3.148e-3
-1.345, 3.093e-3
-1.344, 3.051e-3
-1.343, 2.997e-3
-1.342, 2.941e-3
-1.341, 2.889e-3
-1.340, 2.842e-3
-1.339, 2.789e-3
-1.338, 2.740e-3
-1.337, 2.693e-3
-1.336, 2.646e-3
-1.335, 2.601e-3
-1.334, 2.547e-3
-1.333, 2.502e-3
-1.332, 2.454e-3
-1.331, 2.407e-3
-1.330, 2.368e-3
-1.329, 2.321e-3
-1.328, 2.275e-3
-1.327, 2.232e-3
-1.326, 2.189e-3
-1.325, 2.148e-3
-1.324, 2.104e-3
-1.323, 2.058e-3
-1.322, 2.019e-3
-1.321, 1.976e-3
-1.320, 1.939e-3
-1.319, 1.900e-3
-1.318, 1.873e-3
-1.317, 1.828e-3
-1.316, 1.790e-3
-1.315, 1.754e-3
-1.314, 1.716e-3
-1.313, 1.678e-3
-1.312, 1.643e-3
-1.311, 1.605e-3
-1.310, 1.575e-3
-1.309, 1.535e-3
-1.308, 1.500e-3
-1.307, 1.467e-3
-1.306, 1.431e-3
-1.305, 1.401e-3
-1.304, 1.366e-3
-1.303, 1.333e-3
-1.302, 1.304e-3
-1.301, 1.268e-3
-1.300, 1.241e-3
-1.299, 1.210e-3
-1.298, 1.181e-3
-1.297, 1.155e-3
-1.296, 1.124e-3
-1.295, 1.095e-3
-1.294, 1.067e-3
-1.293, 1.039e-3
-1.292, 1.014e-3
-1.291, 9.846e-4
-1.290, 9.612e-4
-1.289, 9.345e-4
-1.288, 9.061e-4
-1.287, 8.849e-4
-1.286, 8.567e-4
-1.285, 8.344e-4
-1.284, 8.106e-4
-1.283, 7.841e-4
-1.282, 7.643e-4
-1.281, 7.385e-4
-1.280, 7.166e-4
-1.279, 6.962e-4
-1.278, 6.733e-4
-1.277, 6.550e-4
-1.276, 6.303e-4
-1.275, 6.124e-4
-1.274, 5.933e-4
-1.273, 5.717e-4
-1.272, 5.567e-4
-1.271, 5.348e-4
-1.270, 5.174e-4
-1.269, 5.000e-4
-1.268, 4.807e-4
-1.267, 4.663e-4
-1.266, 4.466e-4
-1.265, 4.304e-4
-1.264, 4.168e-4
-1.263, 4.008e-4
-1.262, 3.866e-4
-1.261, 3.692e-4
-1.260, 3.548e-4
-1.259, 3.404e-4
-1.258, 3.253e-4
-1.257, 3.118e-4
-1.256, 2.961e-4
-1.255, 2.841e-4
-1.254, 2.708e-4
-1.253, 2.572e-4
-1.252, 2.472e-4
-1.251, 2.325e-4
-1.250, 2.229e-4
-1.249, 2.111e-4
-1.248, 2.000e-4
-1.247, 1.904e-4
-1.246, 1.760e-4
-1.245, 1.679e-4
-1.244, 1.576e-4
-1.243, 1.461e-4
-1.242, 1.381e-4
-1.241, 1.262e-4
-1.240, 1.197e-4
-1.239, 1.102e-4
-1.238, 9.996e-5
-1.237, 9.406e-5
-1.236, 8.292e-5
-1.235, 7.686e-5
-1.234, 6.847e-5
-1.233, 5.926e-5
-1.232, 5.457e-5
-1.231, 4.452e-5
-1.230, 3.885e-5
-1.229, 2.987e-5
-1.228, 2.198e-5
-1.227, 1.823e-5
-1.226, 9.884e-6
-1.225, 5.168e-6
-1.224, -3.473e-7
-1.223, -7.540e-6
-1.222, -1.117e-5
-1.221, -1.891e-5
-1.220, -2.253e-5
-1.219, -2.752e-5
-1.218, -3.426e-5
-1.217, -3.702e-5
-1.216, -4.391e-5
-1.215, -4.725e-5
-1.214, -5.254e-5
-1.213, -5.744e-5
-1.212, -5.953e-5
-1.211, -6.614e-5
-1.210, -6.846e-5
-1.209, -7.276e-5
-1.208, -7.726e-5
-1.207, -7.863e-5
-1.206, -8.514e-5
-1.205, -8.632e-5
-1.204, -9.013e-5
-1.203, -9.473e-5
-1.202, -9.537e-5
-1.201, -1.017e-4
-1.200, -1.020e-4
-1.199, -1.058e-4
-1.198, -1.099e-4
-1.197, -1.095e-4
-1.196, -1.149e-4
-1.195, -1.157e-4
-1.194, -1.185e-4
-1.193, -1.226e-4
-1.192, -1.217e-4
-1.191, -1.269e-4
-1.190, -1.275e-4
-1.189, -1.295e-4
-1.188, -1.341e-4
-1.187, -1.344e-4
-1.186, -1.373e-4
-1.185, -1.372e-4
-1.184, -1.386e-4
-1.183, -1.419e-4
-1.182, -1.408e-4
-1.181, -1.451e-4
-1.180, -1.450e-4
-1.179, -1.465e-4
-1.178, -1.502e-4
-1.177, -1.490e-4
-1.176, -1.534e-4
-1.175, -1.523e-4
-1.174, -1.541e-4
-1.173, -1.559e-4
-1.172, -1.547e-4
-1.171, -1.581e-4
-1.170, -1.575e-4
-1.169, -1.592e-4
-1.168, -1.606e-4
-1.167, -1.593e-4
-1.166, -1.636e-4
-1.165, -1.622e-4
-1.164, -1.636e-4
-1.163, -1.658e-4
-1.162, -1.637e-4
-1.161, -1.678e-4
-1.160, -1.663e-4
-1.159, -1.676e-4
-1.158, -1.702e-4
-1.157, -1.684e-4
-1.156, -1.715e-4
-1.155, -1.704e-4
-1.154, -1.706e-4
-1.153, -1.733e-4
-1.152, -1.710e-4
-1.151, -1.742e-4
-1.150, -1.733e-4
-1.149, -1.739e-4
-1.148, -1.755e-4
-1.147, -1.731e-4
-1.146, -1.767e-4
-1.145, -1.758e-4
-1.144, -1.758e-4
-1.143, -1.778e-4
-1.142, -1.760e-4
-1.141, -1.787e-4
-1.140, -1.772e-4
-1.139, -1.778e-4
-1.138, -1.800e-4
-1.137, -1.782e-4
-1.136, -1.810e-4
-1.135, -1.796e-4
-1.134, -1.805e-4
-1.133, -1.815e-4
-1.132, -1.799e-4
-1.131, -1.824e-4
-1.130, -1.804e-4
-1.129, -1.820e-4
-1.128, -1.822e-4
-1.127, -1.807e-4
-1.126, -1.839e-4
-1.125, -1.813e-4
-1.124, -1.831e-4
-1.123, -1.846e-4
-1.122, -1.821e-4
-1.121, -1.845e-4
-1.120, -1.827e-4
-1.119, -1.839e-4
-1.118, -1.858e-4
-1.117, -1.828e-4
-1.116, -1.857e-4
-1.115, -1.843e-4
-1.114, -1.839e-4
-1.113, -1.867e-4
-1.112, -1.829e-4
-1.111, -1.869e-4
-1.110, -1.848e-4
-1.109, -1.851e-4
-1.108, -1.866e-4
-1.107, -1.848e-4
-1.106, -1.876e-4
-1.105, -1.865e-4
-1.104, -1.859e-4
-1.103, -1.882e-4
-1.102, -1.863e-4
-1.101, -1.886e-4
-1.100, -1.864e-4
-1.099, -1.875e-4
-1.098, -1.883e-4
-1.097, -1.867e-4
-1.096, -1.890e-4
-1.095, -1.873e-4
-1.094, -1.875e-4
-1.093, -1.893e-4
-1.092, -1.866e-4
-1.091, -1.904e-4
-1.090, -1.879e-4
-1.089, -1.894e-4
-1.088, -1.902e-4
-1.087, -1.873e-4
-1.086, -1.905e-4
-1.085, -1.888e-4
-1.084, -1.891e-4
-1.083, -1.907e-4
-1.082, -1.885e-4
-1.081, -1.911e-4
-1.080, -1.893e-4
-1.079, -1.904e-4
-1.078, -1.911e-4
-1.077, -1.890e-4
-1.076, -1.925e-4
-1.075, -1.912e-4
-1.074, -1.911e-4
-1.073, -1.930e-4
-1.072, -1.898e-4
-1.071, -1.928e-4
-1.070, -1.913e-4
-1.069, -1.918e-4
-1.068, -1.936e-4
-1.067, -1.913e-4
-1.066, -1.935e-4
-1.065, -1.923e-4
-1.064, -1.922e-4
-1.063, -1.940e-4
-1.062, -1.920e-4
-1.061, -1.951e-4
-1.060, -1.934e-4
-1.059, -1.939e-4
-1.058, -1.949e-4
-1.057, -1.929e-4
-1.056, -1.956e-4
-1.055, -1.937e-4
-1.054, -1.952e-4
-1.053, -1.958e-4
-1.052, -1.935e-4
-1.051, -1.966e-4
-1.050, -1.945e-4
-1.049, -1.958e-4
-1.048, -1.969e-4
-1.047, -1.948e-4
-1.046, -1.978e-4
-1.045, -1.959e-4
-1.044, -1.972e-4
-1.043, -1.980e-4
-1.042, -1.960e-4
-1.041, -1.989e-4
-1.040, -1.968e-4
-1.039, -1.979e-4
-1.038, -1.996e-4
-1.037, -1.974e-4
-1.036, -2.005e-4
-1.035, -1.986e-4
-1.034, -1.995e-4
-1.033, -2.015e-4
-1.032, -1.987e-4
-1.031, -2.020e-4
-1.030, -2.007e-4
-1.029, -2.013e-4
-1.028, -2.028e-4
-1.027, -2.004e-4
-1.026, -2.035e-4
-1.025, -2.018e-4
-1.024, -2.036e-4
-1.023, -2.051e-4
-1.022, -2.027e-4
-1.021, -2.060e-4
-1.020, -2.041e-4
-1.019, -2.050e-4
-1.018, -2.072e-4
-1.017, -2.049e-4
-1.016, -2.080e-4
-1.015, -2.064e-4
-1.014, -2.076e-4
-1.013, -2.092e-4
-1.012, -2.075e-4
-1.011, -2.108e-4
-1.010, -2.095e-4
-1.009, -2.106e-4
-1.008, -2.120e-4
-1.007, -2.103e-4
-1.006, -2.143e-4
-1.005, -2.122e-4
-1.004, -2.136e-4
-1.003, -2.163e-4
-1.002, -2.136e-4
-1.001, -2.180e-4
