Potential V vs RHE, Current mA cm-2
0.013299999999999867,7.543240650880375
0.012299999999999978,5.886613718738418
0.011299999999999866,4.316284175888227
0.010299999999999976,2.7898106833338523
0.009299999999999864,1.349917522331218
0.008299999999999974,-0.04582249900262853
0.007299999999999862,-1.3980177065266295
0.006299999999999972,-2.662486666345999
0.00529999999999986,-3.840941179133574
0.0042999999999999705,-5.017980980621284
0.0032999999999998586,-6.064867342521412
0.0022999999999999687,-7.111753704421539
0.0012999999999998568,-8.158640066321666
0.00029999999999996696,-9.11781432763016
-0.000700000000000145,-10.078403300238522
-0.0017000000000000348,-11.037577561547016
-0.0027000000000001467,-11.996751822855511
-0.0037000000000000366,-12.869628694872238
-0.0047000000000001485,-13.828802956180734
-0.005700000000000038,-14.741291744593681
-0.00670000000000015,-15.660854089505953
-0.00770000000000004,-16.53797509542228
-0.008700000000000152,-17.316066310348052
-0.009700000000000042,-18.15074597726842
-0.010700000000000154,-18.97127853119014
-0.011700000000000044,-19.763516859114564
-0.012700000000000156,-20.499166735044383
-0.013700000000000045,-21.248963723972853
-0.014700000000000157,-21.98461359990267
-0.015700000000000047,-22.63538079784059
-0.01670000000000016,-23.300295108777156
-0.01770000000000005,-23.86617962872317
-0.01870000000000016,-24.389622809673234
-0.01970000000000005,-24.814036199632742
-0.020700000000000163,-25.167714024599
-0.021700000000000053,-25.563833188561212
-0.022700000000000164,-25.91751101352747
-0.023700000000000054,-26.257041725495082
-0.024700000000000166,-26.568278211465387
-0.025700000000000056,-26.907808923433
-0.026700000000000168,-27.303928087395207
-0.027700000000000058,-27.742488590353368
-0.02870000000000017,-28.18104909331153
-0.02970000000000006,-28.662050935265643
-0.03070000000000017,-29.14305277721976
-0.03170000000000006,-29.708937297165768
-0.03270000000000017,-30.274821817111786
-0.03370000000000006,-30.8407063370578
-0.034700000000000175,-31.40659085700382
-0.035700000000000065,-31.972475376949827
-0.03670000000000018,-32.49591855789989
-0.03770000000000007,-33.01936173884996
-0.03870000000000018,-33.54280491980002
-0.03970000000000007,-33.98136542275818
-0.04070000000000018,-34.462367264712285
-0.04170000000000007,-34.90092776767045
-0.04270000000000018,-35.282899818634014
-0.04370000000000007,-35.679018982596226
-0.044700000000000184,-35.99025546856653
-0.045700000000000074,-36.28734484153819
-0.046700000000000186,-36.55613998851254
-0.047700000000000076,-36.725905344496354
-0.04870000000000019,-36.89567070048016
-0.04970000000000008,-37.037141830466666
-0.05070000000000019,-37.206907186450465
-0.05170000000000008,-37.376672542434264
-0.05270000000000019,-37.56058501141672
-0.05370000000000008,-37.77279170639648
-0.05470000000000019,-38.04158685337084
-0.05570000000000008,-38.253793548350586
-0.056700000000000195,-38.5650300343209
-0.057700000000000085,-38.86211940729255
-0.058700000000000196,-39.130914554266916
-0.059700000000000086,-39.42800392723857
-0.0607000000000002,-39.696799074212926
-0.06170000000000009,-40.03632978618054
-0.0627000000000002,-40.3900076111468
-0.06370000000000009,-40.743685436113054
-0.0647000000000002,-41.083216148080666
-0.06570000000000009,-41.47933531204288
-0.0667000000000002,-41.83301313700913
-0.0677000000000001,-42.229132300971344
-0.0687000000000002,-42.568663012938956
-0.0697000000000001,-42.87989949890926
-0.07070000000000021,-43.17698887188092
-0.0717000000000001,-43.44578401885527
-0.07270000000000021,-43.657990713835034
-0.0737000000000001,-43.88434452181344
-0.07470000000000021,-44.138992555789144
-0.0757000000000001,-44.3229050247716
-0.07670000000000021,-44.535111719751356
-0.0777000000000001,-44.74731841473111
-0.07870000000000021,-45.01611356170547
-0.0797000000000001,-45.27076159568118
-0.08070000000000022,-45.53955674265553
-0.0817000000000001,-45.79420477663124
-0.08270000000000022,-46.062999923605595
-0.08370000000000011,-46.3176479575813
-0.08470000000000022,-46.544001765559706
-0.08570000000000011,-46.75620846053947
-0.08670000000000022,-46.94012092952192
-0.08770000000000011,-47.10988628550572
-0.08870000000000022,-47.32209298048547
-0.08970000000000011,-47.54844678846388
-0.09070000000000022,-47.71821214444768
-0.09170000000000011,-47.93041883942744
-0.09270000000000023,-48.1992139864018
-0.09370000000000012,-48.45386202037751
-0.09470000000000023,-48.76509850634781
-0.09570000000000012,-49.118776331314066
-0.09670000000000023,-49.41586570428573
-0.09770000000000012,-49.81198486824794
-0.09870000000000023,-50.1656626932142
-0.09970000000000012,-50.50519340518181
-0.10070000000000023,-50.81642989115212
-0.10170000000000012,-51.127666377122424
-0.10270000000000024,-51.38231441109813
-0.10370000000000013,-51.65110955807249
-0.10470000000000024,-51.948198931044146
-0.10570000000000013,-52.25943541701445
-0.10670000000000024,-52.59896612898206
-0.10770000000000013,-52.91020261495237
-0.10870000000000024,-53.22143910092268
-0.10970000000000013,-53.518528473894335
-0.11070000000000024,-53.74488228187274
-0.11170000000000013,-53.999530315848446
-0.11270000000000002,-54.16929567183226
-0.11370000000000013,-54.31076680181876
-0.11470000000000002,-54.43809081880661
-0.11570000000000014,-54.56541483579447
-0.11670000000000003,-54.73518019177827
-0.11770000000000014,-54.919092660760725
-0.11870000000000003,-55.13129935574048
-0.11970000000000014,-55.357653163718886
-0.12070000000000003,-55.612301197694585
-0.12170000000000014,-55.881096344668954
-0.12270000000000003,-56.13574437864466
-0.12370000000000014,-56.36209818662306
-0.12470000000000003,-56.65918755959472
-0.12570000000000014,-56.97042404556503
-0.12670000000000003,-57.30995475753264
-0.12770000000000015,-57.66363258249889
-0.12870000000000004,-58.05975174646111
-0.12970000000000015,-58.498312249419264
-0.13070000000000004,-58.92272563937878
-0.13170000000000015,-59.27640346434504
-0.13270000000000004,-59.67252262830725
-0.13370000000000015,-60.06864179226946
-0.13470000000000004,-60.45061384323302
-0.13570000000000015,-60.84673300719523
-0.13670000000000004,-61.28529351015339
-0.13770000000000016,-61.72385401311155
-0.13870000000000005,-62.11997317707376
-0.13970000000000016,-62.459503889041365
-0.14070000000000005,-62.81318171400764
-0.14170000000000016,-63.11027108697928
-0.14270000000000005,-63.3366248949577
-0.14370000000000016,-63.54883158993744
-0.14470000000000005,-63.77518539791585
-0.14570000000000016,-64.02983343189156
-0.14670000000000005,-64.34106991786187
-0.14770000000000016,-64.72304196882543
-0.14870000000000005,-65.11916113278764
-0.14970000000000017,-65.51528029674984
-0.15070000000000006,-65.91139946071206
-0.15170000000000017,-66.25093017267966
-0.15270000000000006,-66.64704933664189
-0.15370000000000017,-67.00072716160814
-0.15470000000000006,-67.34025787357575
-0.15570000000000017,-67.693935698542
-0.15670000000000006,-68.17493754049613
-0.15770000000000017,-68.69838072144618
-0.15870000000000006,-69.22182390239624
-0.15970000000000018,-69.78770842234226
-0.16070000000000007,-70.22626892530042
-0.16170000000000018,-70.66482942825859
-0.16270000000000007,-71.0043601402262
-0.16370000000000018,-71.31559662619651
-0.16470000000000007,-71.66927445116276
-0.16570000000000018,-71.96636382413442
-0.16670000000000007,-72.32004164910067
-0.16770000000000018,-72.63127813507097
-0.16870000000000007,-72.97080884703858
-0.16970000000000018,-73.2820453330089
-0.17070000000000007,-73.57913470598055
-0.17170000000000019,-73.8479298529549
-0.17270000000000008,-74.06013654793468
-0.1737000000000002,-74.32893169490903
-0.17470000000000008,-74.66846240687663
-0.1757000000000002,-75.02214023184291
-0.17670000000000008,-75.37581805680915
-0.1777000000000002,-75.81437855976732
-0.17870000000000008,-76.19635061073087
-0.1797000000000002,-76.63491111368903
-0.18070000000000008,-77.03103027765125
-0.1817000000000002,-77.42714944161345
-0.18270000000000008,-77.76668015358106
-0.1837000000000002,-78.07791663955136
-0.1847000000000001,-78.43159446451764
-0.1857000000000002,-78.8135665154812
-0.1867000000000001,-79.25212701843935
-0.1877000000000002,-79.7755701993894
-0.1887000000000001,-80.34145471933543
-0.1897000000000002,-80.90733923928146
-0.1907000000000001,-81.43078242023151
-0.1917000000000001,-81.86934292318966
-0.19269999999999998,-82.22302074815593
-0.1937000000000001,-82.52011012112759
-0.19469999999999998,-82.78890526810196
-0.1957000000000001,-83.08599464107361
-0.19669999999999999,-83.43967246603985
-0.1977000000000001,-83.83579163000208
-0.1987,-84.23191079396429
-0.1997000000000001,-84.61388284492786
-0.2007,-85.01000200889004
-0.2017000000000001,-85.27879715586442
-0.2027,-85.57588652883607
-0.2037000000000001,-85.80224033681448
-0.2047,-86.05688837079018
-0.2057000000000001,-86.32568351776455
-0.2067,-86.66521422973216
-0.2077000000000001,-87.06133339369435
-0.2087,-87.54233523564847
-0.2097000000000001,-87.98089573860662
-0.2107,-88.46189758056073
-0.2117000000000001,-88.94289942251486
-0.2127,-89.32487147347842
-0.2137000000000001,-89.72099063744062
-0.2147,-90.11710980140283
-0.2157000000000001,-90.59811164335694
-0.2167,-90.99423080731917
-0.21770000000000012,-91.46108553627462
-0.2187,-91.94208737822873
-0.21970000000000012,-92.3806478811869
-0.2207,-92.7767670451491
-0.22170000000000012,-93.17288620911131
-0.2227,-93.51241692107894
-0.22370000000000012,-93.95097742403709
-0.2247,-94.38953792699526
-0.22570000000000012,-94.87053976894937
-0.2267,-95.43642428889537
-0.22770000000000012,-96.0871914868333
-0.22870000000000001,-96.79454713676581
-0.22970000000000013,-97.44531433470372
-0.23070000000000002,-98.09608153264163
-0.23170000000000013,-98.6195247135917
-0.23270000000000002,-99.18540923353773
-0.23370000000000013,-99.62396973649588
-0.23470000000000002,-100.06253023945405
-0.23570000000000013,-100.40206095142165
-0.23670000000000002,-100.79818011538387
-0.2376999999999999,-101.19429927934607
-0.23870000000000002,-101.59041844330828
-0.2396999999999999,-101.97239049427183
-0.24070000000000003,-102.41095099723
-0.24169999999999991,-102.80707016119221
-0.24270000000000003,-103.11830664716253
-0.24369999999999992,-103.41539602013418
-0.24470000000000003,-103.76907384510045
-0.24569999999999992,-104.12275167006669
-0.24670000000000003,-104.50472372103027
-0.24769999999999992,-104.98572556298437
-0.24870000000000003,-105.5516100829304
-0.24969999999999992,-106.15993594187235
-0.25070000000000003,-106.73996757481702
-0.2516999999999999,-107.30585209476303
-0.25270000000000004,-107.8292952757131
-0.2536999999999999,-108.2537086656726
-0.25470000000000004,-108.73471050762672
-0.2556999999999999,-109.13082967158894
-0.25670000000000004,-109.56939017454708
-0.25769999999999993,-110.05039201650122
-0.25870000000000004,-110.48895251945936
-0.25969999999999993,-110.96995436141347
-0.26070000000000004,-111.394367751373
-0.26169999999999993,-111.7904869153352
-0.26270000000000004,-112.18660607929739
-0.26369999999999993,-112.62516658225556
-0.26470000000000005,-113.06372708521374
-0.26569999999999994,-113.58717026616378
-0.26670000000000005,-114.23793746410173
-0.26769999999999994,-115.01602867902749
-0.26870000000000005,-115.80826700695191
-0.26969999999999994,-116.62879956087362
-0.27070000000000005,-117.3785965498021
-0.27169999999999994,-117.98692240874406
-0.27270000000000005,-118.55280692869007
-0.27369999999999994,-118.94892609265229
-0.27470000000000006,-119.2884568046199
-0.27569999999999995,-119.68457596858211
-0.27670000000000006,-120.12313647154028
-0.27769999999999995,-120.68902099148629
-0.27870000000000006,-121.2549055114323
-0.27969999999999995,-121.86323137037427
-0.28070000000000006,-122.48570434231489
-0.28169999999999995,-123.00914752326493
-0.28270000000000006,-123.532590704215
-0.28369999999999995,-123.99944543317046
-0.28470000000000006,-124.52288861412055
-0.28569999999999995,-125.10292024706521
-0.28670000000000007,-125.6688047670112
-0.28769999999999996,-126.40445464294103
-0.28870000000000007,-127.14010451887084
-0.28969999999999996,-127.88990150779931
-0.29070000000000007,-128.66799272272507
-0.29169999999999996,-129.27631858166706
-0.29270000000000007,-129.9412328926036
-0.29369999999999996,-130.5495587515456
-0.2947000000000001,-131.15788461048754
-0.29569999999999996,-131.76621046942952
-0.2967000000000001,-132.47356611936203
-0.29769999999999996,-133.2516573342878
-0.2987000000000001,-134.12877834020412
-0.29969999999999997,-134.94931089412586
-0.3007000000000001,-135.74154922205025
-0.30169999999999997,-136.47719909798008
-0.3027000000000001,-137.12796629591801
-0.30369999999999997,-137.75043926785864
-0.3047000000000001,-138.3587651268006
-0.30569999999999997,-138.92464964674662
-0.3067000000000001,-139.57541684468453
-0.3077,-140.325213833613
-0.3087000000000001,-141.10330504853877
-0.3097,-141.75407224647665
-0.3107000000000001,-142.4614278964092
-0.3117,-143.0273124163552
-0.3127000000000001,-143.5931969363012
-0.3137,-144.01761032626072
-0.3147000000000001,-144.30055258623375
-0.3157,-144.58349484620675
-0.3167000000000001,-145.00790823616626
-0.3177,-145.57379275611228
-0.3187000000000001,-146.1396772760583
-0.3197,-146.8470329259908
-0.3207000000000001,-147.4129174459368
-0.3217,-148.12027309586935
-0.3227000000000001,-148.82762874580186
-0.3237,-149.6764555257209
-0.3247000000000001,-150.38381117565342
-0.3257,-151.37410908555893
-0.3267000000000001,-152.22293586547795
-0.3277,-153.21323377538346
-0.3287000000000001,-154.203531685289
-0.3297,-155.19382959519453
-0.3307000000000001,-156.04265637511355
-0.3317,-157.03295428501906
-0.3327000000000001,-157.7403099349516
-0.3337,-158.5891367148706
-0.3347000000000001,-159.43796349478964
-0.3357,-160.14531914472215
-0.3367000000000001,-161.1356170546277
-0.3377,-161.9844438345467
-0.3387000000000001,-162.8332706144657
-0.3397,-163.54062626439824
-0.3407000000000001,-164.24798191433075
-0.3417,-164.67239530429026
-0.3427000000000001,-164.9553375642633
-0.3437,-165.3797509542228
-0.3447000000000001,-165.5212220842093
-0.3457,-165.94563547416882
-0.3467000000000001,-166.22857773414182
-0.3477,-166.65299112410133
-0.3487000000000001,-167.07740451406085
-0.3497,-167.6432890340068
-0.3507000000000001,-168.20917355395284
-0.3517,-168.77505807389886
-0.3527000000000001,-169.3409425938449
-0.3537,-169.9068271137909
-0.3547000000000001,-170.61418276372342
-0.3557,-171.32153841365593
-0.35670000000000013,-172.31183632356147
-0.3577,-173.302134233467
-0.35870000000000013,-174.57537440334553
-0.3597,-175.84861457322407
-0.36070000000000013,-176.98038361311612
-0.3617,-178.1121526530081
-0.3626999999999999,-179.24392169290016
-0.3637,-180.09274847281918
-0.3646999999999999,-181.08304638272472
-0.3657,-182.21481542261674
-0.3666999999999999,-183.20511333252225
-0.3677,-184.05394011244127
-0.3686999999999999,-185.0442380223468
-0.36970000000000003,-185.89306480226583
-0.3706999999999999,-186.74189158218485
-0.37170000000000003,-187.30777610213087
-0.3726999999999999,-188.01513175206335
-0.37370000000000003,-188.58101627200938
-0.3746999999999999,-189.1469007919554
-0.37570000000000003,-189.57131418191491
-0.3766999999999999,-189.99572757187443
-0.37770000000000004,-190.56161209182042
-0.3786999999999999,-191.12749661176645
-0.37970000000000004,-191.41043887173947
-0.3806999999999999,-191.83485226169896
-0.38170000000000004,-192.11779452167198
-0.38269999999999993,-192.2592656516585
-0.38370000000000004,-192.40073678164498
-0.38469999999999993,-192.683679041618
-0.38570000000000004,-192.966621301591
-0.38669999999999993,-193.3910346915505
-0.38770000000000004,-193.9569192114965
-0.38869999999999993,-194.52280373144254
-0.38970000000000005,-194.94721712140205
-0.39069999999999994,-195.51310164134807
-0.39170000000000005,-196.0789861612941
-0.39269999999999994,-196.50339955125358
-0.39370000000000005,-196.92781294121312
-0.39469999999999994,-197.49369746115914
-0.39570000000000005,-198.05958198110514
-0.39669999999999994,-198.76693763103765
-0.39770000000000005,-199.61576441095667
-0.39869999999999994,-200.6060623208622
-0.39970000000000006,-201.4548891007812
-0.40069999999999995,-202.44518701068677
-0.40170000000000006,-203.15254266061928
-0.40269999999999995,-203.85989831055176
-0.40370000000000006,-204.5672539604843
-0.40469999999999995,-205.13313848043032
-0.40570000000000006,-205.84049413036286
-0.40669999999999995,-206.40637865030885
-0.40770000000000006,-207.1137343002414
-0.40869999999999995,-207.8210899501739
-0.40970000000000006,-208.3869744701199
-0.41069999999999995,-208.8113878600794
-0.41170000000000007,-209.23580125003892
-0.41269999999999996,-209.66021463999843
-0.41370000000000007,-210.08462802995794
-0.41469999999999996,-210.36757028993094
-0.41570000000000007,-210.65051254990397
-0.41669999999999996,-210.93345480987696
-0.41770000000000007,-211.21639706985
-0.41869999999999996,-211.499339329823
-0.4197000000000001,-211.64081045980947
-0.42069999999999996,-211.782281589796
-0.4217000000000001,-211.782281589796
-0.42269999999999996,-211.782281589796
-0.4237000000000001,-211.782281589796
-0.42469999999999997,-211.782281589796
-0.4257000000000001,-211.9237527197825
-0.42669999999999997,-212.2066949797555
-0.4277000000000001,-212.34816610974204
-0.42869999999999997,-212.77257949970152
-0.4297000000000001,-213.05552175967455
-0.43069999999999997,-213.19699288966103
-0.4317000000000001,-213.47993514963403
-0.4327,-213.62140627962054
-0.4337000000000001,-213.76287740960703
-0.4347,-214.04581966958003
-0.4357000000000001,-214.32876192955305
-0.4367,-214.89464644949908
-0.4377000000000001,-215.31905983945856
-0.4387,-215.7434732294181
-0.4397000000000001,-216.1678866193776
-0.4407,-216.4508288793506
-0.4417000000000001,-216.73377113932364
-0.4427,-217.01671339929663
-0.4437000000000001,-217.01671339929663
-0.4447,-217.15818452928315
-0.4457000000000001,-217.29965565926966
-0.4467,-217.44112678925615
-0.4477000000000001,-217.58259791924263
-0.4487,-217.58259791924263
-0.4497000000000001,-217.44112678925615
-0.4507,-217.15818452928315
-0.4517000000000001,-216.73377113932364
-0.4527,-216.3093577493641
-0.4537000000000001,-216.0264154893911
-0.4547,-215.7434732294181
-0.4557000000000001,-215.6020020994316
-0.4567,-215.4605309694451
-0.4577000000000001,-215.31905983945856
-0.4587,-215.17758870947208
-0.4597000000000001,-215.17758870947208
-0.4607,-214.89464644949908
-0.4617000000000001,-214.75317531951256
-0.4627,-214.75317531951256
-0.4637000000000001,-214.75317531951256
-0.4647,-214.75317531951256
-0.4657000000000001,-214.89464644949908
-0.4667,-215.31905983945856
-0.4677000000000001,-215.7434732294181
-0.4687,-216.3093577493641
-0.4697000000000001,-216.73377113932364
-0.4707,-217.01671339929663
-0.4717000000000001,-217.29965565926966
-0.4727,-217.44112678925615
-0.4737000000000001,-217.58259791924263
-0.4747,-217.72406904922914
-0.4757000000000001,-217.86554017921566
-0.4767,-218.00701130920217
-0.4777000000000001,-218.14848243918865
-0.4787,-218.00701130920217
-0.4797000000000001,-217.86554017921566
-0.4807,-217.72406904922914
-0.48170000000000013,-217.58259791924263
-0.4827,-217.44112678925615
-0.48370000000000013,-217.29965565926966
-0.4847,-217.44112678925615
-0.48570000000000013,-217.58259791924263
-0.4867,-216.73377113932364
-0.48570000000000013,-213.76287740960703
-0.4847,-211.07492593986345
-0.48370000000000013,-208.3869744701199
-0.4827,-205.84049413036286
-0.48170000000000013,-203.29401379060576
-0.4807,-200.7475334508487
-0.4797000000000001,-198.3425242410781
-0.4787,-195.93751503130758
-0.4777000000000001,-193.6739769515235
-0.4767,-191.41043887173947
-0.4757000000000001,-189.1469007919554
-0.4747,-186.88336271217133
-0.4737000000000001,-184.47835350240078
-0.4727,-182.21481542261674
-0.4717000000000001,-180.09274847281918
-0.4707,-177.82921039303508
-0.4697000000000001,-175.84861457322407
-0.4687,-173.86801875341303
-0.4677000000000001,-171.88742293360195
-0.4667,-169.9068271137909
-0.4657000000000001,-167.92623129397984
-0.4647,-166.0871066041553
