Apr. 2, 2025   22:59:09
Cyclic Voltammetry
File: c:/users/guazh/data/banditlqround7_x0exp518_r20/2025-03-28-exp1024\exp1024-2025-04-02t22_48_51-h2koh\exp1024_cv_sr_300mvs_efin_-1500mv.bin
Data Source:  Experiment
Instrument Model:  CHI760E
Header: CV ran at 300 mVs
Note: 

Init E (V) = -1
High E (V) = -1
Low E (V) = -1.5
Final E (V) = -1
Init P/N = N
Scan Rate (V/s) = 0.3
Segment = 3
Sample Interval (V) = 0.001
Quiet Time (sec) = 2
Sensitivity (A/V) = 0.01
Comp R (ohm) = 1.7

Results:

Channel 1:
Segment 1:
Ep = -1.366V
ip = 3.445e-3A
Ah = 1.048e-3C

Segment 2:

Segment 3:

Potential/V, Current/A

-1.000, -6.072e-4
-1.001, -4.962e-4
-1.002, -3.945e-4
-1.003, -2.989e-4
-1.004, -2.095e-4
-1.005, -1.355e-4
-1.006, -7.076e-5
-1.007, -6.010e-6
-1.008, 5.873e-5
-1.009, 1.204e-4
-1.010, 1.728e-4
-1.011, 2.191e-4
-1.012, 2.653e-4
-1.013, 3.177e-4
-1.014, 3.640e-4
-1.015, 4.010e-4
-1.016, 4.349e-4
-1.017, 4.719e-4
-1.018, 5.150e-4
-1.019, 5.520e-4
-1.020, 5.829e-4
-1.021, 6.106e-4
-1.022, 6.414e-4
-1.023, 6.754e-4
-1.024, 7.031e-4
-1.025, 7.309e-4
-1.026, 7.555e-4
-1.027, 7.833e-4
-1.028, 8.172e-4
-1.029, 8.449e-4
-1.030, 8.634e-4
-1.031, 8.788e-4
-1.032, 8.973e-4
-1.033, 9.220e-4
-1.034, 9.436e-4
-1.035, 9.621e-4
-1.036, 9.806e-4
-1.037, 1.002e-3
-1.038, 1.024e-3
-1.039, 1.042e-3
-1.040, 1.055e-3
-1.041, 1.067e-3
-1.042, 1.079e-3
-1.043, 1.101e-3
-1.044, 1.125e-3
-1.045, 1.141e-3
-1.046, 1.153e-3
-1.047, 1.169e-3
-1.048, 1.187e-3
-1.049, 1.206e-3
-1.050, 1.215e-3
-1.051, 1.221e-3
-1.052, 1.236e-3
-1.053, 1.255e-3
-1.054, 1.267e-3
-1.055, 1.273e-3
-1.056, 1.280e-3
-1.057, 1.292e-3
-1.058, 1.304e-3
-1.059, 1.323e-3
-1.060, 1.332e-3
-1.061, 1.341e-3
-1.062, 1.360e-3
-1.063, 1.378e-3
-1.064, 1.388e-3
-1.065, 1.394e-3
-1.066, 1.400e-3
-1.067, 1.412e-3
-1.068, 1.431e-3
-1.069, 1.440e-3
-1.070, 1.449e-3
-1.071, 1.458e-3
-1.072, 1.465e-3
-1.073, 1.477e-3
-1.074, 1.489e-3
-1.075, 1.499e-3
-1.076, 1.511e-3
-1.077, 1.523e-3
-1.078, 1.542e-3
-1.079, 1.554e-3
-1.080, 1.557e-3
-1.081, 1.563e-3
-1.082, 1.573e-3
-1.083, 1.588e-3
-1.084, 1.600e-3
-1.085, 1.606e-3
-1.086, 1.613e-3
-1.087, 1.619e-3
-1.088, 1.631e-3
-1.089, 1.650e-3
-1.090, 1.662e-3
-1.091, 1.665e-3
-1.092, 1.674e-3
-1.093, 1.690e-3
-1.094, 1.696e-3
-1.095, 1.702e-3
-1.096, 1.717e-3
-1.097, 1.739e-3
-1.098, 1.761e-3
-1.099, 1.779e-3
-1.100, 1.795e-3
-1.101, 1.801e-3
-1.102, 1.813e-3
-1.103, 1.825e-3
-1.104, 1.835e-3
-1.105, 1.838e-3
-1.106, 1.844e-3
-1.107, 1.856e-3
-1.108, 1.865e-3
-1.109, 1.872e-3
-1.110, 1.878e-3
-1.111, 1.890e-3
-1.112, 1.912e-3
-1.113, 1.943e-3
-1.114, 1.970e-3
-1.115, 1.986e-3
-1.116, 1.989e-3
-1.117, 2.001e-3
-1.118, 2.020e-3
-1.119, 2.032e-3
-1.120, 2.044e-3
-1.121, 2.057e-3
-1.122, 2.072e-3
-1.123, 2.094e-3
-1.124, 2.109e-3
-1.125, 2.118e-3
-1.126, 2.121e-3
-1.127, 2.131e-3
-1.128, 2.149e-3
-1.129, 2.171e-3
-1.130, 2.180e-3
-1.131, 2.186e-3
-1.132, 2.201e-3
-1.133, 2.232e-3
-1.134, 2.263e-3
-1.135, 2.279e-3
-1.136, 2.272e-3
-1.137, 2.266e-3
-1.138, 2.275e-3
-1.139, 2.306e-3
-1.140, 2.349e-3
-1.141, 2.383e-3
-1.142, 2.408e-3
-1.143, 2.430e-3
-1.144, 2.430e-3
-1.145, 2.417e-3
-1.146, 2.408e-3
-1.147, 2.414e-3
-1.148, 2.433e-3
-1.149, 2.460e-3
-1.150, 2.497e-3
-1.151, 2.528e-3
-1.152, 2.553e-3
-1.153, 2.581e-3
-1.154, 2.596e-3
-1.155, 2.605e-3
-1.156, 2.615e-3
-1.157, 2.624e-3
-1.158, 2.642e-3
-1.159, 2.661e-3
-1.160, 2.676e-3
-1.161, 2.695e-3
-1.162, 2.716e-3
-1.163, 2.738e-3
-1.164, 2.760e-3
-1.165, 2.769e-3
-1.166, 2.775e-3
-1.167, 2.793e-3
-1.168, 2.818e-3
-1.169, 2.834e-3
-1.170, 2.840e-3
-1.171, 2.849e-3
-1.172, 2.855e-3
-1.173, 2.864e-3
-1.174, 2.892e-3
-1.175, 2.926e-3
-1.176, 2.951e-3
-1.177, 2.966e-3
-1.178, 2.982e-3
-1.179, 3.000e-3
-1.180, 3.009e-3
-1.181, 3.015e-3
-1.182, 3.040e-3
-1.183, 3.071e-3
-1.184, 3.096e-3
-1.185, 3.117e-3
-1.186, 3.136e-3
-1.187, 3.157e-3
-1.188, 3.167e-3
-1.189, 3.176e-3
-1.190, 3.191e-3
-1.191, 3.204e-3
-1.192, 3.228e-3
-1.193, 3.262e-3
-1.194, 3.296e-3
-1.195, 3.321e-3
-1.196, 3.333e-3
-1.197, 3.348e-3
-1.198, 3.367e-3
-1.199, 3.379e-3
-1.200, 3.385e-3
-1.201, 3.398e-3
-1.202, 3.413e-3
-1.203, 3.432e-3
-1.204, 3.456e-3
-1.205, 3.490e-3
-1.206, 3.530e-3
-1.207, 3.573e-3
-1.208, 3.614e-3
-1.209, 3.644e-3
-1.210, 3.660e-3
-1.211, 3.663e-3
-1.212, 3.669e-3
-1.213, 3.684e-3
-1.214, 3.697e-3
-1.215, 3.709e-3
-1.216, 3.734e-3
-1.217, 3.780e-3
-1.218, 3.820e-3
-1.219, 3.854e-3
-1.220, 3.879e-3
-1.221, 3.894e-3
-1.222, 3.906e-3
-1.223, 3.922e-3
-1.224, 3.943e-3
-1.225, 3.971e-3
-1.226, 4.002e-3
-1.227, 4.042e-3
-1.228, 4.098e-3
-1.229, 4.144e-3
-1.230, 4.165e-3
-1.231, 4.175e-3
-1.232, 4.187e-3
-1.233, 4.209e-3
-1.234, 4.227e-3
-1.235, 4.252e-3
-1.236, 4.292e-3
-1.237, 4.338e-3
-1.238, 4.384e-3
-1.239, 4.431e-3
-1.240, 4.474e-3
-1.241, 4.495e-3
-1.242, 4.498e-3
-1.243, 4.511e-3
-1.244, 4.548e-3
-1.245, 4.594e-3
-1.246, 4.625e-3
-1.247, 4.656e-3
-1.248, 4.693e-3
-1.249, 4.733e-3
-1.250, 4.770e-3
-1.251, 4.816e-3
-1.252, 4.868e-3
-1.253, 4.905e-3
-1.254, 4.924e-3
-1.255, 4.936e-3
-1.256, 4.961e-3
-1.257, 4.986e-3
-1.258, 5.013e-3
-1.259, 5.047e-3
-1.260, 5.084e-3
-1.261, 5.134e-3
-1.262, 5.195e-3
-1.263, 5.248e-3
-1.264, 5.278e-3
-1.265, 5.285e-3
-1.266, 5.294e-3
-1.267, 5.315e-3
-1.268, 5.343e-3
-1.269, 5.377e-3
-1.270, 5.417e-3
-1.271, 5.467e-3
-1.272, 5.528e-3
-1.273, 5.624e-3
-1.274, 5.713e-3
-1.275, 5.775e-3
-1.276, 5.803e-3
-1.277, 5.818e-3
-1.278, 5.833e-3
-1.279, 5.840e-3
-1.280, 5.867e-3
-1.281, 5.932e-3
-1.282, 5.994e-3
-1.283, 6.052e-3
-1.284, 6.111e-3
-1.285, 6.148e-3
-1.286, 6.176e-3
-1.287, 6.206e-3
-1.288, 6.240e-3
-1.289, 6.259e-3
-1.290, 6.262e-3
-1.291, 6.293e-3
-1.292, 6.342e-3
-1.293, 6.382e-3
-1.294, 6.435e-3
-1.295, 6.487e-3
-1.296, 6.518e-3
-1.297, 6.543e-3
-1.298, 6.576e-3
-1.299, 6.607e-3
-1.300, 6.623e-3
-1.301, 6.657e-3
-1.302, 6.721e-3
-1.303, 6.777e-3
-1.304, 6.829e-3
-1.305, 6.891e-3
-1.306, 6.943e-3
-1.307, 6.980e-3
-1.308, 7.011e-3
-1.309, 7.051e-3
-1.310, 7.085e-3
-1.311, 7.125e-3
-1.312, 7.181e-3
-1.313, 7.242e-3
-1.314, 7.282e-3
-1.315, 7.316e-3
-1.316, 7.347e-3
-1.317, 7.387e-3
-1.318, 7.430e-3
-1.319, 7.480e-3
-1.320, 7.532e-3
-1.321, 7.585e-3
-1.322, 7.628e-3
-1.323, 7.665e-3
-1.324, 7.696e-3
-1.325, 7.717e-3
-1.326, 7.730e-3
-1.327, 7.760e-3
-1.328, 7.819e-3
-1.329, 7.878e-3
-1.330, 7.918e-3
-1.331, 7.945e-3
-1.332, 7.970e-3
-1.333, 8.004e-3
-1.334, 8.041e-3
-1.335, 8.075e-3
-1.336, 8.093e-3
-1.337, 8.096e-3
-1.338, 8.136e-3
-1.339, 8.220e-3
-1.340, 8.312e-3
-1.341, 8.355e-3
-1.342, 8.346e-3
-1.343, 8.352e-3
-1.344, 8.343e-3
-1.345, 8.346e-3
-1.346, 8.383e-3
-1.347, 8.491e-3
-1.348, 8.624e-3
-1.349, 8.685e-3
-1.350, 8.682e-3
-1.351, 8.642e-3
-1.352, 8.571e-3
-1.353, 8.510e-3
-1.354, 8.494e-3
-1.355, 8.506e-3
-1.356, 8.540e-3
-1.357, 8.599e-3
-1.358, 8.642e-3
-1.359, 8.682e-3
-1.360, 8.725e-3
-1.361, 8.753e-3
-1.362, 8.765e-3
-1.363, 8.769e-3
-1.364, 8.772e-3
-1.365, 8.790e-3
-1.366, 8.802e-3
-1.367, 8.796e-3
-1.368, 8.762e-3
-1.369, 8.679e-3
-1.370, 8.568e-3
-1.371, 8.476e-3
-1.372, 8.432e-3
-1.373, 8.457e-3
-1.374, 8.513e-3
-1.375, 8.553e-3
-1.376, 8.562e-3
-1.377, 8.556e-3
-1.378, 8.553e-3
-1.379, 8.540e-3
-1.380, 8.497e-3
-1.381, 8.442e-3
-1.382, 8.399e-3
-1.383, 8.365e-3
-1.384, 8.334e-3
-1.385, 8.312e-3
-1.386, 8.306e-3
-1.387, 8.309e-3
-1.388, 8.309e-3
-1.389, 8.291e-3
-1.390, 8.238e-3
-1.391, 8.170e-3
-1.392, 8.118e-3
-1.393, 8.081e-3
-1.394, 8.053e-3
-1.395, 8.025e-3
-1.396, 7.998e-3
-1.397, 7.970e-3
-1.398, 7.951e-3
-1.399, 7.936e-3
-1.400, 7.902e-3
-1.401, 7.862e-3
-1.402, 7.834e-3
-1.403, 7.810e-3
-1.404, 7.788e-3
-1.405, 7.776e-3
-1.406, 7.763e-3
-1.407, 7.745e-3
-1.408, 7.733e-3
-1.409, 7.745e-3
-1.410, 7.745e-3
-1.411, 7.717e-3
-1.412, 7.708e-3
-1.413, 7.723e-3
-1.414, 7.723e-3
-1.415, 7.693e-3
-1.416, 7.665e-3
-1.417, 7.659e-3
-1.418, 7.634e-3
-1.419, 7.612e-3
-1.420, 7.615e-3
-1.421, 7.628e-3
-1.422, 7.637e-3
-1.423, 7.646e-3
-1.424, 7.665e-3
-1.425, 7.674e-3
-1.426, 7.677e-3
-1.427, 7.689e-3
-1.428, 7.708e-3
-1.429, 7.714e-3
-1.430, 7.714e-3
-1.431, 7.720e-3
-1.432, 7.726e-3
-1.433, 7.723e-3
-1.434, 7.726e-3
-1.435, 7.742e-3
-1.436, 7.763e-3
-1.437, 7.791e-3
-1.438, 7.828e-3
-1.439, 7.862e-3
-1.440, 7.878e-3
-1.441, 7.878e-3
-1.442, 7.887e-3
-1.443, 7.921e-3
-1.444, 7.955e-3
-1.445, 7.976e-3
-1.446, 8.029e-3
-1.447, 8.093e-3
-1.448, 8.140e-3
-1.449, 8.155e-3
-1.450, 8.158e-3
-1.451, 8.186e-3
-1.452, 8.257e-3
-1.453, 8.343e-3
-1.454, 8.426e-3
-1.455, 8.491e-3
-1.456, 8.534e-3
-1.457, 8.571e-3
-1.458, 8.599e-3
-1.459, 8.614e-3
-1.460, 8.621e-3
-1.461, 8.639e-3
-1.462, 8.688e-3
-1.463, 8.756e-3
-1.464, 8.818e-3
-1.465, 8.886e-3
-1.466, 8.944e-3
-1.467, 8.991e-3
-1.468, 9.034e-3
-1.469, 9.089e-3
-1.470, 9.148e-3
-1.471, 9.203e-3
-1.472, 9.268e-3
-1.473, 9.327e-3
-1.474, 9.373e-3
-1.475, 9.410e-3
-1.476, 9.468e-3
-1.477, 9.539e-3
-1.478, 9.613e-3
-1.479, 9.690e-3
-1.480, 9.771e-3
-1.481, 9.845e-3
-1.482, 9.906e-3
-1.483, 9.959e-3
-1.484, 1.001e-2
-1.485, 1.007e-2
-1.486, 1.014e-2
-1.487, 1.021e-2
-1.488, 1.029e-2
-1.489, 1.038e-2
-1.490, 1.044e-2
-1.491, 1.050e-2
-1.492, 1.058e-2
-1.493, 1.066e-2
-1.494, 1.071e-2
-1.495, 1.077e-2
-1.496, 1.083e-2
-1.497, 1.088e-2
-1.498, 1.094e-2
-1.499, 1.101e-2
-1.500, 1.100e-2
-1.499, 1.083e-2
-1.498, 1.070e-2
-1.497, 1.061e-2
-1.496, 1.051e-2
-1.495, 1.039e-2
-1.494, 1.028e-2
-1.493, 1.018e-2
-1.492, 1.009e-2
-1.491, 9.996e-3
-1.490, 9.912e-3
-1.489, 9.835e-3
-1.488, 9.746e-3
-1.487, 9.656e-3
-1.486, 9.570e-3
-1.485, 9.462e-3
-1.484, 9.339e-3
-1.483, 9.228e-3
-1.482, 9.120e-3
-1.481, 9.021e-3
-1.480, 8.926e-3
-1.479, 8.846e-3
-1.478, 8.778e-3
-1.477, 8.695e-3
-1.476, 8.596e-3
-1.475, 8.488e-3
-1.474, 8.377e-3
-1.473, 8.269e-3
-1.472, 8.192e-3
-1.471, 8.124e-3
-1.470, 8.072e-3
-1.469, 8.029e-3
-1.468, 7.979e-3
-1.467, 7.918e-3
-1.466, 7.819e-3
-1.465, 7.705e-3
-1.464, 7.600e-3
-1.463, 7.517e-3
-1.462, 7.464e-3
-1.461, 7.415e-3
-1.460, 7.350e-3
-1.459, 7.270e-3
-1.458, 7.181e-3
-1.457, 7.091e-3
-1.456, 6.996e-3
-1.455, 6.894e-3
-1.454, 6.814e-3
-1.453, 6.724e-3
-1.452, 6.641e-3
-1.451, 6.583e-3
-1.450, 6.521e-3
-1.449, 6.456e-3
-1.448, 6.385e-3
-1.447, 6.324e-3
-1.446, 6.259e-3
-1.445, 6.173e-3
-1.444, 6.068e-3
-1.443, 5.978e-3
-1.442, 5.914e-3
-1.441, 5.861e-3
-1.440, 5.815e-3
-1.439, 5.759e-3
-1.438, 5.688e-3
-1.437, 5.593e-3
-1.436, 5.500e-3
-1.435, 5.411e-3
-1.434, 5.328e-3
-1.433, 5.272e-3
-1.432, 5.241e-3
-1.431, 5.198e-3
-1.430, 5.127e-3
-1.429, 5.044e-3
-1.428, 4.973e-3
-1.427, 4.905e-3
-1.426, 4.844e-3
-1.425, 4.770e-3
-1.424, 4.696e-3
-1.423, 4.637e-3
-1.422, 4.600e-3
-1.421, 4.557e-3
-1.420, 4.492e-3
-1.419, 4.415e-3
-1.418, 4.335e-3
-1.417, 4.267e-3
-1.416, 4.206e-3
-1.415, 4.153e-3
-1.414, 4.095e-3
-1.413, 4.042e-3
-1.412, 3.996e-3
-1.411, 3.940e-3
-1.410, 3.873e-3
-1.409, 3.799e-3
-1.408, 3.734e-3
-1.407, 3.669e-3
-1.406, 3.604e-3
-1.405, 3.543e-3
-1.404, 3.490e-3
-1.403, 3.447e-3
-1.402, 3.407e-3
-1.401, 3.361e-3
-1.400, 3.302e-3
-1.399, 3.231e-3
-1.398, 3.160e-3
-1.397, 3.096e-3
-1.396, 3.037e-3
-1.395, 2.985e-3
-1.394, 2.941e-3
-1.393, 2.895e-3
-1.392, 2.849e-3
-1.391, 2.800e-3
-1.390, 2.741e-3
-1.389, 2.682e-3
-1.388, 2.636e-3
-1.387, 2.596e-3
-1.386, 2.553e-3
-1.385, 2.510e-3
-1.384, 2.464e-3
-1.383, 2.411e-3
-1.382, 2.359e-3
-1.381, 2.303e-3
-1.380, 2.251e-3
-1.379, 2.205e-3
-1.378, 2.161e-3
-1.377, 2.124e-3
-1.376, 2.081e-3
-1.375, 2.032e-3
-1.374, 1.986e-3
-1.373, 1.943e-3
-1.372, 1.906e-3
-1.371, 1.862e-3
-1.370, 1.816e-3
-1.369, 1.770e-3
-1.368, 1.730e-3
-1.367, 1.693e-3
-1.366, 1.653e-3
-1.365, 1.613e-3
-1.364, 1.569e-3
-1.363, 1.529e-3
-1.362, 1.492e-3
-1.361, 1.455e-3
-1.360, 1.415e-3
-1.359, 1.372e-3
-1.358, 1.332e-3
-1.357, 1.298e-3
-1.356, 1.264e-3
-1.355, 1.221e-3
-1.354, 1.187e-3
-1.353, 1.153e-3
-1.352, 1.122e-3
-1.351, 1.088e-3
-1.350, 1.048e-3
-1.349, 1.011e-3
-1.348, 9.806e-4
-1.347, 9.559e-4
-1.346, 9.251e-4
-1.345, 8.912e-4
-1.344, 8.573e-4
-1.343, 8.326e-4
-1.342, 8.079e-4
-1.341, 7.740e-4
-1.340, 7.339e-4
-1.339, 6.939e-4
-1.338, 6.661e-4
-1.337, 6.445e-4
-1.336, 6.199e-4
-1.335, 5.829e-4
-1.334, 5.489e-4
-1.333, 5.181e-4
-1.332, 4.935e-4
-1.331, 4.657e-4
-1.330, 4.318e-4
-1.329, 4.040e-4
-1.328, 3.825e-4
-1.327, 3.640e-4
-1.326, 3.455e-4
-1.325, 3.146e-4
-1.324, 2.838e-4
-1.323, 2.591e-4
-1.322, 2.376e-4
-1.321, 2.129e-4
-1.320, 1.851e-4
-1.319, 1.605e-4
-1.318, 1.389e-4
-1.317, 1.204e-4
-1.316, 9.882e-5
-1.315, 7.415e-5
-1.314, 4.640e-5
-1.313, 2.790e-5
-1.312, 1.249e-5
-1.311, -9.093e-6
-1.310, -3.376e-5
-1.309, -5.842e-5
-1.308, -7.692e-5
-1.307, -9.234e-5
-1.306, -1.108e-4
-1.305, -1.324e-4
-1.304, -1.540e-4
-1.303, -1.725e-4
-1.302, -1.848e-4
-1.301, -2.033e-4
-1.300, -2.218e-4
-1.299, -2.434e-4
-1.298, -2.588e-4
-1.297, -2.712e-4
-1.296, -2.897e-4
-1.295, -3.112e-4
-1.294, -3.297e-4
-1.293, -3.452e-4
-1.292, -3.544e-4
-1.291, -3.698e-4
-1.290, -3.852e-4
-1.289, -4.037e-4
-1.288, -4.161e-4
-1.287, -4.284e-4
-1.286, -4.469e-4
-1.285, -4.654e-4
-1.284, -4.839e-4
-1.283, -4.931e-4
-1.282, -5.024e-4
-1.281, -5.116e-4
-1.280, -5.271e-4
-1.279, -5.456e-4
-1.278, -5.548e-4
-1.277, -5.641e-4
-1.276, -5.764e-4
-1.275, -5.949e-4
-1.274, -6.103e-4
-1.273, -6.195e-4
-1.272, -6.288e-4
-1.271, -6.411e-4
-1.270, -6.565e-4
-1.269, -6.720e-4
-1.268, -6.812e-4
-1.267, -6.874e-4
-1.266, -6.966e-4
-1.265, -7.090e-4
-1.264, -7.182e-4
-1.263, -7.244e-4
-1.262, -7.305e-4
-1.261, -7.429e-4
-1.260, -7.614e-4
-1.259, -7.799e-4
-1.258, -7.891e-4
-1.257, -7.953e-4
-1.256, -8.045e-4
-1.255, -8.138e-4
-1.254, -8.261e-4
-1.253, -8.354e-4
-1.252, -8.415e-4
-1.251, -8.477e-4
-1.250, -8.631e-4
-1.249, -8.754e-4
-1.248, -8.816e-4
-1.247, -8.847e-4
-1.246, -8.878e-4
-1.245, -9.032e-4
-1.244, -9.155e-4
-1.243, -9.217e-4
-1.242, -9.279e-4
-1.241, -9.340e-4
-1.240, -9.433e-4
-1.239, -9.556e-4
-1.238, -9.587e-4
-1.237, -9.618e-4
-1.236, -9.710e-4
-1.235, -9.834e-4
-1.234, -9.957e-4
-1.233, -1.002e-3
-1.232, -1.008e-3
-1.231, -1.014e-3
-1.230, -1.023e-3
-1.229, -1.036e-3
-1.228, -1.042e-3
-1.227, -1.045e-3
-1.226, -1.054e-3
-1.225, -1.070e-3
-1.224, -1.082e-3
-1.223, -1.088e-3
-1.222, -1.088e-3
-1.221, -1.091e-3
-1.220, -1.097e-3
-1.219, -1.104e-3
-1.218, -1.113e-3
-1.217, -1.119e-3
-1.216, -1.131e-3
-1.215, -1.150e-3
-1.214, -1.162e-3
-1.213, -1.165e-3
-1.212, -1.165e-3
-1.211, -1.168e-3
-1.210, -1.181e-3
-1.209, -1.193e-3
-1.208, -1.199e-3
-1.207, -1.208e-3
-1.206, -1.218e-3
-1.205, -1.227e-3
-1.204, -1.233e-3
-1.203, -1.239e-3
-1.202, -1.242e-3
-1.201, -1.252e-3
-1.200, -1.264e-3
-1.199, -1.282e-3
-1.198, -1.282e-3
-1.197, -1.282e-3
-1.196, -1.289e-3
-1.195, -1.298e-3
-1.194, -1.307e-3
-1.193, -1.316e-3
-1.192, -1.319e-3
-1.191, -1.332e-3
-1.190, -1.353e-3
-1.189, -1.384e-3
-1.188, -1.409e-3
-1.187, -1.421e-3
-1.186, -1.418e-3
-1.185, -1.412e-3
-1.184, -1.403e-3
-1.183, -1.393e-3
-1.182, -1.400e-3
-1.181, -1.421e-3
-1.180, -1.449e-3
-1.179, -1.464e-3
-1.178, -1.470e-3
-1.177, -1.477e-3
-1.176, -1.480e-3
-1.175, -1.486e-3
-1.174, -1.489e-3
-1.173, -1.492e-3
-1.172, -1.504e-3
-1.171, -1.532e-3
-1.170, -1.566e-3
-1.169, -1.594e-3
-1.168, -1.606e-3
-1.167, -1.606e-3
-1.166, -1.606e-3
-1.165, -1.612e-3
-1.164, -1.625e-3
-1.163, -1.640e-3
-1.162, -1.665e-3
-1.161, -1.696e-3
-1.160, -1.720e-3
-1.159, -1.739e-3
-1.158, -1.745e-3
-1.157, -1.745e-3
-1.156, -1.745e-3
-1.155, -1.742e-3
-1.154, -1.751e-3
-1.153, -1.766e-3
-1.152, -1.785e-3
-1.151, -1.813e-3
-1.150, -1.850e-3
-1.149, -1.881e-3
-1.148, -1.899e-3
-1.147, -1.908e-3
-1.146, -1.914e-3
-1.145, -1.918e-3
-1.144, -1.927e-3
-1.143, -1.948e-3
-1.142, -1.973e-3
-1.141, -2.004e-3
-1.140, -2.035e-3
-1.139, -2.059e-3
-1.138, -2.072e-3
-1.137, -2.078e-3
-1.136, -2.090e-3
-1.135, -2.106e-3
-1.134, -2.121e-3
-1.133, -2.130e-3
-1.132, -2.143e-3
-1.131, -2.161e-3
-1.130, -2.186e-3
-1.129, -2.217e-3
-1.128, -2.247e-3
-1.127, -2.281e-3
-1.126, -2.318e-3
-1.125, -2.349e-3
-1.124, -2.371e-3
-1.123, -2.377e-3
-1.122, -2.389e-3
-1.121, -2.411e-3
-1.120, -2.442e-3
-1.119, -2.469e-3
-1.118, -2.488e-3
-1.117, -2.503e-3
-1.116, -2.522e-3
-1.115, -2.543e-3
-1.114, -2.562e-3
-1.113, -2.580e-3
-1.112, -2.599e-3
-1.111, -2.620e-3
-1.110, -2.648e-3
-1.109, -2.676e-3
-1.108, -2.698e-3
-1.107, -2.728e-3
-1.106, -2.765e-3
-1.105, -2.809e-3
-1.104, -2.849e-3
-1.103, -2.886e-3
-1.102, -2.910e-3
-1.101, -2.935e-3
-1.100, -2.969e-3
-1.099, -3.027e-3
-1.098, -3.086e-3
-1.097, -3.132e-3
-1.096, -3.172e-3
-1.095, -3.206e-3
-1.094, -3.225e-3
-1.093, -3.228e-3
-1.092, -3.228e-3
-1.091, -3.249e-3
-1.090, -3.302e-3
-1.089, -3.360e-3
-1.088, -3.419e-3
-1.087, -3.471e-3
-1.086, -3.508e-3
-1.085, -3.536e-3
-1.084, -3.558e-3
-1.083, -3.586e-3
-1.082, -3.629e-3
-1.081, -3.684e-3
-1.080, -3.749e-3
-1.079, -3.801e-3
-1.078, -3.832e-3
-1.077, -3.841e-3
-1.076, -3.844e-3
-1.075, -3.863e-3
-1.074, -3.894e-3
-1.073, -3.943e-3
-1.072, -3.999e-3
-1.071, -4.060e-3
-1.070, -4.116e-3
-1.069, -4.162e-3
-1.068, -4.187e-3
-1.067, -4.196e-3
-1.066, -4.211e-3
-1.065, -4.248e-3
-1.064, -4.292e-3
-1.063, -4.332e-3
-1.062, -4.372e-3
-1.061, -4.409e-3
-1.060, -4.443e-3
-1.059, -4.477e-3
-1.058, -4.507e-3
-1.057, -4.538e-3
-1.056, -4.575e-3
-1.055, -4.621e-3
-1.054, -4.674e-3
-1.053, -4.720e-3
-1.052, -4.757e-3
-1.051, -4.794e-3
-1.050, -4.846e-3
-1.049, -4.896e-3
-1.048, -4.930e-3
-1.047, -4.961e-3
-1.046, -4.988e-3
-1.045, -5.016e-3
-1.044, -5.050e-3
-1.043, -5.081e-3
-1.042, -5.124e-3
-1.041, -5.179e-3
-1.040, -5.238e-3
-1.039, -5.297e-3
-1.038, -5.331e-3
-1.037, -5.358e-3
-1.036, -5.398e-3
-1.035, -5.429e-3
-1.034, -5.451e-3
-1.033, -5.472e-3
-1.032, -5.509e-3
-1.031, -5.571e-3
-1.030, -5.630e-3
-1.029, -5.657e-3
-1.028, -5.673e-3
-1.027, -5.688e-3
-1.026, -5.710e-3
-1.025, -5.747e-3
-1.024, -5.799e-3
-1.023, -5.845e-3
-1.022, -5.889e-3
-1.021, -5.944e-3
-1.020, -5.996e-3
-1.019, -6.043e-3
-1.018, -6.077e-3
-1.017, -6.111e-3
-1.016, -6.148e-3
-1.015, -6.178e-3
-1.014, -6.212e-3
-1.013, -6.246e-3
-1.012, -6.286e-3
-1.011, -6.329e-3
-1.010, -6.373e-3
-1.009, -6.413e-3
-1.008, -6.444e-3
-1.007, -6.471e-3
-1.006, -6.499e-3
-1.005, -6.542e-3
-1.004, -6.585e-3
-1.003, -6.619e-3
-1.002, -6.647e-3
-1.001, -6.675e-3
