Potential V vs RHE, Current mA cm-2
0.013299999999999867,7.848818291651225
0.012299999999999978,6.14833530921345
0.011299999999999866,4.578005766363259
0.010299999999999976,3.0939736128048354
0.009299999999999864,1.6990682711379093
0.008299999999999974,0.3467457395969205
0.007299999999999862,-0.9181476336124089
0.006299999999999972,-2.1390434853959355
0.00529999999999986,-3.317497998183511
0.0042999999999999705,-4.450681749375406
0.0032999999999998586,-5.5414241615713475
0.0022999999999999687,-6.588310523471475
0.0012999999999998568,-7.5474847847799715
0.00029999999999996696,-8.508073757388331
-0.000700000000000145,-9.423391968401008
-0.0017000000000000348,-10.296268840417738
-0.0027000000000001467,-11.1677310011346
-0.0037000000000000366,-12.040607873151327
-0.0047000000000001485,-12.869628694872238
-0.005700000000000038,-13.698649516593148
-0.00670000000000015,-14.529085049613924
-0.00770000000000004,-15.349617603535648
-0.008700000000000152,-16.141855931460068
-0.009700000000000042,-16.835064468393938
-0.010700000000000154,-17.4433903273359
-0.011700000000000044,-18.06586329927652
-0.012700000000000156,-18.631747819222536
-0.013700000000000045,-19.155191000172596
-0.014700000000000157,-19.678634181122664
-0.015700000000000047,-20.159636023076775
-0.01670000000000016,-20.683079204026836
-0.01770000000000005,-21.2065223849769
-0.01870000000000016,-21.772406904922917
-0.01970000000000005,-22.33829142486893
-0.020700000000000163,-22.861734605818995
-0.021700000000000053,-23.427619125765005
-0.022700000000000164,-23.951062306715073
-0.023700000000000054,-24.474505487665134
-0.024700000000000166,-24.997948668615198
-0.025700000000000056,-25.43650917157336
-0.026700000000000168,-25.959952352523427
-0.027700000000000058,-26.440954194477534
-0.02870000000000017,-26.9643973754276
-0.02970000000000006,-27.487840556377662
-0.03070000000000017,-27.954695285333123
-0.03170000000000006,-28.393255788291288
-0.03270000000000017,-28.831816291249446
-0.03370000000000006,-29.22793545521166
-0.034700000000000175,-29.581613280177915
-0.035700000000000065,-29.921143992145527
-0.03670000000000018,-30.232380478115836
-0.03770000000000007,-30.529469851087494
-0.03870000000000018,-30.88314767605375
-0.03970000000000007,-31.23682550102001
-0.04070000000000018,-31.57635621298762
-0.04170000000000007,-31.930034037953877
-0.04270000000000018,-32.24127052392419
-0.04370000000000007,-32.53835989689585
-0.044700000000000184,-32.84959638286615
-0.045700000000000074,-33.14668575583781
-0.046700000000000186,-33.45792224180811
-0.047700000000000076,-33.712570275783825
-0.04870000000000019,-34.02380676175414
-0.04970000000000008,-34.278454795729836
-0.05070000000000019,-34.5472499427042
-0.05170000000000008,-34.8018979766799
-0.05270000000000019,-35.11313446265021
-0.05370000000000008,-35.46681228761647
-0.05470000000000019,-35.763901660588125
-0.05570000000000008,-36.07513814655844
-0.056700000000000195,-36.37222751953009
-0.057700000000000085,-36.64102266650445
-0.058700000000000196,-36.8532293614842
-0.059700000000000086,-37.07958316946261
-0.0607000000000002,-37.291789864442364
-0.06170000000000009,-37.56058501141672
-0.0627000000000002,-37.81523304539243
-0.06370000000000009,-38.04158685337084
-0.0647000000000002,-38.29623488734655
-0.06570000000000009,-38.607471373316855
-0.0667000000000002,-38.86211940729255
-0.0677000000000001,-39.130914554266916
-0.0687000000000002,-39.34312124924667
-0.0697000000000001,-39.56947505722508
-0.07070000000000021,-39.739240413208876
-0.0717000000000001,-39.95144710818864
-0.07270000000000021,-40.135359577171094
-0.0737000000000001,-40.3900076111468
-0.07470000000000021,-40.616361419125205
-0.0757000000000001,-40.87100945310091
-0.07670000000000021,-41.139804600075266
-0.0777000000000001,-41.39445263405098
-0.07870000000000021,-41.66324778102533
-0.0797000000000001,-41.87545447600508
-0.08070000000000022,-42.130102509980794
-0.0817000000000001,-42.3564563179592
-0.08270000000000022,-42.526221673943
-0.08370000000000011,-42.71013414292546
-0.08470000000000022,-42.87989949890926
-0.08570000000000011,-43.04966485489307
-0.08670000000000022,-43.17698887188092
-0.08770000000000011,-43.31846000186743
-0.08870000000000022,-43.48822535785123
-0.08970000000000011,-43.70043205283099
-0.09070000000000022,-43.96922719980534
-0.09170000000000011,-44.28046368577565
-0.09270000000000023,-44.619994397743255
-0.09370000000000012,-44.97367222270952
-0.09470000000000023,-45.412232725667685
-0.09570000000000012,-45.75176343763528
-0.09670000000000023,-46.147882601597495
-0.09770000000000012,-46.501560426563756
-0.09870000000000023,-46.79864979953541
-0.09970000000000012,-47.10988628550572
-0.10070000000000023,-47.36453431948143
-0.10170000000000012,-47.633329466455784
-0.10270000000000024,-47.80309482243959
-0.10370000000000013,-47.93041883942744
-0.10470000000000024,-48.029448630417996
-0.10570000000000013,-48.071889969413945
-0.10670000000000024,-48.029448630417996
-0.10770000000000013,-48.071889969413945
-0.10870000000000024,-48.071889969413945
-0.10970000000000013,-48.114331308409895
-0.11070000000000024,-48.1992139864018
-0.11170000000000013,-48.41142068138156
-0.11270000000000002,-48.72265716735186
-0.11370000000000013,-49.118776331314066
-0.11470000000000002,-49.59977817326819
-0.11570000000000014,-50.1656626932142
-0.11670000000000003,-50.68910587416426
-0.11770000000000014,-51.17010771611838
-0.11870000000000003,-51.69355089706845
-0.11970000000000014,-52.17455273902255
-0.12070000000000003,-52.64140746797801
-0.12170000000000014,-53.079967970936174
-0.12270000000000003,-53.476087134898386
-0.12370000000000014,-53.872206298860604
-0.12470000000000003,-54.16929567183226
-0.12570000000000014,-54.43809081880661
-0.12670000000000003,-54.69273885278232
-0.12770000000000015,-54.876651321764776
-0.12870000000000004,-55.003975338752625
-0.12970000000000015,-55.13129935574048
-0.13070000000000004,-55.17374069473642
-0.13170000000000015,-55.21618203373238
-0.13270000000000004,-55.21618203373238
-0.13370000000000015,-55.17374069473642
-0.13470000000000004,-55.25862337272834
-0.13570000000000015,-55.400094502714836
-0.13670000000000004,-55.65474253669055
-0.13770000000000016,-56.05086170065276
-0.13870000000000005,-56.489422203610914
-0.13970000000000016,-56.97042404556503
-0.14070000000000005,-57.45142588751914
-0.14170000000000016,-57.93242772947325
-0.14270000000000005,-58.45587091042332
-0.14370000000000016,-59.06419676936528
-0.14470000000000005,-59.67252262830725
-0.14570000000000016,-60.32328982624517
-0.14670000000000005,-60.889174346191176
-0.14770000000000016,-61.455058866137186
-0.14870000000000005,-61.89361936909536
-0.14970000000000017,-62.28973853305756
-0.15070000000000006,-62.64341635802381
-0.15170000000000017,-62.94050573099548
-0.15270000000000006,-63.251742216965795
-0.15370000000000017,-63.46394891194555
-0.15470000000000006,-63.6761556069253
-0.15570000000000017,-63.902509414903705
-0.15670000000000006,-64.0722747708875
-0.15770000000000017,-64.19959878787537
-0.15870000000000006,-64.38351125685783
-0.15970000000000018,-64.59571795183757
-0.16070000000000007,-64.90695443780788
-0.16170000000000018,-65.2464851497755
-0.16270000000000007,-65.64260431373769
-0.16370000000000018,-66.08116481669586
-0.16470000000000007,-66.51972531965401
-0.16570000000000018,-66.9582858226122
-0.16670000000000007,-67.39684632557035
-0.16770000000000018,-67.7788183765339
-0.16870000000000007,-68.25982021848802
-0.16970000000000018,-68.69838072144618
-0.17070000000000007,-69.13694122440434
-0.17170000000000019,-69.57550172736251
-0.17270000000000008,-69.95747377832606
-0.1737000000000002,-70.26871026429637
-0.17470000000000008,-70.57994675026669
-0.1757000000000002,-70.79215344524643
-0.17670000000000008,-71.06094859222078
-0.1777000000000002,-71.35803796519245
-0.17870000000000008,-71.7117157901587
-0.1797000000000002,-72.15027629311687
-0.18070000000000008,-72.53224834408043
-0.1817000000000002,-72.92836750804264
-0.18270000000000008,-73.32448667200485
-0.1837000000000002,-73.6781644969711
-0.1847000000000001,-74.06013654793468
-0.1857000000000002,-74.45625571189689
-0.1867000000000001,-74.8523748758591
-0.1877000000000002,-75.2484940398213
-0.1887000000000001,-75.5880247517889
-0.1897000000000002,-75.94170257675518
-0.1907000000000001,-76.29538040172143
-0.1917000000000001,-76.63491111368903
-0.19269999999999998,-76.98858893865528
-0.1937000000000001,-77.38470810261751
-0.19469999999999998,-77.80912149257702
-0.1957000000000001,-78.20524065653922
-0.19669999999999999,-78.60135982050144
-0.1977000000000001,-78.9550376454677
-0.1987,-79.25212701843935
-0.1997000000000001,-79.52092216541372
-0.2007,-79.73312886039348
-0.2017000000000001,-79.94533555537322
-0.2027,-80.21413070234757
-0.2037000000000001,-80.56780852731384
-0.2047,-80.90733923928146
-0.2057000000000001,-81.3458997422396
-0.2067,-81.78446024519776
-0.2077000000000001,-82.13813807016405
-0.2087,-82.52011012112759
-0.2097000000000001,-82.87378794609386
-0.2107,-83.22746577106011
-0.2117000000000001,-83.60943782202366
-0.2127,-84.00555698598588
-0.2137000000000001,-84.48655882793999
-0.2147,-85.052443347886
-0.2157000000000001,-85.66076920682796
-0.2167,-86.22665372677399
-0.21770000000000012,-86.75009690772404
-0.2187,-87.18865741068221
-0.21970000000000012,-87.62721791364037
-0.2207,-87.98089573860662
-0.22170000000000012,-88.32042645057423
-0.2227,-88.6741042755405
-0.22370000000000012,-89.02778210050676
-0.2247,-89.42390126446898
-0.22570000000000012,-89.76343197643658
-0.2267,-90.11710980140283
-0.22770000000000012,-90.47078762636909
-0.22870000000000001,-90.85275967733266
-0.22970000000000013,-91.20643750229891
-0.23070000000000002,-91.68743934425302
-0.23170000000000013,-92.12599984721119
-0.23270000000000002,-92.6070016891653
-0.23370000000000013,-93.13044487011537
-0.23470000000000002,-93.55485826007487
-0.23570000000000013,-93.99341876303303
-0.23670000000000002,-94.38953792699526
-0.2376999999999999,-94.8280984299534
-0.23870000000000002,-95.30910027190752
-0.2396999999999999,-95.83254345285758
-0.24070000000000003,-96.35598663380765
-0.24169999999999991,-96.92187115375367
-0.24270000000000003,-97.44531433470372
-0.24369999999999992,-97.92631617665783
-0.24470000000000003,-98.40731801861195
-0.24569999999999992,-98.88831986056607
-0.24670000000000003,-99.35517458952152
-0.24769999999999992,-99.87861777047159
-0.24870000000000003,-100.40206095142165
-0.24969999999999992,-100.98209258436633
-0.25070000000000003,-101.50553576531638
-0.2516999999999999,-101.97239049427183
-0.25270000000000004,-102.36850965823406
-0.2536999999999999,-102.76462882219626
-0.25470000000000004,-103.07586530816658
-0.2556999999999999,-103.33051334214227
-0.25670000000000004,-103.59930848911664
-0.25769999999999993,-103.93883920108425
-0.25870000000000004,-104.33495836504645
-0.25969999999999993,-104.77351886800463
-0.26070000000000004,-105.21207937096277
-0.26169999999999993,-105.73552255191284
-0.26270000000000004,-106.2589657328629
-0.26369999999999993,-106.78240891381296
-0.26470000000000005,-107.39073477275493
-0.26569999999999994,-107.99906063169689
-0.26670000000000005,-108.64982782963483
-0.26769999999999994,-109.25815368857677
-0.26870000000000005,-109.92306799951335
-0.26969999999999994,-110.65871787544317
-0.27070000000000005,-111.4509562033676
-0.27169999999999994,-112.27148875728932
-0.27270000000000005,-113.14860976320564
-0.27369999999999994,-114.0115836561233
-0.27470000000000006,-114.80382198404773
-0.27569999999999995,-115.5819131989735
-0.27670000000000006,-116.28926884890602
-0.27769999999999995,-116.94003604684394
-0.27870000000000006,-117.50592056678994
-0.27969999999999995,-118.02936374774
-0.28070000000000006,-118.55280692869007
-0.28169999999999995,-119.03380877064419
-0.28270000000000006,-119.51481061259831
-0.28369999999999995,-119.99581245455242
-0.28470000000000006,-120.43437295751058
-0.28569999999999995,-120.85878634747009
-0.28670000000000007,-121.29734685042824
-0.28769999999999996,-121.65102467539451
-0.28870000000000007,-122.08958517835266
-0.28969999999999996,-122.52814568131083
-0.29070000000000007,-123.17891287924873
-0.29169999999999996,-123.95700409417452
-0.29270000000000007,-124.83412510009084
-0.29369999999999996,-125.71124610600715
-0.2947000000000001,-126.48933732093293
-0.29569999999999996,-127.28157564885734
-0.2967000000000001,-127.97478418579122
-0.29769999999999996,-128.62555138372915
-0.2987000000000001,-129.33290703366166
-0.29969999999999997,-130.23832226557528
-0.3007000000000001,-131.24276728847948
-0.30169999999999997,-132.33209498937555
-0.3027000000000001,-133.46386402926754
-0.30369999999999997,-134.5107503911677
-0.3047000000000001,-135.47275407507593
-0.30569999999999997,-136.1801097250084
-0.3067000000000001,-136.70355290595847
-0.3077,-136.95820093993422
-0.3087000000000001,-137.00064227893017
-0.3097,-137.00064227893017
-0.3107000000000001,-137.00064227893017
-0.3117,-137.00064227893017
-0.3127000000000001,-137.00064227893017
-0.3137,-137.00064227893017
-0.3147000000000001,-137.08552495692206
-0.3157,-137.3543201038964
-0.3167000000000001,-137.92020462384244
-0.3177,-138.79732562975875
-0.3187000000000001,-140.01397734764268
-0.3197,-141.3721001955131
-0.3207000000000001,-142.8858412863687
-0.3217,-144.44202371622026
-0.3227000000000001,-145.85673501608528
-0.3237,-147.1299751859638
-0.3247000000000001,-148.26174422585584
-0.3257,-149.39351326574788
-0.3267000000000001,-150.5252823056399
-0.3277,-151.5155802155454
-0.3287000000000001,-152.64734925543743
-0.3297,-153.77911829532948
-0.3307000000000001,-154.486473945262
-0.3317,-155.33530072518104
-0.3327000000000001,-155.75971411514055
-0.3337,-156.18412750510007
-0.3347000000000001,-156.60854089505958
-0.3357,-156.75001202504606
-0.3367000000000001,-157.03295428501906
-0.3377,-157.17442541500557
-0.3387000000000001,-157.31589654499206
-0.3397,-157.59883880496508
-0.3407000000000001,-157.7403099349516
-0.3417,-158.1647233249111
-0.3427000000000001,-158.5891367148706
-0.3437,-159.15502123481662
-0.3447000000000001,-159.86237688474912
-0.3457,-160.71120366466818
-0.3467000000000001,-161.70150157457368
-0.3477,-162.6917994844792
-0.3487000000000001,-163.68209739438475
-0.3497,-164.81386643427678
-0.3507000000000001,-165.8041643441823
-0.3517,-166.93593338407433
-0.3527000000000001,-167.92623129397984
-0.3537,-168.91652920388537
-0.3547000000000001,-169.9068271137909
-0.3557,-170.61418276372342
-0.35670000000000013,-171.46300954364247
-0.3577,-172.0288940635885
-0.35870000000000013,-172.59477858353446
-0.3597,-173.01919197349397
-0.36070000000000013,-173.44360536345349
-0.3617,-173.72654762342648
-0.3626999999999999,-174.0094898833995
-0.3637,-174.2924321433725
-0.3646999999999999,-174.57537440334553
-0.3657,-175.14125892329156
-0.3666999999999999,-175.84861457322407
-0.3677,-176.4144990931701
-0.3686999999999999,-176.98038361311612
-0.36970000000000003,-177.6877392630486
-0.3706999999999999,-178.1121526530081
-0.37170000000000003,-178.67803717295413
-0.3726999999999999,-179.10245056291362
-0.37370000000000003,-179.52686395287316
-0.3746999999999999,-180.09274847281918
-0.37570000000000003,-180.65863299276518
-0.3766999999999999,-181.2245175127112
-0.37770000000000004,-181.79040203265723
-0.3786999999999999,-182.35628655260325
-0.37970000000000004,-182.92217107254925
-0.3806999999999999,-183.34658446250873
-0.38170000000000004,-184.05394011244127
-0.38269999999999993,-184.7612957623738
-0.38370000000000004,-185.46865141230631
-0.38469999999999993,-186.17600706223882
-0.38570000000000004,-186.88336271217133
-0.38669999999999993,-187.44924723211736
-0.38770000000000004,-188.01513175206335
-0.38869999999999993,-188.72248740199586
-0.38970000000000005,-189.42984305192843
-0.39069999999999994,-190.27866983184742
-0.39170000000000005,-190.98602548177996
-0.39269999999999994,-191.69338113171247
-0.39370000000000005,-192.40073678164498
-0.39469999999999994,-192.966621301591
-0.39570000000000005,-193.3910346915505
-0.39669999999999994,-193.81544808151003
-0.39770000000000005,-193.9569192114965
-0.39869999999999994,-194.2398614714695
-0.39970000000000006,-194.52280373144254
-0.40069999999999995,-194.94721712140205
-0.40170000000000006,-195.37163051136156
-0.40269999999999995,-195.65457277133459
-0.40370000000000006,-195.93751503130758
-0.40469999999999995,-195.93751503130758
-0.40570000000000006,-195.93751503130758
-0.40669999999999995,-195.93751503130758
-0.40770000000000006,-195.93751503130758
-0.40869999999999995,-196.0789861612941
-0.40970000000000006,-196.3619284212671
-0.41069999999999995,-196.6448706812401
-0.41170000000000007,-197.0692840711996
-0.41269999999999996,-197.35222633117263
-0.41370000000000007,-197.91811085111863
-0.41469999999999996,-198.3425242410781
-0.41570000000000007,-198.76693763103765
-0.41669999999999996,-199.19135102099716
-0.41770000000000007,-199.89870667092967
-0.41869999999999996,-200.4645911908757
-0.4197000000000001,-200.88900458083523
-0.42069999999999996,-201.31341797079472
-0.4217000000000001,-201.59636023076774
-0.42269999999999996,-201.73783136075423
-0.4237000000000001,-201.73783136075423
-0.42469999999999997,-201.87930249074074
-0.4257000000000001,-201.87930249074074
-0.42669999999999997,-201.87930249074074
-0.4277000000000001,-201.87930249074074
-0.42869999999999997,-201.73783136075423
-0.4297000000000001,-201.4548891007812
-0.43069999999999997,-201.17194684080823
-0.4317000000000001,-200.88900458083523
-0.4327,-200.4645911908757
-0.4337000000000001,-200.18164893090267
-0.4347,-199.89870667092967
-0.4357000000000001,-200.04017780091618
-0.4367,-200.3231200608892
-0.4377000000000001,-200.6060623208622
-0.4387,-200.88900458083523
-0.4397000000000001,-201.17194684080823
-0.4407,-201.31341797079472
-0.4417000000000001,-201.59636023076774
-0.4427,-201.87930249074074
-0.4437000000000001,-202.02077362072723
-0.4447,-202.30371588070025
-0.4457000000000001,-202.58665814067325
-0.4467,-202.86960040064628
-0.4477000000000001,-202.86960040064628
-0.4487,-202.86960040064628
-0.4497000000000001,-202.7281292706598
-0.4507,-202.44518701068677
-0.4517000000000001,-202.16224475071377
-0.4527,-202.02077362072723
-0.4537000000000001,-201.73783136075423
-0.4547,-201.59636023076774
-0.4557000000000001,-201.31341797079472
-0.4567,-201.17194684080823
-0.4577000000000001,-200.88900458083523
-0.4587,-200.6060623208622
-0.4597000000000001,-200.3231200608892
-0.4607,-200.18164893090267
-0.4617000000000001,-200.04017780091618
-0.4627,-200.18164893090267
-0.4637000000000001,-200.18164893090267
-0.4647,-200.3231200608892
-0.4657000000000001,-200.6060623208622
-0.4667,-200.7475334508487
-0.4677000000000001,-200.88900458083523
-0.4687,-201.17194684080823
-0.4697000000000001,-201.31341797079472
-0.4707,-201.4548891007812
-0.4717000000000001,-201.73783136075423
-0.4727,-202.02077362072723
-0.4737000000000001,-202.30371588070025
-0.4747,-202.44518701068677
-0.4757000000000001,-202.44518701068677
-0.4767,-202.58665814067325
-0.4777000000000001,-202.58665814067325
-0.4787,-202.58665814067325
-0.4797000000000001,-202.44518701068677
-0.4807,-202.44518701068677
-0.48170000000000013,-202.58665814067325
-0.4827,-202.58665814067325
-0.48370000000000013,-202.86960040064628
-0.4847,-203.15254266061928
-0.48570000000000013,-203.29401379060576
-0.4867,-202.30371588070025
-0.48570000000000013,-199.04987989101065
-0.4847,-196.0789861612941
-0.48370000000000013,-193.249563561564
-0.4827,-190.70308322180696
-0.48170000000000013,-188.15660288204987
-0.4807,-185.89306480226583
-0.4797000000000001,-183.48805559249527
-0.4787,-181.08304638272472
-0.4777000000000001,-178.67803717295413
-0.4767,-176.27302796318358
-0.4757000000000001,-173.86801875341303
-0.4747,-171.60448067362896
-0.4737000000000001,-169.48241372383137
-0.4727,-167.6432890340068
-0.4717000000000001,-165.8041643441823
-0.4707,-163.96503965435775
-0.4697000000000001,-162.40885722450622
-0.4687,-160.8526747946547
-0.4677000000000001,-159.29649236480313
-0.4667,-157.88178106493808
-0.4657000000000001,-156.46706976507306
