Mar. 9, 2025   21:54:05
Cyclic Voltammetry
File: c:/users/guazh/data/banditlqround7_x0exp891_r5/2025-03-03-exp860\exp860-2025-03-09t21_45_20-h2koh\exp860_cv_50mvs_efin_-1600mv.bin
Data Source:  Experiment
Instrument Model:  CHI760E
Header: CV ran at 50 mVs
Note: 

Init E (V) = -1
High E (V) = -1
Low E (V) = -1.6
Final E (V) = -1
Init P/N = N
Scan Rate (V/s) = 0.05
Segment = 7
Sample Interval (V) = 0.001
Quiet Time (sec) = 60
Sensitivity (A/V) = 0.001
Comp R (ohm) = 1.5

Results:

Channel 1:
Segment 1:

Segment 2:

Segment 3:

Segment 4:

Segment 5:

Segment 6:

Segment 7:

Potential/V, Current/A

-1.000, 4.911e-7
-1.001, 5.375e-7
-1.002, 5.503e-7
-1.003, 5.809e-7
-1.004, 5.967e-7
-1.005, 5.987e-7
-1.006, 5.937e-7
-1.007, 6.233e-7
-1.008, 6.223e-7
-1.009, 6.391e-7
-1.010, 6.411e-7
-1.011, 6.539e-7
-1.012, 6.391e-7
-1.013, 6.746e-7
-1.014, 6.746e-7
-1.015, 7.013e-7
-1.016, 6.973e-7
-1.017, 7.171e-7
-1.018, 6.983e-7
-1.019, 7.141e-7
-1.020, 7.220e-7
-1.021, 7.437e-7
-1.022, 7.319e-7
-1.023, 7.309e-7
-1.024, 7.506e-7
-1.025, 7.703e-7
-1.026, 7.822e-7
-1.027, 7.644e-7
-1.028, 7.881e-7
-1.029, 7.812e-7
-1.030, 7.970e-7
-1.031, 7.930e-7
-1.032, 8.137e-7
-1.033, 8.315e-7
-1.034, 7.950e-7
-1.035, 8.246e-7
-1.036, 8.266e-7
-1.037, 8.256e-7
-1.038, 8.256e-7
-1.039, 8.345e-7
-1.040, 8.680e-7
-1.041, 8.660e-7
-1.042, 8.581e-7
-1.043, 8.493e-7
-1.044, 8.779e-7
-1.045, 9.025e-7
-1.046, 9.065e-7
-1.047, 8.887e-7
-1.048, 8.956e-7
-1.049, 8.868e-7
-1.050, 9.045e-7
-1.051, 9.242e-7
-1.052, 9.242e-7
-1.053, 9.331e-7
-1.054, 9.331e-7
-1.055, 9.479e-7
-1.056, 9.479e-7
-1.057, 9.509e-7
-1.058, 9.667e-7
-1.059, 9.617e-7
-1.060, 9.667e-7
-1.061, 9.736e-7
-1.062, 9.805e-7
-1.063, 1.001e-6
-1.064, 9.923e-7
-1.065, 1.017e-6
-1.066, 9.844e-7
-1.067, 9.973e-7
-1.068, 9.755e-7
-1.069, 1.029e-6
-1.070, 1.030e-6
-1.071, 1.024e-6
-1.072, 1.040e-6
-1.073, 1.034e-6
-1.074, 1.045e-6
-1.075, 1.052e-6
-1.076, 1.074e-6
-1.077, 1.044e-6
-1.078, 1.081e-6
-1.079, 1.095e-6
-1.080, 1.095e-6
-1.081, 1.088e-6
-1.082, 1.079e-6
-1.083, 1.103e-6
-1.084, 1.116e-6
-1.085, 1.120e-6
-1.086, 1.119e-6
-1.087, 1.119e-6
-1.088, 1.136e-6
-1.089, 1.125e-6
-1.090, 1.152e-6
-1.091, 1.158e-6
-1.092, 1.165e-6
-1.093, 1.145e-6
-1.094, 1.155e-6
-1.095, 1.187e-6
-1.096, 1.189e-6
-1.097, 1.207e-6
-1.098, 1.189e-6
-1.099, 1.193e-6
-1.100, 1.206e-6
-1.101, 1.224e-6
-1.102, 1.221e-6
-1.103, 1.211e-6
-1.104, 1.226e-6
-1.105, 1.261e-6
-1.106, 1.251e-6
-1.107, 1.240e-6
-1.108, 1.283e-6
-1.109, 1.253e-6
-1.110, 1.292e-6
-1.111, 1.286e-6
-1.112, 1.286e-6
-1.113, 1.273e-6
-1.114, 1.302e-6
-1.115, 1.324e-6
-1.116, 1.333e-6
-1.117, 1.333e-6
-1.118, 1.331e-6
-1.119, 1.319e-6
-1.120, 1.345e-6
-1.121, 1.337e-6
-1.122, 1.351e-6
-1.123, 1.372e-6
-1.124, 1.348e-6
-1.125, 1.388e-6
-1.126, 1.375e-6
-1.127, 1.391e-6
-1.128, 1.401e-6
-1.129, 1.418e-6
-1.130, 1.423e-6
-1.131, 1.432e-6
-1.132, 1.431e-6
-1.133, 1.433e-6
-1.134, 1.463e-6
-1.135, 1.442e-6
-1.136, 1.462e-6
-1.137, 1.456e-6
-1.138, 1.472e-6
-1.139, 1.480e-6
-1.140, 1.495e-6
-1.141, 1.504e-6
-1.142, 1.517e-6
-1.143, 1.505e-6
-1.144, 1.530e-6
-1.145, 1.553e-6
-1.146, 1.547e-6
-1.147, 1.538e-6
-1.148, 1.561e-6
-1.149, 1.565e-6
-1.150, 1.576e-6
-1.151, 1.586e-6
-1.152, 1.579e-6
-1.153, 1.608e-6
-1.154, 1.618e-6
-1.155, 1.637e-6
-1.156, 1.633e-6
-1.157, 1.619e-6
-1.158, 1.618e-6
-1.159, 1.641e-6
-1.160, 1.671e-6
-1.161, 1.677e-6
-1.162, 1.692e-6
-1.163, 1.696e-6
-1.164, 1.695e-6
-1.165, 1.731e-6
-1.166, 1.719e-6
-1.167, 1.714e-6
-1.168, 1.745e-6
-1.169, 1.737e-6
-1.170, 1.760e-6
-1.171, 1.747e-6
-1.172, 1.776e-6
-1.173, 1.787e-6
-1.174, 1.782e-6
-1.175, 1.808e-6
-1.176, 1.823e-6
-1.177, 1.847e-6
-1.178, 1.848e-6
-1.179, 1.861e-6
-1.180, 1.855e-6
-1.181, 1.846e-6
-1.182, 1.879e-6
-1.183, 1.877e-6
-1.184, 1.899e-6
-1.185, 1.924e-6
-1.186, 1.920e-6
-1.187, 1.930e-6
-1.188, 1.926e-6
-1.189, 1.935e-6
-1.190, 1.949e-6
-1.191, 1.969e-6
-1.192, 1.969e-6
-1.193, 1.976e-6
-1.194, 1.987e-6
-1.195, 2.001e-6
-1.196, 2.008e-6
-1.197, 2.012e-6
-1.198, 2.040e-6
-1.199, 2.038e-6
-1.200, 2.054e-6
-1.201, 2.051e-6
-1.202, 2.068e-6
-1.203, 2.083e-6
-1.204, 2.097e-6
-1.205, 2.109e-6
-1.206, 2.119e-6
-1.207, 2.100e-6
-1.208, 2.114e-6
-1.209, 2.146e-6
-1.210, 2.165e-6
-1.211, 2.157e-6
-1.212, 2.157e-6
-1.213, 2.170e-6
-1.214, 2.177e-6
-1.215, 2.202e-6
-1.216, 2.195e-6
-1.217, 2.212e-6
-1.218, 2.209e-6
-1.219, 2.228e-6
-1.220, 2.235e-6
-1.221, 2.243e-6
-1.222, 2.265e-6
-1.223, 2.260e-6
-1.224, 2.269e-6
-1.225, 2.294e-6
-1.226, 2.312e-6
-1.227, 2.290e-6
-1.228, 2.304e-6
-1.229, 2.318e-6
-1.230, 2.333e-6
-1.231, 2.336e-6
-1.232, 2.339e-6
-1.233, 2.342e-6
-1.234, 2.370e-6
-1.235, 2.377e-6
-1.236, 2.385e-6
-1.237, 2.368e-6
-1.238, 2.411e-6
-1.239, 2.393e-6
-1.240, 2.421e-6
-1.241, 2.416e-6
-1.242, 2.404e-6
-1.243, 2.431e-6
-1.244, 2.398e-6
-1.245, 2.443e-6
-1.246, 2.450e-6
-1.247, 2.432e-6
-1.248, 2.462e-6
-1.249, 2.463e-6
-1.250, 2.489e-6
-1.251, 2.473e-6
-1.252, 2.475e-6
-1.253, 2.485e-6
-1.254, 2.472e-6
-1.255, 2.517e-6
-1.256, 2.524e-6
-1.257, 2.503e-6
-1.258, 2.492e-6
-1.259, 2.509e-6
-1.260, 2.528e-6
-1.261, 2.519e-6
-1.262, 2.503e-6
-1.263, 2.509e-6
-1.264, 2.537e-6
-1.265, 2.571e-6
-1.266, 2.528e-6
-1.267, 2.551e-6
-1.268, 2.535e-6
-1.269, 2.540e-6
-1.270, 2.561e-6
-1.271, 2.523e-6
-1.272, 2.535e-6
-1.273, 2.544e-6
-1.274, 2.550e-6
-1.275, 2.564e-6
-1.276, 2.549e-6
-1.277, 2.557e-6
-1.278, 2.538e-6
-1.279, 2.551e-6
-1.280, 2.573e-6
-1.281, 2.574e-6
-1.282, 2.572e-6
-1.283, 2.567e-6
-1.284, 2.565e-6
-1.285, 2.598e-6
-1.286, 2.571e-6
-1.287, 2.588e-6
-1.288, 2.568e-6
-1.289, 2.554e-6
-1.290, 2.589e-6
-1.291, 2.579e-6
-1.292, 2.552e-6
-1.293, 2.582e-6
-1.294, 2.585e-6
-1.295, 2.591e-6
-1.296, 2.588e-6
-1.297, 2.580e-6
-1.298, 2.602e-6
-1.299, 2.566e-6
-1.300, 2.609e-6
-1.301, 2.602e-6
-1.302, 2.610e-6
-1.303, 2.602e-6
-1.304, 2.607e-6
-1.305, 2.606e-6
-1.306, 2.607e-6
-1.307, 2.608e-6
-1.308, 2.606e-6
-1.309, 2.639e-6
-1.310, 2.617e-6
-1.311, 2.625e-6
-1.312, 2.633e-6
-1.313, 2.610e-6
-1.314, 2.617e-6
-1.315, 2.651e-6
-1.316, 2.642e-6
-1.317, 2.625e-6
-1.318, 2.637e-6
-1.319, 2.653e-6
-1.320, 2.674e-6
-1.321, 2.668e-6
-1.322, 2.686e-6
-1.323, 2.692e-6
-1.324, 2.680e-6
-1.325, 2.728e-6
-1.326, 2.681e-6
-1.327, 2.697e-6
-1.328, 2.714e-6
-1.329, 2.726e-6
-1.330, 2.761e-6
-1.331, 2.738e-6
-1.332, 2.740e-6
-1.333, 2.743e-6
-1.334, 2.774e-6
-1.335, 2.793e-6
-1.336, 2.767e-6
-1.337, 2.765e-6
-1.338, 2.778e-6
-1.339, 2.787e-6
-1.340, 2.819e-6
-1.341, 2.816e-6
-1.342, 2.819e-6
-1.343, 2.840e-6
-1.344, 2.838e-6
-1.345, 2.871e-6
-1.346, 2.861e-6
-1.347, 2.850e-6
-1.348, 2.882e-6
-1.349, 2.894e-6
-1.350, 2.934e-6
-1.351, 2.896e-6
-1.352, 2.905e-6
-1.353, 2.932e-6
-1.354, 2.944e-6
-1.355, 2.976e-6
-1.356, 2.972e-6
-1.357, 2.974e-6
-1.358, 2.974e-6
-1.359, 3.019e-6
-1.360, 3.017e-6
-1.361, 3.031e-6
-1.362, 3.045e-6
-1.363, 3.050e-6
-1.364, 3.068e-6
-1.365, 3.085e-6
-1.366, 3.103e-6
-1.367, 3.096e-6
-1.368, 3.109e-6
-1.369, 3.110e-6
-1.370, 3.172e-6
-1.371, 3.201e-6
-1.372, 3.167e-6
-1.373, 3.237e-6
-1.374, 3.218e-6
-1.375, 3.242e-6
-1.376, 3.290e-6
-1.377, 3.270e-6
-1.378, 3.276e-6
-1.379, 3.311e-6
-1.380, 3.354e-6
-1.381, 3.360e-6
-1.382, 3.356e-6
-1.383, 3.397e-6
-1.384, 3.419e-6
-1.385, 3.455e-6
-1.386, 3.454e-6
-1.387, 3.478e-6
-1.388, 3.480e-6
-1.389, 3.528e-6
-1.390, 3.563e-6
-1.391, 3.579e-6
-1.392, 3.590e-6
-1.393, 3.608e-6
-1.394, 3.631e-6
-1.395, 3.673e-6
-1.396, 3.686e-6
-1.397, 3.697e-6
-1.398, 3.747e-6
-1.399, 3.769e-6
-1.400, 3.812e-6
-1.401, 3.850e-6
-1.402, 3.835e-6
-1.403, 3.900e-6
-1.404, 3.924e-6
-1.405, 3.963e-6
-1.406, 3.980e-6
-1.407, 4.014e-6
-1.408, 4.041e-6
-1.409, 4.089e-6
-1.410, 4.142e-6
-1.411, 4.174e-6
-1.412, 4.209e-6
-1.413, 4.213e-6
-1.414, 4.268e-6
-1.415, 4.328e-6
-1.416, 4.351e-6
-1.417, 4.373e-6
-1.418, 4.421e-6
-1.419, 4.475e-6
-1.420, 4.531e-6
-1.421, 4.564e-6
-1.422, 4.606e-6
-1.423, 4.651e-6
-1.424, 4.706e-6
-1.425, 4.739e-6
-1.426, 4.803e-6
-1.427, 4.835e-6
-1.428, 4.890e-6
-1.429, 4.902e-6
-1.430, 5.000e-6
-1.431, 5.039e-6
-1.432, 5.093e-6
-1.433, 5.146e-6
-1.434, 5.213e-6
-1.435, 5.276e-6
-1.436, 5.324e-6
-1.437, 5.360e-6
-1.438, 5.426e-6
-1.439, 5.487e-6
-1.440, 5.559e-6
-1.441, 5.630e-6
-1.442, 5.664e-6
-1.443, 5.722e-6
-1.444, 5.835e-6
-1.445, 5.889e-6
-1.446, 5.944e-6
-1.447, 6.028e-6
-1.448, 6.060e-6
-1.449, 6.165e-6
-1.450, 6.239e-6
-1.451, 6.309e-6
-1.452, 6.382e-6
-1.453, 6.485e-6
-1.454, 6.540e-6
-1.455, 6.665e-6
-1.456, 6.704e-6
-1.457, 6.837e-6
-1.458, 6.865e-6
-1.459, 6.987e-6
-1.460, 7.095e-6
-1.461, 7.177e-6
-1.462, 7.264e-6
-1.463, 7.358e-6
-1.464, 7.469e-6
-1.465, 7.598e-6
-1.466, 7.675e-6
-1.467, 7.777e-6
-1.468, 7.888e-6
-1.469, 8.009e-6
-1.470, 8.134e-6
-1.471, 8.229e-6
-1.472, 8.333e-6
-1.473, 8.449e-6
-1.474, 8.593e-6
-1.475, 8.728e-6
-1.476, 8.854e-6
-1.477, 8.987e-6
-1.478, 9.110e-6
-1.479, 9.282e-6
-1.480, 9.391e-6
-1.481, 9.570e-6
-1.482, 9.707e-6
-1.483, 9.831e-6
-1.484, 9.994e-6
-1.485, 1.020e-5
-1.486, 1.033e-5
-1.487, 1.049e-5
-1.488, 1.063e-5
-1.489, 1.085e-5
-1.490, 1.103e-5
-1.491, 1.120e-5
-1.492, 1.139e-5
-1.493, 1.158e-5
-1.494, 1.180e-5
-1.495, 1.201e-5
-1.496, 1.221e-5
-1.497, 1.241e-5
-1.498, 1.262e-5
-1.499, 1.286e-5
-1.500, 1.310e-5
-1.501, 1.333e-5
-1.502, 1.355e-5
-1.503, 1.382e-5
-1.504, 1.407e-5
-1.505, 1.433e-5
-1.506, 1.461e-5
-1.507, 1.485e-5
-1.508, 1.513e-5
-1.509, 1.543e-5
-1.510, 1.574e-5
-1.511, 1.605e-5
-1.512, 1.636e-5
-1.513, 1.663e-5
-1.514, 1.700e-5
-1.515, 1.733e-5
-1.516, 1.768e-5
-1.517, 1.800e-5
-1.518, 1.837e-5
-1.519, 1.877e-5
-1.520, 1.915e-5
-1.521, 1.956e-5
-1.522, 1.993e-5
-1.523, 2.035e-5
-1.524, 2.082e-5
-1.525, 2.127e-5
-1.526, 2.170e-5
-1.527, 2.215e-5
-1.528, 2.263e-5
-1.529, 2.313e-5
-1.530, 2.365e-5
-1.531, 2.415e-5
-1.532, 2.467e-5
-1.533, 2.522e-5
-1.534, 2.579e-5
-1.535, 2.641e-5
-1.536, 2.699e-5
-1.537, 2.762e-5
-1.538, 2.822e-5
-1.539, 2.888e-5
-1.540, 2.958e-5
-1.541, 3.027e-5
-1.542, 3.098e-5
-1.543, 3.168e-5
-1.544, 3.244e-5
-1.545, 3.320e-5
-1.546, 3.399e-5
-1.547, 3.481e-5
-1.548, 3.566e-5
-1.549, 3.653e-5
-1.550, 3.742e-5
-1.551, 3.835e-5
-1.552, 3.929e-5
-1.553, 4.023e-5
-1.554, 4.122e-5
-1.555, 4.227e-5
-1.556, 4.333e-5
-1.557, 4.440e-5
-1.558, 4.551e-5
-1.559, 4.665e-5
-1.560, 4.787e-5
-1.561, 4.911e-5
-1.562, 5.034e-5
-1.563, 5.162e-5
-1.564, 5.296e-5
-1.565, 5.437e-5
-1.566, 5.576e-5
-1.567, 5.719e-5
-1.568, 5.860e-5
-1.569, 6.016e-5
-1.570, 6.173e-5
-1.571, 6.334e-5
-1.572, 6.502e-5
-1.573, 6.671e-5
-1.574, 6.850e-5
-1.575, 7.035e-5
-1.576, 7.225e-5
-1.577, 7.414e-5
-1.578, 7.616e-5
-1.579, 7.819e-5
-1.580, 8.032e-5
-1.581, 8.251e-5
-1.582, 8.473e-5
-1.583, 8.701e-5
-1.584, 8.937e-5
-1.585, 9.185e-5
-1.586, 9.435e-5
-1.587, 9.692e-5
-1.588, 9.954e-5
-1.589, 1.023e-4
-1.590, 1.051e-4
-1.591, 1.079e-4
-1.592, 1.108e-4
-1.593, 1.139e-4
-1.594, 1.170e-4
-1.595, 1.202e-4
-1.596, 1.234e-4
-1.597, 1.268e-4
-1.598, 1.302e-4
-1.599, 1.338e-4
-1.600, 1.350e-4
-1.599, 1.339e-4
-1.598, 1.327e-4
-1.597, 1.315e-4
-1.596, 1.301e-4
-1.595, 1.287e-4
-1.594, 1.272e-4
-1.593, 1.257e-4
-1.592, 1.241e-4
-1.591, 1.226e-4
-1.590, 1.209e-4
-1.589, 1.193e-4
-1.588, 1.176e-4
-1.587, 1.159e-4
-1.586, 1.142e-4
-1.585, 1.126e-4
-1.584, 1.109e-4
-1.583, 1.092e-4
-1.582, 1.075e-4
-1.581, 1.058e-4
-1.580, 1.041e-4
-1.579, 1.025e-4
-1.578, 1.008e-4
-1.577, 9.915e-5
-1.576, 9.755e-5
-1.575, 9.592e-5
-1.574, 9.428e-5
-1.573, 9.269e-5
-1.572, 9.106e-5
-1.571, 8.952e-5
-1.570, 8.796e-5
-1.569, 8.645e-5
-1.568, 8.493e-5
-1.567, 8.339e-5
-1.566, 8.191e-5
-1.565, 8.048e-5
-1.564, 7.900e-5
-1.563, 7.755e-5
-1.562, 7.613e-5
-1.561, 7.474e-5
-1.560, 7.342e-5
-1.559, 7.204e-5
-1.558, 7.070e-5
-1.557, 6.941e-5
-1.556, 6.811e-5
-1.555, 6.687e-5
-1.554, 6.561e-5
-1.553, 6.436e-5
-1.552, 6.317e-5
-1.551, 6.196e-5
-1.550, 6.083e-5
-1.549, 5.965e-5
-1.548, 5.851e-5
-1.547, 5.742e-5
-1.546, 5.632e-5
-1.545, 5.526e-5
-1.544, 5.418e-5
-1.543, 5.313e-5
-1.542, 5.213e-5
-1.541, 5.112e-5
-1.540, 5.016e-5
-1.539, 4.918e-5
-1.538, 4.823e-5
-1.537, 4.731e-5
-1.536, 4.637e-5
-1.535, 4.548e-5
-1.534, 4.459e-5
-1.533, 4.371e-5
-1.532, 4.288e-5
-1.531, 4.205e-5
-1.530, 4.123e-5
-1.529, 4.039e-5
-1.528, 3.965e-5
-1.527, 3.883e-5
-1.526, 3.810e-5
-1.525, 3.736e-5
-1.524, 3.662e-5
-1.523, 3.590e-5
-1.522, 3.520e-5
-1.521, 3.450e-5
-1.520, 3.383e-5
-1.519, 3.315e-5
-1.518, 3.247e-5
-1.517, 3.187e-5
-1.516, 3.127e-5
-1.515, 3.065e-5
-1.514, 3.002e-5
-1.513, 2.943e-5
-1.512, 2.888e-5
-1.511, 2.830e-5
-1.510, 2.775e-5
-1.509, 2.719e-5
-1.508, 2.665e-5
-1.507, 2.614e-5
-1.506, 2.561e-5
-1.505, 2.514e-5
-1.504, 2.463e-5
-1.503, 2.413e-5
-1.502, 2.366e-5
-1.501, 2.320e-5
-1.500, 2.276e-5
-1.499, 2.230e-5
-1.498, 2.187e-5
-1.497, 2.142e-5
-1.496, 2.102e-5
-1.495, 2.062e-5
-1.494, 2.018e-5
-1.493, 1.980e-5
-1.492, 1.941e-5
-1.491, 1.904e-5
-1.490, 1.869e-5
-1.489, 1.831e-5
-1.488, 1.794e-5
-1.487, 1.759e-5
-1.486, 1.725e-5
-1.485, 1.691e-5
-1.484, 1.657e-5
-1.483, 1.626e-5
-1.482, 1.595e-5
-1.481, 1.561e-5
-1.480, 1.534e-5
-1.479, 1.504e-5
-1.478, 1.473e-5
-1.477, 1.445e-5
-1.476, 1.418e-5
-1.475, 1.391e-5
-1.474, 1.361e-5
-1.473, 1.337e-5
-1.472, 1.310e-5
-1.471, 1.286e-5
-1.470, 1.263e-5
-1.469, 1.234e-5
-1.468, 1.212e-5
-1.467, 1.187e-5
-1.466, 1.165e-5
-1.465, 1.144e-5
-1.464, 1.123e-5
-1.463, 1.103e-5
-1.462, 1.082e-5
-1.461, 1.059e-5
-1.460, 1.038e-5
-1.459, 1.018e-5
-1.458, 9.982e-6
-1.457, 9.795e-6
-1.456, 9.611e-6
-1.455, 9.419e-6
-1.454, 9.272e-6
-1.453, 9.042e-6
-1.452, 8.888e-6
-1.451, 8.710e-6
-1.450, 8.573e-6
-1.449, 8.410e-6
-1.448, 8.232e-6
-1.447, 8.081e-6
-1.446, 7.924e-6
-1.445, 7.770e-6
-1.444, 7.622e-6
-1.443, 7.478e-6
-1.442, 7.339e-6
-1.441, 7.217e-6
-1.440, 7.056e-6
-1.439, 6.925e-6
-1.438, 6.800e-6
-1.437, 6.656e-6
-1.436, 6.556e-6
-1.435, 6.429e-6
-1.434, 6.290e-6
-1.433, 6.164e-6
-1.432, 6.023e-6
-1.431, 5.948e-6
-1.430, 5.838e-6
-1.429, 5.717e-6
-1.428, 5.593e-6
-1.427, 5.523e-6
-1.426, 5.401e-6
-1.425, 5.319e-6
-1.424, 5.190e-6
-1.423, 5.103e-6
-1.422, 4.994e-6
-1.421, 4.914e-6
-1.420, 4.822e-6
-1.419, 4.744e-6
-1.418, 4.656e-6
-1.417, 4.533e-6
-1.416, 4.491e-6
-1.415, 4.385e-6
-1.414, 4.294e-6
-1.413, 4.201e-6
-1.412, 4.132e-6
-1.411, 4.068e-6
-1.410, 4.006e-6
-1.409, 3.898e-6
-1.408, 3.847e-6
-1.407, 3.747e-6
-1.406, 3.702e-6
-1.405, 3.643e-6
-1.404, 3.578e-6
-1.403, 3.489e-6
-1.402, 3.409e-6
-1.401, 3.358e-6
-1.400, 3.332e-6
-1.399, 3.252e-6
-1.398, 3.185e-6
-1.397, 3.123e-6
-1.396, 3.072e-6
-1.395, 3.002e-6
-1.394, 2.944e-6
-1.393, 2.892e-6
-1.392, 2.831e-6
-1.391, 2.781e-6
-1.390, 2.734e-6
-1.389, 2.680e-6
-1.388, 2.611e-6
-1.387, 2.584e-6
-1.386, 2.537e-6
-1.385, 2.510e-6
-1.384, 2.417e-6
-1.383, 2.376e-6
-1.382, 2.352e-6
-1.381, 2.296e-6
-1.380, 2.257e-6
-1.379, 2.233e-6
-1.378, 2.173e-6
-1.377, 2.122e-6
-1.376, 2.081e-6
-1.375, 2.053e-6
-1.374, 2.003e-6
-1.373, 1.970e-6
-1.372, 1.937e-6
-1.371, 1.899e-6
-1.370, 1.877e-6
-1.369, 1.842e-6
-1.368, 1.802e-6
-1.367, 1.754e-6
-1.366, 1.727e-6
-1.365, 1.706e-6
-1.364, 1.666e-6
-1.363, 1.652e-6
-1.362, 1.596e-6
-1.361, 1.583e-6
-1.360, 1.576e-6
-1.359, 1.530e-6
-1.358, 1.479e-6
-1.357, 1.452e-6
-1.356, 1.439e-6
-1.355, 1.414e-6
-1.354, 1.355e-6
-1.353, 1.350e-6
-1.352, 1.321e-6
-1.351, 1.300e-6
-1.350, 1.269e-6
-1.349, 1.265e-6
-1.348, 1.220e-6
-1.347, 1.212e-6
-1.346, 1.162e-6
-1.345, 1.186e-6
-1.344, 1.131e-6
-1.343, 1.111e-6
-1.342, 1.057e-6
-1.341, 1.061e-6
-1.340, 1.044e-6
-1.339, 1.019e-6
-1.338, 1.000e-6
-1.337, 9.903e-7
-1.336, 9.499e-7
-1.335, 9.499e-7
-1.334, 9.154e-7
-1.333, 8.927e-7
-1.332, 8.779e-7
-1.331, 8.581e-7
-1.330, 8.335e-7
-1.329, 8.414e-7
-1.328, 8.305e-7
-1.327, 8.039e-7
-1.326, 7.763e-7
-1.325, 7.743e-7
-1.324, 7.516e-7
-1.323, 7.230e-7
-1.322, 7.200e-7
-1.321, 7.032e-7
-1.320, 7.023e-7
-1.319, 6.677e-7
-1.318, 6.697e-7
-1.317, 6.214e-7
-1.316, 6.243e-7
-1.315, 6.253e-7
-1.314, 6.115e-7
-1.313, 5.641e-7
-1.312, 5.937e-7
-1.311, 5.740e-7
-1.310, 5.523e-7
-1.309, 5.493e-7
-1.308, 5.276e-7
-1.307, 5.188e-7
-1.306, 5.138e-7
-1.305, 5.000e-7
-1.304, 4.793e-7
-1.303, 4.477e-7
-1.302, 4.704e-7
-1.301, 4.645e-7
-1.300, 4.507e-7
-1.299, 4.477e-7
-1.298, 4.043e-7
-1.297, 4.083e-7
-1.296, 4.073e-7
-1.295, 4.043e-7
-1.294, 3.579e-7
-1.293, 3.520e-7
-1.292, 3.510e-7
-1.291, 3.461e-7
-1.290, 3.471e-7
-1.289, 3.352e-7
-1.288, 3.155e-7
-1.287, 2.879e-7
-1.286, 3.224e-7
-1.285, 3.135e-7
-1.284, 3.007e-7
-1.283, 2.524e-7
-1.282, 2.918e-7
-1.281, 2.701e-7
-1.280, 2.622e-7
-1.279, 2.326e-7
-1.278, 2.040e-7
-1.277, 2.405e-7
-1.276, 2.188e-7
-1.275, 2.011e-7
-1.274, 2.129e-7
-1.273, 1.942e-7
-1.272, 1.882e-7
-1.271, 1.705e-7
-1.270, 1.784e-7
-1.269, 1.794e-7
-1.268, 1.922e-7
-1.267, 1.369e-7
-1.266, 1.813e-7
-1.265, 1.656e-7
-1.264, 1.498e-7
-1.263, 1.399e-7
-1.262, 1.320e-7
-1.261, 1.320e-7
-1.260, 1.310e-7
-1.259, 1.251e-7
-1.258, 1.073e-7
-1.257, 8.958e-8
-1.256, 8.958e-8
-1.255, 8.662e-8
-1.254, 8.169e-8
-1.253, 8.465e-8
-1.252, 5.703e-8
-1.251, 4.617e-8
-1.250, 8.564e-8
-1.249, 4.321e-8
-1.248, 4.913e-8
-1.247, 4.124e-8
-1.246, 5.900e-8
-1.245, 4.913e-8
-1.244, 3.729e-8
-1.243, 3.631e-8
-1.242, 1.066e-8
-1.241, 9.669e-9
-1.240, 2.052e-8
-1.239, -1.894e-8
-1.238, 7.695e-9
-1.237, -9.077e-9
-1.236, -5.130e-9
-1.235, -1.302e-8
-1.234, -8.090e-9
-1.233, -2.684e-8
-1.232, -2.980e-8
-1.231, -2.289e-8
-1.230, -1.184e-9
-1.229, -4.361e-8
-1.228, -7.321e-8
-1.227, -6.433e-8
-1.226, -3.769e-8
-1.225, -4.459e-8
-1.224, -5.249e-8
-1.223, -5.249e-8
-1.222, -9.886e-8
-1.221, -5.939e-8
-1.220, -7.419e-8
-1.219, -8.702e-8
-1.218, -8.307e-8
-1.217, -9.491e-8
-1.216, -1.028e-7
-1.215, -8.110e-8
-1.214, -1.235e-7
-1.213, -1.058e-7
-1.212, -1.245e-7
-1.211, -1.245e-7
-1.210, -1.186e-7
-1.209, -1.354e-7
-1.208, -1.413e-7
-1.207, -1.472e-7
-1.206, -1.393e-7
-1.205, -1.462e-7
-1.204, -1.225e-7
-1.203, -1.590e-7
-1.202, -1.590e-7
-1.201, -1.729e-7
-1.200, -1.521e-7
-1.199, -1.551e-7
-1.198, -1.590e-7
-1.197, -1.630e-7
-1.196, -1.946e-7
-1.195, -1.492e-7
-1.194, -1.847e-7
-1.193, -1.926e-7
-1.192, -1.837e-7
-1.191, -1.857e-7
-1.190, -1.807e-7
-1.189, -2.074e-7
-1.188, -1.896e-7
-1.187, -2.034e-7
-1.186, -2.103e-7
-1.185, -1.906e-7
-1.184, -2.084e-7
-1.183, -2.034e-7
-1.182, -2.172e-7
-1.181, -2.320e-7
-1.180, -2.153e-7
-1.179, -2.133e-7
-1.178, -2.301e-7
-1.177, -2.449e-7
-1.176, -2.281e-7
-1.175, -2.202e-7
-1.174, -2.390e-7
-1.173, -2.488e-7
-1.172, -2.449e-7
-1.171, -2.468e-7
-1.170, -2.607e-7
-1.169, -2.320e-7
-1.168, -2.478e-7
-1.167, -2.814e-7
-1.166, -2.616e-7
-1.165, -2.676e-7
-1.164, -2.567e-7
-1.163, -2.695e-7
-1.162, -3.031e-7
-1.161, -2.656e-7
-1.160, -2.725e-7
-1.159, -2.804e-7
-1.158, -2.922e-7
-1.157, -2.991e-7
-1.156, -3.129e-7
-1.155, -2.824e-7
-1.154, -3.090e-7
-1.153, -3.011e-7
-1.152, -3.051e-7
-1.151, -3.051e-7
-1.150, -3.090e-7
-1.149, -2.863e-7
-1.148, -3.159e-7
-1.147, -3.297e-7
-1.146, -3.406e-7
-1.145, -3.208e-7
-1.144, -3.218e-7
-1.143, -3.495e-7
-1.142, -3.485e-7
-1.141, -3.297e-7
-1.140, -3.337e-7
-1.139, -3.406e-7
-1.138, -3.465e-7
-1.137, -3.643e-7
-1.136, -3.534e-7
-1.135, -3.573e-7
-1.134, -3.544e-7
-1.133, -3.731e-7
-1.132, -3.741e-7
-1.131, -3.573e-7
-1.130, -3.593e-7
-1.129, -3.643e-7
-1.128, -3.603e-7
-1.127, -3.830e-7
-1.126, -3.879e-7
-1.125, -3.465e-7
-1.124, -3.899e-7
-1.123, -3.929e-7
-1.122, -3.938e-7
-1.121, -3.692e-7
-1.120, -3.751e-7
-1.119, -3.919e-7
-1.118, -3.948e-7
-1.117, -4.008e-7
-1.116, -4.057e-7
-1.115, -3.790e-7
-1.114, -3.998e-7
-1.113, -4.106e-7
-1.112, -4.146e-7
-1.111, -4.165e-7
-1.110, -4.156e-7
-1.109, -4.116e-7
-1.108, -4.254e-7
-1.107, -4.373e-7
-1.106, -4.215e-7
-1.105, -4.313e-7
-1.104, -4.373e-7
-1.103, -4.323e-7
-1.102, -4.323e-7
-1.101, -4.333e-7
-1.100, -4.560e-7
-1.099, -4.294e-7
-1.098, -4.363e-7
-1.097, -4.402e-7
-1.096, -4.432e-7
-1.095, -4.422e-7
-1.094, -4.461e-7
-1.093, -4.580e-7
-1.092, -4.580e-7
-1.091, -4.580e-7
-1.090, -4.501e-7
-1.089, -4.600e-7
-1.088, -4.747e-7
-1.087, -4.945e-7
-1.086, -4.600e-7
-1.085, -4.639e-7
-1.084, -4.491e-7
-1.083, -4.807e-7
-1.082, -4.974e-7
-1.081, -4.698e-7
-1.080, -4.905e-7
-1.079, -4.905e-7
-1.078, -4.757e-7
-1.077, -4.955e-7
-1.076, -4.945e-7
-1.075, -4.876e-7
-1.074, -5.004e-7
-1.073, -5.113e-7
-1.072, -5.132e-7
-1.071, -5.113e-7
-1.070, -5.034e-7
-1.069, -5.024e-7
-1.068, -5.073e-7
-1.067, -5.300e-7
-1.066, -5.182e-7
-1.065, -5.182e-7
-1.064, -5.122e-7
-1.063, -5.280e-7
-1.062, -5.438e-7
-1.061, -5.409e-7
-1.060, -5.320e-7
-1.059, -5.191e-7
-1.058, -5.300e-7
-1.057, -5.211e-7
-1.056, -5.468e-7
-1.055, -5.300e-7
-1.054, -5.280e-7
-1.053, -5.497e-7
-1.052, -5.418e-7
-1.051, -5.389e-7
-1.050, -5.330e-7
-1.049, -5.537e-7
-1.048, -5.418e-7
-1.047, -5.714e-7
-1.046, -5.487e-7
-1.045, -5.527e-7
-1.044, -5.547e-7
-1.043, -5.734e-7
-1.042, -5.872e-7
-1.041, -5.675e-7
-1.040, -5.655e-7
-1.039, -5.724e-7
-1.038, -5.813e-7
-1.037, -5.655e-7
-1.036, -5.803e-7
-1.035, -5.793e-7
-1.034, -5.872e-7
-1.033, -5.922e-7
-1.032, -5.931e-7
-1.031, -5.931e-7
-1.030, -6.099e-7
-1.029, -6.040e-7
-1.028, -6.000e-7
-1.027, -6.050e-7
-1.026, -5.912e-7
-1.025, -6.060e-7
-1.024, -6.178e-7
-1.023, -6.336e-7
-1.022, -6.218e-7
-1.021, -6.208e-7
-1.020, -6.099e-7
-1.019, -6.198e-7
-1.018, -6.316e-7
-1.017, -6.464e-7
-1.016, -6.296e-7
-1.015, -6.198e-7
-1.014, -6.227e-7
-1.013, -6.366e-7
-1.012, -6.385e-7
-1.011, -6.474e-7
-1.010, -6.257e-7
-1.009, -6.316e-7
-1.008, -6.573e-7
-1.007, -6.514e-7
-1.006, -6.543e-7
-1.005, -6.435e-7
-1.004, -6.474e-7
-1.003, -6.346e-7
-1.002, -6.602e-7
-1.001, -6.740e-7
-1.000, -4.432e-7
-1.001, -3.297e-7
-1.002, -2.843e-7
-1.003, -2.478e-7
-1.004, -2.172e-7
-1.005, -1.561e-7
-1.006, -1.581e-7
-1.007, -1.324e-7
-1.008, -1.127e-7
-1.009, -8.406e-8
-1.010, -3.966e-8
-1.011, -2.585e-8
-1.012, -1.894e-8
-1.013, -1.302e-8
-1.014, 2.249e-8
-1.015, 6.097e-8
-1.016, 5.012e-8
-1.017, 7.380e-8
-1.018, 8.268e-8
-1.019, 1.004e-7
-1.020, 1.379e-7
-1.021, 1.271e-7
-1.022, 1.320e-7
-1.023, 1.626e-7
-1.024, 1.646e-7
-1.025, 2.060e-7
-1.026, 1.902e-7
-1.027, 2.021e-7
-1.028, 2.317e-7
-1.029, 2.356e-7
-1.030, 2.376e-7
-1.031, 2.445e-7
-1.032, 2.603e-7
-1.033, 2.573e-7
-1.034, 2.889e-7
-1.035, 3.086e-7
-1.036, 2.879e-7
-1.037, 2.859e-7
-1.038, 3.195e-7
-1.039, 3.560e-7
-1.040, 3.412e-7
-1.041, 3.471e-7
-1.042, 3.579e-7
-1.043, 3.579e-7
-1.044, 3.747e-7
-1.045, 3.895e-7
-1.046, 3.787e-7
-1.047, 3.895e-7
-1.048, 3.915e-7
-1.049, 3.974e-7
-1.050, 4.517e-7
-1.051, 4.240e-7
-1.052, 4.418e-7
-1.053, 4.349e-7
-1.054, 4.665e-7
-1.055, 4.665e-7
-1.056, 4.684e-7
-1.057, 4.773e-7
-1.058, 4.783e-7
-1.059, 4.941e-7
-1.060, 5.118e-7
-1.061, 5.128e-7
-1.062, 5.188e-7
-1.063, 5.197e-7
-1.064, 5.316e-7
-1.065, 5.454e-7
-1.066, 5.612e-7
-1.067, 5.395e-7
-1.068, 5.454e-7
-1.069, 5.631e-7
-1.070, 5.750e-7
-1.071, 5.927e-7
-1.072, 5.770e-7
-1.073, 5.878e-7
-1.074, 5.898e-7
-1.075, 6.145e-7
-1.076, 6.194e-7
-1.077, 6.302e-7
-1.078, 6.115e-7
-1.079, 6.283e-7
-1.080, 6.381e-7
-1.081, 6.618e-7
-1.082, 6.539e-7
-1.083, 6.746e-7
-1.084, 6.588e-7
-1.085, 6.618e-7
-1.086, 6.815e-7
-1.087, 6.717e-7
-1.088, 6.904e-7
-1.089, 6.973e-7
-1.090, 7.289e-7
-1.091, 7.121e-7
-1.092, 7.161e-7
-1.093, 7.200e-7
-1.094, 7.289e-7
-1.095, 7.476e-7
-1.096, 7.437e-7
-1.097, 7.309e-7
-1.098, 7.388e-7
-1.099, 7.615e-7
-1.100, 7.802e-7
-1.101, 7.536e-7
-1.102, 7.723e-7
-1.103, 7.891e-7
-1.104, 7.851e-7
-1.105, 7.881e-7
-1.106, 7.989e-7
-1.107, 8.039e-7
-1.108, 8.128e-7
-1.109, 7.782e-7
-1.110, 8.147e-7
-1.111, 8.216e-7
-1.112, 8.157e-7
-1.113, 8.335e-7
-1.114, 8.641e-7
-1.115, 8.483e-7
-1.116, 8.532e-7
-1.117, 8.532e-7
-1.118, 8.443e-7
-1.119, 8.670e-7
-1.120, 8.720e-7
-1.121, 8.838e-7
-1.122, 8.858e-7
-1.123, 8.759e-7
-1.124, 8.917e-7
-1.125, 9.114e-7
-1.126, 9.085e-7
-1.127, 9.242e-7
-1.128, 9.055e-7
-1.129, 9.085e-7
-1.130, 9.538e-7
-1.131, 9.311e-7
-1.132, 9.173e-7
-1.133, 9.450e-7
-1.134, 9.588e-7
-1.135, 9.706e-7
-1.136, 9.637e-7
-1.137, 9.696e-7
-1.138, 9.529e-7
-1.139, 9.795e-7
-1.140, 9.933e-7
-1.141, 1.002e-6
-1.142, 9.746e-7
-1.143, 9.884e-7
-1.144, 1.004e-6
-1.145, 1.022e-6
-1.146, 1.030e-6
-1.147, 1.000e-6
-1.148, 1.007e-6
-1.149, 1.006e-6
-1.150, 1.049e-6
-1.151, 1.031e-6
-1.152, 1.045e-6
-1.153, 1.042e-6
-1.154, 1.032e-6
-1.155, 1.079e-6
-1.156, 1.056e-6
-1.157, 1.050e-6
-1.158, 1.051e-6
-1.159, 1.065e-6
-1.160, 1.090e-6
-1.161, 1.075e-6
-1.162, 1.055e-6
-1.163, 1.062e-6
-1.164, 1.101e-6
-1.165, 1.113e-6
-1.166, 1.111e-6
-1.167, 1.108e-6
-1.168, 1.097e-6
-1.169, 1.123e-6
-1.170, 1.138e-6
-1.171, 1.124e-6
-1.172, 1.140e-6
-1.173, 1.132e-6
-1.174, 1.162e-6
-1.175, 1.173e-6
-1.176, 1.153e-6
-1.177, 1.125e-6
-1.178, 1.174e-6
-1.179, 1.177e-6
-1.180, 1.196e-6
-1.181, 1.192e-6
-1.182, 1.175e-6
-1.183, 1.196e-6
-1.184, 1.196e-6
-1.185, 1.205e-6
-1.186, 1.198e-6
-1.187, 1.213e-6
-1.188, 1.212e-6
-1.189, 1.209e-6
-1.190, 1.236e-6
-1.191, 1.234e-6
-1.192, 1.238e-6
-1.193, 1.225e-6
-1.194, 1.250e-6
-1.195, 1.287e-6
-1.196, 1.274e-6
-1.197, 1.243e-6
-1.198, 1.247e-6
-1.199, 1.273e-6
-1.200, 1.270e-6
-1.201, 1.298e-6
-1.202, 1.284e-6
-1.203, 1.306e-6
-1.204, 1.298e-6
-1.205, 1.320e-6
-1.206, 1.330e-6
-1.207, 1.313e-6
-1.208, 1.290e-6
-1.209, 1.339e-6
-1.210, 1.330e-6
-1.211, 1.332e-6
-1.212, 1.331e-6
-1.213, 1.341e-6
-1.214, 1.347e-6
-1.215, 1.345e-6
-1.216, 1.370e-6
-1.217, 1.361e-6
-1.218, 1.367e-6
-1.219, 1.356e-6
-1.220, 1.378e-6
-1.221, 1.383e-6
-1.222, 1.366e-6
-1.223, 1.377e-6
-1.224, 1.412e-6
-1.225, 1.415e-6
-1.226, 1.417e-6
-1.227, 1.401e-6
-1.228, 1.398e-6
-1.229, 1.432e-6
-1.230, 1.460e-6
-1.231, 1.432e-6
-1.232, 1.441e-6
-1.233, 1.434e-6
-1.234, 1.443e-6
-1.235, 1.462e-6
-1.236, 1.468e-6
-1.237, 1.469e-6
-1.238, 1.462e-6
-1.239, 1.504e-6
-1.240, 1.482e-6
-1.241, 1.479e-6
-1.242, 1.502e-6
-1.243, 1.482e-6
-1.244, 1.494e-6
-1.245, 1.526e-6
-1.246, 1.523e-6
-1.247, 1.521e-6
-1.248, 1.508e-6
-1.249, 1.536e-6
-1.250, 1.533e-6
-1.251, 1.534e-6
-1.252, 1.527e-6
-1.253, 1.539e-6
-1.254, 1.576e-6
-1.255, 1.577e-6
-1.256, 1.546e-6
-1.257, 1.565e-6
-1.258, 1.566e-6
-1.259, 1.573e-6
-1.260, 1.578e-6
-1.261, 1.596e-6
-1.262, 1.617e-6
-1.263, 1.583e-6
-1.264, 1.587e-6
-1.265, 1.624e-6
-1.266, 1.624e-6
-1.267, 1.606e-6
-1.268, 1.626e-6
-1.269, 1.624e-6
-1.270, 1.641e-6
-1.271, 1.646e-6
-1.272, 1.644e-6
-1.273, 1.641e-6
-1.274, 1.662e-6
-1.275, 1.668e-6
-1.276, 1.682e-6
-1.277, 1.672e-6
-1.278, 1.662e-6
-1.279, 1.715e-6
-1.280, 1.727e-6
-1.281, 1.701e-6
-1.282, 1.697e-6
-1.283, 1.715e-6
-1.284, 1.742e-6
-1.285, 1.742e-6
-1.286, 1.722e-6
-1.287, 1.726e-6
-1.288, 1.725e-6
-1.289, 1.777e-6
-1.290, 1.784e-6
-1.291, 1.775e-6
-1.292, 1.771e-6
-1.293, 1.793e-6
-1.294, 1.797e-6
-1.295, 1.818e-6
-1.296, 1.808e-6
-1.297, 1.796e-6
-1.298, 1.797e-6
-1.299, 1.825e-6
-1.300, 1.817e-6
-1.301, 1.844e-6
-1.302, 1.840e-6
-1.303, 1.838e-6
-1.304, 1.818e-6
-1.305, 1.847e-6
-1.306, 1.867e-6
-1.307, 1.868e-6
-1.308, 1.885e-6
-1.309, 1.890e-6
-1.310, 1.907e-6
-1.311, 1.897e-6
-1.312, 1.907e-6
-1.313, 1.887e-6
-1.314, 1.912e-6
-1.315, 1.943e-6
-1.316, 1.942e-6
-1.317, 1.966e-6
-1.318, 1.939e-6
-1.319, 1.986e-6
-1.320, 1.979e-6
-1.321, 2.002e-6
-1.322, 2.006e-6
-1.323, 1.990e-6
-1.324, 2.032e-6
-1.325, 2.020e-6
-1.326, 2.036e-6
-1.327, 2.033e-6
-1.328, 2.025e-6
-1.329, 2.074e-6
-1.330, 2.073e-6
-1.331, 2.071e-6
-1.332, 2.083e-6
-1.333, 2.091e-6
-1.334, 2.102e-6
-1.335, 2.166e-6
-1.336, 2.133e-6
-1.337, 2.142e-6
-1.338, 2.144e-6
-1.339, 2.154e-6
-1.340, 2.191e-6
-1.341, 2.164e-6
-1.342, 2.202e-6
-1.343, 2.169e-6
-1.344, 2.219e-6
-1.345, 2.249e-6
-1.346, 2.271e-6
-1.347, 2.246e-6
-1.348, 2.274e-6
-1.349, 2.288e-6
-1.350, 2.324e-6
-1.351, 2.317e-6
-1.352, 2.307e-6
-1.353, 2.314e-6
-1.354, 2.364e-6
-1.355, 2.392e-6
-1.356, 2.393e-6
-1.357, 2.390e-6
-1.358, 2.425e-6
-1.359, 2.426e-6
-1.360, 2.460e-6
-1.361, 2.475e-6
-1.362, 2.479e-6
-1.363, 2.473e-6
-1.364, 2.516e-6
-1.365, 2.516e-6
-1.366, 2.552e-6
-1.367, 2.577e-6
-1.368, 2.578e-6
-1.369, 2.614e-6
-1.370, 2.637e-6
-1.371, 2.622e-6
-1.372, 2.661e-6
-1.373, 2.685e-6
-1.374, 2.700e-6
-1.375, 2.757e-6
-1.376, 2.750e-6
-1.377, 2.772e-6
-1.378, 2.777e-6
-1.379, 2.807e-6
-1.380, 2.851e-6
-1.381, 2.864e-6
-1.382, 2.869e-6
-1.383, 2.894e-6
-1.384, 2.914e-6
-1.385, 2.963e-6
-1.386, 2.965e-6
-1.387, 2.967e-6
-1.388, 3.014e-6
-1.389, 3.050e-6
-1.390, 3.092e-6
-1.391, 3.107e-6
-1.392, 3.127e-6
-1.393, 3.142e-6
-1.394, 3.187e-6
-1.395, 3.232e-6
-1.396, 3.245e-6
-1.397, 3.286e-6
-1.398, 3.293e-6
-1.399, 3.351e-6
-1.400, 3.380e-6
-1.401, 3.430e-6
-1.402, 3.430e-6
-1.403, 3.489e-6
-1.404, 3.480e-6
-1.405, 3.562e-6
-1.406, 3.576e-6
-1.407, 3.630e-6
-1.408, 3.649e-6
-1.409, 3.706e-6
-1.410, 3.741e-6
-1.411, 3.799e-6
-1.412, 3.818e-6
-1.413, 3.846e-6
-1.414, 3.906e-6
-1.415, 3.943e-6
-1.416, 3.988e-6
-1.417, 4.036e-6
-1.418, 4.101e-6
-1.419, 4.142e-6
-1.420, 4.210e-6
-1.421, 4.228e-6
-1.422, 4.281e-6
-1.423, 4.323e-6
-1.424, 4.397e-6
-1.425, 4.440e-6
-1.426, 4.515e-6
-1.427, 4.524e-6
-1.428, 4.615e-6
-1.429, 4.675e-6
-1.430, 4.730e-6
-1.431, 4.795e-6
-1.432, 4.834e-6
-1.433, 4.892e-6
-1.434, 4.978e-6
-1.435, 5.061e-6
-1.436, 5.130e-6
-1.437, 5.174e-6
-1.438, 5.233e-6
-1.439, 5.329e-6
-1.440, 5.395e-6
-1.441, 5.472e-6
-1.442, 5.534e-6
-1.443, 5.623e-6
-1.444, 5.698e-6
-1.445, 5.788e-6
-1.446, 5.848e-6
-1.447, 5.957e-6
-1.448, 6.040e-6
-1.449, 6.144e-6
-1.450, 6.232e-6
-1.451, 6.312e-6
-1.452, 6.410e-6
-1.453, 6.479e-6
-1.454, 6.597e-6
-1.455, 6.719e-6
-1.456, 6.779e-6
-1.457, 6.893e-6
-1.458, 6.997e-6
-1.459, 7.112e-6
-1.460, 7.265e-6
-1.461, 7.318e-6
-1.462, 7.447e-6
-1.463, 7.560e-6
-1.464, 7.708e-6
-1.465, 7.840e-6
-1.466, 7.957e-6
-1.467, 8.081e-6
-1.468, 8.211e-6
-1.469, 8.341e-6
-1.470, 8.480e-6
-1.471, 8.641e-6
-1.472, 8.767e-6
-1.473, 8.930e-6
-1.474, 9.088e-6
-1.475, 9.256e-6
-1.476, 9.416e-6
-1.477, 9.522e-6
-1.478, 9.725e-6
-1.479, 9.927e-6
-1.480, 1.008e-5
-1.481, 1.024e-5
-1.482, 1.043e-5
-1.483, 1.061e-5
-1.484, 1.082e-5
-1.485, 1.104e-5
-1.486, 1.121e-5
-1.487, 1.142e-5
-1.488, 1.164e-5
-1.489, 1.186e-5
-1.490, 1.209e-5
-1.491, 1.227e-5
-1.492, 1.254e-5
-1.493, 1.275e-5
-1.494, 1.300e-5
-1.495, 1.325e-5
-1.496, 1.350e-5
-1.497, 1.376e-5
-1.498, 1.403e-5
-1.499, 1.431e-5
-1.500, 1.459e-5
-1.501, 1.487e-5
-1.502, 1.514e-5
-1.503, 1.546e-5
-1.504, 1.578e-5
-1.505, 1.612e-5
-1.506, 1.643e-5
-1.507, 1.676e-5
-1.508, 1.707e-5
-1.509, 1.744e-5
-1.510, 1.780e-5
-1.511, 1.818e-5
-1.512, 1.853e-5
-1.513, 1.892e-5
-1.514, 1.933e-5
-1.515, 1.978e-5
-1.516, 2.015e-5
-1.517, 2.058e-5
-1.518, 2.103e-5
-1.519, 2.149e-5
-1.520, 2.195e-5
-1.521, 2.242e-5
-1.522, 2.289e-5
-1.523, 2.339e-5
-1.524, 2.395e-5
-1.525, 2.447e-5
-1.526, 2.498e-5
-1.527, 2.554e-5
-1.528, 2.612e-5
-1.529, 2.669e-5
-1.530, 2.731e-5
-1.531, 2.790e-5
-1.532, 2.851e-5
-1.533, 2.917e-5
-1.534, 2.983e-5
-1.535, 3.052e-5
-1.536, 3.121e-5
-1.537, 3.191e-5
-1.538, 3.267e-5
-1.539, 3.343e-5
-1.540, 3.424e-5
-1.541, 3.500e-5
-1.542, 3.582e-5
-1.543, 3.668e-5
-1.544, 3.753e-5
-1.545, 3.842e-5
-1.546, 3.931e-5
-1.547, 4.025e-5
-1.548, 4.123e-5
-1.549, 4.222e-5
-1.550, 4.324e-5
-1.551, 4.425e-5
-1.552, 4.533e-5
-1.553, 4.642e-5
-1.554, 4.756e-5
-1.555, 4.871e-5
-1.556, 4.991e-5
-1.557, 5.110e-5
-1.558, 5.234e-5
-1.559, 5.365e-5
-1.560, 5.499e-5
-1.561, 5.637e-5
-1.562, 5.773e-5
-1.563, 5.915e-5
-1.564, 6.063e-5
-1.565, 6.215e-5
-1.566, 6.369e-5
-1.567, 6.530e-5
-1.568, 6.693e-5
-1.569, 6.863e-5
-1.570, 7.035e-5
-1.571, 7.210e-5
-1.572, 7.395e-5
-1.573, 7.579e-5
-1.574, 7.773e-5
-1.575, 7.972e-5
-1.576, 8.176e-5
-1.577, 8.382e-5
-1.578, 8.599e-5
-1.579, 8.817e-5
-1.580, 9.043e-5
-1.581, 9.277e-5
-1.582, 9.512e-5
-1.583, 9.756e-5
-1.584, 1.001e-4
-1.585, 1.026e-4
-1.586, 1.053e-4
-1.587, 1.079e-4
-1.588, 1.108e-4
-1.589, 1.136e-4
-1.590, 1.165e-4
-1.591, 1.195e-4
-1.592, 1.225e-4
-1.593, 1.257e-4
-1.594, 1.289e-4
-1.595, 1.323e-4
-1.596, 1.357e-4
-1.597, 1.392e-4
-1.598, 1.428e-4
-1.599, 1.465e-4
-1.600, 1.475e-4
-1.599, 1.459e-4
-1.598, 1.443e-4
-1.597, 1.425e-4
-1.596, 1.407e-4
-1.595, 1.389e-4
-1.594, 1.370e-4
-1.593, 1.350e-4
-1.592, 1.330e-4
-1.591, 1.311e-4
-1.590, 1.291e-4
-1.589, 1.272e-4
-1.588, 1.251e-4
-1.587, 1.231e-4
-1.586, 1.212e-4
-1.585, 1.193e-4
-1.584, 1.173e-4
-1.583, 1.153e-4
-1.582, 1.134e-4
-1.581, 1.115e-4
-1.580, 1.096e-4
-1.579, 1.077e-4
-1.578, 1.058e-4
-1.577, 1.040e-4
-1.576, 1.021e-4
-1.575, 1.003e-4
-1.574, 9.852e-5
-1.573, 9.674e-5
-1.572, 9.501e-5
-1.571, 9.329e-5
-1.570, 9.161e-5
-1.569, 8.991e-5
-1.568, 8.826e-5
-1.567, 8.661e-5
-1.566, 8.499e-5
-1.565, 8.342e-5
-1.564, 8.186e-5
-1.563, 8.027e-5
-1.562, 7.876e-5
-1.561, 7.727e-5
-1.560, 7.584e-5
-1.559, 7.439e-5
-1.558, 7.295e-5
-1.557, 7.154e-5
-1.556, 7.019e-5
-1.555, 6.884e-5
-1.554, 6.751e-5
-1.553, 6.620e-5
-1.552, 6.492e-5
-1.551, 6.365e-5
-1.550, 6.246e-5
-1.549, 6.121e-5
-1.548, 6.001e-5
-1.547, 5.884e-5
-1.546, 5.770e-5
-1.545, 5.657e-5
-1.544, 5.549e-5
-1.543, 5.437e-5
-1.542, 5.331e-5
-1.541, 5.229e-5
-1.540, 5.125e-5
-1.539, 5.024e-5
-1.538, 4.924e-5
-1.537, 4.825e-5
-1.536, 4.730e-5
-1.535, 4.636e-5
-1.534, 4.546e-5
-1.533, 4.453e-5
-1.532, 4.364e-5
-1.531, 4.279e-5
-1.530, 4.195e-5
-1.529, 4.112e-5
-1.528, 4.027e-5
-1.527, 3.948e-5
-1.526, 3.869e-5
-1.525, 3.793e-5
-1.524, 3.716e-5
-1.523, 3.643e-5
-1.522, 3.568e-5
-1.521, 3.499e-5
-1.520, 3.430e-5
-1.519, 3.362e-5
-1.518, 3.293e-5
-1.517, 3.228e-5
-1.516, 3.164e-5
-1.515, 3.103e-5
-1.514, 3.037e-5
-1.513, 2.978e-5
-1.512, 2.918e-5
-1.511, 2.861e-5
-1.510, 2.806e-5
-1.509, 2.748e-5
-1.508, 2.690e-5
-1.507, 2.638e-5
-1.506, 2.588e-5
-1.505, 2.536e-5
-1.504, 2.484e-5
-1.503, 2.434e-5
-1.502, 2.387e-5
-1.501, 2.338e-5
-1.500, 2.293e-5
-1.499, 2.246e-5
-1.498, 2.201e-5
-1.497, 2.155e-5
-1.496, 2.116e-5
-1.495, 2.075e-5
-1.494, 2.031e-5
-1.493, 1.991e-5
-1.492, 1.951e-5
-1.491, 1.914e-5
-1.490, 1.877e-5
-1.489, 1.840e-5
-1.488, 1.803e-5
-1.487, 1.766e-5
-1.486, 1.734e-5
-1.485, 1.697e-5
-1.484, 1.663e-5
-1.483, 1.629e-5
-1.482, 1.596e-5
-1.481, 1.568e-5
-1.480, 1.536e-5
-1.479, 1.506e-5
-1.478, 1.475e-5
-1.477, 1.446e-5
-1.476, 1.420e-5
-1.475, 1.393e-5
-1.474, 1.364e-5
-1.473, 1.335e-5
-1.472, 1.312e-5
-1.471, 1.286e-5
-1.470, 1.260e-5
-1.469, 1.235e-5
-1.468, 1.210e-5
-1.467, 1.185e-5
-1.466, 1.164e-5
-1.465, 1.141e-5
-1.464, 1.119e-5
-1.463, 1.097e-5
-1.462, 1.077e-5
-1.461, 1.058e-5
-1.460, 1.036e-5
-1.459, 1.015e-5
-1.458, 9.958e-6
-1.457, 9.747e-6
-1.456, 9.565e-6
-1.455, 9.402e-6
-1.454, 9.203e-6
-1.453, 9.005e-6
-1.452, 8.851e-6
-1.451, 8.664e-6
-1.450, 8.506e-6
-1.449, 8.351e-6
-1.448, 8.175e-6
-1.447, 8.042e-6
-1.446, 7.886e-6
-1.445, 7.747e-6
-1.444, 7.547e-6
-1.443, 7.407e-6
-1.442, 7.305e-6
-1.441, 7.156e-6
-1.440, 7.018e-6
-1.439, 6.866e-6
-1.438, 6.731e-6
-1.437, 6.598e-6
-1.436, 6.469e-6
-1.435, 6.359e-6
-1.434, 6.233e-6
-1.433, 6.075e-6
-1.432, 5.983e-6
-1.431, 5.871e-6
-1.430, 5.765e-6
-1.429, 5.658e-6
-1.428, 5.523e-6
-1.427, 5.432e-6
-1.426, 5.360e-6
-1.425, 5.236e-6
-1.424, 5.134e-6
-1.423, 5.027e-6
-1.422, 4.930e-6
-1.421, 4.844e-6
-1.420, 4.757e-6
-1.419, 4.636e-6
-1.418, 4.577e-6
-1.417, 4.473e-6
-1.416, 4.417e-6
-1.415, 4.326e-6
-1.414, 4.223e-6
-1.413, 4.153e-6
-1.412, 4.072e-6
-1.411, 4.016e-6
-1.410, 3.927e-6
-1.409, 3.839e-6
-1.408, 3.756e-6
-1.407, 3.688e-6
-1.406, 3.642e-6
-1.405, 3.545e-6
-1.404, 3.470e-6
-1.403, 3.408e-6
-1.402, 3.333e-6
-1.401, 3.293e-6
-1.400, 3.239e-6
-1.399, 3.146e-6
-1.398, 3.072e-6
-1.397, 3.030e-6
-1.396, 2.971e-6
-1.395, 2.930e-6
-1.394, 2.869e-6
-1.393, 2.820e-6
-1.392, 2.766e-6
-1.391, 2.716e-6
-1.390, 2.667e-6
-1.389, 2.583e-6
-1.388, 2.557e-6
-1.387, 2.496e-6
-1.386, 2.464e-6
-1.385, 2.400e-6
-1.384, 2.356e-6
-1.383, 2.319e-6
-1.382, 2.270e-6
-1.381, 2.215e-6
-1.380, 2.213e-6
-1.379, 2.123e-6
-1.378, 2.088e-6
-1.377, 2.052e-6
-1.376, 2.038e-6
-1.375, 1.975e-6
-1.374, 1.939e-6
-1.373, 1.883e-6
-1.372, 1.848e-6
-1.371, 1.809e-6
-1.370, 1.784e-6
-1.369, 1.743e-6
-1.368, 1.704e-6
-1.367, 1.677e-6
-1.366, 1.647e-6
-1.365, 1.627e-6
-1.364, 1.564e-6
-1.363, 1.572e-6
-1.362, 1.501e-6
-1.361, 1.513e-6
-1.360, 1.453e-6
-1.359, 1.443e-6
-1.358, 1.412e-6
-1.357, 1.380e-6
-1.356, 1.350e-6
-1.355, 1.318e-6
-1.354, 1.297e-6
-1.353, 1.251e-6
-1.352, 1.247e-6
-1.351, 1.219e-6
-1.350, 1.206e-6
-1.349, 1.174e-6
-1.348, 1.143e-6
-1.347, 1.149e-6
-1.346, 1.117e-6
-1.345, 1.091e-6
-1.344, 1.025e-6
-1.343, 1.007e-6
-1.342, 1.009e-6
-1.341, 9.943e-7
-1.340, 9.864e-7
-1.339, 9.282e-7
-1.338, 9.321e-7
-1.337, 8.917e-7
-1.336, 8.927e-7
-1.335, 8.858e-7
-1.334, 8.542e-7
-1.333, 8.315e-7
-1.332, 8.285e-7
-1.331, 8.059e-7
-1.330, 8.009e-7
-1.329, 7.467e-7
-1.328, 7.082e-7
-1.327, 7.348e-7
-1.326, 7.210e-7
-1.325, 7.131e-7
-1.324, 6.450e-7
-1.323, 6.569e-7
-1.322, 6.362e-7
-1.321, 6.510e-7
-1.320, 6.243e-7
-1.319, 6.026e-7
-1.318, 5.671e-7
-1.317, 5.720e-7
-1.316, 5.908e-7
-1.315, 5.513e-7
-1.314, 5.336e-7
-1.313, 5.168e-7
-1.312, 5.099e-7
-1.311, 4.961e-7
-1.310, 4.665e-7
-1.309, 4.596e-7
-1.308, 4.684e-7
-1.307, 4.487e-7
-1.306, 4.379e-7
-1.305, 4.083e-7
-1.304, 4.004e-7
-1.303, 3.639e-7
-1.302, 3.856e-7
-1.301, 3.806e-7
-1.300, 3.451e-7
-1.299, 3.313e-7
-1.298, 3.343e-7
-1.297, 3.402e-7
-1.296, 3.195e-7
-1.295, 3.293e-7
-1.294, 3.017e-7
-1.293, 2.997e-7
-1.292, 2.849e-7
-1.291, 2.899e-7
-1.290, 2.553e-7
-1.289, 2.691e-7
-1.288, 2.257e-7
-1.287, 2.524e-7
-1.286, 2.386e-7
-1.285, 2.080e-7
-1.284, 2.178e-7
-1.283, 2.119e-7
-1.282, 2.060e-7
-1.281, 1.991e-7
-1.280, 1.912e-7
-1.279, 1.675e-7
-1.278, 1.725e-7
-1.277, 1.478e-7
-1.276, 1.616e-7
-1.275, 1.626e-7
-1.274, 1.389e-7
-1.273, 1.162e-7
-1.272, 1.369e-7
-1.271, 1.369e-7
-1.270, 1.182e-7
-1.269, 1.133e-7
-1.268, 7.084e-8
-1.267, 9.254e-8
-1.266, 9.945e-8
-1.265, 7.084e-8
-1.264, 5.111e-8
-1.263, 7.182e-8
-1.262, 5.801e-8
-1.261, 6.985e-8
-1.260, 5.801e-8
-1.259, 5.505e-8
-1.258, 4.223e-8
-1.257, 3.828e-8
-1.256, 1.263e-8
-1.255, 1.756e-8
-1.254, 1.776e-9
-1.253, 5.722e-9
-1.252, 1.066e-8
-1.251, -1.973e-10
-1.250, -1.697e-8
-1.249, -2.092e-8
-1.248, -1.697e-8
-1.247, -3.571e-8
-1.246, -1.598e-8
-1.245, -2.289e-8
-1.244, -4.163e-8
-1.243, -3.177e-8
-1.242, -3.670e-8
-1.241, -2.684e-8
-1.240, -5.347e-8
-1.239, -8.011e-8
-1.238, -5.150e-8
-1.237, -6.827e-8
-1.236, -7.025e-8
-1.235, -8.307e-8
-1.234, -9.491e-8
-1.233, -7.222e-8
-1.232, -8.800e-8
-1.231, -8.208e-8
-1.230, -1.077e-7
-1.229, -1.245e-7
-1.228, -1.255e-7
-1.227, -1.324e-7
-1.226, -1.314e-7
-1.225, -1.275e-7
-1.224, -1.521e-7
-1.223, -1.630e-7
-1.222, -1.462e-7
-1.221, -1.383e-7
-1.220, -1.423e-7
-1.219, -1.650e-7
-1.218, -1.798e-7
-1.217, -1.600e-7
-1.216, -1.689e-7
-1.215, -1.709e-7
-1.214, -1.965e-7
-1.213, -1.758e-7
-1.212, -1.798e-7
-1.211, -1.896e-7
-1.210, -1.995e-7
-1.209, -1.985e-7
-1.208, -2.005e-7
-1.207, -1.955e-7
-1.206, -1.778e-7
-1.205, -2.005e-7
-1.204, -2.202e-7
-1.203, -2.202e-7
-1.202, -1.936e-7
-1.201, -2.024e-7
-1.200, -2.133e-7
-1.199, -2.459e-7
-1.198, -2.311e-7
-1.197, -2.340e-7
-1.196, -2.133e-7
-1.195, -2.143e-7
-1.194, -2.646e-7
-1.193, -2.567e-7
-1.192, -2.291e-7
-1.191, -2.459e-7
-1.190, -2.656e-7
-1.189, -2.636e-7
-1.188, -2.607e-7
-1.187, -2.695e-7
-1.186, -2.459e-7
-1.185, -2.676e-7
-1.184, -2.804e-7
-1.183, -2.814e-7
-1.182, -2.755e-7
-1.181, -2.607e-7
-1.180, -2.883e-7
-1.179, -2.893e-7
-1.178, -2.893e-7
-1.177, -3.169e-7
-1.176, -2.755e-7
-1.175, -2.932e-7
-1.174, -2.981e-7
-1.173, -3.070e-7
-1.172, -3.110e-7
-1.171, -2.962e-7
-1.170, -3.041e-7
-1.169, -3.386e-7
-1.168, -3.208e-7
-1.167, -3.189e-7
-1.166, -3.110e-7
-1.165, -3.228e-7
-1.164, -3.643e-7
-1.163, -3.475e-7
-1.162, -3.179e-7
-1.161, -3.455e-7
-1.160, -3.672e-7
-1.159, -3.425e-7
-1.158, -3.613e-7
-1.157, -3.593e-7
-1.156, -3.366e-7
-1.155, -3.465e-7
-1.154, -3.593e-7
-1.153, -3.840e-7
-1.152, -3.623e-7
-1.151, -3.662e-7
-1.150, -3.830e-7
-1.149, -3.790e-7
-1.148, -3.850e-7
-1.147, -4.077e-7
-1.146, -3.652e-7
-1.145, -4.037e-7
-1.144, -3.830e-7
-1.143, -3.968e-7
-1.142, -3.889e-7
-1.141, -3.702e-7
-1.140, -4.037e-7
-1.139, -4.382e-7
-1.138, -3.978e-7
-1.137, -4.146e-7
-1.136, -3.899e-7
-1.135, -4.165e-7
-1.134, -4.195e-7
-1.133, -4.294e-7
-1.132, -4.244e-7
-1.131, -4.086e-7
-1.130, -4.106e-7
-1.129, -4.215e-7
-1.128, -4.274e-7
-1.127, -4.313e-7
-1.126, -4.264e-7
-1.125, -4.373e-7
-1.124, -4.333e-7
-1.123, -4.353e-7
-1.122, -4.313e-7
-1.121, -4.540e-7
-1.120, -4.678e-7
-1.119, -4.540e-7
-1.118, -4.481e-7
-1.117, -4.442e-7
-1.116, -4.402e-7
-1.115, -4.629e-7
-1.114, -4.757e-7
-1.113, -4.698e-7
-1.112, -4.728e-7
-1.111, -4.461e-7
-1.110, -4.826e-7
-1.109, -4.570e-7
-1.108, -4.965e-7
-1.107, -4.826e-7
-1.106, -4.698e-7
-1.105, -4.905e-7
-1.104, -4.984e-7
-1.103, -4.807e-7
-1.102, -4.836e-7
-1.101, -5.073e-7
-1.100, -4.974e-7
-1.099, -4.994e-7
-1.098, -4.945e-7
-1.097, -5.024e-7
-1.096, -5.132e-7
-1.095, -5.043e-7
-1.094, -5.162e-7
-1.093, -5.014e-7
-1.092, -5.191e-7
-1.091, -5.083e-7
-1.090, -5.103e-7
-1.089, -5.359e-7
-1.088, -5.251e-7
-1.087, -5.310e-7
-1.086, -5.241e-7
-1.085, -5.399e-7
-1.084, -5.310e-7
-1.083, -5.409e-7
-1.082, -5.300e-7
-1.081, -5.162e-7
-1.080, -5.497e-7
-1.079, -5.685e-7
-1.078, -5.655e-7
-1.077, -5.448e-7
-1.076, -5.478e-7
-1.075, -5.714e-7
-1.074, -5.626e-7
-1.073, -5.744e-7
-1.072, -5.645e-7
-1.071, -5.665e-7
-1.070, -5.754e-7
-1.069, -5.645e-7
-1.068, -5.852e-7
-1.067, -5.695e-7
-1.066, -5.704e-7
-1.065, -5.655e-7
-1.064, -5.941e-7
-1.063, -5.862e-7
-1.062, -5.872e-7
-1.061, -5.665e-7
-1.060, -5.882e-7
-1.059, -6.119e-7
-1.058, -5.862e-7
-1.057, -5.922e-7
-1.056, -5.695e-7
-1.055, -6.030e-7
-1.054, -6.050e-7
-1.053, -6.040e-7
-1.052, -6.089e-7
-1.051, -5.951e-7
-1.050, -6.050e-7
-1.049, -6.188e-7
-1.048, -6.139e-7
-1.047, -6.129e-7
-1.046, -6.148e-7
-1.045, -6.168e-7
-1.044, -6.316e-7
-1.043, -6.464e-7
-1.042, -6.227e-7
-1.041, -6.316e-7
-1.040, -6.306e-7
-1.039, -6.257e-7
-1.038, -6.366e-7
-1.037, -6.366e-7
-1.036, -6.405e-7
-1.035, -6.395e-7
-1.034, -6.267e-7
-1.033, -6.415e-7
-1.032, -6.494e-7
-1.031, -6.464e-7
-1.030, -6.780e-7
-1.029, -6.563e-7
-1.028, -6.681e-7
-1.027, -6.474e-7
-1.026, -6.602e-7
-1.025, -6.652e-7
-1.024, -6.622e-7
-1.023, -6.908e-7
-1.022, -6.681e-7
-1.021, -6.691e-7
-1.020, -6.869e-7
-1.019, -6.602e-7
-1.018, -6.918e-7
-1.017, -6.898e-7
-1.016, -6.780e-7
-1.015, -6.938e-7
-1.014, -6.879e-7
-1.013, -6.977e-7
-1.012, -6.977e-7
-1.011, -6.997e-7
-1.010, -7.076e-7
-1.009, -7.036e-7
-1.008, -7.234e-7
-1.007, -7.175e-7
-1.006, -6.859e-7
-1.005, -7.056e-7
-1.004, -7.036e-7
-1.003, -7.313e-7
-1.002, -7.293e-7
-1.001, -7.204e-7
-1.000, -5.182e-7
-1.001, -4.027e-7
-1.002, -3.514e-7
-1.003, -3.120e-7
-1.004, -2.735e-7
-1.005, -2.429e-7
-1.006, -2.222e-7
-1.007, -1.807e-7
-1.008, -1.709e-7
-1.009, -1.314e-7
-1.010, -1.206e-7
-1.011, -1.137e-7
-1.012, -7.419e-8
-1.013, -6.827e-8
-1.014, -3.769e-8
-1.015, -1.993e-8
-1.016, -2.388e-8
-1.017, 4.736e-9
-1.018, 3.236e-8
-1.019, 4.223e-8
-1.020, 5.604e-8
-1.021, 5.703e-8
-1.022, 6.393e-8
-1.023, 8.860e-8
-1.024, 1.133e-7
-1.025, 1.182e-7
-1.026, 1.300e-7
-1.027, 1.330e-7
-1.028, 1.577e-7
-1.029, 1.892e-7
-1.030, 1.873e-7
-1.031, 1.882e-7
-1.032, 1.961e-7
-1.033, 2.277e-7
-1.034, 2.415e-7
-1.035, 2.208e-7
-1.036, 2.297e-7
-1.037, 2.445e-7
-1.038, 2.682e-7
-1.039, 2.839e-7
-1.040, 3.047e-7
-1.041, 2.790e-7
-1.042, 2.997e-7
-1.043, 3.155e-7
-1.044, 3.185e-7
-1.045, 3.234e-7
-1.046, 3.441e-7
-1.047, 3.431e-7
-1.048, 3.530e-7
-1.049, 3.777e-7
-1.050, 3.856e-7
-1.051, 3.609e-7
-1.052, 3.935e-7
-1.053, 3.905e-7
-1.054, 4.073e-7
-1.055, 4.221e-7
-1.056, 4.092e-7
-1.057, 4.102e-7
-1.058, 4.309e-7
-1.059, 4.507e-7
-1.060, 4.635e-7
-1.061, 4.556e-7
-1.062, 4.605e-7
-1.063, 4.901e-7
-1.064, 4.763e-7
-1.065, 4.882e-7
-1.066, 4.803e-7
-1.067, 5.040e-7
-1.068, 5.000e-7
-1.069, 5.503e-7
-1.070, 5.336e-7
-1.071, 5.158e-7
-1.072, 5.375e-7
-1.073, 5.523e-7
-1.074, 5.681e-7
-1.075, 5.553e-7
-1.076, 5.562e-7
-1.077, 5.701e-7
-1.078, 5.997e-7
-1.079, 5.947e-7
-1.080, 5.918e-7
-1.081, 5.977e-7
-1.082, 5.967e-7
-1.083, 5.987e-7
-1.084, 6.075e-7
-1.085, 6.233e-7
-1.086, 6.352e-7
-1.087, 6.184e-7
-1.088, 6.480e-7
-1.089, 6.460e-7
-1.090, 6.519e-7
-1.091, 6.519e-7
-1.092, 6.677e-7
-1.093, 6.579e-7
-1.094, 6.815e-7
-1.095, 6.786e-7
-1.096, 6.796e-7
-1.097, 6.954e-7
-1.098, 6.973e-7
-1.099, 7.190e-7
-1.100, 6.973e-7
-1.101, 7.023e-7
-1.102, 7.427e-7
-1.103, 7.348e-7
-1.104, 7.486e-7
-1.105, 7.536e-7
-1.106, 7.437e-7
-1.107, 7.565e-7
-1.108, 7.634e-7
-1.109, 7.763e-7
-1.110, 7.703e-7
-1.111, 7.743e-7
-1.112, 7.871e-7
-1.113, 8.098e-7
-1.114, 8.187e-7
-1.115, 7.930e-7
-1.116, 7.841e-7
-1.117, 7.871e-7
-1.118, 7.970e-7
-1.119, 8.315e-7
-1.120, 8.078e-7
-1.121, 8.216e-7
-1.122, 8.315e-7
-1.123, 8.374e-7
-1.124, 8.463e-7
-1.125, 8.670e-7
-1.126, 8.453e-7
-1.127, 8.641e-7
-1.128, 8.749e-7
-1.129, 8.966e-7
-1.130, 8.690e-7
-1.131, 8.897e-7
-1.132, 8.562e-7
-1.133, 9.085e-7
-1.134, 9.094e-7
-1.135, 8.986e-7
-1.136, 9.213e-7
-1.137, 9.104e-7
-1.138, 9.302e-7
-1.139, 9.558e-7
-1.140, 9.390e-7
-1.141, 9.400e-7
-1.142, 9.529e-7
-1.143, 9.341e-7
-1.144, 9.765e-7
-1.145, 9.627e-7
-1.146, 9.637e-7
-1.147, 9.617e-7
-1.148, 9.667e-7
-1.149, 9.913e-7
-1.150, 9.815e-7
-1.151, 9.973e-7
-1.152, 1.015e-6
-1.153, 1.007e-6
-1.154, 1.007e-6
-1.155, 1.024e-6
-1.156, 9.864e-7
-1.157, 1.012e-6
-1.158, 1.039e-6
-1.159, 1.026e-6
-1.160, 1.023e-6
-1.161, 1.033e-6
-1.162, 1.053e-6
-1.163, 1.040e-6
-1.164, 1.064e-6
-1.165, 1.046e-6
-1.166, 1.054e-6
-1.167, 1.064e-6
-1.168, 1.061e-6
-1.169, 1.097e-6
-1.170, 1.076e-6
-1.171, 1.083e-6
-1.172, 1.093e-6
-1.173, 1.103e-6
-1.174, 1.117e-6
-1.175, 1.106e-6
-1.176, 1.111e-6
-1.177, 1.116e-6
-1.178, 1.133e-6
-1.179, 1.137e-6
-1.180, 1.106e-6
-1.181, 1.141e-6
-1.182, 1.128e-6
-1.183, 1.149e-6
-1.184, 1.168e-6
-1.185, 1.163e-6
-1.186, 1.154e-6
-1.187, 1.183e-6
-1.188, 1.181e-6
-1.189, 1.190e-6
-1.190, 1.182e-6
-1.191, 1.183e-6
-1.192, 1.180e-6
-1.193, 1.181e-6
-1.194, 1.199e-6
-1.195, 1.197e-6
-1.196, 1.196e-6
-1.197, 1.208e-6
-1.198, 1.226e-6
-1.199, 1.236e-6
-1.200, 1.217e-6
-1.201, 1.220e-6
-1.202, 1.243e-6
-1.203, 1.229e-6
-1.204, 1.260e-6
-1.205, 1.251e-6
-1.206, 1.249e-6
-1.207, 1.268e-6
-1.208, 1.265e-6
-1.209, 1.276e-6
-1.210, 1.262e-6
-1.211, 1.286e-6
-1.212, 1.280e-6
-1.213, 1.276e-6
-1.214, 1.311e-6
-1.215, 1.315e-6
-1.216, 1.307e-6
-1.217, 1.311e-6
-1.218, 1.314e-6
-1.219, 1.333e-6
-1.220, 1.310e-6
-1.221, 1.337e-6
-1.222, 1.342e-6
-1.223, 1.332e-6
-1.224, 1.353e-6
-1.225, 1.348e-6
-1.226, 1.351e-6
-1.227, 1.354e-6
-1.228, 1.375e-6
-1.229, 1.391e-6
-1.230, 1.399e-6
-1.231, 1.395e-6
-1.232, 1.393e-6
-1.233, 1.401e-6
-1.234, 1.414e-6
-1.235, 1.407e-6
-1.236, 1.405e-6
-1.237, 1.413e-6
-1.238, 1.414e-6
-1.239, 1.439e-6
-1.240, 1.431e-6
-1.241, 1.417e-6
-1.242, 1.445e-6
-1.243, 1.460e-6
-1.244, 1.476e-6
-1.245, 1.451e-6
-1.246, 1.446e-6
-1.247, 1.472e-6
-1.248, 1.457e-6
-1.249, 1.476e-6
-1.250, 1.491e-6
-1.251, 1.482e-6
-1.252, 1.485e-6
-1.253, 1.494e-6
-1.254, 1.523e-6
-1.255, 1.512e-6
-1.256, 1.510e-6
-1.257, 1.515e-6
-1.258, 1.546e-6
-1.259, 1.540e-6
-1.260, 1.535e-6
-1.261, 1.522e-6
-1.262, 1.533e-6
-1.263, 1.548e-6
-1.264, 1.579e-6
-1.265, 1.573e-6
-1.266, 1.571e-6
-1.267, 1.578e-6
-1.268, 1.585e-6
-1.269, 1.599e-6
-1.270, 1.590e-6
-1.271, 1.588e-6
-1.272, 1.590e-6
-1.273, 1.620e-6
-1.274, 1.642e-6
-1.275, 1.609e-6
-1.276, 1.650e-6
-1.277, 1.625e-6
-1.278, 1.645e-6
-1.279, 1.652e-6
-1.280, 1.647e-6
-1.281, 1.657e-6
-1.282, 1.641e-6
-1.283, 1.670e-6
-1.284, 1.685e-6
-1.285, 1.679e-6
-1.286, 1.677e-6
-1.287, 1.704e-6
-1.288, 1.699e-6
-1.289, 1.703e-6
-1.290, 1.739e-6
-1.291, 1.692e-6
-1.292, 1.720e-6
-1.293, 1.737e-6
-1.294, 1.774e-6
-1.295, 1.755e-6
-1.296, 1.758e-6
-1.297, 1.759e-6
-1.298, 1.761e-6
-1.299, 1.779e-6
-1.300, 1.781e-6
-1.301, 1.798e-6
-1.302, 1.821e-6
-1.303, 1.806e-6
-1.304, 1.829e-6
-1.305, 1.813e-6
-1.306, 1.817e-6
-1.307, 1.848e-6
-1.308, 1.843e-6
-1.309, 1.862e-6
-1.310, 1.848e-6
-1.311, 1.855e-6
-1.312, 1.877e-6
-1.313, 1.893e-6
-1.314, 1.889e-6
-1.315, 1.902e-6
-1.316, 1.921e-6
-1.317, 1.912e-6
-1.318, 1.932e-6
-1.319, 1.955e-6
-1.320, 1.962e-6
-1.321, 1.974e-6
-1.322, 1.956e-6
-1.323, 1.975e-6
-1.324, 2.017e-6
-1.325, 1.995e-6
-1.326, 2.009e-6
-1.327, 2.025e-6
-1.328, 2.009e-6
-1.329, 2.043e-6
-1.330, 2.037e-6
-1.331, 2.052e-6
-1.332, 2.075e-6
-1.333, 2.080e-6
-1.334, 2.102e-6
-1.335, 2.122e-6
-1.336, 2.118e-6
-1.337, 2.114e-6
-1.338, 2.139e-6
-1.339, 2.171e-6
-1.340, 2.164e-6
-1.341, 2.187e-6
-1.342, 2.203e-6
-1.343, 2.190e-6
-1.344, 2.231e-6
-1.345, 2.233e-6
-1.346, 2.263e-6
-1.347, 2.234e-6
-1.348, 2.252e-6
-1.349, 2.311e-6
-1.350, 2.326e-6
-1.351, 2.326e-6
-1.352, 2.320e-6
-1.353, 2.343e-6
-1.354, 2.357e-6
-1.355, 2.374e-6
-1.356, 2.386e-6
-1.357, 2.421e-6
-1.358, 2.430e-6
-1.359, 2.445e-6
-1.360, 2.451e-6
-1.361, 2.498e-6
-1.362, 2.487e-6
-1.363, 2.507e-6
-1.364, 2.549e-6
-1.365, 2.534e-6
-1.366, 2.529e-6
-1.367, 2.589e-6
-1.368, 2.604e-6
-1.369, 2.642e-6
-1.370, 2.659e-6
-1.371, 2.652e-6
-1.372, 2.696e-6
-1.373, 2.722e-6
-1.374, 2.760e-6
-1.375, 2.728e-6
-1.376, 2.794e-6
-1.377, 2.808e-6
-1.378, 2.850e-6
-1.379, 2.871e-6
-1.380, 2.866e-6
-1.381, 2.899e-6
-1.382, 2.936e-6
-1.383, 2.974e-6
-1.384, 3.005e-6
-1.385, 2.999e-6
-1.386, 3.048e-6
-1.387, 3.072e-6
-1.388, 3.101e-6
-1.389, 3.158e-6
-1.390, 3.182e-6
-1.391, 3.193e-6
-1.392, 3.216e-6
-1.393, 3.260e-6
-1.394, 3.298e-6
-1.395, 3.307e-6
-1.396, 3.351e-6
-1.397, 3.390e-6
-1.398, 3.409e-6
-1.399, 3.492e-6
-1.400, 3.518e-6
-1.401, 3.524e-6
-1.402, 3.564e-6
-1.403, 3.619e-6
-1.404, 3.653e-6
-1.405, 3.695e-6
-1.406, 3.720e-6
-1.407, 3.777e-6
-1.408, 3.821e-6
-1.409, 3.876e-6
-1.410, 3.893e-6
-1.411, 3.939e-6
-1.412, 3.973e-6
-1.413, 4.026e-6
-1.414, 4.111e-6
-1.415, 4.117e-6
-1.416, 4.176e-6
-1.417, 4.226e-6
-1.418, 4.285e-6
-1.419, 4.352e-6
-1.420, 4.410e-6
-1.421, 4.443e-6
-1.422, 4.508e-6
-1.423, 4.544e-6
-1.424, 4.628e-6
-1.425, 4.697e-6
-1.426, 4.753e-6
-1.427, 4.809e-6
-1.428, 4.865e-6
-1.429, 4.959e-6
-1.430, 5.009e-6
-1.431, 5.079e-6
-1.432, 5.135e-6
-1.433, 5.225e-6
-1.434, 5.310e-6
-1.435, 5.370e-6
-1.436, 5.429e-6
-1.437, 5.508e-6
-1.438, 5.596e-6
-1.439, 5.699e-6
-1.440, 5.768e-6
-1.441, 5.846e-6
-1.442, 5.901e-6
-1.443, 6.013e-6
-1.444, 6.111e-6
-1.445, 6.193e-6
-1.446, 6.248e-6
-1.447, 6.390e-6
-1.448, 6.473e-6
-1.449, 6.607e-6
-1.450, 6.681e-6
-1.451, 6.771e-6
-1.452, 6.870e-6
-1.453, 6.996e-6
-1.454, 7.121e-6
-1.455, 7.231e-6
-1.456, 7.307e-6
-1.457, 7.437e-6
-1.458, 7.560e-6
-1.459, 7.716e-6
-1.460, 7.830e-6
-1.461, 7.954e-6
-1.462, 8.082e-6
-1.463, 8.216e-6
-1.464, 8.373e-6
-1.465, 8.496e-6
-1.466, 8.645e-6
-1.467, 8.781e-6
-1.468, 8.929e-6
-1.469, 9.113e-6
-1.470, 9.267e-6
-1.471, 9.413e-6
-1.472, 9.571e-6
-1.473, 9.745e-6
-1.474, 9.945e-6
-1.475, 1.011e-5
-1.476, 1.026e-5
-1.477, 1.045e-5
-1.478, 1.063e-5
-1.479, 1.087e-5
-1.480, 1.106e-5
-1.481, 1.124e-5
-1.482, 1.146e-5
-1.483, 1.166e-5
-1.484, 1.189e-5
-1.485, 1.212e-5
-1.486, 1.233e-5
-1.487, 1.259e-5
-1.488, 1.283e-5
-1.489, 1.308e-5
-1.490, 1.332e-5
-1.491, 1.355e-5
-1.492, 1.383e-5
-1.493, 1.410e-5
-1.494, 1.437e-5
-1.495, 1.466e-5
-1.496, 1.493e-5
-1.497, 1.523e-5
-1.498, 1.553e-5
-1.499, 1.583e-5
-1.500, 1.616e-5
-1.501, 1.647e-5
-1.502, 1.681e-5
-1.503, 1.716e-5
-1.504, 1.751e-5
-1.505, 1.786e-5
-1.506, 1.824e-5
-1.507, 1.862e-5
-1.508, 1.898e-5
-1.509, 1.942e-5
-1.510, 1.979e-5
-1.511, 2.023e-5
-1.512, 2.063e-5
-1.513, 2.107e-5
-1.514, 2.153e-5
-1.515, 2.197e-5
-1.516, 2.247e-5
-1.517, 2.291e-5
-1.518, 2.339e-5
-1.519, 2.393e-5
-1.520, 2.445e-5
-1.521, 2.498e-5
-1.522, 2.551e-5
-1.523, 2.609e-5
-1.524, 2.669e-5
-1.525, 2.725e-5
-1.526, 2.785e-5
-1.527, 2.847e-5
-1.528, 2.909e-5
-1.529, 2.976e-5
-1.530, 3.042e-5
-1.531, 3.109e-5
-1.532, 3.180e-5
-1.533, 3.253e-5
-1.534, 3.324e-5
-1.535, 3.402e-5
-1.536, 3.482e-5
-1.537, 3.560e-5
-1.538, 3.642e-5
-1.539, 3.729e-5
-1.540, 3.812e-5
-1.541, 3.897e-5
-1.542, 3.992e-5
-1.543, 4.081e-5
-1.544, 4.179e-5
-1.545, 4.275e-5
-1.546, 4.377e-5
-1.547, 4.478e-5
-1.548, 4.582e-5
-1.549, 4.695e-5
-1.550, 4.806e-5
-1.551, 4.919e-5
-1.552, 5.036e-5
-1.553, 5.156e-5
-1.554, 5.282e-5
-1.555, 5.412e-5
-1.556, 5.535e-5
-1.557, 5.671e-5
-1.558, 5.803e-5
-1.559, 5.950e-5
-1.560, 6.092e-5
-1.561, 6.235e-5
-1.562, 6.391e-5
-1.563, 6.543e-5
-1.564, 6.711e-5
-1.565, 6.869e-5
-1.566, 7.042e-5
-1.567, 7.213e-5
-1.568, 7.389e-5
-1.569, 7.577e-5
-1.570, 7.760e-5
-1.571, 7.953e-5
-1.572, 8.148e-5
-1.573, 8.351e-5
-1.574, 8.562e-5
-1.575, 8.774e-5
-1.576, 8.993e-5
-1.577, 9.216e-5
-1.578, 9.445e-5
-1.579, 9.685e-5
-1.580, 9.926e-5
-1.581, 1.017e-4
-1.582, 1.043e-4
-1.583, 1.069e-4
-1.584, 1.096e-4
-1.585, 1.123e-4
-1.586, 1.150e-4
-1.587, 1.180e-4
-1.588, 1.209e-4
-1.589, 1.240e-4
-1.590, 1.271e-4
-1.591, 1.302e-4
-1.592, 1.335e-4
-1.593, 1.369e-4
-1.594, 1.403e-4
-1.595, 1.439e-4
-1.596, 1.475e-4
-1.597, 1.512e-4
-1.598, 1.551e-4
-1.599, 1.590e-4
-1.600, 1.601e-4
-1.599, 1.582e-4
-1.598, 1.561e-4
-1.597, 1.540e-4
-1.596, 1.519e-4
-1.595, 1.497e-4
-1.594, 1.475e-4
-1.593, 1.452e-4
-1.592, 1.430e-4
-1.591, 1.408e-4
-1.590, 1.385e-4
-1.589, 1.363e-4
-1.588, 1.340e-4
-1.587, 1.317e-4
-1.586, 1.295e-4
-1.585, 1.273e-4
-1.584, 1.250e-4
-1.583, 1.229e-4
-1.582, 1.208e-4
-1.581, 1.187e-4
-1.580, 1.165e-4
-1.579, 1.145e-4
-1.578, 1.124e-4
-1.577, 1.103e-4
-1.576, 1.084e-4
-1.575, 1.063e-4
-1.574, 1.044e-4
-1.573, 1.024e-4
-1.572, 1.005e-4
-1.571, 9.868e-5
-1.570, 9.679e-5
-1.569, 9.495e-5
-1.568, 9.315e-5
-1.567, 9.139e-5
-1.566, 8.962e-5
-1.565, 8.790e-5
-1.564, 8.621e-5
-1.563, 8.453e-5
-1.562, 8.289e-5
-1.561, 8.130e-5
-1.560, 7.971e-5
-1.559, 7.813e-5
-1.558, 7.658e-5
-1.557, 7.509e-5
-1.556, 7.364e-5
-1.555, 7.218e-5
-1.554, 7.076e-5
-1.553, 6.935e-5
-1.552, 6.798e-5
-1.551, 6.665e-5
-1.550, 6.531e-5
-1.549, 6.400e-5
-1.548, 6.272e-5
-1.547, 6.148e-5
-1.546, 6.027e-5
-1.545, 5.905e-5
-1.544, 5.788e-5
-1.543, 5.672e-5
-1.542, 5.556e-5
-1.541, 5.449e-5
-1.540, 5.339e-5
-1.539, 5.230e-5
-1.538, 5.125e-5
-1.537, 5.022e-5
-1.536, 4.922e-5
-1.535, 4.824e-5
-1.534, 4.724e-5
-1.533, 4.629e-5
-1.532, 4.539e-5
-1.531, 4.445e-5
-1.530, 4.355e-5
-1.529, 4.266e-5
-1.528, 4.180e-5
-1.527, 4.096e-5
-1.526, 4.016e-5
-1.525, 3.934e-5
-1.524, 3.852e-5
-1.523, 3.775e-5
-1.522, 3.696e-5
-1.521, 3.622e-5
-1.520, 3.550e-5
-1.519, 3.478e-5
-1.518, 3.407e-5
-1.517, 3.335e-5
-1.516, 3.272e-5
-1.515, 3.207e-5
-1.514, 3.141e-5
-1.513, 3.074e-5
-1.512, 3.016e-5
-1.511, 2.954e-5
-1.510, 2.893e-5
-1.509, 2.836e-5
-1.508, 2.779e-5
-1.507, 2.719e-5
-1.506, 2.667e-5
-1.505, 2.611e-5
-1.504, 2.560e-5
-1.503, 2.509e-5
-1.502, 2.458e-5
-1.501, 2.410e-5
-1.500, 2.361e-5
-1.499, 2.313e-5
-1.498, 2.266e-5
-1.497, 2.219e-5
-1.496, 2.177e-5
-1.495, 2.130e-5
-1.494, 2.089e-5
-1.493, 2.046e-5
-1.492, 2.007e-5
-1.491, 1.966e-5
-1.490, 1.928e-5
-1.489, 1.889e-5
-1.488, 1.850e-5
-1.487, 1.814e-5
-1.486, 1.777e-5
-1.485, 1.742e-5
-1.484, 1.706e-5
-1.483, 1.671e-5
-1.482, 1.638e-5
-1.481, 1.609e-5
-1.480, 1.573e-5
-1.479, 1.545e-5
-1.478, 1.511e-5
-1.477, 1.478e-5
-1.476, 1.455e-5
-1.475, 1.423e-5
-1.474, 1.395e-5
-1.473, 1.365e-5
-1.472, 1.337e-5
-1.471, 1.315e-5
-1.470, 1.286e-5
-1.469, 1.261e-5
-1.468, 1.238e-5
-1.467, 1.212e-5
-1.466, 1.190e-5
-1.465, 1.165e-5
-1.464, 1.143e-5
-1.463, 1.119e-5
-1.462, 1.101e-5
-1.461, 1.077e-5
-1.460, 1.055e-5
-1.459, 1.036e-5
-1.458, 1.012e-5
-1.457, 9.942e-6
-1.456, 9.753e-6
-1.455, 9.558e-6
-1.454, 9.360e-6
-1.453, 9.167e-6
-1.452, 8.981e-6
-1.451, 8.830e-6
-1.450, 8.639e-6
-1.449, 8.480e-6
-1.448, 8.300e-6
-1.447, 8.147e-6
-1.446, 7.996e-6
-1.445, 7.838e-6
-1.444, 7.697e-6
-1.443, 7.533e-6
-1.442, 7.373e-6
-1.441, 7.267e-6
-1.440, 7.107e-6
-1.439, 6.978e-6
-1.438, 6.813e-6
-1.437, 6.697e-6
-1.436, 6.586e-6
-1.435, 6.443e-6
-1.434, 6.307e-6
-1.433, 6.162e-6
-1.432, 6.047e-6
-1.431, 5.967e-6
-1.430, 5.840e-6
-1.429, 5.715e-6
-1.428, 5.601e-6
-1.427, 5.473e-6
-1.426, 5.414e-6
-1.425, 5.284e-6
-1.424, 5.158e-6
-1.423, 5.078e-6
-1.422, 4.983e-6
-1.421, 4.898e-6
-1.420, 4.805e-6
-1.419, 4.695e-6
-1.418, 4.605e-6
-1.417, 4.519e-6
-1.416, 4.431e-6
-1.415, 4.333e-6
-1.414, 4.247e-6
-1.413, 4.159e-6
-1.412, 4.092e-6
-1.411, 4.026e-6
-1.410, 3.948e-6
-1.409, 3.861e-6
-1.408, 3.797e-6
-1.407, 3.711e-6
-1.406, 3.622e-6
-1.405, 3.555e-6
-1.404, 3.496e-6
-1.403, 3.420e-6
-1.402, 3.374e-6
-1.401, 3.317e-6
-1.400, 3.251e-6
-1.399, 3.173e-6
-1.398, 3.093e-6
-1.397, 3.038e-6
-1.396, 3.002e-6
-1.395, 2.919e-6
-1.394, 2.871e-6
-1.393, 2.813e-6
-1.392, 2.751e-6
-1.391, 2.685e-6
-1.390, 2.661e-6
-1.389, 2.600e-6
-1.388, 2.522e-6
-1.387, 2.486e-6
-1.386, 2.479e-6
-1.385, 2.388e-6
-1.384, 2.367e-6
-1.383, 2.291e-6
-1.382, 2.271e-6
-1.381, 2.215e-6
-1.380, 2.180e-6
-1.379, 2.130e-6
-1.378, 2.089e-6
-1.377, 2.043e-6
-1.376, 2.027e-6
-1.375, 1.983e-6
-1.374, 1.936e-6
-1.373, 1.881e-6
-1.372, 1.848e-6
-1.371, 1.844e-6
-1.370, 1.804e-6
-1.369, 1.713e-6
-1.368, 1.700e-6
-1.367, 1.680e-6
-1.366, 1.654e-6
-1.365, 1.622e-6
-1.364, 1.576e-6
-1.363, 1.529e-6
-1.362, 1.506e-6
-1.361, 1.499e-6
-1.360, 1.465e-6
-1.359, 1.420e-6
-1.358, 1.399e-6
-1.357, 1.346e-6
-1.356, 1.359e-6
-1.355, 1.305e-6
-1.354, 1.278e-6
-1.353, 1.236e-6
-1.352, 1.230e-6
-1.351, 1.191e-6
-1.350, 1.188e-6
-1.349, 1.146e-6
-1.348, 1.100e-6
-1.347, 1.086e-6
-1.346, 1.113e-6
-1.345, 1.064e-6
-1.344, 1.027e-6
-1.343, 1.011e-6
-1.342, 9.805e-7
-1.341, 9.992e-7
-1.340, 9.400e-7
-1.339, 9.213e-7
-1.338, 9.065e-7
-1.337, 8.976e-7
-1.336, 8.779e-7
-1.335, 8.700e-7
-1.334, 8.197e-7
-1.333, 8.068e-7
-1.332, 7.950e-7
-1.331, 7.999e-7
-1.330, 7.585e-7
-1.329, 7.259e-7
-1.328, 7.190e-7
-1.327, 7.072e-7
-1.326, 6.983e-7
-1.325, 6.825e-7
-1.324, 6.480e-7
-1.323, 6.371e-7
-1.322, 6.263e-7
-1.321, 6.263e-7
-1.320, 5.937e-7
-1.319, 5.829e-7
-1.318, 5.740e-7
-1.317, 5.513e-7
-1.316, 5.720e-7
-1.315, 5.207e-7
-1.314, 4.961e-7
-1.313, 5.000e-7
-1.312, 5.079e-7
-1.311, 4.882e-7
-1.310, 4.635e-7
-1.309, 4.526e-7
-1.308, 4.369e-7
-1.307, 4.280e-7
-1.306, 4.280e-7
-1.305, 4.171e-7
-1.304, 3.984e-7
-1.303, 3.826e-7
-1.302, 3.540e-7
-1.301, 3.747e-7
-1.300, 3.431e-7
-1.299, 3.323e-7
-1.298, 3.195e-7
-1.297, 3.175e-7
-1.296, 3.264e-7
-1.295, 2.928e-7
-1.294, 2.682e-7
-1.293, 2.810e-7
-1.292, 2.603e-7
-1.291, 2.790e-7
-1.290, 2.474e-7
-1.289, 2.346e-7
-1.288, 2.277e-7
-1.287, 2.228e-7
-1.286, 2.317e-7
-1.285, 1.951e-7
-1.284, 1.912e-7
-1.283, 1.922e-7
-1.282, 1.833e-7
-1.281, 1.882e-7
-1.280, 1.734e-7
-1.279, 1.488e-7
-1.278, 1.429e-7
-1.277, 1.557e-7
-1.276, 1.419e-7
-1.275, 1.429e-7
-1.274, 1.212e-7
-1.273, 9.649e-8
-1.272, 9.945e-8
-1.271, 1.290e-7
-1.270, 8.662e-8
-1.269, 7.577e-8
-1.268, 8.070e-8
-1.267, 8.860e-8
-1.266, 7.380e-8
-1.265, 5.505e-8
-1.264, 5.407e-8
-1.263, 2.545e-8
-1.262, 4.716e-8
-1.261, 5.111e-8
-1.260, 3.433e-8
-1.259, 1.855e-8
-1.258, 1.657e-8
-1.257, 3.749e-9
-1.256, 2.249e-8
-1.255, -1.302e-8
-1.254, -1.401e-8
-1.253, -9.077e-9
-1.252, -2.092e-8
-1.251, -1.302e-8
-1.250, -1.401e-8
-1.249, -3.966e-8
-1.248, -3.769e-8
-1.247, -2.782e-8
-1.246, -2.782e-8
-1.245, -6.334e-8
-1.244, -6.531e-8
-1.243, -6.827e-8
-1.242, -6.433e-8
-1.241, -6.433e-8
-1.240, -7.715e-8
-1.239, -8.011e-8
-1.238, -9.392e-8
-1.237, -6.729e-8
-1.236, -7.025e-8
-1.235, -9.392e-8
-1.234, -1.077e-7
-1.233, -1.215e-7
-1.232, -1.265e-7
-1.231, -1.127e-7
-1.230, -1.146e-7
-1.229, -1.590e-7
-1.228, -1.590e-7
-1.227, -1.502e-7
-1.226, -1.255e-7
-1.225, -1.442e-7
-1.224, -1.541e-7
-1.223, -1.452e-7
-1.222, -1.620e-7
-1.221, -1.452e-7
-1.220, -1.630e-7
-1.219, -1.798e-7
-1.218, -1.847e-7
-1.217, -1.867e-7
-1.216, -1.827e-7
-1.215, -1.827e-7
-1.214, -1.995e-7
-1.213, -1.936e-7
-1.212, -1.955e-7
-1.211, -1.965e-7
-1.210, -1.985e-7
-1.209, -2.133e-7
-1.208, -2.153e-7
-1.207, -2.192e-7
-1.206, -1.896e-7
-1.205, -2.360e-7
-1.204, -2.409e-7
-1.203, -2.350e-7
-1.202, -2.281e-7
-1.201, -2.212e-7
-1.200, -2.538e-7
-1.199, -2.380e-7
-1.198, -2.449e-7
-1.197, -2.952e-7
-1.196, -2.350e-7
-1.195, -2.676e-7
-1.194, -2.686e-7
-1.193, -2.932e-7
-1.192, -2.686e-7
-1.191, -2.755e-7
-1.190, -2.991e-7
-1.189, -2.962e-7
-1.188, -2.962e-7
-1.187, -3.070e-7
-1.186, -2.577e-7
-1.185, -2.695e-7
-1.184, -3.090e-7
-1.183, -3.080e-7
-1.182, -2.972e-7
-1.181, -3.001e-7
-1.180, -3.228e-7
-1.179, -3.268e-7
-1.178, -3.110e-7
-1.177, -3.120e-7
-1.176, -3.090e-7
-1.175, -3.238e-7
-1.174, -3.317e-7
-1.173, -3.248e-7
-1.172, -3.258e-7
-1.171, -3.327e-7
-1.170, -3.199e-7
-1.169, -3.623e-7
-1.168, -3.435e-7
-1.167, -3.317e-7
-1.166, -3.337e-7
-1.165, -3.425e-7
-1.164, -3.830e-7
-1.163, -3.524e-7
-1.162, -3.534e-7
-1.161, -3.820e-7
-1.160, -3.435e-7
-1.159, -3.682e-7
-1.158, -3.652e-7
-1.157, -3.790e-7
-1.156, -3.425e-7
-1.155, -3.692e-7
-1.154, -3.790e-7
-1.153, -3.840e-7
-1.152, -4.017e-7
-1.151, -3.761e-7
-1.150, -3.781e-7
-1.149, -3.958e-7
-1.148, -4.175e-7
-1.147, -3.860e-7
-1.146, -3.840e-7
-1.145, -3.978e-7
-1.144, -4.195e-7
-1.143, -3.830e-7
-1.142, -4.027e-7
-1.141, -3.988e-7
-1.140, -4.264e-7
-1.139, -4.402e-7
-1.138, -4.077e-7
-1.137, -4.343e-7
-1.136, -4.077e-7
-1.135, -4.333e-7
-1.134, -4.452e-7
-1.133, -4.491e-7
-1.132, -4.313e-7
-1.131, -4.432e-7
-1.130, -4.491e-7
-1.129, -4.550e-7
-1.128, -4.442e-7
-1.127, -4.442e-7
-1.126, -4.432e-7
-1.125, -4.876e-7
-1.124, -4.540e-7
-1.123, -4.708e-7
-1.122, -4.619e-7
-1.121, -4.501e-7
-1.120, -4.718e-7
-1.119, -4.757e-7
-1.118, -4.836e-7
-1.117, -4.925e-7
-1.116, -4.649e-7
-1.115, -4.836e-7
-1.114, -4.846e-7
-1.113, -4.876e-7
-1.112, -4.915e-7
-1.111, -4.767e-7
-1.110, -4.955e-7
-1.109, -4.915e-7
-1.108, -4.935e-7
-1.107, -5.142e-7
-1.106, -4.747e-7
-1.105, -4.955e-7
-1.104, -5.043e-7
-1.103, -5.221e-7
-1.102, -5.063e-7
-1.101, -5.053e-7
-1.100, -5.122e-7
-1.099, -5.251e-7
-1.098, -5.201e-7
-1.097, -5.221e-7
-1.096, -5.300e-7
-1.095, -5.152e-7
-1.094, -5.330e-7
-1.093, -5.438e-7
-1.092, -5.122e-7
-1.091, -5.241e-7
-1.090, -5.616e-7
-1.089, -5.428e-7
-1.088, -5.418e-7
-1.087, -5.537e-7
-1.086, -5.409e-7
-1.085, -5.349e-7
-1.084, -5.596e-7
-1.083, -5.320e-7
-1.082, -5.744e-7
-1.081, -5.537e-7
-1.080, -5.517e-7
-1.079, -5.655e-7
-1.078, -5.813e-7
-1.077, -5.695e-7
-1.076, -5.448e-7
-1.075, -5.774e-7
-1.074, -5.872e-7
-1.073, -5.724e-7
-1.072, -5.912e-7
-1.071, -5.606e-7
-1.070, -5.971e-7
-1.069, -5.803e-7
-1.068, -5.931e-7
-1.067, -5.981e-7
-1.066, -5.892e-7
-1.065, -5.655e-7
-1.064, -6.079e-7
-1.063, -6.000e-7
-1.062, -6.089e-7
-1.061, -6.050e-7
-1.060, -6.148e-7
-1.059, -6.148e-7
-1.058, -6.158e-7
-1.057, -6.060e-7
-1.056, -5.872e-7
-1.055, -6.168e-7
-1.054, -6.484e-7
-1.053, -6.099e-7
-1.052, -6.119e-7
-1.051, -6.148e-7
-1.050, -6.425e-7
-1.049, -6.346e-7
-1.048, -6.514e-7
-1.047, -6.415e-7
-1.046, -6.346e-7
-1.045, -6.287e-7
-1.044, -6.444e-7
-1.043, -6.583e-7
-1.042, -6.326e-7
-1.041, -6.395e-7
-1.040, -6.474e-7
-1.039, -6.444e-7
-1.038, -6.563e-7
-1.037, -6.484e-7
-1.036, -6.543e-7
-1.035, -6.592e-7
-1.034, -6.750e-7
-1.033, -6.701e-7
-1.032, -6.711e-7
-1.031, -6.612e-7
-1.030, -6.888e-7
-1.029, -6.908e-7
-1.028, -6.819e-7
-1.027, -7.017e-7
-1.026, -6.681e-7
-1.025, -6.869e-7
-1.024, -7.145e-7
-1.023, -7.204e-7
-1.022, -7.036e-7
-1.021, -6.770e-7
-1.020, -7.105e-7
-1.019, -7.056e-7
-1.018, -6.967e-7
-1.017, -7.017e-7
-1.016, -7.155e-7
-1.015, -7.076e-7
-1.014, -7.086e-7
-1.013, -7.253e-7
-1.012, -7.125e-7
-1.011, -7.184e-7
-1.010, -7.115e-7
-1.009, -7.332e-7
-1.008, -7.263e-7
-1.007, -7.332e-7
-1.006, -7.027e-7
-1.005, -7.253e-7
-1.004, -7.510e-7
-1.003, -7.362e-7
-1.002, -7.470e-7
-1.001, -7.204e-7
