Potential V vs RHE, Current mA cm-2
0.013299999999999867,-0.04582249900262853
0.012299999999999978,-1.7033124050375041
0.011299999999999866,-3.1859298472960624
0.010299999999999976,-4.582249900262854
0.009299999999999864,-5.977155241929781
0.008299999999999974,-7.28576319430494
0.007299999999999862,-8.55051509638428
0.006299999999999972,-9.81668170976349
0.00529999999999986,-10.949865460955383
0.0042999999999999705,-12.084463923447142
0.0032999999999998586,-13.175206335643086
0.0022999999999999687,-14.175407224647667
0.0012999999999998568,-15.137410908555893
0.00029999999999996696,-15.972090575476265
-0.000700000000000145,-16.835064468393938
-0.0017000000000000348,-17.71218547431026
-0.0027000000000001467,-18.589306480226583
-0.0037000000000000366,-19.409839034148305
-0.0047000000000001485,-20.244518701068674
-0.005700000000000038,-21.022609915994444
-0.00670000000000015,-21.729965565926964
-0.00770000000000004,-22.38073276386488
-0.008700000000000152,-23.031499961802798
-0.009700000000000042,-23.682267159740714
-0.010700000000000154,-24.290593018682678
-0.011700000000000044,-24.9130659906233
-0.012700000000000156,-25.478950510569312
-0.013700000000000045,-26.044835030515326
-0.014700000000000157,-26.568278211465387
-0.015700000000000047,-27.091721392415455
-0.01670000000000016,-27.572723234369565
-0.01770000000000005,-27.954695285333123
-0.01870000000000016,-28.393255788291288
-0.01970000000000005,-28.831816291249446
-0.020700000000000163,-29.22793545521166
-0.021700000000000053,-29.581613280177915
-0.022700000000000164,-29.921143992145527
-0.023700000000000054,-30.274821817111786
-0.024700000000000166,-30.614352529079397
-0.025700000000000056,-30.968030354045652
-0.026700000000000168,-31.321708179011907
-0.027700000000000058,-31.618797551983565
-0.02870000000000017,-31.887592698957924
-0.02970000000000006,-32.09979939393769
-0.03070000000000017,-32.368594540912035
-0.03170000000000006,-32.62324257488775
-0.03270000000000017,-32.892037721862096
-0.03370000000000006,-33.10424441684186
-0.034700000000000175,-33.330598224820264
-0.035700000000000065,-33.50036358080407
-0.03670000000000018,-33.670128936787876
-0.03770000000000007,-33.81160006677438
-0.03870000000000018,-33.93892408376223
-0.03970000000000007,-34.06624810075008
-0.04070000000000018,-34.236013456733886
-0.04170000000000007,-34.41992592571634
-0.04270000000000018,-34.58969128170015
-0.04370000000000007,-34.67457395969205
-0.044700000000000184,-34.75945663768395
-0.045700000000000074,-34.8018979766799
-0.046700000000000186,-34.94336910666641
-0.047700000000000076,-35.02825178465831
-0.04870000000000019,-35.15557580164616
-0.04970000000000008,-35.198017140642115
-0.05070000000000019,-35.240458479638065
-0.05170000000000008,-35.282899818634014
-0.05270000000000019,-35.38192960962457
-0.05370000000000008,-35.46681228761647
-0.05470000000000019,-35.594136304604326
-0.05570000000000008,-35.636577643600276
-0.056700000000000195,-35.594136304604326
-0.057700000000000085,-35.594136304604326
-0.058700000000000196,-35.55169496560837
-0.059700000000000086,-35.594136304604326
-0.0607000000000002,-35.594136304604326
-0.06170000000000009,-35.679018982596226
-0.0627000000000002,-35.679018982596226
-0.06370000000000009,-35.594136304604326
-0.0647000000000002,-35.55169496560837
-0.06570000000000009,-35.55169496560837
-0.0667000000000002,-35.594136304604326
-0.0677000000000001,-35.636577643600276
-0.0687000000000002,-35.636577643600276
-0.0697000000000001,-35.594136304604326
-0.07070000000000021,-35.55169496560837
-0.0717000000000001,-35.50925362661242
-0.07270000000000021,-35.50925362661242
-0.0737000000000001,-35.55169496560837
-0.07470000000000021,-35.55169496560837
-0.0757000000000001,-35.55169496560837
-0.07670000000000021,-35.50925362661242
-0.0777000000000001,-35.46681228761647
-0.07870000000000021,-35.38192960962457
-0.0797000000000001,-35.282899818634014
-0.08070000000000022,-35.198017140642115
-0.0817000000000001,-35.15557580164616
-0.08270000000000022,-35.11313446265021
-0.08370000000000011,-35.15557580164616
-0.08470000000000022,-35.198017140642115
-0.08570000000000011,-35.198017140642115
-0.08670000000000022,-35.15557580164616
-0.08770000000000011,-35.02825178465831
-0.08870000000000022,-34.85848642867451
-0.08970000000000011,-34.8018979766799
-0.09070000000000022,-34.75945663768395
-0.09170000000000011,-34.75945663768395
-0.09270000000000023,-34.75945663768395
-0.09370000000000012,-34.75945663768395
-0.09470000000000023,-34.75945663768395
-0.09570000000000012,-34.717015298688004
-0.09670000000000023,-34.67457395969205
-0.09770000000000012,-34.632132620696105
-0.09870000000000023,-34.58969128170015
-0.09970000000000012,-34.50480860370825
-0.10070000000000023,-34.462367264712285
-0.10170000000000012,-34.462367264712285
-0.10270000000000024,-34.462367264712285
-0.10370000000000013,-34.41992592571634
-0.10470000000000024,-34.278454795729836
-0.10570000000000013,-34.193572117737936
-0.10670000000000024,-34.15113077874198
-0.10770000000000013,-34.15113077874198
-0.10870000000000024,-34.15113077874198
-0.10970000000000013,-34.15113077874198
-0.11070000000000024,-34.10868943974604
-0.11170000000000013,-34.10868943974604
-0.11270000000000002,-34.10868943974604
-0.11370000000000013,-34.06624810075008
-0.11470000000000002,-34.06624810075008
-0.11570000000000014,-34.10868943974604
-0.11670000000000003,-34.06624810075008
-0.11770000000000014,-34.02380676175414
-0.11870000000000003,-33.98136542275818
-0.11970000000000014,-33.85404140577033
-0.12070000000000003,-33.81160006677438
-0.12170000000000014,-33.712570275783825
-0.12270000000000003,-33.670128936787876
-0.12370000000000014,-33.712570275783825
-0.12470000000000003,-33.755011614779775
-0.12570000000000014,-33.755011614779775
-0.12670000000000003,-33.670128936787876
-0.12770000000000015,-33.54280491980002
-0.12870000000000004,-33.50036358080407
-0.12970000000000015,-33.45792224180811
-0.13070000000000004,-33.45792224180811
-0.13170000000000015,-33.50036358080407
-0.13270000000000004,-33.54280491980002
-0.13370000000000015,-33.54280491980002
-0.13470000000000004,-33.54280491980002
-0.13570000000000015,-33.54280491980002
-0.13670000000000004,-33.54280491980002
-0.13770000000000016,-33.54280491980002
-0.13870000000000005,-33.50036358080407
-0.13970000000000016,-33.45792224180811
-0.14070000000000005,-33.41548090281216
-0.14170000000000016,-33.41548090281216
-0.14270000000000005,-33.41548090281216
-0.14370000000000016,-33.50036358080407
-0.14470000000000005,-33.54280491980002
-0.14570000000000016,-33.50036358080407
-0.14670000000000005,-33.41548090281216
-0.14770000000000016,-33.330598224820264
-0.14870000000000005,-33.373039563816214
-0.14970000000000017,-33.373039563816214
-0.15070000000000006,-33.41548090281216
-0.15170000000000017,-33.45792224180811
-0.15270000000000006,-33.45792224180811
-0.15370000000000017,-33.50036358080407
-0.15470000000000006,-33.50036358080407
-0.15570000000000017,-33.54280491980002
-0.15670000000000006,-33.58524625879597
-0.15770000000000017,-33.58524625879597
-0.15870000000000006,-33.54280491980002
-0.15970000000000018,-33.45792224180811
-0.16070000000000007,-33.45792224180811
-0.16170000000000018,-33.50036358080407
-0.16270000000000007,-33.54280491980002
-0.16370000000000018,-33.627687597791926
-0.16470000000000007,-33.627687597791926
-0.16570000000000018,-33.58524625879597
-0.16670000000000007,-33.54280491980002
-0.16770000000000018,-33.54280491980002
-0.16870000000000007,-33.54280491980002
-0.16970000000000018,-33.627687597791926
-0.17070000000000007,-33.670128936787876
-0.17170000000000019,-33.712570275783825
-0.17270000000000008,-33.712570275783825
-0.1737000000000002,-33.755011614779775
-0.17470000000000008,-33.81160006677438
-0.1757000000000002,-33.89648274476628
-0.17670000000000008,-33.89648274476628
-0.1777000000000002,-33.89648274476628
-0.17870000000000008,-33.85404140577033
-0.1797000000000002,-33.85404140577033
-0.18070000000000008,-33.85404140577033
-0.1817000000000002,-33.93892408376223
-0.18270000000000008,-33.93892408376223
-0.1837000000000002,-33.89648274476628
-0.1847000000000001,-33.85404140577033
-0.1857000000000002,-33.85404140577033
-0.1867000000000001,-33.89648274476628
-0.1877000000000002,-33.98136542275818
-0.1887000000000001,-34.06624810075008
-0.1897000000000002,-34.06624810075008
-0.1907000000000001,-34.06624810075008
-0.1917000000000001,-34.10868943974604
-0.19269999999999998,-34.15113077874198
-0.1937000000000001,-34.236013456733886
-0.19469999999999998,-34.278454795729836
-0.1957000000000001,-34.33504324772444
-0.19669999999999999,-34.278454795729836
-0.1977000000000001,-34.278454795729836
-0.1987,-34.236013456733886
-0.1997000000000001,-34.193572117737936
-0.2007,-34.236013456733886
-0.2017000000000001,-34.33504324772444
-0.2027,-34.41992592571634
-0.2037000000000001,-34.462367264712285
-0.2047,-34.41992592571634
-0.2057000000000001,-34.377484586720385
-0.2067,-34.377484586720385
-0.2077000000000001,-34.41992592571634
-0.2087,-34.462367264712285
-0.2097000000000001,-34.50480860370825
-0.2107,-34.5472499427042
-0.2117000000000001,-34.5472499427042
-0.2127,-34.5472499427042
-0.2137000000000001,-34.58969128170015
-0.2147,-34.717015298688004
-0.2157000000000001,-34.8018979766799
-0.2167,-34.8018979766799
-0.21770000000000012,-34.8018979766799
-0.2187,-34.75945663768395
-0.21970000000000012,-34.75945663768395
-0.2207,-34.717015298688004
-0.22170000000000012,-34.75945663768395
-0.2227,-34.85848642867451
-0.22370000000000012,-34.90092776767045
-0.2247,-34.90092776767045
-0.22570000000000012,-34.8018979766799
-0.2267,-34.8018979766799
-0.22770000000000012,-34.8018979766799
-0.22870000000000001,-34.90092776767045
-0.22970000000000013,-34.94336910666641
-0.23070000000000002,-34.98581044566235
-0.23170000000000013,-34.94336910666641
-0.23270000000000002,-34.98581044566235
-0.23370000000000013,-35.02825178465831
-0.23470000000000002,-35.07069312365426
-0.23570000000000013,-35.11313446265021
-0.23670000000000002,-35.15557580164616
-0.2376999999999999,-35.11313446265021
-0.23870000000000002,-35.11313446265021
-0.2396999999999999,-35.02825178465831
-0.24070000000000003,-35.02825178465831
-0.24169999999999991,-35.02825178465831
-0.24270000000000003,-35.02825178465831
-0.24369999999999992,-35.11313446265021
-0.24470000000000003,-35.198017140642115
-0.24569999999999992,-35.240458479638065
-0.24670000000000003,-35.15557580164616
-0.24769999999999992,-35.07069312365426
-0.24870000000000003,-35.02825178465831
-0.24969999999999992,-35.02825178465831
-0.25070000000000003,-35.07069312365426
-0.2516999999999999,-35.15557580164616
-0.25270000000000004,-35.198017140642115
-0.2536999999999999,-35.198017140642115
-0.25470000000000004,-35.198017140642115
-0.2556999999999999,-35.240458479638065
-0.25670000000000004,-35.282899818634014
-0.25769999999999993,-35.282899818634014
-0.25870000000000004,-35.240458479638065
-0.25969999999999993,-35.198017140642115
-0.26070000000000004,-35.15557580164616
-0.26169999999999993,-35.15557580164616
-0.26270000000000004,-35.15557580164616
-0.26369999999999993,-35.240458479638065
-0.26470000000000005,-35.282899818634014
-0.26569999999999994,-35.282899818634014
-0.26670000000000005,-35.240458479638065
-0.26769999999999994,-35.15557580164616
-0.26870000000000005,-35.07069312365426
-0.26969999999999994,-35.11313446265021
-0.27070000000000005,-35.198017140642115
-0.27169999999999994,-35.240458479638065
-0.27270000000000005,-35.240458479638065
-0.27369999999999994,-35.240458479638065
-0.27470000000000006,-35.240458479638065
-0.27569999999999995,-35.282899818634014
-0.27670000000000006,-35.32534115762997
-0.27769999999999995,-35.32534115762997
-0.27870000000000006,-35.32534115762997
-0.27969999999999995,-35.282899818634014
-0.28070000000000006,-35.240458479638065
-0.28169999999999995,-35.240458479638065
-0.28270000000000006,-35.240458479638065
-0.28369999999999995,-35.32534115762997
-0.28470000000000006,-35.42437094862052
-0.28569999999999995,-35.38192960962457
-0.28670000000000007,-35.282899818634014
-0.28769999999999996,-35.15557580164616
-0.28870000000000007,-35.11313446265021
-0.28969999999999996,-35.15557580164616
-0.29070000000000007,-35.240458479638065
-0.29169999999999996,-35.32534115762997
-0.29270000000000007,-35.38192960962457
-0.29369999999999996,-35.38192960962457
-0.2947000000000001,-35.42437094862052
-0.29569999999999996,-35.42437094862052
-0.2967000000000001,-35.46681228761647
-0.29769999999999996,-35.46681228761647
-0.2987000000000001,-35.46681228761647
-0.29969999999999997,-35.46681228761647
-0.3007000000000001,-35.46681228761647
-0.30169999999999997,-35.46681228761647
-0.3027000000000001,-35.46681228761647
-0.30369999999999997,-35.46681228761647
-0.3047000000000001,-35.50925362661242
-0.30569999999999997,-35.55169496560837
-0.3067000000000001,-35.594136304604326
-0.3077,-35.679018982596226
-0.3087000000000001,-35.636577643600276
-0.3097,-35.55169496560837
-0.3107000000000001,-35.55169496560837
-0.3117,-35.55169496560837
-0.3127000000000001,-35.636577643600276
-0.3137,-35.721460321592176
-0.3147000000000001,-35.848784338580025
-0.3157,-35.90537279057463
-0.3167000000000001,-35.90537279057463
-0.3177,-35.94781412957058
-0.3187000000000001,-35.99025546856653
-0.3197,-35.99025546856653
-0.3207000000000001,-36.03269680756248
-0.3217,-36.07513814655844
-0.3227000000000001,-36.11757948555439
-0.3237,-36.16002082455034
-0.3247000000000001,-36.20246216354629
-0.3257,-36.28734484153819
-0.3267000000000001,-36.37222751953009
-0.3277,-36.47125731052064
-0.3287000000000001,-36.5136986495166
-0.3297,-36.47125731052064
-0.3307000000000001,-36.4288159715247
-0.3317,-36.5136986495166
-0.3327000000000001,-36.64102266650445
-0.3337,-36.768346683492304
-0.3347000000000001,-36.95225915247476
-0.3357,-36.99470049147071
-0.3367000000000001,-37.07958316946261
-0.3377,-37.122024508458566
-0.3387000000000001,-37.206907186450465
-0.3397,-37.291789864442364
-0.3407000000000001,-37.376672542434264
-0.3417,-37.47570233342482
-0.3427000000000001,-37.56058501141672
-0.3437,-37.645467689408626
-0.3447000000000001,-37.77279170639648
-0.3457,-37.85767438438838
-0.3467000000000001,-37.94255706238028
-0.3477,-38.04158685337084
-0.3487000000000001,-38.12646953136274
-0.3497,-38.253793548350586
-0.3507000000000001,-38.42355890433439
-0.3517,-38.522588695324956
-0.3527000000000001,-38.5650300343209
-0.3537,-38.6499127123128
-0.3547000000000001,-38.777236729300654
-0.3557,-38.98944342428042
-0.35670000000000013,-39.173355893262865
-0.3577,-39.30067991025072
-0.35870000000000013,-39.42800392723857
-0.3597,-39.51288660523048
-0.36070000000000013,-39.654357735216976
-0.3617,-39.86656443019674
-0.3626999999999999,-40.03632978618054
-0.3637,-40.26268359415894
-0.3646999999999999,-40.3900076111468
-0.3657,-40.559772967130606
-0.3666999999999999,-40.701244097117105
-0.3677,-40.87100945310091
-0.3686999999999999,-41.083216148080666
-0.36970000000000003,-41.30956995605907
-0.3706999999999999,-41.43689397304693
-0.37170000000000003,-41.52177665103883
-0.3726999999999999,-41.606659329030734
-0.37370000000000003,-41.83301313700913
-0.3746999999999999,-42.130102509980794
-0.37570000000000003,-42.4413389959511
-0.3766999999999999,-42.71013414292546
-0.37770000000000004,-42.87989949890926
-0.3786999999999999,-43.04966485489307
-0.37970000000000004,-43.23357732387552
-0.3806999999999999,-43.48822535785123
-0.38170000000000004,-43.75702050482558
-0.38269999999999993,-44.054109877797245
-0.38370000000000004,-44.3229050247716
-0.38469999999999993,-44.577553058747306
-0.38570000000000004,-44.80390686672572
-0.38669999999999993,-43.84190318281749
-0.38570000000000004,-40.828568114104954
-0.38469999999999993,-38.16891087035869
-0.38370000000000004,-35.763901660588125
-0.38269999999999993,-33.58524625879597
-0.38170000000000004,-31.49147353499572
-0.3806999999999999,-29.525024828183312
-0.37970000000000004,-27.700047251357418
-0.3786999999999999,-26.002393691519377
-0.37770000000000004,-24.474505487665134
-0.3766999999999999,-23.031499961802798
-0.37570000000000003,-21.63093577493641
-0.3746999999999999,-20.286960040064624
-0.37370000000000003,-19.01371987018609
-0.3726999999999999,-17.839509491298113
-0.37170000000000003,-16.750181790402035
-0.3706999999999999,-15.70329542850191
-0.36970000000000003,-14.69885040559773
-0.3686999999999999,-13.741090855589102
-0.3677,-12.825772644576423
-0.3666999999999999,-11.909039722263879
-0.3657,-11.037577561547016
-0.3646999999999999,-10.208556739826104
-0.3637,-9.423391968401008
-0.3626999999999999,-8.68208324727173
-0.3617,-7.940774526142452
-0.36070000000000013,-7.243321855308987
-0.3597,-6.54445447317566
-0.35870000000000013,-5.9347139029338285
-0.3577,-5.367414671687949
-0.35670000000000013,-4.756259390146253
-0.3557,-4.146518819904423
-0.3547000000000001,-3.5353635383627267
-0.3537,-2.968064307116847
-0.3527000000000001,-2.4007650758709675
-0.3517,-1.8773218949209036
-0.3507000000000001,-1.3543031273607997
-0.3497,-0.8745745255765657
-0.3487000000000001,-0.3947044526623452
-0.3477,0.08502414912188871
-0.3467000000000001,0.5211796428702795
-0.3457,1.0010497157844997
-0.3447000000000001,1.4812027309586933
-0.3437,1.9607898616129409
-0.3427000000000001,2.396520941971372
-0.3417,2.7898106833338523
-0.3407000000000001,3.1816857133964676
-0.3397,3.5749754547589476
-0.3387000000000001,3.922994434525747
-0.3377,4.316284175888227
-0.3367000000000001,4.708159205950842
-0.3357,5.101448947313322
-0.3347000000000001,5.493323977375938
-0.3337,5.8427576684426015
-0.3327000000000001,6.234632698505217
-0.3317,6.5840663895718805
-0.3307000000000001,6.933500080638546
-0.3297,7.237663010109527
-0.3287000000000001,7.543240650880375
-0.3277,7.848818291651225
-0.3267000000000001,8.198251982717888
-0.3257,8.459973573192919
-0.3247000000000001,8.80799255295972
-0.3237,9.157426244026382
-0.3227000000000001,9.463003884797232
-0.3217,9.768581525568079
-0.3207000000000001,10.03030311604311
-0.3197,10.334466045514093
-0.3187000000000001,10.596187635989125
-0.3177,10.815467887468206
-0.3167000000000001,11.077189477943236
-0.3157,11.38135240741422
-0.3147000000000001,11.686930048185067
-0.3137,11.992507688955916
-0.3127000000000001,12.254229279430946
-0.3117,12.515950869905978
-0.3107000000000001,12.77767246038101
-0.3097,12.995538000560227
-0.3087000000000001,13.213403540739444
-0.3077,13.431269080918659
-0.3067000000000001,13.65054933239774
-0.30569999999999997,13.91227092287277
-0.3047000000000001,14.175407224647667
-0.30369999999999997,14.472496597619326
-0.3027000000000001,14.69885040559773
-0.30169999999999997,14.911057100577487
-0.3007000000000001,15.05252823056399
-0.29969999999999997,15.222293586547794
-0.2987000000000001,15.3920589425316
-0.29769999999999996,15.660854089505953
-0.2967000000000001,15.87306078448571
-0.29569999999999996,16.141855931460068
-0.2947000000000001,16.354062626439823
-0.29369999999999996,16.52382798242363
-0.29270000000000007,16.750181790402035
-0.29169999999999996,16.962388485381787
-0.29070000000000007,17.146300954364243
-0.28969999999999996,17.316066310348052
-0.28870000000000007,17.48583166633185
-0.28769999999999996,17.613155683319707
-0.28670000000000007,17.839509491298113
-0.28569999999999995,18.009274847281915
-0.28470000000000006,18.19318731626437
-0.28369999999999995,18.40539401124413
-0.28270000000000006,18.57515936722793
-0.28169999999999995,18.759071836210385
-0.28070000000000006,18.88639585319824
-0.27969999999999995,18.97127853119014
-0.27870000000000006,19.056161209182044
-0.27769999999999995,19.22592656516585
-0.27670000000000006,19.409839034148305
-0.27569999999999995,19.622045729128057
-0.27470000000000006,19.805958198110513
-0.27369999999999994,20.01816489309027
-0.27270000000000005,20.14548891007812
-0.27169999999999994,20.272812927065978
-0.27070000000000005,20.456725396048434
-0.26969999999999994,20.584049413036283
-0.26870000000000005,20.668932091028186
-0.26769999999999994,20.79625610801604
-0.26670000000000005,20.980168576998494
-0.26569999999999994,21.107492593986347
-0.26470000000000005,21.277257949970153
