Dec. 21, 2024   02:40:40
Cyclic Voltammetry
File: c:/users/guazh/data/banditlqround7_x0exp667_r5/2024-12-16-exp717\exp717-2024-12-21t02_24_43-h2koh\exp717_cv_sr_700mvs_efin_-1600mv.bin
Data Source:  Experiment
Instrument Model:  CHI760E
Header: CV ran at 700 mVs
Note: 

Init E (V) = -1
High E (V) = -1
Low E (V) = -1.6
Final E (V) = -1
Init P/N = N
Scan Rate (V/s) = 0.7
Segment = 3
Sample Interval (V) = 0.001
Quiet Time (sec) = 2
Sensitivity (A/V) = 0.01
Comp R (ohm) = 1.4

Results:

Channel 1:
Segment 1:

Segment 2:

Segment 3:

Potential/V, Current/A

-1.000, 6.322e-6
-1.001, 6.322e-6
-1.002, 6.322e-6
-1.003, 6.322e-6
-1.004, 6.322e-6
-1.005, 6.322e-6
-1.006, 6.322e-6
-1.007, 6.322e-6
-1.008, 6.322e-6
-1.009, 6.322e-6
-1.010, 9.405e-6
-1.011, 9.405e-6
-1.012, 9.405e-6
-1.013, 9.405e-6
-1.014, 9.405e-6
-1.015, 9.405e-6
-1.016, 9.405e-6
-1.017, 9.405e-6
-1.018, 9.405e-6
-1.019, 9.405e-6
-1.020, 9.405e-6
-1.021, 9.405e-6
-1.022, 1.249e-5
-1.023, 9.405e-6
-1.024, 9.405e-6
-1.025, 9.405e-6
-1.026, 1.249e-5
-1.027, 9.405e-6
-1.028, 1.249e-5
-1.029, 9.405e-6
-1.030, 9.405e-6
-1.031, 9.405e-6
-1.032, 1.249e-5
-1.033, 1.249e-5
-1.034, 1.249e-5
-1.035, 1.249e-5
-1.036, 1.249e-5
-1.037, 1.249e-5
-1.038, 1.249e-5
-1.039, 1.249e-5
-1.040, 1.249e-5
-1.041, 1.249e-5
-1.042, 1.249e-5
-1.043, 1.249e-5
-1.044, 1.249e-5
-1.045, 1.249e-5
-1.046, 1.557e-5
-1.047, 1.249e-5
-1.048, 1.249e-5
-1.049, 1.249e-5
-1.050, 1.249e-5
-1.051, 1.249e-5
-1.052, 1.249e-5
-1.053, 1.249e-5
-1.054, 1.249e-5
-1.055, 1.557e-5
-1.056, 1.557e-5
-1.057, 1.557e-5
-1.058, 1.557e-5
-1.059, 1.557e-5
-1.060, 1.557e-5
-1.061, 1.557e-5
-1.062, 1.557e-5
-1.063, 1.557e-5
-1.064, 1.557e-5
-1.065, 1.249e-5
-1.066, 1.557e-5
-1.067, 1.557e-5
-1.068, 1.557e-5
-1.069, 1.557e-5
-1.070, 1.557e-5
-1.071, 1.557e-5
-1.072, 1.557e-5
-1.073, 1.557e-5
-1.074, 1.557e-5
-1.075, 1.557e-5
-1.076, 1.557e-5
-1.077, 1.557e-5
-1.078, 1.557e-5
-1.079, 1.557e-5
-1.080, 1.557e-5
-1.081, 1.865e-5
-1.082, 1.865e-5
-1.083, 1.865e-5
-1.084, 1.865e-5
-1.085, 1.557e-5
-1.086, 1.865e-5
-1.087, 1.865e-5
-1.088, 1.865e-5
-1.089, 1.865e-5
-1.090, 1.865e-5
-1.091, 1.865e-5
-1.092, 1.865e-5
-1.093, 1.865e-5
-1.094, 1.865e-5
-1.095, 1.865e-5
-1.096, 1.865e-5
-1.097, 1.865e-5
-1.098, 1.865e-5
-1.099, 1.865e-5
-1.100, 1.865e-5
-1.101, 1.865e-5
-1.102, 1.865e-5
-1.103, 1.865e-5
-1.104, 2.174e-5
-1.105, 1.865e-5
-1.106, 1.865e-5
-1.107, 1.865e-5
-1.108, 1.865e-5
-1.109, 1.865e-5
-1.110, 1.865e-5
-1.111, 1.865e-5
-1.112, 1.865e-5
-1.113, 2.174e-5
-1.114, 1.865e-5
-1.115, 2.174e-5
-1.116, 2.174e-5
-1.117, 2.174e-5
-1.118, 2.174e-5
-1.119, 2.174e-5
-1.120, 1.865e-5
-1.121, 2.174e-5
-1.122, 2.174e-5
-1.123, 2.174e-5
-1.124, 2.174e-5
-1.125, 2.174e-5
-1.126, 2.174e-5
-1.127, 2.174e-5
-1.128, 2.174e-5
-1.129, 2.174e-5
-1.130, 2.174e-5
-1.131, 2.174e-5
-1.132, 2.174e-5
-1.133, 2.174e-5
-1.134, 2.174e-5
-1.135, 2.174e-5
-1.136, 2.174e-5
-1.137, 2.174e-5
-1.138, 2.174e-5
-1.139, 2.174e-5
-1.140, 2.482e-5
-1.141, 2.174e-5
-1.142, 2.482e-5
-1.143, 2.174e-5
-1.144, 2.174e-5
-1.145, 2.174e-5
-1.146, 2.174e-5
-1.147, 2.482e-5
-1.148, 2.174e-5
-1.149, 2.174e-5
-1.150, 2.174e-5
-1.151, 2.482e-5
-1.152, 2.174e-5
-1.153, 2.482e-5
-1.154, 2.174e-5
-1.155, 2.482e-5
-1.156, 2.482e-5
-1.157, 2.482e-5
-1.158, 2.482e-5
-1.159, 2.482e-5
-1.160, 2.482e-5
-1.161, 2.482e-5
-1.162, 2.482e-5
-1.163, 2.482e-5
-1.164, 2.482e-5
-1.165, 2.482e-5
-1.166, 2.482e-5
-1.167, 2.482e-5
-1.168, 2.482e-5
-1.169, 2.482e-5
-1.170, 2.482e-5
-1.171, 2.482e-5
-1.172, 2.482e-5
-1.173, 2.482e-5
-1.174, 2.482e-5
-1.175, 2.482e-5
-1.176, 2.482e-5
-1.177, 2.482e-5
-1.178, 2.482e-5
-1.179, 2.482e-5
-1.180, 2.482e-5
-1.181, 2.482e-5
-1.182, 2.482e-5
-1.183, 2.482e-5
-1.184, 2.482e-5
-1.185, 2.482e-5
-1.186, 2.790e-5
-1.187, 2.482e-5
-1.188, 2.482e-5
-1.189, 2.482e-5
-1.190, 2.482e-5
-1.191, 2.482e-5
-1.192, 2.482e-5
-1.193, 2.482e-5
-1.194, 2.482e-5
-1.195, 2.482e-5
-1.196, 2.482e-5
-1.197, 2.790e-5
-1.198, 2.790e-5
-1.199, 2.482e-5
-1.200, 2.790e-5
-1.201, 2.482e-5
-1.202, 2.482e-5
-1.203, 2.482e-5
-1.204, 2.790e-5
-1.205, 2.482e-5
-1.206, 2.482e-5
-1.207, 2.790e-5
-1.208, 2.482e-5
-1.209, 2.790e-5
-1.210, 2.790e-5
-1.211, 2.790e-5
-1.212, 2.482e-5
-1.213, 2.790e-5
-1.214, 2.790e-5
-1.215, 2.790e-5
-1.216, 2.790e-5
-1.217, 2.790e-5
-1.218, 2.790e-5
-1.219, 2.790e-5
-1.220, 2.790e-5
-1.221, 2.790e-5
-1.222, 2.790e-5
-1.223, 2.790e-5
-1.224, 2.790e-5
-1.225, 2.790e-5
-1.226, 2.790e-5
-1.227, 2.790e-5
-1.228, 2.790e-5
-1.229, 2.790e-5
-1.230, 2.790e-5
-1.231, 2.790e-5
-1.232, 2.790e-5
-1.233, 2.790e-5
-1.234, 2.790e-5
-1.235, 2.790e-5
-1.236, 2.790e-5
-1.237, 2.790e-5
-1.238, 2.790e-5
-1.239, 2.790e-5
-1.240, 2.790e-5
-1.241, 2.790e-5
-1.242, 2.790e-5
-1.243, 2.790e-5
-1.244, 2.790e-5
-1.245, 2.790e-5
-1.246, 2.790e-5
-1.247, 2.790e-5
-1.248, 2.790e-5
-1.249, 2.790e-5
-1.250, 2.790e-5
-1.251, 2.790e-5
-1.252, 2.790e-5
-1.253, 2.790e-5
-1.254, 2.790e-5
-1.255, 2.790e-5
-1.256, 2.790e-5
-1.257, 2.790e-5
-1.258, 2.790e-5
-1.259, 2.790e-5
-1.260, 2.790e-5
-1.261, 2.790e-5
-1.262, 2.790e-5
-1.263, 2.790e-5
-1.264, 2.790e-5
-1.265, 2.790e-5
-1.266, 2.790e-5
-1.267, 2.790e-5
-1.268, 2.790e-5
-1.269, 2.790e-5
-1.270, 2.790e-5
-1.271, 3.099e-5
-1.272, 2.790e-5
-1.273, 2.790e-5
-1.274, 3.099e-5
-1.275, 2.790e-5
-1.276, 2.790e-5
-1.277, 2.790e-5
-1.278, 3.099e-5
-1.279, 3.099e-5
-1.280, 3.099e-5
-1.281, 2.790e-5
-1.282, 3.099e-5
-1.283, 3.099e-5
-1.284, 3.099e-5
-1.285, 3.099e-5
-1.286, 3.099e-5
-1.287, 3.099e-5
-1.288, 3.099e-5
-1.289, 3.099e-5
-1.290, 3.099e-5
-1.291, 3.099e-5
-1.292, 3.099e-5
-1.293, 3.099e-5
-1.294, 3.099e-5
-1.295, 3.099e-5
-1.296, 3.099e-5
-1.297, 3.099e-5
-1.298, 3.407e-5
-1.299, 3.099e-5
-1.300, 3.099e-5
-1.301, 3.099e-5
-1.302, 3.099e-5
-1.303, 3.407e-5
-1.304, 3.407e-5
-1.305, 3.407e-5
-1.306, 3.407e-5
-1.307, 3.407e-5
-1.308, 3.407e-5
-1.309, 3.407e-5
-1.310, 3.407e-5
-1.311, 3.407e-5
-1.312, 3.407e-5
-1.313, 3.407e-5
-1.314, 3.715e-5
-1.315, 3.715e-5
-1.316, 3.715e-5
-1.317, 3.715e-5
-1.318, 3.715e-5
-1.319, 3.715e-5
-1.320, 3.715e-5
-1.321, 4.024e-5
-1.322, 4.024e-5
-1.323, 4.024e-5
-1.324, 4.024e-5
-1.325, 4.024e-5
-1.326, 4.332e-5
-1.327, 4.332e-5
-1.328, 4.024e-5
-1.329, 4.332e-5
-1.330, 4.332e-5
-1.331, 4.332e-5
-1.332, 4.640e-5
-1.333, 4.640e-5
-1.334, 4.640e-5
-1.335, 4.640e-5
-1.336, 4.949e-5
-1.337, 4.949e-5
-1.338, 5.257e-5
-1.339, 4.949e-5
-1.340, 5.257e-5
-1.341, 5.257e-5
-1.342, 5.257e-5
-1.343, 5.565e-5
-1.344, 5.565e-5
-1.345, 5.565e-5
-1.346, 5.873e-5
-1.347, 6.182e-5
-1.348, 6.182e-5
-1.349, 6.490e-5
-1.350, 6.490e-5
-1.351, 6.490e-5
-1.352, 6.798e-5
-1.353, 7.107e-5
-1.354, 7.107e-5
-1.355, 7.415e-5
-1.356, 7.723e-5
-1.357, 7.723e-5
-1.358, 8.032e-5
-1.359, 8.340e-5
-1.360, 8.340e-5
-1.361, 8.648e-5
-1.362, 8.957e-5
-1.363, 9.265e-5
-1.364, 9.573e-5
-1.365, 9.882e-5
-1.366, 1.019e-4
-1.367, 1.050e-4
-1.368, 1.081e-4
-1.369, 1.111e-4
-1.370, 1.142e-4
-1.371, 1.173e-4
-1.372, 1.235e-4
-1.373, 1.266e-4
-1.374, 1.327e-4
-1.375, 1.358e-4
-1.376, 1.420e-4
-1.377, 1.451e-4
-1.378, 1.512e-4
-1.379, 1.574e-4
-1.380, 1.605e-4
-1.381, 1.666e-4
-1.382, 1.728e-4
-1.383, 1.790e-4
-1.384, 1.882e-4
-1.385, 1.944e-4
-1.386, 2.036e-4
-1.387, 2.098e-4
-1.388, 2.160e-4
-1.389, 2.252e-4
-1.390, 2.345e-4
-1.391, 2.406e-4
-1.392, 2.499e-4
-1.393, 2.591e-4
-1.394, 2.715e-4
-1.395, 2.807e-4
-1.396, 2.931e-4
-1.397, 3.023e-4
-1.398, 3.146e-4
-1.399, 3.270e-4
-1.400, 3.393e-4
-1.401, 3.516e-4
-1.402, 3.640e-4
-1.403, 3.763e-4
-1.404, 3.917e-4
-1.405, 4.071e-4
-1.406, 4.195e-4
-1.407, 4.349e-4
-1.408, 4.534e-4
-1.409, 4.688e-4
-1.410, 4.873e-4
-1.411, 5.027e-4
-1.412, 5.212e-4
-1.413, 5.397e-4
-1.414, 5.613e-4
-1.415, 5.798e-4
-1.416, 5.983e-4
-1.417, 6.199e-4
-1.418, 6.414e-4
-1.419, 6.630e-4
-1.420, 6.877e-4
-1.421, 7.093e-4
-1.422, 7.339e-4
-1.423, 7.586e-4
-1.424, 7.833e-4
-1.425, 8.079e-4
-1.426, 8.326e-4
-1.427, 8.603e-4
-1.428, 8.850e-4
-1.429, 9.128e-4
-1.430, 9.405e-4
-1.431, 9.713e-4
-1.432, 1.002e-3
-1.433, 1.033e-3
-1.434, 1.064e-3
-1.435, 1.095e-3
-1.436, 1.129e-3
-1.437, 1.159e-3
-1.438, 1.193e-3
-1.439, 1.224e-3
-1.440, 1.258e-3
-1.441, 1.295e-3
-1.442, 1.332e-3
-1.443, 1.369e-3
-1.444, 1.406e-3
-1.445, 1.446e-3
-1.446, 1.483e-3
-1.447, 1.523e-3
-1.448, 1.563e-3
-1.449, 1.603e-3
-1.450, 1.643e-3
-1.451, 1.680e-3
-1.452, 1.721e-3
-1.453, 1.764e-3
-1.454, 1.810e-3
-1.455, 1.853e-3
-1.456, 1.896e-3
-1.457, 1.943e-3
-1.458, 1.986e-3
-1.459, 2.032e-3
-1.460, 2.078e-3
-1.461, 2.124e-3
-1.462, 2.174e-3
-1.463, 2.220e-3
-1.464, 2.269e-3
-1.465, 2.322e-3
-1.466, 2.374e-3
-1.467, 2.430e-3
-1.468, 2.482e-3
-1.469, 2.534e-3
-1.470, 2.587e-3
-1.471, 2.639e-3
-1.472, 2.692e-3
-1.473, 2.744e-3
-1.474, 2.797e-3
-1.475, 2.849e-3
-1.476, 2.904e-3
-1.477, 2.963e-3
-1.478, 3.022e-3
-1.479, 3.080e-3
-1.480, 3.136e-3
-1.481, 3.197e-3
-1.482, 3.253e-3
-1.483, 3.311e-3
-1.484, 3.367e-3
-1.485, 3.425e-3
-1.486, 3.481e-3
-1.487, 3.543e-3
-1.488, 3.604e-3
-1.489, 3.669e-3
-1.490, 3.734e-3
-1.491, 3.799e-3
-1.492, 3.863e-3
-1.493, 3.928e-3
-1.494, 3.993e-3
-1.495, 4.054e-3
-1.496, 4.116e-3
-1.497, 4.184e-3
-1.498, 4.246e-3
-1.499, 4.313e-3
-1.500, 4.381e-3
-1.501, 4.449e-3
-1.502, 4.517e-3
-1.503, 4.588e-3
-1.504, 4.656e-3
-1.505, 4.727e-3
-1.506, 4.794e-3
-1.507, 4.865e-3
-1.508, 4.933e-3
-1.509, 5.004e-3
-1.510, 5.075e-3
-1.511, 5.149e-3
-1.512, 5.223e-3
-1.513, 5.300e-3
-1.514, 5.377e-3
-1.515, 5.454e-3
-1.516, 5.531e-3
-1.517, 5.605e-3
-1.518, 5.676e-3
-1.519, 5.747e-3
-1.520, 5.818e-3
-1.521, 5.892e-3
-1.522, 5.963e-3
-1.523, 6.037e-3
-1.524, 6.114e-3
-1.525, 6.191e-3
-1.526, 6.268e-3
-1.527, 6.345e-3
-1.528, 6.422e-3
-1.529, 6.496e-3
-1.530, 6.573e-3
-1.531, 6.647e-3
-1.532, 6.728e-3
-1.533, 6.805e-3
-1.534, 6.888e-3
-1.535, 6.971e-3
-1.536, 7.054e-3
-1.537, 7.141e-3
-1.538, 7.221e-3
-1.539, 7.304e-3
-1.540, 7.384e-3
-1.541, 7.461e-3
-1.542, 7.538e-3
-1.543, 7.615e-3
-1.544, 7.696e-3
-1.545, 7.776e-3
-1.546, 7.856e-3
-1.547, 7.936e-3
-1.548, 8.022e-3
-1.549, 8.106e-3
-1.550, 8.189e-3
-1.551, 8.272e-3
-1.552, 8.352e-3
-1.553, 8.436e-3
-1.554, 8.516e-3
-1.555, 8.599e-3
-1.556, 8.682e-3
-1.557, 8.765e-3
-1.558, 8.855e-3
-1.559, 8.944e-3
-1.560, 9.037e-3
-1.561, 9.126e-3
-1.562, 9.216e-3
-1.563, 9.305e-3
-1.564, 9.391e-3
-1.565, 9.478e-3
-1.566, 9.564e-3
-1.567, 9.650e-3
-1.568, 9.737e-3
-1.569, 9.823e-3
-1.570, 9.912e-3
-1.571, 9.999e-3
-1.572, 1.009e-2
-1.573, 1.017e-2
-1.574, 1.026e-2
-1.575, 1.034e-2
-1.576, 1.042e-2
-1.577, 1.050e-2
-1.578, 1.058e-2
-1.579, 1.066e-2
-1.580, 1.075e-2
-1.581, 1.083e-2
-1.582, 1.092e-2
-1.583, 1.102e-2
-1.584, 1.111e-2
-1.585, 1.122e-2
-1.586, 1.132e-2
-1.587, 1.143e-2
-1.588, 1.153e-2
-1.589, 1.163e-2
-1.590, 1.173e-2
-1.591, 1.182e-2
-1.592, 1.192e-2
-1.593, 1.202e-2
-1.594, 1.213e-2
-1.595, 1.223e-2
-1.596, 1.233e-2
-1.597, 1.243e-2
-1.598, 1.252e-2
-1.599, 1.261e-2
-1.600, 1.263e-2
-1.599, 1.254e-2
-1.598, 1.245e-2
-1.597, 1.235e-2
-1.596, 1.226e-2
-1.595, 1.217e-2
-1.594, 1.208e-2
-1.593, 1.199e-2
-1.592, 1.190e-2
-1.591, 1.181e-2
-1.590, 1.172e-2
-1.589, 1.162e-2
-1.588, 1.153e-2
-1.587, 1.143e-2
-1.586, 1.134e-2
-1.585, 1.125e-2
-1.584, 1.117e-2
-1.583, 1.108e-2
-1.582, 1.099e-2
-1.581, 1.090e-2
-1.580, 1.081e-2
-1.579, 1.072e-2
-1.578, 1.063e-2
-1.577, 1.053e-2
-1.576, 1.043e-2
-1.575, 1.034e-2
-1.574, 1.024e-2
-1.573, 1.016e-2
-1.572, 1.007e-2
-1.571, 9.977e-3
-1.570, 9.891e-3
-1.569, 9.801e-3
-1.568, 9.715e-3
-1.567, 9.626e-3
-1.566, 9.533e-3
-1.565, 9.441e-3
-1.564, 9.348e-3
-1.563, 9.256e-3
-1.562, 9.163e-3
-1.561, 9.080e-3
-1.560, 8.997e-3
-1.559, 8.913e-3
-1.558, 8.830e-3
-1.557, 8.750e-3
-1.556, 8.667e-3
-1.555, 8.587e-3
-1.554, 8.503e-3
-1.553, 8.417e-3
-1.552, 8.334e-3
-1.551, 8.251e-3
-1.550, 8.170e-3
-1.549, 8.087e-3
-1.548, 8.004e-3
-1.547, 7.924e-3
-1.546, 7.844e-3
-1.545, 7.763e-3
-1.544, 7.683e-3
-1.543, 7.603e-3
-1.542, 7.520e-3
-1.541, 7.440e-3
-1.540, 7.356e-3
-1.539, 7.276e-3
-1.538, 7.199e-3
-1.537, 7.122e-3
-1.536, 7.048e-3
-1.535, 6.974e-3
-1.534, 6.900e-3
-1.533, 6.826e-3
-1.532, 6.752e-3
-1.531, 6.672e-3
-1.530, 6.592e-3
-1.529, 6.512e-3
-1.528, 6.432e-3
-1.527, 6.354e-3
-1.526, 6.277e-3
-1.525, 6.206e-3
-1.524, 6.132e-3
-1.523, 6.062e-3
-1.522, 5.988e-3
-1.521, 5.917e-3
-1.520, 5.843e-3
-1.519, 5.769e-3
-1.518, 5.695e-3
-1.517, 5.621e-3
-1.516, 5.547e-3
-1.515, 5.479e-3
-1.514, 5.411e-3
-1.513, 5.343e-3
-1.512, 5.278e-3
-1.511, 5.211e-3
-1.510, 5.146e-3
-1.509, 5.078e-3
-1.508, 5.007e-3
-1.507, 4.939e-3
-1.506, 4.868e-3
-1.505, 4.801e-3
-1.504, 4.730e-3
-1.503, 4.665e-3
-1.502, 4.597e-3
-1.501, 4.535e-3
-1.500, 4.474e-3
-1.499, 4.409e-3
-1.498, 4.350e-3
-1.497, 4.286e-3
-1.496, 4.221e-3
-1.495, 4.159e-3
-1.494, 4.091e-3
-1.493, 4.030e-3
-1.492, 3.968e-3
-1.491, 3.906e-3
-1.490, 3.851e-3
-1.489, 3.792e-3
-1.488, 3.737e-3
-1.487, 3.678e-3
-1.486, 3.623e-3
-1.485, 3.564e-3
-1.484, 3.506e-3
-1.483, 3.447e-3
-1.482, 3.388e-3
-1.481, 3.333e-3
-1.480, 3.274e-3
-1.479, 3.222e-3
-1.478, 3.167e-3
-1.477, 3.114e-3
-1.476, 3.062e-3
-1.475, 3.009e-3
-1.474, 2.960e-3
-1.473, 2.908e-3
-1.472, 2.855e-3
-1.471, 2.806e-3
-1.470, 2.756e-3
-1.469, 2.707e-3
-1.468, 2.661e-3
-1.467, 2.615e-3
-1.466, 2.571e-3
-1.465, 2.525e-3
-1.464, 2.479e-3
-1.463, 2.433e-3
-1.462, 2.386e-3
-1.461, 2.340e-3
-1.460, 2.294e-3
-1.459, 2.248e-3
-1.458, 2.201e-3
-1.457, 2.158e-3
-1.456, 2.112e-3
-1.455, 2.072e-3
-1.454, 2.029e-3
-1.453, 1.989e-3
-1.452, 1.946e-3
-1.451, 1.906e-3
-1.450, 1.865e-3
-1.449, 1.822e-3
-1.448, 1.782e-3
-1.447, 1.742e-3
-1.446, 1.705e-3
-1.445, 1.668e-3
-1.444, 1.634e-3
-1.443, 1.600e-3
-1.442, 1.569e-3
-1.441, 1.536e-3
-1.440, 1.502e-3
-1.439, 1.471e-3
-1.438, 1.437e-3
-1.437, 1.403e-3
-1.436, 1.369e-3
-1.435, 1.338e-3
-1.434, 1.304e-3
-1.433, 1.273e-3
-1.432, 1.246e-3
-1.431, 1.218e-3
-1.430, 1.190e-3
-1.429, 1.162e-3
-1.428, 1.138e-3
-1.427, 1.110e-3
-1.426, 1.082e-3
-1.425, 1.055e-3
-1.424, 1.030e-3
-1.423, 1.005e-3
-1.422, 9.806e-4
-1.421, 9.559e-4
-1.420, 9.343e-4
-1.419, 9.128e-4
-1.418, 8.881e-4
-1.417, 8.696e-4
-1.416, 8.480e-4
-1.415, 8.264e-4
-1.414, 8.048e-4
-1.413, 7.833e-4
-1.412, 7.617e-4
-1.411, 7.401e-4
-1.410, 7.247e-4
-1.409, 7.031e-4
-1.408, 6.877e-4
-1.407, 6.692e-4
-1.406, 6.507e-4
-1.405, 6.353e-4
-1.404, 6.168e-4
-1.403, 6.014e-4
-1.402, 5.859e-4
-1.401, 5.705e-4
-1.400, 5.520e-4
-1.399, 5.397e-4
-1.398, 5.243e-4
-1.397, 5.089e-4
-1.396, 4.965e-4
-1.395, 4.842e-4
-1.394, 4.719e-4
-1.393, 4.595e-4
-1.392, 4.441e-4
-1.391, 4.318e-4
-1.390, 4.225e-4
-1.389, 4.071e-4
-1.388, 3.948e-4
-1.387, 3.855e-4
-1.386, 3.732e-4
-1.385, 3.640e-4
-1.384, 3.547e-4
-1.383, 3.455e-4
-1.382, 3.331e-4
-1.381, 3.239e-4
-1.380, 3.146e-4
-1.379, 3.054e-4
-1.378, 2.961e-4
-1.377, 2.869e-4
-1.376, 2.776e-4
-1.375, 2.715e-4
-1.374, 2.622e-4
-1.373, 2.561e-4
-1.372, 2.468e-4
-1.371, 2.406e-4
-1.370, 2.345e-4
-1.369, 2.283e-4
-1.368, 2.221e-4
-1.367, 2.129e-4
-1.366, 2.067e-4
-1.365, 2.006e-4
-1.364, 1.944e-4
-1.363, 1.882e-4
-1.362, 1.821e-4
-1.361, 1.790e-4
-1.360, 1.728e-4
-1.359, 1.666e-4
-1.358, 1.605e-4
-1.357, 1.574e-4
-1.356, 1.512e-4
-1.355, 1.481e-4
-1.354, 1.420e-4
-1.353, 1.358e-4
-1.352, 1.327e-4
-1.351, 1.296e-4
-1.350, 1.266e-4
-1.349, 1.204e-4
-1.348, 1.173e-4
-1.347, 1.142e-4
-1.346, 1.111e-4
-1.345, 1.050e-4
-1.344, 1.050e-4
-1.343, 1.019e-4
-1.342, 9.573e-5
-1.341, 9.265e-5
-1.340, 8.957e-5
-1.339, 8.648e-5
-1.338, 8.340e-5
-1.337, 8.340e-5
-1.336, 8.032e-5
-1.335, 7.723e-5
-1.334, 7.415e-5
-1.333, 7.107e-5
-1.332, 6.798e-5
-1.331, 6.798e-5
-1.330, 6.490e-5
-1.329, 6.182e-5
-1.328, 6.182e-5
-1.327, 5.873e-5
-1.326, 5.873e-5
-1.325, 5.565e-5
-1.324, 5.257e-5
-1.323, 5.257e-5
-1.322, 4.949e-5
-1.321, 4.640e-5
-1.320, 4.640e-5
-1.319, 4.640e-5
-1.318, 4.332e-5
-1.317, 4.024e-5
-1.316, 4.024e-5
-1.315, 4.024e-5
-1.314, 3.715e-5
-1.313, 3.407e-5
-1.312, 3.407e-5
-1.311, 3.407e-5
-1.310, 3.099e-5
-1.309, 3.099e-5
-1.308, 2.790e-5
-1.307, 2.790e-5
-1.306, 2.482e-5
-1.305, 2.482e-5
-1.304, 2.482e-5
-1.303, 2.482e-5
-1.302, 2.174e-5
-1.301, 2.174e-5
-1.300, 2.174e-5
-1.299, 1.865e-5
-1.298, 1.865e-5
-1.297, 1.865e-5
-1.296, 1.557e-5
-1.295, 1.557e-5
-1.294, 1.557e-5
-1.293, 1.249e-5
-1.292, 1.249e-5
-1.291, 1.249e-5
-1.290, 1.249e-5
-1.289, 1.249e-5
-1.288, 9.405e-6
-1.287, 9.405e-6
-1.286, 9.405e-6
-1.285, 9.405e-6
-1.284, 9.405e-6
-1.283, 9.405e-6
-1.282, 6.322e-6
-1.281, 6.322e-6
-1.280, 6.322e-6
-1.279, 6.322e-6
-1.278, 6.322e-6
-1.277, 6.322e-6
-1.276, 3.239e-6
-1.275, 6.322e-6
-1.274, 3.239e-6
-1.273, 3.239e-6
-1.272, 3.239e-6
-1.271, 3.239e-6
-1.270, 3.239e-6
-1.269, 3.239e-6
-1.268, 3.239e-6
-1.267, 3.239e-6
-1.266, 1.559e-7
-1.265, 1.559e-7
-1.264, 1.559e-7
-1.263, 1.559e-7
-1.262, 1.559e-7
-1.261, 1.559e-7
-1.260, -2.927e-6
-1.259, 1.559e-7
-1.258, 1.559e-7
-1.257, 1.559e-7
-1.256, -2.927e-6
-1.255, -2.927e-6
-1.254, -2.927e-6
-1.253, -2.927e-6
-1.252, -2.927e-6
-1.251, -2.927e-6
-1.250, -2.927e-6
-1.249, -2.927e-6
-1.248, -6.010e-6
-1.247, -2.927e-6
-1.246, -2.927e-6
-1.245, -2.927e-6
-1.244, -2.927e-6
-1.243, -6.010e-6
-1.242, -6.010e-6
-1.241, -6.010e-6
-1.240, -6.010e-6
-1.239, -6.010e-6
-1.238, -6.010e-6
-1.237, -6.010e-6
-1.236, -6.010e-6
-1.235, -6.010e-6
-1.234, -6.010e-6
-1.233, -6.010e-6
-1.232, -6.010e-6
-1.231, -6.010e-6
-1.230, -6.010e-6
-1.229, -9.093e-6
-1.228, -9.093e-6
-1.227, -9.093e-6
-1.226, -6.010e-6
-1.225, -9.093e-6
-1.224, -9.093e-6
-1.223, -9.093e-6
-1.222, -9.093e-6
-1.221, -9.093e-6
-1.220, -9.093e-6
-1.219, -9.093e-6
-1.218, -9.093e-6
-1.217, -9.093e-6
-1.216, -9.093e-6
-1.215, -9.093e-6
-1.214, -9.093e-6
-1.213, -9.093e-6
-1.212, -9.093e-6
-1.211, -9.093e-6
-1.210, -9.093e-6
-1.209, -9.093e-6
-1.208, -9.093e-6
-1.207, -9.093e-6
-1.206, -9.093e-6
-1.205, -9.093e-6
-1.204, -1.218e-5
-1.203, -9.093e-6
-1.202, -1.218e-5
-1.201, -9.093e-6
-1.200, -1.218e-5
-1.199, -9.093e-6
-1.198, -9.093e-6
-1.197, -9.093e-6
-1.196, -1.218e-5
-1.195, -9.093e-6
-1.194, -9.093e-6
-1.193, -1.218e-5
-1.192, -1.218e-5
-1.191, -1.218e-5
-1.190, -1.218e-5
-1.189, -1.218e-5
-1.188, -1.218e-5
-1.187, -1.218e-5
-1.186, -1.218e-5
-1.185, -1.218e-5
-1.184, -1.218e-5
-1.183, -1.218e-5
-1.182, -1.218e-5
-1.181, -1.218e-5
-1.180, -1.218e-5
-1.179, -1.218e-5
-1.178, -1.218e-5
-1.177, -1.218e-5
-1.176, -1.218e-5
-1.175, -1.218e-5
-1.174, -1.218e-5
-1.173, -1.218e-5
-1.172, -1.218e-5
-1.171, -1.218e-5
-1.170, -1.526e-5
-1.169, -1.526e-5
-1.168, -1.218e-5
-1.167, -1.526e-5
-1.166, -1.526e-5
-1.165, -1.526e-5
-1.164, -1.526e-5
-1.163, -1.526e-5
-1.162, -1.218e-5
-1.161, -1.218e-5
-1.160, -1.526e-5
-1.159, -1.526e-5
-1.158, -1.526e-5
-1.157, -1.526e-5
-1.156, -1.526e-5
-1.155, -1.526e-5
-1.154, -1.526e-5
-1.153, -1.526e-5
-1.152, -1.526e-5
-1.151, -1.526e-5
-1.150, -1.526e-5
-1.149, -1.526e-5
-1.148, -1.526e-5
-1.147, -1.834e-5
-1.146, -1.526e-5
-1.145, -1.526e-5
-1.144, -1.526e-5
-1.143, -1.526e-5
-1.142, -1.526e-5
-1.141, -1.526e-5
-1.140, -1.526e-5
-1.139, -1.526e-5
-1.138, -1.526e-5
-1.137, -1.526e-5
-1.136, -1.834e-5
-1.135, -1.834e-5
-1.134, -1.834e-5
-1.133, -1.834e-5
-1.132, -1.526e-5
-1.131, -1.834e-5
-1.130, -1.834e-5
-1.129, -1.834e-5
-1.128, -1.834e-5
-1.127, -1.834e-5
-1.126, -1.834e-5
-1.125, -1.834e-5
-1.124, -1.834e-5
-1.123, -1.834e-5
-1.122, -1.834e-5
-1.121, -1.834e-5
-1.120, -1.834e-5
-1.119, -1.834e-5
-1.118, -1.834e-5
-1.117, -1.834e-5
-1.116, -1.834e-5
-1.115, -1.834e-5
-1.114, -1.834e-5
-1.113, -2.143e-5
-1.112, -2.143e-5
-1.111, -2.143e-5
-1.110, -1.834e-5
-1.109, -2.143e-5
-1.108, -2.143e-5
-1.107, -2.143e-5
-1.106, -2.143e-5
-1.105, -2.143e-5
-1.104, -1.834e-5
-1.103, -2.143e-5
-1.102, -2.143e-5
-1.101, -2.143e-5
-1.100, -2.143e-5
-1.099, -2.143e-5
-1.098, -2.143e-5
-1.097, -2.143e-5
-1.096, -2.143e-5
-1.095, -2.143e-5
-1.094, -2.143e-5
-1.093, -2.143e-5
-1.092, -2.143e-5
-1.091, -2.451e-5
-1.090, -2.143e-5
-1.089, -2.451e-5
-1.088, -2.451e-5
-1.087, -2.451e-5
-1.086, -2.451e-5
-1.085, -2.451e-5
-1.084, -2.451e-5
-1.083, -2.451e-5
-1.082, -2.451e-5
-1.081, -2.451e-5
-1.080, -2.451e-5
-1.079, -2.451e-5
-1.078, -2.451e-5
-1.077, -2.451e-5
-1.076, -2.451e-5
-1.075, -2.451e-5
-1.074, -2.451e-5
-1.073, -2.759e-5
-1.072, -2.451e-5
-1.071, -2.759e-5
-1.070, -2.451e-5
-1.069, -2.759e-5
-1.068, -2.759e-5
-1.067, -2.759e-5
-1.066, -2.759e-5
-1.065, -2.759e-5
-1.064, -2.759e-5
-1.063, -2.759e-5
-1.062, -2.759e-5
-1.061, -2.759e-5
-1.060, -2.759e-5
-1.059, -2.759e-5
-1.058, -2.759e-5
-1.057, -2.759e-5
-1.056, -2.759e-5
-1.055, -3.068e-5
-1.054, -2.759e-5
-1.053, -3.068e-5
-1.052, -3.068e-5
-1.051, -3.068e-5
-1.050, -3.068e-5
-1.049, -3.068e-5
-1.048, -3.068e-5
-1.047, -3.068e-5
-1.046, -3.068e-5
-1.045, -3.068e-5
-1.044, -3.068e-5
-1.043, -3.068e-5
-1.042, -3.376e-5
-1.041, -3.068e-5
-1.040, -3.376e-5
-1.039, -3.376e-5
-1.038, -3.376e-5
-1.037, -3.376e-5
-1.036, -3.376e-5
-1.035, -3.376e-5
-1.034, -3.376e-5
-1.033, -3.376e-5
-1.032, -3.376e-5
-1.031, -3.376e-5
-1.030, -3.376e-5
-1.029, -3.376e-5
-1.028, -3.684e-5
-1.027, -3.684e-5
-1.026, -3.376e-5
-1.025, -3.684e-5
-1.024, -3.684e-5
-1.023, -3.684e-5
-1.022, -3.684e-5
-1.021, -3.684e-5
-1.020, -3.684e-5
-1.019, -3.684e-5
-1.018, -3.684e-5
-1.017, -3.684e-5
-1.016, -3.992e-5
-1.015, -3.992e-5
-1.014, -3.992e-5
-1.013, -3.992e-5
-1.012, -3.992e-5
-1.011, -3.992e-5
-1.010, -3.992e-5
-1.009, -3.992e-5
-1.008, -3.992e-5
-1.007, -3.992e-5
-1.006, -3.992e-5
-1.005, -4.301e-5
-1.004, -4.301e-5
-1.003, -4.301e-5
-1.002, -4.301e-5
-1.001, -4.301e-5
