Sept. 18, 2024   14:31:56
Linear Sweep Voltammetry
File: c:/users/guazh/data/20240903_batch_252_500/2024-09-03-exp388\post-regen1-2024-09-18t14_28_44-lsvinphos\post-regen1_lsv_50mvs_efin_-2300mv.bin
Data Source:  Experiment
Instrument Model:  CHI760E
Header: LSV ran at 50 mVs with Efin at -2300mV
Note: 

Init E (V) = -0.6
Final E (V) = -2.3
Scan Rate (V/s) = 0.05
Sample Interval (V) = 0.001
Quiet Time (sec) = 2
Sensitivity (A/V) = 1e-4
Comp R (ohm) = 12.4

Results:

Channel 1:
Ep = -2.060V
ip = 6.890e-4A
Ah = 1.073e-3C

Potential/V, Current/A

-0.600, 2.357e-6
-0.601, 2.429e-6
-0.602, 2.460e-6
-0.603, 2.485e-6
-0.604, 2.509e-6
-0.605, 2.535e-6
-0.606, 2.559e-6
-0.607, 2.583e-6
-0.608, 2.607e-6
-0.609, 2.631e-6
-0.610, 2.655e-6
-0.611, 2.679e-6
-0.612, 2.703e-6
-0.613, 2.725e-6
-0.614, 2.749e-6
-0.615, 2.775e-6
-0.616, 2.798e-6
-0.617, 2.823e-6
-0.618, 2.848e-6
-0.619, 2.870e-6
-0.620, 2.894e-6
-0.621, 2.918e-6
-0.622, 2.943e-6
-0.623, 2.967e-6
-0.624, 2.992e-6
-0.625, 3.015e-6
-0.626, 3.041e-6
-0.627, 3.067e-6
-0.628, 3.092e-6
-0.629, 3.116e-6
-0.630, 3.143e-6
-0.631, 3.167e-6
-0.632, 3.193e-6
-0.633, 3.219e-6
-0.634, 3.243e-6
-0.635, 3.268e-6
-0.636, 3.294e-6
-0.637, 3.320e-6
-0.638, 3.346e-6
-0.639, 3.373e-6
-0.640, 3.401e-6
-0.641, 3.427e-6
-0.642, 3.455e-6
-0.643, 3.480e-6
-0.644, 3.506e-6
-0.645, 3.531e-6
-0.646, 3.559e-6
-0.647, 3.586e-6
-0.648, 3.612e-6
-0.649, 3.640e-6
-0.650, 3.668e-6
-0.651, 3.695e-6
-0.652, 3.722e-6
-0.653, 3.749e-6
-0.654, 3.777e-6
-0.655, 3.805e-6
-0.656, 3.833e-6
-0.657, 3.862e-6
-0.658, 3.889e-6
-0.659, 3.917e-6
-0.660, 3.944e-6
-0.661, 3.971e-6
-0.662, 4.001e-6
-0.663, 4.027e-6
-0.664, 4.055e-6
-0.665, 4.084e-6
-0.666, 4.113e-6
-0.667, 4.141e-6
-0.668, 4.169e-6
-0.669, 4.196e-6
-0.670, 4.224e-6
-0.671, 4.251e-6
-0.672, 4.281e-6
-0.673, 4.309e-6
-0.674, 4.337e-6
-0.675, 4.365e-6
-0.676, 4.394e-6
-0.677, 4.424e-6
-0.678, 4.453e-6
-0.679, 4.481e-6
-0.680, 4.512e-6
-0.681, 4.542e-6
-0.682, 4.570e-6
-0.683, 4.598e-6
-0.684, 4.627e-6
-0.685, 4.657e-6
-0.686, 4.686e-6
-0.687, 4.716e-6
-0.688, 4.744e-6
-0.689, 4.773e-6
-0.690, 4.801e-6
-0.691, 4.831e-6
-0.692, 4.861e-6
-0.693, 4.888e-6
-0.694, 4.916e-6
-0.695, 4.945e-6
-0.696, 4.973e-6
-0.697, 5.004e-6
-0.698, 5.031e-6
-0.699, 5.061e-6
-0.700, 5.089e-6
-0.701, 5.116e-6
-0.702, 5.145e-6
-0.703, 5.172e-6
-0.704, 5.201e-6
-0.705, 5.230e-6
-0.706, 5.257e-6
-0.707, 5.286e-6
-0.708, 5.312e-6
-0.709, 5.340e-6
-0.710, 5.369e-6
-0.711, 5.395e-6
-0.712, 5.421e-6
-0.713, 5.448e-6
-0.714, 5.474e-6
-0.715, 5.502e-6
-0.716, 5.529e-6
-0.717, 5.557e-6
-0.718, 5.583e-6
-0.719, 5.608e-6
-0.720, 5.634e-6
-0.721, 5.660e-6
-0.722, 5.684e-6
-0.723, 5.711e-6
-0.724, 5.736e-6
-0.725, 5.761e-6
-0.726, 5.786e-6
-0.727, 5.811e-6
-0.728, 5.836e-6
-0.729, 5.859e-6
-0.730, 5.883e-6
-0.731, 5.904e-6
-0.732, 5.926e-6
-0.733, 5.948e-6
-0.734, 5.969e-6
-0.735, 5.992e-6
-0.736, 6.013e-6
-0.737, 6.037e-6
-0.738, 6.056e-6
-0.739, 6.078e-6
-0.740, 6.101e-6
-0.741, 6.121e-6
-0.742, 6.142e-6
-0.743, 6.161e-6
-0.744, 6.179e-6
-0.745, 6.198e-6
-0.746, 6.214e-6
-0.747, 6.233e-6
-0.748, 6.251e-6
-0.749, 6.268e-6
-0.750, 6.287e-6
-0.751, 6.303e-6
-0.752, 6.323e-6
-0.753, 6.339e-6
-0.754, 6.355e-6
-0.755, 6.372e-6
-0.756, 6.387e-6
-0.757, 6.402e-6
-0.758, 6.417e-6
-0.759, 6.431e-6
-0.760, 6.446e-6
-0.761, 6.458e-6
-0.762, 6.473e-6
-0.763, 6.486e-6
-0.764, 6.497e-6
-0.765, 6.511e-6
-0.766, 6.523e-6
-0.767, 6.534e-6
-0.768, 6.547e-6
-0.769, 6.558e-6
-0.770, 6.570e-6
-0.771, 6.580e-6
-0.772, 6.590e-6
-0.773, 6.598e-6
-0.774, 6.608e-6
-0.775, 6.617e-6
-0.776, 6.624e-6
-0.777, 6.634e-6
-0.778, 6.641e-6
-0.779, 6.647e-6
-0.780, 6.655e-6
-0.781, 6.662e-6
-0.782, 6.668e-6
-0.783, 6.673e-6
-0.784, 6.677e-6
-0.785, 6.684e-6
-0.786, 6.688e-6
-0.787, 6.693e-6
-0.788, 6.698e-6
-0.789, 6.699e-6
-0.790, 6.704e-6
-0.791, 6.705e-6
-0.792, 6.709e-6
-0.793, 6.711e-6
-0.794, 6.714e-6
-0.795, 6.716e-6
-0.796, 6.717e-6
-0.797, 6.718e-6
-0.798, 6.720e-6
-0.799, 6.719e-6
-0.800, 6.720e-6
-0.801, 6.719e-6
-0.802, 6.719e-6
-0.803, 6.718e-6
-0.804, 6.717e-6
-0.805, 6.716e-6
-0.806, 6.715e-6
-0.807, 6.715e-6
-0.808, 6.712e-6
-0.809, 6.709e-6
-0.810, 6.707e-6
-0.811, 6.705e-6
-0.812, 6.701e-6
-0.813, 6.698e-6
-0.814, 6.695e-6
-0.815, 6.692e-6
-0.816, 6.687e-6
-0.817, 6.684e-6
-0.818, 6.679e-6
-0.819, 6.676e-6
-0.820, 6.674e-6
-0.821, 6.668e-6
-0.822, 6.663e-6
-0.823, 6.657e-6
-0.824, 6.651e-6
-0.825, 6.646e-6
-0.826, 6.641e-6
-0.827, 6.635e-6
-0.828, 6.628e-6
-0.829, 6.621e-6
-0.830, 6.616e-6
-0.831, 6.608e-6
-0.832, 6.604e-6
-0.833, 6.596e-6
-0.834, 6.589e-6
-0.835, 6.583e-6
-0.836, 6.575e-6
-0.837, 6.569e-6
-0.838, 6.561e-6
-0.839, 6.552e-6
-0.840, 6.545e-6
-0.841, 6.538e-6
-0.842, 6.531e-6
-0.843, 6.522e-6
-0.844, 6.515e-6
-0.845, 6.508e-6
-0.846, 6.500e-6
-0.847, 6.491e-6
-0.848, 6.483e-6
-0.849, 6.476e-6
-0.850, 6.467e-6
-0.851, 6.459e-6
-0.852, 6.451e-6
-0.853, 6.443e-6
-0.854, 6.435e-6
-0.855, 6.427e-6
-0.856, 6.417e-6
-0.857, 6.410e-6
-0.858, 6.401e-6
-0.859, 6.393e-6
-0.860, 6.384e-6
-0.861, 6.375e-6
-0.862, 6.367e-6
-0.863, 6.358e-6
-0.864, 6.350e-6
-0.865, 6.342e-6
-0.866, 6.332e-6
-0.867, 6.325e-6
-0.868, 6.315e-6
-0.869, 6.305e-6
-0.870, 6.298e-6
-0.871, 6.291e-6
-0.872, 6.282e-6
-0.873, 6.274e-6
-0.874, 6.263e-6
-0.875, 6.257e-6
-0.876, 6.248e-6
-0.877, 6.240e-6
-0.878, 6.231e-6
-0.879, 6.222e-6
-0.880, 6.215e-6
-0.881, 6.207e-6
-0.882, 6.199e-6
-0.883, 6.192e-6
-0.884, 6.183e-6
-0.885, 6.177e-6
-0.886, 6.169e-6
-0.887, 6.160e-6
-0.888, 6.152e-6
-0.889, 6.144e-6
-0.890, 6.138e-6
-0.891, 6.129e-6
-0.892, 6.122e-6
-0.893, 6.114e-6
-0.894, 6.105e-6
-0.895, 6.097e-6
-0.896, 6.090e-6
-0.897, 6.083e-6
-0.898, 6.075e-6
-0.899, 6.067e-6
-0.900, 6.059e-6
-0.901, 6.050e-6
-0.902, 6.044e-6
-0.903, 6.037e-6
-0.904, 6.029e-6
-0.905, 6.023e-6
-0.906, 6.014e-6
-0.907, 6.006e-6
-0.908, 5.999e-6
-0.909, 5.993e-6
-0.910, 5.986e-6
-0.911, 5.978e-6
-0.912, 5.971e-6
-0.913, 5.965e-6
-0.914, 5.956e-6
-0.915, 5.953e-6
-0.916, 5.943e-6
-0.917, 5.936e-6
-0.918, 5.931e-6
-0.919, 5.924e-6
-0.920, 5.918e-6
-0.921, 5.912e-6
-0.922, 5.908e-6
-0.923, 5.902e-6
-0.924, 5.894e-6
-0.925, 5.890e-6
-0.926, 5.883e-6
-0.927, 5.877e-6
-0.928, 5.871e-6
-0.929, 5.865e-6
-0.930, 5.858e-6
-0.931, 5.852e-6
-0.932, 5.847e-6
-0.933, 5.841e-6
-0.934, 5.835e-6
-0.935, 5.830e-6
-0.936, 5.822e-6
-0.937, 5.818e-6
-0.938, 5.813e-6
-0.939, 5.806e-6
-0.940, 5.800e-6
-0.941, 5.794e-6
-0.942, 5.791e-6
-0.943, 5.783e-6
-0.944, 5.778e-6
-0.945, 5.773e-6
-0.946, 5.767e-6
-0.947, 5.763e-6
-0.948, 5.758e-6
-0.949, 5.753e-6
-0.950, 5.748e-6
-0.951, 5.741e-6
-0.952, 5.737e-6
-0.953, 5.733e-6
-0.954, 5.727e-6
-0.955, 5.723e-6
-0.956, 5.717e-6
-0.957, 5.712e-6
-0.958, 5.707e-6
-0.959, 5.701e-6
-0.960, 5.699e-6
-0.961, 5.694e-6
-0.962, 5.690e-6
-0.963, 5.686e-6
-0.964, 5.680e-6
-0.965, 5.677e-6
-0.966, 5.673e-6
-0.967, 5.668e-6
-0.968, 5.664e-6
-0.969, 5.660e-6
-0.970, 5.656e-6
-0.971, 5.651e-6
-0.972, 5.647e-6
-0.973, 5.645e-6
-0.974, 5.640e-6
-0.975, 5.636e-6
-0.976, 5.633e-6
-0.977, 5.632e-6
-0.978, 5.626e-6
-0.979, 5.622e-6
-0.980, 5.619e-6
-0.981, 5.614e-6
-0.982, 5.612e-6
-0.983, 5.607e-6
-0.984, 5.602e-6
-0.985, 5.601e-6
-0.986, 5.597e-6
-0.987, 5.594e-6
-0.988, 5.591e-6
-0.989, 5.586e-6
-0.990, 5.584e-6
-0.991, 5.579e-6
-0.992, 5.577e-6
-0.993, 5.574e-6
-0.994, 5.570e-6
-0.995, 5.567e-6
-0.996, 5.563e-6
-0.997, 5.561e-6
-0.998, 5.558e-6
-0.999, 5.555e-6
-1.000, 5.552e-6
-1.001, 5.550e-6
-1.002, 5.546e-6
-1.003, 5.543e-6
-1.004, 5.540e-6
-1.005, 5.539e-6
-1.006, 5.536e-6
-1.007, 5.533e-6
-1.008, 5.530e-6
-1.009, 5.527e-6
-1.010, 5.525e-6
-1.011, 5.522e-6
-1.012, 5.519e-6
-1.013, 5.517e-6
-1.014, 5.515e-6
-1.015, 5.513e-6
-1.016, 5.510e-6
-1.017, 5.508e-6
-1.018, 5.505e-6
-1.019, 5.502e-6
-1.020, 5.500e-6
-1.021, 5.498e-6
-1.022, 5.497e-6
-1.023, 5.493e-6
-1.024, 5.492e-6
-1.025, 5.490e-6
-1.026, 5.487e-6
-1.027, 5.486e-6
-1.028, 5.482e-6
-1.029, 5.479e-6
-1.030, 5.479e-6
-1.031, 5.476e-6
-1.032, 5.475e-6
-1.033, 5.473e-6
-1.034, 5.471e-6
-1.035, 5.469e-6
-1.036, 5.468e-6
-1.037, 5.466e-6
-1.038, 5.465e-6
-1.039, 5.463e-6
-1.040, 5.462e-6
-1.041, 5.460e-6
-1.042, 5.458e-6
-1.043, 5.458e-6
-1.044, 5.455e-6
-1.045, 5.453e-6
-1.046, 5.452e-6
-1.047, 5.451e-6
-1.048, 5.450e-6
-1.049, 5.448e-6
-1.050, 5.448e-6
-1.051, 5.448e-6
-1.052, 5.446e-6
-1.053, 5.445e-6
-1.054, 5.443e-6
-1.055, 5.444e-6
-1.056, 5.442e-6
-1.057, 5.441e-6
-1.058, 5.440e-6
-1.059, 5.438e-6
-1.060, 5.439e-6
-1.061, 5.437e-6
-1.062, 5.437e-6
-1.063, 5.437e-6
-1.064, 5.435e-6
-1.065, 5.435e-6
-1.066, 5.433e-6
-1.067, 5.434e-6
-1.068, 5.434e-6
-1.069, 5.432e-6
-1.070, 5.433e-6
-1.071, 5.432e-6
-1.072, 5.432e-6
-1.073, 5.431e-6
-1.074, 5.431e-6
-1.075, 5.433e-6
-1.076, 5.432e-6
-1.077, 5.431e-6
-1.078, 5.432e-6
-1.079, 5.431e-6
-1.080, 5.431e-6
-1.081, 5.432e-6
-1.082, 5.432e-6
-1.083, 5.431e-6
-1.084, 5.431e-6
-1.085, 5.431e-6
-1.086, 5.431e-6
-1.087, 5.431e-6
-1.088, 5.432e-6
-1.089, 5.432e-6
-1.090, 5.432e-6
-1.091, 5.433e-6
-1.092, 5.434e-6
-1.093, 5.433e-6
-1.094, 5.434e-6
-1.095, 5.436e-6
-1.096, 5.435e-6
-1.097, 5.436e-6
-1.098, 5.436e-6
-1.099, 5.437e-6
-1.100, 5.438e-6
-1.101, 5.438e-6
-1.102, 5.439e-6
-1.103, 5.439e-6
-1.104, 5.439e-6
-1.105, 5.442e-6
-1.106, 5.441e-6
-1.107, 5.444e-6
-1.108, 5.443e-6
-1.109, 5.444e-6
-1.110, 5.446e-6
-1.111, 5.445e-6
-1.112, 5.447e-6
-1.113, 5.449e-6
-1.114, 5.450e-6
-1.115, 5.451e-6
-1.116, 5.452e-6
-1.117, 5.455e-6
-1.118, 5.454e-6
-1.119, 5.455e-6
-1.120, 5.457e-6
-1.121, 5.459e-6
-1.122, 5.461e-6
-1.123, 5.461e-6
-1.124, 5.462e-6
-1.125, 5.464e-6
-1.126, 5.466e-6
-1.127, 5.468e-6
-1.128, 5.469e-6
-1.129, 5.471e-6
-1.130, 5.472e-6
-1.131, 5.474e-6
-1.132, 5.476e-6
-1.133, 5.477e-6
-1.134, 5.477e-6
-1.135, 5.480e-6
-1.136, 5.482e-6
-1.137, 5.484e-6
-1.138, 5.485e-6
-1.139, 5.487e-6
-1.140, 5.489e-6
-1.141, 5.490e-6
-1.142, 5.493e-6
-1.143, 5.494e-6
-1.144, 5.494e-6
-1.145, 5.498e-6
-1.146, 5.500e-6
-1.147, 5.503e-6
-1.148, 5.504e-6
-1.149, 5.505e-6
-1.150, 5.509e-6
-1.151, 5.510e-6
-1.152, 5.513e-6
-1.153, 5.516e-6
-1.154, 5.517e-6
-1.155, 5.520e-6
-1.156, 5.522e-6
-1.157, 5.524e-6
-1.158, 5.527e-6
-1.159, 5.530e-6
-1.160, 5.532e-6
-1.161, 5.532e-6
-1.162, 5.535e-6
-1.163, 5.538e-6
-1.164, 5.540e-6
-1.165, 5.543e-6
-1.166, 5.546e-6
-1.167, 5.548e-6
-1.168, 5.551e-6
-1.169, 5.552e-6
-1.170, 5.555e-6
-1.171, 5.559e-6
-1.172, 5.561e-6
-1.173, 5.563e-6
-1.174, 5.567e-6
-1.175, 5.569e-6
-1.176, 5.571e-6
-1.177, 5.576e-6
-1.178, 5.579e-6
-1.179, 5.580e-6
-1.180, 5.583e-6
-1.181, 5.584e-6
-1.182, 5.586e-6
-1.183, 5.590e-6
-1.184, 5.591e-6
-1.185, 5.595e-6
-1.186, 5.596e-6
-1.187, 5.601e-6
-1.188, 5.603e-6
-1.189, 5.606e-6
-1.190, 5.610e-6
-1.191, 5.612e-6
-1.192, 5.617e-6
-1.193, 5.619e-6
-1.194, 5.622e-6
-1.195, 5.625e-6
-1.196, 5.629e-6
-1.197, 5.633e-6
-1.198, 5.636e-6
-1.199, 5.636e-6
-1.200, 5.642e-6
-1.201, 5.645e-6
-1.202, 5.648e-6
-1.203, 5.653e-6
-1.204, 5.656e-6
-1.205, 5.657e-6
-1.206, 5.661e-6
-1.207, 5.665e-6
-1.208, 5.667e-6
-1.209, 5.671e-6
-1.210, 5.676e-6
-1.211, 5.679e-6
-1.212, 5.683e-6
-1.213, 5.686e-6
-1.214, 5.689e-6
-1.215, 5.693e-6
-1.216, 5.698e-6
-1.217, 5.702e-6
-1.218, 5.705e-6
-1.219, 5.708e-6
-1.220, 5.711e-6
-1.221, 5.715e-6
-1.222, 5.719e-6
-1.223, 5.724e-6
-1.224, 5.727e-6
-1.225, 5.732e-6
-1.226, 5.735e-6
-1.227, 5.739e-6
-1.228, 5.743e-6
-1.229, 5.750e-6
-1.230, 5.753e-6
-1.231, 5.755e-6
-1.232, 5.759e-6
-1.233, 5.764e-6
-1.234, 5.767e-6
-1.235, 5.773e-6
-1.236, 5.776e-6
-1.237, 5.780e-6
-1.238, 5.784e-6
-1.239, 5.788e-6
-1.240, 5.791e-6
-1.241, 5.793e-6
-1.242, 5.798e-6
-1.243, 5.803e-6
-1.244, 5.807e-6
-1.245, 5.811e-6
-1.246, 5.816e-6
-1.247, 5.820e-6
-1.248, 5.824e-6
-1.249, 5.828e-6
-1.250, 5.832e-6
-1.251, 5.836e-6
-1.252, 5.842e-6
-1.253, 5.846e-6
-1.254, 5.851e-6
-1.255, 5.856e-6
-1.256, 5.859e-6
-1.257, 5.863e-6
-1.258, 5.868e-6
-1.259, 5.872e-6
-1.260, 5.876e-6
-1.261, 5.880e-6
-1.262, 5.886e-6
-1.263, 5.889e-6
-1.264, 5.892e-6
-1.265, 5.898e-6
-1.266, 5.901e-6
-1.267, 5.906e-6
-1.268, 5.910e-6
-1.269, 5.914e-6
-1.270, 5.918e-6
-1.271, 5.921e-6
-1.272, 5.926e-6
-1.273, 5.931e-6
-1.274, 5.934e-6
-1.275, 5.939e-6
-1.276, 5.945e-6
-1.277, 5.950e-6
-1.278, 5.954e-6
-1.279, 5.959e-6
-1.280, 5.965e-6
-1.281, 5.969e-6
-1.282, 5.974e-6
-1.283, 5.981e-6
-1.284, 5.984e-6
-1.285, 5.989e-6
-1.286, 5.995e-6
-1.287, 6.003e-6
-1.288, 6.006e-6
-1.289, 6.011e-6
-1.290, 6.016e-6
-1.291, 6.021e-6
-1.292, 6.024e-6
-1.293, 6.028e-6
-1.294, 6.034e-6
-1.295, 6.039e-6
-1.296, 6.043e-6
-1.297, 6.049e-6
-1.298, 6.053e-6
-1.299, 6.058e-6
-1.300, 6.064e-6
-1.301, 6.069e-6
-1.302, 6.075e-6
-1.303, 6.080e-6
-1.304, 6.083e-6
-1.305, 6.090e-6
-1.306, 6.094e-6
-1.307, 6.099e-6
-1.308, 6.104e-6
-1.309, 6.109e-6
-1.310, 6.116e-6
-1.311, 6.120e-6
-1.312, 6.126e-6
-1.313, 6.132e-6
-1.314, 6.136e-6
-1.315, 6.142e-6
-1.316, 6.146e-6
-1.317, 6.151e-6
-1.318, 6.158e-6
-1.319, 6.163e-6
-1.320, 6.169e-6
-1.321, 6.173e-6
-1.322, 6.180e-6
-1.323, 6.185e-6
-1.324, 6.189e-6
-1.325, 6.194e-6
-1.326, 6.199e-6
-1.327, 6.204e-6
-1.328, 6.209e-6
-1.329, 6.214e-6
-1.330, 6.219e-6
-1.331, 6.227e-6
-1.332, 6.234e-6
-1.333, 6.239e-6
-1.334, 6.244e-6
-1.335, 6.251e-6
-1.336, 6.256e-6
-1.337, 6.262e-6
-1.338, 6.268e-6
-1.339, 6.273e-6
-1.340, 6.281e-6
-1.341, 6.286e-6
-1.342, 6.294e-6
-1.343, 6.300e-6
-1.344, 6.306e-6
-1.345, 6.312e-6
-1.346, 6.317e-6
-1.347, 6.324e-6
-1.348, 6.330e-6
-1.349, 6.334e-6
-1.350, 6.343e-6
-1.351, 6.346e-6
-1.352, 6.351e-6
-1.353, 6.358e-6
-1.354, 6.363e-6
-1.355, 6.370e-6
-1.356, 6.376e-6
-1.357, 6.383e-6
-1.358, 6.390e-6
-1.359, 6.397e-6
-1.360, 6.402e-6
-1.361, 6.410e-6
-1.362, 6.418e-6
-1.363, 6.424e-6
-1.364, 6.431e-6
-1.365, 6.441e-6
-1.366, 6.449e-6
-1.367, 6.459e-6
-1.368, 6.465e-6
-1.369, 6.470e-6
-1.370, 6.475e-6
-1.371, 6.481e-6
-1.372, 6.487e-6
-1.373, 6.501e-6
-1.374, 6.503e-6
-1.375, 6.508e-6
-1.376, 6.513e-6
-1.377, 6.519e-6
-1.378, 6.533e-6
-1.379, 6.547e-6
-1.380, 6.545e-6
-1.381, 6.547e-6
-1.382, 6.556e-6
-1.383, 6.564e-6
-1.384, 6.568e-6
-1.385, 6.574e-6
-1.386, 6.580e-6
-1.387, 6.586e-6
-1.388, 6.594e-6
-1.389, 6.602e-6
-1.390, 6.609e-6
-1.391, 6.614e-6
-1.392, 6.621e-6
-1.393, 6.626e-6
-1.394, 6.632e-6
-1.395, 6.640e-6
-1.396, 6.645e-6
-1.397, 6.651e-6
-1.398, 6.657e-6
-1.399, 6.663e-6
-1.400, 6.671e-6
-1.401, 6.680e-6
-1.402, 6.686e-6
-1.403, 6.694e-6
-1.404, 6.700e-6
-1.405, 6.710e-6
-1.406, 6.717e-6
-1.407, 6.723e-6
-1.408, 6.731e-6
-1.409, 6.737e-6
-1.410, 6.742e-6
-1.411, 6.749e-6
-1.412, 6.756e-6
-1.413, 6.763e-6
-1.414, 6.771e-6
-1.415, 6.777e-6
-1.416, 6.785e-6
-1.417, 6.792e-6
-1.418, 6.799e-6
-1.419, 6.807e-6
-1.420, 6.816e-6
-1.421, 6.825e-6
-1.422, 6.835e-6
-1.423, 6.843e-6
-1.424, 6.849e-6
-1.425, 6.860e-6
-1.426, 6.867e-6
-1.427, 6.875e-6
-1.428, 6.880e-6
-1.429, 6.885e-6
-1.430, 6.894e-6
-1.431, 6.899e-6
-1.432, 6.909e-6
-1.433, 6.917e-6
-1.434, 6.925e-6
-1.435, 6.934e-6
-1.436, 6.941e-6
-1.437, 6.949e-6
-1.438, 6.960e-6
-1.439, 6.965e-6
-1.440, 6.973e-6
-1.441, 6.982e-6
-1.442, 6.988e-6
-1.443, 6.998e-6
-1.444, 7.002e-6
-1.445, 7.011e-6
-1.446, 7.020e-6
-1.447, 7.028e-6
-1.448, 7.036e-6
-1.449, 7.043e-6
-1.450, 7.051e-6
-1.451, 7.061e-6
-1.452, 7.070e-6
-1.453, 7.078e-6
-1.454, 7.089e-6
-1.455, 7.097e-6
-1.456, 7.107e-6
-1.457, 7.116e-6
-1.458, 7.125e-6
-1.459, 7.135e-6
-1.460, 7.147e-6
-1.461, 7.156e-6
-1.462, 7.167e-6
-1.463, 7.175e-6
-1.464, 7.183e-6
-1.465, 7.192e-6
-1.466, 7.200e-6
-1.467, 7.210e-6
-1.468, 7.219e-6
-1.469, 7.226e-6
-1.470, 7.239e-6
-1.471, 7.252e-6
-1.472, 7.266e-6
-1.473, 7.276e-6
-1.474, 7.282e-6
-1.475, 7.292e-6
-1.476, 7.302e-6
-1.477, 7.311e-6
-1.478, 7.323e-6
-1.479, 7.333e-6
-1.480, 7.342e-6
-1.481, 7.354e-6
-1.482, 7.365e-6
-1.483, 7.376e-6
-1.484, 7.384e-6
-1.485, 7.396e-6
-1.486, 7.407e-6
-1.487, 7.418e-6
-1.488, 7.429e-6
-1.489, 7.440e-6
-1.490, 7.452e-6
-1.491, 7.464e-6
-1.492, 7.475e-6
-1.493, 7.488e-6
-1.494, 7.500e-6
-1.495, 7.511e-6
-1.496, 7.520e-6
-1.497, 7.537e-6
-1.498, 7.548e-6
-1.499, 7.561e-6
-1.500, 7.573e-6
-1.501, 7.593e-6
-1.502, 7.610e-6
-1.503, 7.626e-6
-1.504, 7.641e-6
-1.505, 7.655e-6
-1.506, 7.665e-6
-1.507, 7.678e-6
-1.508, 7.691e-6
-1.509, 7.703e-6
-1.510, 7.718e-6
-1.511, 7.730e-6
-1.512, 7.747e-6
-1.513, 7.763e-6
-1.514, 7.772e-6
-1.515, 7.784e-6
-1.516, 7.794e-6
-1.517, 7.806e-6
-1.518, 7.822e-6
-1.519, 7.839e-6
-1.520, 7.856e-6
-1.521, 7.871e-6
-1.522, 7.884e-6
-1.523, 7.900e-6
-1.524, 7.915e-6
-1.525, 7.929e-6
-1.526, 7.935e-6
-1.527, 7.936e-6
-1.528, 7.947e-6
-1.529, 7.960e-6
-1.530, 7.969e-6
-1.531, 7.985e-6
-1.532, 8.000e-6
-1.533, 8.018e-6
-1.534, 8.032e-6
-1.535, 8.048e-6
-1.536, 8.064e-6
-1.537, 8.080e-6
-1.538, 8.095e-6
-1.539, 8.109e-6
-1.540, 8.124e-6
-1.541, 8.140e-6
-1.542, 8.159e-6
-1.543, 8.178e-6
-1.544, 8.195e-6
-1.545, 8.217e-6
-1.546, 8.234e-6
-1.547, 8.252e-6
-1.548, 8.271e-6
-1.549, 8.287e-6
-1.550, 8.307e-6
-1.551, 8.327e-6
-1.552, 8.345e-6
-1.553, 8.363e-6
-1.554, 8.378e-6
-1.555, 8.400e-6
-1.556, 8.419e-6
-1.557, 8.439e-6
-1.558, 8.464e-6
-1.559, 8.484e-6
-1.560, 8.504e-6
-1.561, 8.523e-6
-1.562, 8.544e-6
-1.563, 8.563e-6
-1.564, 8.580e-6
-1.565, 8.599e-6
-1.566, 8.620e-6
-1.567, 8.640e-6
-1.568, 8.660e-6
-1.569, 8.682e-6
-1.570, 8.706e-6
-1.571, 8.729e-6
-1.572, 8.750e-6
-1.573, 8.769e-6
-1.574, 8.789e-6
-1.575, 8.813e-6
-1.576, 8.834e-6
-1.577, 8.858e-6
-1.578, 8.881e-6
-1.579, 8.904e-6
-1.580, 8.931e-6
-1.581, 8.960e-6
-1.582, 8.987e-6
-1.583, 9.008e-6
-1.584, 9.031e-6
-1.585, 9.057e-6
-1.586, 9.081e-6
-1.587, 9.109e-6
-1.588, 9.137e-6
-1.589, 9.159e-6
-1.590, 9.186e-6
-1.591, 9.213e-6
-1.592, 9.242e-6
-1.593, 9.273e-6
-1.594, 9.299e-6
-1.595, 9.332e-6
-1.596, 9.366e-6
-1.597, 9.386e-6
-1.598, 9.415e-6
-1.599, 9.441e-6
-1.600, 9.476e-6
-1.601, 9.509e-6
-1.602, 9.542e-6
-1.603, 9.578e-6
-1.604, 9.604e-6
-1.605, 9.637e-6
-1.606, 9.669e-6
-1.607, 9.700e-6
-1.608, 9.740e-6
-1.609, 9.771e-6
-1.610, 9.802e-6
-1.611, 9.838e-6
-1.612, 9.874e-6
-1.613, 9.911e-6
-1.614, 9.945e-6
-1.615, 9.979e-6
-1.616, 1.001e-5
-1.617, 1.005e-5
-1.618, 1.009e-5
-1.619, 1.012e-5
-1.620, 1.016e-5
-1.621, 1.020e-5
-1.622, 1.024e-5
-1.623, 1.029e-5
-1.624, 1.033e-5
-1.625, 1.036e-5
-1.626, 1.039e-5
-1.627, 1.044e-5
-1.628, 1.048e-5
-1.629, 1.052e-5
-1.630, 1.056e-5
-1.631, 1.061e-5
-1.632, 1.066e-5
-1.633, 1.071e-5
-1.634, 1.075e-5
-1.635, 1.079e-5
-1.636, 1.084e-5
-1.637, 1.088e-5
-1.638, 1.094e-5
-1.639, 1.100e-5
-1.640, 1.104e-5
-1.641, 1.109e-5
-1.642, 1.113e-5
-1.643, 1.118e-5
-1.644, 1.123e-5
-1.645, 1.128e-5
-1.646, 1.133e-5
-1.647, 1.139e-5
-1.648, 1.144e-5
-1.649, 1.150e-5
-1.650, 1.155e-5
-1.651, 1.161e-5
-1.652, 1.167e-5
-1.653, 1.172e-5
-1.654, 1.178e-5
-1.655, 1.184e-5
-1.656, 1.190e-5
-1.657, 1.196e-5
-1.658, 1.201e-5
-1.659, 1.207e-5
-1.660, 1.212e-5
-1.661, 1.219e-5
-1.662, 1.226e-5
-1.663, 1.232e-5
-1.664, 1.239e-5
-1.665, 1.245e-5
-1.666, 1.252e-5
-1.667, 1.259e-5
-1.668, 1.266e-5
-1.669, 1.273e-5
-1.670, 1.280e-5
-1.671, 1.288e-5
-1.672, 1.295e-5
-1.673, 1.303e-5
-1.674, 1.311e-5
-1.675, 1.318e-5
-1.676, 1.326e-5
-1.677, 1.334e-5
-1.678, 1.342e-5
-1.679, 1.350e-5
-1.680, 1.358e-5
-1.681, 1.367e-5
-1.682, 1.375e-5
-1.683, 1.384e-5
-1.684, 1.393e-5
-1.685, 1.401e-5
-1.686, 1.410e-5
-1.687, 1.418e-5
-1.688, 1.427e-5
-1.689, 1.437e-5
-1.690, 1.447e-5
-1.691, 1.457e-5
-1.692, 1.466e-5
-1.693, 1.477e-5
-1.694, 1.487e-5
-1.695, 1.497e-5
-1.696, 1.508e-5
-1.697, 1.518e-5
-1.698, 1.529e-5
-1.699, 1.540e-5
-1.700, 1.550e-5
-1.701, 1.561e-5
-1.702, 1.575e-5
-1.703, 1.586e-5
-1.704, 1.597e-5
-1.705, 1.609e-5
-1.706, 1.621e-5
-1.707, 1.634e-5
-1.708, 1.646e-5
-1.709, 1.658e-5
-1.710, 1.671e-5
-1.711, 1.684e-5
-1.712, 1.697e-5
-1.713, 1.711e-5
-1.714, 1.724e-5
-1.715, 1.738e-5
-1.716, 1.752e-5
-1.717, 1.766e-5
-1.718, 1.781e-5
-1.719, 1.795e-5
-1.720, 1.810e-5
-1.721, 1.825e-5
-1.722, 1.840e-5
-1.723, 1.856e-5
-1.724, 1.872e-5
-1.725, 1.888e-5
-1.726, 1.905e-5
-1.727, 1.921e-5
-1.728, 1.938e-5
-1.729, 1.955e-5
-1.730, 1.973e-5
-1.731, 1.991e-5
-1.732, 2.009e-5
-1.733, 2.026e-5
-1.734, 2.044e-5
-1.735, 2.062e-5
-1.736, 2.082e-5
-1.737, 2.102e-5
-1.738, 2.122e-5
-1.739, 2.144e-5
-1.740, 2.164e-5
-1.741, 2.184e-5
-1.742, 2.205e-5
-1.743, 2.227e-5
-1.744, 2.249e-5
-1.745, 2.272e-5
-1.746, 2.295e-5
-1.747, 2.318e-5
-1.748, 2.342e-5
-1.749, 2.366e-5
-1.750, 2.390e-5
-1.751, 2.416e-5
-1.752, 2.442e-5
-1.753, 2.468e-5
-1.754, 2.494e-5
-1.755, 2.521e-5
-1.756, 2.549e-5
-1.757, 2.577e-5
-1.758, 2.605e-5
-1.759, 2.634e-5
-1.760, 2.663e-5
-1.761, 2.693e-5
-1.762, 2.724e-5
-1.763, 2.754e-5
-1.764, 2.784e-5
-1.765, 2.817e-5
-1.766, 2.850e-5
-1.767, 2.884e-5
-1.768, 2.918e-5
-1.769, 2.951e-5
-1.770, 2.986e-5
-1.771, 3.021e-5
-1.772, 3.058e-5
-1.773, 3.095e-5
-1.774, 3.133e-5
-1.775, 3.171e-5
-1.776, 3.212e-5
-1.777, 3.252e-5
-1.778, 3.293e-5
-1.779, 3.336e-5
-1.780, 3.377e-5
-1.781, 3.421e-5
-1.782, 3.466e-5
-1.783, 3.511e-5
-1.784, 3.557e-5
-1.785, 3.604e-5
-1.786, 3.652e-5
-1.787, 3.702e-5
-1.788, 3.752e-5
-1.789, 3.802e-5
-1.790, 3.853e-5
-1.791, 3.905e-5
-1.792, 3.959e-5
-1.793, 4.016e-5
-1.794, 4.072e-5
-1.795, 4.129e-5
-1.796, 4.187e-5
-1.797, 4.245e-5
-1.798, 4.305e-5
-1.799, 4.365e-5
-1.800, 4.427e-5
-1.801, 4.492e-5
-1.802, 4.556e-5
-1.803, 4.622e-5
-1.804, 4.688e-5
-1.805, 4.757e-5
-1.806, 4.827e-5
-1.807, 4.898e-5
-1.808, 4.971e-5
-1.809, 5.045e-5
-1.810, 5.121e-5
-1.811, 5.197e-5
-1.812, 5.275e-5
-1.813, 5.355e-5
-1.814, 5.436e-5
-1.815, 5.518e-5
-1.816, 5.604e-5
-1.817, 5.690e-5
-1.818, 5.777e-5
-1.819, 5.867e-5
-1.820, 5.957e-5
-1.821, 6.050e-5
-1.822, 6.145e-5
-1.823, 6.240e-5
-1.824, 6.338e-5
-1.825, 6.438e-5
-1.826, 6.537e-5
-1.827, 6.643e-5
-1.828, 6.749e-5
-1.829, 6.855e-5
-1.830, 6.965e-5
-1.831, 7.077e-5
-1.832, 7.193e-5
-1.833, 7.309e-5
-1.834, 7.425e-5
-1.835, 7.543e-5
-1.836, 7.664e-5
-1.837, 7.787e-5
-1.838, 7.914e-5
-1.839, 8.044e-5
-1.840, 8.175e-5
-1.841, 8.308e-5
-1.842, 8.445e-5
-1.843, 8.584e-5
-1.844, 8.725e-5
-1.845, 8.869e-5
-1.846, 9.016e-5
-1.847, 9.162e-5
-1.848, 9.313e-5
-1.849, 9.469e-5
-1.850, 9.626e-5
-1.851, 9.785e-5
-1.852, 9.946e-5
-1.853, 1.011e-4
-1.854, 1.028e-4
-1.855, 1.045e-4
-1.856, 1.063e-4
-1.857, 1.080e-4
-1.858, 1.098e-4
-1.859, 1.117e-4
-1.860, 1.135e-4
-1.861, 1.154e-4
-1.862, 1.174e-4
-1.863, 1.193e-4
-1.864, 1.213e-4
-1.865, 1.234e-4
-1.866, 1.254e-4
-1.867, 1.275e-4
-1.868, 1.296e-4
-1.869, 1.318e-4
-1.870, 1.340e-4
-1.871, 1.363e-4
-1.872, 1.386e-4
-1.873, 1.409e-4
-1.874, 1.433e-4
-1.875, 1.457e-4
-1.876, 1.481e-4
-1.877, 1.505e-4
-1.878, 1.530e-4
-1.879, 1.555e-4
-1.880, 1.581e-4
-1.881, 1.607e-4
-1.882, 1.634e-4
-1.883, 1.661e-4
-1.884, 1.689e-4
-1.885, 1.716e-4
-1.886, 1.744e-4
-1.887, 1.773e-4
-1.888, 1.802e-4
-1.889, 1.830e-4
-1.890, 1.860e-4
-1.891, 1.890e-4
-1.892, 1.920e-4
-1.893, 1.950e-4
-1.894, 1.980e-4
-1.895, 2.011e-4
-1.896, 2.041e-4
-1.897, 2.071e-4
-1.898, 2.101e-4
-1.899, 2.131e-4
-1.900, 2.161e-4
-1.901, 2.191e-4
-1.902, 2.220e-4
-1.903, 2.249e-4
-1.904, 2.277e-4
-1.905, 2.306e-4
-1.906, 2.334e-4
-1.907, 2.362e-4
-1.908, 2.390e-4
-1.909, 2.418e-4
-1.910, 2.447e-4
-1.911, 2.475e-4
-1.912, 2.504e-4
-1.913, 2.533e-4
-1.914, 2.563e-4
-1.915, 2.593e-4
-1.916, 2.624e-4
-1.917, 2.655e-4
-1.918, 2.686e-4
-1.919, 2.718e-4
-1.920, 2.750e-4
-1.921, 2.782e-4
-1.922, 2.814e-4
-1.923, 2.847e-4
-1.924, 2.880e-4
-1.925, 2.914e-4
-1.926, 2.948e-4
-1.927, 2.982e-4
-1.928, 3.016e-4
-1.929, 3.050e-4
-1.930, 3.084e-4
-1.931, 3.120e-4
-1.932, 3.157e-4
-1.933, 3.193e-4
-1.934, 3.230e-4
-1.935, 3.267e-4
-1.936, 3.305e-4
-1.937, 3.343e-4
-1.938, 3.381e-4
-1.939, 3.420e-4
-1.940, 3.459e-4
-1.941, 3.498e-4
-1.942, 3.538e-4
-1.943, 3.578e-4
-1.944, 3.618e-4
-1.945, 3.657e-4
-1.946, 3.698e-4
-1.947, 3.740e-4
-1.948, 3.782e-4
-1.949, 3.824e-4
-1.950, 3.867e-4
-1.951, 3.909e-4
-1.952, 3.953e-4
-1.953, 3.996e-4
-1.954, 4.041e-4
-1.955, 4.085e-4
-1.956, 4.129e-4
-1.957, 4.172e-4
-1.958, 4.217e-4
-1.959, 4.262e-4
-1.960, 4.308e-4
-1.961, 4.353e-4
-1.962, 4.399e-4
-1.963, 4.445e-4
-1.964, 4.491e-4
-1.965, 4.538e-4
-1.966, 4.586e-4
-1.967, 4.634e-4
-1.968, 4.682e-4
-1.969, 4.730e-4
-1.970, 4.779e-4
-1.971, 4.828e-4
-1.972, 4.877e-4
-1.973, 4.927e-4
-1.974, 4.976e-4
-1.975, 5.027e-4
-1.976, 5.078e-4
-1.977, 5.128e-4
-1.978, 5.178e-4
-1.979, 5.230e-4
-1.980, 5.281e-4
-1.981, 5.332e-4
-1.982, 5.383e-4
-1.983, 5.435e-4
-1.984, 5.487e-4
-1.985, 5.539e-4
-1.986, 5.592e-4
-1.987, 5.645e-4
-1.988, 5.699e-4
-1.989, 5.754e-4
-1.990, 5.808e-4
-1.991, 5.862e-4
-1.992, 5.917e-4
-1.993, 5.971e-4
-1.994, 6.026e-4
-1.995, 6.082e-4
-1.996, 6.138e-4
-1.997, 6.194e-4
-1.998, 6.250e-4
-1.999, 6.307e-4
-2.000, 6.364e-4
-2.001, 6.421e-4
-2.002, 6.479e-4
-2.003, 6.536e-4
-2.004, 6.594e-4
-2.005, 6.652e-4
-2.006, 6.709e-4
-2.007, 6.765e-4
-2.008, 6.823e-4
-2.009, 6.881e-4
-2.010, 6.940e-4
-2.011, 7.000e-4
-2.012, 7.059e-4
-2.013, 7.119e-4
-2.014, 7.178e-4
-2.015, 7.238e-4
-2.016, 7.299e-4
-2.017, 7.360e-4
-2.018, 7.421e-4
-2.019, 7.482e-4
-2.020, 7.543e-4
-2.021, 7.604e-4
-2.022, 7.665e-4
-2.023, 7.725e-4
-2.024, 7.787e-4
-2.025, 7.849e-4
-2.026, 7.911e-4
-2.027, 7.974e-4
-2.028, 8.036e-4
-2.029, 8.098e-4
-2.030, 8.162e-4
-2.031, 8.225e-4
-2.032, 8.289e-4
-2.033, 8.353e-4
-2.034, 8.417e-4
-2.035, 8.481e-4
-2.036, 8.546e-4
-2.037, 8.613e-4
-2.038, 8.679e-4
-2.039, 8.745e-4
-2.040, 8.809e-4
-2.041, 8.876e-4
-2.042, 8.942e-4
-2.043, 9.009e-4
-2.044, 9.073e-4
-2.045, 9.139e-4
-2.046, 9.206e-4
-2.047, 9.273e-4
-2.048, 9.340e-4
-2.049, 9.410e-4
-2.050, 9.479e-4
-2.051, 9.548e-4
-2.052, 9.615e-4
-2.053, 9.684e-4
-2.054, 9.753e-4
-2.055, 9.823e-4
-2.056, 9.891e-4
-2.057, 9.960e-4
-2.058, 1.003e-3
-2.059, 1.010e-3
-2.060, 1.011e-3
-2.061, 1.011e-3
-2.062, 1.011e-3
-2.063, 1.011e-3
-2.064, 1.011e-3
-2.065, 1.011e-3
-2.066, 1.011e-3
-2.067, 1.011e-3
-2.068, 1.011e-3
-2.069, 1.011e-3
-2.070, 1.011e-3
-2.071, 1.011e-3
-2.072, 1.011e-3
-2.073, 1.011e-3
-2.074, 1.011e-3
-2.075, 1.011e-3
-2.076, 1.011e-3
-2.077, 1.011e-3
-2.078, 1.011e-3
-2.079, 1.011e-3
-2.080, 1.011e-3
-2.081, 1.011e-3
-2.082, 1.011e-3
-2.083, 1.011e-3
-2.084, 1.011e-3
-2.085, 1.011e-3
-2.086, 1.011e-3
-2.087, 1.011e-3
-2.088, 1.011e-3
-2.089, 1.011e-3
-2.090, 1.011e-3
-2.091, 1.011e-3
-2.092, 1.011e-3
-2.093, 1.011e-3
-2.094, 1.011e-3
-2.095, 1.011e-3
-2.096, 1.011e-3
-2.097, 1.011e-3
-2.098, 1.011e-3
-2.099, 1.011e-3
-2.100, 1.011e-3
-2.101, 1.011e-3
-2.102, 1.011e-3
-2.103, 1.011e-3
-2.104, 1.011e-3
-2.105, 1.011e-3
-2.106, 1.011e-3
-2.107, 1.011e-3
-2.108, 1.011e-3
-2.109, 1.011e-3
-2.110, 1.011e-3
-2.111, 1.011e-3
-2.112, 1.011e-3
-2.113, 1.011e-3
-2.114, 1.011e-3
-2.115, 1.011e-3
-2.116, 1.011e-3
-2.117, 1.011e-3
-2.118, 1.011e-3
-2.119, 1.011e-3
-2.120, 1.011e-3
-2.121, 1.011e-3
-2.122, 1.011e-3
-2.123, 1.011e-3
-2.124, 1.011e-3
-2.125, 1.011e-3
-2.126, 1.011e-3
-2.127, 1.011e-3
-2.128, 1.011e-3
-2.129, 1.011e-3
-2.130, 1.011e-3
-2.131, 1.011e-3
-2.132, 1.011e-3
-2.133, 1.011e-3
-2.134, 1.011e-3
-2.135, 1.011e-3
-2.136, 1.011e-3
-2.137, 1.011e-3
-2.138, 1.011e-3
-2.139, 1.011e-3
-2.140, 1.011e-3
-2.141, 1.011e-3
-2.142, 1.011e-3
-2.143, 1.011e-3
-2.144, 1.011e-3
-2.145, 1.011e-3
-2.146, 1.011e-3
-2.147, 1.011e-3
-2.148, 1.011e-3
-2.149, 1.011e-3
-2.150, 1.011e-3
-2.151, 1.011e-3
-2.152, 1.011e-3
-2.153, 1.011e-3
-2.154, 1.011e-3
-2.155, 1.011e-3
-2.156, 1.011e-3
-2.157, 1.011e-3
-2.158, 1.011e-3
-2.159, 1.011e-3
-2.160, 1.011e-3
-2.161, 1.011e-3
-2.162, 1.011e-3
-2.163, 1.011e-3
-2.164, 1.011e-3
-2.165, 1.011e-3
-2.166, 1.011e-3
-2.167, 1.011e-3
-2.168, 1.011e-3
-2.169, 1.011e-3
-2.170, 1.011e-3
-2.171, 1.011e-3
-2.172, 1.011e-3
-2.173, 1.011e-3
-2.174, 1.011e-3
-2.175, 1.011e-3
-2.176, 1.011e-3
-2.177, 1.011e-3
-2.178, 1.011e-3
-2.179, 1.011e-3
-2.180, 1.011e-3
-2.181, 1.011e-3
-2.182, 1.011e-3
-2.183, 1.011e-3
-2.184, 1.011e-3
-2.185, 1.011e-3
-2.186, 1.011e-3
-2.187, 1.011e-3
-2.188, 1.011e-3
-2.189, 1.011e-3
-2.190, 1.011e-3
-2.191, 1.011e-3
-2.192, 1.011e-3
-2.193, 1.011e-3
-2.194, 1.011e-3
-2.195, 1.011e-3
-2.196, 1.011e-3
-2.197, 1.011e-3
-2.198, 1.011e-3
-2.199, 1.011e-3
-2.200, 1.011e-3
-2.201, 1.011e-3
-2.202, 1.011e-3
-2.203, 1.011e-3
-2.204, 1.011e-3
-2.205, 1.011e-3
-2.206, 1.011e-3
-2.207, 1.011e-3
-2.208, 1.011e-3
-2.209, 1.011e-3
-2.210, 1.011e-3
-2.211, 1.011e-3
-2.212, 1.011e-3
-2.213, 1.011e-3
-2.214, 1.011e-3
-2.215, 1.011e-3
-2.216, 1.011e-3
-2.217, 1.011e-3
-2.218, 1.011e-3
-2.219, 1.011e-3
-2.220, 1.011e-3
-2.221, 1.011e-3
-2.222, 1.011e-3
-2.223, 1.011e-3
-2.224, 1.011e-3
-2.225, 1.011e-3
-2.226, 1.011e-3
-2.227, 1.011e-3
-2.228, 1.011e-3
-2.229, 1.011e-3
-2.230, 1.011e-3
-2.231, 1.011e-3
-2.232, 1.011e-3
-2.233, 1.011e-3
-2.234, 1.011e-3
-2.235, 1.011e-3
-2.236, 1.011e-3
-2.237, 1.011e-3
-2.238, 1.011e-3
-2.239, 1.011e-3
-2.240, 1.011e-3
-2.241, 1.011e-3
-2.242, 1.011e-3
-2.243, 1.011e-3
-2.244, 1.011e-3
-2.245, 1.011e-3
-2.246, 1.011e-3
-2.247, 1.011e-3
-2.248, 1.011e-3
-2.249, 1.011e-3
-2.250, 1.011e-3
-2.251, 1.011e-3
-2.252, 1.011e-3
-2.253, 1.011e-3
-2.254, 1.011e-3
-2.255, 1.011e-3
-2.256, 1.011e-3
-2.257, 1.011e-3
-2.258, 1.011e-3
-2.259, 1.011e-3
-2.260, 1.011e-3
-2.261, 1.011e-3
-2.262, 1.011e-3
-2.263, 1.011e-3
-2.264, 1.011e-3
-2.265, 1.011e-3
-2.266, 1.011e-3
-2.267, 1.011e-3
-2.268, 1.011e-3
-2.269, 1.011e-3
-2.270, 1.011e-3
-2.271, 1.011e-3
-2.272, 1.011e-3
-2.273, 1.011e-3
-2.274, 1.011e-3
-2.275, 1.011e-3
-2.276, 1.011e-3
-2.277, 1.011e-3
-2.278, 1.011e-3
-2.279, 1.011e-3
-2.280, 1.011e-3
-2.281, 1.011e-3
-2.282, 1.011e-3
-2.283, 1.011e-3
-2.284, 1.011e-3
-2.285, 1.011e-3
-2.286, 1.011e-3
-2.287, 1.011e-3
-2.288, 1.011e-3
-2.289, 1.011e-3
-2.290, 1.011e-3
-2.291, 1.011e-3
-2.292, 1.011e-3
-2.293, 1.011e-3
-2.294, 1.011e-3
-2.295, 1.011e-3
-2.296, 1.011e-3
-2.297, 1.011e-3
-2.298, 1.011e-3
-2.299, 1.011e-3
