Potential V vs RHE, Current mA cm-2
0.4132999999999999,-0.0023979356532712374
0.4122999999999999,-0.004016365380316839
0.4112999999999999,-0.004493123088371356
0.4102999999999999,-0.004730794586748683
0.4092999999999999,-0.004941586570428573
0.4082999999999999,-0.005101448947313322
0.4072999999999999,-0.0052570671902984764
0.4062999999999999,-0.0054197589897829555
0.4052999999999999,-0.005571133098868514
0.4042999999999999,-0.005729580764453399
0.4032999999999999,-0.005848416513642061
0.4022999999999999,-0.005979984664529509
0.4012999999999999,-0.006121455794516013
0.4002999999999999,-0.0062162414516069705
0.3992999999999999,-0.006352053736394015
0.3982999999999999,-0.006496354288980248
0.3972999999999999,-0.0065727486991729615
0.3962999999999999,-0.006694413870961353
0.3952999999999999,-0.006780711260253121
0.3942999999999999,-0.006898132298141919
0.39329999999999987,-0.0070127239134309865
0.39229999999999987,-0.007108924281821808
0.39129999999999987,-0.007233418876209932
0.39029999999999987,-0.007335278089800216
0.38929999999999987,-0.007438552014690363
0.38829999999999987,-0.007553143629979431
0.38729999999999987,-0.007630952751472007
0.38629999999999987,-0.007739885521561615
0.38529999999999986,-0.007850233002951089
0.38429999999999986,-0.007916724434044745
0.38329999999999986,-0.008019998358934893
0.38229999999999986,-0.00807517209962963
0.38129999999999986,-0.008178446024519778
0.38029999999999986,-0.008284549372009654
0.37929999999999986,-0.008382164451700343
0.37829999999999986,-0.008484023665290623
0.37729999999999986,-0.008568906343282527
0.37629999999999986,-0.008645300753475239
0.37529999999999986,-0.008748574678365387
0.37429999999999986,-0.008817895532058775
0.37329999999999985,-0.008914095900449595
0.37229999999999985,-0.008979172620243388
0.37129999999999985,-0.00905839645303583
0.37029999999999985,-0.009156011532726518
0.36929999999999985,-0.009242308922018284
0.36829999999999985,-0.009321532754810725
0.36729999999999985,-0.00941773312320155
0.36629999999999985,-0.009506859935093048
0.36529999999999985,-0.009590327901785083
0.36429999999999985,-0.009661063466778334
0.36329999999999985,-0.009714822496173206
0.36229999999999984,-0.009794046328965649
0.36129999999999984,-0.009881758429557281
0.36029999999999984,-0.009963811684949454
0.35929999999999984,-0.01004727965164149
0.35829999999999984,-0.010127918195733797
0.35729999999999984,-0.010197239049427187
0.35629999999999984,-0.010275048170919761
0.35529999999999984,-0.010341539602013419
0.35429999999999984,-0.010433495836504644
0.35329999999999984,-0.010529696204895468
0.35229999999999984,-0.010574966966491151
0.35129999999999983,-0.010666923200982377
0.35029999999999983,-0.01074897645637455
0.34929999999999983,-0.010814053176168343
0.34829999999999983,-0.010907424121959433
0.34729999999999983,-0.010976744975652817
0.34629999999999983,-0.011033333427647422
0.34529999999999983,-0.011104068992640673
0.34429999999999983,-0.011177633980233654
0.3432999999999998,-0.011289396172922992
0.3422999999999998,-0.011368620005715436
0.3412999999999998,-0.011449258549807741
0.3402999999999998,-0.0115440442068987
0.3392999999999998,-0.011607706215392626
0.3382999999999998,-0.011696833027284121
0.3372999999999998,-0.01176049503577805
0.3362999999999998,-0.011811424642573193
0.3352999999999998,-0.011910454433563745
0.3342999999999998,-0.011967042885558346
0.3332999999999998,-0.012043437295751058
0.3322999999999998,-0.012119831705943768
0.3312999999999998,-0.012194811404836615
0.3302999999999998,-0.012266961681129732
0.3292999999999998,-0.012334867823523254
0.3282999999999998,-0.012399944543317045
0.3272999999999998,-0.012452288861412052
0.3262999999999998,-0.01252443913770517
0.3252999999999999,-0.012600833547897882
0.3242999999999999,-0.012692789782389108
0.3232999999999999,-0.012760695924782631
0.3222999999999999,-0.012822943221976694
0.3212999999999999,-0.012899337632169404
0.3202999999999999,-0.012970073197162656
0.3192999999999999,-0.01302666164915726
0.3182999999999999,-0.013104470770649834
0.3172999999999999,-0.01315115624354538
0.3162999999999999,-0.013238868344137013
0.3152999999999999,-0.013303945063930806
0.3142999999999999,-0.013371851206324326
0.3132999999999999,-0.013446830905217174
0.3122999999999999,-0.01349068695551299
0.3112999999999999,-0.013571325499605297
0.3102999999999999,-0.013625084529000167
0.3092999999999999,-0.0137127966295918
0.3082999999999999,-0.013786361617184781
0.3072999999999999,-0.013840120646579654
0.3062999999999999,-0.013926418035871422
0.3052999999999999,-0.014002812446064133
0.3042999999999999,-0.01404949791895968
0.3032999999999999,-0.014132965885651718
0.3022999999999999,-0.014175407224647668
0.3012999999999999,-0.014231995676642267
0.3002999999999999,-0.01430273124163552
0.2992999999999999,-0.014359319693630123
0.2982999999999999,-0.014444202371622025
0.2972999999999999,-0.014500790823616624
0.2962999999999999,-0.014599820614607179
0.2952999999999999,-0.014670556179600431
0.2942999999999999,-0.014712997518596381
0.2932999999999999,-0.014797880196588285
0.2922999999999999,-0.014840321535584235
0.2912999999999999,-0.014896909987578835
0.2902999999999999,-0.014981792665570736
0.2892999999999999,-0.01505252823056399
0.2882999999999999,-0.015123263795557243
0.2872999999999999,-0.015179852247551842
0.2862999999999999,-0.015250587812545097
0.2852999999999999,-0.015321323377538347
0.2842999999999999,-0.015377911829532949
0.2832999999999999,-0.01546279450752485
0.2822999999999999,-0.015505235846520802
0.2812999999999999,-0.015575971411514053
0.2802999999999999,-0.015618412750510005
0.2792999999999999,-0.01568914831550326
0.2782999999999999,-0.01575988388049651
0.2772999999999999,-0.01580232521949246
0.2762999999999999,-0.01585891367148706
0.2752999999999999,-0.01591550212348166
0.2742999999999999,-0.016014531914472215
0.2732999999999999,-0.01608526747946547
0.2722999999999999,-0.016127708818461418
0.2712999999999999,-0.016226738609451972
0.2702999999999999,-0.016283327061446574
0.2692999999999999,-0.016325768400442524
0.26829999999999987,-0.016396503965435776
0.26729999999999987,-0.016438945304431726
0.26629999999999987,-0.01650968086942498
0.26529999999999987,-0.016552122208420932
0.26429999999999987,-0.01665115199941148
0.26329999999999987,-0.01670774045140608
0.26229999999999987,-0.016764328903400686
0.26129999999999987,-0.016820917355395284
0.26029999999999986,-0.01690580003338719
0.25929999999999986,-0.016948241372383138
0.25829999999999986,-0.017018976937376393
0.25729999999999986,-0.017089712502369642
0.25629999999999986,-0.017132153841365592
0.25529999999999986,-0.017231183632356147
0.25429999999999986,-0.01728777208435075
0.25329999999999986,-0.01734436053634535
0.25229999999999986,-0.0173868018753413
0.25129999999999986,-0.017443390327335904
0.25029999999999986,-0.017499978779330502
0.24929999999999986,-0.017570714344323755
0.24829999999999985,-0.017641449909317007
0.24729999999999985,-0.01768389124831296
0.24629999999999985,-0.01774047970030756
0.24529999999999985,-0.01785365660429676
0.24429999999999985,-0.017910245056291362
0.24329999999999985,-0.017952686395287316
0.24229999999999985,-0.017995127734283266
0.24129999999999985,-0.018080010412275173
0.24029999999999985,-0.01812245175127112
0.23929999999999985,-0.018193187316264375
0.23829999999999985,-0.018235628655260322
0.23729999999999984,-0.018306364220253574
0.23629999999999984,-0.018348805559249524
0.23529999999999984,-0.018433688237241428
0.23429999999999984,-0.01849027668923603
0.23329999999999984,-0.018546865141230634
0.23229999999999984,-0.018617600706223883
0.23129999999999984,-0.018674189158218484
0.23029999999999984,-0.018730777610213082
0.22929999999999984,-0.018801513175206338
0.22829999999999984,-0.01887224874019959
0.22729999999999984,-0.01891469007919554
0.22629999999999983,-0.018985425644188793
0.22529999999999983,-0.019056161209182042
0.22429999999999983,-0.019098602548177995
0.22329999999999983,-0.0191834852261699
0.22229999999999983,-0.019211779452167198
0.22129999999999983,-0.0192683679041618
0.22029999999999983,-0.01933910346915505
0.21929999999999983,-0.019381544808151
0.21829999999999983,-0.019438133260145606
0.21729999999999983,-0.01950886882513886
0.21629999999999983,-0.019551310164134805
0.21529999999999982,-0.01963619284212671
0.21429999999999982,-0.01970692840711996
0.21329999999999982,-0.019763516859114563
0.21229999999999982,-0.019834252424107815
0.21129999999999982,-0.019890840876102416
0.21029999999999982,-0.019961576441095665
0.20929999999999982,-0.02000401778009162
0.20829999999999982,-0.02004645911908757
0.20729999999999982,-0.02011719468408082
0.20629999999999982,-0.02015963602307677
0.20529999999999982,-0.020230371588070024
0.20429999999999982,-0.020315254266061927
0.20329999999999981,-0.02038598983105518
0.2022999999999998,-0.02045672539604843
0.2012999999999998,-0.020499166735044382
0.20029999999999992,-0.020541608074040336
0.19929999999999992,-0.020612343639033585
0.19829999999999992,-0.020654784978029535
0.19729999999999992,-0.020697226317025485
0.19629999999999992,-0.020767961882018737
0.19529999999999992,-0.020824550334013342
0.19429999999999992,-0.020937727238002544
0.19329999999999992,-0.021022609915994445
0.19229999999999992,-0.021036757028993096
0.19129999999999991,-0.021065051254990398
0.1902999999999999,-0.021107492593986348
0.1892999999999999,-0.0211782281589796
0.1882999999999999,-0.0212348166109742
0.1872999999999999,-0.021291405062968803
0.1862999999999999,-0.021362140627962056
0.1852999999999999,-0.021432876192955305
0.1842999999999999,-0.021489464644949906
0.1832999999999999,-0.021560200209943158
0.1822999999999999,-0.02158849443594046
0.1812999999999999,-0.021645082887935062
0.1802999999999999,-0.021715818452928314
0.1792999999999999,-0.021744112678925617
0.1782999999999999,-0.021814848243918866
0.1772999999999999,-0.021871436695913467
0.1762999999999999,-0.021928025147908068
0.1752999999999999,-0.022012907825899968
0.1742999999999999,-0.02205534916489592
0.1732999999999999,-0.022126084729889174
0.1722999999999999,-0.022196820294882423
0.1712999999999999,-0.022225114520879725
0.1702999999999999,-0.02230999719887163
0.1692999999999999,-0.02239487987686353
0.1682999999999999,-0.022465615441856785
0.1672999999999999,-0.022536351006850038
0.1662999999999999,-0.022578792345845984
0.1652999999999999,-0.022621233684841938
0.1642999999999999,-0.02267782213683654
0.1632999999999999,-0.02273441058883114
0.1622999999999999,-0.02279099904082574
0.1612999999999999,-0.022847587492820343
0.1602999999999999,-0.022904175944814944
0.1592999999999999,-0.022974911509808196
0.15829999999999989,-0.023031499961802798
0.15729999999999988,-0.0230880884137974
0.15629999999999988,-0.023172971091789302
0.15529999999999988,-0.02324370665678255
0.15429999999999988,-0.023300295108777156
0.15329999999999988,-0.023356883560771757
0.15229999999999988,-0.023399324899767704
0.15129999999999988,-0.02345591335176231
0.15029999999999988,-0.023512501803756906
0.14929999999999988,-0.02356909025575151
0.14829999999999988,-0.023639825820744764
0.14729999999999988,-0.023696414272739365
0.14629999999999987,-0.023767149837732617
0.14529999999999987,-0.02385203251572452
0.14429999999999987,-0.02392276808071777
0.14329999999999987,-0.024021797871708325
0.14229999999999987,-0.024092533436701577
0.14129999999999987,-0.024134974775697527
0.14029999999999987,-0.024219857453689427
0.13929999999999987,-0.02427644590568403
0.13829999999999987,-0.02434718147067728
0.13729999999999987,-0.024417917035670533
0.13629999999999987,-0.024488652600663786
0.13529999999999986,-0.024587682391654337
0.13429999999999986,-0.02465841795664759
0.13329999999999986,-0.02475744774763814
0.13229999999999986,-0.024856477538628696
0.13129999999999986,-0.024927213103621948
0.13029999999999986,-0.0250545371206098
0.12929999999999986,-0.025139419798601705
0.12829999999999986,-0.025224302476593602
0.12729999999999986,-0.025337479380582808
0.12629999999999986,-0.025422362058574708
0.12529999999999986,-0.02553553896256391
0.12429999999999986,-0.025648715866553113
0.12329999999999985,-0.02576189277054232
0.12229999999999985,-0.025889216787530173
0.12129999999999985,-0.02600239369151937
0.12029999999999985,-0.026115570595508578
0.11929999999999985,-0.02622874749949778
0.11829999999999985,-0.026341924403486983
0.11729999999999985,-0.02645510130747619
0.11629999999999985,-0.02655413109846674
0.11529999999999985,-0.02668145511545459
0.11429999999999985,-0.026808779132442447
0.11329999999999985,-0.0269643973754276
0.11229999999999984,-0.027049280053419503
0.11129999999999984,-0.027162456957408702
0.11029999999999984,-0.02727563386139791
0.10929999999999984,-0.02738881076538711
0.10829999999999984,-0.027516134782374965
0.10729999999999984,-0.027615164573365516
0.10629999999999984,-0.02774248859035337
0.10529999999999984,-0.027869812607341227
0.10429999999999984,-0.027982989511330426
0.10329999999999984,-0.02813860775431558
0.10229999999999984,-0.028251784658304784
0.10129999999999983,-0.028336667336296688
0.10029999999999983,-0.028449844240285887
0.09929999999999983,-0.02854887403127644
0.09829999999999983,-0.028690345161262943
0.09729999999999983,-0.028817669178250797
0.09629999999999983,-0.028916698969241348
0.09529999999999983,-0.029044022986229205
0.09429999999999983,-0.029143052777219756
0.09329999999999983,-0.029242082568210308
0.09229999999999983,-0.029369406585198165
0.09129999999999983,-0.02945428926319007
0.09029999999999982,-0.02959576039317657
0.08929999999999982,-0.02969479018416712
0.08829999999999982,-0.029779672862159025
0.08729999999999982,-0.029892849766148224
0.08629999999999982,-0.029991879557138775
0.08529999999999982,-0.03011920357412663
0.08429999999999982,-0.030232380478115835
0.08329999999999982,-0.030303116043109087
0.08229999999999982,-0.030416292947098293
0.08129999999999982,-0.030501175625090193
0.08029999999999982,-0.03058605830308209
0.07929999999999982,-0.030699235207071292
0.07829999999999981,-0.030812412111060502
0.07729999999999981,-0.030897294789052406
0.07629999999999981,-0.03099632458004295
0.07529999999999992,-0.031095354371033508
0.07429999999999992,-0.031194384162024056
0.07329999999999992,-0.03126511972701731
0.07229999999999992,-0.03136414951800787
0.07129999999999992,-0.031434885083001116
0.07029999999999992,-0.031533914873991674
0.06929999999999992,-0.03163294466498222
0.06829999999999992,-0.03174612156897143
0.06729999999999992,-0.03183100424696332
0.06629999999999991,-0.03193003403795388
0.06529999999999991,-0.03204321094194308
0.06429999999999991,-0.032085652280939035
0.06329999999999991,-0.03219882918492823
0.06229999999999991,-0.03226956474992148
0.06129999999999991,-0.03235444742791339
0.06029999999999991,-0.032467624331902596
0.05929999999999991,-0.032538359896895845
0.05829999999999991,-0.032637389687886396
0.05729999999999991,-0.0327505665918756
0.056299999999999906,-0.03282130215686885
0.055299999999999905,-0.03293447906085806
0.054299999999999904,-0.032991067512852655
0.0532999999999999,-0.03311839152984051
0.0522999999999999,-0.03323156843382971
0.0512999999999999,-0.03330230399882296
0.0502999999999999,-0.03342962801581082
0.0492999999999999,-0.03350036358080407
0.0482999999999999,-0.03358524625879597
0.0472999999999999,-0.03367012893678788
0.0462999999999999,-0.033740864501781126
0.045299999999999896,-0.03383989429277168
0.044299999999999895,-0.03393892408376223
0.043299999999999894,-0.03405210098775143
0.04229999999999989,-0.03416527789174064
0.04129999999999989,-0.03423601345673389
0.04029999999999989,-0.034349190360723085
0.03929999999999989,-0.03440577881271769
0.03829999999999989,-0.034476514377710946
0.03729999999999989,-0.0345755441687015
0.03629999999999989,-0.0346604268466934
0.03529999999999989,-0.03475945663768395
0.034299999999999886,-0.0348301922026772
0.033299999999999885,-0.034915074880669104
0.032299999999999884,-0.03501410467165966
0.031299999999999883,-0.03509898734965156
0.030299999999999883,-0.03516972291464481
0.02929999999999988,-0.03526875270563536
0.02829999999999988,-0.03536778249662592
0.02729999999999988,-0.03542437094862052
0.02629999999999988,-0.03549510651361377
0.025299999999999878,-0.035594136304604326
0.024299999999999877,-0.035679018982596226
0.023299999999999876,-0.03579219588658543
0.022299999999999875,-0.03584878433858003
0.021299999999999875,-0.035961961242569236
0.020299999999999874,-0.03607513814655844
0.019299999999999873,-0.03614587371155169
0.018299999999999872,-0.03627319772853954
0.01729999999999987,-0.03638637463252875
0.01629999999999987,-0.036485404423519295
0.01529999999999987,-0.036598581327508505
0.014299999999999868,-0.03664102266650445
0.013299999999999867,-0.036740052457495
0.012299999999999978,-0.03679664090948961
0.011299999999999866,-0.036853229361484205
0.010299999999999976,-0.03695225915247476
0.009299999999999864,-0.03705128894346531
0.008299999999999974,-0.037150318734455866
0.007299999999999862,-0.03724934852544641
0.006299999999999972,-0.03733423120343832
0.00529999999999986,-0.037433260994428876
0.0042999999999999705,-0.03753229078541943
0.0032999999999998586,-0.03761717346341132
0.0022999999999999687,-0.03773035036740053
0.0012999999999998568,-0.037801085932393785
0.00029999999999996696,-0.03790011572338433
-0.000700000000000145,-0.03799914551437489
-0.0017000000000000348,-0.03806988107936814
-0.0027000000000001467,-0.03814061664436139
-0.0037000000000000366,-0.03821135220935464
-0.0047000000000001485,-0.03828208777434789
-0.005700000000000038,-0.03835282333934115
-0.00670000000000015,-0.0384518531303317
-0.00770000000000004,-0.038508441582326296
-0.008700000000000152,-0.03860747137331685
-0.009700000000000042,-0.038692354051308754
-0.010700000000000154,-0.03880553095529796
-0.011700000000000044,-0.03891870785928716
-0.012700000000000156,-0.03898944342428041
-0.013700000000000045,-0.039088473215270966
-0.014700000000000157,-0.03918750300626152
-0.015700000000000047,-0.039244091458256115
-0.01670000000000016,-0.039328974136248016
-0.01770000000000005,-0.03938556258824262
-0.01870000000000016,-0.039456298153235876
-0.01970000000000005,-0.039527033718229125
-0.020700000000000163,-0.039611916396221025
-0.021700000000000053,-0.039696799074212925
-0.022700000000000164,-0.03980997597820213
-0.023700000000000054,-0.03986656443019673
-0.024700000000000166,-0.039979741334185935
-0.025700000000000056,-0.04006462401217784
-0.026700000000000168,-0.04014950669016974
-0.027700000000000058,-0.04024853648116029
-0.02870000000000017,-0.04031927204615354
-0.02970000000000006,-0.040418301837144094
-0.03070000000000017,-0.04047489028913869
-0.03170000000000006,-0.040531478741133296
-0.03270000000000017,-0.040630508532123855
-0.03370000000000006,-0.04068709698411845
-0.034700000000000175,-0.04077197966211036
-0.035700000000000065,-0.04085686234010226
-0.03670000000000018,-0.040927597905095515
-0.03770000000000007,-0.040998333470088764
-0.03870000000000018,-0.04104077480908471
-0.03970000000000007,-0.04112565748707661
-0.04070000000000018,-0.04122468727806717
-0.04170000000000007,-0.04132371706905772
-0.04270000000000018,-0.04140859974704963
-0.04370000000000007,-0.04150762953804018
-0.044700000000000184,-0.041606659329030724
-0.045700000000000074,-0.04171983623301993
-0.046700000000000186,-0.041818866024010484
-0.047700000000000076,-0.041917895815001036
-0.04870000000000019,-0.04197448426699564
-0.04970000000000008,-0.04204521983198889
-0.05070000000000019,-0.04207351405798619
-0.05170000000000008,-0.04214424962297945
-0.05270000000000019,-0.042200838074974045
-0.05370000000000008,-0.04225742652696864
-0.05470000000000019,-0.0423564563179592
-0.05570000000000008,-0.0424413389959511
-0.056700000000000195,-0.04254036878694165
-0.057700000000000085,-0.04259695723893625
-0.058700000000000196,-0.042667692803929506
-0.059700000000000086,-0.04275257548192141
-0.0607000000000002,-0.042851605272911965
-0.06170000000000009,-0.04297892928989981
-0.0627000000000002,-0.043092106193889014
-0.06370000000000009,-0.04314869464588362
-0.0647000000000002,-0.04323357732387552
-0.06570000000000009,-0.04330431288886877
