Potential V vs RHE, Current mA cm-2
0.4132999999999999,-0.017231183632356147
0.4122999999999999,-0.018744924723211737
0.4112999999999999,-0.019141043887173945
0.4102999999999999,-0.019353250582153703
0.4092999999999999,-0.019523015938137503
0.4082999999999999,-0.01967863418112266
0.4072999999999999,-0.019834252424107815
0.4062999999999999,-0.019947429328097017
0.4052999999999999,-0.02006060623208622
0.4042999999999999,-0.020173783136075422
0.4032999999999999,-0.020272812927065977
0.4022999999999999,-0.020357695605057877
0.4012999999999999,-0.02045672539604843
0.4002999999999999,-0.020541608074040336
0.3992999999999999,-0.020668932091028186
0.3982999999999999,-0.02078210899501739
0.3972999999999999,-0.02085284456001064
0.3962999999999999,-0.020937727238002544
0.3952999999999999,-0.020980168576998495
0.3942999999999999,-0.021065051254990398
0.39329999999999987,-0.021149933932982302
0.39229999999999987,-0.02122066949797555
0.39129999999999987,-0.021319699288966102
0.39029999999999987,-0.021390434853959358
0.38929999999999987,-0.021461170418952607
0.38829999999999987,-0.02157434732294181
0.38729999999999987,-0.02163093577493641
0.38629999999999987,-0.021729965565926962
0.38529999999999986,-0.021772406904922915
0.38429999999999986,-0.021828995356917517
0.38329999999999986,-0.021928025147908068
0.38229999999999986,-0.02198461359990267
0.38129999999999986,-0.022069496277894573
0.38029999999999986,-0.022126084729889174
0.37929999999999986,-0.02218267318188378
0.37829999999999986,-0.02226755585987568
0.37729999999999986,-0.022338291424868928
0.37629999999999986,-0.02240902698986218
0.37529999999999986,-0.022493909667854084
0.37429999999999986,-0.022550498119848682
0.37329999999999985,-0.02264952791083924
0.37229999999999985,-0.02273441058883114
0.37129999999999985,-0.02277685192782709
0.37029999999999985,-0.022833440379821688
0.36929999999999985,-0.02287588171881764
0.36829999999999985,-0.022946617283810897
0.36729999999999985,-0.023017352848804146
0.36629999999999985,-0.023073941300798748
0.36529999999999985,-0.023144676865792004
0.36429999999999985,-0.023215412430785252
0.36329999999999985,-0.023286147995778505
0.36229999999999984,-0.023328589334774455
0.36129999999999984,-0.02341347201276636
0.36029999999999984,-0.023441766238763657
0.35929999999999984,-0.023512501803756906
0.35829999999999984,-0.02356909025575151
0.35729999999999984,-0.023639825820744764
0.35629999999999984,-0.023710561385738016
0.35529999999999984,-0.023753002724733966
0.35429999999999984,-0.023809591176728567
0.35329999999999984,-0.02389447385472047
0.35229999999999984,-0.02393691519371642
0.35129999999999983,-0.024021797871708325
0.35029999999999983,-0.024064239210704275
0.34929999999999983,-0.024120827662698876
0.34829999999999983,-0.02423400456668808
0.34729999999999983,-0.024318887244679982
0.34629999999999983,-0.024375475696674583
0.34529999999999983,-0.024432064148669184
0.34429999999999983,-0.024460358374666487
0.3432999999999998,-0.02453109393965974
0.3422999999999998,-0.024559388165657038
0.3412999999999998,-0.024644270843648942
0.3402999999999998,-0.02468671218264489
0.3392999999999998,-0.02471500640864219
0.3382999999999998,-0.02482818331263139
0.3372999999999998,-0.024884771764625994
0.3362999999999998,-0.0249413602166206
0.3352999999999998,-0.0250262428946125
0.3342999999999998,-0.0250545371206098
0.3332999999999998,-0.025139419798601705
0.3322999999999998,-0.025181861137597652
0.3312999999999998,-0.025238449589592253
0.3302999999999998,-0.025295038041586858
0.3292999999999998,-0.025337479380582808
0.3282999999999998,-0.02539406783257741
0.3272999999999998,-0.02547895051056931
0.3262999999999998,-0.02553553896256391
0.3252999999999999,-0.025606274527557166
0.3242999999999999,-0.025662862979551764
0.3232999999999999,-0.025719451431546365
0.3222999999999999,-0.02577603988354097
0.3212999999999999,-0.025832628335535568
0.3202999999999999,-0.02587506967453152
0.3192999999999999,-0.02591751101352747
0.3182999999999999,-0.026016540804518026
0.3172999999999999,-0.026058982143513973
0.3162999999999999,-0.02614386482150588
0.3152999999999999,-0.026172159047503182
0.3142999999999999,-0.02622874749949778
0.3132999999999999,-0.026313630177489684
0.3122999999999999,-0.026370218629484285
0.3112999999999999,-0.026440954194477534
0.3102999999999999,-0.02649754264647214
0.3092999999999999,-0.026539983985468085
0.3082999999999999,-0.02658242532446404
0.3072999999999999,-0.026639013776458643
0.3062999999999999,-0.026709749341451892
0.3052999999999999,-0.026766337793446494
0.3042999999999999,-0.02682292624544109
0.3032999999999999,-0.026936103149430297
0.3022999999999999,-0.0269643973754276
0.3012999999999999,-0.02703513294042085
0.3002999999999999,-0.0270775742794168
0.2992999999999999,-0.027105868505414105
0.2982999999999999,-0.027162456957408702
0.2972999999999999,-0.027219045409403307
0.2962999999999999,-0.02727563386139791
0.2952999999999999,-0.02734636942639116
0.2942999999999999,-0.02738881076538711
0.2932999999999999,-0.027445399217381712
0.2922999999999999,-0.027516134782374965
0.2912999999999999,-0.027572723234369562
0.2902999999999999,-0.027615164573365516
0.2892999999999999,-0.02764345879936281
0.2882999999999999,-0.02770004725135742
0.2872999999999999,-0.02775663570335202
0.2862999999999999,-0.027813224155346622
0.2852999999999999,-0.027869812607341227
0.2842999999999999,-0.027940548172334476
0.2832999999999999,-0.027982989511330426
0.2822999999999999,-0.028053725076323675
0.2812999999999999,-0.02809616641531963
0.2802999999999999,-0.02815275486731423
0.2792999999999999,-0.028181049093311532
0.2782999999999999,-0.028265931771303435
0.2772999999999999,-0.028308373110299385
0.2762999999999999,-0.028379108675292634
0.2752999999999999,-0.028407402901289937
0.2742999999999999,-0.02847813846628319
0.2732999999999999,-0.028563021144275093
0.2722999999999999,-0.02860546248327104
0.2712999999999999,-0.028662050935265648
0.2702999999999999,-0.028718639387260245
0.2692999999999999,-0.028746933613257548
0.26829999999999987,-0.028817669178250797
0.26729999999999987,-0.028874257630245398
0.26629999999999987,-0.02893084608224
0.26529999999999987,-0.028973287421235953
0.26429999999999987,-0.02902987587323055
0.26329999999999987,-0.029114758551222454
0.26229999999999987,-0.029157199890218404
0.26129999999999987,-0.02921378834221301
0.26029999999999986,-0.029256229681208955
0.25929999999999986,-0.029284523907206258
0.25829999999999986,-0.02935525947219951
0.25729999999999986,-0.02941184792419411
0.25629999999999986,-0.02946843637618871
0.25529999999999986,-0.02953917194118197
0.25429999999999986,-0.029581613280177915
0.25329999999999986,-0.029638201732172516
0.25229999999999986,-0.02969479018416712
0.25129999999999986,-0.02972308441016442
0.25029999999999986,-0.029779672862159025
0.24929999999999986,-0.02982211420115497
0.24829999999999985,-0.029892849766148224
0.24729999999999985,-0.029949438218142825
0.24629999999999985,-0.029991879557138775
0.24529999999999985,-0.03007676223513068
0.24429999999999985,-0.030133350687125283
0.24329999999999985,-0.030161644913122586
0.24229999999999985,-0.030218233365117184
0.24129999999999985,-0.030288968930110433
0.24029999999999985,-0.03033141026910639
0.23929999999999985,-0.03040214583409964
0.23829999999999985,-0.030458734286094236
0.23729999999999984,-0.03051532273808884
0.23629999999999984,-0.030571911190083446
0.23529999999999984,-0.030600205416080745
0.23429999999999984,-0.030642646755076695
0.23329999999999984,-0.030699235207071292
0.23229999999999984,-0.030755823659065897
0.23129999999999984,-0.03082655922405915
0.23029999999999984,-0.030883147676053754
0.22929999999999984,-0.030939736128048352
0.22829999999999984,-0.03099632458004295
0.22729999999999984,-0.031010471693041605
0.22629999999999983,-0.031081207258034853
0.22529999999999983,-0.031123648597030807
0.22429999999999983,-0.031151942823028106
0.22329999999999983,-0.03123682550102001
0.22229999999999983,-0.03130756106601326
0.22129999999999983,-0.03137829663100652
0.22029999999999983,-0.031420737970002464
0.21929999999999983,-0.03147732642199706
0.21829999999999983,-0.03151976776099302
0.21729999999999983,-0.03156220909998896
0.21629999999999983,-0.03160465043898492
0.21529999999999982,-0.03164709177798087
0.21429999999999982,-0.03167538600397817
0.21329999999999982,-0.03176026868197007
0.21229999999999982,-0.03181685713396468
0.21129999999999982,-0.03185929847296063
0.21029999999999982,-0.03193003403795388
0.20929999999999982,-0.03198662248994848
0.20829999999999982,-0.03204321094194308
0.20729999999999982,-0.03211394650693633
0.20629999999999982,-0.03217053495893094
0.20529999999999982,-0.03219882918492823
0.20429999999999982,-0.03224127052392419
0.20329999999999981,-0.03229785897591879
0.2022999999999998,-0.032340300314914736
0.2012999999999998,-0.03241103587990799
0.20029999999999992,-0.032453477218903945
0.19929999999999992,-0.03256665412289315
0.19829999999999992,-0.0326090954618891
0.19729999999999992,-0.0326656839138837
0.19629999999999992,-0.032722272365878304
0.19529999999999992,-0.032736419478876955
0.19429999999999992,-0.03284959638286615
0.19329999999999992,-0.03290618483486075
0.19229999999999992,-0.0329203319478594
0.19129999999999991,-0.03301936173884996
0.1902999999999999,-0.033090097303843206
0.1892999999999999,-0.033146685755837804
0.1882999999999999,-0.03321742132083106
0.1872999999999999,-0.03323156843382971
0.1862999999999999,-0.03330230399882296
0.1852999999999999,-0.033344745337818914
0.1842999999999999,-0.033358892450817565
0.1832999999999999,-0.03342962801581082
0.1822999999999999,-0.03350036358080407
0.1812999999999999,-0.03358524625879597
0.1802999999999999,-0.033655981823789226
0.1792999999999999,-0.033698423162785165
0.1782999999999999,-0.03376915872777843
0.1772999999999999,-0.03383989429277168
0.1762999999999999,-0.03386818851876898
0.1752999999999999,-0.03393892408376223
0.1742999999999999,-0.03395307119676088
0.1732999999999999,-0.03402380676175413
0.1722999999999999,-0.034094542326747385
0.1712999999999999,-0.03415113077874199
0.1702999999999999,-0.03422186634373524
0.1692999999999999,-0.03429260190872849
0.1682999999999999,-0.034349190360723085
0.1672999999999999,-0.03440577881271769
0.1662999999999999,-0.03443407303871499
0.1652999999999999,-0.034476514377710946
0.1642999999999999,-0.03451895571670689
0.1632999999999999,-0.0346038383946988
0.1622999999999999,-0.03467457395969205
0.1612999999999999,-0.03475945663768395
0.1602999999999999,-0.03478775086368125
0.1592999999999999,-0.03484433931567585
0.15829999999999989,-0.03488678065467181
0.15729999999999988,-0.034929221993667756
0.15629999999999988,-0.034999957558661005
0.15529999999999988,-0.03504239889765696
0.15429999999999988,-0.03508484023665291
0.15329999999999988,-0.03516972291464481
0.15229999999999988,-0.03522631136663941
0.15129999999999988,-0.03531119404463132
0.15029999999999988,-0.03533948827062862
0.14929999999999988,-0.03539607672262322
0.14829999999999988,-0.03545266517461782
0.14729999999999988,-0.03549510651361377
0.14629999999999987,-0.035565842078607024
0.14529999999999987,-0.03563657764360027
0.14429999999999987,-0.035679018982596226
0.14329999999999987,-0.03577804877358678
0.14229999999999987,-0.03586293145157868
0.14129999999999987,-0.03590537279057463
0.14029999999999987,-0.03597610835556788
0.13929999999999987,-0.03599025546856653
0.13829999999999987,-0.03606099103355979
0.13729999999999987,-0.036117579485554385
0.13629999999999987,-0.036188315050547634
0.13529999999999986,-0.03625905061554088
0.13429999999999986,-0.03628734484153819
0.13329999999999986,-0.03638637463252875
0.13229999999999986,-0.036457110197522
0.13129999999999986,-0.036499551536517946
0.13029999999999986,-0.036570287101511195
0.12929999999999986,-0.0366268755535058
0.12829999999999986,-0.03671175823149771
0.12729999999999986,-0.03679664090948961
0.12629999999999986,-0.036853229361484205
0.12529999999999986,-0.036923964926477454
0.12429999999999986,-0.03699470049147071
0.12329999999999985,-0.03703714183046666
0.12229999999999985,-0.03709373028246127
0.12129999999999985,-0.03716446584745452
0.12029999999999985,-0.03719276007345181
0.11929999999999985,-0.03726349563844507
0.11829999999999985,-0.03734837831643697
0.11729999999999985,-0.03744740810742752
0.11629999999999985,-0.03754643789841807
0.11529999999999985,-0.03758887923741403
0.11429999999999985,-0.03765961480240728
0.11329999999999985,-0.03771620325440188
0.11229999999999984,-0.037772791706396476
0.11129999999999984,-0.03785767438438838
0.11029999999999984,-0.03790011572338433
0.10929999999999984,-0.03794255706238028
0.10829999999999984,-0.03802743974037219
0.10729999999999984,-0.03808402819236679
0.10629999999999984,-0.03816891087035869
0.10529999999999984,-0.038239646435351944
0.10429999999999984,-0.03829623488734655
0.10329999999999984,-0.0383669704523398
0.10229999999999984,-0.038409411791335744
0.10129999999999983,-0.03846600024333035
0.10029999999999983,-0.03855088292132225
0.09929999999999983,-0.0385933242603182
0.09829999999999983,-0.03866405982531145
0.09729999999999983,-0.03873479539030471
0.09629999999999983,-0.03880553095529796
0.09529999999999983,-0.03889041363328985
0.09429999999999983,-0.03891870785928716
0.09329999999999983,-0.039003590537279066
0.09229999999999983,-0.039088473215270966
0.09129999999999983,-0.039173355893262866
0.09029999999999982,-0.03927238568425342
0.08929999999999982,-0.039328974136248016
0.08829999999999982,-0.03938556258824262
0.08729999999999982,-0.03947044526623452
0.08629999999999982,-0.03951288660523048
0.08529999999999982,-0.03956947505722508
0.08429999999999982,-0.039626063509219676
0.08329999999999982,-0.039725093300210235
0.08229999999999982,-0.039795828865203484
0.08129999999999982,-0.039909005769192686
0.08029999999999982,-0.03999388844718459
0.07929999999999982,-0.04009291823817514
0.07829999999999981,-0.04017780091616704
0.07729999999999981,-0.04020609514216435
0.07629999999999981,-0.040262683594158945
0.07529999999999992,-0.0403051249331549
0.07429999999999992,-0.040347566272150845
0.07329999999999992,-0.04043244895014275
0.07229999999999992,-0.040531478741133296
0.07129999999999992,-0.040630508532123855
0.07029999999999992,-0.04068709698411845
0.06929999999999992,-0.040729538323114406
0.06829999999999992,-0.04082856811410496
0.06729999999999992,-0.04085686234010226
0.06629999999999991,-0.040955892131092804
0.06529999999999991,-0.04102662769608607
0.06429999999999991,-0.04106906903508201
0.06329999999999991,-0.041168098826072565
0.06229999999999991,-0.04122468727806717
0.06129999999999991,-0.04130956995605907
0.06029999999999991,-0.04139445263405097
0.05929999999999991,-0.04143689397304692
0.05829999999999991,-0.04152177665103883
0.05729999999999991,-0.041606659329030724
0.056299999999999906,-0.04170568912002128
0.055299999999999905,-0.04179057179801319
0.054299999999999904,-0.04183301313700913
0.0532999999999999,-0.04193204292799969
0.0522999999999999,-0.042002778492992936
0.0512999999999999,-0.04204521983198889
0.0502999999999999,-0.042130102509980796
0.0492999999999999,-0.042214985187972696
0.0482999999999999,-0.042299867865964604
0.0472999999999999,-0.04237060343095785
0.0462999999999999,-0.04245548610894975
0.045299999999999896,-0.04254036878694165
0.044299999999999895,-0.04261110435193491
0.043299999999999894,-0.04268183991692816
0.04229999999999989,-0.04275257548192141
0.04129999999999989,-0.04286575238591061
0.04029999999999989,-0.04297892928989981
0.03929999999999989,-0.04303551774189441
0.03829999999999989,-0.043120400419886316
0.03729999999999989,-0.043205283097878217
0.03629999999999989,-0.04327601866287147
0.03529999999999989,-0.04333260711486608
0.034299999999999886,-0.04344578401885528
0.033299999999999885,-0.04353066669684717
0.032299999999999884,-0.04361554937483908
0.031299999999999883,-0.04371457916582964
0.030299999999999883,-0.04378531473082289
0.02929999999999988,-0.043870197408814794
0.02829999999999988,-0.04398337431280399
0.02729999999999988,-0.04406825699079589
0.02629999999999988,-0.04416728678178644
0.025299999999999878,-0.04423802234677969
0.024299999999999877,-0.0443229050247716
0.023299999999999876,-0.04443608192876081
0.022299999999999875,-0.044506817493754056
0.021299999999999875,-0.04460584728474461
0.020299999999999874,-0.04471902418873381
0.019299999999999873,-0.04478975975372706
0.018299999999999872,-0.04488878954471761
0.01729999999999987,-0.04498781933570817
0.01629999999999987,-0.045072702013700075
0.01529999999999987,-0.04517173180469062
0.014299999999999868,-0.045256614482682526
0.013299999999999867,-0.04534149716067442
0.012299999999999978,-0.04545467406466363
0.011299999999999866,-0.04555370385565418
0.010299999999999976,-0.04563858653364609
0.009299999999999864,-0.04573761632463663
0.008299999999999974,-0.04580835188962989
0.007299999999999862,-0.04592152879361909
0.006299999999999972,-0.046006411471611
0.00529999999999986,-0.04610544126260154
0.0042999999999999705,-0.0462044710535921
0.0032999999999998586,-0.04628935373158401
0.0022999999999999687,-0.046416677748571854
0.0012999999999998568,-0.04650156042656376
0.00029999999999996696,-0.04660059021755431
-0.000700000000000145,-0.04668547289554621
-0.0017000000000000348,-0.04679864979953541
-0.0027000000000001467,-0.04692597381652327
-0.0037000000000000366,-0.04702500360751381
-0.0047000000000001485,-0.04710988628550572
-0.005700000000000038,-0.04720891607649628
-0.00670000000000015,-0.04729379875448818
-0.00770000000000004,-0.04739282854547873
-0.008700000000000152,-0.04750600544946793
-0.009700000000000042,-0.04760503524045848
-0.010700000000000154,-0.04771821214444769
-0.011700000000000044,-0.0478596832744342
-0.012700000000000156,-0.04790212461343014
-0.013700000000000045,-0.048029448630418
-0.014700000000000157,-0.0481143313084099
-0.015700000000000047,-0.048199213986401805
-0.01670000000000016,-0.04829824377739235
-0.01770000000000005,-0.0483972735683829
-0.01870000000000016,-0.0485104504723721
-0.01970000000000005,-0.04862362737636131
-0.020700000000000163,-0.04870851005435321
-0.021700000000000053,-0.04884998118433972
-0.022700000000000164,-0.04896315808832892
-0.023700000000000054,-0.04904804076632082
-0.024700000000000166,-0.049118776331314076
-0.025700000000000056,-0.049175364783308674
-0.026700000000000168,-0.049274394574299225
-0.027700000000000058,-0.04938757147828843
-0.02870000000000017,-0.049472454156280335
-0.02970000000000006,-0.04959977817326818
-0.03070000000000017,-0.04971295507725739
-0.03170000000000006,-0.04979783775524929
-0.03270000000000017,-0.049911014659238494
-0.03370000000000006,-0.04998175022423174
-0.034700000000000175,-0.05006663290222365
-0.035700000000000065,-0.05015151558021554
-0.03670000000000018,-0.0502505453712061
-0.03770000000000007,-0.050363722275195304
-0.03870000000000018,-0.05050519340518181
-0.03970000000000007,-0.050590076083173716
-0.04070000000000018,-0.050660811648166965
-0.04170000000000007,-0.05077398855215617
-0.04270000000000018,-0.05085887123014807
-0.04370000000000007,-0.05095790102113862
-0.044700000000000184,-0.051042783699130526
-0.045700000000000074,-0.051141813490121084
-0.046700000000000186,-0.05125499039411028
-0.047700000000000076,-0.05135402018510083
-0.04870000000000019,-0.05146719708909004
-0.04970000000000008,-0.05155207976708194
-0.05070000000000019,-0.05160866821907654
-0.05170000000000008,-0.051721845123065734
-0.05270000000000019,-0.05180672780105764
-0.05370000000000008,-0.0519057575920482
-0.05470000000000019,-0.0520189344960374
-0.05570000000000008,-0.052117964287027946
-0.056700000000000195,-0.05225943541701446
-0.057700000000000085,-0.05235846520800501
-0.058700000000000196,-0.05245749499899556
-0.059700000000000086,-0.05257067190298476
-0.0607000000000002,-0.05262726035497937
-0.06170000000000009,-0.052782878597964523
-0.0627000000000002,-0.05286776127595642
-0.06370000000000009,-0.05291020261495238
-0.0647000000000002,-0.05302337951894157
-0.06570000000000009,-0.05310826219693348
-0.0667000000000002,-0.05324973332691998
-0.0677000000000001,-0.053334616004911885
