Potential V vs RHE, Current mA cm-2
0.013299999999999867,-0.015208146473549147
0.012299999999999978,-0.0344906614907096
0.011299999999999866,-0.04682694402553272
0.010299999999999976,-0.05880954873538958
0.009299999999999864,-0.06867008649544887
0.008299999999999974,-0.07410257788693062
0.007299999999999862,-0.07738470810261751
0.006299999999999972,-0.08308599464107361
0.00529999999999986,-0.08983416754142984
0.0042999999999999705,-0.09695016537975096
0.0032999999999998586,-0.09997764756146214
0.0022999999999999687,-0.10123674061834202
0.0012999999999998568,-0.10553746296993173
0.00029999999999996696,-0.1115075446553622
-0.000700000000000145,-0.11679856491685743
-0.0017000000000000348,-0.1192601625786226
-0.0027000000000001467,-0.11954310483859559
-0.0037000000000000366,-0.1226271754723014
-0.0047000000000001485,-0.12814454954177504
-0.005700000000000038,-0.13366192361124865
-0.00670000000000015,-0.13458148595616093
-0.00770000000000004,-0.1354444598490786
-0.008700000000000152,-0.13715626052191532
-0.009700000000000042,-0.14302731241635522
-0.010700000000000154,-0.14783733083589634
-0.011700000000000044,-0.14854468648582883
-0.012700000000000156,-0.14882762874580185
-0.013700000000000045,-0.1513741090855589
-0.014700000000000157,-0.15575971411514053
-0.015700000000000047,-0.16056973253468165
-0.01670000000000016,-0.16141855931460067
-0.01770000000000005,-0.1617015015745737
-0.01870000000000016,-0.16325768400442522
-0.01970000000000005,-0.16863358694391237
-0.020700000000000163,-0.1731606631034805
-0.021700000000000053,-0.17415096101338604
-0.022700000000000164,-0.1734436053634535
-0.023700000000000054,-0.17556567231325104
-0.024700000000000166,-0.18136598864269768
-0.025700000000000056,-0.18532718028231981
-0.026700000000000168,-0.1858930648022658
-0.027700000000000058,-0.1856101225422928
-0.02870000000000017,-0.18787366062207686
-0.02970000000000006,-0.192966621301591
-0.03070000000000017,-0.1970692840711996
-0.03170000000000006,-0.19834252424107812
-0.03270000000000017,-0.1976351685911456
-0.03370000000000006,-0.20032312006088918
-0.034700000000000175,-0.20499166735044383
-0.035700000000000065,-0.20966021463999845
-0.03670000000000018,-0.21121639706985
-0.03770000000000007,-0.20966021463999845
-0.03870000000000018,-0.212065223849769
-0.03970000000000007,-0.21715818452928315
-0.04070000000000018,-0.22210967407881074
-0.04170000000000007,-0.22267555859875673
-0.04270000000000018,-0.22168526068885125
-0.04370000000000007,-0.22465615441856782
-0.044700000000000184,-0.22989058622806843
-0.045700000000000074,-0.23441766238763656
-0.046700000000000186,-0.2354079602975421
-0.047700000000000076,-0.23512501803756908
-0.04870000000000019,-0.23753002724733965
-0.04970000000000008,-0.24318887244679982
-0.05070000000000019,-0.24757447747638137
-0.05170000000000008,-0.2482818331263139
-0.05270000000000019,-0.24870624651627343
-0.05370000000000008,-0.25040390007611146
-0.05470000000000019,-0.25634568753554465
-0.05570000000000008,-0.26044835030515323
-0.056700000000000195,-0.2617215904750318
-0.057700000000000085,-0.2624289461249643
-0.058700000000000196,-0.26384365742482935
-0.059700000000000086,-0.2695025026242895
-0.0607000000000002,-0.27445399217381716
-0.06170000000000009,-0.2754442900837227
-0.0627000000000002,-0.27558576121370915
-0.06370000000000009,-0.27784929929349317
-0.0647000000000002,-0.28379108675292636
-0.06570000000000009,-0.2886011051724675
-0.0667000000000002,-0.28959140308237297
-0.0677000000000001,-0.29001581647233254
-0.0687000000000002,-0.29199641229214357
-0.0697000000000001,-0.2976552574916037
-0.07070000000000021,-0.30260674704113133
-0.0717000000000001,-0.30430440060096936
-0.07270000000000021,-0.3034555738210504
-0.0737000000000001,-0.3064264675507669
-0.07470000000000021,-0.3127926684001596
-0.0757000000000001,-0.3171782734297412
-0.07670000000000021,-0.31873445585959276
-0.0777000000000001,-0.31831004246963324
-0.07870000000000021,-0.3217053495893093
-0.0797000000000001,-0.32708125252879644
-0.08070000000000022,-0.3320327420783241
-0.0817000000000001,-0.33373039563816215
-0.08270000000000022,-0.3333059822482026
-0.08370000000000011,-0.33613540484793275
-0.08470000000000022,-0.3422186634373524
-0.08570000000000011,-0.3473116241168665
-0.08670000000000022,-0.34816045089678554
-0.08770000000000011,-0.34900927767670453
-0.08870000000000022,-0.35141428688647514
-0.08970000000000011,-0.3572146032159218
-0.09070000000000022,-0.36301491954536846
-0.09170000000000011,-0.36315639067535493
-0.09270000000000023,-0.36414668858526045
-0.09370000000000012,-0.366551697795031
-0.09470000000000023,-0.37221054299449113
-0.09570000000000012,-0.3775864459339783
-0.09670000000000023,-0.37815233045392427
-0.09770000000000012,-0.37885968610385684
-0.09870000000000023,-0.38112322418364086
-0.09970000000000012,-0.38777236729300657
-0.10070000000000023,-0.39229944345257467
-0.10170000000000012,-0.39357268362245323
-0.10270000000000024,-0.39385562588242623
-0.10370000000000013,-0.39668504848215624
-0.10470000000000024,-0.4024853648116029
-0.10570000000000013,-0.4078612677510901
-0.10670000000000024,-0.4088515656609956
-0.10770000000000013,-0.4088515656609956
-0.10870000000000024,-0.4121054016506852
-0.10970000000000013,-0.41748130459017235
-0.11070000000000024,-0.4228572075296595
-0.11170000000000013,-0.4237060343095785
-0.11270000000000002,-0.423564563179592
-0.11370000000000013,-0.42752575481921407
-0.11470000000000002,-0.4327601866287147
-0.11570000000000014,-0.43813608956820194
-0.11670000000000003,-0.4385605029581614
-0.11770000000000014,-0.43884344521813434
-0.11870000000000003,-0.44195581007783746
-0.11970000000000014,-0.44733171301732455
-0.12070000000000003,-0.45327350047675774
-0.12170000000000014,-0.45398085612669026
-0.12270000000000003,-0.45383938499670373
-0.12370000000000014,-0.4563858653364608
-0.12470000000000003,-0.46232765279589394
-0.12570000000000014,-0.4677035557353811
-0.12670000000000003,-0.46756208460539456
-0.12770000000000015,-0.4677035557353811
-0.12870000000000004,-0.47025003607513816
-0.12970000000000015,-0.4764747657945444
-0.13070000000000004,-0.4818506687340315
-0.13170000000000015,-0.48227508212399106
-0.13270000000000004,-0.48227508212399106
-0.13370000000000015,-0.4852459758537076
-0.13470000000000004,-0.49104629218315415
-0.13570000000000015,-0.4958563106026953
-0.13670000000000004,-0.4962807239926549
-0.13770000000000016,-0.49670513738261435
-0.13870000000000005,-0.49896867546239837
-0.13970000000000016,-0.504486049531872
-0.14070000000000005,-0.5097204813413726
-0.14170000000000016,-0.5111351926412377
-0.14270000000000005,-0.5108522503812647
-0.14370000000000016,-0.5139646152409678
-0.14470000000000005,-0.519623460440428
-0.14570000000000016,-0.5249993633799152
-0.14670000000000005,-0.5255652478998613
-0.14770000000000016,-0.5254237767698746
-0.14870000000000005,-0.5282531993696047
-0.14970000000000017,-0.5339120445690649
-0.15070000000000006,-0.539005005248579
-0.15170000000000017,-0.5399953031584845
-0.15270000000000006,-0.539853832028498
-0.15370000000000017,-0.5429661968882011
-0.15470000000000006,-0.5486250420876613
-0.15570000000000017,-0.5542838872871214
-0.15670000000000006,-0.5551327140670403
-0.15770000000000017,-0.5544253584171079
-0.15870000000000006,-0.5573962521468245
-0.15970000000000018,-0.5627721550863116
-0.16070000000000007,-0.5681480580257988
-0.16170000000000018,-0.5689968848057178
-0.16270000000000007,-0.5688554136757313
-0.16370000000000018,-0.5723921919253939
-0.16470000000000007,-0.5784754505148135
-0.16570000000000018,-0.5839928245842871
-0.16670000000000007,-0.5844172379742467
-0.16770000000000018,-0.5854075358841522
-0.16870000000000007,-0.5879540162239093
-0.16970000000000018,-0.5937543325533559
-0.17070000000000007,-0.5992717066228296
-0.17170000000000019,-0.600262004532735
-0.17270000000000008,-0.6006864179226945
-0.1737000000000002,-0.6039402539123842
-0.17470000000000008,-0.6108723392817229
-0.1757000000000002,-0.6163897133511964
-0.17670000000000008,-0.6169555978711424
-0.1777000000000002,-0.6175214823910884
-0.17870000000000008,-0.6214826740307106
-0.1797000000000002,-0.6278488748801032
-0.18070000000000008,-0.6335077200795635
-0.1817000000000002,-0.6349224313794284
-0.18270000000000008,-0.6349224313794284
-0.1837000000000002,-0.63930803640901
-0.1847000000000001,-0.6460986506483622
-0.1857000000000002,-0.6517574958478223
-0.1867000000000001,-0.652747793757728
-0.1877000000000002,-0.6535966205376469
-0.1887000000000001,-0.6576992833072556
-0.1897000000000002,-0.6656216665864998
-0.1907000000000001,-0.6715634540459329
-0.1917000000000001,-0.673544049865744
-0.19269999999999998,-0.6745343477756495
-0.1937000000000001,-0.6793443661951906
-0.19469999999999998,-0.6859935093045563
-0.1957000000000001,-0.6922182390239625
-0.19669999999999999,-0.6957550172736251
-0.1977000000000001,-0.6956135461436386
-0.1987,-0.7008479779531391
-0.1997000000000001,-0.7074971210625048
-0.2007,-0.7151365620817761
-0.2017000000000001,-0.7183903980714657
-0.2027,-0.7190977537213982
-0.2037000000000001,-0.7251810123108178
-0.2047,-0.733103395590062
-0.2057000000000001,-0.7400354809594006
-0.2067,-0.7428649035591307
-0.2077000000000001,-0.7452699127689013
-0.2087,-0.7512117002283345
-0.2097000000000001,-0.7594170257675517
-0.2107,-0.767905293566742
-0.2117000000000001,-0.7705932450364854
-0.2127,-0.7739885521561616
-0.2137000000000001,-0.7812035797854733
-0.2147,-0.7898333187146499
-0.2157000000000001,-0.8001607112036647
-0.2167,-0.8027071915434218
-0.21770000000000012,-0.807517209962963
-0.2187,-0.8137419396823691
-0.21970000000000012,-0.8242108033013704
-0.2207,-0.8342552535304122
-0.22170000000000012,-0.8379335029100613
-0.2227,-0.8434508769795349
-0.22370000000000012,-0.8515147313887655
-0.2247,-0.8617006527477938
-0.22570000000000012,-0.8728768720167276
-0.2267,-0.8774039481762959
-0.22770000000000012,-0.8843360335456344
-0.22870000000000001,-0.8945219549046627
-0.22970000000000013,-0.9065470009535155
-0.23070000000000002,-0.9170158645725168
-0.23170000000000013,-0.924089421071842
-0.23270000000000002,-0.9315873909611266
-0.23370000000000013,-0.9413488989301954
-0.23470000000000002,-0.9552130696688728
-0.23570000000000013,-0.967662529107685
-0.23670000000000002,-0.9761507969068753
-0.2376999999999999,-0.9847805358360522
-0.23870000000000002,-0.9966641107549185
-0.2396999999999999,-1.011235637143528
-0.24070000000000003,-1.0265145191820706
-0.24169999999999991,-1.0371248539310585
-0.24270000000000003,-1.0468863619001272
-0.24369999999999992,-1.0618823016786967
-0.24470000000000003,-1.0795661929270095
-0.24569999999999992,-1.0948450749655518
-0.24670000000000003,-1.1081433611842832
-0.24769999999999992,-1.1220075319229605
-0.24870000000000003,-1.1372864139615029
-0.24969999999999992,-1.157516785549573
-0.25070000000000003,-1.1771812726176971
-0.2516999999999999,-1.1938748659561045
-0.25270000000000004,-1.2092952191246333
-0.2536999999999999,-1.2292426484527306
-0.25470000000000004,-1.253575682810409
-0.2556999999999999,-1.276352534738236
-0.25670000000000004,-1.2965829063263061
-0.25769999999999993,-1.3165303356544031
-0.25870000000000004,-1.3400145432321628
-0.25969999999999993,-1.367884355839504
-0.26070000000000004,-1.3958956395768316
-0.26169999999999993,-1.421784856364362
-0.26270000000000004,-1.4486643710617975
-0.26369999999999993,-1.4783733083589634
-0.26470000000000005,-1.5137410908555893
-0.26569999999999994,-1.55052358465208
-0.26670000000000005,-1.584476655848841
-0.26769999999999994,-1.6184297270456018
-0.26870000000000005,-1.658041643441823
-0.26969999999999994,-1.7033124050375041
-0.27070000000000005,-1.7499978779330503
-0.27169999999999994,-1.7938539282288664
-0.27270000000000005,-1.8405394011244125
-0.27369999999999994,-1.892883719219419
-0.27470000000000006,-1.9508868825138854
-0.27569999999999995,-2.011719468408082
-0.27670000000000006,-2.071137343002414
-0.27769999999999995,-2.13196992889661
-0.27870000000000006,-2.1984613599902674
-0.27969999999999995,-2.272026347583249
-0.28070000000000006,-2.351250180375691
-0.28169999999999995,-2.430474013168133
-0.28270000000000006,-2.50828313466071
-0.28369999999999995,-2.5931658126526123
-0.28470000000000006,-2.6865367584437045
-0.28569999999999995,-2.7799077042347973
-0.28670000000000007,-2.870449227426159
-0.28769999999999996,-2.9595760393176564
-0.28870000000000007,-3.0529469851087487
-0.28969999999999996,-3.150562064799437
-0.29070000000000007,-3.2566654122893146
-0.29169999999999996,-3.3641834710790572
-0.29270000000000007,-3.475945663768395
-0.29369999999999996,-3.591951990357328
-0.2947000000000001,-3.7122024508458558
-0.29569999999999996,-3.8366970452339793
-0.2967000000000001,-3.9541180831227782
-0.29769999999999996,-4.074368543611305
-0.2987000000000001,-4.186130736300643
-0.29969999999999997,-4.307795908089036
-0.3007000000000001,-4.433705213777024
-0.30169999999999997,-4.566688075964338
-0.3027000000000001,-4.691182670352461
-0.30369999999999997,-4.814262553440719
-0.3047000000000001,-4.948660126927899
-0.30569999999999997,-5.085887123014808
-0.3067000000000001,-5.208967006103065
-0.3077,-5.351852847389433
-0.3087000000000001,-5.510300512974317
-0.3097,-5.667333467259336
-0.3107000000000001,-5.82578113284422
-0.3117,-5.981399375829374
-0.3127000000000001,-6.1186263719162834
-0.3137,-6.226144430706027
-0.3147000000000001,-6.363371426792935
-0.3157,-6.533136782776739
-0.3167000000000001,-6.712805117859599
-0.3177,-6.902376432041514
-0.3187000000000001,-7.096191880123024
-0.3197,-7.288592616904668
-0.3207000000000001,-7.478163931086583
-0.3217,-7.6592469774693095
-0.3227000000000001,-7.827597622153248
-0.3237,-8.000192400736783
-0.3247000000000001,-8.189763714918698
-0.3257,-8.389238008199667
-0.3267000000000001,-8.587297590180773
-0.3277,-8.796674862560797
-0.3287000000000001,-9.017369825339744
-0.3297,-9.230991231619363
-0.3307000000000001,-9.43753908139966
-0.3317,-9.659648755478472
-0.3327000000000001,-9.89024669735647
-0.3337,-10.133577040933258
-0.3347000000000001,-10.392469208808558
-0.3357,-10.648531954084133
-0.3367000000000001,-10.870641628162943
-0.3377,-11.098410147441212
-0.3387000000000001,-11.348814047517324
-0.3397,-11.613365060592086
-0.3407000000000001,-11.887819052765904
-0.3417,-12.18773784833729
-0.3427000000000001,-12.480583087409354
-0.3437,-12.74654881178398
-0.3447000000000001,-13.028076360457122
-0.3457,-13.329409867328376
-0.3467000000000001,-13.618010972500844
-0.3477,-13.896709098574254
-0.3487000000000001,-14.203701450644967
-0.3497,-14.529085049613924
-0.3507000000000001,-14.840321535584234
-0.3517,-15.137410908555893
-0.3527000000000001,-15.43450028152755
-0.3537,-15.731589654499205
-0.3547000000000001,-16.056973253468165
-0.3557,-16.354062626439823
-0.35670000000000013,-16.60871066041553
-0.3577,-16.891652920388537
-0.35870000000000013,-17.231183632356142
-0.3597,-17.599008570321057
-0.36070000000000013,-17.966833508285966
-0.3617,-18.320511333252224
-0.3626999999999999,-18.674189158218486
-0.3637,-19.056161209182044
-0.3646999999999999,-19.4381332601456
-0.3657,-19.820105311109163
-0.3666999999999999,-20.21622447507137
-0.3677,-20.612343639033586
-0.3686999999999999,-20.966021463999844
-0.36970000000000003,-21.347993514963402
-0.3706999999999999,-21.772406904922917
-0.37170000000000003,-22.15437895588647
-0.3726999999999999,-22.508056780852733
-0.37370000000000003,-22.960764396809545
-0.3746999999999999,-23.385177786769056
-0.37570000000000003,-23.753002724733967
-0.3766999999999999,-24.120827662698876
-0.37770000000000004,-24.502799713662437
-0.3786999999999999,-24.927213103621945
-0.37970000000000004,-25.46480339757066
-0.3806999999999999,-25.931658126526123
-0.38170000000000004,-26.370218629484285
-0.38269999999999993,-26.752190680447846
-0.38370000000000004,-27.091721392415455
-0.38469999999999993,-27.64345879936282
-0.38570000000000004,-28.379108675292635
-0.38669999999999993,-28.548874031276437
-0.38570000000000004,-28.251784658304786
-0.38469999999999993,-27.940548172334477
-0.38370000000000004,-27.601017460366865
-0.38269999999999993,-27.261486748399253
-0.38170000000000004,-27.091721392415455
-0.3806999999999999,-27.035132940420848
-0.37970000000000004,-26.766337793446493
-0.3786999999999999,-26.469248420474838
-0.37770000000000004,-26.101423482509926
-0.3766999999999999,-25.719451431546364
-0.37570000000000003,-25.337479380582806
-0.3746999999999999,-24.997948668615198
-0.37370000000000003,-24.65841795664759
-0.3726999999999999,-24.33303435767863
-0.37170000000000003,-24.050092097705623
-0.3706999999999999,-23.852032515724517
-0.36970000000000003,-23.526648916755562
-0.3686999999999999,-23.187118204787954
-0.3677,-22.819293266823045
-0.3666999999999999,-22.451468328858134
-0.3657,-22.097790503891872
-0.3646999999999999,-21.857289582914817
-0.3637,-21.61678866193776
-0.3626999999999999,-21.347993514963402
-0.3617,-21.079198367989047
-0.36070000000000013,-20.73966765602144
-0.3597,-20.371842718056527
-0.35870000000000013,-20.03231200608892
-0.3577,-19.805958198110513
-0.35670000000000013,-19.537163051136158
-0.3557,-19.28251501716045
-0.3547000000000001,-19.042014096183394
-0.3537,-18.744924723211735
-0.3527000000000001,-18.419541124242777
-0.3517,-18.06586329927652
-0.3507000000000001,-17.76877392630486
-0.3497,-17.48583166633185
-0.3487000000000001,-17.20288940635885
-0.3477,-16.94824137238314
-0.3467000000000001,-16.637004886412832
-0.3457,-16.311621287443874
-0.3447000000000001,-16.014531914472215
-0.3437,-15.731589654499205
-0.3427000000000001,-15.4203531685289
-0.3417,-15.10911668255859
-0.3407000000000001,-14.826174422585586
-0.3397,-14.557379275611227
-0.3387000000000001,-14.30273124163552
-0.3377,-14.0608156093586
-0.3367000000000001,-13.784946905884919
-0.3357,-13.50483406851164
-0.3347000000000001,-13.257259591035258
-0.3337,-13.016758670058202
-0.3327000000000001,-12.790404862079797
-0.3317,-12.555562786302202
-0.3307000000000001,-12.302329463626359
-0.3297,-12.046266718350788
-0.3287000000000001,-11.814254065172921
-0.3277,-11.594973813693839
-0.3267000000000001,-11.372864139615029
-0.3257,-11.162072155935139
-0.3247000000000001,-10.949865460955383
-0.3237,-10.746147033774818
-0.3227000000000001,-10.525452070995872
-0.3217,-10.297683551717602
-0.3207000000000001,-10.081232722838251
-0.3197,-9.873270161758091
-0.3187000000000001,-9.689357692775637
-0.3177,-9.515348202892236
-0.3167000000000001,-9.342753424308702
-0.3157,-9.141864419727867
-0.3147000000000001,-8.955122528145683
-0.3137,-8.772624770463093
-0.3127000000000001,-8.570321054582392
-0.3117,-8.358114359602638
-0.3107000000000001,-8.151566509822342
-0.3097,-7.950677505241506
-0.3087000000000001,-7.763935613659322
-0.3077,-7.585681989876327
-0.3067000000000001,-7.3975253869942765
-0.30569999999999997,-7.200880516313037
-0.3047000000000001,-7.008479779531392
-0.30369999999999997,-6.817493754049612
-0.3027000000000001,-6.622263594668237
-0.30169999999999997,-6.427033435286861
-0.3007000000000001,-6.254438656703328
-0.29969999999999997,-6.115796949316553
-0.2987000000000001,-5.951690438532209
-0.29769999999999996,-5.791828061647459
-0.2967000000000001,-5.630550973462847
-0.29569999999999996,-5.473518019177827
-0.2947000000000001,-5.3178997761926725
-0.29369999999999996,-5.169355089706844
-0.29270000000000007,-5.03071338232007
-0.29169999999999996,-4.892071674933297
-0.29070000000000007,-4.768991791845038
-0.28969999999999996,-4.634594218357861
-0.28870000000000007,-4.5044407787702765
-0.28769999999999996,-4.385605029581614
-0.28670000000000007,-4.265354569093086
-0.28569999999999995,-4.1295422843060425
-0.28470000000000006,-4.013535957717109
-0.28369999999999995,-3.9046031876275014
-0.28270000000000006,-3.794255706238028
-0.28169999999999995,-3.6683464005500404
-0.28070000000000006,-3.539607672262322
-0.27969999999999995,-3.430674902172714
-0.27870000000000006,-3.3302303998822964
-0.27769999999999995,-3.2340300314914736
-0.27670000000000006,-3.1335855292010564
-0.27569999999999995,-3.0303116043109086
-0.27470000000000006,-2.9341112359200863
-0.27369999999999994,-2.8478138466283185
