Aug. 5, 2024   20:59:56
Cyclic Voltammetry
File: c:/users/guazh/data/20240802_batch_500/2024-08-02-exp29\exp29-2024-08-05t20_51_13-h2koh\exp29_cv_50mvs_efin_-1600mv.bin
Data Source:  Experiment
Instrument Model:  CHI760E
Header: CV ran at 50 mVs
Note: 

Init E (V) = -1
High E (V) = -1
Low E (V) = -1.6
Final E (V) = -1
Init P/N = N
Scan Rate (V/s) = 0.05
Segment = 7
Sample Interval (V) = 0.001
Quiet Time (sec) = 60
Sensitivity (A/V) = 0.001
Comp R (ohm) = 2.4

Results:

Channel 1:
Segment 1:

Segment 2:

Segment 3:

Segment 4:

Segment 5:

Segment 6:

Segment 7:

Potential/V, Current/A

-1.000, -1.910e-6
-1.001, -1.408e-6
-1.002, -1.065e-6
-1.003, -8.299e-7
-1.004, -7.372e-7
-1.005, -7.392e-7
-1.006, -5.478e-7
-1.007, -3.889e-7
-1.008, -2.015e-7
-1.009, -1.877e-7
-1.010, -2.192e-7
-1.011, -4.262e-8
-1.012, 9.550e-8
-1.013, 2.228e-7
-1.014, 2.484e-7
-1.015, 2.129e-7
-1.016, 3.224e-7
-1.017, 4.477e-7
-1.018, 6.362e-7
-1.019, 5.967e-7
-1.020, 5.464e-7
-1.021, 6.776e-7
-1.022, 8.177e-7
-1.023, 9.252e-7
-1.024, 9.617e-7
-1.025, 8.996e-7
-1.026, 1.005e-6
-1.027, 1.131e-6
-1.028, 1.274e-6
-1.029, 1.240e-6
-1.030, 1.193e-6
-1.031, 1.283e-6
-1.032, 1.361e-6
-1.033, 1.553e-6
-1.034, 1.527e-6
-1.035, 1.457e-6
-1.036, 1.545e-6
-1.037, 1.702e-6
-1.038, 1.821e-6
-1.039, 1.779e-6
-1.040, 1.715e-6
-1.041, 1.817e-6
-1.042, 1.942e-6
-1.043, 2.086e-6
-1.044, 2.055e-6
-1.045, 1.981e-6
-1.046, 2.059e-6
-1.047, 2.212e-6
-1.048, 2.276e-6
-1.049, 2.295e-6
-1.050, 2.224e-6
-1.051, 2.287e-6
-1.052, 2.414e-6
-1.053, 2.544e-6
-1.054, 2.500e-6
-1.055, 2.457e-6
-1.056, 2.564e-6
-1.057, 2.634e-6
-1.058, 2.739e-6
-1.059, 2.699e-6
-1.060, 2.693e-6
-1.061, 2.762e-6
-1.062, 2.863e-6
-1.063, 2.993e-6
-1.064, 2.958e-6
-1.065, 2.897e-6
-1.066, 2.995e-6
-1.067, 3.103e-6
-1.068, 3.183e-6
-1.069, 3.154e-6
-1.070, 3.106e-6
-1.071, 3.153e-6
-1.072, 3.302e-6
-1.073, 3.393e-6
-1.074, 3.365e-6
-1.075, 3.322e-6
-1.076, 3.363e-6
-1.077, 3.521e-6
-1.078, 3.574e-6
-1.079, 3.570e-6
-1.080, 3.511e-6
-1.081, 3.544e-6
-1.082, 3.728e-6
-1.083, 3.786e-6
-1.084, 3.746e-6
-1.085, 3.705e-6
-1.086, 3.719e-6
-1.087, 3.905e-6
-1.088, 3.966e-6
-1.089, 3.940e-6
-1.090, 3.893e-6
-1.091, 3.907e-6
-1.092, 4.078e-6
-1.093, 4.144e-6
-1.094, 4.131e-6
-1.095, 4.075e-6
-1.096, 4.064e-6
-1.097, 4.252e-6
-1.098, 4.349e-6
-1.099, 4.312e-6
-1.100, 4.266e-6
-1.101, 4.251e-6
-1.102, 4.408e-6
-1.103, 4.504e-6
-1.104, 4.510e-6
-1.105, 4.447e-6
-1.106, 4.460e-6
-1.107, 4.579e-6
-1.108, 4.708e-6
-1.109, 4.665e-6
-1.110, 4.598e-6
-1.111, 4.605e-6
-1.112, 4.735e-6
-1.113, 4.848e-6
-1.114, 4.843e-6
-1.115, 4.768e-6
-1.116, 4.765e-6
-1.117, 4.932e-6
-1.118, 5.041e-6
-1.119, 4.987e-6
-1.120, 4.959e-6
-1.121, 4.938e-6
-1.122, 5.112e-6
-1.123, 5.182e-6
-1.124, 5.145e-6
-1.125, 5.121e-6
-1.126, 5.151e-6
-1.127, 5.282e-6
-1.128, 5.389e-6
-1.129, 5.358e-6
-1.130, 5.293e-6
-1.131, 5.321e-6
-1.132, 5.419e-6
-1.133, 5.552e-6
-1.134, 5.520e-6
-1.135, 5.459e-6
-1.136, 5.462e-6
-1.137, 5.587e-6
-1.138, 5.720e-6
-1.139, 5.702e-6
-1.140, 5.643e-6
-1.141, 5.662e-6
-1.142, 5.782e-6
-1.143, 5.922e-6
-1.144, 5.873e-6
-1.145, 5.826e-6
-1.146, 5.858e-6
-1.147, 5.956e-6
-1.148, 6.069e-6
-1.149, 6.093e-6
-1.150, 5.992e-6
-1.151, 6.050e-6
-1.152, 6.149e-6
-1.153, 6.280e-6
-1.154, 6.257e-6
-1.155, 6.203e-6
-1.156, 6.193e-6
-1.157, 6.343e-6
-1.158, 6.444e-6
-1.159, 6.499e-6
-1.160, 6.423e-6
-1.161, 6.390e-6
-1.162, 6.564e-6
-1.163, 6.668e-6
-1.164, 6.691e-6
-1.165, 6.643e-6
-1.166, 6.617e-6
-1.167, 6.813e-6
-1.168, 6.903e-6
-1.169, 6.926e-6
-1.170, 6.841e-6
-1.171, 6.867e-6
-1.172, 6.979e-6
-1.173, 7.088e-6
-1.174, 7.130e-6
-1.175, 7.067e-6
-1.176, 7.085e-6
-1.177, 7.225e-6
-1.178, 7.357e-6
-1.179, 7.365e-6
-1.180, 7.312e-6
-1.181, 7.350e-6
-1.182, 7.461e-6
-1.183, 7.580e-6
-1.184, 7.633e-6
-1.185, 7.544e-6
-1.186, 7.588e-6
-1.187, 7.701e-6
-1.188, 7.853e-6
-1.189, 7.863e-6
-1.190, 7.814e-6
-1.191, 7.845e-6
-1.192, 7.991e-6
-1.193, 8.102e-6
-1.194, 8.162e-6
-1.195, 8.096e-6
-1.196, 8.103e-6
-1.197, 8.253e-6
-1.198, 8.381e-6
-1.199, 8.429e-6
-1.200, 8.383e-6
-1.201, 8.409e-6
-1.202, 8.556e-6
-1.203, 8.677e-6
-1.204, 8.744e-6
-1.205, 8.719e-6
-1.206, 8.716e-6
-1.207, 8.853e-6
-1.208, 8.999e-6
-1.209, 9.043e-6
-1.210, 8.992e-6
-1.211, 9.050e-6
-1.212, 9.172e-6
-1.213, 9.333e-6
-1.214, 9.346e-6
-1.215, 9.355e-6
-1.216, 9.400e-6
-1.217, 9.524e-6
-1.218, 9.711e-6
-1.219, 9.707e-6
-1.220, 9.730e-6
-1.221, 9.766e-6
-1.222, 9.882e-6
-1.223, 1.008e-5
-1.224, 1.006e-5
-1.225, 1.012e-5
-1.226, 1.017e-5
-1.227, 1.028e-5
-1.228, 1.045e-5
-1.229, 1.053e-5
-1.230, 1.052e-5
-1.231, 1.058e-5
-1.232, 1.071e-5
-1.233, 1.093e-5
-1.234, 1.092e-5
-1.235, 1.096e-5
-1.236, 1.099e-5
-1.237, 1.118e-5
-1.238, 1.135e-5
-1.239, 1.140e-5
-1.240, 1.145e-5
-1.241, 1.143e-5
-1.242, 1.163e-5
-1.243, 1.183e-5
-1.244, 1.188e-5
-1.245, 1.191e-5
-1.246, 1.192e-5
-1.247, 1.215e-5
-1.248, 1.231e-5
-1.249, 1.240e-5
-1.250, 1.242e-5
-1.251, 1.248e-5
-1.252, 1.267e-5
-1.253, 1.286e-5
-1.254, 1.293e-5
-1.255, 1.296e-5
-1.256, 1.298e-5
-1.257, 1.321e-5
-1.258, 1.343e-5
-1.259, 1.347e-5
-1.260, 1.350e-5
-1.261, 1.360e-5
-1.262, 1.374e-5
-1.263, 1.401e-5
-1.264, 1.406e-5
-1.265, 1.413e-5
-1.266, 1.418e-5
-1.267, 1.436e-5
-1.268, 1.461e-5
-1.269, 1.470e-5
-1.270, 1.474e-5
-1.271, 1.481e-5
-1.272, 1.501e-5
-1.273, 1.523e-5
-1.274, 1.538e-5
-1.275, 1.541e-5
-1.276, 1.548e-5
-1.277, 1.566e-5
-1.278, 1.590e-5
-1.279, 1.604e-5
-1.280, 1.611e-5
-1.281, 1.620e-5
-1.282, 1.641e-5
-1.283, 1.662e-5
-1.284, 1.680e-5
-1.285, 1.686e-5
-1.286, 1.699e-5
-1.287, 1.718e-5
-1.288, 1.741e-5
-1.289, 1.757e-5
-1.290, 1.760e-5
-1.291, 1.773e-5
-1.292, 1.799e-5
-1.293, 1.823e-5
-1.294, 1.839e-5
-1.295, 1.850e-5
-1.296, 1.859e-5
-1.297, 1.885e-5
-1.298, 1.916e-5
-1.299, 1.935e-5
-1.300, 1.937e-5
-1.301, 1.957e-5
-1.302, 1.979e-5
-1.303, 2.014e-5
-1.304, 2.034e-5
-1.305, 2.040e-5
-1.306, 2.059e-5
-1.307, 2.087e-5
-1.308, 2.120e-5
-1.309, 2.148e-5
-1.310, 2.152e-5
-1.311, 2.172e-5
-1.312, 2.202e-5
-1.313, 2.234e-5
-1.314, 2.266e-5
-1.315, 2.278e-5
-1.316, 2.297e-5
-1.317, 2.331e-5
-1.318, 2.368e-5
-1.319, 2.401e-5
-1.320, 2.415e-5
-1.321, 2.438e-5
-1.322, 2.477e-5
-1.323, 2.509e-5
-1.324, 2.548e-5
-1.325, 2.567e-5
-1.326, 2.593e-5
-1.327, 2.631e-5
-1.328, 2.674e-5
-1.329, 2.714e-5
-1.330, 2.735e-5
-1.331, 2.767e-5
-1.332, 2.807e-5
-1.333, 2.858e-5
-1.334, 2.900e-5
-1.335, 2.925e-5
-1.336, 2.954e-5
-1.337, 3.002e-5
-1.338, 3.055e-5
-1.339, 3.102e-5
-1.340, 3.133e-5
-1.341, 3.172e-5
-1.342, 3.219e-5
-1.343, 3.273e-5
-1.344, 3.326e-5
-1.345, 3.362e-5
-1.346, 3.401e-5
-1.347, 3.455e-5
-1.348, 3.511e-5
-1.349, 3.570e-5
-1.350, 3.608e-5
-1.351, 3.649e-5
-1.352, 3.704e-5
-1.353, 3.769e-5
-1.354, 3.828e-5
-1.355, 3.866e-5
-1.356, 3.913e-5
-1.357, 3.972e-5
-1.358, 4.039e-5
-1.359, 4.103e-5
-1.360, 4.147e-5
-1.361, 4.195e-5
-1.362, 4.259e-5
-1.363, 4.329e-5
-1.364, 4.398e-5
-1.365, 4.445e-5
-1.366, 4.501e-5
-1.367, 4.566e-5
-1.368, 4.636e-5
-1.369, 4.703e-5
-1.370, 4.758e-5
-1.371, 4.812e-5
-1.372, 4.876e-5
-1.373, 4.950e-5
-1.374, 5.022e-5
-1.375, 5.080e-5
-1.376, 5.136e-5
-1.377, 5.204e-5
-1.378, 5.286e-5
-1.379, 5.357e-5
-1.380, 5.418e-5
-1.381, 5.481e-5
-1.382, 5.553e-5
-1.383, 5.637e-5
-1.384, 5.716e-5
-1.385, 5.776e-5
-1.386, 5.848e-5
-1.387, 5.927e-5
-1.388, 6.014e-5
-1.389, 6.094e-5
-1.390, 6.160e-5
-1.391, 6.234e-5
-1.392, 6.311e-5
-1.393, 6.404e-5
-1.394, 6.498e-5
-1.395, 6.562e-5
-1.396, 6.633e-5
-1.397, 6.710e-5
-1.398, 6.806e-5
-1.399, 6.899e-5
-1.400, 6.976e-5
-1.401, 7.049e-5
-1.402, 7.135e-5
-1.403, 7.228e-5
-1.404, 7.320e-5
-1.405, 7.398e-5
-1.406, 7.485e-5
-1.407, 7.574e-5
-1.408, 7.666e-5
-1.409, 7.753e-5
-1.410, 7.828e-5
-1.411, 7.895e-5
-1.412, 7.979e-5
-1.413, 8.074e-5
-1.414, 8.165e-5
-1.415, 8.247e-5
-1.416, 8.307e-5
-1.417, 8.386e-5
-1.418, 8.473e-5
-1.419, 8.563e-5
-1.420, 8.643e-5
-1.421, 8.710e-5
-1.422, 8.800e-5
-1.423, 8.889e-5
-1.424, 8.986e-5
-1.425, 9.052e-5
-1.426, 9.123e-5
-1.427, 9.200e-5
-1.428, 9.290e-5
-1.429, 9.389e-5
-1.430, 9.458e-5
-1.431, 9.528e-5
-1.432, 9.612e-5
-1.433, 9.683e-5
-1.434, 9.762e-5
-1.435, 9.826e-5
-1.436, 9.878e-5
-1.437, 9.961e-5
-1.438, 1.004e-4
-1.439, 1.013e-4
-1.440, 1.020e-4
-1.441, 1.026e-4
-1.442, 1.034e-4
-1.443, 1.041e-4
-1.444, 1.050e-4
-1.445, 1.058e-4
-1.446, 1.065e-4
-1.447, 1.074e-4
-1.448, 1.081e-4
-1.449, 1.090e-4
-1.450, 1.096e-4
-1.451, 1.103e-4
-1.452, 1.113e-4
-1.453, 1.121e-4
-1.454, 1.131e-4
-1.455, 1.139e-4
-1.456, 1.145e-4
-1.457, 1.153e-4
-1.458, 1.163e-4
-1.459, 1.173e-4
-1.460, 1.181e-4
-1.461, 1.187e-4
-1.462, 1.196e-4
-1.463, 1.206e-4
-1.464, 1.217e-4
-1.465, 1.227e-4
-1.466, 1.233e-4
-1.467, 1.240e-4
-1.468, 1.251e-4
-1.469, 1.260e-4
-1.470, 1.267e-4
-1.471, 1.274e-4
-1.472, 1.283e-4
-1.473, 1.293e-4
-1.474, 1.304e-4
-1.475, 1.314e-4
-1.476, 1.323e-4
-1.477, 1.330e-4
-1.478, 1.340e-4
-1.479, 1.349e-4
-1.480, 1.357e-4
-1.481, 1.365e-4
-1.482, 1.373e-4
-1.483, 1.383e-4
-1.484, 1.394e-4
-1.485, 1.403e-4
-1.486, 1.412e-4
-1.487, 1.420e-4
-1.488, 1.430e-4
-1.489, 1.440e-4
-1.490, 1.449e-4
-1.491, 1.458e-4
-1.492, 1.469e-4
-1.493, 1.481e-4
-1.494, 1.491e-4
-1.495, 1.503e-4
-1.496, 1.517e-4
-1.497, 1.525e-4
-1.498, 1.535e-4
-1.499, 1.546e-4
-1.500, 1.556e-4
-1.501, 1.564e-4
-1.502, 1.572e-4
-1.503, 1.583e-4
-1.504, 1.593e-4
-1.505, 1.602e-4
-1.506, 1.611e-4
-1.507, 1.620e-4
-1.508, 1.631e-4
-1.509, 1.641e-4
-1.510, 1.652e-4
-1.511, 1.663e-4
-1.512, 1.674e-4
-1.513, 1.686e-4
-1.514, 1.698e-4
-1.515, 1.710e-4
-1.516, 1.721e-4
-1.517, 1.731e-4
-1.518, 1.742e-4
-1.519, 1.754e-4
-1.520, 1.762e-4
-1.521, 1.773e-4
-1.522, 1.787e-4
-1.523, 1.800e-4
-1.524, 1.812e-4
-1.525, 1.820e-4
-1.526, 1.834e-4
-1.527, 1.852e-4
-1.528, 1.865e-4
-1.529, 1.877e-4
-1.530, 1.885e-4
-1.531, 1.892e-4
-1.532, 1.948e-4
-1.533, 2.015e-4
-1.534, 2.090e-4
-1.535, 2.128e-4
-1.536, 2.147e-4
-1.537, 2.166e-4
-1.538, 2.182e-4
-1.539, 2.199e-4
-1.540, 2.212e-4
-1.541, 2.222e-4
-1.542, 2.232e-4
-1.543, 2.244e-4
-1.544, 2.257e-4
-1.545, 2.271e-4
-1.546, 2.284e-4
-1.547, 2.300e-4
-1.548, 2.316e-4
-1.549, 2.330e-4
-1.550, 2.340e-4
-1.551, 2.348e-4
-1.552, 2.363e-4
-1.553, 2.381e-4
-1.554, 2.396e-4
-1.555, 2.410e-4
-1.556, 2.434e-4
-1.557, 2.440e-4
-1.558, 2.453e-4
-1.559, 2.461e-4
-1.560, 2.472e-4
-1.561, 2.487e-4
-1.562, 2.497e-4
-1.563, 2.502e-4
-1.564, 2.515e-4
-1.565, 2.529e-4
-1.566, 2.543e-4
-1.567, 2.556e-4
-1.568, 2.567e-4
-1.569, 2.582e-4
-1.570, 2.601e-4
-1.571, 2.611e-4
-1.572, 2.615e-4
-1.573, 2.616e-4
-1.574, 2.617e-4
-1.575, 2.623e-4
-1.576, 2.636e-4
-1.577, 2.647e-4
-1.578, 2.660e-4
-1.579, 2.676e-4
-1.580, 2.689e-4
-1.581, 2.696e-4
-1.582, 2.705e-4
-1.583, 2.729e-4
-1.584, 2.751e-4
-1.585, 2.766e-4
-1.586, 2.786e-4
-1.587, 2.803e-4
-1.588, 2.769e-4
-1.589, 2.791e-4
-1.590, 2.813e-4
-1.591, 2.827e-4
-1.592, 2.851e-4
-1.593, 2.875e-4
-1.594, 2.889e-4
-1.595, 2.840e-4
-1.596, 2.848e-4
-1.597, 2.857e-4
-1.598, 2.866e-4
-1.599, 2.879e-4
-1.600, 2.831e-4
-1.599, 2.761e-4
-1.598, 2.701e-4
-1.597, 2.650e-4
-1.596, 2.596e-4
-1.595, 2.541e-4
-1.594, 2.490e-4
-1.593, 2.445e-4
-1.592, 2.400e-4
-1.591, 2.359e-4
-1.590, 2.320e-4
-1.589, 2.280e-4
-1.588, 2.237e-4
-1.587, 2.200e-4
-1.586, 2.166e-4
-1.585, 2.135e-4
-1.584, 2.101e-4
-1.583, 2.068e-4
-1.582, 2.038e-4
-1.581, 2.016e-4
-1.580, 1.992e-4
-1.579, 1.965e-4
-1.578, 1.939e-4
-1.577, 1.917e-4
-1.576, 1.898e-4
-1.575, 1.874e-4
-1.574, 1.848e-4
-1.573, 1.820e-4
-1.572, 1.795e-4
-1.571, 1.770e-4
-1.570, 1.746e-4
-1.569, 1.722e-4
-1.568, 1.699e-4
-1.567, 1.677e-4
-1.566, 1.657e-4
-1.565, 1.637e-4
-1.564, 1.614e-4
-1.563, 1.592e-4
-1.562, 1.570e-4
-1.561, 1.552e-4
-1.560, 1.534e-4
-1.559, 1.512e-4
-1.558, 1.491e-4
-1.557, 1.471e-4
-1.556, 1.451e-4
-1.555, 1.430e-4
-1.554, 1.410e-4
-1.553, 1.389e-4
-1.552, 1.372e-4
-1.551, 1.358e-4
-1.550, 1.341e-4
-1.549, 1.324e-4
-1.548, 1.308e-4
-1.547, 1.292e-4
-1.546, 1.280e-4
-1.545, 1.266e-4
-1.544, 1.250e-4
-1.543, 1.236e-4
-1.542, 1.223e-4
-1.541, 1.210e-4
-1.540, 1.195e-4
-1.539, 1.181e-4
-1.538, 1.167e-4
-1.537, 1.154e-4
-1.536, 1.144e-4
-1.535, 1.130e-4
-1.534, 1.115e-4
-1.533, 1.101e-4
-1.532, 1.089e-4
-1.531, 1.077e-4
-1.530, 1.065e-4
-1.529, 1.051e-4
-1.528, 1.039e-4
-1.527, 1.028e-4
-1.526, 1.018e-4
-1.525, 1.007e-4
-1.524, 9.947e-5
-1.523, 9.836e-5
-1.522, 9.745e-5
-1.521, 9.648e-5
-1.520, 9.553e-5
-1.519, 9.438e-5
-1.518, 9.336e-5
-1.517, 9.243e-5
-1.516, 9.178e-5
-1.515, 9.083e-5
-1.514, 8.976e-5
-1.513, 8.871e-5
-1.512, 8.781e-5
-1.511, 8.704e-5
-1.510, 8.617e-5
-1.509, 8.513e-5
-1.508, 8.415e-5
-1.507, 8.327e-5
-1.506, 8.251e-5
-1.505, 8.173e-5
-1.504, 8.070e-5
-1.503, 7.971e-5
-1.502, 7.884e-5
-1.501, 7.803e-5
-1.500, 7.717e-5
-1.499, 7.609e-5
-1.498, 7.515e-5
-1.497, 7.432e-5
-1.496, 7.359e-5
-1.495, 7.285e-5
-1.494, 7.192e-5
-1.493, 7.108e-5
-1.492, 7.039e-5
-1.491, 6.978e-5
-1.490, 6.909e-5
-1.489, 6.824e-5
-1.488, 6.747e-5
-1.487, 6.672e-5
-1.486, 6.603e-5
-1.485, 6.528e-5
-1.484, 6.444e-5
-1.483, 6.362e-5
-1.482, 6.292e-5
-1.481, 6.234e-5
-1.480, 6.168e-5
-1.479, 6.084e-5
-1.478, 6.001e-5
-1.477, 5.942e-5
-1.476, 5.881e-5
-1.475, 5.821e-5
-1.474, 5.736e-5
-1.473, 5.667e-5
-1.472, 5.603e-5
-1.471, 5.547e-5
-1.470, 5.488e-5
-1.469, 5.415e-5
-1.468, 5.338e-5
-1.467, 5.280e-5
-1.466, 5.228e-5
-1.465, 5.172e-5
-1.464, 5.101e-5
-1.463, 5.031e-5
-1.462, 4.973e-5
-1.461, 4.930e-5
-1.460, 4.882e-5
-1.459, 4.808e-5
-1.458, 4.742e-5
-1.457, 4.687e-5
-1.456, 4.647e-5
-1.455, 4.592e-5
-1.454, 4.519e-5
-1.453, 4.455e-5
-1.452, 4.407e-5
-1.451, 4.361e-5
-1.450, 4.316e-5
-1.449, 4.251e-5
-1.448, 4.195e-5
-1.447, 4.137e-5
-1.446, 4.100e-5
-1.445, 4.056e-5
-1.444, 4.000e-5
-1.443, 3.935e-5
-1.442, 3.892e-5
-1.441, 3.854e-5
-1.440, 3.808e-5
-1.439, 3.746e-5
-1.438, 3.691e-5
-1.437, 3.643e-5
-1.436, 3.612e-5
-1.435, 3.571e-5
-1.434, 3.512e-5
-1.433, 3.459e-5
-1.432, 3.416e-5
-1.431, 3.384e-5
-1.430, 3.344e-5
-1.429, 3.295e-5
-1.428, 3.242e-5
-1.427, 3.198e-5
-1.426, 3.171e-5
-1.425, 3.135e-5
-1.424, 3.086e-5
-1.423, 3.034e-5
-1.422, 2.997e-5
-1.421, 2.967e-5
-1.420, 2.936e-5
-1.419, 2.890e-5
-1.418, 2.842e-5
-1.417, 2.803e-5
-1.416, 2.778e-5
-1.415, 2.747e-5
-1.414, 2.704e-5
-1.413, 2.657e-5
-1.412, 2.623e-5
-1.411, 2.600e-5
-1.410, 2.574e-5
-1.409, 2.527e-5
-1.408, 2.485e-5
-1.407, 2.449e-5
-1.406, 2.426e-5
-1.405, 2.401e-5
-1.404, 2.363e-5
-1.403, 2.311e-5
-1.402, 2.286e-5
-1.401, 2.260e-5
-1.400, 2.238e-5
-1.399, 2.196e-5
-1.398, 2.151e-5
-1.397, 2.129e-5
-1.396, 2.107e-5
-1.395, 2.083e-5
-1.394, 2.046e-5
-1.393, 2.004e-5
-1.392, 1.978e-5
-1.391, 1.959e-5
-1.390, 1.937e-5
-1.389, 1.896e-5
-1.388, 1.855e-5
-1.387, 1.836e-5
-1.386, 1.818e-5
-1.385, 1.799e-5
-1.384, 1.762e-5
-1.383, 1.720e-5
-1.382, 1.692e-5
-1.381, 1.681e-5
-1.380, 1.661e-5
-1.379, 1.627e-5
-1.378, 1.588e-5
-1.377, 1.566e-5
-1.376, 1.552e-5
-1.375, 1.534e-5
-1.374, 1.499e-5
-1.373, 1.464e-5
-1.372, 1.447e-5
-1.371, 1.426e-5
-1.370, 1.413e-5
-1.369, 1.379e-5
-1.368, 1.348e-5
-1.367, 1.329e-5
-1.366, 1.313e-5
-1.365, 1.298e-5
-1.364, 1.270e-5
-1.363, 1.232e-5
-1.362, 1.217e-5
-1.361, 1.203e-5
-1.360, 1.190e-5
-1.359, 1.159e-5
-1.358, 1.126e-5
-1.357, 1.108e-5
-1.356, 1.099e-5
-1.355, 1.087e-5
-1.354, 1.064e-5
-1.353, 1.028e-5
-1.352, 1.010e-5
-1.351, 1.000e-5
-1.350, 9.886e-6
-1.349, 9.664e-6
-1.348, 9.334e-6
-1.347, 9.164e-6
-1.346, 9.075e-6
-1.345, 8.954e-6
-1.344, 8.671e-6
-1.343, 8.441e-6
-1.342, 8.265e-6
-1.341, 8.161e-6
-1.340, 8.045e-6
-1.339, 7.832e-6
-1.338, 7.541e-6
-1.337, 7.389e-6
-1.336, 7.309e-6
-1.335, 7.226e-6
-1.334, 6.987e-6
-1.333, 6.704e-6
-1.332, 6.583e-6
-1.331, 6.474e-6
-1.330, 6.430e-6
-1.329, 6.186e-6
-1.328, 5.930e-6
-1.327, 5.755e-6
-1.326, 5.738e-6
-1.325, 5.686e-6
-1.324, 5.430e-6
-1.323, 5.199e-6
-1.322, 5.012e-6
-1.321, 4.997e-6
-1.320, 4.944e-6
-1.319, 4.743e-6
-1.318, 4.451e-6
-1.317, 4.285e-6
-1.316, 4.346e-6
-1.315, 4.248e-6
-1.314, 4.062e-6
-1.313, 3.836e-6
-1.312, 3.641e-6
-1.311, 3.674e-6
-1.310, 3.582e-6
-1.309, 3.388e-6
-1.308, 3.175e-6
-1.307, 2.999e-6
-1.306, 3.007e-6
-1.305, 2.954e-6
-1.304, 2.806e-6
-1.303, 2.615e-6
-1.302, 2.380e-6
-1.301, 2.433e-6
-1.300, 2.387e-6
-1.299, 2.218e-6
-1.298, 2.026e-6
-1.297, 1.850e-6
-1.296, 1.908e-6
-1.295, 1.873e-6
-1.294, 1.696e-6
-1.293, 1.473e-6
-1.292, 1.310e-6
-1.291, 1.377e-6
-1.290, 1.362e-6
-1.289, 1.153e-6
-1.288, 9.844e-7
-1.287, 8.433e-7
-1.286, 8.700e-7
-1.285, 8.739e-7
-1.284, 6.884e-7
-1.283, 5.020e-7
-1.282, 3.964e-7
-1.281, 4.004e-7
-1.280, 4.231e-7
-1.279, 2.622e-7
-1.278, 7.676e-8
-1.277, -4.558e-8
-1.276, -5.130e-9
-1.275, 5.722e-9
-1.274, -1.127e-7
-1.273, -3.277e-7
-1.272, -4.511e-7
-1.271, -3.790e-7
-1.270, -4.096e-7
-1.269, -5.093e-7
-1.268, -6.859e-7
-1.267, -8.457e-7
-1.266, -7.786e-7
-1.265, -7.234e-7
-1.264, -8.822e-7
-1.263, -1.036e-6
-1.262, -1.152e-6
-1.261, -1.079e-6
-1.260, -1.065e-6
-1.259, -1.184e-6
-1.258, -1.348e-6
-1.257, -1.462e-6
-1.256, -1.406e-6
-1.255, -1.364e-6
-1.254, -1.453e-6
-1.253, -1.635e-6
-1.252, -1.729e-6
-1.251, -1.668e-6
-1.250, -1.659e-6
-1.249, -1.732e-6
-1.248, -1.893e-6
-1.247, -1.946e-6
-1.246, -1.939e-6
-1.245, -1.892e-6
-1.244, -1.958e-6
-1.243, -2.144e-6
-1.242, -2.223e-6
-1.241, -2.180e-6
-1.240, -2.132e-6
-1.239, -2.202e-6
-1.238, -2.389e-6
-1.237, -2.442e-6
-1.236, -2.415e-6
-1.235, -2.353e-6
-1.234, -2.430e-6
-1.233, -2.597e-6
-1.232, -2.636e-6
-1.231, -2.595e-6
-1.230, -2.579e-6
-1.229, -2.658e-6
-1.228, -2.794e-6
-1.227, -2.871e-6
-1.226, -2.831e-6
-1.225, -2.748e-6
-1.224, -2.805e-6
-1.223, -2.993e-6
-1.222, -3.069e-6
-1.221, -2.984e-6
-1.220, -2.931e-6
-1.219, -3.012e-6
-1.218, -3.165e-6
-1.217, -3.211e-6
-1.216, -3.144e-6
-1.215, -3.062e-6
-1.214, -3.187e-6
-1.213, -3.307e-6
-1.212, -3.373e-6
-1.211, -3.359e-6
-1.210, -3.219e-6
-1.209, -3.338e-6
-1.208, -3.469e-6
-1.207, -3.530e-6
-1.206, -3.523e-6
-1.205, -3.402e-6
-1.204, -3.461e-6
-1.203, -3.646e-6
-1.202, -3.714e-6
-1.201, -3.632e-6
-1.200, -3.525e-6
-1.199, -3.623e-6
-1.198, -3.750e-6
-1.197, -3.819e-6
-1.196, -3.796e-6
-1.195, -3.723e-6
-1.194, -3.752e-6
-1.193, -3.867e-6
-1.192, -3.961e-6
-1.191, -3.894e-6
-1.190, -3.837e-6
-1.189, -3.885e-6
-1.188, -3.990e-6
-1.187, -4.086e-6
-1.186, -4.068e-6
-1.185, -3.962e-6
-1.184, -4.011e-6
-1.183, -4.151e-6
-1.182, -4.234e-6
-1.181, -4.167e-6
-1.180, -4.080e-6
-1.179, -4.154e-6
-1.178, -4.281e-6
-1.177, -4.354e-6
-1.176, -4.318e-6
-1.175, -4.224e-6
-1.174, -4.322e-6
-1.173, -4.415e-6
-1.172, -4.480e-6
-1.171, -4.498e-6
-1.170, -4.344e-6
-1.169, -4.443e-6
-1.168, -4.540e-6
-1.167, -4.655e-6
-1.166, -4.613e-6
-1.165, -4.502e-6
-1.164, -4.574e-6
-1.163, -4.716e-6
-1.162, -4.789e-6
-1.161, -4.749e-6
-1.160, -4.621e-6
-1.159, -4.737e-6
-1.158, -4.866e-6
-1.157, -4.953e-6
-1.156, -4.877e-6
-1.155, -4.799e-6
-1.154, -4.884e-6
-1.153, -5.009e-6
-1.152, -5.114e-6
-1.151, -5.073e-6
-1.150, -5.008e-6
-1.149, -5.067e-6
-1.148, -5.171e-6
-1.147, -5.283e-6
-1.146, -5.226e-6
-1.145, -5.152e-6
-1.144, -5.230e-6
-1.143, -5.348e-6
-1.142, -5.448e-6
-1.141, -5.428e-6
-1.140, -5.363e-6
-1.139, -5.425e-6
-1.138, -5.554e-6
-1.137, -5.671e-6
-1.136, -5.618e-6
-1.135, -5.573e-6
-1.134, -5.602e-6
-1.133, -5.739e-6
-1.132, -5.859e-6
-1.131, -5.857e-6
-1.130, -5.760e-6
-1.129, -5.835e-6
-1.128, -5.985e-6
-1.127, -6.086e-6
-1.126, -6.094e-6
-1.125, -5.986e-6
-1.124, -6.069e-6
-1.123, -6.235e-6
-1.122, -6.328e-6
-1.121, -6.329e-6
-1.120, -6.238e-6
-1.119, -6.326e-6
-1.118, -6.479e-6
-1.117, -6.562e-6
-1.116, -6.546e-6
-1.115, -6.531e-6
-1.114, -6.561e-6
-1.113, -6.761e-6
-1.112, -6.873e-6
-1.111, -6.848e-6
-1.110, -6.810e-6
-1.109, -6.822e-6
-1.108, -7.028e-6
-1.107, -7.157e-6
-1.106, -7.132e-6
-1.105, -7.094e-6
-1.104, -7.140e-6
-1.103, -7.346e-6
-1.102, -7.440e-6
-1.101, -7.454e-6
-1.100, -7.415e-6
-1.099, -7.466e-6
-1.098, -7.665e-6
-1.097, -7.769e-6
-1.096, -7.787e-6
-1.095, -7.751e-6
-1.094, -7.756e-6
-1.093, -8.015e-6
-1.092, -8.101e-6
-1.091, -8.134e-6
-1.090, -8.079e-6
-1.089, -8.161e-6
-1.088, -8.331e-6
-1.087, -8.454e-6
-1.086, -8.503e-6
-1.085, -8.474e-6
-1.084, -8.469e-6
-1.083, -8.701e-6
-1.082, -8.840e-6
-1.081, -8.832e-6
-1.080, -8.811e-6
-1.079, -8.821e-6
-1.078, -9.068e-6
-1.077, -9.196e-6
-1.076, -9.208e-6
-1.075, -9.206e-6
-1.074, -9.193e-6
-1.073, -9.420e-6
-1.072, -9.573e-6
-1.071, -9.619e-6
-1.070, -9.589e-6
-1.069, -9.565e-6
-1.068, -9.832e-6
-1.067, -9.977e-6
-1.066, -9.973e-6
-1.065, -9.959e-6
-1.064, -9.968e-6
-1.063, -1.019e-5
-1.062, -1.038e-5
-1.061, -1.038e-5
-1.060, -1.034e-5
-1.059, -1.037e-5
-1.058, -1.059e-5
-1.057, -1.077e-5
-1.056, -1.081e-5
-1.055, -1.077e-5
-1.054, -1.081e-5
-1.053, -1.102e-5
-1.052, -1.118e-5
-1.051, -1.125e-5
-1.050, -1.120e-5
-1.049, -1.121e-5
-1.048, -1.141e-5
-1.047, -1.159e-5
-1.046, -1.166e-5
-1.045, -1.162e-5
-1.044, -1.165e-5
-1.043, -1.186e-5
-1.042, -1.206e-5
-1.041, -1.211e-5
-1.040, -1.207e-5
-1.039, -1.206e-5
-1.038, -1.231e-5
-1.037, -1.247e-5
-1.036, -1.254e-5
-1.035, -1.250e-5
-1.034, -1.251e-5
-1.033, -1.276e-5
-1.032, -1.294e-5
-1.031, -1.297e-5
-1.030, -1.298e-5
-1.029, -1.297e-5
-1.028, -1.318e-5
-1.027, -1.338e-5
-1.026, -1.345e-5
-1.025, -1.341e-5
-1.024, -1.339e-5
-1.023, -1.362e-5
-1.022, -1.385e-5
-1.021, -1.390e-5
-1.020, -1.389e-5
-1.019, -1.388e-5
-1.018, -1.410e-5
-1.017, -1.431e-5
-1.016, -1.439e-5
-1.015, -1.435e-5
-1.014, -1.436e-5
-1.013, -1.461e-5
-1.012, -1.481e-5
-1.011, -1.490e-5
-1.010, -1.484e-5
-1.009, -1.485e-5
-1.008, -1.509e-5
-1.007, -1.529e-5
-1.006, -1.539e-5
-1.005, -1.533e-5
-1.004, -1.535e-5
-1.003, -1.557e-5
-1.002, -1.575e-5
-1.001, -1.591e-5
-1.000, -1.286e-5
-1.001, -1.097e-5
-1.002, -1.010e-5
-1.003, -9.505e-6
-1.004, -8.859e-6
-1.005, -8.161e-6
-1.006, -7.602e-6
-1.007, -7.254e-6
-1.008, -6.951e-6
-1.009, -6.593e-6
-1.010, -6.004e-6
-1.011, -5.658e-6
-1.012, -5.415e-6
-1.013, -5.226e-6
-1.014, -4.927e-6
-1.015, -4.486e-6
-1.016, -4.176e-6
-1.017, -4.052e-6
-1.018, -3.901e-6
-1.019, -3.679e-6
-1.020, -3.340e-6
-1.021, -3.029e-6
-1.022, -2.942e-6
-1.023, -2.861e-6
-1.024, -2.650e-6
-1.025, -2.334e-6
-1.026, -2.075e-6
-1.027, -1.990e-6
-1.028, -1.963e-6
-1.029, -1.791e-6
-1.030, -1.505e-6
-1.031, -1.257e-6
-1.032, -1.210e-6
-1.033, -1.213e-6
-1.034, -1.050e-6
-1.035, -7.786e-7
-1.036, -6.000e-7
-1.037, -5.478e-7
-1.038, -5.635e-7
-1.039, -4.067e-7
-1.040, -1.926e-7
-1.041, 5.801e-8
-1.042, 5.998e-8
-1.043, 5.900e-8
-1.044, 1.547e-7
-1.045, 3.925e-7
-1.046, 5.543e-7
-1.047, 5.681e-7
-1.048, 5.661e-7
-1.049, 6.845e-7
-1.050, 8.581e-7
-1.051, 1.059e-6
-1.052, 1.048e-6
-1.053, 1.014e-6
-1.054, 1.148e-6
-1.055, 1.305e-6
-1.056, 1.470e-6
-1.057, 1.448e-6
-1.058, 1.435e-6
-1.059, 1.498e-6
-1.060, 1.664e-6
-1.061, 1.842e-6
-1.062, 1.826e-6
-1.063, 1.795e-6
-1.064, 1.860e-6
-1.065, 1.997e-6
-1.066, 2.184e-6
-1.067, 2.147e-6
-1.068, 2.099e-6
-1.069, 2.204e-6
-1.070, 2.321e-6
-1.071, 2.500e-6
-1.072, 2.455e-6
-1.073, 2.394e-6
-1.074, 2.479e-6
-1.075, 2.623e-6
-1.076, 2.741e-6
-1.077, 2.720e-6
-1.078, 2.654e-6
-1.079, 2.760e-6
-1.080, 2.841e-6
-1.081, 2.968e-6
-1.082, 2.967e-6
-1.083, 2.842e-6
-1.084, 2.938e-6
-1.085, 3.077e-6
-1.086, 3.171e-6
-1.087, 3.146e-6
-1.088, 3.078e-6
-1.089, 3.164e-6
-1.090, 3.290e-6
-1.091, 3.372e-6
-1.092, 3.388e-6
-1.093, 3.260e-6
-1.094, 3.335e-6
-1.095, 3.481e-6
-1.096, 3.592e-6
-1.097, 3.552e-6
-1.098, 3.427e-6
-1.099, 3.501e-6
-1.100, 3.605e-6
-1.101, 3.765e-6
-1.102, 3.688e-6
-1.103, 3.595e-6
-1.104, 3.674e-6
-1.105, 3.742e-6
-1.106, 3.901e-6
-1.107, 3.788e-6
-1.108, 3.723e-6
-1.109, 3.742e-6
-1.110, 3.919e-6
-1.111, 4.011e-6
-1.112, 3.917e-6
-1.113, 3.834e-6
-1.114, 3.916e-6
-1.115, 4.022e-6
-1.116, 4.103e-6
-1.117, 4.033e-6
-1.118, 3.951e-6
-1.119, 4.013e-6
-1.120, 4.106e-6
-1.121, 4.167e-6
-1.122, 4.179e-6
-1.123, 4.044e-6
-1.124, 4.101e-6
-1.125, 4.225e-6
-1.126, 4.312e-6
-1.127, 4.285e-6
-1.128, 4.151e-6
-1.129, 4.193e-6
-1.130, 4.311e-6
-1.131, 4.391e-6
-1.132, 4.344e-6
-1.133, 4.255e-6
-1.134, 4.256e-6
-1.135, 4.396e-6
-1.136, 4.427e-6
-1.137, 4.410e-6
-1.138, 4.334e-6
-1.139, 4.359e-6
-1.140, 4.488e-6
-1.141, 4.557e-6
-1.142, 4.487e-6
-1.143, 4.399e-6
-1.144, 4.455e-6
-1.145, 4.564e-6
-1.146, 4.643e-6
-1.147, 4.552e-6
-1.148, 4.461e-6
-1.149, 4.513e-6
-1.150, 4.630e-6
-1.151, 4.712e-6
-1.152, 4.650e-6
-1.153, 4.552e-6
-1.154, 4.584e-6
-1.155, 4.687e-6
-1.156, 4.753e-6
-1.157, 4.707e-6
-1.158, 4.645e-6
-1.159, 4.650e-6
-1.160, 4.780e-6
-1.161, 4.852e-6
-1.162, 4.797e-6
-1.163, 4.729e-6
-1.164, 4.664e-6
-1.165, 4.851e-6
-1.166, 4.925e-6
-1.167, 4.894e-6
-1.168, 4.763e-6
-1.169, 4.736e-6
-1.170, 4.901e-6
-1.171, 4.951e-6
-1.172, 4.950e-6
-1.173, 4.843e-6
-1.174, 4.837e-6
-1.175, 4.967e-6
-1.176, 5.047e-6
-1.177, 4.966e-6
-1.178, 4.937e-6
-1.179, 4.864e-6
-1.180, 5.073e-6
-1.181, 5.139e-6
-1.182, 5.041e-6
-1.183, 4.950e-6
-1.184, 4.953e-6
-1.185, 5.093e-6
-1.186, 5.192e-6
-1.187, 5.154e-6
-1.188, 5.066e-6
-1.189, 5.017e-6
-1.190, 5.208e-6
-1.191, 5.307e-6
-1.192, 5.215e-6
-1.193, 5.148e-6
-1.194, 5.131e-6
-1.195, 5.281e-6
-1.196, 5.334e-6
-1.197, 5.321e-6
-1.198, 5.244e-6
-1.199, 5.246e-6
-1.200, 5.365e-6
-1.201, 5.460e-6
-1.202, 5.407e-6
-1.203, 5.333e-6
-1.204, 5.313e-6
-1.205, 5.469e-6
-1.206, 5.539e-6
-1.207, 5.516e-6
-1.208, 5.435e-6
-1.209, 5.416e-6
-1.210, 5.579e-6
-1.211, 5.645e-6
-1.212, 5.616e-6
-1.213, 5.561e-6
-1.214, 5.523e-6
-1.215, 5.667e-6
-1.216, 5.803e-6
-1.217, 5.766e-6
-1.218, 5.646e-6
-1.219, 5.630e-6
-1.220, 5.817e-6
-1.221, 5.905e-6
-1.222, 5.901e-6
-1.223, 5.797e-6
-1.224, 5.789e-6
-1.225, 5.965e-6
-1.226, 6.061e-6
-1.227, 6.007e-6
-1.228, 5.980e-6
-1.229, 5.968e-6
-1.230, 6.131e-6
-1.231, 6.256e-6
-1.232, 6.207e-6
-1.233, 6.136e-6
-1.234, 6.173e-6
-1.235, 6.320e-6
-1.236, 6.416e-6
-1.237, 6.407e-6
-1.238, 6.343e-6
-1.239, 6.353e-6
-1.240, 6.519e-6
-1.241, 6.635e-6
-1.242, 6.625e-6
-1.243, 6.513e-6
-1.244, 6.572e-6
-1.245, 6.747e-6
-1.246, 6.867e-6
-1.247, 6.850e-6
-1.248, 6.761e-6
-1.249, 6.804e-6
-1.250, 6.952e-6
-1.251, 7.122e-6
-1.252, 7.086e-6
-1.253, 7.033e-6
-1.254, 7.068e-6
-1.255, 7.258e-6
-1.256, 7.377e-6
-1.257, 7.391e-6
-1.258, 7.380e-6
-1.259, 7.387e-6
-1.260, 7.507e-6
-1.261, 7.716e-6
-1.262, 7.684e-6
-1.263, 7.677e-6
-1.264, 7.685e-6
-1.265, 7.858e-6
-1.266, 8.044e-6
-1.267, 8.045e-6
-1.268, 8.026e-6
-1.269, 8.067e-6
-1.270, 8.241e-6
-1.271, 8.437e-6
-1.272, 8.447e-6
-1.273, 8.417e-6
-1.274, 8.451e-6
-1.275, 8.660e-6
-1.276, 8.840e-6
-1.277, 8.865e-6
-1.278, 8.835e-6
-1.279, 8.918e-6
-1.280, 9.124e-6
-1.281, 9.304e-6
-1.282, 9.376e-6
-1.283, 9.338e-6
-1.284, 9.377e-6
-1.285, 9.604e-6
-1.286, 9.796e-6
-1.287, 9.857e-6
-1.288, 9.858e-6
-1.289, 9.891e-6
-1.290, 1.014e-5
-1.291, 1.035e-5
-1.292, 1.039e-5
-1.293, 1.045e-5
-1.294, 1.047e-5
-1.295, 1.069e-5
-1.296, 1.090e-5
-1.297, 1.100e-5
-1.298, 1.099e-5
-1.299, 1.111e-5
-1.300, 1.132e-5
-1.301, 1.158e-5
-1.302, 1.163e-5
-1.303, 1.168e-5
-1.304, 1.176e-5
-1.305, 1.199e-5
-1.306, 1.225e-5
-1.307, 1.234e-5
-1.308, 1.237e-5
-1.309, 1.249e-5
-1.310, 1.269e-5
-1.311, 1.299e-5
-1.312, 1.307e-5
-1.313, 1.311e-5
-1.314, 1.327e-5
-1.315, 1.347e-5
-1.316, 1.376e-5
-1.317, 1.388e-5
-1.318, 1.390e-5
-1.319, 1.404e-5
-1.320, 1.429e-5
-1.321, 1.456e-5
-1.322, 1.473e-5
-1.323, 1.474e-5
-1.324, 1.491e-5
-1.325, 1.517e-5
-1.326, 1.546e-5
-1.327, 1.562e-5
-1.328, 1.569e-5
-1.329, 1.581e-5
-1.330, 1.609e-5
-1.331, 1.638e-5
-1.332, 1.655e-5
-1.333, 1.667e-5
-1.334, 1.682e-5
-1.335, 1.713e-5
-1.336, 1.740e-5
-1.337, 1.759e-5
-1.338, 1.774e-5
-1.339, 1.787e-5
-1.340, 1.820e-5
-1.341, 1.853e-5
-1.342, 1.868e-5
-1.343, 1.882e-5
-1.344, 1.899e-5
-1.345, 1.928e-5
-1.346, 1.963e-5
-1.347, 1.984e-5
-1.348, 1.999e-5
-1.349, 2.018e-5
-1.350, 2.047e-5
-1.351, 2.084e-5
-1.352, 2.102e-5
-1.353, 2.123e-5
-1.354, 2.140e-5
-1.355, 2.176e-5
-1.356, 2.211e-5
-1.357, 2.237e-5
-1.358, 2.254e-5
-1.359, 2.278e-5
-1.360, 2.308e-5
-1.361, 2.347e-5
-1.362, 2.371e-5
-1.363, 2.391e-5
-1.364, 2.411e-5
-1.365, 2.450e-5
-1.366, 2.492e-5
-1.367, 2.518e-5
-1.368, 2.538e-5
-1.369, 2.564e-5
-1.370, 2.596e-5
-1.371, 2.640e-5
-1.372, 2.662e-5
-1.373, 2.683e-5
-1.374, 2.710e-5
-1.375, 2.749e-5
-1.376, 2.793e-5
-1.377, 2.820e-5
-1.378, 2.843e-5
-1.379, 2.871e-5
-1.380, 2.911e-5
-1.381, 2.953e-5
-1.382, 2.984e-5
-1.383, 3.011e-5
-1.384, 3.037e-5
-1.385, 3.078e-5
-1.386, 3.126e-5
-1.387, 3.159e-5
-1.388, 3.183e-5
-1.389, 3.211e-5
-1.390, 3.254e-5
-1.391, 3.304e-5
-1.392, 3.334e-5
-1.393, 3.363e-5
-1.394, 3.390e-5
-1.395, 3.437e-5
-1.396, 3.487e-5
-1.397, 3.521e-5
-1.398, 3.550e-5
-1.399, 3.581e-5
-1.400, 3.624e-5
-1.401, 3.679e-5
-1.402, 3.719e-5
-1.403, 3.746e-5
-1.404, 3.777e-5
-1.405, 3.824e-5
-1.406, 3.878e-5
-1.407, 3.913e-5
-1.408, 3.947e-5
-1.409, 3.979e-5
-1.410, 4.031e-5
-1.411, 4.083e-5
-1.412, 4.125e-5
-1.413, 4.158e-5
-1.414, 4.191e-5
-1.415, 4.246e-5
-1.416, 4.299e-5
-1.417, 4.342e-5
-1.418, 4.377e-5
-1.419, 4.412e-5
-1.420, 4.464e-5
-1.421, 4.525e-5
-1.422, 4.573e-5
-1.423, 4.608e-5
-1.424, 4.643e-5
-1.425, 4.693e-5
-1.426, 4.753e-5
-1.427, 4.797e-5
-1.428, 4.840e-5
-1.429, 4.883e-5
-1.430, 4.932e-5
-1.431, 4.993e-5
-1.432, 5.041e-5
-1.433, 5.076e-5
-1.434, 5.123e-5
-1.435, 5.174e-5
-1.436, 5.240e-5
-1.437, 5.293e-5
-1.438, 5.326e-5
-1.439, 5.371e-5
-1.440, 5.428e-5
-1.441, 5.490e-5
-1.442, 5.538e-5
-1.443, 5.581e-5
-1.444, 5.624e-5
-1.445, 5.677e-5
-1.446, 5.744e-5
-1.447, 5.800e-5
-1.448, 5.843e-5
-1.449, 5.884e-5
-1.450, 5.950e-5
-1.451, 6.013e-5
-1.452, 6.063e-5
-1.453, 6.103e-5
-1.454, 6.150e-5
-1.455, 6.211e-5
-1.456, 6.280e-5
-1.457, 6.332e-5
-1.458, 6.374e-5
-1.459, 6.418e-5
-1.460, 6.478e-5
-1.461, 6.545e-5
-1.462, 6.600e-5
-1.463, 6.644e-5
-1.464, 6.687e-5
-1.465, 6.747e-5
-1.466, 6.810e-5
-1.467, 6.889e-5
-1.468, 6.951e-5
-1.469, 7.003e-5
-1.470, 7.066e-5
-1.471, 7.146e-5
-1.472, 7.197e-5
-1.473, 7.243e-5
-1.474, 7.287e-5
-1.475, 7.354e-5
-1.476, 7.419e-5
-1.477, 7.477e-5
-1.478, 7.521e-5
-1.479, 7.568e-5
-1.480, 7.636e-5
-1.481, 7.705e-5
-1.482, 7.773e-5
-1.483, 7.813e-5
-1.484, 7.860e-5
-1.485, 7.928e-5
-1.486, 7.997e-5
-1.487, 8.061e-5
-1.488, 8.104e-5
-1.489, 8.162e-5
-1.490, 8.221e-5
-1.491, 8.297e-5
-1.492, 8.364e-5
-1.493, 8.405e-5
-1.494, 8.451e-5
-1.495, 8.508e-5
-1.496, 8.579e-5
-1.497, 8.648e-5
-1.498, 8.696e-5
-1.499, 8.750e-5
-1.500, 8.815e-5
-1.501, 8.890e-5
-1.502, 8.956e-5
-1.503, 9.000e-5
-1.504, 9.061e-5
-1.505, 9.124e-5
-1.506, 9.203e-5
-1.507, 9.276e-5
-1.508, 9.325e-5
-1.509, 9.378e-5
-1.510, 9.442e-5
-1.511, 9.519e-5
-1.512, 9.585e-5
-1.513, 9.639e-5
-1.514, 9.701e-5
-1.515, 9.767e-5
-1.516, 9.853e-5
-1.517, 9.928e-5
-1.518, 9.977e-5
-1.519, 1.004e-4
-1.520, 1.012e-4
-1.521, 1.020e-4
-1.522, 1.028e-4
-1.523, 1.033e-4
-1.524, 1.038e-4
-1.525, 1.046e-4
-1.526, 1.054e-4
-1.527, 1.062e-4
-1.528, 1.067e-4
-1.529, 1.073e-4
-1.530, 1.080e-4
-1.531, 1.090e-4
-1.532, 1.098e-4
-1.533, 1.103e-4
-1.534, 1.112e-4
-1.535, 1.121e-4
-1.536, 1.131e-4
-1.537, 1.140e-4
-1.538, 1.147e-4
-1.539, 1.156e-4
-1.540, 1.164e-4
-1.541, 1.171e-4
-1.542, 1.178e-4
-1.543, 1.184e-4
-1.544, 1.192e-4
-1.545, 1.199e-4
-1.546, 1.209e-4
-1.547, 1.219e-4
-1.548, 1.227e-4
-1.549, 1.235e-4
-1.550, 1.245e-4
-1.551, 1.254e-4
-1.552, 1.264e-4
-1.553, 1.272e-4
-1.554, 1.281e-4
-1.555, 1.290e-4
-1.556, 1.301e-4
-1.557, 1.311e-4
-1.558, 1.320e-4
-1.559, 1.326e-4
-1.560, 1.335e-4
-1.561, 1.345e-4
-1.562, 1.365e-4
-1.563, 1.382e-4
-1.564, 1.390e-4
-1.565, 1.400e-4
-1.566, 1.411e-4
-1.567, 1.421e-4
-1.568, 1.428e-4
-1.569, 1.433e-4
-1.570, 1.440e-4
-1.571, 1.450e-4
-1.572, 1.458e-4
-1.573, 1.464e-4
-1.574, 1.471e-4
-1.575, 1.480e-4
-1.576, 1.491e-4
-1.577, 1.498e-4
-1.578, 1.504e-4
-1.579, 1.512e-4
-1.580, 1.523e-4
-1.581, 1.534e-4
-1.582, 1.545e-4
-1.583, 1.554e-4
-1.584, 1.563e-4
-1.585, 1.576e-4
-1.586, 1.589e-4
-1.587, 1.602e-4
-1.588, 1.613e-4
-1.589, 1.624e-4
-1.590, 1.637e-4
-1.591, 1.652e-4
-1.592, 1.666e-4
-1.593, 1.677e-4
-1.594, 1.691e-4
-1.595, 1.706e-4
-1.596, 1.721e-4
-1.597, 1.736e-4
-1.598, 1.750e-4
-1.599, 1.764e-4
-1.600, 1.740e-4
-1.599, 1.699e-4
-1.598, 1.666e-4
-1.597, 1.632e-4
-1.596, 1.600e-4
-1.595, 1.571e-4
-1.594, 1.545e-4
-1.593, 1.517e-4
-1.592, 1.490e-4
-1.591, 1.464e-4
-1.590, 1.439e-4
-1.589, 1.415e-4
-1.588, 1.392e-4
-1.587, 1.368e-4
-1.586, 1.346e-4
-1.585, 1.325e-4
-1.584, 1.306e-4
-1.583, 1.287e-4
-1.582, 1.267e-4
-1.581, 1.247e-4
-1.580, 1.229e-4
-1.579, 1.213e-4
-1.578, 1.198e-4
-1.577, 1.179e-4
-1.576, 1.161e-4
-1.575, 1.144e-4
-1.574, 1.129e-4
-1.573, 1.114e-4
-1.572, 1.098e-4
-1.571, 1.082e-4
-1.570, 1.068e-4
-1.569, 1.057e-4
-1.568, 1.043e-4
-1.567, 1.027e-4
-1.566, 1.013e-4
-1.565, 9.998e-5
-1.564, 9.880e-5
-1.563, 9.769e-5
-1.562, 9.638e-5
-1.561, 9.501e-5
-1.560, 9.390e-5
-1.559, 9.297e-5
-1.558, 9.195e-5
-1.557, 9.061e-5
-1.556, 8.937e-5
-1.555, 8.834e-5
-1.554, 8.738e-5
-1.553, 8.631e-5
-1.552, 8.511e-5
-1.551, 8.391e-5
-1.550, 8.307e-5
-1.549, 8.221e-5
-1.548, 8.124e-5
-1.547, 7.999e-5
-1.546, 7.889e-5
-1.545, 7.793e-5
-1.544, 7.711e-5
-1.543, 7.623e-5
-1.542, 7.522e-5
-1.541, 7.423e-5
-1.540, 7.327e-5
-1.539, 7.266e-5
-1.538, 7.193e-5
-1.537, 7.116e-5
-1.536, 7.031e-5
-1.535, 6.953e-5
-1.534, 6.890e-5
-1.533, 6.822e-5
-1.532, 6.728e-5
-1.531, 6.637e-5
-1.530, 6.560e-5
-1.529, 6.485e-5
-1.528, 6.410e-5
-1.527, 6.322e-5
-1.526, 6.239e-5
-1.525, 6.166e-5
-1.524, 6.104e-5
-1.523, 6.031e-5
-1.522, 5.953e-5
-1.521, 5.875e-5
-1.520, 5.812e-5
-1.519, 5.753e-5
-1.518, 5.690e-5
-1.517, 5.624e-5
-1.516, 5.550e-5
-1.515, 5.489e-5
-1.514, 5.450e-5
-1.513, 5.392e-5
-1.512, 5.316e-5
-1.511, 5.245e-5
-1.510, 5.187e-5
-1.509, 5.138e-5
-1.508, 5.088e-5
-1.507, 5.019e-5
-1.506, 4.955e-5
-1.505, 4.898e-5
-1.504, 4.861e-5
-1.503, 4.809e-5
-1.502, 4.743e-5
-1.501, 4.679e-5
-1.500, 4.626e-5
-1.499, 4.590e-5
-1.498, 4.543e-5
-1.497, 4.481e-5
-1.496, 4.428e-5
-1.495, 4.377e-5
-1.494, 4.341e-5
-1.493, 4.295e-5
-1.492, 4.243e-5
-1.491, 4.180e-5
-1.490, 4.139e-5
-1.489, 4.104e-5
-1.488, 4.064e-5
-1.487, 4.015e-5
-1.486, 3.953e-5
-1.485, 3.911e-5
-1.484, 3.882e-5
-1.483, 3.838e-5
-1.482, 3.790e-5
-1.481, 3.731e-5
-1.480, 3.698e-5
-1.479, 3.666e-5
-1.478, 3.630e-5
-1.477, 3.577e-5
-1.476, 3.527e-5
-1.475, 3.488e-5
-1.474, 3.464e-5
-1.473, 3.427e-5
-1.472, 3.380e-5
-1.471, 3.336e-5
-1.470, 3.295e-5
-1.469, 3.271e-5
-1.468, 3.237e-5
-1.467, 3.194e-5
-1.466, 3.143e-5
-1.465, 3.108e-5
-1.464, 3.088e-5
-1.463, 3.052e-5
-1.462, 3.006e-5
-1.461, 2.959e-5
-1.460, 2.927e-5
-1.459, 2.904e-5
-1.458, 2.881e-5
-1.457, 2.839e-5
-1.456, 2.792e-5
-1.455, 2.762e-5
-1.454, 2.738e-5
-1.453, 2.714e-5
-1.452, 2.675e-5
-1.451, 2.632e-5
-1.450, 2.605e-5
-1.449, 2.582e-5
-1.448, 2.555e-5
-1.447, 2.516e-5
-1.446, 2.472e-5
-1.445, 2.449e-5
-1.444, 2.429e-5
-1.443, 2.407e-5
-1.442, 2.366e-5
-1.441, 2.322e-5
-1.440, 2.298e-5
-1.439, 2.287e-5
-1.438, 2.257e-5
-1.437, 2.222e-5
-1.436, 2.180e-5
-1.435, 2.155e-5
-1.434, 2.141e-5
-1.433, 2.116e-5
-1.432, 2.084e-5
-1.431, 2.045e-5
-1.430, 2.020e-5
-1.429, 2.006e-5
-1.428, 1.986e-5
-1.427, 1.951e-5
-1.426, 1.914e-5
-1.425, 1.891e-5
-1.424, 1.878e-5
-1.423, 1.857e-5
-1.422, 1.829e-5
-1.421, 1.793e-5
-1.420, 1.770e-5
-1.419, 1.753e-5
-1.418, 1.737e-5
-1.417, 1.705e-5
-1.416, 1.668e-5
-1.415, 1.651e-5
-1.414, 1.634e-5
-1.413, 1.625e-5
-1.412, 1.593e-5
-1.411, 1.558e-5
-1.410, 1.543e-5
-1.409, 1.532e-5
-1.408, 1.519e-5
-1.407, 1.488e-5
-1.406, 1.451e-5
-1.405, 1.437e-5
-1.404, 1.425e-5
-1.403, 1.412e-5
-1.402, 1.382e-5
-1.401, 1.353e-5
-1.400, 1.337e-5
-1.399, 1.325e-5
-1.398, 1.309e-5
-1.397, 1.284e-5
-1.396, 1.256e-5
-1.395, 1.236e-5
-1.394, 1.231e-5
-1.393, 1.219e-5
-1.392, 1.192e-5
-1.391, 1.163e-5
-1.390, 1.146e-5
-1.389, 1.136e-5
-1.388, 1.125e-5
-1.387, 1.101e-5
-1.386, 1.072e-5
-1.385, 1.061e-5
-1.384, 1.048e-5
-1.383, 1.039e-5
-1.382, 1.013e-5
-1.381, 9.875e-6
-1.380, 9.759e-6
-1.379, 9.668e-6
-1.378, 9.555e-6
-1.377, 9.339e-6
-1.376, 9.066e-6
-1.375, 8.935e-6
-1.374, 8.857e-6
-1.373, 8.787e-6
-1.372, 8.562e-6
-1.371, 8.313e-6
-1.370, 8.215e-6
-1.369, 8.109e-6
-1.368, 8.083e-6
-1.367, 7.808e-6
-1.366, 7.581e-6
-1.365, 7.435e-6
-1.364, 7.420e-6
-1.363, 7.338e-6
-1.362, 7.112e-6
-1.361, 6.856e-6
-1.360, 6.770e-6
-1.359, 6.741e-6
-1.358, 6.656e-6
-1.357, 6.466e-6
-1.356, 6.231e-6
-1.355, 6.088e-6
-1.354, 6.072e-6
-1.353, 6.018e-6
-1.352, 5.816e-6
-1.351, 5.607e-6
-1.350, 5.485e-6
-1.349, 5.447e-6
-1.348, 5.416e-6
-1.347, 5.232e-6
-1.346, 4.996e-6
-1.345, 4.904e-6
-1.344, 4.871e-6
-1.343, 4.844e-6
-1.342, 4.590e-6
-1.341, 4.399e-6
-1.340, 4.346e-6
-1.339, 4.291e-6
-1.338, 4.265e-6
-1.337, 4.107e-6
-1.336, 3.824e-6
-1.335, 3.803e-6
-1.334, 3.790e-6
-1.333, 3.716e-6
-1.332, 3.583e-6
-1.331, 3.350e-6
-1.330, 3.287e-6
-1.329, 3.218e-6
-1.328, 3.252e-6
-1.327, 3.065e-6
-1.326, 2.847e-6
-1.325, 2.829e-6
-1.324, 2.754e-6
-1.323, 2.737e-6
-1.322, 2.575e-6
-1.321, 2.377e-6
-1.320, 2.322e-6
-1.319, 2.298e-6
-1.318, 2.305e-6
-1.317, 2.144e-6
-1.316, 1.927e-6
-1.315, 1.875e-6
-1.314, 1.896e-6
-1.313, 1.888e-6
-1.312, 1.694e-6
-1.311, 1.508e-6
-1.310, 1.468e-6
-1.309, 1.480e-6
-1.308, 1.452e-6
-1.307, 1.307e-6
-1.306, 1.123e-6
-1.305, 1.042e-6
-1.304, 1.105e-6
-1.303, 1.108e-6
-1.302, 8.868e-7
-1.301, 7.545e-7
-1.300, 7.476e-7
-1.299, 7.042e-7
-1.298, 7.328e-7
-1.297, 5.602e-7
-1.296, 3.570e-7
-1.295, 3.806e-7
-1.294, 3.639e-7
-1.293, 4.043e-7
-1.292, 2.474e-7
-1.291, 4.716e-8
-1.290, 5.308e-8
-1.289, 2.644e-8
-1.288, 5.308e-8
-1.287, -9.096e-8
-1.286, -2.873e-7
-1.285, -2.567e-7
-1.284, -2.538e-7
-1.283, -2.350e-7
-1.282, -4.057e-7
-1.281, -5.478e-7
-1.280, -5.941e-7
-1.279, -5.507e-7
-1.278, -5.270e-7
-1.277, -6.701e-7
-1.276, -8.260e-7
-1.275, -8.743e-7
-1.274, -8.309e-7
-1.273, -7.875e-7
-1.272, -9.641e-7
-1.271, -1.104e-6
-1.270, -1.096e-6
-1.269, -1.065e-6
-1.268, -1.048e-6
-1.267, -1.184e-6
-1.266, -1.340e-6
-1.265, -1.330e-6
-1.264, -1.322e-6
-1.263, -1.243e-6
-1.262, -1.413e-6
-1.261, -1.598e-6
-1.260, -1.565e-6
-1.259, -1.513e-6
-1.258, -1.526e-6
-1.257, -1.613e-6
-1.256, -1.782e-6
-1.255, -1.763e-6
-1.254, -1.744e-6
-1.253, -1.716e-6
-1.252, -1.820e-6
-1.251, -2.007e-6
-1.250, -1.966e-6
-1.249, -1.953e-6
-1.248, -1.880e-6
-1.247, -2.030e-6
-1.246, -2.186e-6
-1.245, -2.185e-6
-1.244, -2.116e-6
-1.243, -2.112e-6
-1.242, -2.191e-6
-1.241, -2.410e-6
-1.240, -2.345e-6
-1.239, -2.283e-6
-1.238, -2.266e-6
-1.237, -2.368e-6
-1.236, -2.533e-6
-1.235, -2.518e-6
-1.234, -2.461e-6
-1.233, -2.397e-6
-1.232, -2.511e-6
-1.231, -2.671e-6
-1.230, -2.686e-6
-1.229, -2.621e-6
-1.228, -2.568e-6
-1.227, -2.687e-6
-1.226, -2.830e-6
-1.225, -2.803e-6
-1.224, -2.784e-6
-1.223, -2.685e-6
-1.222, -2.807e-6
-1.221, -2.947e-6
-1.220, -2.947e-6
-1.219, -2.907e-6
-1.218, -2.840e-6
-1.217, -2.943e-6
-1.216, -3.096e-6
-1.215, -3.089e-6
-1.214, -3.035e-6
-1.213, -2.973e-6
-1.212, -3.085e-6
-1.211, -3.226e-6
-1.210, -3.216e-6
-1.209, -3.162e-6
-1.208, -3.111e-6
-1.207, -3.182e-6
-1.206, -3.346e-6
-1.205, -3.313e-6
-1.204, -3.261e-6
-1.203, -3.222e-6
-1.202, -3.310e-6
-1.201, -3.495e-6
-1.200, -3.413e-6
-1.199, -3.423e-6
-1.198, -3.362e-6
-1.197, -3.445e-6
-1.196, -3.599e-6
-1.195, -3.556e-6
-1.194, -3.542e-6
-1.193, -3.462e-6
-1.192, -3.578e-6
-1.191, -3.745e-6
-1.190, -3.699e-6
-1.189, -3.650e-6
-1.188, -3.570e-6
-1.187, -3.698e-6
-1.186, -3.827e-6
-1.185, -3.846e-6
-1.184, -3.783e-6
-1.183, -3.700e-6
-1.182, -3.853e-6
-1.181, -3.945e-6
-1.180, -3.946e-6
-1.179, -3.901e-6
-1.178, -3.836e-6
-1.177, -3.987e-6
-1.176, -4.098e-6
-1.175, -4.061e-6
-1.174, -4.037e-6
-1.173, -3.957e-6
-1.172, -4.075e-6
-1.171, -4.224e-6
-1.170, -4.189e-6
-1.169, -4.115e-6
-1.168, -4.050e-6
-1.167, -4.214e-6
-1.166, -4.366e-6
-1.165, -4.334e-6
-1.164, -4.298e-6
-1.163, -4.241e-6
-1.162, -4.325e-6
-1.161, -4.481e-6
-1.160, -4.480e-6
-1.159, -4.431e-6
-1.158, -4.395e-6
-1.157, -4.474e-6
-1.156, -4.650e-6
-1.155, -4.624e-6
-1.154, -4.621e-6
-1.153, -4.577e-6
-1.152, -4.650e-6
-1.151, -4.784e-6
-1.150, -4.819e-6
-1.149, -4.748e-6
-1.148, -4.699e-6
-1.147, -4.808e-6
-1.146, -4.987e-6
-1.145, -4.992e-6
-1.144, -4.921e-6
-1.143, -4.934e-6
-1.142, -5.003e-6
-1.141, -5.189e-6
-1.140, -5.181e-6
-1.139, -5.149e-6
-1.138, -5.126e-6
-1.137, -5.239e-6
-1.136, -5.352e-6
-1.135, -5.383e-6
-1.134, -5.342e-6
-1.133, -5.313e-6
-1.132, -5.412e-6
-1.131, -5.596e-6
-1.130, -5.611e-6
-1.129, -5.543e-6
-1.128, -5.566e-6
-1.127, -5.664e-6
-1.126, -5.839e-6
-1.125, -5.834e-6
-1.124, -5.804e-6
-1.123, -5.787e-6
-1.122, -5.916e-6
-1.121, -6.081e-6
-1.120, -6.107e-6
-1.119, -6.038e-6
-1.118, -6.083e-6
-1.117, -6.179e-6
-1.116, -6.327e-6
-1.115, -6.397e-6
-1.114, -6.333e-6
-1.113, -6.349e-6
-1.112, -6.458e-6
-1.111, -6.601e-6
-1.110, -6.686e-6
-1.109, -6.602e-6
-1.108, -6.652e-6
-1.107, -6.753e-6
-1.106, -6.955e-6
-1.105, -6.968e-6
-1.104, -6.947e-6
-1.103, -6.926e-6
-1.102, -7.081e-6
-1.101, -7.251e-6
-1.100, -7.301e-6
-1.099, -7.265e-6
-1.098, -7.318e-6
-1.097, -7.430e-6
-1.096, -7.589e-6
-1.095, -7.649e-6
-1.094, -7.630e-6
-1.093, -7.638e-6
-1.092, -7.757e-6
-1.091, -7.937e-6
-1.090, -7.999e-6
-1.089, -7.995e-6
-1.088, -7.985e-6
-1.087, -8.172e-6
-1.086, -8.326e-6
-1.085, -8.372e-6
-1.084, -8.363e-6
-1.083, -8.330e-6
-1.082, -8.490e-6
-1.081, -8.724e-6
-1.080, -8.774e-6
-1.079, -8.728e-6
-1.078, -8.754e-6
-1.077, -8.914e-6
-1.076, -9.078e-6
-1.075, -9.186e-6
-1.074, -9.184e-6
-1.073, -9.152e-6
-1.072, -9.283e-6
-1.071, -9.495e-6
-1.070, -9.600e-6
-1.069, -9.567e-6
-1.068, -9.588e-6
-1.067, -9.729e-6
-1.066, -9.901e-6
-1.065, -1.001e-5
-1.064, -9.964e-6
-1.063, -9.970e-6
-1.062, -1.015e-5
-1.061, -1.036e-5
-1.060, -1.042e-5
-1.059, -1.037e-5
-1.058, -1.040e-5
-1.057, -1.056e-5
-1.056, -1.077e-5
-1.055, -1.083e-5
-1.054, -1.084e-5
-1.053, -1.083e-5
-1.052, -1.099e-5
-1.051, -1.121e-5
-1.050, -1.128e-5
-1.049, -1.125e-5
-1.048, -1.127e-5
-1.047, -1.142e-5
-1.046, -1.165e-5
-1.045, -1.173e-5
-1.044, -1.167e-5
-1.043, -1.173e-5
-1.042, -1.186e-5
-1.041, -1.207e-5
-1.040, -1.215e-5
-1.039, -1.214e-5
-1.038, -1.212e-5
-1.037, -1.229e-5
-1.036, -1.251e-5
-1.035, -1.265e-5
-1.034, -1.259e-5
-1.033, -1.259e-5
-1.032, -1.271e-5
-1.031, -1.295e-5
-1.030, -1.306e-5
-1.029, -1.305e-5
-1.028, -1.302e-5
-1.027, -1.320e-5
-1.026, -1.341e-5
-1.025, -1.352e-5
-1.024, -1.351e-5
-1.023, -1.346e-5
-1.022, -1.369e-5
-1.021, -1.385e-5
-1.020, -1.399e-5
-1.019, -1.395e-5
-1.018, -1.396e-5
-1.017, -1.414e-5
-1.016, -1.431e-5
-1.015, -1.449e-5
-1.014, -1.445e-5
-1.013, -1.440e-5
-1.012, -1.459e-5
-1.011, -1.486e-5
-1.010, -1.495e-5
-1.009, -1.493e-5
-1.008, -1.492e-5
-1.007, -1.508e-5
-1.006, -1.533e-5
-1.005, -1.547e-5
-1.004, -1.542e-5
-1.003, -1.543e-5
-1.002, -1.559e-5
-1.001, -1.584e-5
-1.000, -1.300e-5
-1.001, -1.095e-5
-1.002, -9.779e-6
-1.003, -9.093e-6
-1.004, -8.611e-6
-1.005, -8.056e-6
-1.006, -7.378e-6
-1.007, -6.828e-6
-1.008, -6.483e-6
-1.009, -6.219e-6
-1.010, -5.915e-6
-1.011, -5.360e-6
-1.012, -4.971e-6
-1.013, -4.725e-6
-1.014, -4.582e-6
-1.015, -4.328e-6
-1.016, -3.924e-6
-1.017, -3.582e-6
-1.018, -3.390e-6
-1.019, -3.324e-6
-1.020, -3.145e-6
-1.021, -2.772e-6
-1.022, -2.476e-6
-1.023, -2.371e-6
-1.024, -2.272e-6
-1.025, -2.112e-6
-1.026, -1.788e-6
-1.027, -1.559e-6
-1.028, -1.475e-6
-1.029, -1.382e-6
-1.030, -1.305e-6
-1.031, -9.680e-7
-1.032, -7.974e-7
-1.033, -7.155e-7
-1.034, -6.879e-7
-1.035, -5.981e-7
-1.036, -3.327e-7
-1.037, -1.482e-7
-1.038, -5.545e-8
-1.039, -7.715e-8
-1.040, 4.736e-9
-1.041, 2.317e-7
-1.042, 4.457e-7
-1.043, 4.911e-7
-1.044, 4.941e-7
-1.045, 5.464e-7
-1.046, 7.930e-7
-1.047, 9.529e-7
-1.048, 9.686e-7
-1.049, 9.825e-7
-1.050, 1.027e-6
-1.051, 1.259e-6
-1.052, 1.417e-6
-1.053, 1.444e-6
-1.054, 1.387e-6
-1.055, 1.479e-6
-1.056, 1.660e-6
-1.057, 1.820e-6
-1.058, 1.819e-6
-1.059, 1.776e-6
-1.060, 1.818e-6
-1.061, 2.025e-6
-1.062, 2.143e-6
-1.063, 2.191e-6
-1.064, 2.125e-6
-1.065, 2.143e-6
-1.066, 2.356e-6
-1.067, 2.470e-6
-1.068, 2.465e-6
-1.069, 2.429e-6
-1.070, 2.417e-6
-1.071, 2.633e-6
-1.072, 2.786e-6
-1.073, 2.741e-6
-1.074, 2.679e-6
-1.075, 2.698e-6
-1.076, 2.892e-6
-1.077, 3.024e-6
-1.078, 3.020e-6
-1.079, 2.942e-6
-1.080, 2.926e-6
-1.081, 3.112e-6
-1.082, 3.234e-6
-1.083, 3.205e-6
-1.084, 3.145e-6
-1.085, 3.113e-6
-1.086, 3.309e-6
-1.087, 3.412e-6
-1.088, 3.391e-6
-1.089, 3.324e-6
-1.090, 3.305e-6
-1.091, 3.472e-6
-1.092, 3.590e-6
-1.093, 3.576e-6
-1.094, 3.508e-6
-1.095, 3.466e-6
-1.096, 3.621e-6
-1.097, 3.712e-6
-1.098, 3.705e-6
-1.099, 3.635e-6
-1.100, 3.589e-6
-1.101, 3.789e-6
-1.102, 3.876e-6
-1.103, 3.851e-6
-1.104, 3.761e-6
-1.105, 3.715e-6
-1.106, 3.915e-6
-1.107, 3.988e-6
-1.108, 3.953e-6
-1.109, 3.857e-6
-1.110, 3.821e-6
-1.111, 3.992e-6
-1.112, 4.054e-6
-1.113, 4.058e-6
-1.114, 3.978e-6
-1.115, 3.917e-6
-1.116, 4.099e-6
-1.117, 4.166e-6
-1.118, 4.135e-6
-1.119, 4.044e-6
-1.120, 3.993e-6
-1.121, 4.169e-6
-1.122, 4.253e-6
-1.123, 4.205e-6
-1.124, 4.094e-6
-1.125, 4.064e-6
-1.126, 4.206e-6
-1.127, 4.343e-6
-1.128, 4.265e-6
-1.129, 4.174e-6
-1.130, 4.146e-6
-1.131, 4.258e-6
-1.132, 4.359e-6
-1.133, 4.327e-6
-1.134, 4.227e-6
-1.135, 4.205e-6
-1.136, 4.339e-6
-1.137, 4.420e-6
-1.138, 4.398e-6
-1.139, 4.246e-6
-1.140, 4.247e-6
-1.141, 4.394e-6
-1.142, 4.423e-6
-1.143, 4.441e-6
-1.144, 4.294e-6
-1.145, 4.277e-6
-1.146, 4.432e-6
-1.147, 4.520e-6
-1.148, 4.437e-6
-1.149, 4.358e-6
-1.150, 4.333e-6
-1.151, 4.451e-6
-1.152, 4.543e-6
-1.153, 4.497e-6
-1.154, 4.353e-6
-1.155, 4.393e-6
-1.156, 4.512e-6
-1.157, 4.543e-6
-1.158, 4.537e-6
-1.159, 4.447e-6
-1.160, 4.400e-6
-1.161, 4.515e-6
-1.162, 4.623e-6
-1.163, 4.559e-6
-1.164, 4.460e-6
-1.165, 4.426e-6
-1.166, 4.560e-6
-1.167, 4.645e-6
-1.168, 4.592e-6
-1.169, 4.480e-6
-1.170, 4.454e-6
-1.171, 4.618e-6
-1.172, 4.701e-6
-1.173, 4.624e-6
-1.174, 4.523e-6
-1.175, 4.497e-6
-1.176, 4.636e-6
-1.177, 4.729e-6
-1.178, 4.682e-6
-1.179, 4.540e-6
-1.180, 4.539e-6
-1.181, 4.652e-6
-1.182, 4.746e-6
-1.183, 4.740e-6
-1.184, 4.598e-6
-1.185, 4.604e-6
-1.186, 4.720e-6
-1.187, 4.796e-6
-1.188, 4.756e-6
-1.189, 4.636e-6
-1.190, 4.632e-6
-1.191, 4.770e-6
-1.192, 4.829e-6
-1.193, 4.790e-6
-1.194, 4.719e-6
-1.195, 4.676e-6
-1.196, 4.832e-6
-1.197, 4.904e-6
-1.198, 4.827e-6
-1.199, 4.752e-6
-1.200, 4.715e-6
-1.201, 4.862e-6
-1.202, 4.954e-6
-1.203, 4.901e-6
-1.204, 4.849e-6
-1.205, 4.811e-6
-1.206, 4.949e-6
-1.207, 5.043e-6
-1.208, 4.984e-6
-1.209, 4.895e-6
-1.210, 4.918e-6
-1.211, 4.987e-6
-1.212, 5.136e-6
-1.213, 5.070e-6
-1.214, 4.974e-6
-1.215, 4.977e-6
-1.216, 5.095e-6
-1.217, 5.207e-6
-1.218, 5.180e-6
-1.219, 5.095e-6
-1.220, 5.062e-6
-1.221, 5.184e-6
-1.222, 5.344e-6
-1.223, 5.288e-6
-1.224, 5.162e-6
-1.225, 5.180e-6
-1.226, 5.324e-6
-1.227, 5.435e-6
-1.228, 5.401e-6
-1.229, 5.360e-6
-1.230, 5.309e-6
-1.231, 5.487e-6
-1.232, 5.565e-6
-1.233, 5.514e-6
-1.234, 5.447e-6
-1.235, 5.445e-6
-1.236, 5.611e-6
-1.237, 5.729e-6
-1.238, 5.687e-6
-1.239, 5.619e-6
-1.240, 5.605e-6
-1.241, 5.746e-6
-1.242, 5.897e-6
-1.243, 5.851e-6
-1.244, 5.780e-6
-1.245, 5.803e-6
-1.246, 5.971e-6
-1.247, 6.080e-6
-1.248, 6.052e-6
-1.249, 5.973e-6
-1.250, 5.981e-6
-1.251, 6.128e-6
-1.252, 6.284e-6
-1.253, 6.296e-6
-1.254, 6.198e-6
-1.255, 6.227e-6
-1.256, 6.379e-6
-1.257, 6.499e-6
-1.258, 6.529e-6
-1.259, 6.414e-6
-1.260, 6.435e-6
-1.261, 6.629e-6
-1.262, 6.755e-6
-1.263, 6.780e-6
-1.264, 6.678e-6
-1.265, 6.749e-6
-1.266, 6.912e-6
-1.267, 7.037e-6
-1.268, 7.046e-6
-1.269, 7.024e-6
-1.270, 7.049e-6
-1.271, 7.220e-6
-1.272, 7.379e-6
-1.273, 7.359e-6
-1.274, 7.348e-6
-1.275, 7.369e-6
-1.276, 7.557e-6
-1.277, 7.738e-6
-1.278, 7.757e-6
-1.279, 7.680e-6
-1.280, 7.744e-6
-1.281, 7.939e-6
-1.282, 8.130e-6
-1.283, 8.155e-6
-1.284, 8.106e-6
-1.285, 8.149e-6
-1.286, 8.371e-6
-1.287, 8.518e-6
-1.288, 8.542e-6
-1.289, 8.521e-6
-1.290, 8.563e-6
-1.291, 8.805e-6
-1.292, 8.954e-6
-1.293, 9.053e-6
-1.294, 9.007e-6
-1.295, 9.079e-6
-1.296, 9.248e-6
-1.297, 9.456e-6
-1.298, 9.498e-6
-1.299, 9.491e-6
-1.300, 9.571e-6
-1.301, 9.771e-6
-1.302, 1.001e-5
-1.303, 1.003e-5
-1.304, 1.004e-5
-1.305, 1.013e-5
-1.306, 1.036e-5
-1.307, 1.056e-5
-1.308, 1.062e-5
-1.309, 1.066e-5
-1.310, 1.072e-5
-1.311, 1.096e-5
-1.312, 1.116e-5
-1.313, 1.122e-5
-1.314, 1.129e-5
-1.315, 1.136e-5
-1.316, 1.156e-5
-1.317, 1.181e-5
-1.318, 1.192e-5
-1.319, 1.195e-5
-1.320, 1.203e-5
-1.321, 1.229e-5
-1.322, 1.251e-5
-1.323, 1.262e-5
-1.324, 1.265e-5
-1.325, 1.278e-5
-1.326, 1.301e-5
-1.327, 1.329e-5
-1.328, 1.340e-5
-1.329, 1.339e-5
-1.330, 1.355e-5
-1.331, 1.382e-5
-1.332, 1.407e-5
-1.333, 1.422e-5
-1.334, 1.424e-5
-1.335, 1.440e-5
-1.336, 1.467e-5
-1.337, 1.492e-5
-1.338, 1.506e-5
-1.339, 1.513e-5
-1.340, 1.528e-5
-1.341, 1.555e-5
-1.342, 1.580e-5
-1.343, 1.600e-5
-1.344, 1.606e-5
-1.345, 1.620e-5
-1.346, 1.654e-5
-1.347, 1.680e-5
-1.348, 1.697e-5
-1.349, 1.702e-5
-1.350, 1.721e-5
-1.351, 1.752e-5
-1.352, 1.778e-5
-1.353, 1.802e-5
-1.354, 1.809e-5
-1.355, 1.829e-5
-1.356, 1.859e-5
-1.357, 1.889e-5
-1.358, 1.907e-5
-1.359, 1.920e-5
-1.360, 1.940e-5
-1.361, 1.972e-5
-1.362, 2.002e-5
-1.363, 2.021e-5
-1.364, 2.036e-5
-1.365, 2.057e-5
-1.366, 2.089e-5
-1.367, 2.121e-5
-1.368, 2.142e-5
-1.369, 2.155e-5
-1.370, 2.182e-5
-1.371, 2.212e-5
-1.372, 2.247e-5
-1.373, 2.273e-5
-1.374, 2.283e-5
-1.375, 2.308e-5
-1.376, 2.342e-5
-1.377, 2.381e-5
-1.378, 2.407e-5
-1.379, 2.418e-5
-1.380, 2.443e-5
-1.381, 2.479e-5
-1.382, 2.518e-5
-1.383, 2.545e-5
-1.384, 2.559e-5
-1.385, 2.582e-5
-1.386, 2.621e-5
-1.387, 2.660e-5
-1.388, 2.690e-5
-1.389, 2.707e-5
-1.390, 2.732e-5
-1.391, 2.772e-5
-1.392, 2.812e-5
-1.393, 2.843e-5
-1.394, 2.860e-5
-1.395, 2.885e-5
-1.396, 2.926e-5
-1.397, 2.971e-5
-1.398, 2.998e-5
-1.399, 3.019e-5
-1.400, 3.047e-5
-1.401, 3.086e-5
-1.402, 3.137e-5
-1.403, 3.163e-5
-1.404, 3.182e-5
-1.405, 3.215e-5
-1.406, 3.253e-5
-1.407, 3.304e-5
-1.408, 3.332e-5
-1.409, 3.356e-5
-1.410, 3.386e-5
-1.411, 3.430e-5
-1.412, 3.480e-5
-1.413, 3.511e-5
-1.414, 3.536e-5
-1.415, 3.569e-5
-1.416, 3.612e-5
-1.417, 3.664e-5
-1.418, 3.700e-5
-1.419, 3.721e-5
-1.420, 3.756e-5
-1.421, 3.800e-5
-1.422, 3.849e-5
-1.423, 3.891e-5
-1.424, 3.915e-5
-1.425, 3.948e-5
-1.426, 3.996e-5
-1.427, 4.044e-5
-1.428, 4.087e-5
-1.429, 4.110e-5
-1.430, 4.142e-5
-1.431, 4.194e-5
-1.432, 4.244e-5
-1.433, 4.287e-5
-1.434, 4.316e-5
-1.435, 4.351e-5
-1.436, 4.400e-5
-1.437, 4.453e-5
-1.438, 4.492e-5
-1.439, 4.523e-5
-1.440, 4.563e-5
-1.441, 4.608e-5
-1.442, 4.667e-5
-1.443, 4.701e-5
-1.444, 4.737e-5
-1.445, 4.774e-5
-1.446, 4.827e-5
-1.447, 4.884e-5
-1.448, 4.929e-5
-1.449, 4.960e-5
-1.450, 4.999e-5
-1.451, 5.049e-5
-1.452, 5.107e-5
-1.453, 5.152e-5
-1.454, 5.185e-5
-1.455, 5.222e-5
-1.456, 5.274e-5
-1.457, 5.331e-5
-1.458, 5.377e-5
-1.459, 5.411e-5
-1.460, 5.461e-5
-1.461, 5.510e-5
-1.462, 5.568e-5
-1.463, 5.616e-5
-1.464, 5.650e-5
-1.465, 5.694e-5
-1.466, 5.752e-5
-1.467, 5.815e-5
-1.468, 5.862e-5
-1.469, 5.898e-5
-1.470, 5.939e-5
-1.471, 5.997e-5
-1.472, 6.061e-5
-1.473, 6.107e-5
-1.474, 6.161e-5
-1.475, 6.209e-5
-1.476, 6.270e-5
-1.477, 6.349e-5
-1.478, 6.398e-5
-1.479, 6.445e-5
-1.480, 6.479e-5
-1.481, 6.540e-5
-1.482, 6.605e-5
-1.483, 6.657e-5
-1.484, 6.696e-5
-1.485, 6.740e-5
-1.486, 6.802e-5
-1.487, 6.865e-5
-1.488, 6.909e-5
-1.489, 6.953e-5
-1.490, 6.999e-5
-1.491, 7.055e-5
-1.492, 7.130e-5
-1.493, 7.179e-5
-1.494, 7.234e-5
-1.495, 7.275e-5
-1.496, 7.335e-5
-1.497, 7.408e-5
-1.498, 7.471e-5
-1.499, 7.507e-5
-1.500, 7.563e-5
-1.501, 7.625e-5
-1.502, 7.701e-5
-1.503, 7.750e-5
-1.504, 7.800e-5
-1.505, 7.846e-5
-1.506, 7.910e-5
-1.507, 7.981e-5
-1.508, 8.035e-5
-1.509, 8.095e-5
-1.510, 8.144e-5
-1.511, 8.216e-5
-1.512, 8.292e-5
-1.513, 8.346e-5
-1.514, 8.400e-5
-1.515, 8.453e-5
-1.516, 8.518e-5
-1.517, 8.620e-5
-1.518, 8.831e-5
-1.519, 8.856e-5
-1.520, 8.870e-5
-1.521, 8.924e-5
-1.522, 9.003e-5
-1.523, 9.073e-5
-1.524, 9.132e-5
-1.525, 9.183e-5
-1.526, 9.249e-5
-1.527, 9.332e-5
-1.528, 9.378e-5
-1.529, 9.424e-5
-1.530, 9.471e-5
-1.531, 9.542e-5
-1.532, 9.622e-5
-1.533, 9.688e-5
-1.534, 9.761e-5
-1.535, 9.841e-5
-1.536, 9.915e-5
-1.537, 9.990e-5
-1.538, 1.005e-4
-1.539, 1.012e-4
-1.540, 1.018e-4
-1.541, 1.025e-4
-1.542, 1.032e-4
-1.543, 1.037e-4
-1.544, 1.044e-4
-1.545, 1.050e-4
-1.546, 1.058e-4
-1.547, 1.067e-4
-1.548, 1.075e-4
-1.549, 1.082e-4
-1.550, 1.087e-4
-1.551, 1.095e-4
-1.552, 1.104e-4
-1.553, 1.111e-4
-1.554, 1.117e-4
-1.555, 1.124e-4
-1.556, 1.133e-4
-1.557, 1.143e-4
-1.558, 1.152e-4
-1.559, 1.159e-4
-1.560, 1.166e-4
-1.561, 1.175e-4
-1.562, 1.185e-4
-1.563, 1.193e-4
-1.564, 1.200e-4
-1.565, 1.208e-4
-1.566, 1.218e-4
-1.567, 1.228e-4
-1.568, 1.236e-4
-1.569, 1.244e-4
-1.570, 1.253e-4
-1.571, 1.262e-4
-1.572, 1.273e-4
-1.573, 1.283e-4
-1.574, 1.291e-4
-1.575, 1.299e-4
-1.576, 1.310e-4
-1.577, 1.322e-4
-1.578, 1.332e-4
-1.579, 1.341e-4
-1.580, 1.350e-4
-1.581, 1.362e-4
-1.582, 1.374e-4
-1.583, 1.385e-4
-1.584, 1.395e-4
-1.585, 1.404e-4
-1.586, 1.417e-4
-1.587, 1.430e-4
-1.588, 1.442e-4
-1.589, 1.452e-4
-1.590, 1.463e-4
-1.591, 1.475e-4
-1.592, 1.490e-4
-1.593, 1.502e-4
-1.594, 1.516e-4
-1.595, 1.530e-4
-1.596, 1.543e-4
-1.597, 1.558e-4
-1.598, 1.571e-4
-1.599, 1.584e-4
-1.600, 1.558e-4
-1.599, 1.523e-4
-1.598, 1.495e-4
-1.597, 1.468e-4
-1.596, 1.440e-4
-1.595, 1.413e-4
-1.594, 1.389e-4
-1.593, 1.366e-4
-1.592, 1.343e-4
-1.591, 1.319e-4
-1.590, 1.296e-4
-1.589, 1.276e-4
-1.588, 1.257e-4
-1.587, 1.237e-4
-1.586, 1.217e-4
-1.585, 1.197e-4
-1.584, 1.179e-4
-1.583, 1.163e-4
-1.582, 1.145e-4
-1.581, 1.127e-4
-1.580, 1.110e-4
-1.579, 1.094e-4
-1.578, 1.080e-4
-1.577, 1.063e-4
-1.576, 1.047e-4
-1.575, 1.033e-4
-1.574, 1.020e-4
-1.573, 1.010e-4
-1.572, 9.974e-5
-1.571, 9.823e-5
-1.570, 9.690e-5
-1.569, 9.561e-5
-1.568, 9.446e-5
-1.567, 9.311e-5
-1.566, 9.173e-5
-1.565, 9.041e-5
-1.564, 8.930e-5
-1.563, 8.816e-5
-1.562, 8.700e-5
-1.561, 8.567e-5
-1.560, 8.454e-5
-1.559, 8.347e-5
-1.558, 8.253e-5
-1.557, 8.148e-5
-1.556, 8.027e-5
-1.555, 7.918e-5
-1.554, 7.822e-5
-1.553, 7.735e-5
-1.552, 7.639e-5
-1.551, 7.530e-5
-1.550, 7.423e-5
-1.549, 7.342e-5
-1.548, 7.269e-5
-1.547, 7.176e-5
-1.546, 7.075e-5
-1.545, 6.982e-5
-1.544, 6.912e-5
-1.543, 6.838e-5
-1.542, 6.749e-5
-1.541, 6.656e-5
-1.540, 6.569e-5
-1.539, 6.496e-5
-1.538, 6.433e-5
-1.537, 6.353e-5
-1.536, 6.276e-5
-1.535, 6.203e-5
-1.534, 6.147e-5
-1.533, 6.089e-5
-1.532, 6.014e-5
-1.531, 5.934e-5
-1.530, 5.861e-5
-1.529, 5.796e-5
-1.528, 5.749e-5
-1.527, 5.680e-5
-1.526, 5.596e-5
-1.525, 5.535e-5
-1.524, 5.479e-5
-1.523, 5.431e-5
-1.522, 5.363e-5
-1.521, 5.286e-5
-1.520, 5.226e-5
-1.519, 5.173e-5
-1.518, 5.126e-5
-1.517, 5.072e-5
-1.516, 5.010e-5
-1.515, 4.944e-5
-1.514, 4.893e-5
-1.513, 4.853e-5
-1.512, 4.800e-5
-1.511, 4.734e-5
-1.510, 4.674e-5
-1.509, 4.632e-5
-1.508, 4.592e-5
-1.507, 4.542e-5
-1.506, 4.480e-5
-1.505, 4.420e-5
-1.504, 4.380e-5
-1.503, 4.345e-5
-1.502, 4.292e-5
-1.501, 4.239e-5
-1.500, 4.182e-5
-1.499, 4.143e-5
-1.498, 4.114e-5
-1.497, 4.067e-5
-1.496, 4.013e-5
-1.495, 3.965e-5
-1.494, 3.920e-5
-1.493, 3.892e-5
-1.492, 3.847e-5
-1.491, 3.796e-5
-1.490, 3.746e-5
-1.489, 3.713e-5
-1.488, 3.685e-5
-1.487, 3.643e-5
-1.486, 3.589e-5
-1.485, 3.541e-5
-1.484, 3.511e-5
-1.483, 3.484e-5
-1.482, 3.452e-5
-1.481, 3.396e-5
-1.480, 3.355e-5
-1.479, 3.319e-5
-1.478, 3.296e-5
-1.477, 3.259e-5
-1.476, 3.210e-5
-1.475, 3.165e-5
-1.474, 3.139e-5
-1.473, 3.115e-5
-1.472, 3.085e-5
-1.471, 3.032e-5
-1.470, 2.996e-5
-1.469, 2.970e-5
-1.468, 2.952e-5
-1.467, 2.916e-5
-1.466, 2.869e-5
-1.465, 2.833e-5
-1.464, 2.807e-5
-1.463, 2.784e-5
-1.462, 2.759e-5
-1.461, 2.705e-5
-1.460, 2.674e-5
-1.459, 2.648e-5
-1.458, 2.629e-5
-1.457, 2.597e-5
-1.456, 2.556e-5
-1.455, 2.517e-5
-1.454, 2.497e-5
-1.453, 2.481e-5
-1.452, 2.458e-5
-1.451, 2.407e-5
-1.450, 2.378e-5
-1.449, 2.353e-5
-1.448, 2.341e-5
-1.447, 2.311e-5
-1.446, 2.267e-5
-1.445, 2.233e-5
-1.444, 2.217e-5
-1.443, 2.206e-5
-1.442, 2.179e-5
-1.441, 2.137e-5
-1.440, 2.110e-5
-1.439, 2.090e-5
-1.438, 2.075e-5
-1.437, 2.058e-5
-1.436, 2.017e-5
-1.435, 1.984e-5
-1.434, 1.962e-5
-1.433, 1.951e-5
-1.432, 1.934e-5
-1.431, 1.897e-5
-1.430, 1.866e-5
-1.429, 1.847e-5
-1.428, 1.834e-5
-1.427, 1.813e-5
-1.426, 1.774e-5
-1.425, 1.747e-5
-1.424, 1.734e-5
-1.423, 1.724e-5
-1.422, 1.701e-5
-1.421, 1.668e-5
-1.420, 1.642e-5
-1.419, 1.623e-5
-1.418, 1.612e-5
-1.417, 1.596e-5
-1.416, 1.561e-5
-1.415, 1.536e-5
-1.414, 1.516e-5
-1.413, 1.510e-5
-1.412, 1.495e-5
-1.411, 1.457e-5
-1.410, 1.434e-5
-1.409, 1.419e-5
-1.408, 1.410e-5
-1.407, 1.395e-5
-1.406, 1.361e-5
-1.405, 1.332e-5
-1.404, 1.323e-5
-1.403, 1.317e-5
-1.402, 1.304e-5
-1.401, 1.268e-5
-1.400, 1.245e-5
-1.399, 1.233e-5
-1.398, 1.225e-5
-1.397, 1.215e-5
-1.396, 1.180e-5
-1.395, 1.154e-5
-1.394, 1.148e-5
-1.393, 1.138e-5
-1.392, 1.128e-5
-1.391, 1.095e-5
-1.390, 1.068e-5
-1.389, 1.062e-5
-1.388, 1.061e-5
-1.387, 1.048e-5
-1.386, 1.015e-5
-1.385, 9.947e-6
-1.384, 9.868e-6
-1.383, 9.810e-6
-1.382, 9.682e-6
-1.381, 9.369e-6
-1.380, 9.163e-6
-1.379, 9.061e-6
-1.378, 9.034e-6
-1.377, 8.910e-6
-1.376, 8.645e-6
-1.375, 8.395e-6
-1.374, 8.328e-6
-1.373, 8.317e-6
-1.372, 8.192e-6
-1.371, 7.893e-6
-1.370, 7.706e-6
-1.369, 7.651e-6
-1.368, 7.628e-6
-1.367, 7.502e-6
-1.366, 7.237e-6
-1.365, 7.035e-6
-1.364, 6.991e-6
-1.363, 6.901e-6
-1.362, 6.834e-6
-1.361, 6.550e-6
-1.360, 6.366e-6
-1.359, 6.286e-6
-1.358, 6.298e-6
-1.357, 6.216e-6
-1.356, 5.959e-6
-1.355, 5.742e-6
-1.354, 5.714e-6
-1.353, 5.673e-6
-1.352, 5.640e-6
-1.351, 5.340e-6
-1.350, 5.179e-6
-1.349, 5.106e-6
-1.348, 5.127e-6
-1.347, 5.030e-6
-1.346, 4.757e-6
-1.345, 4.609e-6
-1.344, 4.532e-6
-1.343, 4.564e-6
-1.342, 4.463e-6
-1.341, 4.242e-6
-1.340, 4.063e-6
-1.339, 4.018e-6
-1.338, 4.008e-6
-1.337, 3.963e-6
-1.336, 3.708e-6
-1.335, 3.549e-6
-1.334, 3.505e-6
-1.333, 3.540e-6
-1.332, 3.489e-6
-1.331, 3.235e-6
-1.330, 3.098e-6
-1.329, 3.036e-6
-1.328, 3.065e-6
-1.327, 2.989e-6
-1.326, 2.731e-6
-1.325, 2.596e-6
-1.324, 2.533e-6
-1.323, 2.577e-6
-1.322, 2.558e-6
-1.321, 2.293e-6
-1.320, 2.173e-6
-1.319, 2.143e-6
-1.318, 2.131e-6
-1.317, 2.125e-6
-1.316, 1.900e-6
-1.315, 1.719e-6
-1.314, 1.713e-6
-1.313, 1.732e-6
-1.312, 1.710e-6
-1.311, 1.452e-6
-1.310, 1.342e-6
-1.309, 1.323e-6
-1.308, 1.318e-6
-1.307, 1.298e-6
-1.306, 1.086e-6
-1.305, 9.114e-7
-1.304, 8.996e-7
-1.303, 9.667e-7
-1.302, 9.272e-7
-1.301, 6.944e-7
-1.300, 5.750e-7
-1.299, 5.148e-7
-1.298, 5.957e-7
-1.297, 5.779e-7
-1.296, 3.609e-7
-1.295, 2.238e-7
-1.294, 2.119e-7
-1.293, 2.583e-7
-1.292, 2.247e-7
-1.291, 3.631e-8
-1.290, -4.953e-8
-1.289, -1.225e-7
-1.288, -5.939e-8
-1.287, -8.800e-8
-1.286, -3.041e-7
-1.285, -4.156e-7
-1.284, -3.840e-7
-1.283, -3.603e-7
-1.282, -3.652e-7
-1.281, -5.626e-7
-1.280, -7.323e-7
-1.279, -6.839e-7
-1.278, -6.553e-7
-1.277, -6.474e-7
-1.276, -8.487e-7
-1.275, -9.819e-7
-1.274, -9.838e-7
-1.273, -9.098e-7
-1.272, -9.207e-7
-1.271, -1.102e-6
-1.270, -1.245e-6
-1.269, -1.215e-6
-1.268, -1.171e-6
-1.267, -1.152e-6
-1.266, -1.333e-6
-1.265, -1.471e-6
-1.264, -1.429e-6
-1.263, -1.402e-6
-1.262, -1.403e-6
-1.261, -1.566e-6
-1.260, -1.686e-6
-1.259, -1.695e-6
-1.258, -1.607e-6
-1.257, -1.611e-6
-1.256, -1.822e-6
-1.255, -1.877e-6
-1.254, -1.911e-6
-1.253, -1.799e-6
-1.252, -1.814e-6
-1.251, -2.016e-6
-1.250, -2.075e-6
-1.249, -2.098e-6
-1.248, -2.035e-6
-1.247, -2.006e-6
-1.246, -2.217e-6
-1.245, -2.288e-6
-1.244, -2.278e-6
-1.243, -2.206e-6
-1.242, -2.201e-6
-1.241, -2.386e-6
-1.240, -2.459e-6
-1.239, -2.482e-6
-1.238, -2.384e-6
-1.237, -2.355e-6
-1.236, -2.515e-6
-1.235, -2.647e-6
-1.234, -2.599e-6
-1.233, -2.545e-6
-1.232, -2.500e-6
-1.231, -2.684e-6
-1.230, -2.736e-6
-1.229, -2.790e-6
-1.228, -2.691e-6
-1.227, -2.688e-6
-1.226, -2.859e-6
-1.225, -2.943e-6
-1.224, -2.907e-6
-1.223, -2.831e-6
-1.222, -2.816e-6
-1.221, -2.993e-6
-1.220, -3.055e-6
-1.219, -3.051e-6
-1.218, -2.958e-6
-1.217, -2.957e-6
-1.216, -3.094e-6
-1.215, -3.232e-6
-1.214, -3.190e-6
-1.213, -3.079e-6
-1.212, -3.073e-6
-1.211, -3.251e-6
-1.210, -3.318e-6
-1.209, -3.303e-6
-1.208, -3.224e-6
-1.207, -3.196e-6
-1.206, -3.343e-6
-1.205, -3.462e-6
-1.204, -3.419e-6
-1.203, -3.353e-6
-1.202, -3.324e-6
-1.201, -3.478e-6
-1.200, -3.579e-6
-1.199, -3.520e-6
-1.198, -3.482e-6
-1.197, -3.451e-6
-1.196, -3.600e-6
-1.195, -3.709e-6
-1.194, -3.683e-6
-1.193, -3.599e-6
-1.192, -3.567e-6
-1.191, -3.695e-6
-1.190, -3.826e-6
-1.189, -3.791e-6
-1.188, -3.706e-6
-1.187, -3.687e-6
-1.186, -3.843e-6
-1.185, -3.947e-6
-1.184, -3.896e-6
-1.183, -3.836e-6
-1.182, -3.809e-6
-1.181, -3.977e-6
-1.180, -4.037e-6
-1.179, -4.021e-6
-1.178, -3.958e-6
-1.177, -3.983e-6
-1.176, -4.117e-6
-1.175, -4.201e-6
-1.174, -4.174e-6
-1.173, -4.060e-6
-1.172, -4.070e-6
-1.171, -4.218e-6
-1.170, -4.329e-6
-1.169, -4.296e-6
-1.168, -4.212e-6
-1.167, -4.209e-6
-1.166, -4.383e-6
-1.165, -4.449e-6
-1.164, -4.443e-6
-1.163, -4.383e-6
-1.162, -4.339e-6
-1.161, -4.518e-6
-1.160, -4.609e-6
-1.159, -4.613e-6
-1.158, -4.508e-6
-1.157, -4.498e-6
-1.156, -4.686e-6
-1.155, -4.764e-6
-1.154, -4.756e-6
-1.153, -4.695e-6
-1.152, -4.672e-6
-1.151, -4.829e-6
-1.150, -4.978e-6
-1.149, -4.950e-6
-1.148, -4.854e-6
-1.147, -4.875e-6
-1.146, -4.995e-6
-1.145, -5.135e-6
-1.144, -5.128e-6
-1.143, -5.058e-6
-1.142, -5.051e-6
-1.141, -5.213e-6
-1.140, -5.327e-6
-1.139, -5.331e-6
-1.138, -5.269e-6
-1.137, -5.301e-6
-1.136, -5.410e-6
-1.135, -5.551e-6
-1.134, -5.553e-6
-1.133, -5.452e-6
-1.132, -5.479e-6
-1.131, -5.667e-6
-1.130, -5.772e-6
-1.129, -5.777e-6
-1.128, -5.715e-6
-1.127, -5.679e-6
-1.126, -5.911e-6
-1.125, -6.020e-6
-1.124, -5.987e-6
-1.123, -5.953e-6
-1.122, -5.955e-6
-1.121, -6.164e-6
-1.120, -6.244e-6
-1.119, -6.312e-6
-1.118, -6.218e-6
-1.117, -6.237e-6
-1.116, -6.388e-6
-1.115, -6.576e-6
-1.114, -6.542e-6
-1.113, -6.519e-6
-1.112, -6.521e-6
-1.111, -6.693e-6
-1.110, -6.872e-6
-1.109, -6.877e-6
-1.108, -6.789e-6
-1.107, -6.817e-6
-1.106, -7.021e-6
-1.105, -7.133e-6
-1.104, -7.171e-6
-1.103, -7.108e-6
-1.102, -7.141e-6
-1.101, -7.343e-6
-1.100, -7.495e-6
-1.099, -7.546e-6
-1.098, -7.495e-6
-1.097, -7.508e-6
-1.096, -7.654e-6
-1.095, -7.853e-6
-1.094, -7.883e-6
-1.093, -7.839e-6
-1.092, -7.831e-6
-1.091, -8.046e-6
-1.090, -8.223e-6
-1.089, -8.281e-6
-1.088, -8.224e-6
-1.087, -8.256e-6
-1.086, -8.415e-6
-1.085, -8.589e-6
-1.084, -8.648e-6
-1.083, -8.599e-6
-1.082, -8.620e-6
-1.081, -8.812e-6
-1.080, -8.971e-6
-1.079, -9.037e-6
-1.078, -9.007e-6
-1.077, -9.029e-6
-1.076, -9.220e-6
-1.075, -9.415e-6
-1.074, -9.447e-6
-1.073, -9.425e-6
-1.072, -9.430e-6
-1.071, -9.612e-6
-1.070, -9.793e-6
-1.069, -9.840e-6
-1.068, -9.840e-6
-1.067, -9.845e-6
-1.066, -1.001e-5
-1.065, -1.022e-5
-1.064, -1.029e-5
-1.063, -1.022e-5
-1.062, -1.028e-5
-1.061, -1.045e-5
-1.060, -1.064e-5
-1.059, -1.071e-5
-1.058, -1.069e-5
-1.057, -1.069e-5
-1.056, -1.088e-5
-1.055, -1.110e-5
-1.054, -1.112e-5
-1.053, -1.109e-5
-1.052, -1.111e-5
-1.051, -1.129e-5
-1.050, -1.150e-5
-1.049, -1.158e-5
-1.048, -1.156e-5
-1.047, -1.153e-5
-1.046, -1.176e-5
-1.045, -1.191e-5
-1.044, -1.201e-5
-1.043, -1.197e-5
-1.042, -1.200e-5
-1.041, -1.218e-5
-1.040, -1.236e-5
-1.039, -1.245e-5
-1.038, -1.240e-5
-1.037, -1.242e-5
-1.036, -1.262e-5
-1.035, -1.282e-5
-1.034, -1.291e-5
-1.033, -1.286e-5
-1.032, -1.290e-5
-1.031, -1.309e-5
-1.030, -1.327e-5
-1.029, -1.333e-5
-1.028, -1.328e-5
-1.027, -1.335e-5
-1.026, -1.354e-5
-1.025, -1.372e-5
-1.024, -1.385e-5
-1.023, -1.377e-5
-1.022, -1.384e-5
-1.021, -1.400e-5
-1.020, -1.420e-5
-1.019, -1.430e-5
-1.018, -1.424e-5
-1.017, -1.428e-5
-1.016, -1.447e-5
-1.015, -1.467e-5
-1.014, -1.479e-5
-1.013, -1.475e-5
-1.012, -1.475e-5
-1.011, -1.495e-5
-1.010, -1.516e-5
-1.009, -1.533e-5
-1.008, -1.523e-5
-1.007, -1.528e-5
-1.006, -1.547e-5
-1.005, -1.571e-5
-1.004, -1.577e-5
-1.003, -1.571e-5
-1.002, -1.577e-5
-1.001, -1.598e-5
