Potential V vs RHE, Current mA cm-2
0.013299999999999867,9.06971414343475
0.012299999999999978,8.416117522897103
0.011299999999999866,8.022827781534623
0.010299999999999976,7.630952751472008
0.009299999999999864,7.237663010109527
0.008299999999999974,6.933500080638546
0.007299999999999862,6.5840663895718805
0.006299999999999972,6.322344799096849
0.00529999999999986,6.060623208621817
0.0042999999999999705,5.75504556785097
0.0032999999999998586,5.449467927080121
0.0022999999999999687,5.231602386900906
0.0012999999999998568,4.926024746130058
0.00029999999999996696,4.708159205950842
-0.000700000000000145,4.402581565179994
-0.0017000000000000348,4.098418635709011
-0.0027000000000001467,3.8366970452339793
-0.0037000000000000366,3.5749754547589476
-0.0047000000000001485,3.2693978139880997
-0.005700000000000038,3.0515322738088844
-0.00670000000000015,2.7898106833338523
-0.00770000000000004,2.5705304318547717
-0.008700000000000152,2.352664891675556
-0.009700000000000042,2.0909433012005243
-0.010700000000000154,1.8730777610213083
-0.011700000000000044,1.655212220842093
-0.012700000000000156,1.349917522331218
-0.013700000000000045,1.0881959318561862
-0.014700000000000157,0.870188920546984
-0.015700000000000047,0.6084673300719523
-0.01670000000000016,0.3903188476327636
-0.01770000000000005,0.12863969849672777
-0.01870000000000016,-0.08943804837746762
-0.01970000000000005,-0.30755823659065895
-0.020700000000000163,-0.5255652478998613
-0.021700000000000053,-0.7437137303390498
-0.022700000000000164,-0.9181476336124089
-0.023700000000000054,-1.1362961160515976
-0.024700000000000166,-1.3543031273607997
-0.025700000000000056,-1.6156003044458718
-0.026700000000000168,-1.8334658446250875
-0.027700000000000058,-2.095187435100119
-0.02870000000000017,-2.3569090255751513
-0.02970000000000006,-2.576189277054232
-0.03070000000000017,-2.794054817233447
-0.03170000000000006,-3.055776407708479
-0.03270000000000017,-3.2297858975918787
-0.03370000000000006,-3.447651437771094
-0.034700000000000175,-3.6655169779503103
-0.035700000000000065,-3.7970851288377587
-0.03670000000000018,-4.014950669016974
-0.03770000000000007,-4.23281620919619
-0.03870000000000018,-4.406825699079589
-0.03970000000000007,-4.626105950558669
-0.04070000000000018,-4.887827541033701
-0.04170000000000007,-5.105693081212917
-0.04270000000000018,-5.411270721983764
-0.04370000000000007,-5.629136262162981
-0.044700000000000184,-5.80314575204638
-0.045700000000000074,-6.021011292225596
-0.046700000000000186,-6.196435493408861
-0.047700000000000076,-6.414301033588076
-0.04870000000000019,-6.588310523471475
-0.04970000000000008,-6.762320013354876
-0.05070000000000019,-6.981600264833956
-0.05170000000000008,-7.199465805013171
-0.05270000000000019,-7.4173313451923875
-0.05370000000000008,-7.679052935667419
-0.05470000000000019,-7.896918475846635
-0.05570000000000008,-8.158640066321666
-0.056700000000000195,-8.376505606500881
-0.057700000000000085,-8.594371146680096
-0.058700000000000196,-8.769795347863363
-0.059700000000000086,-8.987660888042578
-0.0607000000000002,-9.205526428221793
-0.06170000000000009,-9.379535918105192
-0.0627000000000002,-9.55496011928846
-0.06370000000000009,-9.772825659467674
-0.0647000000000002,-9.99069119964689
-0.06570000000000009,-10.208556739826104
-0.0667000000000002,-10.42642228000532
-0.0677000000000001,-10.644287820184536
-0.0687000000000002,-10.906009410659568
-0.0697000000000001,-11.123874950838783
-0.07070000000000021,-11.343155202317865
-0.0717000000000001,-11.56102074249708
-0.07270000000000021,-11.778886282676295
-0.0737000000000001,-11.952895772559694
-0.07470000000000021,-12.12831997374296
-0.0757000000000001,-12.302329463626359
-0.07670000000000021,-12.520195003805576
-0.0777000000000001,-12.73806054398479
-0.07870000000000021,-12.955926084164007
-0.0797000000000001,-13.13135028534727
-0.08070000000000022,-13.3930718758223
-0.0817000000000001,-13.610937416001518
-0.08270000000000022,-13.828802956180734
-0.08370000000000011,-14.090524546655764
-0.08470000000000022,-14.26028990263957
-0.08570000000000011,-14.486643710617974
-0.08670000000000022,-14.65640906660178
-0.08770000000000011,-14.868615761581536
-0.08870000000000022,-15.05252823056399
-0.08970000000000011,-15.222293586547794
-0.09070000000000022,-15.3920589425316
-0.09170000000000011,-15.618412750510005
-0.09270000000000023,-15.830619445489761
-0.09370000000000012,-16.099414592464115
-0.09470000000000023,-16.311621287443874
-0.09570000000000012,-16.53797509542228
-0.09670000000000023,-16.750181790402035
-0.09770000000000012,-16.919947146385837
-0.09870000000000023,-17.146300954364243
-0.09970000000000012,-17.316066310348052
-0.10070000000000023,-17.48583166633185
-0.10170000000000012,-17.669744135314307
-0.10270000000000024,-17.839509491298113
-0.10370000000000013,-18.06586329927652
-0.10470000000000024,-18.23562865526032
-0.10570000000000013,-18.44783535024008
-0.10670000000000024,-18.674189158218486
-0.10770000000000013,-18.88639585319824
-0.10870000000000024,-19.112749661176647
-0.10970000000000013,-19.367397695152352
-0.11070000000000024,-19.579604390132108
-0.11170000000000013,-19.805958198110513
-0.11270000000000002,-19.97572355409432
-0.11370000000000013,-20.159636023076775
-0.11470000000000002,-20.329401379060574
-0.11570000000000014,-20.499166735044383
-0.11670000000000003,-20.683079204026836
-0.11770000000000014,-20.85284456001064
-0.11870000000000003,-21.022609915994444
-0.11970000000000014,-21.248963723972853
-0.12070000000000003,-21.461170418952605
-0.12170000000000014,-21.67337711393236
-0.12270000000000003,-21.94217226090672
-0.12370000000000014,-22.15437895588647
-0.12470000000000003,-22.33829142486893
-0.12570000000000014,-22.508056780852733
-0.12670000000000003,-22.72026347583249
-0.12770000000000015,-22.904175944814945
-0.12870000000000004,-23.073941300798747
-0.12970000000000015,-23.2012653177866
-0.13070000000000004,-23.385177786769056
-0.13170000000000015,-23.597384481748815
-0.13270000000000004,-23.823738289727217
-0.13370000000000015,-23.993503645711023
-0.13470000000000004,-24.290593018682678
-0.13570000000000015,-24.474505487665134
-0.13670000000000004,-24.686712182644893
-0.13770000000000016,-24.9130659906233
-0.13870000000000005,-25.0828313466071
-0.13970000000000016,-25.252596702590903
-0.14070000000000005,-25.43650917157336
-0.14170000000000016,-25.60627452755716
-0.14270000000000005,-25.73359854454502
-0.14370000000000016,-25.91751101352747
-0.14470000000000005,-26.087276369511276
-0.14570000000000016,-26.29948306449103
-0.14670000000000005,-26.483395533473487
-0.14770000000000016,-26.65316088945729
-0.14870000000000005,-26.822926245441096
-0.14970000000000017,-27.049280053419505
-0.15070000000000006,-27.303928087395207
-0.15170000000000017,-27.487840556377662
-0.15270000000000006,-27.572723234369565
-0.15370000000000017,-27.742488590353368
-0.15470000000000006,-27.869812607341224
-0.15570000000000017,-28.09616641531963
-0.15670000000000006,-28.265931771303435
-0.15770000000000017,-28.435697127287238
-0.15870000000000006,-28.662050935265643
-0.15970000000000018,-28.831816291249446
-0.16070000000000007,-29.001581647233255
-0.16170000000000018,-29.27037679420761
-0.16270000000000007,-29.482583489187363
-0.16370000000000018,-29.62405461917387
-0.16470000000000007,-29.836261314153624
-0.16570000000000018,-30.00602667013743
-0.16670000000000007,-30.232380478115836
-0.16770000000000018,-30.359704495103685
-0.16870000000000007,-30.529469851087494
-0.16970000000000018,-30.614352529079397
-0.17070000000000007,-30.7558236590659
-0.17170000000000019,-30.968030354045652
-0.17270000000000008,-31.137795710029454
-0.1737000000000002,-31.40659085700382
-0.17470000000000008,-31.57635621298762
-0.1757000000000002,-31.802710020966025
-0.17670000000000008,-31.972475376949827
-0.1777000000000002,-32.14224073293363
-0.17870000000000008,-32.32615320191609
-0.1797000000000002,-32.49591855789989
-0.18070000000000008,-32.58080123589179
-0.1817000000000002,-32.70812525287965
-0.18270000000000008,-32.84959638286615
-0.1837000000000002,-33.01936173884996
-0.1847000000000001,-33.18912709483376
-0.1857000000000002,-33.373039563816214
-0.1867000000000001,-33.58524625879597
-0.1877000000000002,-33.85404140577033
-0.1887000000000001,-33.98136542275818
-0.1897000000000002,-34.193572117737936
-0.1907000000000001,-34.462367264712285
-0.1917000000000001,-34.58969128170015
-0.19269999999999998,-34.90092776767045
-0.1937000000000001,-35.02825178465831
-0.19469999999999998,-35.07069312365426
-0.1957000000000001,-35.240458479638065
-0.19669999999999999,-35.38192960962457
-0.1977000000000001,-35.50925362661242
-0.1987,-35.679018982596226
-0.1997000000000001,-35.848784338580025
-0.2007,-36.16002082455034
-0.2017000000000001,-36.329786180534136
-0.2027,-36.55613998851254
-0.2037000000000001,-36.81078802248826
-0.2047,-36.89567070048016
-0.2057000000000001,-37.122024508458566
-0.2067,-37.249348525446415
-0.2077000000000001,-37.334231203438314
-0.2087,-37.56058501141672
-0.2097000000000001,-37.687909028404576
-0.2107,-37.81523304539243
-0.2117000000000001,-38.08402819236679
-0.2127,-38.211352209354644
-0.2137000000000001,-38.33867622634249
-0.2147,-38.5650300343209
-0.2157000000000001,-38.734795390304704
-0.2167,-38.86211940729255
-0.21770000000000012,-39.08847321527096
-0.2187,-39.130914554266916
-0.21970000000000012,-39.258238571254765
-0.2207,-39.38556258824262
-0.22170000000000012,-39.51288660523048
-0.2227,-39.696799074212926
-0.22370000000000012,-39.86656443019674
-0.2247,-39.90900576919269
-0.22570000000000012,-40.177800916167044
-0.2267,-40.34756627215084
-0.22770000000000012,-40.559772967130606
-0.22870000000000001,-40.78612677510901
-0.22970000000000013,-40.95589213109281
-0.23070000000000002,-41.139804600075266
-0.23170000000000013,-41.267128617063115
-0.23270000000000002,-41.39445263405098
-0.23370000000000013,-41.52177665103883
-0.23470000000000002,-41.66324778102533
-0.23570000000000013,-41.83301313700913
-0.23670000000000002,-41.91789581500104
-0.2376999999999999,-42.04521983198889
-0.23870000000000002,-42.229132300971344
-0.2396999999999999,-42.3564563179592
-0.24070000000000003,-42.526221673943
-0.24169999999999991,-42.71013414292546
-0.24270000000000003,-42.837458159913304
-0.24369999999999992,-42.96478217690117
-0.24470000000000003,-43.134547532884966
-0.24569999999999992,-43.27601866287147
-0.24670000000000003,-43.40334267985933
-0.24769999999999992,-43.53066669684718
-0.24870000000000003,-43.70043205283099
-0.24969999999999992,-43.84190318281749
-0.25070000000000003,-43.92678586080939
-0.2516999999999999,-44.096551216793195
-0.25270000000000004,-44.223875233781044
-0.2536999999999999,-44.45022904175945
-0.25470000000000004,-44.619994397743255
-0.2556999999999999,-44.74731841473111
-0.25670000000000004,-44.84634820572166
-0.25769999999999993,-45.01611356170547
-0.25870000000000004,-45.05855490070142
-0.25969999999999993,-45.18587891768927
-0.26070000000000004,-45.32735004767578
-0.26169999999999993,-45.497115403659585
-0.26270000000000004,-45.581998081651484
-0.26369999999999993,-45.70932209863933
-0.26470000000000005,-45.85079322862584
-0.26569999999999994,-45.93567590661774
-0.26670000000000005,-45.97811724561369
-0.26769999999999994,-46.147882601597495
-0.26870000000000005,-46.2327652795894
-0.26969999999999994,-46.501560426563756
-0.27070000000000005,-46.67132578254756
-0.27169999999999994,-46.713767121543505
-0.27270000000000005,-46.982562268517874
-0.27369999999999994,-47.10988628550572
-0.27470000000000006,-47.15232762450167
-0.27569999999999995,-47.15232762450167
-0.27670000000000006,-47.15232762450167
-0.27769999999999995,-47.15232762450167
-0.27870000000000006,-47.32209298048547
-0.27969999999999995,-47.40697565847737
-0.28070000000000006,-47.67577080545174
-0.28169999999999995,-47.84553616143554
-0.28270000000000006,-48.071889969413945
-0.28369999999999995,-48.2840966643937
-0.28470000000000006,-48.32653800338966
-0.28569999999999995,-48.24165532539775
-0.28670000000000007,-48.32653800338966
-0.28769999999999996,-48.45386202037751
-0.28870000000000007,-48.45386202037751
-0.28969999999999996,-48.55289181136806
-0.29070000000000007,-48.63777448935996
-0.29169999999999996,-48.76509850634781
-0.29270000000000007,-48.84998118433972
-0.29369999999999996,-49.03389365332217
-0.2947000000000001,-49.076334992318124
-0.29569999999999996,-49.20365900930597
-0.2967000000000001,-49.24610034830193
-0.29769999999999996,-49.41586570428573
-0.2987000000000001,-49.557336834272235
-0.29969999999999997,-49.72710219025603
-0.3007000000000001,-49.89686754623985
-0.30169999999999997,-49.98175022423175
-0.3027000000000001,-50.20810403221015
-0.30369999999999997,-50.37786938819396
-0.3047000000000001,-50.547634744177756
-0.30569999999999997,-50.81642989115212
-0.3067000000000001,-50.98619524713592
-0.3077,-51.127666377122424
-0.3087000000000001,-51.33987307210218
-0.3097,-51.46719708909004
-0.3107000000000001,-51.65110955807249
-0.3117,-51.82087491405629
-0.3127000000000001,-51.90575759204819
-0.3137,-51.990640270040096
-0.3147000000000001,-52.17455273902255
-0.3157,-52.25943541701445
-0.3167000000000001,-52.471642111994214
-0.3177,-52.64140746797801
-0.3187000000000001,-52.74043725896857
-0.3197,-52.95264395394832
-0.3207000000000001,-53.12240930993213
-0.3217,-53.26388043991864
-0.3227000000000001,-53.56096981289029
-0.3237,-53.64585249088219
-0.3247000000000001,-53.82976495986464
-0.3257,-54.08441299384035
-0.3267000000000001,-54.16929567183226
-0.3277,-54.26832546282281
-0.3287000000000001,-54.52297349679851
-0.3297,-54.56541483579447
-0.3307000000000001,-54.73518019177827
-0.3317,-54.834209982768826
-0.3327000000000001,-54.876651321764776
-0.3337,-55.088858016744524
-0.3347000000000001,-55.31521182472294
-0.3357,-55.400094502714836
-0.3367000000000001,-55.527418519702685
-0.3377,-55.612301197694585
-0.3387000000000001,-55.838655005673
-0.3397,-55.96597902266086
-0.3407000000000001,-56.05086170065276
-0.3417,-56.22062705663656
-0.3427000000000001,-56.30550973462846
-0.3437,-56.44698086461496
-0.3447000000000001,-56.65918755959472
-0.3457,-56.70162889859067
-0.3467000000000001,-56.82895291557852
-0.3477,-57.012865384560975
-0.3487000000000001,-57.14018940154883
-0.3497,-57.26751341853669
-0.3507000000000001,-57.408984548523186
-0.3517,-57.493867226515086
-0.3527000000000001,-57.62119124350295
-0.3537,-57.7485152604908
-0.3547000000000001,-57.93242772947325
-0.3557,-58.017310407465146
-0.35670000000000013,-58.14463442445301
-0.3577,-58.31439978043681
-0.35870000000000013,-58.54075358841522
-0.3597,-58.66807760540307
-0.36070000000000013,-58.880284300382826
-0.3617,-59.06419676936528
-0.3626999999999999,-59.23396212534908
-0.3637,-59.54519861131939
-0.3646999999999999,-59.67252262830725
-0.3657,-59.7149639673032
-0.3666999999999999,-59.7998466452951
-0.3677,-59.884729323287
-0.3686999999999999,-60.02620045327351
-0.36970000000000003,-60.23840714825326
-0.3706999999999999,-60.32328982624517
-0.37170000000000003,-60.54964363422357
-0.3726999999999999,-60.63452631221547
-0.37370000000000003,-60.761850329203334
-0.3746999999999999,-60.80429166819927
-0.37570000000000003,-60.974057024183075
-0.3766999999999999,-61.20041083216149
-0.37770000000000004,-61.49750020513315
-0.3786999999999999,-61.63897133511965
-0.37970000000000004,-61.936060708091304
-0.3806999999999999,-62.16241451606972
-0.38170000000000004,-62.16241451606972
-0.38269999999999993,-62.459503889041365
-0.38370000000000004,-62.58682790602922
-0.38469999999999993,-62.68585769701977
-0.38570000000000004,-63.02538840898739
-0.38669999999999993,-62.41706255004542
-0.38570000000000004,-61.20041083216149
-0.38469999999999993,-60.11108313126541
-0.38370000000000004,-59.27640346434504
-0.38269999999999993,-58.583194927411164
-0.38170000000000004,-58.017310407465146
-0.3806999999999999,-57.22507207954074
-0.37970000000000004,-56.786511576582576
-0.3786999999999999,-56.13574437864466
-0.37770000000000004,-55.484977180706736
-0.3766999999999999,-55.088858016744524
-0.37570000000000003,-54.52297349679851
-0.3746999999999999,-53.999530315848446
-0.37370000000000003,-53.64585249088219
-0.3726999999999999,-53.079967970936174
-0.37170000000000003,-52.514083450990164
-0.3706999999999999,-52.033081609036046
-0.36970000000000003,-51.509638428085985
-0.3686999999999999,-51.028636586131874
-0.3677,-50.42031072718991
-0.3666999999999999,-49.81198486824794
-0.3657,-49.20365900930597
-0.3646999999999999,-48.63777448935996
-0.3637,-48.1992139864018
-0.3626999999999999,-47.80309482243959
-0.3617,-47.506005449467935
-0.36070000000000013,-47.10988628550572
-0.3597,-46.67132578254756
-0.35870000000000013,-46.37423640957591
-0.3577,-45.97811724561369
-0.35670000000000013,-45.70932209863933
-0.3557,-45.36979138667173
-0.3547000000000001,-44.88878954471762
-0.3537,-44.36534636376755
-0.3527000000000001,-43.61554937483908
-0.3517,-43.27601866287147
-0.3507000000000001,-42.96478217690117
-0.3497,-42.71013414292546
-0.3487000000000001,-42.31401497896325
-0.3477,-41.96033715399699
-0.3467000000000001,-41.606659329030734
-0.3457,-41.139804600075266
-0.3447000000000001,-40.743685436113054
-0.3437,-40.30512493315489
-0.3427000000000001,-39.78168175220483
-0.3417,-39.38556258824262
-0.3407000000000001,-38.90456074628851
-0.3397,-38.46600024333035
-0.3387000000000001,-37.94255706238028
-0.3377,-37.07958316946261
-0.3367000000000001,-36.5136986495166
-0.3357,-36.11757948555439
-0.3347000000000001,-35.99025546856653
-0.3337,-35.848784338580025
-0.3327000000000001,-35.636577643600276
-0.3317,-35.50925362661242
-0.3307000000000001,-35.240458479638065
-0.3297,-34.90092776767045
-0.3287000000000001,-34.5472499427042
-0.3277,-34.193572117737936
-0.3267000000000001,-33.81160006677438
-0.3257,-33.41548090281216
-0.3247000000000001,-33.01936173884996
-0.3237,-32.62324257488775
-0.3227000000000001,-32.283711862920136
-0.3217,-31.887592698957924
-0.3207000000000001,-31.618797551983565
-0.3197,-31.321708179011907
-0.3187000000000001,-31.052913032037555
-0.3177,-30.79826499806185
-0.3167000000000001,-30.487028512091538
-0.3157,-30.232380478115836
-0.3147000000000001,-29.878702653149578
-0.3137,-29.525024828183312
-0.3127000000000001,-29.18549411621571
-0.3117,-28.8742576302454
-0.3107000000000001,-28.478138466283188
-0.3097,-28.22349043230748
-0.3087000000000001,-27.912253946337174
-0.3077,-27.572723234369565
-0.3067000000000001,-27.303928087395207
-0.30569999999999997,-27.00683871442355
-0.3047000000000001,-26.61071955046134
-0.30369999999999997,-26.21460038649913
-0.3027000000000001,-25.86092256153287
-0.30169999999999997,-25.563833188561212
-0.3007000000000001,-25.210155363594954
-0.29969999999999997,-24.64427084364894
-0.2987000000000001,-24.120827662698876
-0.29769999999999996,-23.724708498736668
-0.2967000000000001,-23.427619125765005
-0.29569999999999996,-23.427619125765005
-0.2947000000000001,-23.342736447773106
-0.29369999999999996,-23.427619125765005
-0.29270000000000007,-23.300295108777156
-0.29169999999999996,-22.989058622806844
-0.29070000000000007,-22.42317410286083
-0.28969999999999996,-21.857289582914817
-0.28870000000000007,-21.149933932982297
-0.28769999999999996,-20.244518701068674
-0.28670000000000007,-20.10304757108217
-0.28569999999999995,-20.456725396048434
-0.28470000000000006,-20.626490752032236
-0.28369999999999995,-20.244518701068674
-0.28270000000000006,-19.97572355409432
-0.28169999999999995,-19.197632339168546
-0.28070000000000006,-18.88639585319824
-0.27969999999999995,-18.80151317520634
-0.27870000000000006,-18.589306480226583
-0.27769999999999995,-18.49027668923603
-0.27670000000000006,-18.15074597726842
-0.27569999999999995,-17.669744135314307
-0.27470000000000006,-17.316066310348052
-0.27369999999999994,-17.231183632356142
-0.27270000000000005,-16.877505807389888
-0.27169999999999994,-16.53797509542228
-0.27070000000000005,-16.269179948447924
-0.26969999999999994,-15.972090575476265
-0.26870000000000005,-15.74573676749786
-0.26769999999999994,-15.618412750510005
-0.26670000000000005,-15.264734925543747
-0.26569999999999994,-15.05252823056399
