Mar. 31, 2025   02:24:04
Cyclic Voltammetry
File: c:/users/guazh/data/banditlqround7_x0exp518_r20/2025-03-28-exp995\exp995-2025-03-31t02_11_50-arkoh\exp995_cv_sr_900mvs_efin_-1500mv.bin
Data Source:  Experiment
Instrument Model:  CHI760E
Header: CV ran at 900 mVs
Note: 

Init E (V) = -1
High E (V) = -1
Low E (V) = -1.5
Final E (V) = -1
Init P/N = N
Scan Rate (V/s) = 0.9
Segment = 3
Sample Interval (V) = 0.001
Quiet Time (sec) = 2
Sensitivity (A/V) = 0.01
Comp R (ohm) = 1.6

Results:

Channel 1:
Segment 1:

Segment 2:

Segment 3:

Potential/V, Current/A

-1.000, -8.000e-5
-1.001, 1.865e-5
-1.002, 1.050e-4
-1.003, 1.821e-4
-1.004, 2.561e-4
-1.005, 3.239e-4
-1.006, 3.886e-4
-1.007, 4.503e-4
-1.008, 5.058e-4
-1.009, 5.582e-4
-1.010, 6.075e-4
-1.011, 6.569e-4
-1.012, 7.031e-4
-1.013, 7.463e-4
-1.014, 7.894e-4
-1.015, 8.326e-4
-1.016, 8.727e-4
-1.017, 9.128e-4
-1.018, 9.528e-4
-1.019, 9.929e-4
-1.020, 1.030e-3
-1.021, 1.064e-3
-1.022, 1.101e-3
-1.023, 1.135e-3
-1.024, 1.172e-3
-1.025, 1.203e-3
-1.026, 1.233e-3
-1.027, 1.264e-3
-1.028, 1.295e-3
-1.029, 1.323e-3
-1.030, 1.354e-3
-1.031, 1.388e-3
-1.032, 1.418e-3
-1.033, 1.449e-3
-1.034, 1.480e-3
-1.035, 1.511e-3
-1.036, 1.545e-3
-1.037, 1.573e-3
-1.038, 1.603e-3
-1.039, 1.637e-3
-1.040, 1.665e-3
-1.041, 1.693e-3
-1.042, 1.721e-3
-1.043, 1.751e-3
-1.044, 1.782e-3
-1.045, 1.810e-3
-1.046, 1.841e-3
-1.047, 1.872e-3
-1.048, 1.902e-3
-1.049, 1.933e-3
-1.050, 1.961e-3
-1.051, 1.992e-3
-1.052, 2.020e-3
-1.053, 2.050e-3
-1.054, 2.078e-3
-1.055, 2.109e-3
-1.056, 2.140e-3
-1.057, 2.168e-3
-1.058, 2.198e-3
-1.059, 2.232e-3
-1.060, 2.266e-3
-1.061, 2.297e-3
-1.062, 2.334e-3
-1.063, 2.371e-3
-1.064, 2.405e-3
-1.065, 2.442e-3
-1.066, 2.482e-3
-1.067, 2.516e-3
-1.068, 2.553e-3
-1.069, 2.587e-3
-1.070, 2.621e-3
-1.071, 2.652e-3
-1.072, 2.682e-3
-1.073, 2.716e-3
-1.074, 2.750e-3
-1.075, 2.781e-3
-1.076, 2.818e-3
-1.077, 2.849e-3
-1.078, 2.886e-3
-1.079, 2.920e-3
-1.080, 2.957e-3
-1.081, 2.997e-3
-1.082, 3.031e-3
-1.083, 3.071e-3
-1.084, 3.108e-3
-1.085, 3.142e-3
-1.086, 3.179e-3
-1.087, 3.213e-3
-1.088, 3.247e-3
-1.089, 3.281e-3
-1.090, 3.314e-3
-1.091, 3.351e-3
-1.092, 3.382e-3
-1.093, 3.419e-3
-1.094, 3.453e-3
-1.095, 3.487e-3
-1.096, 3.521e-3
-1.097, 3.555e-3
-1.098, 3.586e-3
-1.099, 3.620e-3
-1.100, 3.651e-3
-1.101, 3.681e-3
-1.102, 3.712e-3
-1.103, 3.743e-3
-1.104, 3.774e-3
-1.105, 3.805e-3
-1.106, 3.836e-3
-1.107, 3.866e-3
-1.108, 3.900e-3
-1.109, 3.937e-3
-1.110, 3.968e-3
-1.111, 3.999e-3
-1.112, 4.027e-3
-1.113, 4.054e-3
-1.114, 4.082e-3
-1.115, 4.107e-3
-1.116, 4.135e-3
-1.117, 4.156e-3
-1.118, 4.178e-3
-1.119, 4.202e-3
-1.120, 4.224e-3
-1.121, 4.252e-3
-1.122, 4.276e-3
-1.123, 4.301e-3
-1.124, 4.329e-3
-1.125, 4.354e-3
-1.126, 4.378e-3
-1.127, 4.403e-3
-1.128, 4.428e-3
-1.129, 4.452e-3
-1.130, 4.471e-3
-1.131, 4.492e-3
-1.132, 4.511e-3
-1.133, 4.529e-3
-1.134, 4.548e-3
-1.135, 4.566e-3
-1.136, 4.582e-3
-1.137, 4.600e-3
-1.138, 4.612e-3
-1.139, 4.628e-3
-1.140, 4.640e-3
-1.141, 4.653e-3
-1.142, 4.668e-3
-1.143, 4.677e-3
-1.144, 4.690e-3
-1.145, 4.696e-3
-1.146, 4.705e-3
-1.147, 4.714e-3
-1.148, 4.723e-3
-1.149, 4.730e-3
-1.150, 4.739e-3
-1.151, 4.748e-3
-1.152, 4.757e-3
-1.153, 4.767e-3
-1.154, 4.773e-3
-1.155, 4.782e-3
-1.156, 4.788e-3
-1.157, 4.791e-3
-1.158, 4.791e-3
-1.159, 4.791e-3
-1.160, 4.785e-3
-1.161, 4.782e-3
-1.162, 4.773e-3
-1.163, 4.767e-3
-1.164, 4.757e-3
-1.165, 4.748e-3
-1.166, 4.733e-3
-1.167, 4.723e-3
-1.168, 4.708e-3
-1.169, 4.696e-3
-1.170, 4.680e-3
-1.171, 4.665e-3
-1.172, 4.649e-3
-1.173, 4.631e-3
-1.174, 4.609e-3
-1.175, 4.588e-3
-1.176, 4.566e-3
-1.177, 4.542e-3
-1.178, 4.517e-3
-1.179, 4.495e-3
-1.180, 4.471e-3
-1.181, 4.452e-3
-1.182, 4.434e-3
-1.183, 4.412e-3
-1.184, 4.397e-3
-1.185, 4.378e-3
-1.186, 4.360e-3
-1.187, 4.338e-3
-1.188, 4.317e-3
-1.189, 4.292e-3
-1.190, 4.267e-3
-1.191, 4.236e-3
-1.192, 4.202e-3
-1.193, 4.172e-3
-1.194, 4.135e-3
-1.195, 4.101e-3
-1.196, 4.067e-3
-1.197, 4.033e-3
-1.198, 3.996e-3
-1.199, 3.956e-3
-1.200, 3.919e-3
-1.201, 3.879e-3
-1.202, 3.839e-3
-1.203, 3.792e-3
-1.204, 3.749e-3
-1.205, 3.703e-3
-1.206, 3.654e-3
-1.207, 3.607e-3
-1.208, 3.558e-3
-1.209, 3.512e-3
-1.210, 3.462e-3
-1.211, 3.419e-3
-1.212, 3.373e-3
-1.213, 3.327e-3
-1.214, 3.281e-3
-1.215, 3.234e-3
-1.216, 3.191e-3
-1.217, 3.145e-3
-1.218, 3.099e-3
-1.219, 3.056e-3
-1.220, 3.009e-3
-1.221, 2.966e-3
-1.222, 2.923e-3
-1.223, 2.877e-3
-1.224, 2.834e-3
-1.225, 2.793e-3
-1.226, 2.756e-3
-1.227, 2.719e-3
-1.228, 2.682e-3
-1.229, 2.649e-3
-1.230, 2.615e-3
-1.231, 2.578e-3
-1.232, 2.541e-3
-1.233, 2.507e-3
-1.234, 2.470e-3
-1.235, 2.436e-3
-1.236, 2.402e-3
-1.237, 2.368e-3
-1.238, 2.334e-3
-1.239, 2.303e-3
-1.240, 2.272e-3
-1.241, 2.245e-3
-1.242, 2.217e-3
-1.243, 2.192e-3
-1.244, 2.164e-3
-1.245, 2.140e-3
-1.246, 2.115e-3
-1.247, 2.091e-3
-1.248, 2.066e-3
-1.249, 2.044e-3
-1.250, 2.020e-3
-1.251, 1.995e-3
-1.252, 1.973e-3
-1.253, 1.949e-3
-1.254, 1.927e-3
-1.255, 1.906e-3
-1.256, 1.887e-3
-1.257, 1.865e-3
-1.258, 1.847e-3
-1.259, 1.828e-3
-1.260, 1.810e-3
-1.261, 1.795e-3
-1.262, 1.776e-3
-1.263, 1.761e-3
-1.264, 1.745e-3
-1.265, 1.730e-3
-1.266, 1.714e-3
-1.267, 1.699e-3
-1.268, 1.687e-3
-1.269, 1.671e-3
-1.270, 1.659e-3
-1.271, 1.647e-3
-1.272, 1.634e-3
-1.273, 1.625e-3
-1.274, 1.613e-3
-1.275, 1.603e-3
-1.276, 1.594e-3
-1.277, 1.585e-3
-1.278, 1.573e-3
-1.279, 1.563e-3
-1.280, 1.554e-3
-1.281, 1.545e-3
-1.282, 1.536e-3
-1.283, 1.526e-3
-1.284, 1.520e-3
-1.285, 1.511e-3
-1.286, 1.505e-3
-1.287, 1.495e-3
-1.288, 1.489e-3
-1.289, 1.486e-3
-1.290, 1.480e-3
-1.291, 1.474e-3
-1.292, 1.468e-3
-1.293, 1.458e-3
-1.294, 1.452e-3
-1.295, 1.446e-3
-1.296, 1.437e-3
-1.297, 1.431e-3
-1.298, 1.425e-3
-1.299, 1.418e-3
-1.300, 1.412e-3
-1.301, 1.406e-3
-1.302, 1.403e-3
-1.303, 1.400e-3
-1.304, 1.397e-3
-1.305, 1.394e-3
-1.306, 1.388e-3
-1.307, 1.384e-3
-1.308, 1.381e-3
-1.309, 1.378e-3
-1.310, 1.372e-3
-1.311, 1.369e-3
-1.312, 1.363e-3
-1.313, 1.360e-3
-1.314, 1.357e-3
-1.315, 1.354e-3
-1.316, 1.351e-3
-1.317, 1.351e-3
-1.318, 1.351e-3
-1.319, 1.351e-3
-1.320, 1.347e-3
-1.321, 1.347e-3
-1.322, 1.344e-3
-1.323, 1.341e-3
-1.324, 1.338e-3
-1.325, 1.335e-3
-1.326, 1.329e-3
-1.327, 1.326e-3
-1.328, 1.323e-3
-1.329, 1.320e-3
-1.330, 1.320e-3
-1.331, 1.317e-3
-1.332, 1.317e-3
-1.333, 1.317e-3
-1.334, 1.320e-3
-1.335, 1.320e-3
-1.336, 1.320e-3
-1.337, 1.320e-3
-1.338, 1.320e-3
-1.339, 1.320e-3
-1.340, 1.323e-3
-1.341, 1.323e-3
-1.342, 1.323e-3
-1.343, 1.323e-3
-1.344, 1.323e-3
-1.345, 1.326e-3
-1.346, 1.326e-3
-1.347, 1.329e-3
-1.348, 1.332e-3
-1.349, 1.332e-3
-1.350, 1.338e-3
-1.351, 1.341e-3
-1.352, 1.341e-3
-1.353, 1.341e-3
-1.354, 1.344e-3
-1.355, 1.344e-3
-1.356, 1.344e-3
-1.357, 1.344e-3
-1.358, 1.344e-3
-1.359, 1.344e-3
-1.360, 1.347e-3
-1.361, 1.351e-3
-1.362, 1.354e-3
-1.363, 1.357e-3
-1.364, 1.360e-3
-1.365, 1.363e-3
-1.366, 1.366e-3
-1.367, 1.369e-3
-1.368, 1.375e-3
-1.369, 1.378e-3
-1.370, 1.381e-3
-1.371, 1.384e-3
-1.372, 1.388e-3
-1.373, 1.394e-3
-1.374, 1.397e-3
-1.375, 1.403e-3
-1.376, 1.409e-3
-1.377, 1.418e-3
-1.378, 1.425e-3
-1.379, 1.431e-3
-1.380, 1.440e-3
-1.381, 1.449e-3
-1.382, 1.458e-3
-1.383, 1.465e-3
-1.384, 1.471e-3
-1.385, 1.480e-3
-1.386, 1.486e-3
-1.387, 1.492e-3
-1.388, 1.499e-3
-1.389, 1.508e-3
-1.390, 1.517e-3
-1.391, 1.523e-3
-1.392, 1.532e-3
-1.393, 1.545e-3
-1.394, 1.551e-3
-1.395, 1.560e-3
-1.396, 1.573e-3
-1.397, 1.579e-3
-1.398, 1.588e-3
-1.399, 1.597e-3
-1.400, 1.603e-3
-1.401, 1.613e-3
-1.402, 1.616e-3
-1.403, 1.625e-3
-1.404, 1.634e-3
-1.405, 1.647e-3
-1.406, 1.656e-3
-1.407, 1.668e-3
-1.408, 1.680e-3
-1.409, 1.693e-3
-1.410, 1.705e-3
-1.411, 1.717e-3
-1.412, 1.730e-3
-1.413, 1.742e-3
-1.414, 1.751e-3
-1.415, 1.764e-3
-1.416, 1.773e-3
-1.417, 1.785e-3
-1.418, 1.798e-3
-1.419, 1.810e-3
-1.420, 1.822e-3
-1.421, 1.838e-3
-1.422, 1.853e-3
-1.423, 1.872e-3
-1.424, 1.887e-3
-1.425, 1.909e-3
-1.426, 1.924e-3
-1.427, 1.939e-3
-1.428, 1.958e-3
-1.429, 1.973e-3
-1.430, 1.992e-3
-1.431, 2.007e-3
-1.432, 2.023e-3
-1.433, 2.041e-3
-1.434, 2.057e-3
-1.435, 2.072e-3
-1.436, 2.091e-3
-1.437, 2.109e-3
-1.438, 2.128e-3
-1.439, 2.146e-3
-1.440, 2.164e-3
-1.441, 2.183e-3
-1.442, 2.198e-3
-1.443, 2.217e-3
-1.444, 2.238e-3
-1.445, 2.257e-3
-1.446, 2.275e-3
-1.447, 2.294e-3
-1.448, 2.312e-3
-1.449, 2.328e-3
-1.450, 2.346e-3
-1.451, 2.365e-3
-1.452, 2.386e-3
-1.453, 2.408e-3
-1.454, 2.430e-3
-1.455, 2.451e-3
-1.456, 2.473e-3
-1.457, 2.497e-3
-1.458, 2.519e-3
-1.459, 2.544e-3
-1.460, 2.565e-3
-1.461, 2.587e-3
-1.462, 2.608e-3
-1.463, 2.630e-3
-1.464, 2.655e-3
-1.465, 2.679e-3
-1.466, 2.707e-3
-1.467, 2.732e-3
-1.468, 2.763e-3
-1.469, 2.787e-3
-1.470, 2.815e-3
-1.471, 2.843e-3
-1.472, 2.871e-3
-1.473, 2.895e-3
-1.474, 2.923e-3
-1.475, 2.951e-3
-1.476, 2.978e-3
-1.477, 3.006e-3
-1.478, 3.034e-3
-1.479, 3.062e-3
-1.480, 3.093e-3
-1.481, 3.123e-3
-1.482, 3.154e-3
-1.483, 3.188e-3
-1.484, 3.222e-3
-1.485, 3.259e-3
-1.486, 3.293e-3
-1.487, 3.327e-3
-1.488, 3.364e-3
-1.489, 3.401e-3
-1.490, 3.435e-3
-1.491, 3.472e-3
-1.492, 3.509e-3
-1.493, 3.546e-3
-1.494, 3.586e-3
-1.495, 3.623e-3
-1.496, 3.663e-3
-1.497, 3.703e-3
-1.498, 3.743e-3
-1.499, 3.786e-3
-1.500, 3.755e-3
-1.499, 3.614e-3
-1.498, 3.499e-3
-1.497, 3.404e-3
-1.496, 3.321e-3
-1.495, 3.247e-3
-1.494, 3.179e-3
-1.493, 3.117e-3
-1.492, 3.059e-3
-1.491, 3.003e-3
-1.490, 2.951e-3
-1.489, 2.901e-3
-1.488, 2.858e-3
-1.487, 2.812e-3
-1.486, 2.769e-3
-1.485, 2.726e-3
-1.484, 2.682e-3
-1.483, 2.639e-3
-1.482, 2.599e-3
-1.481, 2.556e-3
-1.480, 2.513e-3
-1.479, 2.473e-3
-1.478, 2.433e-3
-1.477, 2.393e-3
-1.476, 2.353e-3
-1.475, 2.312e-3
-1.474, 2.275e-3
-1.473, 2.242e-3
-1.472, 2.208e-3
-1.471, 2.171e-3
-1.470, 2.137e-3
-1.469, 2.103e-3
-1.468, 2.069e-3
-1.467, 2.038e-3
-1.466, 2.004e-3
-1.465, 1.973e-3
-1.464, 1.939e-3
-1.463, 1.906e-3
-1.462, 1.875e-3
-1.461, 1.844e-3
-1.460, 1.810e-3
-1.459, 1.782e-3
-1.458, 1.751e-3
-1.457, 1.724e-3
-1.456, 1.693e-3
-1.455, 1.665e-3
-1.454, 1.634e-3
-1.453, 1.606e-3
-1.452, 1.576e-3
-1.451, 1.548e-3
-1.450, 1.517e-3
-1.449, 1.486e-3
-1.448, 1.458e-3
-1.447, 1.428e-3
-1.446, 1.400e-3
-1.445, 1.372e-3
-1.444, 1.344e-3
-1.443, 1.320e-3
-1.442, 1.292e-3
-1.441, 1.264e-3
-1.440, 1.236e-3
-1.439, 1.212e-3
-1.438, 1.184e-3
-1.437, 1.159e-3
-1.436, 1.129e-3
-1.435, 1.101e-3
-1.434, 1.073e-3
-1.433, 1.045e-3
-1.432, 1.021e-3
-1.431, 9.929e-4
-1.430, 9.683e-4
-1.429, 9.436e-4
-1.428, 9.189e-4
-1.427, 8.943e-4
-1.426, 8.696e-4
-1.425, 8.480e-4
-1.424, 8.233e-4
-1.423, 7.987e-4
-1.422, 7.740e-4
-1.421, 7.494e-4
-1.420, 7.247e-4
-1.419, 7.000e-4
-1.418, 6.754e-4
-1.417, 6.507e-4
-1.416, 6.291e-4
-1.415, 6.075e-4
-1.414, 5.859e-4
-1.413, 5.644e-4
-1.412, 5.428e-4
-1.411, 5.212e-4
-1.410, 5.027e-4
-1.409, 4.811e-4
-1.408, 4.626e-4
-1.407, 4.410e-4
-1.406, 4.195e-4
-1.405, 4.010e-4
-1.404, 3.794e-4
-1.403, 3.578e-4
-1.402, 3.393e-4
-1.401, 3.177e-4
-1.400, 3.023e-4
-1.399, 2.838e-4
-1.398, 2.653e-4
-1.397, 2.499e-4
-1.396, 2.345e-4
-1.395, 2.160e-4
-1.394, 2.006e-4
-1.393, 1.851e-4
-1.392, 1.697e-4
-1.391, 1.512e-4
-1.390, 1.358e-4
-1.389, 1.204e-4
-1.388, 1.019e-4
-1.387, 8.648e-5
-1.386, 7.107e-5
-1.385, 5.565e-5
-1.384, 4.332e-5
-1.383, 2.790e-5
-1.382, 1.249e-5
-1.381, 3.239e-6
-1.380, -9.093e-6
-1.379, -2.143e-5
-1.378, -3.376e-5
-1.377, -4.609e-5
-1.376, -5.842e-5
-1.375, -7.384e-5
-1.374, -8.617e-5
-1.373, -9.850e-5
-1.372, -1.108e-4
-1.371, -1.201e-4
-1.370, -1.324e-4
-1.369, -1.417e-4
-1.368, -1.540e-4
-1.367, -1.602e-4
-1.366, -1.694e-4
-1.365, -1.787e-4
-1.364, -1.879e-4
-1.363, -1.972e-4
-1.362, -2.064e-4
-1.361, -2.157e-4
-1.360, -2.249e-4
-1.359, -2.342e-4
-1.358, -2.434e-4
-1.357, -2.527e-4
-1.356, -2.619e-4
-1.355, -2.712e-4
-1.354, -2.773e-4
-1.353, -2.835e-4
-1.352, -2.897e-4
-1.351, -2.958e-4
-1.350, -3.020e-4
-1.349, -3.082e-4
-1.348, -3.143e-4
-1.347, -3.205e-4
-1.346, -3.297e-4
-1.345, -3.359e-4
-1.344, -3.421e-4
-1.343, -3.482e-4
-1.342, -3.544e-4
-1.341, -3.606e-4
-1.340, -3.667e-4
-1.339, -3.729e-4
-1.338, -3.760e-4
-1.337, -3.791e-4
-1.336, -3.821e-4
-1.335, -3.883e-4
-1.334, -3.914e-4
-1.333, -3.945e-4
-1.332, -4.006e-4
-1.331, -4.068e-4
-1.330, -4.130e-4
-1.329, -4.161e-4
-1.328, -4.222e-4
-1.327, -4.253e-4
-1.326, -4.315e-4
-1.325, -4.376e-4
-1.324, -4.407e-4
-1.323, -4.438e-4
-1.322, -4.469e-4
-1.321, -4.500e-4
-1.320, -4.500e-4
-1.319, -4.531e-4
-1.318, -4.561e-4
-1.317, -4.592e-4
-1.316, -4.654e-4
-1.315, -4.685e-4
-1.314, -4.716e-4
-1.313, -4.746e-4
-1.312, -4.777e-4
-1.311, -4.839e-4
-1.310, -4.870e-4
-1.309, -4.901e-4
-1.308, -4.901e-4
-1.307, -4.931e-4
-1.306, -4.962e-4
-1.305, -4.962e-4
-1.304, -4.993e-4
-1.303, -5.024e-4
-1.302, -5.055e-4
-1.301, -5.086e-4
-1.300, -5.116e-4
-1.299, -5.147e-4
-1.298, -5.178e-4
-1.297, -5.209e-4
-1.296, -5.240e-4
-1.295, -5.271e-4
-1.294, -5.271e-4
-1.293, -5.301e-4
-1.292, -5.301e-4
-1.291, -5.301e-4
-1.290, -5.301e-4
-1.289, -5.332e-4
-1.288, -5.332e-4
-1.287, -5.363e-4
-1.286, -5.394e-4
-1.285, -5.425e-4
-1.284, -5.486e-4
-1.283, -5.517e-4
-1.282, -5.548e-4
-1.281, -5.579e-4
-1.280, -5.610e-4
-1.279, -5.641e-4
-1.278, -5.641e-4
-1.277, -5.641e-4
-1.276, -5.671e-4
-1.275, -5.671e-4
-1.274, -5.671e-4
-1.273, -5.702e-4
-1.272, -5.733e-4
-1.271, -5.733e-4
-1.270, -5.764e-4
-1.269, -5.795e-4
-1.268, -5.826e-4
-1.267, -5.826e-4
-1.266, -5.856e-4
-1.265, -5.887e-4
-1.264, -5.887e-4
-1.263, -5.887e-4
-1.262, -5.918e-4
-1.261, -5.918e-4
-1.260, -5.918e-4
-1.259, -5.949e-4
-1.258, -5.980e-4
-1.257, -5.980e-4
-1.256, -6.011e-4
-1.255, -6.041e-4
-1.254, -6.072e-4
-1.253, -6.103e-4
-1.252, -6.103e-4
-1.251, -6.134e-4
-1.250, -6.165e-4
-1.249, -6.195e-4
-1.248, -6.195e-4
-1.247, -6.195e-4
-1.246, -6.226e-4
-1.245, -6.195e-4
-1.244, -6.226e-4
-1.243, -6.226e-4
-1.242, -6.257e-4
-1.241, -6.288e-4
-1.240, -6.319e-4
-1.239, -6.350e-4
-1.238, -6.380e-4
-1.237, -6.411e-4
-1.236, -6.442e-4
-1.235, -6.473e-4
-1.234, -6.504e-4
-1.233, -6.535e-4
-1.232, -6.535e-4
-1.231, -6.565e-4
-1.230, -6.596e-4
-1.229, -6.627e-4
-1.228, -6.658e-4
-1.227, -6.689e-4
-1.226, -6.720e-4
-1.225, -6.750e-4
-1.224, -6.781e-4
-1.223, -6.812e-4
-1.222, -6.843e-4
-1.221, -6.905e-4
-1.220, -6.935e-4
-1.219, -6.935e-4
-1.218, -6.935e-4
-1.217, -6.935e-4
-1.216, -6.935e-4
-1.215, -6.935e-4
-1.214, -6.935e-4
-1.213, -6.966e-4
-1.212, -6.997e-4
-1.211, -6.997e-4
-1.210, -7.059e-4
-1.209, -7.120e-4
-1.208, -7.151e-4
-1.207, -7.213e-4
-1.206, -7.244e-4
-1.205, -7.305e-4
-1.204, -7.336e-4
-1.203, -7.367e-4
-1.202, -7.398e-4
-1.201, -7.398e-4
-1.200, -7.429e-4
-1.199, -7.429e-4
-1.198, -7.460e-4
-1.197, -7.490e-4
-1.196, -7.521e-4
-1.195, -7.552e-4
-1.194, -7.583e-4
-1.193, -7.645e-4
-1.192, -7.675e-4
-1.191, -7.706e-4
-1.190, -7.737e-4
-1.189, -7.768e-4
-1.188, -7.799e-4
-1.187, -7.830e-4
-1.186, -7.860e-4
-1.185, -7.891e-4
-1.184, -7.891e-4
-1.183, -7.922e-4
-1.182, -7.953e-4
-1.181, -8.015e-4
-1.180, -8.045e-4
-1.179, -8.107e-4
-1.178, -8.169e-4
-1.177, -8.230e-4
-1.176, -8.261e-4
-1.175, -8.323e-4
-1.174, -8.354e-4
-1.173, -8.385e-4
-1.172, -8.415e-4
-1.171, -8.446e-4
-1.170, -8.477e-4
-1.169, -8.508e-4
-1.168, -8.508e-4
-1.167, -8.569e-4
-1.166, -8.600e-4
-1.165, -8.662e-4
-1.164, -8.724e-4
-1.163, -8.785e-4
-1.162, -8.847e-4
-1.161, -8.909e-4
-1.160, -8.970e-4
-1.159, -9.032e-4
-1.158, -9.094e-4
-1.157, -9.124e-4
-1.156, -9.186e-4
-1.155, -9.217e-4
-1.154, -9.248e-4
-1.153, -9.309e-4
-1.152, -9.340e-4
-1.151, -9.402e-4
-1.150, -9.433e-4
-1.149, -9.494e-4
-1.148, -9.556e-4
-1.147, -9.618e-4
-1.146, -9.649e-4
-1.145, -9.710e-4
-1.144, -9.741e-4
-1.143, -9.803e-4
-1.142, -9.834e-4
-1.141, -9.864e-4
-1.140, -9.895e-4
-1.139, -9.957e-4
-1.138, -9.988e-4
-1.137, -1.005e-3
-1.136, -1.011e-3
-1.135, -1.014e-3
-1.134, -1.020e-3
-1.133, -1.027e-3
-1.132, -1.033e-3
-1.131, -1.039e-3
-1.130, -1.045e-3
-1.129, -1.051e-3
-1.128, -1.054e-3
-1.127, -1.060e-3
-1.126, -1.067e-3
-1.125, -1.073e-3
-1.124, -1.079e-3
-1.123, -1.085e-3
-1.122, -1.094e-3
-1.121, -1.104e-3
-1.120, -1.113e-3
-1.119, -1.122e-3
-1.118, -1.131e-3
-1.117, -1.141e-3
-1.116, -1.150e-3
-1.115, -1.156e-3
-1.114, -1.165e-3
-1.113, -1.171e-3
-1.112, -1.178e-3
-1.111, -1.184e-3
-1.110, -1.193e-3
-1.109, -1.196e-3
-1.108, -1.205e-3
-1.107, -1.212e-3
-1.106, -1.218e-3
-1.105, -1.227e-3
-1.104, -1.236e-3
-1.103, -1.242e-3
-1.102, -1.252e-3
-1.101, -1.261e-3
-1.100, -1.270e-3
-1.099, -1.279e-3
-1.098, -1.286e-3
-1.097, -1.295e-3
-1.096, -1.301e-3
-1.095, -1.310e-3
-1.094, -1.316e-3
-1.093, -1.322e-3
-1.092, -1.332e-3
-1.091, -1.338e-3
-1.090, -1.350e-3
-1.089, -1.359e-3
-1.088, -1.369e-3
-1.087, -1.378e-3
-1.086, -1.387e-3
-1.085, -1.396e-3
-1.084, -1.409e-3
-1.083, -1.418e-3
-1.082, -1.427e-3
-1.081, -1.440e-3
-1.080, -1.449e-3
-1.079, -1.461e-3
-1.078, -1.474e-3
-1.077, -1.486e-3
-1.076, -1.498e-3
-1.075, -1.514e-3
-1.074, -1.526e-3
-1.073, -1.541e-3
-1.072, -1.554e-3
-1.071, -1.569e-3
-1.070, -1.581e-3
-1.069, -1.597e-3
-1.068, -1.609e-3
-1.067, -1.618e-3
-1.066, -1.634e-3
-1.065, -1.646e-3
-1.064, -1.662e-3
-1.063, -1.674e-3
-1.062, -1.692e-3
-1.061, -1.708e-3
-1.060, -1.723e-3
-1.059, -1.739e-3
-1.058, -1.757e-3
-1.057, -1.773e-3
-1.056, -1.788e-3
-1.055, -1.807e-3
-1.054, -1.822e-3
-1.053, -1.837e-3
-1.052, -1.853e-3
-1.051, -1.865e-3
-1.050, -1.881e-3
-1.049, -1.896e-3
-1.048, -1.908e-3
-1.047, -1.927e-3
-1.046, -1.942e-3
-1.045, -1.958e-3
-1.044, -1.973e-3
-1.043, -1.992e-3
-1.042, -2.010e-3
-1.041, -2.029e-3
-1.040, -2.047e-3
-1.039, -2.062e-3
-1.038, -2.081e-3
-1.037, -2.099e-3
-1.036, -2.118e-3
-1.035, -2.136e-3
-1.034, -2.155e-3
-1.033, -2.177e-3
-1.032, -2.201e-3
-1.031, -2.223e-3
-1.030, -2.247e-3
-1.029, -2.272e-3
-1.028, -2.297e-3
-1.027, -2.325e-3
-1.026, -2.349e-3
-1.025, -2.374e-3
-1.024, -2.395e-3
-1.023, -2.420e-3
-1.022, -2.442e-3
-1.021, -2.466e-3
-1.020, -2.491e-3
-1.019, -2.516e-3
-1.018, -2.540e-3
-1.017, -2.568e-3
-1.016, -2.593e-3
-1.015, -2.620e-3
-1.014, -2.648e-3
-1.013, -2.676e-3
-1.012, -2.704e-3
-1.011, -2.731e-3
-1.010, -2.756e-3
-1.009, -2.784e-3
-1.008, -2.809e-3
-1.007, -2.836e-3
-1.006, -2.861e-3
-1.005, -2.886e-3
-1.004, -2.913e-3
-1.003, -2.941e-3
-1.002, -2.969e-3
-1.001, -3.000e-3
