Jan. 12, 2025   14:54:21
Cyclic Voltammetry
File: c:/users/guazh/data/banditlqround7_x0exp772_r5/2025-01-10-exp824\exp824-2025-01-12t14_32_38-h2koh\exp824_cv_sr_800mvs_efin_-1900mv.bin
Data Source:  Experiment
Instrument Model:  CHI760E
Header: CV ran at 800 mVs
Note: 

Init E (V) = -1
High E (V) = -1
Low E (V) = -1.9
Final E (V) = -1
Init P/N = N
Scan Rate (V/s) = 0.8
Segment = 3
Sample Interval (V) = 0.001
Quiet Time (sec) = 2
Sensitivity (A/V) = 0.01
Comp R (ohm) = 1.4

Results:

Channel 1:
Segment 1:

Segment 2:

Segment 3:

Potential/V, Current/A

-1.000, 3.239e-6
-1.001, 3.239e-6
-1.002, 3.239e-6
-1.003, 3.239e-6
-1.004, 3.239e-6
-1.005, 3.239e-6
-1.006, 3.239e-6
-1.007, 3.239e-6
-1.008, 3.239e-6
-1.009, 3.239e-6
-1.010, 3.239e-6
-1.011, 3.239e-6
-1.012, 3.239e-6
-1.013, 3.239e-6
-1.014, 3.239e-6
-1.015, 3.239e-6
-1.016, 3.239e-6
-1.017, 3.239e-6
-1.018, 3.239e-6
-1.019, 6.322e-6
-1.020, 3.239e-6
-1.021, 3.239e-6
-1.022, 3.239e-6
-1.023, 3.239e-6
-1.024, 3.239e-6
-1.025, 3.239e-6
-1.026, 3.239e-6
-1.027, 3.239e-6
-1.028, 3.239e-6
-1.029, 6.322e-6
-1.030, 3.239e-6
-1.031, 3.239e-6
-1.032, 3.239e-6
-1.033, 6.322e-6
-1.034, 3.239e-6
-1.035, 3.239e-6
-1.036, 3.239e-6
-1.037, 3.239e-6
-1.038, 3.239e-6
-1.039, 6.322e-6
-1.040, 3.239e-6
-1.041, 6.322e-6
-1.042, 3.239e-6
-1.043, 6.322e-6
-1.044, 6.322e-6
-1.045, 6.322e-6
-1.046, 3.239e-6
-1.047, 3.239e-6
-1.048, 6.322e-6
-1.049, 6.322e-6
-1.050, 6.322e-6
-1.051, 3.239e-6
-1.052, 6.322e-6
-1.053, 3.239e-6
-1.054, 6.322e-6
-1.055, 6.322e-6
-1.056, 6.322e-6
-1.057, 6.322e-6
-1.058, 6.322e-6
-1.059, 6.322e-6
-1.060, 6.322e-6
-1.061, 3.239e-6
-1.062, 6.322e-6
-1.063, 6.322e-6
-1.064, 6.322e-6
-1.065, 3.239e-6
-1.066, 6.322e-6
-1.067, 6.322e-6
-1.068, 6.322e-6
-1.069, 6.322e-6
-1.070, 6.322e-6
-1.071, 6.322e-6
-1.072, 6.322e-6
-1.073, 6.322e-6
-1.074, 6.322e-6
-1.075, 6.322e-6
-1.076, 6.322e-6
-1.077, 6.322e-6
-1.078, 6.322e-6
-1.079, 6.322e-6
-1.080, 6.322e-6
-1.081, 6.322e-6
-1.082, 6.322e-6
-1.083, 6.322e-6
-1.084, 6.322e-6
-1.085, 6.322e-6
-1.086, 6.322e-6
-1.087, 6.322e-6
-1.088, 6.322e-6
-1.089, 6.322e-6
-1.090, 6.322e-6
-1.091, 6.322e-6
-1.092, 6.322e-6
-1.093, 6.322e-6
-1.094, 6.322e-6
-1.095, 6.322e-6
-1.096, 6.322e-6
-1.097, 6.322e-6
-1.098, 6.322e-6
-1.099, 6.322e-6
-1.100, 6.322e-6
-1.101, 6.322e-6
-1.102, 6.322e-6
-1.103, 6.322e-6
-1.104, 6.322e-6
-1.105, 6.322e-6
-1.106, 6.322e-6
-1.107, 6.322e-6
-1.108, 6.322e-6
-1.109, 6.322e-6
-1.110, 6.322e-6
-1.111, 6.322e-6
-1.112, 6.322e-6
-1.113, 6.322e-6
-1.114, 6.322e-6
-1.115, 6.322e-6
-1.116, 6.322e-6
-1.117, 6.322e-6
-1.118, 6.322e-6
-1.119, 6.322e-6
-1.120, 6.322e-6
-1.121, 6.322e-6
-1.122, 6.322e-6
-1.123, 6.322e-6
-1.124, 6.322e-6
-1.125, 6.322e-6
-1.126, 6.322e-6
-1.127, 9.405e-6
-1.128, 6.322e-6
-1.129, 6.322e-6
-1.130, 6.322e-6
-1.131, 9.405e-6
-1.132, 6.322e-6
-1.133, 6.322e-6
-1.134, 6.322e-6
-1.135, 6.322e-6
-1.136, 6.322e-6
-1.137, 9.405e-6
-1.138, 6.322e-6
-1.139, 6.322e-6
-1.140, 6.322e-6
-1.141, 6.322e-6
-1.142, 6.322e-6
-1.143, 6.322e-6
-1.144, 6.322e-6
-1.145, 6.322e-6
-1.146, 6.322e-6
-1.147, 9.405e-6
-1.148, 6.322e-6
-1.149, 6.322e-6
-1.150, 6.322e-6
-1.151, 6.322e-6
-1.152, 9.405e-6
-1.153, 6.322e-6
-1.154, 6.322e-6
-1.155, 6.322e-6
-1.156, 9.405e-6
-1.157, 6.322e-6
-1.158, 6.322e-6
-1.159, 6.322e-6
-1.160, 9.405e-6
-1.161, 9.405e-6
-1.162, 9.405e-6
-1.163, 6.322e-6
-1.164, 9.405e-6
-1.165, 6.322e-6
-1.166, 9.405e-6
-1.167, 6.322e-6
-1.168, 6.322e-6
-1.169, 9.405e-6
-1.170, 9.405e-6
-1.171, 9.405e-6
-1.172, 6.322e-6
-1.173, 9.405e-6
-1.174, 6.322e-6
-1.175, 9.405e-6
-1.176, 9.405e-6
-1.177, 6.322e-6
-1.178, 6.322e-6
-1.179, 9.405e-6
-1.180, 9.405e-6
-1.181, 9.405e-6
-1.182, 9.405e-6
-1.183, 9.405e-6
-1.184, 6.322e-6
-1.185, 9.405e-6
-1.186, 9.405e-6
-1.187, 9.405e-6
-1.188, 9.405e-6
-1.189, 9.405e-6
-1.190, 9.405e-6
-1.191, 9.405e-6
-1.192, 6.322e-6
-1.193, 9.405e-6
-1.194, 9.405e-6
-1.195, 9.405e-6
-1.196, 9.405e-6
-1.197, 6.322e-6
-1.198, 9.405e-6
-1.199, 9.405e-6
-1.200, 9.405e-6
-1.201, 6.322e-6
-1.202, 9.405e-6
-1.203, 9.405e-6
-1.204, 9.405e-6
-1.205, 9.405e-6
-1.206, 9.405e-6
-1.207, 9.405e-6
-1.208, 9.405e-6
-1.209, 9.405e-6
-1.210, 9.405e-6
-1.211, 9.405e-6
-1.212, 9.405e-6
-1.213, 9.405e-6
-1.214, 9.405e-6
-1.215, 9.405e-6
-1.216, 9.405e-6
-1.217, 9.405e-6
-1.218, 9.405e-6
-1.219, 9.405e-6
-1.220, 9.405e-6
-1.221, 9.405e-6
-1.222, 9.405e-6
-1.223, 9.405e-6
-1.224, 9.405e-6
-1.225, 9.405e-6
-1.226, 9.405e-6
-1.227, 9.405e-6
-1.228, 9.405e-6
-1.229, 1.249e-5
-1.230, 9.405e-6
-1.231, 9.405e-6
-1.232, 9.405e-6
-1.233, 9.405e-6
-1.234, 9.405e-6
-1.235, 9.405e-6
-1.236, 9.405e-6
-1.237, 9.405e-6
-1.238, 9.405e-6
-1.239, 9.405e-6
-1.240, 9.405e-6
-1.241, 9.405e-6
-1.242, 9.405e-6
-1.243, 9.405e-6
-1.244, 1.249e-5
-1.245, 9.405e-6
-1.246, 9.405e-6
-1.247, 9.405e-6
-1.248, 9.405e-6
-1.249, 9.405e-6
-1.250, 9.405e-6
-1.251, 9.405e-6
-1.252, 9.405e-6
-1.253, 9.405e-6
-1.254, 1.249e-5
-1.255, 9.405e-6
-1.256, 9.405e-6
-1.257, 9.405e-6
-1.258, 9.405e-6
-1.259, 9.405e-6
-1.260, 9.405e-6
-1.261, 9.405e-6
-1.262, 9.405e-6
-1.263, 9.405e-6
-1.264, 9.405e-6
-1.265, 9.405e-6
-1.266, 9.405e-6
-1.267, 9.405e-6
-1.268, 9.405e-6
-1.269, 1.249e-5
-1.270, 9.405e-6
-1.271, 9.405e-6
-1.272, 9.405e-6
-1.273, 1.249e-5
-1.274, 9.405e-6
-1.275, 9.405e-6
-1.276, 9.405e-6
-1.277, 1.249e-5
-1.278, 9.405e-6
-1.279, 1.249e-5
-1.280, 1.249e-5
-1.281, 1.249e-5
-1.282, 1.249e-5
-1.283, 1.249e-5
-1.284, 1.249e-5
-1.285, 9.405e-6
-1.286, 1.249e-5
-1.287, 9.405e-6
-1.288, 1.249e-5
-1.289, 1.249e-5
-1.290, 9.405e-6
-1.291, 9.405e-6
-1.292, 1.249e-5
-1.293, 1.249e-5
-1.294, 1.249e-5
-1.295, 1.249e-5
-1.296, 1.249e-5
-1.297, 1.249e-5
-1.298, 1.249e-5
-1.299, 1.249e-5
-1.300, 1.249e-5
-1.301, 1.249e-5
-1.302, 1.249e-5
-1.303, 1.249e-5
-1.304, 1.249e-5
-1.305, 1.249e-5
-1.306, 1.249e-5
-1.307, 1.249e-5
-1.308, 1.249e-5
-1.309, 1.249e-5
-1.310, 9.405e-6
-1.311, 1.249e-5
-1.312, 1.249e-5
-1.313, 1.249e-5
-1.314, 1.249e-5
-1.315, 1.249e-5
-1.316, 1.249e-5
-1.317, 1.249e-5
-1.318, 1.249e-5
-1.319, 1.249e-5
-1.320, 1.249e-5
-1.321, 1.249e-5
-1.322, 1.249e-5
-1.323, 1.249e-5
-1.324, 9.405e-6
-1.325, 1.249e-5
-1.326, 1.249e-5
-1.327, 1.249e-5
-1.328, 1.249e-5
-1.329, 1.249e-5
-1.330, 1.249e-5
-1.331, 1.249e-5
-1.332, 1.249e-5
-1.333, 1.249e-5
-1.334, 1.249e-5
-1.335, 1.249e-5
-1.336, 1.557e-5
-1.337, 1.249e-5
-1.338, 1.249e-5
-1.339, 1.249e-5
-1.340, 9.405e-6
-1.341, 1.249e-5
-1.342, 1.249e-5
-1.343, 1.249e-5
-1.344, 1.249e-5
-1.345, 1.249e-5
-1.346, 1.249e-5
-1.347, 1.249e-5
-1.348, 1.249e-5
-1.349, 1.249e-5
-1.350, 1.249e-5
-1.351, 1.249e-5
-1.352, 1.249e-5
-1.353, 1.249e-5
-1.354, 1.249e-5
-1.355, 1.249e-5
-1.356, 1.557e-5
-1.357, 1.249e-5
-1.358, 1.249e-5
-1.359, 1.249e-5
-1.360, 1.249e-5
-1.361, 1.557e-5
-1.362, 1.249e-5
-1.363, 1.249e-5
-1.364, 1.249e-5
-1.365, 1.557e-5
-1.366, 1.557e-5
-1.367, 1.249e-5
-1.368, 1.249e-5
-1.369, 1.557e-5
-1.370, 1.557e-5
-1.371, 1.557e-5
-1.372, 1.249e-5
-1.373, 1.249e-5
-1.374, 1.249e-5
-1.375, 1.557e-5
-1.376, 1.557e-5
-1.377, 1.249e-5
-1.378, 1.249e-5
-1.379, 1.249e-5
-1.380, 1.249e-5
-1.381, 1.557e-5
-1.382, 1.557e-5
-1.383, 1.249e-5
-1.384, 1.557e-5
-1.385, 1.249e-5
-1.386, 1.557e-5
-1.387, 1.557e-5
-1.388, 1.557e-5
-1.389, 1.557e-5
-1.390, 1.557e-5
-1.391, 1.557e-5
-1.392, 1.557e-5
-1.393, 1.249e-5
-1.394, 1.557e-5
-1.395, 1.557e-5
-1.396, 1.557e-5
-1.397, 1.557e-5
-1.398, 1.557e-5
-1.399, 1.249e-5
-1.400, 1.557e-5
-1.401, 1.557e-5
-1.402, 1.557e-5
-1.403, 1.557e-5
-1.404, 1.249e-5
-1.405, 1.557e-5
-1.406, 1.557e-5
-1.407, 1.557e-5
-1.408, 1.557e-5
-1.409, 1.557e-5
-1.410, 1.557e-5
-1.411, 1.557e-5
-1.412, 1.249e-5
-1.413, 1.557e-5
-1.414, 1.557e-5
-1.415, 1.557e-5
-1.416, 1.557e-5
-1.417, 1.557e-5
-1.418, 1.557e-5
-1.419, 1.557e-5
-1.420, 1.557e-5
-1.421, 1.557e-5
-1.422, 1.557e-5
-1.423, 1.557e-5
-1.424, 1.865e-5
-1.425, 1.557e-5
-1.426, 1.557e-5
-1.427, 1.557e-5
-1.428, 1.557e-5
-1.429, 1.557e-5
-1.430, 1.557e-5
-1.431, 1.557e-5
-1.432, 1.557e-5
-1.433, 1.557e-5
-1.434, 1.557e-5
-1.435, 1.557e-5
-1.436, 1.557e-5
-1.437, 1.557e-5
-1.438, 1.557e-5
-1.439, 1.557e-5
-1.440, 1.865e-5
-1.441, 1.557e-5
-1.442, 1.557e-5
-1.443, 1.557e-5
-1.444, 1.557e-5
-1.445, 1.865e-5
-1.446, 1.557e-5
-1.447, 1.557e-5
-1.448, 1.557e-5
-1.449, 1.865e-5
-1.450, 1.557e-5
-1.451, 1.557e-5
-1.452, 1.557e-5
-1.453, 1.557e-5
-1.454, 1.557e-5
-1.455, 1.865e-5
-1.456, 1.557e-5
-1.457, 1.557e-5
-1.458, 1.557e-5
-1.459, 1.865e-5
-1.460, 1.865e-5
-1.461, 1.865e-5
-1.462, 1.557e-5
-1.463, 1.557e-5
-1.464, 1.865e-5
-1.465, 1.557e-5
-1.466, 1.557e-5
-1.467, 1.865e-5
-1.468, 1.865e-5
-1.469, 1.865e-5
-1.470, 1.557e-5
-1.471, 1.557e-5
-1.472, 1.557e-5
-1.473, 1.865e-5
-1.474, 1.865e-5
-1.475, 1.557e-5
-1.476, 1.865e-5
-1.477, 1.557e-5
-1.478, 1.865e-5
-1.479, 1.557e-5
-1.480, 1.865e-5
-1.481, 1.865e-5
-1.482, 1.865e-5
-1.483, 1.865e-5
-1.484, 1.865e-5
-1.485, 1.865e-5
-1.486, 1.865e-5
-1.487, 1.865e-5
-1.488, 1.865e-5
-1.489, 1.865e-5
-1.490, 1.865e-5
-1.491, 1.865e-5
-1.492, 1.865e-5
-1.493, 1.865e-5
-1.494, 1.865e-5
-1.495, 1.865e-5
-1.496, 1.865e-5
-1.497, 1.865e-5
-1.498, 1.865e-5
-1.499, 1.865e-5
-1.500, 1.865e-5
-1.501, 1.865e-5
-1.502, 1.865e-5
-1.503, 1.865e-5
-1.504, 1.865e-5
-1.505, 1.865e-5
-1.506, 1.865e-5
-1.507, 2.174e-5
-1.508, 1.865e-5
-1.509, 1.865e-5
-1.510, 1.865e-5
-1.511, 1.865e-5
-1.512, 1.865e-5
-1.513, 1.865e-5
-1.514, 1.865e-5
-1.515, 1.865e-5
-1.516, 1.865e-5
-1.517, 1.865e-5
-1.518, 1.865e-5
-1.519, 1.865e-5
-1.520, 1.865e-5
-1.521, 1.865e-5
-1.522, 2.174e-5
-1.523, 2.174e-5
-1.524, 2.174e-5
-1.525, 1.865e-5
-1.526, 1.865e-5
-1.527, 1.865e-5
-1.528, 2.174e-5
-1.529, 2.174e-5
-1.530, 2.174e-5
-1.531, 2.174e-5
-1.532, 2.174e-5
-1.533, 2.174e-5
-1.534, 2.174e-5
-1.535, 2.174e-5
-1.536, 2.174e-5
-1.537, 2.174e-5
-1.538, 2.174e-5
-1.539, 2.174e-5
-1.540, 2.174e-5
-1.541, 2.174e-5
-1.542, 2.174e-5
-1.543, 2.174e-5
-1.544, 2.174e-5
-1.545, 2.174e-5
-1.546, 2.174e-5
-1.547, 2.174e-5
-1.548, 2.174e-5
-1.549, 2.174e-5
-1.550, 2.174e-5
-1.551, 2.174e-5
-1.552, 2.174e-5
-1.553, 2.174e-5
-1.554, 2.174e-5
-1.555, 2.174e-5
-1.556, 2.174e-5
-1.557, 2.174e-5
-1.558, 2.174e-5
-1.559, 2.174e-5
-1.560, 2.174e-5
-1.561, 2.482e-5
-1.562, 2.482e-5
-1.563, 2.174e-5
-1.564, 2.174e-5
-1.565, 2.174e-5
-1.566, 2.174e-5
-1.567, 2.174e-5
-1.568, 2.482e-5
-1.569, 2.174e-5
-1.570, 2.482e-5
-1.571, 2.482e-5
-1.572, 2.482e-5
-1.573, 2.482e-5
-1.574, 2.482e-5
-1.575, 2.482e-5
-1.576, 2.482e-5
-1.577, 2.482e-5
-1.578, 2.482e-5
-1.579, 2.482e-5
-1.580, 2.482e-5
-1.581, 2.482e-5
-1.582, 2.482e-5
-1.583, 2.482e-5
-1.584, 2.482e-5
-1.585, 2.482e-5
-1.586, 2.790e-5
-1.587, 2.790e-5
-1.588, 2.482e-5
-1.589, 2.790e-5
-1.590, 2.790e-5
-1.591, 2.790e-5
-1.592, 2.790e-5
-1.593, 2.790e-5
-1.594, 2.790e-5
-1.595, 2.790e-5
-1.596, 2.482e-5
-1.597, 2.790e-5
-1.598, 2.790e-5
-1.599, 2.790e-5
-1.600, 2.790e-5
-1.601, 2.790e-5
-1.602, 2.790e-5
-1.603, 2.790e-5
-1.604, 2.790e-5
-1.605, 3.099e-5
-1.606, 3.099e-5
-1.607, 2.790e-5
-1.608, 3.099e-5
-1.609, 3.099e-5
-1.610, 3.099e-5
-1.611, 2.790e-5
-1.612, 3.099e-5
-1.613, 2.790e-5
-1.614, 3.099e-5
-1.615, 3.099e-5
-1.616, 3.407e-5
-1.617, 3.099e-5
-1.618, 3.099e-5
-1.619, 3.099e-5
-1.620, 3.407e-5
-1.621, 3.407e-5
-1.622, 3.407e-5
-1.623, 3.407e-5
-1.624, 3.407e-5
-1.625, 3.407e-5
-1.626, 3.407e-5
-1.627, 3.407e-5
-1.628, 3.407e-5
-1.629, 3.715e-5
-1.630, 3.715e-5
-1.631, 3.715e-5
-1.632, 3.407e-5
-1.633, 3.715e-5
-1.634, 3.715e-5
-1.635, 4.024e-5
-1.636, 3.715e-5
-1.637, 3.715e-5
-1.638, 3.715e-5
-1.639, 4.024e-5
-1.640, 4.024e-5
-1.641, 4.024e-5
-1.642, 4.024e-5
-1.643, 4.024e-5
-1.644, 4.024e-5
-1.645, 4.024e-5
-1.646, 4.024e-5
-1.647, 4.332e-5
-1.648, 4.024e-5
-1.649, 4.332e-5
-1.650, 4.332e-5
-1.651, 4.332e-5
-1.652, 4.332e-5
-1.653, 4.332e-5
-1.654, 4.640e-5
-1.655, 4.640e-5
-1.656, 4.640e-5
-1.657, 4.640e-5
-1.658, 4.640e-5
-1.659, 4.640e-5
-1.660, 4.949e-5
-1.661, 4.949e-5
-1.662, 4.640e-5
-1.663, 4.949e-5
-1.664, 4.949e-5
-1.665, 4.949e-5
-1.666, 4.949e-5
-1.667, 5.257e-5
-1.668, 5.257e-5
-1.669, 5.257e-5
-1.670, 5.257e-5
-1.671, 5.257e-5
-1.672, 5.565e-5
-1.673, 5.565e-5
-1.674, 5.565e-5
-1.675, 5.565e-5
-1.676, 5.565e-5
-1.677, 5.873e-5
-1.678, 5.873e-5
-1.679, 5.873e-5
-1.680, 5.873e-5
-1.681, 5.873e-5
-1.682, 6.182e-5
-1.683, 6.490e-5
-1.684, 6.490e-5
-1.685, 6.490e-5
-1.686, 6.490e-5
-1.687, 6.490e-5
-1.688, 6.490e-5
-1.689, 6.798e-5
-1.690, 6.798e-5
-1.691, 6.798e-5
-1.692, 6.798e-5
-1.693, 7.107e-5
-1.694, 7.107e-5
-1.695, 7.107e-5
-1.696, 7.415e-5
-1.697, 7.415e-5
-1.698, 7.415e-5
-1.699, 7.415e-5
-1.700, 7.723e-5
-1.701, 7.723e-5
-1.702, 8.032e-5
-1.703, 8.032e-5
-1.704, 8.032e-5
-1.705, 8.032e-5
-1.706, 8.340e-5
-1.707, 8.340e-5
-1.708, 8.648e-5
-1.709, 8.648e-5
-1.710, 8.957e-5
-1.711, 8.957e-5
-1.712, 8.957e-5
-1.713, 9.265e-5
-1.714, 9.265e-5
-1.715, 9.573e-5
-1.716, 9.882e-5
-1.717, 9.882e-5
-1.718, 9.882e-5
-1.719, 9.882e-5
-1.720, 1.019e-4
-1.721, 1.050e-4
-1.722, 1.050e-4
-1.723, 1.111e-4
-1.724, 1.111e-4
-1.725, 1.111e-4
-1.726, 1.142e-4
-1.727, 1.173e-4
-1.728, 1.204e-4
-1.729, 1.204e-4
-1.730, 1.204e-4
-1.731, 1.235e-4
-1.732, 1.266e-4
-1.733, 1.296e-4
-1.734, 1.327e-4
-1.735, 1.358e-4
-1.736, 1.358e-4
-1.737, 1.389e-4
-1.738, 1.420e-4
-1.739, 1.451e-4
-1.740, 1.481e-4
-1.741, 1.512e-4
-1.742, 1.543e-4
-1.743, 1.574e-4
-1.744, 1.605e-4
-1.745, 1.636e-4
-1.746, 1.666e-4
-1.747, 1.697e-4
-1.748, 1.728e-4
-1.749, 1.759e-4
-1.750, 1.821e-4
-1.751, 1.851e-4
-1.752, 1.913e-4
-1.753, 1.944e-4
-1.754, 1.975e-4
-1.755, 2.036e-4
-1.756, 2.067e-4
-1.757, 2.098e-4
-1.758, 2.160e-4
-1.759, 2.221e-4
-1.760, 2.252e-4
-1.761, 2.314e-4
-1.762, 2.376e-4
-1.763, 2.437e-4
-1.764, 2.499e-4
-1.765, 2.561e-4
-1.766, 2.622e-4
-1.767, 2.684e-4
-1.768, 2.746e-4
-1.769, 2.807e-4
-1.770, 2.900e-4
-1.771, 2.961e-4
-1.772, 3.023e-4
-1.773, 3.115e-4
-1.774, 3.177e-4
-1.775, 3.270e-4
-1.776, 3.362e-4
-1.777, 3.455e-4
-1.778, 3.547e-4
-1.779, 3.609e-4
-1.780, 3.732e-4
-1.781, 3.825e-4
-1.782, 3.917e-4
-1.783, 4.040e-4
-1.784, 4.133e-4
-1.785, 4.256e-4
-1.786, 4.349e-4
-1.787, 4.472e-4
-1.788, 4.595e-4
-1.789, 4.719e-4
-1.790, 4.873e-4
-1.791, 4.996e-4
-1.792, 5.150e-4
-1.793, 5.305e-4
-1.794, 5.428e-4
-1.795, 5.582e-4
-1.796, 5.767e-4
-1.797, 5.890e-4
-1.798, 6.075e-4
-1.799, 6.229e-4
-1.800, 6.414e-4
-1.801, 6.569e-4
-1.802, 6.784e-4
-1.803, 6.969e-4
-1.804, 7.185e-4
-1.805, 7.401e-4
-1.806, 7.617e-4
-1.807, 7.802e-4
-1.808, 8.048e-4
-1.809, 8.264e-4
-1.810, 8.511e-4
-1.811, 8.727e-4
-1.812, 8.973e-4
-1.813, 9.220e-4
-1.814, 9.498e-4
-1.815, 9.775e-4
-1.816, 1.005e-3
-1.817, 1.033e-3
-1.818, 1.064e-3
-1.819, 1.095e-3
-1.820, 1.125e-3
-1.821, 1.156e-3
-1.822, 1.187e-3
-1.823, 1.218e-3
-1.824, 1.252e-3
-1.825, 1.286e-3
-1.826, 1.323e-3
-1.827, 1.357e-3
-1.828, 1.397e-3
-1.829, 1.434e-3
-1.830, 1.474e-3
-1.831, 1.514e-3
-1.832, 1.554e-3
-1.833, 1.597e-3
-1.834, 1.640e-3
-1.835, 1.684e-3
-1.836, 1.727e-3
-1.837, 1.770e-3
-1.838, 1.816e-3
-1.839, 1.862e-3
-1.840, 1.912e-3
-1.841, 1.958e-3
-1.842, 2.010e-3
-1.843, 2.060e-3
-1.844, 2.115e-3
-1.845, 2.168e-3
-1.846, 2.220e-3
-1.847, 2.272e-3
-1.848, 2.328e-3
-1.849, 2.383e-3
-1.850, 2.439e-3
-1.851, 2.494e-3
-1.852, 2.553e-3
-1.853, 2.612e-3
-1.854, 2.673e-3
-1.855, 2.738e-3
-1.856, 2.800e-3
-1.857, 2.861e-3
-1.858, 2.929e-3
-1.859, 2.994e-3
-1.860, 3.059e-3
-1.861, 3.123e-3
-1.862, 3.191e-3
-1.863, 3.256e-3
-1.864, 3.321e-3
-1.865, 3.388e-3
-1.866, 3.459e-3
-1.867, 3.527e-3
-1.868, 3.598e-3
-1.869, 3.672e-3
-1.870, 3.746e-3
-1.871, 3.820e-3
-1.872, 3.894e-3
-1.873, 3.968e-3
-1.874, 4.045e-3
-1.875, 4.119e-3
-1.876, 4.196e-3
-1.877, 4.270e-3
-1.878, 4.347e-3
-1.879, 4.421e-3
-1.880, 4.501e-3
-1.881, 4.582e-3
-1.882, 4.665e-3
-1.883, 4.748e-3
-1.884, 4.831e-3
-1.885, 4.915e-3
-1.886, 4.995e-3
-1.887, 5.081e-3
-1.888, 5.161e-3
-1.889, 5.245e-3
-1.890, 5.325e-3
-1.891, 5.408e-3
-1.892, 5.491e-3
-1.893, 5.574e-3
-1.894, 5.664e-3
-1.895, 5.753e-3
-1.896, 5.843e-3
-1.897, 5.929e-3
-1.898, 6.018e-3
-1.899, 6.108e-3
-1.900, 6.160e-3
-1.899, 6.151e-3
-1.898, 6.136e-3
-1.897, 6.117e-3
-1.896, 6.099e-3
-1.895, 6.077e-3
-1.894, 6.058e-3
-1.893, 6.034e-3
-1.892, 6.015e-3
-1.891, 5.994e-3
-1.890, 5.972e-3
-1.889, 5.944e-3
-1.888, 5.923e-3
-1.887, 5.895e-3
-1.886, 5.864e-3
-1.885, 5.830e-3
-1.884, 5.796e-3
-1.883, 5.762e-3
-1.882, 5.729e-3
-1.881, 5.695e-3
-1.880, 5.664e-3
-1.879, 5.636e-3
-1.878, 5.602e-3
-1.877, 5.574e-3
-1.876, 5.541e-3
-1.875, 5.510e-3
-1.874, 5.473e-3
-1.873, 5.439e-3
-1.872, 5.402e-3
-1.871, 5.365e-3
-1.870, 5.325e-3
-1.869, 5.285e-3
-1.868, 5.248e-3
-1.867, 5.214e-3
-1.866, 5.177e-3
-1.865, 5.143e-3
-1.864, 5.106e-3
-1.863, 5.072e-3
-1.862, 5.038e-3
-1.861, 5.001e-3
-1.860, 4.961e-3
-1.859, 4.924e-3
-1.858, 4.887e-3
-1.857, 4.847e-3
-1.856, 4.807e-3
-1.855, 4.767e-3
-1.854, 4.730e-3
-1.853, 4.693e-3
-1.852, 4.656e-3
-1.851, 4.619e-3
-1.850, 4.585e-3
-1.849, 4.548e-3
-1.848, 4.514e-3
-1.847, 4.474e-3
-1.846, 4.434e-3
-1.845, 4.397e-3
-1.844, 4.360e-3
-1.843, 4.320e-3
-1.842, 4.280e-3
-1.841, 4.239e-3
-1.840, 4.202e-3
-1.839, 4.169e-3
-1.838, 4.132e-3
-1.837, 4.098e-3
-1.836, 4.061e-3
-1.835, 4.027e-3
-1.834, 3.990e-3
-1.833, 3.953e-3
-1.832, 3.913e-3
-1.831, 3.876e-3
-1.830, 3.836e-3
-1.829, 3.799e-3
-1.828, 3.762e-3
-1.827, 3.728e-3
-1.826, 3.691e-3
-1.825, 3.657e-3
-1.824, 3.623e-3
-1.823, 3.589e-3
-1.822, 3.555e-3
-1.821, 3.518e-3
-1.820, 3.484e-3
-1.819, 3.450e-3
-1.818, 3.413e-3
-1.817, 3.376e-3
-1.816, 3.342e-3
-1.815, 3.305e-3
-1.814, 3.271e-3
-1.813, 3.237e-3
-1.812, 3.204e-3
-1.811, 3.170e-3
-1.810, 3.139e-3
-1.809, 3.108e-3
-1.808, 3.077e-3
-1.807, 3.040e-3
-1.806, 3.009e-3
-1.805, 2.975e-3
-1.804, 2.945e-3
-1.803, 2.911e-3
-1.802, 2.877e-3
-1.801, 2.843e-3
-1.800, 2.812e-3
-1.799, 2.784e-3
-1.798, 2.753e-3
-1.797, 2.726e-3
-1.796, 2.695e-3
-1.795, 2.664e-3
-1.794, 2.636e-3
-1.793, 2.605e-3
-1.792, 2.575e-3
-1.791, 2.544e-3
-1.790, 2.513e-3
-1.789, 2.482e-3
-1.788, 2.451e-3
-1.787, 2.423e-3
-1.786, 2.393e-3
-1.785, 2.365e-3
-1.784, 2.340e-3
-1.783, 2.312e-3
-1.782, 2.282e-3
-1.781, 2.257e-3
-1.780, 2.229e-3
-1.779, 2.201e-3
-1.778, 2.174e-3
-1.777, 2.146e-3
-1.776, 2.118e-3
-1.775, 2.091e-3
-1.774, 2.063e-3
-1.773, 2.038e-3
-1.772, 2.013e-3
-1.771, 1.989e-3
-1.770, 1.964e-3
-1.769, 1.939e-3
-1.768, 1.915e-3
-1.767, 1.890e-3
-1.766, 1.865e-3
-1.765, 1.841e-3
-1.764, 1.816e-3
-1.763, 1.791e-3
-1.762, 1.764e-3
-1.761, 1.742e-3
-1.760, 1.717e-3
-1.759, 1.696e-3
-1.758, 1.677e-3
-1.757, 1.653e-3
-1.756, 1.631e-3
-1.755, 1.610e-3
-1.754, 1.588e-3
-1.753, 1.566e-3
-1.752, 1.545e-3
-1.751, 1.523e-3
-1.750, 1.502e-3
-1.749, 1.477e-3
-1.748, 1.458e-3
-1.747, 1.437e-3
-1.746, 1.418e-3
-1.745, 1.400e-3
-1.744, 1.378e-3
-1.743, 1.360e-3
-1.742, 1.341e-3
-1.741, 1.323e-3
-1.740, 1.304e-3
-1.739, 1.286e-3
-1.738, 1.264e-3
-1.737, 1.246e-3
-1.736, 1.227e-3
-1.735, 1.212e-3
-1.734, 1.193e-3
-1.733, 1.178e-3
-1.732, 1.159e-3
-1.731, 1.144e-3
-1.730, 1.129e-3
-1.729, 1.110e-3
-1.728, 1.095e-3
-1.727, 1.079e-3
-1.726, 1.064e-3
-1.725, 1.048e-3
-1.724, 1.027e-3
-1.723, 1.014e-3
-1.722, 9.960e-4
-1.721, 9.837e-4
-1.720, 9.683e-4
-1.719, 9.528e-4
-1.718, 9.405e-4
-1.717, 9.251e-4
-1.716, 9.128e-4
-1.715, 8.973e-4
-1.714, 8.819e-4
-1.713, 8.696e-4
-1.712, 8.573e-4
-1.711, 8.418e-4
-1.710, 8.295e-4
-1.709, 8.141e-4
-1.708, 8.018e-4
-1.707, 7.894e-4
-1.706, 7.771e-4
-1.705, 7.648e-4
-1.704, 7.524e-4
-1.703, 7.401e-4
-1.702, 7.309e-4
-1.701, 7.185e-4
-1.700, 7.062e-4
-1.699, 6.939e-4
-1.698, 6.815e-4
-1.697, 6.692e-4
-1.696, 6.599e-4
-1.695, 6.476e-4
-1.694, 6.384e-4
-1.693, 6.260e-4
-1.692, 6.168e-4
-1.691, 6.075e-4
-1.690, 5.983e-4
-1.689, 5.859e-4
-1.688, 5.767e-4
-1.687, 5.674e-4
-1.686, 5.582e-4
-1.685, 5.489e-4
-1.684, 5.397e-4
-1.683, 5.305e-4
-1.682, 5.181e-4
-1.681, 5.120e-4
-1.680, 5.027e-4
-1.679, 4.935e-4
-1.678, 4.873e-4
-1.677, 4.780e-4
-1.676, 4.688e-4
-1.675, 4.626e-4
-1.674, 4.534e-4
-1.673, 4.441e-4
-1.672, 4.380e-4
-1.671, 4.287e-4
-1.670, 4.195e-4
-1.669, 4.133e-4
-1.668, 4.040e-4
-1.667, 3.979e-4
-1.666, 3.917e-4
-1.665, 3.855e-4
-1.664, 3.794e-4
-1.663, 3.701e-4
-1.662, 3.640e-4
-1.661, 3.578e-4
-1.660, 3.516e-4
-1.659, 3.455e-4
-1.658, 3.393e-4
-1.657, 3.300e-4
-1.656, 3.239e-4
-1.655, 3.177e-4
-1.654, 3.115e-4
-1.653, 3.054e-4
-1.652, 3.023e-4
-1.651, 2.961e-4
-1.650, 2.900e-4
-1.649, 2.838e-4
-1.648, 2.776e-4
-1.647, 2.746e-4
-1.646, 2.684e-4
-1.645, 2.622e-4
-1.644, 2.561e-4
-1.643, 2.499e-4
-1.642, 2.468e-4
-1.641, 2.406e-4
-1.640, 2.345e-4
-1.639, 2.314e-4
-1.638, 2.283e-4
-1.637, 2.252e-4
-1.636, 2.191e-4
-1.635, 2.129e-4
-1.634, 2.098e-4
-1.633, 2.067e-4
-1.632, 2.006e-4
-1.631, 1.975e-4
-1.630, 1.913e-4
-1.629, 1.882e-4
-1.628, 1.851e-4
-1.627, 1.821e-4
-1.626, 1.759e-4
-1.625, 1.728e-4
-1.624, 1.697e-4
-1.623, 1.666e-4
-1.622, 1.636e-4
-1.621, 1.574e-4
-1.620, 1.543e-4
-1.619, 1.512e-4
-1.618, 1.481e-4
-1.617, 1.451e-4
-1.616, 1.420e-4
-1.615, 1.389e-4
-1.614, 1.358e-4
-1.613, 1.327e-4
-1.612, 1.296e-4
-1.611, 1.266e-4
-1.610, 1.235e-4
-1.609, 1.204e-4
-1.608, 1.204e-4
-1.607, 1.173e-4
-1.606, 1.142e-4
-1.605, 1.111e-4
-1.604, 1.081e-4
-1.603, 1.050e-4
-1.602, 1.019e-4
-1.601, 1.019e-4
-1.600, 9.882e-5
-1.599, 9.573e-5
-1.598, 9.265e-5
-1.597, 9.265e-5
-1.596, 8.957e-5
-1.595, 8.648e-5
-1.594, 8.648e-5
-1.593, 8.340e-5
-1.592, 8.032e-5
-1.591, 8.032e-5
-1.590, 7.723e-5
-1.589, 7.415e-5
-1.588, 7.415e-5
-1.587, 7.107e-5
-1.586, 7.107e-5
-1.585, 6.798e-5
-1.584, 6.798e-5
-1.583, 6.490e-5
-1.582, 6.182e-5
-1.581, 6.182e-5
-1.580, 5.873e-5
-1.579, 5.873e-5
-1.578, 5.565e-5
-1.577, 5.565e-5
-1.576, 5.257e-5
-1.575, 5.257e-5
-1.574, 4.949e-5
-1.573, 4.949e-5
-1.572, 4.949e-5
-1.571, 4.640e-5
-1.570, 4.640e-5
-1.569, 4.640e-5
-1.568, 4.332e-5
-1.567, 4.332e-5
-1.566, 4.332e-5
-1.565, 4.024e-5
-1.564, 4.024e-5
-1.563, 3.715e-5
-1.562, 3.715e-5
-1.561, 3.407e-5
-1.560, 3.715e-5
-1.559, 3.407e-5
-1.558, 3.407e-5
-1.557, 3.407e-5
-1.556, 3.099e-5
-1.555, 3.099e-5
-1.554, 3.099e-5
-1.553, 2.790e-5
-1.552, 2.790e-5
-1.551, 2.790e-5
-1.550, 2.790e-5
-1.549, 2.482e-5
-1.548, 2.482e-5
-1.547, 2.482e-5
-1.546, 2.482e-5
-1.545, 2.482e-5
-1.544, 2.482e-5
-1.543, 2.174e-5
-1.542, 2.174e-5
-1.541, 2.174e-5
-1.540, 1.865e-5
-1.539, 1.865e-5
-1.538, 1.865e-5
-1.537, 1.865e-5
-1.536, 1.865e-5
-1.535, 1.865e-5
-1.534, 1.557e-5
-1.533, 1.557e-5
-1.532, 1.557e-5
-1.531, 1.557e-5
-1.530, 1.557e-5
-1.529, 1.249e-5
-1.528, 1.249e-5
-1.527, 1.249e-5
-1.526, 1.249e-5
-1.525, 1.249e-5
-1.524, 1.249e-5
-1.523, 1.249e-5
-1.522, 1.249e-5
-1.521, 9.405e-6
-1.520, 1.249e-5
-1.519, 1.249e-5
-1.518, 9.405e-6
-1.517, 9.405e-6
-1.516, 9.405e-6
-1.515, 9.405e-6
-1.514, 9.405e-6
-1.513, 9.405e-6
-1.512, 9.405e-6
-1.511, 9.405e-6
-1.510, 9.405e-6
-1.509, 6.322e-6
-1.508, 6.322e-6
-1.507, 6.322e-6
-1.506, 6.322e-6
-1.505, 6.322e-6
-1.504, 6.322e-6
-1.503, 6.322e-6
-1.502, 6.322e-6
-1.501, 6.322e-6
-1.500, 6.322e-6
-1.499, 3.239e-6
-1.498, 3.239e-6
-1.497, 6.322e-6
-1.496, 6.322e-6
-1.495, 6.322e-6
-1.494, 3.239e-6
-1.493, 6.322e-6
-1.492, 3.239e-6
-1.491, 3.239e-6
-1.490, 3.239e-6
-1.489, 3.239e-6
-1.488, 3.239e-6
-1.487, 3.239e-6
-1.486, 3.239e-6
-1.485, 3.239e-6
-1.484, 3.239e-6
-1.483, 3.239e-6
-1.482, 3.239e-6
-1.481, 3.239e-6
-1.480, 3.239e-6
-1.479, 3.239e-6
-1.478, 3.239e-6
-1.477, 3.239e-6
-1.476, 3.239e-6
-1.475, 1.559e-7
-1.474, 1.559e-7
-1.473, 1.559e-7
-1.472, 3.239e-6
-1.471, 3.239e-6
-1.470, 3.239e-6
-1.469, 1.559e-7
-1.468, 1.559e-7
-1.467, 1.559e-7
-1.466, 3.239e-6
-1.465, 1.559e-7
-1.464, 3.239e-6
-1.463, 1.559e-7
-1.462, 1.559e-7
-1.461, 1.559e-7
-1.460, 1.559e-7
-1.459, 1.559e-7
-1.458, 1.559e-7
-1.457, 1.559e-7
-1.456, 1.559e-7
-1.455, 1.559e-7
-1.454, 1.559e-7
-1.453, 1.559e-7
-1.452, 1.559e-7
-1.451, 1.559e-7
-1.450, 1.559e-7
-1.449, 1.559e-7
-1.448, 1.559e-7
-1.447, 1.559e-7
-1.446, 1.559e-7
-1.445, 1.559e-7
-1.444, 1.559e-7
-1.443, 1.559e-7
-1.442, 1.559e-7
-1.441, 1.559e-7
-1.440, -2.927e-6
-1.439, 1.559e-7
-1.438, 1.559e-7
-1.437, 1.559e-7
-1.436, 1.559e-7
-1.435, 1.559e-7
-1.434, -2.927e-6
-1.433, 1.559e-7
-1.432, 1.559e-7
-1.431, -2.927e-6
-1.430, 1.559e-7
-1.429, 1.559e-7
-1.428, 1.559e-7
-1.427, 1.559e-7
-1.426, 1.559e-7
-1.425, -2.927e-6
-1.424, 1.559e-7
-1.423, -2.927e-6
-1.422, 1.559e-7
-1.421, 1.559e-7
-1.420, 1.559e-7
-1.419, 1.559e-7
-1.418, 1.559e-7
-1.417, 1.559e-7
-1.416, 1.559e-7
-1.415, 1.559e-7
-1.414, 1.559e-7
-1.413, -2.927e-6
-1.412, 1.559e-7
-1.411, 1.559e-7
-1.410, -2.927e-6
-1.409, -2.927e-6
-1.408, 1.559e-7
-1.407, 1.559e-7
-1.406, -2.927e-6
-1.405, -2.927e-6
-1.404, -2.927e-6
-1.403, 1.559e-7
-1.402, -2.927e-6
-1.401, -2.927e-6
-1.400, -2.927e-6
-1.399, 1.559e-7
-1.398, 1.559e-7
-1.397, 1.559e-7
-1.396, -2.927e-6
-1.395, -2.927e-6
-1.394, -2.927e-6
-1.393, 1.559e-7
-1.392, -2.927e-6
-1.391, -2.927e-6
-1.390, -2.927e-6
-1.389, -2.927e-6
-1.388, -2.927e-6
-1.387, -2.927e-6
-1.386, -2.927e-6
-1.385, -2.927e-6
-1.384, 1.559e-7
-1.383, -2.927e-6
-1.382, 1.559e-7
-1.381, -2.927e-6
-1.380, -2.927e-6
-1.379, -2.927e-6
-1.378, 1.559e-7
-1.377, -2.927e-6
-1.376, -2.927e-6
-1.375, -2.927e-6
-1.374, 1.559e-7
-1.373, -2.927e-6
-1.372, 1.559e-7
-1.371, -2.927e-6
-1.370, -2.927e-6
-1.369, -2.927e-6
-1.368, -2.927e-6
-1.367, -2.927e-6
-1.366, 1.559e-7
-1.365, -2.927e-6
-1.364, 1.559e-7
-1.363, -2.927e-6
-1.362, -2.927e-6
-1.361, -2.927e-6
-1.360, -2.927e-6
-1.359, 1.559e-7
-1.358, -2.927e-6
-1.357, -2.927e-6
-1.356, -2.927e-6
-1.355, -2.927e-6
-1.354, -2.927e-6
-1.353, -2.927e-6
-1.352, -2.927e-6
-1.351, -2.927e-6
-1.350, -2.927e-6
-1.349, -2.927e-6
-1.348, -2.927e-6
-1.347, -2.927e-6
-1.346, -2.927e-6
-1.345, -2.927e-6
-1.344, -2.927e-6
-1.343, -2.927e-6
-1.342, -2.927e-6
-1.341, -2.927e-6
-1.340, -2.927e-6
-1.339, -2.927e-6
-1.338, -2.927e-6
-1.337, -2.927e-6
-1.336, -2.927e-6
-1.335, -2.927e-6
-1.334, -2.927e-6
-1.333, -2.927e-6
-1.332, -2.927e-6
-1.331, -2.927e-6
-1.330, -2.927e-6
-1.329, -2.927e-6
-1.328, -2.927e-6
-1.327, -2.927e-6
-1.326, -2.927e-6
-1.325, -2.927e-6
-1.324, -2.927e-6
-1.323, -2.927e-6
-1.322, -2.927e-6
-1.321, -2.927e-6
-1.320, -2.927e-6
-1.319, -2.927e-6
-1.318, -2.927e-6
-1.317, -2.927e-6
-1.316, -2.927e-6
-1.315, -2.927e-6
-1.314, -2.927e-6
-1.313, -2.927e-6
-1.312, -2.927e-6
-1.311, -2.927e-6
-1.310, -2.927e-6
-1.309, -2.927e-6
-1.308, -2.927e-6
-1.307, -2.927e-6
-1.306, -2.927e-6
-1.305, -2.927e-6
-1.304, -2.927e-6
-1.303, -2.927e-6
-1.302, -2.927e-6
-1.301, -2.927e-6
-1.300, -2.927e-6
-1.299, -2.927e-6
-1.298, -2.927e-6
-1.297, -2.927e-6
-1.296, -2.927e-6
-1.295, -2.927e-6
-1.294, -2.927e-6
-1.293, -2.927e-6
-1.292, -2.927e-6
-1.291, -2.927e-6
-1.290, -2.927e-6
-1.289, -2.927e-6
-1.288, -2.927e-6
-1.287, -2.927e-6
-1.286, -2.927e-6
-1.285, -2.927e-6
-1.284, -2.927e-6
-1.283, -2.927e-6
-1.282, -2.927e-6
-1.281, -2.927e-6
-1.280, -2.927e-6
-1.279, -2.927e-6
-1.278, -2.927e-6
-1.277, -2.927e-6
-1.276, -2.927e-6
-1.275, -2.927e-6
-1.274, -2.927e-6
-1.273, -2.927e-6
-1.272, -2.927e-6
-1.271, -2.927e-6
-1.270, -2.927e-6
-1.269, -2.927e-6
-1.268, -2.927e-6
-1.267, -2.927e-6
-1.266, -2.927e-6
-1.265, -2.927e-6
-1.264, -2.927e-6
-1.263, -2.927e-6
-1.262, -2.927e-6
-1.261, -2.927e-6
-1.260, -2.927e-6
-1.259, -6.010e-6
-1.258, -2.927e-6
-1.257, -2.927e-6
-1.256, -2.927e-6
-1.255, -2.927e-6
-1.254, -2.927e-6
-1.253, -2.927e-6
-1.252, -2.927e-6
-1.251, -2.927e-6
-1.250, -2.927e-6
-1.249, -2.927e-6
-1.248, -2.927e-6
-1.247, -2.927e-6
-1.246, -2.927e-6
-1.245, -2.927e-6
-1.244, -2.927e-6
-1.243, -2.927e-6
-1.242, -2.927e-6
-1.241, -2.927e-6
-1.240, -2.927e-6
-1.239, -2.927e-6
-1.238, -2.927e-6
-1.237, -2.927e-6
-1.236, -2.927e-6
-1.235, -2.927e-6
-1.234, -2.927e-6
-1.233, -2.927e-6
-1.232, -2.927e-6
-1.231, -2.927e-6
-1.230, -2.927e-6
-1.229, -2.927e-6
-1.228, -2.927e-6
-1.227, -2.927e-6
-1.226, -2.927e-6
-1.225, -2.927e-6
-1.224, -2.927e-6
-1.223, -6.010e-6
-1.222, -2.927e-6
-1.221, -2.927e-6
-1.220, -2.927e-6
-1.219, -2.927e-6
-1.218, -2.927e-6
-1.217, -2.927e-6
-1.216, -6.010e-6
-1.215, -6.010e-6
-1.214, -6.010e-6
-1.213, -6.010e-6
-1.212, -2.927e-6
-1.211, -2.927e-6
-1.210, -2.927e-6
-1.209, -2.927e-6
-1.208, -6.010e-6
-1.207, -2.927e-6
-1.206, -6.010e-6
-1.205, -2.927e-6
-1.204, -2.927e-6
-1.203, -6.010e-6
-1.202, -2.927e-6
-1.201, -2.927e-6
-1.200, -6.010e-6
-1.199, -2.927e-6
-1.198, -2.927e-6
-1.197, -2.927e-6
-1.196, -6.010e-6
-1.195, -2.927e-6
-1.194, -2.927e-6
-1.193, -2.927e-6
-1.192, -2.927e-6
-1.191, -2.927e-6
-1.190, -6.010e-6
-1.189, -2.927e-6
-1.188, -2.927e-6
-1.187, -6.010e-6
-1.186, -6.010e-6
-1.185, -2.927e-6
-1.184, -2.927e-6
-1.183, -2.927e-6
-1.182, -2.927e-6
-1.181, -6.010e-6
-1.180, -2.927e-6
-1.179, -6.010e-6
-1.178, -2.927e-6
-1.177, -6.010e-6
-1.176, -6.010e-6
-1.175, -2.927e-6
-1.174, -6.010e-6
-1.173, -6.010e-6
-1.172, -6.010e-6
-1.171, -6.010e-6
-1.170, -2.927e-6
-1.169, -6.010e-6
-1.168, -2.927e-6
-1.167, -6.010e-6
-1.166, -6.010e-6
-1.165, -6.010e-6
-1.164, -6.010e-6
-1.163, -6.010e-6
-1.162, -2.927e-6
-1.161, -6.010e-6
-1.160, -2.927e-6
-1.159, -2.927e-6
-1.158, -6.010e-6
-1.157, -2.927e-6
-1.156, -6.010e-6
-1.155, -6.010e-6
-1.154, -6.010e-6
-1.153, -6.010e-6
-1.152, -6.010e-6
-1.151, -2.927e-6
-1.150, -6.010e-6
-1.149, -2.927e-6
-1.148, -6.010e-6
-1.147, -6.010e-6
-1.146, -6.010e-6
-1.145, -2.927e-6
-1.144, -2.927e-6
-1.143, -6.010e-6
-1.142, -6.010e-6
-1.141, -6.010e-6
-1.140, -6.010e-6
-1.139, -6.010e-6
-1.138, -2.927e-6
-1.137, -6.010e-6
-1.136, -6.010e-6
-1.135, -6.010e-6
-1.134, -2.927e-6
-1.133, -6.010e-6
-1.132, -2.927e-6
-1.131, -6.010e-6
-1.130, -6.010e-6
-1.129, -6.010e-6
-1.128, -6.010e-6
-1.127, -6.010e-6
-1.126, -6.010e-6
-1.125, -6.010e-6
-1.124, -6.010e-6
-1.123, -6.010e-6
-1.122, -6.010e-6
-1.121, -6.010e-6
-1.120, -6.010e-6
-1.119, -6.010e-6
-1.118, -6.010e-6
-1.117, -6.010e-6
-1.116, -6.010e-6
-1.115, -2.927e-6
-1.114, -6.010e-6
-1.113, -6.010e-6
-1.112, -6.010e-6
-1.111, -2.927e-6
-1.110, -6.010e-6
-1.109, -6.010e-6
-1.108, -6.010e-6
-1.107, -6.010e-6
-1.106, -6.010e-6
-1.105, -6.010e-6
-1.104, -6.010e-6
-1.103, -6.010e-6
-1.102, -6.010e-6
-1.101, -6.010e-6
-1.100, -6.010e-6
-1.099, -6.010e-6
-1.098, -6.010e-6
-1.097, -6.010e-6
-1.096, -6.010e-6
-1.095, -6.010e-6
-1.094, -6.010e-6
-1.093, -6.010e-6
-1.092, -6.010e-6
-1.091, -2.927e-6
-1.090, -6.010e-6
-1.089, -6.010e-6
-1.088, -6.010e-6
-1.087, -9.093e-6
-1.086, -6.010e-6
-1.085, -6.010e-6
-1.084, -6.010e-6
-1.083, -6.010e-6
-1.082, -6.010e-6
-1.081, -6.010e-6
-1.080, -6.010e-6
-1.079, -6.010e-6
-1.078, -6.010e-6
-1.077, -6.010e-6
-1.076, -6.010e-6
-1.075, -6.010e-6
-1.074, -6.010e-6
-1.073, -6.010e-6
-1.072, -6.010e-6
-1.071, -6.010e-6
-1.070, -6.010e-6
-1.069, -6.010e-6
-1.068, -6.010e-6
-1.067, -6.010e-6
-1.066, -6.010e-6
-1.065, -6.010e-6
-1.064, -6.010e-6
-1.063, -6.010e-6
-1.062, -6.010e-6
-1.061, -6.010e-6
-1.060, -6.010e-6
-1.059, -6.010e-6
-1.058, -6.010e-6
-1.057, -6.010e-6
-1.056, -6.010e-6
-1.055, -6.010e-6
-1.054, -6.010e-6
-1.053, -6.010e-6
-1.052, -6.010e-6
-1.051, -6.010e-6
-1.050, -6.010e-6
-1.049, -6.010e-6
-1.048, -6.010e-6
-1.047, -6.010e-6
-1.046, -6.010e-6
-1.045, -6.010e-6
-1.044, -6.010e-6
-1.043, -6.010e-6
-1.042, -6.010e-6
-1.041, -6.010e-6
-1.040, -6.010e-6
-1.039, -6.010e-6
-1.038, -6.010e-6
-1.037, -6.010e-6
-1.036, -6.010e-6
-1.035, -9.093e-6
-1.034, -6.010e-6
-1.033, -6.010e-6
-1.032, -6.010e-6
-1.031, -6.010e-6
-1.030, -6.010e-6
-1.029, -6.010e-6
-1.028, -6.010e-6
-1.027, -6.010e-6
-1.026, -6.010e-6
-1.025, -6.010e-6
-1.024, -6.010e-6
-1.023, -9.093e-6
-1.022, -6.010e-6
-1.021, -6.010e-6
-1.020, -6.010e-6
-1.019, -6.010e-6
-1.018, -6.010e-6
-1.017, -6.010e-6
-1.016, -6.010e-6
-1.015, -6.010e-6
-1.014, -9.093e-6
-1.013, -6.010e-6
-1.012, -6.010e-6
-1.011, -6.010e-6
-1.010, -6.010e-6
-1.009, -6.010e-6
-1.008, -6.010e-6
-1.007, -6.010e-6
-1.006, -9.093e-6
-1.005, -6.010e-6
-1.004, -6.010e-6
-1.003, -6.010e-6
-1.002, -6.010e-6
-1.001, -6.010e-6
