Potential V vs RHE, Current mA cm-2
0.013299999999999867,0.04140859974704963
0.012299999999999978,-1.3543031273607997
0.011299999999999866,-2.662486666345999
0.010299999999999976,-3.840941179133574
0.009299999999999864,-5.017980980621284
0.008299999999999974,-6.108723392817228
0.007299999999999862,-7.111753704421539
0.006299999999999972,-8.11478401602585
0.00529999999999986,-9.073958277334345
0.0042999999999999705,-10.034547249942705
0.0032999999999998586,-10.906009410659568
0.0022999999999999687,-11.778886282676295
0.0012999999999998568,-12.56405105410139
0.00029999999999996696,-13.349215825526485
-0.000700000000000145,-14.046668496359947
-0.0017000000000000348,-14.741291744593681
-0.0027000000000001467,-15.448647394526201
-0.0037000000000000366,-16.141855931460068
-0.0047000000000001485,-16.792623129397985
-0.005700000000000038,-17.40094898833995
-0.00670000000000015,-18.06586329927652
-0.00770000000000004,-18.674189158218486
-0.008700000000000152,-19.28251501716045
-0.009700000000000042,-19.890840876102416
-0.010700000000000154,-20.456725396048434
-0.011700000000000044,-20.980168576998494
-0.012700000000000156,-21.503611757948562
-0.013700000000000045,-22.027054938898623
-0.014700000000000157,-22.508056780852733
-0.015700000000000047,-23.031499961802798
-0.01670000000000016,-23.51250180375691
-0.01770000000000005,-23.993503645711023
-0.01870000000000016,-24.432064148669184
-0.01970000000000005,-24.870624651627345
-0.020700000000000163,-25.252596702590903
-0.021700000000000053,-25.60627452755716
-0.022700000000000164,-26.002393691519377
-0.023700000000000054,-26.38436574248293
-0.024700000000000166,-26.69560222845324
-0.025700000000000056,-27.00683871442355
-0.026700000000000168,-27.34636942639116
-0.027700000000000058,-27.615164573365515
-0.02870000000000017,-27.954695285333123
-0.02970000000000006,-28.265931771303435
-0.03070000000000017,-28.619609596269694
-0.03170000000000006,-28.91669896924135
-0.03270000000000017,-29.27037679420761
-0.03370000000000006,-29.581613280177915
-0.034700000000000175,-29.878702653149578
-0.035700000000000065,-30.189939139119886
-0.03670000000000018,-30.487028512091538
-0.03770000000000007,-30.79826499806185
-0.03870000000000018,-31.052913032037555
-0.03970000000000007,-31.27926684001596
-0.04070000000000018,-31.533914873991666
-0.04170000000000007,-31.802710020966025
-0.04270000000000018,-32.01491671594578
-0.04370000000000007,-32.283711862920136
-0.044700000000000184,-32.49591855789989
-0.045700000000000074,-32.70812525287965
-0.046700000000000186,-32.93447906085806
-0.047700000000000076,-33.14668575583781
-0.04870000000000019,-33.373039563816214
-0.04970000000000008,-33.58524625879597
-0.05070000000000019,-33.755011614779775
-0.05170000000000008,-33.93892408376223
-0.05270000000000019,-34.10868943974604
-0.05370000000000008,-34.236013456733886
-0.05470000000000019,-34.377484586720385
-0.05570000000000008,-34.5472499427042
-0.056700000000000195,-34.717015298688004
-0.057700000000000085,-34.90092776767045
-0.058700000000000196,-35.07069312365426
-0.059700000000000086,-35.282899818634014
-0.0607000000000002,-35.46681228761647
-0.06170000000000009,-35.636577643600276
-0.0627000000000002,-35.848784338580025
-0.06370000000000009,-36.03269680756248
-0.0647000000000002,-36.20246216354629
-0.06570000000000009,-36.37222751953009
-0.0667000000000002,-36.55613998851254
-0.0677000000000001,-36.725905344496354
-0.0687000000000002,-36.89567070048016
-0.0697000000000001,-37.122024508458566
-0.07070000000000021,-37.334231203438314
-0.0717000000000001,-37.56058501141672
-0.07270000000000021,-37.77279170639648
-0.0737000000000001,-37.99914551437489
-0.07470000000000021,-38.16891087035869
-0.0757000000000001,-38.29623488734655
-0.07670000000000021,-38.42355890433439
-0.0777000000000001,-38.5650300343209
-0.07870000000000021,-38.692354051308754
-0.0797000000000001,-38.777236729300654
-0.08070000000000022,-38.81967806829661
-0.0817000000000001,-38.86211940729255
-0.08270000000000022,-38.90456074628851
-0.08370000000000011,-38.94700208528445
-0.08470000000000022,-38.98944342428042
-0.08570000000000011,-39.046031876275016
-0.08670000000000022,-39.08847321527096
-0.08770000000000011,-39.08847321527096
-0.08870000000000022,-39.08847321527096
-0.08970000000000011,-39.130914554266916
-0.09070000000000022,-39.130914554266916
-0.09170000000000011,-39.130914554266916
-0.09270000000000023,-39.173355893262865
-0.09370000000000012,-39.21579723225882
-0.09470000000000023,-39.21579723225882
-0.09570000000000012,-39.258238571254765
-0.09670000000000023,-39.34312124924667
-0.09770000000000012,-39.38556258824262
-0.09870000000000023,-39.42800392723857
-0.09970000000000012,-39.51288660523048
-0.10070000000000023,-39.61191639622103
-0.10170000000000012,-39.654357735216976
-0.10270000000000024,-39.696799074212926
-0.10370000000000013,-39.696799074212926
-0.10470000000000024,-39.739240413208876
-0.10570000000000013,-39.696799074212926
-0.10670000000000024,-39.739240413208876
-0.10770000000000013,-39.696799074212926
-0.10870000000000024,-39.654357735216976
-0.10970000000000013,-39.61191639622103
-0.11070000000000024,-39.56947505722508
-0.11170000000000013,-39.51288660523048
-0.11270000000000002,-39.51288660523048
-0.11370000000000013,-39.51288660523048
-0.11470000000000002,-39.51288660523048
-0.11570000000000014,-39.47044526623452
-0.11670000000000003,-39.47044526623452
-0.11770000000000014,-39.42800392723857
-0.11870000000000003,-39.42800392723857
-0.11970000000000014,-39.42800392723857
-0.12070000000000003,-39.38556258824262
-0.12170000000000014,-39.38556258824262
-0.12270000000000003,-39.34312124924667
-0.12370000000000014,-39.30067991025072
-0.12470000000000003,-39.258238571254765
-0.12570000000000014,-39.21579723225882
-0.12670000000000003,-39.21579723225882
-0.12770000000000015,-39.173355893262865
-0.12870000000000004,-39.130914554266916
-0.12970000000000015,-39.08847321527096
-0.13070000000000004,-38.98944342428042
-0.13170000000000015,-38.90456074628851
-0.13270000000000004,-38.86211940729255
-0.13370000000000015,-38.777236729300654
-0.13470000000000004,-38.692354051308754
-0.13570000000000015,-38.607471373316855
-0.13670000000000004,-38.5650300343209
-0.13770000000000016,-38.46600024333035
-0.13870000000000005,-38.42355890433439
-0.13970000000000016,-38.42355890433439
-0.14070000000000005,-38.38111756533845
-0.14170000000000016,-38.33867622634249
-0.14270000000000005,-38.253793548350586
-0.14370000000000016,-38.16891087035869
-0.14470000000000005,-38.08402819236679
-0.14570000000000016,-37.99914551437489
-0.14670000000000005,-37.90011572338433
-0.14770000000000016,-37.85767438438838
-0.14870000000000005,-37.77279170639648
-0.14970000000000017,-37.73035036740053
-0.15070000000000006,-37.687909028404576
-0.15170000000000017,-37.645467689408626
-0.15270000000000006,-37.645467689408626
-0.15370000000000017,-37.645467689408626
-0.15470000000000006,-37.645467689408626
-0.15570000000000017,-37.60302635041268
-0.15670000000000006,-37.56058501141672
-0.15770000000000017,-37.51814367242077
-0.15870000000000006,-37.47570233342482
-0.15970000000000018,-37.41911388143023
-0.16070000000000007,-37.334231203438314
-0.16170000000000018,-37.291789864442364
-0.16270000000000007,-37.164465847454515
-0.16370000000000018,-37.07958316946261
-0.16470000000000007,-37.037141830466666
-0.16570000000000018,-36.99470049147071
-0.16670000000000007,-36.95225915247476
-0.16770000000000018,-36.95225915247476
-0.16870000000000007,-36.89567070048016
-0.16970000000000018,-36.8532293614842
-0.17070000000000007,-36.768346683492304
-0.17170000000000019,-36.725905344496354
-0.17270000000000008,-36.64102266650445
-0.1737000000000002,-36.55613998851254
-0.17470000000000008,-36.4288159715247
-0.1757000000000002,-36.329786180534136
-0.17670000000000008,-36.244903502542236
-0.1777000000000002,-36.20246216354629
-0.17870000000000008,-36.16002082455034
-0.1797000000000002,-36.11757948555439
-0.18070000000000008,-36.07513814655844
-0.1817000000000002,-36.03269680756248
-0.18270000000000008,-36.03269680756248
-0.1837000000000002,-35.94781412957058
-0.1847000000000001,-35.90537279057463
-0.1857000000000002,-35.806342999584075
-0.1867000000000001,-35.721460321592176
-0.1877000000000002,-35.636577643600276
-0.1887000000000001,-35.594136304604326
-0.1897000000000002,-35.55169496560837
-0.1907000000000001,-35.50925362661242
-0.1917000000000001,-35.50925362661242
-0.19269999999999998,-35.50925362661242
-0.1937000000000001,-35.50925362661242
-0.19469999999999998,-35.50925362661242
-0.1957000000000001,-35.50925362661242
-0.19669999999999999,-35.46681228761647
-0.1977000000000001,-35.46681228761647
-0.1987,-35.42437094862052
-0.1997000000000001,-35.32534115762997
-0.2007,-35.282899818634014
-0.2017000000000001,-35.240458479638065
-0.2027,-35.198017140642115
-0.2037000000000001,-35.15557580164616
-0.2047,-35.07069312365426
-0.2057000000000001,-35.07069312365426
-0.2067,-35.07069312365426
-0.2077000000000001,-35.07069312365426
-0.2087,-35.02825178465831
-0.2097000000000001,-35.02825178465831
-0.2107,-34.98581044566235
-0.2117000000000001,-34.94336910666641
-0.2127,-34.85848642867451
-0.2137000000000001,-34.8018979766799
-0.2147,-34.75945663768395
-0.2157000000000001,-34.8018979766799
-0.2167,-34.8018979766799
-0.21770000000000012,-34.8018979766799
-0.2187,-34.8018979766799
-0.21970000000000012,-34.8018979766799
-0.2207,-34.8018979766799
-0.22170000000000012,-34.8018979766799
-0.2227,-34.85848642867451
-0.22370000000000012,-34.8018979766799
-0.2247,-34.75945663768395
-0.22570000000000012,-34.717015298688004
-0.2267,-34.67457395969205
-0.22770000000000012,-34.58969128170015
-0.22870000000000001,-34.5472499427042
-0.22970000000000013,-34.462367264712285
-0.23070000000000002,-34.41992592571634
-0.23170000000000013,-34.377484586720385
-0.23270000000000002,-34.33504324772444
-0.23370000000000013,-34.278454795729836
-0.23470000000000002,-34.278454795729836
-0.23570000000000013,-34.236013456733886
-0.23670000000000002,-34.236013456733886
-0.2376999999999999,-34.193572117737936
-0.23870000000000002,-34.10868943974604
-0.2396999999999999,-34.02380676175414
-0.24070000000000003,-33.93892408376223
-0.24169999999999991,-33.85404140577033
-0.24270000000000003,-33.712570275783825
-0.24369999999999992,-33.670128936787876
-0.24470000000000003,-33.54280491980002
-0.24569999999999992,-33.45792224180811
-0.24670000000000003,-33.373039563816214
-0.24769999999999992,-33.288156885824314
-0.24870000000000003,-33.18912709483376
-0.24969999999999992,-33.06180307784591
-0.25070000000000003,-32.97692039985401
-0.2516999999999999,-32.807155043870196
-0.25270000000000004,-32.70812525287965
-0.2536999999999999,-32.53835989689585
-0.25470000000000004,-32.368594540912035
-0.2556999999999999,-32.184682071929586
-0.25670000000000004,-32.05735805494172
-0.25769999999999993,-31.930034037953877
-0.25870000000000004,-31.76026868197007
-0.25969999999999993,-31.618797551983565
-0.26070000000000004,-31.533914873991666
-0.26169999999999993,-31.40659085700382
-0.26270000000000004,-31.321708179011907
-0.26369999999999993,-31.19438416202406
-0.26470000000000005,-31.095354371033505
-0.26569999999999994,-31.010471693041605
-0.26670000000000005,-30.88314767605375
-0.26769999999999994,-30.79826499806185
-0.26870000000000005,-30.614352529079397
-0.26969999999999994,-30.529469851087494
-0.27070000000000005,-30.444587173095588
-0.27169999999999994,-30.317263156107735
-0.27270000000000005,-30.232380478115836
-0.27369999999999994,-30.147497800123933
-0.27470000000000006,-30.04846800913338
-0.27569999999999995,-29.96358533114148
-0.27670000000000006,-29.836261314153624
-0.27769999999999995,-29.751378636161718
-0.27870000000000006,-29.66649595816982
-0.27969999999999995,-29.525024828183312
-0.28070000000000006,-29.39770081119546
-0.28169999999999995,-29.35525947219951
-0.28270000000000006,-29.27037679420761
-0.28369999999999995,-29.27037679420761
-0.28470000000000006,-29.22793545521166
-0.28569999999999995,-29.18549411621571
-0.28670000000000007,-29.14305277721976
-0.28769999999999996,-29.100611438223805
-0.28870000000000007,-29.001581647233255
-0.28969999999999996,-28.91669896924135
-0.29070000000000007,-28.831816291249446
-0.29169999999999996,-28.746933613257543
-0.29270000000000007,-28.662050935265643
-0.29369999999999996,-28.53472691827779
-0.2947000000000001,-28.435697127287238
-0.29569999999999996,-28.308373110299385
-0.2967000000000001,-28.265931771303435
-0.29769999999999996,-28.18104909331153
-0.2987000000000001,-28.13860775431558
-0.29969999999999997,-28.09616641531963
-0.3007000000000001,-28.05372507632368
-0.30169999999999997,-28.05372507632368
-0.3027000000000001,-28.011283737327723
-0.30369999999999997,-28.011283737327723
-0.3047000000000001,-28.011283737327723
-0.30569999999999997,-27.954695285333123
-0.3067000000000001,-27.912253946337174
-0.3077,-27.912253946337174
-0.3087000000000001,-27.869812607341224
-0.3097,-27.827371268345274
-0.3107000000000001,-27.78492992934932
-0.3117,-27.700047251357418
-0.3127000000000001,-27.65760591236147
-0.3137,-27.572723234369565
-0.3147000000000001,-27.530281895373616
-0.3157,-27.43125210438306
-0.3167000000000001,-27.38881076538711
-0.3177,-27.34636942639116
-0.3187000000000001,-27.303928087395207
-0.3197,-27.219045409403304
-0.3207000000000001,-27.176604070407354
-0.3217,-27.049280053419505
-0.3227000000000001,-27.00683871442355
-0.3237,-26.9643973754276
-0.3247000000000001,-26.9643973754276
-0.3257,-26.907808923433
-0.3267000000000001,-26.907808923433
-0.3277,-26.822926245441096
-0.3287000000000001,-26.822926245441096
-0.3297,-26.822926245441096
-0.3307000000000001,-26.822926245441096
-0.3317,-26.822926245441096
-0.3327000000000001,-26.780484906445146
-0.3337,-26.738043567449193
-0.3347000000000001,-26.738043567449193
-0.3357,-26.69560222845324
-0.3367000000000001,-26.69560222845324
-0.3377,-26.69560222845324
-0.3387000000000001,-26.69560222845324
-0.3397,-26.738043567449193
-0.3407000000000001,-26.738043567449193
-0.3417,-26.780484906445146
-0.3427000000000001,-26.822926245441096
-0.3437,-26.822926245441096
-0.3447000000000001,-26.86536758443705
-0.3457,-26.86536758443705
-0.3467000000000001,-26.907808923433
-0.3477,-26.9643973754276
-0.3487000000000001,-27.00683871442355
-0.3497,-27.049280053419505
-0.3507000000000001,-27.091721392415455
-0.3517,-27.176604070407354
-0.3527000000000001,-27.219045409403304
-0.3537,-27.303928087395207
-0.3547000000000001,-27.34636942639116
-0.3557,-27.43125210438306
-0.35670000000000013,-27.487840556377662
-0.3577,-27.487840556377662
-0.35870000000000013,-27.530281895373616
-0.3597,-27.572723234369565
-0.36070000000000013,-27.615164573365515
-0.3617,-27.615164573365515
-0.3626999999999999,-27.65760591236147
-0.3637,-27.742488590353368
-0.3646999999999999,-27.827371268345274
-0.3657,-27.912253946337174
-0.3666999999999999,-28.011283737327723
-0.3677,-28.05372507632368
-0.3686999999999999,-28.18104909331153
-0.36970000000000003,-28.265931771303435
-0.3706999999999999,-28.308373110299385
-0.37170000000000003,-28.393255788291288
-0.3726999999999999,-28.393255788291288
-0.37370000000000003,-28.435697127287238
-0.3746999999999999,-28.478138466283188
-0.37570000000000003,-28.478138466283188
-0.3766999999999999,-28.53472691827779
-0.37770000000000004,-28.619609596269694
-0.3786999999999999,-28.662050935265643
-0.37970000000000004,-28.746933613257543
-0.3806999999999999,-28.831816291249446
-0.38170000000000004,-28.91669896924135
-0.38269999999999993,-28.959140308237306
-0.38370000000000004,-29.058170099227848
-0.38469999999999993,-29.14305277721976
-0.38570000000000004,-29.22793545521166
-0.38669999999999993,-29.27037679420761
-0.38770000000000004,-29.31281813320356
-0.38869999999999993,-29.39770081119546
-0.38970000000000005,-29.440142150191413
-0.39069999999999994,-29.581613280177915
-0.39170000000000005,-29.66649595816982
-0.39269999999999994,-29.793819975157668
-0.39370000000000005,-29.96358533114148
-0.39469999999999994,-30.04846800913338
-0.39570000000000005,-30.232380478115836
-0.39669999999999994,-30.317263156107735
-0.39770000000000005,-30.444587173095588
-0.39869999999999994,-30.571911190083444
-0.39970000000000006,-30.71338232006995
-0.40069999999999995,-30.8407063370578
-0.40170000000000006,-30.968030354045652
-0.40269999999999995,-31.095354371033505
-0.40370000000000006,-31.23682550102001
-0.40469999999999995,-31.449032195999767
-0.40570000000000006,-31.661238890979522
-0.40669999999999995,-31.887592698957924
-0.40770000000000006,-32.09979939393769
-0.40869999999999995,-32.283711862920136
-0.40970000000000006,-32.45347721890394
-0.41069999999999995,-32.62324257488775
-0.41170000000000007,-32.807155043870196
-0.41269999999999996,-32.97692039985401
-0.41370000000000007,-33.14668575583781
-0.41469999999999996,-33.288156885824314
-0.41570000000000007,-33.45792224180811
-0.41669999999999996,-33.627687597791926
-0.41770000000000007,-33.81160006677438
-0.41869999999999996,-34.02380676175414
-0.4197000000000001,-34.236013456733886
-0.42069999999999996,-34.462367264712285
-0.4217000000000001,-34.67457395969205
-0.42269999999999996,-34.90092776767045
-0.4237000000000001,-35.07069312365426
-0.42469999999999997,-35.240458479638065
-0.4257000000000001,-35.42437094862052
-0.42669999999999997,-35.636577643600276
-0.4277000000000001,-35.806342999584075
-0.42869999999999997,-36.03269680756248
-0.4297000000000001,-36.20246216354629
-0.43069999999999997,-36.47125731052064
-0.4317000000000001,-36.6834640055004
-0.4327,-36.99470049147071
-0.4337000000000001,-37.249348525446415
-0.4347,-37.51814367242077
-0.4357000000000001,-37.77279170639648
-0.4367,-37.99914551437489
-0.4377000000000001,-38.253793548350586
-0.4387,-38.522588695324956
-0.4397000000000001,-38.777236729300654
-0.4407,-39.08847321527096
-0.4417000000000001,-39.38556258824262
-0.4427,-39.696799074212926
-0.4437000000000001,-39.99388844718459
-0.4447,-40.34756627215084
-0.4457000000000001,-40.743685436113054
-0.4467,-41.182245939071215
-0.4477000000000001,-41.606659329030734
-0.4487,-42.00277849299294
-0.4497000000000001,-42.3564563179592
-0.4507,-42.71013414292546
-0.4517000000000001,-43.04966485489307
-0.4527,-43.36090134086337
-0.4537000000000001,-43.70043205283099
-0.4547,-44.096551216793195
-0.4557000000000001,-44.4926703807554
-0.4567,-44.93123088371356
-0.4577000000000001,-45.412232725667685
-0.4587,-45.85079322862584
-0.4597000000000001,-46.37423640957591
-0.4607,-46.88353247752732
-0.4617000000000001,-47.32209298048547
-0.4627,-47.76065348344364
-0.4637000000000001,-48.1992139864018
-0.4647,-48.68021582835591
-0.4657000000000001,-49.118776331314066
-0.4667,-49.642219512264134
-0.4677000000000001,-50.12322135421825
-0.4687,-50.60422319617236
-0.4697000000000001,-51.071077925127824
-0.4707,-51.55207976708194
-0.4717000000000001,-52.11796428702795
-0.4727,-52.74043725896857
-0.4737000000000001,-53.348763117910536
-0.4747,-53.9570889768525
-0.4757000000000001,-54.60785617479041
-0.4767,-55.21618203373238
-0.4777000000000001,-55.838655005673
-0.4787,-56.404539525619015
-0.4797000000000001,-57.012865384560975
-0.4807,-57.62119124350295
-0.48170000000000013,-58.27195844144086
-0.4827,-58.92272563937878
-0.48370000000000013,-59.6300812893113
-0.4847,-60.36573116524111
-0.48570000000000013,-61.20041083216149
-0.4867,-60.93161568518713
-0.48570000000000013,-59.02175543036933
-0.4847,-57.408984548523186
-0.48370000000000013,-55.96597902266086
-0.4827,-54.69273885278232
-0.48170000000000013,-53.518528473894335
-0.4807,-52.471642111994214
-0.4797000000000001,-51.46719708909004
-0.4787,-50.60422319617236
-0.4777000000000001,-49.81198486824794
-0.4767,-49.076334992318124
-0.4757000000000001,-48.36897934238561
-0.4747,-47.71821214444768
-0.4737000000000001,-47.10988628550572
-0.4727,-46.544001765559706
-0.4717000000000001,-45.93567590661774
-0.4707,-45.32735004767578
-0.4697000000000001,-44.80390686672572
-0.4687,-44.223875233781044
-0.4677000000000001,-43.70043205283099
-0.4667,-43.17698887188092
-0.4657000000000001,-42.653545690930855
-0.4647,-42.130102509980794
