Dec. 17, 2024   09:03:35
Cyclic Voltammetry
File: c:/users/guazh/data/banditlqround7_x0exp667_r5/2024-12-16-exp679\exp679-2024-12-17t08_55_02-arkoh\exp679_cv_50mvs_efin_-1500mv.bin
Data Source:  Experiment
Instrument Model:  CHI760E
Header: CV ran at 50 mVs
Note: 

Init E (V) = -1
High E (V) = -1
Low E (V) = -1.5
Final E (V) = -1
Init P/N = N
Scan Rate (V/s) = 0.05
Segment = 7
Sample Interval (V) = 0.001
Quiet Time (sec) = 60
Sensitivity (A/V) = 0.001
Comp R (ohm) = 1.1

Results:

Channel 1:
Segment 1:

Segment 2:

Segment 3:

Segment 4:

Segment 5:

Segment 6:

Segment 7:

Potential/V, Current/A

-1.000, -2.666e-5
-1.001, 2.300e-5
-1.002, 5.419e-5
-1.003, 7.907e-5
-1.004, 9.971e-5
-1.005, 1.143e-4
-1.006, 1.263e-4
-1.007, 1.388e-4
-1.008, 1.520e-4
-1.009, 1.639e-4
-1.010, 1.721e-4
-1.011, 1.791e-4
-1.012, 1.877e-4
-1.013, 1.974e-4
-1.014, 2.066e-4
-1.015, 2.131e-4
-1.016, 2.178e-4
-1.017, 2.247e-4
-1.018, 2.332e-4
-1.019, 2.410e-4
-1.020, 2.461e-4
-1.021, 2.502e-4
-1.022, 2.566e-4
-1.023, 2.649e-4
-1.024, 2.719e-4
-1.025, 2.759e-4
-1.026, 2.791e-4
-1.027, 2.847e-4
-1.028, 2.924e-4
-1.029, 2.991e-4
-1.030, 3.036e-4
-1.031, 3.077e-4
-1.032, 3.126e-4
-1.033, 3.198e-4
-1.034, 3.260e-4
-1.035, 3.300e-4
-1.036, 3.340e-4
-1.037, 3.391e-4
-1.038, 3.468e-4
-1.039, 3.537e-4
-1.040, 3.574e-4
-1.041, 3.613e-4
-1.042, 3.666e-4
-1.043, 3.737e-4
-1.044, 3.807e-4
-1.045, 3.850e-4
-1.046, 3.889e-4
-1.047, 3.947e-4
-1.048, 4.026e-4
-1.049, 4.095e-4
-1.050, 4.139e-4
-1.051, 4.170e-4
-1.052, 4.231e-4
-1.053, 4.308e-4
-1.054, 4.378e-4
-1.055, 4.423e-4
-1.056, 4.457e-4
-1.057, 4.530e-4
-1.058, 4.614e-4
-1.059, 4.689e-4
-1.060, 4.741e-4
-1.061, 4.774e-4
-1.062, 4.838e-4
-1.063, 4.927e-4
-1.064, 4.997e-4
-1.065, 5.050e-4
-1.066, 5.098e-4
-1.067, 5.168e-4
-1.068, 5.256e-4
-1.069, 5.317e-4
-1.070, 5.379e-4
-1.071, 5.425e-4
-1.072, 5.493e-4
-1.073, 5.580e-4
-1.074, 5.663e-4
-1.075, 5.726e-4
-1.076, 5.776e-4
-1.077, 5.847e-4
-1.078, 5.931e-4
-1.079, 6.007e-4
-1.080, 6.057e-4
-1.081, 6.111e-4
-1.082, 6.190e-4
-1.083, 6.278e-4
-1.084, 6.369e-4
-1.085, 6.429e-4
-1.086, 6.487e-4
-1.087, 6.569e-4
-1.088, 6.665e-4
-1.089, 6.752e-4
-1.090, 6.806e-4
-1.091, 6.862e-4
-1.092, 6.936e-4
-1.093, 7.031e-4
-1.094, 7.123e-4
-1.095, 7.194e-4
-1.096, 7.246e-4
-1.097, 7.329e-4
-1.098, 7.437e-4
-1.099, 7.535e-4
-1.100, 7.588e-4
-1.101, 7.638e-4
-1.102, 7.732e-4
-1.103, 7.828e-4
-1.104, 7.920e-4
-1.105, 7.995e-4
-1.106, 8.061e-4
-1.107, 8.146e-4
-1.108, 8.250e-4
-1.109, 8.337e-4
-1.110, 8.398e-4
-1.111, 8.457e-4
-1.112, 8.541e-4
-1.113, 8.648e-4
-1.114, 8.747e-4
-1.115, 8.815e-4
-1.116, 8.883e-4
-1.117, 8.967e-4
-1.118, 9.071e-4
-1.119, 9.153e-4
-1.120, 9.243e-4
-1.121, 9.309e-4
-1.122, 9.373e-4
-1.123, 9.679e-4
-1.124, 9.843e-4
-1.125, 9.902e-4
-1.126, 9.964e-4
-1.127, 1.004e-3
-1.128, 1.013e-3
-1.129, 1.022e-3
-1.130, 1.029e-3
-1.131, 1.037e-3
-1.132, 1.046e-3
-1.133, 1.057e-3
-1.134, 1.066e-3
-1.135, 1.073e-3
-1.136, 1.081e-3
-1.137, 1.090e-3
-1.138, 1.101e-3
-1.139, 1.112e-3
-1.140, 1.120e-3
-1.141, 1.126e-3
-1.142, 1.135e-3
-1.143, 1.148e-3
-1.144, 1.159e-3
-1.145, 1.166e-3
-1.146, 1.171e-3
-1.147, 1.182e-3
-1.148, 1.194e-3
-1.149, 1.204e-3
-1.150, 1.212e-3
-1.151, 1.219e-3
-1.152, 1.229e-3
-1.153, 1.240e-3
-1.154, 1.251e-3
-1.155, 1.260e-3
-1.156, 1.269e-3
-1.157, 1.276e-3
-1.158, 1.285e-3
-1.159, 1.296e-3
-1.160, 1.304e-3
-1.161, 1.313e-3
-1.162, 1.324e-3
-1.163, 1.336e-3
-1.164, 1.347e-3
-1.165, 1.355e-3
-1.166, 1.363e-3
-1.167, 1.373e-3
-1.168, 1.384e-3
-1.169, 1.395e-3
-1.170, 1.403e-3
-1.171, 1.410e-3
-1.172, 1.423e-3
-1.173, 1.434e-3
-1.174, 1.446e-3
-1.175, 1.454e-3
-1.176, 1.461e-3
-1.177, 1.471e-3
-1.178, 1.486e-3
-1.179, 1.499e-3
-1.180, 1.507e-3
-1.181, 1.513e-3
-1.182, 1.524e-3
-1.183, 1.537e-3
-1.184, 1.549e-3
-1.185, 1.557e-3
-1.186, 1.567e-3
-1.187, 1.578e-3
-1.188, 1.591e-3
-1.189, 1.603e-3
-1.190, 1.613e-3
-1.191, 1.623e-3
-1.192, 1.635e-3
-1.193, 1.647e-3
-1.194, 1.660e-3
-1.195, 1.668e-3
-1.196, 1.677e-3
-1.197, 1.688e-3
-1.198, 1.703e-3
-1.199, 1.713e-3
-1.200, 1.721e-3
-1.201, 1.728e-3
-1.202, 1.740e-3
-1.203, 1.755e-3
-1.204, 1.768e-3
-1.205, 1.779e-3
-1.206, 1.786e-3
-1.207, 1.797e-3
-1.208, 1.811e-3
-1.209, 1.823e-3
-1.210, 1.832e-3
-1.211, 1.842e-3
-1.212, 1.854e-3
-1.213, 1.860e-3
-1.214, 1.876e-3
-1.215, 1.889e-3
-1.216, 1.899e-3
-1.217, 1.914e-3
-1.218, 1.927e-3
-1.219, 1.941e-3
-1.220, 1.952e-3
-1.221, 1.962e-3
-1.222, 1.973e-3
-1.223, 1.988e-3
-1.224, 1.998e-3
-1.225, 2.008e-3
-1.226, 2.021e-3
-1.227, 2.038e-3
-1.228, 2.053e-3
-1.229, 2.064e-3
-1.230, 2.071e-3
-1.231, 2.084e-3
-1.232, 2.097e-3
-1.233, 2.117e-3
-1.234, 2.139e-3
-1.235, 2.152e-3
-1.236, 2.161e-3
-1.237, 2.173e-3
-1.238, 2.189e-3
-1.239, 2.201e-3
-1.240, 2.211e-3
-1.241, 2.221e-3
-1.242, 2.237e-3
-1.243, 2.253e-3
-1.244, 2.266e-3
-1.245, 2.276e-3
-1.246, 2.289e-3
-1.247, 2.301e-3
-1.248, 2.317e-3
-1.249, 2.329e-3
-1.250, 2.340e-3
-1.251, 2.348e-3
-1.252, 2.364e-3
-1.253, 2.378e-3
-1.254, 2.390e-3
-1.255, 2.405e-3
-1.256, 2.416e-3
-1.257, 2.428e-3
-1.258, 2.441e-3
-1.259, 2.455e-3
-1.260, 2.465e-3
-1.261, 2.476e-3
-1.262, 2.496e-3
-1.263, 2.510e-3
-1.264, 2.523e-3
-1.265, 2.535e-3
-1.266, 2.544e-3
-1.267, 2.558e-3
-1.268, 2.575e-3
-1.269, 2.598e-3
-1.270, 2.609e-3
-1.271, 2.627e-3
-1.272, 2.643e-3
-1.273, 2.653e-3
-1.274, 2.675e-3
-1.275, 2.690e-3
-1.276, 2.700e-3
-1.277, 2.715e-3
-1.278, 2.732e-3
-1.279, 2.749e-3
-1.280, 2.761e-3
-1.281, 2.770e-3
-1.282, 2.784e-3
-1.283, 2.796e-3
-1.284, 2.807e-3
-1.285, 2.813e-3
-1.286, 2.826e-3
-1.287, 2.841e-3
-1.288, 2.850e-3
-1.289, 2.866e-3
-1.290, 2.881e-3
-1.291, 2.888e-3
-1.292, 2.899e-3
-1.293, 2.912e-3
-1.294, 2.931e-3
-1.295, 2.948e-3
-1.296, 2.964e-3
-1.297, 2.975e-3
-1.298, 2.989e-3
-1.299, 2.999e-3
-1.300, 3.009e-3
-1.301, 3.018e-3
-1.302, 3.031e-3
-1.303, 3.044e-3
-1.304, 3.060e-3
-1.305, 3.078e-3
-1.306, 3.095e-3
-1.307, 3.103e-3
-1.308, 3.121e-3
-1.309, 3.131e-3
-1.310, 3.138e-3
-1.311, 3.150e-3
-1.312, 3.165e-3
-1.313, 3.180e-3
-1.314, 3.192e-3
-1.315, 3.198e-3
-1.316, 3.205e-3
-1.317, 3.204e-3
-1.318, 3.215e-3
-1.319, 3.224e-3
-1.320, 3.231e-3
-1.321, 3.236e-3
-1.322, 3.244e-3
-1.323, 3.256e-3
-1.324, 3.265e-3
-1.325, 3.269e-3
-1.326, 3.280e-3
-1.327, 3.290e-3
-1.328, 3.303e-3
-1.329, 3.314e-3
-1.330, 3.320e-3
-1.331, 3.329e-3
-1.332, 3.337e-3
-1.333, 3.344e-3
-1.334, 3.356e-3
-1.335, 3.360e-3
-1.336, 3.363e-3
-1.337, 3.368e-3
-1.338, 3.378e-3
-1.339, 3.387e-3
-1.340, 3.394e-3
-1.341, 3.397e-3
-1.342, 3.401e-3
-1.343, 3.405e-3
-1.344, 3.411e-3
-1.345, 3.414e-3
-1.346, 3.417e-3
-1.347, 3.431e-3
-1.348, 3.445e-3
-1.349, 3.448e-3
-1.350, 3.450e-3
-1.351, 3.458e-3
-1.352, 3.464e-3
-1.353, 3.472e-3
-1.354, 3.475e-3
-1.355, 3.465e-3
-1.356, 3.469e-3
-1.357, 3.475e-3
-1.358, 3.476e-3
-1.359, 3.486e-3
-1.360, 3.490e-3
-1.361, 3.494e-3
-1.362, 3.497e-3
-1.363, 3.500e-3
-1.364, 3.507e-3
-1.365, 3.505e-3
-1.366, 3.503e-3
-1.367, 3.505e-3
-1.368, 3.510e-3
-1.369, 3.514e-3
-1.370, 3.513e-3
-1.371, 3.512e-3
-1.372, 3.521e-3
-1.373, 3.524e-3
-1.374, 3.523e-3
-1.375, 3.522e-3
-1.376, 3.525e-3
-1.377, 3.528e-3
-1.378, 3.532e-3
-1.379, 3.532e-3
-1.380, 3.527e-3
-1.381, 3.524e-3
-1.382, 3.524e-3
-1.383, 3.528e-3
-1.384, 3.528e-3
-1.385, 3.523e-3
-1.386, 3.519e-3
-1.387, 3.519e-3
-1.388, 3.521e-3
-1.389, 3.519e-3
-1.390, 3.507e-3
-1.391, 3.508e-3
-1.392, 3.511e-3
-1.393, 3.519e-3
-1.394, 3.522e-3
-1.395, 3.523e-3
-1.396, 3.521e-3
-1.397, 3.525e-3
-1.398, 3.530e-3
-1.399, 3.536e-3
-1.400, 3.538e-3
-1.401, 3.539e-3
-1.402, 3.544e-3
-1.403, 3.554e-3
-1.404, 3.558e-3
-1.405, 3.558e-3
-1.406, 3.560e-3
-1.407, 3.565e-3
-1.408, 3.570e-3
-1.409, 3.577e-3
-1.410, 3.580e-3
-1.411, 3.589e-3
-1.412, 3.597e-3
-1.413, 3.608e-3
-1.414, 3.618e-3
-1.415, 3.619e-3
-1.416, 3.619e-3
-1.417, 3.622e-3
-1.418, 3.633e-3
-1.419, 3.643e-3
-1.420, 3.654e-3
-1.421, 3.666e-3
-1.422, 3.695e-3
-1.423, 3.710e-3
-1.424, 3.725e-3
-1.425, 3.735e-3
-1.426, 3.742e-3
-1.427, 3.758e-3
-1.428, 3.772e-3
-1.429, 3.788e-3
-1.430, 3.798e-3
-1.431, 3.811e-3
-1.432, 3.828e-3
-1.433, 3.846e-3
-1.434, 3.863e-3
-1.435, 3.883e-3
-1.436, 3.903e-3
-1.437, 3.924e-3
-1.438, 3.945e-3
-1.439, 3.966e-3
-1.440, 3.985e-3
-1.441, 4.007e-3
-1.442, 4.035e-3
-1.443, 4.065e-3
-1.444, 4.088e-3
-1.445, 4.112e-3
-1.446, 4.135e-3
-1.447, 4.163e-3
-1.448, 4.193e-3
-1.449, 4.222e-3
-1.450, 4.249e-3
-1.451, 4.280e-3
-1.452, 4.314e-3
-1.453, 4.347e-3
-1.454, 4.384e-3
-1.455, 4.416e-3
-1.456, 4.447e-3
-1.457, 4.482e-3
-1.458, 4.518e-3
-1.459, 4.557e-3
-1.460, 4.596e-3
-1.461, 4.634e-3
-1.462, 4.672e-3
-1.463, 4.714e-3
-1.464, 4.750e-3
-1.465, 4.789e-3
-1.466, 4.826e-3
-1.467, 4.870e-3
-1.468, 4.920e-3
-1.469, 4.965e-3
-1.470, 5.010e-3
-1.471, 5.057e-3
-1.472, 5.105e-3
-1.473, 5.155e-3
-1.474, 5.204e-3
-1.475, 5.247e-3
-1.476, 5.296e-3
-1.477, 5.346e-3
-1.478, 5.407e-3
-1.479, 5.472e-3
-1.480, 5.527e-3
-1.481, 5.572e-3
-1.482, 5.617e-3
-1.483, 5.669e-3
-1.484, 5.725e-3
-1.485, 5.784e-3
-1.486, 5.853e-3
-1.487, 5.919e-3
-1.488, 5.982e-3
-1.489, 6.054e-3
-1.490, 6.113e-3
-1.491, 6.178e-3
-1.492, 6.246e-3
-1.493, 6.309e-3
-1.494, 6.366e-3
-1.495, 6.431e-3
-1.496, 6.510e-3
-1.497, 6.581e-3
-1.498, 6.654e-3
-1.499, 6.731e-3
-1.500, 6.717e-3
-1.499, 6.627e-3
-1.498, 6.570e-3
-1.497, 6.522e-3
-1.496, 6.463e-3
-1.495, 6.400e-3
-1.494, 6.339e-3
-1.493, 6.278e-3
-1.492, 6.219e-3
-1.491, 6.164e-3
-1.490, 6.127e-3
-1.489, 6.094e-3
-1.488, 6.034e-3
-1.487, 5.980e-3
-1.486, 5.912e-3
-1.485, 5.852e-3
-1.484, 5.793e-3
-1.483, 5.739e-3
-1.482, 5.689e-3
-1.481, 5.639e-3
-1.480, 5.570e-3
-1.479, 5.510e-3
-1.478, 5.457e-3
-1.477, 5.404e-3
-1.476, 5.339e-3
-1.475, 5.277e-3
-1.474, 5.219e-3
-1.473, 5.170e-3
-1.472, 5.102e-3
-1.471, 5.052e-3
-1.470, 4.992e-3
-1.469, 4.938e-3
-1.468, 4.879e-3
-1.467, 4.818e-3
-1.466, 4.761e-3
-1.465, 4.697e-3
-1.464, 4.638e-3
-1.463, 4.595e-3
-1.462, 4.531e-3
-1.461, 4.479e-3
-1.460, 4.421e-3
-1.459, 4.364e-3
-1.458, 4.298e-3
-1.457, 4.237e-3
-1.456, 4.201e-3
-1.455, 4.156e-3
-1.454, 4.102e-3
-1.453, 4.049e-3
-1.452, 4.003e-3
-1.451, 3.945e-3
-1.450, 3.887e-3
-1.449, 3.819e-3
-1.448, 3.781e-3
-1.447, 3.727e-3
-1.446, 3.673e-3
-1.445, 3.614e-3
-1.444, 3.556e-3
-1.443, 3.509e-3
-1.442, 3.469e-3
-1.441, 3.414e-3
-1.440, 3.362e-3
-1.439, 3.317e-3
-1.438, 3.268e-3
-1.437, 3.212e-3
-1.436, 3.158e-3
-1.435, 3.106e-3
-1.434, 3.064e-3
-1.433, 3.033e-3
-1.432, 2.991e-3
-1.431, 2.949e-3
-1.430, 2.902e-3
-1.429, 2.850e-3
-1.428, 2.807e-3
-1.427, 2.759e-3
-1.426, 2.718e-3
-1.425, 2.682e-3
-1.424, 2.639e-3
-1.423, 2.595e-3
-1.422, 2.548e-3
-1.421, 2.510e-3
-1.420, 2.465e-3
-1.419, 2.425e-3
-1.418, 2.392e-3
-1.417, 2.349e-3
-1.416, 2.308e-3
-1.415, 2.263e-3
-1.414, 2.225e-3
-1.413, 2.188e-3
-1.412, 2.155e-3
-1.411, 2.116e-3
-1.410, 2.076e-3
-1.409, 2.034e-3
-1.408, 1.994e-3
-1.407, 1.960e-3
-1.406, 1.930e-3
-1.405, 1.903e-3
-1.404, 1.855e-3
-1.403, 1.817e-3
-1.402, 1.781e-3
-1.401, 1.748e-3
-1.400, 1.715e-3
-1.399, 1.690e-3
-1.398, 1.654e-3
-1.397, 1.619e-3
-1.396, 1.590e-3
-1.395, 1.553e-3
-1.394, 1.521e-3
-1.393, 1.489e-3
-1.392, 1.461e-3
-1.391, 1.426e-3
-1.390, 1.391e-3
-1.389, 1.360e-3
-1.388, 1.338e-3
-1.387, 1.309e-3
-1.386, 1.277e-3
-1.385, 1.245e-3
-1.384, 1.217e-3
-1.383, 1.187e-3
-1.382, 1.162e-3
-1.381, 1.131e-3
-1.380, 1.102e-3
-1.379, 1.078e-3
-1.378, 1.049e-3
-1.377, 1.024e-3
-1.376, 1.002e-3
-1.375, 9.722e-4
-1.374, 9.504e-4
-1.373, 9.296e-4
-1.372, 9.030e-4
-1.371, 8.780e-4
-1.370, 8.530e-4
-1.369, 8.245e-4
-1.368, 8.018e-4
-1.367, 7.821e-4
-1.366, 7.613e-4
-1.365, 7.360e-4
-1.364, 7.124e-4
-1.363, 6.959e-4
-1.362, 6.765e-4
-1.361, 6.531e-4
-1.360, 6.323e-4
-1.359, 6.113e-4
-1.358, 5.906e-4
-1.357, 5.726e-4
-1.356, 5.522e-4
-1.355, 5.308e-4
-1.354, 5.128e-4
-1.353, 4.970e-4
-1.352, 4.802e-4
-1.351, 4.585e-4
-1.350, 4.392e-4
-1.349, 4.260e-4
-1.348, 4.075e-4
-1.347, 3.910e-4
-1.346, 3.746e-4
-1.345, 3.552e-4
-1.344, 3.372e-4
-1.343, 3.238e-4
-1.342, 3.093e-4
-1.341, 2.939e-4
-1.340, 2.772e-4
-1.339, 2.621e-4
-1.338, 2.487e-4
-1.337, 2.346e-4
-1.336, 2.208e-4
-1.335, 2.040e-4
-1.334, 1.906e-4
-1.333, 1.806e-4
-1.332, 1.677e-4
-1.331, 1.539e-4
-1.330, 1.383e-4
-1.329, 1.246e-4
-1.328, 1.143e-4
-1.327, 1.030e-4
-1.326, 9.005e-5
-1.325, 7.612e-5
-1.324, 6.373e-5
-1.323, 5.459e-5
-1.322, 4.491e-5
-1.321, 3.228e-5
-1.320, 1.948e-5
-1.319, 7.882e-6
-1.318, -1.044e-6
-1.317, -9.317e-6
-1.316, -2.089e-5
-1.315, -3.327e-5
-1.314, -4.355e-5
-1.313, -5.179e-5
-1.312, -5.968e-5
-1.311, -7.001e-5
-1.310, -8.188e-5
-1.309, -8.999e-5
-1.308, -9.779e-5
-1.307, -1.062e-4
-1.306, -1.159e-4
-1.305, -1.267e-4
-1.304, -1.318e-4
-1.303, -1.410e-4
-1.302, -1.487e-4
-1.301, -1.577e-4
-1.300, -1.677e-4
-1.299, -1.763e-4
-1.298, -1.823e-4
-1.297, -1.896e-4
-1.296, -1.973e-4
-1.295, -2.070e-4
-1.294, -2.156e-4
-1.293, -2.210e-4
-1.292, -2.262e-4
-1.291, -2.349e-4
-1.290, -2.442e-4
-1.289, -2.527e-4
-1.288, -2.576e-4
-1.287, -2.616e-4
-1.286, -2.696e-4
-1.285, -2.790e-4
-1.284, -2.867e-4
-1.283, -2.900e-4
-1.282, -2.946e-4
-1.281, -3.029e-4
-1.280, -3.125e-4
-1.279, -3.192e-4
-1.278, -3.221e-4
-1.277, -3.271e-4
-1.276, -3.350e-4
-1.275, -3.426e-4
-1.274, -3.483e-4
-1.273, -3.532e-4
-1.272, -3.583e-4
-1.271, -3.653e-4
-1.270, -3.732e-4
-1.269, -3.781e-4
-1.268, -3.837e-4
-1.267, -3.876e-4
-1.266, -3.936e-4
-1.265, -4.030e-4
-1.264, -4.090e-4
-1.263, -4.112e-4
-1.262, -4.152e-4
-1.261, -4.229e-4
-1.260, -4.320e-4
-1.259, -4.364e-4
-1.258, -4.401e-4
-1.257, -4.463e-4
-1.256, -4.538e-4
-1.255, -4.592e-4
-1.254, -4.652e-4
-1.253, -4.697e-4
-1.252, -4.760e-4
-1.251, -4.798e-4
-1.250, -4.893e-4
-1.249, -4.951e-4
-1.248, -4.986e-4
-1.247, -5.025e-4
-1.246, -5.112e-4
-1.245, -5.211e-4
-1.244, -5.226e-4
-1.243, -5.269e-4
-1.242, -5.335e-4
-1.241, -5.415e-4
-1.240, -5.473e-4
-1.239, -5.542e-4
-1.238, -5.597e-4
-1.237, -5.635e-4
-1.236, -5.707e-4
-1.235, -5.796e-4
-1.234, -5.866e-4
-1.233, -5.894e-4
-1.232, -5.945e-4
-1.231, -6.027e-4
-1.230, -6.122e-4
-1.229, -6.199e-4
-1.228, -6.250e-4
-1.227, -6.321e-4
-1.226, -6.376e-4
-1.225, -6.472e-4
-1.224, -6.541e-4
-1.223, -6.570e-4
-1.222, -6.635e-4
-1.221, -6.734e-4
-1.220, -6.886e-4
-1.219, -6.946e-4
-1.218, -6.986e-4
-1.217, -7.056e-4
-1.216, -7.143e-4
-1.215, -7.236e-4
-1.214, -7.313e-4
-1.213, -7.376e-4
-1.212, -7.450e-4
-1.211, -7.511e-4
-1.210, -7.629e-4
-1.209, -7.714e-4
-1.208, -7.769e-4
-1.207, -7.826e-4
-1.206, -7.940e-4
-1.205, -8.046e-4
-1.204, -8.108e-4
-1.203, -8.159e-4
-1.202, -8.259e-4
-1.201, -8.368e-4
-1.200, -8.448e-4
-1.199, -8.540e-4
-1.198, -8.623e-4
-1.197, -8.704e-4
-1.196, -8.771e-4
-1.195, -8.877e-4
-1.194, -8.967e-4
-1.193, -9.014e-4
-1.192, -9.091e-4
-1.191, -9.203e-4
-1.190, -9.337e-4
-1.189, -9.368e-4
-1.188, -9.435e-4
-1.187, -9.549e-4
-1.186, -9.592e-4
-1.185, -9.681e-4
-1.184, -9.791e-4
-1.183, -9.880e-4
-1.182, -9.927e-4
-1.181, -1.003e-3
-1.180, -1.017e-3
-1.179, -1.026e-3
-1.178, -1.029e-3
-1.177, -1.039e-3
-1.176, -1.051e-3
-1.175, -1.062e-3
-1.174, -1.070e-3
-1.173, -1.079e-3
-1.172, -1.089e-3
-1.171, -1.097e-3
-1.170, -1.113e-3
-1.169, -1.122e-3
-1.168, -1.120e-3
-1.167, -1.124e-3
-1.166, -1.139e-3
-1.165, -1.152e-3
-1.164, -1.160e-3
-1.163, -1.165e-3
-1.162, -1.172e-3
-1.161, -1.184e-3
-1.160, -1.189e-3
-1.159, -1.198e-3
-1.158, -1.207e-3
-1.157, -1.206e-3
-1.156, -1.218e-3
-1.155, -1.233e-3
-1.154, -1.237e-3
-1.153, -1.242e-3
-1.152, -1.253e-3
-1.151, -1.260e-3
-1.150, -1.265e-3
-1.149, -1.276e-3
-1.148, -1.284e-3
-1.147, -1.288e-3
-1.146, -1.298e-3
-1.145, -1.310e-3
-1.144, -1.316e-3
-1.143, -1.317e-3
-1.142, -1.327e-3
-1.141, -1.336e-3
-1.140, -1.337e-3
-1.139, -1.344e-3
-1.138, -1.353e-3
-1.137, -1.360e-3
-1.136, -1.369e-3
-1.135, -1.376e-3
-1.134, -1.380e-3
-1.133, -1.382e-3
-1.132, -1.396e-3
-1.131, -1.406e-3
-1.130, -1.411e-3
-1.129, -1.407e-3
-1.128, -1.410e-3
-1.127, -1.423e-3
-1.126, -1.427e-3
-1.125, -1.438e-3
-1.124, -1.449e-3
-1.123, -1.454e-3
-1.122, -1.455e-3
-1.121, -1.469e-3
-1.120, -1.477e-3
-1.119, -1.482e-3
-1.118, -1.482e-3
-1.117, -1.493e-3
-1.116, -1.497e-3
-1.115, -1.492e-3
-1.114, -1.497e-3
-1.113, -1.512e-3
-1.112, -1.517e-3
-1.111, -1.521e-3
-1.110, -1.533e-3
-1.109, -1.542e-3
-1.108, -1.531e-3
-1.107, -1.557e-3
-1.106, -1.571e-3
-1.105, -1.576e-3
-1.104, -1.577e-3
-1.103, -1.584e-3
-1.102, -1.592e-3
-1.101, -1.588e-3
-1.100, -1.596e-3
-1.099, -1.604e-3
-1.098, -1.601e-3
-1.097, -1.601e-3
-1.096, -1.606e-3
-1.095, -1.610e-3
-1.094, -1.610e-3
-1.093, -1.615e-3
-1.092, -1.627e-3
-1.091, -1.636e-3
-1.090, -1.647e-3
-1.089, -1.650e-3
-1.088, -1.648e-3
-1.087, -1.671e-3
-1.086, -1.678e-3
-1.085, -1.679e-3
-1.084, -1.682e-3
-1.083, -1.684e-3
-1.082, -1.684e-3
-1.081, -1.686e-3
-1.080, -1.698e-3
-1.079, -1.717e-3
-1.078, -1.726e-3
-1.077, -1.724e-3
-1.076, -1.728e-3
-1.075, -1.727e-3
-1.074, -1.728e-3
-1.073, -1.733e-3
-1.072, -1.757e-3
-1.071, -1.770e-3
-1.070, -1.767e-3
-1.069, -1.767e-3
-1.068, -1.765e-3
-1.067, -1.775e-3
-1.066, -1.783e-3
-1.065, -1.791e-3
-1.064, -1.789e-3
-1.063, -1.786e-3
-1.062, -1.793e-3
-1.061, -1.799e-3
-1.060, -1.806e-3
-1.059, -1.809e-3
-1.058, -1.811e-3
-1.057, -1.819e-3
-1.056, -1.822e-3
-1.055, -1.829e-3
-1.054, -1.834e-3
-1.053, -1.836e-3
-1.052, -1.840e-3
-1.051, -1.841e-3
-1.050, -1.845e-3
-1.049, -1.850e-3
-1.048, -1.860e-3
-1.047, -1.870e-3
-1.046, -1.877e-3
-1.045, -1.881e-3
-1.044, -1.886e-3
-1.043, -1.884e-3
-1.042, -1.885e-3
-1.041, -1.891e-3
-1.040, -1.888e-3
-1.039, -1.879e-3
-1.038, -1.884e-3
-1.037, -1.887e-3
-1.036, -1.894e-3
-1.035, -1.896e-3
-1.034, -1.902e-3
-1.033, -1.911e-3
-1.032, -1.938e-3
-1.031, -1.947e-3
-1.030, -1.945e-3
-1.029, -1.939e-3
-1.028, -1.927e-3
-1.027, -1.952e-3
-1.026, -1.969e-3
-1.025, -1.968e-3
-1.024, -1.950e-3
-1.023, -1.964e-3
-1.022, -1.980e-3
-1.021, -1.993e-3
-1.020, -1.994e-3
-1.019, -1.996e-3
-1.018, -1.998e-3
-1.017, -2.004e-3
-1.016, -2.014e-3
-1.015, -2.017e-3
-1.014, -2.017e-3
-1.013, -2.025e-3
-1.012, -2.033e-3
-1.011, -2.040e-3
-1.010, -2.042e-3
-1.009, -2.041e-3
-1.008, -2.053e-3
-1.007, -2.051e-3
-1.006, -2.064e-3
-1.005, -2.075e-3
-1.004, -2.064e-3
-1.003, -2.077e-3
-1.002, -2.078e-3
-1.001, -2.083e-3
-1.000, -2.009e-3
-1.001, -1.884e-3
-1.002, -1.784e-3
-1.003, -1.704e-3
-1.004, -1.631e-3
-1.005, -1.570e-3
-1.006, -1.511e-3
-1.007, -1.452e-3
-1.008, -1.392e-3
-1.009, -1.348e-3
-1.010, -1.304e-3
-1.011, -1.257e-3
-1.012, -1.208e-3
-1.013, -1.157e-3
-1.014, -1.106e-3
-1.015, -1.068e-3
-1.016, -1.030e-3
-1.017, -9.967e-4
-1.018, -9.627e-4
-1.019, -9.292e-4
-1.020, -8.922e-4
-1.021, -8.552e-4
-1.022, -8.319e-4
-1.023, -8.034e-4
-1.024, -7.730e-4
-1.025, -7.464e-4
-1.026, -7.188e-4
-1.027, -6.905e-4
-1.028, -6.618e-4
-1.029, -6.412e-4
-1.030, -6.166e-4
-1.031, -5.891e-4
-1.032, -5.641e-4
-1.033, -5.421e-4
-1.034, -5.232e-4
-1.035, -5.009e-4
-1.036, -4.751e-4
-1.037, -4.531e-4
-1.038, -4.333e-4
-1.039, -4.147e-4
-1.040, -3.956e-4
-1.041, -3.736e-4
-1.042, -3.533e-4
-1.043, -3.363e-4
-1.044, -3.212e-4
-1.045, -3.039e-4
-1.046, -2.841e-4
-1.047, -2.663e-4
-1.048, -2.503e-4
-1.049, -2.357e-4
-1.050, -2.205e-4
-1.051, -2.032e-4
-1.052, -1.860e-4
-1.053, -1.714e-4
-1.054, -1.584e-4
-1.055, -1.444e-4
-1.056, -1.279e-4
-1.057, -1.118e-4
-1.058, -9.843e-5
-1.059, -8.704e-5
-1.060, -7.388e-5
-1.061, -5.923e-5
-1.062, -4.448e-5
-1.063, -3.257e-5
-1.064, -2.253e-5
-1.065, -1.053e-5
-1.066, 3.120e-6
-1.067, 1.651e-5
-1.068, 2.797e-5
-1.069, 3.750e-5
-1.070, 4.863e-5
-1.071, 6.200e-5
-1.072, 7.427e-5
-1.073, 8.479e-5
-1.074, 9.396e-5
-1.075, 1.047e-4
-1.076, 1.168e-4
-1.077, 1.285e-4
-1.078, 1.380e-4
-1.079, 1.465e-4
-1.080, 1.560e-4
-1.081, 1.679e-4
-1.082, 1.790e-4
-1.083, 1.875e-4
-1.084, 1.953e-4
-1.085, 2.045e-4
-1.086, 2.166e-4
-1.087, 2.276e-4
-1.088, 2.355e-4
-1.089, 2.427e-4
-1.090, 2.515e-4
-1.091, 2.625e-4
-1.092, 2.746e-4
-1.093, 2.823e-4
-1.094, 2.890e-4
-1.095, 2.973e-4
-1.096, 3.073e-4
-1.097, 3.180e-4
-1.098, 3.256e-4
-1.099, 3.323e-4
-1.100, 3.409e-4
-1.101, 3.518e-4
-1.102, 3.618e-4
-1.103, 3.689e-4
-1.104, 3.733e-4
-1.105, 3.810e-4
-1.106, 3.906e-4
-1.107, 4.003e-4
-1.108, 4.084e-4
-1.109, 4.139e-4
-1.110, 4.216e-4
-1.111, 4.333e-4
-1.112, 4.421e-4
-1.113, 4.492e-4
-1.114, 4.551e-4
-1.115, 4.627e-4
-1.116, 4.726e-4
-1.117, 4.818e-4
-1.118, 4.892e-4
-1.119, 4.950e-4
-1.120, 5.027e-4
-1.121, 5.115e-4
-1.122, 5.191e-4
-1.123, 5.255e-4
-1.124, 5.314e-4
-1.125, 5.389e-4
-1.126, 5.498e-4
-1.127, 5.593e-4
-1.128, 5.657e-4
-1.129, 5.711e-4
-1.130, 5.792e-4
-1.131, 5.887e-4
-1.132, 5.982e-4
-1.133, 6.037e-4
-1.134, 6.084e-4
-1.135, 6.157e-4
-1.136, 6.242e-4
-1.137, 6.323e-4
-1.138, 6.372e-4
-1.139, 6.421e-4
-1.140, 6.507e-4
-1.141, 6.595e-4
-1.142, 6.685e-4
-1.143, 6.749e-4
-1.144, 6.808e-4
-1.145, 6.885e-4
-1.146, 6.974e-4
-1.147, 7.055e-4
-1.148, 7.115e-4
-1.149, 7.167e-4
-1.150, 7.245e-4
-1.151, 7.334e-4
-1.152, 7.415e-4
-1.153, 7.473e-4
-1.154, 7.516e-4
-1.155, 7.575e-4
-1.156, 7.672e-4
-1.157, 7.758e-4
-1.158, 7.821e-4
-1.159, 7.873e-4
-1.160, 7.943e-4
-1.161, 8.039e-4
-1.162, 8.124e-4
-1.163, 8.167e-4
-1.164, 8.195e-4
-1.165, 8.288e-4
-1.166, 8.394e-4
-1.167, 8.477e-4
-1.168, 8.525e-4
-1.169, 8.567e-4
-1.170, 8.656e-4
-1.171, 8.758e-4
-1.172, 8.849e-4
-1.173, 8.903e-4
-1.174, 8.944e-4
-1.175, 8.990e-4
-1.176, 9.072e-4
-1.177, 9.166e-4
-1.178, 9.227e-4
-1.179, 9.291e-4
-1.180, 9.368e-4
-1.181, 9.447e-4
-1.182, 9.539e-4
-1.183, 9.588e-4
-1.184, 9.645e-4
-1.185, 9.713e-4
-1.186, 9.803e-4
-1.187, 9.888e-4
-1.188, 9.959e-4
-1.189, 1.001e-3
-1.190, 1.005e-3
-1.191, 1.018e-3
-1.192, 1.028e-3
-1.193, 1.035e-3
-1.194, 1.043e-3
-1.195, 1.050e-3
-1.196, 1.055e-3
-1.197, 1.062e-3
-1.198, 1.068e-3
-1.199, 1.073e-3
-1.200, 1.079e-3
-1.201, 1.089e-3
-1.202, 1.097e-3
-1.203, 1.102e-3
-1.204, 1.107e-3
-1.205, 1.114e-3
-1.206, 1.123e-3
-1.207, 1.129e-3
-1.208, 1.132e-3
-1.209, 1.138e-3
-1.210, 1.145e-3
-1.211, 1.154e-3
-1.212, 1.162e-3
-1.213, 1.166e-3
-1.214, 1.172e-3
-1.215, 1.182e-3
-1.216, 1.189e-3
-1.217, 1.196e-3
-1.218, 1.201e-3
-1.219, 1.206e-3
-1.220, 1.212e-3
-1.221, 1.220e-3
-1.222, 1.227e-3
-1.223, 1.230e-3
-1.224, 1.236e-3
-1.225, 1.242e-3
-1.226, 1.249e-3
-1.227, 1.255e-3
-1.228, 1.260e-3
-1.229, 1.266e-3
-1.230, 1.272e-3
-1.231, 1.281e-3
-1.232, 1.288e-3
-1.233, 1.294e-3
-1.234, 1.300e-3
-1.235, 1.306e-3
-1.236, 1.312e-3
-1.237, 1.319e-3
-1.238, 1.325e-3
-1.239, 1.331e-3
-1.240, 1.339e-3
-1.241, 1.362e-3
-1.242, 1.390e-3
-1.243, 1.386e-3
-1.244, 1.388e-3
-1.245, 1.393e-3
-1.246, 1.399e-3
-1.247, 1.404e-3
-1.248, 1.406e-3
-1.249, 1.410e-3
-1.250, 1.414e-3
-1.251, 1.421e-3
-1.252, 1.426e-3
-1.253, 1.429e-3
-1.254, 1.432e-3
-1.255, 1.438e-3
-1.256, 1.445e-3
-1.257, 1.450e-3
-1.258, 1.453e-3
-1.259, 1.455e-3
-1.260, 1.462e-3
-1.261, 1.469e-3
-1.262, 1.476e-3
-1.263, 1.479e-3
-1.264, 1.481e-3
-1.265, 1.488e-3
-1.266, 1.496e-3
-1.267, 1.499e-3
-1.268, 1.503e-3
-1.269, 1.506e-3
-1.270, 1.509e-3
-1.271, 1.515e-3
-1.272, 1.520e-3
-1.273, 1.522e-3
-1.274, 1.523e-3
-1.275, 1.528e-3
-1.276, 1.534e-3
-1.277, 1.538e-3
-1.278, 1.541e-3
-1.279, 1.545e-3
-1.280, 1.551e-3
-1.281, 1.557e-3
-1.282, 1.561e-3
-1.283, 1.562e-3
-1.284, 1.565e-3
-1.285, 1.569e-3
-1.286, 1.575e-3
-1.287, 1.581e-3
-1.288, 1.583e-3
-1.289, 1.583e-3
-1.290, 1.588e-3
-1.291, 1.594e-3
-1.292, 1.597e-3
-1.293, 1.595e-3
-1.294, 1.598e-3
-1.295, 1.603e-3
-1.296, 1.610e-3
-1.297, 1.613e-3
-1.298, 1.613e-3
-1.299, 1.613e-3
-1.300, 1.616e-3
-1.301, 1.618e-3
-1.302, 1.629e-3
-1.303, 1.635e-3
-1.304, 1.633e-3
-1.305, 1.633e-3
-1.306, 1.637e-3
-1.307, 1.637e-3
-1.308, 1.637e-3
-1.309, 1.636e-3
-1.310, 1.640e-3
-1.311, 1.647e-3
-1.312, 1.650e-3
-1.313, 1.651e-3
-1.314, 1.654e-3
-1.315, 1.656e-3
-1.316, 1.660e-3
-1.317, 1.660e-3
-1.318, 1.662e-3
-1.319, 1.659e-3
-1.320, 1.659e-3
-1.321, 1.667e-3
-1.322, 1.675e-3
-1.323, 1.674e-3
-1.324, 1.669e-3
-1.325, 1.672e-3
-1.326, 1.676e-3
-1.327, 1.678e-3
-1.328, 1.676e-3
-1.329, 1.675e-3
-1.330, 1.675e-3
-1.331, 1.676e-3
-1.332, 1.675e-3
-1.333, 1.674e-3
-1.334, 1.675e-3
-1.335, 1.682e-3
-1.336, 1.684e-3
-1.337, 1.686e-3
-1.338, 1.683e-3
-1.339, 1.681e-3
-1.340, 1.685e-3
-1.341, 1.687e-3
-1.342, 1.689e-3
-1.343, 1.690e-3
-1.344, 1.689e-3
-1.345, 1.692e-3
-1.346, 1.695e-3
-1.347, 1.693e-3
-1.348, 1.694e-3
-1.349, 1.693e-3
-1.350, 1.697e-3
-1.351, 1.701e-3
-1.352, 1.700e-3
-1.353, 1.700e-3
-1.354, 1.701e-3
-1.355, 1.704e-3
-1.356, 1.705e-3
-1.357, 1.706e-3
-1.358, 1.706e-3
-1.359, 1.706e-3
-1.360, 1.709e-3
-1.361, 1.712e-3
-1.362, 1.715e-3
-1.363, 1.719e-3
-1.364, 1.721e-3
-1.365, 1.723e-3
-1.366, 1.730e-3
-1.367, 1.733e-3
-1.368, 1.735e-3
-1.369, 1.737e-3
-1.370, 1.742e-3
-1.371, 1.749e-3
-1.372, 1.756e-3
-1.373, 1.760e-3
-1.374, 1.766e-3
-1.375, 1.773e-3
-1.376, 1.775e-3
-1.377, 1.780e-3
-1.378, 1.783e-3
-1.379, 1.790e-3
-1.380, 1.800e-3
-1.381, 1.806e-3
-1.382, 1.812e-3
-1.383, 1.817e-3
-1.384, 1.824e-3
-1.385, 1.834e-3
-1.386, 1.845e-3
-1.387, 1.851e-3
-1.388, 1.857e-3
-1.389, 1.864e-3
-1.390, 1.876e-3
-1.391, 1.892e-3
-1.392, 1.898e-3
-1.393, 1.905e-3
-1.394, 1.917e-3
-1.395, 1.931e-3
-1.396, 1.942e-3
-1.397, 1.953e-3
-1.398, 1.963e-3
-1.399, 1.977e-3
-1.400, 1.989e-3
-1.401, 2.006e-3
-1.402, 2.019e-3
-1.403, 2.032e-3
-1.404, 2.038e-3
-1.405, 2.058e-3
-1.406, 2.073e-3
-1.407, 2.087e-3
-1.408, 2.101e-3
-1.409, 2.123e-3
-1.410, 2.142e-3
-1.411, 2.159e-3
-1.412, 2.173e-3
-1.413, 2.188e-3
-1.414, 2.206e-3
-1.415, 2.227e-3
-1.416, 2.248e-3
-1.417, 2.265e-3
-1.418, 2.285e-3
-1.419, 2.304e-3
-1.420, 2.328e-3
-1.421, 2.351e-3
-1.422, 2.370e-3
-1.423, 2.393e-3
-1.424, 2.411e-3
-1.425, 2.431e-3
-1.426, 2.453e-3
-1.427, 2.474e-3
-1.428, 2.496e-3
-1.429, 2.523e-3
-1.430, 2.548e-3
-1.431, 2.579e-3
-1.432, 2.607e-3
-1.433, 2.631e-3
-1.434, 2.657e-3
-1.435, 2.680e-3
-1.436, 2.706e-3
-1.437, 2.737e-3
-1.438, 2.769e-3
-1.439, 2.796e-3
-1.440, 2.829e-3
-1.441, 2.872e-3
-1.442, 2.898e-3
-1.443, 2.923e-3
-1.444, 2.955e-3
-1.445, 2.989e-3
-1.446, 3.026e-3
-1.447, 3.060e-3
-1.448, 3.093e-3
-1.449, 3.131e-3
-1.450, 3.177e-3
-1.451, 3.211e-3
-1.452, 3.244e-3
-1.453, 3.277e-3
-1.454, 3.320e-3
-1.455, 3.374e-3
-1.456, 3.416e-3
-1.457, 3.442e-3
-1.458, 3.480e-3
-1.459, 3.527e-3
-1.460, 3.573e-3
-1.461, 3.620e-3
-1.462, 3.667e-3
-1.463, 3.718e-3
-1.464, 3.762e-3
-1.465, 3.815e-3
-1.466, 3.865e-3
-1.467, 3.904e-3
-1.468, 3.956e-3
-1.469, 4.013e-3
-1.470, 4.070e-3
-1.471, 4.123e-3
-1.472, 4.192e-3
-1.473, 4.251e-3
-1.474, 4.313e-3
-1.475, 4.377e-3
-1.476, 4.433e-3
-1.477, 4.512e-3
-1.478, 4.566e-3
-1.479, 4.624e-3
-1.480, 4.684e-3
-1.481, 4.763e-3
-1.482, 4.840e-3
-1.483, 4.901e-3
-1.484, 4.962e-3
-1.485, 5.047e-3
-1.486, 5.118e-3
-1.487, 5.193e-3
-1.488, 5.265e-3
-1.489, 5.334e-3
-1.490, 5.416e-3
-1.491, 5.491e-3
-1.492, 5.576e-3
-1.493, 5.653e-3
-1.494, 5.720e-3
-1.495, 5.790e-3
-1.496, 5.862e-3
-1.497, 5.934e-3
-1.498, 6.007e-3
-1.499, 6.096e-3
-1.500, 6.100e-3
-1.499, 6.022e-3
-1.498, 5.943e-3
-1.497, 5.884e-3
-1.496, 5.843e-3
-1.495, 5.798e-3
-1.494, 5.753e-3
-1.493, 5.719e-3
-1.492, 5.669e-3
-1.491, 5.612e-3
-1.490, 5.563e-3
-1.489, 5.520e-3
-1.488, 5.475e-3
-1.487, 5.421e-3
-1.486, 5.371e-3
-1.485, 5.317e-3
-1.484, 5.268e-3
-1.483, 5.214e-3
-1.482, 5.153e-3
-1.481, 5.089e-3
-1.480, 5.044e-3
-1.479, 5.002e-3
-1.478, 4.959e-3
-1.477, 4.908e-3
-1.476, 4.864e-3
-1.475, 4.814e-3
-1.474, 4.762e-3
-1.473, 4.712e-3
-1.472, 4.654e-3
-1.471, 4.606e-3
-1.470, 4.563e-3
-1.469, 4.507e-3
-1.468, 4.468e-3
-1.467, 4.419e-3
-1.466, 4.366e-3
-1.465, 4.316e-3
-1.464, 4.260e-3
-1.463, 4.204e-3
-1.462, 4.158e-3
-1.461, 4.108e-3
-1.460, 4.056e-3
-1.459, 4.016e-3
-1.458, 3.977e-3
-1.457, 3.930e-3
-1.456, 3.874e-3
-1.455, 3.823e-3
-1.454, 3.771e-3
-1.453, 3.727e-3
-1.452, 3.681e-3
-1.451, 3.641e-3
-1.450, 3.581e-3
-1.449, 3.520e-3
-1.448, 3.473e-3
-1.447, 3.415e-3
-1.446, 3.387e-3
-1.445, 3.351e-3
-1.444, 3.260e-3
-1.443, 3.224e-3
-1.442, 3.184e-3
-1.441, 3.141e-3
-1.440, 3.110e-3
-1.439, 3.066e-3
-1.438, 3.019e-3
-1.437, 2.987e-3
-1.436, 2.930e-3
-1.435, 2.876e-3
-1.434, 2.833e-3
-1.433, 2.784e-3
-1.432, 2.734e-3
-1.431, 2.704e-3
-1.430, 2.657e-3
-1.429, 2.603e-3
-1.428, 2.569e-3
-1.427, 2.537e-3
-1.426, 2.506e-3
-1.425, 2.501e-3
-1.424, 2.464e-3
-1.423, 2.419e-3
-1.422, 2.377e-3
-1.421, 2.348e-3
-1.420, 2.301e-3
-1.419, 2.262e-3
-1.418, 2.225e-3
-1.417, 2.189e-3
-1.416, 2.165e-3
-1.415, 2.125e-3
-1.414, 2.088e-3
-1.413, 2.057e-3
-1.412, 2.022e-3
-1.411, 1.986e-3
-1.410, 1.958e-3
-1.409, 1.948e-3
-1.408, 1.906e-3
-1.407, 1.874e-3
-1.406, 1.843e-3
-1.405, 1.810e-3
-1.404, 1.775e-3
-1.403, 1.746e-3
-1.402, 1.712e-3
-1.401, 1.674e-3
-1.400, 1.639e-3
-1.399, 1.603e-3
-1.398, 1.570e-3
-1.397, 1.546e-3
-1.396, 1.520e-3
-1.395, 1.496e-3
-1.394, 1.459e-3
-1.393, 1.426e-3
-1.392, 1.398e-3
-1.391, 1.370e-3
-1.390, 1.337e-3
-1.389, 1.308e-3
-1.388, 1.278e-3
-1.387, 1.247e-3
-1.386, 1.217e-3
-1.385, 1.188e-3
-1.384, 1.160e-3
-1.383, 1.128e-3
-1.382, 1.097e-3
-1.381, 1.068e-3
-1.380, 1.041e-3
-1.379, 1.015e-3
-1.378, 9.895e-4
-1.377, 9.666e-4
-1.376, 9.393e-4
-1.375, 9.246e-4
-1.374, 8.771e-4
-1.373, 8.294e-4
-1.372, 8.101e-4
-1.371, 7.939e-4
-1.370, 7.803e-4
-1.369, 7.572e-4
-1.368, 7.365e-4
-1.367, 7.138e-4
-1.366, 6.954e-4
-1.365, 6.794e-4
-1.364, 6.595e-4
-1.363, 6.409e-4
-1.362, 6.220e-4
-1.361, 6.020e-4
-1.360, 5.853e-4
-1.359, 5.653e-4
-1.358, 5.453e-4
-1.357, 5.258e-4
-1.356, 5.076e-4
-1.355, 4.926e-4
-1.354, 4.762e-4
-1.353, 4.543e-4
-1.352, 4.352e-4
-1.351, 4.194e-4
-1.350, 4.034e-4
-1.349, 3.870e-4
-1.348, 3.664e-4
-1.347, 3.499e-4
-1.346, 3.372e-4
-1.345, 3.232e-4
-1.344, 3.065e-4
-1.343, 2.900e-4
-1.342, 2.746e-4
-1.341, 2.607e-4
-1.340, 2.469e-4
-1.339, 2.320e-4
-1.338, 2.152e-4
-1.337, 2.010e-4
-1.336, 1.903e-4
-1.335, 1.780e-4
-1.334, 1.642e-4
-1.333, 1.486e-4
-1.332, 1.349e-4
-1.331, 1.233e-4
-1.330, 1.133e-4
-1.329, 1.010e-4
-1.328, 8.766e-5
-1.327, 7.433e-5
-1.326, 6.416e-5
-1.325, 5.454e-5
-1.324, 4.218e-5
-1.323, 2.979e-5
-1.322, 1.852e-5
-1.321, 8.371e-6
-1.320, 3.530e-7
-1.319, -1.046e-5
-1.318, -2.231e-5
-1.317, -3.262e-5
-1.316, -4.160e-5
-1.315, -4.942e-5
-1.314, -5.954e-5
-1.313, -7.061e-5
-1.312, -7.985e-5
-1.311, -8.837e-5
-1.310, -9.570e-5
-1.309, -1.045e-4
-1.308, -1.145e-4
-1.307, -1.237e-4
-1.306, -1.302e-4
-1.305, -1.374e-4
-1.304, -1.475e-4
-1.303, -1.581e-4
-1.302, -1.668e-4
-1.301, -1.718e-4
-1.300, -1.771e-4
-1.299, -1.847e-4
-1.298, -1.960e-4
-1.297, -2.042e-4
-1.296, -2.100e-4
-1.295, -2.170e-4
-1.294, -2.254e-4
-1.293, -2.332e-4
-1.292, -2.415e-4
-1.291, -2.475e-4
-1.290, -2.534e-4
-1.289, -2.603e-4
-1.288, -2.672e-4
-1.287, -2.754e-4
-1.286, -2.802e-4
-1.285, -2.870e-4
-1.284, -2.939e-4
-1.283, -3.024e-4
-1.282, -3.089e-4
-1.281, -3.130e-4
-1.280, -3.206e-4
-1.279, -3.258e-4
-1.278, -3.351e-4
-1.277, -3.406e-4
-1.276, -3.442e-4
-1.275, -3.500e-4
-1.274, -3.573e-4
-1.273, -3.638e-4
-1.272, -3.686e-4
-1.271, -3.731e-4
-1.270, -3.774e-4
-1.269, -3.843e-4
-1.268, -3.923e-4
-1.267, -4.001e-4
-1.266, -4.061e-4
-1.265, -4.109e-4
-1.264, -4.152e-4
-1.263, -4.240e-4
-1.262, -4.299e-4
-1.261, -4.316e-4
-1.260, -4.363e-4
-1.259, -4.470e-4
-1.258, -4.570e-4
-1.257, -4.631e-4
-1.256, -4.625e-4
-1.255, -4.652e-4
-1.254, -4.754e-4
-1.253, -4.836e-4
-1.252, -4.906e-4
-1.251, -4.942e-4
-1.250, -4.976e-4
-1.249, -5.030e-4
-1.248, -5.081e-4
-1.247, -5.140e-4
-1.246, -5.194e-4
-1.245, -5.219e-4
-1.244, -5.282e-4
-1.243, -5.296e-4
-1.242, -5.406e-4
-1.241, -5.471e-4
-1.240, -5.482e-4
-1.239, -5.602e-4
-1.238, -5.693e-4
-1.237, -5.760e-4
-1.236, -5.762e-4
-1.235, -5.759e-4
-1.234, -5.869e-4
-1.233, -5.983e-4
-1.232, -6.052e-4
-1.231, -5.995e-4
-1.230, -6.029e-4
-1.229, -6.142e-4
-1.228, -6.188e-4
-1.227, -6.229e-4
-1.226, -6.314e-4
-1.225, -6.363e-4
-1.224, -6.427e-4
-1.223, -6.524e-4
-1.222, -6.595e-4
-1.221, -6.679e-4
-1.220, -6.751e-4
-1.219, -6.852e-4
-1.218, -6.894e-4
-1.217, -6.951e-4
-1.216, -7.045e-4
-1.215, -7.147e-4
-1.214, -7.205e-4
-1.213, -7.296e-4
-1.212, -7.363e-4
-1.211, -7.398e-4
-1.210, -7.403e-4
-1.209, -7.460e-4
-1.208, -7.594e-4
-1.207, -7.612e-4
-1.206, -7.676e-4
-1.205, -7.770e-4
-1.204, -7.985e-4
-1.203, -8.005e-4
-1.202, -8.053e-4
-1.201, -8.075e-4
-1.200, -8.184e-4
-1.199, -8.258e-4
-1.198, -8.338e-4
-1.197, -8.371e-4
-1.196, -8.558e-4
-1.195, -8.722e-4
-1.194, -8.824e-4
-1.193, -8.843e-4
-1.192, -8.763e-4
-1.191, -8.817e-4
-1.190, -8.914e-4
-1.189, -9.039e-4
-1.188, -9.154e-4
-1.187, -9.201e-4
-1.186, -9.280e-4
-1.185, -9.368e-4
-1.184, -9.400e-4
-1.183, -9.715e-4
-1.182, -9.769e-4
-1.181, -9.794e-4
-1.180, -9.854e-4
-1.179, -9.944e-4
-1.178, -9.978e-4
-1.177, -9.899e-4
-1.176, -9.908e-4
-1.175, -1.000e-3
-1.174, -1.009e-3
-1.173, -1.013e-3
-1.172, -1.030e-3
-1.171, -1.046e-3
-1.170, -1.058e-3
-1.169, -1.066e-3
-1.168, -1.076e-3
-1.167, -1.079e-3
-1.166, -1.084e-3
-1.165, -1.088e-3
-1.164, -1.104e-3
-1.163, -1.114e-3
-1.162, -1.120e-3
-1.161, -1.133e-3
-1.160, -1.141e-3
-1.159, -1.149e-3
-1.158, -1.155e-3
-1.157, -1.160e-3
-1.156, -1.165e-3
-1.155, -1.165e-3
-1.154, -1.174e-3
-1.153, -1.178e-3
-1.152, -1.183e-3
-1.151, -1.200e-3
-1.150, -1.207e-3
-1.149, -1.216e-3
-1.148, -1.223e-3
-1.147, -1.224e-3
-1.146, -1.233e-3
-1.145, -1.237e-3
-1.144, -1.241e-3
-1.143, -1.251e-3
-1.142, -1.258e-3
-1.141, -1.271e-3
-1.140, -1.281e-3
-1.139, -1.285e-3
-1.138, -1.287e-3
-1.137, -1.298e-3
-1.136, -1.308e-3
-1.135, -1.307e-3
-1.134, -1.329e-3
-1.133, -1.336e-3
-1.132, -1.350e-3
-1.131, -1.345e-3
-1.130, -1.348e-3
-1.129, -1.353e-3
-1.128, -1.363e-3
-1.127, -1.367e-3
-1.126, -1.376e-3
-1.125, -1.385e-3
-1.124, -1.397e-3
-1.123, -1.405e-3
-1.122, -1.410e-3
-1.121, -1.415e-3
-1.120, -1.432e-3
-1.119, -1.437e-3
-1.118, -1.455e-3
-1.117, -1.457e-3
-1.116, -1.459e-3
-1.115, -1.456e-3
-1.114, -1.466e-3
-1.113, -1.477e-3
-1.112, -1.469e-3
-1.111, -1.456e-3
-1.110, -1.463e-3
-1.109, -1.479e-3
-1.108, -1.493e-3
-1.107, -1.492e-3
-1.106, -1.503e-3
-1.105, -1.507e-3
-1.104, -1.519e-3
-1.103, -1.529e-3
-1.102, -1.527e-3
-1.101, -1.521e-3
-1.100, -1.525e-3
-1.099, -1.533e-3
-1.098, -1.549e-3
-1.097, -1.551e-3
-1.096, -1.555e-3
-1.095, -1.555e-3
-1.094, -1.554e-3
-1.093, -1.565e-3
-1.092, -1.580e-3
-1.091, -1.633e-3
-1.090, -1.640e-3
-1.089, -1.634e-3
-1.088, -1.636e-3
-1.087, -1.642e-3
-1.086, -1.641e-3
-1.085, -1.636e-3
-1.084, -1.630e-3
-1.083, -1.591e-3
-1.082, -1.605e-3
-1.081, -1.620e-3
-1.080, -1.621e-3
-1.079, -1.616e-3
-1.078, -1.601e-3
-1.077, -1.625e-3
-1.076, -1.618e-3
-1.075, -1.596e-3
-1.074, -1.602e-3
-1.073, -1.609e-3
-1.072, -1.630e-3
-1.071, -1.624e-3
-1.070, -1.626e-3
-1.069, -1.661e-3
-1.068, -1.697e-3
-1.067, -1.699e-3
-1.066, -1.703e-3
-1.065, -1.715e-3
-1.064, -1.719e-3
-1.063, -1.723e-3
-1.062, -1.721e-3
-1.061, -1.729e-3
-1.060, -1.745e-3
-1.059, -1.747e-3
-1.058, -1.749e-3
-1.057, -1.743e-3
-1.056, -1.734e-3
-1.055, -1.754e-3
-1.054, -1.767e-3
-1.053, -1.772e-3
-1.052, -1.770e-3
-1.051, -1.764e-3
-1.050, -1.752e-3
-1.049, -1.749e-3
-1.048, -1.770e-3
-1.047, -1.784e-3
-1.046, -1.771e-3
-1.045, -1.772e-3
-1.044, -1.780e-3
-1.043, -1.813e-3
-1.042, -1.834e-3
-1.041, -1.820e-3
-1.040, -1.740e-3
-1.039, -1.714e-3
-1.038, -1.707e-3
-1.037, -1.723e-3
-1.036, -1.741e-3
-1.035, -1.776e-3
-1.034, -1.776e-3
-1.033, -1.777e-3
-1.032, -1.778e-3
-1.031, -1.790e-3
-1.030, -1.805e-3
-1.029, -1.801e-3
-1.028, -1.791e-3
-1.027, -1.819e-3
-1.026, -1.816e-3
-1.025, -1.821e-3
-1.024, -1.812e-3
-1.023, -1.788e-3
-1.022, -1.782e-3
-1.021, -1.764e-3
-1.020, -1.784e-3
-1.019, -1.793e-3
-1.018, -1.801e-3
-1.017, -1.795e-3
-1.016, -1.792e-3
-1.015, -1.811e-3
-1.014, -1.822e-3
-1.013, -1.838e-3
-1.012, -1.856e-3
-1.011, -1.846e-3
-1.010, -1.835e-3
-1.009, -1.839e-3
-1.008, -1.859e-3
-1.007, -1.870e-3
-1.006, -1.838e-3
-1.005, -1.841e-3
-1.004, -1.858e-3
-1.003, -1.870e-3
-1.002, -1.868e-3
-1.001, -1.868e-3
-1.000, -1.804e-3
-1.001, -1.712e-3
-1.002, -1.649e-3
-1.003, -1.585e-3
-1.004, -1.521e-3
-1.005, -1.441e-3
-1.006, -1.383e-3
-1.007, -1.349e-3
-1.008, -1.304e-3
-1.009, -1.269e-3
-1.010, -1.228e-3
-1.011, -1.192e-3
-1.012, -1.155e-3
-1.013, -1.109e-3
-1.014, -1.060e-3
-1.015, -1.023e-3
-1.016, -9.922e-4
-1.017, -9.648e-4
-1.018, -9.278e-4
-1.019, -8.830e-4
-1.020, -8.536e-4
-1.021, -8.358e-4
-1.022, -8.141e-4
-1.023, -7.616e-4
-1.024, -7.311e-4
-1.025, -7.109e-4
-1.026, -6.895e-4
-1.027, -6.681e-4
-1.028, -6.419e-4
-1.029, -6.216e-4
-1.030, -6.050e-4
-1.031, -5.890e-4
-1.032, -5.539e-4
-1.033, -5.343e-4
-1.034, -5.144e-4
-1.035, -4.931e-4
-1.036, -4.648e-4
-1.037, -4.479e-4
-1.038, -4.336e-4
-1.039, -4.212e-4
-1.040, -4.093e-4
-1.041, -3.977e-4
-1.042, -3.994e-4
-1.043, -3.849e-4
-1.044, -3.598e-4
-1.045, -3.417e-4
-1.046, -3.277e-4
-1.047, -3.147e-4
-1.048, -2.989e-4
-1.049, -2.854e-4
-1.050, -2.722e-4
-1.051, -2.591e-4
-1.052, -2.439e-4
-1.053, -2.258e-4
-1.054, -2.097e-4
-1.055, -1.959e-4
-1.056, -1.830e-4
-1.057, -1.631e-4
-1.058, -1.458e-4
-1.059, -1.308e-4
-1.060, -1.195e-4
-1.061, -1.089e-4
-1.062, -9.734e-5
-1.063, -8.278e-5
-1.064, -6.941e-5
-1.065, -5.884e-5
-1.066, -4.846e-5
-1.067, -3.615e-5
-1.068, -2.203e-5
-1.069, -9.163e-6
-1.070, 1.119e-6
-1.071, 1.183e-5
-1.072, 2.394e-5
-1.073, 3.806e-5
-1.074, 5.051e-5
-1.075, 6.081e-5
-1.076, 7.001e-5
-1.077, 8.024e-5
-1.078, 9.307e-5
-1.079, 1.042e-4
-1.080, 1.125e-4
-1.081, 1.209e-4
-1.082, 1.311e-4
-1.083, 1.425e-4
-1.084, 1.547e-4
-1.085, 1.634e-4
-1.086, 1.716e-4
-1.087, 1.813e-4
-1.088, 1.924e-4
-1.089, 2.036e-4
-1.090, 2.114e-4
-1.091, 2.163e-4
-1.092, 2.202e-4
-1.093, 2.319e-4
-1.094, 2.415e-4
-1.095, 2.507e-4
-1.096, 2.581e-4
-1.097, 2.673e-4
-1.098, 2.835e-4
-1.099, 2.936e-4
-1.100, 3.012e-4
-1.101, 3.088e-4
-1.102, 3.176e-4
-1.103, 3.296e-4
-1.104, 3.394e-4
-1.105, 3.475e-4
-1.106, 3.535e-4
-1.107, 3.604e-4
-1.108, 3.721e-4
-1.109, 3.795e-4
-1.110, 3.865e-4
-1.111, 3.922e-4
-1.112, 4.019e-4
-1.113, 4.159e-4
-1.114, 4.248e-4
-1.115, 4.327e-4
-1.116, 4.386e-4
-1.117, 4.469e-4
-1.118, 4.562e-4
-1.119, 4.630e-4
-1.120, 4.698e-4
-1.121, 4.757e-4
-1.122, 4.844e-4
-1.123, 4.934e-4
-1.124, 5.033e-4
-1.125, 5.086e-4
-1.126, 5.151e-4
-1.127, 5.240e-4
-1.128, 5.344e-4
-1.129, 5.433e-4
-1.130, 5.481e-4
-1.131, 5.547e-4
-1.132, 5.625e-4
-1.133, 5.706e-4
-1.134, 5.772e-4
-1.135, 5.860e-4
-1.136, 5.910e-4
-1.137, 5.986e-4
-1.138, 6.072e-4
-1.139, 6.161e-4
-1.140, 6.227e-4
-1.141, 6.312e-4
-1.142, 6.364e-4
-1.143, 6.451e-4
-1.144, 6.528e-4
-1.145, 6.594e-4
-1.146, 6.680e-4
-1.147, 6.732e-4
-1.148, 6.806e-4
-1.149, 6.891e-4
-1.150, 6.944e-4
-1.151, 6.988e-4
-1.152, 7.068e-4
-1.153, 7.194e-4
-1.154, 7.253e-4
-1.155, 7.301e-4
-1.156, 7.367e-4
-1.157, 7.466e-4
-1.158, 7.566e-4
-1.159, 7.648e-4
-1.160, 7.739e-4
-1.161, 7.800e-4
-1.162, 7.854e-4
-1.163, 7.932e-4
-1.164, 8.009e-4
-1.165, 8.071e-4
-1.166, 8.112e-4
-1.167, 8.167e-4
-1.168, 8.242e-4
-1.169, 8.316e-4
-1.170, 8.371e-4
-1.171, 8.414e-4
-1.172, 8.491e-4
-1.173, 8.568e-4
-1.174, 8.651e-4
-1.175, 8.698e-4
-1.176, 8.773e-4
-1.177, 8.993e-4
-1.178, 9.101e-4
-1.179, 9.086e-4
-1.180, 9.091e-4
-1.181, 9.106e-4
-1.182, 9.225e-4
-1.183, 9.348e-4
-1.184, 9.386e-4
-1.185, 9.389e-4
-1.186, 9.425e-4
-1.187, 9.507e-4
-1.188, 9.609e-4
-1.189, 9.663e-4
-1.190, 9.719e-4
-1.191, 9.774e-4
-1.192, 9.847e-4
-1.193, 9.939e-4
-1.194, 1.002e-3
-1.195, 1.009e-3
-1.196, 1.013e-3
-1.197, 1.021e-3
-1.198, 1.026e-3
-1.199, 1.036e-3
-1.200, 1.037e-3
-1.201, 1.042e-3
-1.202, 1.050e-3
-1.203, 1.060e-3
-1.204, 1.066e-3
-1.205, 1.071e-3
-1.206, 1.077e-3
-1.207, 1.087e-3
-1.208, 1.094e-3
-1.209, 1.099e-3
-1.210, 1.101e-3
-1.211, 1.105e-3
-1.212, 1.113e-3
-1.213, 1.122e-3
-1.214, 1.129e-3
-1.215, 1.137e-3
-1.216, 1.140e-3
-1.217, 1.146e-3
-1.218, 1.152e-3
-1.219, 1.157e-3
-1.220, 1.160e-3
-1.221, 1.167e-3
-1.222, 1.175e-3
-1.223, 1.183e-3
-1.224, 1.191e-3
-1.225, 1.196e-3
-1.226, 1.198e-3
-1.227, 1.206e-3
-1.228, 1.217e-3
-1.229, 1.223e-3
-1.230, 1.228e-3
-1.231, 1.228e-3
-1.232, 1.233e-3
-1.233, 1.243e-3
-1.234, 1.246e-3
-1.235, 1.252e-3
-1.236, 1.262e-3
-1.237, 1.273e-3
-1.238, 1.274e-3
-1.239, 1.281e-3
-1.240, 1.286e-3
-1.241, 1.291e-3
-1.242, 1.299e-3
-1.243, 1.306e-3
-1.244, 1.309e-3
-1.245, 1.314e-3
-1.246, 1.318e-3
-1.247, 1.324e-3
-1.248, 1.330e-3
-1.249, 1.334e-3
-1.250, 1.337e-3
-1.251, 1.341e-3
-1.252, 1.346e-3
-1.253, 1.353e-3
-1.254, 1.360e-3
-1.255, 1.366e-3
-1.256, 1.368e-3
-1.257, 1.373e-3
-1.258, 1.380e-3
-1.259, 1.383e-3
-1.260, 1.385e-3
-1.261, 1.389e-3
-1.262, 1.396e-3
-1.263, 1.400e-3
-1.264, 1.401e-3
-1.265, 1.409e-3
-1.266, 1.415e-3
-1.267, 1.420e-3
-1.268, 1.424e-3
-1.269, 1.426e-3
-1.270, 1.427e-3
-1.271, 1.429e-3
-1.272, 1.434e-3
-1.273, 1.438e-3
-1.274, 1.440e-3
-1.275, 1.441e-3
-1.276, 1.447e-3
-1.277, 1.449e-3
-1.278, 1.452e-3
-1.279, 1.455e-3
-1.280, 1.455e-3
-1.281, 1.458e-3
-1.282, 1.464e-3
-1.283, 1.469e-3
-1.284, 1.472e-3
-1.285, 1.470e-3
-1.286, 1.474e-3
-1.287, 1.478e-3
-1.288, 1.485e-3
-1.289, 1.481e-3
-1.290, 1.482e-3
-1.291, 1.481e-3
-1.292, 1.481e-3
-1.293, 1.482e-3
-1.294, 1.485e-3
-1.295, 1.484e-3
-1.296, 1.484e-3
-1.297, 1.489e-3
-1.298, 1.491e-3
-1.299, 1.487e-3
-1.300, 1.490e-3
-1.301, 1.495e-3
-1.302, 1.497e-3
-1.303, 1.497e-3
-1.304, 1.500e-3
-1.305, 1.499e-3
-1.306, 1.501e-3
-1.307, 1.503e-3
-1.308, 1.506e-3
-1.309, 1.509e-3
-1.310, 1.512e-3
-1.311, 1.513e-3
-1.312, 1.517e-3
-1.313, 1.520e-3
-1.314, 1.522e-3
-1.315, 1.519e-3
-1.316, 1.520e-3
-1.317, 1.524e-3
-1.318, 1.525e-3
-1.319, 1.525e-3
-1.320, 1.529e-3
-1.321, 1.531e-3
-1.322, 1.532e-3
-1.323, 1.540e-3
-1.324, 1.536e-3
-1.325, 1.534e-3
-1.326, 1.540e-3
-1.327, 1.544e-3
-1.328, 1.543e-3
-1.329, 1.538e-3
-1.330, 1.536e-3
-1.331, 1.529e-3
-1.332, 1.535e-3
-1.333, 1.540e-3
-1.334, 1.547e-3
-1.335, 1.542e-3
-1.336, 1.538e-3
-1.337, 1.540e-3
-1.338, 1.543e-3
-1.339, 1.542e-3
-1.340, 1.541e-3
-1.341, 1.539e-3
-1.342, 1.549e-3
-1.343, 1.545e-3
-1.344, 1.550e-3
-1.345, 1.547e-3
-1.346, 1.544e-3
-1.347, 1.547e-3
-1.348, 1.548e-3
-1.349, 1.550e-3
-1.350, 1.550e-3
-1.351, 1.552e-3
-1.352, 1.549e-3
-1.353, 1.554e-3
-1.354, 1.555e-3
-1.355, 1.555e-3
-1.356, 1.559e-3
-1.357, 1.564e-3
-1.358, 1.569e-3
-1.359, 1.572e-3
-1.360, 1.569e-3
-1.361, 1.571e-3
-1.362, 1.574e-3
-1.363, 1.583e-3
-1.364, 1.590e-3
-1.365, 1.595e-3
-1.366, 1.591e-3
-1.367, 1.588e-3
-1.368, 1.594e-3
-1.369, 1.596e-3
-1.370, 1.601e-3
-1.371, 1.612e-3
-1.372, 1.620e-3
-1.373, 1.625e-3
-1.374, 1.620e-3
-1.375, 1.621e-3
-1.376, 1.622e-3
-1.377, 1.631e-3
-1.378, 1.641e-3
-1.379, 1.647e-3
-1.380, 1.649e-3
-1.381, 1.653e-3
-1.382, 1.663e-3
-1.383, 1.671e-3
-1.384, 1.680e-3
-1.385, 1.687e-3
-1.386, 1.698e-3
-1.387, 1.706e-3
-1.388, 1.713e-3
-1.389, 1.724e-3
-1.390, 1.734e-3
-1.391, 1.744e-3
-1.392, 1.759e-3
-1.393, 1.769e-3
-1.394, 1.776e-3
-1.395, 1.781e-3
-1.396, 1.792e-3
-1.397, 1.805e-3
-1.398, 1.820e-3
-1.399, 1.833e-3
-1.400, 1.846e-3
-1.401, 1.854e-3
-1.402, 1.868e-3
-1.403, 1.886e-3
-1.404, 1.900e-3
-1.405, 1.911e-3
-1.406, 1.927e-3
-1.407, 1.945e-3
-1.408, 1.961e-3
-1.409, 1.976e-3
-1.410, 1.990e-3
-1.411, 2.008e-3
-1.412, 2.024e-3
-1.413, 2.044e-3
-1.414, 2.064e-3
-1.415, 2.082e-3
-1.416, 2.100e-3
-1.417, 2.123e-3
-1.418, 2.141e-3
-1.419, 2.158e-3
-1.420, 2.171e-3
-1.421, 2.195e-3
-1.422, 2.220e-3
-1.423, 2.243e-3
-1.424, 2.265e-3
-1.425, 2.282e-3
-1.426, 2.305e-3
-1.427, 2.320e-3
-1.428, 2.344e-3
-1.429, 2.365e-3
-1.430, 2.384e-3
-1.431, 2.410e-3
-1.432, 2.440e-3
-1.433, 2.464e-3
-1.434, 2.496e-3
-1.435, 2.519e-3
-1.436, 2.543e-3
-1.437, 2.571e-3
-1.438, 2.609e-3
-1.439, 2.644e-3
-1.440, 2.672e-3
-1.441, 2.711e-3
-1.442, 2.748e-3
-1.443, 2.768e-3
-1.444, 2.793e-3
-1.445, 2.827e-3
-1.446, 2.865e-3
-1.447, 2.907e-3
-1.448, 2.943e-3
-1.449, 2.976e-3
-1.450, 3.001e-3
-1.451, 3.038e-3
-1.452, 3.091e-3
-1.453, 3.135e-3
-1.454, 3.173e-3
-1.455, 3.201e-3
-1.456, 3.243e-3
-1.457, 3.321e-3
-1.458, 3.382e-3
-1.459, 3.407e-3
-1.460, 3.451e-3
-1.461, 3.508e-3
-1.462, 3.555e-3
-1.463, 3.603e-3
-1.464, 3.646e-3
-1.465, 3.702e-3
-1.466, 3.759e-3
-1.467, 3.785e-3
-1.468, 3.848e-3
-1.469, 3.907e-3
-1.470, 3.966e-3
-1.471, 4.015e-3
-1.472, 4.089e-3
-1.473, 4.156e-3
-1.474, 4.212e-3
-1.475, 4.277e-3
-1.476, 4.335e-3
-1.477, 4.417e-3
-1.478, 4.498e-3
-1.479, 4.547e-3
-1.480, 4.622e-3
-1.481, 4.686e-3
-1.482, 4.760e-3
-1.483, 4.834e-3
-1.484, 4.884e-3
-1.485, 4.963e-3
-1.486, 5.034e-3
-1.487, 5.117e-3
-1.488, 5.183e-3
-1.489, 5.273e-3
-1.490, 5.340e-3
-1.491, 5.412e-3
-1.492, 5.480e-3
-1.493, 5.567e-3
-1.494, 5.639e-3
-1.495, 5.688e-3
-1.496, 5.743e-3
-1.497, 5.853e-3
-1.498, 5.914e-3
-1.499, 5.989e-3
-1.500, 5.966e-3
-1.499, 5.897e-3
-1.498, 5.879e-3
-1.497, 5.826e-3
-1.496, 5.769e-3
-1.495, 5.729e-3
-1.494, 5.692e-3
-1.493, 5.641e-3
-1.492, 5.576e-3
-1.491, 5.525e-3
-1.490, 5.486e-3
-1.489, 5.422e-3
-1.488, 5.369e-3
-1.487, 5.327e-3
-1.486, 5.271e-3
-1.485, 5.238e-3
-1.484, 5.192e-3
-1.483, 5.145e-3
-1.482, 5.094e-3
-1.481, 5.045e-3
-1.480, 4.993e-3
-1.479, 4.948e-3
-1.478, 4.894e-3
-1.477, 4.863e-3
-1.476, 4.795e-3
-1.475, 4.742e-3
-1.474, 4.710e-3
-1.473, 4.659e-3
-1.472, 4.606e-3
-1.471, 4.557e-3
-1.470, 4.501e-3
-1.469, 4.468e-3
-1.468, 4.422e-3
-1.467, 4.365e-3
-1.466, 4.305e-3
-1.465, 4.246e-3
-1.464, 4.222e-3
-1.463, 4.166e-3
-1.462, 4.110e-3
-1.461, 4.063e-3
-1.460, 4.025e-3
-1.459, 3.979e-3
-1.458, 3.926e-3
-1.457, 3.893e-3
-1.456, 3.844e-3
-1.455, 3.786e-3
-1.454, 3.732e-3
-1.453, 3.678e-3
-1.452, 3.633e-3
-1.451, 3.597e-3
-1.450, 3.553e-3
-1.449, 3.495e-3
-1.448, 3.448e-3
-1.447, 3.415e-3
-1.446, 3.367e-3
-1.445, 3.312e-3
-1.444, 3.264e-3
-1.443, 3.225e-3
-1.442, 3.178e-3
-1.441, 3.136e-3
-1.440, 3.092e-3
-1.439, 3.046e-3
-1.438, 3.010e-3
-1.437, 2.965e-3
-1.436, 2.923e-3
-1.435, 2.881e-3
-1.434, 2.838e-3
-1.433, 2.794e-3
-1.432, 2.762e-3
-1.431, 2.707e-3
-1.430, 2.635e-3
-1.429, 2.595e-3
-1.428, 2.565e-3
-1.427, 2.520e-3
-1.426, 2.463e-3
-1.425, 2.423e-3
-1.424, 2.397e-3
-1.423, 2.414e-3
-1.422, 2.384e-3
-1.421, 2.342e-3
-1.420, 2.294e-3
-1.419, 2.261e-3
-1.418, 2.202e-3
-1.417, 2.185e-3
-1.416, 2.148e-3
-1.415, 2.116e-3
-1.414, 2.060e-3
-1.413, 2.038e-3
-1.412, 2.012e-3
-1.411, 1.979e-3
-1.410, 1.928e-3
-1.409, 1.910e-3
-1.408, 1.883e-3
-1.407, 1.859e-3
-1.406, 1.821e-3
-1.405, 1.772e-3
-1.404, 1.741e-3
-1.403, 1.703e-3
-1.402, 1.688e-3
-1.401, 1.662e-3
-1.400, 1.627e-3
-1.399, 1.596e-3
-1.398, 1.559e-3
-1.397, 1.519e-3
-1.396, 1.487e-3
-1.395, 1.454e-3
-1.394, 1.421e-3
-1.393, 1.396e-3
-1.392, 1.365e-3
-1.391, 1.339e-3
-1.390, 1.309e-3
-1.389, 1.259e-3
-1.388, 1.227e-3
-1.387, 1.195e-3
-1.386, 1.174e-3
-1.385, 1.148e-3
-1.384, 1.135e-3
-1.383, 1.109e-3
-1.382, 1.077e-3
-1.381, 1.050e-3
-1.380, 1.024e-3
-1.379, 1.003e-3
-1.378, 9.736e-4
-1.377, 9.485e-4
-1.376, 9.235e-4
-1.375, 9.007e-4
-1.374, 8.747e-4
-1.373, 8.521e-4
-1.372, 8.320e-4
-1.371, 8.056e-4
-1.370, 7.828e-4
-1.369, 7.609e-4
-1.368, 7.474e-4
-1.367, 7.242e-4
-1.366, 6.973e-4
-1.365, 6.769e-4
-1.364, 6.577e-4
-1.363, 6.363e-4
-1.362, 6.171e-4
-1.361, 5.947e-4
-1.360, 5.742e-4
-1.359, 5.581e-4
-1.358, 5.385e-4
-1.357, 5.196e-4
-1.356, 5.005e-4
-1.355, 4.803e-4
-1.354, 4.652e-4
-1.353, 4.501e-4
-1.352, 4.292e-4
-1.351, 4.145e-4
-1.350, 3.951e-4
-1.349, 3.787e-4
-1.348, 3.622e-4
-1.347, 3.467e-4
-1.346, 3.277e-4
-1.345, 3.096e-4
-1.344, 2.961e-4
-1.343, 2.848e-4
-1.342, 2.708e-4
-1.341, 2.558e-4
-1.340, 2.397e-4
-1.339, 2.251e-4
-1.338, 2.124e-4
-1.337, 1.988e-4
-1.336, 1.834e-4
-1.335, 1.680e-4
-1.334, 1.565e-4
-1.333, 1.474e-4
-1.332, 1.325e-4
-1.331, 1.174e-4
-1.330, 1.047e-4
-1.329, 9.256e-5
-1.328, 8.217e-5
-1.327, 7.024e-5
-1.326, 5.655e-5
-1.325, 4.427e-5
-1.324, 3.361e-5
-1.323, 2.472e-5
-1.322, 1.420e-5
-1.321, 1.391e-6
-1.320, -1.012e-5
-1.319, -2.025e-5
-1.318, -2.853e-5
-1.317, -3.769e-5
-1.316, -4.954e-5
-1.315, -6.045e-5
-1.314, -6.909e-5
-1.313, -7.664e-5
-1.312, -8.510e-5
-1.311, -9.591e-5
-1.310, -1.055e-4
-1.309, -1.130e-4
-1.308, -1.198e-4
-1.307, -1.286e-4
-1.306, -1.397e-4
-1.305, -1.490e-4
-1.304, -1.547e-4
-1.303, -1.621e-4
-1.302, -1.707e-4
-1.301, -1.774e-4
-1.300, -1.851e-4
-1.299, -1.916e-4
-1.298, -1.977e-4
-1.297, -2.061e-4
-1.296, -2.149e-4
-1.295, -2.225e-4
-1.294, -2.293e-4
-1.293, -2.350e-4
-1.292, -2.425e-4
-1.291, -2.513e-4
-1.290, -2.588e-4
-1.289, -2.675e-4
-1.288, -2.728e-4
-1.287, -2.770e-4
-1.286, -2.850e-4
-1.285, -2.904e-4
-1.284, -2.953e-4
-1.283, -3.022e-4
-1.282, -3.097e-4
-1.281, -3.160e-4
-1.280, -3.231e-4
-1.279, -3.280e-4
-1.278, -3.321e-4
-1.277, -3.378e-4
-1.276, -3.469e-4
-1.275, -3.561e-4
-1.274, -3.603e-4
-1.273, -3.662e-4
-1.272, -3.726e-4
-1.271, -3.795e-4
-1.270, -3.863e-4
-1.269, -3.855e-4
-1.268, -3.890e-4
-1.267, -3.994e-4
-1.266, -4.043e-4
-1.265, -4.087e-4
-1.264, -4.134e-4
-1.263, -4.158e-4
-1.262, -4.219e-4
-1.261, -4.282e-4
-1.260, -4.363e-4
-1.259, -4.399e-4
-1.258, -4.414e-4
-1.257, -4.479e-4
-1.256, -4.527e-4
-1.255, -4.587e-4
-1.254, -4.651e-4
-1.253, -4.697e-4
-1.252, -4.743e-4
-1.251, -4.802e-4
-1.250, -4.851e-4
-1.249, -4.912e-4
-1.248, -4.964e-4
-1.247, -5.000e-4
-1.246, -5.052e-4
-1.245, -5.070e-4
-1.244, -5.112e-4
-1.243, -5.213e-4
-1.242, -5.342e-4
-1.241, -5.434e-4
-1.240, -5.479e-4
-1.239, -5.472e-4
-1.238, -5.508e-4
-1.237, -5.611e-4
-1.236, -5.696e-4
-1.235, -5.742e-4
-1.234, -5.761e-4
-1.233, -5.779e-4
-1.232, -5.874e-4
-1.231, -5.952e-4
-1.230, -6.024e-4
-1.229, -6.101e-4
-1.228, -6.120e-4
-1.227, -6.186e-4
-1.226, -6.295e-4
-1.225, -6.349e-4
-1.224, -6.404e-4
-1.223, -6.465e-4
-1.222, -6.502e-4
-1.221, -6.620e-4
-1.220, -6.721e-4
-1.219, -6.750e-4
-1.218, -6.781e-4
-1.217, -6.875e-4
-1.216, -7.033e-4
-1.215, -7.113e-4
-1.214, -7.152e-4
-1.213, -7.220e-4
-1.212, -7.260e-4
-1.211, -7.373e-4
-1.210, -7.476e-4
-1.209, -7.478e-4
-1.208, -7.429e-4
-1.207, -7.549e-4
-1.206, -7.682e-4
-1.205, -7.730e-4
-1.204, -7.795e-4
-1.203, -7.833e-4
-1.202, -7.931e-4
-1.201, -8.049e-4
-1.200, -8.086e-4
-1.199, -8.146e-4
-1.198, -8.168e-4
-1.197, -8.335e-4
-1.196, -8.461e-4
-1.195, -8.528e-4
-1.194, -8.530e-4
-1.193, -8.541e-4
-1.192, -8.737e-4
-1.191, -8.846e-4
-1.190, -8.922e-4
-1.189, -8.992e-4
-1.188, -8.998e-4
-1.187, -9.151e-4
-1.186, -9.240e-4
-1.185, -9.239e-4
-1.184, -9.393e-4
-1.183, -9.499e-4
-1.182, -9.602e-4
-1.181, -9.636e-4
-1.180, -9.681e-4
-1.179, -9.815e-4
-1.178, -9.890e-4
-1.177, -9.958e-4
-1.176, -9.985e-4
-1.175, -1.005e-3
-1.174, -1.019e-3
-1.173, -1.019e-3
-1.172, -1.019e-3
-1.171, -1.025e-3
-1.170, -1.051e-3
-1.169, -1.063e-3
-1.168, -1.070e-3
-1.167, -1.077e-3
-1.166, -1.090e-3
-1.165, -1.100e-3
-1.164, -1.099e-3
-1.163, -1.105e-3
-1.162, -1.115e-3
-1.161, -1.139e-3
-1.160, -1.137e-3
-1.159, -1.141e-3
-1.158, -1.144e-3
-1.157, -1.154e-3
-1.156, -1.165e-3
-1.155, -1.172e-3
-1.154, -1.184e-3
-1.153, -1.190e-3
-1.152, -1.192e-3
-1.151, -1.194e-3
-1.150, -1.206e-3
-1.149, -1.217e-3
-1.148, -1.222e-3
-1.147, -1.231e-3
-1.146, -1.250e-3
-1.145, -1.249e-3
-1.144, -1.247e-3
-1.143, -1.253e-3
-1.142, -1.263e-3
-1.141, -1.273e-3
-1.140, -1.274e-3
-1.139, -1.279e-3
-1.138, -1.289e-3
-1.137, -1.302e-3
-1.136, -1.305e-3
-1.135, -1.284e-3
-1.134, -1.301e-3
-1.133, -1.309e-3
-1.132, -1.316e-3
-1.131, -1.320e-3
-1.130, -1.334e-3
-1.129, -1.336e-3
-1.128, -1.343e-3
-1.127, -1.346e-3
-1.126, -1.344e-3
-1.125, -1.354e-3
-1.124, -1.362e-3
-1.123, -1.366e-3
-1.122, -1.364e-3
-1.121, -1.380e-3
-1.120, -1.389e-3
-1.119, -1.378e-3
-1.118, -1.388e-3
-1.117, -1.393e-3
-1.116, -1.410e-3
-1.115, -1.415e-3
-1.114, -1.407e-3
-1.113, -1.417e-3
-1.112, -1.422e-3
-1.111, -1.440e-3
-1.110, -1.453e-3
-1.109, -1.462e-3
-1.108, -1.446e-3
-1.107, -1.457e-3
-1.106, -1.466e-3
-1.105, -1.483e-3
-1.104, -1.493e-3
-1.103, -1.488e-3
-1.102, -1.491e-3
-1.101, -1.498e-3
-1.100, -1.502e-3
-1.099, -1.515e-3
-1.098, -1.502e-3
-1.097, -1.502e-3
-1.096, -1.517e-3
-1.095, -1.524e-3
-1.094, -1.530e-3
-1.093, -1.544e-3
-1.092, -1.536e-3
-1.091, -1.535e-3
-1.090, -1.542e-3
-1.089, -1.464e-3
-1.088, -1.481e-3
-1.087, -1.498e-3
-1.086, -1.502e-3
-1.085, -1.500e-3
-1.084, -1.513e-3
-1.083, -1.533e-3
-1.082, -1.545e-3
-1.081, -1.533e-3
-1.080, -1.535e-3
-1.079, -1.548e-3
-1.078, -1.570e-3
-1.077, -1.568e-3
-1.076, -1.563e-3
-1.075, -1.579e-3
-1.074, -1.583e-3
-1.073, -1.592e-3
-1.072, -1.584e-3
-1.071, -1.591e-3
-1.070, -1.585e-3
-1.069, -1.593e-3
-1.068, -1.609e-3
-1.067, -1.622e-3
-1.066, -1.634e-3
-1.065, -1.646e-3
-1.064, -1.666e-3
-1.063, -1.679e-3
-1.062, -1.692e-3
-1.061, -1.701e-3
-1.060, -1.686e-3
-1.059, -1.683e-3
-1.058, -1.696e-3
-1.057, -1.715e-3
-1.056, -1.717e-3
-1.055, -1.718e-3
-1.054, -1.719e-3
-1.053, -1.724e-3
-1.052, -1.725e-3
-1.051, -1.729e-3
-1.050, -1.743e-3
-1.049, -1.768e-3
-1.048, -1.762e-3
-1.047, -1.766e-3
-1.046, -1.776e-3
-1.045, -1.784e-3
-1.044, -1.791e-3
-1.043, -1.792e-3
-1.042, -1.791e-3
-1.041, -1.802e-3
-1.040, -1.812e-3
-1.039, -1.813e-3
-1.038, -1.809e-3
-1.037, -1.812e-3
-1.036, -1.818e-3
-1.035, -1.824e-3
-1.034, -1.831e-3
-1.033, -1.817e-3
-1.032, -1.816e-3
-1.031, -1.825e-3
-1.030, -1.836e-3
-1.029, -1.848e-3
-1.028, -1.837e-3
-1.027, -1.849e-3
-1.026, -1.855e-3
-1.025, -1.863e-3
-1.024, -1.860e-3
-1.023, -1.862e-3
-1.022, -1.864e-3
-1.021, -1.870e-3
-1.020, -1.871e-3
-1.019, -1.871e-3
-1.018, -1.892e-3
-1.017, -1.896e-3
-1.016, -1.909e-3
-1.015, -1.910e-3
-1.014, -1.906e-3
-1.013, -1.921e-3
-1.012, -1.931e-3
-1.011, -1.942e-3
-1.010, -1.946e-3
-1.009, -1.954e-3
-1.008, -1.955e-3
-1.007, -1.961e-3
-1.006, -1.973e-3
-1.005, -1.979e-3
-1.004, -1.973e-3
-1.003, -1.993e-3
-1.002, -2.008e-3
-1.001, -2.006e-3
