Potential V vs RHE, Current mA cm-2
0.013299999999999867,11.092751302241753
0.012299999999999978,10.173188957329478
0.011299999999999866,9.577595500086298
0.010299999999999976,9.038590494837718
0.009299999999999864,8.522220870386981
0.008299999999999974,8.096392769127604
0.007299999999999862,7.70168831646526
0.006299999999999972,7.342351646299541
0.00529999999999986,6.999991511732201
0.0042999999999999705,6.6109459042693155
0.0032999999999998586,6.278488748801033
0.0022999999999999687,5.957349283731669
0.0012999999999998568,5.661674622059877
0.00029999999999996696,5.367414671687949
-0.000700000000000145,5.066081164816696
-0.0017000000000000348,4.784553616143554
-0.0027000000000001467,4.529905582167847
-0.0037000000000000366,4.296478217690116
-0.0047000000000001485,4.030512493315489
-0.005700000000000038,3.7560585011416725
-0.00670000000000015,3.4957516219665052
-0.00770000000000004,3.2566654122893146
-0.008700000000000152,3.0402145834099636
-0.009700000000000042,2.8025430850326374
-0.010700000000000154,2.5379920719578757
-0.011700000000000044,2.3158823978790646
-0.012700000000000156,2.122066949797555
-0.013700000000000045,1.9296662130159101
-0.014700000000000157,1.7245330745354797
-0.015700000000000047,1.5038381117565338
-0.01670000000000016,1.291489945646792
-0.01770000000000005,1.1009283335549715
-0.01870000000000016,0.9314459198311402
-0.01970000000000005,0.7403184232193737
-0.020700000000000163,0.5306582085793753
-0.021700000000000053,0.3408039521374874
-0.022700000000000164,0.173868018753413
-0.023700000000000054,0.025705304318547718
-0.024700000000000166,-0.15448647394526202
-0.025700000000000056,-0.3533948827062862
-0.026700000000000168,-0.533346160049119
-0.027700000000000058,-0.6865593938245023
-0.02870000000000017,-0.8244937455613434
-0.02970000000000006,-0.9900149676455526
-0.03070000000000017,-1.176898330357724
-0.03170000000000006,-1.3422780813119468
-0.03270000000000017,-1.4868615761581534
-0.03370000000000006,-1.6212591496453321
-0.034700000000000175,-1.768389124831296
-0.035700000000000065,-1.9438133260145605
-0.03670000000000018,-2.1065051254990395
-0.03770000000000007,-2.235243853786758
-0.03870000000000018,-2.361153159474746
-0.03970000000000007,-2.504039000761115
-0.04070000000000018,-2.6752190680447843
-0.04170000000000007,-2.8294225997300737
-0.04270000000000018,-2.9468436376188714
-0.04370000000000007,-3.0656793868075347
-0.044700000000000184,-3.205735805494173
-0.045700000000000074,-3.3655981823789225
-0.046700000000000186,-3.5212164253640763
-0.047700000000000076,-3.6244903502542236
-0.04870000000000019,-3.7362525429435625
-0.04970000000000008,-3.8833825181295256
-0.05070000000000019,-4.029097782015624
-0.05170000000000008,-4.173398334601859
-0.05270000000000019,-4.27525754819214
-0.05370000000000008,-4.384190318281749
-0.05470000000000019,-4.511514335269602
-0.05570000000000008,-4.654400176555971
-0.056700000000000195,-4.795871306542475
-0.057700000000000085,-4.909048210531677
-0.058700000000000196,-5.00807800152223
-0.059700000000000086,-5.138231441109813
-0.0607000000000002,-5.283946704995913
-0.06170000000000009,-5.415514855883361
-0.0627000000000002,-5.5272770485726985
-0.06370000000000009,-5.612159726564601
-0.0647000000000002,-5.742313166152184
-0.06570000000000009,-5.890857852638012
-0.0667000000000002,-6.042231961723571
-0.0677000000000001,-6.110138104117093
-0.0687000000000002,-6.204923761208051
-0.0697000000000001,-6.328003644296309
-0.07070000000000021,-6.475133619482273
-0.0717000000000001,-6.5840663895718805
-0.07270000000000021,-6.680266757962703
-0.0737000000000001,-6.779296548953256
-0.07470000000000021,-6.910864699840705
-0.0757000000000001,-7.087703612323834
-0.07670000000000021,-7.181074558114926
-0.0777000000000001,-7.267371947406693
-0.07870000000000021,-7.346595780199135
-0.0797000000000001,-7.435722592090633
-0.08070000000000022,-7.564461320378352
-0.0817000000000001,-7.69885889386553
-0.08270000000000022,-7.782326860557566
-0.08370000000000011,-7.879941940248254
-0.08470000000000022,-8.000192400736783
-0.08570000000000011,-8.133175262924096
-0.08670000000000022,-8.263328702511679
-0.08770000000000011,-8.358114359602638
-0.08870000000000022,-8.426020501996158
-0.08970000000000011,-8.533538560785903
-0.09070000000000022,-8.65944786647389
-0.09170000000000011,-8.779698326962418
-0.09270000000000023,-8.87306927275351
-0.09370000000000012,-8.943804837746763
-0.09470000000000023,-9.06405529823529
-0.09570000000000012,-9.199867583022334
-0.09670000000000023,-9.308800353111941
-0.09770000000000012,-9.39792716500344
-0.09870000000000023,-9.475736286496016
-0.09970000000000012,-9.579010211386164
-0.10070000000000023,-9.699260671874692
-0.10170000000000012,-9.820925843663083
-0.10270000000000024,-9.919955634653638
-0.10370000000000013,-10.004838312645537
-0.10470000000000024,-10.085476856737847
-0.10570000000000013,-10.255242212721651
-0.10670000000000024,-10.361345560211529
-0.10770000000000013,-10.416519300906264
-0.10870000000000024,-10.475937175500595
-0.10970000000000013,-10.591943502089531
-0.11070000000000024,-10.713608673877923
-0.11170000000000013,-10.812638464868474
-0.11270000000000002,-10.901765276759972
-0.11370000000000013,-10.969671419153494
-0.11470000000000002,-11.089921879642024
-0.11570000000000014,-11.214416474030147
-0.11670000000000003,-11.326178666719484
-0.11770000000000014,-11.430867302909498
-0.11870000000000003,-11.500188156602883
-0.11970000000000014,-11.593559102393977
-0.12070000000000003,-11.671368223886553
-0.12170000000000014,-11.808595219973462
-0.12270000000000003,-11.87791607366685
-0.12370000000000014,-12.008069513254432
-0.12470000000000003,-12.094366902546199
-0.12570000000000014,-12.175005446638504
-0.12670000000000003,-12.27120581502933
-0.12770000000000015,-12.329208978323795
-0.12870000000000004,-12.448044727512457
-0.12970000000000015,-12.548489229802875
-0.13070000000000004,-12.668739690291403
-0.13170000000000015,-12.745134100484115
-0.13270000000000004,-12.818699088077096
-0.13370000000000015,-12.893678786969945
-0.13470000000000004,-13.023832226557529
-0.13570000000000015,-13.12003259494835
-0.13670000000000004,-13.233209498937551
-0.13770000000000016,-13.286968528332425
-0.13870000000000005,-13.353459959426083
-0.13970000000000016,-13.503419357211776
-0.14070000000000005,-13.630743374199627
-0.14170000000000016,-13.690161248793961
-0.14270000000000005,-13.775043926785862
-0.14370000000000016,-13.850023625678709
-0.14470000000000005,-13.998568312164537
-0.14570000000000016,-14.10325694835455
-0.14670000000000005,-14.161260111649016
-0.14770000000000016,-14.24614278964092
-0.14870000000000005,-14.345172580631472
-0.14970000000000017,-14.486643710617974
-0.15070000000000006,-14.57152638860988
-0.15170000000000017,-14.61396772760583
-0.15270000000000006,-14.684703292599082
-0.15370000000000017,-14.769585970590983
-0.15470000000000006,-14.925204213576137
-0.15570000000000017,-15.05252823056399
-0.15670000000000006,-15.165705134553193
-0.15770000000000017,-15.208146473549144
-0.15870000000000006,-15.250587812545096
-0.15970000000000018,-15.335470490536997
-0.16070000000000007,-15.533530072518102
-0.16170000000000018,-15.675001202504609
-0.16270000000000007,-15.618412750510005
-0.16370000000000018,-15.717442541500558
-0.16470000000000007,-15.830619445489761
-0.16570000000000018,-15.943796349478962
-0.16670000000000007,-16.071120366466815
-0.16770000000000018,-16.15600304445872
-0.16870000000000007,-16.21259149645332
-0.16970000000000018,-16.28332706144657
-0.17070000000000007,-16.382356852437127
-0.17170000000000019,-16.495533756426326
-0.17270000000000008,-16.59456354741688
-0.1737000000000002,-16.651151999411482
-0.17470000000000008,-16.792623129397985
-0.1757000000000002,-16.891652920388537
-0.17670000000000008,-16.97653559838044
-0.1777000000000002,-17.047271163373694
-0.17870000000000008,-17.103859615368293
-0.1797000000000002,-17.20288940635885
-0.18070000000000008,-17.3302134233467
-0.1817000000000002,-17.4433903273359
-0.18270000000000008,-17.542420118326454
-0.1837000000000002,-17.627302796318357
-0.1847000000000001,-17.698038361311607
-0.1857000000000002,-17.782921039303513
-0.1867000000000001,-17.867803717295413
-0.1877000000000002,-17.938539282288666
-0.1887000000000001,-18.02342196028057
-0.1897000000000002,-18.13659886426977
-0.1907000000000001,-18.249775768258974
-0.1917000000000001,-18.348805559249524
-0.19269999999999998,-18.433688237241427
-0.1937000000000001,-18.53271802823198
-0.19469999999999998,-18.631747819222536
-0.1957000000000001,-18.759071836210385
-0.19669999999999999,-18.829807401203638
-0.1977000000000001,-18.88639585319824
-0.1987,-18.97127853119014
-0.1997000000000001,-19.042014096183394
-0.2007,-19.084455435179343
-0.2017000000000001,-19.1834852261699
-0.2027,-19.2400736781645
-0.2037000000000001,-19.395691921149652
-0.2047,-19.4381332601456
-0.2057000000000001,-19.551310164134804
-0.2067,-19.551310164134804
-0.2077000000000001,-19.508868825138855
-0.2087,-19.636192842126707
-0.2097000000000001,-19.862546650105116
-0.2107,-19.947429328097016
-0.2117000000000001,-20.03231200608892
-0.2127,-20.07475334508487
-0.2137000000000001,-20.117194684080822
-0.2147,-20.244518701068674
-0.2157000000000001,-20.400136944053827
-0.2167,-20.230371588070028
-0.21770000000000012,-20.301107153063278
-0.2187,-20.42843117005113
-0.21970000000000012,-20.584049413036283
-0.2207,-20.711373430024135
-0.22170000000000012,-20.79625610801604
-0.2227,-20.85284456001064
-0.22370000000000012,-20.95187435100119
-0.2247,-21.065051254990397
-0.22570000000000012,-21.1782281589796
-0.2267,-21.248963723972853
-0.22770000000000012,-21.30555217596745
-0.22870000000000001,-21.43287619295531
-0.22970000000000013,-21.574347322941808
-0.23070000000000002,-21.645082887935057
-0.23170000000000013,-21.67337711393236
-0.23270000000000002,-21.68752422693101
-0.23370000000000013,-21.814848243918867
-0.23470000000000002,-21.97046648690402
-0.23570000000000013,-22.069496277894572
-0.23670000000000002,-22.140231842887825
-0.2376999999999999,-22.225114520879725
-0.23870000000000002,-22.196820294882425
-0.2396999999999999,-22.309997198871628
-0.24070000000000003,-22.493909667854084
-0.24169999999999991,-22.550498119848687
-0.24270000000000003,-22.536351006850033
-0.24369999999999992,-22.536351006850033
-0.24470000000000003,-22.63538079784059
-0.24569999999999992,-22.66367502383789
-0.24670000000000003,-22.76270481482844
-0.24769999999999992,-22.80514615382439
-0.24870000000000003,-23.031499961802798
-0.24969999999999992,-23.045647074801447
-0.25070000000000003,-23.1163826397947
-0.2516999999999999,-23.187118204787954
-0.25270000000000004,-23.2012653177866
-0.2536999999999999,-23.314442221775803
-0.25470000000000004,-23.41347201276636
-0.2556999999999999,-23.47006046476096
-0.25670000000000004,-23.54079602975421
-0.25769999999999993,-23.597384481748815
-0.25870000000000004,-23.781296950731264
-0.25969999999999993,-23.809591176728567
-0.26070000000000004,-23.908620967719123
-0.26169999999999993,-23.96520941971372
-0.26270000000000004,-24.050092097705623
-0.26369999999999993,-24.064239210704276
-0.26470000000000005,-24.106680549700226
-0.26569999999999994,-24.290593018682678
-0.26670000000000005,-24.36132858367593
-0.26769999999999994,-24.460358374666487
-0.26870000000000005,-24.545241052658387
-0.26969999999999994,-24.587682391654337
-0.27070000000000005,-24.686712182644893
-0.27169999999999994,-24.61597661765164
-0.27270000000000005,-24.587682391654337
-0.27369999999999994,-24.828183312631392
-0.27470000000000006,-24.842330425630045
-0.27569999999999995,-24.870624651627345
-0.27670000000000006,-24.898918877624645
-0.27769999999999995,-24.969654442617898
-0.27870000000000006,-25.012095781613848
-0.27969999999999995,-25.111125572604404
-0.28070000000000006,-25.167714024599
-0.28169999999999995,-25.153566911600354
-0.28270000000000006,-25.323332267584156
-0.28369999999999995,-25.39406783257741
-0.28470000000000006,-25.46480339757066
-0.28569999999999995,-25.42236205857471
-0.28670000000000007,-25.478950510569312
-0.28769999999999996,-25.535538962563912
-0.28870000000000007,-25.677010092550415
-0.28969999999999996,-25.790186996539617
-0.29070000000000007,-25.846775448534224
-0.29169999999999996,-25.94580523952477
-0.29270000000000007,-26.14386482150588
-0.29369999999999996,-26.058982143513976
-0.2947000000000001,-26.044835030515326
-0.29569999999999996,-26.002393691519377
-0.2967000000000001,-25.94580523952477
-0.29769999999999996,-25.86092256153287
-0.2987000000000001,-26.044835030515326
-0.29969999999999997,-26.058982143513976
-0.3007000000000001,-26.101423482509926
-0.30169999999999997,-26.17215904750318
-0.3027000000000001,-26.21460038649913
-0.30369999999999997,-26.511689759470787
-0.3047000000000001,-26.370218629484285
-0.30569999999999997,-26.511689759470787
-0.3067000000000001,-26.511689759470787
-0.3077,-26.356071516485635
-0.3087000000000001,-26.398512855481584
-0.3097,-26.525836872469437
-0.3107000000000001,-26.681455115454593
-0.3117,-26.907808923433
-0.3127000000000001,-26.9643973754276
-0.3137,-26.89366181043435
-0.3147000000000001,-26.921956036431645
-0.3157,-26.879514697435695
-0.3167000000000001,-26.95025026242895
-0.3177,-27.091721392415455
-0.3187000000000001,-27.134162731411404
-0.3197,-27.0775742794168
-0.3207000000000001,-27.120015618412754
-0.3217,-27.204898296404657
-0.3227000000000001,-27.275633861397907
-0.3237,-27.261486748399253
-0.3247000000000001,-27.162456957408708
-0.3257,-27.233192522401957
-0.3267000000000001,-27.176604070407354
-0.3277,-27.176604070407354
-0.3287000000000001,-27.261486748399253
-0.3297,-27.275633861397907
-0.3307000000000001,-27.36051653938981
-0.3317,-27.38881076538711
-0.3327000000000001,-27.37466365238846
-0.3337,-27.37466365238846
-0.3347000000000001,-27.473693443379013
-0.3357,-27.572723234369565
-0.3367000000000001,-27.501987669376312
-0.3377,-27.445399217381713
-0.3387000000000001,-27.445399217381713
-0.3397,-27.417104991384413
-0.3407000000000001,-27.459546330380363
-0.3417,-27.43125210438306
-0.3427000000000001,-27.445399217381713
-0.3437,-27.487840556377662
-0.3447000000000001,-27.530281895373616
-0.3457,-27.544429008372262
-0.3467000000000001,-27.501987669376312
-0.3477,-27.445399217381713
-0.3487000000000001,-27.516134782374962
-0.3497,-27.38881076538711
-0.3507000000000001,-27.417104991384413
-0.3517,-27.530281895373616
-0.3527000000000001,-27.516134782374962
-0.3537,-27.487840556377662
-0.3547000000000001,-27.473693443379013
-0.3557,-27.501987669376312
-0.35670000000000013,-27.43125210438306
-0.3577,-27.487840556377662
-0.35870000000000013,-27.558576121370916
-0.3597,-27.572723234369565
-0.36070000000000013,-27.58687034736821
-0.3617,-27.572723234369565
-0.3626999999999999,-27.615164573365515
-0.3637,-27.855665494342567
-0.3646999999999999,-27.926401059335824
-0.3657,-27.827371268345274
-0.3666999999999999,-27.742488590353368
-0.3677,-27.813224155346617
-0.3686999999999999,-27.869812607341224
-0.36970000000000003,-28.039577963325023
-0.3706999999999999,-28.09616641531963
-0.37170000000000003,-28.166901980312883
-0.3726999999999999,-28.364961562293985
-0.37370000000000003,-28.364961562293985
-0.3746999999999999,-28.364961562293985
-0.37570000000000003,-28.393255788291288
-0.3766999999999999,-28.60546248327104
-0.37770000000000004,-28.690345161262943
-0.3786999999999999,-28.577168257273744
-0.37970000000000004,-28.732786500258893
-0.3806999999999999,-28.86011051724675
-0.38170000000000004,-28.93084608224
-0.38269999999999993,-29.114758551222454
-0.38370000000000004,-29.157199890218404
-0.38469999999999993,-29.25622968120896
-0.38570000000000004,-29.369406585198163
-0.38669999999999993,-29.440142150191413
-0.38770000000000004,-29.525024828183312
-0.38869999999999993,-29.73723152316307
-0.38970000000000005,-29.935291105144174
-0.39069999999999994,-30.11920357412663
-0.39170000000000005,-30.189939139119886
-0.39269999999999994,-30.37385160810234
-0.39370000000000005,-30.47288139909289
-0.39469999999999994,-30.670940981073993
-0.39570000000000005,-30.8690005630551
-0.39669999999999994,-31.010471693041605
-0.39770000000000005,-31.109501484032155
-0.39869999999999994,-31.321708179011907
-0.39970000000000006,-31.54806198699032
-0.40069999999999995,-31.77441579496872
-0.40170000000000006,-31.972475376949827
-0.40269999999999995,-32.09979939393769
-0.40370000000000006,-32.31200608891744
-0.40469999999999995,-32.52421278389719
-0.40570000000000006,-32.7788608178729
-0.40669999999999995,-33.04765596484726
-0.40770000000000006,-33.231568433829715
-0.40869999999999995,-33.51451069380272
-0.40970000000000006,-33.783305840777075
-0.41069999999999995,-34.05210098775143
-0.41170000000000007,-34.26430768273119
-0.41269999999999996,-34.47651437771095
-0.41370000000000007,-34.75945663768395
-0.41469999999999996,-35.07069312365426
-0.41570000000000007,-35.367782496625914
-0.41669999999999996,-35.594136304604326
-0.41770000000000007,-35.89122567757598
-0.41869999999999996,-36.20246216354629
-0.4197000000000001,-36.52784576251525
-0.42069999999999996,-36.768346683492304
-0.4217000000000001,-37.093730282461266
-0.42269999999999996,-37.36252542943562
-0.4237000000000001,-37.645467689408626
-0.42469999999999997,-38.04158685337084
-0.4257000000000001,-38.4518531303317
-0.42669999999999997,-38.734795390304704
-0.4277000000000001,-38.98944342428042
-0.42869999999999997,-39.328974136248014
-0.4297000000000001,-39.640210622218326
-0.43069999999999997,-40.02218267318189
-0.4317000000000001,-40.34756627215084
-0.4327,-40.68709698411846
-0.4337000000000001,-41.097363261079316
-0.4347,-41.47933531204288
-0.4357000000000001,-41.90374870200238
-0.4367,-42.3847505439565
-0.4377000000000001,-42.78086970791871
-0.4387,-43.19113598487957
-0.4397000000000001,-43.643843600836384
-0.4407,-44.025815651799945
-0.4417000000000001,-44.4077877027635
-0.4427,-44.94537799671222
-0.4437000000000001,-45.596145194650134
-0.4447,-46.10544126260155
-0.4457000000000001,-46.67132578254756
-0.4467,-47.22306318949492
-0.4477000000000001,-47.84553616143554
-0.4487,-48.36897934238561
-0.4497000000000001,-48.96315808832892
-0.4507,-49.557336834272235
-0.4517000000000001,-50.2788395972034
-0.4527,-50.85887123014807
-0.4537000000000001,-51.495491315087335
-0.4547,-52.11796428702795
-0.4557000000000001,-52.79702571096317
-0.4567,-53.419498682903786
-0.4577000000000001,-54.11270721983765
-0.4587,-54.76347441777557
-0.4597000000000001,-55.5840069716973
-0.4607,-56.37624529962171
-0.4617000000000001,-56.956276932566375
-0.4627,-57.6919268084962
-0.4637000000000001,-58.48416513642061
-0.4647,-59.290550577343694
-0.4657000000000001,-60.12523024426406
-0.4667,-60.889174346191176
-0.4677000000000001,-61.794589578104805
-0.4687,-62.81318171400764
-0.4697000000000001,-63.88836230190506
-0.4707,-64.63815929083353
-0.4717000000000001,-65.60016297474175
-0.4727,-66.47728398065809
-0.4737000000000001,-67.53831745555684
-0.4747,-68.34470289647993
-0.4757000000000001,-69.43403059737601
-0.4767,-70.31115160329232
-0.4777000000000001,-70.77800633224777
-0.4787,-70.99021302722754
-0.4797000000000001,-72.07954072812362
-0.4807,-72.97080884703858
-0.48170000000000013,-74.11672499992927
-0.4827,-74.93725755385098
-0.48370000000000013,-76.02658525474708
-0.4847,-77.05932450364854
-0.48570000000000013,-78.02132818755678
-0.4867,-78.03547530055542
-0.48570000000000013,-77.55447345860131
-0.4847,-76.63491111368903
-0.48370000000000013,-75.50314207379701
-0.4827,-75.13531713583208
-0.48170000000000013,-74.82408064986178
-0.4807,-74.00354809594008
-0.4797000000000001,-72.92836750804264
-0.4787,-72.43321855308989
-0.4777000000000001,-72.27760031010472
-0.4767,-71.31559662619651
-0.4757000000000001,-70.63653520226127
-0.4747,-69.91503243933012
-0.4737000000000001,-69.36329503238275
-0.4727,-68.82570473843404
-0.4717000000000001,-68.27396733148667
-0.4707,-67.25537519558385
-0.4697000000000001,-67.7788183765339
-0.4687,-67.18463963059058
-0.4677000000000001,-65.31722071476874
-0.4667,-64.72304196882543
-0.4657000000000001,-63.930803640901004
-0.4647,-63.4780960249442
