Potential V vs RHE, Current mA cm-2
0.4132999999999999,0.004411069832979184
0.4122999999999999,0.0026738043567449197
0.4112999999999999,0.002003231200608892
0.4102999999999999,0.0015986237688474915
0.4092999999999999,0.0013067688276853344
0.4082999999999999,0.001095976844005444
0.4072999999999999,0.0008851848603255534
0.4062999999999999,0.0006883985185143269
0.4052999999999999,0.0004469072996273651
0.4042999999999999,0.00028364961562293985
0.4032999999999999,0.0001775462681330621
0.4022999999999999,2.679463201944379e-05
0.4012999999999999,-0.00011975531153357535
0.4002999999999999,-0.00029143052777219755
0.3992999999999999,-0.0004408240410379455
0.3982999999999999,-0.0005286776127595642
0.3972999999999999,-0.0006250194522803732
0.3962999999999999,-0.0007575779010777271
0.3952999999999999,-0.0009083861256433401
0.3942999999999999,-0.0010242509811022864
0.39329999999999987,-0.001091166825585903
0.39229999999999987,-0.0011665709378687094
0.39129999999999987,-0.0012865384560972644
0.39029999999999987,-0.001421784856364362
0.38929999999999987,-0.0015109116682558593
0.38829999999999987,-0.0015816472332491108
0.38729999999999987,-0.0016311621287443871
0.38629999999999987,-0.0017542420118326456
0.38529999999999986,-0.001890054296619689
0.38429999999999986,-0.001960789861612941
0.38329999999999986,-0.002008890045808352
0.38229999999999986,-0.0020584049413036286
0.38129999999999986,-0.0021531905983945858
0.38029999999999986,-0.0022974911509808195
0.37929999999999986,-0.0023385177786769055
0.37829999999999986,-0.002383788540272587
0.37729999999999986,-0.0024545241052658386
0.37629999999999986,-0.0025196008250596307
0.37529999999999986,-0.002644095419447754
0.37429999999999986,-0.0027162456957408702
0.37329999999999985,-0.0027657605912361468
0.37229999999999985,-0.002819519620631018
0.37129999999999985,-0.002869034516126294
0.37029999999999985,-0.0029991879557138778
0.36929999999999985,-0.003060020541608074
0.36829999999999985,-0.003079826499806185
0.36729999999999985,-0.003151976776099302
0.36629999999999985,-0.0032156387845932283
0.36529999999999985,-0.003316083286883646
0.36429999999999985,-0.003383989429277168
0.36329999999999985,-0.003389648274476628
0.36229999999999984,-0.003423601345673389
0.36129999999999984,-0.003502825178465831
0.36029999999999984,-0.0036103432372555735
0.35929999999999984,-0.0036824935135486908
0.35829999999999984,-0.003689567070048016
0.35729999999999984,-0.003744740810742752
0.35629999999999984,-0.0037984998401376234
0.35529999999999984,-0.0038777236729300654
0.35429999999999984,-0.003959776928322238
0.35329999999999984,-0.0039682651961214285
0.35229999999999984,-0.003990900576919269
0.35129999999999983,-0.004068709698411846
0.35029999999999983,-0.004163495355502802
0.34929999999999983,-0.004207351405798619
0.34829999999999983,-0.0042469633221948406
0.34729999999999983,-0.004296478217690116
0.34629999999999983,-0.0043445784018855274
0.34529999999999983,-0.004422387523378105
0.34429999999999983,-0.004461999439774325
0.3432999999999998,-0.0044987819335708164
0.3422999999999998,-0.004490293665771627
0.3412999999999998,-0.004576591055063394
0.3402999999999998,-0.004660059021755431
0.3392999999999998,-0.004681279691253406
0.3382999999999998,-0.004718062185049898
0.3372999999999998,-0.004719476896349762
0.3362999999999998,-0.004791627172642879
0.3352999999999998,-0.004873680428035051
0.3342999999999998,-0.004913292344431272
0.3332999999999998,-0.004937342436528979
0.3322999999999998,-0.004955733683427223
0.3312999999999998,-0.0050052485789225
0.3302999999999998,-0.005091545968214267
0.3292999999999998,-0.005133987307210219
0.3282999999999998,-0.005135402018510084
0.3272999999999998,-0.005160866821907653
0.3262999999999998,-0.0052146258513025255
0.3252999999999999,-0.005293849684094967
0.3242999999999999,-0.005339120445690649
0.3232999999999999,-0.005332046889191323
0.3222999999999999,-0.005374488228187275
0.3212999999999999,-0.005426832546282281
0.3202999999999999,-0.005490494554776207
0.3192999999999999,-0.005544253584171079
0.3182999999999999,-0.005521618203373238
0.3172999999999999,-0.0055654742536690545
0.3162999999999999,-0.005613574437864466
0.3152999999999999,-0.005680065868958122
0.3142999999999999,-0.0057281660531535335
0.3132999999999999,-0.005709774806255287
0.3122999999999999,-0.005750801433951375
0.3112999999999999,-0.00578899863904773
0.3102999999999999,-0.005875296028339498
0.3092999999999999,-0.005914907944735718
0.3082999999999999,-0.005912078522135988
0.3072999999999999,-0.005902175543036933
0.3062999999999999,-0.0059884729323287
0.3052999999999999,-0.006050720229522762
0.3042999999999999,-0.006071940899020738
0.3032999999999999,-0.006101649836317904
0.3022999999999999,-0.006107308681517363
0.3012999999999999,-0.00615965299961237
0.3002999999999999,-0.006236047409805081
0.2992999999999999,-0.006253023945403462
0.2982999999999999,-0.006270000481001843
0.2972999999999999,-0.006265756347102247
0.2962999999999999,-0.0063237595103967145
0.2952999999999999,-0.006410056899688482
0.2942999999999999,-0.006434106991786186
0.2932999999999999,-0.006431277569186457
0.2922999999999999,-0.006438351125685782
0.2912999999999999,-0.006485036598581328
0.2902999999999999,-0.006571333987873095
0.2892999999999999,-0.006596798791270665
0.2882999999999999,-0.006578407544372421
0.2872999999999999,-0.006605287059069856
0.2862999999999999,-0.0066448989754660775
0.2852999999999999,-0.006722708096958655
0.2842999999999999,-0.006759490590755145
0.2832999999999999,-0.006751002322955954
0.2822999999999999,-0.006773637703753795
0.2812999999999999,-0.0068118349088501515
0.2802999999999999,-0.006874082206044212
0.2792999999999999,-0.006909449988540838
0.2782999999999999,-0.006886814607743
0.2772999999999999,-0.0069066205659411095
0.2762999999999999,-0.006960379595335981
0.2752999999999999,-0.0070297004490293665
0.2742999999999999,-0.007057994675026668
0.2732999999999999,-0.0070650682315259936
0.2722999999999999,-0.007055165252426938
0.2712999999999999,-0.007121656683520595
0.2702999999999999,-0.007196636382413441
0.2692999999999999,-0.007215027629311687
0.26829999999999987,-0.007230589453610202
0.26729999999999987,-0.007215027629311687
0.26629999999999987,-0.007260298390907369
0.26529999999999987,-0.007345181068899271
0.26429999999999987,-0.00736781644969711
0.26329999999999987,-0.0073649870270973816
0.26229999999999987,-0.00736781644969711
0.26129999999999987,-0.0074286490355913075
0.26029999999999986,-0.0074923110440852335
0.25929999999999986,-0.0075022140231842905
0.25829999999999986,-0.00751919055878267
0.25729999999999986,-0.007536167094381051
0.25629999999999986,-0.007572949588177541
0.25529999999999986,-0.007649343998370253
0.25429999999999986,-0.0076465145757705225
0.25329999999999986,-0.007650758709670118
0.25229999999999986,-0.007671979379168093
0.25129999999999986,-0.00771583542946391
0.25029999999999986,-0.007796473973556217
0.24929999999999986,-0.007812035797854733
0.24829999999999985,-0.007813450509154597
0.24729999999999985,-0.007817694643054193
0.24629999999999985,-0.007865794827249604
0.24529999999999985,-0.00795209221654137
0.24429999999999985,-0.007995948266837189
0.24329999999999985,-0.007959165773040696
0.24229999999999985,-0.007978971731238807
0.24129999999999985,-0.008019998358934893
0.24029999999999985,-0.008085075078728684
0.23929999999999985,-0.008119028149925446
0.23829999999999985,-0.00809214863522801
0.23729999999999984,-0.00812044286122531
0.23629999999999984,-0.008155810643721936
0.23529999999999984,-0.008219472652215863
0.23429999999999984,-0.008242108033013704
0.23329999999999984,-0.0082463521669133
0.23229999999999984,-0.00826049927991195
0.23129999999999984,-0.008312843598006955
0.23029999999999984,-0.008359529070902502
0.22929999999999984,-0.008397726275998857
0.22829999999999984,-0.008382164451700343
0.22729999999999984,-0.008400555698598587
0.22629999999999983,-0.008448655882793999
0.22529999999999983,-0.008517976736487387
0.22429999999999983,-0.00853070913818617
0.22329999999999983,-0.008534953272085767
0.22229999999999983,-0.008534953272085767
0.22129999999999983,-0.008590127012780502
0.22029999999999983,-0.00865378902127443
0.21929999999999983,-0.008682083247271731
0.21829999999999983,-0.00866793613427308
0.21729999999999983,-0.008682083247271731
0.21629999999999983,-0.008730183431467142
0.21529999999999982,-0.008799504285160529
0.21429999999999982,-0.008813651398159178
0.21329999999999982,-0.008817895532058775
0.21229999999999982,-0.00883911620155675
0.21129999999999982,-0.00887023985015378
0.21029999999999982,-0.008948048971646357
0.20929999999999982,-0.008962196084645007
0.20829999999999982,-0.008962196084645007
0.20729999999999982,-0.008976343197643658
0.20629999999999982,-0.00902161395923934
0.20529999999999982,-0.00908952010163286
0.20429999999999982,-0.009112155482430702
0.20329999999999981,-0.009100837792031781
0.2022999999999998,-0.009119229038930027
0.2012999999999998,-0.009163085089225842
0.20029999999999992,-0.009223917675120038
0.19929999999999992,-0.009253626612417205
0.19829999999999992,-0.009250797189817474
0.19729999999999992,-0.009257870746316801
0.19629999999999992,-0.009310215064411806
0.19529999999999992,-0.009361144671206948
0.19429999999999992,-0.009438953792699524
0.19329999999999992,-0.00945451561699804
0.19229999999999992,-0.0094318802362002
0.19129999999999991,-0.009477150997795883
0.1902999999999999,-0.00952525118199129
0.1892999999999999,-0.009550715985388864
0.1882999999999999,-0.009560618964487917
0.1872999999999999,-0.009563448387087647
0.1862999999999999,-0.009610133859983196
0.1852999999999999,-0.0096907724040755
0.1842999999999999,-0.00970491951707415
0.1832999999999999,-0.009693601826675231
0.1822999999999999,-0.009699260671874693
0.1812999999999999,-0.009755849123869294
0.1802999999999999,-0.009846390647060655
0.1792999999999999,-0.00982799940016241
0.1782999999999999,-0.009846390647060655
0.1772999999999999,-0.00984497593576079
0.1762999999999999,-0.009897320253855797
0.1752999999999999,-0.009965226396249317
0.1742999999999999,-0.00997654408664824
0.1732999999999999,-0.009973714664048509
0.1722999999999999,-0.010010497157845
0.1712999999999999,-0.01002747369344338
0.1702999999999999,-0.010112356371435281
0.1692999999999999,-0.010122259350534337
0.1682999999999999,-0.010134991752233124
0.1672999999999999,-0.010147724153931907
0.1662999999999999,-0.01018167722512867
0.1652999999999999,-0.01025807163532138
0.1642999999999999,-0.010283536438718951
0.1632999999999999,-0.01025807163532138
0.1622999999999999,-0.010292024706518141
0.1612999999999999,-0.0103302219116145
0.1602999999999999,-0.010393883920108425
0.1592999999999999,-0.010425007568705454
0.15829999999999989,-0.01042642228000532
0.15729999999999988,-0.01043491054780451
0.15629999999999988,-0.010481596020700056
0.15529999999999988,-0.010550916874393444
0.15429999999999988,-0.010584869945590204
0.15329999999999988,-0.010569308121291688
0.15229999999999988,-0.010580625811690609
0.15129999999999988,-0.01064004368628494
0.15029999999999988,-0.010700876272179137
0.14929999999999988,-0.010717852807777517
0.14829999999999988,-0.010724926364276844
0.14729999999999988,-0.010731999920776168
0.14629999999999987,-0.010770197125872525
0.14529999999999987,-0.010853665092564562
0.14429999999999987,-0.010870641628162942
0.14329999999999987,-0.010879129895962132
0.14229999999999987,-0.010921571234958082
0.14129999999999987,-0.01095410959485498
0.14029999999999987,-0.01101069804684958
0.13929999999999987,-0.011034748138947286
0.13829999999999987,-0.01104182169544661
0.13729999999999987,-0.011054554097145397
0.13629999999999987,-0.011112557260439863
0.13529999999999986,-0.011171975135034195
0.13429999999999986,-0.01118753695933271
0.13329999999999986,-0.011186122248032844
0.13229999999999986,-0.011214416474030146
0.13129999999999986,-0.011273834348624478
0.13029999999999986,-0.011340325779718134
0.12929999999999986,-0.011362961160515975
0.12829999999999986,-0.011360131737916244
0.12729999999999986,-0.01138135240741422
0.12629999999999986,-0.011429452591609632
0.12529999999999986,-0.011495944022703288
0.12429999999999986,-0.011524238248700589
0.12329999999999985,-0.01152989709390005
0.12229999999999985,-0.011559606031197215
0.12129999999999985,-0.011606291504092762
0.12029999999999985,-0.011664294667387227
0.11929999999999985,-0.011698247738583988
0.11829999999999985,-0.011688344759484933
0.11729999999999985,-0.011730786098480885
0.11629999999999985,-0.01178595983917562
0.11529999999999985,-0.011842548291170221
0.11429999999999985,-0.011879330784966714
0.11329999999999985,-0.011866598383267929
0.11229999999999984,-0.011886404341466037
0.11129999999999984,-0.011964213462958615
0.11029999999999984,-0.012016557781053622
0.10929999999999984,-0.012040607873151327
0.10829999999999984,-0.012034949027951866
0.10729999999999984,-0.012057584408749707
0.10629999999999984,-0.012121246417243634
0.10529999999999984,-0.012183493714437697
0.10429999999999984,-0.012213202651734862
0.10329999999999984,-0.012225935053433647
0.10229999999999984,-0.012223105630833916
0.10129999999999983,-0.012283938216728112
0.10029999999999983,-0.01236174733822069
0.09929999999999983,-0.012368820894720016
0.09829999999999983,-0.012385797430318396
0.09729999999999983,-0.012399944543317045
0.09629999999999983,-0.012465021263110838
0.09529999999999983,-0.012545659807203145
0.09429999999999983,-0.012558392208901932
0.09329999999999983,-0.0125555627863022
0.09229999999999983,-0.012572539321900581
0.09129999999999983,-0.012640445464294103
0.09029999999999982,-0.012723913430986139
0.08929999999999982,-0.012743719389184251
0.08829999999999982,-0.012739475255284655
0.08729999999999982,-0.01277484303778128
0.08629999999999982,-0.012817284376777233
0.08529999999999982,-0.012893678786969945
0.08429999999999982,-0.01293470541466603
0.08329999999999982,-0.012921973012967245
0.08229999999999982,-0.012947437816364817
0.08129999999999982,-0.013001196845759686
0.08029999999999982,-0.013081835389851994
0.07929999999999982,-0.013124276728847946
0.07829999999999981,-0.013121447306248216
0.07729999999999981,-0.013146912109645786
0.07629999999999981,-0.013206329984240118
0.07529999999999992,-0.013272821415333773
0.07429999999999992,-0.013315262754329725
0.07329999999999992,-0.0133081891978304
0.07229999999999992,-0.013326580444728646
0.07129999999999992,-0.013383168896723247
0.07029999999999992,-0.013466636863415286
0.06929999999999992,-0.013503419357211773
0.06829999999999992,-0.013503419357211773
0.06729999999999992,-0.013523225315409887
0.06629999999999991,-0.013601034436902462
0.06529999999999991,-0.013671770001895714
0.06429999999999991,-0.013685917114894365
0.06329999999999991,-0.013719870186091125
0.06229999999999991,-0.013717040763491397
0.06129999999999991,-0.013787776328484647
0.06029999999999991,-0.013871244295176685
0.05929999999999991,-0.013874073717776415
0.05829999999999991,-0.013893879675974526
0.05729999999999991,-0.013917929768072232
0.056299999999999906,-0.013977347642666562
0.055299999999999905,-0.014070718588457654
0.054299999999999904,-0.014082036278856576
0.0532999999999999,-0.014104671659654415
0.0522999999999999,-0.014131551174351852
0.0512999999999999,-0.014175407224647668
0.0502999999999999,-0.01426028990263957
0.0492999999999999,-0.014288584128636872
0.0482999999999999,-0.01430273124163552
0.0472999999999999,-0.014331025467632824
0.0462999999999999,-0.014387613919627423
0.045299999999999896,-0.014472496597619325
0.044299999999999895,-0.014486643710617976
0.043299999999999894,-0.014486643710617976
0.04229999999999989,-0.014514937936615275
0.04129999999999989,-0.014585673501608528
0.04029999999999989,-0.01469885040559773
0.03929999999999989,-0.014712997518596381
0.03829999999999989,-0.014712997518596381
0.03729999999999989,-0.014741291744593682
0.03629999999999989,-0.014812027309586936
0.03529999999999989,-0.014896909987578835
0.034299999999999886,-0.014925204213576137
0.033299999999999885,-0.014939351326574786
0.032299999999999884,-0.014939351326574786
0.031299999999999883,-0.015024234004566688
0.030299999999999883,-0.015080822456561293
0.02929999999999988,-0.015109116682558592
0.02829999999999988,-0.015137410908555892
0.02729999999999988,-0.015179852247551842
0.02629999999999988,-0.015236440699546445
0.025299999999999878,-0.015293029151541045
0.024299999999999877,-0.015335470490536997
0.023299999999999876,-0.015349617603535646
0.022299999999999875,-0.0153637647165343
0.021299999999999875,-0.015420353168528897
0.020299999999999874,-0.015505235846520802
0.019299999999999873,-0.015519382959519455
0.018299999999999872,-0.015561824298515404
0.01729999999999987,-0.015561824298515404
0.01629999999999987,-0.015632559863508654
0.01529999999999987,-0.015717442541500558
0.014299999999999868,-0.015745736767497857
0.013299999999999867,-0.015745736767497857
0.012299999999999978,-0.01578817810649381
0.011299999999999866,-0.01584476655848841
0.010299999999999976,-0.015929649236480315
0.009299999999999864,-0.015943796349478963
0.008299999999999974,-0.01597209057547626
0.007299999999999862,-0.015986237688474913
0.006299999999999972,-0.016042826140469518
0.00529999999999986,-0.016127708818461418
0.0042999999999999705,-0.01615600304445872
0.0032999999999998586,-0.01615600304445872
0.0022999999999999687,-0.01619844438345467
0.0012999999999998568,-0.016269179948447923
0.00029999999999996696,-0.016339915513441175
-0.000700000000000145,-0.01638235685243712
-0.0017000000000000348,-0.01638235685243712
-0.0027000000000001467,-0.016410651078434424
-0.0037000000000000366,-0.01650968086942498
-0.0047000000000001485,-0.01658041643441823
-0.005700000000000038,-0.01660871066041553
-0.00670000000000015,-0.01662285777341418
-0.00770000000000004,-0.01665115199941148
-0.008700000000000152,-0.01670774045140608
-0.009700000000000042,-0.016792623129397985
-0.010700000000000154,-0.01683506446839394
-0.011700000000000044,-0.016863358694391237
-0.012700000000000156,-0.01687750580738989
-0.013700000000000045,-0.016948241372383138
-0.014700000000000157,-0.017018976937376393
-0.015700000000000047,-0.01703312405037504
-0.01670000000000016,-0.01706141827637234
-0.01770000000000005,-0.017075565389370995
-0.01870000000000016,-0.017146300954364244
-0.01970000000000005,-0.017231183632356147
-0.020700000000000163,-0.0172453307453548
-0.021700000000000053,-0.017273624971352097
-0.022700000000000164,-0.0173019191973494
-0.023700000000000054,-0.017372654762342652
-0.024700000000000166,-0.017457537440334552
-0.025700000000000056,-0.017471684553333203
-0.026700000000000168,-0.01748583166633185
-0.027700000000000058,-0.017514125892329157
-0.02870000000000017,-0.017570714344323755
-0.02970000000000006,-0.01766974413531431
-0.03070000000000017,-0.01768389124831296
-0.03170000000000006,-0.01771218547431026
-0.03270000000000017,-0.01774047970030756
-0.03370000000000006,-0.017797068152302163
-0.034700000000000175,-0.017881950830294063
-0.035700000000000065,-0.017910245056291362
-0.03670000000000018,-0.017924392169290013
-0.03770000000000007,-0.017966833508285963
-0.03870000000000018,-0.01803756907327922
-0.03970000000000007,-0.018094157525273817
-0.04070000000000018,-0.01813659886426977
-0.04170000000000007,-0.01813659886426977
-0.04270000000000018,-0.018193187316264375
-0.04370000000000007,-0.018263922881257624
-0.044700000000000184,-0.018334658446250877
-0.045700000000000074,-0.018362952672248176
-0.046700000000000186,-0.018377099785246823
-0.047700000000000076,-0.018405394011244126
-0.04870000000000019,-0.01849027668923603
-0.04970000000000008,-0.018575159367227933
-0.05070000000000019,-0.018603453593225232
-0.05170000000000008,-0.018617600706223883
-0.05270000000000019,-0.018617600706223883
-0.05370000000000008,-0.018702483384215783
-0.05470000000000019,-0.018801513175206338
-0.05570000000000008,-0.018815660288204986
-0.056700000000000195,-0.018843954514202284
-0.057700000000000085,-0.01885810162720094
-0.058700000000000196,-0.01892883719219419
-0.059700000000000086,-0.019042014096183394
-0.0607000000000002,-0.019027866983184743
-0.06170000000000009,-0.019098602548177995
