Potential V vs RHE, Current mA cm-2
0.4132999999999999,0.002463012373065029
0.4122999999999999,0.00046643031556550254
0.4112999999999999,-0.0003625905061554089
0.4102999999999999,-0.0008874483984053377
0.4092999999999999,-0.0012767769481281956
0.4082999999999999,-0.001575988388049651
0.4072999999999999,-0.0018744924723211734
0.4062999999999999,-0.0021659230000933708
0.4052999999999999,-0.0024587682391654336
0.4042999999999999,-0.0026766337793446495
0.4032999999999999,-0.0028449844240285888
0.4022999999999999,-0.003050117562509019
0.4012999999999999,-0.0032594948348890446
0.4002999999999999,-0.00346887210726907
0.3992999999999999,-0.0036400521745527394
0.3982999999999999,-0.003780108593239378
0.3972999999999999,-0.0038947002085284463
0.3962999999999999,-0.004046074317614005
0.3952999999999999,-0.004214424962297944
0.3942999999999999,-0.004303551774189441
0.39329999999999987,-0.004391263874781073
0.39229999999999987,-0.004474731841473111
0.39129999999999987,-0.004638838352257455
0.39029999999999987,-0.004768991791845039
0.38929999999999987,-0.004846800913337616
0.38829999999999987,-0.004921780612230462
0.38729999999999987,-0.004935927725229113
0.38629999999999987,-0.005061837030917102
0.38529999999999986,-0.005187746336605089
0.38429999999999986,-0.005251408345099016
0.38329999999999986,-0.005283946704995912
0.38229999999999986,-0.005302337951894158
0.38129999999999986,-0.0054112707219837654
0.38029999999999986,-0.0055272770485726985
0.37929999999999986,-0.005559815408469594
0.37829999999999986,-0.005593768479666355
0.37729999999999986,-0.005639039241262036
0.37629999999999986,-0.005714018940154883
0.37529999999999986,-0.005825781132844221
0.37429999999999986,-0.005863978337940577
0.37329999999999985,-0.005885199007438552
0.37229999999999985,-0.005941787459433154
0.37129999999999985,-0.006011108313126541
0.37029999999999985,-0.006118626371916283
0.36929999999999985,-0.006151164731813179
0.36829999999999985,-0.006163897133511965
0.36729999999999985,-0.00618794722560967
0.36629999999999985,-0.006251609234103597
0.36529999999999985,-0.0063364919120954995
0.36429999999999985,-0.006354883158993745
0.36329999999999985,-0.00637893325109145
0.36229999999999984,-0.006410056899688482
0.36129999999999984,-0.006470889485582678
0.36029999999999984,-0.00655294274097485
0.35929999999999984,-0.006591139946071206
0.35829999999999984,-0.006584066389571881
0.35729999999999984,-0.006605287059069856
0.35629999999999984,-0.006674607912763243
0.35529999999999984,-0.00675524645685555
0.35429999999999984,-0.006784955394152717
0.35329999999999984,-0.006787784816752447
0.35229999999999984,-0.006810420197550286
0.35129999999999983,-0.006879741051243673
0.35029999999999983,-0.00695472075013652
0.34929999999999983,-0.0069745267083346305
0.34829999999999983,-0.006997162089132472
0.34729999999999983,-0.007024041603829908
0.34629999999999983,-0.007070727076725453
0.34529999999999983,-0.007159853888616951
0.34429999999999983,-0.007181074558114927
0.3432999999999998,-0.0071754157129154655
0.3422999999999998,-0.007186733403314387
0.3412999999999998,-0.007237663010109528
0.3402999999999998,-0.007326789822001026
0.3392999999999998,-0.007342351646299541
0.3382999999999998,-0.007362157604497651
0.3372999999999998,-0.007369231160996976
0.3362999999999998,-0.007425819612991578
0.3352999999999998,-0.0074923110440852335
0.3342999999999998,-0.007531922960481456
0.3332999999999998,-0.007529093537881725
0.3322999999999998,-0.00755597305257916
0.3312999999999998,-0.0075955849689753815
0.3302999999999998,-0.00768188235826715
0.3292999999999998,-0.007700273605165396
0.3282999999999998,-0.00770451773906499
0.3272999999999998,-0.00772149427466337
0.3262999999999998,-0.00776959445885878
0.3252999999999999,-0.007838915312552168
0.3242999999999999,-0.007879941940248256
0.3232999999999999,-0.007865794827249604
0.3222999999999999,-0.007888430208047444
0.3212999999999999,-0.007939359814842588
0.3202999999999999,-0.008025657204134352
0.3192999999999999,-0.008062439697930844
0.3182999999999999,-0.008051122007531924
0.3172999999999999,-0.008089319212628279
0.3162999999999999,-0.008160054777621533
0.3152999999999999,-0.008229375631314918
0.3142999999999999,-0.008236449187814243
0.3132999999999999,-0.008222302074815594
0.3122999999999999,-0.008223716786115458
0.3112999999999999,-0.00828313466070979
0.3102999999999999,-0.00835387022570304
0.3092999999999999,-0.008387823296899802
0.3082999999999999,-0.008383579163000207
0.3072999999999999,-0.008411873388997508
0.3062999999999999,-0.008458558861893055
0.3052999999999999,-0.008539197405985362
0.3042999999999999,-0.008549100385084416
0.3032999999999999,-0.008557588652883606
0.3022999999999999,-0.008563247498083066
0.3012999999999999,-0.008608518259678748
0.3002999999999999,-0.008694815648970516
0.2992999999999999,-0.008701889205469842
0.2982999999999999,-0.008716036318468491
0.2972999999999999,-0.008737256987966466
0.2962999999999999,-0.008792430728661203
0.2952999999999999,-0.008885801674452295
0.2942999999999999,-0.008897119364851215
0.2932999999999999,-0.008898534076151082
0.2922999999999999,-0.008914095900449595
0.2912999999999999,-0.008959366662045278
0.2902999999999999,-0.009065470009535155
0.2892999999999999,-0.009079617122533806
0.2882999999999999,-0.009068299432134885
0.2872999999999999,-0.009110740771130837
0.2862999999999999,-0.009168743934425303
0.2852999999999999,-0.009229576520319499
0.2842999999999999,-0.009267773725415856
0.2832999999999999,-0.009279091415814776
0.2822999999999999,-0.00929182381751356
0.2812999999999999,-0.009358315248607219
0.2802999999999999,-0.009438953792699524
0.2792999999999999,-0.009477150997795883
0.2782999999999999,-0.009468662729996689
0.2772999999999999,-0.009496956955993991
0.2762999999999999,-0.009580424922686029
0.2752999999999999,-0.00964267221988009
0.2742999999999999,-0.009686528270175906
0.2732999999999999,-0.009706334228374016
0.2722999999999999,-0.009717651918772937
0.2712999999999999,-0.009812437575863895
0.2702999999999999,-0.009874684873057957
0.2692999999999999,-0.009917126212053907
0.26829999999999987,-0.009929858613752693
0.26729999999999987,-0.009946835149351073
0.26629999999999987,-0.010017570714344325
0.26529999999999987,-0.010115185794035012
0.26429999999999987,-0.010149138865231774
0.26329999999999987,-0.010177433091229074
0.26229999999999987,-0.010174603668629344
0.26129999999999987,-0.01024392452232273
0.26029999999999986,-0.010338710179413688
0.25929999999999986,-0.010338710179413688
0.25829999999999986,-0.010371248539310585
0.25729999999999986,-0.01039529863140829
0.25629999999999986,-0.01045188708340289
0.25529999999999986,-0.010550916874393444
0.25429999999999986,-0.010582040522990473
0.25329999999999986,-0.010570722832591554
0.25229999999999986,-0.010597602347288989
0.25129999999999986,-0.010655605510583456
0.25029999999999986,-0.010736244054675765
0.24929999999999986,-0.010777270682371849
0.24829999999999985,-0.01077444125977212
0.24729999999999985,-0.010822541443967531
0.24629999999999985,-0.010866397494263347
0.24529999999999985,-0.010975330264352956
0.24429999999999985,-0.01099655093385093
0.24329999999999985,-0.010972500841753226
0.24229999999999985,-0.01099938035645066
0.24129999999999985,-0.011055968808445261
0.24029999999999985,-0.011123874950838783
0.23929999999999985,-0.011186122248032844
0.23829999999999985,-0.011186122248032844
0.23729999999999984,-0.01117338984633406
0.23629999999999984,-0.011238466566127852
0.23529999999999984,-0.011306372708521374
0.23429999999999984,-0.011334666934518673
0.23329999999999984,-0.011319105110220157
0.23229999999999984,-0.011340325779718134
0.23129999999999984,-0.011408231922111656
0.23029999999999984,-0.011490285177503827
0.22929999999999984,-0.011519994114800992
0.22829999999999984,-0.011531311805199914
0.22729999999999984,-0.01152989709390005
0.22629999999999983,-0.01159214439109411
0.22529999999999983,-0.011658635822187766
0.22429999999999983,-0.011652976976988307
0.22329999999999983,-0.011630341596190467
0.22229999999999983,-0.011636000441389925
0.22129999999999983,-0.01169258889338453
0.22029999999999983,-0.01175766561317832
0.21929999999999983,-0.01178313041657589
0.21829999999999983,-0.011787374550475486
0.21729999999999983,-0.011797277529574539
0.21629999999999983,-0.011825571755571843
0.21529999999999982,-0.011904795588364284
0.21429999999999982,-0.011924601546562394
0.21329999999999982,-0.011906210299664148
0.21229999999999982,-0.011907625010964014
0.21129999999999982,-0.01194016337086091
0.21029999999999982,-0.012025046048852812
0.20929999999999982,-0.012032119605352137
0.20829999999999982,-0.012025046048852812
0.20729999999999982,-0.012050510852250384
0.20629999999999982,-0.012083049212147279
0.20529999999999982,-0.012139637664141879
0.20429999999999982,-0.012166517178839315
0.20329999999999981,-0.012138222952842014
0.2022999999999998,-0.01215661419974026
0.2012999999999998,-0.012223105630833916
0.20029999999999992,-0.012266961681129732
0.19929999999999992,-0.012293841195827169
0.19829999999999992,-0.012283938216728112
0.19729999999999992,-0.012295255907127035
0.19629999999999992,-0.01233628253482312
0.19529999999999992,-0.012392870986817722
0.19429999999999992,-0.012462191840511108
0.19329999999999992,-0.012467850685710569
0.19229999999999992,-0.012439556459713268
0.19129999999999991,-0.012483412510009085
0.1902999999999999,-0.012559806920201795
0.1892999999999999,-0.012583857012299502
0.1882999999999999,-0.012582442300999636
0.1872999999999999,-0.012565465765401256
0.1862999999999999,-0.012609321815697072
0.1852999999999999,-0.012680057380690323
0.1842999999999999,-0.01268430151458992
0.1832999999999999,-0.012678642669390458
0.1822999999999999,-0.012682886803290053
0.1812999999999999,-0.012735231121385061
0.1802999999999999,-0.012821528510676828
0.1792999999999999,-0.012835675623675479
0.1782999999999999,-0.012824357933276557
0.1772999999999999,-0.012815869665477366
0.1762999999999999,-0.012868213983572373
0.1752999999999999,-0.01295451137286414
0.1742999999999999,-0.012965829063263061
0.1732999999999999,-0.012961584929363466
0.1722999999999999,-0.012982805598861443
0.1712999999999999,-0.012999782134459821
0.1702999999999999,-0.013073347122052803
0.1692999999999999,-0.013093153080250913
0.1682999999999999,-0.013095982502850644
0.1672999999999999,-0.013115788461048756
0.1662999999999999,-0.01314266797574619
0.1652999999999999,-0.013220477097238767
0.1642999999999999,-0.013244527189336474
0.1632999999999999,-0.013234624210237416
0.1622999999999999,-0.013254430168435529
0.1612999999999999,-0.01330535977523067
0.1602999999999999,-0.01337043649502446
0.1592999999999999,-0.013397316009721896
0.15829999999999989,-0.013363362938525138
0.15729999999999988,-0.013390242453222572
0.15629999999999988,-0.013439757348717848
0.15529999999999988,-0.013497760512012314
0.15429999999999988,-0.013548690118807456
0.15329999999999988,-0.01354727540750759
0.15229999999999988,-0.013571325499605297
0.15129999999999988,-0.013651964043697605
0.15029999999999988,-0.013719870186091125
0.14929999999999988,-0.013759482102487347
0.14829999999999988,-0.0137410908555891
0.14729999999999988,-0.013739676144289234
0.14629999999999987,-0.013779288060685456
0.14529999999999987,-0.013845779491779115
0.14429999999999987,-0.013855682470878171
0.14329999999999987,-0.013874073717776415
0.14229999999999987,-0.0138868061194752
0.14129999999999987,-0.013929247458471152
0.14029999999999987,-0.01401271542516319
0.13929999999999987,-0.014014130136463054
0.13829999999999987,-0.014016959559062781
0.13729999999999987,-0.01401554484776292
0.13629999999999987,-0.014073548011057384
0.13529999999999986,-0.014161260111649017
0.13429999999999986,-0.014161260111649017
0.13329999999999986,-0.014140039442151042
0.13229999999999986,-0.014175407224647668
0.13129999999999986,-0.014217848563643616
0.13029999999999986,-0.014288584128636872
0.12929999999999986,-0.014316878354634173
0.12829999999999986,-0.01430273124163552
0.12729999999999986,-0.014331025467632824
0.12629999999999986,-0.014373466806628774
0.12529999999999986,-0.014444202371622025
0.12429999999999986,-0.014486643710617976
0.12329999999999985,-0.014458349484620674
0.12229999999999985,-0.014486643710617976
0.12129999999999985,-0.014543232162612576
0.12029999999999985,-0.01461396772760583
0.11929999999999985,-0.014642261953603129
0.11829999999999985,-0.014642261953603129
0.11729999999999985,-0.01465640906660178
0.11629999999999985,-0.014712997518596381
0.11529999999999985,-0.014769585970590984
0.11429999999999985,-0.014826174422585584
0.11329999999999985,-0.014812027309586936
0.11229999999999984,-0.014812027309586936
0.11129999999999984,-0.014896909987578835
0.11029999999999984,-0.014939351326574786
0.10929999999999984,-0.014967645552572089
0.10829999999999984,-0.014967645552572089
0.10729999999999984,-0.014981792665570736
0.10629999999999984,-0.015024234004566688
0.10529999999999984,-0.015123263795557243
0.10429999999999984,-0.015165705134553195
0.10329999999999984,-0.015137410908555892
0.10229999999999984,-0.015151558021554544
0.10129999999999983,-0.015208146473549147
0.10029999999999983,-0.015307176264539698
0.09929999999999983,-0.015321323377538347
0.09829999999999983,-0.015307176264539698
0.09729999999999983,-0.015335470490536997
0.09629999999999983,-0.015392058942531598
0.09529999999999983,-0.015476941620523503
0.09429999999999983,-0.015491088733522153
0.09329999999999983,-0.015505235846520802
0.09229999999999983,-0.015547677185516754
0.09129999999999983,-0.015575971411514053
0.09029999999999982,-0.015660854089505957
0.08929999999999982,-0.015703295428501907
0.08829999999999982,-0.015675001202504608
0.08729999999999982,-0.015703295428501907
0.08629999999999982,-0.015774030993495156
0.08529999999999982,-0.015873060784485714
0.08429999999999982,-0.01588720789748436
0.08329999999999982,-0.015873060784485714
0.08229999999999982,-0.015901355010483013
0.08129999999999982,-0.015957943462477614
0.08029999999999982,-0.016042826140469518
0.07929999999999982,-0.016071120366466816
0.07829999999999981,-0.01608526747946547
0.07729999999999981,-0.01608526747946547
0.07629999999999981,-0.016170150157457368
0.07529999999999992,-0.01624088572245062
0.07429999999999992,-0.016269179948447923
0.07329999999999992,-0.016283327061446574
0.07229999999999992,-0.01629747417444522
0.07129999999999992,-0.016368209739438477
0.07029999999999992,-0.016438945304431726
0.06929999999999992,-0.01646723953042903
0.06829999999999992,-0.01648138664342768
0.06729999999999992,-0.01650968086942498
0.06629999999999991,-0.01659456354741688
0.06529999999999991,-0.01666529911241013
0.06429999999999991,-0.016693593338407434
0.06329999999999991,-0.01673603467740338
0.06229999999999991,-0.016778476016399334
0.06129999999999991,-0.016863358694391237
0.06029999999999991,-0.016962388485381792
0.05929999999999991,-0.01699068271137909
0.05829999999999991,-0.01699068271137909
0.05729999999999991,-0.01697653559838044
0.056299999999999906,-0.01703312405037504
0.055299999999999905,-0.017132153841365592
0.054299999999999904,-0.017160448067362895
0.0532999999999999,-0.017174595180361543
0.0522999999999999,-0.017217036519357496
0.0512999999999999,-0.017259477858353446
0.0502999999999999,-0.01734436053634535
0.0492999999999999,-0.0173868018753413
0.0482999999999999,-0.0173868018753413
0.0472999999999999,-0.017429243214337253
0.0462999999999999,-0.017471684553333203
0.045299999999999896,-0.017556567231325104
0.044299999999999895,-0.017613155683319705
0.043299999999999894,-0.017613155683319705
0.04229999999999989,-0.01765559702231566
0.04129999999999989,-0.01771218547431026
0.04029999999999989,-0.017825362378299462
0.03929999999999989,-0.017839509491298113
0.03829999999999989,-0.017825362378299462
0.03729999999999989,-0.017867803717295416
0.03629999999999989,-0.017952686395287316
0.03529999999999989,-0.018023421960280565
0.034299999999999886,-0.018080010412275173
0.033299999999999885,-0.018094157525273817
0.032299999999999884,-0.018094157525273817
0.031299999999999883,-0.01817904020326572
0.030299999999999883,-0.018249775768258973
0.02929999999999988,-0.018292217107254923
0.02829999999999988,-0.018320511333252226
0.02729999999999988,-0.018348805559249524
0.02629999999999988,-0.018419541124242777
0.025299999999999878,-0.01850442380223468
0.024299999999999877,-0.018546865141230634
0.023299999999999876,-0.018546865141230634
0.022299999999999875,-0.01856101225422928
0.021299999999999875,-0.018645894932221182
0.020299999999999874,-0.018759071836210388
0.019299999999999873,-0.018787366062207687
0.018299999999999872,-0.018815660288204986
0.01729999999999987,-0.018843954514202284
0.01629999999999987,-0.018900542966196893
0.01529999999999987,-0.019027866983184743
0.014299999999999868,-0.019056161209182042
0.013299999999999867,-0.019098602548177995
0.012299999999999978,-0.0191551910001726
0.011299999999999866,-0.019197632339168547
0.010299999999999976,-0.0192966621301591
0.009299999999999864,-0.019353250582153703
0.008299999999999974,-0.01933910346915505
0.007299999999999862,-0.019367397695152354
0.006299999999999972,-0.019438133260145606
0.00529999999999986,-0.01950886882513886
0.0042999999999999705,-0.019551310164134805
0.0032999999999998586,-0.019579604390132108
0.0022999999999999687,-0.019607898616129407
0.0012999999999998568,-0.01970692840711996
0.00029999999999996696,-0.019791811085111865
-0.000700000000000145,-0.019848399537106463
-0.0017000000000000348,-0.019834252424107815
-0.0027000000000001467,-0.019862546650105117
-0.0037000000000000366,-0.019947429328097017
-0.0047000000000001485,-0.02004645911908757
-0.005700000000000038,-0.02008890045808352
-0.00670000000000015,-0.02011719468408082
-0.00770000000000004,-0.020131341797079472
-0.008700000000000152,-0.020230371588070024
-0.009700000000000042,-0.02032940137906058
-0.010700000000000154,-0.020400136944053827
-0.011700000000000044,-0.020400136944053827
-0.012700000000000156,-0.02042843117005113
-0.013700000000000045,-0.020499166735044382
-0.014700000000000157,-0.020584049413036282
-0.015700000000000047,-0.020612343639033585
-0.01670000000000016,-0.020640637865030884
-0.01770000000000005,-0.020640637865030884
-0.01870000000000016,-0.020725520543022787
-0.01970000000000005,-0.020838697447011986
-0.020700000000000163,-0.02085284456001064
-0.021700000000000053,-0.02086699167300929
-0.022700000000000164,-0.020895285899006594
-0.023700000000000054,-0.020980168576998495
-0.024700000000000166,-0.021065051254990398
-0.025700000000000056,-0.021107492593986348
-0.026700000000000168,-0.021121639706984996
-0.027700000000000058,-0.021149933932982302
-0.02870000000000017,-0.02122066949797555
-0.02970000000000006,-0.021319699288966102
-0.03070000000000017,-0.021376287740960703
-0.03170000000000006,-0.021362140627962056
-0.03270000000000017,-0.021418729079956657
-0.03370000000000006,-0.021489464644949906
-0.034700000000000175,-0.02157434732294181
-0.035700000000000065,-0.02163093577493641
-0.03670000000000018,-0.021645082887935062
-0.03770000000000007,-0.021687524226931015
-0.03870000000000018,-0.021744112678925617
-0.03970000000000007,-0.021843142469916164
-0.04070000000000018,-0.02189973092191077
-0.04170000000000007,-0.021913878034909417
-0.04270000000000018,-0.02194217226090672
-0.04370000000000007,-0.022012907825899968
-0.044700000000000184,-0.022111937616890523
-0.045700000000000074,-0.022154378955886473
-0.046700000000000186,-0.02218267318188378
-0.047700000000000076,-0.022210967407881078
-0.04870000000000019,-0.022295850085872978
-0.04970000000000008,-0.02239487987686353
-0.05070000000000019,-0.022437321215859483
-0.05170000000000008,-0.022437321215859483
-0.05270000000000019,-0.022465615441856785
-0.05370000000000008,-0.022550498119848682
-0.05470000000000019,-0.022635380797840585
-0.05570000000000008,-0.02267782213683654
-0.056700000000000195,-0.02270611636283384
-0.057700000000000085,-0.02273441058883114
-0.058700000000000196,-0.022819293266823044
-0.059700000000000086,-0.022932470170812246
-0.0607000000000002,-0.022960764396809545
-0.06170000000000009,-0.0230032057358055
-0.0627000000000002,-0.023031499961802798
