Potential V vs RHE, Current mA cm-2
0.013299999999999867,8.501000200889004
0.012299999999999978,7.144292064318436
0.011299999999999866,5.889443141338147
0.010299999999999976,4.85387446983694
0.009299999999999864,4.0050476899179195
0.008299999999999974,3.1548061986990317
0.007299999999999862,2.3455913351762305
0.006299999999999972,1.6863358694391237
0.00529999999999986,1.0385395652309235
0.0042999999999999705,0.3539607672262322
0.0032999999999998586,-0.19268367904161798
0.0022999999999999687,-0.7018382758630447
0.0012999999999998568,-1.2817284376777232
0.00029999999999996696,-1.776877392630486
-0.000700000000000145,-2.1800701130920217
-0.0017000000000000348,-2.648339553347349
-0.0027000000000001467,-3.120853127502271
-0.0037000000000000366,-3.4787750863681253
-0.0047000000000001485,-3.86782069383101
-0.005700000000000038,-4.326187154987283
-0.00670000000000015,-4.681279691253407
-0.00770000000000004,-4.9571483947270885
-0.008700000000000152,-5.346194002189974
-0.009700000000000042,-5.689968848057178
-0.010700000000000154,-5.958763995031535
-0.011700000000000044,-6.294050573099549
-0.012700000000000156,-6.6364107076668875
-0.013700000000000045,-6.850032113946507
-0.014700000000000157,-7.093362457523294
-0.015700000000000047,-7.4244049016917115
-0.01670000000000016,-7.679052935667419
-0.01770000000000005,-7.888430208047444
-0.01870000000000016,-8.178446024519777
-0.01970000000000005,-8.444411748894403
-0.020700000000000163,-8.608518259678748
-0.021700000000000053,-8.85609273715513
-0.022700000000000164,-9.151767398826921
-0.023700000000000054,-9.330021022609918
-0.024700000000000166,-9.511104068992642
-0.025700000000000056,-9.757263835169159
-0.026700000000000168,-9.942591015451477
-0.027700000000000058,-10.109526948835553
-0.02870000000000017,-10.354272003712204
-0.02970000000000006,-10.499987267598303
-0.03070000000000017,-10.59477292468926
-0.03170000000000006,-10.805564908369151
-0.03270000000000017,-11.038992272846881
-0.03370000000000006,-11.13094850733811
-0.034700000000000175,-11.296469729422318
-0.035700000000000065,-11.545458918198566
-0.03670000000000018,-11.675612357786147
-0.03770000000000007,-11.763324458377781
-0.03870000000000018,-11.984019421156725
-0.03970000000000007,-12.193396693536751
-0.04070000000000018,-12.298085329726765
-0.04170000000000007,-12.476338953509758
-0.04270000000000018,-12.658836711192349
-0.04370000000000007,-12.752207656983442
-0.044700000000000184,-12.86114042707305
-0.045700000000000074,-13.059200009054155
-0.046700000000000186,-13.192182871241465
-0.047700000000000076,-13.281309683132966
-0.04870000000000019,-13.497760512012315
-0.04970000000000008,-13.653378754997467
-0.05070000000000019,-13.70430836179261
-0.05170000000000008,-13.861341316077631
-0.05270000000000019,-14.03818022856076
-0.05370000000000008,-14.110330504853877
-0.05470000000000019,-14.231995676642269
-0.05570000000000008,-14.401761032626075
-0.056700000000000195,-14.529085049613924
-0.057700000000000085,-14.61396772760583
-0.058700000000000196,-14.797880196588284
-0.059700000000000086,-14.939351326574789
-0.0607000000000002,-14.98179266557074
-0.06170000000000009,-15.151558021554543
-0.0627000000000002,-15.335470490536997
-0.06370000000000009,-15.4203531685289
-0.0647000000000002,-15.533530072518102
-0.06570000000000009,-15.717442541500558
-0.0667000000000002,-15.78817810649381
-0.0677000000000001,-15.88720789748436
-0.0687000000000002,-16.071120366466815
-0.0697000000000001,-16.184297270456018
-0.07070000000000021,-16.24088572245062
-0.0717000000000001,-16.382356852437127
-0.07270000000000021,-16.59456354741688
-0.0737000000000001,-16.693593338407435
-0.07470000000000021,-16.806770242396635
-0.0757000000000001,-16.99068271137909
-0.07670000000000021,-17.061418276372343
-0.0777000000000001,-17.132153841365596
-0.07870000000000021,-17.358507649344002
-0.0797000000000001,-17.542420118326454
-0.08070000000000022,-17.584861457322408
-0.0817000000000001,-17.698038361311607
-0.08270000000000022,-17.867803717295413
-0.08370000000000011,-17.952686395287316
-0.08470000000000022,-18.09415752527382
-0.08570000000000011,-18.391246898245473
-0.08670000000000022,-18.589306480226583
-0.08770000000000011,-18.730777610213085
-0.08870000000000022,-18.858101627200938
-0.08970000000000011,-18.94298430519284
-0.09070000000000022,-18.94298430519284
-0.09170000000000011,-19.112749661176647
-0.09270000000000023,-19.353250582153702
-0.09370000000000012,-19.452280373144255
-0.09470000000000023,-19.579604390132108
-0.09570000000000012,-19.834252424107817
-0.09670000000000023,-19.98987066709297
-0.09770000000000012,-20.117194684080822
-0.09870000000000023,-20.286960040064624
-0.09970000000000012,-20.44257828304978
-0.10070000000000023,-20.555755187038983
-0.10170000000000012,-20.78210899501739
-0.10270000000000024,-20.994315689997144
-0.10370000000000013,-21.036757028993097
-0.10470000000000024,-21.16408104598095
-0.10570000000000013,-21.418729079956652
-0.10670000000000024,-21.574347322941808
-0.10770000000000013,-21.67337711393236
-0.10870000000000024,-21.871436695913467
-0.10970000000000013,-22.012907825899973
-0.11070000000000024,-22.15437895588647
-0.11170000000000013,-22.40902698986218
-0.11270000000000002,-22.67782213683654
-0.11370000000000013,-22.76270481482844
-0.11470000000000002,-22.84758749282034
-0.11570000000000014,-23.073941300798747
-0.11670000000000003,-23.215412430785253
-0.11770000000000014,-23.342736447773106
-0.11870000000000003,-23.61153159474746
-0.11970000000000014,-23.795444063729917
-0.12070000000000003,-23.894473854720466
-0.12170000000000014,-24.078386323702922
-0.12270000000000003,-24.33303435767863
-0.12370000000000014,-24.488652600663784
-0.12470000000000003,-24.67256506964624
-0.12570000000000014,-24.941360216620595
-0.12670000000000003,-25.09697845960575
-0.12770000000000015,-25.167714024599
-0.12870000000000004,-25.37992071957876
-0.12970000000000015,-25.57798030155986
-0.13070000000000004,-25.691157205549064
-0.13170000000000015,-25.875069674531517
-0.13270000000000004,-26.101423482509926
-0.13370000000000015,-26.257041725495082
-0.13470000000000004,-26.412659968480234
-0.13570000000000015,-26.65316088945729
-0.13670000000000004,-26.822926245441096
-0.13770000000000016,-26.9643973754276
-0.13870000000000005,-27.219045409403304
-0.13970000000000016,-27.38881076538711
-0.14070000000000005,-27.501987669376312
-0.14170000000000016,-27.714194364356068
-0.14270000000000005,-27.98298951133043
-0.14370000000000016,-28.12446064131693
-0.14470000000000005,-28.251784658304786
-0.14570000000000016,-28.49228557928184
-0.14670000000000005,-28.647903822266994
-0.14770000000000016,-28.761080726256196
-0.14870000000000005,-29.044022986229205
-0.14970000000000017,-29.22793545521166
-0.15070000000000006,-29.32696524620221
-0.15170000000000017,-29.496730602186016
-0.15270000000000006,-29.72308441016442
-0.15370000000000017,-29.878702653149578
-0.15470000000000006,-30.04846800913338
-0.15570000000000017,-30.317263156107735
-0.15670000000000006,-30.487028512091538
-0.15770000000000017,-30.58605830308209
-0.15870000000000006,-30.82655922405915
-0.15970000000000018,-31.08120725803486
-0.16070000000000007,-31.265119727017314
-0.16170000000000018,-31.56220909998897
-0.16270000000000007,-31.83100424696332
-0.16370000000000018,-32.02906382894443
-0.16470000000000007,-32.19882918492823
-0.16570000000000018,-32.41103587990799
-0.16670000000000007,-32.52421278389719
-0.16770000000000018,-32.6373896878864
-0.16870000000000007,-32.96277328685535
-0.16970000000000018,-33.203274207832415
-0.17070000000000007,-33.302303998822964
-0.17170000000000019,-33.48621646780542
-0.17270000000000008,-33.76915872777842
-0.1737000000000002,-33.99551253575683
-0.17470000000000008,-34.25016056973254
-0.1757000000000002,-34.5472499427042
-0.17670000000000008,-34.702868185689354
-0.1777000000000002,-34.8867806546718
-0.17870000000000008,-35.183870027643465
-0.1797000000000002,-35.43851806161916
-0.18070000000000008,-35.62243053060162
-0.1817000000000002,-35.89122567757598
-0.18270000000000008,-36.25905061554089
-0.1837000000000002,-36.5985813275085
-0.1847000000000001,-36.83908224848555
-0.1857000000000002,-37.093730282461266
-0.1867000000000001,-37.221054299449115
-0.1877000000000002,-37.39081965543292
-0.1887000000000001,-37.758644593397825
-0.1897000000000002,-38.08402819236679
-0.1907000000000001,-38.267940661349236
-0.1917000000000001,-38.593324260318205
-0.19269999999999998,-38.8762665202912
-0.1937000000000001,-39.074326102272316
-0.19469999999999998,-39.34312124924667
-0.1957000000000001,-39.76753463920618
-0.19669999999999999,-40.12121246417244
-0.1977000000000001,-40.3900076111468
-0.1987,-40.78612677510901
-0.1997000000000001,-41.02662769608606
-0.2007,-41.139804600075266
-0.2017000000000001,-41.42274686004827
-0.2027,-41.80471891101183
-0.2037000000000001,-42.158396735978094
-0.2047,-42.4696332219484
-0.2057000000000001,-42.80916393391601
-0.2067,-43.148694645883616
-0.2077000000000001,-43.40334267985933
-0.2087,-43.78531473082289
-0.2097000000000001,-44.238022346779694
-0.2107,-44.54925883275
-0.2117000000000001,-44.94537799671222
-0.2127,-45.25661448268253
-0.2137000000000001,-45.482968290660935
-0.2147,-45.82249900262854
-0.2157000000000001,-46.24691239258805
-0.2167,-46.643031556550255
-0.21770000000000012,-46.89767959052597
-0.2187,-47.23721030249357
-0.21970000000000012,-47.647476579454434
-0.2207,-47.95871306542474
-0.22170000000000012,-48.41142068138156
-0.2227,-48.83583407134107
-0.22370000000000012,-49.16121767031002
-0.2247,-49.61392528626684
-0.22570000000000012,-50.06663290222365
-0.2267,-50.448604953187214
-0.22770000000000012,-50.81642989115212
-0.22870000000000001,-51.31157884610488
-0.22970000000000013,-51.72184512306574
-0.23070000000000002,-51.89161047904954
-0.23170000000000013,-52.2735825300131
-0.23270000000000002,-52.72629014596991
-0.23370000000000013,-53.12240930993213
-0.23470000000000002,-53.58926403888759
-0.23570000000000013,-54.08441299384035
-0.23670000000000002,-54.43809081880661
-0.2376999999999999,-54.86250420876612
-0.23870000000000002,-55.31521182472294
-0.2396999999999999,-55.73962521468245
-0.24070000000000003,-56.008420361656796
-0.24169999999999991,-56.46112797761361
-0.24270000000000003,-56.998718271562325
-0.24369999999999992,-57.50801433951374
-0.24470000000000003,-58.04560463346245
-0.24569999999999992,-58.62563626640712
-0.24670000000000003,-58.92272563937878
-0.24769999999999992,-59.17737367335449
-0.24870000000000003,-59.64422840230995
-0.24969999999999992,-60.09693601826676
-0.25070000000000003,-60.521349408226264
-0.2516999999999999,-61.04479258917633
-0.25270000000000004,-61.62482422212099
-0.2536999999999999,-62.04923761208051
-0.25470000000000004,-62.41706255004542
-0.2556999999999999,-62.95465284399414
-0.25670000000000004,-63.44980179894689
-0.25769999999999993,-64.00153920589426
-0.25870000000000004,-64.52498238684433
-0.25969999999999993,-64.89280732480923
-0.26070000000000004,-65.28892648877145
-0.26169999999999993,-65.82651678272015
-0.26270000000000004,-66.47728398065809
-0.26369999999999993,-66.9582858226122
-0.26470000000000005,-67.39684632557035
-0.26569999999999994,-68.03346641050962
-0.26670000000000005,-68.61349804345427
-0.26769999999999994,-69.08035277240974
-0.26870000000000005,-69.64623729235576
-0.26969999999999994,-70.04235645631796
-0.27070000000000005,-70.38188716828559
-0.27169999999999994,-70.84874189724104
-0.27270000000000005,-71.52780332117625
-0.27369999999999994,-72.10783495412092
-0.27470000000000006,-72.64542524806963
-0.27569999999999995,-73.16886842901971
-0.27670000000000006,-73.50839914098731
-0.27769999999999995,-73.89037119195086
-0.27870000000000006,-74.51284416389147
-0.27969999999999995,-75.0504344578402
-0.28070000000000006,-75.4465536218024
-0.28169999999999995,-75.94170257675518
-0.28270000000000006,-76.42270441870929
-0.28369999999999995,-76.86126492166746
-0.28470000000000006,-77.31397253762425
-0.28569999999999995,-77.83741571857432
-0.28670000000000007,-78.23353488253653
-0.28769999999999996,-78.77112517648524
-0.28870000000000007,-79.42189237442317
-0.28969999999999996,-79.93118844237456
-0.29070000000000007,-80.18583647635029
-0.29169999999999996,-80.53951430131653
-0.29270000000000007,-81.10539882126255
-0.29369999999999996,-81.60054777621531
-0.2947000000000001,-82.08154961816942
-0.29569999999999996,-82.70402259011003
-0.2967000000000001,-83.1991715450628
-0.29769999999999996,-83.65187916101961
-0.2987000000000001,-84.07629255097913
-0.29969999999999997,-84.52900016693594
-0.3007000000000001,-84.9392664438968
-0.30169999999999997,-85.34953272085767
-0.3027000000000001,-85.78809322381582
-0.30369999999999997,-86.15591816178073
-0.3047000000000001,-86.45300753475239
-0.30569999999999997,-87.13206895868761
-0.3067000000000001,-87.72624770463094
-0.3077,-88.22139665958369
-0.3087000000000001,-88.4194562415648
-0.3097,-88.29213222457693
-0.3107000000000001,-88.30627933757559
-0.3117,-88.7872811795297
-0.3127000000000001,-89.48048971646357
-0.3137,-89.91905021942173
-0.3147000000000001,-90.14540402740013
-0.3157,-90.51322896536506
-0.3167000000000001,-90.82446545133537
-0.3177,-91.22058461529755
-0.3187000000000001,-91.44693842327598
-0.3197,-91.51767398826922
-0.3207000000000001,-91.56011532726518
-0.3217,-91.78646913524358
-0.3227000000000001,-91.94208737822873
-0.3237,-92.01282294322199
-0.3247000000000001,-92.33820654219093
-0.3257,-92.578707463168
-0.3267000000000001,-92.56456035016936
-0.3277,-92.4655305591788
-0.3287000000000001,-92.74847281915181
-0.3297,-92.9748266271302
-0.3307000000000001,-92.76261993215046
-0.3317,-92.578707463168
-0.3327000000000001,-92.88994394913831
-0.3337,-93.30021022609918
-0.3347000000000001,-93.38509290409107
-0.3357,-93.08800353111941
-0.3367000000000001,-92.94653240113291
-0.3377,-93.22947466110593
-0.3387000000000001,-93.05970930512211
-0.3397,-92.9748266271302
-0.3407000000000001,-92.94653240113291
-0.3417,-93.28606311310051
-0.3427000000000001,-93.58315248607218
-0.3437,-93.17288620911131
-0.3447000000000001,-92.35235365518959
-0.3457,-91.98452871722468
-0.3467000000000001,-92.18258829920579
-0.3477,-92.7201785931545
-0.3487000000000001,-92.6070016891653
-0.3497,-91.97038160422603
-0.3507000000000001,-91.20643750229891
-0.3517,-90.9517894683232
-0.3527000000000001,-90.7537298863421
-0.3537,-90.32931649638259
-0.3547000000000001,-89.91905021942173
-0.3557,-89.60781373345144
-0.35670000000000013,-89.07022343950271
-0.3577,-88.6458100495432
-0.35870000000000013,-88.51848603255536
-0.3597,-88.32042645057423
-0.36070000000000013,-88.19310243358639
-0.3617,-87.98089573860662
-0.3626999999999999,-87.52818812264981
-0.3637,-87.11792184568897
-0.3646999999999999,-86.86327381171324
-0.3657,-86.80668535971866
-0.3666999999999999,-86.6227728907362
-0.3677,-86.21250661377533
-0.3686999999999999,-85.95785857979962
-0.36970000000000003,-85.66076920682796
-0.3706999999999999,-85.34953272085767
-0.37170000000000003,-85.10903179988061
-0.3726999999999999,-84.92511933089816
-0.37370000000000003,-84.74120686191569
-0.3746999999999999,-84.55729439293323
-0.37570000000000003,-84.34508769795349
-0.3766999999999999,-84.17532234196969
-0.37770000000000004,-84.04799832498183
-0.3786999999999999,-83.87823296899803
-0.37970000000000004,-83.62358493502231
-0.3806999999999999,-83.32649556205067
-0.38170000000000004,-83.14258309306821
-0.38269999999999993,-83.08599464107361
-0.38370000000000004,-82.90208217209116
-0.38469999999999993,-82.93037639808846
-0.38570000000000004,-82.97281773708441
-0.38669999999999993,-82.90208217209116
-0.38770000000000004,-82.57669857312219
-0.38869999999999993,-82.33619765214513
-0.38970000000000005,-82.25131497415322
-0.39069999999999994,-82.10984384416672
-0.39170000000000005,-82.03910827917348
-0.39269999999999994,-81.98251982717888
-0.39370000000000005,-81.92593137518428
-0.39469999999999994,-82.03910827917348
-0.39570000000000005,-82.06740250517078
-0.39669999999999994,-82.02496116617483
-0.39770000000000005,-81.94007848818292
-0.39869999999999994,-81.99666694017753
-0.39970000000000006,-82.08154961816942
-0.40069999999999995,-82.05325539217212
-0.40170000000000006,-82.42108033013703
-0.40269999999999995,-82.81719949409924
-0.40370000000000006,-82.84549372009654
-0.40469999999999995,-82.8313466070979
-0.40570000000000006,-82.746463929106
-0.40669999999999995,-83.04355330207765
-0.40770000000000006,-83.39723112704392
-0.40869999999999995,-83.75090895201016
-0.40970000000000006,-84.07629255097913
-0.41069999999999995,-84.09043966397778
-0.41170000000000007,-84.41582326294673
-0.41269999999999996,-84.8543837659049
-0.41370000000000007,-85.16562025187521
-0.41469999999999996,-85.64662209382932
-0.41570000000000007,-85.83053456281178
-0.41669999999999996,-86.04274125779153
-0.41770000000000007,-86.31153640476589
-0.41869999999999996,-86.7642440207227
-0.4197000000000001,-87.35842276666601
-0.42069999999999996,-87.74039481762958
-0.4217000000000001,-88.22139665958369
-0.42269999999999996,-88.71654561453644
-0.4237000000000001,-89.16925323049325
-0.42469999999999997,-89.67854929844468
-0.4257000000000001,-90.18784536639609
-0.42669999999999997,-90.5839645303583
-0.4277000000000001,-91.05081925931376
-0.42869999999999997,-91.64499800525708
-0.4297000000000001,-92.6352959151626
-0.43069999999999997,-93.52656403407757
-0.4317000000000001,-94.05000721502763
-0.4327,-94.4036850399939
-0.4337000000000001,-94.4602734919885
-0.4347,-94.81395131695474
-0.4357000000000001,-95.86083767885488
-0.4367,-96.6813702327766
-0.4377000000000001,-97.57263835169158
-0.4387,-98.26584688862545
-0.4397000000000001,-98.3931709056133
-0.4407,-98.86002563456876
-0.4417000000000001,-100.03423601345675
-0.4427,-101.20844639234473
-0.4437000000000001,-101.94409626827454
-0.4447,-102.2977740932408
-0.4457000000000001,-102.86365861318681
-0.4467,-103.31636622914363
-0.4477000000000001,-103.93883920108425
-0.4487,-104.44813526903565
-0.4497000000000001,-104.98572556298437
-0.4507,-105.608198534925
-0.4517000000000001,-106.51361376683862
-0.4527,-107.24926364276843
-0.4537000000000001,-107.87173661470905
-0.4547,-108.55079803864427
-0.4557000000000001,-109.41377193156194
-0.4567,-110.3333342764742
-0.4577000000000001,-111.15386683039593
-0.4587,-112.11587051430415
-0.4597000000000001,-113.00713863321914
-0.4607,-113.54472892716784
-0.4617000000000001,-114.28037880309766
-0.4627,-115.03017579202613
-0.4637000000000001,-115.82241411995055
-0.4647,-116.78441780385879
-0.4657000000000001,-117.88789261775351
-0.4667,-118.9772203186496
-0.4677000000000001,-119.7977528725713
-0.4687,-120.67487387848762
-0.4697000000000001,-121.6793189013918
-0.4707,-122.42911589032028
-0.4717000000000001,-123.3628253482312
-0.4727,-124.36727037113538
-0.4737000000000001,-125.37171539403954
-0.4747,-126.60251422492213
-0.4757000000000001,-127.64940058682225
-0.4767,-128.48408025374263
-0.4777000000000001,-128.82361096571023
-0.4787,-129.50267238964545
-0.4797000000000001,-130.32320494356716
-0.4807,-131.22862017548078
-0.48170000000000013,-132.36038921537283
-0.4827,-133.20921599529186
-0.48370000000000013,-133.78924762823652
-0.4847,-134.6239272951569
-0.48570000000000013,-135.45860696207725
-0.4867,-134.94931089412586
-0.48570000000000013,-133.11018620430133
-0.4847,-131.70962201743492
-0.48370000000000013,-130.42223473455772
-0.4827,-129.0641118866873
-0.48170000000000013,-127.62110636082497
-0.4807,-126.16395372196398
-0.4797000000000001,-124.63606551810975
-0.4787,-123.34867823523254
-0.4777000000000001,-122.30179187333242
-0.4767,-121.24075839843364
-0.4757000000000001,-120.20801914953216
-0.4747,-119.06210299664149
-0.4737000000000001,-117.74642148776701
-0.4727,-116.37415152689792
-0.4717000000000001,-115.48288340798295
-0.4707,-114.69064508005852
-0.4697000000000001,-113.16275687620428
-0.4687,-111.74804557633925
-0.4677000000000001,-110.68701210144046
-0.4667,-109.71086130453358
-0.4657000000000001,-108.73471050762672
-0.4647,-107.6029414677347
-0.4637000000000001,-106.76826180081432
-0.4627,-105.73552255191284
-0.4617000000000001,-104.3773997040424
