Potential V vs RHE, Current mA cm-2
0.013299999999999867,18.06586329927652
0.012299999999999978,16.46723953042903
0.011299999999999866,15.123263795557243
0.010299999999999976,13.878317851676012
0.009299999999999864,12.728157564885736
0.008299999999999974,11.65156226568844
0.007299999999999862,10.632970129785615
0.006299999999999972,9.714822496173207
0.00529999999999986,8.846189758056074
0.0042999999999999705,7.966239329540022
0.0032999999999998586,7.12873024001992
0.0022999999999999687,6.3676155606925295
0.0012999999999998568,5.644698086461496
0.00029999999999996696,4.943001281728439
-0.000700000000000145,4.211595539698214
-0.0017000000000000348,3.515557580164616
-0.0027000000000001467,2.8916698969241352
-0.0037000000000000366,2.298905862280684
-0.0047000000000001485,1.7033124050375041
-0.005700000000000038,1.0881959318561862
-0.00670000000000015,0.48397273568382904
-0.00770000000000004,-0.048821686958342415
-0.008700000000000152,-0.5704115961055828
-0.009700000000000042,-1.0930059502757274
-0.010700000000000154,-1.643894530443173
-0.011700000000000044,-2.156020020994316
-0.012700000000000156,-2.624289461249643
-0.013700000000000045,-3.0600205416080746
-0.014700000000000157,-3.508484023665291
-0.015700000000000047,-3.9781681752204827
-0.01670000000000016,-4.44077877027635
-0.01770000000000005,-4.855289181136806
-0.01870000000000016,-5.2386759434002315
-0.01970000000000005,-5.629136262162981
-0.020700000000000163,-6.047890806923031
-0.021700000000000053,-6.453912949984297
-0.022700000000000164,-6.818908465349477
-0.023700000000000054,-7.15136562081776
-0.024700000000000166,-7.52767882658186
-0.025700000000000056,-7.90682145494569
-0.026700000000000168,-8.26898754771114
-0.027700000000000058,-8.598615280579693
-0.02870000000000017,-8.898534076151082
-0.02970000000000006,-9.232405942919229
-0.03070000000000017,-9.593157324384812
-0.03170000000000006,-9.910052655554582
-0.03270000000000017,-10.205727317226374
-0.03370000000000006,-10.501401978898167
-0.034700000000000175,-10.832444423066585
-0.035700000000000065,-11.183292825433115
-0.03670000000000018,-11.486041043604232
-0.03770000000000007,-11.75766561317832
-0.03870000000000018,-12.015143069753755
-0.03970000000000007,-12.309403020125684
-0.04070000000000018,-12.634786619094642
-0.04170000000000007,-12.944608393765087
-0.04270000000000018,-13.220477097238767
-0.04370000000000007,-13.483613399013665
-0.044700000000000184,-13.758067391187481
-0.045700000000000074,-14.050912630259544
-0.046700000000000186,-14.345172580631472
-0.047700000000000076,-14.585673501608527
-0.04870000000000019,-14.826174422585586
-0.04970000000000008,-15.094969569559943
-0.05070000000000019,-15.406206055530248
-0.05170000000000008,-15.717442541500558
-0.05270000000000019,-15.986237688474914
-0.05370000000000008,-16.19844438345467
-0.05470000000000019,-16.46723953042903
-0.05570000000000008,-16.736034677403385
-0.056700000000000195,-17.00482982437774
-0.057700000000000085,-17.2453307453548
-0.058700000000000196,-17.45753744033455
-0.059700000000000086,-17.71218547431026
-0.0607000000000002,-18.009274847281915
-0.06170000000000009,-18.306364220253574
-0.0627000000000002,-18.57515936722793
-0.06370000000000009,-18.78736606220769
-0.0647000000000002,-19.070308322180697
-0.06570000000000009,-19.339103469155052
-0.0667000000000002,-19.60789861612941
-0.0677000000000001,-19.848399537106463
-0.0687000000000002,-20.07475334508487
-0.0697000000000001,-20.329401379060574
-0.07070000000000021,-20.612343639033586
-0.0717000000000001,-20.881138786007945
-0.07270000000000021,-21.107492593986347
-0.0737000000000001,-21.404581966958006
-0.07470000000000021,-21.67337711393236
-0.0757000000000001,-21.97046648690402
-0.07670000000000021,-22.253408746877028
-0.0777000000000001,-22.479762554855434
-0.07870000000000021,-22.706116362833843
-0.0797000000000001,-22.974911509808198
-0.08070000000000022,-23.2012653177866
-0.0817000000000001,-23.45591335176231
-0.08270000000000022,-23.66812004674206
-0.08370000000000011,-23.894473854720466
-0.08470000000000022,-24.16326900169483
-0.08570000000000011,-24.460358374666487
-0.08670000000000022,-24.74330063463949
-0.08770000000000011,-24.983801555616548
-0.08870000000000022,-25.18186113759765
-0.08970000000000011,-25.43650917157336
-0.09070000000000022,-25.705304318547718
-0.09170000000000011,-25.988246578520723
-0.09270000000000023,-26.21460038649913
-0.09370000000000012,-26.412659968480234
-0.09470000000000023,-26.65316088945729
-0.09570000000000012,-26.879514697435695
-0.09670000000000023,-27.204898296404657
-0.09770000000000012,-27.43125210438306
-0.09870000000000023,-27.64345879936282
-0.09970000000000012,-27.912253946337174
-0.10070000000000023,-28.209343319308836
-0.10170000000000012,-28.49228557928184
-0.10270000000000024,-28.704492274261593
-0.10370000000000013,-28.88840474324405
-0.10470000000000024,-29.14305277721976
-0.10570000000000013,-29.42599503719276
-0.10670000000000024,-29.72308441016442
-0.10770000000000013,-29.977732444140123
-0.10870000000000024,-30.189939139119886
-0.10970000000000013,-30.43044006009694
-0.11070000000000024,-30.71338232006995
-0.11170000000000013,-30.982177467044306
-0.11270000000000002,-31.20853127502271
-0.11370000000000013,-31.434885083001117
-0.11470000000000002,-31.675386003978172
-0.11570000000000014,-31.972475376949827
-0.11670000000000003,-32.255417636922836
-0.11770000000000014,-32.51006567089854
-0.11870000000000003,-32.7222723658783
-0.11970000000000014,-32.97692039985401
-0.12070000000000003,-33.245715546828364
-0.12170000000000014,-33.50036358080407
-0.12270000000000003,-33.712570275783825
-0.12370000000000014,-33.93892408376223
-0.12470000000000003,-34.207719230736586
-0.12570000000000014,-34.4906614907096
-0.12670000000000003,-34.84433931567585
-0.12770000000000015,-34.98581044566235
-0.12870000000000004,-35.254605592636715
-0.12970000000000015,-35.52340073961108
-0.13070000000000004,-35.87707856457733
-0.13170000000000015,-36.17416793754898
-0.13270000000000004,-36.37222751953009
-0.13370000000000015,-36.55613998851254
-0.13470000000000004,-36.81078802248826
-0.13570000000000015,-37.15031873445586
-0.13670000000000004,-37.48984944642347
-0.13770000000000016,-37.78693881939513
-0.13870000000000005,-37.92840994938163
-0.13970000000000016,-38.140616644361394
-0.14070000000000005,-38.46600024333035
-0.14170000000000016,-38.777236729300654
-0.14270000000000005,-39.074326102272316
-0.14370000000000016,-39.272385684253415
-0.14470000000000005,-39.52703371822913
-0.14570000000000016,-39.82412309120078
-0.14670000000000005,-40.07877112517649
-0.14770000000000016,-40.33341915915219
-0.14870000000000005,-40.602214306126555
-0.14970000000000017,-40.97003924409146
-0.15070000000000006,-41.36615840805367
-0.15170000000000017,-41.69154200702263
-0.15270000000000006,-41.96033715399699
-0.15370000000000017,-42.158396735978094
-0.15470000000000006,-42.3564563179592
-0.15570000000000017,-42.59695723893625
-0.15670000000000006,-42.87989949890926
-0.15770000000000017,-43.19113598487957
-0.15870000000000006,-43.51651958384853
-0.15970000000000018,-43.81360895682018
-0.16070000000000007,-44.124845442790495
-0.16170000000000018,-44.43608192876081
-0.16270000000000007,-44.704877075735155
-0.16370000000000018,-44.93123088371356
-0.16470000000000007,-45.21417314368657
-0.16570000000000018,-45.482968290660935
-0.16670000000000007,-45.86494034162449
-0.16770000000000018,-46.204471053592094
-0.16870000000000007,-46.529854652561056
-0.16970000000000018,-46.82694402553272
-0.17070000000000007,-47.13818051150302
-0.17170000000000019,-47.421122771476035
-0.17270000000000008,-47.633329466455784
-0.1737000000000002,-47.87383038743284
-0.17470000000000008,-48.1992139864018
-0.1757000000000002,-48.609480263362656
-0.17670000000000008,-48.80753984534376
-0.1777000000000002,-49.062187879319474
-0.17870000000000008,-49.387571478288436
-0.1797000000000002,-49.75539641625335
-0.18070000000000008,-50.109074241219595
-0.1817000000000002,-50.43445784018856
-0.18270000000000008,-50.70325298716291
-0.1837000000000002,-50.98619524713592
-0.1847000000000001,-51.33987307210218
-0.1857000000000002,-51.82087491405629
-0.1867000000000001,-52.17455273902255
-0.1877000000000002,-52.485789224992864
-0.1887000000000001,-52.79702571096317
-0.1897000000000002,-53.136556422930774
-0.1907000000000001,-53.32046889191324
-0.1917000000000001,-53.49023424789704
-0.19269999999999998,-53.815617846866
-0.1937000000000001,-54.16929567183226
-0.19469999999999998,-54.508826383799864
-0.1957000000000001,-54.919092660760725
-0.19669999999999999,-55.32935893772159
-0.1977000000000001,-55.65474253669055
-0.1987,-55.8952434576676
-0.1997000000000001,-56.022567474655446
-0.2007,-56.27721550863116
-0.2017000000000001,-56.64504044659606
-0.2027,-56.956276932566375
-0.2037000000000001,-57.32410187053129
-0.2047,-57.7485152604908
-0.2057000000000001,-58.17292865045031
-0.2067,-58.498312249419264
-0.2077000000000001,-58.76710739639362
-0.2087,-58.93687275237743
-0.2097000000000001,-59.24810923834774
-0.2107,-59.587639950315335
-0.2117000000000001,-59.95546488828025
-0.2127,-60.18181869625866
-0.2137000000000001,-60.43646673023436
-0.2147,-60.775997442201984
-0.2157000000000001,-61.228705058158795
-0.2167,-61.48335309213449
-0.21770000000000012,-61.709706900112906
-0.2187,-62.02094338608321
-0.21970000000000012,-62.33217987205352
-0.2207,-62.65756347102247
-0.22170000000000012,-62.92635861799682
-0.2227,-63.26588932996445
-0.22370000000000012,-63.57712581593475
-0.2247,-63.78933251091451
-0.22570000000000012,-64.18545167487672
-0.2267,-64.48254104784839
-0.22770000000000012,-64.70889485582677
-0.22870000000000001,-64.96354288980248
-0.22970000000000013,-65.20404381077954
-0.23070000000000002,-65.5011331837512
-0.23170000000000013,-65.84066389571882
-0.23270000000000002,-66.12360615569182
-0.23370000000000013,-66.37825418966752
-0.23470000000000002,-66.73193201463377
-0.23570000000000013,-67.08560983960004
-0.23670000000000002,-67.35440498657438
-0.2376999999999999,-67.62320013354876
-0.23870000000000002,-68.06176063650692
-0.2396999999999999,-68.0900548625042
-0.24070000000000003,-68.20323176649342
-0.24169999999999991,-68.59935093045563
-0.24270000000000003,-68.9530287554219
-0.24369999999999992,-69.26426524139221
-0.24470000000000003,-69.46232482337331
-0.24569999999999992,-69.73111997034766
-0.24670000000000003,-69.9716208913247
-0.24769999999999992,-70.16968047330582
-0.24870000000000003,-70.49506407227477
-0.24969999999999992,-70.63653520226127
-0.25070000000000003,-70.90533034923564
-0.2516999999999999,-71.24486106120324
-0.25270000000000004,-71.5136562081776
-0.2536999999999999,-71.78245135515196
-0.25470000000000004,-72.02295227612902
-0.2556999999999999,-72.22101185811013
-0.25670000000000004,-72.47565989208583
-0.25769999999999993,-72.61713102207234
-0.25870000000000004,-72.71616081306288
-0.25969999999999993,-72.9991030730359
-0.26070000000000004,-73.31033955900621
-0.26169999999999993,-73.50839914098731
-0.26270000000000004,-73.72060583596706
-0.26369999999999993,-73.90451830494952
-0.26470000000000005,-74.08843077393198
-0.26569999999999994,-74.32893169490903
-0.26670000000000005,-74.55528550288744
-0.26769999999999994,-74.69675663287394
-0.26870000000000005,-74.93725755385098
-0.26969999999999994,-75.19190558782671
-0.27070000000000005,-75.4465536218024
-0.27169999999999994,-75.64461320378352
-0.27270000000000005,-75.85681989876326
-0.27369999999999994,-76.11146793273898
-0.27470000000000006,-76.32367462771872
-0.27569999999999995,-76.53588132269847
-0.27670000000000006,-76.71979379168094
-0.27769999999999995,-76.83297069567014
-0.27870000000000006,-77.05932450364854
-0.27969999999999995,-77.21494274663371
-0.28070000000000006,-77.37056098961885
-0.28169999999999995,-77.68179747558916
-0.28270000000000006,-77.90815128356756
-0.28369999999999995,-78.04962241355408
-0.28470000000000006,-78.23353488253653
-0.28569999999999995,-78.55891848150549
-0.28670000000000007,-78.7852722894839
-0.28769999999999996,-78.96918475846634
-0.28870000000000007,-79.20968567944341
-0.28969999999999996,-79.37945103542721
-0.29070000000000007,-79.76142308639076
-0.29169999999999996,-79.93118844237456
-0.29270000000000007,-80.08680668535972
-0.29369999999999996,-80.27071915434219
-0.2947000000000001,-80.53951430131653
-0.29569999999999996,-80.68098543130303
-0.2967000000000001,-80.90733923928146
-0.29769999999999996,-81.06295748226661
-0.2987000000000001,-81.36004685523827
-0.29969999999999997,-81.52981221122207
-0.3007000000000001,-81.99666694017753
-0.30169999999999997,-82.20887363515729
-0.3027000000000001,-82.50596300812894
-0.30369999999999997,-82.6615812511141
-0.3047000000000001,-82.8596408330952
-0.30569999999999997,-83.15673020606685
-0.3067000000000001,-83.32649556205067
-0.3077,-83.59529070902502
-0.3087000000000001,-83.77920317800748
-0.3097,-84.03385121198318
-0.3107000000000001,-84.26020501996159
-0.3117,-84.50070594093864
-0.3127000000000001,-84.74120686191569
-0.3137,-84.98170778289276
-0.3147000000000001,-85.33538560785901
-0.3157,-85.60418075483337
-0.3167000000000001,-85.92956435380233
-0.3177,-86.22665372677399
-0.3187000000000001,-86.5378902127443
-0.3197,-86.84912669871461
-0.3207000000000001,-87.03303916769705
-0.3217,-87.69795347863361
-0.3227000000000001,-87.86771883461743
-0.3237,-88.13651398159179
-0.3247000000000001,-88.54678025855264
-0.3257,-89.07022343950271
-0.3267000000000001,-89.52293105545952
-0.3277,-89.73513775043928
-0.3287000000000001,-90.06052134940825
-0.3297,-90.27272804438799
-0.3307000000000001,-90.6122587563556
-0.3317,-90.92349524232591
-0.3327000000000001,-91.33376151928677
-0.3337,-91.74402779624764
-0.3347000000000001,-92.28161809019635
-0.3357,-92.74847281915181
-0.3367000000000001,-93.25776888710321
-0.3377,-93.48412269508162
-0.3387000000000001,-93.99341876303303
-0.3397,-94.36124370099793
-0.3407000000000001,-94.78565709095746
-0.3417,-95.18177625491967
-0.3427000000000001,-95.73351366186702
-0.3437,-96.12963282582925
-0.3447000000000001,-96.78040002376716
-0.3457,-97.38872588270912
-0.3467000000000001,-97.91216906365919
-0.3477,-98.4214651316106
-0.3487000000000001,-98.97320253855796
-0.3497,-99.27029191152963
-0.3507000000000001,-100.1332658044473
-0.3517,-100.76988588938657
-0.3527000000000001,-101.33577040933257
-0.3537,-101.60456555630694
-0.3547000000000001,-102.3543625452354
-0.3557,-103.20318932515443
-0.35670000000000013,-103.91054497508695
-0.3577,-104.49057660803162
-0.35870000000000013,-105.07060824097626
-0.3597,-105.91943502089529
-0.36070000000000013,-106.66923200982377
-0.3617,-107.34829343375898
-0.3626999999999999,-108.0273548576942
-0.3637,-108.91862297660917
-0.3646999999999999,-109.83818532152145
-0.3657,-110.70115921443913
-0.3666999999999999,-111.5358388813595
-0.3677,-112.41295988727582
-0.3686999999999999,-113.03543285921644
-0.36970000000000003,-113.91255386513275
-0.3706999999999999,-114.86041043604233
-0.37170000000000003,-115.76582566795594
-0.3726999999999999,-116.65709378687092
-0.37370000000000003,-117.30786098480884
-0.3746999999999999,-118.29815889471436
-0.37570000000000003,-119.2601625786226
-0.3766999999999999,-120.08069513254432
-0.37770000000000004,-121.09928726844714
-0.3786999999999999,-122.00470250036076
-0.37970000000000004,-123.07988308825819
-0.3806999999999999,-124.33897614513808
-0.38170000000000004,-125.54148075002335
-0.38269999999999993,-126.63080845091945
-0.38370000000000004,-127.72013615181551
-0.38469999999999993,-128.89434653070347
-0.38570000000000004,-130.2241751525766
-0.38669999999999993,-129.89879155360765
-0.38570000000000004,-127.70598903881685
-0.38469999999999993,-126.13565949596666
-0.38370000000000004,-124.65021263110837
-0.38269999999999993,-123.4477080262231
-0.38170000000000004,-122.11787940434998
-0.3806999999999999,-120.81634500847414
-0.37970000000000004,-119.52895772559695
-0.3786999999999999,-118.31230600771303
-0.37770000000000004,-116.92588893384529
-0.3766999999999999,-115.3838536169924
-0.37570000000000003,-114.0398778821206
-0.3746999999999999,-112.61101946925692
-0.37370000000000003,-111.43680909036894
-0.3726999999999999,-110.3050400504769
-0.37170000000000003,-108.90447586361051
-0.3706999999999999,-107.64538280673065
-0.36970000000000003,-106.21652439386696
-0.3686999999999999,-104.78766598100327
-0.3677,-103.41539602013418
-0.3666999999999999,-101.92994915527588
-0.3657,-100.5576791944068
-0.3646999999999999,-99.14296789454177
-0.3637,-97.79899215967
-0.3626999999999999,-96.3984279728036
-0.3617,-94.98371667293856
-0.36070000000000013,-93.61144671206948
-0.3597,-92.15429407320849
-0.35870000000000013,-90.96593658132187
-0.3577,-89.48048971646357
-0.35670000000000013,-88.19310243358639
-0.3557,-87.01889205469841
-0.3547000000000001,-85.67491631982661
-0.3537,-84.23191079396429
-0.3527000000000001,-82.87378794609386
-0.3517,-81.58640066321666
-0.3507000000000001,-80.42633739732734
-0.3497,-79.1530972274488
-0.3487000000000001,-78.14865220454463
-0.3477,-76.71979379168094
-0.3467000000000001,-75.60217186478755
-0.3457,-74.0176952089387
-0.3447000000000001,-72.8576319430494
-0.3437,-71.6834215641614
-0.3427000000000001,-70.52335829827209
-0.3417,-69.25011812839355
-0.3407000000000001,-68.16079042749746
-0.3397,-66.90169737061757
-0.3387000000000001,-65.64260431373769
-0.3377,-64.45424682185109
-0.3367000000000001,-63.364919120955
-0.3357,-62.34632698505217
-0.3347000000000001,-61.25699928415608
-0.3337,-60.12523024426406
-0.3327000000000001,-59.27640346434504
-0.3317,-58.24366421544356
-0.3307000000000001,-57.111895175551524
-0.3297,-56.008420361656796
-0.3287000000000001,-54.791768643772876
-0.3277,-53.9005005248579
-0.3267000000000001,-52.75458437196722
-0.3257,-51.82087491405629
-0.3247000000000001,-50.70325298716291
-0.3237,-49.74124930325469
-0.3227000000000001,-48.69436294135456
-0.3217,-47.619182353457134
-0.3207000000000001,-46.61473733055296
-0.3197,-45.53955674265553
-0.3187000000000001,-44.66243573673921
-0.3177,-43.78531473082289
-0.3167000000000001,-42.89404661190791
-0.3157,-42.00277849299294
-0.3147000000000001,-40.99833347008877
-0.3137,-40.220242255162994
-0.3127000000000001,-39.30067991025072
-0.3117,-38.593324260318205
-0.3107000000000001,-37.687909028404576
-0.3097,-36.7117582314977
-0.3087000000000001,-35.82049011258273
-0.3077,-34.8018979766799
-0.3067000000000001,-33.86818851876898
-0.30569999999999997,-32.99106751285265
-0.3047000000000001,-32.15638784593229
-0.30369999999999997,-31.40659085700382
-0.3027000000000001,-30.58605830308209
-0.30169999999999997,-29.793819975157668
-0.3007000000000001,-28.91669896924135
-0.29969999999999997,-28.11031352831828
-0.2987000000000001,-27.31807520039386
-0.29769999999999996,-26.539983985468087
-0.2967000000000001,-25.73359854454502
-0.29569999999999996,-24.983801555616548
-0.2947000000000001,-24.21985745368943
-0.29369999999999996,-23.526648916755562
-0.29270000000000007,-22.80514615382439
-0.29169999999999996,-21.99876071290132
-0.29070000000000007,-21.2631108369715
-0.28969999999999996,-20.541608074040333
-0.28870000000000007,-19.848399537106463
-0.28769999999999996,-19.155191000172596
-0.28670000000000007,-18.44783535024008
-0.28569999999999995,-17.72633258730891
-0.28470000000000006,-17.2736249713521
-0.28369999999999995,-16.651151999411482
-0.28270000000000006,-16.014531914472215
-0.28169999999999995,-15.264734925543747
-0.28070000000000006,-14.500790823616628
-0.27969999999999995,-13.783532194585053
-0.27870000000000006,-13.187938737341872
-0.27769999999999995,-12.62771306259532
-0.27670000000000006,-11.978360575957266
-0.27569999999999995,-11.295055018122452
-0.27470000000000006,-10.62306715068656
-0.27369999999999994,-10.003423601345673
-0.27270000000000005,-9.40075658760317
-0.27169999999999994,-8.762721791364037
-0.27070000000000005,-8.144492953323017
-0.26969999999999994,-7.5092875796836145
-0.26870000000000005,-6.9575501727362505
-0.26769999999999994,-6.361956715493069
-0.26670000000000005,-5.74938672265151
-0.26569999999999994,-5.163696244507384
-0.26470000000000005,-4.624691239258805
