Aug. 23, 2024   00:05:00
Cyclic Voltammetry
File: c:/users/guazh/data/20240813_batch_94_500/2024-08-15-exp164\exp164-2024-08-23t00_00_04-arkoh\exp164_cv_50mvs_efin_-1400mv.bin
Data Source:  Experiment
Instrument Model:  CHI760E
Header: CV ran at 50 mVs
Note: 

Init E (V) = -1
High E (V) = -1
Low E (V) = -1.4
Final E (V) = -1
Init P/N = N
Scan Rate (V/s) = 0.05
Segment = 7
Sample Interval (V) = 0.001
Quiet Time (sec) = 60
Sensitivity (A/V) = 0.001
Comp R (ohm) = 1.6

Results:

Channel 1:
Segment 1:

Segment 2:

Segment 3:

Segment 4:

Segment 5:

Segment 6:

Segment 7:

Potential/V, Current/A

-1.000, 6.034e-6
-1.001, 9.546e-6
-1.002, 1.112e-5
-1.003, 1.209e-5
-1.004, 1.286e-5
-1.005, 1.348e-5
-1.006, 1.388e-5
-1.007, 1.422e-5
-1.008, 1.467e-5
-1.009, 1.516e-5
-1.010, 1.547e-5
-1.011, 1.562e-5
-1.012, 1.587e-5
-1.013, 1.631e-5
-1.014, 1.653e-5
-1.015, 1.689e-5
-1.016, 1.695e-5
-1.017, 1.715e-5
-1.018, 1.755e-5
-1.019, 1.774e-5
-1.020, 1.791e-5
-1.021, 1.797e-5
-1.022, 1.814e-5
-1.023, 1.845e-5
-1.024, 1.861e-5
-1.025, 1.878e-5
-1.026, 1.898e-5
-1.027, 1.900e-5
-1.028, 1.930e-5
-1.029, 1.944e-5
-1.030, 1.957e-5
-1.031, 1.969e-5
-1.032, 1.969e-5
-1.033, 1.996e-5
-1.034, 2.016e-5
-1.035, 2.024e-5
-1.036, 2.020e-5
-1.037, 2.036e-5
-1.038, 2.059e-5
-1.039, 2.086e-5
-1.040, 2.077e-5
-1.041, 2.089e-5
-1.042, 2.099e-5
-1.043, 2.122e-5
-1.044, 2.127e-5
-1.045, 2.144e-5
-1.046, 2.150e-5
-1.047, 2.150e-5
-1.048, 2.166e-5
-1.049, 2.186e-5
-1.050, 2.201e-5
-1.051, 2.198e-5
-1.052, 2.211e-5
-1.053, 2.237e-5
-1.054, 2.253e-5
-1.055, 2.270e-5
-1.056, 2.267e-5
-1.057, 2.274e-5
-1.058, 2.294e-5
-1.059, 2.310e-5
-1.060, 2.325e-5
-1.061, 2.335e-5
-1.062, 2.334e-5
-1.063, 2.366e-5
-1.064, 2.380e-5
-1.065, 2.390e-5
-1.066, 2.396e-5
-1.067, 2.404e-5
-1.068, 2.434e-5
-1.069, 2.444e-5
-1.070, 2.449e-5
-1.071, 2.469e-5
-1.072, 2.478e-5
-1.073, 2.503e-5
-1.074, 2.518e-5
-1.075, 2.539e-5
-1.076, 2.551e-5
-1.077, 2.560e-5
-1.078, 2.580e-5
-1.079, 2.605e-5
-1.080, 2.626e-5
-1.081, 2.626e-5
-1.082, 2.639e-5
-1.083, 2.666e-5
-1.084, 2.683e-5
-1.085, 2.701e-5
-1.086, 2.715e-5
-1.087, 2.732e-5
-1.088, 2.754e-5
-1.089, 2.770e-5
-1.090, 2.795e-5
-1.091, 2.803e-5
-1.092, 2.820e-5
-1.093, 2.843e-5
-1.094, 2.876e-5
-1.095, 2.901e-5
-1.096, 2.897e-5
-1.097, 2.927e-5
-1.098, 2.957e-5
-1.099, 2.978e-5
-1.100, 2.994e-5
-1.101, 3.014e-5
-1.102, 3.026e-5
-1.103, 3.055e-5
-1.104, 3.081e-5
-1.105, 3.102e-5
-1.106, 3.112e-5
-1.107, 3.128e-5
-1.108, 3.163e-5
-1.109, 3.190e-5
-1.110, 3.202e-5
-1.111, 3.231e-5
-1.112, 3.243e-5
-1.113, 3.274e-5
-1.114, 3.310e-5
-1.115, 3.322e-5
-1.116, 3.350e-5
-1.117, 3.358e-5
-1.118, 3.386e-5
-1.119, 3.426e-5
-1.120, 3.447e-5
-1.121, 3.451e-5
-1.122, 3.483e-5
-1.123, 3.513e-5
-1.124, 3.554e-5
-1.125, 3.572e-5
-1.126, 3.577e-5
-1.127, 3.603e-5
-1.128, 3.624e-5
-1.129, 3.659e-5
-1.130, 3.689e-5
-1.131, 3.698e-5
-1.132, 3.723e-5
-1.133, 3.739e-5
-1.134, 3.784e-5
-1.135, 3.806e-5
-1.136, 3.819e-5
-1.137, 3.847e-5
-1.138, 3.872e-5
-1.139, 3.895e-5
-1.140, 3.942e-5
-1.141, 3.940e-5
-1.142, 3.958e-5
-1.143, 4.000e-5
-1.144, 4.019e-5
-1.145, 4.049e-5
-1.146, 4.065e-5
-1.147, 4.080e-5
-1.148, 4.111e-5
-1.149, 4.136e-5
-1.150, 4.166e-5
-1.151, 4.172e-5
-1.152, 4.193e-5
-1.153, 4.221e-5
-1.154, 4.251e-5
-1.155, 4.265e-5
-1.156, 4.272e-5
-1.157, 4.288e-5
-1.158, 4.324e-5
-1.159, 4.354e-5
-1.160, 4.351e-5
-1.161, 4.366e-5
-1.162, 4.383e-5
-1.163, 4.399e-5
-1.164, 4.426e-5
-1.165, 4.445e-5
-1.166, 4.443e-5
-1.167, 4.463e-5
-1.168, 4.472e-5
-1.169, 4.495e-5
-1.170, 4.515e-5
-1.171, 4.505e-5
-1.172, 4.516e-5
-1.173, 4.532e-5
-1.174, 4.557e-5
-1.175, 4.564e-5
-1.176, 4.567e-5
-1.177, 4.581e-5
-1.178, 4.588e-5
-1.179, 4.602e-5
-1.180, 4.619e-5
-1.181, 4.614e-5
-1.182, 4.606e-5
-1.183, 4.623e-5
-1.184, 4.645e-5
-1.185, 4.653e-5
-1.186, 4.644e-5
-1.187, 4.653e-5
-1.188, 4.669e-5
-1.189, 4.681e-5
-1.190, 4.688e-5
-1.191, 4.703e-5
-1.192, 4.699e-5
-1.193, 4.707e-5
-1.194, 4.726e-5
-1.195, 4.730e-5
-1.196, 4.731e-5
-1.197, 4.732e-5
-1.198, 4.744e-5
-1.199, 4.766e-5
-1.200, 4.769e-5
-1.201, 4.775e-5
-1.202, 4.781e-5
-1.203, 4.797e-5
-1.204, 4.806e-5
-1.205, 4.824e-5
-1.206, 4.824e-5
-1.207, 4.832e-5
-1.208, 4.832e-5
-1.209, 4.871e-5
-1.210, 4.883e-5
-1.211, 4.884e-5
-1.212, 4.876e-5
-1.213, 4.899e-5
-1.214, 4.923e-5
-1.215, 4.927e-5
-1.216, 4.937e-5
-1.217, 4.938e-5
-1.218, 4.962e-5
-1.219, 4.977e-5
-1.220, 4.996e-5
-1.221, 4.996e-5
-1.222, 5.009e-5
-1.223, 5.031e-5
-1.224, 5.051e-5
-1.225, 5.062e-5
-1.226, 5.066e-5
-1.227, 5.075e-5
-1.228, 5.107e-5
-1.229, 5.128e-5
-1.230, 5.136e-5
-1.231, 5.155e-5
-1.232, 5.162e-5
-1.233, 5.176e-5
-1.234, 5.202e-5
-1.235, 5.219e-5
-1.236, 5.230e-5
-1.237, 5.229e-5
-1.238, 5.257e-5
-1.239, 5.292e-5
-1.240, 5.298e-5
-1.241, 5.314e-5
-1.242, 5.320e-5
-1.243, 5.344e-5
-1.244, 5.369e-5
-1.245, 5.383e-5
-1.246, 5.405e-5
-1.247, 5.415e-5
-1.248, 5.426e-5
-1.249, 5.464e-5
-1.250, 5.494e-5
-1.251, 5.501e-5
-1.252, 5.519e-5
-1.253, 5.546e-5
-1.254, 5.570e-5
-1.255, 5.601e-5
-1.256, 5.615e-5
-1.257, 5.631e-5
-1.258, 5.664e-5
-1.259, 5.687e-5
-1.260, 5.728e-5
-1.261, 5.742e-5
-1.262, 5.761e-5
-1.263, 5.796e-5
-1.264, 5.818e-5
-1.265, 5.842e-5
-1.266, 5.857e-5
-1.267, 5.887e-5
-1.268, 5.919e-5
-1.269, 5.932e-5
-1.270, 5.977e-5
-1.271, 6.009e-5
-1.272, 6.016e-5
-1.273, 6.040e-5
-1.274, 6.097e-5
-1.275, 6.123e-5
-1.276, 6.146e-5
-1.277, 6.181e-5
-1.278, 6.219e-5
-1.279, 6.263e-5
-1.280, 6.303e-5
-1.281, 6.327e-5
-1.282, 6.355e-5
-1.283, 6.380e-5
-1.284, 6.426e-5
-1.285, 6.471e-5
-1.286, 6.505e-5
-1.287, 6.534e-5
-1.288, 6.562e-5
-1.289, 6.607e-5
-1.290, 6.647e-5
-1.291, 6.669e-5
-1.292, 6.718e-5
-1.293, 6.760e-5
-1.294, 6.805e-5
-1.295, 6.857e-5
-1.296, 6.887e-5
-1.297, 6.932e-5
-1.298, 6.969e-5
-1.299, 7.020e-5
-1.300, 7.079e-5
-1.301, 7.098e-5
-1.302, 7.137e-5
-1.303, 7.193e-5
-1.304, 7.247e-5
-1.305, 7.304e-5
-1.306, 7.352e-5
-1.307, 7.387e-5
-1.308, 7.445e-5
-1.309, 7.509e-5
-1.310, 7.562e-5
-1.311, 7.605e-5
-1.312, 7.648e-5
-1.313, 7.693e-5
-1.314, 7.770e-5
-1.315, 7.826e-5
-1.316, 7.872e-5
-1.317, 7.926e-5
-1.318, 7.991e-5
-1.319, 8.067e-5
-1.320, 8.122e-5
-1.321, 8.182e-5
-1.322, 8.241e-5
-1.323, 8.291e-5
-1.324, 8.377e-5
-1.325, 8.444e-5
-1.326, 8.495e-5
-1.327, 8.565e-5
-1.328, 8.627e-5
-1.329, 8.719e-5
-1.330, 8.787e-5
-1.331, 8.858e-5
-1.332, 8.931e-5
-1.333, 8.996e-5
-1.334, 9.078e-5
-1.335, 9.165e-5
-1.336, 9.233e-5
-1.337, 9.308e-5
-1.338, 9.375e-5
-1.339, 9.466e-5
-1.340, 9.564e-5
-1.341, 9.632e-5
-1.342, 9.721e-5
-1.343, 9.821e-5
-1.344, 9.904e-5
-1.345, 9.998e-5
-1.346, 1.008e-4
-1.347, 1.018e-4
-1.348, 1.026e-4
-1.349, 1.036e-4
-1.350, 1.046e-4
-1.351, 1.055e-4
-1.352, 1.057e-4
-1.353, 1.071e-4
-1.354, 1.085e-4
-1.355, 1.096e-4
-1.356, 1.105e-4
-1.357, 1.116e-4
-1.358, 1.127e-4
-1.359, 1.138e-4
-1.360, 1.150e-4
-1.361, 1.161e-4
-1.362, 1.172e-4
-1.363, 1.184e-4
-1.364, 1.196e-4
-1.365, 1.209e-4
-1.366, 1.220e-4
-1.367, 1.231e-4
-1.368, 1.244e-4
-1.369, 1.258e-4
-1.370, 1.271e-4
-1.371, 1.283e-4
-1.372, 1.297e-4
-1.373, 1.310e-4
-1.374, 1.325e-4
-1.375, 1.339e-4
-1.376, 1.352e-4
-1.377, 1.366e-4
-1.378, 1.380e-4
-1.379, 1.395e-4
-1.380, 1.412e-4
-1.381, 1.427e-4
-1.382, 1.440e-4
-1.383, 1.457e-4
-1.384, 1.472e-4
-1.385, 1.489e-4
-1.386, 1.505e-4
-1.387, 1.520e-4
-1.388, 1.538e-4
-1.389, 1.554e-4
-1.390, 1.573e-4
-1.391, 1.590e-4
-1.392, 1.607e-4
-1.393, 1.626e-4
-1.394, 1.644e-4
-1.395, 1.665e-4
-1.396, 1.686e-4
-1.397, 1.704e-4
-1.398, 1.723e-4
-1.399, 1.744e-4
-1.400, 1.633e-4
-1.399, 1.499e-4
-1.398, 1.423e-4
-1.397, 1.366e-4
-1.396, 1.314e-4
-1.395, 1.268e-4
-1.394, 1.223e-4
-1.393, 1.179e-4
-1.392, 1.142e-4
-1.391, 1.105e-4
-1.390, 1.069e-4
-1.389, 1.034e-4
-1.388, 9.986e-5
-1.387, 9.670e-5
-1.386, 9.370e-5
-1.385, 9.061e-5
-1.384, 8.788e-5
-1.383, 8.485e-5
-1.382, 8.206e-5
-1.381, 7.970e-5
-1.380, 7.711e-5
-1.379, 7.463e-5
-1.378, 7.220e-5
-1.377, 6.992e-5
-1.376, 6.792e-5
-1.375, 6.570e-5
-1.374, 6.354e-5
-1.373, 6.146e-5
-1.372, 5.963e-5
-1.371, 5.786e-5
-1.370, 5.607e-5
-1.369, 5.412e-5
-1.368, 5.240e-5
-1.367, 5.062e-5
-1.366, 4.912e-5
-1.365, 4.764e-5
-1.364, 4.601e-5
-1.363, 4.435e-5
-1.362, 4.305e-5
-1.361, 4.167e-5
-1.360, 4.035e-5
-1.359, 3.890e-5
-1.358, 3.752e-5
-1.357, 3.634e-5
-1.356, 3.511e-5
-1.355, 3.396e-5
-1.354, 3.284e-5
-1.353, 3.149e-5
-1.352, 3.052e-5
-1.351, 2.951e-5
-1.350, 2.851e-5
-1.349, 2.758e-5
-1.348, 2.648e-5
-1.347, 2.549e-5
-1.346, 2.473e-5
-1.345, 2.382e-5
-1.344, 2.301e-5
-1.343, 2.197e-5
-1.342, 2.121e-5
-1.341, 2.042e-5
-1.340, 1.962e-5
-1.339, 1.891e-5
-1.338, 1.804e-5
-1.337, 1.729e-5
-1.336, 1.676e-5
-1.335, 1.603e-5
-1.334, 1.530e-5
-1.333, 1.468e-5
-1.332, 1.391e-5
-1.331, 1.339e-5
-1.330, 1.271e-5
-1.329, 1.219e-5
-1.328, 1.147e-5
-1.327, 1.090e-5
-1.326, 1.040e-5
-1.325, 9.957e-6
-1.324, 9.387e-6
-1.323, 8.693e-6
-1.322, 8.163e-6
-1.321, 7.753e-6
-1.320, 7.246e-6
-1.319, 6.702e-6
-1.318, 6.056e-6
-1.317, 5.595e-6
-1.316, 5.135e-6
-1.315, 4.664e-6
-1.314, 4.271e-6
-1.313, 3.564e-6
-1.312, 3.202e-6
-1.311, 2.855e-6
-1.310, 2.351e-6
-1.309, 1.994e-6
-1.308, 1.448e-6
-1.307, 1.060e-6
-1.306, 6.440e-7
-1.305, 1.606e-7
-1.304, -1.620e-7
-1.303, -6.405e-7
-1.302, -1.223e-6
-1.301, -1.216e-6
-1.300, -1.725e-6
-1.299, -2.230e-6
-1.298, -2.779e-6
-1.297, -2.988e-6
-1.296, -3.235e-6
-1.295, -3.619e-6
-1.294, -4.029e-6
-1.293, -4.487e-6
-1.292, -4.924e-6
-1.291, -5.229e-6
-1.290, -5.428e-6
-1.289, -5.803e-6
-1.288, -6.216e-6
-1.287, -6.387e-6
-1.286, -6.703e-6
-1.285, -7.074e-6
-1.284, -7.387e-6
-1.283, -7.754e-6
-1.282, -8.134e-6
-1.281, -8.429e-6
-1.280, -8.652e-6
-1.279, -8.950e-6
-1.278, -9.283e-6
-1.277, -9.681e-6
-1.276, -9.831e-6
-1.275, -1.004e-5
-1.274, -1.040e-5
-1.273, -1.080e-5
-1.272, -1.091e-5
-1.271, -1.115e-5
-1.270, -1.145e-5
-1.269, -1.171e-5
-1.268, -1.205e-5
-1.267, -1.231e-5
-1.266, -1.254e-5
-1.265, -1.280e-5
-1.264, -1.289e-5
-1.263, -1.329e-5
-1.262, -1.362e-5
-1.261, -1.375e-5
-1.260, -1.395e-5
-1.259, -1.419e-5
-1.258, -1.462e-5
-1.257, -1.485e-5
-1.256, -1.495e-5
-1.255, -1.509e-5
-1.254, -1.538e-5
-1.253, -1.584e-5
-1.252, -1.606e-5
-1.251, -1.618e-5
-1.250, -1.643e-5
-1.249, -1.686e-5
-1.248, -1.707e-5
-1.247, -1.726e-5
-1.246, -1.754e-5
-1.245, -1.764e-5
-1.244, -1.785e-5
-1.243, -1.825e-5
-1.242, -1.856e-5
-1.241, -1.868e-5
-1.240, -1.882e-5
-1.239, -1.909e-5
-1.238, -1.945e-5
-1.237, -1.967e-5
-1.236, -1.979e-5
-1.235, -2.000e-5
-1.234, -2.032e-5
-1.233, -2.053e-5
-1.232, -2.085e-5
-1.231, -2.102e-5
-1.230, -2.118e-5
-1.229, -2.167e-5
-1.228, -2.183e-5
-1.227, -2.208e-5
-1.226, -2.213e-5
-1.225, -2.236e-5
-1.224, -2.272e-5
-1.223, -2.296e-5
-1.222, -2.327e-5
-1.221, -2.336e-5
-1.220, -2.350e-5
-1.219, -2.380e-5
-1.218, -2.422e-5
-1.217, -2.451e-5
-1.216, -2.445e-5
-1.215, -2.475e-5
-1.214, -2.501e-5
-1.213, -2.533e-5
-1.212, -2.549e-5
-1.211, -2.567e-5
-1.210, -2.588e-5
-1.209, -2.609e-5
-1.208, -2.647e-5
-1.207, -2.670e-5
-1.206, -2.697e-5
-1.205, -2.705e-5
-1.204, -2.734e-5
-1.203, -2.780e-5
-1.202, -2.788e-5
-1.201, -2.798e-5
-1.200, -2.820e-5
-1.199, -2.835e-5
-1.198, -2.887e-5
-1.197, -2.900e-5
-1.196, -2.927e-5
-1.195, -2.942e-5
-1.194, -2.970e-5
-1.193, -3.001e-5
-1.192, -3.021e-5
-1.191, -3.033e-5
-1.190, -3.059e-5
-1.189, -3.080e-5
-1.188, -3.107e-5
-1.187, -3.137e-5
-1.186, -3.147e-5
-1.185, -3.162e-5
-1.184, -3.173e-5
-1.183, -3.203e-5
-1.182, -3.248e-5
-1.181, -3.258e-5
-1.180, -3.278e-5
-1.179, -3.315e-5
-1.178, -3.355e-5
-1.177, -3.375e-5
-1.176, -3.397e-5
-1.175, -3.403e-5
-1.174, -3.436e-5
-1.173, -3.467e-5
-1.172, -3.495e-5
-1.171, -3.514e-5
-1.170, -3.529e-5
-1.169, -3.556e-5
-1.168, -3.588e-5
-1.167, -3.608e-5
-1.166, -3.628e-5
-1.165, -3.640e-5
-1.164, -3.679e-5
-1.163, -3.712e-5
-1.162, -3.739e-5
-1.161, -3.765e-5
-1.160, -3.773e-5
-1.159, -3.794e-5
-1.158, -3.833e-5
-1.157, -3.857e-5
-1.156, -3.863e-5
-1.155, -3.878e-5
-1.154, -3.909e-5
-1.153, -3.936e-5
-1.152, -3.960e-5
-1.151, -3.981e-5
-1.150, -3.990e-5
-1.149, -4.004e-5
-1.148, -4.033e-5
-1.147, -4.055e-5
-1.146, -4.063e-5
-1.145, -4.086e-5
-1.144, -4.087e-5
-1.143, -4.116e-5
-1.142, -4.144e-5
-1.141, -4.145e-5
-1.140, -4.149e-5
-1.139, -4.171e-5
-1.138, -4.194e-5
-1.137, -4.214e-5
-1.136, -4.207e-5
-1.135, -4.217e-5
-1.134, -4.234e-5
-1.133, -4.250e-5
-1.132, -4.267e-5
-1.131, -4.271e-5
-1.130, -4.264e-5
-1.129, -4.288e-5
-1.128, -4.300e-5
-1.127, -4.298e-5
-1.126, -4.321e-5
-1.125, -4.313e-5
-1.124, -4.334e-5
-1.123, -4.347e-5
-1.122, -4.354e-5
-1.121, -4.358e-5
-1.120, -4.345e-5
-1.119, -4.346e-5
-1.118, -4.367e-5
-1.117, -4.367e-5
-1.116, -4.357e-5
-1.115, -4.361e-5
-1.114, -4.373e-5
-1.113, -4.379e-5
-1.112, -4.387e-5
-1.111, -4.376e-5
-1.110, -4.376e-5
-1.109, -4.376e-5
-1.108, -4.393e-5
-1.107, -4.399e-5
-1.106, -4.393e-5
-1.105, -4.379e-5
-1.104, -4.388e-5
-1.103, -4.390e-5
-1.102, -4.397e-5
-1.101, -4.382e-5
-1.100, -4.388e-5
-1.099, -4.368e-5
-1.098, -4.373e-5
-1.097, -4.386e-5
-1.096, -4.364e-5
-1.095, -4.352e-5
-1.094, -4.343e-5
-1.093, -4.347e-5
-1.092, -4.355e-5
-1.091, -4.333e-5
-1.090, -4.330e-5
-1.089, -4.325e-5
-1.088, -4.322e-5
-1.087, -4.321e-5
-1.086, -4.297e-5
-1.085, -4.295e-5
-1.084, -4.292e-5
-1.083, -4.291e-5
-1.082, -4.285e-5
-1.081, -4.264e-5
-1.080, -4.247e-5
-1.079, -4.233e-5
-1.078, -4.248e-5
-1.077, -4.227e-5
-1.076, -4.217e-5
-1.075, -4.209e-5
-1.074, -4.191e-5
-1.073, -4.185e-5
-1.072, -4.188e-5
-1.071, -4.163e-5
-1.070, -4.152e-5
-1.069, -4.126e-5
-1.068, -4.136e-5
-1.067, -4.135e-5
-1.066, -4.102e-5
-1.065, -4.088e-5
-1.064, -4.077e-5
-1.063, -4.071e-5
-1.062, -4.079e-5
-1.061, -4.043e-5
-1.060, -4.027e-5
-1.059, -4.007e-5
-1.058, -4.016e-5
-1.057, -4.004e-5
-1.056, -3.974e-5
-1.055, -3.957e-5
-1.054, -3.954e-5
-1.053, -3.933e-5
-1.052, -3.939e-5
-1.051, -3.925e-5
-1.050, -3.899e-5
-1.049, -3.887e-5
-1.048, -3.874e-5
-1.047, -3.868e-5
-1.046, -3.849e-5
-1.045, -3.824e-5
-1.044, -3.825e-5
-1.043, -3.822e-5
-1.042, -3.801e-5
-1.041, -3.786e-5
-1.040, -3.764e-5
-1.039, -3.745e-5
-1.038, -3.758e-5
-1.037, -3.747e-5
-1.036, -3.727e-5
-1.035, -3.704e-5
-1.034, -3.695e-5
-1.033, -3.677e-5
-1.032, -3.671e-5
-1.031, -3.660e-5
-1.030, -3.647e-5
-1.029, -3.630e-5
-1.028, -3.640e-5
-1.027, -3.630e-5
-1.026, -3.599e-5
-1.025, -3.583e-5
-1.024, -3.578e-5
-1.023, -3.561e-5
-1.022, -3.569e-5
-1.021, -3.542e-5
-1.020, -3.529e-5
-1.019, -3.515e-5
-1.018, -3.527e-5
-1.017, -3.525e-5
-1.016, -3.497e-5
-1.015, -3.484e-5
-1.014, -3.470e-5
-1.013, -3.466e-5
-1.012, -3.464e-5
-1.011, -3.446e-5
-1.010, -3.436e-5
-1.009, -3.423e-5
-1.008, -3.425e-5
-1.007, -3.428e-5
-1.006, -3.409e-5
-1.005, -3.392e-5
-1.004, -3.382e-5
-1.003, -3.376e-5
-1.002, -3.380e-5
-1.001, -3.373e-5
-1.000, -2.223e-5
-1.001, -1.362e-5
-1.002, -9.883e-6
-1.003, -7.487e-6
-1.004, -5.572e-6
-1.005, -4.121e-6
-1.006, -2.997e-6
-1.007, -2.022e-6
-1.008, -1.265e-6
-1.009, -3.554e-7
-1.010, 4.161e-7
-1.011, 1.058e-6
-1.012, 1.696e-6
-1.013, 2.108e-6
-1.014, 2.832e-6
-1.015, 3.425e-6
-1.016, 3.825e-6
-1.017, 4.200e-6
-1.018, 4.792e-6
-1.019, 5.301e-6
-1.020, 5.879e-6
-1.021, 6.258e-6
-1.022, 6.629e-6
-1.023, 7.118e-6
-1.024, 7.625e-6
-1.025, 8.201e-6
-1.026, 8.620e-6
-1.027, 8.930e-6
-1.028, 9.254e-6
-1.029, 9.658e-6
-1.030, 1.009e-5
-1.031, 1.045e-5
-1.032, 1.044e-5
-1.033, 1.066e-5
-1.034, 1.107e-5
-1.035, 1.118e-5
-1.036, 1.132e-5
-1.037, 1.151e-5
-1.038, 1.148e-5
-1.039, 1.181e-5
-1.040, 1.208e-5
-1.041, 1.219e-5
-1.042, 1.228e-5
-1.043, 1.242e-5
-1.044, 1.272e-5
-1.045, 1.300e-5
-1.046, 1.304e-5
-1.047, 1.328e-5
-1.048, 1.336e-5
-1.049, 1.366e-5
-1.050, 1.394e-5
-1.051, 1.409e-5
-1.052, 1.419e-5
-1.053, 1.431e-5
-1.054, 1.461e-5
-1.055, 1.484e-5
-1.056, 1.494e-5
-1.057, 1.516e-5
-1.058, 1.523e-5
-1.059, 1.537e-5
-1.060, 1.577e-5
-1.061, 1.586e-5
-1.062, 1.595e-5
-1.063, 1.602e-5
-1.064, 1.625e-5
-1.065, 1.647e-5
-1.066, 1.659e-5
-1.067, 1.669e-5
-1.068, 1.674e-5
-1.069, 1.691e-5
-1.070, 1.719e-5
-1.071, 1.733e-5
-1.072, 1.730e-5
-1.073, 1.742e-5
-1.074, 1.764e-5
-1.075, 1.780e-5
-1.076, 1.791e-5
-1.077, 1.800e-5
-1.078, 1.809e-5
-1.079, 1.835e-5
-1.080, 1.855e-5
-1.081, 1.859e-5
-1.082, 1.865e-5
-1.083, 1.865e-5
-1.084, 1.887e-5
-1.085, 1.909e-5
-1.086, 1.919e-5
-1.087, 1.921e-5
-1.088, 1.928e-5
-1.089, 1.941e-5
-1.090, 1.975e-5
-1.091, 1.972e-5
-1.092, 1.978e-5
-1.093, 1.988e-5
-1.094, 1.996e-5
-1.095, 2.029e-5
-1.096, 2.029e-5
-1.097, 2.032e-5
-1.098, 2.040e-5
-1.099, 2.055e-5
-1.100, 2.077e-5
-1.101, 2.082e-5
-1.102, 2.088e-5
-1.103, 2.097e-5
-1.104, 2.108e-5
-1.105, 2.131e-5
-1.106, 2.148e-5
-1.107, 2.129e-5
-1.108, 2.158e-5
-1.109, 2.162e-5
-1.110, 2.185e-5
-1.111, 2.190e-5
-1.112, 2.195e-5
-1.113, 2.205e-5
-1.114, 2.224e-5
-1.115, 2.237e-5
-1.116, 2.246e-5
-1.117, 2.244e-5
-1.118, 2.257e-5
-1.119, 2.273e-5
-1.120, 2.287e-5
-1.121, 2.299e-5
-1.122, 2.303e-5
-1.123, 2.309e-5
-1.124, 2.316e-5
-1.125, 2.337e-5
-1.126, 2.356e-5
-1.127, 2.345e-5
-1.128, 2.370e-5
-1.129, 2.383e-5
-1.130, 2.391e-5
-1.131, 2.396e-5
-1.132, 2.402e-5
-1.133, 2.417e-5
-1.134, 2.422e-5
-1.135, 2.448e-5
-1.136, 2.449e-5
-1.137, 2.446e-5
-1.138, 2.470e-5
-1.139, 2.475e-5
-1.140, 2.492e-5
-1.141, 2.505e-5
-1.142, 2.502e-5
-1.143, 2.513e-5
-1.144, 2.518e-5
-1.145, 2.543e-5
-1.146, 2.553e-5
-1.147, 2.562e-5
-1.148, 2.568e-5
-1.149, 2.576e-5
-1.150, 2.593e-5
-1.151, 2.615e-5
-1.152, 2.607e-5
-1.153, 2.614e-5
-1.154, 2.636e-5
-1.155, 2.648e-5
-1.156, 2.650e-5
-1.157, 2.663e-5
-1.158, 2.664e-5
-1.159, 2.682e-5
-1.160, 2.700e-5
-1.161, 2.711e-5
-1.162, 2.719e-5
-1.163, 2.727e-5
-1.164, 2.737e-5
-1.165, 2.753e-5
-1.166, 2.754e-5
-1.167, 2.771e-5
-1.168, 2.764e-5
-1.169, 2.779e-5
-1.170, 2.806e-5
-1.171, 2.818e-5
-1.172, 2.811e-5
-1.173, 2.821e-5
-1.174, 2.838e-5
-1.175, 2.856e-5
-1.176, 2.865e-5
-1.177, 2.878e-5
-1.178, 2.886e-5
-1.179, 2.891e-5
-1.180, 2.924e-5
-1.181, 2.933e-5
-1.182, 2.923e-5
-1.183, 2.936e-5
-1.184, 2.939e-5
-1.185, 2.954e-5
-1.186, 2.978e-5
-1.187, 2.972e-5
-1.188, 2.978e-5
-1.189, 2.996e-5
-1.190, 3.028e-5
-1.191, 3.027e-5
-1.192, 3.017e-5
-1.193, 3.036e-5
-1.194, 3.050e-5
-1.195, 3.067e-5
-1.196, 3.082e-5
-1.197, 3.083e-5
-1.198, 3.093e-5
-1.199, 3.111e-5
-1.200, 3.126e-5
-1.201, 3.140e-5
-1.202, 3.139e-5
-1.203, 3.146e-5
-1.204, 3.159e-5
-1.205, 3.186e-5
-1.206, 3.205e-5
-1.207, 3.202e-5
-1.208, 3.210e-5
-1.209, 3.217e-5
-1.210, 3.245e-5
-1.211, 3.247e-5
-1.212, 3.260e-5
-1.213, 3.259e-5
-1.214, 3.279e-5
-1.215, 3.303e-5
-1.216, 3.317e-5
-1.217, 3.306e-5
-1.218, 3.326e-5
-1.219, 3.338e-5
-1.220, 3.358e-5
-1.221, 3.364e-5
-1.222, 3.366e-5
-1.223, 3.386e-5
-1.224, 3.393e-5
-1.225, 3.405e-5
-1.226, 3.430e-5
-1.227, 3.426e-5
-1.228, 3.450e-5
-1.229, 3.465e-5
-1.230, 3.485e-5
-1.231, 3.498e-5
-1.232, 3.495e-5
-1.233, 3.501e-5
-1.234, 3.524e-5
-1.235, 3.546e-5
-1.236, 3.556e-5
-1.237, 3.558e-5
-1.238, 3.565e-5
-1.239, 3.590e-5
-1.240, 3.602e-5
-1.241, 3.616e-5
-1.242, 3.640e-5
-1.243, 3.631e-5
-1.244, 3.653e-5
-1.245, 3.670e-5
-1.246, 3.691e-5
-1.247, 3.693e-5
-1.248, 3.698e-5
-1.249, 3.720e-5
-1.250, 3.749e-5
-1.251, 3.751e-5
-1.252, 3.764e-5
-1.253, 3.773e-5
-1.254, 3.788e-5
-1.255, 3.821e-5
-1.256, 3.830e-5
-1.257, 3.829e-5
-1.258, 3.846e-5
-1.259, 3.870e-5
-1.260, 3.895e-5
-1.261, 3.903e-5
-1.262, 3.914e-5
-1.263, 3.932e-5
-1.264, 3.944e-5
-1.265, 3.976e-5
-1.266, 3.989e-5
-1.267, 3.995e-5
-1.268, 4.013e-5
-1.269, 4.041e-5
-1.270, 4.058e-5
-1.271, 4.074e-5
-1.272, 4.093e-5
-1.273, 4.105e-5
-1.274, 4.130e-5
-1.275, 4.155e-5
-1.276, 4.179e-5
-1.277, 4.183e-5
-1.278, 4.199e-5
-1.279, 4.236e-5
-1.280, 4.261e-5
-1.281, 4.283e-5
-1.282, 4.304e-5
-1.283, 4.300e-5
-1.284, 4.330e-5
-1.285, 4.359e-5
-1.286, 4.381e-5
-1.287, 4.400e-5
-1.288, 4.414e-5
-1.289, 4.452e-5
-1.290, 4.490e-5
-1.291, 4.507e-5
-1.292, 4.534e-5
-1.293, 4.549e-5
-1.294, 4.583e-5
-1.295, 4.614e-5
-1.296, 4.632e-5
-1.297, 4.664e-5
-1.298, 4.683e-5
-1.299, 4.719e-5
-1.300, 4.764e-5
-1.301, 4.785e-5
-1.302, 4.805e-5
-1.303, 4.829e-5
-1.304, 4.865e-5
-1.305, 4.900e-5
-1.306, 4.949e-5
-1.307, 4.970e-5
-1.308, 4.986e-5
-1.309, 5.022e-5
-1.310, 5.069e-5
-1.311, 5.114e-5
-1.312, 5.139e-5
-1.313, 5.169e-5
-1.314, 5.204e-5
-1.315, 5.244e-5
-1.316, 5.287e-5
-1.317, 5.327e-5
-1.318, 5.361e-5
-1.319, 5.411e-5
-1.320, 5.453e-5
-1.321, 5.487e-5
-1.322, 5.531e-5
-1.323, 5.568e-5
-1.324, 5.619e-5
-1.325, 5.681e-5
-1.326, 5.716e-5
-1.327, 5.769e-5
-1.328, 5.795e-5
-1.329, 5.852e-5
-1.330, 5.904e-5
-1.331, 5.961e-5
-1.332, 6.020e-5
-1.333, 6.047e-5
-1.334, 6.097e-5
-1.335, 6.167e-5
-1.336, 6.212e-5
-1.337, 6.266e-5
-1.338, 6.328e-5
-1.339, 6.395e-5
-1.340, 6.443e-5
-1.341, 6.511e-5
-1.342, 6.562e-5
-1.343, 6.619e-5
-1.344, 6.685e-5
-1.345, 6.759e-5
-1.346, 6.837e-5
-1.347, 6.889e-5
-1.348, 6.958e-5
-1.349, 7.028e-5
-1.350, 7.106e-5
-1.351, 7.181e-5
-1.352, 7.248e-5
-1.353, 7.306e-5
-1.354, 7.400e-5
-1.355, 7.477e-5
-1.356, 7.564e-5
-1.357, 7.642e-5
-1.358, 7.714e-5
-1.359, 7.799e-5
-1.360, 7.884e-5
-1.361, 7.978e-5
-1.362, 8.065e-5
-1.363, 8.147e-5
-1.364, 8.243e-5
-1.365, 8.343e-5
-1.366, 8.445e-5
-1.367, 8.549e-5
-1.368, 8.615e-5
-1.369, 8.721e-5
-1.370, 8.826e-5
-1.371, 8.948e-5
-1.372, 9.046e-5
-1.373, 9.137e-5
-1.374, 9.243e-5
-1.375, 9.373e-5
-1.376, 9.498e-5
-1.377, 9.608e-5
-1.378, 9.707e-5
-1.379, 9.845e-5
-1.380, 9.967e-5
-1.381, 1.010e-4
-1.382, 1.023e-4
-1.383, 1.036e-4
-1.384, 1.048e-4
-1.385, 1.062e-4
-1.386, 1.077e-4
-1.387, 1.090e-4
-1.388, 1.103e-4
-1.389, 1.118e-4
-1.390, 1.133e-4
-1.391, 1.149e-4
-1.392, 1.164e-4
-1.393, 1.179e-4
-1.394, 1.194e-4
-1.395, 1.212e-4
-1.396, 1.228e-4
-1.397, 1.245e-4
-1.398, 1.262e-4
-1.399, 1.279e-4
-1.400, 1.177e-4
-1.399, 1.065e-4
-1.398, 9.999e-5
-1.397, 9.525e-5
-1.396, 9.153e-5
-1.395, 8.808e-5
-1.394, 8.500e-5
-1.393, 8.196e-5
-1.392, 7.917e-5
-1.391, 7.656e-5
-1.390, 7.403e-5
-1.389, 7.154e-5
-1.388, 6.914e-5
-1.387, 6.684e-5
-1.386, 6.465e-5
-1.385, 6.263e-5
-1.384, 6.064e-5
-1.383, 5.857e-5
-1.382, 5.648e-5
-1.381, 5.473e-5
-1.380, 5.304e-5
-1.379, 5.130e-5
-1.378, 4.957e-5
-1.377, 4.791e-5
-1.376, 4.644e-5
-1.375, 4.490e-5
-1.374, 4.346e-5
-1.373, 4.199e-5
-1.372, 4.066e-5
-1.371, 3.920e-5
-1.370, 3.798e-5
-1.369, 3.671e-5
-1.368, 3.552e-5
-1.367, 3.424e-5
-1.366, 3.313e-5
-1.365, 3.209e-5
-1.364, 3.097e-5
-1.363, 2.984e-5
-1.362, 2.883e-5
-1.361, 2.771e-5
-1.360, 2.690e-5
-1.359, 2.605e-5
-1.358, 2.489e-5
-1.357, 2.401e-5
-1.356, 2.312e-5
-1.355, 2.236e-5
-1.354, 2.151e-5
-1.353, 2.067e-5
-1.352, 1.986e-5
-1.351, 1.917e-5
-1.350, 1.851e-5
-1.349, 1.786e-5
-1.348, 1.696e-5
-1.347, 1.630e-5
-1.346, 1.563e-5
-1.345, 1.499e-5
-1.344, 1.440e-5
-1.343, 1.375e-5
-1.342, 1.301e-5
-1.341, 1.258e-5
-1.340, 1.196e-5
-1.339, 1.133e-5
-1.338, 1.069e-5
-1.337, 1.020e-5
-1.336, 9.663e-6
-1.335, 9.005e-6
-1.334, 8.568e-6
-1.333, 8.130e-6
-1.332, 7.540e-6
-1.331, 7.126e-6
-1.330, 6.640e-6
-1.329, 6.134e-6
-1.328, 5.668e-6
-1.327, 5.161e-6
-1.326, 4.628e-6
-1.325, 4.333e-6
-1.324, 3.941e-6
-1.323, 3.371e-6
-1.322, 2.814e-6
-1.321, 2.366e-6
-1.320, 2.114e-6
-1.319, 1.628e-6
-1.318, 1.279e-6
-1.317, 7.467e-7
-1.316, 3.984e-7
-1.315, 1.202e-7
-1.314, -2.192e-7
-1.313, -7.954e-7
-1.312, -1.127e-6
-1.311, -1.392e-6
-1.310, -1.895e-6
-1.309, -2.100e-6
-1.308, -2.523e-6
-1.307, -2.984e-6
-1.306, -3.219e-6
-1.305, -3.556e-6
-1.304, -3.736e-6
-1.303, -4.290e-6
-1.302, -4.716e-6
-1.301, -4.932e-6
-1.300, -5.187e-6
-1.299, -5.413e-6
-1.298, -5.755e-6
-1.297, -6.154e-6
-1.296, -6.456e-6
-1.295, -6.589e-6
-1.294, -6.928e-6
-1.293, -7.294e-6
-1.292, -7.548e-6
-1.291, -7.780e-6
-1.290, -7.928e-6
-1.289, -8.384e-6
-1.288, -8.657e-6
-1.287, -8.946e-6
-1.286, -9.297e-6
-1.285, -9.273e-6
-1.284, -9.495e-6
-1.283, -9.778e-6
-1.282, -1.013e-5
-1.281, -1.038e-5
-1.280, -1.070e-5
-1.279, -1.075e-5
-1.278, -1.103e-5
-1.277, -1.129e-5
-1.276, -1.152e-5
-1.275, -1.173e-5
-1.274, -1.193e-5
-1.273, -1.230e-5
-1.272, -1.257e-5
-1.271, -1.257e-5
-1.270, -1.280e-5
-1.269, -1.302e-5
-1.268, -1.327e-5
-1.267, -1.351e-5
-1.266, -1.372e-5
-1.265, -1.388e-5
-1.264, -1.396e-5
-1.263, -1.435e-5
-1.262, -1.455e-5
-1.261, -1.467e-5
-1.260, -1.485e-5
-1.259, -1.514e-5
-1.258, -1.528e-5
-1.257, -1.559e-5
-1.256, -1.573e-5
-1.255, -1.586e-5
-1.254, -1.596e-5
-1.253, -1.645e-5
-1.252, -1.660e-5
-1.251, -1.677e-5
-1.250, -1.690e-5
-1.249, -1.704e-5
-1.248, -1.731e-5
-1.247, -1.754e-5
-1.246, -1.781e-5
-1.245, -1.780e-5
-1.244, -1.803e-5
-1.243, -1.838e-5
-1.242, -1.866e-5
-1.241, -1.879e-5
-1.240, -1.884e-5
-1.239, -1.912e-5
-1.238, -1.938e-5
-1.237, -1.965e-5
-1.236, -1.983e-5
-1.235, -1.994e-5
-1.234, -2.008e-5
-1.233, -2.045e-5
-1.232, -2.052e-5
-1.231, -2.069e-5
-1.230, -2.098e-5
-1.229, -2.134e-5
-1.228, -2.152e-5
-1.227, -2.176e-5
-1.226, -2.181e-5
-1.225, -2.197e-5
-1.224, -2.217e-5
-1.223, -2.246e-5
-1.222, -2.275e-5
-1.221, -2.276e-5
-1.220, -2.309e-5
-1.219, -2.314e-5
-1.218, -2.330e-5
-1.217, -2.371e-5
-1.216, -2.379e-5
-1.215, -2.392e-5
-1.214, -2.414e-5
-1.213, -2.447e-5
-1.212, -2.461e-5
-1.211, -2.488e-5
-1.210, -2.490e-5
-1.209, -2.512e-5
-1.208, -2.539e-5
-1.207, -2.573e-5
-1.206, -2.593e-5
-1.205, -2.599e-5
-1.204, -2.624e-5
-1.203, -2.645e-5
-1.202, -2.667e-5
-1.201, -2.690e-5
-1.200, -2.688e-5
-1.199, -2.705e-5
-1.198, -2.746e-5
-1.197, -2.757e-5
-1.196, -2.779e-5
-1.195, -2.808e-5
-1.194, -2.804e-5
-1.193, -2.850e-5
-1.192, -2.867e-5
-1.191, -2.887e-5
-1.190, -2.899e-5
-1.189, -2.910e-5
-1.188, -2.941e-5
-1.187, -2.962e-5
-1.186, -2.972e-5
-1.185, -2.998e-5
-1.184, -2.998e-5
-1.183, -3.031e-5
-1.182, -3.059e-5
-1.181, -3.080e-5
-1.180, -3.070e-5
-1.179, -3.103e-5
-1.178, -3.142e-5
-1.177, -3.164e-5
-1.176, -3.173e-5
-1.175, -3.186e-5
-1.174, -3.195e-5
-1.173, -3.215e-5
-1.172, -3.253e-5
-1.171, -3.273e-5
-1.170, -3.274e-5
-1.169, -3.292e-5
-1.168, -3.313e-5
-1.167, -3.339e-5
-1.166, -3.355e-5
-1.165, -3.358e-5
-1.164, -3.383e-5
-1.163, -3.403e-5
-1.162, -3.433e-5
-1.161, -3.451e-5
-1.160, -3.451e-5
-1.159, -3.461e-5
-1.158, -3.499e-5
-1.157, -3.510e-5
-1.156, -3.516e-5
-1.155, -3.537e-5
-1.154, -3.546e-5
-1.153, -3.568e-5
-1.152, -3.592e-5
-1.151, -3.611e-5
-1.150, -3.611e-5
-1.149, -3.610e-5
-1.148, -3.642e-5
-1.147, -3.665e-5
-1.146, -3.656e-5
-1.145, -3.677e-5
-1.144, -3.679e-5
-1.143, -3.710e-5
-1.142, -3.714e-5
-1.141, -3.721e-5
-1.140, -3.724e-5
-1.139, -3.729e-5
-1.138, -3.743e-5
-1.137, -3.764e-5
-1.136, -3.756e-5
-1.135, -3.776e-5
-1.134, -3.764e-5
-1.133, -3.782e-5
-1.132, -3.795e-5
-1.131, -3.798e-5
-1.130, -3.795e-5
-1.129, -3.793e-5
-1.128, -3.811e-5
-1.127, -3.828e-5
-1.126, -3.832e-5
-1.125, -3.818e-5
-1.124, -3.811e-5
-1.123, -3.840e-5
-1.122, -3.836e-5
-1.121, -3.844e-5
-1.120, -3.828e-5
-1.119, -3.824e-5
-1.118, -3.833e-5
-1.117, -3.837e-5
-1.116, -3.845e-5
-1.115, -3.837e-5
-1.114, -3.823e-5
-1.113, -3.847e-5
-1.112, -3.830e-5
-1.111, -3.839e-5
-1.110, -3.835e-5
-1.109, -3.820e-5
-1.108, -3.814e-5
-1.107, -3.836e-5
-1.106, -3.829e-5
-1.105, -3.811e-5
-1.104, -3.790e-5
-1.103, -3.807e-5
-1.102, -3.806e-5
-1.101, -3.797e-5
-1.100, -3.786e-5
-1.099, -3.781e-5
-1.098, -3.777e-5
-1.097, -3.790e-5
-1.096, -3.773e-5
-1.095, -3.754e-5
-1.094, -3.738e-5
-1.093, -3.746e-5
-1.092, -3.742e-5
-1.091, -3.745e-5
-1.090, -3.718e-5
-1.089, -3.713e-5
-1.088, -3.713e-5
-1.087, -3.692e-5
-1.086, -3.691e-5
-1.085, -3.680e-5
-1.084, -3.659e-5
-1.083, -3.665e-5
-1.082, -3.648e-5
-1.081, -3.648e-5
-1.080, -3.633e-5
-1.079, -3.611e-5
-1.078, -3.615e-5
-1.077, -3.602e-5
-1.076, -3.593e-5
-1.075, -3.580e-5
-1.074, -3.553e-5
-1.073, -3.567e-5
-1.072, -3.554e-5
-1.071, -3.543e-5
-1.070, -3.527e-5
-1.069, -3.504e-5
-1.068, -3.497e-5
-1.067, -3.503e-5
-1.066, -3.483e-5
-1.065, -3.458e-5
-1.064, -3.446e-5
-1.063, -3.450e-5
-1.062, -3.444e-5
-1.061, -3.415e-5
-1.060, -3.412e-5
-1.059, -3.386e-5
-1.058, -3.388e-5
-1.057, -3.381e-5
-1.056, -3.373e-5
-1.055, -3.334e-5
-1.054, -3.339e-5
-1.053, -3.335e-5
-1.052, -3.334e-5
-1.051, -3.313e-5
-1.050, -3.292e-5
-1.049, -3.287e-5
-1.048, -3.272e-5
-1.047, -3.271e-5
-1.046, -3.267e-5
-1.045, -3.238e-5
-1.044, -3.226e-5
-1.043, -3.233e-5
-1.042, -3.227e-5
-1.041, -3.214e-5
-1.040, -3.184e-5
-1.039, -3.177e-5
-1.038, -3.176e-5
-1.037, -3.174e-5
-1.036, -3.169e-5
-1.035, -3.144e-5
-1.034, -3.118e-5
-1.033, -3.133e-5
-1.032, -3.139e-5
-1.031, -3.116e-5
-1.030, -3.113e-5
-1.029, -3.087e-5
-1.028, -3.083e-5
-1.027, -3.094e-5
-1.026, -3.087e-5
-1.025, -3.067e-5
-1.024, -3.068e-5
-1.023, -3.067e-5
-1.022, -3.057e-5
-1.021, -3.047e-5
-1.020, -3.036e-5
-1.019, -3.025e-5
-1.018, -3.026e-5
-1.017, -3.039e-5
-1.016, -3.019e-5
-1.015, -2.999e-5
-1.014, -3.007e-5
-1.013, -2.999e-5
-1.012, -2.994e-5
-1.011, -3.003e-5
-1.010, -2.980e-5
-1.009, -2.981e-5
-1.008, -2.985e-5
-1.007, -2.989e-5
-1.006, -2.981e-5
-1.005, -2.966e-5
-1.004, -2.966e-5
-1.003, -2.963e-5
-1.002, -2.964e-5
-1.001, -2.980e-5
-1.000, -1.831e-5
-1.001, -1.014e-5
-1.002, -6.867e-6
-1.003, -4.945e-6
-1.004, -3.250e-6
-1.005, -2.014e-6
-1.006, -1.028e-6
-1.007, -1.640e-7
-1.008, 3.688e-7
-1.009, 1.128e-6
-1.010, 1.911e-6
-1.011, 2.467e-6
-1.012, 3.011e-6
-1.013, 3.327e-6
-1.014, 3.827e-6
-1.015, 4.468e-6
-1.016, 4.818e-6
-1.017, 5.249e-6
-1.018, 5.542e-6
-1.019, 6.048e-6
-1.020, 6.422e-6
-1.021, 6.834e-6
-1.022, 7.137e-6
-1.023, 7.520e-6
-1.024, 7.939e-6
-1.025, 8.347e-6
-1.026, 8.740e-6
-1.027, 8.989e-6
-1.028, 9.202e-6
-1.029, 9.476e-6
-1.030, 9.820e-6
-1.031, 1.009e-5
-1.032, 1.011e-5
-1.033, 1.023e-5
-1.034, 1.059e-5
-1.035, 1.068e-5
-1.036, 1.087e-5
-1.037, 1.102e-5
-1.038, 1.107e-5
-1.039, 1.129e-5
-1.040, 1.145e-5
-1.041, 1.173e-5
-1.042, 1.182e-5
-1.043, 1.191e-5
-1.044, 1.216e-5
-1.045, 1.233e-5
-1.046, 1.248e-5
-1.047, 1.272e-5
-1.048, 1.279e-5
-1.049, 1.293e-5
-1.050, 1.325e-5
-1.051, 1.342e-5
-1.052, 1.350e-5
-1.053, 1.359e-5
-1.054, 1.363e-5
-1.055, 1.401e-5
-1.056, 1.408e-5
-1.057, 1.423e-5
-1.058, 1.426e-5
-1.059, 1.431e-5
-1.060, 1.457e-5
-1.061, 1.476e-5
-1.062, 1.477e-5
-1.063, 1.485e-5
-1.064, 1.493e-5
-1.065, 1.519e-5
-1.066, 1.542e-5
-1.067, 1.545e-5
-1.068, 1.543e-5
-1.069, 1.551e-5
-1.070, 1.579e-5
-1.071, 1.597e-5
-1.072, 1.594e-5
-1.073, 1.597e-5
-1.074, 1.610e-5
-1.075, 1.629e-5
-1.076, 1.649e-5
-1.077, 1.653e-5
-1.078, 1.649e-5
-1.079, 1.659e-5
-1.080, 1.683e-5
-1.081, 1.692e-5
-1.082, 1.694e-5
-1.083, 1.693e-5
-1.084, 1.711e-5
-1.085, 1.717e-5
-1.086, 1.738e-5
-1.087, 1.758e-5
-1.088, 1.738e-5
-1.089, 1.758e-5
-1.090, 1.780e-5
-1.091, 1.784e-5
-1.092, 1.798e-5
-1.093, 1.799e-5
-1.094, 1.804e-5
-1.095, 1.825e-5
-1.096, 1.830e-5
-1.097, 1.846e-5
-1.098, 1.844e-5
-1.099, 1.858e-5
-1.100, 1.873e-5
-1.101, 1.877e-5
-1.102, 1.886e-5
-1.103, 1.894e-5
-1.104, 1.898e-5
-1.105, 1.927e-5
-1.106, 1.936e-5
-1.107, 1.938e-5
-1.108, 1.940e-5
-1.109, 1.955e-5
-1.110, 1.974e-5
-1.111, 1.985e-5
-1.112, 1.999e-5
-1.113, 1.992e-5
-1.114, 2.005e-5
-1.115, 2.026e-5
-1.116, 2.034e-5
-1.117, 2.034e-5
-1.118, 2.053e-5
-1.119, 2.056e-5
-1.120, 2.067e-5
-1.121, 2.083e-5
-1.122, 2.094e-5
-1.123, 2.088e-5
-1.124, 2.099e-5
-1.125, 2.123e-5
-1.126, 2.124e-5
-1.127, 2.144e-5
-1.128, 2.141e-5
-1.129, 2.155e-5
-1.130, 2.176e-5
-1.131, 2.174e-5
-1.132, 2.190e-5
-1.133, 2.183e-5
-1.134, 2.189e-5
-1.135, 2.232e-5
-1.136, 2.220e-5
-1.137, 2.240e-5
-1.138, 2.241e-5
-1.139, 2.231e-5
-1.140, 2.273e-5
-1.141, 2.275e-5
-1.142, 2.284e-5
-1.143, 2.294e-5
-1.144, 2.297e-5
-1.145, 2.313e-5
-1.146, 2.327e-5
-1.147, 2.333e-5
-1.148, 2.335e-5
-1.149, 2.341e-5
-1.150, 2.369e-5
-1.151, 2.380e-5
-1.152, 2.383e-5
-1.153, 2.388e-5
-1.154, 2.398e-5
-1.155, 2.416e-5
-1.156, 2.429e-5
-1.157, 2.437e-5
-1.158, 2.436e-5
-1.159, 2.451e-5
-1.160, 2.468e-5
-1.161, 2.477e-5
-1.162, 2.490e-5
-1.163, 2.488e-5
-1.164, 2.493e-5
-1.165, 2.514e-5
-1.166, 2.531e-5
-1.167, 2.534e-5
-1.168, 2.540e-5
-1.169, 2.524e-5
-1.170, 2.554e-5
-1.171, 2.567e-5
-1.172, 2.591e-5
-1.173, 2.607e-5
-1.174, 2.595e-5
-1.175, 2.621e-5
-1.176, 2.627e-5
-1.177, 2.622e-5
-1.178, 2.642e-5
-1.179, 2.628e-5
-1.180, 2.653e-5
-1.181, 2.691e-5
-1.182, 2.685e-5
-1.183, 2.682e-5
-1.184, 2.675e-5
-1.185, 2.703e-5
-1.186, 2.742e-5
-1.187, 2.728e-5
-1.188, 2.725e-5
-1.189, 2.756e-5
-1.190, 2.752e-5
-1.191, 2.776e-5
-1.192, 2.791e-5
-1.193, 2.759e-5
-1.194, 2.810e-5
-1.195, 2.809e-5
-1.196, 2.823e-5
-1.197, 2.829e-5
-1.198, 2.831e-5
-1.199, 2.842e-5
-1.200, 2.846e-5
-1.201, 2.883e-5
-1.202, 2.888e-5
-1.203, 2.879e-5
-1.204, 2.899e-5
-1.205, 2.914e-5
-1.206, 2.913e-5
-1.207, 2.949e-5
-1.208, 2.930e-5
-1.209, 2.945e-5
-1.210, 2.963e-5
-1.211, 2.979e-5
-1.212, 2.984e-5
-1.213, 2.981e-5
-1.214, 2.996e-5
-1.215, 3.011e-5
-1.216, 3.029e-5
-1.217, 3.038e-5
-1.218, 3.038e-5
-1.219, 3.053e-5
-1.220, 3.068e-5
-1.221, 3.078e-5
-1.222, 3.086e-5
-1.223, 3.092e-5
-1.224, 3.099e-5
-1.225, 3.116e-5
-1.226, 3.134e-5
-1.227, 3.139e-5
-1.228, 3.156e-5
-1.229, 3.166e-5
-1.230, 3.170e-5
-1.231, 3.194e-5
-1.232, 3.197e-5
-1.233, 3.193e-5
-1.234, 3.206e-5
-1.235, 3.227e-5
-1.236, 3.247e-5
-1.237, 3.238e-5
-1.238, 3.257e-5
-1.239, 3.273e-5
-1.240, 3.314e-5
-1.241, 3.250e-5
-1.242, 3.307e-5
-1.243, 3.350e-5
-1.244, 3.335e-5
-1.245, 3.351e-5
-1.246, 3.295e-5
-1.247, 3.362e-5
-1.248, 3.417e-5
-1.249, 3.400e-5
-1.250, 3.410e-5
-1.251, 3.378e-5
-1.252, 3.429e-5
-1.253, 3.457e-5
-1.254, 3.362e-5
-1.255, 3.492e-5
-1.256, 3.514e-5
-1.257, 3.500e-5
-1.258, 3.518e-5
-1.259, 3.506e-5
-1.260, 3.536e-5
-1.261, 3.443e-5
-1.262, 3.620e-5
-1.263, 3.585e-5
-1.264, 3.464e-5
-1.265, 3.666e-5
-1.266, 3.647e-5
-1.267, 3.643e-5
-1.268, 3.546e-5
-1.269, 3.723e-5
-1.270, 3.689e-5
-1.271, 3.709e-5
-1.272, 3.564e-5
-1.273, 3.804e-5
-1.274, 3.754e-5
-1.275, 3.756e-5
-1.276, 3.733e-5
-1.277, 3.693e-5
-1.278, 3.881e-5
-1.279, 3.840e-5
-1.280, 3.865e-5
-1.281, 3.866e-5
-1.282, 3.777e-5
-1.283, 3.880e-5
-1.284, 3.956e-5
-1.285, 3.936e-5
-1.286, 3.962e-5
-1.287, 3.982e-5
-1.288, 3.897e-5
-1.289, 3.935e-5
-1.290, 4.078e-5
-1.291, 4.075e-5
-1.292, 4.083e-5
-1.293, 4.094e-5
-1.294, 4.105e-5
-1.295, 4.064e-5
-1.296, 4.155e-5
-1.297, 4.212e-5
-1.298, 4.209e-5
-1.299, 4.217e-5
-1.300, 4.251e-5
-1.301, 4.272e-5
-1.302, 4.299e-5
-1.303, 4.324e-5
-1.304, 4.331e-5
-1.305, 4.366e-5
-1.306, 4.402e-5
-1.307, 4.421e-5
-1.308, 4.446e-5
-1.309, 4.470e-5
-1.310, 4.506e-5
-1.311, 4.543e-5
-1.312, 4.571e-5
-1.313, 4.491e-5
-1.314, 4.675e-5
-1.315, 4.660e-5
-1.316, 4.695e-5
-1.317, 4.709e-5
-1.318, 4.745e-5
-1.319, 4.780e-5
-1.320, 4.819e-5
-1.321, 4.851e-5
-1.322, 4.890e-5
-1.323, 4.911e-5
-1.324, 4.946e-5
-1.325, 5.002e-5
-1.326, 5.037e-5
-1.327, 5.077e-5
-1.328, 5.101e-5
-1.329, 5.082e-5
-1.330, 5.214e-5
-1.331, 5.167e-5
-1.332, 5.296e-5
-1.333, 5.339e-5
-1.334, 5.354e-5
-1.335, 5.425e-5
-1.336, 5.460e-5
-1.337, 5.494e-5
-1.338, 5.547e-5
-1.339, 5.588e-5
-1.340, 5.644e-5
-1.341, 5.700e-5
-1.342, 5.696e-5
-1.343, 5.787e-5
-1.344, 5.863e-5
-1.345, 5.911e-5
-1.346, 5.974e-5
-1.347, 6.015e-5
-1.348, 5.959e-5
-1.349, 6.150e-5
-1.350, 6.195e-5
-1.351, 6.292e-5
-1.352, 6.326e-5
-1.353, 6.372e-5
-1.354, 6.437e-5
-1.355, 6.509e-5
-1.356, 6.584e-5
-1.357, 6.538e-5
-1.358, 6.741e-5
-1.359, 6.805e-5
-1.360, 6.859e-5
-1.361, 6.942e-5
-1.362, 7.007e-5
-1.363, 7.079e-5
-1.364, 7.152e-5
-1.365, 7.233e-5
-1.366, 7.329e-5
-1.367, 7.404e-5
-1.368, 7.480e-5
-1.369, 7.564e-5
-1.370, 7.652e-5
-1.371, 7.750e-5
-1.372, 7.840e-5
-1.373, 7.924e-5
-1.374, 8.021e-5
-1.375, 8.115e-5
-1.376, 8.223e-5
-1.377, 8.328e-5
-1.378, 8.425e-5
-1.379, 8.424e-5
-1.380, 8.661e-5
-1.381, 8.759e-5
-1.382, 8.869e-5
-1.383, 8.971e-5
-1.384, 9.082e-5
-1.385, 9.195e-5
-1.386, 9.324e-5
-1.387, 9.444e-5
-1.388, 9.561e-5
-1.389, 9.693e-5
-1.390, 9.815e-5
-1.391, 9.954e-5
-1.392, 1.010e-4
-1.393, 1.022e-4
-1.394, 1.036e-4
-1.395, 1.050e-4
-1.396, 1.054e-4
-1.397, 1.082e-4
-1.398, 1.094e-4
-1.399, 1.110e-4
-1.400, 1.015e-4
-1.399, 9.079e-5
-1.398, 8.374e-5
-1.397, 8.078e-5
-1.396, 7.706e-5
-1.395, 7.404e-5
-1.394, 7.162e-5
-1.393, 6.898e-5
-1.392, 6.608e-5
-1.391, 6.353e-5
-1.390, 6.192e-5
-1.389, 5.989e-5
-1.388, 5.794e-5
-1.387, 5.575e-5
-1.386, 5.392e-5
-1.385, 5.207e-5
-1.384, 5.050e-5
-1.383, 4.878e-5
-1.382, 4.687e-5
-1.381, 4.555e-5
-1.380, 4.403e-5
-1.379, 4.270e-5
-1.378, 4.129e-5
-1.377, 3.979e-5
-1.376, 3.849e-5
-1.375, 3.688e-5
-1.374, 3.602e-5
-1.373, 3.492e-5
-1.372, 3.357e-5
-1.371, 3.234e-5
-1.370, 3.125e-5
-1.369, 3.022e-5
-1.368, 2.933e-5
-1.367, 2.808e-5
-1.366, 2.709e-5
-1.365, 2.619e-5
-1.364, 2.542e-5
-1.363, 2.449e-5
-1.362, 2.340e-5
-1.361, 2.259e-5
-1.360, 2.196e-5
-1.359, 2.097e-5
-1.358, 2.015e-5
-1.357, 1.940e-5
-1.356, 1.858e-5
-1.355, 1.787e-5
-1.354, 1.738e-5
-1.353, 1.655e-5
-1.352, 1.591e-5
-1.351, 1.510e-5
-1.350, 1.458e-5
-1.349, 1.398e-5
-1.348, 1.333e-5
-1.347, 1.272e-5
-1.346, 1.212e-5
-1.345, 1.151e-5
-1.344, 1.106e-5
-1.343, 1.064e-5
-1.342, 9.996e-6
-1.341, 9.408e-6
-1.340, 8.883e-6
-1.339, 8.480e-6
-1.338, 7.988e-6
-1.337, 7.329e-6
-1.336, 6.913e-6
-1.335, 6.521e-6
-1.334, 5.996e-6
-1.333, 5.594e-6
-1.332, 5.159e-6
-1.331, 4.503e-6
-1.330, 4.144e-6
-1.329, 3.812e-6
-1.328, 3.254e-6
-1.327, 2.870e-6
-1.326, 2.228e-6
-1.325, 2.146e-6
-1.324, 1.572e-6
-1.323, 1.377e-6
-1.322, 7.516e-7
-1.321, 2.672e-7
-1.320, 4.319e-7
-1.319, -4.558e-8
-1.318, -9.572e-7
-1.317, -8.270e-7
-1.316, -1.762e-6
-1.315, -1.596e-6
-1.314, -1.965e-6
-1.313, -2.589e-6
-1.312, -2.640e-6
-1.311, -3.296e-6
-1.310, -3.616e-6
-1.309, -3.179e-6
-1.308, -3.906e-6
-1.307, -4.688e-6
-1.306, -4.718e-6
-1.305, -4.651e-6
-1.304, -5.068e-6
-1.303, -5.593e-6
-1.302, -5.588e-6
-1.301, -6.199e-6
-1.300, -6.320e-6
-1.299, -6.855e-6
-1.298, -6.468e-6
-1.297, -7.657e-6
-1.296, -7.166e-6
-1.295, -7.770e-6
-1.294, -7.706e-6
-1.293, -8.098e-6
-1.292, -8.591e-6
-1.291, -8.430e-6
-1.290, -9.249e-6
-1.289, -8.722e-6
-1.288, -9.417e-6
-1.287, -9.942e-6
-1.286, -9.685e-6
-1.285, -9.870e-6
-1.284, -1.049e-5
-1.283, -1.042e-5
-1.282, -1.028e-5
-1.281, -1.124e-5
-1.280, -1.134e-5
-1.279, -1.091e-5
-1.278, -1.135e-5
-1.277, -1.211e-5
-1.276, -1.167e-5
-1.275, -1.214e-5
-1.274, -1.255e-5
-1.273, -1.210e-5
-1.272, -1.252e-5
-1.271, -1.323e-5
-1.270, -1.298e-5
-1.269, -1.296e-5
-1.268, -1.360e-5
-1.267, -1.381e-5
-1.266, -1.393e-5
-1.265, -1.375e-5
-1.264, -1.406e-5
-1.263, -1.440e-5
-1.262, -1.434e-5
-1.261, -1.488e-5
-1.260, -1.473e-5
-1.259, -1.524e-5
-1.258, -1.519e-5
-1.257, -1.535e-5
-1.256, -1.567e-5
-1.255, -1.614e-5
-1.254, -1.607e-5
-1.253, -1.588e-5
-1.252, -1.626e-5
-1.251, -1.668e-5
-1.250, -1.698e-5
-1.249, -1.676e-5
-1.248, -1.684e-5
-1.247, -1.727e-5
-1.246, -1.794e-5
-1.245, -1.772e-5
-1.244, -1.748e-5
-1.243, -1.787e-5
-1.242, -1.827e-5
-1.241, -1.868e-5
-1.240, -1.864e-5
-1.239, -1.838e-5
-1.238, -1.895e-5
-1.237, -1.932e-5
-1.236, -1.950e-5
-1.235, -1.918e-5
-1.234, -1.951e-5
-1.233, -1.999e-5
-1.232, -2.002e-5
-1.231, -2.001e-5
-1.230, -2.043e-5
-1.229, -2.092e-5
-1.228, -2.052e-5
-1.227, -2.122e-5
-1.226, -2.142e-5
-1.225, -2.111e-5
-1.224, -2.137e-5
-1.223, -2.173e-5
-1.222, -2.199e-5
-1.221, -2.188e-5
-1.220, -2.226e-5
-1.219, -2.261e-5
-1.218, -2.235e-5
-1.217, -2.284e-5
-1.216, -2.328e-5
-1.215, -2.332e-5
-1.214, -2.330e-5
-1.213, -2.320e-5
-1.212, -2.382e-5
-1.211, -2.422e-5
-1.210, -2.377e-5
-1.209, -2.423e-5
-1.208, -2.439e-5
-1.207, -2.480e-5
-1.206, -2.465e-5
-1.205, -2.495e-5
-1.204, -2.519e-5
-1.203, -2.534e-5
-1.202, -2.551e-5
-1.201, -2.595e-5
-1.200, -2.594e-5
-1.199, -2.586e-5
-1.198, -2.623e-5
-1.197, -2.654e-5
-1.196, -2.680e-5
-1.195, -2.676e-5
-1.194, -2.672e-5
-1.193, -2.702e-5
-1.192, -2.739e-5
-1.191, -2.770e-5
-1.190, -2.767e-5
-1.189, -2.753e-5
-1.188, -2.786e-5
-1.187, -2.813e-5
-1.186, -2.858e-5
-1.185, -2.838e-5
-1.184, -2.858e-5
-1.183, -2.861e-5
-1.182, -2.897e-5
-1.181, -2.930e-5
-1.180, -2.938e-5
-1.179, -2.939e-5
-1.178, -2.950e-5
-1.177, -2.979e-5
-1.176, -3.006e-5
-1.175, -3.014e-5
-1.174, -3.026e-5
-1.173, -3.021e-5
-1.172, -3.048e-5
-1.171, -3.082e-5
-1.170, -3.099e-5
-1.169, -3.094e-5
-1.168, -3.100e-5
-1.167, -3.123e-5
-1.166, -3.149e-5
-1.165, -3.149e-5
-1.164, -3.161e-5
-1.163, -3.177e-5
-1.162, -3.195e-5
-1.161, -3.218e-5
-1.160, -3.225e-5
-1.159, -3.230e-5
-1.158, -3.253e-5
-1.157, -3.244e-5
-1.156, -3.271e-5
-1.155, -3.299e-5
-1.154, -3.289e-5
-1.153, -3.293e-5
-1.152, -3.319e-5
-1.151, -3.344e-5
-1.150, -3.355e-5
-1.149, -3.347e-5
-1.148, -3.357e-5
-1.147, -3.370e-5
-1.146, -3.390e-5
-1.145, -3.403e-5
-1.144, -3.389e-5
-1.143, -3.391e-5
-1.142, -3.420e-5
-1.141, -3.425e-5
-1.140, -3.434e-5
-1.139, -3.431e-5
-1.138, -3.428e-5
-1.137, -3.432e-5
-1.136, -3.448e-5
-1.135, -3.467e-5
-1.134, -3.458e-5
-1.133, -3.458e-5
-1.132, -3.470e-5
-1.131, -3.481e-5
-1.130, -3.482e-5
-1.129, -3.474e-5
-1.128, -3.473e-5
-1.127, -3.472e-5
-1.126, -3.495e-5
-1.125, -3.491e-5
-1.124, -3.473e-5
-1.123, -3.480e-5
-1.122, -3.479e-5
-1.121, -3.501e-5
-1.120, -3.493e-5
-1.119, -3.476e-5
-1.118, -3.476e-5
-1.117, -3.478e-5
-1.116, -3.483e-5
-1.115, -3.486e-5
-1.114, -3.463e-5
-1.113, -3.470e-5
-1.112, -3.457e-5
-1.111, -3.473e-5
-1.110, -3.472e-5
-1.109, -3.449e-5
-1.108, -3.439e-5
-1.107, -3.444e-5
-1.106, -3.450e-5
-1.105, -3.447e-5
-1.104, -3.409e-5
-1.103, -3.413e-5
-1.102, -3.412e-5
-1.101, -3.424e-5
-1.100, -3.414e-5
-1.099, -3.388e-5
-1.098, -3.383e-5
-1.097, -3.381e-5
-1.096, -3.377e-5
-1.095, -3.373e-5
-1.094, -3.358e-5
-1.093, -3.344e-5
-1.092, -3.329e-5
-1.091, -3.343e-5
-1.090, -3.332e-5
-1.089, -3.311e-5
-1.088, -3.299e-5
-1.087, -3.294e-5
-1.086, -3.291e-5
-1.085, -3.291e-5
-1.084, -3.266e-5
-1.083, -3.258e-5
-1.082, -3.238e-5
-1.081, -3.257e-5
-1.080, -3.242e-5
-1.079, -3.210e-5
-1.078, -3.208e-5
-1.077, -3.195e-5
-1.076, -3.204e-5
-1.075, -3.191e-5
-1.074, -3.163e-5
-1.073, -3.160e-5
-1.072, -3.132e-5
-1.071, -3.152e-5
-1.070, -3.138e-5
-1.069, -3.119e-5
-1.068, -3.107e-5
-1.067, -3.092e-5
-1.066, -3.088e-5
-1.065, -3.092e-5
-1.064, -3.063e-5
-1.063, -3.055e-5
-1.062, -3.062e-5
-1.061, -3.044e-5
-1.060, -3.041e-5
-1.059, -3.021e-5
-1.058, -3.006e-5
-1.057, -3.005e-5
-1.056, -2.998e-5
-1.055, -3.001e-5
-1.054, -2.972e-5
-1.053, -2.958e-5
-1.052, -2.956e-5
-1.051, -2.963e-5
-1.050, -2.955e-5
-1.049, -2.937e-5
-1.048, -2.918e-5
-1.047, -2.905e-5
-1.046, -2.915e-5
-1.045, -2.906e-5
-1.044, -2.884e-5
-1.043, -2.873e-5
-1.042, -2.862e-5
-1.041, -2.877e-5
-1.040, -2.863e-5
-1.039, -2.845e-5
-1.038, -2.846e-5
-1.037, -2.834e-5
-1.036, -2.849e-5
-1.035, -2.841e-5
-1.034, -2.811e-5
-1.033, -2.818e-5
-1.032, -2.806e-5
-1.031, -2.812e-5
-1.030, -2.811e-5
-1.029, -2.795e-5
-1.028, -2.781e-5
-1.027, -2.775e-5
-1.026, -2.788e-5
-1.025, -2.779e-5
-1.024, -2.772e-5
-1.023, -2.763e-5
-1.022, -2.758e-5
-1.021, -2.766e-5
-1.020, -2.775e-5
-1.019, -2.752e-5
-1.018, -2.739e-5
-1.017, -2.750e-5
-1.016, -2.752e-5
-1.015, -2.752e-5
-1.014, -2.739e-5
-1.013, -2.721e-5
-1.012, -2.721e-5
-1.011, -2.746e-5
-1.010, -2.749e-5
-1.009, -2.730e-5
-1.008, -2.717e-5
-1.007, -2.722e-5
-1.006, -2.731e-5
-1.005, -2.728e-5
-1.004, -2.722e-5
-1.003, -2.711e-5
-1.002, -2.704e-5
-1.001, -2.737e-5
