Potential V vs RHE, Current mA cm-2
0.013299999999999867,-0.08536367983385632
0.012299999999999978,-0.1350483406851164
0.011299999999999866,-0.15731589654499206
0.010299999999999976,-0.17103859615368294
0.009299999999999864,-0.18193187316264373
0.008299999999999974,-0.19070308322180693
0.007299999999999862,-0.19636192842126707
0.006299999999999972,-0.2011719468408082
0.00529999999999986,-0.2075381476902009
0.0042999999999999705,-0.21447023305953958
0.0032999999999998586,-0.21885583808912115
0.0022999999999999687,-0.22097790503891873
0.0012999999999998568,-0.2245146832885813
0.00029999999999996696,-0.2307394130079875
-0.000700000000000145,-0.23385177786769054
-0.0017000000000000348,-0.2389447385472047
-0.0027000000000001467,-0.2397935653271237
-0.0037000000000000366,-0.2426229879268538
-0.0047000000000001485,-0.2482818331263139
-0.005700000000000038,-0.25096978459605745
-0.00670000000000015,-0.25337479380582806
-0.00770000000000004,-0.25422362058574705
-0.008700000000000152,-0.25662862979551765
-0.009700000000000042,-0.2610142348250993
-0.010700000000000154,-0.26327777290488336
-0.011700000000000044,-0.2656827821146539
-0.012700000000000156,-0.26851220471438403
-0.013700000000000045,-0.268795146974357
-0.014700000000000157,-0.27303928087395213
-0.015700000000000047,-0.27501987669376315
-0.01670000000000016,-0.2768590013835877
-0.01770000000000005,-0.27855665494342574
-0.01870000000000016,-0.27855665494342574
-0.01970000000000005,-0.2823763754530613
-0.020700000000000163,-0.2852057980527914
-0.021700000000000053,-0.28633756709268343
-0.022700000000000164,-0.2857716825727374
-0.023700000000000054,-0.2880352206525215
-0.024700000000000166,-0.29128905664221105
-0.025700000000000056,-0.29510877715184664
-0.026700000000000168,-0.2938355369819681
-0.027700000000000058,-0.2955331905418062
-0.02870000000000017,-0.2969479018416712
-0.02970000000000006,-0.3002017378313608
-0.03070000000000017,-0.3009090934812933
-0.03170000000000006,-0.3033141026910639
-0.03270000000000017,-0.3041629294709829
-0.03370000000000006,-0.3041629294709829
-0.034700000000000175,-0.3064264675507669
-0.035700000000000065,-0.30925589015049704
-0.03670000000000018,-0.3113779571002946
-0.03770000000000007,-0.31095354371033507
-0.03870000000000018,-0.3127926684001596
-0.03970000000000007,-0.3164709177798087
-0.04070000000000018,-0.31873445585959276
-0.04170000000000007,-0.3211394650693633
-0.04270000000000018,-0.32071505167940384
-0.04370000000000007,-0.3217053495893093
-0.044700000000000184,-0.3245347721890394
-0.045700000000000074,-0.32679831026882344
-0.046700000000000186,-0.328920377218621
-0.047700000000000076,-0.3303350885184861
-0.04870000000000019,-0.33019361738849956
-0.04970000000000008,-0.3347206935480677
-0.05070000000000019,-0.33670128936787874
-0.05170000000000008,-0.33811600066774383
-0.05270000000000019,-0.3389648274476628
-0.05370000000000008,-0.34009659648755486
-0.05470000000000019,-0.34434073038714996
-0.05570000000000008,-0.345755441687015
-0.056700000000000195,-0.3464627973369475
-0.057700000000000085,-0.3492922199366776
-0.058700000000000196,-0.3505654601065561
-0.059700000000000086,-0.3541022383562187
-0.0607000000000002,-0.35622430530601623
-0.06170000000000009,-0.3591951990357328
-0.0627000000000002,-0.3608928525955709
-0.06370000000000009,-0.36216609276544937
-0.0647000000000002,-0.3649955153651795
-0.06570000000000009,-0.3685322936148421
-0.0667000000000002,-0.3715031873445586
-0.0677000000000001,-0.3715031873445586
-0.0687000000000002,-0.3733423120343832
-0.0697000000000001,-0.37716203254401875
-0.07070000000000021,-0.3795670417537893
-0.0717000000000001,-0.38211352209354643
-0.07270000000000021,-0.38409411791335746
-0.0737000000000001,-0.386499127123128
-0.07470000000000021,-0.38961149198283107
-0.0757000000000001,-0.39187503006261515
-0.07670000000000021,-0.3954118083122777
-0.0777000000000001,-0.3965435773521698
-0.07870000000000021,-0.3989485865619403
-0.0797000000000001,-0.4022024225516299
-0.08070000000000022,-0.40687096984118454
-0.0817000000000001,-0.4104077480908471
-0.08270000000000022,-0.40984186357090113
-0.08370000000000011,-0.41408599747049624
-0.08470000000000022,-0.41833013137009134
-0.08570000000000011,-0.42130102509980794
-0.08670000000000022,-0.423564563179592
-0.08770000000000011,-0.4263939857793221
-0.08870000000000022,-0.4280916393391601
-0.08970000000000011,-0.4321943021087687
-0.09070000000000022,-0.43587255148841775
-0.09170000000000011,-0.43884344521813434
-0.09270000000000023,-0.44025815651799943
-0.09370000000000012,-0.44252169459778345
-0.09470000000000023,-0.44747318414731113
-0.09570000000000012,-0.4512929046569467
-0.09670000000000023,-0.45299055821678474
-0.09770000000000012,-0.4570932209863934
-0.09870000000000023,-0.45879087454623135
-0.09970000000000012,-0.46317647957581304
-0.10070000000000023,-0.4682694402553271
-0.10170000000000012,-0.4699670938151651
-0.10270000000000024,-0.47392828545478727
-0.10370000000000013,-0.4750600544946793
-0.10470000000000024,-0.4790212461343014
-0.10570000000000013,-0.4846800913337616
-0.10670000000000024,-0.48765098506347815
-0.10770000000000013,-0.4882168695834242
-0.10870000000000024,-0.4927439457429922
-0.10970000000000013,-0.4969880796425873
-0.11070000000000024,-0.5027883959720341
-0.11170000000000013,-0.505334876311791
-0.11270000000000002,-0.5060422319617235
-0.11370000000000013,-0.5097204813413726
-0.11470000000000002,-0.5126913750710893
-0.11570000000000014,-0.5176428646206169
-0.11670000000000003,-0.5218869985202121
-0.11770000000000014,-0.5231602386900907
-0.11870000000000003,-0.5266970169397532
-0.11970000000000014,-0.5289605550195372
-0.12070000000000003,-0.5353267558689299
-0.12170000000000014,-0.538439120728633
-0.12270000000000003,-0.5402782454184575
-0.12370000000000014,-0.5442394370580796
-0.12470000000000003,-0.5477762153077422
-0.12570000000000014,-0.5510300512974318
-0.12670000000000003,-0.5576791944067975
-0.12770000000000015,-0.5573962521468245
-0.12870000000000004,-0.5599427324865814
-0.12970000000000015,-0.5658845199460147
-0.13070000000000004,-0.5685724714157583
-0.13170000000000015,-0.5728166053153534
-0.13270000000000004,-0.5750801433951374
-0.13370000000000015,-0.577202210344935
-0.13470000000000004,-0.5815878153745165
-0.13570000000000015,-0.5851245936241791
-0.13670000000000004,-0.5893687275237742
-0.13770000000000016,-0.5902175543036933
-0.13870000000000005,-0.5931884480334099
-0.13970000000000016,-0.5971496396730319
-0.14070000000000005,-0.601393773572627
-0.14170000000000016,-0.6033743693924382
-0.14270000000000005,-0.6043646673023436
-0.14370000000000016,-0.6066282053821278
-0.14470000000000005,-0.6117211660616418
-0.14570000000000016,-0.615965299961237
-0.14670000000000005,-0.6155408865712775
-0.14770000000000016,-0.6176629535210749
-0.14870000000000005,-0.6200679627308455
-0.14970000000000017,-0.6223315008106296
-0.15070000000000006,-0.6261512213202652
-0.15170000000000017,-0.6288391727900088
-0.15270000000000006,-0.6285562305300357
-0.15370000000000017,-0.6313856531297658
-0.15470000000000006,-0.6326588932996443
-0.15570000000000017,-0.635912729289334
-0.15670000000000006,-0.638742151889064
-0.15770000000000017,-0.637327440589199
-0.15870000000000006,-0.6388836230190506
-0.15970000000000018,-0.6411471610988346
-0.16070000000000007,-0.6446839393484972
-0.16170000000000018,-0.6456742372584027
-0.16270000000000007,-0.6460986506483622
-0.16370000000000018,-0.6480792464681732
-0.16470000000000007,-0.6490695443780788
-0.16570000000000018,-0.6510501401978899
-0.16670000000000007,-0.6534551494076605
-0.16770000000000018,-0.652747793757728
-0.16870000000000007,-0.6516160247178359
-0.16970000000000018,-0.6540210339276065
-0.17070000000000007,-0.6571333987873096
-0.17170000000000019,-0.6582651678272016
-0.17270000000000008,-0.6569919276573231
-0.1737000000000002,-0.6582651678272016
-0.17470000000000008,-0.6605287059069856
-0.1757000000000002,-0.6622263594668236
-0.17670000000000008,-0.6632166573767292
-0.1777000000000002,-0.6653387243265267
-0.17870000000000008,-0.6647728398065808
-0.1797000000000002,-0.6659046088464727
-0.18070000000000008,-0.6685925603162164
-0.1817000000000002,-0.6691584448361624
-0.18270000000000008,-0.6692999159661489
-0.1837000000000002,-0.6694413870961354
-0.1847000000000001,-0.6711390406559734
-0.1857000000000002,-0.6742514055156765
-0.1867000000000001,-0.674675818905636
-0.1877000000000002,-0.675524645685555
-0.1887000000000001,-0.6763734724654741
-0.1897000000000002,-0.6786370105452582
-0.1907000000000001,-0.6799102507151367
-0.1917000000000001,-0.6824567310548937
-0.19269999999999998,-0.6824567310548937
-0.1937000000000001,-0.6835885000947858
-0.19469999999999998,-0.6835885000947858
-0.1957000000000001,-0.6891058741642594
-0.19669999999999999,-0.6908035277240974
-0.1977000000000001,-0.690944998854084
-0.1987,-0.6898132298141919
-0.1997000000000001,-0.6930670658038814
-0.2007,-0.6964623729235576
-0.2017000000000001,-0.6970282574435036
-0.2027,-0.6984429687433686
-0.2037000000000001,-0.6985844398733552
-0.2047,-0.7019797469930312
-0.2057000000000001,-0.7041018139428288
-0.2067,-0.7067897654125724
-0.2077000000000001,-0.7067897654125724
-0.2087,-0.7086288901023969
-0.2097000000000001,-0.7117412549621
-0.2107,-0.7145706775618301
-0.2117000000000001,-0.7161268599916816
-0.2127,-0.7166927445116276
-0.2137000000000001,-0.7179659846815062
-0.2147,-0.7224930608410742
-0.2157000000000001,-0.7254639545707907
-0.2167,-0.7265957236106829
-0.21770000000000012,-0.7292836750804264
-0.2187,-0.7302739729903319
-0.21970000000000012,-0.732254568810143
-0.2207,-0.7359328181897921
-0.22170000000000012,-0.7383378273995627
-0.2227,-0.7398940098294141
-0.22370000000000012,-0.7397525386994277
-0.2247,-0.7437137303390498
-0.22570000000000012,-0.7486652198885775
-0.2267,-0.7495140466684964
-0.22770000000000012,-0.7517775847482805
-0.22870000000000001,-0.7526264115281995
-0.22970000000000013,-0.7560217186478756
-0.23070000000000002,-0.7595584968975382
-0.23170000000000013,-0.7615390927173492
-0.23270000000000002,-0.7646514575770523
-0.23370000000000013,-0.7660661688769174
-0.23470000000000002,-0.7676223513067688
-0.23570000000000013,-0.772998254246256
-0.23670000000000002,-0.7772423881458511
-0.2376999999999999,-0.7782326860557566
-0.23870000000000002,-0.7807791663955137
-0.2396999999999999,-0.7845988869051493
-0.24070000000000003,-0.7879941940248254
-0.24169999999999991,-0.792379799054407
-0.24270000000000003,-0.7943603948742181
-0.24369999999999992,-0.7966239329540021
-0.24470000000000003,-0.8012924802435567
-0.24569999999999992,-0.8045463162332464
-0.24670000000000003,-0.810346632562693
-0.24769999999999992,-0.812327228382504
-0.24870000000000003,-0.8150151798522477
-0.24969999999999992,-0.8199666694017753
-0.25070000000000003,-0.8230790342614784
-0.2516999999999999,-0.8264743413811545
-0.25270000000000004,-0.828596408330952
-0.2536999999999999,-0.832840542230547
-0.25470000000000004,-0.8373676183901153
-0.2556999999999999,-0.8392067430799398
-0.25670000000000004,-0.8455729439293325
-0.25769999999999993,-0.8501000200889006
-0.25870000000000004,-0.8510903179988061
-0.25969999999999993,-0.8544856251184821
-0.26070000000000004,-0.8625494795277129
-0.26169999999999993,-0.8662277289073619
-0.26270000000000004,-0.8694815648970515
-0.26369999999999993,-0.8744330544465793
-0.26470000000000005,-0.8798089573860663
-0.26569999999999994,-0.8860336871054725
-0.26670000000000005,-0.8916925323049326
-0.26769999999999994,-0.8950878394246087
-0.26870000000000005,-0.8990490310642308
-0.26969999999999994,-0.9025858093138934
-0.27070000000000005,-0.9090934812932725
-0.27169999999999994,-0.9154596821426652
-0.27270000000000005,-0.9202697005622062
-0.27369999999999994,-0.9243723633318148
-0.27470000000000006,-0.928333554971437
-0.27569999999999995,-0.9346997558208296
-0.27670000000000006,-0.9403586010202899
-0.27769999999999995,-0.9434709658799929
-0.27870000000000006,-0.9504030512493317
-0.27969999999999995,-0.9563448387087647
-0.28070000000000006,-0.9627110395581575
-0.28169999999999995,-0.9700675383174557
-0.28270000000000006,-0.9743116722170507
-0.28369999999999995,-0.9806778730664433
-0.28470000000000006,-0.9859123048759442
-0.28569999999999995,-0.9931273325052556
-0.28670000000000007,-1.0014741291744595
-0.28769999999999996,-1.0041620806442029
-0.28870000000000007,-1.0096794547136767
-0.28969999999999996,-1.0176018379929208
-0.29070000000000007,-1.025241279012192
-0.29169999999999996,-1.0333051334214227
-0.29270000000000007,-1.040095747660775
-0.29369999999999996,-1.0450472372103026
-0.2947000000000001,-1.0532525627495197
-0.29569999999999996,-1.062306715068656
-0.2967000000000001,-1.0698046849579408
-0.29769999999999996,-1.0758879435473605
-0.2987000000000001,-1.0819712021367802
-0.29969999999999997,-1.0883374029861725
-0.3007000000000001,-1.0992306799951337
-0.30169999999999997,-1.1071530632743778
-0.3027000000000001,-1.113660735253757
-0.30369999999999997,-1.1213001762730281
-0.3047000000000001,-1.1304957997221508
-0.30569999999999997,-1.141247605601125
-0.3067000000000001,-1.1490285177503827
-0.3077,-1.157516785549573
-0.3087000000000001,-1.1658635822187766
-0.3097,-1.1729371387181018
-0.3107000000000001,-1.1851036558969412
-0.3117,-1.1945822216060369
-0.3127000000000001,-1.2017972492353488
-0.3137,-1.2117002283344038
-0.3147000000000001,-1.2204714383935673
-0.3157,-1.2334867823523255
-0.3167000000000001,-1.2431068191914076
-0.3177,-1.2531512694204494
-0.3187000000000001,-1.2634786619094642
-0.3197,-1.2726742853585868
-0.3207000000000001,-1.2842749180174802
-0.3217,-1.2965829063263061
-0.3227000000000001,-1.3062029431653885
-0.3237,-1.316813277914376
-0.3247000000000001,-1.3262918436234719
-0.3257,-1.3391657164522437
-0.3267000000000001,-1.3530298871909212
-0.3277,-1.3626499240300034
-0.3287000000000001,-1.3752408545988022
-0.3297,-1.3893879675974525
-0.3307000000000001,-1.4011300713863324
-0.3317,-1.4144283576050638
-0.3327000000000001,-1.426028990263957
-0.3337,-1.4401761032626073
-0.3347000000000001,-1.4514937936615278
-0.3357,-1.4656409066601779
-0.3367000000000001,-1.4797880196588282
-0.3377,-1.4925204213576138
-0.3387000000000001,-1.4953498439573436
-0.3397,-1.5151558021554543
-0.3407000000000001,-1.5349617603535646
-0.3417,-1.55052358465208
-0.3427000000000001,-1.5632559863508655
-0.3437,-1.5788178106493809
-0.3447000000000001,-1.5943796349478963
-0.3457,-1.6099414592464116
-0.3467000000000001,-1.626917994844792
-0.3477,-1.6424798191433077
-0.3487000000000001,-1.658041643441823
-0.3497,-1.6750181790402037
-0.3507000000000001,-1.6919947146385839
-0.3517,-1.7103859615368293
-0.3527000000000001,-1.7259477858353447
-0.3537,-1.7415096101338603
-0.3547000000000001,-1.7599008570321055
-0.3557,-1.779706815230216
-0.35670000000000013,-1.7980980621284617
-0.3577,-1.815074597726842
-0.35870000000000013,-1.8348805559249526
-0.3597,-1.8532718028231983
-0.36070000000000013,-1.8744924723211736
-0.3617,-1.894298430519284
-0.3626999999999999,-1.9126896774175295
-0.3637,-1.9324956356156402
-0.3646999999999999,-1.9523015938137507
-0.3657,-1.9735222633117262
-0.3666999999999999,-1.9975723554094316
-0.3677,-2.0187930249074073
-0.3686999999999999,-2.0371842718056525
-0.36970000000000003,-2.0612343639033583
-0.3706999999999999,-2.082455033401334
-0.37170000000000003,-2.1065051254990395
-0.3726999999999999,-2.12914050629688
-0.37370000000000003,-2.150361175794856
-0.3746999999999999,-2.1758259791924264
-0.37570000000000003,-2.1984613599902674
-0.3766999999999999,-2.225340874687703
-0.37770000000000004,-2.249390966785408
-0.3786999999999999,-2.273441058883114
-0.37970000000000004,-2.3003205735805494
-0.3806999999999999,-2.3257853769781205
-0.38170000000000004,-2.355494314275286
-0.38269999999999993,-2.385203251572452
-0.38370000000000004,-2.4106680549700226
-0.38469999999999993,-2.437547569667458
-0.38570000000000004,-2.467256506964624
-0.38669999999999993,-2.310223552679605
-0.38570000000000004,-2.1206522384976902
-0.38469999999999993,-2.013134179707947
-0.38370000000000004,-1.9324956356156402
-0.38269999999999993,-1.8589306480226582
-0.38170000000000004,-1.7938539282288664
-0.3806999999999999,-1.7301919197349398
-0.37970000000000004,-1.6679446225408785
-0.3786999999999999,-1.6156003044458718
-0.37770000000000004,-1.5632559863508655
-0.3766999999999999,-1.512326379555724
-0.37570000000000003,-1.462811484060448
-0.3746999999999999,-1.4127307040452257
-0.37370000000000003,-1.3680258269694907
-0.3726999999999999,-1.3255844879735392
-0.37170000000000003,-1.28186990880771
-0.3706999999999999,-1.2432482903213944
-0.36970000000000003,-1.2003825379354838
-0.3686999999999999,-1.160912092669249
-0.3677,-1.1275249059924342
-0.3666999999999999,-1.0908838833259298
-0.3657,-1.0557990430892767
-0.3646999999999999,-1.0214215585025566
-0.3637,-0.9891661408656335
-0.3626999999999999,-0.960871914868333
-0.3617,-0.9294653240113291
-0.36070000000000013,-0.8989075599342444
-0.3597,-0.8694815648970515
-0.35870000000000013,-0.8435923481095214
-0.3577,-0.8185519581019103
-0.35670000000000013,-0.793228625834326
-0.3557,-0.7656417554869578
-0.3547000000000001,-0.7413087211292793
-0.3537,-0.7161268599916816
-0.3527000000000001,-0.694906190493706
-0.3517,-0.6739684632557035
-0.3507000000000001,-0.6509086690679033
-0.3497,-0.6274244614901437
-0.3487000000000001,-0.6090332145918983
-0.3477,-0.5895101986537608
-0.3467000000000001,-0.5708360094955423
-0.3457,-0.5503226956474992
-0.3447000000000001,-0.5307996797093618
-0.3437,-0.5141060863709543
-0.3427000000000001,-0.49670513738261435
-0.3417,-0.4804359574341665
-0.3407000000000001,-0.46459119087567796
-0.3397,-0.44549258832750005
-0.3387000000000001,-0.43176988871880917
-0.3377,-0.41748130459017235
-0.3367000000000001,-0.40333419159152195
-0.3357,-0.3901773765027771
-0.3347000000000001,-0.37461555220426174
-0.3337,-0.36060991033559786
-0.3327000000000001,-0.3498581044566236
-0.3317,-0.33698423162785174
-0.3307000000000001,-0.32552507009894494
-0.3297,-0.3108120725803486
-0.3287000000000001,-0.30006026670137426
-0.3277,-0.2888840474324405
-0.3267000000000001,-0.2775663570335202
-0.3257,-0.26752190680447846
-0.3247000000000001,-0.2552139184956526
-0.3237,-0.2446035837466648
-0.3227000000000001,-0.23710561385738013
-0.3217,-0.2267782213683654
-0.3207000000000001,-0.2164508288793506
-0.3197,-0.2076796188201874
-0.3187000000000001,-0.19678634181122662
-0.3177,-0.18942984305192842
-0.3167000000000001,-0.17980980621284617
-0.3157,-0.17245330745354798
-0.3147000000000001,-0.1622673860945197
-0.3137,-0.154203531685289
-0.3127000000000001,-0.14712997518596382
-0.3117,-0.1408628041275617
-0.3107000000000001,-0.132798949718331
-0.3097,-0.12298085329726763
-0.3087000000000001,-0.11548288340798295
-0.3077,-0.1096825670785363
-0.3067000000000001,-0.10250998078822056
-0.30569999999999997,-0.09481395131695476
-0.3047000000000001,-0.08567491631982663
-0.30369999999999997,-0.0791530972274488
-0.3027000000000001,-0.07264542524806963
-0.30169999999999997,-0.06598213502570531
-0.3007000000000001,-0.060422319617235716
-0.29969999999999997,-0.05042031072718991
-0.2987000000000001,-0.04529905582167848
-0.29769999999999996,-0.0403900076111468
-0.2967000000000001,-0.03325986265982701
-0.29569999999999996,-0.02820934331930883
-0.2947000000000001,-0.02048501962204573
-0.29369999999999996,-0.014995939778569388
-0.29270000000000007,-0.009110740771130837
-0.29169999999999996,-0.0022720263475832485
-0.29070000000000007,0.0022918323057813596
-0.28969999999999996,0.00906122587563556
-0.28870000000000007,0.0173019191973494
-0.28769999999999996,0.017202889406358845
-0.28670000000000007,0.024403769922671882
-0.28569999999999995,0.03154806198699031
-0.28470000000000006,0.039314827023249364
-0.28369999999999995,0.042271573639967294
-0.28270000000000006,0.045765910550633934
-0.28169999999999995,0.05119840194211568
-0.28070000000000006,0.056998718271562325
-0.27969999999999995,0.0634780960249442
-0.27870000000000006,0.0696603844053544
-0.27769999999999995,0.07397525386994278
-0.27670000000000006,0.07679052935667419
-0.27569999999999995,0.08209569673116808
