Potential V vs RHE, Current mA cm-2
0.05339999999999995,-0.025988246578520724
0.05239999999999995,-0.027120015618412752
0.051399999999999946,-0.02770004725135742
0.050399999999999945,-0.028181049093311532
0.049399999999999944,-0.02849228557928184
0.04839999999999994,-0.028662050935265648
0.04739999999999994,-0.028916698969241348
0.04639999999999994,-0.029326965246202208
0.04539999999999994,-0.029765525749160374
0.04439999999999994,-0.030034320896134725
0.04339999999999994,-0.030175792026121234
0.04239999999999994,-0.03040214583409964
0.04139999999999994,-0.030812412111060502
0.040399999999999936,-0.03123682550102001
0.039399999999999935,-0.03149147353499571
0.038399999999999934,-0.03164709177798087
0.03739999999999993,-0.03185929847296063
0.03639999999999993,-0.032255417636922835
0.03539999999999993,-0.03267983102688235
0.03439999999999993,-0.03294862617385671
0.03339999999999993,-0.03311839152984051
0.03239999999999993,-0.033344745337818914
0.03139999999999993,-0.033740864501781126
0.030399999999999927,-0.034179425004739285
0.029399999999999926,-0.034462367264712294
0.028399999999999925,-0.0346321326206961
0.027399999999999924,-0.03485848642867451
0.026399999999999924,-0.035282899818634014
0.025399999999999923,-0.035749754547589475
0.024399999999999922,-0.03600440258156519
0.02339999999999992,-0.036188315050547634
0.02239999999999992,-0.036457110197522
0.02139999999999992,-0.036881523587481514
0.020399999999999918,-0.03734837831643697
0.019399999999999917,-0.03764546768940863
0.018399999999999916,-0.03782938015839108
0.017399999999999916,-0.03808402819236679
0.016399999999999915,-0.038522588695324954
0.015399999999999914,-0.03897529631128176
0.014399999999999913,-0.03930067991025072
0.013399999999999912,-0.03949873949223183
0.012399999999999911,-0.03976753463920618
0.01139999999999991,-0.04019194802916569
0.01039999999999991,-0.04070124409711711
0.009399999999999908,-0.041012480583087416
0.008399999999999908,-0.04121054016506852
0.007399999999999907,-0.04150762953804018
0.006399999999999906,-0.04194619004099834
0.005399999999999905,-0.0424413389959511
0.004399999999999904,-0.04276672259492006
0.003399999999999903,-0.04297892928989981
0.002399999999999902,-0.04326187154987282
0.0013999999999999013,-0.043742873391826934
0.00039999999999990044,-0.04423802234677969
-0.0006000000000001005,-0.044591700171745956
-0.0016000000000001013,-0.04481805397972436
-0.0026000000000001022,-0.045115143352696015
-0.003600000000000103,-0.04558199808165148
-0.004600000000000104,-0.04609129414960289
-0.005600000000000105,-0.046444971974569156
-0.006600000000000106,-0.04668547289554621
-0.007600000000000107,-0.046982562268517866
-0.008600000000000108,-0.04746356411047198
-0.009600000000000108,-0.048001154404420696
-0.01060000000000011,-0.048368979342385605
-0.01160000000000011,-0.04862362737636131
-0.012600000000000111,-0.04897730520132757
-0.013600000000000112,-0.04944415993028303
-0.014600000000000113,-0.04998175022423174
-0.015600000000000114,-0.050363722275195304
-0.016600000000000115,-0.05061837030917101
-0.017600000000000116,-0.05092960679514132
-0.018600000000000116,-0.05142475575009409
-0.019600000000000117,-0.05197649315704145
-0.020600000000000118,-0.05235846520800501
-0.02160000000000012,-0.05264140746797802
-0.02260000000000012,-0.052980938179945626
-0.02360000000000012,-0.05347608713489838
-0.024600000000000122,-0.05405611876784306
-0.025600000000000123,-0.05446638504480392
-0.026600000000000124,-0.05473518019177826
-0.027600000000000124,-0.055088858016744534
-0.028600000000000125,-0.05558400697169729
-0.029600000000000126,-0.05613574437864466
-0.030600000000000127,-0.056546010655605515
-0.03160000000000013,-0.056828952915578525
-0.03260000000000013,-0.057196777853543435
-0.03360000000000013,-0.05770607392149485
-0.03460000000000002,-0.05827195844144086
-0.03560000000000002,-0.058682224718401725
-0.03660000000000002,-0.05896516697837473
-0.03760000000000002,-0.05933299191633964
-0.03860000000000002,-0.0598281408712924
-0.039600000000000024,-0.06037987827823976
-0.040600000000000025,-0.060832585894196586
-0.041600000000000026,-0.06111552815416958
-0.04260000000000003,-0.061483353092134506
-0.04360000000000003,-0.062006796273084565
-0.04460000000000003,-0.06261512213202652
-0.04560000000000003,-0.06305368263498468
-0.04660000000000003,-0.06335077200795634
-0.04760000000000003,-0.0637044498329226
-0.04860000000000003,-0.06425618723986996
-0.04960000000000003,-0.06485036598581327
-0.050600000000000034,-0.0653030736017701
-0.051600000000000035,-0.06561431008774041
-0.052600000000000036,-0.06598213502570531
-0.053600000000000037,-0.06651972531965401
-0.05460000000000004,-0.06711390406559734
-0.05560000000000004,-0.06753831745555686
-0.05660000000000004,-0.06787784816752446
-0.05760000000000004,-0.06821737887949207
-0.05860000000000004,-0.06875496917344079
-0.05960000000000004,-0.06936329503238275
-0.06060000000000004,-0.0698018555353409
-0.061600000000000044,-0.07012723913430988
-0.06260000000000004,-0.07048091695927614
-0.06360000000000005,-0.07103265436622348
-0.06460000000000005,-0.07164098022516545
-0.06560000000000005,-0.07209368784112226
-0.06660000000000005,-0.07240492432709257
-0.06760000000000005,-0.0727727492650575
-0.06860000000000005,-0.0732820453330089
-0.06960000000000005,-0.07389037119195085
-0.07060000000000005,-0.07432893169490903
-0.07160000000000005,-0.07462602106788069
-0.07260000000000005,-0.07500799311884425
-0.07360000000000005,-0.07551728918679566
-0.07460000000000006,-0.07612561504573763
-0.07560000000000006,-0.07656417554869578
-0.07660000000000006,-0.07686126492166745
-0.07760000000000006,-0.0772149427466337
-0.07860000000000006,-0.07772423881458512
-0.07960000000000006,-0.07830427044752979
-0.08060000000000006,-0.07874283095048794
-0.08160000000000006,-0.07903992032345959
-0.08260000000000006,-0.07937945103542722
-0.08360000000000006,-0.07988874710337862
-0.08460000000000006,-0.08045463162332463
-0.08560000000000006,-0.0808931921262828
-0.08660000000000007,-0.08119028149925445
-0.08760000000000007,-0.08151566509822342
-0.08860000000000007,-0.08202496116617483
-0.08960000000000007,-0.08259084568612084
-0.09060000000000007,-0.08298696485008306
-0.09160000000000007,-0.08325575999705741
-0.09260000000000007,-0.08355284937002906
-0.09360000000000007,-0.08400555698598587
-0.09460000000000007,-0.08454314727993459
-0.09560000000000007,-0.08495341355689547
-0.09660000000000007,-0.08520806159087116
-0.09760000000000008,-0.08549100385084417
-0.09860000000000008,-0.08594371146680099
-0.09960000000000008,-0.0864813017607497
-0.10060000000000008,-0.08686327381171326
-0.10160000000000008,-0.0871037747326903
-0.10260000000000008,-0.08738671699266332
-0.10360000000000008,-0.08778283615662552
-0.10460000000000008,-0.08829213222457694
-0.10560000000000008,-0.08865995716254185
-0.10660000000000008,-0.08885801674452294
-0.10760000000000008,-0.08914095900449596
-0.10860000000000009,-0.08955122528145683
-0.10960000000000009,-0.09004637423640958
-0.11060000000000009,-0.09040005206137584
-0.11160000000000009,-0.09059811164335696
-0.11260000000000009,-0.09082446545133536
-0.11360000000000009,-0.09120643750229893
-0.11460000000000009,-0.09168743934425302
-0.11560000000000009,-0.09202697005622064
-0.11660000000000009,-0.09219673541220444
-0.1176000000000001,-0.09242308922018284
-0.1186000000000001,-0.09276261993215046
-0.1196000000000001,-0.09321532754810727
-0.1206000000000001,-0.09352656403407757
-0.1216000000000001,-0.09368218227706274
-0.1226000000000001,-0.09385194763304654
-0.1236000000000001,-0.0941773312320155
-0.1246000000000001,-0.09457345039597771
-0.1256000000000001,-0.09487053976894937
-0.1266000000000001,-0.0949978637859372
-0.1276000000000001,-0.09513933491592372
-0.1286000000000001,-0.09545057140189403
-0.1296000000000001,-0.09583254345285759
-0.1306000000000001,-0.09611548571283059
-0.1316000000000001,-0.0962003683908225
-0.1326000000000001,-0.09631354529481169
-0.1336000000000001,-0.09661063466778336
-0.1346000000000001,-0.09696431249274962
-0.1356000000000001,-0.09720481341372668
-0.1366000000000001,-0.09727554897871993
-0.1376000000000001,-0.09734628454371318
-0.1386000000000001,-0.09758678546469024
-0.1396000000000001,-0.09792631617665784
-0.1406000000000001,-0.09813852287163759
-0.14160000000000011,-0.09818096421063353
-0.14260000000000012,-0.09823755266262815
-0.14360000000000012,-0.09843561224460926
-0.14460000000000012,-0.09876099584357821
-0.14560000000000012,-0.09891661408656337
-0.14660000000000012,-0.09893076119956201
-0.14760000000000012,-0.09897320253855796
-0.14860000000000012,-0.09914296789454177
-0.14960000000000012,-0.09942591015451478
-0.15060000000000012,-0.09958152839749992
-0.15160000000000012,-0.09955323417150262
-0.15260000000000012,-0.0995673812845013
-0.15360000000000013,-0.09970885241448779
-0.15460000000000013,-0.09997764756146214
-0.15560000000000013,-0.10010497157845
-0.15660000000000013,-0.10004838312645539
-0.15760000000000013,-0.10002008890045809
-0.15860000000000013,-0.10017570714344325
-0.15960000000000002,-0.100387913838423
-0.16060000000000002,-0.1004727965164149
-0.16160000000000002,-0.10040206095142165
-0.16260000000000002,-0.1003596196124257
-0.16360000000000002,-0.10045864940341626
-0.16460000000000002,-0.10064256187239871
-0.16560000000000002,-0.10078403300238521
-0.16660000000000003,-0.10071329743739196
-0.16760000000000003,-0.1006142676464014
-0.16860000000000003,-0.10068500321139465
-0.16960000000000003,-0.10085476856737846
-0.17060000000000003,-0.10089720990637441
-0.17160000000000003,-0.10076988588938657
-0.17260000000000003,-0.10069915032439332
-0.17360000000000003,-0.10074159166338927
-0.17460000000000003,-0.10088306279337576
-0.17560000000000003,-0.10089720990637441
-0.17660000000000003,-0.10078403300238521
-0.17760000000000004,-0.10065670898539736
-0.17860000000000004,-0.10068500321139465
-0.17960000000000004,-0.10082647434138116
-0.18060000000000004,-0.10082647434138116
-0.18160000000000004,-0.10065670898539736
-0.18260000000000004,-0.10052938496840952
-0.18360000000000004,-0.10052938496840952
-0.18460000000000004,-0.10065670898539736
-0.18560000000000004,-0.10065670898539736
-0.18660000000000004,-0.1004727965164149
-0.18760000000000004,-0.10031717827342976
-0.18860000000000005,-0.10028888404743246
-0.18960000000000005,-0.10041620806442031
-0.19060000000000005,-0.100387913838423
-0.19160000000000005,-0.1002181484824392
-0.19260000000000005,-0.10003423601345675
-0.19360000000000005,-0.10000594178745945
-0.19460000000000005,-0.10009082446545134
-0.19560000000000005,-0.10004838312645539
-0.19660000000000005,-0.09985032354447429
-0.19760000000000005,-0.09968055818849049
-0.19860000000000005,-0.09962396973649587
-0.19960000000000006,-0.09970885241448779
-0.20060000000000006,-0.09966641107549183
-0.20160000000000006,-0.09944005726751343
-0.20260000000000006,-0.09924199768553231
-0.20360000000000006,-0.09919955634653636
-0.20460000000000006,-0.09922785057253368
-0.20560000000000006,-0.09919955634653636
-0.20660000000000006,-0.09898734965155662
-0.20760000000000006,-0.09877514295657686
-0.20860000000000006,-0.0987044073915836
-0.20960000000000006,-0.09877514295657686
-0.21060000000000006,-0.0987044073915836
-0.21160000000000007,-0.0984780535836052
-0.21260000000000007,-0.09823755266262815
-0.21360000000000007,-0.09818096421063353
-0.21460000000000007,-0.0982234055496295
-0.21560000000000007,-0.09815266998463625
-0.21660000000000007,-0.09794046328965648
-0.21760000000000007,-0.0977424037076754
-0.21860000000000007,-0.09764337391668483
-0.21960000000000007,-0.09769996236867944
-0.22060000000000007,-0.09762922680368619
-0.22160000000000007,-0.09738872588270912
-0.22260000000000008,-0.09714822496173206
-0.22360000000000008,-0.09706334228374017
-0.22460000000000008,-0.09710578362273611
-0.22560000000000008,-0.09703504805774286
-0.22660000000000008,-0.09678040002376717
-0.22760000000000008,-0.09656819332878741
-0.22860000000000008,-0.09646916353779686
-0.22960000000000008,-0.09649745776379416
-0.23060000000000008,-0.09644086931179956
-0.23160000000000008,-0.09618622127782384
-0.23260000000000008,-0.09594572035684679
-0.23360000000000009,-0.09584669056585624
-0.2346000000000001,-0.09588913190485218
-0.2356000000000001,-0.09584669056585624
-0.2366000000000001,-0.09556374830588323
-0.2376000000000001,-0.09533739449790483
-0.2386000000000001,-0.09525251181991291
-0.2396000000000001,-0.09526665893291157
-0.2406000000000001,-0.09518177625491966
-0.2416000000000001,-0.09495542244694127
-0.2426000000000001,-0.09472906863896285
-0.2436000000000001,-0.09464418596097096
-0.2446000000000001,-0.0946583330739696
-0.2456000000000001,-0.09461589173497365
-0.2466000000000001,-0.0943753908139966
-0.2476000000000001,-0.09412074278002087
-0.2486000000000001,-0.09402171298903034
-0.2496000000000001,-0.09405000721502763
-0.2506000000000001,-0.09400756587603168
-0.2516000000000001,-0.09375291784205599
-0.2526000000000001,-0.09349826980808028
-0.2536000000000001,-0.09342753424308703
-0.2546000000000001,-0.09344168135608567
-0.2556000000000001,-0.09339924001708971
-0.2566000000000001,-0.09315873909611266
-0.2576000000000001,-0.09290409106213696
-0.2586000000000001,-0.09283335549714371
-0.2596000000000001,-0.09286164972314101
-0.2606000000000001,-0.0928050612711464
-0.2616000000000001,-0.09256456035016934
-0.2626000000000001,-0.0923523536551896
-0.2636000000000001,-0.0922391767512004
-0.2646000000000001,-0.09228161809019635
-0.2656000000000001,-0.09222502963820174
-0.2666000000000001,-0.09198452871722468
-0.2676000000000001,-0.09175817490924627
-0.2686000000000001,-0.09168743934425302
-0.2696000000000001,-0.09170158645725168
-0.2706000000000001,-0.09167329223125438
-0.2716000000000001,-0.09144693842327598
-0.2726000000000001,-0.09123473172829621
-0.2736000000000001,-0.09113570193730568
-0.2746000000000001,-0.09117814327630162
-0.2756000000000001,-0.09113570193730568
-0.2766000000000001,-0.09089520101632861
-0.2776000000000001,-0.09068299432134884
-0.2786000000000001,-0.09059811164335696
-0.2796000000000001,-0.0906405529823529
-0.2806000000000001,-0.09061225875635559
-0.28160000000000013,-0.09038590494837719
-0.28260000000000013,-0.09017369825339744
-0.28360000000000013,-0.09008881557540553
-0.2846,-0.09011710980140283
-0.2856,-0.09008881557540553
-0.2866,-0.08990490310642309
-0.2876,-0.08966440218544602
-0.2886,-0.08959366662045277
-0.2896,-0.08965025507244738
-0.2906,-0.08962196084645008
-0.2916,-0.08940975415147032
-0.2926,-0.08919754745649056
-0.2936,-0.08911266477849866
-0.29460000000000003,-0.08918340034349191
-0.29560000000000003,-0.08914095900449596
-0.29660000000000003,-0.08894289942251486
-0.29760000000000003,-0.08873069272753512
-0.29860000000000003,-0.08865995716254185
-0.29960000000000003,-0.08871654561453644
-0.30060000000000003,-0.0887023985015378
-0.30160000000000003,-0.08849019180655805
-0.30260000000000004,-0.08829213222457694
-0.30360000000000004,-0.08823554377258234
-0.30460000000000004,-0.08829213222457694
-0.30560000000000004,-0.08826383799857963
-0.30660000000000004,-0.08807992552959719
-0.30760000000000004,-0.08789601306061473
-0.30860000000000004,-0.08781113038262284
-0.30960000000000004,-0.08789601306061473
-0.31060000000000004,-0.08788186594761609
-0.31160000000000004,-0.08769795347863363
-0.31260000000000004,-0.08749989389665253
-0.31360000000000005,-0.0874433054446579
-0.31460000000000005,-0.08749989389665253
-0.31560000000000005,-0.08748574678365387
-0.31660000000000005,-0.08731598142767007
-0.31760000000000005,-0.08713206895868761
-0.31860000000000005,-0.08707548050669302
-0.31960000000000005,-0.08716036318468491
-0.32060000000000005,-0.08716036318468491
-0.32160000000000005,-0.08697645071570247
-0.32260000000000005,-0.0867642440207227
-0.32360000000000005,-0.08672180268172675
-0.32460000000000006,-0.08679253824672
-0.32560000000000006,-0.08680668535971865
-0.32660000000000006,-0.0866227728907362
-0.32760000000000006,-0.08643886042175375
-0.32860000000000006,-0.08638227196975913
-0.32960000000000006,-0.08645300753475238
-0.33060000000000006,-0.08643886042175375
-0.33160000000000006,-0.08629738929176724
-0.33260000000000006,-0.08611347682278478
-0.33360000000000006,-0.08604274125779153
-0.33460000000000006,-0.08614177104878207
-0.33560000000000006,-0.08612762393578344
-0.33660000000000007,-0.08597200569279828
-0.33760000000000007,-0.08577394611081718
-0.33860000000000007,-0.08571735765882257
-0.33960000000000007,-0.08581638744981313
-0.34060000000000007,-0.08583053456281178
-0.34160000000000007,-0.08567491631982663
-0.34260000000000007,-0.08549100385084417
-0.34360000000000007,-0.0854202682858509
-0.3446000000000001,-0.08551929807684147
-0.3456000000000001,-0.08554759230283876
-0.3466000000000001,-0.08537782694685496
-0.34759999999999996,-0.08520806159087116
-0.3486000000000001,-0.08513732602587791
-0.34959999999999997,-0.08523635581686846
-0.3506000000000001,-0.08526465004286575
-0.35159999999999997,-0.08510903179988061
-0.3526000000000001,-0.0849109722178995
-0.35359999999999997,-0.08486853087890354
-0.3546000000000001,-0.0849392664438968
-0.35559999999999997,-0.0849958548958914
-0.3566000000000001,-0.08484023665290626
-0.3576,-0.08467047129692246
-0.3586000000000001,-0.08461388284492784
-0.3596,-0.0847129126359184
-0.3606000000000001,-0.0847412068619157
-0.3616,-0.0845714415059319
-0.3626000000000001,-0.08440167614994809
-0.3636,-0.08437338192395079
-0.3646000000000001,-0.0844582646019427
-0.3656,-0.08451485305393729
-0.3666000000000001,-0.08438752903694943
-0.3676,-0.08418946945496834
-0.3686000000000001,-0.08413288100297373
-0.3696,-0.08423191079396428
-0.3706000000000001,-0.08430264635895754
-0.3716,-0.08417532234196969
-0.3726000000000001,-0.08399140987298723
-0.3736,-0.08394896853399128
-0.3746000000000001,-0.08404799832498183
-0.3756,-0.08410458677697644
-0.3766000000000001,-0.08397726275998857
-0.3776,-0.08379335029100612
-0.3786000000000001,-0.08376505606500882
-0.3796,-0.08386408585599937
-0.3806000000000001,-0.08390652719499532
-0.3816,-0.08376505606500882
-0.3826000000000001,-0.08360943782202368
-0.3836,-0.08358114359602638
-0.3846000000000001,-0.08368017338701693
-0.3856,-0.08370846761301422
-0.3866000000000001,-0.08358114359602638
-0.3876,-0.08345381957903851
-0.3886000000000001,-0.08338308401404526
-0.3896,-0.08349626091803447
-0.3906000000000001,-0.08353870225703043
-0.3916,-0.08342552535304121
-0.3926000000000001,-0.08325575999705741
-0.3936,-0.08322746577106012
-0.3946000000000001,-0.08332649556205066
-0.3956,-0.0833972311270439
-0.3966000000000001,-0.08326990711005607
-0.3976,-0.08311428886707091
-0.3986000000000001,-0.0830577004150763
-0.3996,-0.08315673020606687
-0.4006000000000001,-0.08322746577106012
-0.4016,-0.08311428886707091
-0.4026000000000001,-0.0829445235110871
-0.4036,-0.08291622928508981
-0.4046000000000001,-0.083029406189079
-0.4056,-0.08310014175407225
-0.40660000000000013,-0.08298696485008306
-0.4076,-0.0828313466070979
-0.40860000000000013,-0.08277475815510331
-0.4096,-0.08290208217209115
-0.41060000000000013,-0.08295867062408575
-0.4116,-0.08285964083309519
-0.41260000000000013,-0.08268987547711139
-0.4136,-0.0826615812511141
-0.41460000000000014,-0.08277475815510331
-0.4156,-0.0828313466070979
-0.41660000000000014,-0.08273231681610735
-0.4176,-0.08257669857312219
-0.41860000000000014,-0.08253425723412625
-0.41960000000000003,-0.08264743413811544
-0.42060000000000014,-0.08273231681610735
-0.42160000000000003,-0.08264743413811544
-0.42260000000000014,-0.08249181589513029
-0.42360000000000003,-0.08240693321713838
-0.42460000000000014,-0.08256255146012353
-0.42560000000000003,-0.0826049927991195
-0.42660000000000015,-0.08250596300812894
-0.42760000000000004,-0.08236449187814243
-0.42860000000000015,-0.08232205053914649
-0.42960000000000004,-0.08244937455613434
-0.43060000000000015,-0.08252011012112759
-0.43160000000000004,-0.08240693321713838
-0.43260000000000015,-0.08226546208715188
-0.43360000000000004,-0.08222302074815592
-0.43460000000000015,-0.08233619765214513
-0.43560000000000004,-0.08244937455613434
