Dec. 15, 2024   07:49:28
Cyclic Voltammetry
File: c:/users/guazh/data/banditlqround7_x0exp59_r20/2024-12-09-exp666\exp666-2024-12-15t07_41_38-h2koh\exp666_cv_sr_600mvs_efin_-1400mv.bin
Data Source:  Experiment
Instrument Model:  CHI760E
Header: CV ran at 600 mVs
Note: 

Init E (V) = -1
High E (V) = -1
Low E (V) = -1.4
Final E (V) = -1
Init P/N = N
Scan Rate (V/s) = 0.6
Segment = 3
Sample Interval (V) = 0.001
Quiet Time (sec) = 2
Sensitivity (A/V) = 0.01
Comp R (ohm) = 1.2

Results:

Channel 1:
Segment 1:

Segment 2:

Segment 3:

Potential/V, Current/A

-1.000, -1.263e-4
-1.001, -3.684e-5
-1.002, 4.640e-5
-1.003, 1.235e-4
-1.004, 1.975e-4
-1.005, 2.622e-4
-1.006, 3.239e-4
-1.007, 3.825e-4
-1.008, 4.349e-4
-1.009, 4.842e-4
-1.010, 5.305e-4
-1.011, 5.767e-4
-1.012, 6.260e-4
-1.013, 6.723e-4
-1.014, 7.216e-4
-1.015, 7.648e-4
-1.016, 8.079e-4
-1.017, 8.480e-4
-1.018, 8.850e-4
-1.019, 9.189e-4
-1.020, 9.528e-4
-1.021, 9.868e-4
-1.022, 1.024e-3
-1.023, 1.061e-3
-1.024, 1.098e-3
-1.025, 1.135e-3
-1.026, 1.172e-3
-1.027, 1.199e-3
-1.028, 1.227e-3
-1.029, 1.252e-3
-1.030, 1.277e-3
-1.031, 1.307e-3
-1.032, 1.335e-3
-1.033, 1.369e-3
-1.034, 1.403e-3
-1.035, 1.434e-3
-1.036, 1.465e-3
-1.037, 1.492e-3
-1.038, 1.517e-3
-1.039, 1.542e-3
-1.040, 1.563e-3
-1.041, 1.591e-3
-1.042, 1.619e-3
-1.043, 1.650e-3
-1.044, 1.677e-3
-1.045, 1.708e-3
-1.046, 1.736e-3
-1.047, 1.761e-3
-1.048, 1.782e-3
-1.049, 1.804e-3
-1.050, 1.825e-3
-1.051, 1.847e-3
-1.052, 1.875e-3
-1.053, 1.902e-3
-1.054, 1.933e-3
-1.055, 1.958e-3
-1.056, 1.986e-3
-1.057, 2.010e-3
-1.058, 2.029e-3
-1.059, 2.047e-3
-1.060, 2.069e-3
-1.061, 2.094e-3
-1.062, 2.118e-3
-1.063, 2.143e-3
-1.064, 2.171e-3
-1.065, 2.201e-3
-1.066, 2.226e-3
-1.067, 2.248e-3
-1.068, 2.269e-3
-1.069, 2.291e-3
-1.070, 2.309e-3
-1.071, 2.334e-3
-1.072, 2.359e-3
-1.073, 2.383e-3
-1.074, 2.414e-3
-1.075, 2.439e-3
-1.076, 2.467e-3
-1.077, 2.485e-3
-1.078, 2.507e-3
-1.079, 2.528e-3
-1.080, 2.547e-3
-1.081, 2.571e-3
-1.082, 2.596e-3
-1.083, 2.624e-3
-1.084, 2.652e-3
-1.085, 2.679e-3
-1.086, 2.704e-3
-1.087, 2.726e-3
-1.088, 2.747e-3
-1.089, 2.766e-3
-1.090, 2.784e-3
-1.091, 2.806e-3
-1.092, 2.830e-3
-1.093, 2.858e-3
-1.094, 2.886e-3
-1.095, 2.914e-3
-1.096, 2.941e-3
-1.097, 2.966e-3
-1.098, 2.988e-3
-1.099, 3.006e-3
-1.100, 3.028e-3
-1.101, 3.049e-3
-1.102, 3.074e-3
-1.103, 3.099e-3
-1.104, 3.126e-3
-1.105, 3.151e-3
-1.106, 3.179e-3
-1.107, 3.204e-3
-1.108, 3.225e-3
-1.109, 3.250e-3
-1.110, 3.271e-3
-1.111, 3.293e-3
-1.112, 3.321e-3
-1.113, 3.345e-3
-1.114, 3.373e-3
-1.115, 3.398e-3
-1.116, 3.422e-3
-1.117, 3.441e-3
-1.118, 3.462e-3
-1.119, 3.481e-3
-1.120, 3.499e-3
-1.121, 3.521e-3
-1.122, 3.543e-3
-1.123, 3.570e-3
-1.124, 3.595e-3
-1.125, 3.620e-3
-1.126, 3.641e-3
-1.127, 3.660e-3
-1.128, 3.678e-3
-1.129, 3.694e-3
-1.130, 3.709e-3
-1.131, 3.728e-3
-1.132, 3.749e-3
-1.133, 3.774e-3
-1.134, 3.795e-3
-1.135, 3.814e-3
-1.136, 3.832e-3
-1.137, 3.848e-3
-1.138, 3.860e-3
-1.139, 3.869e-3
-1.140, 3.882e-3
-1.141, 3.894e-3
-1.142, 3.913e-3
-1.143, 3.931e-3
-1.144, 3.950e-3
-1.145, 3.971e-3
-1.146, 3.987e-3
-1.147, 3.999e-3
-1.148, 4.011e-3
-1.149, 4.021e-3
-1.150, 4.030e-3
-1.151, 4.042e-3
-1.152, 4.058e-3
-1.153, 4.076e-3
-1.154, 4.095e-3
-1.155, 4.113e-3
-1.156, 4.128e-3
-1.157, 4.141e-3
-1.158, 4.150e-3
-1.159, 4.159e-3
-1.160, 4.172e-3
-1.161, 4.184e-3
-1.162, 4.199e-3
-1.163, 4.215e-3
-1.164, 4.233e-3
-1.165, 4.249e-3
-1.166, 4.264e-3
-1.167, 4.276e-3
-1.168, 4.286e-3
-1.169, 4.292e-3
-1.170, 4.304e-3
-1.171, 4.313e-3
-1.172, 4.329e-3
-1.173, 4.344e-3
-1.174, 4.360e-3
-1.175, 4.375e-3
-1.176, 4.391e-3
-1.177, 4.403e-3
-1.178, 4.415e-3
-1.179, 4.421e-3
-1.180, 4.431e-3
-1.181, 4.440e-3
-1.182, 4.455e-3
-1.183, 4.468e-3
-1.184, 4.483e-3
-1.185, 4.498e-3
-1.186, 4.511e-3
-1.187, 4.520e-3
-1.188, 4.529e-3
-1.189, 4.535e-3
-1.190, 4.545e-3
-1.191, 4.557e-3
-1.192, 4.569e-3
-1.193, 4.585e-3
-1.194, 4.597e-3
-1.195, 4.612e-3
-1.196, 4.628e-3
-1.197, 4.634e-3
-1.198, 4.643e-3
-1.199, 4.649e-3
-1.200, 4.659e-3
-1.201, 4.668e-3
-1.202, 4.680e-3
-1.203, 4.693e-3
-1.204, 4.708e-3
-1.205, 4.720e-3
-1.206, 4.730e-3
-1.207, 4.739e-3
-1.208, 4.742e-3
-1.209, 4.745e-3
-1.210, 4.751e-3
-1.211, 4.754e-3
-1.212, 4.764e-3
-1.213, 4.776e-3
-1.214, 4.788e-3
-1.215, 4.801e-3
-1.216, 4.810e-3
-1.217, 4.819e-3
-1.218, 4.822e-3
-1.219, 4.822e-3
-1.220, 4.825e-3
-1.221, 4.828e-3
-1.222, 4.834e-3
-1.223, 4.844e-3
-1.224, 4.853e-3
-1.225, 4.862e-3
-1.226, 4.868e-3
-1.227, 4.875e-3
-1.228, 4.878e-3
-1.229, 4.881e-3
-1.230, 4.884e-3
-1.231, 4.884e-3
-1.232, 4.890e-3
-1.233, 4.899e-3
-1.234, 4.905e-3
-1.235, 4.912e-3
-1.236, 4.918e-3
-1.237, 4.921e-3
-1.238, 4.921e-3
-1.239, 4.921e-3
-1.240, 4.921e-3
-1.241, 4.921e-3
-1.242, 4.924e-3
-1.243, 4.930e-3
-1.244, 4.936e-3
-1.245, 4.939e-3
-1.246, 4.942e-3
-1.247, 4.942e-3
-1.248, 4.942e-3
-1.249, 4.942e-3
-1.250, 4.945e-3
-1.251, 4.949e-3
-1.252, 4.955e-3
-1.253, 4.964e-3
-1.254, 4.973e-3
-1.255, 4.979e-3
-1.256, 4.982e-3
-1.257, 4.979e-3
-1.258, 4.973e-3
-1.259, 4.967e-3
-1.260, 4.964e-3
-1.261, 4.961e-3
-1.262, 4.961e-3
-1.263, 4.964e-3
-1.264, 4.967e-3
-1.265, 4.970e-3
-1.266, 4.973e-3
-1.267, 4.970e-3
-1.268, 4.964e-3
-1.269, 4.958e-3
-1.270, 4.952e-3
-1.271, 4.945e-3
-1.272, 4.939e-3
-1.273, 4.936e-3
-1.274, 4.936e-3
-1.275, 4.933e-3
-1.276, 4.930e-3
-1.277, 4.924e-3
-1.278, 4.918e-3
-1.279, 4.908e-3
-1.280, 4.902e-3
-1.281, 4.896e-3
-1.282, 4.890e-3
-1.283, 4.884e-3
-1.284, 4.884e-3
-1.285, 4.881e-3
-1.286, 4.875e-3
-1.287, 4.868e-3
-1.288, 4.859e-3
-1.289, 4.853e-3
-1.290, 4.844e-3
-1.291, 4.838e-3
-1.292, 4.834e-3
-1.293, 4.834e-3
-1.294, 4.834e-3
-1.295, 4.834e-3
-1.296, 4.828e-3
-1.297, 4.822e-3
-1.298, 4.813e-3
-1.299, 4.807e-3
-1.300, 4.801e-3
-1.301, 4.791e-3
-1.302, 4.791e-3
-1.303, 4.794e-3
-1.304, 4.794e-3
-1.305, 4.794e-3
-1.306, 4.791e-3
-1.307, 4.785e-3
-1.308, 4.779e-3
-1.309, 4.770e-3
-1.310, 4.764e-3
-1.311, 4.754e-3
-1.312, 4.748e-3
-1.313, 4.748e-3
-1.314, 4.745e-3
-1.315, 4.742e-3
-1.316, 4.739e-3
-1.317, 4.730e-3
-1.318, 4.723e-3
-1.319, 4.711e-3
-1.320, 4.702e-3
-1.321, 4.693e-3
-1.322, 4.686e-3
-1.323, 4.683e-3
-1.324, 4.680e-3
-1.325, 4.677e-3
-1.326, 4.671e-3
-1.327, 4.668e-3
-1.328, 4.656e-3
-1.329, 4.643e-3
-1.330, 4.631e-3
-1.331, 4.622e-3
-1.332, 4.616e-3
-1.333, 4.609e-3
-1.334, 4.606e-3
-1.335, 4.600e-3
-1.336, 4.591e-3
-1.337, 4.582e-3
-1.338, 4.569e-3
-1.339, 4.557e-3
-1.340, 4.548e-3
-1.341, 4.538e-3
-1.342, 4.532e-3
-1.343, 4.529e-3
-1.344, 4.526e-3
-1.345, 4.526e-3
-1.346, 4.520e-3
-1.347, 4.511e-3
-1.348, 4.501e-3
-1.349, 4.492e-3
-1.350, 4.483e-3
-1.351, 4.474e-3
-1.352, 4.471e-3
-1.353, 4.471e-3
-1.354, 4.471e-3
-1.355, 4.468e-3
-1.356, 4.468e-3
-1.357, 4.461e-3
-1.358, 4.455e-3
-1.359, 4.449e-3
-1.360, 4.440e-3
-1.361, 4.434e-3
-1.362, 4.434e-3
-1.363, 4.431e-3
-1.364, 4.431e-3
-1.365, 4.431e-3
-1.366, 4.428e-3
-1.367, 4.421e-3
-1.368, 4.418e-3
-1.369, 4.409e-3
-1.370, 4.406e-3
-1.371, 4.403e-3
-1.372, 4.403e-3
-1.373, 4.403e-3
-1.374, 4.406e-3
-1.375, 4.409e-3
-1.376, 4.409e-3
-1.377, 4.409e-3
-1.378, 4.403e-3
-1.379, 4.397e-3
-1.380, 4.394e-3
-1.381, 4.391e-3
-1.382, 4.394e-3
-1.383, 4.397e-3
-1.384, 4.400e-3
-1.385, 4.403e-3
-1.386, 4.403e-3
-1.387, 4.403e-3
-1.388, 4.403e-3
-1.389, 4.400e-3
-1.390, 4.400e-3
-1.391, 4.400e-3
-1.392, 4.406e-3
-1.393, 4.412e-3
-1.394, 4.418e-3
-1.395, 4.428e-3
-1.396, 4.431e-3
-1.397, 4.431e-3
-1.398, 4.434e-3
-1.399, 4.434e-3
-1.400, 4.363e-3
-1.399, 4.178e-3
-1.398, 4.017e-3
-1.397, 3.869e-3
-1.396, 3.737e-3
-1.395, 3.610e-3
-1.394, 3.493e-3
-1.393, 3.376e-3
-1.392, 3.265e-3
-1.391, 3.157e-3
-1.390, 3.056e-3
-1.389, 2.960e-3
-1.388, 2.871e-3
-1.387, 2.787e-3
-1.386, 2.707e-3
-1.385, 2.627e-3
-1.384, 2.550e-3
-1.383, 2.473e-3
-1.382, 2.393e-3
-1.381, 2.316e-3
-1.380, 2.242e-3
-1.379, 2.174e-3
-1.378, 2.106e-3
-1.377, 2.044e-3
-1.376, 1.986e-3
-1.375, 1.924e-3
-1.374, 1.865e-3
-1.373, 1.804e-3
-1.372, 1.742e-3
-1.371, 1.680e-3
-1.370, 1.625e-3
-1.369, 1.566e-3
-1.368, 1.514e-3
-1.367, 1.465e-3
-1.366, 1.415e-3
-1.365, 1.369e-3
-1.364, 1.320e-3
-1.363, 1.270e-3
-1.362, 1.218e-3
-1.361, 1.169e-3
-1.360, 1.119e-3
-1.359, 1.070e-3
-1.358, 1.027e-3
-1.357, 9.868e-4
-1.356, 9.498e-4
-1.355, 9.097e-4
-1.354, 8.696e-4
-1.353, 8.233e-4
-1.352, 7.802e-4
-1.351, 7.370e-4
-1.350, 6.969e-4
-1.349, 6.569e-4
-1.348, 6.199e-4
-1.347, 5.859e-4
-1.346, 5.551e-4
-1.345, 5.212e-4
-1.344, 4.873e-4
-1.343, 4.503e-4
-1.342, 4.133e-4
-1.341, 3.732e-4
-1.340, 3.393e-4
-1.339, 3.054e-4
-1.338, 2.746e-4
-1.337, 2.468e-4
-1.336, 2.191e-4
-1.335, 1.913e-4
-1.334, 1.636e-4
-1.333, 1.296e-4
-1.332, 9.882e-5
-1.331, 6.490e-5
-1.330, 3.407e-5
-1.329, 3.239e-6
-1.328, -2.143e-5
-1.327, -4.609e-5
-1.326, -6.767e-5
-1.325, -9.234e-5
-1.324, -1.201e-4
-1.323, -1.448e-4
-1.322, -1.756e-4
-1.321, -2.033e-4
-1.320, -2.311e-4
-1.319, -2.588e-4
-1.318, -2.804e-4
-1.317, -2.989e-4
-1.316, -3.205e-4
-1.315, -3.390e-4
-1.314, -3.606e-4
-1.313, -3.852e-4
-1.312, -4.099e-4
-1.311, -4.346e-4
-1.310, -4.592e-4
-1.309, -4.839e-4
-1.308, -5.024e-4
-1.307, -5.209e-4
-1.306, -5.363e-4
-1.305, -5.548e-4
-1.304, -5.733e-4
-1.303, -5.949e-4
-1.302, -6.165e-4
-1.301, -6.411e-4
-1.300, -6.658e-4
-1.299, -6.843e-4
-1.298, -7.028e-4
-1.297, -7.182e-4
-1.296, -7.305e-4
-1.295, -7.460e-4
-1.294, -7.614e-4
-1.293, -7.799e-4
-1.292, -8.015e-4
-1.291, -8.230e-4
-1.290, -8.415e-4
-1.289, -8.631e-4
-1.288, -8.754e-4
-1.287, -8.878e-4
-1.286, -9.001e-4
-1.285, -9.155e-4
-1.284, -9.279e-4
-1.283, -9.464e-4
-1.282, -9.649e-4
-1.281, -9.864e-4
-1.280, -1.005e-3
-1.279, -1.023e-3
-1.278, -1.036e-3
-1.277, -1.048e-3
-1.276, -1.057e-3
-1.275, -1.070e-3
-1.274, -1.082e-3
-1.273, -1.101e-3
-1.272, -1.116e-3
-1.271, -1.134e-3
-1.270, -1.153e-3
-1.269, -1.168e-3
-1.268, -1.178e-3
-1.267, -1.190e-3
-1.266, -1.199e-3
-1.265, -1.208e-3
-1.264, -1.221e-3
-1.263, -1.236e-3
-1.262, -1.255e-3
-1.261, -1.273e-3
-1.260, -1.292e-3
-1.259, -1.307e-3
-1.258, -1.319e-3
-1.257, -1.329e-3
-1.256, -1.338e-3
-1.255, -1.347e-3
-1.254, -1.359e-3
-1.253, -1.372e-3
-1.252, -1.387e-3
-1.251, -1.403e-3
-1.250, -1.418e-3
-1.249, -1.430e-3
-1.248, -1.440e-3
-1.247, -1.452e-3
-1.246, -1.458e-3
-1.245, -1.467e-3
-1.244, -1.477e-3
-1.243, -1.489e-3
-1.242, -1.501e-3
-1.241, -1.520e-3
-1.240, -1.532e-3
-1.239, -1.544e-3
-1.238, -1.551e-3
-1.237, -1.560e-3
-1.236, -1.566e-3
-1.235, -1.572e-3
-1.234, -1.581e-3
-1.233, -1.594e-3
-1.232, -1.603e-3
-1.231, -1.622e-3
-1.230, -1.631e-3
-1.229, -1.643e-3
-1.228, -1.652e-3
-1.227, -1.659e-3
-1.226, -1.662e-3
-1.225, -1.671e-3
-1.224, -1.677e-3
-1.223, -1.689e-3
-1.222, -1.702e-3
-1.221, -1.717e-3
-1.220, -1.729e-3
-1.219, -1.739e-3
-1.218, -1.748e-3
-1.217, -1.754e-3
-1.216, -1.757e-3
-1.215, -1.766e-3
-1.214, -1.773e-3
-1.213, -1.785e-3
-1.212, -1.800e-3
-1.211, -1.816e-3
-1.210, -1.828e-3
-1.209, -1.844e-3
-1.208, -1.853e-3
-1.207, -1.862e-3
-1.206, -1.865e-3
-1.205, -1.874e-3
-1.204, -1.884e-3
-1.203, -1.893e-3
-1.202, -1.908e-3
-1.201, -1.924e-3
-1.200, -1.936e-3
-1.199, -1.948e-3
-1.198, -1.958e-3
-1.197, -1.964e-3
-1.196, -1.973e-3
-1.195, -1.979e-3
-1.194, -1.988e-3
-1.193, -2.001e-3
-1.192, -2.013e-3
-1.191, -2.029e-3
-1.190, -2.041e-3
-1.189, -2.053e-3
-1.188, -2.062e-3
-1.187, -2.072e-3
-1.186, -2.078e-3
-1.185, -2.087e-3
-1.184, -2.096e-3
-1.183, -2.106e-3
-1.182, -2.121e-3
-1.181, -2.136e-3
-1.180, -2.149e-3
-1.179, -2.158e-3
-1.178, -2.167e-3
-1.177, -2.177e-3
-1.176, -2.183e-3
-1.175, -2.189e-3
-1.174, -2.201e-3
-1.173, -2.210e-3
-1.172, -2.226e-3
-1.171, -2.238e-3
-1.170, -2.251e-3
-1.169, -2.263e-3
-1.168, -2.269e-3
-1.167, -2.278e-3
-1.166, -2.284e-3
-1.165, -2.294e-3
-1.164, -2.306e-3
-1.163, -2.325e-3
-1.162, -2.343e-3
-1.161, -2.362e-3
-1.160, -2.371e-3
-1.159, -2.383e-3
-1.158, -2.386e-3
-1.157, -2.389e-3
-1.156, -2.389e-3
-1.155, -2.395e-3
-1.154, -2.408e-3
-1.153, -2.426e-3
-1.152, -2.445e-3
-1.151, -2.466e-3
-1.150, -2.482e-3
-1.149, -2.494e-3
-1.148, -2.503e-3
-1.147, -2.506e-3
-1.146, -2.513e-3
-1.145, -2.516e-3
-1.144, -2.519e-3
-1.143, -2.531e-3
-1.142, -2.546e-3
-1.141, -2.565e-3
-1.140, -2.580e-3
-1.139, -2.596e-3
-1.138, -2.605e-3
-1.137, -2.614e-3
-1.136, -2.617e-3
-1.135, -2.624e-3
-1.134, -2.630e-3
-1.133, -2.639e-3
-1.132, -2.648e-3
-1.131, -2.661e-3
-1.130, -2.673e-3
-1.129, -2.685e-3
-1.128, -2.694e-3
-1.127, -2.704e-3
-1.126, -2.710e-3
-1.125, -2.716e-3
-1.124, -2.728e-3
-1.123, -2.738e-3
-1.122, -2.753e-3
-1.121, -2.768e-3
-1.120, -2.784e-3
-1.119, -2.799e-3
-1.118, -2.812e-3
-1.117, -2.821e-3
-1.116, -2.830e-3
-1.115, -2.842e-3
-1.114, -2.852e-3
-1.113, -2.864e-3
-1.112, -2.879e-3
-1.111, -2.895e-3
-1.110, -2.910e-3
-1.109, -2.923e-3
-1.108, -2.935e-3
-1.107, -2.947e-3
-1.106, -2.953e-3
-1.105, -2.969e-3
-1.104, -2.981e-3
-1.103, -2.997e-3
-1.102, -3.015e-3
-1.101, -3.034e-3
-1.100, -3.049e-3
-1.099, -3.064e-3
-1.098, -3.074e-3
-1.097, -3.083e-3
-1.096, -3.089e-3
-1.095, -3.101e-3
-1.094, -3.111e-3
-1.093, -3.126e-3
-1.092, -3.145e-3
-1.091, -3.163e-3
-1.090, -3.182e-3
-1.089, -3.197e-3
-1.088, -3.209e-3
-1.087, -3.222e-3
-1.086, -3.231e-3
-1.085, -3.243e-3
-1.084, -3.256e-3
-1.083, -3.268e-3
-1.082, -3.286e-3
-1.081, -3.305e-3
-1.080, -3.317e-3
-1.079, -3.336e-3
-1.078, -3.348e-3
-1.077, -3.360e-3
-1.076, -3.373e-3
-1.075, -3.382e-3
-1.074, -3.397e-3
-1.073, -3.413e-3
-1.072, -3.428e-3
-1.071, -3.447e-3
-1.070, -3.465e-3
-1.069, -3.478e-3
-1.068, -3.490e-3
-1.067, -3.502e-3
-1.066, -3.512e-3
-1.065, -3.527e-3
-1.064, -3.539e-3
-1.063, -3.558e-3
-1.062, -3.576e-3
-1.061, -3.598e-3
-1.060, -3.616e-3
-1.059, -3.632e-3
-1.058, -3.647e-3
-1.057, -3.659e-3
-1.056, -3.672e-3
-1.055, -3.684e-3
-1.054, -3.700e-3
-1.053, -3.715e-3
-1.052, -3.733e-3
-1.051, -3.755e-3
-1.050, -3.774e-3
-1.049, -3.792e-3
-1.048, -3.807e-3
-1.047, -3.820e-3
-1.046, -3.832e-3
-1.045, -3.844e-3
-1.044, -3.860e-3
-1.043, -3.878e-3
-1.042, -3.897e-3
-1.041, -3.918e-3
-1.040, -3.937e-3
-1.039, -3.955e-3
-1.038, -3.971e-3
-1.037, -3.983e-3
-1.036, -3.996e-3
-1.035, -4.011e-3
-1.034, -4.023e-3
-1.033, -4.042e-3
-1.032, -4.060e-3
-1.031, -4.082e-3
-1.030, -4.100e-3
-1.029, -4.116e-3
-1.028, -4.131e-3
-1.027, -4.144e-3
-1.026, -4.156e-3
-1.025, -4.171e-3
-1.024, -4.184e-3
-1.023, -4.202e-3
-1.022, -4.221e-3
-1.021, -4.239e-3
-1.020, -4.258e-3
-1.019, -4.273e-3
-1.018, -4.288e-3
-1.017, -4.301e-3
-1.016, -4.310e-3
-1.015, -4.322e-3
-1.014, -4.338e-3
-1.013, -4.353e-3
-1.012, -4.372e-3
-1.011, -4.390e-3
-1.010, -4.409e-3
-1.009, -4.424e-3
-1.008, -4.436e-3
-1.007, -4.446e-3
-1.006, -4.458e-3
-1.005, -4.470e-3
-1.004, -4.483e-3
-1.003, -4.498e-3
-1.002, -4.514e-3
-1.001, -4.535e-3
