Aug. 16, 2024   02:07:49
Cyclic Voltammetry
File: c:/users/guazh/data/20240813_batch_94_500/2024-08-15-exp100\exp100-2024-08-16t01_59_05-arkoh\exp100_cv_50mvs_efin_-1600mv.bin
Data Source:  Experiment
Instrument Model:  CHI760E
Header: CV ran at 50 mVs
Note: 

Init E (V) = -1
High E (V) = -1
Low E (V) = -1.6
Final E (V) = -1
Init P/N = N
Scan Rate (V/s) = 0.05
Segment = 7
Sample Interval (V) = 0.001
Quiet Time (sec) = 60
Sensitivity (A/V) = 0.001
Comp R (ohm) = 1.9

Results:

Channel 1:
Segment 1:

Segment 2:

Segment 3:

Segment 4:

Segment 5:

Segment 6:

Segment 7:

Potential/V, Current/A

-1.000, 6.815e-7
-1.001, 7.812e-7
-1.002, 8.216e-7
-1.003, 8.098e-7
-1.004, 8.611e-7
-1.005, 8.660e-7
-1.006, 8.877e-7
-1.007, 9.292e-7
-1.008, 9.025e-7
-1.009, 9.430e-7
-1.010, 9.321e-7
-1.011, 9.637e-7
-1.012, 9.992e-7
-1.013, 9.548e-7
-1.014, 9.923e-7
-1.015, 1.023e-6
-1.016, 9.825e-7
-1.017, 1.021e-6
-1.018, 1.058e-6
-1.019, 1.023e-6
-1.020, 1.061e-6
-1.021, 1.030e-6
-1.022, 1.070e-6
-1.023, 1.077e-6
-1.024, 1.069e-6
-1.025, 1.104e-6
-1.026, 1.089e-6
-1.027, 1.104e-6
-1.028, 1.104e-6
-1.029, 1.116e-6
-1.030, 1.127e-6
-1.031, 1.152e-6
-1.032, 1.141e-6
-1.033, 1.152e-6
-1.034, 1.139e-6
-1.035, 1.170e-6
-1.036, 1.158e-6
-1.037, 1.154e-6
-1.038, 1.186e-6
-1.039, 1.163e-6
-1.040, 1.169e-6
-1.041, 1.206e-6
-1.042, 1.207e-6
-1.043, 1.219e-6
-1.044, 1.214e-6
-1.045, 1.241e-6
-1.046, 1.224e-6
-1.047, 1.197e-6
-1.048, 1.240e-6
-1.049, 1.236e-6
-1.050, 1.246e-6
-1.051, 1.260e-6
-1.052, 1.254e-6
-1.053, 1.270e-6
-1.054, 1.267e-6
-1.055, 1.292e-6
-1.056, 1.295e-6
-1.057, 1.246e-6
-1.058, 1.313e-6
-1.059, 1.307e-6
-1.060, 1.293e-6
-1.061, 1.310e-6
-1.062, 1.304e-6
-1.063, 1.342e-6
-1.064, 1.329e-6
-1.065, 1.333e-6
-1.066, 1.364e-6
-1.067, 1.308e-6
-1.068, 1.337e-6
-1.069, 1.371e-6
-1.070, 1.360e-6
-1.071, 1.364e-6
-1.072, 1.357e-6
-1.073, 1.392e-6
-1.074, 1.386e-6
-1.075, 1.369e-6
-1.076, 1.424e-6
-1.077, 1.388e-6
-1.078, 1.396e-6
-1.079, 1.440e-6
-1.080, 1.403e-6
-1.081, 1.421e-6
-1.082, 1.420e-6
-1.083, 1.444e-6
-1.084, 1.447e-6
-1.085, 1.421e-6
-1.086, 1.444e-6
-1.087, 1.454e-6
-1.088, 1.460e-6
-1.089, 1.484e-6
-1.090, 1.463e-6
-1.091, 1.507e-6
-1.092, 1.497e-6
-1.093, 1.466e-6
-1.094, 1.531e-6
-1.095, 1.494e-6
-1.096, 1.507e-6
-1.097, 1.528e-6
-1.098, 1.509e-6
-1.099, 1.541e-6
-1.100, 1.533e-6
-1.101, 1.543e-6
-1.102, 1.569e-6
-1.103, 1.545e-6
-1.104, 1.597e-6
-1.105, 1.575e-6
-1.106, 1.579e-6
-1.107, 1.598e-6
-1.108, 1.579e-6
-1.109, 1.600e-6
-1.110, 1.621e-6
-1.111, 1.610e-6
-1.112, 1.621e-6
-1.113, 1.623e-6
-1.114, 1.620e-6
-1.115, 1.622e-6
-1.116, 1.628e-6
-1.117, 1.677e-6
-1.118, 1.650e-6
-1.119, 1.655e-6
-1.120, 1.684e-6
-1.121, 1.663e-6
-1.122, 1.680e-6
-1.123, 1.705e-6
-1.124, 1.716e-6
-1.125, 1.714e-6
-1.126, 1.697e-6
-1.127, 1.731e-6
-1.128, 1.725e-6
-1.129, 1.700e-6
-1.130, 1.769e-6
-1.131, 1.756e-6
-1.132, 1.740e-6
-1.133, 1.767e-6
-1.134, 1.768e-6
-1.135, 1.785e-6
-1.136, 1.785e-6
-1.137, 1.788e-6
-1.138, 1.799e-6
-1.139, 1.790e-6
-1.140, 1.832e-6
-1.141, 1.812e-6
-1.142, 1.806e-6
-1.143, 1.849e-6
-1.144, 1.856e-6
-1.145, 1.847e-6
-1.146, 1.854e-6
-1.147, 1.845e-6
-1.148, 1.903e-6
-1.149, 1.873e-6
-1.150, 1.862e-6
-1.151, 1.922e-6
-1.152, 1.896e-6
-1.153, 1.898e-6
-1.154, 1.970e-6
-1.155, 1.905e-6
-1.156, 1.927e-6
-1.157, 1.945e-6
-1.158, 1.945e-6
-1.159, 1.972e-6
-1.160, 1.940e-6
-1.161, 2.000e-6
-1.162, 1.982e-6
-1.163, 1.970e-6
-1.164, 2.013e-6
-1.165, 1.999e-6
-1.166, 2.006e-6
-1.167, 2.033e-6
-1.168, 1.992e-6
-1.169, 2.031e-6
-1.170, 2.027e-6
-1.171, 2.023e-6
-1.172, 2.066e-6
-1.173, 2.031e-6
-1.174, 2.048e-6
-1.175, 2.099e-6
-1.176, 2.077e-6
-1.177, 2.108e-6
-1.178, 2.089e-6
-1.179, 2.118e-6
-1.180, 2.120e-6
-1.181, 2.105e-6
-1.182, 2.147e-6
-1.183, 2.135e-6
-1.184, 2.138e-6
-1.185, 2.160e-6
-1.186, 2.155e-6
-1.187, 2.172e-6
-1.188, 2.219e-6
-1.189, 2.166e-6
-1.190, 2.206e-6
-1.191, 2.209e-6
-1.192, 2.219e-6
-1.193, 2.235e-6
-1.194, 2.229e-6
-1.195, 2.264e-6
-1.196, 2.235e-6
-1.197, 2.246e-6
-1.198, 2.286e-6
-1.199, 2.268e-6
-1.200, 2.283e-6
-1.201, 2.301e-6
-1.202, 2.289e-6
-1.203, 2.317e-6
-1.204, 2.328e-6
-1.205, 2.357e-6
-1.206, 2.348e-6
-1.207, 2.317e-6
-1.208, 2.380e-6
-1.209, 2.378e-6
-1.210, 2.381e-6
-1.211, 2.407e-6
-1.212, 2.364e-6
-1.213, 2.407e-6
-1.214, 2.412e-6
-1.215, 2.439e-6
-1.216, 2.437e-6
-1.217, 2.427e-6
-1.218, 2.457e-6
-1.219, 2.463e-6
-1.220, 2.462e-6
-1.221, 2.503e-6
-1.222, 2.479e-6
-1.223, 2.511e-6
-1.224, 2.512e-6
-1.225, 2.526e-6
-1.226, 2.548e-6
-1.227, 2.524e-6
-1.228, 2.543e-6
-1.229, 2.600e-6
-1.230, 2.579e-6
-1.231, 2.594e-6
-1.232, 2.605e-6
-1.233, 2.618e-6
-1.234, 2.633e-6
-1.235, 2.608e-6
-1.236, 2.655e-6
-1.237, 2.665e-6
-1.238, 2.646e-6
-1.239, 2.699e-6
-1.240, 2.678e-6
-1.241, 2.697e-6
-1.242, 2.709e-6
-1.243, 2.705e-6
-1.244, 2.743e-6
-1.245, 2.734e-6
-1.246, 2.761e-6
-1.247, 2.764e-6
-1.248, 2.746e-6
-1.249, 2.798e-6
-1.250, 2.785e-6
-1.251, 2.788e-6
-1.252, 2.817e-6
-1.253, 2.792e-6
-1.254, 2.853e-6
-1.255, 2.838e-6
-1.256, 2.864e-6
-1.257, 2.886e-6
-1.258, 2.854e-6
-1.259, 2.897e-6
-1.260, 2.913e-6
-1.261, 2.914e-6
-1.262, 2.926e-6
-1.263, 2.937e-6
-1.264, 2.932e-6
-1.265, 2.950e-6
-1.266, 2.946e-6
-1.267, 2.981e-6
-1.268, 2.971e-6
-1.269, 3.023e-6
-1.270, 3.018e-6
-1.271, 3.010e-6
-1.272, 3.022e-6
-1.273, 3.040e-6
-1.274, 3.019e-6
-1.275, 3.058e-6
-1.276, 3.076e-6
-1.277, 3.095e-6
-1.278, 3.126e-6
-1.279, 3.102e-6
-1.280, 3.127e-6
-1.281, 3.119e-6
-1.282, 3.122e-6
-1.283, 3.151e-6
-1.284, 3.159e-6
-1.285, 3.159e-6
-1.286, 3.192e-6
-1.287, 3.191e-6
-1.288, 3.185e-6
-1.289, 3.225e-6
-1.290, 3.190e-6
-1.291, 3.251e-6
-1.292, 3.203e-6
-1.293, 3.243e-6
-1.294, 3.255e-6
-1.295, 3.243e-6
-1.296, 3.295e-6
-1.297, 3.273e-6
-1.298, 3.292e-6
-1.299, 3.294e-6
-1.300, 3.295e-6
-1.301, 3.327e-6
-1.302, 3.308e-6
-1.303, 3.333e-6
-1.304, 3.370e-6
-1.305, 3.337e-6
-1.306, 3.360e-6
-1.307, 3.378e-6
-1.308, 3.396e-6
-1.309, 3.438e-6
-1.310, 3.412e-6
-1.311, 3.448e-6
-1.312, 3.433e-6
-1.313, 3.423e-6
-1.314, 3.485e-6
-1.315, 3.475e-6
-1.316, 3.491e-6
-1.317, 3.522e-6
-1.318, 3.506e-6
-1.319, 3.556e-6
-1.320, 3.528e-6
-1.321, 3.560e-6
-1.322, 3.573e-6
-1.323, 3.553e-6
-1.324, 3.629e-6
-1.325, 3.608e-6
-1.326, 3.602e-6
-1.327, 3.658e-6
-1.328, 3.626e-6
-1.329, 3.682e-6
-1.330, 3.694e-6
-1.331, 3.722e-6
-1.332, 3.748e-6
-1.333, 3.738e-6
-1.334, 3.775e-6
-1.335, 3.802e-6
-1.336, 3.790e-6
-1.337, 3.848e-6
-1.338, 3.868e-6
-1.339, 3.847e-6
-1.340, 3.894e-6
-1.341, 3.906e-6
-1.342, 3.929e-6
-1.343, 3.947e-6
-1.344, 3.962e-6
-1.345, 3.996e-6
-1.346, 4.002e-6
-1.347, 4.024e-6
-1.348, 4.049e-6
-1.349, 4.047e-6
-1.350, 4.084e-6
-1.351, 4.106e-6
-1.352, 4.126e-6
-1.353, 4.165e-6
-1.354, 4.164e-6
-1.355, 4.221e-6
-1.356, 4.228e-6
-1.357, 4.244e-6
-1.358, 4.289e-6
-1.359, 4.281e-6
-1.360, 4.308e-6
-1.361, 4.327e-6
-1.362, 4.319e-6
-1.363, 4.379e-6
-1.364, 4.400e-6
-1.365, 4.424e-6
-1.366, 4.448e-6
-1.367, 4.431e-6
-1.368, 4.496e-6
-1.369, 4.535e-6
-1.370, 4.546e-6
-1.371, 4.592e-6
-1.372, 4.592e-6
-1.373, 4.642e-6
-1.374, 4.691e-6
-1.375, 4.675e-6
-1.376, 4.751e-6
-1.377, 4.763e-6
-1.378, 4.790e-6
-1.379, 4.863e-6
-1.380, 4.892e-6
-1.381, 4.922e-6
-1.382, 4.956e-6
-1.383, 4.924e-6
-1.384, 5.026e-6
-1.385, 5.025e-6
-1.386, 5.079e-6
-1.387, 5.089e-6
-1.388, 5.100e-6
-1.389, 5.150e-6
-1.390, 5.159e-6
-1.391, 5.198e-6
-1.392, 5.246e-6
-1.393, 5.241e-6
-1.394, 5.295e-6
-1.395, 5.365e-6
-1.396, 5.385e-6
-1.397, 5.454e-6
-1.398, 5.438e-6
-1.399, 5.519e-6
-1.400, 5.612e-6
-1.401, 5.611e-6
-1.402, 5.704e-6
-1.403, 5.693e-6
-1.404, 5.698e-6
-1.405, 5.784e-6
-1.406, 5.806e-6
-1.407, 5.837e-6
-1.408, 5.890e-6
-1.409, 5.943e-6
-1.410, 6.011e-6
-1.411, 6.021e-6
-1.412, 6.076e-6
-1.413, 6.161e-6
-1.414, 6.151e-6
-1.415, 6.250e-6
-1.416, 6.285e-6
-1.417, 6.319e-6
-1.418, 6.381e-6
-1.419, 6.449e-6
-1.420, 6.520e-6
-1.421, 6.583e-6
-1.422, 6.620e-6
-1.423, 6.690e-6
-1.424, 6.729e-6
-1.425, 6.772e-6
-1.426, 6.867e-6
-1.427, 6.900e-6
-1.428, 6.986e-6
-1.429, 7.028e-6
-1.430, 7.077e-6
-1.431, 7.134e-6
-1.432, 7.214e-6
-1.433, 7.308e-6
-1.434, 7.343e-6
-1.435, 7.366e-6
-1.436, 7.503e-6
-1.437, 7.564e-6
-1.438, 7.622e-6
-1.439, 7.697e-6
-1.440, 7.729e-6
-1.441, 7.826e-6
-1.442, 7.861e-6
-1.443, 7.971e-6
-1.444, 8.067e-6
-1.445, 8.144e-6
-1.446, 8.262e-6
-1.447, 8.347e-6
-1.448, 8.397e-6
-1.449, 8.470e-6
-1.450, 8.574e-6
-1.451, 8.628e-6
-1.452, 8.738e-6
-1.453, 8.781e-6
-1.454, 8.873e-6
-1.455, 8.962e-6
-1.456, 9.043e-6
-1.457, 9.168e-6
-1.458, 9.238e-6
-1.459, 9.328e-6
-1.460, 9.434e-6
-1.461, 9.491e-6
-1.462, 9.625e-6
-1.463, 9.672e-6
-1.464, 9.787e-6
-1.465, 9.911e-6
-1.466, 1.005e-5
-1.467, 1.015e-5
-1.468, 1.024e-5
-1.469, 1.032e-5
-1.470, 1.043e-5
-1.471, 1.051e-5
-1.472, 1.061e-5
-1.473, 1.070e-5
-1.474, 1.081e-5
-1.475, 1.096e-5
-1.476, 1.109e-5
-1.477, 1.117e-5
-1.478, 1.121e-5
-1.479, 1.138e-5
-1.480, 1.150e-5
-1.481, 1.161e-5
-1.482, 1.174e-5
-1.483, 1.190e-5
-1.484, 1.205e-5
-1.485, 1.217e-5
-1.486, 1.229e-5
-1.487, 1.242e-5
-1.488, 1.254e-5
-1.489, 1.265e-5
-1.490, 1.280e-5
-1.491, 1.301e-5
-1.492, 1.318e-5
-1.493, 1.327e-5
-1.494, 1.342e-5
-1.495, 1.352e-5
-1.496, 1.369e-5
-1.497, 1.385e-5
-1.498, 1.401e-5
-1.499, 1.416e-5
-1.500, 1.437e-5
-1.501, 1.455e-5
-1.502, 1.475e-5
-1.503, 1.491e-5
-1.504, 1.508e-5
-1.505, 1.525e-5
-1.506, 1.546e-5
-1.507, 1.566e-5
-1.508, 1.578e-5
-1.509, 1.598e-5
-1.510, 1.616e-5
-1.511, 1.638e-5
-1.512, 1.665e-5
-1.513, 1.675e-5
-1.514, 1.701e-5
-1.515, 1.730e-5
-1.516, 1.751e-5
-1.517, 1.766e-5
-1.518, 1.791e-5
-1.519, 1.814e-5
-1.520, 1.838e-5
-1.521, 1.862e-5
-1.522, 1.889e-5
-1.523, 1.916e-5
-1.524, 1.937e-5
-1.525, 1.981e-5
-1.526, 1.989e-5
-1.527, 2.014e-5
-1.528, 2.041e-5
-1.529, 2.061e-5
-1.530, 2.082e-5
-1.531, 2.113e-5
-1.532, 2.141e-5
-1.533, 2.170e-5
-1.534, 2.198e-5
-1.535, 2.224e-5
-1.536, 2.269e-5
-1.537, 2.282e-5
-1.538, 2.342e-5
-1.539, 2.356e-5
-1.540, 2.375e-5
-1.541, 2.410e-5
-1.542, 2.438e-5
-1.543, 2.461e-5
-1.544, 2.500e-5
-1.545, 2.523e-5
-1.546, 2.560e-5
-1.547, 2.583e-5
-1.548, 2.614e-5
-1.549, 2.643e-5
-1.550, 2.680e-5
-1.551, 2.723e-5
-1.552, 2.792e-5
-1.553, 2.821e-5
-1.554, 2.847e-5
-1.555, 2.878e-5
-1.556, 2.924e-5
-1.557, 2.961e-5
-1.558, 2.981e-5
-1.559, 3.024e-5
-1.560, 3.059e-5
-1.561, 3.099e-5
-1.562, 3.140e-5
-1.563, 3.170e-5
-1.564, 3.212e-5
-1.565, 3.254e-5
-1.566, 3.296e-5
-1.567, 3.338e-5
-1.568, 3.378e-5
-1.569, 3.418e-5
-1.570, 3.456e-5
-1.571, 3.504e-5
-1.572, 3.553e-5
-1.573, 3.601e-5
-1.574, 3.651e-5
-1.575, 3.699e-5
-1.576, 3.752e-5
-1.577, 3.797e-5
-1.578, 3.854e-5
-1.579, 3.906e-5
-1.580, 3.965e-5
-1.581, 4.020e-5
-1.582, 4.123e-5
-1.583, 4.139e-5
-1.584, 4.196e-5
-1.585, 4.257e-5
-1.586, 4.317e-5
-1.587, 4.406e-5
-1.588, 4.488e-5
-1.589, 4.549e-5
-1.590, 4.649e-5
-1.591, 4.760e-5
-1.592, 4.822e-5
-1.593, 4.784e-5
-1.594, 4.842e-5
-1.595, 4.896e-5
-1.596, 4.970e-5
-1.597, 5.028e-5
-1.598, 5.130e-5
-1.599, 5.223e-5
-1.600, 5.161e-5
-1.599, 5.173e-5
-1.598, 5.176e-5
-1.597, 5.058e-5
-1.596, 5.038e-5
-1.595, 4.987e-5
-1.594, 4.920e-5
-1.593, 4.858e-5
-1.592, 4.838e-5
-1.591, 4.776e-5
-1.590, 4.707e-5
-1.589, 4.673e-5
-1.588, 4.630e-5
-1.587, 4.579e-5
-1.586, 4.414e-5
-1.585, 4.356e-5
-1.584, 4.322e-5
-1.583, 4.271e-5
-1.582, 4.214e-5
-1.581, 4.193e-5
-1.580, 4.166e-5
-1.579, 4.091e-5
-1.578, 4.063e-5
-1.577, 4.054e-5
-1.576, 3.991e-5
-1.575, 3.941e-5
-1.574, 3.902e-5
-1.573, 3.862e-5
-1.572, 3.796e-5
-1.571, 3.751e-5
-1.570, 3.712e-5
-1.569, 3.664e-5
-1.568, 3.607e-5
-1.567, 3.561e-5
-1.566, 3.510e-5
-1.565, 3.468e-5
-1.564, 3.436e-5
-1.563, 3.403e-5
-1.562, 3.362e-5
-1.561, 3.333e-5
-1.560, 3.287e-5
-1.559, 3.250e-5
-1.558, 3.203e-5
-1.557, 3.169e-5
-1.556, 3.130e-5
-1.555, 3.085e-5
-1.554, 3.046e-5
-1.553, 3.014e-5
-1.552, 2.975e-5
-1.551, 2.930e-5
-1.550, 2.890e-5
-1.549, 2.872e-5
-1.548, 2.806e-5
-1.547, 2.775e-5
-1.546, 2.741e-5
-1.545, 2.707e-5
-1.544, 2.677e-5
-1.543, 2.644e-5
-1.542, 2.614e-5
-1.541, 2.576e-5
-1.540, 2.533e-5
-1.539, 2.491e-5
-1.538, 2.447e-5
-1.537, 2.424e-5
-1.536, 2.403e-5
-1.535, 2.380e-5
-1.534, 2.354e-5
-1.533, 2.314e-5
-1.532, 2.293e-5
-1.531, 2.277e-5
-1.530, 2.245e-5
-1.529, 2.232e-5
-1.528, 2.200e-5
-1.527, 2.183e-5
-1.526, 2.158e-5
-1.525, 2.134e-5
-1.524, 2.068e-5
-1.523, 2.016e-5
-1.522, 1.999e-5
-1.521, 1.973e-5
-1.520, 1.953e-5
-1.519, 1.928e-5
-1.518, 1.896e-5
-1.517, 1.872e-5
-1.516, 1.858e-5
-1.515, 1.834e-5
-1.514, 1.832e-5
-1.513, 1.812e-5
-1.512, 1.778e-5
-1.511, 1.768e-5
-1.510, 1.738e-5
-1.509, 1.733e-5
-1.508, 1.703e-5
-1.507, 1.643e-5
-1.506, 1.598e-5
-1.505, 1.581e-5
-1.504, 1.561e-5
-1.503, 1.544e-5
-1.502, 1.542e-5
-1.501, 1.508e-5
-1.500, 1.481e-5
-1.499, 1.459e-5
-1.498, 1.453e-5
-1.497, 1.433e-5
-1.496, 1.412e-5
-1.495, 1.393e-5
-1.494, 1.379e-5
-1.493, 1.366e-5
-1.492, 1.349e-5
-1.491, 1.334e-5
-1.490, 1.314e-5
-1.489, 1.299e-5
-1.488, 1.283e-5
-1.487, 1.266e-5
-1.486, 1.261e-5
-1.485, 1.245e-5
-1.484, 1.222e-5
-1.483, 1.208e-5
-1.482, 1.196e-5
-1.481, 1.182e-5
-1.480, 1.155e-5
-1.479, 1.147e-5
-1.478, 1.131e-5
-1.477, 1.114e-5
-1.476, 1.101e-5
-1.475, 1.086e-5
-1.474, 1.065e-5
-1.473, 1.053e-5
-1.472, 1.035e-5
-1.471, 1.025e-5
-1.470, 1.006e-5
-1.469, 9.842e-6
-1.468, 9.711e-6
-1.467, 9.583e-6
-1.466, 9.428e-6
-1.465, 9.322e-6
-1.464, 9.183e-6
-1.463, 9.089e-6
-1.462, 8.951e-6
-1.461, 8.861e-6
-1.460, 8.717e-6
-1.459, 8.597e-6
-1.458, 8.516e-6
-1.457, 8.355e-6
-1.456, 8.230e-6
-1.455, 8.150e-6
-1.454, 8.046e-6
-1.453, 7.971e-6
-1.452, 7.859e-6
-1.451, 7.772e-6
-1.450, 7.681e-6
-1.449, 7.567e-6
-1.448, 7.489e-6
-1.447, 7.401e-6
-1.446, 7.247e-6
-1.445, 7.204e-6
-1.444, 7.093e-6
-1.443, 7.011e-6
-1.442, 6.895e-6
-1.441, 6.813e-6
-1.440, 6.718e-6
-1.439, 6.603e-6
-1.438, 6.548e-6
-1.437, 6.492e-6
-1.436, 6.346e-6
-1.435, 6.259e-6
-1.434, 6.132e-6
-1.433, 6.057e-6
-1.432, 5.970e-6
-1.431, 5.882e-6
-1.430, 5.824e-6
-1.429, 5.715e-6
-1.428, 5.673e-6
-1.427, 5.601e-6
-1.426, 5.509e-6
-1.425, 5.467e-6
-1.424, 5.343e-6
-1.423, 5.316e-6
-1.422, 5.231e-6
-1.421, 5.108e-6
-1.420, 5.046e-6
-1.419, 4.989e-6
-1.418, 4.910e-6
-1.417, 4.865e-6
-1.416, 4.792e-6
-1.415, 4.720e-6
-1.414, 4.623e-6
-1.413, 4.615e-6
-1.412, 4.518e-6
-1.411, 4.400e-6
-1.410, 4.404e-6
-1.409, 4.297e-6
-1.408, 4.216e-6
-1.407, 4.217e-6
-1.406, 4.129e-6
-1.405, 4.083e-6
-1.404, 4.015e-6
-1.403, 3.985e-6
-1.402, 3.996e-6
-1.401, 3.883e-6
-1.400, 3.863e-6
-1.399, 3.881e-6
-1.398, 4.001e-6
-1.397, 3.933e-6
-1.396, 3.853e-6
-1.395, 3.809e-6
-1.394, 3.729e-6
-1.393, 3.700e-6
-1.392, 3.697e-6
-1.391, 3.597e-6
-1.390, 3.565e-6
-1.389, 3.502e-6
-1.388, 3.441e-6
-1.387, 3.388e-6
-1.386, 3.310e-6
-1.385, 3.319e-6
-1.384, 3.257e-6
-1.383, 3.198e-6
-1.382, 3.165e-6
-1.381, 3.106e-6
-1.380, 3.065e-6
-1.379, 3.009e-6
-1.378, 2.965e-6
-1.377, 2.891e-6
-1.376, 2.875e-6
-1.375, 2.823e-6
-1.374, 2.785e-6
-1.373, 2.755e-6
-1.372, 2.693e-6
-1.371, 2.660e-6
-1.370, 2.570e-6
-1.369, 2.569e-6
-1.368, 2.499e-6
-1.367, 2.450e-6
-1.366, 2.445e-6
-1.365, 2.404e-6
-1.364, 2.360e-6
-1.363, 2.348e-6
-1.362, 2.307e-6
-1.361, 2.249e-6
-1.360, 2.161e-6
-1.359, 2.204e-6
-1.358, 2.166e-6
-1.357, 2.121e-6
-1.356, 2.082e-6
-1.355, 2.052e-6
-1.354, 2.001e-6
-1.353, 1.932e-6
-1.352, 1.967e-6
-1.351, 1.923e-6
-1.350, 1.871e-6
-1.349, 1.871e-6
-1.348, 1.795e-6
-1.347, 1.762e-6
-1.346, 1.749e-6
-1.345, 1.739e-6
-1.344, 1.646e-6
-1.343, 1.575e-6
-1.342, 1.691e-6
-1.341, 1.616e-6
-1.340, 1.575e-6
-1.339, 1.553e-6
-1.338, 1.537e-6
-1.337, 1.460e-6
-1.336, 1.406e-6
-1.335, 1.464e-6
-1.334, 1.401e-6
-1.333, 1.352e-6
-1.332, 1.324e-6
-1.331, 1.345e-6
-1.330, 1.306e-6
-1.329, 1.297e-6
-1.328, 1.331e-6
-1.327, 1.226e-6
-1.326, 1.240e-6
-1.325, 1.200e-6
-1.324, 1.196e-6
-1.323, 1.171e-6
-1.322, 1.121e-6
-1.321, 1.132e-6
-1.320, 1.095e-6
-1.319, 1.104e-6
-1.318, 1.055e-6
-1.317, 1.041e-6
-1.316, 1.035e-6
-1.315, 9.854e-7
-1.314, 1.014e-6
-1.313, 9.677e-7
-1.312, 9.529e-7
-1.311, 9.469e-7
-1.310, 9.331e-7
-1.309, 9.242e-7
-1.308, 8.779e-7
-1.307, 8.927e-7
-1.306, 8.325e-7
-1.305, 7.930e-7
-1.304, 8.108e-7
-1.303, 7.654e-7
-1.302, 7.911e-7
-1.301, 7.644e-7
-1.300, 7.516e-7
-1.299, 7.309e-7
-1.298, 7.230e-7
-1.297, 7.230e-7
-1.296, 7.032e-7
-1.295, 6.934e-7
-1.294, 6.371e-7
-1.293, 6.687e-7
-1.292, 6.223e-7
-1.291, 6.302e-7
-1.290, 6.046e-7
-1.289, 5.789e-7
-1.288, 6.026e-7
-1.287, 5.533e-7
-1.286, 5.878e-7
-1.285, 5.533e-7
-1.284, 5.553e-7
-1.283, 5.503e-7
-1.282, 5.158e-7
-1.281, 5.266e-7
-1.280, 4.911e-7
-1.279, 4.822e-7
-1.278, 4.793e-7
-1.277, 4.872e-7
-1.276, 4.586e-7
-1.275, 4.388e-7
-1.274, 4.526e-7
-1.273, 4.171e-7
-1.272, 4.201e-7
-1.271, 4.073e-7
-1.270, 3.994e-7
-1.269, 3.994e-7
-1.268, 3.747e-7
-1.267, 3.787e-7
-1.266, 3.806e-7
-1.265, 3.836e-7
-1.264, 3.540e-7
-1.263, 3.520e-7
-1.262, 3.570e-7
-1.261, 3.303e-7
-1.260, 3.461e-7
-1.259, 3.007e-7
-1.258, 3.116e-7
-1.257, 3.017e-7
-1.256, 3.076e-7
-1.255, 2.899e-7
-1.254, 2.731e-7
-1.253, 2.968e-7
-1.252, 2.435e-7
-1.251, 2.484e-7
-1.250, 2.514e-7
-1.249, 2.573e-7
-1.248, 2.277e-7
-1.247, 2.109e-7
-1.246, 2.435e-7
-1.245, 2.060e-7
-1.244, 2.366e-7
-1.243, 2.208e-7
-1.242, 1.882e-7
-1.241, 1.942e-7
-1.240, 1.616e-7
-1.239, 2.139e-7
-1.238, 1.567e-7
-1.237, 1.951e-7
-1.236, 1.764e-7
-1.235, 1.794e-7
-1.234, 1.508e-7
-1.233, 1.458e-7
-1.232, 1.744e-7
-1.231, 1.310e-7
-1.230, 1.379e-7
-1.229, 1.044e-7
-1.228, 9.846e-8
-1.227, 1.113e-7
-1.226, 1.014e-7
-1.225, 1.064e-7
-1.224, 8.761e-8
-1.223, 1.083e-7
-1.222, 6.294e-8
-1.221, 8.564e-8
-1.220, 7.281e-8
-1.219, 7.478e-8
-1.218, 7.676e-8
-1.217, 4.025e-8
-1.216, 5.801e-8
-1.215, 4.223e-8
-1.214, 5.111e-8
-1.213, 5.900e-8
-1.212, 3.532e-8
-1.211, 4.815e-8
-1.210, 3.749e-9
-1.209, 3.335e-8
-1.208, 1.559e-8
-1.207, 2.644e-8
-1.206, 1.066e-8
-1.205, -1.598e-8
-1.204, 1.559e-8
-1.203, -1.204e-8
-1.202, 7.893e-10
-1.201, -2.092e-8
-1.200, -2.486e-8
-1.199, -2.782e-8
-1.198, -3.769e-8
-1.197, -1.500e-8
-1.196, -2.881e-8
-1.195, -1.302e-8
-1.194, -4.854e-8
-1.193, -3.374e-8
-1.192, -1.993e-8
-1.191, -6.926e-8
-1.190, -5.051e-8
-1.189, -6.531e-8
-1.188, -3.473e-8
-1.187, -7.518e-8
-1.186, -7.321e-8
-1.185, -4.657e-8
-1.184, -7.912e-8
-1.183, -4.953e-8
-1.182, -7.814e-8
-1.181, -7.419e-8
-1.180, -8.208e-8
-1.179, -6.433e-8
-1.178, -8.603e-8
-1.177, -1.354e-7
-1.176, -7.025e-8
-1.175, -1.137e-7
-1.174, -1.018e-7
-1.173, -9.590e-8
-1.172, -8.998e-8
-1.171, -1.008e-7
-1.170, -1.275e-7
-1.169, -1.087e-7
-1.168, -1.225e-7
-1.167, -1.275e-7
-1.166, -1.087e-7
-1.165, -1.373e-7
-1.164, -1.067e-7
-1.163, -1.472e-7
-1.162, -1.186e-7
-1.161, -1.235e-7
-1.160, -1.304e-7
-1.159, -1.146e-7
-1.158, -1.531e-7
-1.157, -1.423e-7
-1.156, -1.541e-7
-1.155, -1.137e-7
-1.154, -1.571e-7
-1.153, -1.620e-7
-1.152, -1.462e-7
-1.151, -1.531e-7
-1.150, -1.502e-7
-1.149, -1.778e-7
-1.148, -1.531e-7
-1.147, -1.886e-7
-1.146, -1.709e-7
-1.145, -1.551e-7
-1.144, -1.719e-7
-1.143, -1.679e-7
-1.142, -1.965e-7
-1.141, -1.729e-7
-1.140, -2.074e-7
-1.139, -1.936e-7
-1.138, -1.659e-7
-1.137, -2.084e-7
-1.136, -1.659e-7
-1.135, -2.251e-7
-1.134, -1.827e-7
-1.133, -1.965e-7
-1.132, -1.877e-7
-1.131, -2.064e-7
-1.130, -1.936e-7
-1.129, -1.926e-7
-1.128, -2.222e-7
-1.127, -1.946e-7
-1.126, -2.094e-7
-1.125, -2.380e-7
-1.124, -2.034e-7
-1.123, -2.419e-7
-1.122, -2.015e-7
-1.121, -2.399e-7
-1.120, -2.399e-7
-1.119, -2.163e-7
-1.118, -2.390e-7
-1.117, -2.340e-7
-1.116, -2.370e-7
-1.115, -2.350e-7
-1.114, -2.577e-7
-1.113, -2.557e-7
-1.112, -2.370e-7
-1.111, -2.577e-7
-1.110, -2.419e-7
-1.109, -2.478e-7
-1.108, -2.468e-7
-1.107, -2.616e-7
-1.106, -2.616e-7
-1.105, -2.626e-7
-1.104, -2.626e-7
-1.103, -2.607e-7
-1.102, -3.001e-7
-1.101, -2.912e-7
-1.100, -2.903e-7
-1.099, -2.962e-7
-1.098, -2.755e-7
-1.097, -2.774e-7
-1.096, -2.843e-7
-1.095, -3.169e-7
-1.094, -2.824e-7
-1.093, -2.784e-7
-1.092, -2.863e-7
-1.091, -2.991e-7
-1.090, -3.051e-7
-1.089, -3.021e-7
-1.088, -3.307e-7
-1.087, -3.169e-7
-1.086, -3.011e-7
-1.085, -3.238e-7
-1.084, -3.218e-7
-1.083, -3.435e-7
-1.082, -3.228e-7
-1.081, -3.248e-7
-1.080, -3.287e-7
-1.079, -3.179e-7
-1.078, -3.633e-7
-1.077, -3.268e-7
-1.076, -3.396e-7
-1.075, -3.613e-7
-1.074, -3.712e-7
-1.073, -3.455e-7
-1.072, -3.554e-7
-1.071, -3.771e-7
-1.070, -3.425e-7
-1.069, -3.504e-7
-1.068, -3.534e-7
-1.067, -3.978e-7
-1.066, -3.504e-7
-1.065, -3.643e-7
-1.064, -3.702e-7
-1.063, -3.564e-7
-1.062, -3.860e-7
-1.061, -3.662e-7
-1.060, -3.968e-7
-1.059, -3.712e-7
-1.058, -3.771e-7
-1.057, -3.771e-7
-1.056, -3.623e-7
-1.055, -4.175e-7
-1.054, -3.790e-7
-1.053, -4.017e-7
-1.052, -3.899e-7
-1.051, -4.027e-7
-1.050, -4.126e-7
-1.049, -3.968e-7
-1.048, -4.254e-7
-1.047, -4.333e-7
-1.046, -4.017e-7
-1.045, -4.215e-7
-1.044, -4.057e-7
-1.043, -4.382e-7
-1.042, -4.047e-7
-1.041, -4.629e-7
-1.040, -4.442e-7
-1.039, -4.373e-7
-1.038, -4.353e-7
-1.037, -4.639e-7
-1.036, -4.521e-7
-1.035, -4.313e-7
-1.034, -4.501e-7
-1.033, -4.205e-7
-1.032, -4.817e-7
-1.031, -4.560e-7
-1.030, -4.659e-7
-1.029, -4.452e-7
-1.028, -4.481e-7
-1.027, -5.004e-7
-1.026, -4.382e-7
-1.025, -4.688e-7
-1.024, -4.817e-7
-1.023, -4.836e-7
-1.022, -4.747e-7
-1.021, -4.747e-7
-1.020, -4.895e-7
-1.019, -4.629e-7
-1.018, -5.073e-7
-1.017, -4.974e-7
-1.016, -4.955e-7
-1.015, -4.955e-7
-1.014, -4.846e-7
-1.013, -5.073e-7
-1.012, -4.876e-7
-1.011, -5.191e-7
-1.010, -5.132e-7
-1.009, -5.063e-7
-1.008, -5.113e-7
-1.007, -5.438e-7
-1.006, -5.132e-7
-1.005, -5.122e-7
-1.004, -5.399e-7
-1.003, -5.270e-7
-1.002, -5.517e-7
-1.001, -5.043e-7
-1.000, -3.228e-7
-1.001, -1.472e-7
-1.002, -4.262e-8
-1.003, -1.006e-8
-1.004, 1.014e-7
-1.005, 1.113e-7
-1.006, 1.754e-7
-1.007, 1.942e-7
-1.008, 2.514e-7
-1.009, 2.820e-7
-1.010, 2.889e-7
-1.011, 3.362e-7
-1.012, 3.560e-7
-1.013, 3.816e-7
-1.014, 4.161e-7
-1.015, 4.369e-7
-1.016, 4.615e-7
-1.017, 4.448e-7
-1.018, 4.862e-7
-1.019, 5.079e-7
-1.020, 5.385e-7
-1.021, 5.710e-7
-1.022, 5.641e-7
-1.023, 5.651e-7
-1.024, 6.095e-7
-1.025, 6.421e-7
-1.026, 6.322e-7
-1.027, 6.450e-7
-1.028, 6.500e-7
-1.029, 6.677e-7
-1.030, 6.875e-7
-1.031, 6.944e-7
-1.032, 7.259e-7
-1.033, 7.032e-7
-1.034, 7.467e-7
-1.035, 7.467e-7
-1.036, 7.595e-7
-1.037, 7.841e-7
-1.038, 7.664e-7
-1.039, 7.970e-7
-1.040, 7.841e-7
-1.041, 8.246e-7
-1.042, 8.374e-7
-1.043, 8.295e-7
-1.044, 8.502e-7
-1.045, 8.305e-7
-1.046, 8.700e-7
-1.047, 8.384e-7
-1.048, 8.877e-7
-1.049, 8.917e-7
-1.050, 9.016e-7
-1.051, 9.085e-7
-1.052, 8.996e-7
-1.053, 9.242e-7
-1.054, 9.390e-7
-1.055, 9.390e-7
-1.056, 9.361e-7
-1.057, 9.272e-7
-1.058, 9.834e-7
-1.059, 9.588e-7
-1.060, 9.884e-7
-1.061, 9.854e-7
-1.062, 1.006e-6
-1.063, 1.014e-6
-1.064, 9.894e-7
-1.065, 1.023e-6
-1.066, 1.011e-6
-1.067, 1.040e-6
-1.068, 1.036e-6
-1.069, 1.044e-6
-1.070, 1.059e-6
-1.071, 1.050e-6
-1.072, 1.053e-6
-1.073, 1.067e-6
-1.074, 1.081e-6
-1.075, 1.101e-6
-1.076, 1.094e-6
-1.077, 1.123e-6
-1.078, 1.096e-6
-1.079, 1.113e-6
-1.080, 1.112e-6
-1.081, 1.117e-6
-1.082, 1.149e-6
-1.083, 1.115e-6
-1.084, 1.145e-6
-1.085, 1.133e-6
-1.086, 1.149e-6
-1.087, 1.177e-6
-1.088, 1.170e-6
-1.089, 1.170e-6
-1.090, 1.174e-6
-1.091, 1.202e-6
-1.092, 1.188e-6
-1.093, 1.187e-6
-1.094, 1.239e-6
-1.095, 1.198e-6
-1.096, 1.228e-6
-1.097, 1.226e-6
-1.098, 1.233e-6
-1.099, 1.227e-6
-1.100, 1.225e-6
-1.101, 1.257e-6
-1.102, 1.250e-6
-1.103, 1.266e-6
-1.104, 1.246e-6
-1.105, 1.268e-6
-1.106, 1.273e-6
-1.107, 1.254e-6
-1.108, 1.307e-6
-1.109, 1.253e-6
-1.110, 1.309e-6
-1.111, 1.302e-6
-1.112, 1.304e-6
-1.113, 1.300e-6
-1.114, 1.317e-6
-1.115, 1.331e-6
-1.116, 1.324e-6
-1.117, 1.352e-6
-1.118, 1.307e-6
-1.119, 1.368e-6
-1.120, 1.359e-6
-1.121, 1.353e-6
-1.122, 1.385e-6
-1.123, 1.337e-6
-1.124, 1.385e-6
-1.125, 1.357e-6
-1.126, 1.374e-6
-1.127, 1.410e-6
-1.128, 1.383e-6
-1.129, 1.422e-6
-1.130, 1.393e-6
-1.131, 1.412e-6
-1.132, 1.391e-6
-1.133, 1.410e-6
-1.134, 1.440e-6
-1.135, 1.439e-6
-1.136, 1.441e-6
-1.137, 1.451e-6
-1.138, 1.434e-6
-1.139, 1.425e-6
-1.140, 1.454e-6
-1.141, 1.501e-6
-1.142, 1.437e-6
-1.143, 1.463e-6
-1.144, 1.478e-6
-1.145, 1.468e-6
-1.146, 1.473e-6
-1.147, 1.485e-6
-1.148, 1.498e-6
-1.149, 1.466e-6
-1.150, 1.491e-6
-1.151, 1.491e-6
-1.152, 1.513e-6
-1.153, 1.493e-6
-1.154, 1.540e-6
-1.155, 1.542e-6
-1.156, 1.501e-6
-1.157, 1.520e-6
-1.158, 1.542e-6
-1.159, 1.554e-6
-1.160, 1.535e-6
-1.161, 1.568e-6
-1.162, 1.567e-6
-1.163, 1.535e-6
-1.164, 1.567e-6
-1.165, 1.570e-6
-1.166, 1.584e-6
-1.167, 1.579e-6
-1.168, 1.577e-6
-1.169, 1.592e-6
-1.170, 1.575e-6
-1.171, 1.609e-6
-1.172, 1.588e-6
-1.173, 1.606e-6
-1.174, 1.605e-6
-1.175, 1.615e-6
-1.176, 1.622e-6
-1.177, 1.630e-6
-1.178, 1.650e-6
-1.179, 1.641e-6
-1.180, 1.655e-6
-1.181, 1.657e-6
-1.182, 1.646e-6
-1.183, 1.680e-6
-1.184, 1.639e-6
-1.185, 1.678e-6
-1.186, 1.699e-6
-1.187, 1.681e-6
-1.188, 1.677e-6
-1.189, 1.699e-6
-1.190, 1.715e-6
-1.191, 1.695e-6
-1.192, 1.737e-6
-1.193, 1.691e-6
-1.194, 1.745e-6
-1.195, 1.730e-6
-1.196, 1.737e-6
-1.197, 1.757e-6
-1.198, 1.702e-6
-1.199, 1.745e-6
-1.200, 1.726e-6
-1.201, 1.758e-6
-1.202, 1.766e-6
-1.203, 1.780e-6
-1.204, 1.793e-6
-1.205, 1.754e-6
-1.206, 1.788e-6
-1.207, 1.777e-6
-1.208, 1.792e-6
-1.209, 1.819e-6
-1.210, 1.798e-6
-1.211, 1.817e-6
-1.212, 1.803e-6
-1.213, 1.817e-6
-1.214, 1.809e-6
-1.215, 1.840e-6
-1.216, 1.831e-6
-1.217, 1.837e-6
-1.218, 1.862e-6
-1.219, 1.842e-6
-1.220, 1.856e-6
-1.221, 1.854e-6
-1.222, 1.897e-6
-1.223, 1.869e-6
-1.224, 1.856e-6
-1.225, 1.897e-6
-1.226, 1.904e-6
-1.227, 1.902e-6
-1.228, 1.875e-6
-1.229, 1.951e-6
-1.230, 1.921e-6
-1.231, 1.934e-6
-1.232, 1.948e-6
-1.233, 1.929e-6
-1.234, 1.959e-6
-1.235, 1.945e-6
-1.236, 1.977e-6
-1.237, 1.955e-6
-1.238, 1.953e-6
-1.239, 1.992e-6
-1.240, 1.996e-6
-1.241, 1.995e-6
-1.242, 1.987e-6
-1.243, 2.038e-6
-1.244, 2.008e-6
-1.245, 2.021e-6
-1.246, 2.035e-6
-1.247, 2.032e-6
-1.248, 2.034e-6
-1.249, 2.048e-6
-1.250, 2.101e-6
-1.251, 2.030e-6
-1.252, 2.077e-6
-1.253, 2.077e-6
-1.254, 2.085e-6
-1.255, 2.109e-6
-1.256, 2.106e-6
-1.257, 2.110e-6
-1.258, 2.093e-6
-1.259, 2.136e-6
-1.260, 2.135e-6
-1.261, 2.159e-6
-1.262, 2.165e-6
-1.263, 2.142e-6
-1.264, 2.187e-6
-1.265, 2.144e-6
-1.266, 2.179e-6
-1.267, 2.224e-6
-1.268, 2.181e-6
-1.269, 2.200e-6
-1.270, 2.227e-6
-1.271, 2.251e-6
-1.272, 2.191e-6
-1.273, 2.293e-6
-1.274, 2.262e-6
-1.275, 2.269e-6
-1.276, 2.284e-6
-1.277, 2.273e-6
-1.278, 2.301e-6
-1.279, 2.287e-6
-1.280, 2.351e-6
-1.281, 2.333e-6
-1.282, 2.355e-6
-1.283, 2.349e-6
-1.284, 2.370e-6
-1.285, 2.376e-6
-1.286, 2.376e-6
-1.287, 2.412e-6
-1.288, 2.416e-6
-1.289, 2.433e-6
-1.290, 2.417e-6
-1.291, 2.468e-6
-1.292, 2.462e-6
-1.293, 2.478e-6
-1.294, 2.483e-6
-1.295, 2.480e-6
-1.296, 2.527e-6
-1.297, 2.506e-6
-1.298, 2.534e-6
-1.299, 2.517e-6
-1.300, 2.558e-6
-1.301, 2.581e-6
-1.302, 2.576e-6
-1.303, 2.619e-6
-1.304, 2.604e-6
-1.305, 2.629e-6
-1.306, 2.665e-6
-1.307, 2.657e-6
-1.308, 2.674e-6
-1.309, 2.674e-6
-1.310, 2.727e-6
-1.311, 2.713e-6
-1.312, 2.743e-6
-1.313, 2.756e-6
-1.314, 2.766e-6
-1.315, 2.792e-6
-1.316, 2.831e-6
-1.317, 2.881e-6
-1.318, 2.851e-6
-1.319, 2.911e-6
-1.320, 2.880e-6
-1.321, 2.970e-6
-1.322, 2.981e-6
-1.323, 2.998e-6
-1.324, 3.042e-6
-1.325, 3.013e-6
-1.326, 3.040e-6
-1.327, 3.043e-6
-1.328, 3.113e-6
-1.329, 3.134e-6
-1.330, 3.127e-6
-1.331, 3.167e-6
-1.332, 3.146e-6
-1.333, 3.197e-6
-1.334, 3.171e-6
-1.335, 3.143e-6
-1.336, 3.191e-6
-1.337, 3.254e-6
-1.338, 3.245e-6
-1.339, 3.271e-6
-1.340, 3.316e-6
-1.341, 3.327e-6
-1.342, 3.385e-6
-1.343, 3.354e-6
-1.344, 3.414e-6
-1.345, 3.427e-6
-1.346, 3.468e-6
-1.347, 3.473e-6
-1.348, 3.473e-6
-1.349, 3.545e-6
-1.350, 3.549e-6
-1.351, 3.595e-6
-1.352, 3.597e-6
-1.353, 3.650e-6
-1.354, 3.695e-6
-1.355, 3.706e-6
-1.356, 3.757e-6
-1.357, 3.788e-6
-1.358, 3.815e-6
-1.359, 3.827e-6
-1.360, 3.854e-6
-1.361, 3.876e-6
-1.362, 3.939e-6
-1.363, 3.966e-6
-1.364, 4.007e-6
-1.365, 4.039e-6
-1.366, 4.053e-6
-1.367, 4.129e-6
-1.368, 4.099e-6
-1.369, 4.175e-6
-1.370, 4.166e-6
-1.371, 4.239e-6
-1.372, 4.258e-6
-1.373, 4.279e-6
-1.374, 4.322e-6
-1.375, 4.355e-6
-1.376, 4.424e-6
-1.377, 4.433e-6
-1.378, 4.493e-6
-1.379, 4.513e-6
-1.380, 4.571e-6
-1.381, 4.581e-6
-1.382, 4.602e-6
-1.383, 4.648e-6
-1.384, 4.655e-6
-1.385, 4.736e-6
-1.386, 4.772e-6
-1.387, 4.776e-6
-1.388, 4.855e-6
-1.389, 4.981e-6
-1.390, 5.031e-6
-1.391, 4.995e-6
-1.392, 5.043e-6
-1.393, 5.027e-6
-1.394, 5.089e-6
-1.395, 5.120e-6
-1.396, 5.205e-6
-1.397, 5.259e-6
-1.398, 5.286e-6
-1.399, 5.344e-6
-1.400, 5.381e-6
-1.401, 5.499e-6
-1.402, 5.565e-6
-1.403, 5.578e-6
-1.404, 5.610e-6
-1.405, 5.691e-6
-1.406, 5.773e-6
-1.407, 5.786e-6
-1.408, 5.804e-6
-1.409, 5.847e-6
-1.410, 5.952e-6
-1.411, 5.980e-6
-1.412, 6.013e-6
-1.413, 6.122e-6
-1.414, 6.155e-6
-1.415, 6.244e-6
-1.416, 6.286e-6
-1.417, 6.404e-6
-1.418, 6.411e-6
-1.419, 6.510e-6
-1.420, 6.525e-6
-1.421, 6.569e-6
-1.422, 6.614e-6
-1.423, 6.673e-6
-1.424, 6.757e-6
-1.425, 6.806e-6
-1.426, 6.903e-6
-1.427, 6.941e-6
-1.428, 6.981e-6
-1.429, 7.054e-6
-1.430, 7.086e-6
-1.431, 7.204e-6
-1.432, 7.343e-6
-1.433, 7.639e-6
-1.434, 7.517e-6
-1.435, 7.894e-6
-1.436, 8.118e-6
-1.437, 8.064e-6
-1.438, 8.290e-6
-1.439, 8.470e-6
-1.440, 8.354e-6
-1.441, 8.477e-6
-1.442, 8.357e-6
-1.443, 8.073e-6
-1.444, 8.130e-6
-1.445, 8.255e-6
-1.446, 8.859e-6
-1.447, 8.705e-6
-1.448, 8.664e-6
-1.449, 8.764e-6
-1.450, 8.922e-6
-1.451, 9.058e-6
-1.452, 9.005e-6
-1.453, 9.036e-6
-1.454, 9.038e-6
-1.455, 8.966e-6
-1.456, 9.064e-6
-1.457, 9.199e-6
-1.458, 9.272e-6
-1.459, 9.396e-6
-1.460, 9.439e-6
-1.461, 9.516e-6
-1.462, 9.623e-6
-1.463, 9.718e-6
-1.464, 9.756e-6
-1.465, 9.834e-6
-1.466, 1.001e-5
-1.467, 1.004e-5
-1.468, 1.014e-5
-1.469, 1.024e-5
-1.470, 1.033e-5
-1.471, 1.048e-5
-1.472, 1.056e-5
-1.473, 1.069e-5
-1.474, 1.080e-5
-1.475, 1.089e-5
-1.476, 1.096e-5
-1.477, 1.110e-5
-1.478, 1.120e-5
-1.479, 1.125e-5
-1.480, 1.143e-5
-1.481, 1.154e-5
-1.482, 1.167e-5
-1.483, 1.178e-5
-1.484, 1.195e-5
-1.485, 1.208e-5
-1.486, 1.215e-5
-1.487, 1.231e-5
-1.488, 1.238e-5
-1.489, 1.255e-5
-1.490, 1.260e-5
-1.491, 1.278e-5
-1.492, 1.289e-5
-1.493, 1.311e-5
-1.494, 1.325e-5
-1.495, 1.334e-5
-1.496, 1.352e-5
-1.497, 1.374e-5
-1.498, 1.391e-5
-1.499, 1.403e-5
-1.500, 1.420e-5
-1.501, 1.434e-5
-1.502, 1.450e-5
-1.503, 1.462e-5
-1.504, 1.475e-5
-1.505, 1.491e-5
-1.506, 1.507e-5
-1.507, 1.524e-5
-1.508, 1.536e-5
-1.509, 1.550e-5
-1.510, 1.565e-5
-1.511, 1.579e-5
-1.512, 1.601e-5
-1.513, 1.613e-5
-1.514, 1.635e-5
-1.515, 1.648e-5
-1.516, 1.670e-5
-1.517, 1.683e-5
-1.518, 1.696e-5
-1.519, 1.713e-5
-1.520, 1.733e-5
-1.521, 1.765e-5
-1.522, 1.777e-5
-1.523, 1.800e-5
-1.524, 1.812e-5
-1.525, 1.822e-5
-1.526, 1.843e-5
-1.527, 1.884e-5
-1.528, 1.919e-5
-1.529, 1.929e-5
-1.530, 1.970e-5
-1.531, 1.972e-5
-1.532, 1.994e-5
-1.533, 2.008e-5
-1.534, 2.018e-5
-1.535, 2.045e-5
-1.536, 2.078e-5
-1.537, 2.158e-5
-1.538, 2.137e-5
-1.539, 2.136e-5
-1.540, 2.151e-5
-1.541, 2.183e-5
-1.542, 2.213e-5
-1.543, 2.228e-5
-1.544, 2.251e-5
-1.545, 2.280e-5
-1.546, 2.309e-5
-1.547, 2.336e-5
-1.548, 2.365e-5
-1.549, 2.401e-5
-1.550, 2.430e-5
-1.551, 2.455e-5
-1.552, 2.475e-5
-1.553, 2.496e-5
-1.554, 2.525e-5
-1.555, 2.557e-5
-1.556, 2.582e-5
-1.557, 2.613e-5
-1.558, 2.647e-5
-1.559, 2.672e-5
-1.560, 2.698e-5
-1.561, 2.733e-5
-1.562, 2.766e-5
-1.563, 2.795e-5
-1.564, 2.831e-5
-1.565, 2.856e-5
-1.566, 2.904e-5
-1.567, 2.938e-5
-1.568, 2.973e-5
-1.569, 3.011e-5
-1.570, 3.049e-5
-1.571, 3.067e-5
-1.572, 3.112e-5
-1.573, 3.145e-5
-1.574, 3.176e-5
-1.575, 3.222e-5
-1.576, 3.266e-5
-1.577, 3.317e-5
-1.578, 3.373e-5
-1.579, 3.410e-5
-1.580, 3.441e-5
-1.581, 3.483e-5
-1.582, 3.540e-5
-1.583, 3.592e-5
-1.584, 3.623e-5
-1.585, 3.664e-5
-1.586, 3.709e-5
-1.587, 3.754e-5
-1.588, 3.797e-5
-1.589, 3.844e-5
-1.590, 3.892e-5
-1.591, 3.931e-5
-1.592, 3.982e-5
-1.593, 4.032e-5
-1.594, 4.082e-5
-1.595, 4.152e-5
-1.596, 4.212e-5
-1.597, 4.257e-5
-1.598, 4.312e-5
-1.599, 4.368e-5
-1.600, 4.332e-5
-1.599, 4.256e-5
-1.598, 4.195e-5
-1.597, 4.147e-5
-1.596, 4.064e-5
-1.595, 4.020e-5
-1.594, 3.975e-5
-1.593, 3.943e-5
-1.592, 3.882e-5
-1.591, 3.848e-5
-1.590, 3.781e-5
-1.589, 3.732e-5
-1.588, 3.662e-5
-1.587, 3.596e-5
-1.586, 3.536e-5
-1.585, 3.499e-5
-1.584, 3.462e-5
-1.583, 3.410e-5
-1.582, 3.369e-5
-1.581, 3.320e-5
-1.580, 3.294e-5
-1.579, 3.254e-5
-1.578, 3.210e-5
-1.577, 3.178e-5
-1.576, 3.140e-5
-1.575, 3.106e-5
-1.574, 3.063e-5
-1.573, 3.024e-5
-1.572, 2.986e-5
-1.571, 2.949e-5
-1.570, 2.901e-5
-1.569, 2.863e-5
-1.568, 2.844e-5
-1.567, 2.820e-5
-1.566, 2.799e-5
-1.565, 2.761e-5
-1.564, 2.733e-5
-1.563, 2.695e-5
-1.562, 2.651e-5
-1.561, 2.635e-5
-1.560, 2.603e-5
-1.559, 2.576e-5
-1.558, 2.528e-5
-1.557, 2.506e-5
-1.556, 2.482e-5
-1.555, 2.453e-5
-1.554, 2.416e-5
-1.553, 2.387e-5
-1.552, 2.351e-5
-1.551, 2.304e-5
-1.550, 2.281e-5
-1.549, 2.263e-5
-1.548, 2.243e-5
-1.547, 2.199e-5
-1.546, 2.161e-5
-1.545, 2.135e-5
-1.544, 2.106e-5
-1.543, 2.090e-5
-1.542, 2.076e-5
-1.541, 2.069e-5
-1.540, 2.044e-5
-1.539, 2.017e-5
-1.538, 1.985e-5
-1.537, 1.961e-5
-1.536, 1.939e-5
-1.535, 1.914e-5
-1.534, 1.891e-5
-1.533, 1.859e-5
-1.532, 1.844e-5
-1.531, 1.820e-5
-1.530, 1.794e-5
-1.529, 1.774e-5
-1.528, 1.750e-5
-1.527, 1.732e-5
-1.526, 1.707e-5
-1.525, 1.688e-5
-1.524, 1.665e-5
-1.523, 1.647e-5
-1.522, 1.630e-5
-1.521, 1.607e-5
-1.520, 1.587e-5
-1.519, 1.563e-5
-1.518, 1.543e-5
-1.517, 1.521e-5
-1.516, 1.483e-5
-1.515, 1.446e-5
-1.514, 1.430e-5
-1.513, 1.415e-5
-1.512, 1.389e-5
-1.511, 1.369e-5
-1.510, 1.351e-5
-1.509, 1.349e-5
-1.508, 1.331e-5
-1.507, 1.305e-5
-1.506, 1.290e-5
-1.505, 1.276e-5
-1.504, 1.264e-5
-1.503, 1.244e-5
-1.502, 1.226e-5
-1.501, 1.199e-5
-1.500, 1.178e-5
-1.499, 1.172e-5
-1.498, 1.158e-5
-1.497, 1.138e-5
-1.496, 1.124e-5
-1.495, 1.112e-5
-1.494, 1.096e-5
-1.493, 1.090e-5
-1.492, 1.071e-5
-1.491, 1.057e-5
-1.490, 1.042e-5
-1.489, 1.022e-5
-1.488, 1.013e-5
-1.487, 9.883e-6
-1.486, 9.796e-6
-1.485, 9.632e-6
-1.484, 9.521e-6
-1.483, 9.411e-6
-1.482, 9.334e-6
-1.481, 9.263e-6
-1.480, 9.120e-6
-1.479, 9.010e-6
-1.478, 8.923e-6
-1.477, 8.874e-6
-1.476, 8.645e-6
-1.475, 8.586e-6
-1.474, 8.413e-6
-1.473, 8.285e-6
-1.472, 8.207e-6
-1.471, 8.117e-6
-1.470, 8.043e-6
-1.469, 7.879e-6
-1.468, 7.776e-6
-1.467, 7.678e-6
-1.466, 7.572e-6
-1.465, 7.477e-6
-1.464, 7.408e-6
-1.463, 7.291e-6
-1.462, 7.176e-6
-1.461, 7.082e-6
-1.460, 6.974e-6
-1.459, 6.928e-6
-1.458, 6.844e-6
-1.457, 6.766e-6
-1.456, 6.673e-6
-1.455, 6.609e-6
-1.454, 6.439e-6
-1.453, 6.388e-6
-1.452, 6.307e-6
-1.451, 6.134e-6
-1.450, 6.114e-6
-1.449, 6.019e-6
-1.448, 5.984e-6
-1.447, 5.883e-6
-1.446, 5.817e-6
-1.445, 5.757e-6
-1.444, 5.603e-6
-1.443, 5.594e-6
-1.442, 5.498e-6
-1.441, 5.419e-6
-1.440, 5.338e-6
-1.439, 5.321e-6
-1.438, 5.250e-6
-1.437, 5.189e-6
-1.436, 5.100e-6
-1.435, 4.991e-6
-1.434, 4.928e-6
-1.433, 4.813e-6
-1.432, 4.778e-6
-1.431, 4.679e-6
-1.430, 4.619e-6
-1.429, 4.553e-6
-1.428, 4.484e-6
-1.427, 4.427e-6
-1.426, 4.325e-6
-1.425, 4.272e-6
-1.424, 4.206e-6
-1.423, 4.170e-6
-1.422, 4.077e-6
-1.421, 4.023e-6
-1.420, 3.989e-6
-1.419, 3.898e-6
-1.418, 3.814e-6
-1.417, 3.785e-6
-1.416, 3.746e-6
-1.415, 3.711e-6
-1.414, 3.671e-6
-1.413, 3.637e-6
-1.412, 3.539e-6
-1.411, 3.543e-6
-1.410, 3.415e-6
-1.409, 3.387e-6
-1.408, 3.324e-6
-1.407, 3.292e-6
-1.406, 3.215e-6
-1.405, 3.170e-6
-1.404, 3.226e-6
-1.403, 3.150e-6
-1.402, 3.150e-6
-1.401, 3.063e-6
-1.400, 3.056e-6
-1.399, 2.995e-6
-1.398, 2.949e-6
-1.397, 2.943e-6
-1.396, 2.883e-6
-1.395, 2.857e-6
-1.394, 2.797e-6
-1.393, 2.772e-6
-1.392, 2.714e-6
-1.391, 2.711e-6
-1.390, 2.679e-6
-1.389, 2.598e-6
-1.388, 2.603e-6
-1.387, 2.535e-6
-1.386, 2.503e-6
-1.385, 2.453e-6
-1.384, 2.416e-6
-1.383, 2.421e-6
-1.382, 2.332e-6
-1.381, 2.320e-6
-1.380, 2.253e-6
-1.379, 2.236e-6
-1.378, 2.203e-6
-1.377, 2.196e-6
-1.376, 2.163e-6
-1.375, 2.104e-6
-1.374, 2.064e-6
-1.373, 2.038e-6
-1.372, 2.049e-6
-1.371, 1.992e-6
-1.370, 2.011e-6
-1.369, 1.993e-6
-1.368, 1.930e-6
-1.367, 1.881e-6
-1.366, 1.854e-6
-1.365, 1.853e-6
-1.364, 1.888e-6
-1.363, 1.879e-6
-1.362, 1.815e-6
-1.361, 1.803e-6
-1.360, 1.777e-6
-1.359, 1.744e-6
-1.358, 1.729e-6
-1.357, 1.674e-6
-1.356, 1.631e-6
-1.355, 1.630e-6
-1.354, 1.581e-6
-1.353, 1.594e-6
-1.352, 1.544e-6
-1.351, 1.520e-6
-1.350, 1.478e-6
-1.349, 1.481e-6
-1.348, 1.420e-6
-1.347, 1.407e-6
-1.346, 1.382e-6
-1.345, 1.420e-6
-1.344, 1.369e-6
-1.343, 1.350e-6
-1.342, 1.350e-6
-1.341, 1.283e-6
-1.340, 1.286e-6
-1.339, 1.232e-6
-1.338, 1.242e-6
-1.337, 1.206e-6
-1.336, 1.154e-6
-1.335, 1.206e-6
-1.334, 1.118e-6
-1.333, 1.092e-6
-1.332, 1.074e-6
-1.331, 1.106e-6
-1.330, 1.033e-6
-1.329, 1.020e-6
-1.328, 1.052e-6
-1.327, 9.963e-7
-1.326, 9.736e-7
-1.325, 9.430e-7
-1.324, 9.499e-7
-1.323, 8.897e-7
-1.322, 9.173e-7
-1.321, 9.075e-7
-1.320, 8.601e-7
-1.319, 8.690e-7
-1.318, 8.295e-7
-1.317, 8.473e-7
-1.316, 7.792e-7
-1.315, 8.216e-7
-1.314, 7.851e-7
-1.313, 7.486e-7
-1.312, 7.437e-7
-1.311, 7.417e-7
-1.310, 7.388e-7
-1.309, 6.924e-7
-1.308, 7.121e-7
-1.307, 6.796e-7
-1.306, 6.786e-7
-1.305, 6.539e-7
-1.304, 6.440e-7
-1.303, 6.638e-7
-1.302, 5.987e-7
-1.301, 6.332e-7
-1.300, 5.740e-7
-1.299, 5.651e-7
-1.298, 5.602e-7
-1.297, 5.720e-7
-1.296, 5.414e-7
-1.295, 5.197e-7
-1.294, 4.921e-7
-1.293, 4.605e-7
-1.292, 5.128e-7
-1.291, 4.744e-7
-1.290, 4.961e-7
-1.289, 4.625e-7
-1.288, 4.438e-7
-1.287, 4.536e-7
-1.286, 4.152e-7
-1.285, 4.438e-7
-1.284, 4.300e-7
-1.283, 4.497e-7
-1.282, 3.954e-7
-1.281, 3.905e-7
-1.280, 4.102e-7
-1.279, 3.767e-7
-1.278, 3.698e-7
-1.277, 3.491e-7
-1.276, 3.609e-7
-1.275, 3.747e-7
-1.274, 3.579e-7
-1.273, 3.214e-7
-1.272, 3.204e-7
-1.271, 3.303e-7
-1.270, 2.820e-7
-1.269, 3.066e-7
-1.268, 2.810e-7
-1.267, 2.879e-7
-1.266, 2.622e-7
-1.265, 2.711e-7
-1.264, 2.859e-7
-1.263, 2.395e-7
-1.262, 2.474e-7
-1.261, 2.386e-7
-1.260, 2.682e-7
-1.259, 2.198e-7
-1.258, 2.188e-7
-1.257, 2.178e-7
-1.256, 2.169e-7
-1.255, 2.139e-7
-1.254, 1.912e-7
-1.253, 2.040e-7
-1.252, 1.665e-7
-1.251, 1.912e-7
-1.250, 1.902e-7
-1.249, 1.922e-7
-1.248, 1.685e-7
-1.247, 1.547e-7
-1.246, 1.734e-7
-1.245, 1.508e-7
-1.244, 1.823e-7
-1.243, 1.389e-7
-1.242, 1.478e-7
-1.241, 1.212e-7
-1.240, 1.517e-7
-1.239, 9.846e-8
-1.238, 1.162e-7
-1.237, 1.261e-7
-1.236, 1.261e-7
-1.235, 9.649e-8
-1.234, 9.649e-8
-1.233, 1.192e-7
-1.232, 8.169e-8
-1.231, 1.113e-7
-1.230, 9.550e-8
-1.229, 7.084e-8
-1.228, 5.012e-8
-1.227, 5.703e-8
-1.226, 9.254e-8
-1.225, 3.927e-8
-1.224, 7.873e-8
-1.223, 4.025e-8
-1.222, 5.407e-8
-1.221, 2.841e-8
-1.220, 6.294e-8
-1.219, 5.998e-8
-1.218, 3.039e-8
-1.217, 3.335e-8
-1.216, 2.545e-8
-1.215, 5.012e-8
-1.214, -1.973e-10
-1.213, 2.545e-8
-1.212, 1.460e-8
-1.211, 3.335e-8
-1.210, 1.756e-8
-1.209, 5.722e-9
-1.208, 2.545e-8
-1.207, -7.103e-9
-1.206, 7.893e-10
-1.205, -9.077e-9
-1.204, 4.736e-9
-1.203, -1.697e-8
-1.202, -2.289e-8
-1.201, -1.796e-8
-1.200, -1.993e-8
-1.199, -1.302e-8
-1.198, -3.966e-8
-1.197, -1.697e-8
-1.196, -3.867e-8
-1.195, -1.796e-8
-1.194, -5.446e-8
-1.193, -1.184e-9
-1.192, -4.163e-8
-1.191, -3.275e-8
-1.190, -3.078e-8
-1.189, -5.051e-8
-1.188, -4.065e-8
-1.187, -6.433e-8
-1.186, -3.078e-8
-1.185, -5.742e-8
-1.184, -4.953e-8
-1.183, -6.137e-8
-1.182, -4.558e-8
-1.181, -8.702e-8
-1.180, -7.715e-8
-1.179, -4.657e-8
-1.178, -9.491e-8
-1.177, -8.208e-8
-1.176, -9.096e-8
-1.175, -8.406e-8
-1.174, -1.146e-7
-1.173, -7.715e-8
-1.172, -7.025e-8
-1.171, -9.787e-8
-1.170, -1.097e-7
-1.169, -9.886e-8
-1.168, -6.038e-8
-1.167, -1.215e-7
-1.166, -9.886e-8
-1.165, -1.156e-7
-1.164, -9.590e-8
-1.163, -1.176e-7
-1.162, -1.077e-7
-1.161, -1.008e-7
-1.160, -1.206e-7
-1.159, -1.235e-7
-1.158, -1.403e-7
-1.157, -1.215e-7
-1.156, -1.492e-7
-1.155, -1.166e-7
-1.154, -1.077e-7
-1.153, -1.492e-7
-1.152, -1.433e-7
-1.151, -1.383e-7
-1.150, -1.373e-7
-1.149, -1.807e-7
-1.148, -1.472e-7
-1.147, -1.748e-7
-1.146, -1.699e-7
-1.145, -1.462e-7
-1.144, -1.650e-7
-1.143, -1.383e-7
-1.142, -1.689e-7
-1.141, -1.620e-7
-1.140, -1.837e-7
-1.139, -1.551e-7
-1.138, -1.650e-7
-1.137, -1.896e-7
-1.136, -1.531e-7
-1.135, -1.926e-7
-1.134, -1.807e-7
-1.133, -1.995e-7
-1.132, -1.798e-7
-1.131, -2.005e-7
-1.130, -1.916e-7
-1.129, -1.886e-7
-1.128, -2.103e-7
-1.127, -1.778e-7
-1.126, -2.301e-7
-1.125, -2.034e-7
-1.124, -2.044e-7
-1.123, -2.242e-7
-1.122, -1.896e-7
-1.121, -2.468e-7
-1.120, -2.074e-7
-1.119, -2.380e-7
-1.118, -2.113e-7
-1.117, -2.311e-7
-1.116, -2.242e-7
-1.115, -2.251e-7
-1.114, -2.715e-7
-1.113, -2.459e-7
-1.112, -2.616e-7
-1.111, -2.449e-7
-1.110, -2.735e-7
-1.109, -2.340e-7
-1.108, -2.528e-7
-1.107, -2.764e-7
-1.106, -2.626e-7
-1.105, -2.804e-7
-1.104, -2.528e-7
-1.103, -2.745e-7
-1.102, -2.577e-7
-1.101, -2.656e-7
-1.100, -2.952e-7
-1.099, -2.794e-7
-1.098, -3.060e-7
-1.097, -2.587e-7
-1.096, -3.149e-7
-1.095, -3.031e-7
-1.094, -2.794e-7
-1.093, -3.031e-7
-1.092, -2.952e-7
-1.091, -3.120e-7
-1.090, -2.745e-7
-1.089, -3.189e-7
-1.088, -3.041e-7
-1.087, -3.218e-7
-1.086, -3.208e-7
-1.085, -3.120e-7
-1.084, -3.366e-7
-1.083, -3.120e-7
-1.082, -3.465e-7
-1.081, -3.268e-7
-1.080, -3.238e-7
-1.079, -3.258e-7
-1.078, -3.534e-7
-1.077, -3.524e-7
-1.076, -3.248e-7
-1.075, -3.771e-7
-1.074, -3.524e-7
-1.073, -3.662e-7
-1.072, -3.435e-7
-1.071, -3.879e-7
-1.070, -3.573e-7
-1.069, -3.554e-7
-1.068, -3.899e-7
-1.067, -3.810e-7
-1.066, -3.781e-7
-1.065, -3.751e-7
-1.064, -3.840e-7
-1.063, -3.909e-7
-1.062, -3.879e-7
-1.061, -3.909e-7
-1.060, -3.840e-7
-1.059, -4.077e-7
-1.058, -3.721e-7
-1.057, -4.106e-7
-1.056, -3.938e-7
-1.055, -4.077e-7
-1.054, -3.879e-7
-1.053, -3.948e-7
-1.052, -4.205e-7
-1.051, -3.929e-7
-1.050, -4.175e-7
-1.049, -4.096e-7
-1.048, -4.047e-7
-1.047, -4.264e-7
-1.046, -4.215e-7
-1.045, -4.382e-7
-1.044, -4.096e-7
-1.043, -4.540e-7
-1.042, -4.284e-7
-1.041, -4.501e-7
-1.040, -4.244e-7
-1.039, -4.234e-7
-1.038, -4.570e-7
-1.037, -4.382e-7
-1.036, -4.491e-7
-1.035, -4.442e-7
-1.034, -4.590e-7
-1.033, -4.313e-7
-1.032, -4.609e-7
-1.031, -4.501e-7
-1.030, -4.461e-7
-1.029, -4.412e-7
-1.028, -4.609e-7
-1.027, -4.905e-7
-1.026, -4.363e-7
-1.025, -4.886e-7
-1.024, -5.093e-7
-1.023, -4.550e-7
-1.022, -4.895e-7
-1.021, -4.747e-7
-1.020, -5.162e-7
-1.019, -4.669e-7
-1.018, -4.994e-7
-1.017, -4.994e-7
-1.016, -4.787e-7
-1.015, -5.024e-7
-1.014, -5.162e-7
-1.013, -5.132e-7
-1.012, -4.767e-7
-1.011, -5.320e-7
-1.010, -5.053e-7
-1.009, -5.093e-7
-1.008, -4.984e-7
-1.007, -5.103e-7
-1.006, -5.103e-7
-1.005, -4.935e-7
-1.004, -5.172e-7
-1.003, -5.073e-7
-1.002, -5.290e-7
-1.001, -5.122e-7
-1.000, -3.120e-7
-1.001, -1.383e-7
-1.002, -3.769e-8
-1.003, -1.184e-9
-1.004, 8.662e-8
-1.005, 1.251e-7
-1.006, 1.932e-7
-1.007, 2.238e-7
-1.008, 2.317e-7
-1.009, 2.751e-7
-1.010, 2.751e-7
-1.011, 3.254e-7
-1.012, 3.303e-7
-1.013, 3.984e-7
-1.014, 3.964e-7
-1.015, 4.300e-7
-1.016, 4.319e-7
-1.017, 4.635e-7
-1.018, 5.049e-7
-1.019, 4.990e-7
-1.020, 5.424e-7
-1.021, 5.138e-7
-1.022, 5.641e-7
-1.023, 5.641e-7
-1.024, 5.977e-7
-1.025, 6.431e-7
-1.026, 6.036e-7
-1.027, 6.618e-7
-1.028, 6.371e-7
-1.029, 6.736e-7
-1.030, 6.736e-7
-1.031, 7.190e-7
-1.032, 7.161e-7
-1.033, 7.190e-7
-1.034, 7.447e-7
-1.035, 7.240e-7
-1.036, 7.575e-7
-1.037, 7.536e-7
-1.038, 7.950e-7
-1.039, 7.980e-7
-1.040, 7.881e-7
-1.041, 8.137e-7
-1.042, 8.128e-7
-1.043, 8.374e-7
-1.044, 8.285e-7
-1.045, 8.621e-7
-1.046, 8.542e-7
-1.047, 8.917e-7
-1.048, 8.621e-7
-1.049, 9.055e-7
-1.050, 8.986e-7
-1.051, 9.124e-7
-1.052, 9.331e-7
-1.053, 8.828e-7
-1.054, 9.292e-7
-1.055, 9.193e-7
-1.056, 9.489e-7
-1.057, 9.598e-7
-1.058, 9.499e-7
-1.059, 9.815e-7
-1.060, 9.726e-7
-1.061, 9.903e-7
-1.062, 9.607e-7
-1.063, 1.031e-6
-1.064, 1.001e-6
-1.065, 1.013e-6
-1.066, 1.024e-6
-1.067, 1.031e-6
-1.068, 1.033e-6
-1.069, 1.039e-6
-1.070, 1.056e-6
-1.071, 1.029e-6
-1.072, 1.069e-6
-1.073, 1.073e-6
-1.074, 1.069e-6
-1.075, 1.078e-6
-1.076, 1.081e-6
-1.077, 1.114e-6
-1.078, 1.078e-6
-1.079, 1.117e-6
-1.080, 1.113e-6
-1.081, 1.102e-6
-1.082, 1.137e-6
-1.083, 1.102e-6
-1.084, 1.138e-6
-1.085, 1.141e-6
-1.086, 1.149e-6
-1.087, 1.164e-6
-1.088, 1.157e-6
-1.089, 1.177e-6
-1.090, 1.155e-6
-1.091, 1.178e-6
-1.092, 1.184e-6
-1.093, 1.182e-6
-1.094, 1.191e-6
-1.095, 1.195e-6
-1.096, 1.204e-6
-1.097, 1.189e-6
-1.098, 1.224e-6
-1.099, 1.202e-6
-1.100, 1.228e-6
-1.101, 1.204e-6
-1.102, 1.238e-6
-1.103, 1.244e-6
-1.104, 1.231e-6
-1.105, 1.265e-6
-1.106, 1.254e-6
-1.107, 1.278e-6
-1.108, 1.241e-6
-1.109, 1.283e-6
-1.110, 1.283e-6
-1.111, 1.267e-6
-1.112, 1.290e-6
-1.113, 1.286e-6
-1.114, 1.299e-6
-1.115, 1.311e-6
-1.116, 1.333e-6
-1.117, 1.325e-6
-1.118, 1.298e-6
-1.119, 1.330e-6
-1.120, 1.314e-6
-1.121, 1.335e-6
-1.122, 1.325e-6
-1.123, 1.342e-6
-1.124, 1.370e-6
-1.125, 1.337e-6
-1.126, 1.368e-6
-1.127, 1.347e-6
-1.128, 1.376e-6
-1.129, 1.354e-6
-1.130, 1.403e-6
-1.131, 1.407e-6
-1.132, 1.366e-6
-1.133, 1.391e-6
-1.134, 1.392e-6
-1.135, 1.404e-6
-1.136, 1.391e-6
-1.137, 1.421e-6
-1.138, 1.411e-6
-1.139, 1.420e-6
-1.140, 1.440e-6
-1.141, 1.401e-6
-1.142, 1.450e-6
-1.143, 1.424e-6
-1.144, 1.429e-6
-1.145, 1.442e-6
-1.146, 1.456e-6
-1.147, 1.462e-6
-1.148, 1.444e-6
-1.149, 1.471e-6
-1.150, 1.446e-6
-1.151, 1.467e-6
-1.152, 1.478e-6
-1.153, 1.475e-6
-1.154, 1.496e-6
-1.155, 1.477e-6
-1.156, 1.514e-6
-1.157, 1.494e-6
-1.158, 1.495e-6
-1.159, 1.506e-6
-1.160, 1.504e-6
-1.161, 1.517e-6
-1.162, 1.532e-6
-1.163, 1.522e-6
-1.164, 1.524e-6
-1.165, 1.553e-6
-1.166, 1.528e-6
-1.167, 1.548e-6
-1.168, 1.537e-6
-1.169, 1.540e-6
-1.170, 1.566e-6
-1.171, 1.555e-6
-1.172, 1.583e-6
-1.173, 1.531e-6
-1.174, 1.592e-6
-1.175, 1.584e-6
-1.176, 1.569e-6
-1.177, 1.615e-6
-1.178, 1.606e-6
-1.179, 1.601e-6
-1.180, 1.599e-6
-1.181, 1.639e-6
-1.182, 1.589e-6
-1.183, 1.623e-6
-1.184, 1.619e-6
-1.185, 1.641e-6
-1.186, 1.633e-6
-1.187, 1.618e-6
-1.188, 1.676e-6
-1.189, 1.629e-6
-1.190, 1.655e-6
-1.191, 1.680e-6
-1.192, 1.687e-6
-1.193, 1.655e-6
-1.194, 1.681e-6
-1.195, 1.716e-6
-1.196, 1.656e-6
-1.197, 1.697e-6
-1.198, 1.699e-6
-1.199, 1.712e-6
-1.200, 1.704e-6
-1.201, 1.683e-6
-1.202, 1.730e-6
-1.203, 1.708e-6
-1.204, 1.732e-6
-1.205, 1.710e-6
-1.206, 1.745e-6
-1.207, 1.767e-6
-1.208, 1.747e-6
-1.209, 1.760e-6
-1.210, 1.739e-6
-1.211, 1.753e-6
-1.212, 1.768e-6
-1.213, 1.784e-6
-1.214, 1.783e-6
-1.215, 1.784e-6
-1.216, 1.794e-6
-1.217, 1.782e-6
-1.218, 1.831e-6
-1.219, 1.789e-6
-1.220, 1.813e-6
-1.221, 1.837e-6
-1.222, 1.813e-6
-1.223, 1.839e-6
-1.224, 1.819e-6
-1.225, 1.879e-6
-1.226, 1.845e-6
-1.227, 1.861e-6
-1.228, 1.855e-6
-1.229, 1.861e-6
-1.230, 1.894e-6
-1.231, 1.877e-6
-1.232, 1.908e-6
-1.233, 1.869e-6
-1.234, 1.903e-6
-1.235, 1.909e-6
-1.236, 1.881e-6
-1.237, 1.943e-6
-1.238, 1.927e-6
-1.239, 1.944e-6
-1.240, 1.926e-6
-1.241, 1.955e-6
-1.242, 1.988e-6
-1.243, 1.915e-6
-1.244, 1.991e-6
-1.245, 1.957e-6
-1.246, 1.985e-6
-1.247, 1.962e-6
-1.248, 2.000e-6
-1.249, 2.006e-6
-1.250, 1.973e-6
-1.251, 2.024e-6
-1.252, 2.013e-6
-1.253, 2.036e-6
-1.254, 2.029e-6
-1.255, 2.040e-6
-1.256, 2.050e-6
-1.257, 2.026e-6
-1.258, 2.086e-6
-1.259, 2.063e-6
-1.260, 2.083e-6
-1.261, 2.085e-6
-1.262, 2.095e-6
-1.263, 2.098e-6
-1.264, 2.086e-6
-1.265, 2.118e-6
-1.266, 2.109e-6
-1.267, 2.140e-6
-1.268, 2.141e-6
-1.269, 2.163e-6
-1.270, 2.172e-6
-1.271, 2.145e-6
-1.272, 2.175e-6
-1.273, 2.186e-6
-1.274, 2.186e-6
-1.275, 2.183e-6
-1.276, 2.216e-6
-1.277, 2.223e-6
-1.278, 2.198e-6
-1.279, 2.246e-6
-1.280, 2.235e-6
-1.281, 2.265e-6
-1.282, 2.276e-6
-1.283, 2.297e-6
-1.284, 2.299e-6
-1.285, 2.286e-6
-1.286, 2.307e-6
-1.287, 2.297e-6
-1.288, 2.320e-6
-1.289, 2.315e-6
-1.290, 2.357e-6
-1.291, 2.333e-6
-1.292, 2.348e-6
-1.293, 2.386e-6
-1.294, 2.389e-6
-1.295, 2.419e-6
-1.296, 2.400e-6
-1.297, 2.431e-6
-1.298, 2.411e-6
-1.299, 2.446e-6
-1.300, 2.462e-6
-1.301, 2.463e-6
-1.302, 2.522e-6
-1.303, 2.489e-6
-1.304, 2.545e-6
-1.305, 2.489e-6
-1.306, 2.570e-6
-1.307, 2.553e-6
-1.308, 2.585e-6
-1.309, 2.594e-6
-1.310, 2.607e-6
-1.311, 2.626e-6
-1.312, 2.598e-6
-1.313, 2.665e-6
-1.314, 2.656e-6
-1.315, 2.675e-6
-1.316, 2.705e-6
-1.317, 2.715e-6
-1.318, 2.723e-6
-1.319, 2.734e-6
-1.320, 2.776e-6
-1.321, 2.772e-6
-1.322, 2.772e-6
-1.323, 2.810e-6
-1.324, 2.824e-6
-1.325, 2.834e-6
-1.326, 2.835e-6
-1.327, 2.917e-6
-1.328, 2.878e-6
-1.329, 2.911e-6
-1.330, 2.914e-6
-1.331, 2.952e-6
-1.332, 2.968e-6
-1.333, 2.979e-6
-1.334, 3.027e-6
-1.335, 3.039e-6
-1.336, 3.041e-6
-1.337, 3.072e-6
-1.338, 3.086e-6
-1.339, 3.050e-6
-1.340, 3.091e-6
-1.341, 3.136e-6
-1.342, 3.132e-6
-1.343, 3.145e-6
-1.344, 3.154e-6
-1.345, 3.187e-6
-1.346, 3.200e-6
-1.347, 3.220e-6
-1.348, 3.267e-6
-1.349, 3.240e-6
-1.350, 3.304e-6
-1.351, 3.320e-6
-1.352, 3.361e-6
-1.353, 3.359e-6
-1.354, 3.395e-6
-1.355, 3.396e-6
-1.356, 3.439e-6
-1.357, 3.489e-6
-1.358, 3.483e-6
-1.359, 3.547e-6
-1.360, 3.547e-6
-1.361, 3.583e-6
-1.362, 3.605e-6
-1.363, 3.625e-6
-1.364, 3.653e-6
-1.365, 3.641e-6
-1.366, 3.699e-6
-1.367, 3.713e-6
-1.368, 3.765e-6
-1.369, 3.766e-6
-1.370, 3.818e-6
-1.371, 3.867e-6
-1.372, 3.880e-6
-1.373, 3.932e-6
-1.374, 3.959e-6
-1.375, 3.987e-6
-1.376, 4.012e-6
-1.377, 4.066e-6
-1.378, 4.092e-6
-1.379, 4.112e-6
-1.380, 4.167e-6
-1.381, 4.201e-6
-1.382, 4.228e-6
-1.383, 4.258e-6
-1.384, 4.304e-6
-1.385, 4.322e-6
-1.386, 4.357e-6
-1.387, 4.396e-6
-1.388, 4.413e-6
-1.389, 4.467e-6
-1.390, 4.492e-6
-1.391, 4.622e-6
-1.392, 4.626e-6
-1.393, 4.579e-6
-1.394, 4.657e-6
-1.395, 4.659e-6
-1.396, 4.720e-6
-1.397, 4.784e-6
-1.398, 4.824e-6
-1.399, 4.885e-6
-1.400, 4.879e-6
-1.401, 4.953e-6
-1.402, 5.011e-6
-1.403, 5.084e-6
-1.404, 5.103e-6
-1.405, 5.112e-6
-1.406, 5.205e-6
-1.407, 5.217e-6
-1.408, 5.245e-6
-1.409, 5.303e-6
-1.410, 5.348e-6
-1.411, 5.405e-6
-1.412, 5.452e-6
-1.413, 5.509e-6
-1.414, 5.530e-6
-1.415, 5.582e-6
-1.416, 5.634e-6
-1.417, 5.689e-6
-1.418, 5.752e-6
-1.419, 5.797e-6
-1.420, 5.876e-6
-1.421, 5.886e-6
-1.422, 5.976e-6
-1.423, 5.999e-6
-1.424, 6.084e-6
-1.425, 6.135e-6
-1.426, 6.170e-6
-1.427, 6.226e-6
-1.428, 6.273e-6
-1.429, 6.332e-6
-1.430, 6.365e-6
-1.431, 6.454e-6
-1.432, 6.529e-6
-1.433, 6.580e-6
-1.434, 6.684e-6
-1.435, 6.737e-6
-1.436, 6.820e-6
-1.437, 6.827e-6
-1.438, 6.893e-6
-1.439, 6.970e-6
-1.440, 7.019e-6
-1.441, 7.099e-6
-1.442, 7.198e-6
-1.443, 7.360e-6
-1.444, 7.304e-6
-1.445, 7.445e-6
-1.446, 7.442e-6
-1.447, 7.521e-6
-1.448, 7.588e-6
-1.449, 7.698e-6
-1.450, 7.787e-6
-1.451, 7.797e-6
-1.452, 7.905e-6
-1.453, 7.948e-6
-1.454, 8.021e-6
-1.455, 8.114e-6
-1.456, 8.175e-6
-1.457, 8.286e-6
-1.458, 8.314e-6
-1.459, 8.443e-6
-1.460, 8.499e-6
-1.461, 8.564e-6
-1.462, 8.675e-6
-1.463, 8.729e-6
-1.464, 8.781e-6
-1.465, 8.867e-6
-1.466, 8.994e-6
-1.467, 9.001e-6
-1.468, 9.042e-6
-1.469, 9.183e-6
-1.470, 9.292e-6
-1.471, 9.628e-6
-1.472, 9.561e-6
-1.473, 9.990e-6
-1.474, 9.716e-6
-1.475, 9.618e-6
-1.476, 9.722e-6
-1.477, 9.781e-6
-1.478, 9.919e-6
-1.479, 9.979e-6
-1.480, 1.017e-5
-1.481, 1.024e-5
-1.482, 1.046e-5
-1.483, 1.058e-5
-1.484, 1.065e-5
-1.485, 1.079e-5
-1.486, 1.088e-5
-1.487, 1.104e-5
-1.488, 1.107e-5
-1.489, 1.121e-5
-1.490, 1.136e-5
-1.491, 1.145e-5
-1.492, 1.156e-5
-1.493, 1.167e-5
-1.494, 1.185e-5
-1.495, 1.195e-5
-1.496, 1.207e-5
-1.497, 1.222e-5
-1.498, 1.231e-5
-1.499, 1.244e-5
-1.500, 1.256e-5
-1.501, 1.267e-5
-1.502, 1.280e-5
-1.503, 1.293e-5
-1.504, 1.309e-5
-1.505, 1.332e-5
-1.506, 1.349e-5
-1.507, 1.358e-5
-1.508, 1.375e-5
-1.509, 1.389e-5
-1.510, 1.403e-5
-1.511, 1.414e-5
-1.512, 1.426e-5
-1.513, 1.447e-5
-1.514, 1.459e-5
-1.515, 1.480e-5
-1.516, 1.497e-5
-1.517, 1.513e-5
-1.518, 1.529e-5
-1.519, 1.540e-5
-1.520, 1.566e-5
-1.521, 1.575e-5
-1.522, 1.608e-5
-1.523, 1.625e-5
-1.524, 1.651e-5
-1.525, 1.672e-5
-1.526, 1.689e-5
-1.527, 1.704e-5
-1.528, 1.724e-5
-1.529, 1.743e-5
-1.530, 1.764e-5
-1.531, 1.785e-5
-1.532, 1.807e-5
-1.533, 1.829e-5
-1.534, 1.849e-5
-1.535, 1.866e-5
-1.536, 1.892e-5
-1.537, 1.922e-5
-1.538, 1.936e-5
-1.539, 1.962e-5
-1.540, 1.977e-5
-1.541, 2.003e-5
-1.542, 2.019e-5
-1.543, 2.042e-5
-1.544, 2.072e-5
-1.545, 2.101e-5
-1.546, 2.122e-5
-1.547, 2.147e-5
-1.548, 2.176e-5
-1.549, 2.198e-5
-1.550, 2.228e-5
-1.551, 2.256e-5
-1.552, 2.299e-5
-1.553, 2.358e-5
-1.554, 2.339e-5
-1.555, 2.363e-5
-1.556, 2.393e-5
-1.557, 2.427e-5
-1.558, 2.465e-5
-1.559, 2.500e-5
-1.560, 2.536e-5
-1.561, 2.575e-5
-1.562, 2.608e-5
-1.563, 2.633e-5
-1.564, 2.667e-5
-1.565, 2.707e-5
-1.566, 2.742e-5
-1.567, 2.767e-5
-1.568, 2.811e-5
-1.569, 2.856e-5
-1.570, 2.891e-5
-1.571, 2.927e-5
-1.572, 2.953e-5
-1.573, 2.991e-5
-1.574, 3.026e-5
-1.575, 3.064e-5
-1.576, 3.103e-5
-1.577, 3.136e-5
-1.578, 3.175e-5
-1.579, 3.216e-5
-1.580, 3.251e-5
-1.581, 3.289e-5
-1.582, 3.332e-5
-1.583, 3.374e-5
-1.584, 3.415e-5
-1.585, 3.453e-5
-1.586, 3.489e-5
-1.587, 3.538e-5
-1.588, 3.579e-5
-1.589, 3.618e-5
-1.590, 3.664e-5
-1.591, 3.723e-5
-1.592, 3.775e-5
-1.593, 3.832e-5
-1.594, 3.892e-5
-1.595, 3.944e-5
-1.596, 3.995e-5
-1.597, 4.008e-5
-1.598, 4.046e-5
-1.599, 4.103e-5
-1.600, 4.051e-5
-1.599, 3.989e-5
-1.598, 3.930e-5
-1.597, 3.872e-5
-1.596, 3.827e-5
-1.595, 3.780e-5
-1.594, 3.734e-5
-1.593, 3.674e-5
-1.592, 3.641e-5
-1.591, 3.591e-5
-1.590, 3.546e-5
-1.589, 3.490e-5
-1.588, 3.437e-5
-1.587, 3.392e-5
-1.586, 3.348e-5
-1.585, 3.323e-5
-1.584, 3.282e-5
-1.583, 3.234e-5
-1.582, 3.202e-5
-1.581, 3.174e-5
-1.580, 3.141e-5
-1.579, 3.093e-5
-1.578, 3.070e-5
-1.577, 3.032e-5
-1.576, 2.990e-5
-1.575, 2.959e-5
-1.574, 2.920e-5
-1.573, 2.884e-5
-1.572, 2.848e-5
-1.571, 2.828e-5
-1.570, 2.788e-5
-1.569, 2.759e-5
-1.568, 2.716e-5
-1.567, 2.682e-5
-1.566, 2.649e-5
-1.565, 2.606e-5
-1.564, 2.583e-5
-1.563, 2.533e-5
-1.562, 2.498e-5
-1.561, 2.483e-5
-1.560, 2.453e-5
-1.559, 2.414e-5
-1.558, 2.380e-5
-1.557, 2.345e-5
-1.556, 2.315e-5
-1.555, 2.290e-5
-1.554, 2.262e-5
-1.553, 2.233e-5
-1.552, 2.205e-5
-1.551, 2.182e-5
-1.550, 2.155e-5
-1.549, 2.146e-5
-1.548, 2.131e-5
-1.547, 2.098e-5
-1.546, 2.075e-5
-1.545, 2.041e-5
-1.544, 2.019e-5
-1.543, 1.992e-5
-1.542, 1.960e-5
-1.541, 1.945e-5
-1.540, 1.919e-5
-1.539, 1.899e-5
-1.538, 1.866e-5
-1.537, 1.843e-5
-1.536, 1.819e-5
-1.535, 1.796e-5
-1.534, 1.780e-5
-1.533, 1.756e-5
-1.532, 1.750e-5
-1.531, 1.730e-5
-1.530, 1.715e-5
-1.529, 1.690e-5
-1.528, 1.671e-5
-1.527, 1.650e-5
-1.526, 1.633e-5
-1.525, 1.620e-5
-1.524, 1.596e-5
-1.523, 1.576e-5
-1.522, 1.558e-5
-1.521, 1.548e-5
-1.520, 1.524e-5
-1.519, 1.512e-5
-1.518, 1.487e-5
-1.517, 1.474e-5
-1.516, 1.461e-5
-1.515, 1.436e-5
-1.514, 1.427e-5
-1.513, 1.402e-5
-1.512, 1.391e-5
-1.511, 1.371e-5
-1.510, 1.356e-5
-1.509, 1.340e-5
-1.508, 1.324e-5
-1.507, 1.314e-5
-1.506, 1.292e-5
-1.505, 1.270e-5
-1.504, 1.259e-5
-1.503, 1.240e-5
-1.502, 1.227e-5
-1.501, 1.214e-5
-1.500, 1.197e-5
-1.499, 1.176e-5
-1.498, 1.159e-5
-1.497, 1.139e-5
-1.496, 1.125e-5
-1.495, 1.111e-5
-1.494, 1.099e-5
-1.493, 1.080e-5
-1.492, 1.066e-5
-1.491, 1.054e-5
-1.490, 1.036e-5
-1.489, 1.020e-5
-1.488, 1.009e-5
-1.487, 9.974e-6
-1.486, 9.855e-6
-1.485, 9.693e-6
-1.484, 9.492e-6
-1.483, 9.369e-6
-1.482, 9.289e-6
-1.481, 9.110e-6
-1.480, 9.037e-6
-1.479, 8.922e-6
-1.478, 8.764e-6
-1.477, 8.694e-6
-1.476, 8.576e-6
-1.475, 8.492e-6
-1.474, 8.347e-6
-1.473, 8.219e-6
-1.472, 8.055e-6
-1.471, 7.954e-6
-1.470, 7.886e-6
-1.469, 7.786e-6
-1.468, 7.686e-6
-1.467, 7.570e-6
-1.466, 7.493e-6
-1.465, 7.366e-6
-1.464, 7.309e-6
-1.463, 7.207e-6
-1.462, 7.096e-6
-1.461, 7.016e-6
-1.460, 6.922e-6
-1.459, 6.840e-6
-1.458, 6.688e-6
-1.457, 6.618e-6
-1.456, 6.543e-6
-1.455, 6.473e-6
-1.454, 6.382e-6
-1.453, 6.306e-6
-1.452, 6.224e-6
-1.451, 6.134e-6
-1.450, 6.070e-6
-1.449, 6.014e-6
-1.448, 5.911e-6
-1.447, 5.801e-6
-1.446, 5.743e-6
-1.445, 5.691e-6
-1.444, 5.595e-6
-1.443, 5.584e-6
-1.442, 5.450e-6
-1.441, 5.414e-6
-1.440, 5.325e-6
-1.439, 5.245e-6
-1.438, 5.264e-6
-1.437, 5.147e-6
-1.436, 5.105e-6
-1.435, 5.011e-6
-1.434, 4.976e-6
-1.433, 4.885e-6
-1.432, 4.783e-6
-1.431, 4.758e-6
-1.430, 4.644e-6
-1.429, 4.618e-6
-1.428, 4.554e-6
-1.427, 4.489e-6
-1.426, 4.459e-6
-1.425, 4.396e-6
-1.424, 4.359e-6
-1.423, 4.248e-6
-1.422, 4.215e-6
-1.421, 4.154e-6
-1.420, 4.101e-6
-1.419, 4.041e-6
-1.418, 3.939e-6
-1.417, 3.902e-6
-1.416, 3.830e-6
-1.415, 3.813e-6
-1.414, 3.737e-6
-1.413, 3.681e-6
-1.412, 3.639e-6
-1.411, 3.601e-6
-1.410, 3.560e-6
-1.409, 3.493e-6
-1.408, 3.479e-6
-1.407, 3.380e-6
-1.406, 3.375e-6
-1.405, 3.283e-6
-1.404, 3.246e-6
-1.403, 3.198e-6
-1.402, 3.145e-6
-1.401, 3.138e-6
-1.400, 3.046e-6
-1.399, 3.029e-6
-1.398, 2.958e-6
-1.397, 2.945e-6
-1.396, 2.887e-6
-1.395, 2.850e-6
-1.394, 2.799e-6
-1.393, 2.708e-6
-1.392, 2.712e-6
-1.391, 2.655e-6
-1.390, 2.577e-6
-1.389, 2.512e-6
-1.388, 2.484e-6
-1.387, 2.468e-6
-1.386, 2.359e-6
-1.385, 2.355e-6
-1.384, 2.305e-6
-1.383, 2.267e-6
-1.382, 2.174e-6
-1.381, 2.227e-6
-1.380, 2.189e-6
-1.379, 2.112e-6
-1.378, 2.139e-6
-1.377, 2.089e-6
-1.376, 2.075e-6
-1.375, 2.004e-6
-1.374, 2.035e-6
-1.373, 1.990e-6
-1.372, 1.937e-6
-1.371, 1.981e-6
-1.370, 1.916e-6
-1.369, 1.924e-6
-1.368, 1.858e-6
-1.367, 1.830e-6
-1.366, 1.810e-6
-1.365, 1.775e-6
-1.364, 1.752e-6
-1.363, 1.681e-6
-1.362, 1.674e-6
-1.361, 1.616e-6
-1.360, 1.621e-6
-1.359, 1.584e-6
-1.358, 1.568e-6
-1.357, 1.511e-6
-1.356, 1.494e-6
-1.355, 1.498e-6
-1.354, 1.443e-6
-1.353, 1.429e-6
-1.352, 1.406e-6
-1.351, 1.378e-6
-1.350, 1.328e-6
-1.349, 1.300e-6
-1.348, 1.289e-6
-1.347, 1.257e-6
-1.346, 1.237e-6
-1.345, 1.196e-6
-1.344, 1.209e-6
-1.343, 1.183e-6
-1.342, 1.172e-6
-1.341, 1.184e-6
-1.340, 1.102e-6
-1.339, 1.122e-6
-1.338, 1.067e-6
-1.337, 1.068e-6
-1.336, 1.057e-6
-1.335, 1.030e-6
-1.334, 1.008e-6
-1.333, 9.943e-7
-1.332, 9.844e-7
-1.331, 9.104e-7
-1.330, 9.538e-7
-1.329, 9.163e-7
-1.328, 9.242e-7
-1.327, 9.006e-7
-1.326, 8.581e-7
-1.325, 8.680e-7
-1.324, 8.256e-7
-1.323, 8.414e-7
-1.322, 8.059e-7
-1.321, 8.315e-7
-1.320, 7.792e-7
-1.319, 7.920e-7
-1.318, 7.575e-7
-1.317, 7.309e-7
-1.316, 7.388e-7
-1.315, 7.032e-7
-1.314, 6.954e-7
-1.313, 7.032e-7
-1.312, 6.697e-7
-1.311, 6.736e-7
-1.310, 6.312e-7
-1.309, 6.875e-7
-1.308, 6.174e-7
-1.307, 6.184e-7
-1.306, 6.145e-7
-1.305, 5.957e-7
-1.304, 5.789e-7
-1.303, 5.720e-7
-1.302, 5.483e-7
-1.301, 5.345e-7
-1.300, 5.355e-7
-1.299, 5.395e-7
-1.298, 5.099e-7
-1.297, 4.990e-7
-1.296, 4.832e-7
-1.295, 5.089e-7
-1.294, 4.507e-7
-1.293, 4.911e-7
-1.292, 4.674e-7
-1.291, 4.497e-7
-1.290, 4.270e-7
-1.289, 4.438e-7
-1.288, 4.566e-7
-1.287, 4.004e-7
-1.286, 4.280e-7
-1.285, 3.865e-7
-1.284, 4.004e-7
-1.283, 3.648e-7
-1.282, 3.767e-7
-1.281, 3.609e-7
-1.280, 3.303e-7
-1.279, 3.767e-7
-1.278, 3.283e-7
-1.277, 3.244e-7
-1.276, 3.007e-7
-1.275, 3.274e-7
-1.274, 3.076e-7
-1.273, 2.790e-7
-1.272, 2.780e-7
-1.271, 2.711e-7
-1.270, 2.997e-7
-1.269, 2.701e-7
-1.268, 2.731e-7
-1.267, 2.583e-7
-1.266, 2.573e-7
-1.265, 2.563e-7
-1.264, 2.257e-7
-1.263, 2.455e-7
-1.262, 2.336e-7
-1.261, 2.346e-7
-1.260, 1.912e-7
-1.259, 2.395e-7
-1.258, 2.060e-7
-1.257, 1.863e-7
-1.256, 2.030e-7
-1.255, 1.577e-7
-1.254, 2.030e-7
-1.253, 1.557e-7
-1.252, 1.754e-7
-1.251, 1.547e-7
-1.250, 1.498e-7
-1.249, 1.705e-7
-1.248, 1.478e-7
-1.247, 1.744e-7
-1.246, 1.152e-7
-1.245, 1.794e-7
-1.244, 1.192e-7
-1.243, 1.251e-7
-1.242, 1.221e-7
-1.241, 1.093e-7
-1.240, 1.360e-7
-1.239, 8.860e-8
-1.238, 1.093e-7
-1.237, 1.083e-7
-1.236, 8.860e-8
-1.235, 8.070e-8
-1.234, 9.846e-8
-1.233, 7.676e-8
-1.232, 8.860e-8
-1.231, 1.044e-7
-1.230, 6.294e-8
-1.229, 6.886e-8
-1.228, 5.604e-8
-1.227, 7.084e-8
-1.226, 6.393e-8
-1.225, 5.111e-8
-1.224, 6.196e-8
-1.223, 3.236e-8
-1.222, 3.039e-8
-1.221, 1.460e-8
-1.220, 6.492e-8
-1.219, 2.545e-8
-1.218, 2.447e-8
-1.217, 1.756e-8
-1.216, 2.052e-8
-1.215, 3.631e-8
-1.214, -2.171e-9
-1.213, 1.362e-8
-1.212, 8.682e-9
-1.211, 6.709e-9
-1.210, 9.669e-9
-1.209, 6.709e-9
-1.208, 3.749e-9
-1.207, -4.163e-8
-1.206, 5.722e-9
-1.205, -2.881e-8
-1.204, 1.460e-8
-1.203, -4.657e-8
-1.202, -1.697e-8
-1.201, -3.473e-8
-1.200, -3.769e-8
-1.199, -7.103e-9
-1.198, -5.150e-8
-1.197, -3.966e-8
-1.196, -6.137e-8
-1.195, -4.755e-8
-1.194, -3.769e-8
-1.193, -5.249e-8
-1.192, -2.289e-8
-1.191, -7.025e-8
-1.190, -5.545e-8
-1.189, -6.433e-8
-1.188, -5.249e-8
-1.187, -6.038e-8
-1.186, -6.235e-8
-1.185, -4.953e-8
-1.184, -9.590e-8
-1.183, -7.617e-8
-1.182, -1.215e-7
-1.181, -7.715e-8
-1.180, -7.222e-8
-1.179, -6.137e-8
-1.178, -8.998e-8
-1.177, -9.195e-8
-1.176, -8.110e-8
-1.175, -1.186e-7
-1.174, -8.800e-8
-1.173, -9.984e-8
-1.172, -1.166e-7
-1.171, -1.176e-7
-1.170, -8.899e-8
-1.169, -1.028e-7
-1.168, -1.492e-7
-1.167, -1.156e-7
-1.166, -1.265e-7
-1.165, -1.344e-7
-1.164, -1.265e-7
-1.163, -1.235e-7
-1.162, -1.620e-7
-1.161, -1.304e-7
-1.160, -1.127e-7
-1.159, -1.363e-7
-1.158, -1.442e-7
-1.157, -1.482e-7
-1.156, -1.235e-7
-1.155, -1.650e-7
-1.154, -1.462e-7
-1.153, -1.472e-7
-1.152, -1.502e-7
-1.151, -1.590e-7
-1.150, -1.729e-7
-1.149, -1.442e-7
-1.148, -1.906e-7
-1.147, -1.600e-7
-1.146, -2.064e-7
-1.145, -1.551e-7
-1.144, -1.650e-7
-1.143, -1.817e-7
-1.142, -1.778e-7
-1.141, -1.807e-7
-1.140, -1.650e-7
-1.139, -2.103e-7
-1.138, -1.798e-7
-1.137, -1.837e-7
-1.136, -1.936e-7
-1.135, -1.955e-7
-1.134, -1.817e-7
-1.133, -1.946e-7
-1.132, -2.034e-7
-1.131, -1.709e-7
-1.130, -2.153e-7
-1.129, -2.113e-7
-1.128, -2.468e-7
-1.127, -2.222e-7
-1.126, -2.330e-7
-1.125, -2.222e-7
-1.124, -2.074e-7
-1.123, -2.202e-7
-1.122, -2.311e-7
-1.121, -2.587e-7
-1.120, -2.113e-7
-1.119, -2.399e-7
-1.118, -2.380e-7
-1.117, -2.340e-7
-1.116, -2.340e-7
-1.115, -2.232e-7
-1.114, -2.784e-7
-1.113, -2.350e-7
-1.112, -2.478e-7
-1.111, -2.597e-7
-1.110, -2.705e-7
-1.109, -2.528e-7
-1.108, -2.597e-7
-1.107, -2.735e-7
-1.106, -2.468e-7
-1.105, -2.893e-7
-1.104, -2.686e-7
-1.103, -2.834e-7
-1.102, -2.676e-7
-1.101, -2.705e-7
-1.100, -3.070e-7
-1.099, -2.607e-7
-1.098, -2.932e-7
-1.097, -3.080e-7
-1.096, -2.952e-7
-1.095, -2.745e-7
-1.094, -2.991e-7
-1.093, -3.080e-7
-1.092, -2.853e-7
-1.091, -3.169e-7
-1.090, -3.080e-7
-1.089, -3.327e-7
-1.088, -2.952e-7
-1.087, -3.248e-7
-1.086, -3.268e-7
-1.085, -3.238e-7
-1.084, -3.297e-7
-1.083, -3.366e-7
-1.082, -3.416e-7
-1.081, -3.070e-7
-1.080, -3.425e-7
-1.079, -3.317e-7
-1.078, -3.199e-7
-1.077, -3.455e-7
-1.076, -3.504e-7
-1.075, -3.662e-7
-1.074, -3.396e-7
-1.073, -3.712e-7
-1.072, -3.633e-7
-1.071, -3.475e-7
-1.070, -3.810e-7
-1.069, -3.504e-7
-1.068, -3.830e-7
-1.067, -3.712e-7
-1.066, -3.800e-7
-1.065, -3.554e-7
-1.064, -3.564e-7
-1.063, -4.037e-7
-1.062, -3.712e-7
-1.061, -4.037e-7
-1.060, -3.721e-7
-1.059, -3.988e-7
-1.058, -3.860e-7
-1.057, -3.998e-7
-1.056, -4.146e-7
-1.055, -3.850e-7
-1.054, -4.274e-7
-1.053, -4.067e-7
-1.052, -4.185e-7
-1.051, -4.116e-7
-1.050, -4.304e-7
-1.049, -4.195e-7
-1.048, -3.781e-7
-1.047, -4.215e-7
-1.046, -4.333e-7
-1.045, -4.412e-7
-1.044, -3.919e-7
-1.043, -4.382e-7
-1.042, -4.225e-7
-1.041, -4.363e-7
-1.040, -4.521e-7
-1.039, -4.215e-7
-1.038, -4.412e-7
-1.037, -4.205e-7
-1.036, -4.639e-7
-1.035, -4.373e-7
-1.034, -4.432e-7
-1.033, -4.600e-7
-1.032, -4.560e-7
-1.031, -4.570e-7
-1.030, -4.323e-7
-1.029, -4.935e-7
-1.028, -4.402e-7
-1.027, -4.649e-7
-1.026, -4.481e-7
-1.025, -4.728e-7
-1.024, -4.698e-7
-1.023, -4.708e-7
-1.022, -4.817e-7
-1.021, -4.649e-7
-1.020, -4.876e-7
-1.019, -4.728e-7
-1.018, -5.083e-7
-1.017, -4.826e-7
-1.016, -4.925e-7
-1.015, -4.826e-7
-1.014, -4.974e-7
-1.013, -5.162e-7
-1.012, -4.945e-7
-1.011, -5.162e-7
-1.010, -4.817e-7
-1.009, -4.895e-7
-1.008, -4.955e-7
-1.007, -5.043e-7
-1.006, -5.053e-7
-1.005, -5.290e-7
-1.004, -5.270e-7
-1.003, -4.836e-7
-1.002, -5.201e-7
-1.001, -5.162e-7
