July 16, 2024   16:32:58
Cyclic Voltammetry
File: c:/users/guazh/data/20240709_batch67/2024-07-10-exp63\exp63-2024-07-16t16_23_17-arkoh\exp63_cv_sr_100mvs_efin_-1500mv.bin
Data Source:  Experiment
Instrument Model:  CHI760E
Header: CV ran at 100 mVs
Note: 

Init E (V) = -1
High E (V) = -1
Low E (V) = -1.5
Final E (V) = -1
Init P/N = N
Scan Rate (V/s) = 0.1
Segment = 3
Sample Interval (V) = 0.001
Quiet Time (sec) = 2
Sensitivity (A/V) = 0.01
Comp R (ohm) = 1.5

Results:

Channel 1:
Segment 1:

Segment 2:

Segment 3:

Potential/V, Current/A

-1.000, 7.250e-6
-1.001, 3.009e-5
-1.002, 2.744e-5
-1.003, 3.024e-5
-1.004, 3.450e-5
-1.005, 2.906e-5
-1.006, 3.756e-5
-1.007, 3.299e-5
-1.008, 3.491e-5
-1.009, 3.830e-5
-1.010, 3.269e-5
-1.011, 4.075e-5
-1.012, 3.579e-5
-1.013, 3.772e-5
-1.014, 4.112e-5
-1.015, 3.529e-5
-1.016, 4.288e-5
-1.017, 3.794e-5
-1.018, 3.996e-5
-1.019, 4.278e-5
-1.020, 3.708e-5
-1.021, 4.466e-5
-1.022, 3.936e-5
-1.023, 4.150e-5
-1.024, 4.475e-5
-1.025, 3.840e-5
-1.026, 4.641e-5
-1.027, 4.048e-5
-1.028, 4.290e-5
-1.029, 4.544e-5
-1.030, 3.937e-5
-1.031, 4.745e-5
-1.032, 4.134e-5
-1.033, 4.343e-5
-1.034, 4.641e-5
-1.035, 4.034e-5
-1.036, 4.798e-5
-1.037, 4.245e-5
-1.038, 4.421e-5
-1.039, 4.730e-5
-1.040, 4.095e-5
-1.041, 4.849e-5
-1.042, 4.300e-5
-1.043, 4.468e-5
-1.044, 4.790e-5
-1.045, 4.140e-5
-1.046, 4.900e-5
-1.047, 4.359e-5
-1.048, 4.541e-5
-1.049, 4.818e-5
-1.050, 4.214e-5
-1.051, 4.957e-5
-1.052, 4.430e-5
-1.053, 4.606e-5
-1.054, 4.851e-5
-1.055, 4.281e-5
-1.056, 5.000e-5
-1.057, 4.420e-5
-1.058, 4.649e-5
-1.059, 4.862e-5
-1.060, 4.320e-5
-1.061, 5.030e-5
-1.062, 4.468e-5
-1.063, 4.686e-5
-1.064, 4.912e-5
-1.065, 4.338e-5
-1.066, 5.088e-5
-1.067, 4.491e-5
-1.068, 4.722e-5
-1.069, 4.957e-5
-1.070, 4.361e-5
-1.071, 5.118e-5
-1.072, 4.514e-5
-1.073, 4.753e-5
-1.074, 4.991e-5
-1.075, 4.454e-5
-1.076, 5.180e-5
-1.077, 4.564e-5
-1.078, 4.780e-5
-1.079, 5.040e-5
-1.080, 4.424e-5
-1.081, 5.197e-5
-1.082, 4.610e-5
-1.083, 4.813e-5
-1.084, 5.048e-5
-1.085, 4.470e-5
-1.086, 5.217e-5
-1.087, 4.644e-5
-1.088, 4.859e-5
-1.089, 5.105e-5
-1.090, 4.523e-5
-1.091, 5.249e-5
-1.092, 4.671e-5
-1.093, 4.883e-5
-1.094, 5.126e-5
-1.095, 4.590e-5
-1.096, 5.290e-5
-1.097, 4.710e-5
-1.098, 4.957e-5
-1.099, 5.167e-5
-1.100, 4.598e-5
-1.101, 5.350e-5
-1.102, 4.749e-5
-1.103, 4.992e-5
-1.104, 5.198e-5
-1.105, 4.653e-5
-1.106, 5.395e-5
-1.107, 4.781e-5
-1.108, 5.044e-5
-1.109, 5.222e-5
-1.110, 4.690e-5
-1.111, 5.432e-5
-1.112, 4.815e-5
-1.113, 5.049e-5
-1.114, 5.306e-5
-1.115, 4.712e-5
-1.116, 5.485e-5
-1.117, 4.865e-5
-1.118, 5.110e-5
-1.119, 5.382e-5
-1.120, 4.773e-5
-1.121, 5.529e-5
-1.122, 4.946e-5
-1.123, 5.164e-5
-1.124, 5.394e-5
-1.125, 4.836e-5
-1.126, 5.586e-5
-1.127, 4.999e-5
-1.128, 5.214e-5
-1.129, 5.455e-5
-1.130, 4.895e-5
-1.131, 5.635e-5
-1.132, 5.054e-5
-1.133, 5.301e-5
-1.134, 5.496e-5
-1.135, 4.986e-5
-1.136, 5.679e-5
-1.137, 5.097e-5
-1.138, 5.384e-5
-1.139, 5.552e-5
-1.140, 5.050e-5
-1.141, 5.761e-5
-1.142, 5.183e-5
-1.143, 5.434e-5
-1.144, 5.631e-5
-1.145, 5.096e-5
-1.146, 5.859e-5
-1.147, 5.228e-5
-1.148, 5.527e-5
-1.149, 5.701e-5
-1.150, 5.166e-5
-1.151, 5.952e-5
-1.152, 5.309e-5
-1.153, 5.590e-5
-1.154, 5.808e-5
-1.155, 5.248e-5
-1.156, 6.012e-5
-1.157, 5.391e-5
-1.158, 5.684e-5
-1.159, 5.917e-5
-1.160, 5.332e-5
-1.161, 6.085e-5
-1.162, 5.514e-5
-1.163, 5.769e-5
-1.164, 5.992e-5
-1.165, 5.451e-5
-1.166, 6.200e-5
-1.167, 5.617e-5
-1.168, 5.877e-5
-1.169, 6.098e-5
-1.170, 5.543e-5
-1.171, 6.302e-5
-1.172, 5.734e-5
-1.173, 5.996e-5
-1.174, 6.199e-5
-1.175, 5.680e-5
-1.176, 6.422e-5
-1.177, 5.853e-5
-1.178, 6.162e-5
-1.179, 6.334e-5
-1.180, 5.834e-5
-1.181, 6.569e-5
-1.182, 5.969e-5
-1.183, 6.281e-5
-1.184, 6.448e-5
-1.185, 5.977e-5
-1.186, 6.724e-5
-1.187, 6.084e-5
-1.188, 6.456e-5
-1.189, 6.637e-5
-1.190, 6.113e-5
-1.191, 6.932e-5
-1.192, 6.262e-5
-1.193, 6.611e-5
-1.194, 6.824e-5
-1.195, 6.287e-5
-1.196, 7.097e-5
-1.197, 6.465e-5
-1.198, 6.823e-5
-1.199, 7.013e-5
-1.200, 6.500e-5
-1.201, 7.280e-5
-1.202, 6.692e-5
-1.203, 7.039e-5
-1.204, 7.244e-5
-1.205, 6.741e-5
-1.206, 7.492e-5
-1.207, 6.945e-5
-1.208, 7.271e-5
-1.209, 7.481e-5
-1.210, 7.017e-5
-1.211, 7.766e-5
-1.212, 7.219e-5
-1.213, 7.553e-5
-1.214, 7.726e-5
-1.215, 7.308e-5
-1.216, 8.066e-5
-1.217, 7.497e-5
-1.218, 7.874e-5
-1.219, 8.061e-5
-1.220, 7.620e-5
-1.221, 8.385e-5
-1.222, 7.816e-5
-1.223, 8.258e-5
-1.224, 8.395e-5
-1.225, 7.957e-5
-1.226, 8.788e-5
-1.227, 8.199e-5
-1.228, 8.665e-5
-1.229, 8.881e-5
-1.230, 8.395e-5
-1.231, 9.225e-5
-1.232, 8.623e-5
-1.233, 9.086e-5
-1.234, 9.296e-5
-1.235, 8.827e-5
-1.236, 9.692e-5
-1.237, 9.113e-5
-1.238, 9.552e-5
-1.239, 9.800e-5
-1.240, 9.349e-5
-1.241, 1.020e-4
-1.242, 9.667e-5
-1.243, 1.013e-4
-1.244, 1.036e-4
-1.245, 9.958e-5
-1.246, 1.078e-4
-1.247, 1.028e-4
-1.248, 1.074e-4
-1.249, 1.099e-4
-1.250, 1.064e-4
-1.251, 1.145e-4
-1.252, 1.098e-4
-1.253, 1.148e-4
-1.254, 1.170e-4
-1.255, 1.138e-4
-1.256, 1.223e-4
-1.257, 1.173e-4
-1.258, 1.229e-4
-1.259, 1.253e-4
-1.260, 1.222e-4
-1.261, 1.310e-4
-1.262, 1.261e-4
-1.263, 1.321e-4
-1.264, 1.347e-4
-1.265, 1.315e-4
-1.266, 1.411e-4
-1.267, 1.362e-4
-1.268, 1.424e-4
-1.269, 1.450e-4
-1.270, 1.424e-4
-1.271, 1.521e-4
-1.272, 1.475e-4
-1.273, 1.540e-4
-1.274, 1.572e-4
-1.275, 1.545e-4
-1.276, 1.647e-4
-1.277, 1.605e-4
-1.278, 1.672e-4
-1.279, 1.709e-4
-1.280, 1.688e-4
-1.281, 1.789e-4
-1.282, 1.752e-4
-1.283, 1.823e-4
-1.284, 1.861e-4
-1.285, 1.844e-4
-1.286, 1.950e-4
-1.287, 1.918e-4
-1.288, 1.989e-4
-1.289, 2.033e-4
-1.290, 2.020e-4
-1.291, 2.129e-4
-1.292, 2.100e-4
-1.293, 2.181e-4
-1.294, 2.223e-4
-1.295, 2.220e-4
-1.296, 2.328e-4
-1.297, 2.306e-4
-1.298, 2.391e-4
-1.299, 2.437e-4
-1.300, 2.439e-4
-1.301, 2.557e-4
-1.302, 2.533e-4
-1.303, 2.629e-4
-1.304, 2.678e-4
-1.305, 2.685e-4
-1.306, 2.810e-4
-1.307, 2.794e-4
-1.308, 2.892e-4
-1.309, 2.949e-4
-1.310, 2.960e-4
-1.311, 3.092e-4
-1.312, 3.080e-4
-1.313, 3.186e-4
-1.314, 3.250e-4
-1.315, 3.265e-4
-1.316, 3.403e-4
-1.317, 3.397e-4
-1.318, 3.511e-4
-1.319, 3.577e-4
-1.320, 3.599e-4
-1.321, 3.742e-4
-1.322, 3.750e-4
-1.323, 3.868e-4
-1.324, 3.944e-4
-1.325, 3.975e-4
-1.326, 4.116e-4
-1.327, 4.127e-4
-1.328, 4.252e-4
-1.329, 4.334e-4
-1.330, 4.376e-4
-1.331, 4.530e-4
-1.332, 4.547e-4
-1.333, 4.679e-4
-1.334, 4.763e-4
-1.335, 4.816e-4
-1.336, 4.974e-4
-1.337, 4.998e-4
-1.338, 5.141e-4
-1.339, 5.232e-4
-1.340, 5.290e-4
-1.341, 5.459e-4
-1.342, 5.490e-4
-1.343, 5.642e-4
-1.344, 5.739e-4
-1.345, 5.806e-4
-1.346, 5.982e-4
-1.347, 6.017e-4
-1.348, 6.174e-4
-1.349, 6.279e-4
-1.350, 6.355e-4
-1.351, 6.540e-4
-1.352, 6.583e-4
-1.353, 6.752e-4
-1.354, 6.864e-4
-1.355, 6.946e-4
-1.356, 7.133e-4
-1.357, 7.181e-4
-1.358, 7.362e-4
-1.359, 7.488e-4
-1.360, 7.575e-4
-1.361, 7.773e-4
-1.362, 7.838e-4
-1.363, 8.021e-4
-1.364, 8.153e-4
-1.365, 8.255e-4
-1.366, 8.461e-4
-1.367, 8.530e-4
-1.368, 8.720e-4
-1.369, 8.851e-4
-1.370, 8.965e-4
-1.371, 9.181e-4
-1.372, 9.258e-4
-1.373, 9.460e-4
-1.374, 9.606e-4
-1.375, 9.737e-4
-1.376, 9.954e-4
-1.377, 1.004e-3
-1.378, 1.025e-3
-1.379, 1.039e-3
-1.380, 1.052e-3
-1.381, 1.074e-3
-1.382, 1.085e-3
-1.383, 1.107e-3
-1.384, 1.123e-3
-1.385, 1.137e-3
-1.386, 1.161e-3
-1.387, 1.171e-3
-1.388, 1.194e-3
-1.389, 1.209e-3
-1.390, 1.223e-3
-1.391, 1.247e-3
-1.392, 1.258e-3
-1.393, 1.282e-3
-1.394, 1.299e-3
-1.395, 1.315e-3
-1.396, 1.341e-3
-1.397, 1.353e-3
-1.398, 1.378e-3
-1.399, 1.397e-3
-1.400, 1.414e-3
-1.401, 1.439e-3
-1.402, 1.453e-3
-1.403, 1.478e-3
-1.404, 1.497e-3
-1.405, 1.515e-3
-1.406, 1.542e-3
-1.407, 1.556e-3
-1.408, 1.583e-3
-1.409, 1.603e-3
-1.410, 1.623e-3
-1.411, 1.651e-3
-1.412, 1.666e-3
-1.413, 1.693e-3
-1.414, 1.714e-3
-1.415, 1.735e-3
-1.416, 1.764e-3
-1.417, 1.780e-3
-1.418, 1.809e-3
-1.419, 1.831e-3
-1.420, 1.852e-3
-1.421, 1.882e-3
-1.422, 1.899e-3
-1.423, 1.929e-3
-1.424, 1.951e-3
-1.425, 1.974e-3
-1.426, 2.005e-3
-1.427, 2.023e-3
-1.428, 2.055e-3
-1.429, 2.078e-3
-1.430, 2.102e-3
-1.431, 2.133e-3
-1.432, 2.153e-3
-1.433, 2.185e-3
-1.434, 2.210e-3
-1.435, 2.235e-3
-1.436, 2.268e-3
-1.437, 2.287e-3
-1.438, 2.321e-3
-1.439, 2.347e-3
-1.440, 2.373e-3
-1.441, 2.408e-3
-1.442, 2.430e-3
-1.443, 2.465e-3
-1.444, 2.492e-3
-1.445, 2.518e-3
-1.446, 2.553e-3
-1.447, 2.576e-3
-1.448, 2.611e-3
-1.449, 2.640e-3
-1.450, 2.670e-3
-1.451, 2.706e-3
-1.452, 2.731e-3
-1.453, 2.767e-3
-1.454, 2.794e-3
-1.455, 2.823e-3
-1.456, 2.861e-3
-1.457, 2.887e-3
-1.458, 2.926e-3
-1.459, 2.956e-3
-1.460, 2.988e-3
-1.461, 3.026e-3
-1.462, 3.053e-3
-1.463, 3.093e-3
-1.464, 3.123e-3
-1.465, 3.157e-3
-1.466, 3.197e-3
-1.467, 3.225e-3
-1.468, 3.266e-3
-1.469, 3.299e-3
-1.470, 3.333e-3
-1.471, 3.373e-3
-1.472, 3.402e-3
-1.473, 3.445e-3
-1.474, 3.476e-3
-1.475, 3.511e-3
-1.476, 3.553e-3
-1.477, 3.580e-3
-1.478, 3.623e-3
-1.479, 3.657e-3
-1.480, 3.697e-3
-1.481, 3.743e-3
-1.482, 3.774e-3
-1.483, 3.819e-3
-1.484, 3.856e-3
-1.485, 3.896e-3
-1.486, 3.941e-3
-1.487, 3.976e-3
-1.488, 4.022e-3
-1.489, 4.059e-3
-1.490, 4.096e-3
-1.491, 4.141e-3
-1.492, 4.177e-3
-1.493, 4.226e-3
-1.494, 4.265e-3
-1.495, 4.308e-3
-1.496, 4.354e-3
-1.497, 4.390e-3
-1.498, 4.441e-3
-1.499, 4.481e-3
-1.500, 4.458e-3
-1.499, 4.395e-3
-1.498, 4.335e-3
-1.497, 4.287e-3
-1.496, 4.230e-3
-1.495, 4.177e-3
-1.494, 4.127e-3
-1.493, 4.069e-3
-1.492, 4.024e-3
-1.491, 3.970e-3
-1.490, 3.921e-3
-1.489, 3.875e-3
-1.488, 3.820e-3
-1.487, 3.783e-3
-1.486, 3.734e-3
-1.485, 3.688e-3
-1.484, 3.646e-3
-1.483, 3.594e-3
-1.482, 3.555e-3
-1.481, 3.503e-3
-1.480, 3.460e-3
-1.479, 3.423e-3
-1.478, 3.374e-3
-1.477, 3.339e-3
-1.476, 3.294e-3
-1.475, 3.250e-3
-1.474, 3.213e-3
-1.473, 3.163e-3
-1.472, 3.129e-3
-1.471, 3.085e-3
-1.470, 3.046e-3
-1.469, 3.011e-3
-1.468, 2.965e-3
-1.467, 2.936e-3
-1.466, 2.894e-3
-1.465, 2.856e-3
-1.464, 2.825e-3
-1.463, 2.784e-3
-1.462, 2.756e-3
-1.461, 2.718e-3
-1.460, 2.682e-3
-1.459, 2.651e-3
-1.458, 2.610e-3
-1.457, 2.583e-3
-1.456, 2.545e-3
-1.455, 2.511e-3
-1.454, 2.482e-3
-1.453, 2.443e-3
-1.452, 2.417e-3
-1.451, 2.381e-3
-1.450, 2.349e-3
-1.449, 2.322e-3
-1.448, 2.285e-3
-1.447, 2.261e-3
-1.446, 2.228e-3
-1.445, 2.198e-3
-1.444, 2.173e-3
-1.443, 2.137e-3
-1.442, 2.115e-3
-1.441, 2.083e-3
-1.440, 2.055e-3
-1.439, 2.032e-3
-1.438, 1.999e-3
-1.437, 1.978e-3
-1.436, 1.947e-3
-1.435, 1.919e-3
-1.434, 1.898e-3
-1.433, 1.866e-3
-1.432, 1.847e-3
-1.431, 1.819e-3
-1.430, 1.793e-3
-1.429, 1.773e-3
-1.428, 1.742e-3
-1.427, 1.724e-3
-1.426, 1.697e-3
-1.425, 1.673e-3
-1.424, 1.655e-3
-1.423, 1.625e-3
-1.422, 1.608e-3
-1.421, 1.583e-3
-1.420, 1.560e-3
-1.419, 1.542e-3
-1.418, 1.513e-3
-1.417, 1.498e-3
-1.416, 1.474e-3
-1.415, 1.452e-3
-1.414, 1.436e-3
-1.413, 1.409e-3
-1.412, 1.396e-3
-1.411, 1.372e-3
-1.410, 1.352e-3
-1.409, 1.336e-3
-1.408, 1.311e-3
-1.407, 1.298e-3
-1.406, 1.276e-3
-1.405, 1.256e-3
-1.404, 1.243e-3
-1.403, 1.218e-3
-1.402, 1.206e-3
-1.401, 1.186e-3
-1.400, 1.169e-3
-1.399, 1.156e-3
-1.398, 1.133e-3
-1.397, 1.122e-3
-1.396, 1.102e-3
-1.395, 1.085e-3
-1.394, 1.073e-3
-1.393, 1.050e-3
-1.392, 1.040e-3
-1.391, 1.021e-3
-1.390, 1.005e-3
-1.389, 9.951e-4
-1.388, 9.731e-4
-1.387, 9.665e-4
-1.386, 9.472e-4
-1.385, 9.310e-4
-1.384, 9.214e-4
-1.383, 8.997e-4
-1.382, 8.919e-4
-1.381, 8.741e-4
-1.380, 8.596e-4
-1.379, 8.512e-4
-1.378, 8.312e-4
-1.377, 8.233e-4
-1.376, 8.067e-4
-1.375, 7.928e-4
-1.374, 7.842e-4
-1.373, 7.651e-4
-1.372, 7.588e-4
-1.371, 7.431e-4
-1.370, 7.302e-4
-1.369, 7.225e-4
-1.368, 7.042e-4
-1.367, 6.987e-4
-1.366, 6.837e-4
-1.365, 6.714e-4
-1.364, 6.647e-4
-1.363, 6.465e-4
-1.362, 6.419e-4
-1.361, 6.272e-4
-1.360, 6.159e-4
-1.359, 6.100e-4
-1.358, 5.928e-4
-1.357, 5.890e-4
-1.356, 5.747e-4
-1.355, 5.637e-4
-1.354, 5.591e-4
-1.353, 5.419e-4
-1.352, 5.381e-4
-1.351, 5.258e-4
-1.350, 5.154e-4
-1.349, 5.110e-4
-1.348, 4.946e-4
-1.347, 4.918e-4
-1.346, 4.796e-4
-1.345, 4.692e-4
-1.344, 4.657e-4
-1.343, 4.499e-4
-1.342, 4.476e-4
-1.341, 4.359e-4
-1.340, 4.267e-4
-1.339, 4.231e-4
-1.338, 4.085e-4
-1.337, 4.065e-4
-1.336, 3.953e-4
-1.335, 3.869e-4
-1.334, 3.837e-4
-1.333, 3.695e-4
-1.332, 3.681e-4
-1.331, 3.569e-4
-1.330, 3.494e-4
-1.329, 3.464e-4
-1.328, 3.326e-4
-1.327, 3.320e-4
-1.326, 3.212e-4
-1.325, 3.142e-4
-1.324, 3.117e-4
-1.323, 2.983e-4
-1.322, 2.990e-4
-1.321, 2.882e-4
-1.320, 2.813e-4
-1.319, 2.798e-4
-1.318, 2.667e-4
-1.317, 2.670e-4
-1.316, 2.572e-4
-1.315, 2.505e-4
-1.314, 2.498e-4
-1.313, 2.370e-4
-1.312, 2.381e-4
-1.311, 2.288e-4
-1.310, 2.224e-4
-1.309, 2.221e-4
-1.308, 2.099e-4
-1.307, 2.112e-4
-1.306, 2.024e-4
-1.305, 1.964e-4
-1.304, 1.968e-4
-1.303, 1.849e-4
-1.302, 1.866e-4
-1.301, 1.779e-4
-1.300, 1.725e-4
-1.299, 1.723e-4
-1.298, 1.609e-4
-1.297, 1.631e-4
-1.296, 1.550e-4
-1.295, 1.502e-4
-1.294, 1.506e-4
-1.293, 1.397e-4
-1.292, 1.421e-4
-1.291, 1.340e-4
-1.290, 1.296e-4
-1.289, 1.303e-4
-1.288, 1.197e-4
-1.287, 1.228e-4
-1.286, 1.149e-4
-1.285, 1.113e-4
-1.284, 1.122e-4
-1.283, 1.017e-4
-1.282, 1.053e-4
-1.281, 9.741e-5
-1.280, 9.358e-5
-1.279, 9.544e-5
-1.278, 8.493e-5
-1.277, 8.890e-5
-1.276, 8.172e-5
-1.275, 7.822e-5
-1.274, 8.003e-5
-1.273, 6.988e-5
-1.272, 7.417e-5
-1.271, 6.731e-5
-1.270, 6.409e-5
-1.269, 6.604e-5
-1.268, 5.650e-5
-1.267, 6.086e-5
-1.266, 5.408e-5
-1.265, 5.123e-5
-1.264, 5.370e-5
-1.263, 4.413e-5
-1.262, 4.857e-5
-1.261, 4.209e-5
-1.260, 3.971e-5
-1.259, 4.206e-5
-1.258, 3.302e-5
-1.257, 3.762e-5
-1.256, 3.142e-5
-1.255, 2.918e-5
-1.254, 3.150e-5
-1.253, 2.274e-5
-1.252, 2.801e-5
-1.251, 2.146e-5
-1.250, 1.967e-5
-1.249, 2.228e-5
-1.248, 1.354e-5
-1.247, 1.906e-5
-1.246, 1.267e-5
-1.245, 1.130e-5
-1.244, 1.405e-5
-1.243, 5.316e-6
-1.242, 1.098e-5
-1.241, 4.892e-6
-1.240, 3.787e-6
-1.239, 6.815e-6
-1.238, -2.103e-6
-1.237, 4.152e-6
-1.236, -1.965e-6
-1.235, -2.932e-6
-1.234, 3.749e-8
-1.233, -8.329e-6
-1.232, -2.113e-6
-1.231, -7.855e-6
-1.230, -9.345e-6
-1.229, -6.563e-6
-1.228, -1.407e-5
-1.227, -7.885e-6
-1.226, -1.340e-5
-1.225, -1.457e-5
-1.224, -1.132e-5
-1.223, -1.899e-5
-1.222, -1.318e-5
-1.221, -1.850e-5
-1.220, -1.898e-5
-1.219, -1.585e-5
-1.218, -2.378e-5
-1.217, -1.748e-5
-1.216, -2.280e-5
-1.215, -2.339e-5
-1.214, -2.017e-5
-1.213, -2.751e-5
-1.212, -2.158e-5
-1.211, -2.682e-5
-1.210, -2.712e-5
-1.209, -2.409e-5
-1.208, -3.132e-5
-1.207, -2.504e-5
-1.206, -3.028e-5
-1.205, -3.047e-5
-1.204, -2.727e-5
-1.203, -3.489e-5
-1.202, -2.809e-5
-1.201, -3.383e-5
-1.200, -3.369e-5
-1.199, -3.033e-5
-1.198, -3.797e-5
-1.197, -3.095e-5
-1.196, -3.659e-5
-1.195, -3.670e-5
-1.194, -3.304e-5
-1.193, -4.058e-5
-1.192, -3.370e-5
-1.191, -3.906e-5
-1.190, -3.940e-5
-1.189, -3.567e-5
-1.188, -4.284e-5
-1.187, -3.634e-5
-1.186, -4.161e-5
-1.185, -4.156e-5
-1.184, -3.819e-5
-1.183, -4.512e-5
-1.182, -3.872e-5
-1.181, -4.369e-5
-1.180, -4.388e-5
-1.179, -4.041e-5
-1.178, -4.782e-5
-1.177, -4.077e-5
-1.176, -4.601e-5
-1.175, -4.591e-5
-1.174, -4.241e-5
-1.173, -4.956e-5
-1.172, -4.268e-5
-1.171, -4.812e-5
-1.170, -4.752e-5
-1.169, -4.439e-5
-1.168, -5.127e-5
-1.167, -4.438e-5
-1.166, -4.987e-5
-1.165, -4.936e-5
-1.164, -4.618e-5
-1.163, -5.320e-5
-1.162, -4.613e-5
-1.161, -5.202e-5
-1.160, -5.098e-5
-1.159, -4.807e-5
-1.158, -5.486e-5
-1.157, -4.778e-5
-1.156, -5.343e-5
-1.155, -5.293e-5
-1.154, -4.952e-5
-1.153, -5.666e-5
-1.152, -4.967e-5
-1.151, -5.519e-5
-1.150, -5.451e-5
-1.149, -5.116e-5
-1.148, -5.827e-5
-1.147, -5.153e-5
-1.146, -5.656e-5
-1.145, -5.633e-5
-1.144, -5.285e-5
-1.143, -5.975e-5
-1.142, -5.314e-5
-1.141, -5.821e-5
-1.140, -5.759e-5
-1.139, -5.463e-5
-1.138, -6.137e-5
-1.137, -5.474e-5
-1.136, -6.008e-5
-1.135, -5.921e-5
-1.134, -5.645e-5
-1.133, -6.296e-5
-1.132, -5.611e-5
-1.131, -6.182e-5
-1.130, -6.061e-5
-1.129, -5.807e-5
-1.128, -6.457e-5
-1.127, -5.761e-5
-1.126, -6.361e-5
-1.125, -6.207e-5
-1.124, -5.959e-5
-1.123, -6.625e-5
-1.122, -5.928e-5
-1.121, -6.504e-5
-1.120, -6.388e-5
-1.119, -6.109e-5
-1.118, -6.800e-5
-1.117, -6.072e-5
-1.116, -6.644e-5
-1.115, -6.565e-5
-1.114, -6.272e-5
-1.113, -6.973e-5
-1.112, -6.223e-5
-1.111, -6.818e-5
-1.110, -6.724e-5
-1.109, -6.421e-5
-1.108, -7.105e-5
-1.107, -6.402e-5
-1.106, -6.984e-5
-1.105, -6.863e-5
-1.104, -6.592e-5
-1.103, -7.256e-5
-1.102, -6.586e-5
-1.101, -7.146e-5
-1.100, -7.017e-5
-1.099, -6.790e-5
-1.098, -7.407e-5
-1.097, -6.761e-5
-1.096, -7.315e-5
-1.095, -7.179e-5
-1.094, -6.944e-5
-1.093, -7.589e-5
-1.092, -6.896e-5
-1.091, -7.472e-5
-1.090, -7.334e-5
-1.089, -7.130e-5
-1.088, -7.745e-5
-1.087, -7.073e-5
-1.086, -7.676e-5
-1.085, -7.524e-5
-1.084, -7.282e-5
-1.083, -7.940e-5
-1.082, -7.228e-5
-1.081, -7.849e-5
-1.080, -7.681e-5
-1.079, -7.449e-5
-1.078, -8.128e-5
-1.077, -7.402e-5
-1.076, -8.015e-5
-1.075, -7.915e-5
-1.074, -7.610e-5
-1.073, -8.302e-5
-1.072, -7.602e-5
-1.071, -8.174e-5
-1.070, -8.065e-5
-1.069, -7.806e-5
-1.068, -8.470e-5
-1.067, -7.788e-5
-1.066, -8.374e-5
-1.065, -8.246e-5
-1.064, -8.007e-5
-1.063, -8.654e-5
-1.062, -7.988e-5
-1.061, -8.553e-5
-1.060, -8.414e-5
-1.059, -8.237e-5
-1.058, -8.846e-5
-1.057, -8.185e-5
-1.056, -8.781e-5
-1.055, -8.630e-5
-1.054, -8.456e-5
-1.053, -9.077e-5
-1.052, -8.394e-5
-1.051, -9.006e-5
-1.050, -8.848e-5
-1.049, -8.681e-5
-1.048, -9.285e-5
-1.047, -8.598e-5
-1.046, -9.263e-5
-1.045, -9.068e-5
-1.044, -8.903e-5
-1.043, -9.539e-5
-1.042, -8.852e-5
-1.041, -9.501e-5
-1.040, -9.327e-5
-1.039, -9.150e-5
-1.038, -9.792e-5
-1.037, -9.117e-5
-1.036, -9.772e-5
-1.035, -9.603e-5
-1.034, -9.417e-5
-1.033, -1.009e-4
-1.032, -9.371e-5
-1.031, -1.003e-4
-1.030, -9.903e-5
-1.029, -9.695e-5
-1.028, -1.036e-4
-1.027, -9.667e-5
-1.026, -1.033e-4
-1.025, -1.018e-4
-1.024, -1.005e-4
-1.023, -1.067e-4
-1.022, -1.002e-4
-1.021, -1.065e-4
-1.020, -1.048e-4
-1.019, -1.038e-4
-1.018, -1.098e-4
-1.017, -1.036e-4
-1.016, -1.100e-4
-1.015, -1.082e-4
-1.014, -1.073e-4
-1.013, -1.134e-4
-1.012, -1.070e-4
-1.011, -1.141e-4
-1.010, -1.120e-4
-1.009, -1.111e-4
-1.008, -1.172e-4
-1.007, -1.107e-4
-1.006, -1.179e-4
-1.005, -1.156e-4
-1.004, -1.151e-4
-1.003, -1.213e-4
-1.002, -1.150e-4
-1.001, -1.224e-4
