Potential V vs RHE, Current mA cm-2
0.05339999999999995,-0.04254036878694165
0.05239999999999995,-0.04388434452181344
0.051399999999999946,-0.044676582849737856
0.050399999999999945,-0.045256614482682526
0.049399999999999944,-0.04578005766363259
0.04839999999999994,-0.046275206618585356
0.04739999999999994,-0.04677035557353812
0.04639999999999994,-0.047265504528490876
0.04539999999999994,-0.04773235925744633
0.04439999999999994,-0.048185066873403154
0.04339999999999994,-0.04858118603736536
0.04239999999999994,-0.04904804076632082
0.04139999999999994,-0.04950074838227764
0.040399999999999936,-0.049911014659238494
0.039399999999999935,-0.0503071338232007
0.038399999999999934,-0.05064666453516831
0.03739999999999993,-0.051141813490121084
0.03639999999999993,-0.05160866821907654
0.03539999999999993,-0.0519623460440428
0.03439999999999993,-0.05237261232100365
0.03339999999999993,-0.05275458437196722
0.03239999999999993,-0.05312240930993213
0.03139999999999993,-0.05360341115188624
0.030399999999999927,-0.0540419716548444
0.029399999999999926,-0.05448053215780257
0.028399999999999925,-0.054876651321764766
0.027399999999999924,-0.05530106471172429
0.026399999999999924,-0.0557537723276811
0.025399999999999923,-0.056164038604641954
0.024399999999999922,-0.056560157768604166
0.02339999999999992,-0.05698457115856368
0.02239999999999992,-0.057366543209527235
0.02139999999999992,-0.05781925082548405
0.020399999999999918,-0.05825781132844222
0.019399999999999917,-0.05863978337940577
0.018399999999999916,-0.05906419676936528
0.017399999999999916,-0.059488610159324794
0.016399999999999915,-0.05994131777528161
0.015399999999999914,-0.06037987827823976
0.014399999999999913,-0.06080429166819928
0.013399999999999912,-0.06125699928415609
0.012399999999999911,-0.0617097069001129
0.01139999999999991,-0.062134120290072405
0.01039999999999991,-0.06257268079303058
0.009399999999999908,-0.06302538840898737
0.008399999999999908,-0.0634498017989469
0.007399999999999907,-0.06393080364090101
0.006399999999999906,-0.06441180548285513
0.005399999999999905,-0.06486451309881193
0.004399999999999904,-0.06528892648877145
0.003399999999999903,-0.0656426043137377
0.002399999999999902,-0.06606701770369722
0.0013999999999999013,-0.06659046088464728
0.00039999999999990044,-0.06712805117859601
-0.0006000000000001005,-0.0675524645685555
-0.0016000000000001013,-0.0678637010545258
-0.0026000000000001022,-0.06844373268747048
-0.003600000000000103,-0.06888229319042864
-0.004600000000000104,-0.06930670658038814
-0.005600000000000105,-0.06974526708334632
-0.006600000000000106,-0.07016968047330582
-0.007600000000000107,-0.07067897654125724
-0.008600000000000108,-0.07117412549621
-0.009600000000000108,-0.0716551273381641
-0.01060000000000011,-0.07209368784112226
-0.01160000000000011,-0.07250395411808314
-0.012600000000000111,-0.07299910307303589
-0.013600000000000112,-0.07348010491499
-0.014600000000000113,-0.07389037119195085
-0.015600000000000114,-0.07432893169490903
-0.016600000000000115,-0.07478163931086583
-0.017600000000000116,-0.0752767882658186
-0.018600000000000116,-0.07580023144676866
-0.019600000000000117,-0.07628123328872279
-0.020600000000000118,-0.07667735245268498
-0.02160000000000012,-0.0771583542946391
-0.02260000000000012,-0.07762520902359457
-0.02360000000000012,-0.07816279931754326
-0.024600000000000122,-0.07858721270750278
-0.025600000000000123,-0.07901162609746229
-0.026600000000000124,-0.07949262793941642
-0.027600000000000124,-0.07997362978137053
-0.028600000000000125,-0.08046877873632328
-0.029600000000000126,-0.08093563346527875
-0.030600000000000127,-0.08144492953323015
-0.03160000000000013,-0.08186934292318966
-0.03260000000000013,-0.08232205053914649
-0.03360000000000013,-0.08278890526810194
-0.03460000000000002,-0.08326990711005607
-0.03560000000000002,-0.08372261472601288
-0.03660000000000002,-0.08418946945496834
-0.03760000000000002,-0.08461388284492784
-0.03860000000000002,-0.085052443347886
-0.039600000000000024,-0.08549100385084417
-0.040600000000000025,-0.08595785857979962
-0.041600000000000026,-0.08641056619575643
-0.04260000000000003,-0.0869905978287011
-0.04360000000000003,-0.0874150112186606
-0.04460000000000003,-0.08776868904362688
-0.04560000000000003,-0.08819310243358638
-0.04660000000000003,-0.0886458100495432
-0.04760000000000003,-0.08908437055250136
-0.04860000000000003,-0.08952293105545953
-0.04960000000000003,-0.08997563867141634
-0.050600000000000034,-0.0904141991743745
-0.051600000000000035,-0.090838612564334
-0.052600000000000036,-0.09133376151928675
-0.053600000000000037,-0.09180061624824223
-0.05460000000000004,-0.0922391767512004
-0.05560000000000004,-0.09267773725415854
-0.05660000000000004,-0.09303141507912481
-0.05760000000000004,-0.09345582846908432
-0.05860000000000004,-0.09395097742403709
-0.05960000000000004,-0.09444612637898986
-0.06060000000000004,-0.09485639265595071
-0.061600000000000044,-0.09525251181991291
-0.06260000000000004,-0.09574766077486568
-0.06360000000000005,-0.09621451550382115
-0.06460000000000005,-0.096624781780782
-0.06560000000000005,-0.09697845960574826
-0.06660000000000005,-0.09737457876971047
-0.06760000000000005,-0.09782728638566728
-0.06860000000000005,-0.09823755266262815
-0.06960000000000005,-0.09856293626159711
-0.07060000000000005,-0.09890246697356471
-0.07160000000000005,-0.09934102747652288
-0.07260000000000005,-0.09972299952748644
-0.07360000000000005,-0.10011911869144864
-0.07460000000000006,-0.10048694362941356
-0.07560000000000006,-0.10085476856737846
-0.07660000000000006,-0.10112356371435283
-0.07760000000000006,-0.10160456555630692
-0.07860000000000006,-0.10198653760727049
-0.07960000000000006,-0.1022977740932408
-0.08060000000000006,-0.10269389325720302
-0.08160000000000006,-0.10297683551717601
-0.08260000000000006,-0.10334466045514094
-0.08360000000000006,-0.10372663250610449
-0.08460000000000006,-0.10408031033107075
-0.08560000000000006,-0.10437739970404242
-0.08660000000000007,-0.10468863619001273
-0.08760000000000007,-0.10505646112797762
-0.08860000000000007,-0.10543843317894118
-0.08960000000000007,-0.10567893409991824
-0.09060000000000007,-0.1059760234728899
-0.09160000000000007,-0.10630140707185885
-0.09260000000000007,-0.10658434933183186
-0.09360000000000007,-0.10690973293080082
-0.09460000000000007,-0.10723511652976979
-0.09560000000000007,-0.1075463530157401
-0.09660000000000007,-0.10778685393671714
-0.09760000000000008,-0.1079990606316969
-0.09860000000000008,-0.10843762113465506
-0.09960000000000008,-0.10870641628162941
-0.10060000000000008,-0.10894691720260646
-0.10160000000000008,-0.10918741812358353
-0.10260000000000008,-0.10947036038355652
-0.10360000000000008,-0.10975330264352953
-0.10460000000000008,-0.11003624490350256
-0.10560000000000008,-0.1102484515984823
-0.10660000000000008,-0.1103899227284688
-0.10760000000000008,-0.11068701210144047
-0.10860000000000009,-0.11099824858741078
-0.10960000000000009,-0.11112557260439863
-0.11060000000000009,-0.11125289662138649
-0.11160000000000009,-0.11138022063837434
-0.11260000000000009,-0.11157828022035543
-0.11360000000000009,-0.11187536959332708
-0.11460000000000009,-0.1120734291753082
-0.11560000000000009,-0.11211587051430415
-0.11660000000000009,-0.11229978298328659
-0.1176000000000001,-0.11251198967826637
-0.1186000000000001,-0.11271004926024747
-0.1196000000000001,-0.11285152039023398
-0.1206000000000001,-0.11306372708521374
-0.1216000000000001,-0.11314860976320563
-0.1226000000000001,-0.11324763955419619
-0.1236000000000001,-0.11340325779718134
-0.1246000000000001,-0.1133891106841827
-0.1256000000000001,-0.11350228758817188
-0.1266000000000001,-0.11360131737916243
-0.1276000000000001,-0.11379937696114355
-0.1286000000000001,-0.11392670097813141
-0.1296000000000001,-0.1138135240741422
-0.1306000000000001,-0.11385596541313814
-0.1316000000000001,-0.11403987788212061
-0.1326000000000001,-0.1143228201420936
-0.1336000000000001,-0.11457746817606933
-0.1346000000000001,-0.11447843838507876
-0.1356000000000001,-0.11443599704608282
-0.1366000000000001,-0.11452087972407471
-0.1376000000000001,-0.11480382198404772
-0.1386000000000001,-0.11503017579202615
-0.1396000000000001,-0.11495944022703289
-0.1406000000000001,-0.11495944022703289
-0.14160000000000011,-0.11494529311403422
-0.14260000000000012,-0.11488870466203964
-0.14360000000000012,-0.11493114600103559
-0.14460000000000012,-0.11495944022703289
-0.14560000000000012,-0.11494529311403422
-0.14660000000000012,-0.11497358734003153
-0.14760000000000012,-0.11501602867902748
-0.14860000000000012,-0.11510091135701939
-0.14960000000000012,-0.1150726171310221
-0.15060000000000012,-0.11505847001802343
-0.15160000000000012,-0.11493114600103559
-0.15260000000000012,-0.11494529311403422
-0.15360000000000013,-0.11495944022703289
-0.15460000000000013,-0.11497358734003153
-0.15560000000000013,-0.11497358734003153
-0.15660000000000013,-0.11495944022703289
-0.15760000000000013,-0.11500188156602882
-0.15860000000000013,-0.11510091135701939
-0.15960000000000002,-0.11510091135701939
-0.16060000000000002,-0.11517164692201265
-0.16160000000000002,-0.11512920558301669
-0.16260000000000002,-0.11508676424402071
-0.16360000000000002,-0.11497358734003153
-0.16460000000000002,-0.11494529311403422
-0.16560000000000002,-0.11481796909704638
-0.16660000000000003,-0.11470479219305717
-0.16760000000000003,-0.11469064508005854
-0.16860000000000003,-0.11464820374106259
-0.16960000000000003,-0.11459161528906797
-0.17060000000000003,-0.11454917395007203
-0.17160000000000003,-0.11447843838507876
-0.17260000000000003,-0.11449258549807742
-0.17360000000000003,-0.11450673261107608
-0.17460000000000003,-0.11439355570708687
-0.17560000000000003,-0.11426623169009903
-0.17660000000000003,-0.11420964323810441
-0.17760000000000004,-0.11416720189910846
-0.17860000000000004,-0.11412476056011249
-0.17960000000000004,-0.11398328943012599
-0.18060000000000004,-0.11391255386513276
-0.18160000000000004,-0.11379937696114355
-0.18260000000000004,-0.1137852298481449
-0.18360000000000004,-0.11379937696114355
-0.18460000000000004,-0.11433696725509226
-0.18560000000000004,-0.11445014415908147
-0.18660000000000004,-0.11494529311403422
-0.18760000000000004,-0.1152140882610086
-0.18860000000000005,-0.11422379035110306
-0.18960000000000005,-0.1139549952041287
-0.19060000000000005,-0.1136154644921611
-0.19160000000000005,-0.1133891106841827
-0.19260000000000005,-0.11347399336217459
-0.19360000000000005,-0.11343155202317864
-0.19460000000000005,-0.11345984624917593
-0.19560000000000005,-0.11340325779718134
-0.19660000000000005,-0.11334666934518675
-0.19760000000000005,-0.1133325222321881
-0.19860000000000005,-0.11314860976320563
-0.19960000000000006,-0.11286566750323263
-0.20060000000000006,-0.11290810884222857
-0.20160000000000006,-0.11265346080825286
-0.20260000000000006,-0.11252613679126502
-0.20360000000000006,-0.11237051854827985
-0.20460000000000006,-0.11251198967826637
-0.20560000000000006,-0.11259687235625826
-0.20660000000000006,-0.11238466566127853
-0.20760000000000006,-0.11183292825433114
-0.20860000000000006,-0.11154998599435814
-0.20960000000000006,-0.11153583888135948
-0.21060000000000006,-0.11166316289834735
-0.21160000000000007,-0.11140851486437164
-0.21260000000000007,-0.11126704373438513
-0.21360000000000007,-0.11111142549139998
-0.21460000000000007,-0.11096995436141348
-0.21560000000000007,-0.11082848323142698
-0.21660000000000007,-0.11078604189243102
-0.21760000000000007,-0.11071530632743777
-0.21860000000000007,-0.1106162765364472
-0.21960000000000007,-0.11048895251945937
-0.22060000000000007,-0.11041821695446612
-0.22160000000000007,-0.11034748138947285
-0.22260000000000008,-0.11031918716347557
-0.22360000000000008,-0.11023430448548364
-0.22460000000000008,-0.11006453912949986
-0.22560000000000008,-0.1099938035645066
-0.22660000000000008,-0.10985233243452008
-0.22760000000000008,-0.1097957439825255
-0.22860000000000008,-0.10969671419153494
-0.22960000000000008,-0.10961183151354303
-0.23060000000000008,-0.10951280172255247
-0.23160000000000008,-0.10939962481856329
-0.23260000000000008,-0.10937133059256597
-0.23360000000000009,-0.10928644791457408
-0.2346000000000001,-0.10914497678458758
-0.2356000000000001,-0.10904594699359701
-0.2366000000000001,-0.10901765276759973
-0.2376000000000001,-0.10897521142860378
-0.2386000000000001,-0.10891862297660918
-0.2396000000000001,-0.10890447586361052
-0.2406000000000001,-0.10901765276759973
-0.2416000000000001,-0.10894691720260646
-0.2426000000000001,-0.10910253544559163
-0.2436000000000001,-0.10863568071663617
-0.2446000000000001,-0.10860738649063886
-0.2456000000000001,-0.10855079803864424
-0.2466000000000001,-0.10848006247365101
-0.2476000000000001,-0.10843762113465506
-0.2486000000000001,-0.1083668855696618
-0.2496000000000001,-0.10826785577867125
-0.2506000000000001,-0.10828200289166989
-0.2516000000000001,-0.1081405317616834
-0.2526000000000001,-0.1080839433096888
-0.2536000000000001,-0.1080839433096888
-0.2546000000000001,-0.10804150197069286
-0.2556000000000001,-0.10798491351869824
-0.2566000000000001,-0.10801320774469556
-0.2576000000000001,-0.10798491351869824
-0.2586000000000001,-0.10784344238871174
-0.2596000000000001,-0.10773026548472255
-0.2606000000000001,-0.1076595299197293
-0.2616000000000001,-0.10764538280673064
-0.2626000000000001,-0.10764538280673064
-0.2636000000000001,-0.10758879435473605
-0.2646000000000001,-0.10758879435473605
-0.2656000000000001,-0.10758879435473605
-0.2666000000000001,-0.1075463530157401
-0.2676000000000001,-0.10753220590274143
-0.2686000000000001,-0.10748976456374548
-0.2696000000000001,-0.10748976456374548
-0.2706000000000001,-0.10741902899875223
-0.2716000000000001,-0.10737658765975629
-0.2726000000000001,-0.10739073477275493
-0.2736000000000001,-0.10739073477275493
-0.2746000000000001,-0.10736244054675763
-0.2756000000000001,-0.10734829343375898
-0.2766000000000001,-0.10731999920776168
-0.2776000000000001,-0.10739073477275493
-0.2786000000000001,-0.10741902899875223
-0.2796000000000001,-0.10734829343375898
-0.2806000000000001,-0.10740488188575359
-0.28160000000000013,-0.10740488188575359
-0.28260000000000013,-0.10737658765975629
-0.28360000000000013,-0.10746147033774818
-0.2846,-0.10744732322474954
-0.2856,-0.10743317611175088
-0.2866,-0.10744732322474954
-0.2876,-0.10751805878974278
-0.2886,-0.10761708858073335
-0.2896,-0.10757464724173739
-0.2906,-0.10764538280673064
-0.2916,-0.1076878241457266
-0.2926,-0.10777270682371849
-0.2936,-0.10770197125872524
-0.29460000000000003,-0.10771611837172389
-0.29560000000000003,-0.10775855971071985
-0.29660000000000003,-0.1078575895017104
-0.29760000000000003,-0.10795661929270095
-0.29860000000000003,-0.1079990606316969
-0.29960000000000003,-0.10804150197069286
-0.30060000000000003,-0.10832444423066585
-0.30160000000000003,-0.10857909226464157
-0.30260000000000004,-0.10862153360363752
-0.30360000000000004,-0.10891862297660918
-0.30460000000000004,-0.10889032875061187
-0.30560000000000004,-0.10881959318561862
-0.30660000000000004,-0.10900350565460108
-0.30760000000000004,-0.10922985946257947
-0.30860000000000004,-0.10927230080157543
-0.30960000000000004,-0.1093147421405714
-0.31060000000000004,-0.10952694883555114
-0.31160000000000004,-0.10961183151354303
-0.31260000000000004,-0.10961183151354303
-0.31360000000000005,-0.10962597862654169
-0.31460000000000005,-0.10969671419153494
-0.31560000000000005,-0.10971086130453359
-0.31660000000000005,-0.10988062666051741
-0.31760000000000005,-0.11006453912949986
-0.31860000000000005,-0.11020601025948636
-0.31960000000000005,-0.1103899227284688
-0.32060000000000005,-0.11044651118046342
-0.32160000000000005,-0.11060212942344858
-0.32260000000000005,-0.11082848323142698
-0.32360000000000005,-0.11096995436141348
-0.32460000000000006,-0.11106898415240402
-0.32560000000000006,-0.11122460239538919
-0.32660000000000006,-0.11143680909036893
-0.32760000000000006,-0.1115075446553622
-0.32860000000000006,-0.1117056042373433
-0.32960000000000006,-0.11180463402833385
-0.33060000000000006,-0.11183292825433114
-0.33160000000000006,-0.11208757628830686
-0.33260000000000006,-0.11224319453129203
-0.33360000000000006,-0.11235637143528121
-0.33460000000000006,-0.11254028390426365
-0.33560000000000006,-0.11265346080825286
-0.33660000000000007,-0.11290810884222857
-0.33760000000000007,-0.11329008089319213
-0.33860000000000007,-0.11357302315316514
-0.33960000000000007,-0.11392670097813141
-0.34060000000000007,-0.11405402499511925
-0.34160000000000007,-0.11443599704608282
-0.34260000000000007,-0.11471893930605583
-0.34360000000000007,-0.11495944022703289
-0.3446000000000001,-0.11497358734003153
-0.3456000000000001,-0.11505847001802343
-0.3466000000000001,-0.11529897093900049
-0.34759999999999996,-0.11562435453796945
-0.3486000000000001,-0.11606291504092761
-0.34959999999999997,-0.11621853328391277
-0.3506000000000001,-0.11631756307490332
-0.35159999999999997,-0.11662879956087362
-0.3526000000000001,-0.11692588893384527
-0.35359999999999997,-0.11726541964581289
-0.3546000000000001,-0.11750592056678995
-0.35559999999999997,-0.11767568592277375
-0.3566000000000001,-0.11808595219973461
-0.3576,-0.11848207136369682
-0.3586000000000001,-0.11872257228467388
-0.3596,-0.11897722031864959
-0.3606000000000001,-0.11931675103061717
-0.3616,-0.11972701730757807
-0.3626000000000001,-0.12032119605352137
-0.3636,-0.1210851401554485
-0.3646000000000001,-0.12177834869238235
-0.3656,-0.12283938216728113
-0.3666000000000001,-0.12416921078915429
-0.3676,-0.1226271754723014
-0.3686000000000001,-0.1223017918733324
-0.3696,-0.12266961681129733
-0.3706000000000001,-0.12296670618426901
-0.3716,-0.12334867823523256
-0.3726000000000001,-0.12395700409417452
-0.3736,-0.12448044727512457
-0.3746000000000001,-0.1248765664390868
-0.3756,-0.12525853849005034
-0.3766000000000001,-0.1256405105410139
-0.3776,-0.1260932181569707
-0.3786000000000001,-0.12651763154693024
-0.3796,-0.12694204493688974
-0.3806000000000001,-0.12732401698785328
-0.3816,-0.12772013615181552
-0.3826000000000001,-0.12825772644576422
-0.3836,-0.12876702251371563
-0.3846000000000001,-0.1293470541466603
-0.3856,-0.1297714675366198
-0.3866000000000001,-0.13028076360457122
-0.3876,-0.1308607952375159
-0.3886000000000001,-0.13141253264446326
-0.3896,-0.13202085850340523
-0.3906000000000001,-0.13257259591035261
-0.3916,-0.1331384804302986
-0.3926000000000001,-0.13378924762823652
-0.3936,-0.13441172060017711
-0.3946000000000001,-0.1349634580071245
-0.3956,-0.13554348964006918
-0.3966000000000001,-0.13633572796799356
-0.3976,-0.13702893650492745
-0.3986000000000001,-0.1375806739118748
-0.3996,-0.13817485265781812
-0.4006000000000001,-0.13888220830775064
-0.4016,-0.13958956395768318
-0.4026000000000001,-0.14033936094661165
-0.4036,-0.14120233483952932
-0.4046000000000001,-0.1420370145064497
-0.4056,-0.1428858412863687
-0.40660000000000013,-0.14514937936615277
-0.4076,-0.14514937936615277
-0.40860000000000013,-0.14529085049613927
-0.4096,-0.1458567350160853
-0.41060000000000013,-0.14613967727605828
-0.4116,-0.14684703292599083
-0.41260000000000013,-0.14755438857592332
-0.4136,-0.14812027309586934
-0.41460000000000014,-0.14882762874580185
-0.4156,-0.14953498439573437
-0.41660000000000014,-0.1510911668255859
-0.4176,-0.15236440699546444
-0.41860000000000014,-0.15278882038542396
-0.41960000000000003,-0.15335470490536995
-0.42060000000000014,-0.1540620605553025
-0.42160000000000003,-0.15491088733522151
-0.42260000000000014,-0.15575971411514053
-0.42360000000000003,-0.15675001202504607
-0.42460000000000014,-0.1574573676749786
-0.42560000000000003,-0.1584476655848841
-0.42660000000000015,-0.15943796349478964
-0.42760000000000004,-0.16042826140469515
-0.42860000000000015,-0.16127708818461417
-0.42960000000000004,-0.1622673860945197
-0.43060000000000015,-0.16325768400442522
-0.43160000000000004,-0.16410651078434427
-0.43260000000000015,-0.16523827982423628
-0.43360000000000004,-0.16622857773414182
-0.43460000000000015,-0.16721887564404736
-0.43560000000000004,-0.16863358694391237
-0.43660000000000015,-0.1694824137238314
