Potential V vs RHE, Current mA cm-2
0.013299999999999867,26.426807081478888
0.012299999999999978,24.516946826661083
0.011299999999999866,22.67782213683654
0.010299999999999976,20.85284456001064
0.009299999999999864,19.098602548177997
0.008299999999999974,17.4433903273359
0.007299999999999862,15.74573676749786
0.006299999999999972,14.217848563643619
0.00529999999999986,12.646104309493563
0.0042999999999999705,11.077189477943236
0.0032999999999998586,9.549301274088998
0.0022999999999999687,7.980386442538672
0.0012999999999998568,6.366200849392665
0.00029999999999996696,4.795871306542475
-0.000700000000000145,3.225541763692284
-0.0017000000000000348,1.5675001202504606
-0.0027000000000001467,-0.002205534916489592
-0.0037000000000000366,-1.5717442541500557
-0.0047000000000001485,-3.055776407708479
-0.005700000000000038,-4.450681749375406
-0.00670000000000015,-5.890857852638012
-0.00770000000000004,-7.28576319430494
-0.008700000000000152,-8.638227196975913
-0.009700000000000042,-10.078403300238522
-0.010700000000000154,-11.42945259160963
-0.011700000000000044,-12.869628694872238
-0.012700000000000156,-14.345172580631472
-0.013700000000000045,-15.830619445489761
-0.014700000000000157,-17.316066310348052
-0.015700000000000047,-18.759071836210385
-0.01670000000000016,-20.159636023076775
-0.01770000000000005,-21.503611757948562
-0.01870000000000016,-22.861734605818995
-0.01970000000000005,-24.16326900169483
-0.020700000000000163,-25.478950510569312
-0.021700000000000053,-26.65316088945729
-0.022700000000000164,-27.954695285333123
-0.023700000000000054,-29.22793545521166
-0.024700000000000166,-30.529469851087494
-0.025700000000000056,-31.887592698957924
-0.026700000000000168,-33.231568433829715
-0.027700000000000058,-34.67457395969205
-0.02870000000000017,-36.03269680756248
-0.02970000000000006,-37.376672542434264
-0.03070000000000017,-38.692354051308754
-0.03170000000000006,-39.95144710818864
-0.03270000000000017,-41.22468727806717
-0.03370000000000006,-42.39889765695515
-0.034700000000000175,-43.57310803584313
-0.035700000000000065,-44.80390686672572
-0.03670000000000018,-46.02055858460964
-0.03770000000000007,-47.27965164148953
-0.03870000000000018,-48.59533315036401
-0.03970000000000007,-49.85442620724389
-0.04070000000000018,-51.127666377122424
-0.04170000000000007,-52.42920077299826
-0.04270000000000018,-53.64585249088219
-0.04370000000000007,-54.919092660760725
-0.044700000000000184,-56.093303039648696
-0.045700000000000074,-57.26751341853669
-0.046700000000000186,-58.39928245842871
-0.047700000000000076,-59.502757272323436
-0.04870000000000019,-60.67696765121143
-0.04970000000000008,-61.80873669110345
-0.05070000000000019,-62.94050573099548
-0.05170000000000008,-64.11471610988345
-0.05270000000000019,-65.38795627976201
-0.05370000000000008,-66.68949067563783
-0.05470000000000019,-68.0051721845123
-0.05570000000000008,-69.26426524139221
-0.056700000000000195,-70.53750541127073
-0.057700000000000085,-71.75415712915466
-0.058700000000000196,-72.92836750804264
-0.059700000000000086,-74.06013654793468
-0.0607000000000002,-75.1070229098348
-0.06170000000000009,-76.19635061073087
-0.0627000000000002,-77.243236972631
-0.06370000000000009,-78.29012333453113
-0.0647000000000002,-79.42189237442317
-0.06570000000000009,-80.56780852731384
-0.0667000000000002,-81.69957756720586
-0.0677000000000001,-82.87378794609386
-0.0687000000000002,-84.00555698598588
-0.0697000000000001,-85.13732602587791
-0.07070000000000021,-86.22665372677399
-0.0717000000000001,-87.33012854066871
-0.07270000000000021,-88.46189758056073
-0.0737000000000001,-89.50878394246087
-0.07470000000000021,-90.55567030436099
-0.0757000000000001,-91.68743934425302
-0.07670000000000021,-92.7767670451491
-0.0777000000000001,-93.90853608504113
-0.07870000000000021,-95.08274646392913
-0.0797000000000001,-96.27110395581576
-0.08070000000000022,-97.4877556736997
-0.0817000000000001,-98.7044073915836
-0.08270000000000022,-99.93520622246619
-0.08370000000000011,-101.10941660135417
-0.08470000000000022,-102.19874430225026
-0.08570000000000011,-103.20318932515443
-0.08670000000000022,-104.25007568705455
-0.08770000000000011,-105.21207937096277
-0.08870000000000022,-106.15993594187235
-0.08970000000000011,-107.12193962578058
-0.09070000000000022,-108.12638464868475
-0.09170000000000011,-109.21571234958083
-0.09270000000000023,-110.3050400504769
-0.09370000000000012,-111.394367751373
-0.09470000000000023,-112.58272524325962
-0.09570000000000012,-113.62961160515974
-0.09670000000000023,-114.67649796705987
-0.09770000000000012,-115.62435453796945
-0.09870000000000023,-116.58635822187767
-0.09970000000000012,-117.54836190578591
-0.10070000000000023,-118.42548291170223
-0.10170000000000012,-119.3450452566145
-0.10270000000000024,-120.33534316652002
-0.10370000000000013,-121.2549055114323
-0.10470000000000024,-122.34423321232836
-0.10570000000000013,-123.39111957422851
-0.10670000000000024,-124.52288861412055
-0.10770000000000013,-125.6688047670112
-0.10870000000000024,-126.75813246790726
-0.10970000000000013,-127.88990150779931
-0.11070000000000024,-128.9792292086954
-0.11170000000000013,-130.02611557059552
-0.11270000000000002,-131.07300193249566
-0.11370000000000013,-132.11988829439576
-0.11470000000000002,-133.08189197830401
-0.11570000000000014,-134.08633700120816
-0.11670000000000003,-134.9917522331218
-0.11770000000000014,-135.99619725602597
-0.11870000000000003,-137.00064227893017
-0.11970000000000014,-137.9626459628384
-0.12070000000000003,-139.0095323247385
-0.12170000000000014,-140.0988600256346
-0.12270000000000003,-141.06086370954282
-0.12370000000000014,-142.03701450644968
-0.12470000000000003,-143.0273124163552
-0.12570000000000014,-143.87613919627424
-0.12670000000000003,-144.86643710617977
-0.12770000000000015,-145.85673501608528
-0.12870000000000004,-146.7055617960043
-0.12970000000000015,-147.6958597059098
-0.13070000000000004,-148.82762874580186
-0.13170000000000015,-149.95939778569388
-0.13270000000000004,-150.94969569559944
-0.13370000000000015,-152.22293586547795
-0.13470000000000004,-153.35470490536997
-0.13570000000000015,-154.486473945262
-0.13670000000000004,-155.75971411514055
-0.13770000000000016,-156.89148315503257
-0.13870000000000005,-157.88178106493808
-0.13970000000000016,-159.01355010483013
-0.14070000000000005,-160.00384801473567
-0.14170000000000016,-160.8526747946547
-0.14270000000000005,-161.84297270456022
-0.14370000000000016,-162.8332706144657
-0.14470000000000005,-163.82356852437124
-0.14570000000000016,-164.9553375642633
-0.14670000000000005,-165.94563547416882
-0.14770000000000016,-167.07740451406085
-0.14870000000000005,-168.06770242396635
-0.14970000000000017,-169.19947146385837
-0.15070000000000006,-170.18976937376394
-0.15170000000000017,-171.18006728366944
-0.15270000000000006,-172.17036519357498
-0.15370000000000017,-173.16066310348046
-0.15470000000000006,-174.150961013386
-0.15570000000000017,-175.28273005327804
-0.15670000000000006,-176.4144990931701
-0.15770000000000017,-177.54626813306209
-0.15870000000000006,-178.67803717295413
-0.15970000000000018,-179.95127734283267
-0.16070000000000007,-181.08304638272472
-0.16170000000000018,-182.35628655260325
-0.16270000000000007,-183.48805559249527
-0.16370000000000018,-184.7612957623738
-0.16470000000000007,-185.7515936722793
-0.16570000000000018,-186.88336271217133
-0.16670000000000007,-187.87366062207687
-0.16770000000000018,-188.8639585319824
-0.16870000000000007,-189.8542564418879
-0.16970000000000018,-190.84455435179345
-0.17070000000000007,-191.83485226169896
-0.17170000000000019,-192.82515017160452
-0.17270000000000008,-193.9569192114965
-0.1737000000000002,-194.94721712140205
-0.17470000000000008,-196.0789861612941
-0.1757000000000002,-197.0692840711996
-0.17670000000000008,-198.20105311109162
-0.1777000000000002,-199.19135102099716
-0.17870000000000008,-200.18164893090267
-0.1797000000000002,-201.17194684080823
-0.18070000000000008,-202.16224475071377
-0.1817000000000002,-203.15254266061928
-0.18270000000000008,-204.14284057052478
-0.1837000000000002,-205.13313848043032
-0.1847000000000001,-206.12343639033585
-0.1857000000000002,-207.1137343002414
-0.1867000000000001,-208.1040322101469
-0.1877000000000002,-209.23580125003892
-0.1887000000000001,-210.22609915994445
-0.1897000000000002,-211.35786819983647
-0.1907000000000001,-212.48963723972852
-0.1917000000000001,-213.47993514963403
-0.19269999999999998,-214.47023305953954
-0.1937000000000001,-215.4605309694451
-0.19469999999999998,-216.4508288793506
-0.1957000000000001,-217.44112678925615
-0.19669999999999999,-218.43142469916165
-0.1977000000000001,-219.42172260906716
-0.1987,-220.5534916489592
-0.1997000000000001,-221.68526068885126
-0.2007,-222.9585008587298
-0.2017000000000001,-224.09026989862178
-0.2027,-225.22203893851383
-0.2037000000000001,-226.35380797840588
-0.2047,-227.2026347583249
-0.2057000000000001,-228.1929326682304
-0.2067,-229.18323057813595
-0.2077000000000001,-230.03205735805497
-0.2087,-230.880884137974
-0.2097000000000001,-231.8711820478795
-0.2107,-232.86147995778504
-0.2117000000000001,-233.85177786769057
-0.2127,-234.84207577759608
-0.2137000000000001,-235.83237368750162
-0.2147,-236.96414272739366
-0.2157000000000001,-238.0959117672857
-0.2167,-239.2276808071777
-0.21770000000000012,-240.21797871708318
-0.2187,-241.20827662698875
-0.21970000000000012,-242.05710340690777
-0.2207,-243.18887244679982
-0.22170000000000012,-244.03769922671884
-0.2227,-245.02799713662432
-0.22370000000000012,-245.87682391654337
-0.2247,-246.7256506964624
-0.22570000000000012,-247.71594860636796
-0.2267,-248.70624651627344
-0.22770000000000012,-249.69654442617897
-0.22870000000000001,-250.6868423360845
-0.22970000000000013,-251.81861137597656
-0.23070000000000002,-252.95038041586852
-0.23170000000000013,-254.08214945576057
-0.23270000000000002,-255.07244736566614
-0.23370000000000013,-256.20421640555816
-0.23470000000000002,-257.1945143154637
-0.23570000000000013,-258.32628335535566
-0.23670000000000002,-259.4580523952477
-0.2376999999999999,-260.58982143513975
-0.23870000000000002,-261.7215904750318
-0.2396999999999999,-262.9948306449103
-0.24070000000000003,-264.12659968480233
-0.24169999999999991,-265.2583687246944
-0.24270000000000003,-266.2486666345999
-0.24369999999999992,-267.23896454450545
-0.24470000000000003,-268.22926245441096
-0.24569999999999992,-269.07808923433
-0.24670000000000003,-269.926916014249
-0.24769999999999992,-270.9172139241545
-0.24870000000000003,-271.7660407040736
-0.24969999999999992,-272.61486748399255
-0.25070000000000003,-273.4636942639116
-0.2516999999999999,-274.4539921738171
-0.25270000000000004,-275.30281895373616
-0.2536999999999999,-276.29311686364167
-0.25470000000000004,-277.2834147735472
-0.2556999999999999,-278.2737126834527
-0.25670000000000004,-279.40548172334474
-0.25769999999999993,-280.3957796332503
-0.25870000000000004,-281.66901980312883
-0.25969999999999993,-283.08373110299385
-0.26070000000000004,-284.63991353284536
-0.26169999999999993,-286.0546248327104
-0.26270000000000004,-287.327865002589
-0.26369999999999993,-288.45963404248096
-0.26470000000000005,-289.4499319523865
-0.26569999999999994,-290.44022986229203
-0.26670000000000005,-291.4305277721976
-0.26769999999999994,-292.1378834221301
-0.26870000000000005,-292.9867102020491
-0.26969999999999994,-293.6940658519816
-0.27070000000000005,-294.68436376188714
-0.27169999999999994,-295.53319054180616
-0.27270000000000005,-296.6649595816982
-0.27369999999999994,-297.79672862159026
-0.27470000000000006,-298.9284976614822
-0.27569999999999995,-300.3432089613473
-0.27670000000000006,-301.8993913911989
-0.27769999999999995,-303.4555738210504
-0.27870000000000006,-305.0117562509019
-0.27969999999999995,-306.56793868075346
-0.28070000000000006,-308.124121110605
-0.28169999999999995,-309.6803035404565
-0.28270000000000006,-311.2364859703081
-0.28369999999999995,-312.9341395301461
-0.28470000000000006,-314.49032195999763
-0.28569999999999995,-316.04650438984913
-0.28670000000000007,-317.60268681970075
-0.28769999999999996,-318.8759269895793
-0.28870000000000007,-320.00769602947133
-0.28969999999999996,-320.9979939393768
-0.29070000000000007,-321.8468207192958
-0.29169999999999996,-322.5541763692284
-0.29270000000000007,-323.1200608891744
-0.29369999999999996,-323.68594540912045
-0.2947000000000001,-324.25182992906645
-0.29569999999999996,-324.67624331902596
-0.2967000000000001,-325.24212783897195
-0.29769999999999996,-325.5250700989449
-0.2987000000000001,-325.94948348890443
-0.29969999999999997,-326.23242574887746
-0.3007000000000001,-326.656839138837
-0.30169999999999997,-326.93978139880994
-0.3027000000000001,-327.505665918756
-0.30369999999999997,-328.071550438702
-0.3047000000000001,-328.7789060886345
-0.30569999999999997,-329.62773286855355
-0.3067000000000001,-330.33508851848603
-0.3077,-331.18391529840505
-0.3087000000000001,-332.03274207832413
-0.3097,-332.8815688582431
-0.3107000000000001,-333.87186676814866
-0.3117,-334.7206935480677
-0.3127000000000001,-335.8524625879597
-0.3137,-336.84276049786524
-0.3147000000000001,-337.83305840777075
-0.3157,-338.8233563176763
-0.3167000000000001,-339.8136542275818
-0.3177,-340.66248100750084
-0.3187000000000001,-341.65277891740635
-0.3197,-342.5016056973254
-0.3207000000000001,-343.49190360723094
-0.3217,-344.48220151713645
-0.3227000000000001,-345.33102829705547
-0.3237,-346.1798550769745
-0.3247000000000001,-347.0286818568935
-0.3257,-347.73603750682605
-0.3267000000000001,-348.44339315675853
-0.3277,-349.15074880669107
-0.3287000000000001,-349.9995755866101
-0.3297,-350.7069312365426
-0.3307000000000001,-351.5557580164616
-0.3317,-352.54605592636716
-0.3327000000000001,-353.5363538362726
-0.3337,-354.8095940061512
-0.3347000000000001,-356.08283417602973
-0.3357,-357.2146032159218
-0.3367000000000001,-358.3463722558138
-0.3377,-359.3366701657193
-0.3387000000000001,-360.3269680756248
-0.3397,-361.17579485554387
-0.3407000000000001,-362.16609276544943
-0.3417,-363.0149195453684
-0.3427000000000001,-363.8637463252875
-0.3437,-364.854044235193
-0.3447000000000001,-365.985813275085
-0.3457,-367.117582314977
-0.3467000000000001,-368.39082248485556
-0.3477,-369.6640626547341
-0.3487000000000001,-370.93730282461263
-0.3497,-372.2105429944911
-0.3507000000000001,-373.34231203438316
-0.3517,-374.4740810742752
-0.3527000000000001,-375.74732124415374
-0.3537,-376.8790902840458
-0.3547000000000001,-378.0108593239378
-0.3557,-379.00115723384334
-0.35670000000000013,-379.84998401376237
-0.3577,-380.69881079368133
-0.35870000000000013,-381.5476375736004
-0.3597,-382.3964643535194
-0.36070000000000013,-383.2452911334384
-0.3617,-383.952646783371
-0.3626999999999999,-384.6600024333035
-0.3637,-385.5088292132225
-0.3646999999999999,-386.21618486315504
-0.3657,-386.782069383101
-0.3666999999999999,-387.48942503303357
-0.3677,-388.05530955297957
-0.3686999999999999,-388.7626652029121
-0.36970000000000003,-389.61149198283107
-0.3706999999999999,-390.4603187627501
-0.37170000000000003,-391.30914554266917
-0.3726999999999999,-392.1579723225882
-0.37370000000000003,-393.14827023249364
-0.3746999999999999,-394.1385681423992
-0.37570000000000003,-395.41180831227774
-0.3766999999999999,-396.82651961214276
-0.37770000000000004,-398.24123091200784
-0.3786999999999999,-399.9388844718459
-0.37970000000000004,-401.6365380316839
-0.3806999999999999,-403.1927204615355
-0.38170000000000004,-404.748902891387
-0.38269999999999993,-406.163614191252
-0.38370000000000004,-407.7197966211035
-0.38469999999999993,-409.4174501809416
-0.38570000000000004,-411.11510374077966
-0.38669999999999993,-411.53951713073917
-0.38570000000000004,-409.4174501809416
-0.38469999999999993,-407.1539121011575
-0.38370000000000004,-404.89037402137353
-0.38269999999999993,-402.4853648116029
-0.38170000000000004,-399.9388844718459
-0.3806999999999999,-397.10946187211584
-0.37970000000000004,-394.5629815323587
-0.3786999999999999,-391.7335589326286
-0.37770000000000004,-389.1870785928716
-0.3766999999999999,-386.499127123128
-0.37570000000000003,-383.81117565338445
-0.3746999999999999,-381.2646953136274
-0.37370000000000003,-378.7182149738703
-0.3726999999999999,-376.0302635041267
-0.37170000000000003,-373.4837831643697
-0.3706999999999999,-370.7958316946261
-0.36970000000000003,-368.10788022488254
-0.3686999999999999,-365.419928755139
-0.3677,-362.73197728539543
-0.3666999999999999,-360.0440258156518
-0.3657,-357.35607434590827
-0.3646999999999999,-354.66812287616466
-0.3637,-352.1216425364076
-0.3626999999999999,-349.71663332663707
-0.3617,-347.45309524685297
-0.36070000000000013,-345.33102829705547
-0.3597,-343.3504324772444
-0.35870000000000013,-341.3698366574333
-0.3577,-339.3892408376223
-0.35670000000000013,-337.26717388782475
-0.3557,-335.00363580804066
-0.3547000000000001,-332.7400977282566
-0.3537,-330.4765596484726
-0.3527000000000001,-328.071550438702
-0.3517,-325.6665412289314
-0.3507000000000001,-323.40300314914737
-0.3497,-320.9979939393768
-0.3487000000000001,-318.73445585959274
-0.3477,-316.47091777980876
-0.3467000000000001,-314.20737970002466
-0.3457,-311.94384162024056
-0.3447000000000001,-309.53883241047004
-0.3437,-307.27529433068594
-0.3427000000000001,-304.8702851209154
-0.3417,-302.4652759111449
-0.3407000000000001,-300.2017378313608
-0.3397,-297.79672862159026
-0.3387000000000001,-295.3917194118196
-0.3377,-293.1281813320356
-0.3367000000000001,-290.86464325225154
-0.3357,-288.45963404248096
-0.3347000000000001,-286.33756709268346
-0.3337,-284.07402901289936
-0.3327000000000001,-281.9519620631018
-0.3317,-279.82989511330425
-0.3307000000000001,-277.7078281635067
-0.3297,-275.7272323436957
-0.3287000000000001,-273.4636942639116
-0.3277,-271.20015618412754
-0.3267000000000001,-269.07808923433
-0.3257,-266.8145511545459
-0.3247000000000001,-264.6924842047484
-0.3237,-262.42894612496434
-0.3227000000000001,-260.3068791751668
-0.3217,-258.18481222536917
-0.3207000000000001,-256.0627452755717
-0.3197,-253.94067832577412
-0.3187000000000001,-251.67714024599002
-0.3177,-249.5550732961925
-0.3167000000000001,-247.2915352164084
-0.3157,-245.16946826661086
-0.3147000000000001,-242.90593018682682
-0.3137,-240.78386323702924
-0.3127000000000001,-238.66179628723168
-0.3117,-236.53972933743412
-0.3107000000000001,-234.4176623876366
-0.3097,-232.43706656782552
-0.3087000000000001,-230.31499961802797
-0.3077,-228.47587492820347
-0.3067000000000001,-226.49527910839237
-0.30569999999999997,-224.65615441856778
-0.3047000000000001,-222.6755585987568
-0.30369999999999997,-220.83643390893224
-0.3027000000000001,-218.99730921910768
-0.30169999999999997,-217.15818452928315
-0.3007000000000001,-215.17758870947208
-0.29969999999999997,-213.33846401964755
-0.2987000000000001,-211.35786819983647
-0.29769999999999996,-209.37727238002543
-0.2967000000000001,-207.3966765602144
-0.29569999999999996,-205.55755187038983
-0.2947000000000001,-203.71842718056527
-0.29369999999999996,-201.73783136075423
-0.29270000000000007,-199.89870667092967
-0.29169999999999996,-197.91811085111863
-0.29070000000000007,-196.0789861612941
-0.28969999999999996,-194.2398614714695
-0.28870000000000007,-192.2592656516585
-0.28769999999999996,-190.13719870186094
-0.28670000000000007,-188.15660288204987
-0.28569999999999995,-186.17600706223882
-0.28470000000000006,-184.19541124242778
-0.28369999999999995,-182.21481542261674
-0.28270000000000006,-180.37569073279218
-0.28169999999999995,-178.3950949129811
-0.28070000000000006,-176.55597022315658
-0.27969999999999995,-174.85831666331853
-0.27870000000000006,-173.01919197349397
-0.27769999999999995,-171.32153841365593
-0.27670000000000006,-169.48241372383137
-0.27569999999999995,-167.78476016399335
-0.27470000000000006,-165.94563547416882
-0.27369999999999994,-164.10651078434424
-0.27270000000000005,-162.12591496453322
-0.27169999999999994,-160.14531914472215
-0.27070000000000005,-158.3061944548976
-0.26969999999999994,-156.32559863508658
-0.26870000000000005,-154.486473945262
-0.26769999999999994,-152.64734925543743
