Potential V vs RHE, Current mA cm-2
0.013299999999999867,32.368594540912035
0.012299999999999978,30.487028512091538
0.011299999999999866,28.789374952253496
0.010299999999999976,27.176604070407354
0.009299999999999864,25.563833188561212
0.008299999999999974,23.993503645711023
0.007299999999999862,22.281702972874328
0.006299999999999972,20.584049413036283
0.00529999999999986,18.88639585319824
0.0042999999999999705,17.231183632356142
0.0032999999999998586,15.70329542850191
0.0022999999999999687,14.26028990263957
0.0012999999999998568,12.865384560972643
0.00029999999999996696,11.51292055830167
-0.000700000000000145,9.986447065747294
-0.0017000000000000348,8.459973573192919
-0.0027000000000001467,6.889644030342729
-0.0037000000000000366,5.3631705377883545
-0.0047000000000001485,3.9668504848215624
-0.005700000000000038,2.658242532446404
-0.00670000000000015,1.3934906303670611
-0.00770000000000004,0.08502414912188871
-0.008700000000000152,-1.2671569112891135
-0.009700000000000042,-2.662486666345999
-0.010700000000000154,-4.146518819904423
-0.011700000000000044,-5.585280211867165
-0.012700000000000156,-6.93774421453814
-0.013700000000000045,-8.246352166913299
-0.014700000000000157,-9.423391968401008
-0.015700000000000047,-10.601846481188586
-0.01670000000000016,-11.82274233297211
-0.01770000000000005,-13.175206335643086
-0.01870000000000016,-14.529085049613924
-0.01970000000000005,-15.972090575476265
-0.020700000000000163,-17.2736249713521
-0.021700000000000053,-18.49027668923603
-0.022700000000000164,-19.636192842126707
-0.023700000000000054,-20.683079204026836
-0.024700000000000166,-21.814848243918867
-0.025700000000000056,-23.031499961802798
-0.026700000000000168,-24.24815167968673
-0.027700000000000058,-25.563833188561212
-0.02870000000000017,-26.822926245441096
-0.02970000000000006,-28.011283737327723
-0.03070000000000017,-29.100611438223805
-0.03170000000000006,-30.147497800123933
-0.03270000000000017,-31.23682550102001
-0.03370000000000006,-32.368594540912035
-0.034700000000000175,-33.627687597791926
-0.035700000000000065,-34.90092776767045
-0.03670000000000018,-36.11757948555439
-0.03770000000000007,-37.291789864442364
-0.03870000000000018,-38.38111756533845
-0.03970000000000007,-39.38556258824262
-0.04070000000000018,-40.43244895014274
-0.04170000000000007,-41.52177665103883
-0.04270000000000018,-42.71013414292546
-0.04370000000000007,-43.92678586080939
-0.044700000000000184,-45.18587891768927
-0.045700000000000074,-46.41667774857186
-0.046700000000000186,-47.506005449467935
-0.047700000000000076,-48.51045047237211
-0.04870000000000019,-49.373424365289786
-0.04970000000000008,-50.2505453712061
-0.05070000000000019,-51.21254905511432
-0.05170000000000008,-52.25943541701445
-0.05270000000000019,-53.348763117910536
-0.05370000000000008,-54.480532157802564
-0.05470000000000019,-55.56985985869864
-0.05570000000000008,-56.57430488160282
-0.056700000000000195,-57.57874990450699
-0.057700000000000085,-58.62563626640712
-0.058700000000000196,-59.7149639673032
-0.059700000000000086,-60.93161568518713
-0.0607000000000002,-62.16241451606972
-0.06170000000000009,-63.3366248949577
-0.0627000000000002,-64.46839393484973
-0.06370000000000009,-65.38795627976201
-0.0647000000000002,-66.25093017267966
-0.06570000000000009,-67.17049251759194
-0.0667000000000002,-68.0900548625042
-0.0677000000000001,-69.05205854641244
-0.0687000000000002,-70.01406223032066
-0.0697000000000001,-71.06094859222078
-0.07070000000000021,-72.05124650212633
-0.0717000000000001,-73.01325018603454
-0.07270000000000021,-73.89037119195086
-0.0737000000000001,-74.76749219786718
-0.07470000000000021,-75.6729074297808
-0.0757000000000001,-76.7622351306769
-0.07670000000000021,-77.90815128356756
-0.0777000000000001,-79.16724434044745
-0.07870000000000021,-80.38389605833139
-0.0797000000000001,-81.51566509822342
-0.08070000000000022,-82.56255146012353
-0.0817000000000001,-83.48211380503581
-0.08270000000000022,-84.35923481095215
-0.08370000000000011,-85.32123849486035
-0.08470000000000022,-86.28324217876859
-0.08570000000000011,-87.27354008867411
-0.08670000000000022,-88.23554377258235
-0.08770000000000011,-89.11266477849867
-0.08870000000000022,-89.84831465442848
-0.08970000000000011,-90.6405529823529
-0.09070000000000022,-91.41864419727867
-0.09170000000000011,-92.29576520319499
-0.09270000000000023,-93.21532754810727
-0.09370000000000012,-94.17733123201549
-0.09470000000000023,-95.35154161090348
-0.09570000000000012,-96.44086931179956
-0.09670000000000023,-97.44531433470372
-0.09770000000000012,-98.3082882276214
-0.09870000000000023,-99.10052655554581
-0.09970000000000012,-99.93520622246619
-0.10070000000000023,-100.84062145437981
-0.10170000000000012,-101.80262513828804
-0.10270000000000024,-102.89195283918411
-0.10370000000000013,-103.85395652309235
-0.10470000000000024,-104.81596020700057
-0.10570000000000013,-105.63649276092228
-0.10670000000000024,-106.47117242784265
-0.10770000000000013,-107.34829343375898
-0.10870000000000024,-108.3102971176672
-0.10970000000000013,-109.39962481856328
-0.11070000000000024,-110.53139385845533
-0.11170000000000013,-111.7056042373433
-0.11270000000000002,-112.87981461623129
-0.11370000000000013,-113.88425963913545
-0.11470000000000002,-114.71893930605583
-0.11570000000000014,-115.45458918198564
-0.11670000000000003,-116.14779771891952
-0.11770000000000014,-116.94003604684394
-0.11870000000000003,-117.71812726176971
-0.11970000000000014,-118.63768960668197
-0.12070000000000003,-119.5996932905902
-0.12170000000000014,-120.51925563550247
-0.12270000000000003,-121.43881798041474
-0.12370000000000014,-122.34423321232836
-0.12470000000000003,-123.34867823523254
-0.12570000000000014,-124.39556459713268
-0.12670000000000003,-125.56977497602065
-0.12770000000000015,-126.75813246790726
-0.12870000000000004,-127.88990150779931
-0.12970000000000015,-128.89434653070347
-0.13070000000000004,-129.75732042362114
-0.13170000000000015,-130.59200009054155
-0.13270000000000004,-131.46912109645783
-0.13370000000000015,-132.37453632837148
-0.13470000000000004,-133.37898135127566
-0.13570000000000015,-134.38342637417986
-0.13670000000000004,-135.387871397084
-0.13770000000000016,-136.30743374199628
-0.13870000000000005,-137.04308361792607
-0.13970000000000016,-137.75043926785864
-0.14070000000000005,-138.40120646579655
-0.14170000000000016,-139.1792976807223
-0.14270000000000005,-140.14130136463055
-0.14370000000000016,-141.27307040452254
-0.14470000000000005,-142.4614278964092
-0.14570000000000016,-143.73466806628772
-0.14670000000000005,-144.86643710617977
-0.14770000000000016,-145.85673501608528
-0.14870000000000005,-146.7055617960043
-0.14970000000000017,-147.55438857592333
-0.15070000000000006,-148.40321535584232
-0.15170000000000017,-149.25204213576137
-0.15270000000000006,-150.1008689156804
-0.15370000000000017,-150.8082245656129
-0.15470000000000006,-151.23263795557244
-0.15570000000000017,-151.93999360550492
-0.15670000000000006,-152.93029151541046
-0.15770000000000017,-154.3450028152755
-0.15870000000000006,-155.75971411514055
-0.15970000000000018,-157.31589654499206
-0.16070000000000007,-158.87207897484362
-0.16170000000000018,-160.28679027470866
-0.16270000000000007,-161.70150157457368
-0.16370000000000018,-163.11621287443873
-0.16470000000000007,-164.53092417430375
-0.16570000000000018,-165.3797509542228
-0.16670000000000007,-165.94563547416882
-0.16770000000000018,-166.51151999411482
-0.16870000000000007,-167.07740451406085
-0.16970000000000018,-168.06770242396635
-0.17070000000000007,-168.91652920388537
-0.17170000000000019,-169.7653559838044
-0.17270000000000008,-170.75565389370993
-0.1737000000000002,-171.74595180361547
-0.17470000000000008,-173.302134233467
-0.1757000000000002,-174.71684553333202
-0.17670000000000008,-176.27302796318358
-0.1777000000000002,-177.6877392630486
-0.17870000000000008,-178.96097943292713
-0.1797000000000002,-180.09274847281918
-0.18070000000000008,-180.94157525273818
-0.1817000000000002,-181.5074597726842
-0.18270000000000008,-182.07334429263022
-0.1837000000000002,-182.63922881257625
-0.1847000000000001,-183.34658446250873
-0.1857000000000002,-184.33688237241427
-0.1867000000000001,-185.1857091523333
-0.1877000000000002,-186.17600706223882
-0.1887000000000001,-186.88336271217133
-0.1897000000000002,-187.44924723211736
-0.1907000000000001,-188.15660288204987
-0.1917000000000001,-188.72248740199586
-0.19269999999999998,-189.42984305192843
-0.1937000000000001,-190.13719870186094
-0.19469999999999998,-190.84455435179345
-0.1957000000000001,-191.551910001726
-0.19669999999999999,-192.11779452167198
-0.1977000000000001,-192.82515017160452
-0.1987,-193.3910346915505
-0.1997000000000001,-193.9569192114965
-0.2007,-194.66427486142905
-0.2017000000000001,-195.23015938137505
-0.2027,-195.79604390132107
-0.2037000000000001,-196.3619284212671
-0.2047,-196.7863418112266
-0.2057000000000001,-197.35222633117263
-0.2067,-197.91811085111863
-0.2077000000000001,-198.48399537106465
-0.2087,-199.33282215098367
-0.2097000000000001,-200.3231200608892
-0.2107,-201.59636023076774
-0.2117000000000001,-202.7281292706598
-0.2127,-203.71842718056527
-0.2137000000000001,-204.8501962204573
-0.2147,-205.84049413036286
-0.2157000000000001,-206.97226317025488
-0.2167,-207.96256108016038
-0.21770000000000012,-208.95285899006592
-0.2187,-209.94315689997146
-0.21970000000000012,-210.93345480987696
-0.2207,-211.782281589796
-0.22170000000000012,-212.48963723972852
-0.2227,-213.47993514963403
-0.22370000000000012,-214.32876192955305
-0.2247,-215.4605309694451
-0.22570000000000012,-216.73377113932364
-0.2267,-218.14848243918865
-0.22770000000000012,-219.7046648690402
-0.22870000000000001,-221.11937616890526
-0.22970000000000013,-222.53408746877028
-0.23070000000000002,-223.80732763864881
-0.23170000000000013,-224.79762554855435
-0.23270000000000002,-225.64645232847332
-0.23370000000000013,-226.49527910839237
-0.23470000000000002,-227.4855770182979
-0.23570000000000013,-228.61734605818995
-0.23670000000000002,-229.74911509808197
-0.2376999999999999,-231.0223552679605
-0.23870000000000002,-232.15412430785253
-0.2396999999999999,-233.1444222177581
-0.24070000000000003,-234.13472012766357
-0.24169999999999991,-235.12501803756908
-0.24270000000000003,-236.25678707746113
-0.24369999999999992,-237.24708498736666
-0.24470000000000003,-238.37885402725868
-0.24569999999999992,-239.36915193716422
-0.24670000000000003,-240.21797871708318
-0.24769999999999992,-240.92533436701575
-0.24870000000000003,-241.6326900169483
-0.24969999999999992,-242.62298792685377
-0.25070000000000003,-243.75475696674582
-0.2516999999999999,-245.02799713662432
-0.25270000000000004,-246.30123730650286
-0.2536999999999999,-247.2915352164084
-0.25470000000000004,-247.99889086634093
-0.2556999999999999,-248.84771764625998
-0.25670000000000004,-249.5550732961925
-0.25769999999999993,-250.1209578161385
-0.25870000000000004,-250.6868423360845
-0.25969999999999993,-251.39419798601702
-0.26070000000000004,-252.10155363594956
-0.26169999999999993,-253.09185154585506
-0.26270000000000004,-253.79920719578757
-0.26369999999999993,-254.64803397570657
-0.26470000000000005,-255.35538962563913
-0.26569999999999994,-256.34568753554464
-0.26670000000000005,-257.33598544545015
-0.26769999999999994,-258.32628335535566
-0.26870000000000005,-259.4580523952477
-0.26969999999999994,-260.3068791751668
-0.27070000000000005,-261.01423482509927
-0.27169999999999994,-261.7215904750318
-0.27270000000000005,-262.2874749949778
-0.27369999999999994,-262.8533595149238
-0.27470000000000006,-263.41924403486985
-0.27569999999999995,-264.2680708147888
-0.27670000000000006,-265.11689759470784
-0.27769999999999995,-266.2486666345999
-0.27870000000000006,-267.38043567449193
-0.27969999999999995,-268.37073358439744
-0.28070000000000006,-269.361031494303
-0.28169999999999995,-270.35132940420846
-0.28270000000000006,-271.20015618412754
-0.28369999999999995,-272.04898296404656
-0.28470000000000006,-272.8978097439656
-0.28569999999999995,-273.60516539389806
-0.28670000000000007,-274.31252104383066
-0.28769999999999996,-275.0198766937631
-0.28870000000000007,-275.58576121370913
-0.28969999999999996,-276.15164573365513
-0.29070000000000007,-276.7175302536012
-0.29169999999999996,-277.4248859035337
-0.29270000000000007,-278.2737126834527
-0.29369999999999996,-279.40548172334474
-0.2947000000000001,-280.67872189322327
-0.29569999999999996,-281.66901980312883
-0.2967000000000001,-282.51784658304786
-0.29769999999999996,-283.22520223298034
-0.2987000000000001,-283.9325578829129
-0.29969999999999997,-284.7813846628319
-0.3007000000000001,-285.7716825727374
-0.30169999999999997,-286.76198048264297
-0.3027000000000001,-287.7522783925485
-0.30369999999999997,-288.742576302454
-0.3047000000000001,-289.59140308237295
-0.30569999999999997,-290.44022986229203
-0.3067000000000001,-291.28905664221105
-0.3077,-292.2793545521166
-0.3087000000000001,-293.1281813320356
-0.3097,-294.11847924194115
-0.3107000000000001,-294.96730602186017
-0.3117,-295.8161328017792
-0.3127000000000001,-296.6649595816982
-0.3137,-297.3723152316307
-0.3147000000000001,-298.07967088156323
-0.3157,-298.78702653149577
-0.3167000000000001,-299.49438218142825
-0.3177,-300.48468009133376
-0.3187000000000001,-301.47497800123926
-0.3197,-302.74821817111786
-0.3207000000000001,-303.87998721100985
-0.3217,-304.8702851209154
-0.3227000000000001,-305.8605830308209
-0.3237,-306.56793868075346
-0.3247000000000001,-307.4167654606725
-0.3257,-308.2655922405915
-0.3267000000000001,-309.1144190205105
-0.3277,-309.9632458004295
-0.3287000000000001,-310.6706014503621
-0.3297,-311.5194282302811
-0.3307000000000001,-312.2267838802136
-0.3317,-312.9341395301461
-0.3327000000000001,-313.9244374400517
-0.3337,-314.91473534995714
-0.3347000000000001,-315.9050332598627
-0.3357,-317.03680229975475
-0.3367000000000001,-318.16857133964675
-0.3377,-319.15886924955225
-0.3387000000000001,-319.8662248994848
-0.3397,-320.71505167940376
-0.3407000000000001,-321.42240732933635
-0.3417,-322.12976297926883
-0.3427000000000001,-322.97858975918786
-0.3437,-323.8274165391069
-0.3447000000000001,-324.81771444901244
-0.3457,-325.6665412289314
-0.3467000000000001,-326.373896878864
-0.3477,-327.0812525287965
-0.3487000000000001,-327.9300793087155
-0.3497,-328.7789060886345
-0.3507000000000001,-329.76920399854004
-0.3517,-330.618030778459
-0.3527000000000001,-331.74979981835105
-0.3537,-332.7400977282566
-0.3547000000000001,-333.5889245081757
-0.3557,-334.43775128809466
-0.35670000000000013,-335.00363580804066
-0.3577,-335.5695203279867
-0.35870000000000013,-336.27687597791925
-0.3597,-337.12570275783827
-0.36070000000000013,-338.2574717977303
-0.3617,-339.2477697076358
-0.3626999999999999,-340.0965964875548
-0.3637,-340.80395213748733
-0.3646999999999999,-341.51130778741987
-0.3657,-342.21866343735235
-0.3666999999999999,-342.7845479572984
-0.3677,-343.49190360723094
-0.3686999999999999,-344.057788127177
-0.36970000000000003,-344.48220151713645
-0.3706999999999999,-345.04808603708244
-0.37170000000000003,-345.7554416870149
-0.3726999999999999,-346.604268466934
-0.37370000000000003,-347.59456637683957
-0.3746999999999999,-348.301922026772
-0.37570000000000003,-349.15074880669107
-0.3766999999999999,-350.1410467165966
-0.37770000000000004,-351.1313446265021
-0.3786999999999999,-351.8387002764346
-0.37970000000000004,-352.4045847963807
-0.3806999999999999,-352.9704693163266
-0.38170000000000004,-353.3948827062862
-0.38269999999999993,-353.96076722623224
-0.38370000000000004,-354.66812287616466
-0.38469999999999993,-355.51694965608374
-0.38570000000000004,-356.36577643600276
-0.38669999999999993,-355.7998919160567
-0.38570000000000004,-352.8289981863402
-0.38469999999999993,-349.85810445662355
-0.38370000000000004,-346.7457395969205
-0.38269999999999993,-343.63337473721737
-0.38170000000000004,-340.3795387475279
-0.3806999999999999,-337.5501161477977
-0.37970000000000004,-334.5792224180812
-0.3786999999999999,-331.89127094833765
-0.37770000000000004,-328.92037721862107
-0.3766999999999999,-325.94948348890443
-0.37570000000000003,-322.97858975918786
-0.3746999999999999,-320.00769602947133
-0.37370000000000003,-317.3197445597277
-0.3726999999999999,-314.91473534995714
-0.37170000000000003,-312.50972614018656
-0.3706999999999999,-310.38765919038906
-0.36970000000000003,-308.124121110605
-0.3686999999999999,-305.8605830308209
-0.3677,-303.4555738210504
-0.3666999999999999,-301.0505646112798
-0.3657,-298.50408427152274
-0.3646999999999999,-296.0990750617522
-0.3637,-293.55259472199515
-0.3626999999999999,-291.14758551222457
-0.3617,-288.45963404248096
-0.36070000000000013,-286.0546248327104
-0.3597,-283.5081444929533
-0.35870000000000013,-280.9616641531963
-0.3577,-278.5566549434257
-0.35670000000000013,-276.15164573365513
-0.3557,-273.8881076538711
-0.3547000000000001,-271.7660407040736
-0.3537,-269.64397375427603
-0.3527000000000001,-267.38043567449193
-0.3517,-264.9754264647214
-0.3507000000000001,-262.57041725495077
-0.3497,-260.02393691519376
-0.3487000000000001,-257.4774565754367
-0.3477,-255.07244736566614
-0.3467000000000001,-252.80890928588207
-0.3457,-250.6868423360845
-0.3447000000000001,-248.56477538628693
-0.3437,-246.30123730650286
-0.3427000000000001,-244.03769922671884
-0.3417,-241.77416114693477
-0.3407000000000001,-239.5106230671507
-0.3397,-237.24708498736666
-0.3387000000000001,-235.12501803756908
-0.3377,-232.86147995778504
-0.3367000000000001,-230.7394130079875
-0.3357,-228.47587492820347
-0.3347000000000001,-226.21233684841937
-0.3337,-223.80732763864881
-0.3327000000000001,-221.40231842887826
-0.3317,-219.13878034909416
-0.3307000000000001,-216.59230000933712
-0.3297,-214.18729079956654
-0.3287000000000001,-212.065223849769
-0.3277,-210.08462802995794
-0.3267000000000001,-207.96256108016038
-0.3257,-205.84049413036286
-0.3247000000000001,-203.71842718056527
-0.3237,-201.59636023076774
-0.3227000000000001,-199.61576441095667
-0.3217,-197.63516859114563
-0.3207000000000001,-195.65457277133459
-0.3197,-193.6739769515235
-0.3187000000000001,-191.41043887173947
-0.3177,-189.1469007919554
-0.3167000000000001,-186.74189158218485
-0.3157,-184.47835350240078
-0.3147000000000001,-182.49775768258974
-0.3137,-180.65863299276518
-0.3127000000000001,-178.96097943292713
-0.3117,-177.1218547431026
-0.3107000000000001,-175.14125892329156
-0.3097,-173.01919197349397
-0.3087000000000001,-170.75565389370993
-0.3077,-168.49211581392586
-0.3067000000000001,-166.3700488641283
-0.30569999999999997,-164.38945304431726
-0.3047000000000001,-162.40885722450622
-0.30369999999999997,-160.5697325346817
-0.3027000000000001,-158.73060784485713
-0.30169999999999997,-156.89148315503257
-0.3007000000000001,-155.05235846520802
-0.29969999999999997,-153.07176264539694
-0.2987000000000001,-151.09116682558593
-0.29769999999999996,-149.25204213576137
-0.2967000000000001,-147.27144631595033
-0.29569999999999996,-145.43232162612577
-0.2947000000000001,-143.5931969363012
-0.29369999999999996,-141.75407224647665
-0.29270000000000007,-139.74518220066832
-0.29169999999999996,-137.75043926785864
-0.29070000000000007,-135.78399056104624
-0.28969999999999996,-133.94486587122168
-0.28870000000000007,-132.20477097238768
-0.28769999999999996,-130.5495587515456
-0.28670000000000007,-128.752875400717
-0.28569999999999995,-126.9278978238911
-0.28470000000000006,-124.9614491170787
-0.28369999999999995,-122.86767639327843
-0.28270000000000006,-120.81634500847414
-0.28169999999999995,-118.82160207566443
-0.28070000000000006,-116.98247738583989
-0.27969999999999995,-115.2423824870059
-0.27870000000000006,-113.58717026616378
-0.27769999999999995,-111.96025227131899
-0.27670000000000006,-110.26259871148096
-0.27569999999999995,-108.48006247365102
-0.27470000000000006,-106.64093778382647
-0.27369999999999994,-104.77351886800463
-0.27270000000000005,-102.97683551717601
-0.27169999999999994,-101.27918195733798
-0.27070000000000005,-99.62396973649588
-0.26969999999999994,-97.92631617665783
-0.26870000000000005,-96.21451550382113
