Potential V vs RHE, Current mA cm-2
0.013299999999999867,12.428238769314348
0.012299999999999978,10.46603419640154
0.011299999999999866,8.546270962484687
0.010299999999999976,6.627922439867697
0.009299999999999864,4.839727356838291
0.008299999999999974,3.0939736128048354
0.007299999999999862,1.3934906303670611
0.006299999999999972,-0.2202705493889862
0.00529999999999986,-1.8334658446250875
0.0042999999999999705,-3.361354048479327
0.0032999999999998586,-4.9302688800296535
0.0022999999999999687,-6.458157083883892
0.0012999999999998568,-8.070927965730034
0.00029999999999996696,-9.59740145828441
-0.000700000000000145,-11.211587051430415
-0.0017000000000000348,-12.825772644576423
-0.0027000000000001467,-14.30273124163552
-0.0037000000000000366,-15.78817810649381
-0.0047000000000001485,-17.188742293360193
-0.005700000000000038,-18.53271802823198
-0.00670000000000015,-19.848399537106463
-0.00770000000000004,-21.149933932982297
-0.008700000000000152,-22.508056780852733
-0.009700000000000042,-23.86617962872317
-0.010700000000000154,-25.252596702590903
-0.011700000000000044,-26.61071955046134
-0.012700000000000156,-28.011283737327723
-0.013700000000000045,-29.35525947219951
-0.014700000000000157,-30.670940981073993
-0.015700000000000047,-31.930034037953877
-0.01670000000000016,-33.14668575583781
-0.01770000000000005,-34.278454795729836
-0.01870000000000016,-35.42437094862052
-0.01970000000000005,-36.64102266650445
-0.020700000000000163,-37.73035036740053
-0.021700000000000053,-38.98944342428042
-0.022700000000000164,-40.177800916167044
-0.023700000000000054,-41.43689397304693
-0.024700000000000166,-42.71013414292546
-0.025700000000000056,-43.84190318281749
-0.026700000000000168,-44.97367222270952
-0.027700000000000058,-46.10544126260155
-0.02870000000000017,-47.19476896349763
-0.02970000000000006,-48.24165532539775
-0.03070000000000017,-49.24610034830193
-0.03170000000000006,-50.29298671020206
-0.03270000000000017,-51.33987307210218
-0.03370000000000006,-52.386759434002315
-0.034700000000000175,-53.476087134898386
-0.035700000000000065,-54.56541483579447
-0.03670000000000018,-55.6971838756865
-0.03770000000000007,-56.82895291557852
-0.03870000000000018,-57.87583927747865
-0.03970000000000007,-58.83784296138688
-0.04070000000000018,-59.842287984291055
-0.04170000000000007,-60.761850329203334
-0.04270000000000018,-61.6814126741156
-0.04370000000000007,-62.58682790602922
-0.044700000000000184,-63.54883158993744
-0.045700000000000074,-64.55327661284163
-0.046700000000000186,-65.51528029674984
-0.047700000000000076,-66.60460799764593
-0.04870000000000019,-67.65149435954605
-0.04970000000000008,-68.65593938245023
-0.05070000000000019,-69.61794306635846
-0.05170000000000008,-70.53750541127073
-0.05270000000000019,-71.4004793041884
-0.05370000000000008,-72.23515897110877
-0.05470000000000019,-73.09813286402644
-0.05570000000000008,-73.93281253094682
-0.056700000000000195,-74.89481621485504
-0.057700000000000085,-75.81437855976732
-0.058700000000000196,-76.7622351306769
-0.059700000000000086,-77.76668015358106
-0.0607000000000002,-78.72868383748929
-0.06170000000000009,-79.69068752139752
-0.0627000000000002,-80.56780852731384
-0.06370000000000009,-81.43078242023151
-0.0647000000000002,-82.26546208715187
-0.06570000000000009,-83.04355330207765
-0.0667000000000002,-83.87823296899803
-0.0677000000000001,-84.75535397491434
-0.0687000000000002,-85.66076920682796
-0.0697000000000001,-86.6227728907362
-0.07070000000000021,-87.62721791364037
-0.0717000000000001,-88.54678025855264
-0.07270000000000021,-89.50878394246087
-0.0737000000000001,-90.37175783537855
-0.07470000000000021,-91.20643750229891
-0.0757000000000001,-92.04111716921928
-0.07670000000000021,-92.73432570615316
-0.0777000000000001,-93.51241692107894
-0.07870000000000021,-94.26221391000739
-0.0797000000000001,-95.08274646392913
-0.08070000000000022,-96.00230880884139
-0.0817000000000001,-96.92187115375367
-0.08270000000000022,-97.88387483766188
-0.08370000000000011,-98.7892900695755
-0.08470000000000022,-99.66641107549184
-0.08570000000000011,-100.54353208140815
-0.08670000000000022,-101.32162329633393
-0.08770000000000011,-102.11386162425833
-0.08870000000000022,-102.84951150018817
-0.08970000000000011,-103.64174982811258
-0.09070000000000022,-104.41984104303836
-0.09170000000000011,-105.29696204895468
-0.09270000000000023,-106.11749460287639
-0.09370000000000012,-106.99461560879273
-0.09470000000000023,-107.99906063169689
-0.09570000000000012,-108.83374029861727
-0.09670000000000023,-109.654272852539
-0.09770000000000012,-110.48895251945936
-0.09870000000000023,-111.26704373438514
-0.09970000000000012,-112.01684072331359
-0.10070000000000023,-112.79493193823936
-0.10170000000000012,-113.62961160515974
-0.10270000000000024,-114.45014415908147
-0.10370000000000013,-115.28482382600184
-0.10470000000000024,-116.20438617091412
-0.10570000000000013,-117.10980140282774
-0.10670000000000024,-118.02936374774
-0.10770000000000013,-118.94892609265229
-0.10870000000000024,-119.81189998556997
-0.10970000000000013,-120.60413831349437
-0.11070000000000024,-121.33978818942418
-0.11170000000000013,-122.1320265173486
-0.11270000000000002,-122.91011773227437
-0.11370000000000013,-123.70235606019881
-0.11470000000000002,-124.48044727512458
-0.11570000000000014,-125.40000962003687
-0.11670000000000003,-126.27713062595316
-0.11770000000000014,-127.19669297086547
-0.11870000000000003,-128.10210820277908
-0.11970000000000014,-128.93678786969946
-0.12070000000000003,-129.75732042362114
-0.12170000000000014,-130.5495587515456
-0.12270000000000003,-131.28520862747538
-0.12370000000000014,-132.03500561640385
-0.12470000000000003,-132.8555381703256
-0.12570000000000014,-133.60533515925405
-0.12670000000000003,-134.46830905217172
-0.12770000000000015,-135.387871397084
-0.12870000000000004,-136.26499240300032
-0.12970000000000015,-137.22699608690854
-0.13070000000000004,-138.08996997982624
-0.13170000000000015,-138.96709098574257
-0.13270000000000004,-139.74518220066832
-0.13370000000000015,-140.53742052859275
-0.13470000000000004,-141.27307040452254
-0.13570000000000015,-142.03701450644968
-0.13670000000000004,-142.7443701563822
-0.13770000000000016,-143.5931969363012
-0.13870000000000005,-144.44202371622026
-0.13970000000000016,-145.43232162612577
-0.14070000000000005,-146.28114840604482
-0.14170000000000016,-147.27144631595033
-0.14270000000000005,-148.12027309586935
-0.14370000000000016,-148.96909987578834
-0.14470000000000005,-149.6764555257209
-0.14570000000000016,-150.5252823056399
-0.14670000000000005,-151.23263795557244
-0.14770000000000016,-151.93999360550492
-0.14870000000000005,-152.78882038542397
-0.14970000000000017,-153.63764716534297
-0.15070000000000006,-154.486473945262
-0.15170000000000017,-155.33530072518104
-0.15270000000000006,-156.18412750510007
-0.15370000000000017,-157.17442541500557
-0.15470000000000006,-158.02325219492457
-0.15570000000000017,-158.87207897484362
-0.15670000000000006,-159.57943462477613
-0.15770000000000017,-160.28679027470866
-0.15870000000000006,-161.1356170546277
-0.15970000000000018,-161.84297270456022
-0.16070000000000007,-162.6917994844792
-0.16170000000000018,-163.54062626439824
-0.16270000000000007,-164.24798191433075
-0.16370000000000018,-165.09680869424977
-0.16470000000000007,-166.0871066041553
-0.16570000000000018,-167.07740451406085
-0.16670000000000007,-167.92623129397984
-0.16770000000000018,-168.77505807389886
-0.16870000000000007,-169.48241372383137
-0.16970000000000018,-170.18976937376394
-0.17070000000000007,-171.03859615368293
-0.17170000000000019,-171.74595180361547
-0.17270000000000008,-172.59477858353446
-0.1737000000000002,-173.44360536345349
-0.17470000000000008,-174.2924321433725
-0.1757000000000002,-175.28273005327804
-0.17670000000000008,-176.13155683319707
-0.1777000000000002,-176.98038361311612
-0.17870000000000008,-177.82921039303508
-0.1797000000000002,-178.53656604296762
-0.18070000000000008,-179.38539282288664
-0.1817000000000002,-180.09274847281918
-0.18270000000000008,-180.94157525273818
-0.1837000000000002,-181.64893090267074
-0.1847000000000001,-182.49775768258974
-0.1857000000000002,-183.34658446250873
-0.1867000000000001,-184.19541124242778
-0.1877000000000002,-185.1857091523333
-0.1887000000000001,-186.03453593225234
-0.1897000000000002,-186.88336271217133
-0.1907000000000001,-187.73218949209036
-0.1917000000000001,-188.58101627200938
-0.19269999999999998,-189.2883719219419
-0.1937000000000001,-189.99572757187443
-0.19469999999999998,-190.84455435179345
-0.1957000000000001,-191.551910001726
-0.19669999999999999,-192.40073678164498
-0.1977000000000001,-193.249563561564
-0.1987,-194.09839034148303
-0.1997000000000001,-194.94721712140205
-0.2007,-195.79604390132107
-0.2017000000000001,-196.6448706812401
-0.2027,-197.35222633117263
-0.2037000000000001,-198.20105311109162
-0.2047,-198.90840876102413
-0.2057000000000001,-199.61576441095667
-0.2067,-200.3231200608892
-0.2077000000000001,-201.03047571082172
-0.2087,-201.87930249074074
-0.2097000000000001,-202.86960040064628
-0.2107,-203.71842718056527
-0.2117000000000001,-204.5672539604843
-0.2127,-205.41608074040332
-0.2137000000000001,-206.26490752032234
-0.2147,-207.1137343002414
-0.2157000000000001,-207.8210899501739
-0.2167,-208.6699167300929
-0.21770000000000012,-209.23580125003892
-0.2187,-210.08462802995794
-0.21970000000000012,-210.79198367989048
-0.2207,-211.64081045980947
-0.22170000000000012,-212.48963723972852
-0.2227,-213.47993514963403
-0.22370000000000012,-214.32876192955305
-0.2247,-215.17758870947208
-0.22570000000000012,-215.88494435940459
-0.2267,-216.73377113932364
-0.22770000000000012,-217.44112678925615
-0.22870000000000001,-218.14848243918865
-0.22970000000000013,-218.85583808912116
-0.23070000000000002,-219.5631937390537
-0.23170000000000013,-220.41202051897272
-0.23270000000000002,-221.26084729889175
-0.23370000000000013,-222.10967407881074
-0.23470000000000002,-222.9585008587298
-0.23570000000000013,-223.80732763864881
-0.23670000000000002,-224.65615441856778
-0.2376999999999999,-225.50498119848683
-0.23870000000000002,-226.21233684841937
-0.2396999999999999,-226.91969249835188
-0.24070000000000003,-227.62704814828442
-0.24169999999999991,-228.33440379821695
-0.24270000000000003,-229.18323057813595
-0.24369999999999992,-229.89058622806846
-0.24470000000000003,-230.7394130079875
-0.24569999999999992,-231.5882397879065
-0.24670000000000003,-232.57853769781204
-0.24769999999999992,-233.4273644777311
-0.24870000000000003,-234.13472012766357
-0.24969999999999992,-234.84207577759608
-0.25070000000000003,-235.40796029754208
-0.2516999999999999,-235.97384481748813
-0.25270000000000004,-236.6812004674206
-0.2536999999999999,-237.38855611735315
-0.25470000000000004,-238.2373828972722
-0.2556999999999999,-239.0862096771912
-0.25670000000000004,-240.0765075870967
-0.25769999999999993,-241.06680549700224
-0.25870000000000004,-241.9156322769213
-0.25969999999999993,-242.90593018682682
-0.26070000000000004,-243.75475696674582
-0.26169999999999993,-244.60358374666484
-0.26270000000000004,-245.59388165657037
-0.26369999999999993,-246.30123730650286
-0.26470000000000005,-247.1500640864219
-0.26569999999999994,-247.85741973635444
-0.26670000000000005,-248.84771764625998
-0.26769999999999994,-249.83801555616546
-0.26870000000000005,-250.828313466071
-0.26969999999999994,-251.81861137597656
-0.27070000000000005,-252.66743815589555
-0.27169999999999994,-253.51626493581452
-0.27270000000000005,-254.36509171573357
-0.27369999999999994,-255.21391849565262
-0.27470000000000006,-256.0627452755717
-0.27569999999999995,-256.77010092550415
-0.27670000000000006,-257.6189277054232
-0.27769999999999995,-258.4677544853422
-0.27870000000000006,-259.3165812652612
-0.27969999999999995,-260.16540804518024
-0.28070000000000006,-261.01423482509927
-0.28169999999999995,-261.8630616050183
-0.28270000000000006,-262.7118883849373
-0.28369999999999995,-263.56071516485633
-0.28470000000000006,-264.2680708147888
-0.28569999999999995,-264.9754264647214
-0.28670000000000007,-265.5413109846674
-0.28769999999999996,-266.1071955046134
-0.28870000000000007,-266.6730800245594
-0.28969999999999996,-267.38043567449193
-0.29070000000000007,-268.0877913244245
-0.29169999999999996,-268.93661810434344
-0.29270000000000007,-269.78544488426246
-0.29369999999999996,-270.49280053419506
-0.2947000000000001,-271.341627314114
-0.29569999999999996,-272.04898296404656
-0.2967000000000001,-272.7563386139791
-0.29769999999999996,-273.3222231339251
-0.2987000000000001,-273.7466365238846
-0.29969999999999997,-274.4539921738171
-0.3007000000000001,-275.1613478237496
-0.30169999999999997,-275.86870347368216
-0.3027000000000001,-276.7175302536012
-0.30369999999999997,-277.4248859035337
-0.3047000000000001,-278.4151838134392
-0.30569999999999997,-279.26401059335825
-0.3067000000000001,-280.11283737327733
-0.3077,-280.9616641531963
-0.3087000000000001,-281.8104909331153
-0.3097,-282.51784658304786
-0.3107000000000001,-283.22520223298034
-0.3117,-283.9325578829129
-0.3127000000000001,-284.7813846628319
-0.3137,-285.6302114427509
-0.3147000000000001,-286.6205093526564
-0.3157,-287.46933613257545
-0.3167000000000001,-288.3181629124945
-0.3177,-289.1669896924135
-0.3187000000000001,-289.87434534234603
-0.3197,-290.723172122265
-0.3207000000000001,-291.4305277721976
-0.3217,-292.1378834221301
-0.3227000000000001,-292.8452390720626
-0.3237,-293.6940658519816
-0.3247000000000001,-294.54289263190066
-0.3257,-295.53319054180616
-0.3267000000000001,-296.3820173217252
-0.3277,-297.3723152316307
-0.3287000000000001,-298.3626131415362
-0.3297,-299.3529110514418
-0.3307000000000001,-300.2017378313608
-0.3317,-301.0505646112798
-0.3327000000000001,-301.8993913911989
-0.3337,-302.6067470411313
-0.3347000000000001,-303.4555738210504
-0.3357,-304.1629294709828
-0.3367000000000001,-304.8702851209154
-0.3377,-305.71911190083443
-0.3387000000000001,-306.56793868075346
-0.3397,-307.4167654606725
-0.3407000000000001,-308.124121110605
-0.3417,-308.8314767605375
-0.3427000000000001,-309.53883241047004
-0.3437,-310.2461880604026
-0.3447000000000001,-311.09501484032154
-0.3457,-311.80237049025413
-0.3467000000000001,-312.36825501020013
-0.3477,-313.21708179011915
-0.3487000000000001,-314.0659085700381
-0.3497,-314.91473534995714
-0.3507000000000001,-315.76356212987616
-0.3517,-316.6123889097952
-0.3527000000000001,-317.60268681970075
-0.3537,-318.4515135996198
-0.3547000000000001,-319.30034037953874
-0.3557,-320.00769602947133
-0.35670000000000013,-320.8565228093903
-0.3577,-321.56387845932284
-0.35870000000000013,-322.41270523924186
-0.3597,-323.40300314914737
-0.36070000000000013,-324.25182992906645
-0.3617,-325.1006567089854
-0.3626999999999999,-326.090954618891
-0.3637,-326.93978139880994
-0.3646999999999999,-327.788608178729
-0.3657,-328.63743495864804
-0.3666999999999999,-329.20331947859404
-0.3677,-329.9106751285266
-0.3686999999999999,-330.4765596484726
-0.36970000000000003,-331.3253864283916
-0.3706999999999999,-332.03274207832413
-0.37170000000000003,-332.8815688582431
-0.3726999999999999,-333.7303956381621
-0.37370000000000003,-334.5792224180812
-0.3746999999999999,-335.5695203279867
-0.37570000000000003,-336.27687597791925
-0.3766999999999999,-337.12570275783827
-0.37770000000000004,-337.83305840777075
-0.3786999999999999,-338.5404140577033
-0.37970000000000004,-339.2477697076358
-0.3806999999999999,-339.95512535756825
-0.38170000000000004,-340.80395213748733
-0.38269999999999993,-341.51130778741987
-0.38370000000000004,-342.3601345673389
-0.38469999999999993,-343.2089613472579
-0.38570000000000004,-344.1992592571634
-0.38669999999999993,-343.7748458672039
-0.38570000000000004,-340.80395213748733
-0.38469999999999993,-337.83305840777075
-0.38370000000000004,-334.7206935480677
-0.38269999999999993,-331.74979981835105
-0.38170000000000004,-328.92037721862107
-0.3806999999999999,-326.090954618891
-0.37970000000000004,-323.40300314914737
-0.3786999999999999,-320.57358054941733
-0.37770000000000004,-317.74415794968724
-0.3766999999999999,-315.0562064799437
-0.37570000000000003,-312.50972614018656
-0.3746999999999999,-309.821774670443
-0.37370000000000003,-307.1338232006995
-0.3726999999999999,-304.3044006009694
-0.37170000000000003,-301.6164491312258
-0.3706999999999999,-298.9284976614822
-0.36970000000000003,-296.0990750617522
-0.3686999999999999,-293.55259472199515
-0.3677,-290.86464325225154
-0.3666999999999999,-288.176691782508
-0.3657,-285.6302114427509
-0.3646999999999999,-283.22520223298034
-0.3637,-280.67872189322327
-0.3626999999999999,-278.1322415534662
-0.3617,-275.7272323436957
-0.36070000000000013,-273.1807520039386
-0.3597,-270.775742794168
-0.35870000000000013,-268.22926245441096
-0.3577,-265.6827821146539
-0.35670000000000013,-263.13630177489676
-0.3557,-260.73129256512624
-0.3547000000000001,-258.32628335535566
-0.3537,-255.92127414558513
-0.3527000000000001,-253.65773606580112
-0.3517,-251.39419798601702
-0.3507000000000001,-248.9891887762465
-0.3497,-246.7256506964624
-0.3487000000000001,-244.32064148669184
-0.3477,-241.9156322769213
-0.3467000000000001,-239.65209419713722
-0.3457,-237.24708498736666
-0.3447000000000001,-234.84207577759608
-0.3437,-232.57853769781204
-0.3427000000000001,-230.31499961802797
-0.3417,-228.0514615382439
-0.3407000000000001,-225.92939458844637
-0.3397,-223.80732763864881
-0.3387000000000001,-221.54378955886475
-0.3377,-219.42172260906716
-0.3367000000000001,-217.01671339929663
-0.3357,-214.75317531951256
-0.3347000000000001,-212.34816610974204
-0.3337,-210.08462802995794
-0.3327000000000001,-207.8210899501739
-0.3317,-205.55755187038983
-0.3307000000000001,-203.43548492059227
-0.3297,-201.17194684080823
-0.3287000000000001,-199.04987989101065
-0.3277,-197.0692840711996
-0.3267000000000001,-194.94721712140205
-0.3257,-192.683679041618
-0.3247000000000001,-190.56161209182042
-0.3237,-188.29807401203638
-0.3227000000000001,-186.17600706223882
-0.3217,-183.91246898245475
-0.3207000000000001,-181.79040203265723
-0.3197,-179.66833508285964
-0.3187000000000001,-177.54626813306209
-0.3177,-175.56567231325104
-0.3167000000000001,-173.58507649344
-0.3157,-171.60448067362896
-0.3147000000000001,-169.48241372383137
-0.3137,-167.36034677403384
-0.3127000000000001,-165.2382798242363
-0.3117,-163.11621287443873
-0.3107000000000001,-160.99414592464117
-0.3097,-158.87207897484362
-0.3087000000000001,-156.75001202504606
-0.3077,-154.76941620523502
-0.3067000000000001,-152.78882038542397
-0.30569999999999997,-150.8082245656129
-0.3047000000000001,-148.82762874580186
-0.30369999999999997,-146.8470329259908
-0.3027000000000001,-144.86643710617977
-0.30169999999999997,-142.7443701563822
-0.3007000000000001,-140.74962722357247
-0.29969999999999997,-138.65585449977226
-0.2987000000000001,-136.60452311496792
-0.29769999999999996,-134.5107503911677
-0.2967000000000001,-132.55844879735392
-0.29569999999999996,-130.67688276853346
-0.2947000000000001,-128.85190519170752
-0.29369999999999996,-127.012780501883
-0.29270000000000007,-125.10292024706521
-0.29169999999999996,-123.17891287924873
-0.29070000000000007,-121.21246417243634
-0.28969999999999996,-119.24601546562396
-0.28870000000000007,-117.25127253281424
-0.28769999999999996,-115.19994114800993
-0.28670000000000007,-113.23349244119754
-0.28569999999999995,-111.3094850733811
-0.28470000000000006,-109.44206615755924
-0.28369999999999995,-107.64538280673065
-0.28270000000000006,-105.86284656890071
-0.28169999999999995,-104.12275167006669
-0.28070000000000006,-102.28362698024215
-0.27969999999999995,-100.5010907424122
-0.27870000000000006,-98.6195247135917
-0.27769999999999995,-96.73795868477121
-0.27670000000000006,-94.87053976894937
-0.27569999999999995,-92.94653240113291
-0.27470000000000006,-91.07911348531105
-0.27369999999999994,-89.23998879548651
-0.27270000000000005,-87.45745255765657
-0.27169999999999994,-85.70321054582392
-0.27070000000000005,-83.96311564698992
-0.26969999999999994,-82.26546208715187
-0.26870000000000005,-80.52536718831789
