Potential V vs RHE, Current mA cm-2
0.013299999999999867,15.675001202504609
0.012299999999999978,13.953297550568857
0.011299999999999866,12.531512694204494
0.010299999999999976,11.256857813026096
0.009299999999999864,10.076988588938656
0.008299999999999974,9.011710980140284
0.007299999999999862,8.055366141431518
0.006299999999999972,7.178245135515196
0.00529999999999986,6.335077200795634
0.0042999999999999705,5.511715224274183
0.0032999999999998586,4.778894770944094
0.0022999999999999687,4.095589213109282
0.0012999999999998568,3.4589691281700143
0.00029999999999996696,2.820934331930883
-0.000700000000000145,2.1729965565926963
-0.0017000000000000348,1.5561824298515403
-0.0027000000000001467,0.9968055818849048
-0.0037000000000000366,0.46544001765559706
-0.0047000000000001485,-0.056645040446596066
-0.005700000000000038,-0.6011108313126541
-0.00670000000000015,-1.1266760792125152
-0.00770000000000004,-1.587306078448571
-0.008700000000000152,-2.0286960040064623
-0.009700000000000042,-2.4715006408642193
-0.010700000000000154,-2.9440142150191413
-0.011700000000000044,-3.3882335631767626
-0.012700000000000156,-3.7730350367400525
-0.013700000000000045,-4.145104108604558
-0.014700000000000157,-4.531320293467712
-0.015700000000000047,-4.935927725229114
-0.01670000000000016,-5.344779290890109
-0.01770000000000005,-5.708360094955423
-0.01870000000000016,-6.018181869625866
-0.01970000000000005,-6.34498017989469
-0.020700000000000163,-6.701487427460679
-0.021700000000000053,-7.050921118527342
-0.022700000000000164,-7.380548851395897
-0.023700000000000054,-7.667735245268498
-0.024700000000000166,-7.970483463439617
-0.025700000000000056,-8.29162292850898
-0.026700000000000168,-8.604274125779153
-0.027700000000000058,-8.880142829252835
-0.02870000000000017,-9.127717306729215
-0.02970000000000006,-9.410659566702224
-0.03070000000000017,-9.700675383174557
-0.03170000000000006,-9.977958797948103
-0.03270000000000017,-10.249583367522192
-0.03370000000000006,-10.492913711098977
-0.034700000000000175,-10.747561745074684
-0.035700000000000065,-11.013527469449311
-0.03670000000000018,-11.272419637324612
-0.03770000000000007,-11.52423824870059
-0.03870000000000018,-11.761909747077915
-0.03970000000000007,-11.999581245455241
-0.04070000000000018,-12.275449948928925
-0.04170000000000007,-12.534342116804225
-0.04270000000000018,-12.757866502182901
-0.04370000000000007,-12.96299964066333
-0.044700000000000184,-13.186524026042006
-0.045700000000000074,-13.438342637417984
-0.046700000000000186,-13.714211340891666
-0.047700000000000076,-13.876903140376147
-0.04870000000000019,-14.04383907376022
-0.04970000000000008,-14.231995676642269
-0.05070000000000019,-14.500790823616628
-0.05170000000000008,-14.783733083589633
-0.05270000000000019,-15.03838111756534
-0.05370000000000008,-15.236440699546446
-0.05470000000000019,-15.43450028152755
-0.05570000000000008,-15.632559863508657
-0.056700000000000195,-15.87306078448571
-0.057700000000000085,-16.071120366466815
-0.058700000000000196,-16.24088572245062
-0.059700000000000086,-16.438945304431726
-0.0607000000000002,-16.665299112410132
-0.06170000000000009,-16.919947146385837
-0.0627000000000002,-17.132153841365596
-0.06370000000000009,-17.316066310348052
-0.0647000000000002,-17.528273005327804
-0.06570000000000009,-17.76877392630486
-0.0667000000000002,-17.980980621284615
-0.0677000000000001,-18.164893090267068
-0.0687000000000002,-18.320511333252224
-0.0697000000000001,-18.47612957623738
-0.07070000000000021,-18.688336271217132
-0.0717000000000001,-18.92883719219419
-0.07270000000000021,-19.155191000172596
-0.0737000000000001,-19.353250582153702
-0.07470000000000021,-19.523015938137508
-0.0757000000000001,-19.749369746115914
-0.07670000000000021,-19.961576441095666
-0.0777000000000001,-20.14548891007812
-0.07870000000000021,-20.315254266061928
-0.0797000000000001,-20.499166735044383
-0.08070000000000022,-20.711373430024135
-0.0817000000000001,-20.89528589900659
-0.08270000000000022,-21.121639706984997
-0.08370000000000011,-21.333846401964752
-0.08470000000000022,-21.489464644949905
-0.08570000000000011,-21.68752422693101
-0.08670000000000022,-21.871436695913467
-0.08770000000000011,-22.04120205189727
-0.08870000000000022,-22.196820294882425
-0.08970000000000011,-22.39487987686353
-0.09070000000000022,-22.607086571843286
-0.09170000000000011,-22.861734605818995
-0.09270000000000023,-23.045647074801447
-0.09370000000000012,-23.215412430785253
-0.09470000000000023,-23.385177786769056
-0.09570000000000012,-23.58323736875016
-0.09670000000000023,-23.781296950731264
-0.09770000000000012,-23.97935653271237
-0.09870000000000023,-24.134974775697525
-0.09970000000000012,-24.31888724467998
-0.10070000000000023,-24.531093939659737
-0.10170000000000012,-24.729153521640843
-0.10270000000000024,-24.983801555616548
-0.10370000000000013,-25.167714024599
-0.10470000000000024,-25.337479380582806
-0.10570000000000013,-25.521391849565262
-0.10670000000000024,-25.719451431546364
-0.10770000000000013,-25.91751101352747
-0.10870000000000024,-26.073129256512626
-0.10970000000000013,-26.22874749949778
-0.11070000000000024,-26.440954194477534
-0.11170000000000013,-26.667308002455943
-0.11270000000000002,-26.89366181043435
-0.11370000000000013,-27.06342716641815
-0.11470000000000002,-27.219045409403304
-0.11570000000000014,-27.417104991384413
-0.11670000000000003,-27.62931168636417
-0.11770000000000014,-27.827371268345274
-0.11870000000000003,-27.997136624329073
-0.11970000000000014,-28.18104909331153
-0.12070000000000003,-28.407402901289935
-0.12170000000000014,-28.647903822266994
-0.12270000000000003,-28.86011051724675
-0.12370000000000014,-29.029875873230555
-0.12470000000000003,-29.199641229214354
-0.12570000000000014,-29.39770081119546
-0.12670000000000003,-29.63820173217252
-0.12770000000000015,-29.836261314153624
-0.12870000000000004,-30.02017378313608
-0.12970000000000015,-30.21823336511718
-0.13070000000000004,-30.444587173095588
-0.13170000000000015,-30.727529433068593
-0.13270000000000004,-30.953883241047
-0.13370000000000015,-31.137795710029454
-0.13470000000000004,-31.27926684001596
-0.13570000000000015,-31.47732642199707
-0.13670000000000004,-31.717827342974125
-0.13770000000000016,-31.930034037953877
-0.13870000000000005,-32.14224073293363
-0.13970000000000016,-32.354447427913385
-0.14070000000000005,-32.59494834889044
-0.14170000000000016,-32.8637434958648
-0.14270000000000005,-33.11839152984051
-0.14370000000000016,-33.288156885824314
-0.14470000000000005,-33.47206935480677
-0.14570000000000016,-33.670128936787876
-0.14670000000000005,-34.05210098775143
-0.14770000000000016,-34.377484586720385
-0.14870000000000005,-34.5755441687015
-0.14970000000000017,-34.7453095246853
-0.15070000000000006,-34.94336910666641
-0.15170000000000017,-35.169722914644815
-0.15270000000000006,-35.46681228761647
-0.15370000000000017,-35.707313208593526
-0.15470000000000006,-35.91951990357328
-0.15570000000000017,-36.13172659855304
-0.15670000000000006,-36.41466885852605
-0.15770000000000017,-36.725905344496354
-0.15870000000000006,-37.00884760446935
-0.15970000000000018,-37.249348525446415
-0.16070000000000007,-37.50399655942213
-0.16170000000000018,-37.758644593397825
-0.16270000000000007,-38.02743974037218
-0.16370000000000018,-38.32452911334384
-0.16470000000000007,-38.63576559931415
-0.16570000000000018,-38.91870785928716
-0.16670000000000007,-39.20165011926017
-0.16770000000000018,-39.48459237923317
-0.16870000000000007,-39.739240413208876
-0.16970000000000018,-39.93729999518999
-0.17070000000000007,-40.191948029165694
-0.17170000000000019,-40.4748902891387
-0.17270000000000008,-40.77197966211036
-0.1737000000000002,-41.083216148080666
-0.17470000000000008,-41.39445263405098
-0.1757000000000002,-41.76227757201589
-0.17670000000000008,-42.03107271899024
-0.1777000000000002,-42.186690961975394
-0.17870000000000008,-42.42719188295245
-0.1797000000000002,-42.695987029926805
-0.18070000000000008,-43.06381196789171
-0.1817000000000002,-43.44578401885527
-0.18270000000000008,-43.77116761782423
-0.1837000000000002,-44.068256990795895
-0.1847000000000001,-44.3511992507689
-0.1857000000000002,-44.619994397743255
-0.1867000000000001,-44.87464243171897
-0.1877000000000002,-45.22832025668522
-0.1887000000000001,-45.553703855654184
-0.1897000000000002,-45.87908745462314
-0.1907000000000001,-46.218618166590744
-0.1917000000000001,-46.572295991557006
-0.19269999999999998,-46.92597381652327
-0.1937000000000001,-47.22306318949492
-0.19469999999999998,-47.506005449467935
-0.1957000000000001,-47.80309482243959
-0.19669999999999999,-48.156772647405845
-0.1977000000000001,-48.524597585370756
-0.1987,-48.87827541033702
-0.1997000000000001,-49.23195323530328
-0.2007,-49.628072399265484
-0.2017000000000001,-50.024191563227696
-0.2027,-50.43445784018856
-0.2037000000000001,-50.75984143915752
-0.2047,-51.028636586131874
-0.2057000000000001,-51.31157884610488
-0.2067,-51.665256671071134
-0.2077000000000001,-52.00478738303875
-0.2087,-52.34431809500636
-0.2097000000000001,-52.69799591997262
-0.2107,-53.065820857937524
-0.2117000000000001,-53.476087134898386
-0.2127,-53.85805918586195
-0.2137000000000001,-54.22588412382685
-0.2147,-54.56541483579447
-0.2157000000000001,-54.961533999756675
-0.2167,-55.32935893772159
-0.21770000000000012,-55.711330988685134
-0.2187,-56.022567474655446
-0.21970000000000012,-56.36209818662306
-0.2207,-56.68748178559202
-0.22170000000000012,-57.06945383655558
-0.2227,-57.50801433951374
-0.22370000000000012,-57.98901618146786
-0.2247,-58.45587091042332
-0.22570000000000012,-58.86613718738417
-0.2267,-59.36128614233694
-0.22770000000000012,-59.72911108030185
-0.22870000000000001,-60.04034756627216
-0.22970000000000013,-60.40817250423707
-0.23070000000000002,-60.79014455520062
-0.23170000000000013,-61.17211660616418
-0.23270000000000002,-61.525794431130436
-0.23370000000000013,-61.851178030099405
-0.23470000000000002,-62.13412029007241
-0.23570000000000013,-62.544386567033264
-0.23670000000000002,-62.96879995699278
-0.2376999999999999,-63.421507572949594
-0.23870000000000002,-63.831773849910455
-0.2396999999999999,-64.19959878787537
-0.24070000000000003,-64.56742372584027
-0.24169999999999991,-64.9352486638052
-0.24270000000000003,-65.3030736017701
-0.24369999999999992,-65.43039761875795
-0.24470000000000003,-65.5577216357458
-0.24569999999999992,-65.82651678272015
-0.24670000000000003,-66.26507728567832
-0.24769999999999992,-66.74607912763243
-0.24870000000000003,-67.21293385658788
-0.24969999999999992,-67.6090530205501
-0.25070000000000003,-68.03346641050962
-0.2516999999999999,-68.48617402646643
-0.25270000000000004,-68.83985185143268
-0.2536999999999999,-69.20767678939758
-0.25470000000000004,-69.47647193637195
-0.2556999999999999,-69.75941419634496
-0.25670000000000004,-70.19797469930313
-0.25769999999999993,-70.69312365425588
-0.25870000000000004,-71.15997838321134
-0.25969999999999993,-71.55609754717355
-0.26070000000000004,-71.8814811461425
-0.26169999999999993,-72.23515897110877
-0.26270000000000004,-72.64542524806963
-0.26369999999999993,-73.0273972990332
-0.26470000000000005,-73.45181068899271
-0.26569999999999994,-73.83378273995626
-0.26670000000000005,-74.22990190391847
-0.26769999999999994,-74.61187395488203
-0.26870000000000005,-75.00799311884425
-0.26969999999999994,-75.43240650880375
-0.27070000000000005,-76.01243814174842
-0.27169999999999994,-76.56417554869579
-0.27270000000000005,-76.84711780866878
-0.27369999999999994,-77.03103027765125
-0.27470000000000006,-77.17250140763775
-0.27569999999999995,-77.46959078060941
-0.27670000000000006,-77.95059262256353
-0.27769999999999995,-78.50233002951089
-0.27870000000000006,-79.01162609746228
-0.27969999999999995,-79.25212701843935
-0.28070000000000006,-79.4643337134191
-0.28169999999999995,-79.81801153838538
-0.28270000000000006,-80.19998358934893
-0.28369999999999995,-80.6385440923071
-0.28470000000000006,-81.03466325626928
-0.28569999999999995,-81.28931129024501
-0.28670000000000007,-81.64298911521126
-0.28769999999999996,-81.99666694017753
-0.28870000000000007,-82.29375631314919
-0.28969999999999996,-82.57669857312219
-0.29070000000000007,-82.95867062408576
-0.29169999999999996,-83.38308401404527
-0.29270000000000007,-83.79335029100612
-0.29369999999999996,-84.13288100297372
-0.2947000000000001,-84.50070594093864
-0.29569999999999996,-84.7977953139103
-0.2967000000000001,-85.16562025187521
-0.29769999999999996,-85.50515096384281
-0.2987000000000001,-85.77394611081716
-0.29969999999999997,-86.21250661377533
-0.3007000000000001,-86.5661844387416
-0.30169999999999997,-86.9057151507092
-0.3027000000000001,-87.28768720167277
-0.30369999999999997,-87.66965925263632
-0.3047000000000001,-88.02333707760259
-0.30569999999999997,-88.43360335456343
-0.3067000000000001,-88.68825138853916
-0.3077,-89.05607632650405
-0.3087000000000001,-89.45219549046627
-0.3097,-89.73513775043928
-0.3107000000000001,-89.98978578441499
-0.3117,-90.31516938338393
-0.3127000000000001,-90.65470009535156
-0.3137,-90.93764235532454
-0.3147000000000001,-91.22058461529755
-0.3157,-91.50352687527057
-0.3167000000000001,-91.85720470023682
-0.3177,-92.28161809019635
-0.3187000000000001,-92.6352959151626
-0.3197,-92.86164972314101
-0.3207000000000001,-93.20118043510863
-0.3217,-93.52656403407757
-0.3227000000000001,-93.85194763304654
-0.3237,-94.20562545801279
-0.3247000000000001,-94.4885677179858
-0.3257,-94.84224554295207
-0.3267000000000001,-95.19592336791831
-0.3277,-95.59204253188052
-0.3287000000000001,-95.81839633985894
-0.3297,-96.03060303483868
-0.3307000000000001,-96.27110395581576
-0.3317,-96.6813702327766
-0.3327000000000001,-97.02090094474423
-0.3337,-97.41702010870642
-0.3347000000000001,-97.72825659467674
-0.3357,-97.96875751565379
-0.3367000000000001,-98.25169977562679
-0.3377,-98.52049492260115
-0.3387000000000001,-98.83173140857146
-0.3397,-99.5107928325067
-0.3407000000000001,-99.822029318477
-0.3417,-100.03423601345675
-0.3427000000000001,-100.2464427084365
-0.3437,-100.670856098396
-0.3447000000000001,-101.12356371435283
-0.3457,-101.56212421731098
-0.3467000000000001,-101.78847802528938
-0.3477,-102.00068472026915
-0.3487000000000001,-102.25533275424485
-0.3497,-102.73633459619896
-0.3507000000000001,-103.13245376016117
-0.3517,-103.44369024613148
-0.3527000000000001,-103.79736807109774
-0.3537,-104.0378689920748
-0.3547000000000001,-104.32081125204782
-0.3557,-104.73107752900866
-0.35670000000000013,-105.18378514496547
-0.3577,-105.73552255191284
-0.35870000000000013,-106.17408305487102
-0.3597,-106.47117242784265
-0.36070000000000013,-106.82485025280893
-0.3617,-107.12193962578058
-0.3626999999999999,-107.7727068237185
-0.3637,-108.2537086656726
-0.3646999999999999,-108.80544607261997
-0.3657,-109.32888925357003
-0.3666999999999999,-109.83818532152145
-0.3677,-110.51724674545667
-0.3686999999999999,-111.01239570040943
-0.36970000000000003,-111.5358388813595
-0.3706999999999999,-111.98854649731629
-0.37170000000000003,-112.46954833927042
-0.3726999999999999,-113.07787419821238
-0.37370000000000003,-113.74278850914895
-0.3746999999999999,-114.28037880309766
-0.37570000000000003,-114.73308641905447
-0.3766999999999999,-115.29897093900047
-0.37770000000000004,-115.97803236293572
-0.3786999999999999,-116.57221110887905
-0.37970000000000004,-117.16638985482233
-0.3806999999999999,-117.81715705276027
-0.38170000000000004,-118.5386598156914
-0.38269999999999993,-119.2601625786226
-0.38370000000000004,-119.89678266356185
-0.38469999999999993,-120.43437295751058
-0.38570000000000004,-121.11343438144578
-0.38669999999999993,-119.96751822855511
-0.38570000000000004,-117.13809562882503
-0.38469999999999993,-114.81796909704637
-0.38370000000000004,-112.80907905123803
-0.38269999999999993,-110.64457076244452
-0.38170000000000004,-108.5932393776402
-0.3806999999999999,-106.69752623582107
-0.37970000000000004,-104.87254865899517
-0.3786999999999999,-103.01927685617197
-0.37770000000000004,-101.27918195733798
-0.3766999999999999,-99.59567551049858
-0.37570000000000003,-98.05364019364569
-0.3746999999999999,-96.5398991027901
-0.37370000000000003,-95.02615801193451
-0.3726999999999999,-93.42753424308701
-0.37170000000000003,-91.75817490924628
-0.3706999999999999,-90.15955114039879
-0.36970000000000003,-88.60336871054724
-0.3686999999999999,-87.16036318468491
-0.3677,-85.77394611081716
-0.3666999999999999,-84.45826460194269
-0.3657,-83.14258309306821
-0.3646999999999999,-81.77031313219912
-0.3637,-80.24242492834487
-0.3626999999999999,-78.7569780634866
-0.3617,-77.38470810261751
-0.36070000000000013,-76.0407323677457
-0.3597,-74.69675663287394
-0.35870000000000013,-73.35278089800215
-0.3577,-72.07954072812362
-0.35670000000000013,-70.74971210625048
-0.3557,-69.47647193637195
-0.3547000000000001,-68.24567310548937
-0.3537,-66.98658004860948
-0.3527000000000001,-65.61431008774039
-0.3517,-64.32692280486322
-0.3507000000000001,-63.06782974798333
-0.3497,-61.83703091710075
-0.3487000000000001,-60.57793786022087
-0.3477,-59.31884480334099
-0.3467000000000001,-58.116340198455696
-0.3457,-56.97042404556503
-0.3447000000000001,-55.76791944067975
-0.3437,-54.56541483579447
-0.3427000000000001,-53.37705734390783
-0.3417,-52.17455273902255
-0.3407000000000001,-51.042783699130524
-0.3397,-49.95345599823444
-0.3387000000000001,-48.76509850634781
-0.3377,-47.605035240458484
-0.3367000000000001,-46.4874133135651
-0.3357,-45.46882117766227
-0.3347000000000001,-44.42193481576215
-0.3337,-43.34675422786472
-0.3327000000000001,-42.25742652696865
-0.3317,-41.196393052069865
-0.3307000000000001,-40.20609514216434
-0.3297,-39.187503006261515
-0.3287000000000001,-38.16891087035869
-0.3277,-37.15031873445586
-0.3267000000000001,-36.07513814655844
-0.3257,-35.098987349651566
-0.3247000000000001,-34.179425004739294
-0.3237,-33.21742132083106
-0.3227000000000001,-32.297858975918786
-0.3217,-31.29341395301461
-0.3207000000000001,-30.402145834099635
-0.3197,-29.567466167179266
-0.3187000000000001,-28.704492274261593
-0.3177,-27.841518381343924
-0.3167000000000001,-26.97854448842625
-0.3157,-26.17215904750318
-0.3147000000000001,-25.36577360658011
-0.3137,-24.488652600663784
-0.3127000000000001,-23.597384481748815
-0.3117,-22.776851927827092
-0.3107000000000001,-21.99876071290132
-0.3097,-21.248963723972853
-0.3087000000000001,-20.456725396048434
-0.3077,-19.622045729128057
-0.3067000000000001,-18.829807401203638
-0.30569999999999997,-18.09415752527382
-0.3047000000000001,-17.37265476234265
-0.30369999999999997,-16.679446225408782
-0.3027000000000001,-15.91550212348166
-0.30169999999999997,-15.179852247551842
-0.3007000000000001,-14.500790823616628
-0.29969999999999997,-13.845779491779115
-0.2987000000000001,-13.168132779143761
-0.29769999999999996,-12.459362417911377
-0.2967000000000001,-11.77747157137643
-0.29569999999999996,-11.157828022035545
-0.2947000000000001,-10.533940338795064
-0.29369999999999996,-9.883173140857146
-0.29270000000000007,-9.208355850821524
-0.29169999999999996,-8.551929807684147
-0.29070000000000007,-7.961995195640427
-0.28969999999999996,-7.380548851395897
-0.28870000000000007,-6.770808281154065
-0.28769999999999996,-6.152579443113044
-0.28670000000000007,-5.555571274569999
-0.28569999999999995,-4.996760311123309
-0.28470000000000006,-4.456340594574866
-0.28369999999999995,-3.889041363328986
-0.28270000000000006,-3.313253864283916
-0.28169999999999995,-2.745954633038036
-0.28070000000000006,-2.2239261633878376
-0.27969999999999995,-1.7146300954364246
-0.27870000000000006,-1.1815668776472785
-0.27769999999999995,-0.6216241451606972
-0.27670000000000006,-0.08274646392910599
-0.27569999999999995,0.42837458159913316
-0.27470000000000006,0.9007466846240689
-0.27369999999999994,1.4161260111649017
-0.27270000000000005,1.9523015938137507
-0.27169999999999994,2.4446211261667834
-0.27070000000000005,2.922793545521166
-0.26969999999999994,3.3769158727778423
-0.26870000000000005,3.8593324260318203
-0.26769999999999994,4.364384360083638
-0.26670000000000005,4.872265716735186
-0.26569999999999994,5.326388043991862
