Dec. 11, 2024   18:51:25
Cyclic Voltammetry
File: c:/users/guazh/data/banditlqround7_x0exp59_r20/2024-12-09-exp630\exp630-2024-12-11t18_44_42-arkoh\exp630_cv_sr_300mvs_efin_-1400mv.bin
Data Source:  Experiment
Instrument Model:  CHI760E
Header: CV ran at 300 mVs
Note: 

Init E (V) = -1
High E (V) = -1
Low E (V) = -1.4
Final E (V) = -1
Init P/N = N
Scan Rate (V/s) = 0.3
Segment = 3
Sample Interval (V) = 0.001
Quiet Time (sec) = 2
Sensitivity (A/V) = 0.01
Comp R (ohm) = 1.3

Results:

Channel 1:
Segment 1:

Segment 2:

Segment 3:

Potential/V, Current/A

-1.000, -1.047e-4
-1.001, -1.218e-5
-1.002, 6.182e-5
-1.003, 1.358e-4
-1.004, 2.067e-4
-1.005, 2.653e-4
-1.006, 3.115e-4
-1.007, 3.578e-4
-1.008, 4.040e-4
-1.009, 4.565e-4
-1.010, 4.996e-4
-1.011, 5.305e-4
-1.012, 5.613e-4
-1.013, 6.014e-4
-1.014, 6.414e-4
-1.015, 6.754e-4
-1.016, 7.031e-4
-1.017, 7.247e-4
-1.018, 7.586e-4
-1.019, 7.956e-4
-1.020, 8.264e-4
-1.021, 8.480e-4
-1.022, 8.665e-4
-1.023, 8.973e-4
-1.024, 9.313e-4
-1.025, 9.590e-4
-1.026, 9.775e-4
-1.027, 9.929e-4
-1.028, 1.021e-3
-1.029, 1.048e-3
-1.030, 1.076e-3
-1.031, 1.095e-3
-1.032, 1.110e-3
-1.033, 1.135e-3
-1.034, 1.166e-3
-1.035, 1.190e-3
-1.036, 1.206e-3
-1.037, 1.221e-3
-1.038, 1.246e-3
-1.039, 1.277e-3
-1.040, 1.301e-3
-1.041, 1.317e-3
-1.042, 1.332e-3
-1.043, 1.357e-3
-1.044, 1.384e-3
-1.045, 1.409e-3
-1.046, 1.425e-3
-1.047, 1.440e-3
-1.048, 1.462e-3
-1.049, 1.492e-3
-1.050, 1.517e-3
-1.051, 1.532e-3
-1.052, 1.548e-3
-1.053, 1.569e-3
-1.054, 1.600e-3
-1.055, 1.622e-3
-1.056, 1.637e-3
-1.057, 1.653e-3
-1.058, 1.677e-3
-1.059, 1.702e-3
-1.060, 1.727e-3
-1.061, 1.742e-3
-1.062, 1.758e-3
-1.063, 1.779e-3
-1.064, 1.807e-3
-1.065, 1.828e-3
-1.066, 1.844e-3
-1.067, 1.856e-3
-1.068, 1.878e-3
-1.069, 1.902e-3
-1.070, 1.924e-3
-1.071, 1.939e-3
-1.072, 1.949e-3
-1.073, 1.967e-3
-1.074, 1.995e-3
-1.075, 2.013e-3
-1.076, 2.023e-3
-1.077, 2.035e-3
-1.078, 2.054e-3
-1.079, 2.075e-3
-1.080, 2.091e-3
-1.081, 2.100e-3
-1.082, 2.106e-3
-1.083, 2.124e-3
-1.084, 2.149e-3
-1.085, 2.161e-3
-1.086, 2.168e-3
-1.087, 2.174e-3
-1.088, 2.189e-3
-1.089, 2.208e-3
-1.090, 2.220e-3
-1.091, 2.226e-3
-1.092, 2.229e-3
-1.093, 2.238e-3
-1.094, 2.254e-3
-1.095, 2.263e-3
-1.096, 2.263e-3
-1.097, 2.266e-3
-1.098, 2.275e-3
-1.099, 2.288e-3
-1.100, 2.294e-3
-1.101, 2.291e-3
-1.102, 2.288e-3
-1.103, 2.294e-3
-1.104, 2.303e-3
-1.105, 2.306e-3
-1.106, 2.303e-3
-1.107, 2.297e-3
-1.108, 2.300e-3
-1.109, 2.306e-3
-1.110, 2.306e-3
-1.111, 2.300e-3
-1.112, 2.291e-3
-1.113, 2.291e-3
-1.114, 2.297e-3
-1.115, 2.294e-3
-1.116, 2.285e-3
-1.117, 2.272e-3
-1.118, 2.269e-3
-1.119, 2.269e-3
-1.120, 2.263e-3
-1.121, 2.245e-3
-1.122, 2.232e-3
-1.123, 2.226e-3
-1.124, 2.223e-3
-1.125, 2.217e-3
-1.126, 2.198e-3
-1.127, 2.183e-3
-1.128, 2.171e-3
-1.129, 2.168e-3
-1.130, 2.155e-3
-1.131, 2.137e-3
-1.132, 2.118e-3
-1.133, 2.106e-3
-1.134, 2.097e-3
-1.135, 2.084e-3
-1.136, 2.060e-3
-1.137, 2.038e-3
-1.138, 2.023e-3
-1.139, 2.017e-3
-1.140, 2.001e-3
-1.141, 1.976e-3
-1.142, 1.949e-3
-1.143, 1.933e-3
-1.144, 1.921e-3
-1.145, 1.902e-3
-1.146, 1.878e-3
-1.147, 1.853e-3
-1.148, 1.835e-3
-1.149, 1.822e-3
-1.150, 1.801e-3
-1.151, 1.770e-3
-1.152, 1.742e-3
-1.153, 1.721e-3
-1.154, 1.708e-3
-1.155, 1.690e-3
-1.156, 1.662e-3
-1.157, 1.634e-3
-1.158, 1.616e-3
-1.159, 1.600e-3
-1.160, 1.579e-3
-1.161, 1.551e-3
-1.162, 1.523e-3
-1.163, 1.505e-3
-1.164, 1.492e-3
-1.165, 1.477e-3
-1.166, 1.449e-3
-1.167, 1.425e-3
-1.168, 1.409e-3
-1.169, 1.397e-3
-1.170, 1.378e-3
-1.171, 1.354e-3
-1.172, 1.329e-3
-1.173, 1.314e-3
-1.174, 1.301e-3
-1.175, 1.286e-3
-1.176, 1.261e-3
-1.177, 1.240e-3
-1.178, 1.227e-3
-1.179, 1.218e-3
-1.180, 1.206e-3
-1.181, 1.181e-3
-1.182, 1.159e-3
-1.183, 1.147e-3
-1.184, 1.141e-3
-1.185, 1.129e-3
-1.186, 1.107e-3
-1.187, 1.088e-3
-1.188, 1.079e-3
-1.189, 1.073e-3
-1.190, 1.061e-3
-1.191, 1.042e-3
-1.192, 1.024e-3
-1.193, 1.018e-3
-1.194, 1.011e-3
-1.195, 1.002e-3
-1.196, 9.868e-4
-1.197, 9.683e-4
-1.198, 9.652e-4
-1.199, 9.621e-4
-1.200, 9.528e-4
-1.201, 9.374e-4
-1.202, 9.251e-4
-1.203, 9.189e-4
-1.204, 9.158e-4
-1.205, 9.097e-4
-1.206, 8.943e-4
-1.207, 8.819e-4
-1.208, 8.788e-4
-1.209, 8.788e-4
-1.210, 8.727e-4
-1.211, 8.573e-4
-1.212, 8.480e-4
-1.213, 8.449e-4
-1.214, 8.449e-4
-1.215, 8.388e-4
-1.216, 8.264e-4
-1.217, 8.141e-4
-1.218, 8.110e-4
-1.219, 8.141e-4
-1.220, 8.110e-4
-1.221, 7.987e-4
-1.222, 7.863e-4
-1.223, 7.863e-4
-1.224, 7.863e-4
-1.225, 7.863e-4
-1.226, 7.740e-4
-1.227, 7.648e-4
-1.228, 7.617e-4
-1.229, 7.709e-4
-1.230, 7.648e-4
-1.231, 7.524e-4
-1.232, 7.432e-4
-1.233, 7.432e-4
-1.234, 7.463e-4
-1.235, 7.401e-4
-1.236, 7.309e-4
-1.237, 7.216e-4
-1.238, 7.216e-4
-1.239, 7.278e-4
-1.240, 7.216e-4
-1.241, 7.124e-4
-1.242, 7.031e-4
-1.243, 7.031e-4
-1.244, 7.093e-4
-1.245, 7.062e-4
-1.246, 6.939e-4
-1.247, 6.877e-4
-1.248, 6.877e-4
-1.249, 6.908e-4
-1.250, 6.877e-4
-1.251, 6.784e-4
-1.252, 6.723e-4
-1.253, 6.723e-4
-1.254, 6.754e-4
-1.255, 6.754e-4
-1.256, 6.661e-4
-1.257, 6.569e-4
-1.258, 6.569e-4
-1.259, 6.630e-4
-1.260, 6.599e-4
-1.261, 6.507e-4
-1.262, 6.445e-4
-1.263, 6.476e-4
-1.264, 6.507e-4
-1.265, 6.476e-4
-1.266, 6.384e-4
-1.267, 6.322e-4
-1.268, 6.322e-4
-1.269, 6.384e-4
-1.270, 6.384e-4
-1.271, 6.291e-4
-1.272, 6.199e-4
-1.273, 6.229e-4
-1.274, 6.291e-4
-1.275, 6.260e-4
-1.276, 6.199e-4
-1.277, 6.137e-4
-1.278, 6.168e-4
-1.279, 6.229e-4
-1.280, 6.229e-4
-1.281, 6.168e-4
-1.282, 6.106e-4
-1.283, 6.137e-4
-1.284, 6.199e-4
-1.285, 6.168e-4
-1.286, 6.106e-4
-1.287, 6.075e-4
-1.288, 6.106e-4
-1.289, 6.168e-4
-1.290, 6.168e-4
-1.291, 6.106e-4
-1.292, 6.075e-4
-1.293, 6.106e-4
-1.294, 6.168e-4
-1.295, 6.168e-4
-1.296, 6.106e-4
-1.297, 6.075e-4
-1.298, 6.137e-4
-1.299, 6.199e-4
-1.300, 6.199e-4
-1.301, 6.168e-4
-1.302, 6.106e-4
-1.303, 6.137e-4
-1.304, 6.229e-4
-1.305, 6.260e-4
-1.306, 6.199e-4
-1.307, 6.168e-4
-1.308, 6.229e-4
-1.309, 6.322e-4
-1.310, 6.353e-4
-1.311, 6.291e-4
-1.312, 6.260e-4
-1.313, 6.322e-4
-1.314, 6.414e-4
-1.315, 6.445e-4
-1.316, 6.414e-4
-1.317, 6.384e-4
-1.318, 6.476e-4
-1.319, 6.569e-4
-1.320, 6.599e-4
-1.321, 6.569e-4
-1.322, 6.538e-4
-1.323, 6.630e-4
-1.324, 6.723e-4
-1.325, 6.754e-4
-1.326, 6.754e-4
-1.327, 6.754e-4
-1.328, 6.846e-4
-1.329, 6.969e-4
-1.330, 7.000e-4
-1.331, 7.000e-4
-1.332, 6.969e-4
-1.333, 7.093e-4
-1.334, 7.216e-4
-1.335, 7.247e-4
-1.336, 7.247e-4
-1.337, 7.278e-4
-1.338, 7.401e-4
-1.339, 7.524e-4
-1.340, 7.586e-4
-1.341, 7.586e-4
-1.342, 7.617e-4
-1.343, 7.740e-4
-1.344, 7.894e-4
-1.345, 7.987e-4
-1.346, 7.987e-4
-1.347, 8.048e-4
-1.348, 8.172e-4
-1.349, 8.357e-4
-1.350, 8.449e-4
-1.351, 8.480e-4
-1.352, 8.542e-4
-1.353, 8.727e-4
-1.354, 8.881e-4
-1.355, 9.004e-4
-1.356, 9.066e-4
-1.357, 9.158e-4
-1.358, 9.313e-4
-1.359, 9.528e-4
-1.360, 9.683e-4
-1.361, 9.744e-4
-1.362, 9.868e-4
-1.363, 1.008e-3
-1.364, 1.033e-3
-1.365, 1.048e-3
-1.366, 1.061e-3
-1.367, 1.073e-3
-1.368, 1.098e-3
-1.369, 1.125e-3
-1.370, 1.144e-3
-1.371, 1.159e-3
-1.372, 1.178e-3
-1.373, 1.203e-3
-1.374, 1.233e-3
-1.375, 1.258e-3
-1.376, 1.277e-3
-1.377, 1.301e-3
-1.378, 1.332e-3
-1.379, 1.366e-3
-1.380, 1.397e-3
-1.381, 1.418e-3
-1.382, 1.446e-3
-1.383, 1.486e-3
-1.384, 1.526e-3
-1.385, 1.560e-3
-1.386, 1.591e-3
-1.387, 1.622e-3
-1.388, 1.665e-3
-1.389, 1.711e-3
-1.390, 1.751e-3
-1.391, 1.785e-3
-1.392, 1.825e-3
-1.393, 1.875e-3
-1.394, 1.927e-3
-1.395, 1.976e-3
-1.396, 2.020e-3
-1.397, 2.066e-3
-1.398, 2.121e-3
-1.399, 2.183e-3
-1.400, 2.161e-3
-1.399, 2.041e-3
-1.398, 1.961e-3
-1.397, 1.912e-3
-1.396, 1.875e-3
-1.395, 1.838e-3
-1.394, 1.798e-3
-1.393, 1.764e-3
-1.392, 1.739e-3
-1.391, 1.717e-3
-1.390, 1.687e-3
-1.389, 1.653e-3
-1.388, 1.619e-3
-1.387, 1.597e-3
-1.386, 1.576e-3
-1.385, 1.548e-3
-1.384, 1.511e-3
-1.383, 1.477e-3
-1.382, 1.455e-3
-1.381, 1.431e-3
-1.380, 1.403e-3
-1.379, 1.369e-3
-1.378, 1.338e-3
-1.377, 1.317e-3
-1.376, 1.295e-3
-1.375, 1.267e-3
-1.374, 1.233e-3
-1.373, 1.203e-3
-1.372, 1.178e-3
-1.371, 1.159e-3
-1.370, 1.132e-3
-1.369, 1.098e-3
-1.368, 1.067e-3
-1.367, 1.045e-3
-1.366, 1.027e-3
-1.365, 1.002e-3
-1.364, 9.713e-4
-1.363, 9.405e-4
-1.362, 9.220e-4
-1.361, 9.035e-4
-1.360, 8.788e-4
-1.359, 8.480e-4
-1.358, 8.203e-4
-1.357, 7.987e-4
-1.356, 7.802e-4
-1.355, 7.555e-4
-1.354, 7.278e-4
-1.353, 7.000e-4
-1.352, 6.846e-4
-1.351, 6.692e-4
-1.350, 6.476e-4
-1.349, 6.168e-4
-1.348, 5.921e-4
-1.347, 5.767e-4
-1.346, 5.613e-4
-1.345, 5.397e-4
-1.344, 5.150e-4
-1.343, 4.904e-4
-1.342, 4.750e-4
-1.341, 4.626e-4
-1.340, 4.410e-4
-1.339, 4.164e-4
-1.338, 3.948e-4
-1.337, 3.825e-4
-1.336, 3.732e-4
-1.335, 3.547e-4
-1.334, 3.300e-4
-1.333, 3.085e-4
-1.332, 2.961e-4
-1.331, 2.869e-4
-1.330, 2.715e-4
-1.329, 2.468e-4
-1.328, 2.283e-4
-1.327, 2.191e-4
-1.326, 2.098e-4
-1.325, 1.975e-4
-1.324, 1.759e-4
-1.323, 1.574e-4
-1.322, 1.481e-4
-1.321, 1.420e-4
-1.320, 1.296e-4
-1.319, 1.081e-4
-1.318, 8.957e-5
-1.317, 8.340e-5
-1.316, 7.723e-5
-1.315, 6.798e-5
-1.314, 4.949e-5
-1.313, 3.407e-5
-1.312, 2.790e-5
-1.311, 2.174e-5
-1.310, 1.249e-5
-1.309, -2.927e-6
-1.308, -1.834e-5
-1.307, -2.143e-5
-1.306, -2.759e-5
-1.305, -3.376e-5
-1.304, -5.226e-5
-1.303, -6.459e-5
-1.302, -6.767e-5
-1.301, -6.767e-5
-1.300, -7.692e-5
-1.299, -9.542e-5
-1.298, -1.047e-4
-1.297, -1.078e-4
-1.296, -1.078e-4
-1.295, -1.139e-4
-1.294, -1.293e-4
-1.293, -1.386e-4
-1.292, -1.417e-4
-1.291, -1.417e-4
-1.290, -1.478e-4
-1.289, -1.602e-4
-1.288, -1.694e-4
-1.287, -1.694e-4
-1.286, -1.694e-4
-1.285, -1.756e-4
-1.284, -1.879e-4
-1.283, -1.972e-4
-1.282, -1.972e-4
-1.281, -1.941e-4
-1.280, -2.033e-4
-1.279, -2.126e-4
-1.278, -2.218e-4
-1.277, -2.218e-4
-1.276, -2.187e-4
-1.275, -2.218e-4
-1.274, -2.342e-4
-1.273, -2.403e-4
-1.272, -2.403e-4
-1.271, -2.372e-4
-1.270, -2.403e-4
-1.269, -2.527e-4
-1.268, -2.588e-4
-1.267, -2.588e-4
-1.266, -2.527e-4
-1.265, -2.588e-4
-1.264, -2.681e-4
-1.263, -2.742e-4
-1.262, -2.742e-4
-1.261, -2.681e-4
-1.260, -2.742e-4
-1.259, -2.835e-4
-1.258, -2.897e-4
-1.257, -2.866e-4
-1.256, -2.835e-4
-1.255, -2.866e-4
-1.254, -2.958e-4
-1.253, -3.020e-4
-1.252, -3.020e-4
-1.251, -2.958e-4
-1.250, -2.989e-4
-1.249, -3.082e-4
-1.248, -3.143e-4
-1.247, -3.143e-4
-1.246, -3.082e-4
-1.245, -3.082e-4
-1.244, -3.205e-4
-1.243, -3.267e-4
-1.242, -3.205e-4
-1.241, -3.174e-4
-1.240, -3.205e-4
-1.239, -3.297e-4
-1.238, -3.359e-4
-1.237, -3.297e-4
-1.236, -3.297e-4
-1.235, -3.297e-4
-1.234, -3.390e-4
-1.233, -3.452e-4
-1.232, -3.421e-4
-1.231, -3.359e-4
-1.230, -3.390e-4
-1.229, -3.482e-4
-1.228, -3.575e-4
-1.227, -3.513e-4
-1.226, -3.452e-4
-1.225, -3.482e-4
-1.224, -3.575e-4
-1.223, -3.637e-4
-1.222, -3.606e-4
-1.221, -3.544e-4
-1.220, -3.575e-4
-1.219, -3.637e-4
-1.218, -3.698e-4
-1.217, -3.667e-4
-1.216, -3.637e-4
-1.215, -3.667e-4
-1.214, -3.729e-4
-1.213, -3.791e-4
-1.212, -3.760e-4
-1.211, -3.698e-4
-1.210, -3.729e-4
-1.209, -3.821e-4
-1.208, -3.883e-4
-1.207, -3.852e-4
-1.206, -3.791e-4
-1.205, -3.821e-4
-1.204, -3.914e-4
-1.203, -3.976e-4
-1.202, -3.945e-4
-1.201, -3.883e-4
-1.200, -3.914e-4
-1.199, -4.006e-4
-1.198, -4.068e-4
-1.197, -4.037e-4
-1.196, -3.976e-4
-1.195, -4.006e-4
-1.194, -4.099e-4
-1.193, -4.161e-4
-1.192, -4.130e-4
-1.191, -4.068e-4
-1.190, -4.099e-4
-1.189, -4.191e-4
-1.188, -4.253e-4
-1.187, -4.222e-4
-1.186, -4.191e-4
-1.185, -4.222e-4
-1.184, -4.284e-4
-1.183, -4.376e-4
-1.182, -4.346e-4
-1.181, -4.284e-4
-1.180, -4.346e-4
-1.179, -4.407e-4
-1.178, -4.469e-4
-1.177, -4.469e-4
-1.176, -4.407e-4
-1.175, -4.469e-4
-1.174, -4.531e-4
-1.173, -4.592e-4
-1.172, -4.592e-4
-1.171, -4.531e-4
-1.170, -4.561e-4
-1.169, -4.654e-4
-1.168, -4.716e-4
-1.167, -4.716e-4
-1.166, -4.654e-4
-1.165, -4.685e-4
-1.164, -4.777e-4
-1.163, -4.839e-4
-1.162, -4.808e-4
-1.161, -4.777e-4
-1.160, -4.808e-4
-1.159, -4.931e-4
-1.158, -4.962e-4
-1.157, -4.962e-4
-1.156, -4.931e-4
-1.155, -4.962e-4
-1.154, -5.055e-4
-1.153, -5.116e-4
-1.152, -5.086e-4
-1.151, -5.055e-4
-1.150, -5.116e-4
-1.149, -5.209e-4
-1.148, -5.271e-4
-1.147, -5.271e-4
-1.146, -5.209e-4
-1.145, -5.271e-4
-1.144, -5.363e-4
-1.143, -5.425e-4
-1.142, -5.425e-4
-1.141, -5.363e-4
-1.140, -5.425e-4
-1.139, -5.517e-4
-1.138, -5.579e-4
-1.137, -5.579e-4
-1.136, -5.548e-4
-1.135, -5.579e-4
-1.134, -5.702e-4
-1.133, -5.764e-4
-1.132, -5.733e-4
-1.131, -5.733e-4
-1.130, -5.764e-4
-1.129, -5.887e-4
-1.128, -5.949e-4
-1.127, -5.949e-4
-1.126, -5.918e-4
-1.125, -5.949e-4
-1.124, -6.072e-4
-1.123, -6.165e-4
-1.122, -6.134e-4
-1.121, -6.134e-4
-1.120, -6.165e-4
-1.119, -6.288e-4
-1.118, -6.380e-4
-1.117, -6.380e-4
-1.116, -6.350e-4
-1.115, -6.411e-4
-1.114, -6.504e-4
-1.113, -6.596e-4
-1.112, -6.596e-4
-1.111, -6.565e-4
-1.110, -6.627e-4
-1.109, -6.750e-4
-1.108, -6.843e-4
-1.107, -6.843e-4
-1.106, -6.812e-4
-1.105, -6.874e-4
-1.104, -6.997e-4
-1.103, -7.090e-4
-1.102, -7.120e-4
-1.101, -7.090e-4
-1.100, -7.182e-4
-1.099, -7.305e-4
-1.098, -7.398e-4
-1.097, -7.429e-4
-1.096, -7.398e-4
-1.095, -7.490e-4
-1.094, -7.614e-4
-1.093, -7.737e-4
-1.092, -7.737e-4
-1.091, -7.737e-4
-1.090, -7.830e-4
-1.089, -7.953e-4
-1.088, -8.076e-4
-1.087, -8.107e-4
-1.086, -8.107e-4
-1.085, -8.200e-4
-1.084, -8.323e-4
-1.083, -8.446e-4
-1.082, -8.477e-4
-1.081, -8.477e-4
-1.080, -8.569e-4
-1.079, -8.724e-4
-1.078, -8.816e-4
-1.077, -8.878e-4
-1.076, -8.909e-4
-1.075, -9.001e-4
-1.074, -9.155e-4
-1.073, -9.279e-4
-1.072, -9.340e-4
-1.071, -9.371e-4
-1.070, -9.464e-4
-1.069, -9.618e-4
-1.068, -9.772e-4
-1.067, -9.834e-4
-1.066, -9.864e-4
-1.065, -9.988e-4
-1.064, -1.014e-3
-1.063, -1.030e-3
-1.062, -1.033e-3
-1.061, -1.039e-3
-1.060, -1.051e-3
-1.059, -1.070e-3
-1.058, -1.085e-3
-1.057, -1.094e-3
-1.056, -1.097e-3
-1.055, -1.110e-3
-1.054, -1.128e-3
-1.053, -1.144e-3
-1.052, -1.153e-3
-1.051, -1.159e-3
-1.050, -1.171e-3
-1.049, -1.193e-3
-1.048, -1.208e-3
-1.047, -1.221e-3
-1.046, -1.224e-3
-1.045, -1.242e-3
-1.044, -1.264e-3
-1.043, -1.282e-3
-1.042, -1.292e-3
-1.041, -1.298e-3
-1.040, -1.313e-3
-1.039, -1.335e-3
-1.038, -1.356e-3
-1.037, -1.369e-3
-1.036, -1.378e-3
-1.035, -1.393e-3
-1.034, -1.418e-3
-1.033, -1.443e-3
-1.032, -1.452e-3
-1.031, -1.464e-3
-1.030, -1.483e-3
-1.029, -1.507e-3
-1.028, -1.532e-3
-1.027, -1.548e-3
-1.026, -1.560e-3
-1.025, -1.578e-3
-1.024, -1.606e-3
-1.023, -1.631e-3
-1.022, -1.649e-3
-1.021, -1.662e-3
-1.020, -1.683e-3
-1.019, -1.711e-3
-1.018, -1.739e-3
-1.017, -1.757e-3
-1.016, -1.773e-3
-1.015, -1.797e-3
-1.014, -1.828e-3
-1.013, -1.853e-3
-1.012, -1.871e-3
-1.011, -1.887e-3
-1.010, -1.914e-3
-1.009, -1.945e-3
-1.008, -1.973e-3
-1.007, -1.995e-3
-1.006, -2.013e-3
-1.005, -2.038e-3
-1.004, -2.072e-3
-1.003, -2.103e-3
-1.002, -2.124e-3
-1.001, -2.143e-3
