Potential V vs RHE, Current mA cm-2
0.013299999999999867,1.4812027309586933
0.012299999999999978,0.17231183632356148
0.011299999999999866,-0.8745745255765657
0.010299999999999976,-1.92117794521672
0.009299999999999864,-2.924208256821031
0.008299999999999974,-3.7532290785419424
0.007299999999999862,-4.406825699079589
0.006299999999999972,-5.0618370309171015
0.00529999999999986,-5.715433651454749
0.0042999999999999705,-6.458157083883892
0.0032999999999998586,-7.067897654125724
0.0022999999999999687,-7.50504344578402
0.0012999999999998568,-7.940774526142452
0.00029999999999996696,-8.508073757388331
-0.000700000000000145,-9.073958277334345
-0.0017000000000000348,-9.55496011928846
-0.0027000000000001467,-9.946835149351072
-0.0037000000000000366,-10.25241279012192
-0.0047000000000001485,-10.731999920776168
-0.005700000000000038,-11.255443101726232
-0.00670000000000015,-11.691174182084664
-0.00770000000000004,-11.996751822855511
-0.008700000000000152,-12.258473413330542
-0.009700000000000042,-12.694204493688973
-0.010700000000000154,-13.175206335643086
-0.011700000000000044,-13.567081365705702
-0.012700000000000156,-13.828802956180734
-0.013700000000000045,-14.046668496359947
-0.014700000000000157,-14.444202371622024
-0.015700000000000047,-14.826174422585586
-0.01670000000000016,-15.222293586547794
-0.01770000000000005,-15.491088733522153
-0.01870000000000016,-15.70329542850191
-0.01970000000000005,-16.056973253468165
-0.020700000000000163,-16.495533756426326
-0.021700000000000053,-16.835064468393938
-0.022700000000000164,-17.061418276372343
-0.023700000000000054,-17.2736249713521
-0.024700000000000166,-17.627302796318357
-0.025700000000000056,-18.06586329927652
-0.026700000000000168,-18.40539401124413
-0.027700000000000058,-18.631747819222536
-0.02870000000000017,-18.843954514202288
-0.02970000000000006,-19.197632339168546
-0.03070000000000017,-19.579604390132108
-0.03170000000000006,-19.93328221509837
-0.03270000000000017,-20.159636023076775
-0.03370000000000006,-20.371842718056527
-0.034700000000000175,-20.683079204026836
-0.035700000000000065,-21.107492593986347
-0.03670000000000018,-21.461170418952605
-0.03770000000000007,-21.67337711393236
-0.03870000000000018,-21.899730921910766
-0.03970000000000007,-22.196820294882425
-0.04070000000000018,-22.63538079784059
-0.04170000000000007,-22.946617283810895
-0.04270000000000018,-23.15882397879065
-0.04370000000000007,-23.385177786769056
-0.044700000000000184,-23.724708498736668
-0.045700000000000074,-24.078386323702922
-0.046700000000000186,-24.432064148669184
-0.047700000000000076,-24.64427084364894
-0.04870000000000019,-24.870624651627345
-0.04970000000000008,-25.167714024599
-0.05070000000000019,-25.563833188561212
-0.05170000000000008,-25.86092256153287
-0.05270000000000019,-26.087276369511276
-0.05370000000000008,-26.257041725495082
-0.05470000000000019,-26.568278211465387
-0.05570000000000008,-26.907808923433
-0.056700000000000195,-27.219045409403304
-0.057700000000000085,-27.43125210438306
-0.058700000000000196,-27.572723234369565
-0.059700000000000086,-27.827371268345274
-0.0607000000000002,-28.22349043230748
-0.06170000000000009,-28.478138466283188
-0.0627000000000002,-28.619609596269694
-0.06370000000000009,-28.789374952253496
-0.0647000000000002,-29.058170099227848
-0.06570000000000009,-29.35525947219951
-0.0667000000000002,-29.581613280177915
-0.0677000000000001,-29.708937297165768
-0.0687000000000002,-29.793819975157668
-0.0697000000000001,-30.04846800913338
-0.07070000000000021,-30.402145834099635
-0.0717000000000001,-30.571911190083444
-0.07270000000000021,-30.670940981073993
-0.0737000000000001,-30.7558236590659
-0.07470000000000021,-30.968030354045652
-0.0757000000000001,-31.23682550102001
-0.07670000000000021,-31.40659085700382
-0.0777000000000001,-31.49147353499572
-0.07870000000000021,-31.533914873991666
-0.0797000000000001,-31.661238890979522
-0.08070000000000022,-31.887592698957924
-0.0817000000000001,-32.01491671594578
-0.08270000000000022,-32.01491671594578
-0.08370000000000011,-32.05735805494172
-0.08470000000000022,-32.184682071929586
-0.08570000000000011,-32.368594540912035
-0.08670000000000022,-32.45347721890394
-0.08770000000000011,-32.41103587990799
-0.08870000000000022,-32.368594540912035
-0.08970000000000011,-32.45347721890394
-0.09070000000000022,-32.58080123589179
-0.09170000000000011,-32.62324257488775
-0.09270000000000023,-32.58080123589179
-0.09370000000000012,-32.49591855789989
-0.09470000000000023,-32.53835989689585
-0.09570000000000012,-32.62324257488775
-0.09670000000000023,-32.62324257488775
-0.09770000000000012,-32.53835989689585
-0.09870000000000023,-32.41103587990799
-0.09970000000000012,-32.41103587990799
-0.10070000000000023,-32.49591855789989
-0.10170000000000012,-32.45347721890394
-0.10270000000000024,-32.32615320191609
-0.10370000000000013,-32.14224073293363
-0.10470000000000024,-32.09979939393769
-0.10570000000000013,-32.09979939393769
-0.10670000000000024,-32.01491671594578
-0.10770000000000013,-31.76026868197007
-0.10870000000000024,-31.57635621298762
-0.10970000000000013,-31.49147353499572
-0.11070000000000024,-31.449032195999767
-0.11170000000000013,-31.36414951800786
-0.11270000000000002,-31.095354371033505
-0.11370000000000013,-30.88314767605375
-0.11470000000000002,-30.71338232006995
-0.11570000000000014,-30.670940981073993
-0.11670000000000003,-30.487028512091538
-0.11770000000000014,-30.232380478115836
-0.11870000000000003,-29.96358533114148
-0.11970000000000014,-29.793819975157668
-0.12070000000000003,-29.66649595816982
-0.12170000000000014,-29.482583489187363
-0.12270000000000003,-29.14305277721976
-0.12370000000000014,-28.831816291249446
-0.12470000000000003,-28.619609596269694
-0.12570000000000014,-28.53472691827779
-0.12670000000000003,-28.308373110299385
-0.12770000000000015,-27.954695285333123
-0.12870000000000004,-27.572723234369565
-0.12970000000000015,-27.34636942639116
-0.13070000000000004,-27.176604070407354
-0.13170000000000015,-26.907808923433
-0.13270000000000004,-26.568278211465387
-0.13370000000000015,-26.21460038649913
-0.13470000000000004,-25.959952352523427
-0.13570000000000015,-25.77603988354097
-0.13670000000000004,-25.478950510569312
-0.13770000000000016,-25.04039000761115
-0.13870000000000005,-24.64427084364894
-0.13970000000000016,-24.34718147067728
-0.14070000000000005,-24.16326900169483
-0.14170000000000016,-23.908620967719123
-0.14270000000000005,-23.51250180375691
-0.14370000000000016,-23.1163826397947
-0.14470000000000005,-22.861734605818995
-0.14570000000000016,-22.63538079784059
-0.14670000000000005,-22.33829142486893
-0.14770000000000016,-21.94217226090672
-0.14870000000000005,-21.54605309694451
-0.14970000000000017,-21.291405062968803
-0.15070000000000006,-21.107492593986347
-0.15170000000000017,-20.89528589900659
-0.15270000000000006,-20.499166735044383
-0.15370000000000017,-20.159636023076775
-0.15470000000000006,-19.93328221509837
-0.15570000000000017,-19.763516859114564
-0.15670000000000006,-19.49472171214021
-0.15770000000000017,-19.155191000172596
-0.15870000000000006,-18.80151317520634
-0.15970000000000018,-18.589306480226583
-0.16070000000000007,-18.40539401124413
-0.16170000000000018,-18.19318731626437
-0.16270000000000007,-17.839509491298113
-0.16370000000000018,-17.542420118326454
-0.16470000000000007,-17.358507649344002
-0.16570000000000018,-17.231183632356142
-0.16670000000000007,-17.061418276372343
-0.16770000000000018,-16.70774045140608
-0.16870000000000007,-16.396503965435777
-0.16970000000000018,-16.22673860945197
-0.17070000000000007,-16.141855931460068
-0.17170000000000019,-15.972090575476265
-0.17270000000000008,-15.660854089505953
-0.1737000000000002,-15.3920589425316
-0.17470000000000008,-15.264734925543747
-0.1757000000000002,-15.179852247551842
-0.17670000000000008,-15.01008689156804
-0.1777000000000002,-14.741291744593681
-0.17870000000000008,-14.486643710617974
-0.1797000000000002,-14.401761032626075
-0.18070000000000008,-14.30273124163552
-0.1817000000000002,-14.175407224647667
-0.18270000000000008,-13.960371107068182
-0.1837000000000002,-13.698649516593148
-0.1847000000000001,-13.654793466297335
-0.1857000000000002,-13.610937416001518
-0.1867000000000001,-13.47936926511407
-0.1877000000000002,-13.261503724934855
-0.1887000000000001,-13.087494235051453
-0.1897000000000002,-12.99978213445982
-0.1907000000000001,-12.955926084164007
-0.1917000000000001,-12.869628694872238
-0.19269999999999998,-12.651763154693022
-0.1937000000000001,-12.476338953509758
-0.19469999999999998,-12.432482903213943
-0.1957000000000001,-12.432482903213943
-0.19669999999999999,-12.346185513922174
-0.1977000000000001,-12.12831997374296
-0.1987,-11.996751822855511
-0.1997000000000001,-11.952895772559694
-0.2007,-11.952895772559694
-0.2017000000000001,-11.86659838326793
-0.2027,-11.691174182084664
-0.2037000000000001,-11.517164692201263
-0.2047,-11.473308641905447
-0.2057000000000001,-11.517164692201263
-0.2067,-11.473308641905447
-0.2077000000000001,-11.299299152022046
-0.2087,-11.123874950838783
-0.2097000000000001,-11.123874950838783
-0.2107,-11.123874950838783
-0.2117000000000001,-11.123874950838783
-0.2127,-10.949865460955383
-0.2137000000000001,-10.819712021367803
-0.2147,-10.775855971071984
-0.2157000000000001,-10.906009410659568
-0.2167,-10.819712021367803
-0.21770000000000012,-10.644287820184536
-0.2187,-10.514134380596953
-0.21970000000000012,-10.514134380596953
-0.2207,-10.557990430892769
-0.22170000000000012,-10.470278330301136
-0.2227,-10.340124890713554
-0.22370000000000012,-10.208556739826104
-0.2247,-10.208556739826104
-0.22570000000000012,-10.296268840417738
-0.2267,-10.208556739826104
-0.22770000000000012,-10.078403300238522
-0.22870000000000001,-9.946835149351072
-0.22970000000000013,-9.946835149351072
-0.23070000000000002,-10.034547249942705
-0.23170000000000013,-9.99069119964689
-0.23270000000000002,-9.81668170976349
-0.23370000000000013,-9.728969609171857
-0.23470000000000002,-9.728969609171857
-0.23570000000000013,-9.772825659467674
-0.23670000000000002,-9.728969609171857
-0.2376999999999999,-9.59740145828441
-0.23870000000000002,-9.511104068992642
-0.2396999999999999,-9.511104068992642
-0.24070000000000003,-9.55496011928846
-0.24169999999999991,-9.55496011928846
-0.24270000000000003,-9.423391968401008
-0.24369999999999992,-9.293238528813426
-0.24470000000000003,-9.293238528813426
-0.24569999999999992,-9.379535918105192
-0.24670000000000003,-9.335679867809377
-0.24769999999999992,-9.205526428221793
-0.24870000000000003,-9.11781432763016
-0.24969999999999992,-9.161670377925978
-0.25070000000000003,-9.205526428221793
-0.2516999999999999,-9.161670377925978
-0.25270000000000004,-9.031516938338395
-0.2536999999999999,-8.943804837746763
-0.25470000000000004,-8.943804837746763
-0.2556999999999999,-9.031516938338395
-0.25670000000000004,-9.031516938338395
-0.25769999999999993,-8.899948787450944
-0.25870000000000004,-8.769795347863363
-0.25969999999999993,-8.812236686859313
-0.26070000000000004,-8.899948787450944
-0.26169999999999993,-8.85609273715513
-0.26270000000000004,-8.769795347863363
-0.26369999999999993,-8.68208324727173
-0.26470000000000005,-8.725939297567548
-0.26569999999999994,-8.812236686859313
-0.26670000000000005,-8.812236686859313
-0.26769999999999994,-8.725939297567548
-0.26870000000000005,-8.638227196975913
-0.26969999999999994,-8.68208324727173
-0.27070000000000005,-8.769795347863363
-0.27169999999999994,-8.725939297567548
-0.27270000000000005,-8.638227196975913
-0.27369999999999994,-8.594371146680096
-0.27470000000000006,-8.638227196975913
-0.27569999999999995,-8.725939297567548
-0.27670000000000006,-8.725939297567548
-0.27769999999999995,-8.638227196975913
-0.27870000000000006,-8.594371146680096
-0.27969999999999995,-8.638227196975913
-0.28070000000000006,-8.725939297567548
-0.28169999999999995,-8.725939297567548
-0.28270000000000006,-8.638227196975913
-0.28369999999999995,-8.594371146680096
-0.28470000000000006,-8.68208324727173
-0.28569999999999995,-8.769795347863363
-0.28670000000000007,-8.769795347863363
-0.28769999999999996,-8.725939297567548
-0.28870000000000007,-8.638227196975913
-0.28969999999999996,-8.68208324727173
-0.29070000000000007,-8.812236686859313
-0.29169999999999996,-8.85609273715513
-0.29270000000000007,-8.769795347863363
-0.29369999999999996,-8.725939297567548
-0.2947000000000001,-8.812236686859313
-0.29569999999999996,-8.943804837746763
-0.2967000000000001,-8.987660888042578
-0.29769999999999996,-8.899948787450944
-0.2987000000000001,-8.85609273715513
-0.29969999999999997,-8.943804837746763
-0.3007000000000001,-9.073958277334345
-0.30169999999999997,-9.11781432763016
-0.3027000000000001,-9.073958277334345
-0.30369999999999997,-9.031516938338395
-0.3047000000000001,-9.161670377925978
-0.30569999999999997,-9.293238528813426
-0.3067000000000001,-9.335679867809377
-0.3077,-9.293238528813426
-0.3087000000000001,-9.24938247851761
-0.3097,-9.379535918105192
-0.3107000000000001,-9.511104068992642
-0.3117,-9.55496011928846
-0.3127000000000001,-9.55496011928846
-0.3137,-9.55496011928846
-0.3147000000000001,-9.685113558876042
-0.3157,-9.85912304875944
-0.3167000000000001,-9.902979099055257
-0.3177,-9.902979099055257
-0.3187000000000001,-9.85912304875944
-0.3197,-10.034547249942705
-0.3207000000000001,-10.208556739826104
-0.3217,-10.25241279012192
-0.3227000000000001,-10.25241279012192
-0.3237,-10.296268840417738
-0.3247000000000001,-10.470278330301136
-0.3257,-10.644287820184536
-0.3267000000000001,-10.731999920776168
-0.3277,-10.731999920776168
-0.3287000000000001,-10.775855971071984
-0.3297,-10.949865460955383
-0.3307000000000001,-11.1677310011346
-0.3317,-11.299299152022046
-0.3327000000000001,-11.299299152022046
-0.3337,-11.385596541313816
-0.3347000000000001,-11.56102074249708
-0.3357,-11.82274233297211
-0.3367000000000001,-11.952895772559694
-0.3377,-11.996751822855511
-0.3387000000000001,-12.084463923447142
-0.3397,-12.346185513922174
-0.3407000000000001,-12.56405105410139
-0.3417,-12.73806054398479
-0.3427000000000001,-12.825772644576423
-0.3437,-12.955926084164007
-0.3447000000000001,-13.175206335643086
-0.3457,-13.47936926511407
-0.3467000000000001,-13.698649516593148
-0.3477,-13.784946905884919
-0.3487000000000001,-13.960371107068182
-0.3497,-14.26028990263957
-0.3507000000000001,-14.61396772760583
-0.3517,-14.826174422585586
-0.3527000000000001,-15.01008689156804
-0.3537,-15.179852247551842
-0.3547000000000001,-15.533530072518102
-0.3557,-15.91550212348166
-0.35670000000000013,-16.184297270456018
-0.3577,-16.396503965435777
-0.35870000000000013,-16.665299112410132
-0.3597,-17.018976937376394
-0.36070000000000013,-17.4433903273359
-0.3617,-17.797068152302163
-0.3626999999999999,-18.06586329927652
-0.3637,-18.40539401124413
-0.3646999999999999,-18.843954514202288
-0.3657,-19.3249563561564
-0.3666999999999999,-19.763516859114564
-0.3677,-20.06060623208622
-0.3686999999999999,-20.456725396048434
-0.36970000000000003,-21.022609915994444
-0.3706999999999999,-21.58849443594046
-0.37170000000000003,-22.069496277894572
-0.3726999999999999,-22.508056780852733
-0.37370000000000003,-22.946617283810895
-0.3746999999999999,-23.55494314275286
-0.37570000000000003,-24.20571034069078
-0.3766999999999999,-24.771594860636792
-0.37770000000000004,-25.252596702590903
-0.3786999999999999,-25.81848122253692
-0.37970000000000004,-26.525836872469437
-0.3806999999999999,-27.261486748399253
-0.38170000000000004,-27.954695285333123
-0.38269999999999993,-28.577168257273744
-0.38370000000000004,-29.22793545521166
-0.38469999999999993,-30.00602667013743
-0.38570000000000004,-30.88314767605375
-0.38669999999999993,-30.571911190083444
-0.38570000000000004,-28.8742576302454
-0.38469999999999993,-27.742488590353368
-0.38370000000000004,-27.049280053419505
-0.38269999999999993,-26.525836872469437
-0.38170000000000004,-26.002393691519377
-0.3806999999999999,-25.43650917157336
-0.37970000000000004,-24.95550732961925
-0.3786999999999999,-24.601829504652986
-0.37770000000000004,-24.290593018682678
-0.3766999999999999,-23.86617962872317
-0.37570000000000003,-23.385177786769056
-0.3746999999999999,-22.904175944814945
-0.37370000000000003,-22.592939458844636
-0.3726999999999999,-22.295850085872978
-0.37170000000000003,-21.899730921910766
-0.3706999999999999,-21.376287740960702
-0.36970000000000003,-20.89528589900659
-0.3686999999999999,-20.584049413036283
-0.3677,-20.244518701068674
-0.3666999999999999,-19.848399537106463
-0.3657,-19.367397695152352
-0.3646999999999999,-18.92883719219419
-0.3637,-18.631747819222536
-0.3626999999999999,-18.320511333252224
-0.3617,-17.924392169290012
-0.36070000000000013,-17.4433903273359
-0.3597,-17.018976937376394
-0.35870000000000013,-16.665299112410132
-0.3577,-16.396503965435777
-0.35670000000000013,-16.014531914472215
-0.3557,-15.533530072518102
-0.3547000000000001,-15.094969569559943
-0.3537,-14.783733083589633
-0.3527000000000001,-14.529085049613924
-0.3517,-14.175407224647667
-0.3507000000000001,-13.741090855589102
-0.3497,-13.30535977523067
-0.3487000000000001,-13.043638184755638
-0.3477,-12.781916594280606
-0.3467000000000001,-12.432482903213943
-0.3457,-11.996751822855511
-0.3447000000000001,-11.604876792792895
-0.3437,-11.299299152022046
-0.3427000000000001,-11.037577561547016
-0.3417,-10.688143870480351
-0.3407000000000001,-10.296268840417738
-0.3397,-9.902979099055257
-0.3387000000000001,-9.685113558876042
-0.3377,-9.467248018696827
-0.3367000000000001,-9.161670377925978
-0.3357,-8.725939297567548
-0.3347000000000001,-8.376505606500881
-0.3337,-8.158640066321666
-0.3327000000000001,-7.940774526142452
-0.3317,-7.635196885371603
-0.3307000000000001,-7.28576319430494
-0.3297,-6.93774421453814
-0.3287000000000001,-6.719878674358924
-0.3277,-6.54445447317566
-0.3267000000000001,-6.238876832404812
-0.3257,-5.890857852638012
-0.3247000000000001,-5.585280211867165
-0.3237,-5.411270721983764
-0.3227000000000001,-5.279702571096316
-0.3217,-5.017980980621284
-0.3207000000000001,-4.668547289554621
-0.3197,-4.364384360083638
-0.3187000000000001,-4.1889601589003735
-0.3177,-4.0588067193127895
-0.3167000000000001,-3.840941179133574
-0.3157,-3.4915074880669104
-0.3147000000000001,-3.2297858975918787
-0.3137,-3.0996324580042955
-0.3127000000000001,-2.968064307116847
-0.3117,-2.794054817233447
-0.3107000000000001,-2.4884771764625997
-0.3097,-2.226755585987568
-0.3087000000000001,-2.095187435100119
-0.3077,-2.008890045808352
-0.3067000000000001,-1.8334658446250875
-0.30569999999999997,-1.5293029151541047
-0.3047000000000001,-1.2671569112891135
-0.30369999999999997,-1.1798692240874404
-0.3027000000000001,-1.0925815368857679
-0.30169999999999997,-0.9617207416482519
-0.3007000000000001,-0.7001406223032067
-0.29969999999999997,-0.48199213986401795
-0.2987000000000001,-0.3947044526623452
-0.29769999999999996,-0.30755823659065895
-0.2967000000000001,-0.1766974413531431
-0.29569999999999996,0.04140859974704963
-0.2947000000000001,0.2594580523952477
-0.29369999999999996,0.3031726315610774
-0.29270000000000007,0.3903188476327636
-0.29169999999999996,0.4776065348344364
-0.29070000000000007,0.7393281253094681
-0.28969999999999996,0.9137620285828272
-0.28870000000000007,0.9573351366186703
-0.28769999999999996,0.9573351366186703
-0.28670000000000007,1.0881959318561862
-0.28569999999999995,1.349917522331218
-0.28470000000000006,1.4812027309586933
-0.28369999999999995,1.5250587812545096
-0.28270000000000006,1.5250587812545096
-0.28169999999999995,1.6113561705462767
-0.28070000000000006,1.8292217107254924
-0.27969999999999995,1.9607898616129409
-0.27870000000000006,2.004645911908757
-0.27769999999999995,2.004645911908757
-0.27670000000000006,2.0909433012005243
-0.27569999999999995,2.2663675023837886
-0.27470000000000006,2.396520941971372
-0.27369999999999994,2.396520941971372
-0.27270000000000005,2.396520941971372
-0.27169999999999994,2.4842330425630044
-0.27070000000000005,2.658242532446404
-0.26969999999999994,2.7898106833338523
-0.26870000000000005,2.7898106833338523
-0.26769999999999994,2.745954633038036
-0.26670000000000005,2.8761080726256196
