Dec. 11, 2024   18:49:35
Cyclic Voltammetry
File: c:/users/guazh/data/banditlqround7_x0exp59_r20/2024-12-09-exp630\exp630-2024-12-11t18_44_42-arkoh\exp630_cv_50mvs_efin_-1400mv.bin
Data Source:  Experiment
Instrument Model:  CHI760E
Header: CV ran at 50 mVs
Note: 

Init E (V) = -1
High E (V) = -1
Low E (V) = -1.4
Final E (V) = -1
Init P/N = N
Scan Rate (V/s) = 0.05
Segment = 7
Sample Interval (V) = 0.001
Quiet Time (sec) = 60
Sensitivity (A/V) = 0.001
Comp R (ohm) = 1.3

Results:

Channel 1:
Segment 1:

Segment 2:

Segment 3:

Segment 4:

Segment 5:

Segment 6:

Segment 7:

Potential/V, Current/A

-1.000, -8.095e-6
-1.001, 3.561e-5
-1.002, 5.577e-5
-1.003, 6.881e-5
-1.004, 8.071e-5
-1.005, 9.150e-5
-1.006, 1.008e-4
-1.007, 1.079e-4
-1.008, 1.133e-4
-1.009, 1.202e-4
-1.010, 1.283e-4
-1.011, 1.351e-4
-1.012, 1.405e-4
-1.013, 1.450e-4
-1.014, 1.511e-4
-1.015, 1.589e-4
-1.016, 1.652e-4
-1.017, 1.709e-4
-1.018, 1.756e-4
-1.019, 1.819e-4
-1.020, 1.899e-4
-1.021, 1.971e-4
-1.022, 2.033e-4
-1.023, 2.091e-4
-1.024, 2.166e-4
-1.025, 2.250e-4
-1.026, 2.333e-4
-1.027, 2.400e-4
-1.028, 2.468e-4
-1.029, 2.548e-4
-1.030, 2.646e-4
-1.031, 2.745e-4
-1.032, 2.823e-4
-1.033, 2.903e-4
-1.034, 2.995e-4
-1.035, 3.106e-4
-1.036, 3.216e-4
-1.037, 3.306e-4
-1.038, 3.397e-4
-1.039, 3.505e-4
-1.040, 3.625e-4
-1.041, 3.748e-4
-1.042, 3.852e-4
-1.043, 3.955e-4
-1.044, 4.074e-4
-1.045, 4.204e-4
-1.046, 4.331e-4
-1.047, 4.447e-4
-1.048, 4.556e-4
-1.049, 4.676e-4
-1.050, 4.815e-4
-1.051, 4.949e-4
-1.052, 5.074e-4
-1.053, 5.185e-4
-1.054, 5.308e-4
-1.055, 5.448e-4
-1.056, 5.579e-4
-1.057, 5.708e-4
-1.058, 5.820e-4
-1.059, 5.939e-4
-1.060, 6.076e-4
-1.061, 6.208e-4
-1.062, 6.320e-4
-1.063, 6.428e-4
-1.064, 6.544e-4
-1.065, 6.663e-4
-1.066, 6.778e-4
-1.067, 6.873e-4
-1.068, 6.967e-4
-1.069, 7.069e-4
-1.070, 7.182e-4
-1.071, 7.292e-4
-1.072, 7.370e-4
-1.073, 7.442e-4
-1.074, 7.529e-4
-1.075, 7.627e-4
-1.076, 7.704e-4
-1.077, 7.756e-4
-1.078, 7.812e-4
-1.079, 7.881e-4
-1.080, 7.953e-4
-1.081, 8.024e-4
-1.082, 8.066e-4
-1.083, 8.096e-4
-1.084, 8.131e-4
-1.085, 8.173e-4
-1.086, 8.225e-4
-1.087, 8.247e-4
-1.088, 8.254e-4
-1.089, 8.274e-4
-1.090, 8.307e-4
-1.091, 8.327e-4
-1.092, 8.327e-4
-1.093, 8.307e-4
-1.094, 8.300e-4
-1.095, 8.308e-4
-1.096, 8.304e-4
-1.097, 8.280e-4
-1.098, 8.244e-4
-1.099, 8.215e-4
-1.100, 8.201e-4
-1.101, 8.175e-4
-1.102, 8.124e-4
-1.103, 8.071e-4
-1.104, 8.018e-4
-1.105, 7.984e-4
-1.106, 7.935e-4
-1.107, 7.858e-4
-1.108, 7.780e-4
-1.109, 7.707e-4
-1.110, 7.648e-4
-1.111, 7.589e-4
-1.112, 7.500e-4
-1.113, 7.406e-4
-1.114, 7.316e-4
-1.115, 7.242e-4
-1.116, 7.163e-4
-1.117, 7.052e-4
-1.118, 6.942e-4
-1.119, 6.847e-4
-1.120, 6.758e-4
-1.121, 6.673e-4
-1.122, 6.564e-4
-1.123, 6.442e-4
-1.124, 6.332e-4
-1.125, 6.235e-4
-1.126, 6.142e-4
-1.127, 6.030e-4
-1.128, 5.905e-4
-1.129, 5.794e-4
-1.130, 5.704e-4
-1.131, 5.609e-4
-1.132, 5.504e-4
-1.133, 5.378e-4
-1.134, 5.271e-4
-1.135, 5.183e-4
-1.136, 5.086e-4
-1.137, 4.985e-4
-1.138, 4.870e-4
-1.139, 4.770e-4
-1.140, 4.694e-4
-1.141, 4.605e-4
-1.142, 4.506e-4
-1.143, 4.406e-4
-1.144, 4.308e-4
-1.145, 4.241e-4
-1.146, 4.169e-4
-1.147, 4.073e-4
-1.148, 3.982e-4
-1.149, 3.896e-4
-1.150, 3.839e-4
-1.151, 3.776e-4
-1.152, 3.696e-4
-1.153, 3.610e-4
-1.154, 3.541e-4
-1.155, 3.485e-4
-1.156, 3.438e-4
-1.157, 3.365e-4
-1.158, 3.293e-4
-1.159, 3.232e-4
-1.160, 3.188e-4
-1.161, 3.151e-4
-1.162, 3.092e-4
-1.163, 3.028e-4
-1.164, 2.985e-4
-1.165, 2.951e-4
-1.166, 2.921e-4
-1.167, 2.878e-4
-1.168, 2.818e-4
-1.169, 2.779e-4
-1.170, 2.763e-4
-1.171, 2.738e-4
-1.172, 2.706e-4
-1.173, 2.658e-4
-1.174, 2.632e-4
-1.175, 2.622e-4
-1.176, 2.604e-4
-1.177, 2.585e-4
-1.178, 2.547e-4
-1.179, 2.518e-4
-1.180, 2.519e-4
-1.181, 2.507e-4
-1.182, 2.488e-4
-1.183, 2.463e-4
-1.184, 2.440e-4
-1.185, 2.444e-4
-1.186, 2.445e-4
-1.187, 2.423e-4
-1.188, 2.402e-4
-1.189, 2.388e-4
-1.190, 2.395e-4
-1.191, 2.400e-4
-1.192, 2.389e-4
-1.193, 2.364e-4
-1.194, 2.357e-4
-1.195, 2.366e-4
-1.196, 2.381e-4
-1.197, 2.367e-4
-1.198, 2.350e-4
-1.199, 2.348e-4
-1.200, 2.359e-4
-1.201, 2.369e-4
-1.202, 2.369e-4
-1.203, 2.358e-4
-1.204, 2.353e-4
-1.205, 2.366e-4
-1.206, 2.383e-4
-1.207, 2.382e-4
-1.208, 2.367e-4
-1.209, 2.371e-4
-1.210, 2.392e-4
-1.211, 2.408e-4
-1.212, 2.413e-4
-1.213, 2.397e-4
-1.214, 2.404e-4
-1.215, 2.432e-4
-1.216, 2.446e-4
-1.217, 2.447e-4
-1.218, 2.445e-4
-1.219, 2.450e-4
-1.220, 2.479e-4
-1.221, 2.499e-4
-1.222, 2.503e-4
-1.223, 2.502e-4
-1.224, 2.510e-4
-1.225, 2.535e-4
-1.226, 2.563e-4
-1.227, 2.571e-4
-1.228, 2.575e-4
-1.229, 2.598e-4
-1.230, 2.613e-4
-1.231, 2.640e-4
-1.232, 2.649e-4
-1.233, 2.647e-4
-1.234, 2.662e-4
-1.235, 2.693e-4
-1.236, 2.723e-4
-1.237, 2.731e-4
-1.238, 2.735e-4
-1.239, 2.755e-4
-1.240, 2.783e-4
-1.241, 2.815e-4
-1.242, 2.828e-4
-1.243, 2.829e-4
-1.244, 2.848e-4
-1.245, 2.881e-4
-1.246, 2.913e-4
-1.247, 2.928e-4
-1.248, 2.930e-4
-1.249, 2.948e-4
-1.250, 2.983e-4
-1.251, 3.014e-4
-1.252, 3.034e-4
-1.253, 3.033e-4
-1.254, 3.053e-4
-1.255, 3.088e-4
-1.256, 3.116e-4
-1.257, 3.133e-4
-1.258, 3.137e-4
-1.259, 3.153e-4
-1.260, 3.189e-4
-1.261, 3.216e-4
-1.262, 3.231e-4
-1.263, 3.238e-4
-1.264, 3.249e-4
-1.265, 3.284e-4
-1.266, 3.311e-4
-1.267, 3.324e-4
-1.268, 3.326e-4
-1.269, 3.337e-4
-1.270, 3.367e-4
-1.271, 3.396e-4
-1.272, 3.402e-4
-1.273, 3.405e-4
-1.274, 3.413e-4
-1.275, 3.440e-4
-1.276, 3.469e-4
-1.277, 3.475e-4
-1.278, 3.471e-4
-1.279, 3.484e-4
-1.280, 3.510e-4
-1.281, 3.532e-4
-1.282, 3.538e-4
-1.283, 3.531e-4
-1.284, 3.543e-4
-1.285, 3.565e-4
-1.286, 3.589e-4
-1.287, 3.598e-4
-1.288, 3.589e-4
-1.289, 3.598e-4
-1.290, 3.624e-4
-1.291, 3.650e-4
-1.292, 3.660e-4
-1.293, 3.654e-4
-1.294, 3.667e-4
-1.295, 3.699e-4
-1.296, 3.724e-4
-1.297, 3.738e-4
-1.298, 3.738e-4
-1.299, 3.754e-4
-1.300, 3.792e-4
-1.301, 3.818e-4
-1.302, 3.835e-4
-1.303, 3.847e-4
-1.304, 3.863e-4
-1.305, 3.905e-4
-1.306, 3.943e-4
-1.307, 3.961e-4
-1.308, 3.982e-4
-1.309, 4.006e-4
-1.310, 4.055e-4
-1.311, 4.098e-4
-1.312, 4.124e-4
-1.313, 4.145e-4
-1.314, 4.174e-4
-1.315, 4.219e-4
-1.316, 4.272e-4
-1.317, 4.306e-4
-1.318, 4.334e-4
-1.319, 4.377e-4
-1.320, 4.429e-4
-1.321, 4.487e-4
-1.322, 4.528e-4
-1.323, 4.557e-4
-1.324, 4.606e-4
-1.325, 4.666e-4
-1.326, 4.734e-4
-1.327, 4.783e-4
-1.328, 4.821e-4
-1.329, 4.882e-4
-1.330, 4.956e-4
-1.331, 5.030e-4
-1.332, 5.091e-4
-1.333, 5.139e-4
-1.334, 5.208e-4
-1.335, 5.301e-4
-1.336, 5.385e-4
-1.337, 5.461e-4
-1.338, 5.533e-4
-1.339, 5.616e-4
-1.340, 5.723e-4
-1.341, 5.827e-4
-1.342, 5.924e-4
-1.343, 6.018e-4
-1.344, 6.127e-4
-1.345, 6.261e-4
-1.346, 6.400e-4
-1.347, 6.522e-4
-1.348, 6.651e-4
-1.349, 6.794e-4
-1.350, 6.970e-4
-1.351, 7.153e-4
-1.352, 7.326e-4
-1.353, 7.512e-4
-1.354, 7.722e-4
-1.355, 7.964e-4
-1.356, 8.229e-4
-1.357, 8.490e-4
-1.358, 8.770e-4
-1.359, 9.093e-4
-1.360, 9.457e-4
-1.361, 9.860e-4
-1.362, 1.028e-3
-1.363, 1.074e-3
-1.364, 1.127e-3
-1.365, 1.186e-3
-1.366, 1.251e-3
-1.367, 1.321e-3
-1.368, 1.394e-3
-1.369, 1.477e-3
-1.370, 1.568e-3
-1.371, 1.666e-3
-1.372, 1.771e-3
-1.373, 1.882e-3
-1.374, 2.002e-3
-1.375, 2.130e-3
-1.376, 2.264e-3
-1.377, 2.402e-3
-1.378, 2.547e-3
-1.379, 2.697e-3
-1.380, 2.855e-3
-1.381, 3.015e-3
-1.382, 3.179e-3
-1.383, 3.345e-3
-1.384, 3.513e-3
-1.385, 3.686e-3
-1.386, 3.859e-3
-1.387, 4.033e-3
-1.388, 4.209e-3
-1.389, 4.388e-3
-1.390, 4.568e-3
-1.391, 4.745e-3
-1.392, 4.923e-3
-1.393, 5.095e-3
-1.394, 5.265e-3
-1.395, 5.435e-3
-1.396, 5.613e-3
-1.397, 5.787e-3
-1.398, 5.959e-3
-1.399, 6.128e-3
-1.400, 6.198e-3
-1.399, 6.185e-3
-1.398, 6.164e-3
-1.397, 6.134e-3
-1.396, 6.111e-3
-1.395, 6.081e-3
-1.394, 6.042e-3
-1.393, 6.003e-3
-1.392, 5.962e-3
-1.391, 5.921e-3
-1.390, 5.872e-3
-1.389, 5.824e-3
-1.388, 5.773e-3
-1.387, 5.719e-3
-1.386, 5.665e-3
-1.385, 5.606e-3
-1.384, 5.548e-3
-1.383, 5.487e-3
-1.382, 5.417e-3
-1.381, 5.352e-3
-1.380, 5.292e-3
-1.379, 5.232e-3
-1.378, 5.167e-3
-1.377, 5.102e-3
-1.376, 5.035e-3
-1.375, 4.972e-3
-1.374, 4.904e-3
-1.373, 4.834e-3
-1.372, 4.759e-3
-1.371, 4.685e-3
-1.370, 4.615e-3
-1.369, 4.544e-3
-1.368, 4.476e-3
-1.367, 4.405e-3
-1.366, 4.337e-3
-1.365, 4.269e-3
-1.364, 4.200e-3
-1.363, 4.128e-3
-1.362, 4.057e-3
-1.361, 3.987e-3
-1.360, 3.919e-3
-1.359, 3.848e-3
-1.358, 3.779e-3
-1.357, 3.711e-3
-1.356, 3.644e-3
-1.355, 3.571e-3
-1.354, 3.502e-3
-1.353, 3.430e-3
-1.352, 3.361e-3
-1.351, 3.295e-3
-1.350, 3.230e-3
-1.349, 3.167e-3
-1.348, 3.099e-3
-1.347, 3.036e-3
-1.346, 2.974e-3
-1.345, 2.912e-3
-1.344, 2.851e-3
-1.343, 2.787e-3
-1.342, 2.723e-3
-1.341, 2.662e-3
-1.340, 2.604e-3
-1.339, 2.546e-3
-1.338, 2.487e-3
-1.337, 2.427e-3
-1.336, 2.373e-3
-1.335, 2.316e-3
-1.334, 2.259e-3
-1.333, 2.207e-3
-1.332, 2.153e-3
-1.331, 2.099e-3
-1.330, 2.048e-3
-1.329, 1.995e-3
-1.328, 1.944e-3
-1.327, 1.892e-3
-1.326, 1.841e-3
-1.325, 1.794e-3
-1.324, 1.747e-3
-1.323, 1.700e-3
-1.322, 1.653e-3
-1.321, 1.607e-3
-1.320, 1.563e-3
-1.319, 1.518e-3
-1.318, 1.473e-3
-1.317, 1.429e-3
-1.316, 1.386e-3
-1.315, 1.347e-3
-1.314, 1.307e-3
-1.313, 1.267e-3
-1.312, 1.227e-3
-1.311, 1.188e-3
-1.310, 1.154e-3
-1.309, 1.119e-3
-1.308, 1.082e-3
-1.307, 1.045e-3
-1.306, 1.011e-3
-1.305, 9.780e-4
-1.304, 9.478e-4
-1.303, 9.145e-4
-1.302, 8.814e-4
-1.301, 8.506e-4
-1.300, 8.220e-4
-1.299, 7.945e-4
-1.298, 7.659e-4
-1.297, 7.361e-4
-1.296, 7.098e-4
-1.295, 6.841e-4
-1.294, 6.600e-4
-1.293, 6.356e-4
-1.292, 6.095e-4
-1.291, 5.846e-4
-1.290, 5.631e-4
-1.289, 5.418e-4
-1.288, 5.197e-4
-1.287, 4.979e-4
-1.286, 4.770e-4
-1.285, 4.578e-4
-1.284, 4.395e-4
-1.283, 4.205e-4
-1.282, 4.014e-4
-1.281, 3.823e-4
-1.280, 3.653e-4
-1.279, 3.505e-4
-1.278, 3.347e-4
-1.277, 3.173e-4
-1.276, 3.012e-4
-1.275, 2.879e-4
-1.274, 2.747e-4
-1.273, 2.604e-4
-1.272, 2.455e-4
-1.271, 2.321e-4
-1.270, 2.205e-4
-1.269, 2.098e-4
-1.268, 1.979e-4
-1.267, 1.843e-4
-1.266, 1.734e-4
-1.265, 1.635e-4
-1.264, 1.544e-4
-1.263, 1.437e-4
-1.262, 1.327e-4
-1.261, 1.232e-4
-1.260, 1.150e-4
-1.259, 1.074e-4
-1.258, 9.820e-5
-1.257, 8.872e-5
-1.256, 8.152e-5
-1.255, 7.475e-5
-1.254, 6.812e-5
-1.253, 6.069e-5
-1.252, 5.241e-5
-1.251, 4.560e-5
-1.250, 4.079e-5
-1.249, 3.577e-5
-1.248, 2.934e-5
-1.247, 2.216e-5
-1.246, 1.603e-5
-1.245, 1.192e-5
-1.244, 7.977e-6
-1.243, 3.102e-6
-1.242, -2.738e-6
-1.241, -7.376e-6
-1.240, -1.054e-5
-1.239, -1.396e-5
-1.238, -1.886e-5
-1.237, -2.374e-5
-1.236, -2.780e-5
-1.235, -3.034e-5
-1.234, -3.242e-5
-1.233, -3.659e-5
-1.232, -4.115e-5
-1.231, -4.434e-5
-1.230, -4.594e-5
-1.229, -4.929e-5
-1.228, -5.193e-5
-1.227, -5.589e-5
-1.226, -5.818e-5
-1.225, -5.981e-5
-1.224, -6.030e-5
-1.223, -6.327e-5
-1.222, -6.703e-5
-1.221, -6.950e-5
-1.220, -6.998e-5
-1.219, -7.101e-5
-1.218, -7.344e-5
-1.217, -7.707e-5
-1.216, -7.867e-5
-1.215, -7.951e-5
-1.214, -8.007e-5
-1.213, -8.154e-5
-1.212, -8.459e-5
-1.211, -8.701e-5
-1.210, -8.727e-5
-1.209, -8.773e-5
-1.208, -8.939e-5
-1.207, -9.198e-5
-1.206, -9.382e-5
-1.205, -9.343e-5
-1.204, -9.368e-5
-1.203, -9.563e-5
-1.202, -9.788e-5
-1.201, -9.929e-5
-1.200, -9.879e-5
-1.199, -9.871e-5
-1.198, -1.000e-4
-1.197, -1.018e-4
-1.196, -1.034e-4
-1.195, -1.029e-4
-1.194, -1.017e-4
-1.193, -1.037e-4
-1.192, -1.058e-4
-1.191, -1.069e-4
-1.190, -1.064e-4
-1.189, -1.057e-4
-1.188, -1.074e-4
-1.187, -1.091e-4
-1.186, -1.102e-4
-1.185, -1.102e-4
-1.184, -1.092e-4
-1.183, -1.103e-4
-1.182, -1.127e-4
-1.181, -1.131e-4
-1.180, -1.129e-4
-1.179, -1.123e-4
-1.178, -1.139e-4
-1.177, -1.159e-4
-1.176, -1.167e-4
-1.175, -1.161e-4
-1.174, -1.158e-4
-1.173, -1.165e-4
-1.172, -1.185e-4
-1.171, -1.193e-4
-1.170, -1.187e-4
-1.169, -1.186e-4
-1.168, -1.193e-4
-1.167, -1.212e-4
-1.166, -1.224e-4
-1.165, -1.217e-4
-1.164, -1.214e-4
-1.163, -1.224e-4
-1.162, -1.243e-4
-1.161, -1.256e-4
-1.160, -1.245e-4
-1.159, -1.242e-4
-1.158, -1.255e-4
-1.157, -1.271e-4
-1.156, -1.282e-4
-1.155, -1.277e-4
-1.154, -1.271e-4
-1.153, -1.287e-4
-1.152, -1.302e-4
-1.151, -1.314e-4
-1.150, -1.312e-4
-1.149, -1.303e-4
-1.148, -1.318e-4
-1.147, -1.338e-4
-1.146, -1.345e-4
-1.145, -1.343e-4
-1.144, -1.333e-4
-1.143, -1.346e-4
-1.142, -1.369e-4
-1.141, -1.380e-4
-1.140, -1.380e-4
-1.139, -1.376e-4
-1.138, -1.388e-4
-1.137, -1.412e-4
-1.136, -1.418e-4
-1.135, -1.419e-4
-1.134, -1.417e-4
-1.133, -1.428e-4
-1.132, -1.452e-4
-1.131, -1.466e-4
-1.130, -1.461e-4
-1.129, -1.461e-4
-1.128, -1.473e-4
-1.127, -1.498e-4
-1.126, -1.516e-4
-1.125, -1.509e-4
-1.124, -1.510e-4
-1.123, -1.525e-4
-1.122, -1.547e-4
-1.121, -1.564e-4
-1.120, -1.560e-4
-1.119, -1.556e-4
-1.118, -1.577e-4
-1.117, -1.602e-4
-1.116, -1.623e-4
-1.115, -1.623e-4
-1.114, -1.623e-4
-1.113, -1.644e-4
-1.112, -1.664e-4
-1.111, -1.680e-4
-1.110, -1.691e-4
-1.109, -1.689e-4
-1.108, -1.709e-4
-1.107, -1.737e-4
-1.106, -1.755e-4
-1.105, -1.763e-4
-1.104, -1.763e-4
-1.103, -1.786e-4
-1.102, -1.817e-4
-1.101, -1.835e-4
-1.100, -1.839e-4
-1.099, -1.847e-4
-1.098, -1.869e-4
-1.097, -1.908e-4
-1.096, -1.928e-4
-1.095, -1.943e-4
-1.094, -1.955e-4
-1.093, -1.976e-4
-1.092, -2.012e-4
-1.091, -2.035e-4
-1.090, -2.046e-4
-1.089, -2.061e-4
-1.088, -2.086e-4
-1.087, -2.125e-4
-1.086, -2.155e-4
-1.085, -2.165e-4
-1.084, -2.185e-4
-1.083, -2.216e-4
-1.082, -2.256e-4
-1.081, -2.294e-4
-1.080, -2.305e-4
-1.079, -2.326e-4
-1.078, -2.361e-4
-1.077, -2.403e-4
-1.076, -2.445e-4
-1.075, -2.471e-4
-1.074, -2.488e-4
-1.073, -2.531e-4
-1.072, -2.574e-4
-1.071, -2.618e-4
-1.070, -2.643e-4
-1.069, -2.664e-4
-1.068, -2.709e-4
-1.067, -2.764e-4
-1.066, -2.807e-4
-1.065, -2.841e-4
-1.064, -2.871e-4
-1.063, -2.919e-4
-1.062, -2.982e-4
-1.061, -3.025e-4
-1.060, -3.064e-4
-1.059, -3.099e-4
-1.058, -3.153e-4
-1.057, -3.220e-4
-1.056, -3.277e-4
-1.055, -3.324e-4
-1.054, -3.371e-4
-1.053, -3.428e-4
-1.052, -3.505e-4
-1.051, -3.571e-4
-1.050, -3.620e-4
-1.049, -3.675e-4
-1.048, -3.738e-4
-1.047, -3.828e-4
-1.046, -3.907e-4
-1.045, -3.959e-4
-1.044, -4.026e-4
-1.043, -4.106e-4
-1.042, -4.197e-4
-1.041, -4.288e-4
-1.040, -4.357e-4
-1.039, -4.431e-4
-1.038, -4.530e-4
-1.037, -4.639e-4
-1.036, -4.741e-4
-1.035, -4.827e-4
-1.034, -4.910e-4
-1.033, -5.022e-4
-1.032, -5.135e-4
-1.031, -5.252e-4
-1.030, -5.365e-4
-1.029, -5.462e-4
-1.028, -5.584e-4
-1.027, -5.722e-4
-1.026, -5.848e-4
-1.025, -5.969e-4
-1.024, -6.096e-4
-1.023, -6.241e-4
-1.022, -6.392e-4
-1.021, -6.534e-4
-1.020, -6.665e-4
-1.019, -6.800e-4
-1.018, -6.948e-4
-1.017, -7.113e-4
-1.016, -7.268e-4
-1.015, -7.410e-4
-1.014, -7.562e-4
-1.013, -7.718e-4
-1.012, -7.896e-4
-1.011, -8.063e-4
-1.010, -8.211e-4
-1.009, -8.359e-4
-1.008, -8.519e-4
-1.007, -8.694e-4
-1.006, -8.882e-4
-1.005, -9.022e-4
-1.004, -9.178e-4
-1.003, -9.335e-4
-1.002, -9.514e-4
-1.001, -9.685e-4
-1.000, -8.861e-4
-1.001, -7.370e-4
-1.002, -6.245e-4
-1.003, -5.313e-4
-1.004, -4.488e-4
-1.005, -3.747e-4
-1.006, -3.082e-4
-1.007, -2.496e-4
-1.008, -1.978e-4
-1.009, -1.498e-4
-1.010, -1.045e-4
-1.011, -6.274e-5
-1.012, -2.566e-5
-1.013, 6.874e-6
-1.014, 3.789e-5
-1.015, 6.823e-5
-1.016, 9.600e-5
-1.017, 1.206e-4
-1.018, 1.419e-4
-1.019, 1.630e-4
-1.020, 1.846e-4
-1.021, 2.032e-4
-1.022, 2.202e-4
-1.023, 2.350e-4
-1.024, 2.495e-4
-1.025, 2.646e-4
-1.026, 2.789e-4
-1.027, 2.911e-4
-1.028, 3.014e-4
-1.029, 3.113e-4
-1.030, 3.225e-4
-1.031, 3.332e-4
-1.032, 3.413e-4
-1.033, 3.484e-4
-1.034, 3.561e-4
-1.035, 3.647e-4
-1.036, 3.734e-4
-1.037, 3.796e-4
-1.038, 3.845e-4
-1.039, 3.901e-4
-1.040, 3.965e-4
-1.041, 4.031e-4
-1.042, 4.077e-4
-1.043, 4.108e-4
-1.044, 4.149e-4
-1.045, 4.195e-4
-1.046, 4.243e-4
-1.047, 4.269e-4
-1.048, 4.284e-4
-1.049, 4.310e-4
-1.050, 4.350e-4
-1.051, 4.371e-4
-1.052, 4.385e-4
-1.053, 4.383e-4
-1.054, 4.390e-4
-1.055, 4.412e-4
-1.056, 4.429e-4
-1.057, 4.426e-4
-1.058, 4.410e-4
-1.059, 4.399e-4
-1.060, 4.405e-4
-1.061, 4.411e-4
-1.062, 4.393e-4
-1.063, 4.364e-4
-1.064, 4.337e-4
-1.065, 4.331e-4
-1.066, 4.319e-4
-1.067, 4.289e-4
-1.068, 4.249e-4
-1.069, 4.214e-4
-1.070, 4.203e-4
-1.071, 4.185e-4
-1.072, 4.139e-4
-1.073, 4.083e-4
-1.074, 4.039e-4
-1.075, 4.020e-4
-1.076, 3.992e-4
-1.077, 3.939e-4
-1.078, 3.882e-4
-1.079, 3.833e-4
-1.080, 3.793e-4
-1.081, 3.755e-4
-1.082, 3.707e-4
-1.083, 3.648e-4
-1.084, 3.599e-4
-1.085, 3.551e-4
-1.086, 3.518e-4
-1.087, 3.467e-4
-1.088, 3.398e-4
-1.089, 3.346e-4
-1.090, 3.308e-4
-1.091, 3.267e-4
-1.092, 3.214e-4
-1.093, 3.147e-4
-1.094, 3.091e-4
-1.095, 3.055e-4
-1.096, 3.016e-4
-1.097, 2.964e-4
-1.098, 2.896e-4
-1.099, 2.845e-4
-1.100, 2.817e-4
-1.101, 2.780e-4
-1.102, 2.731e-4
-1.103, 2.673e-4
-1.104, 2.618e-4
-1.105, 2.590e-4
-1.106, 2.560e-4
-1.107, 2.507e-4
-1.108, 2.456e-4
-1.109, 2.409e-4
-1.110, 2.382e-4
-1.111, 2.359e-4
-1.112, 2.314e-4
-1.113, 2.261e-4
-1.114, 2.223e-4
-1.115, 2.198e-4
-1.116, 2.179e-4
-1.117, 2.137e-4
-1.118, 2.092e-4
-1.119, 2.058e-4
-1.120, 2.038e-4
-1.121, 2.018e-4
-1.122, 1.985e-4
-1.123, 1.942e-4
-1.124, 1.914e-4
-1.125, 1.897e-4
-1.126, 1.883e-4
-1.127, 1.857e-4
-1.128, 1.813e-4
-1.129, 1.788e-4
-1.130, 1.776e-4
-1.131, 1.764e-4
-1.132, 1.743e-4
-1.133, 1.704e-4
-1.134, 1.682e-4
-1.135, 1.677e-4
-1.136, 1.668e-4
-1.137, 1.646e-4
-1.138, 1.616e-4
-1.139, 1.594e-4
-1.140, 1.594e-4
-1.141, 1.584e-4
-1.142, 1.564e-4
-1.143, 1.537e-4
-1.144, 1.517e-4
-1.145, 1.518e-4
-1.146, 1.514e-4
-1.147, 1.494e-4
-1.148, 1.473e-4
-1.149, 1.454e-4
-1.150, 1.457e-4
-1.151, 1.457e-4
-1.152, 1.441e-4
-1.153, 1.417e-4
-1.154, 1.404e-4
-1.155, 1.406e-4
-1.156, 1.410e-4
-1.157, 1.393e-4
-1.158, 1.372e-4
-1.159, 1.362e-4
-1.160, 1.362e-4
-1.161, 1.368e-4
-1.162, 1.357e-4
-1.163, 1.332e-4
-1.164, 1.326e-4
-1.165, 1.329e-4
-1.166, 1.333e-4
-1.167, 1.324e-4
-1.168, 1.302e-4
-1.169, 1.295e-4
-1.170, 1.304e-4
-1.171, 1.307e-4
-1.172, 1.298e-4
-1.173, 1.277e-4
-1.174, 1.271e-4
-1.175, 1.280e-4
-1.176, 1.283e-4
-1.177, 1.278e-4
-1.178, 1.261e-4
-1.179, 1.250e-4
-1.180, 1.261e-4
-1.181, 1.265e-4
-1.182, 1.258e-4
-1.183, 1.241e-4
-1.184, 1.234e-4
-1.185, 1.244e-4
-1.186, 1.252e-4
-1.187, 1.240e-4
-1.188, 1.228e-4
-1.189, 1.220e-4
-1.190, 1.234e-4
-1.191, 1.242e-4
-1.192, 1.232e-4
-1.193, 1.218e-4
-1.194, 1.212e-4
-1.195, 1.224e-4
-1.196, 1.234e-4
-1.197, 1.224e-4
-1.198, 1.210e-4
-1.199, 1.211e-4
-1.200, 1.217e-4
-1.201, 1.229e-4
-1.202, 1.222e-4
-1.203, 1.206e-4
-1.204, 1.207e-4
-1.205, 1.216e-4
-1.206, 1.226e-4
-1.207, 1.224e-4
-1.208, 1.207e-4
-1.209, 1.207e-4
-1.210, 1.221e-4
-1.211, 1.229e-4
-1.212, 1.226e-4
-1.213, 1.212e-4
-1.214, 1.213e-4
-1.215, 1.228e-4
-1.216, 1.237e-4
-1.217, 1.233e-4
-1.218, 1.224e-4
-1.219, 1.219e-4
-1.220, 1.239e-4
-1.221, 1.248e-4
-1.222, 1.246e-4
-1.223, 1.238e-4
-1.224, 1.236e-4
-1.225, 1.254e-4
-1.226, 1.268e-4
-1.227, 1.264e-4
-1.228, 1.262e-4
-1.229, 1.272e-4
-1.230, 1.279e-4
-1.231, 1.296e-4
-1.232, 1.291e-4
-1.233, 1.287e-4
-1.234, 1.292e-4
-1.235, 1.308e-4
-1.236, 1.328e-4
-1.237, 1.328e-4
-1.238, 1.320e-4
-1.239, 1.331e-4
-1.240, 1.348e-4
-1.241, 1.367e-4
-1.242, 1.372e-4
-1.243, 1.366e-4
-1.244, 1.377e-4
-1.245, 1.398e-4
-1.246, 1.420e-4
-1.247, 1.429e-4
-1.248, 1.422e-4
-1.249, 1.436e-4
-1.250, 1.464e-4
-1.251, 1.486e-4
-1.252, 1.496e-4
-1.253, 1.495e-4
-1.254, 1.511e-4
-1.255, 1.542e-4
-1.256, 1.565e-4
-1.257, 1.578e-4
-1.258, 1.585e-4
-1.259, 1.600e-4
-1.260, 1.636e-4
-1.261, 1.664e-4
-1.262, 1.679e-4
-1.263, 1.693e-4
-1.264, 1.710e-4
-1.265, 1.751e-4
-1.266, 1.787e-4
-1.267, 1.807e-4
-1.268, 1.824e-4
-1.269, 1.850e-4
-1.270, 1.893e-4
-1.271, 1.939e-4
-1.272, 1.961e-4
-1.273, 1.985e-4
-1.274, 2.021e-4
-1.275, 2.072e-4
-1.276, 2.120e-4
-1.277, 2.154e-4
-1.278, 2.183e-4
-1.279, 2.229e-4
-1.280, 2.293e-4
-1.281, 2.347e-4
-1.282, 2.395e-4
-1.283, 2.431e-4
-1.284, 2.488e-4
-1.285, 2.557e-4
-1.286, 2.630e-4
-1.287, 2.690e-4
-1.288, 2.738e-4
-1.289, 2.807e-4
-1.290, 2.895e-4
-1.291, 2.978e-4
-1.292, 3.056e-4
-1.293, 3.125e-4
-1.294, 3.211e-4
-1.295, 3.319e-4
-1.296, 3.419e-4
-1.297, 3.516e-4
-1.298, 3.609e-4
-1.299, 3.715e-4
-1.300, 3.848e-4
-1.301, 3.974e-4
-1.302, 4.099e-4
-1.303, 4.220e-4
-1.304, 4.350e-4
-1.305, 4.511e-4
-1.306, 4.675e-4
-1.307, 4.831e-4
-1.308, 4.990e-4
-1.309, 5.164e-4
-1.310, 5.361e-4
-1.311, 5.564e-4
-1.312, 5.760e-4
-1.313, 5.962e-4
-1.314, 6.186e-4
-1.315, 6.440e-4
-1.316, 6.707e-4
-1.317, 6.950e-4
-1.318, 7.206e-4
-1.319, 7.490e-4
-1.320, 7.793e-4
-1.321, 8.118e-4
-1.322, 8.439e-4
-1.323, 8.766e-4
-1.324, 9.126e-4
-1.325, 9.507e-4
-1.326, 9.904e-4
-1.327, 1.030e-3
-1.328, 1.070e-3
-1.329, 1.114e-3
-1.330, 1.162e-3
-1.331, 1.211e-3
-1.332, 1.260e-3
-1.333, 1.309e-3
-1.334, 1.361e-3
-1.335, 1.417e-3
-1.336, 1.475e-3
-1.337, 1.533e-3
-1.338, 1.593e-3
-1.339, 1.656e-3
-1.340, 1.722e-3
-1.341, 1.790e-3
-1.342, 1.858e-3
-1.343, 1.928e-3
-1.344, 2.002e-3
-1.345, 2.077e-3
-1.346, 2.155e-3
-1.347, 2.233e-3
-1.348, 2.313e-3
-1.349, 2.395e-3
-1.350, 2.481e-3
-1.351, 2.569e-3
-1.352, 2.657e-3
-1.353, 2.746e-3
-1.354, 2.838e-3
-1.355, 2.933e-3
-1.356, 3.031e-3
-1.357, 3.128e-3
-1.358, 3.224e-3
-1.359, 3.324e-3
-1.360, 3.424e-3
-1.361, 3.526e-3
-1.362, 3.631e-3
-1.363, 3.734e-3
-1.364, 3.841e-3
-1.365, 3.945e-3
-1.366, 4.053e-3
-1.367, 4.161e-3
-1.368, 4.269e-3
-1.369, 4.379e-3
-1.370, 4.489e-3
-1.371, 4.601e-3
-1.372, 4.715e-3
-1.373, 4.826e-3
-1.374, 4.939e-3
-1.375, 5.056e-3
-1.376, 5.171e-3
-1.377, 5.286e-3
-1.378, 5.399e-3
-1.379, 5.512e-3
-1.380, 5.627e-3
-1.381, 5.744e-3
-1.382, 5.858e-3
-1.383, 5.972e-3
-1.384, 6.085e-3
-1.385, 6.198e-3
-1.386, 6.319e-3
-1.387, 6.436e-3
-1.388, 6.553e-3
-1.389, 6.672e-3
-1.390, 6.791e-3
-1.391, 6.904e-3
-1.392, 7.021e-3
-1.393, 7.132e-3
-1.394, 7.246e-3
-1.395, 7.366e-3
-1.396, 7.486e-3
-1.397, 7.602e-3
-1.398, 7.717e-3
-1.399, 7.824e-3
-1.400, 7.848e-3
-1.399, 7.773e-3
-1.398, 7.696e-3
-1.397, 7.609e-3
-1.396, 7.516e-3
-1.395, 7.432e-3
-1.394, 7.353e-3
-1.393, 7.262e-3
-1.392, 7.169e-3
-1.391, 7.077e-3
-1.390, 6.986e-3
-1.389, 6.897e-3
-1.388, 6.797e-3
-1.387, 6.699e-3
-1.386, 6.604e-3
-1.385, 6.516e-3
-1.384, 6.428e-3
-1.383, 6.337e-3
-1.382, 6.237e-3
-1.381, 6.136e-3
-1.380, 6.053e-3
-1.379, 5.972e-3
-1.378, 5.874e-3
-1.377, 5.786e-3
-1.376, 5.695e-3
-1.375, 5.608e-3
-1.374, 5.523e-3
-1.373, 5.440e-3
-1.372, 5.349e-3
-1.371, 5.260e-3
-1.370, 5.171e-3
-1.369, 5.081e-3
-1.368, 4.992e-3
-1.367, 4.905e-3
-1.366, 4.816e-3
-1.365, 4.737e-3
-1.364, 4.658e-3
-1.363, 4.572e-3
-1.362, 4.489e-3
-1.361, 4.410e-3
-1.360, 4.331e-3
-1.359, 4.255e-3
-1.358, 4.175e-3
-1.357, 4.101e-3
-1.356, 4.029e-3
-1.355, 3.955e-3
-1.354, 3.880e-3
-1.353, 3.801e-3
-1.352, 3.737e-3
-1.351, 3.664e-3
-1.350, 3.594e-3
-1.349, 3.521e-3
-1.348, 3.451e-3
-1.347, 3.379e-3
-1.346, 3.310e-3
-1.345, 3.242e-3
-1.344, 3.178e-3
-1.343, 3.111e-3
-1.342, 3.044e-3
-1.341, 2.981e-3
-1.340, 2.914e-3
-1.339, 2.849e-3
-1.338, 2.781e-3
-1.337, 2.717e-3
-1.336, 2.658e-3
-1.335, 2.602e-3
-1.334, 2.545e-3
-1.333, 2.487e-3
-1.332, 2.427e-3
-1.331, 2.368e-3
-1.330, 2.314e-3
-1.329, 2.258e-3
-1.328, 2.204e-3
-1.327, 2.149e-3
-1.326, 2.105e-3
-1.325, 2.070e-3
-1.324, 2.010e-3
-1.323, 1.956e-3
-1.322, 1.904e-3
-1.321, 1.853e-3
-1.320, 1.806e-3
-1.319, 1.758e-3
-1.318, 1.709e-3
-1.317, 1.662e-3
-1.316, 1.616e-3
-1.315, 1.571e-3
-1.314, 1.528e-3
-1.313, 1.483e-3
-1.312, 1.438e-3
-1.311, 1.396e-3
-1.310, 1.355e-3
-1.309, 1.321e-3
-1.308, 1.276e-3
-1.307, 1.238e-3
-1.306, 1.198e-3
-1.305, 1.163e-3
-1.304, 1.127e-3
-1.303, 1.091e-3
-1.302, 1.053e-3
-1.301, 1.019e-3
-1.300, 9.860e-4
-1.299, 9.542e-4
-1.298, 9.203e-4
-1.297, 8.886e-4
-1.296, 8.579e-4
-1.295, 8.293e-4
-1.294, 8.006e-4
-1.293, 7.711e-4
-1.292, 7.438e-4
-1.291, 7.163e-4
-1.290, 6.917e-4
-1.289, 6.663e-4
-1.288, 6.405e-4
-1.287, 6.141e-4
-1.286, 5.906e-4
-1.285, 5.684e-4
-1.284, 5.473e-4
-1.283, 5.247e-4
-1.282, 5.023e-4
-1.281, 4.820e-4
-1.280, 4.633e-4
-1.279, 4.446e-4
-1.278, 4.241e-4
-1.277, 4.052e-4
-1.276, 3.874e-4
-1.275, 3.712e-4
-1.274, 3.558e-4
-1.273, 3.388e-4
-1.272, 3.219e-4
-1.271, 3.052e-4
-1.270, 2.916e-4
-1.269, 2.789e-4
-1.268, 2.633e-4
-1.267, 2.495e-4
-1.266, 2.365e-4
-1.265, 2.242e-4
-1.264, 2.130e-4
-1.263, 2.007e-4
-1.262, 1.877e-4
-1.261, 1.765e-4
-1.260, 1.662e-4
-1.259, 1.571e-4
-1.258, 1.461e-4
-1.257, 1.350e-4
-1.256, 1.264e-4
-1.255, 1.192e-4
-1.254, 1.110e-4
-1.253, 1.022e-4
-1.252, 9.248e-5
-1.251, 8.445e-5
-1.250, 7.800e-5
-1.249, 7.184e-5
-1.248, 6.329e-5
-1.247, 5.541e-5
-1.246, 4.790e-5
-1.245, 4.352e-5
-1.244, 3.772e-5
-1.243, 3.167e-5
-1.242, 2.533e-5
-1.241, 1.924e-5
-1.240, 1.562e-5
-1.239, 1.152e-5
-1.238, 5.840e-6
-1.237, -5.754e-7
-1.236, -4.738e-6
-1.235, -7.746e-6
-1.234, -1.104e-5
-1.233, -1.590e-5
-1.232, -2.109e-5
-1.231, -2.501e-5
-1.230, -2.772e-5
-1.229, -3.153e-5
-1.228, -3.521e-5
-1.227, -3.945e-5
-1.226, -4.245e-5
-1.225, -4.439e-5
-1.224, -4.636e-5
-1.223, -5.018e-5
-1.222, -5.404e-5
-1.221, -5.665e-5
-1.220, -5.810e-5
-1.219, -5.952e-5
-1.218, -6.251e-5
-1.217, -6.689e-5
-1.216, -6.871e-5
-1.215, -6.960e-5
-1.214, -7.085e-5
-1.213, -7.308e-5
-1.212, -7.654e-5
-1.211, -7.867e-5
-1.210, -7.897e-5
-1.209, -7.991e-5
-1.208, -8.195e-5
-1.207, -8.486e-5
-1.206, -8.578e-5
-1.205, -8.536e-5
-1.204, -8.646e-5
-1.203, -8.915e-5
-1.202, -9.122e-5
-1.201, -9.295e-5
-1.200, -9.244e-5
-1.199, -9.309e-5
-1.198, -9.521e-5
-1.197, -9.747e-5
-1.196, -9.888e-5
-1.195, -9.881e-5
-1.194, -9.886e-5
-1.193, -1.005e-4
-1.192, -1.021e-4
-1.191, -1.033e-4
-1.190, -1.034e-4
-1.189, -1.025e-4
-1.188, -1.040e-4
-1.187, -1.064e-4
-1.186, -1.073e-4
-1.185, -1.074e-4
-1.184, -1.068e-4
-1.183, -1.085e-4
-1.182, -1.107e-4
-1.181, -1.110e-4
-1.180, -1.109e-4
-1.179, -1.107e-4
-1.178, -1.124e-4
-1.177, -1.147e-4
-1.176, -1.153e-4
-1.175, -1.148e-4
-1.174, -1.144e-4
-1.173, -1.155e-4
-1.172, -1.179e-4
-1.171, -1.183e-4
-1.170, -1.175e-4
-1.169, -1.174e-4
-1.168, -1.178e-4
-1.167, -1.199e-4
-1.166, -1.209e-4
-1.165, -1.197e-4
-1.164, -1.201e-4
-1.163, -1.214e-4
-1.162, -1.227e-4
-1.161, -1.234e-4
-1.160, -1.227e-4
-1.159, -1.225e-4
-1.158, -1.244e-4
-1.157, -1.258e-4
-1.156, -1.260e-4
-1.155, -1.253e-4
-1.154, -1.251e-4
-1.153, -1.269e-4
-1.152, -1.284e-4
-1.151, -1.291e-4
-1.150, -1.283e-4
-1.149, -1.277e-4
-1.148, -1.295e-4
-1.147, -1.315e-4
-1.146, -1.320e-4
-1.145, -1.316e-4
-1.144, -1.310e-4
-1.143, -1.327e-4
-1.142, -1.345e-4
-1.141, -1.349e-4
-1.140, -1.345e-4
-1.139, -1.344e-4
-1.138, -1.359e-4
-1.137, -1.378e-4
-1.136, -1.380e-4
-1.135, -1.380e-4
-1.134, -1.377e-4
-1.133, -1.389e-4
-1.132, -1.411e-4
-1.131, -1.422e-4
-1.130, -1.414e-4
-1.129, -1.422e-4
-1.128, -1.436e-4
-1.127, -1.456e-4
-1.126, -1.460e-4
-1.125, -1.454e-4
-1.124, -1.458e-4
-1.123, -1.475e-4
-1.122, -1.497e-4
-1.121, -1.509e-4
-1.120, -1.504e-4
-1.119, -1.505e-4
-1.118, -1.529e-4
-1.117, -1.546e-4
-1.116, -1.556e-4
-1.115, -1.558e-4
-1.114, -1.559e-4
-1.113, -1.583e-4
-1.112, -1.602e-4
-1.111, -1.610e-4
-1.110, -1.608e-4
-1.109, -1.612e-4
-1.108, -1.637e-4
-1.107, -1.659e-4
-1.106, -1.671e-4
-1.105, -1.681e-4
-1.104, -1.682e-4
-1.103, -1.708e-4
-1.102, -1.738e-4
-1.101, -1.750e-4
-1.100, -1.756e-4
-1.099, -1.762e-4
-1.098, -1.783e-4
-1.097, -1.815e-4
-1.096, -1.829e-4
-1.095, -1.838e-4
-1.094, -1.848e-4
-1.093, -1.874e-4
-1.092, -1.910e-4
-1.091, -1.932e-4
-1.090, -1.937e-4
-1.089, -1.954e-4
-1.088, -1.977e-4
-1.087, -2.005e-4
-1.086, -2.032e-4
-1.085, -2.037e-4
-1.084, -2.059e-4
-1.083, -2.094e-4
-1.082, -2.133e-4
-1.081, -2.161e-4
-1.080, -2.167e-4
-1.079, -2.183e-4
-1.078, -2.217e-4
-1.077, -2.252e-4
-1.076, -2.285e-4
-1.075, -2.314e-4
-1.074, -2.338e-4
-1.073, -2.378e-4
-1.072, -2.416e-4
-1.071, -2.450e-4
-1.070, -2.469e-4
-1.069, -2.488e-4
-1.068, -2.533e-4
-1.067, -2.587e-4
-1.066, -2.620e-4
-1.065, -2.649e-4
-1.064, -2.668e-4
-1.063, -2.718e-4
-1.062, -2.774e-4
-1.061, -2.811e-4
-1.060, -2.840e-4
-1.059, -2.876e-4
-1.058, -2.927e-4
-1.057, -2.992e-4
-1.056, -3.033e-4
-1.055, -3.071e-4
-1.054, -3.115e-4
-1.053, -3.169e-4
-1.052, -3.240e-4
-1.051, -3.293e-4
-1.050, -3.336e-4
-1.049, -3.387e-4
-1.048, -3.447e-4
-1.047, -3.528e-4
-1.046, -3.594e-4
-1.045, -3.640e-4
-1.044, -3.686e-4
-1.043, -3.763e-4
-1.042, -3.843e-4
-1.041, -3.910e-4
-1.040, -3.967e-4
-1.039, -4.037e-4
-1.038, -4.130e-4
-1.037, -4.221e-4
-1.036, -4.307e-4
-1.035, -4.382e-4
-1.034, -4.463e-4
-1.033, -4.560e-4
-1.032, -4.660e-4
-1.031, -4.757e-4
-1.030, -4.839e-4
-1.029, -4.930e-4
-1.028, -5.038e-4
-1.027, -5.160e-4
-1.026, -5.267e-4
-1.025, -5.382e-4
-1.024, -5.496e-4
-1.023, -5.615e-4
-1.022, -5.755e-4
-1.021, -5.875e-4
-1.020, -5.992e-4
-1.019, -6.115e-4
-1.018, -6.251e-4
-1.017, -6.402e-4
-1.016, -6.535e-4
-1.015, -6.658e-4
-1.014, -6.794e-4
-1.013, -6.946e-4
-1.012, -7.114e-4
-1.011, -7.259e-4
-1.010, -7.412e-4
-1.009, -7.566e-4
-1.008, -7.722e-4
-1.007, -7.893e-4
-1.006, -8.051e-4
-1.005, -8.192e-4
-1.004, -8.352e-4
-1.003, -8.518e-4
-1.002, -8.680e-4
-1.001, -8.848e-4
-1.000, -8.074e-4
-1.001, -6.662e-4
-1.002, -5.607e-4
-1.003, -4.723e-4
-1.004, -3.938e-4
-1.005, -3.242e-4
-1.006, -2.616e-4
-1.007, -2.073e-4
-1.008, -1.593e-4
-1.009, -1.140e-4
-1.010, -7.157e-5
-1.011, -3.368e-5
-1.012, 3.500e-7
-1.013, 3.001e-5
-1.014, 5.865e-5
-1.015, 8.670e-5
-1.016, 1.114e-4
-1.017, 1.333e-4
-1.018, 1.526e-4
-1.019, 1.716e-4
-1.020, 1.906e-4
-1.021, 2.076e-4
-1.022, 2.221e-4
-1.023, 2.352e-4
-1.024, 2.490e-4
-1.025, 2.624e-4
-1.026, 2.741e-4
-1.027, 2.838e-4
-1.028, 2.923e-4
-1.029, 3.015e-4
-1.030, 3.115e-4
-1.031, 3.205e-4
-1.032, 3.272e-4
-1.033, 3.331e-4
-1.034, 3.400e-4
-1.035, 3.470e-4
-1.036, 3.537e-4
-1.037, 3.583e-4
-1.038, 3.617e-4
-1.039, 3.666e-4
-1.040, 3.718e-4
-1.041, 3.769e-4
-1.042, 3.798e-4
-1.043, 3.817e-4
-1.044, 3.852e-4
-1.045, 3.887e-4
-1.046, 3.921e-4
-1.047, 3.936e-4
-1.048, 3.937e-4
-1.049, 3.956e-4
-1.050, 3.984e-4
-1.051, 4.000e-4
-1.052, 4.003e-4
-1.053, 3.989e-4
-1.054, 3.993e-4
-1.055, 4.003e-4
-1.056, 4.002e-4
-1.057, 3.993e-4
-1.058, 3.972e-4
-1.059, 3.962e-4
-1.060, 3.963e-4
-1.061, 3.951e-4
-1.062, 3.923e-4
-1.063, 3.895e-4
-1.064, 3.869e-4
-1.065, 3.859e-4
-1.066, 3.843e-4
-1.067, 3.809e-4
-1.068, 3.765e-4
-1.069, 3.730e-4
-1.070, 3.712e-4
-1.071, 3.687e-4
-1.072, 3.639e-4
-1.073, 3.592e-4
-1.074, 3.553e-4
-1.075, 3.530e-4
-1.076, 3.500e-4
-1.077, 3.439e-4
-1.078, 3.388e-4
-1.079, 3.353e-4
-1.080, 3.316e-4
-1.081, 3.285e-4
-1.082, 3.229e-4
-1.083, 3.169e-4
-1.084, 3.130e-4
-1.085, 3.095e-4
-1.086, 3.059e-4
-1.087, 3.008e-4
-1.088, 2.946e-4
-1.089, 2.905e-4
-1.090, 2.873e-4
-1.091, 2.830e-4
-1.092, 2.782e-4
-1.093, 2.723e-4
-1.094, 2.683e-4
-1.095, 2.657e-4
-1.096, 2.617e-4
-1.097, 2.569e-4
-1.098, 2.515e-4
-1.099, 2.481e-4
-1.100, 2.454e-4
-1.101, 2.420e-4
-1.102, 2.378e-4
-1.103, 2.326e-4
-1.104, 2.286e-4
-1.105, 2.264e-4
-1.106, 2.236e-4
-1.107, 2.190e-4
-1.108, 2.146e-4
-1.109, 2.114e-4
-1.110, 2.096e-4
-1.111, 2.072e-4
-1.112, 2.028e-4
-1.113, 1.987e-4
-1.114, 1.961e-4
-1.115, 1.944e-4
-1.116, 1.924e-4
-1.117, 1.886e-4
-1.118, 1.847e-4
-1.119, 1.826e-4
-1.120, 1.810e-4
-1.121, 1.798e-4
-1.122, 1.764e-4
-1.123, 1.725e-4
-1.124, 1.710e-4
-1.125, 1.700e-4
-1.126, 1.688e-4
-1.127, 1.660e-4
-1.128, 1.624e-4
-1.129, 1.610e-4
-1.130, 1.604e-4
-1.131, 1.589e-4
-1.132, 1.568e-4
-1.133, 1.536e-4
-1.134, 1.527e-4
-1.135, 1.529e-4
-1.136, 1.516e-4
-1.137, 1.493e-4
-1.138, 1.467e-4
-1.139, 1.456e-4
-1.140, 1.461e-4
-1.141, 1.450e-4
-1.142, 1.429e-4
-1.143, 1.410e-4
-1.144, 1.398e-4
-1.145, 1.403e-4
-1.146, 1.398e-4
-1.147, 1.377e-4
-1.148, 1.360e-4
-1.149, 1.353e-4
-1.150, 1.357e-4
-1.151, 1.355e-4
-1.152, 1.334e-4
-1.153, 1.320e-4
-1.154, 1.318e-4
-1.155, 1.322e-4
-1.156, 1.324e-4
-1.157, 1.303e-4
-1.158, 1.285e-4
-1.159, 1.287e-4
-1.160, 1.291e-4
-1.161, 1.291e-4
-1.162, 1.278e-4
-1.163, 1.255e-4
-1.164, 1.262e-4
-1.165, 1.266e-4
-1.166, 1.267e-4
-1.167, 1.255e-4
-1.168, 1.236e-4
-1.169, 1.241e-4
-1.170, 1.247e-4
-1.171, 1.246e-4
-1.172, 1.236e-4
-1.173, 1.220e-4
-1.174, 1.221e-4
-1.175, 1.235e-4
-1.176, 1.235e-4
-1.177, 1.226e-4
-1.178, 1.212e-4
-1.179, 1.211e-4
-1.180, 1.222e-4
-1.181, 1.224e-4
-1.182, 1.210e-4
-1.183, 1.201e-4
-1.184, 1.201e-4
-1.185, 1.215e-4
-1.186, 1.218e-4
-1.187, 1.203e-4
-1.188, 1.195e-4
-1.189, 1.194e-4
-1.190, 1.208e-4
-1.191, 1.214e-4
-1.192, 1.200e-4
-1.193, 1.190e-4
-1.194, 1.194e-4
-1.195, 1.207e-4
-1.196, 1.212e-4
-1.197, 1.202e-4
-1.198, 1.191e-4
-1.199, 1.198e-4
-1.200, 1.209e-4
-1.201, 1.216e-4
-1.202, 1.203e-4
-1.203, 1.191e-4
-1.204, 1.202e-4
-1.205, 1.213e-4
-1.206, 1.217e-4
-1.207, 1.208e-4
-1.208, 1.198e-4
-1.209, 1.207e-4
-1.210, 1.220e-4
-1.211, 1.225e-4
-1.212, 1.219e-4
-1.213, 1.208e-4
-1.214, 1.218e-4
-1.215, 1.235e-4
-1.216, 1.240e-4
-1.217, 1.236e-4
-1.218, 1.228e-4
-1.219, 1.236e-4
-1.220, 1.256e-4
-1.221, 1.262e-4
-1.222, 1.257e-4
-1.223, 1.254e-4
-1.224, 1.261e-4
-1.225, 1.280e-4
-1.226, 1.292e-4
-1.227, 1.286e-4
-1.228, 1.289e-4
-1.229, 1.307e-4
-1.230, 1.317e-4
-1.231, 1.329e-4
-1.232, 1.325e-4
-1.233, 1.325e-4
-1.234, 1.339e-4
-1.235, 1.359e-4
-1.236, 1.375e-4
-1.237, 1.372e-4
-1.238, 1.373e-4
-1.239, 1.388e-4
-1.240, 1.412e-4
-1.241, 1.430e-4
-1.242, 1.431e-4
-1.243, 1.434e-4
-1.244, 1.456e-4
-1.245, 1.479e-4
-1.246, 1.499e-4
-1.247, 1.503e-4
-1.248, 1.511e-4
-1.249, 1.535e-4
-1.250, 1.565e-4
-1.251, 1.588e-4
-1.252, 1.597e-4
-1.253, 1.604e-4
-1.254, 1.632e-4
-1.255, 1.665e-4
-1.256, 1.690e-4
-1.257, 1.702e-4
-1.258, 1.718e-4
-1.259, 1.749e-4
-1.260, 1.791e-4
-1.261, 1.819e-4
-1.262, 1.837e-4
-1.263, 1.859e-4
-1.264, 1.891e-4
-1.265, 1.939e-4
-1.266, 1.976e-4
-1.267, 1.998e-4
-1.268, 2.031e-4
-1.269, 2.069e-4
-1.270, 2.123e-4
-1.271, 2.170e-4
-1.272, 2.198e-4
-1.273, 2.234e-4
-1.274, 2.287e-4
-1.275, 2.346e-4
-1.276, 2.404e-4
-1.277, 2.442e-4
-1.278, 2.489e-4
-1.279, 2.556e-4
-1.280, 2.630e-4
-1.281, 2.694e-4
-1.282, 2.745e-4
-1.283, 2.804e-4
-1.284, 2.881e-4
-1.285, 2.965e-4
-1.286, 3.044e-4
-1.287, 3.115e-4
-1.288, 3.186e-4
-1.289, 3.278e-4
-1.290, 3.386e-4
-1.291, 3.481e-4
-1.292, 3.571e-4
-1.293, 3.664e-4
-1.294, 3.777e-4
-1.295, 3.906e-4
-1.296, 4.024e-4
-1.297, 4.136e-4
-1.298, 4.255e-4
-1.299, 4.394e-4
-1.300, 4.548e-4
-1.301, 4.696e-4
-1.302, 4.840e-4
-1.303, 4.990e-4
-1.304, 5.161e-4
-1.305, 5.351e-4
-1.306, 5.537e-4
-1.307, 5.713e-4
-1.308, 5.904e-4
-1.309, 6.113e-4
-1.310, 6.344e-4
-1.311, 6.578e-4
-1.312, 6.801e-4
-1.313, 7.044e-4
-1.314, 7.308e-4
-1.315, 7.592e-4
-1.316, 7.875e-4
-1.317, 8.151e-4
-1.318, 8.448e-4
-1.319, 8.769e-4
-1.320, 9.116e-4
-1.321, 9.462e-4
-1.322, 9.810e-4
-1.323, 1.018e-3
-1.324, 1.058e-3
-1.325, 1.099e-3
-1.326, 1.141e-3
-1.327, 1.182e-3
-1.328, 1.225e-3
-1.329, 1.273e-3
-1.330, 1.322e-3
-1.331, 1.373e-3
-1.332, 1.424e-3
-1.333, 1.476e-3
-1.334, 1.531e-3
-1.335, 1.588e-3
-1.336, 1.646e-3
-1.337, 1.706e-3
-1.338, 1.767e-3
-1.339, 1.831e-3
-1.340, 1.898e-3
-1.341, 1.964e-3
-1.342, 2.032e-3
-1.343, 2.101e-3
-1.344, 2.174e-3
-1.345, 2.249e-3
-1.346, 2.325e-3
-1.347, 2.400e-3
-1.348, 2.477e-3
-1.349, 2.557e-3
-1.350, 2.639e-3
-1.351, 2.721e-3
-1.352, 2.803e-3
-1.353, 2.887e-3
-1.354, 2.974e-3
-1.355, 3.063e-3
-1.356, 3.153e-3
-1.357, 3.238e-3
-1.358, 3.327e-3
-1.359, 3.419e-3
-1.360, 3.513e-3
-1.361, 3.608e-3
-1.362, 3.703e-3
-1.363, 3.800e-3
-1.364, 3.896e-3
-1.365, 3.992e-3
-1.366, 4.090e-3
-1.367, 4.187e-3
-1.368, 4.286e-3
-1.369, 4.390e-3
-1.370, 4.490e-3
-1.371, 4.589e-3
-1.372, 4.690e-3
-1.373, 4.792e-3
-1.374, 4.894e-3
-1.375, 4.998e-3
-1.376, 5.103e-3
-1.377, 5.206e-3
-1.378, 5.313e-3
-1.379, 5.420e-3
-1.380, 5.527e-3
-1.381, 5.630e-3
-1.382, 5.736e-3
-1.383, 5.841e-3
-1.384, 5.946e-3
-1.385, 6.056e-3
-1.386, 6.188e-3
-1.387, 6.303e-3
-1.388, 6.411e-3
-1.389, 6.516e-3
-1.390, 6.623e-3
-1.391, 6.734e-3
-1.392, 6.844e-3
-1.393, 6.954e-3
-1.394, 7.075e-3
-1.395, 7.196e-3
-1.396, 7.311e-3
-1.397, 7.420e-3
-1.398, 7.533e-3
-1.399, 7.657e-3
-1.400, 7.684e-3
-1.399, 7.607e-3
-1.398, 7.528e-3
-1.397, 7.453e-3
-1.396, 7.389e-3
-1.395, 7.304e-3
-1.394, 7.210e-3
-1.393, 7.118e-3
-1.392, 7.027e-3
-1.391, 6.942e-3
-1.390, 6.857e-3
-1.389, 6.764e-3
-1.388, 6.664e-3
-1.387, 6.573e-3
-1.386, 6.489e-3
-1.385, 6.406e-3
-1.384, 6.315e-3
-1.383, 6.216e-3
-1.382, 6.124e-3
-1.381, 6.020e-3
-1.380, 5.937e-3
-1.379, 5.857e-3
-1.378, 5.766e-3
-1.377, 5.680e-3
-1.376, 5.591e-3
-1.375, 5.508e-3
-1.374, 5.423e-3
-1.373, 5.335e-3
-1.372, 5.248e-3
-1.371, 5.167e-3
-1.370, 5.095e-3
-1.369, 5.011e-3
-1.368, 4.927e-3
-1.367, 4.844e-3
-1.366, 4.763e-3
-1.365, 4.682e-3
-1.364, 4.600e-3
-1.363, 4.517e-3
-1.362, 4.438e-3
-1.361, 4.378e-3
-1.360, 4.304e-3
-1.359, 4.229e-3
-1.358, 4.154e-3
-1.357, 4.079e-3
-1.356, 4.003e-3
-1.355, 3.928e-3
-1.354, 3.859e-3
-1.353, 3.789e-3
-1.352, 3.717e-3
-1.351, 3.648e-3
-1.350, 3.572e-3
-1.349, 3.506e-3
-1.348, 3.440e-3
-1.347, 3.368e-3
-1.346, 3.300e-3
-1.345, 3.235e-3
-1.344, 3.173e-3
-1.343, 3.108e-3
-1.342, 3.040e-3
-1.341, 2.976e-3
-1.340, 2.915e-3
-1.339, 2.856e-3
-1.338, 2.794e-3
-1.337, 2.728e-3
-1.336, 2.669e-3
-1.335, 2.610e-3
-1.334, 2.562e-3
-1.333, 2.502e-3
-1.332, 2.442e-3
-1.331, 2.386e-3
-1.330, 2.330e-3
-1.329, 2.273e-3
-1.328, 2.218e-3
-1.327, 2.164e-3
-1.326, 2.113e-3
-1.325, 2.061e-3
-1.324, 2.011e-3
-1.323, 1.957e-3
-1.322, 1.906e-3
-1.321, 1.858e-3
-1.320, 1.811e-3
-1.319, 1.762e-3
-1.318, 1.715e-3
-1.317, 1.667e-3
-1.316, 1.623e-3
-1.315, 1.579e-3
-1.314, 1.535e-3
-1.313, 1.491e-3
-1.312, 1.449e-3
-1.311, 1.406e-3
-1.310, 1.367e-3
-1.309, 1.327e-3
-1.308, 1.287e-3
-1.307, 1.247e-3
-1.306, 1.211e-3
-1.305, 1.175e-3
-1.304, 1.140e-3
-1.303, 1.102e-3
-1.302, 1.066e-3
-1.301, 1.031e-3
-1.300, 1.000e-3
-1.299, 9.680e-4
-1.298, 9.353e-4
-1.297, 9.031e-4
-1.296, 8.803e-4
-1.295, 8.497e-4
-1.294, 8.191e-4
-1.293, 7.898e-4
-1.292, 7.614e-4
-1.291, 7.354e-4
-1.290, 7.098e-4
-1.289, 6.842e-4
-1.288, 6.583e-4
-1.287, 6.331e-4
-1.286, 6.089e-4
-1.285, 5.877e-4
-1.284, 5.659e-4
-1.283, 5.426e-4
-1.282, 5.206e-4
-1.281, 4.998e-4
-1.280, 4.798e-4
-1.279, 4.607e-4
-1.278, 4.394e-4
-1.277, 4.199e-4
-1.276, 4.022e-4
-1.275, 3.859e-4
-1.274, 3.694e-4
-1.273, 3.513e-4
-1.272, 3.347e-4
-1.271, 3.191e-4
-1.270, 3.055e-4
-1.269, 2.923e-4
-1.268, 2.762e-4
-1.267, 2.613e-4
-1.266, 2.492e-4
-1.265, 2.379e-4
-1.264, 2.263e-4
-1.263, 2.132e-4
-1.262, 2.007e-4
-1.261, 1.906e-4
-1.260, 1.803e-4
-1.259, 1.699e-4
-1.258, 1.582e-4
-1.257, 1.469e-4
-1.256, 1.386e-4
-1.255, 1.309e-4
-1.254, 1.224e-4
-1.253, 1.126e-4
-1.252, 1.038e-4
-1.251, 9.603e-5
-1.250, 8.958e-5
-1.249, 8.151e-5
-1.248, 7.344e-5
-1.247, 6.596e-5
-1.246, 5.862e-5
-1.245, 5.374e-5
-1.244, 4.789e-5
-1.243, 4.097e-5
-1.242, 3.396e-5
-1.241, 2.856e-5
-1.240, 2.484e-5
-1.239, 1.942e-5
-1.238, 1.396e-5
-1.237, 8.074e-6
-1.236, 3.876e-6
-1.235, 4.487e-7
-1.234, -4.027e-6
-1.233, -9.735e-6
-1.232, -1.430e-5
-1.231, -1.798e-5
-1.230, -2.038e-5
-1.229, -2.496e-5
-1.228, -2.908e-5
-1.227, -3.329e-5
-1.226, -3.596e-5
-1.225, -3.781e-5
-1.224, -4.018e-5
-1.223, -4.481e-5
-1.222, -4.860e-5
-1.221, -5.048e-5
-1.220, -5.200e-5
-1.219, -5.433e-5
-1.218, -5.725e-5
-1.217, -6.146e-5
-1.216, -6.295e-5
-1.215, -6.374e-5
-1.214, -6.519e-5
-1.213, -6.845e-5
-1.212, -7.182e-5
-1.211, -7.353e-5
-1.210, -7.406e-5
-1.209, -7.599e-5
-1.208, -7.806e-5
-1.207, -8.030e-5
-1.206, -8.201e-5
-1.205, -8.226e-5
-1.204, -8.341e-5
-1.203, -8.648e-5
-1.202, -8.839e-5
-1.201, -8.986e-5
-1.200, -8.914e-5
-1.199, -9.014e-5
-1.198, -9.339e-5
-1.197, -9.485e-5
-1.196, -9.555e-5
-1.195, -9.524e-5
-1.194, -9.587e-5
-1.193, -9.815e-5
-1.192, -9.976e-5
-1.191, -1.002e-4
-1.190, -1.008e-4
-1.189, -1.009e-4
-1.188, -1.029e-4
-1.187, -1.050e-4
-1.186, -1.052e-4
-1.185, -1.051e-4
-1.184, -1.048e-4
-1.183, -1.071e-4
-1.182, -1.089e-4
-1.181, -1.081e-4
-1.180, -1.081e-4
-1.179, -1.086e-4
-1.178, -1.110e-4
-1.177, -1.125e-4
-1.176, -1.119e-4
-1.175, -1.116e-4
-1.174, -1.128e-4
-1.173, -1.140e-4
-1.172, -1.157e-4
-1.171, -1.156e-4
-1.170, -1.147e-4
-1.169, -1.155e-4
-1.168, -1.170e-4
-1.167, -1.188e-4
-1.166, -1.188e-4
-1.165, -1.174e-4
-1.164, -1.183e-4
-1.163, -1.202e-4
-1.162, -1.217e-4
-1.161, -1.219e-4
-1.160, -1.209e-4
-1.159, -1.213e-4
-1.158, -1.231e-4
-1.157, -1.239e-4
-1.156, -1.242e-4
-1.155, -1.232e-4
-1.154, -1.237e-4
-1.153, -1.260e-4
-1.152, -1.264e-4
-1.151, -1.269e-4
-1.150, -1.270e-4
-1.149, -1.271e-4
-1.148, -1.290e-4
-1.147, -1.303e-4
-1.146, -1.303e-4
-1.145, -1.296e-4
-1.144, -1.298e-4
-1.143, -1.321e-4
-1.142, -1.336e-4
-1.141, -1.331e-4
-1.140, -1.328e-4
-1.139, -1.330e-4
-1.138, -1.344e-4
-1.137, -1.365e-4
-1.136, -1.362e-4
-1.135, -1.358e-4
-1.134, -1.363e-4
-1.133, -1.377e-4
-1.132, -1.396e-4
-1.131, -1.399e-4
-1.130, -1.391e-4
-1.129, -1.400e-4
-1.128, -1.417e-4
-1.127, -1.435e-4
-1.126, -1.441e-4
-1.125, -1.432e-4
-1.124, -1.439e-4
-1.123, -1.454e-4
-1.122, -1.472e-4
-1.121, -1.480e-4
-1.120, -1.473e-4
-1.119, -1.476e-4
-1.118, -1.499e-4
-1.117, -1.517e-4
-1.116, -1.524e-4
-1.115, -1.521e-4
-1.114, -1.529e-4
-1.113, -1.555e-4
-1.112, -1.570e-4
-1.111, -1.576e-4
-1.110, -1.576e-4
-1.109, -1.585e-4
-1.108, -1.613e-4
-1.107, -1.635e-4
-1.106, -1.643e-4
-1.105, -1.642e-4
-1.104, -1.647e-4
-1.103, -1.675e-4
-1.102, -1.699e-4
-1.101, -1.711e-4
-1.100, -1.717e-4
-1.099, -1.731e-4
-1.098, -1.760e-4
-1.097, -1.784e-4
-1.096, -1.789e-4
-1.095, -1.785e-4
-1.094, -1.795e-4
-1.093, -1.820e-4
-1.092, -1.849e-4
-1.091, -1.864e-4
-1.090, -1.875e-4
-1.089, -1.912e-4
-1.088, -1.935e-4
-1.087, -1.964e-4
-1.086, -1.980e-4
-1.085, -1.983e-4
-1.084, -2.003e-4
-1.083, -2.042e-4
-1.082, -2.075e-4
-1.081, -2.092e-4
-1.080, -2.099e-4
-1.079, -2.126e-4
-1.078, -2.165e-4
-1.077, -2.198e-4
-1.076, -2.224e-4
-1.075, -2.244e-4
-1.074, -2.265e-4
-1.073, -2.308e-4
-1.072, -2.342e-4
-1.071, -2.371e-4
-1.070, -2.393e-4
-1.069, -2.415e-4
-1.068, -2.453e-4
-1.067, -2.493e-4
-1.066, -2.520e-4
-1.065, -2.547e-4
-1.064, -2.577e-4
-1.063, -2.629e-4
-1.062, -2.679e-4
-1.061, -2.713e-4
-1.060, -2.739e-4
-1.059, -2.769e-4
-1.058, -2.829e-4
-1.057, -2.871e-4
-1.056, -2.909e-4
-1.055, -2.955e-4
-1.054, -3.003e-4
-1.053, -3.059e-4
-1.052, -3.121e-4
-1.051, -3.167e-4
-1.050, -3.206e-4
-1.049, -3.255e-4
-1.048, -3.316e-4
-1.047, -3.383e-4
-1.046, -3.441e-4
-1.045, -3.485e-4
-1.044, -3.545e-4
-1.043, -3.615e-4
-1.042, -3.689e-4
-1.041, -3.750e-4
-1.040, -3.800e-4
-1.039, -3.866e-4
-1.038, -3.950e-4
-1.037, -4.033e-4
-1.036, -4.111e-4
-1.035, -4.178e-4
-1.034, -4.257e-4
-1.033, -4.358e-4
-1.032, -4.452e-4
-1.031, -4.540e-4
-1.030, -4.620e-4
-1.029, -4.706e-4
-1.028, -4.819e-4
-1.027, -4.933e-4
-1.026, -5.048e-4
-1.025, -5.134e-4
-1.024, -5.234e-4
-1.023, -5.354e-4
-1.022, -5.479e-4
-1.021, -5.587e-4
-1.020, -5.694e-4
-1.019, -5.801e-4
-1.018, -5.941e-4
-1.017, -6.082e-4
-1.016, -6.209e-4
-1.015, -6.323e-4
-1.014, -6.451e-4
-1.013, -6.592e-4
-1.012, -6.744e-4
-1.011, -6.886e-4
-1.010, -7.011e-4
-1.009, -7.161e-4
-1.008, -7.316e-4
-1.007, -7.481e-4
-1.006, -7.634e-4
-1.005, -7.772e-4
-1.004, -7.928e-4
-1.003, -8.102e-4
-1.002, -8.268e-4
-1.001, -8.419e-4
