Sept. 13, 2024   19:41:00
Cyclic Voltammetry
File: c:/users/guazh/data/20240903_batch_252_500/2024-09-03-exp345\exp345-2024-09-13t19_36_04-arkoh\exp345_cv_50mvs_efin_-1400mv.bin
Data Source:  Experiment
Instrument Model:  CHI760E
Header: CV ran at 50 mVs
Note: 

Init E (V) = -1
High E (V) = -1
Low E (V) = -1.4
Final E (V) = -1
Init P/N = N
Scan Rate (V/s) = 0.05
Segment = 7
Sample Interval (V) = 0.001
Quiet Time (sec) = 60
Sensitivity (A/V) = 0.001
Comp R (ohm) = 2.1

Results:

Channel 1:
Segment 1:
Ep = -1.343V
ip = 2.802e-6A
Ah = 4.815e-6C

Segment 2:

Segment 3:

Segment 4:

Segment 5:

Segment 6:

Segment 7:

Potential/V, Current/A

-1.000, 5.405e-7
-1.001, 5.829e-7
-1.002, 6.026e-7
-1.003, 6.095e-7
-1.004, 6.056e-7
-1.005, 6.510e-7
-1.006, 6.618e-7
-1.007, 6.549e-7
-1.008, 6.717e-7
-1.009, 6.806e-7
-1.010, 6.717e-7
-1.011, 7.023e-7
-1.012, 7.289e-7
-1.013, 7.190e-7
-1.014, 7.042e-7
-1.015, 7.427e-7
-1.016, 7.467e-7
-1.017, 7.368e-7
-1.018, 7.585e-7
-1.019, 7.772e-7
-1.020, 7.723e-7
-1.021, 7.763e-7
-1.022, 7.822e-7
-1.023, 8.108e-7
-1.024, 7.841e-7
-1.025, 8.256e-7
-1.026, 8.216e-7
-1.027, 8.424e-7
-1.028, 8.394e-7
-1.029, 8.542e-7
-1.030, 8.621e-7
-1.031, 8.611e-7
-1.032, 8.700e-7
-1.033, 8.581e-7
-1.034, 8.522e-7
-1.035, 8.818e-7
-1.036, 9.055e-7
-1.037, 8.838e-7
-1.038, 9.154e-7
-1.039, 9.381e-7
-1.040, 9.479e-7
-1.041, 9.025e-7
-1.042, 9.450e-7
-1.043, 9.469e-7
-1.044, 9.400e-7
-1.045, 9.479e-7
-1.046, 9.627e-7
-1.047, 9.677e-7
-1.048, 9.686e-7
-1.049, 9.894e-7
-1.050, 1.020e-6
-1.051, 9.894e-7
-1.052, 1.014e-6
-1.053, 1.015e-6
-1.054, 1.019e-6
-1.055, 1.012e-6
-1.056, 1.026e-6
-1.057, 1.033e-6
-1.058, 1.018e-6
-1.059, 1.037e-6
-1.060, 1.054e-6
-1.061, 1.035e-6
-1.062, 1.073e-6
-1.063, 1.068e-6
-1.064, 1.081e-6
-1.065, 1.075e-6
-1.066, 1.116e-6
-1.067, 1.089e-6
-1.068, 1.107e-6
-1.069, 1.108e-6
-1.070, 1.125e-6
-1.071, 1.096e-6
-1.072, 1.133e-6
-1.073, 1.124e-6
-1.074, 1.137e-6
-1.075, 1.170e-6
-1.076, 1.157e-6
-1.077, 1.159e-6
-1.078, 1.161e-6
-1.079, 1.160e-6
-1.080, 1.162e-6
-1.081, 1.179e-6
-1.082, 1.183e-6
-1.083, 1.201e-6
-1.084, 1.222e-6
-1.085, 1.214e-6
-1.086, 1.190e-6
-1.087, 1.226e-6
-1.088, 1.224e-6
-1.089, 1.243e-6
-1.090, 1.241e-6
-1.091, 1.251e-6
-1.092, 1.251e-6
-1.093, 1.252e-6
-1.094, 1.271e-6
-1.095, 1.294e-6
-1.096, 1.291e-6
-1.097, 1.279e-6
-1.098, 1.305e-6
-1.099, 1.313e-6
-1.100, 1.294e-6
-1.101, 1.328e-6
-1.102, 1.331e-6
-1.103, 1.321e-6
-1.104, 1.326e-6
-1.105, 1.338e-6
-1.106, 1.347e-6
-1.107, 1.358e-6
-1.108, 1.380e-6
-1.109, 1.380e-6
-1.110, 1.390e-6
-1.111, 1.393e-6
-1.112, 1.400e-6
-1.113, 1.422e-6
-1.114, 1.430e-6
-1.115, 1.457e-6
-1.116, 1.445e-6
-1.117, 1.431e-6
-1.118, 1.455e-6
-1.119, 1.467e-6
-1.120, 1.453e-6
-1.121, 1.463e-6
-1.122, 1.490e-6
-1.123, 1.493e-6
-1.124, 1.500e-6
-1.125, 1.503e-6
-1.126, 1.522e-6
-1.127, 1.526e-6
-1.128, 1.558e-6
-1.129, 1.559e-6
-1.130, 1.576e-6
-1.131, 1.563e-6
-1.132, 1.576e-6
-1.133, 1.567e-6
-1.134, 1.594e-6
-1.135, 1.592e-6
-1.136, 1.592e-6
-1.137, 1.620e-6
-1.138, 1.632e-6
-1.139, 1.632e-6
-1.140, 1.625e-6
-1.141, 1.655e-6
-1.142, 1.645e-6
-1.143, 1.663e-6
-1.144, 1.650e-6
-1.145, 1.721e-6
-1.146, 1.663e-6
-1.147, 1.720e-6
-1.148, 1.727e-6
-1.149, 1.696e-6
-1.150, 1.721e-6
-1.151, 1.736e-6
-1.152, 1.739e-6
-1.153, 1.749e-6
-1.154, 1.770e-6
-1.155, 1.780e-6
-1.156, 1.765e-6
-1.157, 1.787e-6
-1.158, 1.812e-6
-1.159, 1.809e-6
-1.160, 1.766e-6
-1.161, 1.836e-6
-1.162, 1.840e-6
-1.163, 1.856e-6
-1.164, 1.851e-6
-1.165, 1.885e-6
-1.166, 1.840e-6
-1.167, 1.912e-6
-1.168, 1.885e-6
-1.169, 1.889e-6
-1.170, 1.904e-6
-1.171, 1.934e-6
-1.172, 1.931e-6
-1.173, 1.947e-6
-1.174, 1.959e-6
-1.175, 1.967e-6
-1.176, 1.968e-6
-1.177, 1.984e-6
-1.178, 2.001e-6
-1.179, 1.990e-6
-1.180, 2.032e-6
-1.181, 2.039e-6
-1.182, 2.033e-6
-1.183, 2.072e-6
-1.184, 2.108e-6
-1.185, 2.093e-6
-1.186, 2.102e-6
-1.187, 2.125e-6
-1.188, 2.123e-6
-1.189, 2.164e-6
-1.190, 2.185e-6
-1.191, 2.182e-6
-1.192, 2.197e-6
-1.193, 2.218e-6
-1.194, 2.222e-6
-1.195, 2.223e-6
-1.196, 2.266e-6
-1.197, 2.287e-6
-1.198, 2.266e-6
-1.199, 2.315e-6
-1.200, 2.329e-6
-1.201, 2.304e-6
-1.202, 2.352e-6
-1.203, 2.402e-6
-1.204, 2.383e-6
-1.205, 2.387e-6
-1.206, 2.432e-6
-1.207, 2.431e-6
-1.208, 2.466e-6
-1.209, 2.495e-6
-1.210, 2.524e-6
-1.211, 2.479e-6
-1.212, 2.571e-6
-1.213, 2.559e-6
-1.214, 2.571e-6
-1.215, 2.595e-6
-1.216, 2.617e-6
-1.217, 2.645e-6
-1.218, 2.672e-6
-1.219, 2.704e-6
-1.220, 2.717e-6
-1.221, 2.742e-6
-1.222, 2.776e-6
-1.223, 2.789e-6
-1.224, 2.802e-6
-1.225, 2.852e-6
-1.226, 2.855e-6
-1.227, 2.868e-6
-1.228, 2.917e-6
-1.229, 2.946e-6
-1.230, 2.945e-6
-1.231, 3.010e-6
-1.232, 3.031e-6
-1.233, 3.031e-6
-1.234, 3.057e-6
-1.235, 3.084e-6
-1.236, 3.096e-6
-1.237, 3.126e-6
-1.238, 3.174e-6
-1.239, 3.169e-6
-1.240, 3.197e-6
-1.241, 3.255e-6
-1.242, 3.279e-6
-1.243, 3.278e-6
-1.244, 3.298e-6
-1.245, 3.347e-6
-1.246, 3.338e-6
-1.247, 3.415e-6
-1.248, 3.428e-6
-1.249, 3.452e-6
-1.250, 3.481e-6
-1.251, 3.525e-6
-1.252, 3.538e-6
-1.253, 3.562e-6
-1.254, 3.613e-6
-1.255, 3.664e-6
-1.256, 3.670e-6
-1.257, 3.759e-6
-1.258, 3.753e-6
-1.259, 3.768e-6
-1.260, 3.791e-6
-1.261, 3.833e-6
-1.262, 3.857e-6
-1.263, 3.887e-6
-1.264, 3.945e-6
-1.265, 3.949e-6
-1.266, 4.007e-6
-1.267, 4.064e-6
-1.268, 4.066e-6
-1.269, 4.097e-6
-1.270, 4.137e-6
-1.271, 4.159e-6
-1.272, 4.198e-6
-1.273, 4.243e-6
-1.274, 4.278e-6
-1.275, 4.281e-6
-1.276, 4.346e-6
-1.277, 4.367e-6
-1.278, 4.352e-6
-1.279, 4.435e-6
-1.280, 4.451e-6
-1.281, 4.489e-6
-1.282, 4.538e-6
-1.283, 4.556e-6
-1.284, 4.606e-6
-1.285, 4.598e-6
-1.286, 4.638e-6
-1.287, 4.667e-6
-1.288, 4.700e-6
-1.289, 4.767e-6
-1.290, 4.760e-6
-1.291, 4.756e-6
-1.292, 4.858e-6
-1.293, 4.878e-6
-1.294, 4.896e-6
-1.295, 4.912e-6
-1.296, 4.955e-6
-1.297, 4.981e-6
-1.298, 4.987e-6
-1.299, 5.056e-6
-1.300, 5.081e-6
-1.301, 5.083e-6
-1.302, 5.144e-6
-1.303, 5.166e-6
-1.304, 5.195e-6
-1.305, 5.199e-6
-1.306, 5.225e-6
-1.307, 5.284e-6
-1.308, 5.320e-6
-1.309, 5.328e-6
-1.310, 5.380e-6
-1.311, 5.351e-6
-1.312, 5.403e-6
-1.313, 5.437e-6
-1.314, 5.472e-6
-1.315, 5.461e-6
-1.316, 5.501e-6
-1.317, 5.556e-6
-1.318, 5.542e-6
-1.319, 5.579e-6
-1.320, 5.597e-6
-1.321, 5.586e-6
-1.322, 5.631e-6
-1.323, 5.624e-6
-1.324, 5.661e-6
-1.325, 5.680e-6
-1.326, 5.685e-6
-1.327, 5.695e-6
-1.328, 5.702e-6
-1.329, 5.737e-6
-1.330, 5.748e-6
-1.331, 5.757e-6
-1.332, 5.786e-6
-1.333, 5.781e-6
-1.334, 5.815e-6
-1.335, 5.785e-6
-1.336, 5.806e-6
-1.337, 5.825e-6
-1.338, 5.829e-6
-1.339, 5.805e-6
-1.340, 5.831e-6
-1.341, 5.821e-6
-1.342, 5.817e-6
-1.343, 5.853e-6
-1.344, 5.843e-6
-1.345, 5.832e-6
-1.346, 5.846e-6
-1.347, 5.839e-6
-1.348, 5.814e-6
-1.349, 5.828e-6
-1.350, 5.822e-6
-1.351, 5.788e-6
-1.352, 5.780e-6
-1.353, 5.821e-6
-1.354, 5.810e-6
-1.355, 5.802e-6
-1.356, 5.798e-6
-1.357, 5.773e-6
-1.358, 5.750e-6
-1.359, 5.725e-6
-1.360, 5.752e-6
-1.361, 5.735e-6
-1.362, 5.702e-6
-1.363, 5.695e-6
-1.364, 5.691e-6
-1.365, 5.677e-6
-1.366, 5.665e-6
-1.367, 5.636e-6
-1.368, 5.633e-6
-1.369, 5.626e-6
-1.370, 5.627e-6
-1.371, 5.600e-6
-1.372, 5.588e-6
-1.373, 5.581e-6
-1.374, 5.547e-6
-1.375, 5.568e-6
-1.376, 5.541e-6
-1.377, 5.490e-6
-1.378, 5.464e-6
-1.379, 5.470e-6
-1.380, 5.442e-6
-1.381, 5.406e-6
-1.382, 5.425e-6
-1.383, 5.414e-6
-1.384, 5.403e-6
-1.385, 5.399e-6
-1.386, 5.350e-6
-1.387, 5.344e-6
-1.388, 5.323e-6
-1.389, 5.345e-6
-1.390, 5.298e-6
-1.391, 5.269e-6
-1.392, 5.309e-6
-1.393, 5.244e-6
-1.394, 5.257e-6
-1.395, 5.267e-6
-1.396, 5.222e-6
-1.397, 5.246e-6
-1.398, 5.230e-6
-1.399, 5.227e-6
-1.400, 4.946e-6
-1.399, 4.686e-6
-1.398, 4.510e-6
-1.397, 4.351e-6
-1.396, 4.227e-6
-1.395, 4.103e-6
-1.394, 3.971e-6
-1.393, 3.900e-6
-1.392, 3.801e-6
-1.391, 3.712e-6
-1.390, 3.605e-6
-1.389, 3.563e-6
-1.388, 3.485e-6
-1.387, 3.385e-6
-1.386, 3.332e-6
-1.385, 3.261e-6
-1.384, 3.187e-6
-1.383, 3.113e-6
-1.382, 3.067e-6
-1.381, 3.020e-6
-1.380, 2.945e-6
-1.379, 2.893e-6
-1.378, 2.850e-6
-1.377, 2.765e-6
-1.376, 2.758e-6
-1.375, 2.722e-6
-1.374, 2.630e-6
-1.373, 2.618e-6
-1.372, 2.559e-6
-1.371, 2.513e-6
-1.370, 2.468e-6
-1.369, 2.450e-6
-1.368, 2.392e-6
-1.367, 2.359e-6
-1.366, 2.342e-6
-1.365, 2.299e-6
-1.364, 2.233e-6
-1.363, 2.209e-6
-1.362, 2.181e-6
-1.361, 2.168e-6
-1.360, 2.138e-6
-1.359, 2.107e-6
-1.358, 2.058e-6
-1.357, 2.047e-6
-1.356, 2.007e-6
-1.355, 1.996e-6
-1.354, 1.965e-6
-1.353, 1.934e-6
-1.352, 1.891e-6
-1.351, 1.862e-6
-1.350, 1.865e-6
-1.349, 1.812e-6
-1.348, 1.808e-6
-1.347, 1.792e-6
-1.346, 1.758e-6
-1.345, 1.722e-6
-1.344, 1.699e-6
-1.343, 1.695e-6
-1.342, 1.673e-6
-1.341, 1.655e-6
-1.340, 1.627e-6
-1.339, 1.603e-6
-1.338, 1.589e-6
-1.337, 1.544e-6
-1.336, 1.535e-6
-1.335, 1.529e-6
-1.334, 1.503e-6
-1.333, 1.477e-6
-1.332, 1.451e-6
-1.331, 1.460e-6
-1.330, 1.423e-6
-1.329, 1.426e-6
-1.328, 1.417e-6
-1.327, 1.372e-6
-1.326, 1.360e-6
-1.325, 1.346e-6
-1.324, 1.335e-6
-1.323, 1.307e-6
-1.322, 1.309e-6
-1.321, 1.303e-6
-1.320, 1.241e-6
-1.319, 1.287e-6
-1.318, 1.273e-6
-1.317, 1.193e-6
-1.316, 1.219e-6
-1.315, 1.205e-6
-1.314, 1.174e-6
-1.313, 1.186e-6
-1.312, 1.171e-6
-1.311, 1.150e-6
-1.310, 1.133e-6
-1.309, 1.130e-6
-1.308, 1.122e-6
-1.307, 1.106e-6
-1.306, 1.099e-6
-1.305, 1.064e-6
-1.304, 1.050e-6
-1.303, 1.066e-6
-1.302, 1.063e-6
-1.301, 1.043e-6
-1.300, 1.043e-6
-1.299, 1.003e-6
-1.298, 9.844e-7
-1.297, 9.894e-7
-1.296, 9.933e-7
-1.295, 9.598e-7
-1.294, 9.657e-7
-1.293, 9.637e-7
-1.292, 9.410e-7
-1.291, 8.996e-7
-1.290, 9.104e-7
-1.289, 9.390e-7
-1.288, 8.907e-7
-1.287, 9.055e-7
-1.286, 8.660e-7
-1.285, 8.789e-7
-1.284, 8.779e-7
-1.283, 8.680e-7
-1.282, 8.206e-7
-1.281, 8.345e-7
-1.280, 8.581e-7
-1.279, 8.266e-7
-1.278, 8.088e-7
-1.277, 8.226e-7
-1.276, 8.325e-7
-1.275, 7.901e-7
-1.274, 8.039e-7
-1.273, 7.802e-7
-1.272, 7.743e-7
-1.271, 7.526e-7
-1.270, 7.447e-7
-1.269, 7.486e-7
-1.268, 7.388e-7
-1.267, 7.299e-7
-1.266, 7.180e-7
-1.265, 7.032e-7
-1.264, 7.121e-7
-1.263, 6.766e-7
-1.262, 6.954e-7
-1.261, 6.855e-7
-1.260, 6.648e-7
-1.259, 6.904e-7
-1.258, 6.914e-7
-1.257, 6.312e-7
-1.256, 6.519e-7
-1.255, 6.638e-7
-1.254, 6.381e-7
-1.253, 6.164e-7
-1.252, 6.006e-7
-1.251, 6.184e-7
-1.250, 6.283e-7
-1.249, 6.194e-7
-1.248, 6.145e-7
-1.247, 5.760e-7
-1.246, 6.105e-7
-1.245, 5.888e-7
-1.244, 5.908e-7
-1.243, 5.602e-7
-1.242, 5.770e-7
-1.241, 5.592e-7
-1.240, 5.681e-7
-1.239, 5.562e-7
-1.238, 5.365e-7
-1.237, 5.631e-7
-1.236, 5.345e-7
-1.235, 5.138e-7
-1.234, 5.345e-7
-1.233, 5.197e-7
-1.232, 5.040e-7
-1.231, 5.089e-7
-1.230, 5.227e-7
-1.229, 5.099e-7
-1.228, 4.665e-7
-1.227, 4.724e-7
-1.226, 5.059e-7
-1.225, 4.773e-7
-1.224, 4.793e-7
-1.223, 4.753e-7
-1.222, 4.793e-7
-1.221, 4.773e-7
-1.220, 4.783e-7
-1.219, 4.526e-7
-1.218, 4.448e-7
-1.217, 4.319e-7
-1.216, 4.852e-7
-1.215, 4.280e-7
-1.214, 4.221e-7
-1.213, 4.379e-7
-1.212, 4.457e-7
-1.211, 4.191e-7
-1.210, 4.339e-7
-1.209, 3.994e-7
-1.208, 4.004e-7
-1.207, 3.944e-7
-1.206, 4.152e-7
-1.205, 3.787e-7
-1.204, 4.004e-7
-1.203, 4.112e-7
-1.202, 4.053e-7
-1.201, 3.648e-7
-1.200, 3.935e-7
-1.199, 3.737e-7
-1.198, 3.412e-7
-1.197, 3.629e-7
-1.196, 3.500e-7
-1.195, 3.441e-7
-1.194, 3.806e-7
-1.193, 3.885e-7
-1.192, 3.402e-7
-1.191, 3.500e-7
-1.190, 3.619e-7
-1.189, 3.204e-7
-1.188, 3.086e-7
-1.187, 3.471e-7
-1.186, 3.185e-7
-1.185, 3.096e-7
-1.184, 3.204e-7
-1.183, 3.352e-7
-1.182, 2.968e-7
-1.181, 3.076e-7
-1.180, 3.214e-7
-1.179, 2.849e-7
-1.178, 2.830e-7
-1.177, 2.987e-7
-1.176, 2.800e-7
-1.175, 2.326e-7
-1.174, 2.800e-7
-1.173, 2.889e-7
-1.172, 2.662e-7
-1.171, 2.731e-7
-1.170, 2.810e-7
-1.169, 2.386e-7
-1.168, 2.415e-7
-1.167, 2.731e-7
-1.166, 2.465e-7
-1.165, 2.169e-7
-1.164, 2.435e-7
-1.163, 2.425e-7
-1.162, 2.060e-7
-1.161, 2.198e-7
-1.160, 2.149e-7
-1.159, 2.178e-7
-1.158, 2.139e-7
-1.157, 1.991e-7
-1.156, 1.981e-7
-1.155, 2.129e-7
-1.154, 2.218e-7
-1.153, 2.030e-7
-1.152, 1.616e-7
-1.151, 2.011e-7
-1.150, 1.942e-7
-1.149, 1.665e-7
-1.148, 1.843e-7
-1.147, 2.080e-7
-1.146, 1.813e-7
-1.145, 1.764e-7
-1.144, 1.892e-7
-1.143, 1.754e-7
-1.142, 1.577e-7
-1.141, 1.665e-7
-1.140, 1.734e-7
-1.139, 1.567e-7
-1.138, 1.488e-7
-1.137, 1.399e-7
-1.136, 1.369e-7
-1.135, 1.448e-7
-1.134, 1.379e-7
-1.133, 1.300e-7
-1.132, 1.448e-7
-1.131, 1.340e-7
-1.130, 8.761e-8
-1.129, 1.182e-7
-1.128, 1.123e-7
-1.127, 9.057e-8
-1.126, 1.064e-7
-1.125, 1.142e-7
-1.124, 1.024e-7
-1.123, 1.014e-7
-1.122, 1.142e-7
-1.121, 1.073e-7
-1.120, 7.972e-8
-1.119, 7.774e-8
-1.118, 7.281e-8
-1.117, 7.084e-8
-1.116, 7.873e-8
-1.115, 6.886e-8
-1.114, 6.393e-8
-1.113, 7.478e-8
-1.112, 7.478e-8
-1.111, 4.321e-8
-1.110, 5.209e-8
-1.109, 5.012e-8
-1.108, 4.420e-8
-1.107, 5.801e-8
-1.106, 5.998e-8
-1.105, 4.025e-8
-1.104, 5.407e-8
-1.103, 5.111e-8
-1.102, 4.025e-8
-1.101, 3.433e-8
-1.100, 2.151e-8
-1.099, 1.559e-8
-1.098, -9.077e-9
-1.097, 3.433e-8
-1.096, 1.263e-8
-1.095, 1.756e-8
-1.094, 1.460e-8
-1.093, 5.722e-9
-1.092, 3.749e-9
-1.091, 1.953e-8
-1.090, -2.190e-8
-1.089, -1.697e-8
-1.088, 6.709e-9
-1.087, -1.302e-8
-1.086, -5.249e-8
-1.085, -1.401e-8
-1.084, -3.473e-8
-1.083, -2.190e-8
-1.082, -5.742e-8
-1.081, -1.401e-8
-1.080, -7.321e-8
-1.079, -3.473e-8
-1.078, -3.769e-8
-1.077, -4.459e-8
-1.076, -8.603e-8
-1.075, -4.953e-8
-1.074, -5.150e-8
-1.073, -1.058e-7
-1.072, -7.518e-8
-1.071, -5.545e-8
-1.070, -1.077e-7
-1.069, -8.702e-8
-1.068, -8.406e-8
-1.067, -8.406e-8
-1.066, -9.886e-8
-1.065, -8.603e-8
-1.064, -1.137e-7
-1.063, -1.087e-7
-1.062, -8.702e-8
-1.061, -9.590e-8
-1.060, -1.393e-7
-1.059, -1.146e-7
-1.058, -8.603e-8
-1.057, -1.255e-7
-1.056, -1.373e-7
-1.055, -1.048e-7
-1.054, -1.590e-7
-1.053, -1.304e-7
-1.052, -1.393e-7
-1.051, -1.610e-7
-1.050, -1.600e-7
-1.049, -1.245e-7
-1.048, -1.590e-7
-1.047, -1.581e-7
-1.046, -1.423e-7
-1.045, -1.620e-7
-1.044, -1.817e-7
-1.043, -1.847e-7
-1.042, -1.521e-7
-1.041, -2.005e-7
-1.040, -1.995e-7
-1.039, -1.837e-7
-1.038, -1.827e-7
-1.037, -2.015e-7
-1.036, -1.936e-7
-1.035, -1.896e-7
-1.034, -2.064e-7
-1.033, -1.827e-7
-1.032, -2.084e-7
-1.031, -2.271e-7
-1.030, -2.232e-7
-1.029, -1.877e-7
-1.028, -2.538e-7
-1.027, -2.222e-7
-1.026, -2.133e-7
-1.025, -2.271e-7
-1.024, -2.518e-7
-1.023, -2.409e-7
-1.022, -2.459e-7
-1.021, -2.478e-7
-1.020, -2.429e-7
-1.019, -2.656e-7
-1.018, -2.814e-7
-1.017, -2.498e-7
-1.016, -2.488e-7
-1.015, -2.863e-7
-1.014, -2.873e-7
-1.013, -2.459e-7
-1.012, -2.804e-7
-1.011, -3.070e-7
-1.010, -2.705e-7
-1.009, -2.893e-7
-1.008, -3.208e-7
-1.007, -3.021e-7
-1.006, -2.843e-7
-1.005, -3.307e-7
-1.004, -3.228e-7
-1.003, -3.090e-7
-1.002, -3.327e-7
-1.001, -3.327e-7
-1.000, -2.242e-7
-1.001, -1.354e-7
-1.002, -1.294e-7
-1.003, -5.446e-8
-1.004, -4.163e-8
-1.005, -3.275e-8
-1.006, -2.092e-8
-1.007, 3.433e-8
-1.008, 3.828e-8
-1.009, 5.111e-8
-1.010, 1.004e-7
-1.011, 1.014e-7
-1.012, 9.550e-8
-1.013, 1.290e-7
-1.014, 1.586e-7
-1.015, 1.537e-7
-1.016, 1.744e-7
-1.017, 1.843e-7
-1.018, 1.853e-7
-1.019, 2.090e-7
-1.020, 2.307e-7
-1.021, 2.405e-7
-1.022, 2.297e-7
-1.023, 2.701e-7
-1.024, 2.839e-7
-1.025, 2.711e-7
-1.026, 2.997e-7
-1.027, 3.214e-7
-1.028, 3.076e-7
-1.029, 3.185e-7
-1.030, 3.362e-7
-1.031, 3.451e-7
-1.032, 3.441e-7
-1.033, 3.668e-7
-1.034, 3.806e-7
-1.035, 3.737e-7
-1.036, 4.152e-7
-1.037, 3.994e-7
-1.038, 4.023e-7
-1.039, 4.369e-7
-1.040, 4.300e-7
-1.041, 4.546e-7
-1.042, 4.428e-7
-1.043, 4.655e-7
-1.044, 4.822e-7
-1.045, 4.724e-7
-1.046, 4.872e-7
-1.047, 4.990e-7
-1.048, 4.951e-7
-1.049, 5.395e-7
-1.050, 5.158e-7
-1.051, 5.217e-7
-1.052, 5.296e-7
-1.053, 5.503e-7
-1.054, 5.375e-7
-1.055, 5.424e-7
-1.056, 5.878e-7
-1.057, 5.908e-7
-1.058, 5.572e-7
-1.059, 5.651e-7
-1.060, 5.947e-7
-1.061, 5.967e-7
-1.062, 5.967e-7
-1.063, 6.204e-7
-1.064, 6.233e-7
-1.065, 6.204e-7
-1.066, 6.174e-7
-1.067, 6.529e-7
-1.068, 6.362e-7
-1.069, 6.865e-7
-1.070, 6.904e-7
-1.071, 6.588e-7
-1.072, 6.618e-7
-1.073, 6.756e-7
-1.074, 6.845e-7
-1.075, 6.736e-7
-1.076, 6.954e-7
-1.077, 7.141e-7
-1.078, 7.131e-7
-1.079, 7.052e-7
-1.080, 7.358e-7
-1.081, 7.121e-7
-1.082, 7.427e-7
-1.083, 7.565e-7
-1.084, 7.407e-7
-1.085, 7.171e-7
-1.086, 7.595e-7
-1.087, 7.407e-7
-1.088, 7.644e-7
-1.089, 7.644e-7
-1.090, 7.891e-7
-1.091, 7.812e-7
-1.092, 8.049e-7
-1.093, 7.851e-7
-1.094, 7.861e-7
-1.095, 7.970e-7
-1.096, 8.246e-7
-1.097, 8.187e-7
-1.098, 8.019e-7
-1.099, 8.414e-7
-1.100, 8.256e-7
-1.101, 8.315e-7
-1.102, 8.443e-7
-1.103, 8.562e-7
-1.104, 8.424e-7
-1.105, 8.512e-7
-1.106, 8.769e-7
-1.107, 8.522e-7
-1.108, 8.769e-7
-1.109, 8.868e-7
-1.110, 8.759e-7
-1.111, 8.877e-7
-1.112, 8.917e-7
-1.113, 8.976e-7
-1.114, 8.581e-7
-1.115, 9.124e-7
-1.116, 9.311e-7
-1.117, 9.203e-7
-1.118, 9.607e-7
-1.119, 9.410e-7
-1.120, 9.213e-7
-1.121, 9.331e-7
-1.122, 9.410e-7
-1.123, 9.657e-7
-1.124, 9.509e-7
-1.125, 9.617e-7
-1.126, 9.667e-7
-1.127, 9.746e-7
-1.128, 1.008e-6
-1.129, 9.815e-7
-1.130, 9.933e-7
-1.131, 1.001e-6
-1.132, 1.025e-6
-1.133, 1.002e-6
-1.134, 1.036e-6
-1.135, 1.012e-6
-1.136, 1.018e-6
-1.137, 1.019e-6
-1.138, 1.048e-6
-1.139, 1.023e-6
-1.140, 1.043e-6
-1.141, 1.069e-6
-1.142, 1.049e-6
-1.143, 1.053e-6
-1.144, 1.058e-6
-1.145, 1.077e-6
-1.146, 1.066e-6
-1.147, 1.081e-6
-1.148, 1.107e-6
-1.149, 1.056e-6
-1.150, 1.077e-6
-1.151, 1.103e-6
-1.152, 1.103e-6
-1.153, 1.103e-6
-1.154, 1.114e-6
-1.155, 1.114e-6
-1.156, 1.119e-6
-1.157, 1.130e-6
-1.158, 1.123e-6
-1.159, 1.147e-6
-1.160, 1.135e-6
-1.161, 1.129e-6
-1.162, 1.165e-6
-1.163, 1.162e-6
-1.164, 1.148e-6
-1.165, 1.197e-6
-1.166, 1.168e-6
-1.167, 1.181e-6
-1.168, 1.172e-6
-1.169, 1.189e-6
-1.170, 1.174e-6
-1.171, 1.171e-6
-1.172, 1.216e-6
-1.173, 1.215e-6
-1.174, 1.203e-6
-1.175, 1.190e-6
-1.176, 1.228e-6
-1.177, 1.203e-6
-1.178, 1.238e-6
-1.179, 1.248e-6
-1.180, 1.258e-6
-1.181, 1.232e-6
-1.182, 1.259e-6
-1.183, 1.266e-6
-1.184, 1.253e-6
-1.185, 1.264e-6
-1.186, 1.282e-6
-1.187, 1.269e-6
-1.188, 1.272e-6
-1.189, 1.265e-6
-1.190, 1.289e-6
-1.191, 1.305e-6
-1.192, 1.293e-6
-1.193, 1.299e-6
-1.194, 1.328e-6
-1.195, 1.330e-6
-1.196, 1.305e-6
-1.197, 1.325e-6
-1.198, 1.364e-6
-1.199, 1.320e-6
-1.200, 1.338e-6
-1.201, 1.349e-6
-1.202, 1.366e-6
-1.203, 1.361e-6
-1.204, 1.369e-6
-1.205, 1.394e-6
-1.206, 1.386e-6
-1.207, 1.384e-6
-1.208, 1.417e-6
-1.209, 1.415e-6
-1.210, 1.388e-6
-1.211, 1.407e-6
-1.212, 1.394e-6
-1.213, 1.403e-6
-1.214, 1.426e-6
-1.215, 1.417e-6
-1.216, 1.430e-6
-1.217, 1.446e-6
-1.218, 1.442e-6
-1.219, 1.447e-6
-1.220, 1.457e-6
-1.221, 1.475e-6
-1.222, 1.477e-6
-1.223, 1.490e-6
-1.224, 1.488e-6
-1.225, 1.480e-6
-1.226, 1.498e-6
-1.227, 1.470e-6
-1.228, 1.524e-6
-1.229, 1.551e-6
-1.230, 1.512e-6
-1.231, 1.525e-6
-1.232, 1.541e-6
-1.233, 1.552e-6
-1.234, 1.549e-6
-1.235, 1.558e-6
-1.236, 1.544e-6
-1.237, 1.559e-6
-1.238, 1.583e-6
-1.239, 1.563e-6
-1.240, 1.569e-6
-1.241, 1.601e-6
-1.242, 1.571e-6
-1.243, 1.619e-6
-1.244, 1.605e-6
-1.245, 1.626e-6
-1.246, 1.609e-6
-1.247, 1.615e-6
-1.248, 1.649e-6
-1.249, 1.599e-6
-1.250, 1.644e-6
-1.251, 1.658e-6
-1.252, 1.628e-6
-1.253, 1.649e-6
-1.254, 1.662e-6
-1.255, 1.659e-6
-1.256, 1.664e-6
-1.257, 1.705e-6
-1.258, 1.706e-6
-1.259, 1.657e-6
-1.260, 1.705e-6
-1.261, 1.699e-6
-1.262, 1.691e-6
-1.263, 1.727e-6
-1.264, 1.731e-6
-1.265, 1.732e-6
-1.266, 1.722e-6
-1.267, 1.739e-6
-1.268, 1.754e-6
-1.269, 1.747e-6
-1.270, 1.776e-6
-1.271, 1.773e-6
-1.272, 1.765e-6
-1.273, 1.803e-6
-1.274, 1.785e-6
-1.275, 1.810e-6
-1.276, 1.819e-6
-1.277, 1.822e-6
-1.278, 1.847e-6
-1.279, 1.817e-6
-1.280, 1.850e-6
-1.281, 1.841e-6
-1.282, 1.867e-6
-1.283, 1.865e-6
-1.284, 1.873e-6
-1.285, 1.880e-6
-1.286, 1.904e-6
-1.287, 1.905e-6
-1.288, 1.898e-6
-1.289, 1.928e-6
-1.290, 1.936e-6
-1.291, 1.915e-6
-1.292, 1.919e-6
-1.293, 1.964e-6
-1.294, 1.953e-6
-1.295, 1.969e-6
-1.296, 1.973e-6
-1.297, 1.996e-6
-1.298, 1.988e-6
-1.299, 2.000e-6
-1.300, 2.039e-6
-1.301, 2.017e-6
-1.302, 2.045e-6
-1.303, 2.063e-6
-1.304, 2.057e-6
-1.305, 2.080e-6
-1.306, 2.092e-6
-1.307, 2.100e-6
-1.308, 2.091e-6
-1.309, 2.125e-6
-1.310, 2.129e-6
-1.311, 2.111e-6
-1.312, 2.135e-6
-1.313, 2.183e-6
-1.314, 2.188e-6
-1.315, 2.169e-6
-1.316, 2.209e-6
-1.317, 2.209e-6
-1.318, 2.198e-6
-1.319, 2.235e-6
-1.320, 2.246e-6
-1.321, 2.243e-6
-1.322, 2.282e-6
-1.323, 2.293e-6
-1.324, 2.277e-6
-1.325, 2.286e-6
-1.326, 2.310e-6
-1.327, 2.334e-6
-1.328, 2.321e-6
-1.329, 2.338e-6
-1.330, 2.342e-6
-1.331, 2.372e-6
-1.332, 2.377e-6
-1.333, 2.394e-6
-1.334, 2.401e-6
-1.335, 2.433e-6
-1.336, 2.443e-6
-1.337, 2.417e-6
-1.338, 2.439e-6
-1.339, 2.458e-6
-1.340, 2.463e-6
-1.341, 2.466e-6
-1.342, 2.497e-6
-1.343, 2.508e-6
-1.344, 2.485e-6
-1.345, 2.524e-6
-1.346, 2.550e-6
-1.347, 2.541e-6
-1.348, 2.542e-6
-1.349, 2.572e-6
-1.350, 2.578e-6
-1.351, 2.576e-6
-1.352, 2.597e-6
-1.353, 2.631e-6
-1.354, 2.630e-6
-1.355, 2.653e-6
-1.356, 2.659e-6
-1.357, 2.656e-6
-1.358, 2.696e-6
-1.359, 2.691e-6
-1.360, 2.701e-6
-1.361, 2.699e-6
-1.362, 2.734e-6
-1.363, 2.720e-6
-1.364, 2.746e-6
-1.365, 2.724e-6
-1.366, 2.765e-6
-1.367, 2.777e-6
-1.368, 2.799e-6
-1.369, 2.787e-6
-1.370, 2.825e-6
-1.371, 2.796e-6
-1.372, 2.819e-6
-1.373, 2.833e-6
-1.374, 2.881e-6
-1.375, 2.879e-6
-1.376, 2.849e-6
-1.377, 2.901e-6
-1.378, 2.894e-6
-1.379, 2.882e-6
-1.380, 2.912e-6
-1.381, 2.906e-6
-1.382, 2.926e-6
-1.383, 2.941e-6
-1.384, 2.986e-6
-1.385, 2.980e-6
-1.386, 2.972e-6
-1.387, 2.996e-6
-1.388, 2.978e-6
-1.389, 3.009e-6
-1.390, 3.026e-6
-1.391, 3.029e-6
-1.392, 3.051e-6
-1.393, 3.069e-6
-1.394, 3.049e-6
-1.395, 3.073e-6
-1.396, 3.079e-6
-1.397, 3.093e-6
-1.398, 3.113e-6
-1.399, 3.118e-6
-1.400, 2.888e-6
-1.399, 2.735e-6
-1.398, 2.624e-6
-1.397, 2.552e-6
-1.396, 2.462e-6
-1.395, 2.421e-6
-1.394, 2.349e-6
-1.393, 2.288e-6
-1.392, 2.252e-6
-1.391, 2.193e-6
-1.390, 2.164e-6
-1.389, 2.112e-6
-1.388, 2.090e-6
-1.387, 2.033e-6
-1.386, 2.017e-6
-1.385, 1.980e-6
-1.384, 1.936e-6
-1.383, 1.913e-6
-1.382, 1.880e-6
-1.381, 1.830e-6
-1.380, 1.823e-6
-1.379, 1.788e-6
-1.378, 1.760e-6
-1.377, 1.749e-6
-1.376, 1.711e-6
-1.375, 1.685e-6
-1.374, 1.660e-6
-1.373, 1.665e-6
-1.372, 1.605e-6
-1.371, 1.569e-6
-1.370, 1.572e-6
-1.369, 1.517e-6
-1.368, 1.526e-6
-1.367, 1.520e-6
-1.366, 1.447e-6
-1.365, 1.466e-6
-1.364, 1.448e-6
-1.363, 1.432e-6
-1.362, 1.397e-6
-1.361, 1.375e-6
-1.360, 1.397e-6
-1.359, 1.378e-6
-1.358, 1.338e-6
-1.357, 1.305e-6
-1.356, 1.313e-6
-1.355, 1.319e-6
-1.354, 1.265e-6
-1.353, 1.248e-6
-1.352, 1.268e-6
-1.351, 1.224e-6
-1.350, 1.224e-6
-1.349, 1.206e-6
-1.348, 1.195e-6
-1.347, 1.175e-6
-1.346, 1.161e-6
-1.345, 1.141e-6
-1.344, 1.153e-6
-1.343, 1.121e-6
-1.342, 1.094e-6
-1.341, 1.120e-6
-1.340, 1.075e-6
-1.339, 1.087e-6
-1.338, 1.087e-6
-1.337, 1.053e-6
-1.336, 1.050e-6
-1.335, 1.043e-6
-1.334, 1.015e-6
-1.333, 1.022e-6
-1.332, 1.016e-6
-1.331, 9.716e-7
-1.330, 9.519e-7
-1.329, 9.785e-7
-1.328, 9.272e-7
-1.327, 9.371e-7
-1.326, 9.509e-7
-1.325, 8.996e-7
-1.324, 9.104e-7
-1.323, 8.907e-7
-1.322, 8.828e-7
-1.321, 8.621e-7
-1.320, 8.572e-7
-1.319, 8.601e-7
-1.318, 8.581e-7
-1.317, 8.345e-7
-1.316, 8.493e-7
-1.315, 8.167e-7
-1.314, 8.068e-7
-1.313, 8.157e-7
-1.312, 8.118e-7
-1.311, 7.753e-7
-1.310, 8.009e-7
-1.309, 7.348e-7
-1.308, 7.743e-7
-1.307, 7.407e-7
-1.306, 7.328e-7
-1.305, 7.200e-7
-1.304, 7.338e-7
-1.303, 7.259e-7
-1.302, 7.042e-7
-1.301, 6.875e-7
-1.300, 7.023e-7
-1.299, 7.072e-7
-1.298, 6.806e-7
-1.297, 6.539e-7
-1.296, 6.924e-7
-1.295, 6.904e-7
-1.294, 6.569e-7
-1.293, 6.598e-7
-1.292, 6.421e-7
-1.291, 6.342e-7
-1.290, 6.470e-7
-1.289, 6.371e-7
-1.288, 6.342e-7
-1.287, 5.957e-7
-1.286, 6.204e-7
-1.285, 6.066e-7
-1.284, 5.858e-7
-1.283, 5.997e-7
-1.282, 5.977e-7
-1.281, 5.937e-7
-1.280, 5.651e-7
-1.279, 5.750e-7
-1.278, 5.691e-7
-1.277, 5.276e-7
-1.276, 5.582e-7
-1.275, 5.424e-7
-1.274, 5.464e-7
-1.273, 5.247e-7
-1.272, 5.128e-7
-1.271, 5.099e-7
-1.270, 5.405e-7
-1.269, 5.188e-7
-1.268, 4.990e-7
-1.267, 4.901e-7
-1.266, 5.040e-7
-1.265, 4.892e-7
-1.264, 5.000e-7
-1.263, 4.892e-7
-1.262, 4.438e-7
-1.261, 4.882e-7
-1.260, 4.625e-7
-1.259, 4.300e-7
-1.258, 4.566e-7
-1.257, 4.359e-7
-1.256, 4.507e-7
-1.255, 4.290e-7
-1.254, 4.152e-7
-1.253, 4.438e-7
-1.252, 4.280e-7
-1.251, 4.329e-7
-1.250, 4.132e-7
-1.249, 4.309e-7
-1.248, 3.984e-7
-1.247, 3.944e-7
-1.246, 4.013e-7
-1.245, 3.984e-7
-1.244, 3.767e-7
-1.243, 3.925e-7
-1.242, 3.846e-7
-1.241, 3.698e-7
-1.240, 3.520e-7
-1.239, 3.619e-7
-1.238, 3.560e-7
-1.237, 3.352e-7
-1.236, 3.530e-7
-1.235, 3.658e-7
-1.234, 3.234e-7
-1.233, 3.500e-7
-1.232, 3.283e-7
-1.231, 3.471e-7
-1.230, 3.283e-7
-1.229, 3.204e-7
-1.228, 3.135e-7
-1.227, 3.056e-7
-1.226, 3.126e-7
-1.225, 2.879e-7
-1.224, 2.968e-7
-1.223, 3.145e-7
-1.222, 2.780e-7
-1.221, 3.007e-7
-1.220, 3.017e-7
-1.219, 2.968e-7
-1.218, 2.731e-7
-1.217, 3.106e-7
-1.216, 2.632e-7
-1.215, 2.622e-7
-1.214, 2.682e-7
-1.213, 2.682e-7
-1.212, 2.435e-7
-1.211, 2.662e-7
-1.210, 2.494e-7
-1.209, 2.317e-7
-1.208, 2.662e-7
-1.207, 2.553e-7
-1.206, 2.228e-7
-1.205, 2.583e-7
-1.204, 2.593e-7
-1.203, 2.218e-7
-1.202, 2.317e-7
-1.201, 2.494e-7
-1.200, 2.149e-7
-1.199, 2.514e-7
-1.198, 2.198e-7
-1.197, 2.169e-7
-1.196, 2.178e-7
-1.195, 2.257e-7
-1.194, 1.961e-7
-1.193, 2.050e-7
-1.192, 1.951e-7
-1.191, 1.942e-7
-1.190, 1.606e-7
-1.189, 1.981e-7
-1.188, 1.902e-7
-1.187, 1.626e-7
-1.186, 1.744e-7
-1.185, 1.892e-7
-1.184, 1.794e-7
-1.183, 1.823e-7
-1.182, 1.715e-7
-1.181, 1.508e-7
-1.180, 1.892e-7
-1.179, 1.715e-7
-1.178, 1.537e-7
-1.177, 1.379e-7
-1.176, 1.478e-7
-1.175, 1.379e-7
-1.174, 1.508e-7
-1.173, 1.616e-7
-1.172, 1.389e-7
-1.171, 1.369e-7
-1.170, 1.517e-7
-1.169, 1.172e-7
-1.168, 1.350e-7
-1.167, 1.350e-7
-1.166, 1.241e-7
-1.165, 1.044e-7
-1.164, 9.156e-8
-1.163, 1.064e-7
-1.162, 1.133e-7
-1.161, 1.034e-7
-1.160, 1.093e-7
-1.159, 8.761e-8
-1.158, 1.113e-7
-1.157, 9.156e-8
-1.156, 9.353e-8
-1.155, 7.380e-8
-1.154, 8.662e-8
-1.153, 7.182e-8
-1.152, 9.254e-8
-1.151, 7.676e-8
-1.150, 8.761e-8
-1.149, 6.590e-8
-1.148, 7.182e-8
-1.147, 5.308e-8
-1.146, 5.604e-8
-1.145, 6.886e-8
-1.144, 4.617e-8
-1.143, 6.886e-8
-1.142, 4.913e-8
-1.141, 2.644e-8
-1.140, 6.689e-8
-1.139, 4.617e-8
-1.138, 2.447e-8
-1.137, 3.927e-8
-1.136, 1.460e-8
-1.135, 3.729e-8
-1.134, 6.196e-8
-1.133, 5.801e-8
-1.132, 1.953e-8
-1.131, 1.362e-8
-1.130, 2.743e-8
-1.129, 1.263e-8
-1.128, 1.953e-8
-1.127, 1.164e-8
-1.126, -1.796e-8
-1.125, -1.993e-8
-1.124, 8.682e-9
-1.123, 2.762e-9
-1.122, -2.388e-8
-1.121, -1.973e-10
-1.120, -9.077e-9
-1.119, -1.993e-8
-1.118, -6.117e-9
-1.117, -2.980e-8
-1.116, -4.065e-8
-1.115, -2.486e-8
-1.114, -3.769e-8
-1.113, -6.038e-8
-1.112, -4.361e-8
-1.111, -3.078e-8
-1.110, -3.571e-8
-1.109, -5.347e-8
-1.108, -2.190e-8
-1.107, -6.630e-8
-1.106, -5.051e-8
-1.105, -6.334e-8
-1.104, -4.262e-8
-1.103, -8.702e-8
-1.102, -8.702e-8
-1.101, -6.926e-8
-1.100, -9.787e-8
-1.099, -9.984e-8
-1.098, -7.123e-8
-1.097, -7.715e-8
-1.096, -1.038e-7
-1.095, -7.321e-8
-1.094, -1.107e-7
-1.093, -1.048e-7
-1.092, -1.008e-7
-1.091, -1.058e-7
-1.090, -1.294e-7
-1.089, -1.275e-7
-1.088, -1.077e-7
-1.087, -1.294e-7
-1.086, -1.137e-7
-1.085, -1.137e-7
-1.084, -1.156e-7
-1.083, -1.344e-7
-1.082, -1.067e-7
-1.081, -1.393e-7
-1.080, -1.344e-7
-1.079, -1.482e-7
-1.078, -1.314e-7
-1.077, -1.452e-7
-1.076, -1.541e-7
-1.075, -1.541e-7
-1.074, -1.798e-7
-1.073, -1.541e-7
-1.072, -1.630e-7
-1.071, -1.867e-7
-1.070, -1.877e-7
-1.069, -1.482e-7
-1.068, -1.620e-7
-1.067, -1.847e-7
-1.066, -1.738e-7
-1.065, -1.975e-7
-1.064, -1.827e-7
-1.063, -1.867e-7
-1.062, -1.946e-7
-1.061, -2.015e-7
-1.060, -2.015e-7
-1.059, -2.153e-7
-1.058, -2.133e-7
-1.057, -1.906e-7
-1.056, -2.153e-7
-1.055, -2.034e-7
-1.054, -2.242e-7
-1.053, -2.172e-7
-1.052, -2.232e-7
-1.051, -2.182e-7
-1.050, -2.380e-7
-1.049, -2.557e-7
-1.048, -2.518e-7
-1.047, -2.380e-7
-1.046, -2.419e-7
-1.045, -2.952e-7
-1.044, -2.646e-7
-1.043, -2.725e-7
-1.042, -2.567e-7
-1.041, -2.616e-7
-1.040, -2.755e-7
-1.039, -2.616e-7
-1.038, -2.843e-7
-1.037, -2.853e-7
-1.036, -3.110e-7
-1.035, -3.031e-7
-1.034, -3.110e-7
-1.033, -2.903e-7
-1.032, -3.031e-7
-1.031, -3.060e-7
-1.030, -3.159e-7
-1.029, -3.159e-7
-1.028, -3.208e-7
-1.027, -3.060e-7
-1.026, -3.287e-7
-1.025, -3.347e-7
-1.024, -3.435e-7
-1.023, -3.485e-7
-1.022, -3.396e-7
-1.021, -3.386e-7
-1.020, -3.504e-7
-1.019, -3.307e-7
-1.018, -3.603e-7
-1.017, -3.603e-7
-1.016, -3.633e-7
-1.015, -3.564e-7
-1.014, -3.583e-7
-1.013, -3.978e-7
-1.012, -3.800e-7
-1.011, -3.860e-7
-1.010, -3.978e-7
-1.009, -3.790e-7
-1.008, -3.860e-7
-1.007, -3.850e-7
-1.006, -4.175e-7
-1.005, -4.086e-7
-1.004, -4.156e-7
-1.003, -4.392e-7
-1.002, -4.313e-7
-1.001, -4.234e-7
-1.000, -3.149e-7
-1.001, -2.419e-7
-1.002, -1.847e-7
-1.003, -1.610e-7
-1.004, -1.373e-7
-1.005, -9.886e-8
-1.006, -8.208e-8
-1.007, -7.617e-8
-1.008, -3.275e-8
-1.009, -3.571e-8
-1.010, -1.105e-8
-1.011, 1.657e-8
-1.012, 3.039e-8
-1.013, 3.729e-8
-1.014, 3.729e-8
-1.015, 9.452e-8
-1.016, 7.774e-8
-1.017, 6.788e-8
-1.018, 1.083e-7
-1.019, 1.320e-7
-1.020, 1.192e-7
-1.021, 1.527e-7
-1.022, 1.803e-7
-1.023, 1.527e-7
-1.024, 1.705e-7
-1.025, 2.109e-7
-1.026, 2.405e-7
-1.027, 2.070e-7
-1.028, 2.228e-7
-1.029, 2.366e-7
-1.030, 2.563e-7
-1.031, 2.632e-7
-1.032, 2.908e-7
-1.033, 2.652e-7
-1.034, 2.839e-7
-1.035, 2.978e-7
-1.036, 3.076e-7
-1.037, 2.879e-7
-1.038, 3.244e-7
-1.039, 3.352e-7
-1.040, 3.323e-7
-1.041, 3.757e-7
-1.042, 3.619e-7
-1.043, 3.796e-7
-1.044, 3.658e-7
-1.045, 3.806e-7
-1.046, 3.935e-7
-1.047, 3.974e-7
-1.048, 3.984e-7
-1.049, 4.013e-7
-1.050, 4.448e-7
-1.051, 4.221e-7
-1.052, 4.260e-7
-1.053, 4.428e-7
-1.054, 4.714e-7
-1.055, 4.497e-7
-1.056, 4.507e-7
-1.057, 4.605e-7
-1.058, 4.655e-7
-1.059, 4.970e-7
-1.060, 5.020e-7
-1.061, 4.704e-7
-1.062, 5.197e-7
-1.063, 5.099e-7
-1.064, 5.089e-7
-1.065, 5.227e-7
-1.066, 5.168e-7
-1.067, 5.434e-7
-1.068, 5.513e-7
-1.069, 5.671e-7
-1.070, 5.720e-7
-1.071, 5.572e-7
-1.072, 5.572e-7
-1.073, 5.740e-7
-1.074, 5.809e-7
-1.075, 6.026e-7
-1.076, 6.164e-7
-1.077, 5.927e-7
-1.078, 6.066e-7
-1.079, 6.342e-7
-1.080, 6.204e-7
-1.081, 6.381e-7
-1.082, 6.628e-7
-1.083, 6.549e-7
-1.084, 6.431e-7
-1.085, 6.677e-7
-1.086, 6.736e-7
-1.087, 6.658e-7
-1.088, 6.973e-7
-1.089, 6.786e-7
-1.090, 6.835e-7
-1.091, 6.855e-7
-1.092, 6.608e-7
-1.093, 7.082e-7
-1.094, 7.032e-7
-1.095, 7.052e-7
-1.096, 7.190e-7
-1.097, 7.358e-7
-1.098, 7.259e-7
-1.099, 7.062e-7
-1.100, 7.526e-7
-1.101, 7.545e-7
-1.102, 7.427e-7
-1.103, 7.615e-7
-1.104, 7.743e-7
-1.105, 7.565e-7
-1.106, 7.792e-7
-1.107, 7.841e-7
-1.108, 7.861e-7
-1.109, 7.812e-7
-1.110, 8.088e-7
-1.111, 8.128e-7
-1.112, 7.713e-7
-1.113, 8.157e-7
-1.114, 8.177e-7
-1.115, 8.147e-7
-1.116, 8.315e-7
-1.117, 8.335e-7
-1.118, 8.354e-7
-1.119, 8.305e-7
-1.120, 8.611e-7
-1.121, 8.463e-7
-1.122, 8.443e-7
-1.123, 8.690e-7
-1.124, 8.660e-7
-1.125, 8.433e-7
-1.126, 8.798e-7
-1.127, 8.779e-7
-1.128, 8.581e-7
-1.129, 8.927e-7
-1.130, 8.946e-7
-1.131, 8.956e-7
-1.132, 9.292e-7
-1.133, 9.094e-7
-1.134, 9.154e-7
-1.135, 9.173e-7
-1.136, 9.361e-7
-1.137, 9.213e-7
-1.138, 8.996e-7
-1.139, 9.331e-7
-1.140, 9.450e-7
-1.141, 9.075e-7
-1.142, 9.588e-7
-1.143, 9.469e-7
-1.144, 9.203e-7
-1.145, 9.548e-7
-1.146, 9.903e-7
-1.147, 9.815e-7
-1.148, 9.519e-7
-1.149, 9.755e-7
-1.150, 9.607e-7
-1.151, 9.884e-7
-1.152, 9.923e-7
-1.153, 9.923e-7
-1.154, 9.982e-7
-1.155, 1.015e-6
-1.156, 1.016e-6
-1.157, 1.001e-6
-1.158, 1.030e-6
-1.159, 1.062e-6
-1.160, 1.029e-6
-1.161, 1.039e-6
-1.162, 1.052e-6
-1.163, 1.039e-6
-1.164, 1.036e-6
-1.165, 1.036e-6
-1.166, 1.040e-6
-1.167, 1.058e-6
-1.168, 1.052e-6
-1.169, 1.083e-6
-1.170, 1.053e-6
-1.171, 1.097e-6
-1.172, 1.091e-6
-1.173, 1.086e-6
-1.174, 1.101e-6
-1.175, 1.094e-6
-1.176, 1.082e-6
-1.177, 1.106e-6
-1.178, 1.124e-6
-1.179, 1.122e-6
-1.180, 1.111e-6
-1.181, 1.144e-6
-1.182, 1.146e-6
-1.183, 1.132e-6
-1.184, 1.142e-6
-1.185, 1.148e-6
-1.186, 1.112e-6
-1.187, 1.172e-6
-1.188, 1.155e-6
-1.189, 1.162e-6
-1.190, 1.159e-6
-1.191, 1.168e-6
-1.192, 1.193e-6
-1.193, 1.159e-6
-1.194, 1.206e-6
-1.195, 1.183e-6
-1.196, 1.177e-6
-1.197, 1.213e-6
-1.198, 1.203e-6
-1.199, 1.217e-6
-1.200, 1.201e-6
-1.201, 1.237e-6
-1.202, 1.210e-6
-1.203, 1.232e-6
-1.204, 1.256e-6
-1.205, 1.244e-6
-1.206, 1.238e-6
-1.207, 1.265e-6
-1.208, 1.253e-6
-1.209, 1.265e-6
-1.210, 1.263e-6
-1.211, 1.272e-6
-1.212, 1.249e-6
-1.213, 1.281e-6
-1.214, 1.278e-6
-1.215, 1.291e-6
-1.216, 1.304e-6
-1.217, 1.304e-6
-1.218, 1.311e-6
-1.219, 1.293e-6
-1.220, 1.305e-6
-1.221, 1.297e-6
-1.222, 1.328e-6
-1.223, 1.334e-6
-1.224, 1.315e-6
-1.225, 1.329e-6
-1.226, 1.341e-6
-1.227, 1.347e-6
-1.228, 1.326e-6
-1.229, 1.356e-6
-1.230, 1.376e-6
-1.231, 1.391e-6
-1.232, 1.370e-6
-1.233, 1.356e-6
-1.234, 1.393e-6
-1.235, 1.391e-6
-1.236, 1.431e-6
-1.237, 1.385e-6
-1.238, 1.397e-6
-1.239, 1.417e-6
-1.240, 1.415e-6
-1.241, 1.416e-6
-1.242, 1.426e-6
-1.243, 1.419e-6
-1.244, 1.407e-6
-1.245, 1.444e-6
-1.246, 1.434e-6
-1.247, 1.432e-6
-1.248, 1.472e-6
-1.249, 1.471e-6
-1.250, 1.455e-6
-1.251, 1.475e-6
-1.252, 1.478e-6
-1.253, 1.477e-6
-1.254, 1.469e-6
-1.255, 1.490e-6
-1.256, 1.497e-6
-1.257, 1.497e-6
-1.258, 1.500e-6
-1.259, 1.533e-6
-1.260, 1.490e-6
-1.261, 1.528e-6
-1.262, 1.514e-6
-1.263, 1.519e-6
-1.264, 1.519e-6
-1.265, 1.524e-6
-1.266, 1.546e-6
-1.267, 1.541e-6
-1.268, 1.565e-6
-1.269, 1.578e-6
-1.270, 1.566e-6
-1.271, 1.588e-6
-1.272, 1.589e-6
-1.273, 1.558e-6
-1.274, 1.601e-6
-1.275, 1.625e-6
-1.276, 1.573e-6
-1.277, 1.592e-6
-1.278, 1.636e-6
-1.279, 1.628e-6
-1.280, 1.641e-6
-1.281, 1.656e-6
-1.282, 1.659e-6
-1.283, 1.652e-6
-1.284, 1.661e-6
-1.285, 1.692e-6
-1.286, 1.661e-6
-1.287, 1.662e-6
-1.288, 1.691e-6
-1.289, 1.671e-6
-1.290, 1.705e-6
-1.291, 1.729e-6
-1.292, 1.702e-6
-1.293, 1.735e-6
-1.294, 1.753e-6
-1.295, 1.726e-6
-1.296, 1.703e-6
-1.297, 1.768e-6
-1.298, 1.743e-6
-1.299, 1.730e-6
-1.300, 1.755e-6
-1.301, 1.759e-6
-1.302, 1.763e-6
-1.303, 1.785e-6
-1.304, 1.811e-6
-1.305, 1.790e-6
-1.306, 1.836e-6
-1.307, 1.838e-6
-1.308, 1.820e-6
-1.309, 1.806e-6
-1.310, 1.862e-6
-1.311, 1.840e-6
-1.312, 1.854e-6
-1.313, 1.848e-6
-1.314, 1.869e-6
-1.315, 1.876e-6
-1.316, 1.900e-6
-1.317, 1.882e-6
-1.318, 1.902e-6
-1.319, 1.911e-6
-1.320, 1.918e-6
-1.321, 1.917e-6
-1.322, 1.920e-6
-1.323, 1.960e-6
-1.324, 1.936e-6
-1.325, 1.963e-6
-1.326, 1.972e-6
-1.327, 1.942e-6
-1.328, 1.992e-6
-1.329, 1.987e-6
-1.330, 1.984e-6
-1.331, 2.000e-6
-1.332, 2.025e-6
-1.333, 2.004e-6
-1.334, 2.022e-6
-1.335, 2.033e-6
-1.336, 2.036e-6
-1.337, 2.044e-6
-1.338, 2.058e-6
-1.339, 2.065e-6
-1.340, 2.070e-6
-1.341, 2.090e-6
-1.342, 2.100e-6
-1.343, 2.081e-6
-1.344, 2.104e-6
-1.345, 2.094e-6
-1.346, 2.118e-6
-1.347, 2.124e-6
-1.348, 2.128e-6
-1.349, 2.149e-6
-1.350, 2.171e-6
-1.351, 2.152e-6
-1.352, 2.186e-6
-1.353, 2.189e-6
-1.354, 2.199e-6
-1.355, 2.198e-6
-1.356, 2.218e-6
-1.357, 2.205e-6
-1.358, 2.224e-6
-1.359, 2.238e-6
-1.360, 2.218e-6
-1.361, 2.255e-6
-1.362, 2.250e-6
-1.363, 2.262e-6
-1.364, 2.269e-6
-1.365, 2.298e-6
-1.366, 2.304e-6
-1.367, 2.289e-6
-1.368, 2.292e-6
-1.369, 2.305e-6
-1.370, 2.325e-6
-1.371, 2.340e-6
-1.372, 2.315e-6
-1.373, 2.350e-6
-1.374, 2.355e-6
-1.375, 2.355e-6
-1.376, 2.378e-6
-1.377, 2.382e-6
-1.378, 2.369e-6
-1.379, 2.380e-6
-1.380, 2.404e-6
-1.381, 2.392e-6
-1.382, 2.406e-6
-1.383, 2.471e-6
-1.384, 2.418e-6
-1.385, 2.440e-6
-1.386, 2.466e-6
-1.387, 2.440e-6
-1.388, 2.479e-6
-1.389, 2.509e-6
-1.390, 2.487e-6
-1.391, 2.505e-6
-1.392, 2.518e-6
-1.393, 2.503e-6
-1.394, 2.524e-6
-1.395, 2.534e-6
-1.396, 2.540e-6
-1.397, 2.562e-6
-1.398, 2.568e-6
-1.399, 2.589e-6
-1.400, 2.360e-6
-1.399, 2.210e-6
-1.398, 2.111e-6
-1.397, 2.054e-6
-1.396, 2.009e-6
-1.395, 1.947e-6
-1.394, 1.903e-6
-1.393, 1.850e-6
-1.392, 1.784e-6
-1.391, 1.758e-6
-1.390, 1.758e-6
-1.389, 1.689e-6
-1.388, 1.679e-6
-1.387, 1.652e-6
-1.386, 1.608e-6
-1.385, 1.599e-6
-1.384, 1.563e-6
-1.383, 1.543e-6
-1.382, 1.540e-6
-1.381, 1.494e-6
-1.380, 1.461e-6
-1.379, 1.442e-6
-1.378, 1.439e-6
-1.377, 1.396e-6
-1.376, 1.381e-6
-1.375, 1.372e-6
-1.374, 1.327e-6
-1.373, 1.319e-6
-1.372, 1.333e-6
-1.371, 1.271e-6
-1.370, 1.263e-6
-1.369, 1.271e-6
-1.368, 1.231e-6
-1.367, 1.228e-6
-1.366, 1.224e-6
-1.365, 1.206e-6
-1.364, 1.192e-6
-1.363, 1.157e-6
-1.362, 1.148e-6
-1.361, 1.154e-6
-1.360, 1.138e-6
-1.359, 1.097e-6
-1.358, 1.099e-6
-1.357, 1.077e-6
-1.356, 1.030e-6
-1.355, 1.065e-6
-1.354, 1.040e-6
-1.353, 1.012e-6
-1.352, 1.012e-6
-1.351, 1.011e-6
-1.350, 9.854e-7
-1.349, 1.010e-6
-1.348, 9.637e-7
-1.347, 9.578e-7
-1.346, 9.913e-7
-1.345, 9.519e-7
-1.344, 9.331e-7
-1.343, 9.213e-7
-1.342, 8.986e-7
-1.341, 8.729e-7
-1.340, 9.016e-7
-1.339, 8.779e-7
-1.338, 8.502e-7
-1.337, 8.581e-7
-1.336, 8.266e-7
-1.335, 8.335e-7
-1.334, 8.384e-7
-1.333, 8.206e-7
-1.332, 8.108e-7
-1.331, 7.980e-7
-1.330, 8.118e-7
-1.329, 7.565e-7
-1.328, 7.644e-7
-1.327, 7.970e-7
-1.326, 7.654e-7
-1.325, 7.467e-7
-1.324, 7.516e-7
-1.323, 7.190e-7
-1.322, 7.279e-7
-1.321, 7.111e-7
-1.320, 7.299e-7
-1.319, 7.131e-7
-1.318, 6.914e-7
-1.317, 6.736e-7
-1.316, 6.815e-7
-1.315, 6.736e-7
-1.314, 6.796e-7
-1.313, 6.549e-7
-1.312, 6.697e-7
-1.311, 6.263e-7
-1.310, 6.322e-7
-1.309, 6.450e-7
-1.308, 6.184e-7
-1.307, 6.204e-7
-1.306, 5.957e-7
-1.305, 5.987e-7
-1.304, 6.016e-7
-1.303, 6.026e-7
-1.302, 5.878e-7
-1.301, 5.760e-7
-1.300, 5.661e-7
-1.299, 5.602e-7
-1.298, 5.533e-7
-1.297, 5.829e-7
-1.296, 5.286e-7
-1.295, 5.365e-7
-1.294, 5.483e-7
-1.293, 5.079e-7
-1.292, 5.543e-7
-1.291, 5.257e-7
-1.290, 5.109e-7
-1.289, 5.040e-7
-1.288, 5.158e-7
-1.287, 5.089e-7
-1.286, 4.803e-7
-1.285, 5.030e-7
-1.284, 5.010e-7
-1.283, 4.625e-7
-1.282, 4.645e-7
-1.281, 4.625e-7
-1.280, 4.684e-7
-1.279, 4.793e-7
-1.278, 4.369e-7
-1.277, 4.260e-7
-1.276, 4.388e-7
-1.275, 4.388e-7
-1.274, 4.171e-7
-1.273, 4.221e-7
-1.272, 4.457e-7
-1.271, 4.043e-7
-1.270, 4.388e-7
-1.269, 4.300e-7
-1.268, 3.974e-7
-1.267, 3.915e-7
-1.266, 3.974e-7
-1.265, 4.152e-7
-1.264, 4.063e-7
-1.263, 3.836e-7
-1.262, 3.668e-7
-1.261, 3.570e-7
-1.260, 3.589e-7
-1.259, 3.648e-7
-1.258, 3.619e-7
-1.257, 3.609e-7
-1.256, 3.451e-7
-1.255, 3.372e-7
-1.254, 3.481e-7
-1.253, 3.471e-7
-1.252, 3.343e-7
-1.251, 3.076e-7
-1.250, 3.274e-7
-1.249, 3.362e-7
-1.248, 3.037e-7
-1.247, 3.195e-7
-1.246, 3.274e-7
-1.245, 3.145e-7
-1.244, 2.760e-7
-1.243, 3.264e-7
-1.242, 3.056e-7
-1.241, 2.879e-7
-1.240, 2.918e-7
-1.239, 2.760e-7
-1.238, 2.534e-7
-1.237, 2.613e-7
-1.236, 2.928e-7
-1.235, 2.760e-7
-1.234, 2.839e-7
-1.233, 2.494e-7
-1.232, 2.425e-7
-1.231, 2.622e-7
-1.230, 2.721e-7
-1.229, 2.228e-7
-1.228, 2.228e-7
-1.227, 2.178e-7
-1.226, 2.001e-7
-1.225, 2.159e-7
-1.224, 2.021e-7
-1.223, 2.307e-7
-1.222, 2.188e-7
-1.221, 2.090e-7
-1.220, 2.257e-7
-1.219, 2.090e-7
-1.218, 1.981e-7
-1.217, 2.149e-7
-1.216, 1.882e-7
-1.215, 1.902e-7
-1.214, 1.656e-7
-1.213, 1.764e-7
-1.212, 1.646e-7
-1.211, 2.090e-7
-1.210, 1.764e-7
-1.209, 1.478e-7
-1.208, 1.774e-7
-1.207, 1.705e-7
-1.206, 1.547e-7
-1.205, 1.567e-7
-1.204, 1.320e-7
-1.203, 1.547e-7
-1.202, 1.606e-7
-1.201, 1.133e-7
-1.200, 1.508e-7
-1.199, 1.290e-7
-1.198, 1.162e-7
-1.197, 1.399e-7
-1.196, 1.152e-7
-1.195, 1.202e-7
-1.194, 1.409e-7
-1.193, 9.156e-8
-1.192, 1.133e-7
-1.191, 1.133e-7
-1.190, 1.212e-7
-1.189, 1.162e-7
-1.188, 1.103e-7
-1.187, 8.465e-8
-1.186, 9.748e-8
-1.185, 7.084e-8
-1.184, 4.617e-8
-1.183, 8.465e-8
-1.182, 7.774e-8
-1.181, 8.958e-8
-1.180, 9.156e-8
-1.179, 5.703e-8
-1.178, 5.900e-8
-1.177, 9.452e-8
-1.176, 4.617e-8
-1.175, 7.084e-8
-1.174, 5.801e-8
-1.173, 5.209e-8
-1.172, 7.577e-8
-1.171, 4.617e-8
-1.170, 5.604e-8
-1.169, 5.407e-8
-1.168, 5.012e-8
-1.167, 4.124e-8
-1.166, 6.097e-8
-1.165, 2.940e-8
-1.164, 4.519e-8
-1.163, 3.433e-8
-1.162, 4.736e-9
-1.161, 1.559e-8
-1.160, 3.828e-8
-1.159, 2.151e-8
-1.158, 3.335e-8
-1.157, 3.433e-8
-1.156, 3.137e-8
-1.155, 5.722e-9
-1.154, -6.117e-9
-1.153, 1.756e-8
-1.152, 1.776e-9
-1.151, -1.796e-8
-1.150, 4.736e-9
-1.149, -3.571e-8
-1.148, -2.486e-8
-1.147, 7.893e-10
-1.146, -1.598e-8
-1.145, -9.077e-9
-1.144, -2.171e-9
-1.143, -3.769e-8
-1.142, -2.585e-8
-1.141, -4.163e-8
-1.140, -9.077e-9
-1.139, -4.953e-8
-1.138, -5.347e-8
-1.137, -6.729e-8
-1.136, -4.657e-8
-1.135, -4.755e-8
-1.134, -5.446e-8
-1.133, -5.150e-8
-1.132, -7.123e-8
-1.131, -5.051e-8
-1.130, -8.011e-8
-1.129, -9.886e-8
-1.128, -5.150e-8
-1.127, -7.025e-8
-1.126, -7.419e-8
-1.125, -5.051e-8
-1.124, -1.146e-7
-1.123, -5.742e-8
-1.122, -6.630e-8
-1.121, -8.899e-8
-1.120, -8.702e-8
-1.119, -1.117e-7
-1.118, -1.067e-7
-1.117, -8.603e-8
-1.116, -9.491e-8
-1.115, -8.110e-8
-1.114, -1.156e-7
-1.113, -1.255e-7
-1.112, -9.688e-8
-1.111, -1.551e-7
-1.110, -1.137e-7
-1.109, -1.215e-7
-1.108, -9.984e-8
-1.107, -1.265e-7
-1.106, -1.215e-7
-1.105, -1.235e-7
-1.104, -1.245e-7
-1.103, -1.324e-7
-1.102, -1.235e-7
-1.101, -1.314e-7
-1.100, -1.472e-7
-1.099, -1.334e-7
-1.098, -1.304e-7
-1.097, -1.650e-7
-1.096, -1.452e-7
-1.095, -1.363e-7
-1.094, -1.699e-7
-1.093, -1.521e-7
-1.092, -1.561e-7
-1.091, -1.748e-7
-1.090, -1.650e-7
-1.089, -1.985e-7
-1.088, -1.659e-7
-1.087, -2.084e-7
-1.086, -2.074e-7
-1.085, -1.738e-7
-1.084, -1.837e-7
-1.083, -1.798e-7
-1.082, -1.640e-7
-1.081, -2.380e-7
-1.080, -1.778e-7
-1.079, -1.906e-7
-1.078, -1.946e-7
-1.077, -2.163e-7
-1.076, -2.024e-7
-1.075, -2.202e-7
-1.074, -2.468e-7
-1.073, -2.212e-7
-1.072, -2.459e-7
-1.071, -2.222e-7
-1.070, -2.557e-7
-1.069, -2.340e-7
-1.068, -2.478e-7
-1.067, -2.518e-7
-1.066, -2.459e-7
-1.065, -2.409e-7
-1.064, -2.745e-7
-1.063, -2.656e-7
-1.062, -2.557e-7
-1.061, -2.764e-7
-1.060, -2.261e-7
-1.059, -2.636e-7
-1.058, -2.755e-7
-1.057, -2.616e-7
-1.056, -2.972e-7
-1.055, -2.587e-7
-1.054, -2.804e-7
-1.053, -2.952e-7
-1.052, -2.755e-7
-1.051, -3.199e-7
-1.050, -2.912e-7
-1.049, -3.021e-7
-1.048, -3.238e-7
-1.047, -3.080e-7
-1.046, -3.051e-7
-1.045, -3.149e-7
-1.044, -2.981e-7
-1.043, -3.406e-7
-1.042, -3.317e-7
-1.041, -3.307e-7
-1.040, -3.218e-7
-1.039, -3.485e-7
-1.038, -3.169e-7
-1.037, -3.652e-7
-1.036, -3.248e-7
-1.035, -3.396e-7
-1.034, -3.761e-7
-1.033, -3.327e-7
-1.032, -3.386e-7
-1.031, -3.672e-7
-1.030, -3.652e-7
-1.029, -3.731e-7
-1.028, -3.712e-7
-1.027, -3.850e-7
-1.026, -3.761e-7
-1.025, -3.800e-7
-1.024, -3.948e-7
-1.023, -3.968e-7
-1.022, -3.899e-7
-1.021, -4.195e-7
-1.020, -3.840e-7
-1.019, -3.938e-7
-1.018, -4.027e-7
-1.017, -4.185e-7
-1.016, -4.077e-7
-1.015, -4.392e-7
-1.014, -4.126e-7
-1.013, -4.017e-7
-1.012, -4.580e-7
-1.011, -4.402e-7
-1.010, -4.422e-7
-1.009, -4.491e-7
-1.008, -4.511e-7
-1.007, -4.738e-7
-1.006, -4.540e-7
-1.005, -4.580e-7
-1.004, -4.777e-7
-1.003, -4.619e-7
-1.002, -4.629e-7
-1.001, -4.905e-7
