Sept. 19, 2024   01:08:35
Linear Sweep Voltammetry
File: c:/users/guazh/data/20240903_batch_252_500/2024-09-03-exp392\1acid_2ac-2024-09-19t01_05_24-lsvinphos\1acid_2ac_lsv_50mvs_efin_-2300mv.bin
Data Source:  Experiment
Instrument Model:  CHI760E
Header: LSV ran at 50 mVs with Efin at -2300mV
Note: 

Init E (V) = -0.6
Final E (V) = -2.3
Scan Rate (V/s) = 0.05
Sample Interval (V) = 0.001
Quiet Time (sec) = 2
Sensitivity (A/V) = 1e-4
Comp R (ohm) = 11.5

Results:

Channel 1:
Ep = -1.916V
ip = 8.201e-4A
Ah = 1.312e-3C

Potential/V, Current/A

-0.600, 3.031e-6
-0.601, 3.115e-6
-0.602, 3.156e-6
-0.603, 3.191e-6
-0.604, 3.224e-6
-0.605, 3.254e-6
-0.606, 3.282e-6
-0.607, 3.313e-6
-0.608, 3.342e-6
-0.609, 3.376e-6
-0.610, 3.407e-6
-0.611, 3.437e-6
-0.612, 3.469e-6
-0.613, 3.496e-6
-0.614, 3.527e-6
-0.615, 3.558e-6
-0.616, 3.587e-6
-0.617, 3.621e-6
-0.618, 3.651e-6
-0.619, 3.680e-6
-0.620, 3.713e-6
-0.621, 3.743e-6
-0.622, 3.773e-6
-0.623, 3.805e-6
-0.624, 3.840e-6
-0.625, 3.876e-6
-0.626, 3.900e-6
-0.627, 3.933e-6
-0.628, 3.963e-6
-0.629, 3.998e-6
-0.630, 4.032e-6
-0.631, 4.061e-6
-0.632, 4.095e-6
-0.633, 4.137e-6
-0.634, 4.174e-6
-0.635, 4.199e-6
-0.636, 4.223e-6
-0.637, 4.249e-6
-0.638, 4.283e-6
-0.639, 4.316e-6
-0.640, 4.346e-6
-0.641, 4.378e-6
-0.642, 4.410e-6
-0.643, 4.444e-6
-0.644, 4.476e-6
-0.645, 4.510e-6
-0.646, 4.543e-6
-0.647, 4.577e-6
-0.648, 4.609e-6
-0.649, 4.643e-6
-0.650, 4.676e-6
-0.651, 4.709e-6
-0.652, 4.742e-6
-0.653, 4.778e-6
-0.654, 4.812e-6
-0.655, 4.842e-6
-0.656, 4.874e-6
-0.657, 4.907e-6
-0.658, 4.939e-6
-0.659, 4.974e-6
-0.660, 5.007e-6
-0.661, 5.038e-6
-0.662, 5.074e-6
-0.663, 5.106e-6
-0.664, 5.138e-6
-0.665, 5.174e-6
-0.666, 5.210e-6
-0.667, 5.241e-6
-0.668, 5.274e-6
-0.669, 5.305e-6
-0.670, 5.338e-6
-0.671, 5.370e-6
-0.672, 5.403e-6
-0.673, 5.434e-6
-0.674, 5.467e-6
-0.675, 5.501e-6
-0.676, 5.533e-6
-0.677, 5.564e-6
-0.678, 5.597e-6
-0.679, 5.629e-6
-0.680, 5.660e-6
-0.681, 5.691e-6
-0.682, 5.727e-6
-0.683, 5.758e-6
-0.684, 5.792e-6
-0.685, 5.828e-6
-0.686, 5.858e-6
-0.687, 5.890e-6
-0.688, 5.920e-6
-0.689, 5.950e-6
-0.690, 5.980e-6
-0.691, 6.009e-6
-0.692, 6.041e-6
-0.693, 6.069e-6
-0.694, 6.099e-6
-0.695, 6.127e-6
-0.696, 6.144e-6
-0.697, 6.173e-6
-0.698, 6.203e-6
-0.699, 6.230e-6
-0.700, 6.257e-6
-0.701, 6.283e-6
-0.702, 6.311e-6
-0.703, 6.337e-6
-0.704, 6.364e-6
-0.705, 6.393e-6
-0.706, 6.419e-6
-0.707, 6.445e-6
-0.708, 6.474e-6
-0.709, 6.495e-6
-0.710, 6.520e-6
-0.711, 6.544e-6
-0.712, 6.567e-6
-0.713, 6.593e-6
-0.714, 6.618e-6
-0.715, 6.642e-6
-0.716, 6.664e-6
-0.717, 6.688e-6
-0.718, 6.707e-6
-0.719, 6.728e-6
-0.720, 6.752e-6
-0.721, 6.772e-6
-0.722, 6.794e-6
-0.723, 6.812e-6
-0.724, 6.829e-6
-0.725, 6.848e-6
-0.726, 6.866e-6
-0.727, 6.885e-6
-0.728, 6.902e-6
-0.729, 6.919e-6
-0.730, 6.938e-6
-0.731, 6.953e-6
-0.732, 6.970e-6
-0.733, 6.988e-6
-0.734, 7.006e-6
-0.735, 7.021e-6
-0.736, 7.036e-6
-0.737, 7.050e-6
-0.738, 7.062e-6
-0.739, 7.076e-6
-0.740, 7.089e-6
-0.741, 7.101e-6
-0.742, 7.119e-6
-0.743, 7.130e-6
-0.744, 7.145e-6
-0.745, 7.159e-6
-0.746, 7.167e-6
-0.747, 7.177e-6
-0.748, 7.186e-6
-0.749, 7.199e-6
-0.750, 7.210e-6
-0.751, 7.216e-6
-0.752, 7.225e-6
-0.753, 7.230e-6
-0.754, 7.239e-6
-0.755, 7.246e-6
-0.756, 7.250e-6
-0.757, 7.260e-6
-0.758, 7.268e-6
-0.759, 7.265e-6
-0.760, 7.267e-6
-0.761, 7.271e-6
-0.762, 7.278e-6
-0.763, 7.282e-6
-0.764, 7.282e-6
-0.765, 7.282e-6
-0.766, 7.285e-6
-0.767, 7.291e-6
-0.768, 7.291e-6
-0.769, 7.292e-6
-0.770, 7.300e-6
-0.771, 7.302e-6
-0.772, 7.306e-6
-0.773, 7.300e-6
-0.774, 7.296e-6
-0.775, 7.298e-6
-0.776, 7.298e-6
-0.777, 7.299e-6
-0.778, 7.297e-6
-0.779, 7.294e-6
-0.780, 7.289e-6
-0.781, 7.290e-6
-0.782, 7.294e-6
-0.783, 7.296e-6
-0.784, 7.293e-6
-0.785, 7.289e-6
-0.786, 7.284e-6
-0.787, 7.280e-6
-0.788, 7.271e-6
-0.789, 7.268e-6
-0.790, 7.268e-6
-0.791, 7.262e-6
-0.792, 7.258e-6
-0.793, 7.252e-6
-0.794, 7.248e-6
-0.795, 7.243e-6
-0.796, 7.236e-6
-0.797, 7.230e-6
-0.798, 7.223e-6
-0.799, 7.216e-6
-0.800, 7.209e-6
-0.801, 7.198e-6
-0.802, 7.192e-6
-0.803, 7.183e-6
-0.804, 7.181e-6
-0.805, 7.185e-6
-0.806, 7.175e-6
-0.807, 7.168e-6
-0.808, 7.158e-6
-0.809, 7.146e-6
-0.810, 7.139e-6
-0.811, 7.131e-6
-0.812, 7.124e-6
-0.813, 7.114e-6
-0.814, 7.106e-6
-0.815, 7.094e-6
-0.816, 7.077e-6
-0.817, 7.069e-6
-0.818, 7.059e-6
-0.819, 7.053e-6
-0.820, 7.046e-6
-0.821, 7.033e-6
-0.822, 7.021e-6
-0.823, 7.010e-6
-0.824, 6.999e-6
-0.825, 6.991e-6
-0.826, 6.980e-6
-0.827, 6.973e-6
-0.828, 6.961e-6
-0.829, 6.951e-6
-0.830, 6.940e-6
-0.831, 6.925e-6
-0.832, 6.916e-6
-0.833, 6.907e-6
-0.834, 6.896e-6
-0.835, 6.886e-6
-0.836, 6.878e-6
-0.837, 6.869e-6
-0.838, 6.856e-6
-0.839, 6.846e-6
-0.840, 6.836e-6
-0.841, 6.825e-6
-0.842, 6.815e-6
-0.843, 6.804e-6
-0.844, 6.794e-6
-0.845, 6.785e-6
-0.846, 6.772e-6
-0.847, 6.762e-6
-0.848, 6.750e-6
-0.849, 6.741e-6
-0.850, 6.732e-6
-0.851, 6.720e-6
-0.852, 6.711e-6
-0.853, 6.699e-6
-0.854, 6.690e-6
-0.855, 6.680e-6
-0.856, 6.669e-6
-0.857, 6.659e-6
-0.858, 6.648e-6
-0.859, 6.638e-6
-0.860, 6.629e-6
-0.861, 6.617e-6
-0.862, 6.608e-6
-0.863, 6.599e-6
-0.864, 6.588e-6
-0.865, 6.579e-6
-0.866, 6.567e-6
-0.867, 6.557e-6
-0.868, 6.546e-6
-0.869, 6.537e-6
-0.870, 6.529e-6
-0.871, 6.518e-6
-0.872, 6.507e-6
-0.873, 6.495e-6
-0.874, 6.485e-6
-0.875, 6.476e-6
-0.876, 6.467e-6
-0.877, 6.457e-6
-0.878, 6.448e-6
-0.879, 6.440e-6
-0.880, 6.428e-6
-0.881, 6.419e-6
-0.882, 6.410e-6
-0.883, 6.400e-6
-0.884, 6.396e-6
-0.885, 6.395e-6
-0.886, 6.386e-6
-0.887, 6.378e-6
-0.888, 6.366e-6
-0.889, 6.358e-6
-0.890, 6.349e-6
-0.891, 6.342e-6
-0.892, 6.334e-6
-0.893, 6.324e-6
-0.894, 6.316e-6
-0.895, 6.305e-6
-0.896, 6.286e-6
-0.897, 6.279e-6
-0.898, 6.272e-6
-0.899, 6.255e-6
-0.900, 6.242e-6
-0.901, 6.233e-6
-0.902, 6.225e-6
-0.903, 6.218e-6
-0.904, 6.210e-6
-0.905, 6.203e-6
-0.906, 6.193e-6
-0.907, 6.187e-6
-0.908, 6.178e-6
-0.909, 6.172e-6
-0.910, 6.164e-6
-0.911, 6.156e-6
-0.912, 6.150e-6
-0.913, 6.141e-6
-0.914, 6.133e-6
-0.915, 6.126e-6
-0.916, 6.118e-6
-0.917, 6.111e-6
-0.918, 6.102e-6
-0.919, 6.094e-6
-0.920, 6.088e-6
-0.921, 6.083e-6
-0.922, 6.077e-6
-0.923, 6.067e-6
-0.924, 6.059e-6
-0.925, 6.051e-6
-0.926, 6.043e-6
-0.927, 6.037e-6
-0.928, 6.030e-6
-0.929, 6.026e-6
-0.930, 6.018e-6
-0.931, 6.011e-6
-0.932, 6.005e-6
-0.933, 5.996e-6
-0.934, 5.990e-6
-0.935, 5.984e-6
-0.936, 5.976e-6
-0.937, 5.971e-6
-0.938, 5.964e-6
-0.939, 5.957e-6
-0.940, 5.950e-6
-0.941, 5.944e-6
-0.942, 5.938e-6
-0.943, 5.933e-6
-0.944, 5.928e-6
-0.945, 5.922e-6
-0.946, 5.916e-6
-0.947, 5.911e-6
-0.948, 5.905e-6
-0.949, 5.902e-6
-0.950, 5.897e-6
-0.951, 5.889e-6
-0.952, 5.884e-6
-0.953, 5.879e-6
-0.954, 5.874e-6
-0.955, 5.869e-6
-0.956, 5.863e-6
-0.957, 5.859e-6
-0.958, 5.854e-6
-0.959, 5.851e-6
-0.960, 5.846e-6
-0.961, 5.841e-6
-0.962, 5.834e-6
-0.963, 5.827e-6
-0.964, 5.821e-6
-0.965, 5.815e-6
-0.966, 5.812e-6
-0.967, 5.808e-6
-0.968, 5.802e-6
-0.969, 5.798e-6
-0.970, 5.792e-6
-0.971, 5.787e-6
-0.972, 5.784e-6
-0.973, 5.781e-6
-0.974, 5.776e-6
-0.975, 5.770e-6
-0.976, 5.763e-6
-0.977, 5.758e-6
-0.978, 5.755e-6
-0.979, 5.747e-6
-0.980, 5.739e-6
-0.981, 5.736e-6
-0.982, 5.730e-6
-0.983, 5.723e-6
-0.984, 5.718e-6
-0.985, 5.716e-6
-0.986, 5.716e-6
-0.987, 5.714e-6
-0.988, 5.714e-6
-0.989, 5.707e-6
-0.990, 5.699e-6
-0.991, 5.691e-6
-0.992, 5.689e-6
-0.993, 5.681e-6
-0.994, 5.678e-6
-0.995, 5.674e-6
-0.996, 5.670e-6
-0.997, 5.667e-6
-0.998, 5.664e-6
-0.999, 5.660e-6
-1.000, 5.656e-6
-1.001, 5.650e-6
-1.002, 5.645e-6
-1.003, 5.644e-6
-1.004, 5.640e-6
-1.005, 5.637e-6
-1.006, 5.636e-6
-1.007, 5.634e-6
-1.008, 5.629e-6
-1.009, 5.627e-6
-1.010, 5.623e-6
-1.011, 5.620e-6
-1.012, 5.616e-6
-1.013, 5.612e-6
-1.014, 5.608e-6
-1.015, 5.603e-6
-1.016, 5.597e-6
-1.017, 5.596e-6
-1.018, 5.592e-6
-1.019, 5.589e-6
-1.020, 5.585e-6
-1.021, 5.582e-6
-1.022, 5.579e-6
-1.023, 5.577e-6
-1.024, 5.576e-6
-1.025, 5.573e-6
-1.026, 5.569e-6
-1.027, 5.567e-6
-1.028, 5.563e-6
-1.029, 5.562e-6
-1.030, 5.559e-6
-1.031, 5.555e-6
-1.032, 5.553e-6
-1.033, 5.549e-6
-1.034, 5.546e-6
-1.035, 5.546e-6
-1.036, 5.542e-6
-1.037, 5.540e-6
-1.038, 5.538e-6
-1.039, 5.536e-6
-1.040, 5.534e-6
-1.041, 5.531e-6
-1.042, 5.528e-6
-1.043, 5.528e-6
-1.044, 5.526e-6
-1.045, 5.523e-6
-1.046, 5.521e-6
-1.047, 5.523e-6
-1.048, 5.520e-6
-1.049, 5.520e-6
-1.050, 5.517e-6
-1.051, 5.514e-6
-1.052, 5.513e-6
-1.053, 5.516e-6
-1.054, 5.522e-6
-1.055, 5.512e-6
-1.056, 5.509e-6
-1.057, 5.509e-6
-1.058, 5.507e-6
-1.059, 5.506e-6
-1.060, 5.505e-6
-1.061, 5.502e-6
-1.062, 5.503e-6
-1.063, 5.502e-6
-1.064, 5.503e-6
-1.065, 5.504e-6
-1.066, 5.503e-6
-1.067, 5.507e-6
-1.068, 5.506e-6
-1.069, 5.503e-6
-1.070, 5.499e-6
-1.071, 5.520e-6
-1.072, 5.525e-6
-1.073, 5.519e-6
-1.074, 5.522e-6
-1.075, 5.515e-6
-1.076, 5.514e-6
-1.077, 5.513e-6
-1.078, 5.510e-6
-1.079, 5.508e-6
-1.080, 5.505e-6
-1.081, 5.507e-6
-1.082, 5.511e-6
-1.083, 5.517e-6
-1.084, 5.513e-6
-1.085, 5.509e-6
-1.086, 5.506e-6
-1.087, 5.513e-6
-1.088, 5.511e-6
-1.089, 5.513e-6
-1.090, 5.509e-6
-1.091, 5.512e-6
-1.092, 5.515e-6
-1.093, 5.513e-6
-1.094, 5.515e-6
-1.095, 5.516e-6
-1.096, 5.512e-6
-1.097, 5.512e-6
-1.098, 5.514e-6
-1.099, 5.516e-6
-1.100, 5.519e-6
-1.101, 5.521e-6
-1.102, 5.534e-6
-1.103, 5.537e-6
-1.104, 5.538e-6
-1.105, 5.539e-6
-1.106, 5.539e-6
-1.107, 5.538e-6
-1.108, 5.542e-6
-1.109, 5.543e-6
-1.110, 5.545e-6
-1.111, 5.555e-6
-1.112, 5.561e-6
-1.113, 5.558e-6
-1.114, 5.558e-6
-1.115, 5.567e-6
-1.116, 5.572e-6
-1.117, 5.577e-6
-1.118, 5.576e-6
-1.119, 5.584e-6
-1.120, 5.579e-6
-1.121, 5.571e-6
-1.122, 5.572e-6
-1.123, 5.573e-6
-1.124, 5.584e-6
-1.125, 5.589e-6
-1.126, 5.593e-6
-1.127, 5.589e-6
-1.128, 5.592e-6
-1.129, 5.605e-6
-1.130, 5.614e-6
-1.131, 5.602e-6
-1.132, 5.606e-6
-1.133, 5.608e-6
-1.134, 5.612e-6
-1.135, 5.616e-6
-1.136, 5.619e-6
-1.137, 5.617e-6
-1.138, 5.621e-6
-1.139, 5.626e-6
-1.140, 5.628e-6
-1.141, 5.624e-6
-1.142, 5.621e-6
-1.143, 5.621e-6
-1.144, 5.624e-6
-1.145, 5.629e-6
-1.146, 5.632e-6
-1.147, 5.636e-6
-1.148, 5.636e-6
-1.149, 5.639e-6
-1.150, 5.645e-6
-1.151, 5.650e-6
-1.152, 5.654e-6
-1.153, 5.657e-6
-1.154, 5.658e-6
-1.155, 5.662e-6
-1.156, 5.663e-6
-1.157, 5.669e-6
-1.158, 5.673e-6
-1.159, 5.675e-6
-1.160, 5.679e-6
-1.161, 5.685e-6
-1.162, 5.689e-6
-1.163, 5.692e-6
-1.164, 5.695e-6
-1.165, 5.697e-6
-1.166, 5.701e-6
-1.167, 5.705e-6
-1.168, 5.710e-6
-1.169, 5.717e-6
-1.170, 5.721e-6
-1.171, 5.725e-6
-1.172, 5.730e-6
-1.173, 5.732e-6
-1.174, 5.737e-6
-1.175, 5.739e-6
-1.176, 5.742e-6
-1.177, 5.749e-6
-1.178, 5.750e-6
-1.179, 5.752e-6
-1.180, 5.757e-6
-1.181, 5.762e-6
-1.182, 5.764e-6
-1.183, 5.766e-6
-1.184, 5.773e-6
-1.185, 5.779e-6
-1.186, 5.783e-6
-1.187, 5.787e-6
-1.188, 5.789e-6
-1.189, 5.795e-6
-1.190, 5.803e-6
-1.191, 5.809e-6
-1.192, 5.810e-6
-1.193, 5.818e-6
-1.194, 5.825e-6
-1.195, 5.826e-6
-1.196, 5.824e-6
-1.197, 5.827e-6
-1.198, 5.833e-6
-1.199, 5.834e-6
-1.200, 5.840e-6
-1.201, 5.847e-6
-1.202, 5.855e-6
-1.203, 5.863e-6
-1.204, 5.870e-6
-1.205, 5.873e-6
-1.206, 5.874e-6
-1.207, 5.878e-6
-1.208, 5.882e-6
-1.209, 5.889e-6
-1.210, 5.895e-6
-1.211, 5.901e-6
-1.212, 5.907e-6
-1.213, 5.908e-6
-1.214, 5.908e-6
-1.215, 5.907e-6
-1.216, 5.912e-6
-1.217, 5.914e-6
-1.218, 5.921e-6
-1.219, 5.927e-6
-1.220, 5.930e-6
-1.221, 5.934e-6
-1.222, 5.940e-6
-1.223, 5.942e-6
-1.224, 5.950e-6
-1.225, 5.957e-6
-1.226, 5.961e-6
-1.227, 5.966e-6
-1.228, 5.972e-6
-1.229, 5.980e-6
-1.230, 5.985e-6
-1.231, 5.988e-6
-1.232, 5.994e-6
-1.233, 5.999e-6
-1.234, 6.005e-6
-1.235, 6.008e-6
-1.236, 6.013e-6
-1.237, 6.023e-6
-1.238, 6.030e-6
-1.239, 6.032e-6
-1.240, 6.035e-6
-1.241, 6.041e-6
-1.242, 6.048e-6
-1.243, 6.056e-6
-1.244, 6.062e-6
-1.245, 6.065e-6
-1.246, 6.071e-6
-1.247, 6.078e-6
-1.248, 6.085e-6
-1.249, 6.092e-6
-1.250, 6.093e-6
-1.251, 6.099e-6
-1.252, 6.107e-6
-1.253, 6.117e-6
-1.254, 6.124e-6
-1.255, 6.129e-6
-1.256, 6.131e-6
-1.257, 6.136e-6
-1.258, 6.140e-6
-1.259, 6.142e-6
-1.260, 6.148e-6
-1.261, 6.156e-6
-1.262, 6.163e-6
-1.263, 6.166e-6
-1.264, 6.173e-6
-1.265, 6.179e-6
-1.266, 6.183e-6
-1.267, 6.191e-6
-1.268, 6.198e-6
-1.269, 6.203e-6
-1.270, 6.206e-6
-1.271, 6.212e-6
-1.272, 6.221e-6
-1.273, 6.225e-6
-1.274, 6.230e-6
-1.275, 6.234e-6
-1.276, 6.241e-6
-1.277, 6.248e-6
-1.278, 6.257e-6
-1.279, 6.268e-6
-1.280, 6.277e-6
-1.281, 6.283e-6
-1.282, 6.293e-6
-1.283, 6.298e-6
-1.284, 6.304e-6
-1.285, 6.310e-6
-1.286, 6.317e-6
-1.287, 6.324e-6
-1.288, 6.331e-6
-1.289, 6.336e-6
-1.290, 6.340e-6
-1.291, 6.350e-6
-1.292, 6.353e-6
-1.293, 6.360e-6
-1.294, 6.368e-6
-1.295, 6.380e-6
-1.296, 6.393e-6
-1.297, 6.410e-6
-1.298, 6.424e-6
-1.299, 6.420e-6
-1.300, 6.419e-6
-1.301, 6.425e-6
-1.302, 6.440e-6
-1.303, 6.441e-6
-1.304, 6.444e-6
-1.305, 6.454e-6
-1.306, 6.464e-6
-1.307, 6.471e-6
-1.308, 6.476e-6
-1.309, 6.482e-6
-1.310, 6.490e-6
-1.311, 6.492e-6
-1.312, 6.498e-6
-1.313, 6.506e-6
-1.314, 6.513e-6
-1.315, 6.520e-6
-1.316, 6.527e-6
-1.317, 6.535e-6
-1.318, 6.544e-6
-1.319, 6.554e-6
-1.320, 6.560e-6
-1.321, 6.569e-6
-1.322, 6.577e-6
-1.323, 6.586e-6
-1.324, 6.595e-6
-1.325, 6.604e-6
-1.326, 6.612e-6
-1.327, 6.620e-6
-1.328, 6.626e-6
-1.329, 6.636e-6
-1.330, 6.644e-6
-1.331, 6.652e-6
-1.332, 6.661e-6
-1.333, 6.671e-6
-1.334, 6.680e-6
-1.335, 6.687e-6
-1.336, 6.694e-6
-1.337, 6.704e-6
-1.338, 6.710e-6
-1.339, 6.719e-6
-1.340, 6.729e-6
-1.341, 6.739e-6
-1.342, 6.749e-6
-1.343, 6.758e-6
-1.344, 6.767e-6
-1.345, 6.775e-6
-1.346, 6.784e-6
-1.347, 6.796e-6
-1.348, 6.818e-6
-1.349, 6.831e-6
-1.350, 6.839e-6
-1.351, 6.850e-6
-1.352, 6.854e-6
-1.353, 6.858e-6
-1.354, 6.866e-6
-1.355, 6.876e-6
-1.356, 6.891e-6
-1.357, 6.904e-6
-1.358, 6.915e-6
-1.359, 6.921e-6
-1.360, 6.926e-6
-1.361, 6.937e-6
-1.362, 6.947e-6
-1.363, 6.953e-6
-1.364, 6.959e-6
-1.365, 6.968e-6
-1.366, 6.980e-6
-1.367, 6.991e-6
-1.368, 7.008e-6
-1.369, 7.021e-6
-1.370, 7.022e-6
-1.371, 7.032e-6
-1.372, 7.046e-6
-1.373, 7.056e-6
-1.374, 7.068e-6
-1.375, 7.077e-6
-1.376, 7.090e-6
-1.377, 7.108e-6
-1.378, 7.117e-6
-1.379, 7.133e-6
-1.380, 7.150e-6
-1.381, 7.178e-6
-1.382, 7.189e-6
-1.383, 7.191e-6
-1.384, 7.202e-6
-1.385, 7.218e-6
-1.386, 7.226e-6
-1.387, 7.235e-6
-1.388, 7.252e-6
-1.389, 7.261e-6
-1.390, 7.272e-6
-1.391, 7.281e-6
-1.392, 7.289e-6
-1.393, 7.294e-6
-1.394, 7.312e-6
-1.395, 7.328e-6
-1.396, 7.342e-6
-1.397, 7.350e-6
-1.398, 7.368e-6
-1.399, 7.377e-6
-1.400, 7.386e-6
-1.401, 7.406e-6
-1.402, 7.417e-6
-1.403, 7.429e-6
-1.404, 7.443e-6
-1.405, 7.455e-6
-1.406, 7.469e-6
-1.407, 7.481e-6
-1.408, 7.500e-6
-1.409, 7.523e-6
-1.410, 7.537e-6
-1.411, 7.550e-6
-1.412, 7.565e-6
-1.413, 7.577e-6
-1.414, 7.593e-6
-1.415, 7.605e-6
-1.416, 7.625e-6
-1.417, 7.632e-6
-1.418, 7.633e-6
-1.419, 7.647e-6
-1.420, 7.662e-6
-1.421, 7.674e-6
-1.422, 7.688e-6
-1.423, 7.704e-6
-1.424, 7.722e-6
-1.425, 7.736e-6
-1.426, 7.752e-6
-1.427, 7.770e-6
-1.428, 7.783e-6
-1.429, 7.800e-6
-1.430, 7.814e-6
-1.431, 7.831e-6
-1.432, 7.848e-6
-1.433, 7.867e-6
-1.434, 7.885e-6
-1.435, 7.900e-6
-1.436, 7.919e-6
-1.437, 7.934e-6
-1.438, 7.952e-6
-1.439, 7.969e-6
-1.440, 7.984e-6
-1.441, 8.003e-6
-1.442, 8.021e-6
-1.443, 8.039e-6
-1.444, 8.059e-6
-1.445, 8.077e-6
-1.446, 8.097e-6
-1.447, 8.115e-6
-1.448, 8.134e-6
-1.449, 8.154e-6
-1.450, 8.172e-6
-1.451, 8.194e-6
-1.452, 8.215e-6
-1.453, 8.236e-6
-1.454, 8.258e-6
-1.455, 8.277e-6
-1.456, 8.297e-6
-1.457, 8.317e-6
-1.458, 8.336e-6
-1.459, 8.359e-6
-1.460, 8.379e-6
-1.461, 8.397e-6
-1.462, 8.419e-6
-1.463, 8.443e-6
-1.464, 8.463e-6
-1.465, 8.484e-6
-1.466, 8.507e-6
-1.467, 8.529e-6
-1.468, 8.552e-6
-1.469, 8.574e-6
-1.470, 8.597e-6
-1.471, 8.621e-6
-1.472, 8.644e-6
-1.473, 8.669e-6
-1.474, 8.693e-6
-1.475, 8.719e-6
-1.476, 8.745e-6
-1.477, 8.767e-6
-1.478, 8.788e-6
-1.479, 8.811e-6
-1.480, 8.835e-6
-1.481, 8.860e-6
-1.482, 8.880e-6
-1.483, 8.905e-6
-1.484, 8.929e-6
-1.485, 8.956e-6
-1.486, 8.984e-6
-1.487, 9.010e-6
-1.488, 9.036e-6
-1.489, 9.064e-6
-1.490, 9.088e-6
-1.491, 9.117e-6
-1.492, 9.145e-6
-1.493, 9.174e-6
-1.494, 9.200e-6
-1.495, 9.224e-6
-1.496, 9.253e-6
-1.497, 9.286e-6
-1.498, 9.319e-6
-1.499, 9.354e-6
-1.500, 9.393e-6
-1.501, 9.409e-6
-1.502, 9.434e-6
-1.503, 9.477e-6
-1.504, 9.528e-6
-1.505, 9.549e-6
-1.506, 9.550e-6
-1.507, 9.576e-6
-1.508, 9.607e-6
-1.509, 9.636e-6
-1.510, 9.668e-6
-1.511, 9.700e-6
-1.512, 9.733e-6
-1.513, 9.767e-6
-1.514, 9.797e-6
-1.515, 9.829e-6
-1.516, 9.864e-6
-1.517, 9.897e-6
-1.518, 9.931e-6
-1.519, 9.966e-6
-1.520, 1.000e-5
-1.521, 1.004e-5
-1.522, 1.007e-5
-1.523, 1.011e-5
-1.524, 1.015e-5
-1.525, 1.018e-5
-1.526, 1.021e-5
-1.527, 1.025e-5
-1.528, 1.028e-5
-1.529, 1.032e-5
-1.530, 1.036e-5
-1.531, 1.039e-5
-1.532, 1.043e-5
-1.533, 1.047e-5
-1.534, 1.051e-5
-1.535, 1.055e-5
-1.536, 1.059e-5
-1.537, 1.063e-5
-1.538, 1.068e-5
-1.539, 1.072e-5
-1.540, 1.076e-5
-1.541, 1.081e-5
-1.542, 1.084e-5
-1.543, 1.088e-5
-1.544, 1.093e-5
-1.545, 1.097e-5
-1.546, 1.102e-5
-1.547, 1.106e-5
-1.548, 1.111e-5
-1.549, 1.115e-5
-1.550, 1.120e-5
-1.551, 1.124e-5
-1.552, 1.129e-5
-1.553, 1.134e-5
-1.554, 1.139e-5
-1.555, 1.144e-5
-1.556, 1.149e-5
-1.557, 1.154e-5
-1.558, 1.159e-5
-1.559, 1.164e-5
-1.560, 1.169e-5
-1.561, 1.175e-5
-1.562, 1.181e-5
-1.563, 1.187e-5
-1.564, 1.192e-5
-1.565, 1.198e-5
-1.566, 1.203e-5
-1.567, 1.208e-5
-1.568, 1.213e-5
-1.569, 1.219e-5
-1.570, 1.225e-5
-1.571, 1.232e-5
-1.572, 1.237e-5
-1.573, 1.243e-5
-1.574, 1.250e-5
-1.575, 1.256e-5
-1.576, 1.263e-5
-1.577, 1.269e-5
-1.578, 1.277e-5
-1.579, 1.284e-5
-1.580, 1.290e-5
-1.581, 1.298e-5
-1.582, 1.305e-5
-1.583, 1.312e-5
-1.584, 1.320e-5
-1.585, 1.328e-5
-1.586, 1.336e-5
-1.587, 1.344e-5
-1.588, 1.352e-5
-1.589, 1.360e-5
-1.590, 1.368e-5
-1.591, 1.377e-5
-1.592, 1.385e-5
-1.593, 1.394e-5
-1.594, 1.403e-5
-1.595, 1.412e-5
-1.596, 1.421e-5
-1.597, 1.430e-5
-1.598, 1.440e-5
-1.599, 1.450e-5
-1.600, 1.459e-5
-1.601, 1.469e-5
-1.602, 1.478e-5
-1.603, 1.489e-5
-1.604, 1.500e-5
-1.605, 1.511e-5
-1.606, 1.523e-5
-1.607, 1.534e-5
-1.608, 1.545e-5
-1.609, 1.557e-5
-1.610, 1.569e-5
-1.611, 1.581e-5
-1.612, 1.593e-5
-1.613, 1.606e-5
-1.614, 1.620e-5
-1.615, 1.633e-5
-1.616, 1.647e-5
-1.617, 1.661e-5
-1.618, 1.675e-5
-1.619, 1.689e-5
-1.620, 1.703e-5
-1.621, 1.718e-5
-1.622, 1.733e-5
-1.623, 1.748e-5
-1.624, 1.764e-5
-1.625, 1.781e-5
-1.626, 1.797e-5
-1.627, 1.813e-5
-1.628, 1.830e-5
-1.629, 1.848e-5
-1.630, 1.866e-5
-1.631, 1.884e-5
-1.632, 1.903e-5
-1.633, 1.922e-5
-1.634, 1.942e-5
-1.635, 1.962e-5
-1.636, 1.982e-5
-1.637, 2.003e-5
-1.638, 2.025e-5
-1.639, 2.048e-5
-1.640, 2.070e-5
-1.641, 2.092e-5
-1.642, 2.116e-5
-1.643, 2.139e-5
-1.644, 2.164e-5
-1.645, 2.189e-5
-1.646, 2.215e-5
-1.647, 2.240e-5
-1.648, 2.267e-5
-1.649, 2.295e-5
-1.650, 2.322e-5
-1.651, 2.351e-5
-1.652, 2.380e-5
-1.653, 2.411e-5
-1.654, 2.442e-5
-1.655, 2.473e-5
-1.656, 2.505e-5
-1.657, 2.537e-5
-1.658, 2.571e-5
-1.659, 2.605e-5
-1.660, 2.640e-5
-1.661, 2.676e-5
-1.662, 2.713e-5
-1.663, 2.752e-5
-1.664, 2.790e-5
-1.665, 2.829e-5
-1.666, 2.870e-5
-1.667, 2.911e-5
-1.668, 2.953e-5
-1.669, 2.997e-5
-1.670, 3.042e-5
-1.671, 3.087e-5
-1.672, 3.134e-5
-1.673, 3.182e-5
-1.674, 3.232e-5
-1.675, 3.284e-5
-1.676, 3.335e-5
-1.677, 3.387e-5
-1.678, 3.441e-5
-1.679, 3.496e-5
-1.680, 3.553e-5
-1.681, 3.611e-5
-1.682, 3.669e-5
-1.683, 3.730e-5
-1.684, 3.792e-5
-1.685, 3.856e-5
-1.686, 3.922e-5
-1.687, 3.988e-5
-1.688, 4.057e-5
-1.689, 4.128e-5
-1.690, 4.199e-5
-1.691, 4.273e-5
-1.692, 4.348e-5
-1.693, 4.424e-5
-1.694, 4.503e-5
-1.695, 4.584e-5
-1.696, 4.666e-5
-1.697, 4.751e-5
-1.698, 4.837e-5
-1.699, 4.927e-5
-1.700, 5.017e-5
-1.701, 5.111e-5
-1.702, 5.206e-5
-1.703, 5.303e-5
-1.704, 5.401e-5
-1.705, 5.504e-5
-1.706, 5.609e-5
-1.707, 5.715e-5
-1.708, 5.824e-5
-1.709, 5.935e-5
-1.710, 6.048e-5
-1.711, 6.165e-5
-1.712, 6.285e-5
-1.713, 6.408e-5
-1.714, 6.532e-5
-1.715, 6.661e-5
-1.716, 6.791e-5
-1.717, 6.925e-5
-1.718, 7.062e-5
-1.719, 7.202e-5
-1.720, 7.344e-5
-1.721, 7.490e-5
-1.722, 7.638e-5
-1.723, 7.790e-5
-1.724, 7.946e-5
-1.725, 8.106e-5
-1.726, 8.268e-5
-1.727, 8.434e-5
-1.728, 8.605e-5
-1.729, 8.780e-5
-1.730, 8.956e-5
-1.731, 9.135e-5
-1.732, 9.319e-5
-1.733, 9.509e-5
-1.734, 9.702e-5
-1.735, 9.898e-5
-1.736, 1.010e-4
-1.737, 1.030e-4
-1.738, 1.051e-4
-1.739, 1.073e-4
-1.740, 1.094e-4
-1.741, 1.117e-4
-1.742, 1.139e-4
-1.743, 1.162e-4
-1.744, 1.186e-4
-1.745, 1.210e-4
-1.746, 1.234e-4
-1.747, 1.259e-4
-1.748, 1.285e-4
-1.749, 1.311e-4
-1.750, 1.338e-4
-1.751, 1.365e-4
-1.752, 1.392e-4
-1.753, 1.420e-4
-1.754, 1.449e-4
-1.755, 1.478e-4
-1.756, 1.508e-4
-1.757, 1.538e-4
-1.758, 1.569e-4
-1.759, 1.601e-4
-1.760, 1.632e-4
-1.761, 1.665e-4
-1.762, 1.698e-4
-1.763, 1.732e-4
-1.764, 1.766e-4
-1.765, 1.801e-4
-1.766, 1.837e-4
-1.767, 1.873e-4
-1.768, 1.910e-4
-1.769, 1.948e-4
-1.770, 1.986e-4
-1.771, 2.024e-4
-1.772, 2.063e-4
-1.773, 2.103e-4
-1.774, 2.144e-4
-1.775, 2.184e-4
-1.776, 2.225e-4
-1.777, 2.267e-4
-1.778, 2.309e-4
-1.779, 2.351e-4
-1.780, 2.394e-4
-1.781, 2.437e-4
-1.782, 2.481e-4
-1.783, 2.524e-4
-1.784, 2.567e-4
-1.785, 2.611e-4
-1.786, 2.655e-4
-1.787, 2.699e-4
-1.788, 2.743e-4
-1.789, 2.788e-4
-1.790, 2.833e-4
-1.791, 2.879e-4
-1.792, 2.925e-4
-1.793, 2.972e-4
-1.794, 3.019e-4
-1.795, 3.066e-4
-1.796, 3.114e-4
-1.797, 3.162e-4
-1.798, 3.211e-4
-1.799, 3.259e-4
-1.800, 3.308e-4
-1.801, 3.357e-4
-1.802, 3.406e-4
-1.803, 3.455e-4
-1.804, 3.504e-4
-1.805, 3.553e-4
-1.806, 3.603e-4
-1.807, 3.653e-4
-1.808, 3.703e-4
-1.809, 3.753e-4
-1.810, 3.803e-4
-1.811, 3.853e-4
-1.812, 3.904e-4
-1.813, 3.955e-4
-1.814, 4.005e-4
-1.815, 4.056e-4
-1.816, 4.107e-4
-1.817, 4.159e-4
-1.818, 4.210e-4
-1.819, 4.262e-4
-1.820, 4.314e-4
-1.821, 4.366e-4
-1.822, 4.418e-4
-1.823, 4.470e-4
-1.824, 4.523e-4
-1.825, 4.575e-4
-1.826, 4.628e-4
-1.827, 4.681e-4
-1.828, 4.734e-4
-1.829, 4.788e-4
-1.830, 4.842e-4
-1.831, 4.896e-4
-1.832, 4.949e-4
-1.833, 5.003e-4
-1.834, 5.058e-4
-1.835, 5.113e-4
-1.836, 5.167e-4
-1.837, 5.222e-4
-1.838, 5.277e-4
-1.839, 5.332e-4
-1.840, 5.388e-4
-1.841, 5.443e-4
-1.842, 5.499e-4
-1.843, 5.555e-4
-1.844, 5.611e-4
-1.845, 5.668e-4
-1.846, 5.724e-4
-1.847, 5.781e-4
-1.848, 5.838e-4
-1.849, 5.895e-4
-1.850, 5.952e-4
-1.851, 6.009e-4
-1.852, 6.067e-4
-1.853, 6.125e-4
-1.854, 6.183e-4
-1.855, 6.241e-4
-1.856, 6.299e-4
-1.857, 6.358e-4
-1.858, 6.417e-4
-1.859, 6.476e-4
-1.860, 6.535e-4
-1.861, 6.594e-4
-1.862, 6.653e-4
-1.863, 6.712e-4
-1.864, 6.772e-4
-1.865, 6.832e-4
-1.866, 6.891e-4
-1.867, 6.950e-4
-1.868, 7.010e-4
-1.869, 7.070e-4
-1.870, 7.130e-4
-1.871, 7.191e-4
-1.872, 7.251e-4
-1.873, 7.312e-4
-1.874, 7.374e-4
-1.875, 7.435e-4
-1.876, 7.497e-4
-1.877, 7.559e-4
-1.878, 7.622e-4
-1.879, 7.685e-4
-1.880, 7.747e-4
-1.881, 7.811e-4
-1.882, 7.873e-4
-1.883, 7.936e-4
-1.884, 8.000e-4
-1.885, 8.064e-4
-1.886, 8.128e-4
-1.887, 8.192e-4
-1.888, 8.256e-4
-1.889, 8.321e-4
-1.890, 8.386e-4
-1.891, 8.451e-4
-1.892, 8.516e-4
-1.893, 8.582e-4
-1.894, 8.648e-4
-1.895, 8.713e-4
-1.896, 8.779e-4
-1.897, 8.845e-4
-1.898, 8.911e-4
-1.899, 8.978e-4
-1.900, 9.045e-4
-1.901, 9.113e-4
-1.902, 9.180e-4
-1.903, 9.247e-4
-1.904, 9.315e-4
-1.905, 9.382e-4
-1.906, 9.450e-4
-1.907, 9.518e-4
-1.908, 9.587e-4
-1.909, 9.656e-4
-1.910, 9.725e-4
-1.911, 9.795e-4
-1.912, 9.865e-4
-1.913, 9.935e-4
-1.914, 1.001e-3
-1.915, 1.008e-3
-1.916, 1.011e-3
-1.917, 1.011e-3
-1.918, 1.011e-3
-1.919, 1.011e-3
-1.920, 1.011e-3
-1.921, 1.011e-3
-1.922, 1.011e-3
-1.923, 1.011e-3
-1.924, 1.011e-3
-1.925, 1.011e-3
-1.926, 1.011e-3
-1.927, 1.011e-3
-1.928, 1.011e-3
-1.929, 1.011e-3
-1.930, 1.011e-3
-1.931, 1.011e-3
-1.932, 1.011e-3
-1.933, 1.011e-3
-1.934, 1.011e-3
-1.935, 1.011e-3
-1.936, 1.011e-3
-1.937, 1.011e-3
-1.938, 1.011e-3
-1.939, 1.011e-3
-1.940, 1.011e-3
-1.941, 1.011e-3
-1.942, 1.011e-3
-1.943, 1.011e-3
-1.944, 1.011e-3
-1.945, 1.011e-3
-1.946, 1.011e-3
-1.947, 1.011e-3
-1.948, 1.011e-3
-1.949, 1.011e-3
-1.950, 1.011e-3
-1.951, 1.011e-3
-1.952, 1.011e-3
-1.953, 1.011e-3
-1.954, 1.011e-3
-1.955, 1.011e-3
-1.956, 1.011e-3
-1.957, 1.011e-3
-1.958, 1.011e-3
-1.959, 1.011e-3
-1.960, 1.011e-3
-1.961, 1.011e-3
-1.962, 1.011e-3
-1.963, 1.011e-3
-1.964, 1.011e-3
-1.965, 1.011e-3
-1.966, 1.011e-3
-1.967, 1.011e-3
-1.968, 1.011e-3
-1.969, 1.011e-3
-1.970, 1.011e-3
-1.971, 1.011e-3
-1.972, 1.011e-3
-1.973, 1.011e-3
-1.974, 1.011e-3
-1.975, 1.011e-3
-1.976, 1.011e-3
-1.977, 1.011e-3
-1.978, 1.011e-3
-1.979, 1.011e-3
-1.980, 1.011e-3
-1.981, 1.011e-3
-1.982, 1.011e-3
-1.983, 1.011e-3
-1.984, 1.011e-3
-1.985, 1.011e-3
-1.986, 1.011e-3
-1.987, 1.011e-3
-1.988, 1.011e-3
-1.989, 1.011e-3
-1.990, 1.011e-3
-1.991, 1.011e-3
-1.992, 1.011e-3
-1.993, 1.011e-3
-1.994, 1.011e-3
-1.995, 1.011e-3
-1.996, 1.011e-3
-1.997, 1.011e-3
-1.998, 1.011e-3
-1.999, 1.011e-3
-2.000, 1.011e-3
-2.001, 1.011e-3
-2.002, 1.011e-3
-2.003, 1.011e-3
-2.004, 1.011e-3
-2.005, 1.011e-3
-2.006, 1.011e-3
-2.007, 1.011e-3
-2.008, 1.011e-3
-2.009, 1.011e-3
-2.010, 1.011e-3
-2.011, 1.011e-3
-2.012, 1.011e-3
-2.013, 1.011e-3
-2.014, 1.011e-3
-2.015, 1.011e-3
-2.016, 1.011e-3
-2.017, 1.011e-3
-2.018, 1.011e-3
-2.019, 1.011e-3
-2.020, 1.011e-3
-2.021, 1.011e-3
-2.022, 1.011e-3
-2.023, 1.011e-3
-2.024, 1.011e-3
-2.025, 1.011e-3
-2.026, 1.011e-3
-2.027, 1.011e-3
-2.028, 1.011e-3
-2.029, 1.011e-3
-2.030, 1.011e-3
-2.031, 1.011e-3
-2.032, 1.011e-3
-2.033, 1.011e-3
-2.034, 1.011e-3
-2.035, 1.011e-3
-2.036, 1.011e-3
-2.037, 1.011e-3
-2.038, 1.011e-3
-2.039, 1.011e-3
-2.040, 1.011e-3
-2.041, 1.011e-3
-2.042, 1.011e-3
-2.043, 1.011e-3
-2.044, 1.011e-3
-2.045, 1.011e-3
-2.046, 1.011e-3
-2.047, 1.011e-3
-2.048, 1.011e-3
-2.049, 1.011e-3
-2.050, 1.011e-3
-2.051, 1.011e-3
-2.052, 1.011e-3
-2.053, 1.011e-3
-2.054, 1.011e-3
-2.055, 1.011e-3
-2.056, 1.011e-3
-2.057, 1.011e-3
-2.058, 1.011e-3
-2.059, 1.011e-3
-2.060, 1.011e-3
-2.061, 1.011e-3
-2.062, 1.011e-3
-2.063, 1.011e-3
-2.064, 1.011e-3
-2.065, 1.011e-3
-2.066, 1.011e-3
-2.067, 1.011e-3
-2.068, 1.011e-3
-2.069, 1.011e-3
-2.070, 1.011e-3
-2.071, 1.011e-3
-2.072, 1.011e-3
-2.073, 1.011e-3
-2.074, 1.011e-3
-2.075, 1.011e-3
-2.076, 1.011e-3
-2.077, 1.011e-3
-2.078, 1.011e-3
-2.079, 1.011e-3
-2.080, 1.011e-3
-2.081, 1.011e-3
-2.082, 1.011e-3
-2.083, 1.011e-3
-2.084, 1.011e-3
-2.085, 1.011e-3
-2.086, 1.011e-3
-2.087, 1.011e-3
-2.088, 1.011e-3
-2.089, 1.011e-3
-2.090, 1.011e-3
-2.091, 1.011e-3
-2.092, 1.011e-3
-2.093, 1.011e-3
-2.094, 1.011e-3
-2.095, 1.011e-3
-2.096, 1.011e-3
-2.097, 1.011e-3
-2.098, 1.011e-3
-2.099, 1.011e-3
-2.100, 1.011e-3
-2.101, 1.011e-3
-2.102, 1.011e-3
-2.103, 1.011e-3
-2.104, 1.011e-3
-2.105, 1.011e-3
-2.106, 1.011e-3
-2.107, 1.011e-3
-2.108, 1.011e-3
-2.109, 1.011e-3
-2.110, 1.011e-3
-2.111, 1.011e-3
-2.112, 1.011e-3
-2.113, 1.011e-3
-2.114, 1.011e-3
-2.115, 1.011e-3
-2.116, 1.011e-3
-2.117, 1.011e-3
-2.118, 1.011e-3
-2.119, 1.011e-3
-2.120, 1.011e-3
-2.121, 1.011e-3
-2.122, 1.011e-3
-2.123, 1.011e-3
-2.124, 1.011e-3
-2.125, 1.011e-3
-2.126, 1.011e-3
-2.127, 1.011e-3
-2.128, 1.011e-3
-2.129, 1.011e-3
-2.130, 1.011e-3
-2.131, 1.011e-3
-2.132, 1.011e-3
-2.133, 1.011e-3
-2.134, 1.011e-3
-2.135, 1.011e-3
-2.136, 1.011e-3
-2.137, 1.011e-3
-2.138, 1.011e-3
-2.139, 1.011e-3
-2.140, 1.011e-3
-2.141, 1.011e-3
-2.142, 1.011e-3
-2.143, 1.011e-3
-2.144, 1.011e-3
-2.145, 1.011e-3
-2.146, 1.011e-3
-2.147, 1.011e-3
-2.148, 1.011e-3
-2.149, 1.011e-3
-2.150, 1.011e-3
-2.151, 1.011e-3
-2.152, 1.011e-3
-2.153, 1.011e-3
-2.154, 1.011e-3
-2.155, 1.011e-3
-2.156, 1.011e-3
-2.157, 1.011e-3
-2.158, 1.011e-3
-2.159, 1.011e-3
-2.160, 1.011e-3
-2.161, 1.011e-3
-2.162, 1.011e-3
-2.163, 1.011e-3
-2.164, 1.011e-3
-2.165, 1.011e-3
-2.166, 1.011e-3
-2.167, 1.011e-3
-2.168, 1.011e-3
-2.169, 1.011e-3
-2.170, 1.011e-3
-2.171, 1.011e-3
-2.172, 1.011e-3
-2.173, 1.011e-3
-2.174, 1.011e-3
-2.175, 1.011e-3
-2.176, 1.011e-3
-2.177, 1.011e-3
-2.178, 1.011e-3
-2.179, 1.011e-3
-2.180, 1.011e-3
-2.181, 1.011e-3
-2.182, 1.011e-3
-2.183, 1.011e-3
-2.184, 1.011e-3
-2.185, 1.011e-3
-2.186, 1.011e-3
-2.187, 1.011e-3
-2.188, 1.011e-3
-2.189, 1.011e-3
-2.190, 1.011e-3
-2.191, 1.011e-3
-2.192, 1.011e-3
-2.193, 1.011e-3
-2.194, 1.011e-3
-2.195, 1.011e-3
-2.196, 1.011e-3
-2.197, 1.011e-3
-2.198, 1.011e-3
-2.199, 1.011e-3
-2.200, 1.011e-3
-2.201, 1.011e-3
-2.202, 1.011e-3
-2.203, 1.011e-3
-2.204, 1.011e-3
-2.205, 1.011e-3
-2.206, 1.011e-3
-2.207, 1.011e-3
-2.208, 1.011e-3
-2.209, 1.011e-3
-2.210, 1.011e-3
-2.211, 1.011e-3
-2.212, 1.011e-3
-2.213, 1.011e-3
-2.214, 1.011e-3
-2.215, 1.011e-3
-2.216, 1.011e-3
-2.217, 1.011e-3
-2.218, 1.011e-3
-2.219, 1.011e-3
-2.220, 1.011e-3
-2.221, 1.011e-3
-2.222, 1.011e-3
-2.223, 1.011e-3
-2.224, 1.011e-3
-2.225, 1.011e-3
-2.226, 1.011e-3
-2.227, 1.011e-3
-2.228, 1.011e-3
-2.229, 1.011e-3
-2.230, 1.011e-3
-2.231, 1.011e-3
-2.232, 1.011e-3
-2.233, 1.011e-3
-2.234, 1.011e-3
-2.235, 1.011e-3
-2.236, 1.011e-3
-2.237, 1.011e-3
-2.238, 1.011e-3
-2.239, 1.011e-3
-2.240, 1.011e-3
-2.241, 1.011e-3
-2.242, 1.011e-3
-2.243, 1.011e-3
-2.244, 1.011e-3
-2.245, 1.011e-3
-2.246, 1.011e-3
-2.247, 1.011e-3
-2.248, 1.011e-3
-2.249, 1.011e-3
-2.250, 1.011e-3
-2.251, 1.011e-3
-2.252, 1.011e-3
-2.253, 1.011e-3
-2.254, 1.011e-3
-2.255, 1.011e-3
-2.256, 1.011e-3
-2.257, 1.011e-3
-2.258, 1.011e-3
-2.259, 1.011e-3
-2.260, 1.011e-3
-2.261, 1.011e-3
-2.262, 1.011e-3
-2.263, 1.011e-3
-2.264, 1.011e-3
-2.265, 1.011e-3
-2.266, 1.011e-3
-2.267, 1.011e-3
-2.268, 1.011e-3
-2.269, 1.011e-3
-2.270, 1.011e-3
-2.271, 1.011e-3
-2.272, 1.011e-3
-2.273, 1.011e-3
-2.274, 1.011e-3
-2.275, 1.011e-3
-2.276, 1.011e-3
-2.277, 1.011e-3
-2.278, 1.011e-3
-2.279, 1.011e-3
-2.280, 1.011e-3
-2.281, 1.011e-3
-2.282, 1.011e-3
-2.283, 1.011e-3
-2.284, 1.011e-3
-2.285, 1.011e-3
-2.286, 1.011e-3
-2.287, 1.011e-3
-2.288, 1.011e-3
-2.289, 1.011e-3
-2.290, 1.011e-3
-2.291, 1.011e-3
-2.292, 1.011e-3
-2.293, 1.011e-3
-2.294, 1.011e-3
-2.295, 1.011e-3
-2.296, 1.011e-3
-2.297, 1.011e-3
-2.298, 1.011e-3
-2.299, 1.011e-3
