Potential V vs RHE, Current mA cm-2
0.05339999999999995,-0.13138423841846594
0.05239999999999995,-0.13296871507431476
0.051399999999999946,-0.13401560143621494
0.050399999999999945,-0.13486442821613395
0.049399999999999944,-0.13562837231806107
0.04839999999999994,-0.1363074337419963
0.04739999999999994,-0.1369864951659315
0.04639999999999994,-0.13777873349385591
0.04539999999999994,-0.13838705935279788
0.04439999999999994,-0.13905197366373448
0.04339999999999994,-0.13964615240967776
0.04239999999999994,-0.14029691960761567
0.04139999999999994,-0.1409193925795563
0.040399999999999936,-0.14161260111649018
0.039399999999999935,-0.1421784856364362
0.038399999999999934,-0.1428858412863687
0.03739999999999993,-0.1434517258063147
0.03639999999999993,-0.14415908145624726
0.03539999999999993,-0.14472496597619325
0.03439999999999993,-0.14529085049613927
0.03339999999999993,-0.14599820614607179
0.03239999999999993,-0.1465640906660178
0.03139999999999993,-0.14741291744593682
0.030399999999999927,-0.14797880196588284
0.029399999999999926,-0.14868615761581536
0.028399999999999925,-0.14925204213576138
0.027399999999999924,-0.1499593977856939
0.026399999999999924,-0.1506667534356264
0.025399999999999923,-0.1513741090855589
0.024399999999999922,-0.15208146473549145
0.02339999999999992,-0.15264734925543746
0.02239999999999992,-0.15335470490536995
0.02139999999999992,-0.1540620605553025
0.020399999999999918,-0.15476941620523502
0.019399999999999917,-0.15547677185516753
0.018399999999999916,-0.15618412750510002
0.017399999999999916,-0.15675001202504607
0.016399999999999915,-0.1574573676749786
0.015399999999999914,-0.15816472332491108
0.014399999999999913,-0.1588720789748436
0.013399999999999912,-0.15957943462477614
0.012399999999999911,-0.16028679027470866
0.01139999999999991,-0.16113561705462764
0.01039999999999991,-0.1618429727045602
0.009399999999999908,-0.1624088572245062
0.008399999999999908,-0.16325768400442522
0.007399999999999907,-0.16396503965435774
0.006399999999999906,-0.16467239530429026
0.005399999999999905,-0.16537975095422278
0.004399999999999904,-0.16608710660415532
0.003399999999999903,-0.1666529911241013
0.002399999999999902,-0.16750181790402036
0.0013999999999999013,-0.16820917355395287
0.00039999999999990044,-0.1689165292038854
-0.0006000000000001005,-0.1696238848538179
-0.0016000000000001013,-0.17033124050375043
-0.0026000000000001022,-0.17089712502369644
-0.003600000000000103,-0.17160448067362896
-0.004600000000000104,-0.17231183632356148
-0.005600000000000105,-0.173019191973494
-0.006600000000000106,-0.1737265476234265
-0.007600000000000107,-0.17443390327335903
-0.008600000000000108,-0.17514125892329155
-0.009600000000000108,-0.17584861457322407
-0.01060000000000011,-0.17655597022315658
-0.01160000000000011,-0.1774047970030756
-0.012600000000000111,-0.1782536237829946
-0.013600000000000112,-0.17910245056291366
-0.014600000000000113,-0.17980980621284617
-0.015600000000000114,-0.1805171618627787
-0.016600000000000115,-0.18122451751271118
-0.017600000000000116,-0.18193187316264373
-0.018600000000000116,-0.18263922881257624
-0.019600000000000117,-0.18348805559249526
-0.020600000000000118,-0.18419541124242778
-0.02160000000000012,-0.1849027668923603
-0.02260000000000012,-0.1857515936722793
-0.02360000000000012,-0.18645894932221183
-0.024600000000000122,-0.18716630497214437
-0.025600000000000123,-0.18787366062207686
-0.026600000000000124,-0.18872248740199588
-0.027600000000000124,-0.18942984305192842
-0.028600000000000125,-0.19013719870186094
-0.029600000000000126,-0.19098602548177993
-0.030600000000000127,-0.19169338113171247
-0.03160000000000013,-0.192400736781645
-0.03260000000000013,-0.193249563561564
-0.03360000000000013,-0.19395691921149652
-0.03460000000000002,-0.19466427486142904
-0.03560000000000002,-0.19537163051136155
-0.03660000000000002,-0.19607898616129407
-0.03760000000000002,-0.19678634181122662
-0.03860000000000002,-0.1973522263311726
-0.039600000000000024,-0.19805958198110513
-0.040600000000000025,-0.19876693763103764
-0.041600000000000026,-0.19947429328097016
-0.04260000000000003,-0.20004017780091618
-0.04360000000000003,-0.2007475334508487
-0.04460000000000003,-0.20145488910078121
-0.04560000000000003,-0.20202077362072723
-0.04660000000000003,-0.20272812927065975
-0.04760000000000003,-0.2035769560505788
-0.04860000000000003,-0.2041428405705248
-0.04960000000000003,-0.20470872509047083
-0.050600000000000034,-0.20541608074040332
-0.051600000000000035,-0.20584049413036284
-0.052600000000000036,-0.20640637865030886
-0.053600000000000037,-0.20711373430024138
-0.05460000000000004,-0.2079625610801604
-0.05560000000000004,-0.2086699167300929
-0.05660000000000004,-0.20937727238002546
-0.05760000000000004,-0.20994315689997145
-0.05860000000000004,-0.21079198367989047
-0.05960000000000004,-0.21121639706985
-0.06060000000000004,-0.211782281589796
-0.061600000000000044,-0.21248963723972852
-0.06260000000000004,-0.21291405062968802
-0.06360000000000005,-0.21347993514963404
-0.06460000000000005,-0.21404581966958006
-0.06560000000000005,-0.21475317531951257
-0.06660000000000005,-0.2151775887094721
-0.06760000000000005,-0.2156020020994316
-0.06860000000000005,-0.21588494435940458
-0.06960000000000005,-0.2164508288793506
-0.07060000000000005,-0.21701671339929662
-0.07160000000000005,-0.21828995356917516
-0.07260000000000005,-0.21871436695913468
-0.07360000000000005,-0.21913878034909418
-0.07460000000000006,-0.2195631937390537
-0.07560000000000006,-0.2199876071290132
-0.07660000000000006,-0.22055349164895924
-0.07760000000000006,-0.22097790503891873
-0.07860000000000006,-0.22140231842887825
-0.07960000000000006,-0.22182673181883775
-0.08060000000000006,-0.22239261633878374
-0.08160000000000006,-0.22267555859875673
-0.08260000000000006,-0.22309997198871628
-0.08360000000000006,-0.2235243853786758
-0.08460000000000006,-0.2239487987686353
-0.08560000000000006,-0.22437321215859482
-0.08660000000000007,-0.22479762554855431
-0.08760000000000007,-0.22522203893851384
-0.08860000000000007,-0.22578792345845985
-0.08960000000000007,-0.22621233684841938
-0.09060000000000007,-0.22663675023837887
-0.09160000000000007,-0.2270611636283384
-0.09260000000000007,-0.22748557701829786
-0.09360000000000007,-0.22776851927827088
-0.09460000000000007,-0.2281929326682304
-0.09560000000000007,-0.22861734605818995
-0.09660000000000007,-0.22904175944814942
-0.09760000000000008,-0.2293247017081224
-0.09860000000000008,-0.22960764396809544
-0.09960000000000008,-0.23003205735805496
-0.10060000000000008,-0.23031499961802795
-0.10160000000000008,-0.2307394130079875
-0.10260000000000008,-0.2310223552679605
-0.10360000000000008,-0.2313052975279335
-0.10460000000000008,-0.231729710917893
-0.10560000000000008,-0.23201265317786599
-0.10660000000000008,-0.23229559543783898
-0.10760000000000008,-0.232578537697812
-0.10860000000000009,-0.23286147995778506
-0.10960000000000009,-0.23314442221775805
-0.11060000000000009,-0.23356883560771755
-0.11160000000000009,-0.23385177786769054
-0.11260000000000009,-0.23413472012766354
-0.11360000000000009,-0.23441766238763656
-0.11460000000000009,-0.23484207577759608
-0.11560000000000009,-0.23512501803756908
-0.11660000000000009,-0.23554943142752863
-0.1176000000000001,-0.23583237368750162
-0.1186000000000001,-0.2359738448174881
-0.1196000000000001,-0.23625678707746112
-0.1206000000000001,-0.2365397293374341
-0.1216000000000001,-0.23668120046742064
-0.1226000000000001,-0.2368226715974071
-0.1236000000000001,-0.23710561385738013
-0.1246000000000001,-0.23724708498736666
-0.1256000000000001,-0.23767149837732615
-0.1266000000000001,-0.23781296950731265
-0.1276000000000001,-0.23809591176728565
-0.1286000000000001,-0.23837885402725867
-0.1296000000000001,-0.23837885402725867
-0.1306000000000001,-0.2386617962872317
-0.1316000000000001,-0.2389447385472047
-0.1326000000000001,-0.23908620967719119
-0.1336000000000001,-0.2393691519371642
-0.1346000000000001,-0.2395106230671507
-0.1356000000000001,-0.2397935653271237
-0.1366000000000001,-0.24007650758709673
-0.1376000000000001,-0.24035944984706975
-0.1386000000000001,-0.24064239210704275
-0.1396000000000001,-0.24064239210704275
-0.1406000000000001,-0.24078386323702924
-0.14160000000000011,-0.24092533436701574
-0.14260000000000012,-0.24120827662698877
-0.14360000000000012,-0.24134974775697526
-0.14460000000000012,-0.24149121888696176
-0.14560000000000012,-0.24163269001694826
-0.14660000000000012,-0.24177416114693479
-0.14760000000000012,-0.2420571034069078
-0.14860000000000012,-0.24219857453689428
-0.14960000000000012,-0.2423400456668808
-0.15060000000000012,-0.24248151679686727
-0.15160000000000012,-0.2426229879268538
-0.15260000000000012,-0.2429059301868268
-0.15360000000000013,-0.24333034357678635
-0.15460000000000013,-0.24347181470677282
-0.15560000000000013,-0.24361328583675934
-0.15660000000000013,-0.2437547569667458
-0.15760000000000013,-0.24389622809673234
-0.15860000000000013,-0.24403769922671883
-0.15960000000000002,-0.24417917035670533
-0.16060000000000002,-0.2443206414866918
-0.16160000000000002,-0.2443206414866918
-0.16260000000000002,-0.24446211261667833
-0.16360000000000002,-0.24474505487665132
-0.16460000000000002,-0.24488652600663782
-0.16560000000000002,-0.24502799713662435
-0.16660000000000003,-0.24531093939659734
-0.16760000000000003,-0.24531093939659734
-0.16860000000000003,-0.24545241052658387
-0.16960000000000003,-0.24559388165657034
-0.17060000000000003,-0.24573535278655687
-0.17160000000000003,-0.24587682391654336
-0.17260000000000003,-0.2460182950465299
-0.17360000000000003,-0.24615976617651636
-0.17460000000000003,-0.24630123730650288
-0.17560000000000003,-0.24658417956647588
-0.17660000000000003,-0.24672565069646235
-0.17760000000000004,-0.24672565069646235
-0.17860000000000004,-0.24700859295643537
-0.17960000000000004,-0.2471500640864219
-0.18060000000000004,-0.24729153521640837
-0.18160000000000004,-0.2474330063463949
-0.18260000000000004,-0.24757447747638137
-0.18360000000000004,-0.2477159486063679
-0.18460000000000004,-0.24785741973635445
-0.18560000000000004,-0.24799889086634092
-0.18660000000000004,-0.24814036199632744
-0.18760000000000004,-0.24814036199632744
-0.18860000000000005,-0.2482818331263139
-0.18960000000000005,-0.24842330425630044
-0.19060000000000005,-0.2485647753862869
-0.19160000000000005,-0.24884771764625993
-0.19260000000000005,-0.24884771764625993
-0.19360000000000005,-0.24898918877624646
-0.19460000000000005,-0.24913065990623293
-0.19560000000000005,-0.24927213103621945
-0.19660000000000005,-0.24941360216620592
-0.19760000000000005,-0.24955507329619245
-0.19860000000000005,-0.24969654442617895
-0.19960000000000006,-0.24983801555616547
-0.20060000000000006,-0.24997948668615194
-0.20160000000000006,-0.25012095781613847
-0.20260000000000006,-0.25026242894612494
-0.20360000000000006,-0.25040390007611146
-0.20460000000000006,-0.250545371206098
-0.20560000000000006,-0.25068684233608446
-0.20660000000000006,-0.250828313466071
-0.20760000000000006,-0.25096978459605745
-0.20860000000000006,-0.251111255726044
-0.20960000000000006,-0.25139419798601703
-0.21060000000000006,-0.2515356691160035
-0.21160000000000007,-0.25167714024599
-0.21260000000000007,-0.2518186113759765
-0.21360000000000007,-0.251960082505963
-0.21460000000000007,-0.252243024765936
-0.21560000000000007,-0.2523844958959225
-0.21660000000000007,-0.252525967025909
-0.21760000000000007,-0.2526674381558955
-0.21860000000000007,-0.25295038041586854
-0.21960000000000007,-0.25309185154585506
-0.22060000000000007,-0.2532333226758416
-0.22160000000000007,-0.2535162649358146
-0.22260000000000008,-0.25365773606580105
-0.22360000000000008,-0.25365773606580105
-0.22460000000000008,-0.2537992071957876
-0.22560000000000008,-0.2540821494557606
-0.22660000000000008,-0.25422362058574705
-0.22760000000000008,-0.25450656284572004
-0.22860000000000008,-0.2547895051056931
-0.22960000000000008,-0.25493097623567956
-0.23060000000000008,-0.25507244736566614
-0.23160000000000008,-0.25535538962563914
-0.23260000000000008,-0.25563833188561214
-0.23360000000000009,-0.25563833188561214
-0.2346000000000001,-0.2557798030155986
-0.2356000000000001,-0.2560627452755716
-0.2366000000000001,-0.25634568753554465
-0.2376000000000001,-0.2564871586655311
-0.2386000000000001,-0.25662862979551765
-0.2396000000000001,-0.25691157205549064
-0.2406000000000001,-0.2571945143154637
-0.2416000000000001,-0.2574774565754367
-0.2426000000000001,-0.2577603988354097
-0.2436000000000001,-0.25790186996539616
-0.2446000000000001,-0.2583262833553557
-0.2456000000000001,-0.2586092256153287
-0.2466000000000001,-0.2588921678753017
-0.2476000000000001,-0.25903363900528825
-0.2486000000000001,-0.25931658126526125
-0.2496000000000001,-0.25974099465522077
-0.2506000000000001,-0.25988246578520724
-0.2516000000000001,-0.26030687917516676
-0.2526000000000001,-0.26044835030515323
-0.2536000000000001,-0.2608727636951128
-0.2546000000000001,-0.2610142348250993
-0.2556000000000001,-0.26129717708507233
-0.2566000000000001,-0.2617215904750318
-0.2576000000000001,-0.2620045327350048
-0.2586000000000001,-0.2622874749949778
-0.2596000000000001,-0.2625704172549508
-0.2606000000000001,-0.2628533595149239
-0.2616000000000001,-0.2631363017748969
-0.2626000000000001,-0.26356071516485635
-0.2636000000000001,-0.26384365742482935
-0.2646000000000001,-0.26426807081478887
-0.2656000000000001,-0.26455101307476186
-0.2666000000000001,-0.2648339553347349
-0.2676000000000001,-0.2652583687246944
-0.2686000000000001,-0.26554131098466743
-0.2696000000000001,-0.26582425324464043
-0.2706000000000001,-0.2662486666345999
-0.2716000000000001,-0.2663901377645864
-0.2726000000000001,-0.26695602228453247
-0.2736000000000001,-0.26723896454450546
-0.2746000000000001,-0.26766337793446493
-0.2756000000000001,-0.26808779132442445
-0.2766000000000001,-0.26837073358439745
-0.2776000000000001,-0.268795146974357
-0.2786000000000001,-0.26907808923433
-0.2796000000000001,-0.2695025026242895
-0.2806000000000001,-0.269926916014249
-0.28160000000000013,-0.27035132940420853
-0.28260000000000013,-0.27077574279416805
-0.28360000000000013,-0.27120015618412757
-0.2846,-0.27148309844410057
-0.2856,-0.27204898296404656
-0.2866,-0.2724733963540061
-0.2876,-0.27303928087395213
-0.2886,-0.2734636942639116
-0.2896,-0.2738881076538711
-0.2906,-0.27459546330380363
-0.2916,-0.27487840556377663
-0.2926,-0.27530281895373615
-0.2936,-0.27586870347368214
-0.29460000000000003,-0.2764345879936282
-0.29560000000000003,-0.2768590013835877
-0.29660000000000003,-0.2772834147735472
-0.29760000000000003,-0.27784929929349317
-0.29860000000000003,-0.27841518381343927
-0.29960000000000003,-0.27898106833338526
-0.30060000000000003,-0.27954695285333125
-0.30160000000000003,-0.2801128373732773
-0.30260000000000004,-0.2806787218932233
-0.30360000000000004,-0.2812446064131693
-0.30460000000000004,-0.2818104909331153
-0.30560000000000004,-0.2823763754530613
-0.30660000000000004,-0.28308373110299384
-0.30760000000000004,-0.28364961562293983
-0.30860000000000004,-0.2842155001428859
-0.30960000000000004,-0.28478138466283187
-0.31060000000000004,-0.2854887403127644
-0.31160000000000004,-0.28605462483271044
-0.31260000000000004,-0.28676198048264295
-0.31360000000000005,-0.2874693361325754
-0.31460000000000005,-0.2880352206525215
-0.31560000000000005,-0.288742576302454
-0.31660000000000005,-0.28959140308237297
-0.31760000000000005,-0.290157287602319
-0.31860000000000005,-0.29086464325225153
-0.31960000000000005,-0.2915719989021841
-0.32060000000000005,-0.29227935455211657
-0.32160000000000005,-0.2934111235920086
-0.32260000000000005,-0.29425995037192765
-0.32360000000000005,-0.29510877715184664
-0.32460000000000006,-0.2956746616717927
-0.32560000000000006,-0.29652348845171167
-0.32660000000000006,-0.2972308441016442
-0.32760000000000006,-0.29822114201154976
-0.32860000000000006,-0.2989284976614822
-0.32960000000000006,-0.29977732444140126
-0.33060000000000006,-0.3006261512213203
-0.33160000000000006,-0.30147497800123935
-0.33260000000000006,-0.30232380478115833
-0.33360000000000006,-0.3031726315610774
-0.33460000000000006,-0.30402145834099636
-0.33560000000000006,-0.3050117562509019
-0.33660000000000007,-0.30600205416080745
-0.33760000000000007,-0.30685088094072643
-0.33860000000000007,-0.30784117885063195
-0.33960000000000007,-0.30883147676053746
-0.34060000000000007,-0.3096803035404565
-0.34160000000000007,-0.310670601450362
-0.34260000000000007,-0.3116608993602676
-0.34360000000000007,-0.3127926684001596
-0.3446000000000001,-0.31378296631006514
-0.3456000000000001,-0.3149147353499572
-0.3466000000000001,-0.31604650438984916
-0.34759999999999996,-0.3170368022997547
-0.3486000000000001,-0.31802710020966024
-0.34959999999999997,-0.3191588692495523
-0.3506000000000001,-0.3204321094194308
-0.35159999999999997,-0.3215638784593228
-0.3526000000000001,-0.32269564749921487
-0.35359999999999997,-0.32382741653910685
-0.3546000000000001,-0.3249591855789989
-0.35559999999999997,-0.3260909546188909
-0.3566000000000001,-0.32722272365878297
-0.3576,-0.32849596382866153
-0.3586000000000001,-0.32976920399854004
-0.3596,-0.3310424441684186
-0.3606000000000001,-0.3323156843382971
-0.3616,-0.3335889245081756
-0.3626000000000001,-0.3348621646780542
-0.3636,-0.33613540484793275
-0.3646000000000001,-0.33740864501781126
-0.3656,-0.3388233563176763
-0.3666000000000001,-0.34023806761754133
-0.3676,-0.3416527789174064
-0.3686000000000001,-0.3432089613472579
-0.3696,-0.34462367264712296
-0.3706000000000001,-0.346321326206961
-0.3716,-0.34759456637683955
-0.3726000000000001,-0.34886780654671806
-0.3736,-0.35014104671659657
-0.3746000000000001,-0.35155575801646166
-0.3756,-0.35297046931632664
-0.3766000000000001,-0.3543851806161917
-0.3776,-0.35579989191605677
-0.3786000000000001,-0.35735607434590827
-0.3796,-0.3587707856457733
-0.3806000000000001,-0.36018549694563834
-0.3816,-0.3616002082455034
-0.3826000000000001,-0.36315639067535493
-0.3836,-0.3645711019752199
-0.3846000000000001,-0.365985813275085
-0.3856,-0.3675419957049365
-0.3866000000000001,-0.36909817813478807
-0.3876,-0.37051288943465316
-0.3886000000000001,-0.3720690718645046
-0.3896,-0.3737667254243427
-0.3906000000000001,-0.3753229078541942
-0.3916,-0.37687909028404576
-0.3926000000000001,-0.37857674384388385
-0.3936,-0.3802743974037219
-0.3946000000000001,-0.38211352209354643
-0.3956,-0.38366970452339794
-0.3966000000000001,-0.3855088292132225
-0.3976,-0.387347953903047
-0.3986000000000001,-0.3890456074628851
-0.3996,-0.39088473215270964
-0.4006000000000001,-0.39272385684253414
-0.4016,-0.3944215104023722
-0.4026000000000001,-0.3962606350921968
-0.4036,-0.39809975978202133
-0.4046000000000001,-0.40008035560183236
-0.4056,-0.4019194802916569
-0.40660000000000013,-0.40390007611146794
-0.4076,-0.405880671931279
-0.40860000000000013,-0.4080027388810766
-0.4096,-0.40998333470088766
-0.41060000000000013,-0.4121054016506852
-0.4116,-0.41436893973046923
-0.41260000000000013,-0.4163495355502803
-0.4136,-0.41833013137009134
-0.41460000000000014,-0.4205936694498755
-0.4156,-0.42271573639967297
-0.41660000000000014,-0.42497927447945705
-0.4176,-0.4273842836892276
-0.41860000000000014,-0.4296478217690116
-0.41960000000000003,-0.4319113598487957
-0.42060000000000014,-0.4341748979285798
-0.42160000000000003,-0.4365799071383503
-0.42260000000000014,-0.43898491634812087
-0.42360000000000003,-0.4412484544279049
-0.42460000000000014,-0.443794934767662
-0.42560000000000003,-0.4463414151074191
-0.42660000000000015,-0.44874642431718964
-0.42760000000000004,-0.4514343757869332
-0.42860000000000015,-0.45398085612669026
-0.42960000000000004,-0.45652733646644733
-0.43060000000000015,-0.4593567590661774
-0.43160000000000004,-0.4619032394059345
-0.43260000000000015,-0.46487413313565107
-0.43360000000000004,-0.4678450268653676
-0.43460000000000015,-0.4706744494650977
-0.43560000000000004,-0.4733624009348413
-0.43660000000000015,-0.47633329466455787
-0.43760000000000004,-0.47916271726428794
-0.43860000000000016,-0.48213361099400454
-0.43960000000000005,-0.4851045047237211
-0.44060000000000016,-0.4882168695834242
