Potential V vs RHE, Current mA cm-2
0.013299999999999867,-2.662486666345999
0.012299999999999978,-3.7532290785419424
0.011299999999999866,-4.712403339850438
0.010299999999999976,-5.5414241615713475
0.009299999999999864,-6.238876832404812
0.008299999999999974,-6.850032113946507
0.007299999999999862,-7.4173313451923875
0.006299999999999972,-7.940774526142452
0.00529999999999986,-8.4203616567967
0.0042999999999999705,-8.812236686859313
0.0032999999999998586,-9.11781432763016
0.0022999999999999687,-9.467248018696827
0.0012999999999998568,-9.772825659467674
0.00029999999999996696,-10.078403300238522
-0.000700000000000145,-10.382566229709504
-0.0017000000000000348,-10.557990430892769
-0.0027000000000001467,-10.775855971071984
-0.0037000000000000366,-11.037577561547016
-0.0047000000000001485,-11.255443101726232
-0.005700000000000038,-11.42945259160963
-0.00670000000000015,-11.56102074249708
-0.00770000000000004,-11.73503023238048
-0.008700000000000152,-11.909039722263879
-0.009700000000000042,-12.084463923447142
-0.010700000000000154,-12.214617363034726
-0.011700000000000044,-12.346185513922174
-0.012700000000000156,-12.432482903213943
-0.013700000000000045,-12.56405105410139
-0.014700000000000157,-12.694204493688973
-0.015700000000000047,-12.781916594280606
-0.01670000000000016,-12.869628694872238
-0.01770000000000005,-12.955926084164007
-0.01870000000000016,-13.087494235051453
-0.01970000000000005,-13.261503724934855
-0.020700000000000163,-13.349215825526485
-0.021700000000000053,-13.436927926118118
-0.022700000000000164,-13.523225315409885
-0.023700000000000054,-13.654793466297335
-0.024700000000000166,-13.828802956180734
-0.025700000000000056,-13.916515056772363
-0.026700000000000168,-14.002812446064135
-0.027700000000000058,-14.090524546655764
-0.02870000000000017,-14.175407224647667
-0.02970000000000006,-14.26028990263957
-0.03070000000000017,-14.345172580631472
-0.03170000000000006,-14.401761032626075
-0.03270000000000017,-14.444202371622024
-0.03370000000000006,-14.57152638860988
-0.034700000000000175,-14.69885040559773
-0.035700000000000065,-14.826174422585586
-0.03670000000000018,-14.868615761581536
-0.03770000000000007,-14.967645552572087
-0.03870000000000018,-15.094969569559943
-0.03970000000000007,-15.222293586547794
-0.04070000000000018,-15.307176264539699
-0.04170000000000007,-15.307176264539699
-0.04270000000000018,-15.3920589425316
-0.04370000000000007,-15.491088733522153
-0.044700000000000184,-15.575971411514052
-0.045700000000000074,-15.660854089505953
-0.046700000000000186,-15.74573676749786
-0.047700000000000076,-15.830619445489761
-0.04870000000000019,-16.014531914472215
-0.04970000000000008,-16.099414592464115
-0.05070000000000019,-16.141855931460068
-0.05170000000000008,-16.184297270456018
-0.05270000000000019,-16.22673860945197
-0.05370000000000008,-16.269179948447924
-0.05470000000000019,-16.354062626439823
-0.05570000000000008,-16.438945304431726
-0.056700000000000195,-16.495533756426326
-0.057700000000000085,-16.580416434418233
-0.058700000000000196,-16.70774045140608
-0.059700000000000086,-16.835064468393938
-0.0607000000000002,-16.919947146385837
-0.06170000000000009,-16.919947146385837
-0.0627000000000002,-17.018976937376394
-0.06370000000000009,-17.103859615368293
-0.0647000000000002,-17.146300954364243
-0.06570000000000009,-17.231183632356142
-0.0667000000000002,-17.316066310348052
-0.0677000000000001,-17.40094898833995
-0.0687000000000002,-17.48583166633185
-0.0697000000000001,-17.584861457322408
-0.07070000000000021,-17.669744135314307
-0.0717000000000001,-17.71218547431026
-0.07270000000000021,-17.75462681330621
-0.0737000000000001,-17.881950830294063
-0.07470000000000021,-18.009274847281915
-0.0757000000000001,-18.10830463827247
-0.07670000000000021,-18.10830463827247
-0.0777000000000001,-18.15074597726842
-0.07870000000000021,-18.19318731626437
-0.0797000000000001,-18.23562865526032
-0.08070000000000022,-18.27806999425627
-0.0817000000000001,-18.320511333252224
-0.08270000000000022,-18.40539401124413
-0.08370000000000011,-18.49027668923603
-0.08470000000000022,-18.589306480226583
-0.08570000000000011,-18.674189158218486
-0.08670000000000022,-18.674189158218486
-0.08770000000000011,-18.759071836210385
-0.08870000000000022,-18.843954514202288
-0.08970000000000011,-18.92883719219419
-0.09070000000000022,-19.01371987018609
-0.09170000000000011,-19.01371987018609
-0.09270000000000023,-19.112749661176647
-0.09370000000000012,-19.197632339168546
-0.09470000000000023,-19.28251501716045
-0.09570000000000012,-19.367397695152352
-0.09670000000000023,-19.409839034148305
-0.09770000000000012,-19.49472171214021
-0.09870000000000023,-19.537163051136158
-0.09970000000000012,-19.636192842126707
-0.10070000000000023,-19.678634181122664
-0.10170000000000012,-19.763516859114564
-0.10270000000000024,-19.805958198110513
-0.10370000000000013,-19.890840876102416
-0.10470000000000024,-19.97572355409432
-0.10570000000000013,-20.01816489309027
-0.10670000000000024,-20.10304757108217
-0.10770000000000013,-20.159636023076775
-0.10870000000000024,-20.244518701068674
-0.10970000000000013,-20.329401379060574
-0.11070000000000024,-20.371842718056527
-0.11170000000000013,-20.414284057052477
-0.11270000000000002,-20.414284057052477
-0.11370000000000013,-20.499166735044383
-0.11470000000000002,-20.584049413036283
-0.11570000000000014,-20.626490752032236
-0.11670000000000003,-20.683079204026836
-0.11770000000000014,-20.76796188201874
-0.11870000000000003,-20.85284456001064
-0.11970000000000014,-20.93772723800254
-0.12070000000000003,-21.022609915994444
-0.12170000000000014,-21.107492593986347
-0.12270000000000003,-21.2065223849769
-0.12370000000000014,-21.333846401964752
-0.12470000000000003,-21.418729079956652
-0.12570000000000014,-21.503611757948562
-0.12670000000000003,-21.54605309694451
-0.12770000000000015,-21.58849443594046
-0.12870000000000004,-21.729965565926964
-0.12970000000000015,-21.857289582914817
-0.13070000000000004,-21.899730921910766
-0.13170000000000015,-21.98461359990267
-0.13270000000000004,-22.027054938898623
-0.13370000000000015,-22.15437895588647
-0.13470000000000004,-22.295850085872978
-0.13570000000000015,-22.38073276386488
-0.13670000000000004,-22.46561544185678
-0.13770000000000016,-22.508056780852733
-0.13870000000000005,-22.63538079784059
-0.13970000000000016,-22.72026347583249
-0.14070000000000005,-22.776851927827092
-0.14170000000000016,-22.861734605818995
-0.14270000000000005,-22.946617283810895
-0.14370000000000016,-23.073941300798747
-0.14470000000000005,-23.2012653177866
-0.14570000000000016,-23.342736447773106
-0.14670000000000005,-23.385177786769056
-0.14770000000000016,-23.47006046476096
-0.14870000000000005,-23.597384481748815
-0.14970000000000017,-23.724708498736668
-0.15070000000000006,-23.823738289727217
-0.15170000000000017,-23.823738289727217
-0.15270000000000006,-23.908620967719123
-0.15370000000000017,-24.035944984706973
-0.15470000000000006,-24.120827662698876
-0.15570000000000017,-24.24815167968673
-0.15670000000000006,-24.34718147067728
-0.15770000000000017,-24.474505487665134
-0.15870000000000006,-24.601829504652986
-0.15970000000000018,-24.771594860636792
-0.16070000000000007,-24.870624651627345
-0.16170000000000018,-24.95550732961925
-0.16270000000000007,-25.04039000761115
-0.16370000000000018,-25.167714024599
-0.16470000000000007,-25.252596702590903
-0.16570000000000018,-25.337479380582806
-0.16670000000000007,-25.43650917157336
-0.16770000000000018,-25.478950510569312
-0.16870000000000007,-25.648715866553115
-0.16970000000000018,-25.77603988354097
-0.17070000000000007,-25.91751101352747
-0.17170000000000019,-26.044835030515326
-0.17270000000000008,-26.17215904750318
-0.1737000000000002,-26.34192440348698
-0.17470000000000008,-26.483395533473487
-0.1757000000000002,-26.61071955046134
-0.17670000000000008,-26.69560222845324
-0.1777000000000002,-26.822926245441096
-0.17870000000000008,-26.9643973754276
-0.1797000000000002,-27.091721392415455
-0.18070000000000008,-27.219045409403304
-0.1817000000000002,-27.303928087395207
-0.18270000000000008,-27.43125210438306
-0.1837000000000002,-27.615164573365515
-0.1847000000000001,-27.827371268345274
-0.1857000000000002,-27.954695285333123
-0.1867000000000001,-28.05372507632368
-0.1877000000000002,-28.18104909331153
-0.1887000000000001,-28.308373110299385
-0.1897000000000002,-28.435697127287238
-0.1907000000000001,-28.619609596269694
-0.1917000000000001,-28.746933613257543
-0.19269999999999998,-28.8742576302454
-0.1937000000000001,-29.001581647233255
-0.19469999999999998,-29.18549411621571
-0.1957000000000001,-29.27037679420761
-0.19669999999999999,-29.39770081119546
-0.1977000000000001,-29.525024828183312
-0.1987,-29.751378636161718
-0.1997000000000001,-29.921143992145527
-0.2007,-30.10505646112798
-0.2017000000000001,-30.232380478115836
-0.2027,-30.359704495103685
-0.2037000000000001,-30.529469851087494
-0.2047,-30.71338232006995
-0.2057000000000001,-30.88314767605375
-0.2067,-31.010471693041605
-0.2077000000000001,-31.137795710029454
-0.2087,-31.321708179011907
-0.2097000000000001,-31.49147353499572
-0.2107,-31.618797551983565
-0.2117000000000001,-31.84515135996197
-0.2127,-32.01491671594578
-0.2137000000000001,-32.184682071929586
-0.2147,-32.41103587990799
-0.2157000000000001,-32.62324257488775
-0.2167,-32.764713704874254
-0.21770000000000012,-32.892037721862096
-0.2187,-33.10424441684186
-0.21970000000000012,-33.288156885824314
-0.2207,-33.45792224180811
-0.22170000000000012,-33.627687597791926
-0.2227,-33.755011614779775
-0.22370000000000012,-33.93892408376223
-0.2247,-34.15113077874198
-0.22570000000000012,-34.41992592571634
-0.2267,-34.5472499427042
-0.22770000000000012,-34.717015298688004
-0.22870000000000001,-34.94336910666641
-0.22970000000000013,-35.15557580164616
-0.23070000000000002,-35.32534115762997
-0.23170000000000013,-35.46681228761647
-0.23270000000000002,-35.679018982596226
-0.23370000000000013,-35.94781412957058
-0.23470000000000002,-36.16002082455034
-0.23570000000000013,-36.329786180534136
-0.23670000000000002,-36.5136986495166
-0.2376999999999999,-36.6834640055004
-0.23870000000000002,-36.89567070048016
-0.2396999999999999,-37.164465847454515
-0.24070000000000003,-37.41911388143023
-0.24169999999999991,-37.60302635041268
-0.24270000000000003,-37.73035036740053
-0.24369999999999992,-37.94255706238028
-0.24470000000000003,-38.16891087035869
-0.24569999999999992,-38.33867622634249
-0.24670000000000003,-38.5650300343209
-0.24769999999999992,-38.734795390304704
-0.24870000000000003,-38.98944342428042
-0.24969999999999992,-39.173355893262865
-0.25070000000000003,-39.38556258824262
-0.2516999999999999,-39.56947505722508
-0.25270000000000004,-39.739240413208876
-0.2536999999999999,-40.03632978618054
-0.25470000000000004,-40.30512493315489
-0.2556999999999999,-40.51733162813464
-0.25670000000000004,-40.701244097117105
-0.25769999999999993,-40.828568114104954
-0.25870000000000004,-40.99833347008877
-0.25969999999999993,-41.182245939071215
-0.26070000000000004,-41.352011295055014
-0.26169999999999993,-41.56421799003478
-0.26270000000000004,-41.83301313700913
-0.26369999999999993,-42.087661170984845
-0.26470000000000005,-42.3564563179592
-0.26569999999999994,-42.526221673943
-0.26670000000000005,-42.71013414292546
-0.26769999999999994,-42.87989949890926
-0.26870000000000005,-43.09210619388902
-0.26969999999999994,-43.31846000186743
-0.27070000000000005,-43.53066669684718
-0.27169999999999994,-43.75702050482558
-0.27270000000000005,-44.011668538801295
-0.27369999999999994,-44.223875233781044
-0.27470000000000006,-44.4926703807554
-0.27569999999999995,-44.74731841473111
-0.27670000000000006,-44.93123088371356
-0.27769999999999995,-45.05855490070142
-0.27870000000000006,-45.27076159568118
-0.27969999999999995,-45.45467406466363
-0.28070000000000006,-45.666880759643384
-0.28169999999999995,-45.85079322862584
-0.28270000000000006,-46.10544126260155
-0.28369999999999995,-46.37423640957591
-0.28470000000000006,-46.713767121543505
-0.28569999999999995,-47.02500360751382
-0.28670000000000007,-47.23721030249357
-0.28769999999999996,-47.40697565847737
-0.28870000000000007,-47.71821214444768
-0.28969999999999996,-47.987007291422046
-0.29070000000000007,-48.156772647405845
-0.29169999999999996,-48.2840966643937
-0.29270000000000007,-48.51045047237211
-0.29369999999999996,-48.80753984534376
-0.2947000000000001,-49.16121767031002
-0.29569999999999996,-49.458307043281685
-0.2967000000000001,-49.76954352925199
-0.29769999999999996,-50.024191563227696
-0.2987000000000001,-50.2505453712061
-0.29969999999999997,-50.50519340518181
-0.3007000000000001,-50.77398855215617
-0.30169999999999997,-51.028636586131874
-0.3027000000000001,-51.25499039411028
-0.30369999999999997,-51.55207976708194
-0.3047000000000001,-51.948198931044146
-0.30569999999999997,-52.2169940780185
-0.3067000000000001,-52.386759434002315
-0.3077,-52.64140746797801
-0.3087000000000001,-52.995085292944275
-0.3097,-53.26388043991864
-0.3107000000000001,-53.56096981289029
-0.3117,-53.91464763785655
-0.3127000000000001,-54.26832546282281
-0.3137,-54.65029751378637
-0.3147000000000001,-55.003975338752625
-0.3157,-55.400094502714836
-0.3167000000000001,-55.6971838756865
-0.3177,-56.008420361656796
-0.3187000000000001,-56.404539525619015
-0.3197,-56.786511576582576
-0.3207000000000001,-57.182630740544774
-0.3217,-57.45142588751914
-0.3227000000000001,-57.8333979384827
-0.3237,-58.35684111943277
-0.3247000000000001,-58.880284300382826
-0.3257,-59.31884480334099
-0.3267000000000001,-59.7998466452951
-0.3277,-60.28084848724921
-0.3287000000000001,-60.84673300719523
-0.3297,-61.28529351015339
-0.3307000000000001,-61.80873669110345
-0.3317,-62.37462121104946
-0.3327000000000001,-62.94050573099548
-0.3337,-63.59127292893339
-0.3347000000000001,-64.25618723986996
-0.3357,-64.90695443780788
-0.3367000000000001,-65.5577216357458
-0.3377,-66.08116481669586
-0.3387000000000001,-66.64704933664189
-0.3397,-67.34025787357575
-0.3407000000000001,-68.0051721845123
-0.3417,-68.65593938245023
-0.3427000000000001,-69.39158925838004
-0.3437,-70.18382758630447
-0.3447000000000001,-70.91947746223428
-0.3457,-71.66927445116276
-0.3467000000000001,-72.40492432709259
-0.3477,-73.197162655017
-0.3487000000000001,-73.97525386994278
-0.3497,-74.80993353686314
-0.3507000000000001,-75.6729074297808
-0.3517,-76.50758709670117
-0.3527000000000001,-77.34226676362155
-0.3537,-78.33256467352709
-0.3547000000000001,-79.37945103542721
-0.3557,-80.29901338033947
-0.35670000000000013,-81.13369304725985
-0.3577,-81.99666694017753
-0.35870000000000013,-83.0011119630817
-0.3597,-83.96311564698992
-0.36070000000000013,-84.92511933089816
-0.3617,-85.97200569279828
-0.3626999999999999,-87.06133339369435
-0.3637,-88.06577841659853
-0.3646999999999999,-89.02778210050676
-0.3657,-90.07466846240689
-0.3666999999999999,-91.16399616330297
-0.3677,-92.2108825252031
-0.3686999999999999,-93.34265156509512
-0.36970000000000003,-94.55930328297906
-0.3706999999999999,-95.69107232287108
-0.37170000000000003,-96.65307600677932
-0.3726999999999999,-97.61507969068752
-0.37370000000000003,-98.74684873057957
-0.3746999999999999,-99.93520622246619
-0.37570000000000003,-101.06697526235823
-0.3766999999999999,-102.11386162425833
-0.37770000000000004,-103.20318932515443
-0.3786999999999999,-104.41984104303836
-0.37970000000000004,-105.59405142192634
-0.3806999999999999,-106.68337912282242
-0.38170000000000004,-107.78685393671715
-0.38269999999999993,-108.91862297660917
-0.38370000000000004,-110.05039201650122
-0.38469999999999993,-111.18216105639323
-0.38570000000000004,-112.31393009628526
-0.38669999999999993,-112.54028390426367
-0.38570000000000004,-111.3094850733811
-0.38469999999999993,-110.40406984146746
-0.38370000000000004,-109.56939017454708
-0.38269999999999993,-108.69226916863077
-0.38170000000000004,-107.87173661470905
-0.3806999999999999,-107.07949828678463
-0.37970000000000004,-106.34384841085482
-0.3786999999999999,-105.59405142192634
-0.37770000000000004,-104.90084288499246
-0.3766999999999999,-104.41984104303836
-0.37570000000000003,-103.7266325061045
-0.3746999999999999,-102.93439417818009
-0.37370000000000003,-102.19874430225026
-0.3726999999999999,-101.40650597432582
-0.37170000000000003,-100.40206095142165
-0.3706999999999999,-99.27029191152963
-0.36970000000000003,-98.364876679616
-0.3686999999999999,-97.61507969068752
-0.3677,-96.79454713676581
-0.3666999999999999,-95.83254345285758
-0.3657,-95.12518780292505
-0.3646999999999999,-94.4319792659912
-0.3637,-93.61144671206948
-0.3626999999999999,-92.7767670451491
-0.3617,-92.08355850821525
-0.36070000000000013,-91.33376151928677
-0.3597,-90.47078762636909
-0.35870000000000013,-89.59366662045278
-0.3577,-88.7589869535324
-0.35670000000000013,-87.89601306061473
-0.3557,-87.01889205469841
-0.3547000000000001,-86.05688837079018
-0.3537,-85.17976736487385
-0.3527000000000001,-84.40167614994809
-0.3517,-83.75090895201016
-0.3507000000000001,-83.08599464107361
-0.3497,-82.43522744313569
-0.3487000000000001,-81.69957756720586
-0.3477,-80.9497805782774
-0.3467000000000001,-80.08680668535972
-0.3457,-79.16724434044745
-0.3447000000000001,-78.33256467352709
-0.3437,-77.59691479759726
-0.3427000000000001,-76.7622351306769
-0.3417,-75.8992612377592
-0.3407000000000001,-75.06458157083884
-0.3397,-74.37137303390499
-0.3387000000000001,-73.57913470598055
-0.3377,-72.80104349105478
-0.3367000000000001,-72.00880516313036
-0.3357,-71.27315528720055
-0.3347000000000001,-70.48091695927613
-0.3337,-69.6603844053544
-0.3327000000000001,-68.86814607742998
-0.3317,-68.13249620150016
-0.3307000000000001,-67.34025787357575
-0.3297,-66.56216665864997
-0.3287000000000001,-65.7274869917296
-0.3277,-64.99183711579978
-0.3267000000000001,-64.25618723986996
-0.3257,-63.421507572949594
-0.3247000000000001,-62.64341635802381
-0.3237,-61.936060708091304
-0.3227000000000001,-61.20041083216149
-0.3217,-60.36573116524111
-0.3207000000000001,-59.6300812893113
-0.3197,-58.92272563937878
-0.3187000000000001,-58.22951710244491
-0.3177,-57.53630856551105
-0.3167000000000001,-56.88554136757313
-0.3157,-56.1781857176406
-0.3147000000000001,-55.484977180706736
-0.3137,-54.65029751378637
-0.3127000000000001,-53.82976495986464
-0.3117,-53.03752663194023
-0.3107000000000001,-52.30187675601041
-0.3097,-51.65110955807249
-0.3087000000000001,-50.98619524713592
-0.3077,-50.37786938819396
-0.3067000000000001,-49.642219512264134
-0.30569999999999997,-48.84998118433972
-0.3047000000000001,-48.156772647405845
-0.30369999999999997,-47.54844678846388
-0.3027000000000001,-46.84109113853137
-0.30169999999999997,-46.10544126260155
-0.3007000000000001,-45.412232725667685
-0.29969999999999997,-44.66243573673921
-0.2987000000000001,-43.96922719980534
-0.29769999999999996,-43.27601866287147
-0.2967000000000001,-42.568663012938956
-0.29569999999999996,-41.96033715399699
-0.2947000000000001,-41.352011295055014
-0.29369999999999996,-40.743685436113054
-0.29270000000000007,-40.092918238175145
-0.29169999999999996,-39.42800392723857
-0.29070000000000007,-38.81967806829661
-0.28969999999999996,-38.16891087035869
-0.28870000000000007,-37.60302635041268
-0.28769999999999996,-36.95225915247476
-0.28670000000000007,-36.244903502542236
-0.28569999999999995,-35.594136304604326
-0.28470000000000006,-35.02825178465831
-0.28369999999999995,-34.41992592571634
-0.28270000000000006,-33.81160006677438
-0.28169999999999995,-33.14668575583781
-0.28070000000000006,-32.58080123589179
-0.27969999999999995,-32.01491671594578
-0.27870000000000006,-31.449032195999767
-0.27769999999999995,-30.925589015049702
-0.27670000000000006,-30.317263156107735
-0.27569999999999995,-29.66649595816982
-0.27470000000000006,-29.100611438223805
-0.27369999999999994,-28.53472691827779
-0.27270000000000005,-27.954695285333123
-0.27169999999999994,-27.34636942639116
-0.27070000000000005,-26.738043567449193
-0.26969999999999994,-26.21460038649913
-0.26870000000000005,-25.77603988354097
-0.26769999999999994,-25.252596702590903
-0.26670000000000005,-24.686712182644893
