Potential V vs RHE, Current mA cm-2
0.013299999999999867,-3.0996324580042955
0.012299999999999978,-4.364384360083638
0.011299999999999866,-5.497568111275533
0.010299999999999976,-6.54445447317566
0.009299999999999864,-7.50504344578402
0.008299999999999974,-8.4203616567967
0.007299999999999862,-9.24938247851761
0.006299999999999972,-10.034547249942705
0.00529999999999986,-10.819712021367803
0.0042999999999999705,-11.517164692201263
0.0032999999999998586,-12.258473413330542
0.0022999999999999687,-12.913484745168056
0.0012999999999998568,-13.567081365705702
0.00029999999999996696,-14.13438059695158
-0.000700000000000145,-14.69885040559773
-0.0017000000000000348,-15.222293586547794
-0.0027000000000001467,-15.74573676749786
-0.0037000000000000366,-16.184297270456018
-0.0047000000000001485,-16.665299112410132
-0.005700000000000038,-17.061418276372343
-0.00670000000000015,-17.48583166633185
-0.00770000000000004,-17.881950830294063
-0.008700000000000152,-18.27806999425627
-0.009700000000000042,-18.674189158218486
-0.010700000000000154,-19.056161209182044
-0.011700000000000044,-19.409839034148305
-0.012700000000000156,-19.763516859114564
-0.013700000000000045,-20.06060623208622
-0.014700000000000157,-20.371842718056527
-0.015700000000000047,-20.683079204026836
-0.01670000000000016,-20.93772723800254
-0.01770000000000005,-21.2065223849769
-0.01870000000000016,-21.503611757948562
-0.01970000000000005,-21.772406904922917
-0.020700000000000163,-22.027054938898623
-0.021700000000000053,-22.295850085872978
-0.022700000000000164,-22.550498119848687
-0.023700000000000054,-22.776851927827092
-0.024700000000000166,-23.031499961802798
-0.025700000000000056,-23.24370665678255
-0.026700000000000168,-23.47006046476096
-0.027700000000000058,-23.639825820744765
-0.02870000000000017,-23.86617962872317
-0.02970000000000006,-24.078386323702922
-0.03070000000000017,-24.290593018682678
-0.03170000000000006,-24.516946826661083
-0.03270000000000017,-24.686712182644893
-0.03370000000000006,-24.9130659906233
-0.034700000000000175,-25.04039000761115
-0.035700000000000065,-25.210155363594954
-0.03670000000000018,-25.39406783257741
-0.03770000000000007,-25.563833188561212
-0.03870000000000018,-25.73359854454502
-0.03970000000000007,-25.86092256153287
-0.04070000000000018,-26.044835030515326
-0.04170000000000007,-26.21460038649913
-0.04270000000000018,-26.34192440348698
-0.04370000000000007,-26.568278211465387
-0.044700000000000184,-26.738043567449193
-0.045700000000000074,-26.907808923433
-0.046700000000000186,-27.091721392415455
-0.047700000000000076,-27.261486748399253
-0.04870000000000019,-27.43125210438306
-0.04970000000000008,-27.572723234369565
-0.05070000000000019,-27.742488590353368
-0.05170000000000008,-27.869812607341224
-0.05270000000000019,-28.011283737327723
-0.05370000000000008,-28.18104909331153
-0.05470000000000019,-28.308373110299385
-0.05570000000000008,-28.478138466283188
-0.056700000000000195,-28.662050935265643
-0.057700000000000085,-28.789374952253496
-0.058700000000000196,-28.959140308237306
-0.059700000000000086,-29.100611438223805
-0.0607000000000002,-29.27037679420761
-0.06170000000000009,-29.39770081119546
-0.0627000000000002,-29.581613280177915
-0.06370000000000009,-29.708937297165768
-0.0647000000000002,-29.878702653149578
-0.06570000000000009,-30.04846800913338
-0.0667000000000002,-30.232380478115836
-0.0677000000000001,-30.444587173095588
-0.0687000000000002,-30.614352529079397
-0.0697000000000001,-30.7558236590659
-0.07070000000000021,-30.925589015049702
-0.0717000000000001,-31.052913032037555
-0.07270000000000021,-31.19438416202406
-0.0737000000000001,-31.321708179011907
-0.07470000000000021,-31.449032195999767
-0.0757000000000001,-31.57635621298762
-0.07670000000000021,-31.717827342974125
-0.0777000000000001,-31.930034037953877
-0.07870000000000021,-32.05735805494172
-0.0797000000000001,-32.24127052392419
-0.08070000000000022,-32.41103587990799
-0.0817000000000001,-32.53835989689585
-0.08270000000000022,-32.70812525287965
-0.08370000000000011,-32.84959638286615
-0.08470000000000022,-32.97692039985401
-0.08570000000000011,-33.10424441684186
-0.08670000000000022,-33.231568433829715
-0.08770000000000011,-33.373039563816214
-0.08870000000000022,-33.50036358080407
-0.08970000000000011,-33.58524625879597
-0.09070000000000022,-33.755011614779775
-0.09170000000000011,-33.93892408376223
-0.09270000000000023,-34.10868943974604
-0.09370000000000012,-34.278454795729836
-0.09470000000000023,-34.41992592571634
-0.09570000000000012,-34.5472499427042
-0.09670000000000023,-34.67457395969205
-0.09770000000000012,-34.8018979766799
-0.09870000000000023,-34.94336910666641
-0.09970000000000012,-35.07069312365426
-0.10070000000000023,-35.198017140642115
-0.10170000000000012,-35.38192960962457
-0.10270000000000024,-35.55169496560837
-0.10370000000000013,-35.636577643600276
-0.10470000000000024,-35.763901660588125
-0.10570000000000013,-35.848784338580025
-0.10670000000000024,-35.99025546856653
-0.10770000000000013,-36.07513814655844
-0.10870000000000024,-36.20246216354629
-0.10970000000000013,-36.37222751953009
-0.11070000000000024,-36.5136986495166
-0.11170000000000013,-36.5985813275085
-0.11270000000000002,-36.768346683492304
-0.11370000000000013,-36.89567070048016
-0.11470000000000002,-36.99470049147071
-0.11570000000000014,-37.164465847454515
-0.11670000000000003,-37.291789864442364
-0.11770000000000014,-37.41911388143023
-0.11870000000000003,-37.56058501141672
-0.11970000000000014,-37.77279170639648
-0.12070000000000003,-37.90011572338433
-0.12170000000000014,-38.04158685337084
-0.12270000000000003,-38.16891087035869
-0.12370000000000014,-38.29623488734655
-0.12470000000000003,-38.42355890433439
-0.12570000000000014,-38.607471373316855
-0.12670000000000003,-38.81967806829661
-0.12770000000000015,-38.94700208528445
-0.12870000000000004,-39.08847321527096
-0.12970000000000015,-39.21579723225882
-0.13070000000000004,-39.30067991025072
-0.13170000000000015,-39.38556258824262
-0.13270000000000004,-39.47044526623452
-0.13370000000000015,-39.56947505722508
-0.13470000000000004,-39.654357735216976
-0.13570000000000015,-39.78168175220483
-0.13670000000000004,-39.90900576919269
-0.13770000000000016,-40.092918238175145
-0.13870000000000005,-40.26268359415894
-0.13970000000000016,-40.3900076111468
-0.14070000000000005,-40.51733162813464
-0.14170000000000016,-40.65880275812115
-0.14270000000000005,-40.828568114104954
-0.14370000000000016,-40.99833347008877
-0.14470000000000005,-41.139804600075266
-0.14570000000000016,-41.30956995605907
-0.14670000000000005,-41.43689397304693
-0.14770000000000016,-41.606659329030734
-0.14870000000000005,-41.74813045901723
-0.14970000000000017,-41.91789581500104
-0.15070000000000006,-42.087661170984845
-0.15170000000000017,-42.229132300971344
-0.15270000000000006,-42.3564563179592
-0.15370000000000017,-42.483780334947056
-0.15470000000000006,-42.568663012938956
-0.15570000000000017,-42.71013414292546
-0.15670000000000006,-42.79501682091736
-0.15770000000000017,-42.92234083790521
-0.15870000000000006,-43.007223515897124
-0.15970000000000018,-43.17698887188092
-0.16070000000000007,-43.36090134086337
-0.16170000000000018,-43.48822535785123
-0.16270000000000007,-43.657990713835034
-0.16370000000000018,-43.84190318281749
-0.16470000000000007,-43.96922719980534
-0.16570000000000018,-44.096551216793195
-0.16670000000000007,-44.223875233781044
-0.16770000000000018,-44.3229050247716
-0.16870000000000007,-44.45022904175945
-0.16970000000000018,-44.535111719751356
-0.17070000000000007,-44.66243573673921
-0.17170000000000019,-44.80390686672572
-0.17270000000000008,-44.93123088371356
-0.1737000000000002,-45.10099623969737
-0.17470000000000008,-45.22832025668522
-0.1757000000000002,-45.36979138667173
-0.17670000000000008,-45.53955674265553
-0.1777000000000002,-45.666880759643384
-0.17870000000000008,-45.79420477663124
-0.1797000000000002,-45.93567590661774
-0.18070000000000008,-46.10544126260155
-0.1817000000000002,-46.27520661858535
-0.18270000000000008,-46.41667774857186
-0.1837000000000002,-46.586443104555656
-0.1847000000000001,-46.75620846053947
-0.1857000000000002,-46.94012092952192
-0.1867000000000001,-47.10988628550572
-0.1877000000000002,-47.27965164148953
-0.1887000000000001,-47.40697565847737
-0.1897000000000002,-47.590888127459834
-0.1907000000000001,-47.71821214444768
-0.1917000000000001,-47.84553616143554
-0.19269999999999998,-48.029448630417996
-0.1937000000000001,-48.1992139864018
-0.19469999999999998,-48.36897934238561
-0.1957000000000001,-48.55289181136806
-0.19669999999999999,-48.72265716735186
-0.1977000000000001,-48.89242252333566
-0.1987,-49.03389365332217
-0.1997000000000001,-49.20365900930597
-0.2007,-49.33098302629383
-0.2017000000000001,-49.50074838227763
-0.2027,-49.642219512264134
-0.2037000000000001,-49.81198486824794
-0.2047,-49.939308885235796
-0.2057000000000001,-50.12322135421825
-0.2067,-50.29298671020206
-0.2077000000000001,-50.42031072718991
-0.2087,-50.64666453516831
-0.2097000000000001,-50.81642989115212
-0.2107,-51.028636586131874
-0.2117000000000001,-51.21254905511432
-0.2127,-51.38231441109813
-0.2137000000000001,-51.55207976708194
-0.2147,-51.69355089706845
-0.2157000000000001,-51.90575759204819
-0.2167,-52.075522948032
-0.21770000000000012,-52.25943541701445
-0.2187,-52.514083450990164
-0.21970000000000012,-52.69799591997262
-0.2207,-52.91020261495237
-0.22170000000000012,-53.079967970936174
-0.2227,-53.30632177891458
-0.22370000000000012,-53.476087134898386
-0.2247,-53.64585249088219
-0.22570000000000012,-53.82976495986464
-0.2267,-53.999530315848446
-0.22770000000000012,-54.16929567183226
-0.22870000000000001,-54.35320814081471
-0.22970000000000013,-54.56541483579447
-0.23070000000000002,-54.791768643772876
-0.23170000000000013,-54.961533999756675
-0.23270000000000002,-55.21618203373238
-0.23370000000000013,-55.400094502714836
-0.23470000000000002,-55.65474253669055
-0.23570000000000013,-55.838655005673
-0.23670000000000002,-56.05086170065276
-0.2376999999999999,-56.26306839563251
-0.23870000000000002,-56.489422203610914
-0.2396999999999999,-56.74407023758662
-0.24070000000000003,-57.012865384560975
-0.24169999999999991,-57.26751341853669
-0.24270000000000003,-57.57874990450699
-0.24369999999999992,-57.8333979384827
-0.24470000000000003,-58.10219308545706
-0.24569999999999992,-58.35684111943277
-0.24670000000000003,-58.54075358841522
-0.24769999999999992,-58.75296028339497
-0.24870000000000003,-58.92272563937878
-0.24969999999999992,-59.06419676936528
-0.25070000000000003,-59.23396212534908
-0.2516999999999999,-59.44616882032884
-0.25270000000000004,-59.67252262830725
-0.2536999999999999,-59.884729323287
-0.25470000000000004,-60.15352447026136
-0.2556999999999999,-60.36573116524111
-0.25670000000000004,-60.63452631221547
-0.25769999999999993,-60.93161568518713
-0.25870000000000004,-61.15796949316553
-0.25969999999999993,-61.455058866137186
-0.26070000000000004,-61.72385401311155
-0.26169999999999993,-61.97850204708726
-0.26270000000000004,-62.28973853305756
-0.26369999999999993,-62.544386567033264
-0.26470000000000005,-62.81318171400764
-0.26569999999999994,-63.06782974798333
-0.26670000000000005,-63.3366248949577
-0.26769999999999994,-63.59127292893339
-0.26870000000000005,-63.81762673691181
-0.26969999999999994,-64.02983343189156
-0.27070000000000005,-64.19959878787537
-0.27169999999999994,-64.42595259585376
-0.27270000000000005,-64.63815929083353
-0.27369999999999994,-64.86451309881193
-0.27470000000000006,-65.0767197937917
-0.27569999999999995,-65.34551494076604
-0.27670000000000006,-65.60016297474175
-0.27769999999999995,-65.91139946071206
-0.27870000000000006,-66.20848883368372
-0.27969999999999995,-66.47728398065809
-0.28070000000000006,-66.73193201463377
-0.28169999999999995,-67.04316850060408
-0.28270000000000006,-67.2978165345798
-0.28369999999999995,-67.56661168155415
-0.28470000000000006,-67.86370105452582
-0.28569999999999995,-68.17493754049613
-0.28670000000000007,-68.48617402646643
-0.28769999999999996,-68.82570473843404
-0.28870000000000007,-69.1793825634003
-0.28969999999999996,-69.4906190493706
-0.29070000000000007,-69.8301497613382
-0.29169999999999996,-70.18382758630447
-0.29270000000000007,-70.48091695927613
-0.29369999999999996,-70.8345947842424
-0.2947000000000001,-71.1458312702127
-0.29569999999999996,-71.44292064318435
-0.2967000000000001,-71.75415712915466
-0.29769999999999996,-72.05124650212633
-0.2987000000000001,-72.32004164910067
-0.29969999999999997,-72.63127813507097
-0.3007000000000001,-72.92836750804264
-0.30169999999999997,-73.23960399401295
-0.3027000000000001,-73.57913470598055
-0.30369999999999997,-73.93281253094682
-0.3047000000000001,-74.28649035591307
-0.30569999999999997,-74.58357972888473
-0.3067000000000001,-74.93725755385098
-0.3077,-75.2484940398213
-0.3087000000000001,-75.50314207379701
-0.3097,-75.85681989876326
-0.3107000000000001,-76.15390927173492
-0.3117,-76.55002843569714
-0.3127000000000001,-76.9037062606634
-0.3137,-77.34226676362155
-0.3147000000000001,-77.68179747558916
-0.3157,-78.07791663955136
-0.3167000000000001,-78.43159446451764
-0.3177,-78.72868383748929
-0.3187000000000001,-79.0399203234596
-0.3197,-79.33700969643127
-0.3207000000000001,-79.64824618240156
-0.3217,-79.94533555537322
-0.3227000000000001,-80.25657204134353
-0.3237,-80.61024986630979
-0.3247000000000001,-80.99222191727335
-0.3257,-81.3458997422396
-0.3267000000000001,-81.69957756720586
-0.3277,-81.99666694017753
-0.3287000000000001,-82.35034476514379
-0.3297,-82.70402259011003
-0.3307000000000001,-83.08599464107361
-0.3317,-83.48211380503581
-0.3327000000000001,-83.83579163000208
-0.3337,-84.18946945496833
-0.3347000000000001,-84.52900016693594
-0.3357,-84.8826779919022
-0.3367000000000001,-85.17976736487385
-0.3377,-85.53344518984011
-0.3387000000000001,-85.88712301480638
-0.3397,-86.22665372677399
-0.3407000000000001,-86.5378902127443
-0.3417,-86.89156803771054
-0.3427000000000001,-87.18865741068221
-0.3437,-87.49989389665252
-0.3447000000000001,-87.85357172161878
-0.3457,-88.19310243358639
-0.3467000000000001,-88.54678025855264
-0.3477,-88.94289942251486
-0.3487000000000001,-89.32487147347842
-0.3497,-89.72099063744062
-0.3507000000000001,-90.11710980140283
-0.3517,-90.51322896536506
-0.3527000000000001,-90.85275967733266
-0.3537,-91.20643750229891
-0.3547000000000001,-91.60255666626112
-0.3557,-91.89964603923279
-0.35670000000000013,-92.25332386419905
-0.3577,-92.64944302816124
-0.35870000000000013,-93.03141507912481
-0.3597,-93.46997558208298
-0.36070000000000013,-93.90853608504113
-0.3617,-94.34709658799929
-0.3626999999999999,-94.7432157519615
-0.3637,-95.12518780292505
-0.3646999999999999,-95.52130696688728
-0.3657,-95.87498479185354
-0.3666999999999999,-96.27110395581576
-0.3677,-96.69551734577524
-0.3686999999999999,-97.13407784873341
-0.36970000000000003,-97.61507969068752
-0.3706999999999999,-98.05364019364569
-0.37170000000000003,-98.49220069660386
-0.3726999999999999,-98.93076119956201
-0.37370000000000003,-99.35517458952152
-0.3746999999999999,-99.83617643147564
-0.37570000000000003,-100.31717827342976
-0.3766999999999999,-100.84062145437981
-0.37770000000000004,-101.3640646353299
-0.3786999999999999,-101.84506647728399
-0.37970000000000004,-102.36850965823406
-0.3806999999999999,-102.89195283918411
-0.38170000000000004,-103.45783735913014
-0.38269999999999993,-104.02372187907615
-0.38370000000000004,-104.58960639902216
-0.38469999999999993,-105.21207937096277
-0.38570000000000004,-105.7779638909088
-0.38669999999999993,-105.38184472694657
-0.38570000000000004,-103.41539602013418
-0.38469999999999993,-101.59041844330828
-0.38370000000000004,-99.93520622246619
-0.38269999999999993,-98.364876679616
-0.38170000000000004,-96.92187115375367
-0.3806999999999999,-95.60618964487918
-0.37970000000000004,-94.30465524900335
-0.3786999999999999,-93.08800353111941
-0.37770000000000004,-91.85720470023682
-0.3766999999999999,-90.68299432134886
-0.37570000000000003,-89.50878394246087
-0.3746999999999999,-88.37701490256885
-0.37370000000000003,-87.27354008867411
-0.3726999999999999,-86.22665372677399
-0.37170000000000003,-85.17976736487385
-0.3706999999999999,-84.23191079396429
-0.36970000000000003,-83.22746577106011
-0.3686999999999999,-82.26546208715187
-0.3677,-81.3458997422396
-0.3666999999999999,-80.38389605833139
-0.3657,-79.47848082641775
-0.3646999999999999,-78.55891848150549
-0.3637,-77.63935613659322
-0.3626999999999999,-76.81882358267148
-0.3617,-75.94170257675518
-0.36070000000000013,-75.1070229098348
-0.3597,-74.20160767792116
-0.35870000000000013,-73.32448667200485
-0.3577,-72.48980700508447
-0.35670000000000013,-71.66927445116276
-0.3557,-70.8345947842424
-0.3547000000000001,-70.05650356931662
-0.3537,-69.26426524139221
-0.3527000000000001,-68.48617402646643
-0.3517,-67.693935698542
-0.3507000000000001,-66.81681469262568
-0.3497,-66.03872347769992
-0.3487000000000001,-65.2464851497755
-0.3477,-64.46839393484973
-0.3467000000000001,-63.732744058919906
-0.3457,-62.94050573099548
-0.3447000000000001,-62.16241451606972
-0.3437,-61.412617527141244
-0.3427000000000001,-60.63452631221547
-0.3417,-59.842287984291055
-0.3407000000000001,-59.06419676936528
-0.3397,-58.27195844144086
-0.3387000000000001,-57.53630856551105
-0.3377,-56.74407023758662
-0.3367000000000001,-56.008420361656796
-0.3357,-55.25862337272834
-0.3347000000000001,-54.52297349679851
-0.3337,-53.82976495986464
-0.3327000000000001,-53.12240930993213
-0.3317,-52.42920077299826
-0.3307000000000001,-51.73599223606439
-0.3297,-51.028636586131874
-0.3287000000000001,-50.37786938819396
-0.3277,-49.68466085126009
-0.3267000000000001,-48.97730520132757
-0.3257,-48.2840966643937
-0.3247000000000001,-47.633329466455784
-0.3237,-46.94012092952192
-0.3227000000000001,-46.27520661858535
-0.3217,-45.624439420647434
-0.3207000000000001,-44.97367222270952
-0.3197,-44.3229050247716
-0.3187000000000001,-43.61554937483908
-0.3177,-42.92234083790521
-0.3167000000000001,-42.2715736399673
-0.3157,-41.56421799003478
-0.3147000000000001,-40.87100945310091
-0.3137,-40.220242255162994
-0.3127000000000001,-39.51288660523048
-0.3117,-38.90456074628851
-0.3107000000000001,-38.253793548350586
-0.3097,-37.645467689408626
-0.3087000000000001,-37.037141830466666
-0.3077,-36.37222751953009
-0.3067000000000001,-35.806342999584075
-0.30569999999999997,-35.198017140642115
-0.3047000000000001,-34.58969128170015
-0.30369999999999997,-33.98136542275818
-0.3027000000000001,-33.373039563816214
-0.30169999999999997,-32.764713704874254
-0.3007000000000001,-32.184682071929586
-0.29969999999999997,-31.57635621298762
-0.2987000000000001,-31.010471693041605
-0.29769999999999996,-30.444587173095588
-0.2967000000000001,-29.878702653149578
-0.29569999999999996,-29.35525947219951
-0.2947000000000001,-28.746933613257543
-0.29369999999999996,-28.18104909331153
-0.29270000000000007,-27.615164573365515
-0.29169999999999996,-27.049280053419505
-0.29070000000000007,-26.483395533473487
-0.28969999999999996,-25.91751101352747
-0.28870000000000007,-25.337479380582806
-0.28769999999999996,-24.771594860636792
-0.28670000000000007,-24.24815167968673
-0.28569999999999995,-23.682267159740714
-0.28470000000000006,-23.15882397879065
-0.28369999999999995,-22.63538079784059
-0.28270000000000006,-22.111937616890522
-0.28169999999999995,-21.58849443594046
-0.28070000000000006,-21.065051254990397
-0.27969999999999995,-20.541608074040333
-0.27870000000000006,-20.01816489309027
-0.27769999999999995,-19.537163051136158
-0.27670000000000006,-18.97127853119014
-0.27569999999999995,-18.49027668923603
-0.27470000000000006,-18.009274847281915
-0.27369999999999994,-17.542420118326454
-0.27270000000000005,-17.061418276372343
-0.27169999999999994,-16.622857773414182
-0.27070000000000005,-16.099414592464115
-0.26969999999999994,-15.618412750510005
-0.26870000000000005,-15.137410908555893
-0.26769999999999994,-14.65640906660178
-0.26670000000000005,-14.175407224647667
-0.26569999999999994,-13.698649516593148
-0.26470000000000005,-13.261503724934855
