Potential V vs RHE, Current mA cm-2
0.013299999999999867,1.0881959318561862
0.012299999999999978,0.6084673300719523
0.011299999999999866,0.17231183632356148
0.010299999999999976,-0.2202705493889862
0.009299999999999864,-0.5692798270656908
0.008299999999999974,-0.9181476336124089
0.007299999999999862,-1.2234423321232837
0.006299999999999972,-1.5293029151541047
0.00529999999999986,-1.7910245056291363
0.0042999999999999705,-2.095187435100119
0.0032999999999998586,-2.3569090255751513
0.0022999999999999687,-2.618630616050183
0.0012999999999998568,-2.968064307116847
0.00029999999999996696,-3.2297858975918787
-0.000700000000000145,-3.4915074880669104
-0.0017000000000000348,-3.7093730282461257
-0.0027000000000001467,-3.971094618721158
-0.0037000000000000366,-4.1889601589003735
-0.0047000000000001485,-4.406825699079589
-0.005700000000000038,-4.626105950558669
-0.00670000000000015,-4.843971490737885
-0.00770000000000004,-5.0618370309171015
-0.008700000000000152,-5.323558621392133
-0.009700000000000042,-5.5414241615713475
-0.010700000000000154,-5.759289701750564
-0.011700000000000044,-5.977155241929781
-0.012700000000000156,-6.152579443113044
-0.013700000000000045,-6.37044498329226
-0.014700000000000157,-6.500598422879844
-0.015700000000000047,-6.6760226240631075
-0.01670000000000016,-6.850032113946507
-0.01770000000000005,-7.024041603829907
-0.01870000000000016,-7.199465805013171
-0.01970000000000005,-7.37347529489657
-0.020700000000000163,-7.5474847847799715
-0.021700000000000053,-7.679052935667419
-0.022700000000000164,-7.853062425550818
-0.023700000000000054,-8.027071915434218
-0.024700000000000166,-8.202496116617484
-0.025700000000000056,-8.376505606500881
-0.026700000000000168,-8.55051509638428
-0.027700000000000058,-8.725939297567548
-0.02870000000000017,-8.899948787450944
-0.02970000000000006,-9.11781432763016
-0.03070000000000017,-9.24938247851761
-0.03170000000000006,-9.335679867809377
-0.03270000000000017,-9.467248018696827
-0.03370000000000006,-9.641257508580225
-0.034700000000000175,-9.772825659467674
-0.035700000000000065,-9.946835149351072
-0.03670000000000018,-10.120844639234473
-0.03770000000000007,-10.25241279012192
-0.03870000000000018,-10.42642228000532
-0.03970000000000007,-10.601846481188586
-0.04070000000000018,-10.731999920776168
-0.04170000000000007,-10.819712021367803
-0.04270000000000018,-10.906009410659568
-0.04370000000000007,-11.037577561547016
-0.044700000000000184,-11.081433611842833
-0.045700000000000074,-11.123874950838783
-0.046700000000000186,-11.123874950838783
-0.047700000000000076,-11.255443101726232
-0.04870000000000019,-11.42945259160963
-0.04970000000000008,-11.647318131788847
-0.05070000000000019,-11.86659838326793
-0.05170000000000008,-12.040607873151327
-0.05270000000000019,-12.170761312738911
-0.05370000000000008,-12.346185513922174
-0.05470000000000019,-12.390041564217992
-0.05570000000000008,-12.520195003805576
-0.056700000000000195,-12.607907104397206
-0.057700000000000085,-12.73806054398479
-0.058700000000000196,-12.825772644576423
-0.059700000000000086,-12.955926084164007
-0.0607000000000002,-13.043638184755638
-0.06170000000000009,-13.13135028534727
-0.0627000000000002,-13.261503724934855
-0.06370000000000009,-13.349215825526485
-0.0647000000000002,-13.436927926118118
-0.06570000000000009,-13.47936926511407
-0.0667000000000002,-13.610937416001518
-0.0677000000000001,-13.741090855589102
-0.0687000000000002,-13.960371107068182
-0.0697000000000001,-14.175407224647667
-0.07070000000000021,-14.30273124163552
-0.0717000000000001,-14.444202371622024
-0.07270000000000021,-14.486643710617974
-0.0737000000000001,-14.57152638860988
-0.07470000000000021,-14.57152638860988
-0.0757000000000001,-14.65640906660178
-0.07670000000000021,-14.741291744593681
-0.0777000000000001,-14.868615761581536
-0.07870000000000021,-15.01008689156804
-0.0797000000000001,-15.137410908555893
-0.08070000000000022,-15.307176264539699
-0.0817000000000001,-15.448647394526201
-0.08270000000000022,-15.491088733522153
-0.08370000000000011,-15.533530072518102
-0.08470000000000022,-15.575971411514052
-0.08570000000000011,-15.618412750510005
-0.08670000000000022,-15.70329542850191
-0.08770000000000011,-15.74573676749786
-0.08870000000000022,-15.74573676749786
-0.08970000000000011,-15.74573676749786
-0.09070000000000022,-15.830619445489761
-0.09170000000000011,-15.91550212348166
-0.09270000000000023,-15.972090575476265
-0.09370000000000012,-16.056973253468165
-0.09470000000000023,-16.141855931460068
-0.09570000000000012,-16.269179948447924
-0.09670000000000023,-16.438945304431726
-0.09770000000000012,-16.580416434418233
-0.09870000000000023,-16.665299112410132
-0.09970000000000012,-16.70774045140608
-0.10070000000000023,-16.792623129397985
-0.10170000000000012,-16.919947146385837
-0.10270000000000024,-17.018976937376394
-0.10370000000000013,-17.103859615368293
-0.10470000000000024,-17.103859615368293
-0.10570000000000013,-17.103859615368293
-0.10670000000000024,-17.103859615368293
-0.10770000000000013,-17.018976937376394
-0.10870000000000024,-16.962388485381787
-0.10970000000000013,-16.750181790402035
-0.11070000000000024,-16.750181790402035
-0.11170000000000013,-16.919947146385837
-0.11270000000000002,-17.061418276372343
-0.11370000000000013,-17.231183632356142
-0.11470000000000002,-17.40094898833995
-0.11570000000000014,-17.584861457322408
-0.11670000000000003,-17.71218547431026
-0.11770000000000014,-17.881950830294063
-0.11870000000000003,-18.009274847281915
-0.11970000000000014,-18.009274847281915
-0.12070000000000003,-18.10830463827247
-0.12170000000000014,-18.06586329927652
-0.12270000000000003,-17.924392169290012
-0.12370000000000014,-17.797068152302163
-0.12470000000000003,-17.797068152302163
-0.12570000000000014,-17.75462681330621
-0.12670000000000003,-17.966833508285966
-0.12770000000000015,-18.27806999425627
-0.12870000000000004,-18.53271802823198
-0.12970000000000015,-18.716630497214435
-0.13070000000000004,-18.88639585319824
-0.13170000000000015,-18.97127853119014
-0.13270000000000004,-19.056161209182044
-0.13370000000000015,-19.056161209182044
-0.13470000000000004,-18.92883719219419
-0.13570000000000015,-18.88639585319824
-0.13670000000000004,-18.759071836210385
-0.13770000000000016,-18.759071836210385
-0.13870000000000005,-18.631747819222536
-0.13970000000000016,-18.53271802823198
-0.14070000000000005,-18.716630497214435
-0.14170000000000016,-18.843954514202288
-0.14270000000000005,-18.97127853119014
-0.14370000000000016,-19.01371987018609
-0.14470000000000005,-18.97127853119014
-0.14570000000000016,-19.01371987018609
-0.14670000000000005,-18.716630497214435
-0.14770000000000016,-17.881950830294063
-0.14870000000000005,-16.835064468393938
-0.14970000000000017,-16.580416434418233
-0.15070000000000006,-16.877505807389888
-0.15170000000000017,-17.188742293360193
-0.15270000000000006,-17.839509491298113
-0.15370000000000017,-18.589306480226583
-0.15470000000000006,-19.155191000172596
-0.15570000000000017,-19.763516859114564
-0.15670000000000006,-20.159636023076775
-0.15770000000000017,-20.414284057052477
-0.15870000000000006,-20.584049413036283
-0.15970000000000018,-20.244518701068674
-0.16070000000000007,-19.763516859114564
-0.16170000000000018,-19.367397695152352
-0.16270000000000007,-19.155191000172596
-0.16370000000000018,-19.409839034148305
-0.16470000000000007,-19.763516859114564
-0.16570000000000018,-20.01816489309027
-0.16670000000000007,-20.06060623208622
-0.16770000000000018,-20.329401379060574
-0.16870000000000007,-20.541608074040333
-0.16970000000000018,-20.584049413036283
-0.17070000000000007,-20.584049413036283
-0.17170000000000019,-20.541608074040333
-0.17270000000000008,-20.414284057052477
-0.1737000000000002,-20.329401379060574
-0.17470000000000008,-20.202077362072725
-0.1757000000000002,-20.202077362072725
-0.17670000000000008,-20.371842718056527
-0.1777000000000002,-20.72552054302279
-0.17870000000000008,-20.85284456001064
-0.1797000000000002,-21.065051254990397
-0.18070000000000008,-21.149933932982297
-0.1817000000000002,-21.2065223849769
-0.18270000000000008,-21.2065223849769
-0.1837000000000002,-21.107492593986347
-0.1847000000000001,-20.980168576998494
-0.1857000000000002,-20.93772723800254
-0.1867000000000001,-20.89528589900659
-0.1877000000000002,-20.93772723800254
-0.1887000000000001,-21.065051254990397
-0.1897000000000002,-21.149933932982297
-0.1907000000000001,-21.2065223849769
-0.1917000000000001,-21.291405062968803
-0.19269999999999998,-21.248963723972853
-0.1937000000000001,-21.248963723972853
-0.19469999999999998,-21.2065223849769
-0.1957000000000001,-21.2065223849769
-0.19669999999999999,-21.291405062968803
-0.1977000000000001,-21.291405062968803
-0.1987,-21.333846401964752
-0.1997000000000001,-21.376287740960702
-0.2007,-21.461170418952605
-0.2017000000000001,-21.418729079956652
-0.2027,-21.376287740960702
-0.2037000000000001,-21.248963723972853
-0.2047,-21.2065223849769
-0.2057000000000001,-21.248963723972853
-0.2067,-21.291405062968803
-0.2077000000000001,-21.333846401964752
-0.2087,-21.291405062968803
-0.2097000000000001,-21.2065223849769
-0.2107,-21.2065223849769
-0.2117000000000001,-21.2065223849769
-0.2127,-21.2065223849769
-0.2137000000000001,-21.149933932982297
-0.2147,-21.149933932982297
-0.2157000000000001,-21.2065223849769
-0.2167,-21.107492593986347
-0.21770000000000012,-21.065051254990397
-0.2187,-21.065051254990397
-0.21970000000000012,-21.107492593986347
-0.2207,-21.2065223849769
-0.22170000000000012,-21.291405062968803
-0.2227,-21.418729079956652
-0.22370000000000012,-21.418729079956652
-0.2247,-21.503611757948562
-0.22570000000000012,-21.58849443594046
-0.2267,-21.63093577493641
-0.22770000000000012,-21.63093577493641
-0.22870000000000001,-21.58849443594046
-0.22970000000000013,-21.376287740960702
-0.23070000000000002,-21.291405062968803
-0.23170000000000013,-21.333846401964752
-0.23270000000000002,-21.418729079956652
-0.23370000000000013,-21.503611757948562
-0.23470000000000002,-21.63093577493641
-0.23570000000000013,-21.729965565926964
-0.23670000000000002,-21.857289582914817
-0.2376999999999999,-21.98461359990267
-0.23870000000000002,-22.027054938898623
-0.2396999999999999,-22.027054938898623
-0.24070000000000003,-21.98461359990267
-0.24169999999999991,-21.857289582914817
-0.24270000000000003,-21.772406904922917
-0.24369999999999992,-21.729965565926964
-0.24470000000000003,-21.58849443594046
-0.24569999999999992,-21.58849443594046
-0.24670000000000003,-21.54605309694451
-0.24769999999999992,-21.63093577493641
-0.24870000000000003,-21.857289582914817
-0.24969999999999992,-21.94217226090672
-0.25070000000000003,-22.069496277894572
-0.2516999999999999,-22.111937616890522
-0.25270000000000004,-22.111937616890522
-0.2536999999999999,-22.111937616890522
-0.25470000000000004,-22.027054938898623
-0.2556999999999999,-21.94217226090672
-0.25670000000000004,-21.98461359990267
-0.25769999999999993,-21.94217226090672
-0.25870000000000004,-21.94217226090672
-0.25969999999999993,-21.98461359990267
-0.26070000000000004,-22.069496277894572
-0.26169999999999993,-22.111937616890522
-0.26270000000000004,-22.196820294882425
-0.26369999999999993,-22.253408746877028
-0.26470000000000005,-22.253408746877028
-0.26569999999999994,-22.253408746877028
-0.26670000000000005,-22.253408746877028
-0.26769999999999994,-22.295850085872978
-0.26870000000000005,-22.196820294882425
-0.26969999999999994,-22.15437895588647
-0.27070000000000005,-22.38073276386488
-0.27169999999999994,-22.33829142486893
-0.27270000000000005,-22.295850085872978
-0.27369999999999994,-22.253408746877028
-0.27470000000000006,-22.15437895588647
-0.27569999999999995,-22.069496277894572
-0.27670000000000006,-22.069496277894572
-0.27769999999999995,-22.027054938898623
-0.27870000000000006,-22.111937616890522
-0.27969999999999995,-22.069496277894572
-0.28070000000000006,-22.027054938898623
-0.28169999999999995,-22.027054938898623
-0.28270000000000006,-22.069496277894572
-0.28369999999999995,-22.111937616890522
-0.28470000000000006,-22.196820294882425
-0.28569999999999995,-22.33829142486893
-0.28670000000000007,-22.46561544185678
-0.28769999999999996,-22.67782213683654
-0.28870000000000007,-22.904175944814945
-0.28969999999999996,-22.989058622806844
-0.29070000000000007,-22.946617283810895
-0.29169999999999996,-22.946617283810895
-0.29270000000000007,-22.946617283810895
-0.29369999999999996,-22.946617283810895
-0.2947000000000001,-22.904175944814945
-0.29569999999999996,-22.946617283810895
-0.2967000000000001,-22.989058622806844
-0.29769999999999996,-22.989058622806844
-0.2987000000000001,-23.073941300798747
-0.29969999999999997,-23.15882397879065
-0.3007000000000001,-23.24370665678255
-0.30169999999999997,-23.24370665678255
-0.3027000000000001,-23.24370665678255
-0.30369999999999997,-22.989058622806844
-0.3047000000000001,-23.031499961802798
-0.30569999999999997,-23.073941300798747
-0.3067000000000001,-23.15882397879065
-0.3077,-23.15882397879065
-0.3087000000000001,-23.073941300798747
-0.3097,-23.2012653177866
-0.3107000000000001,-23.597384481748815
-0.3117,-24.078386323702922
-0.3127000000000001,-24.34718147067728
-0.3137,-24.516946826661083
-0.3147000000000001,-24.559388165657033
-0.3157,-24.516946826661083
-0.3167000000000001,-24.389622809673234
-0.3177,-24.20571034069078
-0.3187000000000001,-23.823738289727217
-0.3197,-23.427619125765005
-0.3207000000000001,-23.2012653177866
-0.3217,-23.24370665678255
-0.3227000000000001,-23.15882397879065
-0.3237,-23.385177786769056
-0.3247000000000001,-23.47006046476096
-0.3257,-23.639825820744765
-0.3267000000000001,-23.767149837732617
-0.3277,-23.908620967719123
-0.3287000000000001,-23.993503645711023
-0.3297,-23.908620967719123
-0.3307000000000001,-23.908620967719123
-0.3317,-23.908620967719123
-0.3327000000000001,-23.823738289727217
-0.3337,-23.823738289727217
-0.3347000000000001,-23.908620967719123
-0.3357,-23.767149837732617
-0.3367000000000001,-23.86617962872317
-0.3377,-24.078386323702922
-0.3387000000000001,-24.24815167968673
-0.3397,-24.389622809673234
-0.3407000000000001,-24.474505487665134
-0.3417,-24.474505487665134
-0.3427000000000001,-24.389622809673234
-0.3437,-24.16326900169483
-0.3447000000000001,-24.20571034069078
-0.3457,-24.389622809673234
-0.3467000000000001,-24.432064148669184
-0.3477,-24.474505487665134
-0.3487000000000001,-24.516946826661083
-0.3497,-24.559388165657033
-0.3507000000000001,-24.559388165657033
-0.3517,-24.474505487665134
-0.3527000000000001,-24.474505487665134
-0.3537,-24.559388165657033
-0.3547000000000001,-24.729153521640843
-0.3557,-24.9130659906233
-0.35670000000000013,-25.252596702590903
-0.3577,-25.39406783257741
-0.35870000000000013,-25.478950510569312
-0.3597,-25.337479380582806
-0.36070000000000013,-24.9130659906233
-0.3617,-24.870624651627345
-0.3626999999999999,-24.9130659906233
-0.3637,-25.167714024599
-0.3646999999999999,-25.563833188561212
-0.3657,-25.91751101352747
-0.3666999999999999,-26.129717708507226
-0.3677,-26.568278211465387
-0.3686999999999999,-27.049280053419505
-0.36970000000000003,-27.219045409403304
-0.3706999999999999,-27.134162731411404
-0.37170000000000003,-26.86536758443705
-0.3726999999999999,-26.907808923433
-0.37370000000000003,-26.738043567449193
-0.3746999999999999,-26.568278211465387
-0.37570000000000003,-26.568278211465387
-0.3766999999999999,-26.738043567449193
-0.37770000000000004,-27.00683871442355
-0.3786999999999999,-27.38881076538711
-0.37970000000000004,-27.742488590353368
-0.3806999999999999,-28.09616641531963
-0.38170000000000004,-28.308373110299385
-0.38269999999999993,-28.350814449295335
-0.38370000000000004,-28.350814449295335
-0.38469999999999993,-28.350814449295335
-0.38570000000000004,-28.393255788291288
-0.38669999999999993,-28.662050935265643
-0.38770000000000004,-28.746933613257543
-0.38869999999999993,-28.789374952253496
-0.38970000000000005,-29.001581647233255
-0.39069999999999994,-29.22793545521166
-0.39170000000000005,-29.482583489187363
-0.39269999999999994,-29.525024828183312
-0.39370000000000005,-29.482583489187363
-0.39469999999999994,-30.317263156107735
-0.39570000000000005,-30.274821817111786
-0.39669999999999994,-30.7558236590659
-0.39770000000000005,-31.618797551983565
-0.39869999999999994,-31.095354371033505
-0.39970000000000006,-31.76026868197007
-0.40069999999999995,-32.09979939393769
-0.40170000000000006,-32.184682071929586
-0.40269999999999995,-32.45347721890394
-0.40370000000000006,-32.93447906085806
-0.40469999999999995,-33.231568433829715
-0.40570000000000006,-33.41548090281216
-0.40669999999999995,-33.93892408376223
-0.40770000000000006,-33.54280491980002
-0.40869999999999995,-34.15113077874198
-0.40970000000000006,-34.75945663768395
-0.41069999999999995,-35.46681228761647
-0.41170000000000007,-35.763901660588125
-0.41269999999999996,-36.55613998851254
-0.41370000000000007,-37.334231203438314
-0.41469999999999996,-38.38111756533845
-0.41570000000000007,-39.30067991025072
-0.41669999999999996,-39.78168175220483
-0.41770000000000007,-40.30512493315489
-0.41869999999999996,-40.34756627215084
-0.4197000000000001,-40.34756627215084
-0.42069999999999996,-40.78612677510901
-0.4217000000000001,-41.606659329030734
-0.42269999999999996,-42.96478217690117
-0.4237000000000001,-44.138992555789144
-0.42469999999999997,-45.36979138667173
-0.4257000000000001,-46.45911908756781
-0.42669999999999997,-47.506005449467935
-0.4277000000000001,-48.55289181136806
-0.42869999999999997,-49.373424365289786
-0.4297000000000001,-49.85442620724389
-0.43069999999999997,-50.335428049198
-0.4317000000000001,-50.85887123014807
-0.4327,-51.424755750094086
-0.4337000000000001,-51.86331625305225
-0.4347,-52.386759434002315
-0.4357000000000001,-53.22143910092268
-0.4367,-54.35320814081471
-0.4377000000000001,-55.6971838756865
-0.4387,-56.97042404556503
-0.4397000000000001,-57.87583927747865
-0.4407,-58.79540162239092
-0.4417000000000001,-59.7149639673032
-0.4427,-60.49305518222897
-0.4437000000000001,-61.28529351015339
-0.4447,-61.7662953521075
-0.4457000000000001,-62.16241451606972
-0.4467,-62.89806439199953
-0.4477000000000001,-63.732744058919906
-0.4487,-64.46839393484973
-0.4497000000000001,-65.3030736017701
-0.4507,-66.20848883368372
-0.4517000000000001,-67.21293385658788
-0.4527,-68.0900548625042
-0.4537000000000001,-68.82570473843404
-0.4547,-69.4906190493706
-0.4557000000000001,-70.22626892530042
-0.4567,-70.91947746223428
-0.4577000000000001,-71.52780332117625
-0.4587,-72.15027629311687
-0.4597000000000001,-72.75860215205884
-0.4607,-73.3669280110008
-0.4617000000000001,-73.93281253094682
-0.4627,-74.58357972888473
-0.4637000000000001,-75.2484940398213
-0.4647,-75.77193722077136
-0.4657000000000001,-76.19635061073087
-0.4667,-76.86126492166746
-0.4677000000000001,-77.55447345860131
-0.4687,-77.90815128356756
-0.4697000000000001,-78.47403580351359
-0.4707,-79.16724434044745
-0.4717000000000001,-79.52092216541372
-0.4727,-80.21413070234757
-0.4737000000000001,-80.7800152222936
-0.4747,-81.38834108123557
-0.4757000000000001,-81.91178426218562
-0.4767,-82.39278610413973
-0.4777000000000001,-82.9162292850898
-0.4787,-83.52455514403178
-0.4797000000000001,-83.87823296899803
-0.4807,-84.48655882793999
-0.48170000000000013,-84.7129126359184
-0.4827,-84.96756066989411
-0.48370000000000013,-85.32123849486035
-0.4847,-85.66076920682796
-0.48570000000000013,-86.01444703179425
-0.4867,-86.14177104878208
-0.48570000000000013,-85.53344518984011
-0.4847,-85.09488468688197
-0.48370000000000013,-84.40167614994809
-0.4827,-84.09043966397778
-0.48170000000000013,-83.75090895201016
-0.4807,-83.04355330207765
-0.4797000000000001,-82.26546208715187
-0.4787,-81.74201890620182
-0.4777000000000001,-81.43078242023151
-0.4767,-81.04881036926795
-0.4757000000000001,-80.29901338033947
-0.4747,-79.7755701993894
-0.4737000000000001,-78.99747898446365
-0.4727,-78.60135982050144
-0.4717000000000001,-78.38915312552167
-0.4707,-77.76668015358106
-0.4697000000000001,-77.0734716166472
-0.4687,-76.38026307971333
-0.4677000000000001,-76.19635061073087
-0.4667,-75.5880247517889
-0.4657000000000001,-75.06458157083884
