Potential V vs RHE, Current mA cm-2
0.013299999999999867,1.0010497157844997
0.012299999999999978,0.4776065348344364
0.011299999999999866,0.04140859974704963
0.010299999999999976,-0.3511313446265021
0.009299999999999864,-0.7437137303390498
0.008299999999999974,-1.1362961160515976
0.007299999999999862,-1.5293029151541047
0.006299999999999972,-1.8334658446250875
0.00529999999999986,-2.1828995356917518
0.0042999999999999705,-2.4884771764625997
0.0032999999999998586,-2.794054817233447
0.0022999999999999687,-3.0996324580042955
0.0012999999999998568,-3.403795387475278
0.00029999999999996696,-3.6655169779503103
-0.000700000000000145,-3.971094618721158
-0.0017000000000000348,-4.23281620919619
-0.0027000000000001467,-4.538393849967037
-0.0037000000000000366,-4.800115440442069
-0.0047000000000001485,-5.0618370309171015
-0.005700000000000038,-5.367414671687949
-0.00670000000000015,-5.585280211867165
-0.00770000000000004,-5.847001802342197
-0.008700000000000152,-6.064867342521412
-0.009700000000000042,-6.326588932996443
-0.010700000000000154,-6.588310523471475
-0.011700000000000044,-6.850032113946507
-0.012700000000000156,-7.067897654125724
-0.013700000000000045,-7.28576319430494
-0.014700000000000157,-7.50504344578402
-0.015700000000000047,-7.7653503249591855
-0.01670000000000016,-8.027071915434218
-0.01770000000000005,-8.288793505909249
-0.01870000000000016,-8.464217707092514
-0.01970000000000005,-8.68208324727173
-0.020700000000000163,-8.899948787450944
-0.021700000000000053,-9.11781432763016
-0.022700000000000164,-9.293238528813426
-0.023700000000000054,-9.467248018696827
-0.024700000000000166,-9.641257508580225
-0.025700000000000056,-9.81668170976349
-0.026700000000000168,-9.99069119964689
-0.027700000000000058,-10.164700689530287
-0.02870000000000017,-10.340124890713554
-0.02970000000000006,-10.557990430892769
-0.03070000000000017,-10.775855971071984
-0.03170000000000006,-10.949865460955383
-0.03270000000000017,-11.1677310011346
-0.03370000000000006,-11.385596541313816
-0.034700000000000175,-11.56102074249708
-0.035700000000000065,-11.778886282676295
-0.03670000000000018,-11.86659838326793
-0.03770000000000007,-11.996751822855511
-0.03870000000000018,-12.214617363034726
-0.03970000000000007,-12.432482903213943
-0.04070000000000018,-12.520195003805576
-0.04170000000000007,-12.651763154693022
-0.04270000000000018,-12.825772644576423
-0.04370000000000007,-12.99978213445982
-0.044700000000000184,-13.13135028534727
-0.045700000000000074,-13.261503724934855
-0.046700000000000186,-13.436927926118118
-0.047700000000000076,-13.654793466297335
-0.04870000000000019,-13.828802956180734
-0.04970000000000008,-14.046668496359947
-0.05070000000000019,-14.175407224647667
-0.05170000000000008,-14.13438059695158
-0.05270000000000019,-14.26028990263957
-0.05370000000000008,-14.401761032626075
-0.05470000000000019,-14.61396772760583
-0.05570000000000008,-14.69885040559773
-0.056700000000000195,-14.967645552572087
-0.057700000000000085,-15.179852247551842
-0.058700000000000196,-15.448647394526201
-0.059700000000000086,-15.618412750510005
-0.0607000000000002,-15.830619445489761
-0.06170000000000009,-16.014531914472215
-0.0627000000000002,-16.141855931460068
-0.06370000000000009,-16.311621287443874
-0.0647000000000002,-16.396503965435777
-0.06570000000000009,-16.53797509542228
-0.0667000000000002,-16.622857773414182
-0.0677000000000001,-16.580416434418233
-0.0687000000000002,-16.53797509542228
-0.0697000000000001,-16.580416434418233
-0.07070000000000021,-16.53797509542228
-0.0717000000000001,-16.495533756426326
-0.07270000000000021,-16.438945304431726
-0.0737000000000001,-16.396503965435777
-0.07470000000000021,-16.396503965435777
-0.0757000000000001,-16.438945304431726
-0.07670000000000021,-16.622857773414182
-0.0777000000000001,-16.835064468393938
-0.07870000000000021,-17.103859615368293
-0.0797000000000001,-17.316066310348052
-0.08070000000000022,-17.542420118326454
-0.0817000000000001,-17.669744135314307
-0.08270000000000022,-17.839509491298113
-0.08370000000000011,-17.966833508285966
-0.08470000000000022,-18.10830463827247
-0.08570000000000011,-18.15074597726842
-0.08670000000000022,-18.23562865526032
-0.08770000000000011,-18.320511333252224
-0.08870000000000022,-18.44783535024008
-0.08970000000000011,-18.53271802823198
-0.09070000000000022,-18.631747819222536
-0.09170000000000011,-18.759071836210385
-0.09270000000000023,-18.92883719219419
-0.09370000000000012,-19.155191000172596
-0.09470000000000023,-19.367397695152352
-0.09570000000000012,-19.49472171214021
-0.09670000000000023,-19.579604390132108
-0.09770000000000012,-19.721075520118614
-0.09870000000000023,-19.848399537106463
-0.09970000000000012,-19.97572355409432
-0.10070000000000023,-20.01816489309027
-0.10170000000000012,-20.10304757108217
-0.10270000000000024,-20.329401379060574
-0.10370000000000013,-20.456725396048434
-0.10470000000000024,-20.456725396048434
-0.10570000000000013,-20.584049413036283
-0.10670000000000024,-20.76796188201874
-0.10770000000000013,-20.810403221014692
-0.10870000000000024,-20.93772723800254
-0.10970000000000013,-21.107492593986347
-0.11070000000000024,-21.2065223849769
-0.11170000000000013,-21.248963723972853
-0.11270000000000002,-21.333846401964752
-0.11370000000000013,-21.333846401964752
-0.11470000000000002,-21.418729079956652
-0.11570000000000014,-21.54605309694451
-0.11670000000000003,-21.54605309694451
-0.11770000000000014,-21.58849443594046
-0.11870000000000003,-21.814848243918867
-0.11970000000000014,-21.772406904922917
-0.12070000000000003,-21.63093577493641
-0.12170000000000014,-21.58849443594046
-0.12270000000000003,-21.729965565926964
-0.12370000000000014,-21.94217226090672
-0.12470000000000003,-22.111937616890522
-0.12570000000000014,-22.196820294882425
-0.12670000000000003,-22.46561544185678
-0.12770000000000015,-22.63538079784059
-0.12870000000000004,-22.904175944814945
-0.12970000000000015,-23.073941300798747
-0.13070000000000004,-23.24370665678255
-0.13170000000000015,-23.342736447773106
-0.13270000000000004,-23.427619125765005
-0.13370000000000015,-23.300295108777156
-0.13470000000000004,-23.2012653177866
-0.13570000000000015,-23.24370665678255
-0.13670000000000004,-23.15882397879065
-0.13770000000000016,-23.1163826397947
-0.13870000000000005,-23.15882397879065
-0.13970000000000016,-23.1163826397947
-0.14070000000000005,-22.946617283810895
-0.14170000000000016,-22.989058622806844
-0.14270000000000005,-23.031499961802798
-0.14370000000000016,-23.2012653177866
-0.14470000000000005,-23.51250180375691
-0.14570000000000016,-23.724708498736668
-0.14670000000000005,-23.993503645711023
-0.14770000000000016,-24.120827662698876
-0.14870000000000005,-24.16326900169483
-0.14970000000000017,-24.078386323702922
-0.15070000000000006,-23.993503645711023
-0.15170000000000017,-23.639825820744765
-0.15270000000000006,-23.47006046476096
-0.15370000000000017,-23.51250180375691
-0.15470000000000006,-23.597384481748815
-0.15570000000000017,-23.767149837732617
-0.15670000000000006,-23.951062306715073
-0.15770000000000017,-24.120827662698876
-0.15870000000000006,-24.474505487665134
-0.15970000000000018,-24.95550732961925
-0.16070000000000007,-25.295038041586857
-0.16170000000000018,-25.648715866553115
-0.16270000000000007,-25.86092256153287
-0.16370000000000018,-25.959952352523427
-0.16470000000000007,-26.002393691519377
-0.16570000000000018,-26.002393691519377
-0.16670000000000007,-25.91751101352747
-0.16770000000000018,-25.86092256153287
-0.16870000000000007,-25.73359854454502
-0.16970000000000018,-25.478950510569312
-0.17070000000000007,-25.12527268560305
-0.17170000000000019,-24.771594860636792
-0.17270000000000008,-24.389622809673234
-0.1737000000000002,-23.908620967719123
-0.17470000000000008,-23.86617962872317
-0.1757000000000002,-24.16326900169483
-0.17670000000000008,-24.34718147067728
-0.1777000000000002,-24.432064148669184
-0.17870000000000008,-24.814036199632742
-0.1797000000000002,-25.478950510569312
-0.18070000000000008,-25.91751101352747
-0.1817000000000002,-26.29948306449103
-0.18270000000000008,-26.61071955046134
-0.1837000000000002,-26.9643973754276
-0.1847000000000001,-27.176604070407354
-0.1857000000000002,-27.261486748399253
-0.1867000000000001,-27.34636942639116
-0.1877000000000002,-27.303928087395207
-0.1887000000000001,-27.134162731411404
-0.1897000000000002,-26.822926245441096
-0.1907000000000001,-26.69560222845324
-0.1917000000000001,-26.69560222845324
-0.19269999999999998,-26.61071955046134
-0.1937000000000001,-26.568278211465387
-0.19469999999999998,-26.483395533473487
-0.1957000000000001,-26.61071955046134
-0.19669999999999999,-26.822926245441096
-0.1977000000000001,-27.00683871442355
-0.1987,-27.134162731411404
-0.1997000000000001,-27.43125210438306
-0.2007,-27.827371268345274
-0.2017000000000001,-27.954695285333123
-0.2027,-28.13860775431558
-0.2037000000000001,-28.393255788291288
-0.2047,-28.619609596269694
-0.2057000000000001,-28.619609596269694
-0.2067,-28.704492274261593
-0.2077000000000001,-28.789374952253496
-0.2087,-28.91669896924135
-0.2097000000000001,-28.959140308237306
-0.2107,-29.14305277721976
-0.2117000000000001,-29.27037679420761
-0.2127,-29.440142150191413
-0.2137000000000001,-29.440142150191413
-0.2147,-29.35525947219951
-0.2157000000000001,-29.440142150191413
-0.2167,-29.35525947219951
-0.21770000000000012,-29.058170099227848
-0.2187,-28.435697127287238
-0.21970000000000012,-28.265931771303435
-0.2207,-28.22349043230748
-0.22170000000000012,-28.308373110299385
-0.2227,-28.435697127287238
-0.22370000000000012,-28.662050935265643
-0.2247,-28.959140308237306
-0.22570000000000012,-29.22793545521166
-0.2267,-29.440142150191413
-0.22770000000000012,-29.62405461917387
-0.22870000000000001,-29.836261314153624
-0.22970000000000013,-30.147497800123933
-0.23070000000000002,-30.359704495103685
-0.23170000000000013,-30.359704495103685
-0.23270000000000002,-30.402145834099635
-0.23370000000000013,-30.529469851087494
-0.23470000000000002,-30.670940981073993
-0.23570000000000013,-30.7558236590659
-0.23670000000000002,-30.79826499806185
-0.2376999999999999,-30.79826499806185
-0.23870000000000002,-30.670940981073993
-0.2396999999999999,-30.274821817111786
-0.24070000000000003,-29.878702653149578
-0.24169999999999991,-29.525024828183312
-0.24270000000000003,-29.22793545521166
-0.24369999999999992,-29.100611438223805
-0.24470000000000003,-29.100611438223805
-0.24569999999999992,-29.31281813320356
-0.24670000000000003,-29.525024828183312
-0.24769999999999992,-29.66649595816982
-0.24870000000000003,-29.878702653149578
-0.24969999999999992,-30.10505646112798
-0.25070000000000003,-30.232380478115836
-0.2516999999999999,-30.402145834099635
-0.25270000000000004,-30.571911190083444
-0.2536999999999999,-30.614352529079397
-0.25470000000000004,-30.670940981073993
-0.2556999999999999,-30.614352529079397
-0.25670000000000004,-30.487028512091538
-0.25769999999999993,-30.317263156107735
-0.25870000000000004,-30.04846800913338
-0.25969999999999993,-29.836261314153624
-0.26070000000000004,-29.708937297165768
-0.26169999999999993,-29.66649595816982
-0.26270000000000004,-29.581613280177915
-0.26369999999999993,-29.525024828183312
-0.26470000000000005,-29.482583489187363
-0.26569999999999994,-29.581613280177915
-0.26670000000000005,-29.66649595816982
-0.26769999999999994,-29.793819975157668
-0.26870000000000005,-29.96358533114148
-0.26969999999999994,-30.00602667013743
-0.27070000000000005,-30.147497800123933
-0.27169999999999994,-30.317263156107735
-0.27270000000000005,-30.317263156107735
-0.27369999999999994,-30.402145834099635
-0.27470000000000006,-30.487028512091538
-0.27569999999999995,-30.571911190083444
-0.27670000000000006,-30.614352529079397
-0.27769999999999995,-30.670940981073993
-0.27870000000000006,-30.614352529079397
-0.27969999999999995,-30.614352529079397
-0.28070000000000006,-30.614352529079397
-0.28169999999999995,-30.529469851087494
-0.28270000000000006,-30.614352529079397
-0.28369999999999995,-30.529469851087494
-0.28470000000000006,-30.571911190083444
-0.28569999999999995,-30.529469851087494
-0.28670000000000007,-30.614352529079397
-0.28769999999999996,-30.571911190083444
-0.28870000000000007,-30.670940981073993
-0.28969999999999996,-30.614352529079397
-0.29070000000000007,-30.571911190083444
-0.29169999999999996,-30.529469851087494
-0.29270000000000007,-30.529469851087494
-0.29369999999999996,-30.359704495103685
-0.2947000000000001,-30.232380478115836
-0.29569999999999996,-30.274821817111786
-0.2967000000000001,-30.274821817111786
-0.29769999999999996,-30.359704495103685
-0.2987000000000001,-30.529469851087494
-0.29969999999999997,-30.670940981073993
-0.3007000000000001,-30.71338232006995
-0.30169999999999997,-30.79826499806185
-0.3027000000000001,-30.968030354045652
-0.30369999999999997,-31.010471693041605
-0.3047000000000001,-31.095354371033505
-0.30569999999999997,-31.19438416202406
-0.3067000000000001,-31.137795710029454
-0.3077,-31.095354371033505
-0.3087000000000001,-31.095354371033505
-0.3097,-31.137795710029454
-0.3107000000000001,-31.19438416202406
-0.3117,-31.23682550102001
-0.3127000000000001,-31.36414951800786
-0.3137,-31.40659085700382
-0.3147000000000001,-31.533914873991666
-0.3157,-31.802710020966025
-0.3167000000000001,-31.887592698957924
-0.3177,-31.972475376949827
-0.3187000000000001,-32.01491671594578
-0.3197,-32.05735805494172
-0.3207000000000001,-31.972475376949827
-0.3217,-31.84515135996197
-0.3227000000000001,-31.717827342974125
-0.3237,-31.661238890979522
-0.3247000000000001,-31.533914873991666
-0.3257,-31.449032195999767
-0.3267000000000001,-31.36414951800786
-0.3277,-31.36414951800786
-0.3287000000000001,-31.23682550102001
-0.3297,-31.27926684001596
-0.3307000000000001,-31.23682550102001
-0.3317,-31.137795710029454
-0.3327000000000001,-31.137795710029454
-0.3337,-31.23682550102001
-0.3347000000000001,-31.095354371033505
-0.3357,-31.27926684001596
-0.3367000000000001,-31.449032195999767
-0.3377,-31.661238890979522
-0.3387000000000001,-31.84515135996197
-0.3397,-32.14224073293363
-0.3407000000000001,-32.45347721890394
-0.3417,-32.807155043870196
-0.3427000000000001,-33.01936173884996
-0.3437,-33.330598224820264
-0.3447000000000001,-33.373039563816214
-0.3457,-33.45792224180811
-0.3467000000000001,-33.41548090281216
-0.3477,-33.41548090281216
-0.3487000000000001,-33.231568433829715
-0.3497,-33.10424441684186
-0.3507000000000001,-33.01936173884996
-0.3517,-32.764713704874254
-0.3527000000000001,-32.58080123589179
-0.3537,-32.41103587990799
-0.3547000000000001,-32.09979939393769
-0.3557,-31.49147353499572
-0.35670000000000013,-31.137795710029454
-0.3577,-31.27926684001596
-0.35870000000000013,-31.40659085700382
-0.3597,-31.57635621298762
-0.36070000000000013,-31.717827342974125
-0.3617,-31.802710020966025
-0.3626999999999999,-32.24127052392419
-0.3637,-32.53835989689585
-0.3646999999999999,-32.84959638286615
-0.3657,-33.06180307784591
-0.3666999999999999,-33.373039563816214
-0.3677,-33.58524625879597
-0.3686999999999999,-33.85404140577033
-0.36970000000000003,-34.10868943974604
-0.3706999999999999,-34.06624810075008
-0.37170000000000003,-34.15113077874198
-0.3726999999999999,-34.06624810075008
-0.37370000000000003,-34.10868943974604
-0.3746999999999999,-34.02380676175414
-0.37570000000000003,-34.06624810075008
-0.3766999999999999,-34.193572117737936
-0.37770000000000004,-34.33504324772444
-0.3786999999999999,-34.377484586720385
-0.37970000000000004,-34.236013456733886
-0.3806999999999999,-33.89648274476628
-0.38170000000000004,-33.41548090281216
-0.38269999999999993,-33.41548090281216
-0.38370000000000004,-33.41548090281216
-0.38469999999999993,-33.45792224180811
-0.38570000000000004,-33.58524625879597
-0.38669999999999993,-33.85404140577033
-0.38770000000000004,-34.10868943974604
-0.38869999999999993,-34.58969128170015
-0.38970000000000005,-35.240458479638065
-0.39069999999999994,-35.806342999584075
-0.39170000000000005,-36.329786180534136
-0.39269999999999994,-36.768346683492304
-0.39370000000000005,-36.99470049147071
-0.39469999999999994,-37.291789864442364
-0.39570000000000005,-37.41911388143023
-0.39669999999999994,-37.60302635041268
-0.39770000000000005,-37.687909028404576
-0.39869999999999994,-37.90011572338433
-0.39970000000000006,-37.99914551437489
-0.40069999999999995,-37.90011572338433
-0.40170000000000006,-37.81523304539243
-0.40269999999999995,-37.85767438438838
-0.40370000000000006,-37.73035036740053
-0.40469999999999995,-37.85767438438838
-0.40570000000000006,-37.90011572338433
-0.40669999999999995,-38.08402819236679
-0.40770000000000006,-38.16891087035869
-0.40869999999999995,-38.38111756533845
-0.40970000000000006,-38.777236729300654
-0.41069999999999995,-38.98944342428042
-0.41170000000000007,-39.34312124924667
-0.41269999999999996,-39.654357735216976
-0.41370000000000007,-39.86656443019674
-0.41469999999999996,-40.135359577171094
-0.41570000000000007,-40.30512493315489
-0.41669999999999996,-40.559772967130606
-0.41770000000000007,-40.743685436113054
-0.41869999999999996,-40.87100945310091
-0.4197000000000001,-41.04077480908471
-0.42069999999999996,-41.22468727806717
-0.4217000000000001,-41.52177665103883
-0.42269999999999996,-41.79057179801318
-0.4237000000000001,-42.2715736399673
-0.42469999999999997,-42.752575481921404
-0.4257000000000001,-43.23357732387552
-0.42669999999999997,-43.61554937483908
-0.4277000000000001,-44.3229050247716
-0.42869999999999997,-44.88878954471762
-0.4297000000000001,-45.53955674265553
-0.43069999999999997,-46.062999923605595
-0.4317000000000001,-46.628884443551605
-0.4327,-47.19476896349763
-0.4337000000000001,-47.590888127459834
-0.4347,-48.156772647405845
-0.4357000000000001,-48.80753984534376
-0.4367,-49.373424365289786
-0.4377000000000001,-49.98175022423175
-0.4387,-50.73154721316022
-0.4397000000000001,-51.33987307210218
-0.4407,-51.948198931044146
-0.4417000000000001,-52.64140746797801
-0.4427,-53.16485064892808
-0.4437000000000001,-53.872206298860604
-0.4447,-54.43809081880661
-0.4457000000000001,-55.046416677748574
-0.4467,-55.7820665536784
-0.4477000000000001,-56.44698086461496
-0.4487,-57.14018940154883
-0.4497000000000001,-57.87583927747865
-0.4507,-58.583194927411164
-0.4517000000000001,-59.23396212534908
-0.4527,-59.9696120012789
-0.4537000000000001,-60.54964363422357
-0.4547,-61.242852171157445
-0.4557000000000001,-61.851178030099405
-0.4567,-62.459503889041365
-0.4577000000000001,-63.29418355596174
-0.4587,-63.944950753899654
-0.4597000000000001,-64.82207175981598
-0.4607,-65.60016297474175
-0.4617000000000001,-66.56216665864997
-0.4627,-67.39684632557035
-0.4637000000000001,-68.38714423547587
-0.4647,-69.3491479193841
-0.4657000000000001,-70.09894490831257
-0.4667,-70.87703612323833
-0.4677000000000001,-71.75415712915466
-0.4687,-72.40492432709259
-0.4697000000000001,-73.0556915250305
-0.4707,-73.80548851395896
-0.4717000000000001,-74.45625571189689
-0.4727,-75.19190558782671
-0.4737000000000001,-75.71534876877676
-0.4747,-76.38026307971333
-0.4757000000000001,-77.0734716166472
-0.4767,-77.86570994457162
-0.4777000000000001,-78.47403580351359
-0.4787,-79.16724434044745
-0.4797000000000001,-79.81801153838538
-0.4807,-80.46877873632329
-0.48170000000000013,-81.1761343862558
-0.4827,-81.78446024519776
-0.48370000000000013,-82.30790342614785
-0.4847,-82.746463929106
-0.48570000000000013,-83.08599464107361
-0.4867,-82.9162292850898
-0.48570000000000013,-81.95422560118158
-0.4847,-81.1761343862558
-0.48370000000000013,-80.38389605833139
-0.4827,-79.73312886039348
-0.48170000000000013,-79.47848082641775
-0.4807,-79.16724434044745
-0.4797000000000001,-78.91259630647174
-0.4787,-78.72868383748929
-0.4777000000000001,-79.0399203234596
-0.4767,-79.2945683574353
-0.4757000000000001,-79.56336350440966
-0.4747,-79.86045287738132
-0.4737000000000001,-80.17168936335163
-0.4727,-80.38389605833139
-0.4717000000000001,-80.46877873632329
-0.4707,-80.99222191727335
-0.4697000000000001,-81.1761343862558
-0.4687,-81.13369304725985
-0.4677000000000001,-80.7800152222936
-0.4667,-80.34145471933543
-0.4657000000000001,-79.73312886039348
-0.4647,-78.91259630647174
