Potential V vs RHE, Current mA cm-2
0.013299999999999867,1.0881959318561862
0.012299999999999978,0.6956135461436386
0.011299999999999866,0.3031726315610774
0.010299999999999976,-0.002205534916489592
0.009299999999999864,-0.3511313446265021
0.008299999999999974,-0.7001406223032067
0.007299999999999862,-1.0490084288499246
0.006299999999999972,-1.3543031273607997
0.00529999999999986,-1.6156003044458718
0.0042999999999999705,-1.8773218949209036
0.0032999999999998586,-2.095187435100119
0.0022999999999999687,-2.3569090255751513
0.0012999999999998568,-2.618630616050183
0.00029999999999996696,-2.8803522065252145
-0.000700000000000145,-3.1420737970002466
-0.0017000000000000348,-3.403795387475278
-0.0027000000000001467,-3.623075638954359
-0.0037000000000000366,-3.840941179133574
-0.0047000000000001485,-4.014950669016974
-0.005700000000000038,-4.1889601589003735
-0.00670000000000015,-4.364384360083638
-0.00770000000000004,-4.626105950558669
-0.008700000000000152,-4.887827541033701
-0.009700000000000042,-5.105693081212917
-0.010700000000000154,-5.367414671687949
-0.011700000000000044,-5.5414241615713475
-0.012700000000000156,-5.672992312458796
-0.013700000000000045,-5.80314575204638
-0.014700000000000157,-5.9347139029338285
-0.015700000000000047,-6.064867342521412
-0.01670000000000016,-6.238876832404812
-0.01770000000000005,-6.37044498329226
-0.01870000000000016,-6.588310523471475
-0.01970000000000005,-6.762320013354876
-0.020700000000000163,-6.893888164242324
-0.021700000000000053,-7.067897654125724
-0.022700000000000164,-7.243321855308987
-0.023700000000000054,-7.37347529489657
-0.024700000000000166,-7.5474847847799715
-0.025700000000000056,-7.722908985963235
-0.026700000000000168,-7.896918475846635
-0.027700000000000058,-8.11478401602585
-0.02870000000000017,-8.158640066321666
-0.02970000000000006,-8.332649556205066
-0.03070000000000017,-8.464217707092514
-0.03170000000000006,-8.55051509638428
-0.03270000000000017,-8.638227196975913
-0.03370000000000006,-8.769795347863363
-0.034700000000000175,-8.899948787450944
-0.035700000000000065,-9.073958277334345
-0.03670000000000018,-9.293238528813426
-0.03770000000000007,-9.511104068992642
-0.03870000000000018,-9.728969609171857
-0.03970000000000007,-9.81668170976349
-0.04070000000000018,-9.99069119964689
-0.04170000000000007,-10.164700689530287
-0.04270000000000018,-10.208556739826104
-0.04370000000000007,-10.340124890713554
-0.044700000000000184,-10.42642228000532
-0.045700000000000074,-10.42642228000532
-0.046700000000000186,-10.42642228000532
-0.047700000000000076,-10.470278330301136
-0.04870000000000019,-10.470278330301136
-0.04970000000000008,-10.688143870480351
-0.05070000000000019,-10.949865460955383
-0.05170000000000008,-11.123874950838783
-0.05270000000000019,-11.211587051430415
-0.05370000000000008,-11.123874950838783
-0.05470000000000019,-10.863568071663616
-0.05570000000000008,-10.863568071663616
-0.056700000000000195,-10.993721511251199
-0.057700000000000085,-11.1677310011346
-0.058700000000000196,-11.42945259160963
-0.059700000000000086,-11.73503023238048
-0.0607000000000002,-11.952895772559694
-0.06170000000000009,-12.040607873151327
-0.0627000000000002,-12.170761312738911
-0.06370000000000009,-12.302329463626359
-0.0647000000000002,-12.346185513922174
-0.06570000000000009,-12.346185513922174
-0.0667000000000002,-12.346185513922174
-0.0677000000000001,-12.346185513922174
-0.0687000000000002,-12.302329463626359
-0.0697000000000001,-12.346185513922174
-0.07070000000000021,-12.432482903213943
-0.0717000000000001,-12.476338953509758
-0.07270000000000021,-12.607907104397206
-0.0737000000000001,-12.694204493688973
-0.07470000000000021,-12.869628694872238
-0.0757000000000001,-13.043638184755638
-0.07670000000000021,-13.175206335643086
-0.0777000000000001,-13.349215825526485
-0.07870000000000021,-13.523225315409885
-0.0797000000000001,-13.610937416001518
-0.08070000000000022,-13.610937416001518
-0.0817000000000001,-13.654793466297335
-0.08270000000000022,-13.654793466297335
-0.08370000000000011,-13.654793466297335
-0.08470000000000022,-13.784946905884919
-0.08570000000000011,-13.872659006476551
-0.08670000000000022,-13.872659006476551
-0.08770000000000011,-13.872659006476551
-0.08870000000000022,-13.872659006476551
-0.08970000000000011,-13.960371107068182
-0.09070000000000022,-14.046668496359947
-0.09170000000000011,-14.175407224647667
-0.09270000000000023,-14.30273124163552
-0.09370000000000012,-14.529085049613924
-0.09470000000000023,-14.65640906660178
-0.09570000000000012,-14.69885040559773
-0.09670000000000023,-14.69885040559773
-0.09770000000000012,-14.529085049613924
-0.09870000000000023,-14.486643710617974
-0.09970000000000012,-14.57152638860988
-0.10070000000000023,-14.783733083589633
-0.10170000000000012,-15.349617603535648
-0.10270000000000024,-15.74573676749786
-0.10370000000000013,-16.014531914472215
-0.10470000000000024,-16.056973253468165
-0.10570000000000013,-15.70329542850191
-0.10670000000000024,-15.179852247551842
-0.10770000000000013,-14.57152638860988
-0.10870000000000024,-14.401761032626075
-0.10970000000000013,-14.65640906660178
-0.11070000000000024,-15.264734925543747
-0.11170000000000013,-15.78817810649381
-0.11270000000000002,-16.184297270456018
-0.11370000000000013,-16.438945304431726
-0.11470000000000002,-16.438945304431726
-0.11570000000000014,-16.495533756426326
-0.11670000000000003,-16.495533756426326
-0.11770000000000014,-16.22673860945197
-0.11870000000000003,-15.78817810649381
-0.11970000000000014,-15.307176264539699
-0.12070000000000003,-15.307176264539699
-0.12170000000000014,-15.533530072518102
-0.12270000000000003,-15.87306078448571
-0.12370000000000014,-16.184297270456018
-0.12470000000000003,-16.438945304431726
-0.12570000000000014,-16.792623129397985
-0.12670000000000003,-16.877505807389888
-0.12770000000000015,-16.792623129397985
-0.12870000000000004,-16.622857773414182
-0.12970000000000015,-16.53797509542228
-0.13070000000000004,-16.311621287443874
-0.13170000000000015,-16.269179948447924
-0.13270000000000004,-16.396503965435777
-0.13370000000000015,-16.580416434418233
-0.13470000000000004,-16.70774045140608
-0.13570000000000015,-16.877505807389888
-0.13670000000000004,-17.018976937376394
-0.13770000000000016,-17.061418276372343
-0.13870000000000005,-17.146300954364243
-0.13970000000000016,-17.061418276372343
-0.14070000000000005,-16.919947146385837
-0.14170000000000016,-16.835064468393938
-0.14270000000000005,-16.750181790402035
-0.14370000000000016,-16.750181790402035
-0.14470000000000005,-16.750181790402035
-0.14570000000000016,-16.750181790402035
-0.14670000000000005,-16.792623129397985
-0.14770000000000016,-16.750181790402035
-0.14870000000000005,-16.792623129397985
-0.14970000000000017,-16.835064468393938
-0.15070000000000006,-16.919947146385837
-0.15170000000000017,-16.962388485381787
-0.15270000000000006,-16.962388485381787
-0.15370000000000017,-16.962388485381787
-0.15470000000000006,-16.877505807389888
-0.15570000000000017,-16.70774045140608
-0.15670000000000006,-16.70774045140608
-0.15770000000000017,-16.750181790402035
-0.15870000000000006,-16.877505807389888
-0.15970000000000018,-17.061418276372343
-0.16070000000000007,-17.231183632356142
-0.16170000000000018,-17.358507649344002
-0.16270000000000007,-17.4433903273359
-0.16370000000000018,-17.4433903273359
-0.16470000000000007,-17.316066310348052
-0.16570000000000018,-17.358507649344002
-0.16670000000000007,-17.358507649344002
-0.16770000000000018,-17.316066310348052
-0.16870000000000007,-17.2736249713521
-0.16970000000000018,-17.231183632356142
-0.17070000000000007,-17.231183632356142
-0.17170000000000019,-17.231183632356142
-0.17270000000000008,-17.316066310348052
-0.1737000000000002,-17.40094898833995
-0.17470000000000008,-17.40094898833995
-0.1757000000000002,-17.40094898833995
-0.17670000000000008,-17.358507649344002
-0.1777000000000002,-17.2736249713521
-0.17870000000000008,-17.231183632356142
-0.1797000000000002,-17.231183632356142
-0.18070000000000008,-17.316066310348052
-0.1817000000000002,-17.40094898833995
-0.18270000000000008,-17.542420118326454
-0.1837000000000002,-17.584861457322408
-0.1847000000000001,-17.584861457322408
-0.1857000000000002,-17.584861457322408
-0.1867000000000001,-17.627302796318357
-0.1877000000000002,-17.669744135314307
-0.1887000000000001,-17.669744135314307
-0.1897000000000002,-17.75462681330621
-0.1907000000000001,-17.75462681330621
-0.1917000000000001,-17.627302796318357
-0.19269999999999998,-17.4433903273359
-0.1937000000000001,-17.40094898833995
-0.19469999999999998,-17.358507649344002
-0.1957000000000001,-17.358507649344002
-0.19669999999999999,-17.358507649344002
-0.1977000000000001,-17.4433903273359
-0.1987,-17.48583166633185
-0.1997000000000001,-17.48583166633185
-0.2007,-17.584861457322408
-0.2017000000000001,-17.584861457322408
-0.2027,-17.48583166633185
-0.2037000000000001,-17.584861457322408
-0.2047,-17.627302796318357
-0.2057000000000001,-17.627302796318357
-0.2067,-17.584861457322408
-0.2077000000000001,-17.4433903273359
-0.2087,-17.4433903273359
-0.2097000000000001,-17.48583166633185
-0.2107,-17.627302796318357
-0.2117000000000001,-17.924392169290012
-0.2127,-18.06586329927652
-0.2137000000000001,-18.19318731626437
-0.2147,-18.23562865526032
-0.2157000000000001,-18.23562865526032
-0.2167,-18.19318731626437
-0.21770000000000012,-18.23562865526032
-0.2187,-18.27806999425627
-0.21970000000000012,-18.15074597726842
-0.2207,-18.27806999425627
-0.22170000000000012,-18.19318731626437
-0.2227,-18.27806999425627
-0.22370000000000012,-18.40539401124413
-0.2247,-18.49027668923603
-0.22570000000000012,-18.589306480226583
-0.2267,-18.631747819222536
-0.22770000000000012,-18.631747819222536
-0.22870000000000001,-18.589306480226583
-0.22970000000000013,-18.49027668923603
-0.23070000000000002,-18.40539401124413
-0.23170000000000013,-18.19318731626437
-0.23270000000000002,-18.15074597726842
-0.23370000000000013,-18.19318731626437
-0.23470000000000002,-18.23562865526032
-0.23570000000000013,-18.362952672248177
-0.23670000000000002,-18.49027668923603
-0.2376999999999999,-18.631747819222536
-0.23870000000000002,-18.631747819222536
-0.2396999999999999,-18.53271802823198
-0.24070000000000003,-18.49027668923603
-0.24169999999999991,-18.44783535024008
-0.24270000000000003,-18.40539401124413
-0.24369999999999992,-18.40539401124413
-0.24470000000000003,-18.44783535024008
-0.24569999999999992,-18.53271802823198
-0.24670000000000003,-18.674189158218486
-0.24769999999999992,-18.759071836210385
-0.24870000000000003,-18.88639585319824
-0.24969999999999992,-18.92883719219419
-0.25070000000000003,-18.97127853119014
-0.2516999999999999,-19.01371987018609
-0.25270000000000004,-19.01371987018609
-0.2536999999999999,-19.01371987018609
-0.25470000000000004,-19.01371987018609
-0.2556999999999999,-18.97127853119014
-0.25670000000000004,-19.01371987018609
-0.25769999999999993,-19.056161209182044
-0.25870000000000004,-19.056161209182044
-0.25969999999999993,-19.2400736781645
-0.26070000000000004,-19.3249563561564
-0.26169999999999993,-19.409839034148305
-0.26270000000000004,-19.409839034148305
-0.26369999999999993,-19.3249563561564
-0.26470000000000005,-19.3249563561564
-0.26569999999999994,-19.367397695152352
-0.26670000000000005,-19.49472171214021
-0.26769999999999994,-19.636192842126707
-0.26870000000000005,-19.721075520118614
-0.26969999999999994,-19.721075520118614
-0.27070000000000005,-19.721075520118614
-0.27169999999999994,-19.579604390132108
-0.27270000000000005,-19.537163051136158
-0.27369999999999994,-19.452280373144255
-0.27470000000000006,-19.367397695152352
-0.27569999999999995,-19.3249563561564
-0.27670000000000006,-19.3249563561564
-0.27769999999999995,-19.3249563561564
-0.27870000000000006,-19.409839034148305
-0.27969999999999995,-19.537163051136158
-0.28070000000000006,-19.636192842126707
-0.28169999999999995,-19.678634181122664
-0.28270000000000006,-19.678634181122664
-0.28369999999999995,-19.579604390132108
-0.28470000000000006,-19.452280373144255
-0.28569999999999995,-19.452280373144255
-0.28670000000000007,-19.49472171214021
-0.28769999999999996,-19.452280373144255
-0.28870000000000007,-19.678634181122664
-0.28969999999999996,-19.805958198110513
-0.29070000000000007,-19.93328221509837
-0.29169999999999996,-20.06060623208622
-0.29270000000000007,-20.06060623208622
-0.29369999999999996,-19.97572355409432
-0.2947000000000001,-20.01816489309027
-0.29569999999999996,-20.01816489309027
-0.2967000000000001,-19.93328221509837
-0.29769999999999996,-19.805958198110513
-0.2987000000000001,-19.678634181122664
-0.29969999999999997,-19.763516859114564
-0.3007000000000001,-19.890840876102416
-0.30169999999999997,-19.97572355409432
-0.3027000000000001,-20.10304757108217
-0.30369999999999997,-20.202077362072725
-0.3047000000000001,-20.286960040064624
-0.30569999999999997,-20.329401379060574
-0.3067000000000001,-20.456725396048434
-0.3077,-20.456725396048434
-0.3087000000000001,-20.72552054302279
-0.3097,-20.980168576998494
-0.3107000000000001,-21.065051254990397
-0.3117,-20.89528589900659
-0.3127000000000001,-20.72552054302279
-0.3137,-20.499166735044383
-0.3147000000000001,-20.371842718056527
-0.3157,-20.371842718056527
-0.3167000000000001,-20.456725396048434
-0.3177,-20.414284057052477
-0.3187000000000001,-20.456725396048434
-0.3197,-20.626490752032236
-0.3207000000000001,-20.72552054302279
-0.3217,-20.810403221014692
-0.3227000000000001,-20.72552054302279
-0.3237,-20.72552054302279
-0.3247000000000001,-20.810403221014692
-0.3257,-20.89528589900659
-0.3267000000000001,-20.93772723800254
-0.3277,-20.89528589900659
-0.3287000000000001,-20.93772723800254
-0.3297,-20.980168576998494
-0.3307000000000001,-21.107492593986347
-0.3317,-21.333846401964752
-0.3327000000000001,-21.503611757948562
-0.3337,-21.58849443594046
-0.3347000000000001,-21.67337711393236
-0.3357,-21.58849443594046
-0.3367000000000001,-21.63093577493641
-0.3377,-21.814848243918867
-0.3387000000000001,-21.899730921910766
-0.3397,-21.899730921910766
-0.3407000000000001,-22.196820294882425
-0.3417,-22.196820294882425
-0.3427000000000001,-22.111937616890522
-0.3437,-22.111937616890522
-0.3447000000000001,-21.899730921910766
-0.3457,-21.899730921910766
-0.3467000000000001,-21.98461359990267
-0.3477,-22.15437895588647
-0.3487000000000001,-22.33829142486893
-0.3497,-22.508056780852733
-0.3507000000000001,-22.550498119848687
-0.3517,-22.72026347583249
-0.3527000000000001,-22.819293266823045
-0.3537,-22.819293266823045
-0.3547000000000001,-22.63538079784059
-0.3557,-22.33829142486893
-0.35670000000000013,-22.550498119848687
-0.3577,-22.946617283810895
-0.35870000000000013,-23.342736447773106
-0.3597,-23.597384481748815
-0.36070000000000013,-23.724708498736668
-0.3617,-23.724708498736668
-0.3626999999999999,-23.682267159740714
-0.3637,-23.682267159740714
-0.3646999999999999,-23.767149837732617
-0.3657,-23.823738289727217
-0.3666999999999999,-23.951062306715073
-0.3677,-24.120827662698876
-0.3686999999999999,-24.290593018682678
-0.36970000000000003,-24.474505487665134
-0.3706999999999999,-24.559388165657033
-0.37170000000000003,-24.559388165657033
-0.3726999999999999,-24.686712182644893
-0.37370000000000003,-24.814036199632742
-0.3746999999999999,-24.870624651627345
-0.37570000000000003,-24.997948668615198
-0.3766999999999999,-25.12527268560305
-0.37770000000000004,-25.167714024599
-0.3786999999999999,-25.337479380582806
-0.37970000000000004,-25.478950510569312
-0.3806999999999999,-25.73359854454502
-0.38170000000000004,-26.002393691519377
-0.38269999999999993,-26.257041725495082
-0.38370000000000004,-26.483395533473487
-0.38469999999999993,-26.65316088945729
-0.38570000000000004,-26.86536758443705
-0.38669999999999993,-27.134162731411404
-0.38770000000000004,-27.34636942639116
-0.38869999999999993,-27.530281895373616
-0.38970000000000005,-27.78492992934932
-0.39069999999999994,-28.011283737327723
-0.39170000000000005,-28.308373110299385
-0.39269999999999994,-28.746933613257543
-0.39370000000000005,-29.100611438223805
-0.39469999999999994,-29.35525947219951
-0.39570000000000005,-29.793819975157668
-0.39669999999999994,-30.359704495103685
-0.39770000000000005,-30.7558236590659
-0.39869999999999994,-31.449032195999767
-0.39970000000000006,-31.930034037953877
-0.40069999999999995,-32.45347721890394
-0.40170000000000006,-33.14668575583781
-0.40269999999999995,-33.81160006677438
-0.40370000000000006,-34.377484586720385
-0.40469999999999995,-34.8018979766799
-0.40570000000000006,-35.38192960962457
-0.40669999999999995,-35.94781412957058
-0.40770000000000006,-36.725905344496354
-0.40869999999999995,-37.41911388143023
-0.40970000000000006,-38.211352209354644
-0.41069999999999995,-38.777236729300654
-0.41170000000000007,-39.42800392723857
-0.41269999999999996,-39.90900576919269
-0.41370000000000007,-40.616361419125205
-0.41469999999999996,-41.352011295055014
-0.41570000000000007,-42.00277849299294
-0.41669999999999996,-42.837458159913304
-0.41770000000000007,-43.88434452181344
-0.41869999999999996,-44.74731841473111
-0.4197000000000001,-45.45467406466363
-0.42069999999999996,-46.062999923605595
-0.4217000000000001,-46.713767121543505
-0.42269999999999996,-47.54844678846388
-0.4237000000000001,-48.36897934238561
-0.42469999999999997,-48.97730520132757
-0.4257000000000001,-49.81198486824794
-0.42669999999999997,-50.60422319617236
-0.4277000000000001,-51.509638428085985
-0.42869999999999997,-52.471642111994214
-0.4297000000000001,-53.476087134898386
-0.43069999999999997,-54.39564947981066
-0.4317000000000001,-55.003975338752625
-0.4327,-55.612301197694585
-0.4337000000000001,-56.36209818662306
-0.4347,-57.26751341853669
-0.4357000000000001,-58.14463442445301
-0.4367,-58.62563626640712
-0.4377000000000001,-59.27640346434504
-0.4387,-60.02620045327351
-0.4397000000000001,-60.93161568518713
-0.4407,-61.6814126741156
-0.4417000000000001,-62.28973853305756
-0.4427,-63.11027108697928
-0.4437000000000001,-63.860068075907755
-0.4447,-64.29862857886593
-0.4457000000000001,-64.86451309881193
-0.4467,-65.43039761875795
-0.4477000000000001,-66.16604749468777
-0.4487,-66.77437335362974
-0.4497000000000001,-67.43928766456631
-0.4507,-68.0051721845123
-0.4517000000000001,-68.61349804345427
-0.4527,-69.39158925838004
-0.4537000000000001,-69.87259110033416
-0.4547,-70.53750541127073
-0.4557000000000001,-71.44292064318435
-0.4567,-72.57468968307639
-0.4577000000000001,-73.72060583596706
-0.4587,-74.66846240687663
-0.4597000000000001,-75.33337671781321
-0.4607,-75.85681989876326
-0.4617000000000001,-76.29538040172143
-0.4627,-76.81882358267148
-0.4637000000000001,-77.0734716166472
-0.4647,-77.1583542946391
-0.4657000000000001,-77.63935613659322
-0.4667,-78.43159446451764
-0.4677000000000001,-78.8135665154812
-0.4687,-79.56336350440966
-0.4697000000000001,-80.00192400736783
-0.4707,-80.69513254430169
-0.4717000000000001,-80.86489790028548
-0.4727,-81.69957756720586
-0.4737000000000001,-82.22302074815593
-0.4747,-82.78890526810196
-0.4757000000000001,-83.43967246603985
-0.4767,-83.87823296899803
-0.4777000000000001,-83.87823296899803
-0.4787,-84.8826779919022
-0.4797000000000001,-85.13732602587791
-0.4807,-85.09488468688197
-0.48170000000000013,-85.57588652883607
-0.4827,-86.09932970978613
-0.48370000000000013,-86.41056619575643
-0.4847,-86.7076555687281
-0.48570000000000013,-87.01889205469841
-0.4867,-87.10377473269031
-0.48570000000000013,-86.41056619575643
-0.4847,-85.70321054582392
-0.48370000000000013,-84.7977953139103
-0.4827,-84.31679347195619
-0.48170000000000013,-83.43967246603985
-0.4807,-82.61913991211814
-0.4797000000000001,-81.78446024519776
-0.4787,-81.43078242023151
-0.4777000000000001,-80.42633739732734
-0.4767,-80.04436534636378
-0.4757000000000001,-79.2945683574353
-0.4747,-79.2945683574353
-0.4737000000000001,-78.16279931754329
-0.4727,-77.51203211960537
-0.4717000000000001,-76.42270441870929
-0.4707,-75.5880247517889
-0.4697000000000001,-74.54113838988879
-0.4687,-74.24404901691713
-0.4677000000000001,-73.80548851395896
-0.4667,-73.62157604497652
-0.4657000000000001,-73.2820453330089
-0.4647,-72.92836750804264
