Potential V vs RHE, Current mA cm-2
0.013299999999999867,0.12112758149444444
0.012299999999999978,-0.21291405062968802
0.011299999999999866,-0.46444971974569155
0.010299999999999976,-0.6831640867048262
0.009299999999999864,-0.8836286778957019
0.008299999999999974,-1.0582040522990475
0.007299999999999862,-1.2129734685042826
0.006299999999999972,-1.3544445984907862
0.00529999999999986,-1.4925204213576138
0.0042999999999999705,-1.6297474174445223
0.0032999999999998586,-1.7514125892329155
0.0022999999999999687,-1.8391246898245475
0.0012999999999998568,-1.9452280373144257
0.00029999999999996696,-2.054160807404033
-0.000700000000000145,-2.156020020994316
-0.0017000000000000348,-2.2465615441856785
-0.0027000000000001467,-2.3158823978790646
-0.0037000000000000366,-2.389447385472047
-0.0047000000000001485,-2.475744774763814
-0.005700000000000038,-2.546480339757066
-0.00670000000000015,-2.618630616050183
-0.00770000000000004,-2.6681455115454593
-0.008700000000000152,-2.719075118340601
-0.009700000000000042,-2.7714194364356066
-0.010700000000000154,-2.8294225997300737
-0.011700000000000044,-2.893084608224
-0.012700000000000156,-2.9284523907206257
-0.013700000000000045,-2.9935291105144173
-0.014700000000000157,-3.0458734286094242
-0.015700000000000047,-3.10104716930416
-0.01670000000000016,-3.1434885083001114
-0.01770000000000005,-3.161879755198357
-0.01870000000000016,-3.1915886924955226
-0.01970000000000005,-3.2227123410925533
-0.020700000000000163,-3.2623242574887747
-0.021700000000000053,-3.2991067512852656
-0.022700000000000164,-3.3330598224820265
-0.023700000000000054,-3.361354048479327
-0.024700000000000166,-3.3967218309759533
-0.025700000000000056,-3.430674902172714
-0.026700000000000168,-3.46887210726907
-0.027700000000000058,-3.4900927767670455
-0.02870000000000017,-3.5212164253640763
-0.02970000000000006,-3.546681228761647
-0.03070000000000017,-3.664102266650445
-0.03170000000000006,-3.713617162145721
-0.03270000000000017,-3.7320084090439667
-0.03370000000000006,-3.7503996559422124
-0.034700000000000175,-3.780108593239378
-0.035700000000000065,-3.821135220935464
-0.03670000000000018,-3.818305798335734
-0.03770000000000007,-3.801329262737354
-0.03870000000000018,-3.785767438438838
-0.03970000000000007,-3.798499840137624
-0.04070000000000018,-3.835282333934114
-0.04170000000000007,-3.8621618486315503
-0.04270000000000018,-3.85084415823263
-0.04370000000000007,-3.84518531303317
-0.044700000000000184,-3.8649912712312804
-0.045700000000000074,-3.8565030034320897
-0.046700000000000186,-3.8649912712312804
-0.047700000000000076,-3.8480147356329
-0.04870000000000019,-3.8720648277306053
-0.04970000000000008,-3.8989443424280408
-0.05070000000000019,-3.87065011643074
-0.05170000000000008,-3.896114919828311
-0.05270000000000019,-3.9244091458256123
-0.05370000000000008,-3.934312124924667
-0.05470000000000019,-3.9300679910250715
-0.05570000000000008,-3.9555327944226426
-0.056700000000000195,-3.9668504848215624
-0.057700000000000085,-3.971094618721158
-0.058700000000000196,-3.9555327944226426
-0.059700000000000086,-3.9725093300210226
-0.0607000000000002,-3.9852417317198086
-0.06170000000000009,-4.006462401217783
-0.0627000000000002,-4.013535957717109
-0.06370000000000009,-4.0121212464172435
-0.0647000000000002,-4.006462401217783
-0.06570000000000009,-4.029097782015624
-0.0667000000000002,-4.050318451513601
-0.0677000000000001,-3.988071154319539
-0.0687000000000002,-3.982412309120079
-0.0697000000000001,-4.0121212464172435
-0.07070000000000021,-4.030512493315489
-0.0717000000000001,-4.014950669016974
-0.07270000000000021,-4.0220242255163
-0.0737000000000001,-4.020609514216435
-0.07470000000000021,-4.007877112517649
-0.0757000000000001,-3.9838270204199433
-0.07670000000000021,-4.0121212464172435
-0.0777000000000001,-4.033341915915219
-0.07870000000000021,-4.050318451513601
-0.0797000000000001,-4.043244895014275
-0.08070000000000022,-4.111151037407797
-0.0817000000000001,-4.128127573006177
-0.08270000000000022,-4.099833347008876
-0.08370000000000011,-4.098418635709011
-0.08470000000000022,-4.098418635709011
-0.08570000000000011,-4.116809882607257
-0.08670000000000022,-4.146518819904423
-0.08770000000000011,-4.136615840805367
-0.08870000000000022,-4.097003924409146
-0.08970000000000011,-4.068709698411845
-0.09070000000000022,-4.0588067193127895
-0.09170000000000011,-4.068709698411845
-0.09270000000000023,-4.0644655645122505
-0.09370000000000012,-4.063050853212385
-0.09470000000000023,-4.081442100110631
-0.09570000000000012,-4.084271522710361
-0.09670000000000023,-4.089930367909821
-0.09770000000000012,-4.067294987111981
-0.09870000000000023,-4.037586049814815
-0.09970000000000012,-4.054562585413195
-0.10070000000000023,-4.057392008012925
-0.10170000000000012,-4.037586049814815
-0.10270000000000024,-4.014950669016974
-0.10370000000000013,-4.054562585413195
-0.10470000000000024,-4.054562585413195
-0.10570000000000013,-4.043244895014275
-0.10670000000000024,-4.091345079209686
-0.10770000000000013,-4.081442100110631
-0.10870000000000024,-4.063050853212385
-0.10970000000000013,-4.0446596063141405
-0.11070000000000024,-4.054562585413195
-0.11170000000000013,-4.082856811410497
-0.11270000000000002,-4.119639305206987
-0.11370000000000013,-4.109736326107932
-0.11470000000000002,-4.105492192208336
-0.11570000000000014,-4.088515656609956
-0.11670000000000003,-4.06163614191252
-0.11770000000000014,-4.06163614191252
-0.11870000000000003,-4.0644655645122505
-0.11970000000000014,-4.009291823817514
-0.12070000000000003,-4.023438936816164
-0.12170000000000014,-4.023438936816164
-0.12270000000000003,-4.051733162813465
-0.12370000000000014,-4.075783254911171
-0.12470000000000003,-4.0220242255163
-0.12570000000000014,-4.0319272046153545
-0.12670000000000003,-4.040415472414544
-0.12770000000000015,-4.146518819904423
-0.12870000000000004,-4.279501682091736
-0.12970000000000015,-4.310625330688767
-0.13070000000000004,-4.3063811967891725
-0.13170000000000015,-4.300722351589712
-0.13270000000000004,-4.2413044769953805
-0.13370000000000015,-4.2526221673943
-0.13470000000000004,-4.22715736399673
-0.13570000000000015,-4.22715736399673
-0.13670000000000004,-4.251207456094435
-0.13770000000000016,-4.24696332219484
-0.13870000000000005,-4.256866301293895
-0.13970000000000016,-4.2413044769953805
-0.14070000000000005,-4.251207456094435
-0.14170000000000016,-4.271013414292546
-0.14270000000000005,-4.282331104691466
-0.14370000000000016,-4.283745815991331
-0.14470000000000005,-4.266769280392952
-0.14570000000000016,-4.262525146493355
-0.14670000000000005,-4.265354569093086
-0.14770000000000016,-4.2611104351934905
-0.14870000000000005,-4.24979274479457
-0.14970000000000017,-4.25545158999403
-0.15070000000000006,-4.24696332219484
-0.15170000000000017,-4.278086970791871
-0.15270000000000006,-4.2413044769953805
-0.15370000000000017,-4.245548610894974
-0.15470000000000006,-4.271013414292546
-0.15570000000000017,-4.297892928989982
-0.15670000000000006,-4.266769280392952
-0.15770000000000017,-4.265354569093086
-0.15870000000000006,-4.245548610894974
-0.15970000000000018,-4.24979274479457
-0.16070000000000007,-4.2526221673943
-0.16170000000000018,-4.273842836892276
-0.16270000000000007,-4.276672259492005
-0.16370000000000018,-4.324772443687417
-0.16470000000000007,-4.371457916582963
-0.16570000000000018,-4.40965512167932
-0.16670000000000007,-4.405410987779724
-0.16770000000000018,-4.406825699079589
-0.16870000000000007,-4.408240410379454
-0.16970000000000018,-4.426631657277699
-0.17070000000000007,-4.443608192876081
-0.17170000000000019,-4.449267038075541
-0.17270000000000008,-4.46058472847446
-0.1737000000000002,-4.473317130173245
-0.17470000000000008,-4.531320293467712
-0.1757000000000002,-4.548296829066093
-0.17670000000000008,-4.535564427367307
-0.1777000000000002,-4.544052695166498
-0.17870000000000008,-4.556785096865283
-0.1797000000000002,-4.544052695166498
-0.18070000000000008,-4.583664611562719
-0.1817000000000002,-4.597811724561368
-0.18270000000000008,-4.603470569760829
-0.1837000000000002,-4.626105950558669
-0.1847000000000001,-4.636008929657725
-0.1857000000000002,-4.651570753956241
-0.1867000000000001,-4.619032394059345
-0.1877000000000002,-4.636008929657725
-0.1887000000000001,-4.627520661858535
-0.1897000000000002,-4.6162029714596144
-0.1907000000000001,-4.604885281060694
-0.1917000000000001,-4.538393849967037
-0.19269999999999998,-4.586494034162449
-0.1937000000000001,-4.582249900262854
-0.19469999999999998,-4.66288844435516
-0.1957000000000001,-4.6614737330552956
-0.19669999999999999,-4.634594218357861
-0.1977000000000001,-4.645911908756781
-0.1987,-4.64308248615705
-0.1997000000000001,-4.6020558584609645
-0.2007,-4.610544126260154
-0.2017000000000001,-4.613373548859885
-0.2027,-4.61478826015975
-0.2037000000000001,-4.626105950558669
-0.2047,-4.6572295991557
-0.2057000000000001,-4.692597381652327
-0.2067,-4.730794586748683
-0.2077000000000001,-4.712403339850438
-0.2087,-4.7010856494515165
-0.2097000000000001,-4.7138180511503025
-0.2107,-4.7138180511503025
-0.2117000000000001,-4.708159205950842
-0.2127,-4.712403339850438
-0.2137000000000001,-4.739282854547873
-0.2147,-4.756259390146253
-0.2157000000000001,-4.767577080545174
-0.2167,-4.791627172642879
-0.21770000000000012,-4.832653800338965
-0.2187,-4.866606871535726
-0.21970000000000012,-4.890656963633432
-0.2207,-4.904804076632082
-0.22170000000000012,-4.8977305201327574
-0.2227,-4.892071674933297
-0.22370000000000012,-4.8977305201327574
-0.2247,-4.926024746130058
-0.22570000000000012,-4.933098302629383
-0.2267,-4.947245415628033
-0.22770000000000012,-4.975539641625334
-0.22870000000000001,-5.017980980621284
-0.22970000000000013,-5.051934051818047
-0.23070000000000002,-5.066081164816696
-0.23170000000000013,-5.080228277815347
-0.23270000000000002,-5.073154721316022
-0.23370000000000013,-5.101448947313322
-0.23470000000000002,-5.133987307210218
-0.23570000000000013,-5.153793265408329
-0.23670000000000002,-5.162281533207518
-0.2376999999999999,-5.197649315704145
-0.23870000000000002,-5.324973332691998
-0.2396999999999999,-5.428247257582146
-0.24070000000000003,-5.472103307877963
-0.24169999999999991,-5.491909266076072
-0.24270000000000003,-5.445223793180525
-0.24369999999999992,-5.426832546282281
-0.24470000000000003,-5.473518019177827
-0.24569999999999992,-5.487665132176478
-0.24670000000000003,-5.491909266076072
-0.24769999999999992,-5.520203492073373
-0.24870000000000003,-5.510300512974317
-0.24969999999999992,-5.544253584171079
-0.25070000000000003,-5.549912429370539
-0.2516999999999999,-5.624892128263387
-0.25270000000000004,-5.654601065560552
-0.2536999999999999,-5.674407023758662
-0.25470000000000004,-5.665918755959472
-0.2556999999999999,-5.702701249755963
-0.25670000000000004,-5.722507207954074
-0.25769999999999993,-5.8102193085457055
-0.25870000000000004,-5.953105149832074
-0.25969999999999993,-6.030914271324651
-0.26070000000000004,-6.1511647318131795
-0.26169999999999993,-6.161067710912235
-0.26270000000000004,-6.158238288312504
-0.26369999999999993,-6.197850204708726
-0.26470000000000005,-6.262926924502518
-0.26569999999999994,-6.323759510396714
-0.26670000000000005,-6.394495075389965
-0.26769999999999994,-6.446839393484972
-0.26870000000000005,-6.514745535878494
-0.26969999999999994,-6.5515280296749845
-0.27070000000000005,-6.6095311929694525
-0.27169999999999994,-6.647728398065807
-0.27270000000000005,-6.639240130266617
-0.27369999999999994,-6.691584448361623
-0.27470000000000006,-6.729781653457979
-0.27569999999999995,-6.783540682852851
-0.27670000000000006,-6.825982021848802
-0.27769999999999995,-6.858520381745699
-0.27870000000000006,-6.908035277240974
-0.27969999999999995,-6.94623248233733
-0.28070000000000006,-6.968867863135171
-0.28169999999999995,-7.049506407227478
-0.28270000000000006,-7.099021302722755
-0.28369999999999995,-7.144292064318436
-0.28470000000000006,-7.237663010109527
-0.28569999999999995,-7.209368784112227
-0.28670000000000007,-7.326789822001024
-0.28769999999999996,-7.396110675694412
-0.28870000000000007,-7.4244049016917115
-0.28969999999999996,-7.49089633278537
-0.29070000000000007,-7.523434692682265
-0.29169999999999996,-7.5347523830811864
-0.29270000000000007,-7.578608433377001
-0.29369999999999996,-7.68471178086688
-0.2947000000000001,-7.763935613659322
-0.29569999999999996,-7.830427044752977
-0.2967000000000001,-7.860135982050143
-0.29769999999999996,-7.8983331871465
-0.2987000000000001,-7.9082361662455565
-0.29969999999999997,-7.997362978137053
-0.3007000000000001,-8.085075078728684
-0.30169999999999997,-8.179860735819641
-0.3027000000000001,-8.24352274431357
-0.30369999999999997,-8.317087731906552
-0.3047000000000001,-8.445826460194269
-0.30569999999999997,-8.447241171494134
-0.3067000000000001,-8.512317891287925
-0.3077,-8.621250661377534
-0.3087000000000001,-8.7075480506693
-0.3097,-8.805163130359988
-0.3107000000000001,-8.846189758056074
-0.3117,-8.899948787450944
-0.3127000000000001,-8.966440218544603
-0.3137,-9.006052134940823
-0.3147000000000001,-9.09517894683232
-0.3157,-9.211185273421254
-0.3167000000000001,-9.352656403407758
-0.3177,-9.464418596097095
-0.3187000000000001,-9.574766077486567
-0.3197,-9.65116048767928
-0.3207000000000001,-9.754434412569427
-0.3217,-9.887417274756743
-0.3227000000000001,-10.041620806442031
-0.3237,-10.180262513828804
-0.3247000000000001,-10.256656924021515
-0.3257,-10.36417498281126
-0.3267000000000001,-10.388225074908965
-0.3277,-10.501401978898167
-0.3287000000000001,-10.659849644483053
-0.3297,-10.809809042268745
-0.3307000000000001,-10.986647954751875
-0.3317,-11.169145712434466
-0.3327000000000001,-11.351643470117054
-0.3337,-11.525652960000453
-0.3347000000000001,-11.743518500179668
-0.3357,-11.972701730757805
-0.3367000000000001,-12.231593898633106
-0.3377,-12.535756828104091
-0.3387000000000001,-12.892264075670079
-0.3397,-13.279894971833098
-0.3407000000000001,-13.656208177597199
-0.3417,-14.274437015638219
-0.3427000000000001,-15.01008689156804
-0.3437,-15.957943462477614
-0.3447000000000001,-17.103859615368293
-0.3457,-18.334658446250877
-0.3467000000000001,-19.678634181122664
-0.3477,-21.1782281589796
-0.3487000000000001,-22.734410588831135
-0.3497,-24.21985745368943
-0.3507000000000001,-25.719451431546364
-0.3517,-27.06342716641815
-0.3527000000000001,-28.350814449295335
-0.3537,-29.59576039317657
-0.3547000000000001,-30.7558236590659
-0.3557,-31.901739811956578
-0.35670000000000013,-33.06180307784591
-0.3577,-34.221866343735236
-0.35870000000000013,-35.339488270628614
-0.3597,-36.35808040653144
-0.36070000000000013,-37.56058501141672
-0.3617,-38.777236729300654
-0.3626999999999999,-39.92315288219133
-0.3637,-40.99833347008877
-0.3646999999999999,-41.98863137999429
-0.3657,-42.738428368922754
-0.3666999999999999,-43.48822535785123
-0.3677,-44.110698329791845
-0.3686999999999999,-45.044407787702774
-0.36970000000000003,-45.963970132615046
-0.3706999999999999,-47.067444946509774
-0.37170000000000003,-47.590888127459834
-0.3726999999999999,-48.36897934238561
-0.37370000000000003,-48.567038924366706
-0.3746999999999999,-48.89242252333566
-0.37570000000000003,-49.43001281728438
-0.3766999999999999,-49.75539641625335
-0.37770000000000004,-50.335428049198
-0.3786999999999999,-50.61837030917101
-0.37970000000000004,-51.60866821907654
-0.3806999999999999,-52.40090654700096
-0.38170000000000004,-53.29217466591593
-0.38269999999999993,-54.05611876784305
-0.38370000000000004,-54.989828225753975
-0.38469999999999993,-55.555712745699985
-0.38570000000000004,-55.49912429370539
-0.38669999999999993,-55.68303676268785
-0.38770000000000004,-57.04115961055828
-0.38869999999999993,-57.564602791508335
-0.38970000000000005,-57.73436814749215
-0.39069999999999994,-57.819250825484055
-0.39170000000000005,-58.894431413381476
-0.39269999999999994,-59.61593417631264
-0.39370000000000005,-60.02620045327351
-0.39469999999999994,-61.7380011261102
-0.39570000000000005,-62.71415192301708
-0.39669999999999994,-62.841475940004926
-0.39770000000000005,-63.29418355596174
-0.39869999999999994,-64.92110155080654
-0.39970000000000006,-65.34551494076604
-0.40069999999999995,-66.20848883368372
-0.40170000000000006,-66.39240130266617
-0.40269999999999995,-66.51972531965401
-0.40370000000000006,-67.87784816752446
-0.40469999999999995,-68.9813229814192
-0.40570000000000006,-71.8248926941479
-0.40669999999999995,-72.10783495412092
-0.40770000000000006,-72.07954072812362
-0.40869999999999995,-73.63572315797516
-0.40970000000000006,-73.7064587229684
-0.41069999999999995,-74.79578642386448
-0.41170000000000007,-75.55973052579161
-0.41269999999999996,-75.77193722077136
-0.41370000000000007,-76.13976215873627
-0.41469999999999996,-75.46070073480107
-0.41570000000000007,-75.61631897778622
-0.41669999999999996,-75.53143629979431
-0.41770000000000007,-75.65876031678216
-0.41869999999999996,-77.00273605165394
-0.4197000000000001,-77.58276768459861
-0.42069999999999996,-78.67209538549469
-0.4217000000000001,-78.72868383748929
-0.42269999999999996,-78.43159446451764
-0.4237000000000001,-78.8135665154812
-0.42469999999999997,-79.64824618240156
-0.4257000000000001,-80.21413070234757
-0.42669999999999997,-81.1761343862558
-0.4277000000000001,-81.51566509822342
-0.42869999999999997,-81.47322375922747
-0.4297000000000001,-80.61024986630979
-0.43069999999999997,-81.54395932422072
-0.4317000000000001,-81.72787179320316
-0.4327,-81.55810643721937
-0.4337000000000001,-81.55810643721937
-0.4347,-81.21857572525175
-0.4357000000000001,-83.25575999705741
-0.4367,-83.96311564698992
-0.4377000000000001,-84.45826460194269
-0.4387,-85.27879715586442
-0.4397000000000001,-84.92511933089816
-0.4407,-84.11873388997508
-0.4417000000000001,-85.87297590180773
-0.4427,-85.60418075483337
-0.4437000000000001,-86.52374309974564
-0.4447,-85.94371146680098
-0.4457000000000001,-86.33983063076319
-0.4467,-86.99059782870111
-0.4477000000000001,-86.04274125779153
-0.4487,-88.19310243358639
-0.4497000000000001,-88.60336871054724
-0.4507,-89.28243013448247
-0.4517000000000001,-90.06052134940825
-0.4527,-91.22058461529755
-0.4537000000000001,-91.31961440628812
-0.4547,-91.16399616330297
-0.4557000000000001,-91.77232202224494
-0.4567,-91.27717306729218
-0.4577000000000001,-93.85194763304654
-0.4587,-94.91298110794531
-0.4597000000000001,-96.21451550382113
-0.4607,-95.52130696688728
-0.4617000000000001,-96.4833106507955
-0.4627,-96.63892889378066
-0.4637000000000001,-96.79454713676581
-0.4647,-97.44531433470372
-0.4657000000000001,-98.63367182659036
-0.4667,-99.29858613752693
-0.4677000000000001,-100.76988588938657
-0.4687,-100.4162080644203
-0.4697000000000001,-101.54797710431234
-0.4707,-102.96268840417737
-0.4717000000000001,-103.79736807109774
-0.4727,-103.78322095809908
-0.4737000000000001,-104.4056939300397
-0.4747,-104.60375351202082
-0.4757000000000001,-105.4384331789412
-0.4767,-104.78766598100327
-0.4777000000000001,-104.41984104303836
-0.4787,-106.73996757481702
-0.4797000000000001,-107.64538280673065
-0.4807,-108.38103268266046
-0.48170000000000013,-104.25007568705455
-0.4827,-107.78685393671715
-0.48370000000000013,-108.06979619669015
-0.4847,-110.48895251945936
-0.48570000000000013,-109.3147421405714
-0.4867,-108.40932690865776
-0.48570000000000013,-106.93802715679811
-0.4847,-108.66397494263347
-0.48370000000000013,-109.13082967158894
-0.4827,-110.87092457042293
-0.48170000000000013,-110.6162765364472
-0.4807,-109.83818532152145
-0.4797000000000001,-108.5932393776402
-0.4787,-106.64093778382647
-0.4777000000000001,-99.94935333546483
-0.4767,-103.50027869812607
-0.4757000000000001,-103.27392489014768
-0.4747,-101.83091936428535
-0.4737000000000001,-102.5241279012192
-0.4727,-102.39680388423135
-0.4717000000000001,-103.93883920108425
-0.4707,-102.56656924021516
-0.4697000000000001,-101.71774246029614
-0.4687,-102.59486346621246
-0.4677000000000001,-100.10497157844999
-0.4667,-99.73714664048508
-0.4657000000000001,-99.85032354447429
-0.4647,-98.98734965155661
-0.4637000000000001,-97.24725475272263
-0.4627,-96.17207416482519
-0.4617000000000001,-94.5451561699804
-0.4607,-94.5451561699804
