May 4, 2025   01:37:14
Cyclic Voltammetry
File: c:/users/guazh/data/banditlqround7_x0exp1108_r5/2025-04-30-exp1233\exp1233-2025-05-04t01_30_52-h2koh\exp1233_cv_sr_200mvs_efin_-1400mv.bin
Data Source:  Experiment
Instrument Model:  CHI760E
Header: CV ran at 200 mVs
Note: 

Init E (V) = -1
High E (V) = -1
Low E (V) = -1.4
Final E (V) = -1
Init P/N = N
Scan Rate (V/s) = 0.2
Segment = 3
Sample Interval (V) = 0.001
Quiet Time (sec) = 2
Sensitivity (A/V) = 0.01
Comp R (ohm) = 1.0

Results:

Channel 1:
Segment 1:

Segment 2:

Segment 3:

Potential/V, Current/A

-1.000, 1.207e-4
-1.001, 2.996e-4
-1.002, 3.759e-4
-1.003, 4.353e-4
-1.004, 4.944e-4
-1.005, 5.100e-4
-1.006, 5.254e-4
-1.007, 5.610e-4
-1.008, 5.735e-4
-1.009, 5.691e-4
-1.010, 5.909e-4
-1.011, 6.087e-4
-1.012, 6.002e-4
-1.013, 6.060e-4
-1.014, 6.295e-4
-1.015, 6.243e-4
-1.016, 6.206e-4
-1.017, 6.431e-4
-1.018, 6.468e-4
-1.019, 6.324e-4
-1.020, 6.499e-4
-1.021, 6.621e-4
-1.022, 6.499e-4
-1.023, 6.570e-4
-1.024, 6.780e-4
-1.025, 6.680e-4
-1.026, 6.605e-4
-1.027, 6.801e-4
-1.028, 6.832e-4
-1.029, 6.661e-4
-1.030, 6.806e-4
-1.031, 6.917e-4
-1.032, 6.774e-4
-1.033, 6.819e-4
-1.034, 7.030e-4
-1.035, 6.930e-4
-1.036, 6.889e-4
-1.037, 7.093e-4
-1.038, 7.103e-4
-1.039, 6.968e-4
-1.040, 7.118e-4
-1.041, 7.259e-4
-1.042, 7.091e-4
-1.043, 7.135e-4
-1.044, 7.328e-4
-1.045, 7.203e-4
-1.046, 7.143e-4
-1.047, 7.340e-4
-1.048, 7.338e-4
-1.049, 7.207e-4
-1.050, 7.367e-4
-1.051, 7.484e-4
-1.052, 7.340e-4
-1.053, 7.361e-4
-1.054, 7.551e-4
-1.055, 7.422e-4
-1.056, 7.348e-4
-1.057, 7.565e-4
-1.058, 7.578e-4
-1.059, 7.459e-4
-1.060, 7.626e-4
-1.061, 7.739e-4
-1.062, 7.567e-4
-1.063, 7.616e-4
-1.064, 7.800e-4
-1.065, 7.685e-4
-1.066, 7.624e-4
-1.067, 7.827e-4
-1.068, 7.849e-4
-1.069, 7.705e-4
-1.070, 7.881e-4
-1.071, 7.997e-4
-1.072, 7.822e-4
-1.073, 7.881e-4
-1.074, 8.096e-4
-1.075, 7.997e-4
-1.076, 7.933e-4
-1.077, 8.126e-4
-1.078, 8.142e-4
-1.079, 8.013e-4
-1.080, 8.154e-4
-1.081, 8.264e-4
-1.082, 8.099e-4
-1.083, 8.148e-4
-1.084, 8.350e-4
-1.085, 8.218e-4
-1.086, 8.187e-4
-1.087, 8.401e-4
-1.088, 8.393e-4
-1.089, 8.256e-4
-1.090, 8.413e-4
-1.091, 8.525e-4
-1.092, 8.357e-4
-1.093, 8.394e-4
-1.094, 8.594e-4
-1.095, 8.517e-4
-1.096, 8.484e-4
-1.097, 8.710e-4
-1.098, 8.694e-4
-1.099, 8.542e-4
-1.100, 8.718e-4
-1.101, 8.823e-4
-1.102, 8.685e-4
-1.103, 8.746e-4
-1.104, 8.943e-4
-1.105, 8.854e-4
-1.106, 8.825e-4
-1.107, 9.027e-4
-1.108, 9.054e-4
-1.109, 8.900e-4
-1.110, 9.082e-4
-1.111, 9.205e-4
-1.112, 9.065e-4
-1.113, 9.137e-4
-1.114, 9.362e-4
-1.115, 9.267e-4
-1.116, 9.229e-4
-1.117, 9.430e-4
-1.118, 9.442e-4
-1.119, 9.326e-4
-1.120, 9.494e-4
-1.121, 9.626e-4
-1.122, 9.494e-4
-1.123, 9.575e-4
-1.124, 9.810e-4
-1.125, 9.709e-4
-1.126, 9.676e-4
-1.127, 9.909e-4
-1.128, 9.920e-4
-1.129, 9.809e-4
-1.130, 9.998e-4
-1.131, 1.012e-3
-1.132, 1.002e-3
-1.133, 1.010e-3
-1.134, 1.032e-3
-1.135, 1.022e-3
-1.136, 1.018e-3
-1.137, 1.043e-3
-1.138, 1.045e-3
-1.139, 1.034e-3
-1.140, 1.055e-3
-1.141, 1.071e-3
-1.142, 1.061e-3
-1.143, 1.070e-3
-1.144, 1.091e-3
-1.145, 1.084e-3
-1.146, 1.083e-3
-1.147, 1.107e-3
-1.148, 1.112e-3
-1.149, 1.101e-3
-1.150, 1.123e-3
-1.151, 1.140e-3
-1.152, 1.128e-3
-1.153, 1.136e-3
-1.154, 1.160e-3
-1.155, 1.152e-3
-1.156, 1.153e-3
-1.157, 1.177e-3
-1.158, 1.182e-3
-1.159, 1.176e-3
-1.160, 1.197e-3
-1.161, 1.214e-3
-1.162, 1.205e-3
-1.163, 1.209e-3
-1.164, 1.234e-3
-1.165, 1.226e-3
-1.166, 1.229e-3
-1.167, 1.258e-3
-1.168, 1.262e-3
-1.169, 1.252e-3
-1.170, 1.273e-3
-1.171, 1.289e-3
-1.172, 1.278e-3
-1.173, 1.288e-3
-1.174, 1.314e-3
-1.175, 1.310e-3
-1.176, 1.314e-3
-1.177, 1.345e-3
-1.178, 1.353e-3
-1.179, 1.347e-3
-1.180, 1.373e-3
-1.181, 1.390e-3
-1.182, 1.382e-3
-1.183, 1.392e-3
-1.184, 1.415e-3
-1.185, 1.409e-3
-1.186, 1.410e-3
-1.187, 1.436e-3
-1.188, 1.444e-3
-1.189, 1.437e-3
-1.190, 1.462e-3
-1.191, 1.479e-3
-1.192, 1.469e-3
-1.193, 1.484e-3
-1.194, 1.508e-3
-1.195, 1.506e-3
-1.196, 1.509e-3
-1.197, 1.537e-3
-1.198, 1.544e-3
-1.199, 1.539e-3
-1.200, 1.564e-3
-1.201, 1.582e-3
-1.202, 1.575e-3
-1.203, 1.590e-3
-1.204, 1.619e-3
-1.205, 1.614e-3
-1.206, 1.619e-3
-1.207, 1.650e-3
-1.208, 1.658e-3
-1.209, 1.653e-3
-1.210, 1.678e-3
-1.211, 1.695e-3
-1.212, 1.690e-3
-1.213, 1.703e-3
-1.214, 1.731e-3
-1.215, 1.728e-3
-1.216, 1.732e-3
-1.217, 1.762e-3
-1.218, 1.769e-3
-1.219, 1.764e-3
-1.220, 1.790e-3
-1.221, 1.811e-3
-1.222, 1.806e-3
-1.223, 1.821e-3
-1.224, 1.849e-3
-1.225, 1.847e-3
-1.226, 1.854e-3
-1.227, 1.884e-3
-1.228, 1.894e-3
-1.229, 1.895e-3
-1.230, 1.923e-3
-1.231, 1.945e-3
-1.232, 1.937e-3
-1.233, 1.951e-3
-1.234, 1.980e-3
-1.235, 1.980e-3
-1.236, 1.987e-3
-1.237, 2.017e-3
-1.238, 2.028e-3
-1.239, 2.027e-3
-1.240, 2.056e-3
-1.241, 2.079e-3
-1.242, 2.073e-3
-1.243, 2.088e-3
-1.244, 2.119e-3
-1.245, 2.118e-3
-1.246, 2.127e-3
-1.247, 2.159e-3
-1.248, 2.173e-3
-1.249, 2.174e-3
-1.250, 2.205e-3
-1.251, 2.226e-3
-1.252, 2.221e-3
-1.253, 2.239e-3
-1.254, 2.270e-3
-1.255, 2.272e-3
-1.256, 2.280e-3
-1.257, 2.316e-3
-1.258, 2.332e-3
-1.259, 2.333e-3
-1.260, 2.366e-3
-1.261, 2.388e-3
-1.262, 2.384e-3
-1.263, 2.405e-3
-1.264, 2.438e-3
-1.265, 2.440e-3
-1.266, 2.453e-3
-1.267, 2.493e-3
-1.268, 2.511e-3
-1.269, 2.512e-3
-1.270, 2.544e-3
-1.271, 2.567e-3
-1.272, 2.566e-3
-1.273, 2.590e-3
-1.274, 2.622e-3
-1.275, 2.626e-3
-1.276, 2.645e-3
-1.277, 2.688e-3
-1.278, 2.708e-3
-1.279, 2.710e-3
-1.280, 2.745e-3
-1.281, 2.773e-3
-1.282, 2.776e-3
-1.283, 2.797e-3
-1.284, 2.833e-3
-1.285, 2.839e-3
-1.286, 2.859e-3
-1.287, 2.900e-3
-1.288, 2.916e-3
-1.289, 2.923e-3
-1.290, 2.958e-3
-1.291, 2.988e-3
-1.292, 2.991e-3
-1.293, 3.020e-3
-1.294, 3.067e-3
-1.295, 3.081e-3
-1.296, 3.098e-3
-1.297, 3.138e-3
-1.298, 3.157e-3
-1.299, 3.165e-3
-1.300, 3.206e-3
-1.301, 3.231e-3
-1.302, 3.242e-3
-1.303, 3.282e-3
-1.304, 3.330e-3
-1.305, 3.340e-3
-1.306, 3.356e-3
-1.307, 3.397e-3
-1.308, 3.422e-3
-1.309, 3.435e-3
-1.310, 3.480e-3
-1.311, 3.521e-3
-1.312, 3.538e-3
-1.313, 3.576e-3
-1.314, 3.619e-3
-1.315, 3.630e-3
-1.316, 3.656e-3
-1.317, 3.706e-3
-1.318, 3.736e-3
-1.319, 3.755e-3
-1.320, 3.805e-3
-1.321, 3.853e-3
-1.322, 3.874e-3
-1.323, 3.909e-3
-1.324, 3.954e-3
-1.325, 3.973e-3
-1.326, 4.006e-3
-1.327, 4.062e-3
-1.328, 4.095e-3
-1.329, 4.123e-3
-1.330, 4.186e-3
-1.331, 4.240e-3
-1.332, 4.255e-3
-1.333, 4.291e-3
-1.334, 4.346e-3
-1.335, 4.373e-3
-1.336, 4.406e-3
-1.337, 4.467e-3
-1.338, 4.510e-3
-1.339, 4.547e-3
-1.340, 4.615e-3
-1.341, 4.661e-3
-1.342, 4.677e-3
-1.343, 4.723e-3
-1.344, 4.784e-3
-1.345, 4.820e-3
-1.346, 4.865e-3
-1.347, 4.930e-3
-1.348, 4.982e-3
-1.349, 5.026e-3
-1.350, 5.097e-3
-1.351, 5.148e-3
-1.352, 5.169e-3
-1.353, 5.224e-3
-1.354, 5.289e-3
-1.355, 5.310e-3
-1.356, 5.344e-3
-1.357, 5.417e-3
-1.358, 5.466e-3
-1.359, 5.509e-3
-1.360, 5.585e-3
-1.361, 5.649e-3
-1.362, 5.689e-3
-1.363, 5.747e-3
-1.364, 5.822e-3
-1.365, 5.871e-3
-1.366, 5.938e-3
-1.367, 6.026e-3
-1.368, 6.084e-3
-1.369, 6.136e-3
-1.370, 6.224e-3
-1.371, 6.303e-3
-1.372, 6.356e-3
-1.373, 6.432e-3
-1.374, 6.519e-3
-1.375, 6.577e-3
-1.376, 6.641e-3
-1.377, 6.723e-3
-1.378, 6.787e-3
-1.379, 6.847e-3
-1.380, 6.935e-3
-1.381, 7.026e-3
-1.382, 7.095e-3
-1.383, 7.175e-3
-1.384, 7.265e-3
-1.385, 7.324e-3
-1.386, 7.391e-3
-1.387, 7.483e-3
-1.388, 7.554e-3
-1.389, 7.620e-3
-1.390, 7.723e-3
-1.391, 7.815e-3
-1.392, 7.884e-3
-1.393, 7.982e-3
-1.394, 8.085e-3
-1.395, 8.153e-3
-1.396, 8.227e-3
-1.397, 8.333e-3
-1.398, 8.425e-3
-1.399, 8.501e-3
-1.400, 8.346e-3
-1.399, 8.026e-3
-1.398, 7.787e-3
-1.397, 7.611e-3
-1.396, 7.453e-3
-1.395, 7.271e-3
-1.394, 7.108e-3
-1.393, 6.990e-3
-1.392, 6.851e-3
-1.391, 6.698e-3
-1.390, 6.582e-3
-1.389, 6.467e-3
-1.388, 6.327e-3
-1.387, 6.215e-3
-1.386, 6.116e-3
-1.385, 5.983e-3
-1.384, 5.862e-3
-1.383, 5.759e-3
-1.382, 5.639e-3
-1.381, 5.516e-3
-1.380, 5.424e-3
-1.379, 5.328e-3
-1.378, 5.209e-3
-1.377, 5.117e-3
-1.376, 5.036e-3
-1.375, 4.925e-3
-1.374, 4.821e-3
-1.373, 4.742e-3
-1.372, 4.645e-3
-1.371, 4.540e-3
-1.370, 4.466e-3
-1.369, 4.384e-3
-1.368, 4.282e-3
-1.367, 4.201e-3
-1.366, 4.133e-3
-1.365, 4.031e-3
-1.364, 3.939e-3
-1.363, 3.879e-3
-1.362, 3.793e-3
-1.361, 3.698e-3
-1.360, 3.638e-3
-1.359, 3.568e-3
-1.358, 3.472e-3
-1.357, 3.406e-3
-1.356, 3.345e-3
-1.355, 3.256e-3
-1.354, 3.182e-3
-1.353, 3.130e-3
-1.352, 3.055e-3
-1.351, 2.973e-3
-1.350, 2.921e-3
-1.349, 2.860e-3
-1.348, 2.778e-3
-1.347, 2.722e-3
-1.346, 2.677e-3
-1.345, 2.600e-3
-1.344, 2.535e-3
-1.343, 2.492e-3
-1.342, 2.423e-3
-1.341, 2.349e-3
-1.340, 2.304e-3
-1.339, 2.253e-3
-1.338, 2.179e-3
-1.337, 2.129e-3
-1.336, 2.087e-3
-1.335, 2.015e-3
-1.334, 1.958e-3
-1.333, 1.924e-3
-1.332, 1.865e-3
-1.331, 1.803e-3
-1.330, 1.769e-3
-1.329, 1.724e-3
-1.328, 1.659e-3
-1.327, 1.616e-3
-1.326, 1.581e-3
-1.325, 1.519e-3
-1.324, 1.468e-3
-1.323, 1.441e-3
-1.322, 1.391e-3
-1.321, 1.333e-3
-1.320, 1.307e-3
-1.319, 1.271e-3
-1.318, 1.211e-3
-1.317, 1.179e-3
-1.316, 1.152e-3
-1.315, 1.095e-3
-1.314, 1.052e-3
-1.313, 1.029e-3
-1.312, 9.858e-4
-1.311, 9.345e-4
-1.310, 9.126e-4
-1.309, 8.819e-4
-1.308, 8.251e-4
-1.307, 7.969e-4
-1.306, 7.761e-4
-1.305, 7.244e-4
-1.304, 6.878e-4
-1.303, 6.739e-4
-1.302, 6.341e-4
-1.301, 5.898e-4
-1.300, 5.743e-4
-1.299, 5.477e-4
-1.298, 4.977e-4
-1.297, 4.730e-4
-1.296, 4.593e-4
-1.295, 4.126e-4
-1.294, 3.796e-4
-1.293, 3.698e-4
-1.292, 3.340e-4
-1.291, 2.937e-4
-1.290, 2.816e-4
-1.289, 2.590e-4
-1.288, 2.144e-4
-1.287, 1.966e-4
-1.286, 1.849e-4
-1.285, 1.449e-4
-1.284, 1.150e-4
-1.283, 1.097e-4
-1.282, 7.885e-5
-1.281, 4.166e-5
-1.280, 3.174e-5
-1.279, 1.304e-5
-1.278, -2.744e-5
-1.277, -3.996e-5
-1.276, -4.919e-5
-1.275, -8.638e-5
-1.274, -1.111e-4
-1.273, -1.140e-4
-1.272, -1.401e-4
-1.271, -1.736e-4
-1.270, -1.791e-4
-1.269, -1.941e-4
-1.268, -2.324e-4
-1.267, -2.441e-4
-1.266, -2.471e-4
-1.265, -2.815e-4
-1.264, -3.026e-4
-1.263, -3.034e-4
-1.262, -3.304e-4
-1.261, -3.601e-4
-1.260, -3.635e-4
-1.259, -3.765e-4
-1.258, -4.120e-4
-1.257, -4.219e-4
-1.256, -4.238e-4
-1.255, -4.565e-4
-1.254, -4.777e-4
-1.253, -4.722e-4
-1.252, -4.958e-4
-1.251, -5.235e-4
-1.250, -5.222e-4
-1.249, -5.339e-4
-1.248, -5.646e-4
-1.247, -5.711e-4
-1.246, -5.713e-4
-1.245, -5.998e-4
-1.244, -6.174e-4
-1.243, -6.135e-4
-1.242, -6.353e-4
-1.241, -6.634e-4
-1.240, -6.587e-4
-1.239, -6.673e-4
-1.238, -6.981e-4
-1.237, -7.023e-4
-1.236, -6.999e-4
-1.235, -7.301e-4
-1.234, -7.460e-4
-1.233, -7.434e-4
-1.232, -7.640e-4
-1.231, -7.894e-4
-1.230, -7.872e-4
-1.229, -7.998e-4
-1.228, -8.274e-4
-1.227, -8.283e-4
-1.226, -8.245e-4
-1.225, -8.536e-4
-1.224, -8.684e-4
-1.223, -8.620e-4
-1.222, -8.820e-4
-1.221, -9.041e-4
-1.220, -9.008e-4
-1.219, -9.091e-4
-1.218, -9.382e-4
-1.217, -9.403e-4
-1.216, -9.356e-4
-1.215, -9.627e-4
-1.214, -9.759e-4
-1.213, -9.642e-4
-1.212, -9.817e-4
-1.211, -1.004e-3
-1.210, -9.981e-4
-1.209, -1.007e-3
-1.208, -1.034e-3
-1.207, -1.036e-3
-1.206, -1.033e-3
-1.205, -1.059e-3
-1.204, -1.073e-3
-1.203, -1.063e-3
-1.202, -1.081e-3
-1.201, -1.104e-3
-1.200, -1.096e-3
-1.199, -1.103e-3
-1.198, -1.131e-3
-1.197, -1.133e-3
-1.196, -1.131e-3
-1.195, -1.156e-3
-1.194, -1.169e-3
-1.193, -1.162e-3
-1.192, -1.178e-3
-1.191, -1.200e-3
-1.190, -1.194e-3
-1.189, -1.199e-3
-1.188, -1.229e-3
-1.187, -1.229e-3
-1.186, -1.227e-3
-1.185, -1.253e-3
-1.184, -1.263e-3
-1.183, -1.253e-3
-1.182, -1.270e-3
-1.181, -1.290e-3
-1.180, -1.285e-3
-1.179, -1.293e-3
-1.178, -1.322e-3
-1.177, -1.323e-3
-1.176, -1.318e-3
-1.175, -1.342e-3
-1.174, -1.352e-3
-1.173, -1.344e-3
-1.172, -1.363e-3
-1.171, -1.383e-3
-1.170, -1.372e-3
-1.169, -1.378e-3
-1.168, -1.405e-3
-1.167, -1.408e-3
-1.166, -1.406e-3
-1.165, -1.430e-3
-1.164, -1.442e-3
-1.163, -1.432e-3
-1.162, -1.451e-3
-1.161, -1.473e-3
-1.160, -1.464e-3
-1.159, -1.470e-3
-1.158, -1.497e-3
-1.157, -1.493e-3
-1.156, -1.488e-3
-1.155, -1.514e-3
-1.154, -1.526e-3
-1.153, -1.517e-3
-1.152, -1.536e-3
-1.151, -1.558e-3
-1.150, -1.551e-3
-1.149, -1.554e-3
-1.148, -1.580e-3
-1.147, -1.577e-3
-1.146, -1.573e-3
-1.145, -1.598e-3
-1.144, -1.606e-3
-1.143, -1.597e-3
-1.142, -1.614e-3
-1.141, -1.633e-3
-1.140, -1.624e-3
-1.139, -1.628e-3
-1.138, -1.654e-3
-1.137, -1.656e-3
-1.136, -1.646e-3
-1.135, -1.668e-3
-1.134, -1.677e-3
-1.133, -1.666e-3
-1.132, -1.682e-3
-1.131, -1.699e-3
-1.130, -1.688e-3
-1.129, -1.694e-3
-1.128, -1.718e-3
-1.127, -1.715e-3
-1.126, -1.705e-3
-1.125, -1.726e-3
-1.124, -1.733e-3
-1.123, -1.718e-3
-1.122, -1.733e-3
-1.121, -1.750e-3
-1.120, -1.738e-3
-1.119, -1.742e-3
-1.118, -1.761e-3
-1.117, -1.752e-3
-1.116, -1.743e-3
-1.115, -1.762e-3
-1.114, -1.766e-3
-1.113, -1.751e-3
-1.112, -1.764e-3
-1.111, -1.780e-3
-1.110, -1.765e-3
-1.109, -1.762e-3
-1.108, -1.780e-3
-1.107, -1.771e-3
-1.106, -1.762e-3
-1.105, -1.780e-3
-1.104, -1.781e-3
-1.103, -1.768e-3
-1.102, -1.779e-3
-1.101, -1.788e-3
-1.100, -1.768e-3
-1.099, -1.763e-3
-1.098, -1.779e-3
-1.097, -1.769e-3
-1.096, -1.753e-3
-1.095, -1.769e-3
-1.094, -1.771e-3
-1.093, -1.753e-3
-1.092, -1.759e-3
-1.091, -1.765e-3
-1.090, -1.745e-3
-1.089, -1.741e-3
-1.088, -1.755e-3
-1.087, -1.743e-3
-1.086, -1.728e-3
-1.085, -1.743e-3
-1.084, -1.745e-3
-1.083, -1.722e-3
-1.082, -1.725e-3
-1.081, -1.731e-3
-1.080, -1.710e-3
-1.079, -1.705e-3
-1.078, -1.719e-3
-1.077, -1.704e-3
-1.076, -1.690e-3
-1.075, -1.707e-3
-1.074, -1.703e-3
-1.073, -1.677e-3
-1.072, -1.680e-3
-1.071, -1.684e-3
-1.070, -1.660e-3
-1.069, -1.650e-3
-1.068, -1.662e-3
-1.067, -1.646e-3
-1.066, -1.631e-3
-1.065, -1.647e-3
-1.064, -1.644e-3
-1.063, -1.626e-3
-1.062, -1.633e-3
-1.061, -1.638e-3
-1.060, -1.620e-3
-1.059, -1.615e-3
-1.058, -1.627e-3
-1.057, -1.612e-3
-1.056, -1.593e-3
-1.055, -1.605e-3
-1.054, -1.600e-3
-1.053, -1.575e-3
-1.052, -1.578e-3
-1.051, -1.582e-3
-1.050, -1.558e-3
-1.049, -1.550e-3
-1.048, -1.561e-3
-1.047, -1.546e-3
-1.046, -1.530e-3
-1.045, -1.543e-3
-1.044, -1.541e-3
-1.043, -1.517e-3
-1.042, -1.522e-3
-1.041, -1.528e-3
-1.040, -1.503e-3
-1.039, -1.496e-3
-1.038, -1.510e-3
-1.037, -1.496e-3
-1.036, -1.480e-3
-1.035, -1.491e-3
-1.034, -1.486e-3
-1.033, -1.465e-3
-1.032, -1.470e-3
-1.031, -1.478e-3
-1.030, -1.457e-3
-1.029, -1.453e-3
-1.028, -1.467e-3
-1.027, -1.452e-3
-1.026, -1.436e-3
-1.025, -1.451e-3
-1.024, -1.448e-3
-1.023, -1.426e-3
-1.022, -1.435e-3
-1.021, -1.440e-3
-1.020, -1.420e-3
-1.019, -1.414e-3
-1.018, -1.428e-3
-1.017, -1.414e-3
-1.016, -1.398e-3
-1.015, -1.413e-3
-1.014, -1.410e-3
-1.013, -1.389e-3
-1.012, -1.397e-3
-1.011, -1.406e-3
-1.010, -1.387e-3
-1.009, -1.386e-3
-1.008, -1.400e-3
-1.007, -1.388e-3
-1.006, -1.375e-3
-1.005, -1.391e-3
-1.004, -1.393e-3
-1.003, -1.375e-3
-1.002, -1.386e-3
-1.001, -1.395e-3
