Potential V vs RHE, Current mA cm-2
0.013299999999999867,28.435697127287238
0.012299999999999978,26.38436574248293
0.011299999999999866,24.417917035670534
0.010299999999999976,22.592939458844636
0.009299999999999864,20.85284456001064
0.008299999999999974,19.1834852261699
0.007299999999999862,17.48583166633185
0.006299999999999972,15.830619445489761
0.00529999999999986,14.217848563643619
0.0042999999999999705,12.515950869905978
0.0032999999999998586,10.857909226464155
0.0022999999999999687,9.157426244026382
0.0012999999999998568,7.543240650880375
0.00029999999999996696,5.929055057734368
-0.000700000000000145,4.402581565179994
-0.0017000000000000348,3.0076762235130676
-0.0027000000000001467,1.5675001202504606
-0.0037000000000000366,0.2594580523952477
-0.0047000000000001485,-1.1362961160515976
-0.005700000000000038,-2.4884771764625997
-0.00670000000000015,-3.927238568425342
-0.00770000000000004,-5.367414671687949
-0.008700000000000152,-6.806176063650692
-0.009700000000000042,-8.288793505909249
-0.010700000000000154,-9.685113558876042
-0.011700000000000044,-11.081433611842833
-0.012700000000000156,-12.390041564217992
-0.013700000000000045,-13.654793466297335
-0.014700000000000157,-14.868615761581536
-0.015700000000000047,-16.014531914472215
-0.01670000000000016,-17.231183632356142
-0.01770000000000005,-18.40539401124413
-0.01870000000000016,-19.721075520118614
-0.01970000000000005,-21.022609915994444
-0.020700000000000163,-22.33829142486893
-0.021700000000000053,-23.639825820744765
-0.022700000000000164,-24.9130659906233
-0.023700000000000054,-26.087276369511276
-0.024700000000000166,-27.261486748399253
-0.025700000000000056,-28.393255788291288
-0.026700000000000168,-29.440142150191413
-0.027700000000000058,-30.529469851087494
-0.02870000000000017,-31.618797551983565
-0.02970000000000006,-32.764713704874254
-0.03070000000000017,-33.98136542275818
-0.03170000000000006,-35.198017140642115
-0.03270000000000017,-36.47125731052064
-0.03370000000000006,-37.60302635041268
-0.034700000000000175,-38.777236729300654
-0.035700000000000065,-39.86656443019674
-0.03670000000000018,-40.91345079209687
-0.03770000000000007,-41.96033715399699
-0.03870000000000018,-42.92234083790521
-0.03970000000000007,-43.92678586080939
-0.04070000000000018,-44.97367222270952
-0.04170000000000007,-46.062999923605595
-0.04270000000000018,-47.19476896349763
-0.04370000000000007,-48.32653800338966
-0.044700000000000184,-49.50074838227763
-0.045700000000000074,-50.64666453516831
-0.046700000000000186,-51.73599223606439
-0.047700000000000076,-52.74043725896857
-0.04870000000000019,-53.74488228187274
-0.04970000000000008,-54.69273885278232
-0.05070000000000019,-55.612301197694585
-0.05170000000000008,-56.65918755959472
-0.05270000000000019,-57.62119124350295
-0.05370000000000008,-58.66807760540307
-0.05470000000000019,-59.7998466452951
-0.05570000000000008,-60.889174346191176
-0.056700000000000195,-61.97850204708726
-0.057700000000000085,-63.06782974798333
-0.058700000000000196,-64.0722747708875
-0.059700000000000086,-65.03427845479574
-0.0607000000000002,-65.99628213870396
-0.06170000000000009,-66.91584448361623
-0.0627000000000002,-67.82125971552985
-0.06370000000000009,-68.78326339943808
-0.0647000000000002,-69.74526708334632
-0.06570000000000009,-70.8345947842424
-0.0667000000000002,-71.8814811461425
-0.0677000000000001,-72.97080884703858
-0.0687000000000002,-74.0176952089387
-0.0697000000000001,-75.1070229098348
-0.07070000000000021,-76.11146793273898
-0.0717000000000001,-77.03103027765125
-0.07270000000000021,-77.95059262256353
-0.0737000000000001,-78.85600785447714
-0.07470000000000021,-79.7755701993894
-0.0757000000000001,-80.73757388329766
-0.07670000000000021,-81.74201890620182
-0.0777000000000001,-82.78890526810196
-0.07870000000000021,-83.83579163000208
-0.0797000000000001,-84.96756066989411
-0.08070000000000022,-86.01444703179425
-0.0817000000000001,-87.06133339369435
-0.08270000000000022,-87.98089573860662
-0.08370000000000011,-88.94289942251486
-0.08470000000000022,-89.84831465442848
-0.08570000000000011,-90.68299432134886
-0.08670000000000022,-91.68743934425302
-0.08770000000000011,-92.6070016891653
-0.08870000000000022,-93.65388805106544
-0.08970000000000011,-94.6583330739696
-0.09070000000000022,-95.74766077486568
-0.09170000000000011,-96.83698847576176
-0.09270000000000023,-97.84143349866595
-0.09370000000000012,-98.83173140857146
-0.09470000000000023,-99.75129375348374
-0.09570000000000012,-100.670856098396
-0.09670000000000023,-101.59041844330828
-0.09770000000000012,-102.45339233622596
-0.09870000000000023,-103.37295468113824
-0.09970000000000012,-104.3773997040424
-0.10070000000000023,-105.38184472694657
-0.10170000000000012,-106.47117242784265
-0.10270000000000024,-107.56050012873874
-0.10370000000000013,-108.60738649063886
-0.10470000000000024,-109.654272852539
-0.10570000000000013,-110.65871787544317
-0.10670000000000024,-111.6207215593514
-0.10770000000000013,-112.54028390426367
-0.10870000000000024,-113.44569913617728
-0.10970000000000013,-114.40770282008553
-0.11070000000000024,-115.32726516499778
-0.11170000000000013,-116.37415152689792
-0.11270000000000002,-117.42103788879804
-0.11370000000000013,-118.51036558969413
-0.11470000000000002,-119.64213462958614
-0.11570000000000014,-120.68902099148629
-0.11670000000000003,-121.73590735338641
-0.11770000000000014,-122.69791103729463
-0.11870000000000003,-123.65991472120285
-0.11970000000000014,-124.57947706611512
-0.12070000000000003,-125.44245095903281
-0.12170000000000014,-126.40445464294103
-0.12270000000000003,-127.36645832684925
-0.12370000000000014,-128.41334468874936
-0.12470000000000003,-129.4602310506495
-0.12570000000000014,-130.50711741254963
-0.12670000000000003,-131.63888645244168
-0.12770000000000015,-132.6857728143418
-0.12870000000000004,-133.73265917624192
-0.12970000000000015,-134.69466286015015
-0.13070000000000004,-135.6142252050624
-0.13170000000000015,-136.562081775972
-0.13270000000000004,-137.43920278188833
-0.13370000000000015,-138.40120646579655
-0.13470000000000004,-139.4056514887007
-0.13570000000000015,-140.45253785060083
-0.13670000000000004,-141.61260111649017
-0.13770000000000016,-142.6028990263957
-0.13870000000000005,-143.73466806628772
-0.13970000000000016,-144.86643710617977
-0.14070000000000005,-145.85673501608528
-0.14170000000000016,-146.7055617960043
-0.14270000000000005,-147.6958597059098
-0.14370000000000016,-148.54468648582886
-0.14470000000000005,-149.53498439573437
-0.14570000000000016,-150.5252823056399
-0.14670000000000005,-151.5155802155454
-0.14770000000000016,-152.64734925543743
-0.14870000000000005,-153.77911829532948
-0.14970000000000017,-154.9108873352215
-0.15070000000000006,-155.90118524512707
-0.15170000000000017,-157.03295428501906
-0.15270000000000006,-158.02325219492457
-0.15370000000000017,-159.01355010483013
-0.15470000000000006,-160.00384801473567
-0.15570000000000017,-160.99414592464117
-0.15670000000000006,-161.84297270456022
-0.15770000000000017,-162.8332706144657
-0.15870000000000006,-163.96503965435775
-0.15970000000000018,-164.9553375642633
-0.16070000000000007,-166.0871066041553
-0.16170000000000018,-167.07740451406085
-0.16270000000000007,-168.20917355395284
-0.16370000000000018,-169.3409425938449
-0.16470000000000007,-170.33124050375042
-0.16570000000000018,-171.32153841365593
-0.16670000000000007,-172.31183632356147
-0.16770000000000018,-173.16066310348046
-0.16870000000000007,-174.150961013386
-0.16970000000000018,-175.14125892329156
-0.17070000000000007,-176.13155683319707
-0.17170000000000019,-177.2633258730891
-0.17270000000000008,-178.25362378299462
-0.1737000000000002,-179.38539282288664
-0.17470000000000008,-180.37569073279218
-0.1757000000000002,-181.36598864269772
-0.17670000000000008,-182.35628655260325
-0.1777000000000002,-183.20511333252225
-0.17870000000000008,-184.05394011244127
-0.1797000000000002,-185.0442380223468
-0.18070000000000008,-186.03453593225234
-0.1817000000000002,-187.02483384215788
-0.18270000000000008,-188.15660288204987
-0.1837000000000002,-189.2883719219419
-0.1847000000000001,-190.42014096183394
-0.1857000000000002,-191.551910001726
-0.1867000000000001,-192.683679041618
-0.1877000000000002,-193.6739769515235
-0.1887000000000001,-194.52280373144254
-0.1897000000000002,-195.51310164134807
-0.1907000000000001,-196.3619284212671
-0.1917000000000001,-197.35222633117263
-0.19269999999999998,-198.3425242410781
-0.1937000000000001,-199.33282215098367
-0.19469999999999998,-200.3231200608892
-0.1957000000000001,-201.4548891007812
-0.19669999999999999,-202.58665814067325
-0.1977000000000001,-203.57695605057876
-0.1987,-204.7087250904708
-0.1997000000000001,-205.69902300037634
-0.2007,-206.54784978029537
-0.2017000000000001,-207.5381476902009
-0.2027,-208.52844560010638
-0.2037000000000001,-209.51874351001192
-0.2047,-210.50904141991748
-0.2057000000000001,-211.499339329823
-0.2067,-212.631108369715
-0.2077000000000001,-213.76287740960703
-0.2087,-214.89464644949908
-0.2097000000000001,-216.0264154893911
-0.2107,-217.01671339929663
-0.2117000000000001,-218.00701130920217
-0.2127,-218.85583808912116
-0.2137000000000001,-219.8461359990267
-0.2147,-220.83643390893224
-0.2157000000000001,-221.96820294882426
-0.2167,-222.9585008587298
-0.21770000000000012,-224.09026989862178
-0.2187,-225.22203893851383
-0.21970000000000012,-226.35380797840588
-0.2207,-227.4855770182979
-0.22170000000000012,-228.61734605818995
-0.2227,-229.74911509808197
-0.22370000000000012,-230.7394130079875
-0.2247,-231.5882397879065
-0.22570000000000012,-232.57853769781204
-0.2267,-233.71030673770406
-0.22770000000000012,-234.7006046476096
-0.22870000000000001,-235.83237368750162
-0.22970000000000013,-236.96414272739366
-0.23070000000000002,-238.0959117672857
-0.23170000000000013,-239.2276808071777
-0.23270000000000002,-240.35944984706975
-0.23370000000000013,-241.49121888696175
-0.23470000000000002,-242.48151679686728
-0.23570000000000013,-243.6132858367593
-0.23670000000000002,-244.60358374666484
-0.2376999999999999,-245.59388165657037
-0.23870000000000002,-246.5841795664759
-0.2396999999999999,-247.71594860636796
-0.24070000000000003,-248.84771764625998
-0.24169999999999991,-249.979486686152
-0.24270000000000003,-251.25272685603056
-0.24369999999999992,-252.38449589592256
-0.24470000000000003,-253.51626493581452
-0.24569999999999992,-254.50656284572008
-0.24670000000000003,-255.49686075562562
-0.24769999999999992,-256.4871586655312
-0.24870000000000003,-257.4774565754367
-0.24969999999999992,-258.4677544853422
-0.25070000000000003,-259.4580523952477
-0.2516999999999999,-260.4483503051532
-0.25270000000000004,-261.58011934504526
-0.2536999999999999,-262.7118883849373
-0.25470000000000004,-263.84365742482936
-0.2556999999999999,-264.9754264647214
-0.25670000000000004,-266.1071955046134
-0.25769999999999993,-267.09749341451896
-0.25870000000000004,-268.22926245441096
-0.25969999999999993,-269.2195603643164
-0.26070000000000004,-270.0683871442355
-0.26169999999999993,-271.20015618412754
-0.26270000000000004,-272.1904540940331
-0.26369999999999993,-273.3222231339251
-0.26470000000000005,-274.4539921738171
-0.26569999999999994,-275.58576121370913
-0.26670000000000005,-276.8590013835877
-0.26769999999999994,-277.9907704234797
-0.26870000000000005,-279.1225394633717
-0.26969999999999994,-280.11283737327733
-0.27070000000000005,-281.1031352831828
-0.27169999999999994,-282.09343319308834
-0.27270000000000005,-283.08373110299385
-0.27369999999999994,-284.07402901289936
-0.27470000000000006,-285.2057980527914
-0.27569999999999995,-286.33756709268346
-0.27670000000000006,-287.46933613257545
-0.27769999999999995,-288.6011051724675
-0.27870000000000006,-289.73287421235955
-0.27969999999999995,-291.0061143822381
-0.28070000000000006,-291.9964122921436
-0.28169999999999995,-293.1281813320356
-0.28270000000000006,-293.9770081119546
-0.28369999999999995,-294.96730602186017
-0.28470000000000006,-296.0990750617522
-0.28569999999999995,-297.0893729716577
-0.28670000000000007,-298.07967088156323
-0.28769999999999996,-299.3529110514418
-0.28870000000000007,-300.48468009133376
-0.28969999999999996,-301.6164491312258
-0.29070000000000007,-302.88968930110434
-0.29169999999999996,-304.0214583409964
-0.29270000000000007,-305.0117562509019
-0.29369999999999996,-306.00205416080746
-0.2947000000000001,-307.1338232006995
-0.29569999999999996,-307.98264998061853
-0.2967000000000001,-308.972947890524
-0.29769999999999996,-309.9632458004295
-0.2987000000000001,-311.2364859703081
-0.29969999999999997,-312.36825501020013
-0.3007000000000001,-313.5000240500921
-0.30169999999999997,-314.77326421997066
-0.3027000000000001,-315.9050332598627
-0.30369999999999997,-317.03680229975475
-0.3047000000000001,-318.16857133964675
-0.30569999999999997,-319.15886924955225
-0.3067000000000001,-320.1491671594578
-0.3077,-321.1394650693634
-0.3087000000000001,-322.12976297926883
-0.3097,-323.1200608891744
-0.3107000000000001,-324.25182992906645
-0.3117,-325.5250700989449
-0.3127000000000001,-326.656839138837
-0.3137,-327.788608178729
-0.3147000000000001,-328.92037721862107
-0.3157,-330.05214625851306
-0.3167000000000001,-331.0424441684186
-0.3177,-332.1742132083106
-0.3187000000000001,-333.1645111182162
-0.3197,-334.2962801581082
-0.3207000000000001,-335.2865780680136
-0.3217,-336.4183471079057
-0.3227000000000001,-337.5501161477977
-0.3237,-338.8233563176763
-0.3247000000000001,-340.0965964875548
-0.3257,-341.22836552744684
-0.3267000000000001,-342.5016056973254
-0.3277,-343.63337473721737
-0.3287000000000001,-344.62367264712293
-0.3297,-345.7554416870149
-0.3307000000000001,-346.7457395969205
-0.3317,-347.87750863681254
-0.3327000000000001,-349.0092776767046
-0.3337,-350.1410467165966
-0.3347000000000001,-351.2728157564886
-0.3357,-352.54605592636716
-0.3367000000000001,-353.8192960962457
-0.3377,-354.95106513613774
-0.3387000000000001,-356.2243053060162
-0.3397,-357.2146032159218
-0.3407000000000001,-358.3463722558138
-0.3417,-359.3366701657193
-0.3427000000000001,-360.46843920561133
-0.3437,-361.6002082455034
-0.3447000000000001,-362.5905061554089
-0.3457,-363.8637463252875
-0.3467000000000001,-364.9955153651795
-0.3477,-366.12728440507146
-0.3487000000000001,-367.40052457495005
-0.3497,-368.5322936148421
-0.3507000000000001,-369.6640626547341
-0.3517,-370.7958316946261
-0.3527000000000001,-371.78612960453165
-0.3537,-372.7764275144371
-0.3547000000000001,-373.90819655432915
-0.3557,-375.0399655942212
-0.35670000000000013,-376.17173463411325
-0.3577,-377.3035036740053
-0.35870000000000013,-378.5767438438838
-0.3597,-379.84998401376237
-0.36070000000000013,-381.12322418364084
-0.3617,-382.3964643535194
-0.3626999999999999,-383.5282333934114
-0.3637,-384.518531303317
-0.3646999999999999,-385.65030034320904
-0.3657,-386.64059825311455
-0.3666999999999999,-387.7723672930066
-0.3677,-388.9041363328986
-0.3686999999999999,-390.1773765027771
-0.36970000000000003,-391.4506166726556
-0.3706999999999999,-392.7238568425342
-0.37170000000000003,-394.1385681423992
-0.3726999999999999,-395.27033718229126
-0.37370000000000003,-396.5435773521698
-0.3746999999999999,-397.67534639206184
-0.37570000000000003,-398.9485865619403
-0.3766999999999999,-399.9388844718459
-0.37770000000000004,-401.07065351173793
-0.3786999999999999,-402.2024225516299
-0.37970000000000004,-403.47566272150846
-0.3806999999999999,-404.748902891387
-0.38170000000000004,-406.0221430612655
-0.38269999999999993,-407.29538323114406
-0.38370000000000004,-408.7100945310091
-0.38469999999999993,-409.9833347008876
-0.38570000000000004,-411.11510374077966
-0.38669999999999993,-410.83216148080663
-0.38570000000000004,-407.7197966211035
-0.38469999999999993,-404.6074317614005
-0.38370000000000004,-401.6365380316839
-0.38269999999999993,-398.80711543195383
-0.38170000000000004,-395.9776928322238
-0.3806999999999999,-393.2897413624802
-0.37970000000000004,-390.60178989273663
-0.3786999999999999,-388.05530955297957
-0.37770000000000004,-385.5088292132225
-0.3766999999999999,-382.82087774347895
-0.37570000000000003,-379.99145514374885
-0.3746999999999999,-377.16203254401876
-0.37370000000000003,-374.4740810742752
-0.3726999999999999,-371.64465847454517
-0.37170000000000003,-368.95670700480156
-0.3706999999999999,-366.268755535058
-0.36970000000000003,-363.72227519530094
-0.3686999999999999,-361.0343237255574
-0.3677,-358.4878433858003
-0.3666999999999999,-355.9413630460432
-0.3657,-353.5363538362726
-0.3646999999999999,-351.1313446265021
-0.3637,-348.44339315675853
-0.3626999999999999,-345.89691281700146
-0.3617,-343.2089613472579
-0.36070000000000013,-340.66248100750084
-0.3597,-338.1160006677438
-0.35870000000000013,-335.42804919800017
-0.3577,-333.02303998822964
-0.35670000000000013,-330.618030778459
-0.3557,-328.2130215686885
-0.3547000000000001,-325.80801235891795
-0.3537,-323.40300314914737
-0.3527000000000001,-320.8565228093903
-0.3517,-318.4515135996198
-0.3507000000000001,-315.9050332598627
-0.3497,-313.35855292010564
-0.3487000000000001,-310.81207258034857
-0.3477,-308.2655922405915
-0.3467000000000001,-306.00205416080746
-0.3457,-303.5970449510368
-0.3447000000000001,-301.33350687125284
-0.3437,-298.9284976614822
-0.3427000000000001,-296.6649595816982
-0.3417,-294.54289263190066
-0.3407000000000001,-292.1378834221301
-0.3397,-289.73287421235955
-0.3387000000000001,-287.46933613257545
-0.3377,-285.0643269228049
-0.3367000000000001,-282.65931771303434
-0.3357,-280.3957796332503
-0.3347000000000001,-278.1322415534662
-0.3337,-276.01017460366864
-0.3327000000000001,-273.8881076538711
-0.3317,-271.62456957408705
-0.3307000000000001,-269.361031494303
-0.3297,-267.23896454450545
-0.3287000000000001,-264.9754264647214
-0.3277,-262.7118883849373
-0.3267000000000001,-260.3068791751668
-0.3257,-258.0433410953827
-0.3247000000000001,-255.77980301559862
-0.3237,-253.51626493581452
-0.3227000000000001,-251.39419798601702
-0.3217,-249.2721310362195
-0.3207000000000001,-247.1500640864219
-0.3197,-245.02799713662432
-0.3187000000000001,-242.90593018682682
-0.3177,-240.78386323702924
-0.3167000000000001,-238.5203251572452
-0.3157,-236.3982582074476
-0.3147000000000001,-233.99324899767706
-0.3137,-231.729710917893
-0.3127000000000001,-229.60764396809546
-0.3117,-227.34410588831142
-0.3107000000000001,-225.36351006850035
-0.3097,-223.38291424868927
-0.3087000000000001,-221.26084729889175
-0.3077,-219.28025147908068
-0.3067000000000001,-217.15818452928315
-0.30569999999999997,-215.03611757948556
-0.3047000000000001,-213.05552175967455
-0.30369999999999997,-210.93345480987696
-0.3027000000000001,-208.8113878600794
-0.30169999999999997,-206.68932091028185
-0.3007000000000001,-204.7087250904708
-0.29969999999999997,-202.7281292706598
-0.2987000000000001,-200.7475334508487
-0.29769999999999996,-198.76693763103765
-0.2967000000000001,-196.92781294121312
-0.29569999999999996,-194.94721712140205
-0.2947000000000001,-192.966621301591
-0.29369999999999996,-190.84455435179345
-0.29270000000000007,-188.72248740199586
-0.29169999999999996,-186.60042045219836
-0.29070000000000007,-184.47835350240078
-0.28969999999999996,-182.49775768258974
-0.28870000000000007,-180.37569073279218
-0.28769999999999996,-178.3950949129811
-0.28670000000000007,-176.55597022315658
-0.28569999999999995,-174.57537440334553
-0.28470000000000006,-172.73624971352098
-0.28369999999999995,-170.75565389370993
-0.28270000000000006,-168.77505807389886
-0.28169999999999995,-166.79446225408785
-0.28070000000000006,-164.81386643427678
-0.27969999999999995,-162.8332706144657
-0.27870000000000006,-160.71120366466818
-0.27769999999999995,-158.87207897484362
-0.27670000000000006,-156.89148315503257
-0.27569999999999995,-155.05235846520802
-0.27470000000000006,-153.21323377538346
-0.27369999999999994,-151.37410908555893
-0.27270000000000005,-149.53498439573437
-0.27169999999999994,-147.6958597059098
-0.27070000000000005,-145.7152638860988
-0.26969999999999994,-143.87613919627424
-0.26870000000000005,-141.89554337646317
-0.26769999999999994,-139.8866533306548
