Potential V vs RHE, Current mA cm-2
0.013299999999999867,42.582810125937606
0.012299999999999978,41.01248058308742
0.011299999999999866,39.20165011926017
0.010299999999999976,37.43326099442887
0.009299999999999864,36.08928525955708
0.008299999999999974,34.6604268466934
0.007299999999999862,32.99106751285265
0.006299999999999972,31.731974455972775
0.00529999999999986,30.54361696408614
0.0042999999999999705,29.015728760231898
0.0032999999999998586,27.700047251357418
0.0022999999999999687,26.709749341451893
0.0012999999999998568,25.36577360658011
0.00029999999999996696,24.021797871708326
-0.000700000000000145,23.059794187800097
-0.0017000000000000348,21.885583808912116
-0.0027000000000001467,20.52746096104168
-0.0037000000000000366,19.565457277133458
-0.0047000000000001485,18.631747819222536
-0.005700000000000038,17.3302134233467
-0.00670000000000015,16.24088572245062
-0.00770000000000004,15.43450028152755
-0.008700000000000152,14.26028990263957
-0.009700000000000042,13.090323657651185
-0.010700000000000154,12.300914752326493
-0.011700000000000044,11.353058181416921
-0.012700000000000156,10.136406463532989
-0.013700000000000045,9.296067951413157
-0.014700000000000157,8.495341355689545
-0.015700000000000047,7.3508399140987315
-0.01670000000000016,6.398739209289561
-0.01770000000000005,5.736654320952724
-0.01870000000000016,4.736453431948143
-0.01970000000000005,3.669761111849905
-0.020700000000000163,3.0147497800123935
-0.021700000000000053,2.1630935774936413
-0.022700000000000164,1.065984964448305
-0.023700000000000054,0.3296277328685535
-0.024700000000000166,-0.36966406265473406
-0.025700000000000056,-1.423199567664227
-0.026700000000000168,-2.273441058883114
-0.027700000000000058,-2.866205093526564
-0.02870000000000017,-3.799914551437489
-0.02970000000000006,-4.768991791845038
-0.03070000000000017,-5.361755826488489
-0.03170000000000006,-6.1186263719162834
-0.03270000000000017,-7.149950909517895
-0.03370000000000006,-7.816279931754329
-0.034700000000000175,-8.433094058495483
-0.035700000000000065,-9.424806679700875
-0.03670000000000018,-10.219874430225024
-0.03770000000000007,-10.741902899875223
-0.03870000000000018,-11.637415152689792
-0.03970000000000007,-12.538586250703819
-0.04070000000000018,-13.06061472035402
-0.04170000000000007,-13.776458638085728
-0.04270000000000018,-14.755438857592333
-0.04370000000000007,-15.37791182953295
-0.044700000000000184,-15.943796349478962
-0.045700000000000074,-16.877505807389888
-0.046700000000000186,-17.655597022315657
-0.047700000000000076,-18.13659886426977
-0.04870000000000019,-18.985425644188794
-0.04970000000000008,-19.890840876102416
-0.05070000000000019,-20.400136944053827
-0.05170000000000008,-21.093345480987697
-0.05270000000000019,-22.055349164895922
-0.05370000000000008,-22.63538079784059
-0.05470000000000019,-23.1729710917893
-0.05570000000000008,-24.064239210704276
-0.056700000000000195,-24.814036199632742
-0.057700000000000085,-25.280890928588207
-0.058700000000000196,-26.087276369511276
-0.059700000000000086,-26.9643973754276
-0.0607000000000002,-27.487840556377662
-0.06170000000000009,-28.18104909331153
-0.0627000000000002,-29.114758551222454
-0.06370000000000009,-29.652348845171172
-0.0647000000000002,-30.17579202612123
-0.06570000000000009,-31.067060145036205
-0.0667000000000002,-31.77441579496872
-0.0677000000000001,-32.19882918492823
-0.0687000000000002,-32.99106751285265
-0.0697000000000001,-33.825747179773025
-0.07070000000000021,-34.306749021727136
-0.0717000000000001,-34.9716633326637
-0.07270000000000021,-35.90537279057463
-0.0737000000000001,-36.47125731052064
-0.07470000000000021,-37.00884760446935
-0.0757000000000001,-37.91426283638298
-0.07670000000000021,-38.63576559931415
-0.0777000000000001,-39.060178989273666
-0.07870000000000021,-39.85241731719808
-0.0797000000000001,-40.701244097117105
-0.08070000000000022,-41.196393052069865
-0.0817000000000001,-41.84716025000779
-0.08270000000000022,-42.752575481921404
-0.08370000000000011,-43.33260711486608
-0.08470000000000022,-43.87019740881479
-0.08570000000000011,-44.78975975372706
-0.08670000000000022,-45.51126251665823
-0.08770000000000011,-45.92152879361909
-0.08870000000000022,-46.69962000854486
-0.08970000000000011,-47.54844678846388
-0.09070000000000022,-48.04359574341665
-0.09170000000000011,-48.75095139334916
-0.09270000000000023,-49.72710219025603
-0.09370000000000012,-50.23639825820745
-0.09470000000000023,-50.75984143915752
-0.09570000000000012,-51.65110955807249
-0.09670000000000023,-52.386759434002315
-0.09770000000000012,-52.82531993696047
-0.09870000000000023,-53.617558264884885
-0.09970000000000012,-54.494679270801214
-0.10070000000000023,-55.018122451751275
-0.10170000000000012,-55.68303676268785
-0.10270000000000024,-56.60259910760012
-0.10370000000000013,-57.15433651454749
-0.10470000000000024,-57.7202210344935
-0.10570000000000013,-58.65393049240442
-0.10670000000000024,-59.36128614233694
-0.10770000000000013,-59.757405306299155
-0.10870000000000024,-60.53549652122492
-0.10970000000000013,-61.398470414142594
-0.11070000000000024,-61.907766482094
-0.11170000000000013,-62.51609234103597
-0.11270000000000002,-63.40736045995095
-0.11370000000000013,-63.98739209289561
-0.11470000000000002,-64.53912949984297
-0.11570000000000014,-65.45869184475525
-0.11670000000000003,-66.16604749468777
-0.11770000000000014,-66.63290222364323
-0.11870000000000003,-67.43928766456631
-0.11970000000000014,-68.28811444448532
-0.12070000000000003,-68.8115576254354
-0.12170000000000014,-69.46232482337331
-0.12270000000000003,-70.38188716828559
-0.12370000000000014,-71.0326543662235
-0.12470000000000003,-71.66927445116276
-0.12570000000000014,-72.73030792606153
-0.12670000000000003,-73.66401738397246
-0.12770000000000015,-74.15916633892522
-0.12870000000000004,-74.93725755385098
-0.12970000000000015,-75.8992612377592
-0.13070000000000004,-76.42270441870929
-0.13170000000000015,-77.03103027765125
-0.13270000000000004,-77.87985705757028
-0.13370000000000015,-78.37500601252303
-0.13470000000000004,-78.84186074147848
-0.13570000000000015,-79.71898174739482
-0.13670000000000004,-80.53951430131653
-0.13770000000000016,-80.99222191727335
-0.13870000000000005,-81.69957756720586
-0.13970000000000016,-82.43522744313569
-0.14070000000000005,-82.84549372009654
-0.14170000000000016,-83.45381957903851
-0.14270000000000005,-84.45826460194269
-0.14370000000000016,-85.08073757388331
-0.14470000000000005,-85.60418075483337
-0.14570000000000016,-86.45300753475239
-0.14670000000000005,-87.21695163667951
-0.14770000000000016,-87.71210059163228
-0.14870000000000005,-88.5609273715513
-0.14970000000000017,-89.40975415147031
-0.15070000000000006,-89.90490310642309
-0.15170000000000017,-90.6122587563556
-0.15270000000000006,-91.61670377925978
-0.15370000000000017,-92.26747097719769
-0.15470000000000006,-92.83335549714371
-0.15570000000000017,-93.80950629405058
-0.15670000000000006,-94.58759750897636
-0.15770000000000017,-95.04030512493317
-0.15870000000000006,-95.84669056585624
-0.15970000000000018,-96.6813702327766
-0.16070000000000007,-97.17651918772938
-0.16170000000000018,-97.84143349866595
-0.16270000000000007,-98.83173140857146
-0.16370000000000018,-99.48249860650938
-0.16470000000000007,-100.00594178745945
-0.16570000000000018,-100.92550413237171
-0.16670000000000007,-101.7035953472975
-0.16770000000000018,-102.09971451125969
-0.16870000000000007,-102.83536438718951
-0.16970000000000018,-103.76907384510045
-0.17070000000000007,-104.33495836504645
-0.17170000000000019,-105.02816690198033
-0.17270000000000008,-106.00431769888719
-0.1737000000000002,-106.61264355782916
-0.17470000000000008,-107.27755786876574
-0.1757000000000002,-108.1688259876807
-0.17670000000000008,-108.79129895962132
-0.1777000000000002,-109.30059502757274
-0.17870000000000008,-110.1352746944931
-0.1797000000000002,-111.0265428134081
-0.18070000000000008,-111.54998599435814
-0.1817000000000002,-112.20075319229606
-0.18270000000000008,-113.21934532819888
-0.1837000000000002,-113.89840675213411
-0.1847000000000001,-114.4925854980774
-0.1857000000000002,-115.45458918198564
-0.1867000000000001,-116.19023905791546
-0.1877000000000002,-116.71368223886554
-0.1887000000000001,-117.6615388097751
-0.1897000000000002,-118.73671939767253
-0.1907000000000001,-119.37333948261178
-0.1917000000000001,-120.10898935854159
-0.19269999999999998,-121.0568459294512
-0.1937000000000001,-121.56614199740261
-0.19469999999999998,-122.08958517835266
-0.1957000000000001,-123.07988308825819
-0.19669999999999999,-123.94285698117585
-0.1977000000000001,-124.48044727512458
-0.1987,-125.30097982904631
-0.1997000000000001,-126.20639506095993
-0.2007,-126.70154401591269
-0.2017000000000001,-127.32401698785328
-0.2027,-128.32846201075745
-0.2037000000000001,-128.99337632169403
-0.2047,-129.58755506763737
-0.2057000000000001,-130.5637058645442
-0.2067,-131.3983855314646
-0.2077000000000001,-131.89353448641737
-0.2087,-132.64333147534586
-0.2097000000000001,-133.64777649825
-0.2107,-134.28439658318928
-0.2117000000000001,-134.94931089412586
-0.2127,-135.82643190004217
-0.2137000000000001,-136.4489048719828
-0.2147,-137.08552495692206
-0.2157000000000001,-138.04752864083028
-0.2167,-138.92464964674662
-0.21770000000000012,-139.53297550568857
-0.2187,-140.3818022856076
-0.21970000000000012,-141.30136463051988
-0.2207,-141.75407224647665
-0.22170000000000012,-142.4614278964092
-0.2227,-143.4517258063147
-0.22370000000000012,-144.15908145624724
-0.2247,-144.86643710617977
-0.22570000000000012,-145.9982061460718
-0.2267,-146.9885040559773
-0.22770000000000012,-147.55438857592333
-0.22870000000000001,-148.40321535584232
-0.22970000000000013,-149.39351326574788
-0.23070000000000002,-149.95939778569388
-0.23170000000000013,-150.66675343562642
-0.23270000000000002,-151.65705134553193
-0.23370000000000013,-152.36440699546444
-0.23470000000000002,-152.78882038542397
-0.23570000000000013,-153.63764716534297
-0.23670000000000002,-154.486473945262
-0.2376999999999999,-155.05235846520802
-0.23870000000000002,-155.90118524512707
-0.2396999999999999,-156.89148315503257
-0.24070000000000003,-157.59883880496508
-0.24169999999999991,-158.4476655848841
-0.24270000000000003,-159.57943462477613
-0.24369999999999992,-160.14531914472215
-0.24470000000000003,-160.71120366466818
-0.24569999999999992,-161.5600304445872
-0.24670000000000003,-162.40885722450622
-0.24769999999999992,-162.8332706144657
-0.24870000000000003,-163.82356852437124
-0.24969999999999992,-164.67239530429026
-0.25070000000000003,-165.2382798242363
-0.2516999999999999,-165.94563547416882
-0.25270000000000004,-166.93593338407433
-0.2536999999999999,-167.6432890340068
-0.25470000000000004,-168.20917355395284
-0.2556999999999999,-169.19947146385837
-0.25670000000000004,-170.18976937376394
-0.25769999999999993,-170.61418276372342
-0.25870000000000004,-171.60448067362896
-0.25969999999999993,-172.59477858353446
-0.26070000000000004,-173.16066310348046
-0.26169999999999993,-174.0094898833995
-0.26270000000000004,-175.14125892329156
-0.26369999999999993,-175.84861457322407
-0.26470000000000005,-176.55597022315658
-0.26569999999999994,-177.54626813306209
-0.26670000000000005,-178.3950949129811
-0.26769999999999994,-178.96097943292713
-0.26870000000000005,-179.80980621284618
-0.26969999999999994,-180.8001041227517
-0.27070000000000005,-181.5074597726842
-0.27169999999999994,-182.21481542261674
-0.27270000000000005,-183.34658446250873
-0.27369999999999994,-183.91246898245475
-0.27470000000000006,-184.47835350240078
-0.27569999999999995,-185.46865141230631
-0.27670000000000006,-186.31747819222534
-0.27769999999999995,-186.88336271217133
-0.27870000000000006,-187.73218949209036
-0.27969999999999995,-188.72248740199586
-0.28070000000000006,-189.42984305192843
-0.28169999999999995,-190.42014096183394
-0.28270000000000006,-191.41043887173947
-0.28369999999999995,-192.2592656516585
-0.28470000000000006,-192.683679041618
-0.28569999999999995,-193.9569192114965
-0.28670000000000007,-194.80574599141553
-0.28769999999999996,-195.51310164134807
-0.28870000000000007,-196.6448706812401
-0.28969999999999996,-197.63516859114563
-0.29070000000000007,-198.3425242410781
-0.29169999999999996,-199.04987989101065
-0.29270000000000007,-199.89870667092967
-0.29369999999999996,-200.6060623208622
-0.2947000000000001,-201.31341797079472
-0.29569999999999996,-202.44518701068677
-0.2967000000000001,-203.29401379060576
-0.29769999999999996,-203.71842718056527
-0.2987000000000001,-204.7087250904708
-0.29969999999999997,-205.84049413036286
-0.3007000000000001,-206.40637865030885
-0.30169999999999997,-207.25520543022787
-0.3027000000000001,-208.24550334013338
-0.30369999999999997,-208.8113878600794
-0.3047000000000001,-209.51874351001192
-0.30569999999999997,-210.36757028993094
-0.3067000000000001,-211.35786819983647
-0.3077,-211.9237527197825
-0.3087000000000001,-213.05552175967455
-0.3097,-213.90434853959354
-0.3107000000000001,-214.75317531951256
-0.3117,-215.4605309694451
-0.3127000000000001,-216.59230000933712
-0.3137,-217.29965565926966
-0.3147000000000001,-218.00701130920217
-0.3157,-218.99730921910768
-0.3167000000000001,-219.7046648690402
-0.3177,-220.1290782589997
-0.3187000000000001,-220.97790503891872
-0.3197,-221.96820294882426
-0.3207000000000001,-222.6755585987568
-0.3217,-223.38291424868927
-0.3227000000000001,-224.65615441856778
-0.3237,-225.64645232847332
-0.3247000000000001,-226.35380797840588
-0.3257,-227.4855770182979
-0.3267000000000001,-228.33440379821695
-0.3277,-228.90028831816295
-0.3287000000000001,-230.03205735805497
-0.3297,-231.163826397947
-0.3307000000000001,-231.729710917893
-0.3317,-232.57853769781204
-0.3327000000000001,-233.71030673770406
-0.3337,-234.55913351762308
-0.3347000000000001,-235.26648916755556
-0.3357,-236.1153159474746
-0.3367000000000001,-237.24708498736666
-0.3377,-237.53002724733966
-0.3387000000000001,-238.0959117672857
-0.3397,-238.8032674172182
-0.3407000000000001,-238.94473854720468
-0.3417,-239.36915193716422
-0.3427000000000001,-240.50092097705624
-0.3437,-240.78386323702924
-0.3447000000000001,-241.20827662698875
-0.3457,-242.34004566688077
-0.3467000000000001,-243.18887244679982
-0.3477,-243.6132858367593
-0.3487000000000001,-244.74505487665132
-0.3497,-246.15976617651637
-0.3507000000000001,-246.7256506964624
-0.3517,-247.2915352164084
-0.3527000000000001,-248.42330425630044
-0.3537,-249.41360216620598
-0.3547000000000001,-249.979486686152
-0.3557,-250.828313466071
-0.35670000000000013,-251.25272685603056
-0.3577,-251.67714024599002
-0.35870000000000013,-252.38449589592256
-0.3597,-253.23332267584152
-0.36070000000000013,-254.08214945576057
-0.3617,-254.78950510569314
-0.3626999999999999,-255.63833188561213
-0.3637,-256.0627452755717
-0.3646999999999999,-256.4871586655312
-0.3657,-257.33598544545015
-0.3666999999999999,-257.90186996539614
-0.3677,-258.18481222536917
-0.3686999999999999,-259.0336390052882
-0.36970000000000003,-260.02393691519376
-0.3706999999999999,-260.4483503051532
-0.37170000000000003,-261.01423482509927
-0.3726999999999999,-262.0045327350048
-0.37370000000000003,-262.7118883849373
-0.3746999999999999,-263.27777290488336
-0.37570000000000003,-263.98512855481584
-0.3766999999999999,-264.6924842047484
-0.37770000000000004,-265.11689759470784
-0.3786999999999999,-265.6827821146539
-0.37970000000000004,-266.3901377645864
-0.3806999999999999,-266.9560222845325
-0.38170000000000004,-267.80484906445145
-0.38269999999999993,-268.93661810434344
-0.38370000000000004,-269.361031494303
-0.38469999999999993,-269.78544488426246
-0.38570000000000004,-270.63427166418154
-0.38669999999999993,-269.64397375427603
-0.38570000000000004,-266.5316088945729
-0.38469999999999993,-263.56071516485633
-0.38370000000000004,-260.73129256512624
-0.38269999999999993,-257.76039883540966
-0.38170000000000004,-254.93097623567962
-0.3806999999999999,-252.38449589592256
-0.37970000000000004,-248.84771764625998
-0.3786999999999999,-245.45241052658386
-0.37770000000000004,-243.04740131681334
-0.3766999999999999,-240.64239210704275
-0.37570000000000003,-237.53002724733966
-0.3746999999999999,-234.84207577759608
-0.37370000000000003,-232.29559543783904
-0.3726999999999999,-229.60764396809546
-0.37170000000000003,-226.91969249835188
-0.3706999999999999,-224.5146832885813
-0.36970000000000003,-221.96820294882426
-0.3686999999999999,-219.13878034909416
-0.3677,-217.01671339929663
-0.3666999999999999,-214.61170418952605
-0.3657,-211.9237527197825
-0.3646999999999999,-209.37727238002543
-0.3637,-207.25520543022787
-0.3626999999999999,-204.9916673504438
-0.3617,-202.86960040064628
-0.36070000000000013,-200.88900458083523
-0.3597,-198.48399537106465
-0.35870000000000013,-195.79604390132107
-0.3577,-193.6739769515235
-0.35670000000000013,-191.551910001726
-0.3557,-189.0054296619689
-0.3547000000000001,-186.88336271217133
-0.3537,-184.9027668923603
-0.3527000000000001,-182.35628655260325
-0.3517,-180.09274847281918
-0.3507000000000001,-178.25362378299462
-0.3497,-175.99008570321055
-0.3487000000000001,-173.58507649344
-0.3477,-171.60448067362896
-0.3467000000000001,-169.6238848538179
-0.3457,-167.36034677403384
-0.3447000000000001,-165.5212220842093
-0.3437,-163.54062626439824
-0.3427000000000001,-161.1356170546277
-0.3417,-159.01355010483013
-0.3407000000000001,-157.31589654499206
-0.3397,-155.05235846520802
-0.3387000000000001,-152.78882038542397
-0.3377,-151.09116682558593
-0.3367000000000001,-149.25204213576137
-0.3357,-146.9885040559773
-0.3347000000000001,-144.86643710617977
-0.3337,-142.8858412863687
-0.3327000000000001,-140.66474454558062
-0.3317,-138.59926604777763
-0.3307000000000001,-136.91575960093826
-0.3297,-135.0200464591191
-0.3287000000000001,-133.08189197830401
-0.3277,-131.46912109645783
-0.3267000000000001,-129.61584929363465
-0.3257,-127.47963523083847
-0.3247000000000001,-125.76783455800178
-0.3237,-124.25409346714616
-0.3227000000000001,-122.30179187333242
-0.3217,-120.34949027951868
-0.3207000000000001,-118.80745496266577
-0.3197,-116.92588893384529
-0.3187000000000001,-114.88870466203963
-0.3177,-113.24763955419618
-0.3167000000000001,-111.5641331073568
-0.3157,-109.73915553053091
-0.3147000000000001,-108.32444423066585
-0.3137,-106.86729159180487
-0.3127000000000001,-104.95743133698709
-0.3117,-103.23148355115173
-0.3107000000000001,-101.78847802528938
-0.3097,-100.02008890045809
-0.3087000000000001,-98.1102286456403
-0.3077,-96.5964875547847
-0.3067000000000001,-94.99786378593721
-0.30569999999999997,-93.04556219212347
-0.3047000000000001,-91.50352687527057
-0.30369999999999997,-90.17369825339743
-0.3027000000000001,-88.46189758056073
-0.30169999999999997,-86.77839113372136
-0.3007000000000001,-85.40612117285227
-0.29969999999999997,-83.76505606500882
-0.2987000000000001,-82.03910827917348
-0.29769999999999996,-80.68098543130303
-0.2967000000000001,-79.1530972274488
-0.29569999999999996,-77.2998254246256
-0.2947000000000001,-75.8709670117619
-0.29369999999999996,-74.62602106788069
-0.29270000000000007,-72.97080884703858
-0.29169999999999996,-71.3721850781911
-0.29070000000000007,-70.19797469930313
-0.28969999999999996,-68.69838072144618
-0.28870000000000007,-67.04316850060408
-0.28769999999999996,-65.82651678272015
-0.28670000000000007,-64.51083527384567
-0.28569999999999995,-62.855623053003576
-0.28470000000000006,-61.525794431130436
-0.28369999999999995,-60.30914271324652
-0.28270000000000006,-58.75296028339497
-0.28169999999999995,-57.26751341853669
-0.28070000000000006,-56.12159726564601
-0.27969999999999995,-54.67859173978366
-0.27870000000000006,-53.094115083934824
-0.27769999999999995,-51.934051818045496
-0.27670000000000006,-50.73154721316022
-0.27569999999999995,-49.16121767031002
-0.27470000000000006,-47.94456595242609
-0.27369999999999994,-46.84109113853137
-0.27270000000000005,-45.34149716067443
-0.27169999999999994,-43.92678586080939
-0.27070000000000005,-42.90819372490656
-0.26969999999999994,-41.57836510303343
-0.26870000000000005,-40.07877112517649
-0.26769999999999994,-38.96114919828311
