Potential V vs RHE, Current mA cm-2
0.013299999999999867,1.5943796349478963
0.012299999999999978,0.36358080406531446
0.011299999999999866,-0.5565474253669055
0.010299999999999976,-1.3210574118139713
0.009299999999999864,-1.980595819811051
0.008299999999999974,-2.49696544426179
0.007299999999999862,-2.9525024828183315
0.006299999999999972,-3.3981365422758185
0.00529999999999986,-3.825379354835059
0.0042999999999999705,-4.225742652696865
0.0032999999999998586,-4.559614519465013
0.0022999999999999687,-4.863777448935997
0.0012999999999998568,-5.189161047904955
0.00029999999999996696,-5.520203492073373
-0.000700000000000145,-5.8356841119432765
-0.0017000000000000348,-6.098820413718173
-0.0027000000000001467,-6.323759510396714
-0.0037000000000000366,-6.598213502570531
-0.0047000000000001485,-6.879741051243673
-0.005700000000000038,-7.154195043417491
-0.00670000000000015,-7.389037119195086
-0.00770000000000004,-7.589926123775921
-0.008700000000000152,-7.834671178652573
-0.009700000000000042,-8.102051614327065
-0.010700000000000154,-8.363773204802097
-0.011700000000000044,-8.566076920682798
-0.012700000000000156,-8.754233523564846
-0.013700000000000045,-8.980587331543253
-0.014700000000000157,-9.233820654219095
-0.015700000000000047,-9.472906863896286
-0.01670000000000016,-9.689357692775637
-0.01770000000000005,-9.881758429557282
-0.01870000000000016,-10.088306279337578
-0.01970000000000005,-10.340124890713554
-0.020700000000000163,-10.58628465689007
-0.021700000000000053,-10.7914177953705
-0.022700000000000164,-10.98806266605174
-0.023700000000000054,-11.22149003052947
-0.024700000000000166,-11.490285177503829
-0.025700000000000056,-11.733615521080614
-0.026700000000000168,-11.937333948261179
-0.027700000000000058,-12.12831997374296
-0.02870000000000017,-12.346185513922174
-0.02970000000000006,-12.60649239309734
-0.03070000000000017,-12.865384560972643
-0.03170000000000006,-13.09173836895105
-0.03270000000000017,-13.337898135127567
-0.03370000000000006,-13.528884160609344
-0.034700000000000175,-13.823144110981273
-0.035700000000000065,-14.107501082254146
-0.03670000000000018,-14.331025467632822
-0.03770000000000007,-14.543232162612577
-0.03870000000000018,-14.769585970590983
-0.03970000000000007,-15.02423400456669
-0.04070000000000018,-15.307176264539699
-0.04170000000000007,-15.561824298515406
-0.04270000000000018,-15.802325219492458
-0.04370000000000007,-16.071120366466815
-0.044700000000000184,-16.368209739438473
-0.045700000000000074,-16.665299112410132
-0.046700000000000186,-16.919947146385837
-0.047700000000000076,-17.160448067362896
-0.04870000000000019,-17.429243214337255
-0.04970000000000008,-17.75462681330621
-0.05070000000000019,-18.05171618627787
-0.05170000000000008,-18.334658446250877
-0.05270000000000019,-18.603453593225233
-0.05370000000000008,-18.872248740199588
-0.05470000000000019,-19.211779452167196
-0.05570000000000008,-19.49472171214021
-0.056700000000000195,-19.77766397211321
-0.057700000000000085,-20.07475334508487
-0.058700000000000196,-20.357695605057877
-0.059700000000000086,-20.69722631702549
-0.0607000000000002,-21.036757028993097
-0.06170000000000009,-21.347993514963402
-0.0627000000000002,-21.63093577493641
-0.06370000000000009,-21.92802514790807
-0.0647000000000002,-22.281702972874328
-0.06570000000000009,-22.607086571843286
-0.0667000000000002,-22.932470170812245
-0.0677000000000001,-23.257853769781203
-0.0687000000000002,-23.56909025575151
-0.0697000000000001,-23.97935653271237
-0.07070000000000021,-24.34718147067728
-0.0717000000000001,-24.64427084364894
-0.07270000000000021,-24.941360216620595
-0.0737000000000001,-25.295038041586857
-0.07470000000000021,-25.677010092550415
-0.0757000000000001,-26.058982143513976
-0.07670000000000021,-26.398512855481584
-0.0777000000000001,-26.667308002455943
-0.07870000000000021,-27.0209858274222
-0.0797000000000001,-27.40295787838576
-0.08070000000000022,-27.841518381343924
-0.0817000000000001,-28.19519620631018
-0.08270000000000022,-28.53472691827779
-0.08370000000000011,-28.88840474324405
-0.08470000000000022,-29.31281813320356
-0.08570000000000011,-29.694790184167122
-0.08670000000000022,-30.03432089613473
-0.08770000000000011,-30.37385160810234
-0.08870000000000022,-30.7558236590659
-0.08970000000000011,-31.151942823028104
-0.09070000000000022,-31.56220909998897
-0.09170000000000011,-31.95832826395118
-0.09270000000000023,-32.368594540912035
-0.09370000000000012,-32.7222723658783
-0.09470000000000023,-33.160832868836465
-0.09570000000000012,-33.55695203279867
-0.09670000000000023,-33.93892408376223
-0.09770000000000012,-34.306749021727136
-0.09870000000000023,-34.6887210726907
-0.09970000000000012,-35.098987349651566
-0.10070000000000023,-35.52340073961108
-0.10170000000000012,-35.93366701657193
-0.10270000000000024,-36.329786180534136
-0.10370000000000013,-36.768346683492304
-0.10470000000000024,-37.221054299449115
-0.10570000000000013,-37.659614802407276
-0.10670000000000024,-38.04158685337084
-0.10770000000000013,-38.42355890433439
-0.10870000000000024,-38.83382518129526
-0.10970000000000013,-39.272385684253415
-0.11070000000000024,-39.72509330021023
-0.11170000000000013,-40.135359577171094
-0.11270000000000002,-40.545625854131956
-0.11370000000000013,-40.98418635709011
-0.11470000000000002,-41.46518819904423
-0.11570000000000014,-41.94619004099834
-0.11670000000000003,-42.3564563179592
-0.11770000000000014,-42.78086970791871
-0.11870000000000003,-43.23357732387552
-0.11970000000000014,-43.70043205283099
-0.12070000000000003,-44.153139668787794
-0.12170000000000014,-44.591700171745956
-0.12270000000000003,-44.98781933570817
-0.12370000000000014,-45.412232725667685
-0.12470000000000003,-45.87908745462314
-0.12570000000000014,-46.37423640957591
-0.12670000000000003,-46.78450268653676
-0.12770000000000015,-47.25135741549222
-0.12870000000000004,-47.73235925744634
-0.12970000000000015,-48.21336109940045
-0.13070000000000004,-48.70851005435321
-0.13170000000000015,-49.18951189630732
-0.13270000000000004,-49.628072399265484
-0.13370000000000015,-50.094927128220945
-0.13470000000000004,-50.56178185717641
-0.13570000000000015,-50.98619524713592
-0.13670000000000004,-51.495491315087335
-0.13770000000000016,-51.962346044042796
-0.13870000000000005,-52.45749499899556
-0.13970000000000016,-52.980938179945625
-0.14070000000000005,-53.546822699891635
-0.14170000000000016,-54.05611876784305
-0.14270000000000005,-54.494679270801214
-0.14370000000000016,-54.947386886758025
-0.14470000000000005,-55.41424161571349
-0.14570000000000016,-55.9235376836649
-0.14670000000000005,-56.43283375161632
-0.14770000000000016,-56.927982706569075
-0.14870000000000005,-57.43727877452049
-0.14970000000000017,-57.9465748424719
-0.15070000000000006,-58.51245936241792
-0.15170000000000017,-59.02175543036933
-0.15270000000000006,-59.46031593332749
-0.15370000000000017,-59.99790622727621
-0.15470000000000006,-60.53549652122492
-0.15570000000000017,-61.11552815416958
-0.15670000000000006,-61.61067710912235
-0.15770000000000017,-62.09167895107646
-0.15870000000000006,-62.64341635802381
-0.15970000000000018,-63.19515376497119
-0.16070000000000007,-63.803479623913155
-0.16170000000000018,-64.29862857886593
-0.16270000000000007,-64.80792464681733
-0.16370000000000018,-65.31722071476874
-0.16470000000000007,-65.8972523477134
-0.16570000000000018,-66.56216665864997
-0.16670000000000007,-67.08560983960004
-0.16770000000000018,-67.5807587945528
-0.16870000000000007,-68.07590774950557
-0.16970000000000018,-68.68423360844753
-0.17070000000000007,-69.25011812839355
-0.17170000000000019,-69.78770842234226
-0.17270000000000008,-70.29700449029367
-0.1737000000000002,-70.91947746223428
-0.17470000000000008,-71.52780332117625
-0.1757000000000002,-72.05124650212633
-0.17670000000000008,-72.53224834408043
-0.1777000000000002,-73.09813286402644
-0.17870000000000008,-73.66401738397246
-0.1797000000000002,-74.32893169490903
-0.18070000000000008,-74.93725755385098
-0.1817000000000002,-75.51728918679565
-0.18270000000000008,-76.13976215873627
-0.1837000000000002,-76.69149956568363
-0.1847000000000001,-77.243236972631
-0.1857000000000002,-77.7525330405824
-0.1867000000000001,-78.34671178652573
-0.1877000000000002,-78.96918475846634
-0.1887000000000001,-79.70483463439616
-0.1897000000000002,-80.36974894533273
-0.1907000000000001,-80.99222191727335
-0.1917000000000001,-81.54395932422072
-0.19269999999999998,-82.02496116617483
-0.1937000000000001,-82.49181589513029
-0.19469999999999998,-83.0011119630817
-0.1957000000000001,-83.68017338701692
-0.19669999999999999,-84.33094058495485
-0.1977000000000001,-84.99585489589141
-0.1987,-85.80224033681448
-0.1997000000000001,-86.42471330875509
-0.2007,-87.00474494169976
-0.2017000000000001,-87.51404100965117
-0.2027,-88.15066109459043
-0.2037000000000001,-88.77313406653104
-0.2047,-89.29657724748111
-0.2057000000000001,-89.86246176742712
-0.2067,-90.47078762636909
-0.2077000000000001,-91.09326059830971
-0.2087,-91.67329223125436
-0.2097000000000001,-92.35235365518959
-0.2107,-93.04556219212347
-0.2117000000000001,-93.76706495505464
-0.2127,-94.34709658799929
-0.2137000000000001,-94.91298110794531
-0.2147,-95.53545407988594
-0.2157000000000001,-96.2852510688144
-0.2167,-96.90772404075501
-0.21770000000000012,-97.53019701269562
-0.2187,-98.16681709763489
-0.21970000000000012,-98.81758429557281
-0.2207,-99.41176304151614
-0.22170000000000012,-100.02008890045809
-0.2227,-100.84062145437981
-0.22370000000000012,-101.49138865231772
-0.2247,-102.19874430225026
-0.22570000000000012,-102.86365861318681
-0.2267,-103.47198447212878
-0.22770000000000012,-103.96713342708154
-0.22870000000000001,-104.5188708340289
-0.22970000000000013,-105.26866782295738
-0.23070000000000002,-105.96187635989125
-0.23170000000000013,-106.62679067082782
-0.23270000000000002,-107.23511652976977
-0.23370000000000013,-107.914177953705
-0.23470000000000002,-108.63568071663616
-0.23570000000000013,-109.18741812358353
-0.23670000000000002,-109.7957439825255
-0.2376999999999999,-110.41821695446612
-0.23870000000000002,-111.15386683039593
-0.2396999999999999,-111.74804557633925
-0.24070000000000003,-112.39881277427718
-0.24169999999999991,-112.93640306822589
-0.24270000000000003,-113.50228758817191
-0.24369999999999992,-114.26623169009903
-0.24470000000000003,-115.03017579202613
-0.24569999999999992,-115.6102074249708
-0.24670000000000003,-116.26097462290872
-0.24769999999999992,-116.92588893384529
-0.24870000000000003,-117.4917734537913
-0.24969999999999992,-118.1708348777265
-0.25070000000000003,-118.89233764065769
-0.2516999999999999,-119.51481061259831
-0.25270000000000004,-120.10898935854159
-0.2536999999999999,-120.64657965249035
-0.25470000000000004,-121.2549055114323
-0.2556999999999999,-121.91981982236886
-0.25670000000000004,-122.55643990730813
-0.25769999999999993,-123.1364715402528
-0.25870000000000004,-123.71650317319745
-0.25969999999999993,-124.35312325813672
-0.26070000000000004,-124.989743343076
-0.26169999999999993,-125.92345280098691
-0.26270000000000004,-126.20639506095993
-0.26369999999999993,-126.60251422492213
-0.26470000000000005,-127.38060543984788
-0.26569999999999994,-128.2577264457642
-0.26670000000000005,-128.8094638527116
-0.26769999999999994,-129.3753483726576
-0.26870000000000005,-129.8704973276104
-0.26969999999999994,-130.50711741254963
-0.27070000000000005,-131.24276728847948
-0.27169999999999994,-131.82279892142412
-0.27270000000000005,-132.38868344137015
-0.27369999999999994,-133.06774486530534
-0.27470000000000006,-133.80339474123514
-0.27569999999999995,-134.41172060017715
-0.27670000000000006,-134.94931089412586
-0.27769999999999995,-135.58593097906513
-0.27870000000000006,-136.12352127301384
-0.27969999999999995,-136.77428847095175
-0.28070000000000006,-137.2977316519018
-0.28169999999999995,-137.9626459628384
-0.28270000000000006,-138.65585449977226
-0.28369999999999995,-139.27832747171286
-0.28470000000000006,-139.81591776566157
-0.28569999999999995,-140.39594939860626
-0.28670000000000007,-140.87695124056035
-0.28769999999999996,-141.42868864750773
-0.28870000000000007,-142.03701450644968
-0.28969999999999996,-142.7443701563822
-0.29070000000000007,-143.0273124163552
-0.29169999999999996,-143.0273124163552
-0.29270000000000007,-143.0273124163552
-0.29369999999999996,-143.0273124163552
-0.2947000000000001,-143.0273124163552
-0.29569999999999996,-143.0273124163552
-0.2967000000000001,-143.0273124163552
-0.29769999999999996,-143.0273124163552
-0.2987000000000001,-143.0273124163552
-0.29969999999999997,-143.0273124163552
-0.3007000000000001,-143.0273124163552
-0.30169999999999997,-143.0273124163552
-0.3027000000000001,-143.0273124163552
-0.30369999999999997,-143.0273124163552
-0.3047000000000001,-143.0273124163552
-0.30569999999999997,-143.0273124163552
-0.3067000000000001,-143.0273124163552
-0.3077,-143.0273124163552
-0.3087000000000001,-143.0273124163552
-0.3097,-143.0273124163552
-0.3107000000000001,-143.0273124163552
-0.3117,-143.0273124163552
-0.3127000000000001,-143.0273124163552
-0.3137,-143.0273124163552
-0.3147000000000001,-143.0273124163552
-0.3157,-143.0273124163552
-0.3167000000000001,-143.0273124163552
-0.3177,-143.0273124163552
-0.3187000000000001,-143.0273124163552
-0.3197,-143.0273124163552
-0.3207000000000001,-143.0273124163552
-0.3217,-143.0273124163552
-0.3227000000000001,-143.0273124163552
-0.3237,-143.0273124163552
-0.3247000000000001,-143.0273124163552
-0.3257,-143.0273124163552
-0.3267000000000001,-143.0273124163552
-0.3277,-143.0273124163552
-0.3287000000000001,-143.0273124163552
-0.3297,-143.0273124163552
-0.3307000000000001,-143.0273124163552
-0.3317,-143.0273124163552
-0.3327000000000001,-143.0273124163552
-0.3337,-143.0273124163552
-0.3347000000000001,-143.0273124163552
-0.3357,-143.0273124163552
-0.3367000000000001,-143.0273124163552
-0.3377,-143.0273124163552
-0.3387000000000001,-143.0273124163552
-0.3397,-143.0273124163552
-0.3407000000000001,-143.0273124163552
-0.3417,-143.0273124163552
-0.3427000000000001,-143.0273124163552
-0.3437,-143.0273124163552
-0.3447000000000001,-143.0273124163552
-0.3457,-143.0273124163552
-0.3467000000000001,-143.0273124163552
-0.3477,-143.0273124163552
-0.3487000000000001,-143.0273124163552
-0.3497,-143.0273124163552
-0.3507000000000001,-143.0273124163552
-0.3517,-143.0273124163552
-0.3527000000000001,-143.0273124163552
-0.3537,-143.0273124163552
-0.3547000000000001,-143.0273124163552
-0.3557,-143.0273124163552
-0.35670000000000013,-143.0273124163552
-0.3577,-143.0273124163552
-0.35870000000000013,-143.0273124163552
-0.3597,-143.0273124163552
-0.36070000000000013,-143.0273124163552
-0.3617,-143.0273124163552
-0.3626999999999999,-143.0273124163552
-0.3637,-143.0273124163552
-0.3646999999999999,-143.0273124163552
-0.3657,-143.0273124163552
-0.3666999999999999,-143.0273124163552
-0.3677,-143.0273124163552
-0.3686999999999999,-143.0273124163552
-0.36970000000000003,-143.0273124163552
-0.3706999999999999,-143.0273124163552
-0.37170000000000003,-143.0273124163552
-0.3726999999999999,-143.0273124163552
-0.37370000000000003,-143.0273124163552
-0.3746999999999999,-143.0273124163552
-0.37570000000000003,-143.0273124163552
-0.3766999999999999,-143.0273124163552
-0.37770000000000004,-143.0273124163552
-0.3786999999999999,-143.0273124163552
-0.37970000000000004,-143.0273124163552
-0.3806999999999999,-143.0273124163552
-0.38170000000000004,-143.0273124163552
-0.38269999999999993,-143.0273124163552
-0.38370000000000004,-143.0273124163552
-0.38469999999999993,-143.0273124163552
-0.38570000000000004,-143.0273124163552
-0.38669999999999993,-143.0273124163552
-0.38570000000000004,-143.0273124163552
-0.38469999999999993,-143.0273124163552
-0.38370000000000004,-143.0273124163552
-0.38269999999999993,-143.0273124163552
-0.38170000000000004,-143.0273124163552
-0.3806999999999999,-143.0273124163552
-0.37970000000000004,-143.0273124163552
-0.3786999999999999,-143.0273124163552
-0.37770000000000004,-143.0273124163552
-0.3766999999999999,-143.0273124163552
-0.37570000000000003,-143.0273124163552
-0.3746999999999999,-143.0273124163552
-0.37370000000000003,-143.0273124163552
-0.3726999999999999,-143.0273124163552
-0.37170000000000003,-143.0273124163552
-0.3706999999999999,-143.0273124163552
-0.36970000000000003,-143.0273124163552
-0.3686999999999999,-143.0273124163552
-0.3677,-143.0273124163552
-0.3666999999999999,-143.0273124163552
-0.3657,-143.0273124163552
-0.3646999999999999,-143.0273124163552
-0.3637,-143.0273124163552
-0.3626999999999999,-143.0273124163552
-0.3617,-142.8858412863687
-0.36070000000000013,-141.456982873505
-0.3597,-139.41979860169934
-0.35870000000000013,-137.2694374259045
-0.3577,-135.26054738009617
-0.35670000000000013,-133.18092176929454
-0.3557,-131.10129615849294
-0.3547000000000001,-129.09240611268459
-0.3537,-126.9278978238911
-0.3527000000000001,-124.97559623007734
-0.3517,-123.20720710524604
-0.3507000000000001,-121.38222952842017
-0.3497,-119.5431048385956
-0.3487000000000001,-117.53421479278724
-0.3477,-115.76582566795594
-0.3467000000000001,-113.78522984814491
-0.3457,-111.98854649731629
-0.3447000000000001,-110.34748138947285
-0.3437,-108.77715184662266
-0.3427000000000001,-107.29170498176438
-0.3417,-105.53746296993172
-0.3407000000000001,-103.93883920108425
-0.3397,-101.97239049427183
-0.3387000000000001,-100.1332658044473
-0.3377,-98.35072956661735
-0.3367000000000001,-96.65307600677932
-0.3357,-95.02615801193451
-0.3347000000000001,-93.42753424308701
-0.3337,-91.91379315223143
-0.3327000000000001,-90.41419917437449
-0.3317,-88.7872811795297
-0.3307000000000001,-87.16036318468491
-0.3297,-85.61832786783202
-0.3287000000000001,-84.14702811597239
-0.3277,-82.81719949409924
-0.3267000000000001,-81.37419396823692
-0.3257,-79.87459999037998
-0.3247000000000001,-78.43159446451764
-0.3237,-76.98858893865528
-0.3227000000000001,-75.55973052579161
-0.3217,-74.14501922592657
-0.3207000000000001,-72.71616081306288
-0.3197,-71.30144951319785
-0.3187000000000001,-69.91503243933012
-0.3177,-68.51446825246373
-0.3167000000000001,-67.14219829159464
-0.3157,-65.82651678272015
-0.3147000000000001,-64.36936414385917
-0.3137,-63.13856531297658
-0.3127000000000001,-61.851178030099405
-0.3117,-60.54964363422357
-0.3107000000000001,-59.16322656035583
-0.3097,-57.93242772947325
-0.3087000000000001,-56.65918755959472
-0.3077,-55.428388728712136
-0.3067000000000001,-54.16929567183226
-0.30569999999999997,-52.896055501953725
-0.3047000000000001,-51.7642864620617
-0.30369999999999997,-50.61837030917101
-0.3027000000000001,-49.444159930283035
-0.30169999999999997,-48.29824377739235
-0.3007000000000001,-47.053297833511124
-0.29969999999999997,-45.93567590661774
-0.2987000000000001,-44.81805397972436
-0.29769999999999996,-43.70043205283099
-0.2967000000000001,-42.526221673943
-0.29569999999999996,-41.39445263405098
-0.2947000000000001,-40.36171338514949
-0.29369999999999996,-39.34312124924667
-0.29270000000000007,-38.31038200034519
-0.29169999999999996,-37.221054299449115
-0.29070000000000007,-36.13172659855304
-0.28969999999999996,-35.08484023665291
-0.28870000000000007,-34.06624810075008
-0.28769999999999996,-33.10424441684186
-0.28670000000000007,-32.14224073293363
-0.28569999999999995,-31.137795710029454
-0.28470000000000006,-30.17579202612123
-0.28369999999999995,-29.22793545521166
-0.28270000000000006,-28.308373110299385
-0.28169999999999995,-27.36051653938981
-0.28070000000000006,-26.440954194477534
-0.27969999999999995,-25.507244736566612
-0.27870000000000006,-24.64427084364894
-0.27769999999999995,-23.795444063729917
-0.27670000000000006,-22.890028831816295
-0.27569999999999995,-21.94217226090672
-0.27470000000000006,-21.065051254990397
-0.27369999999999994,-20.21622447507137
-0.27270000000000005,-19.409839034148305
-0.27169999999999994,-18.589306480226583
-0.27070000000000005,-17.72633258730891
-0.26969999999999994,-16.919947146385837
-0.26870000000000005,-16.15600304445872
-0.26769999999999994,-15.3920589425316
-0.26670000000000005,-14.557379275611227
-0.26569999999999994,-13.750993834688156
