Potential V vs RHE, Current mA cm-2
0.013299999999999867,26.129717708507226
0.012299999999999978,24.078386323702922
0.011299999999999866,22.15437895588647
0.010299999999999976,20.272812927065978
0.009299999999999864,18.49027668923603
0.008299999999999974,16.792623129397985
0.007299999999999862,15.137410908555893
0.006299999999999972,13.431269080918659
0.00529999999999986,11.774642148776701
0.0042999999999999705,10.07274445503906
0.0032999999999998586,8.416117522897103
0.0022999999999999687,6.714219829159464
0.0012999999999998568,5.057592897017507
0.00029999999999996696,3.3995512535756833
-0.000700000000000145,1.8730777610213083
-0.0017000000000000348,0.2594580523952477
-0.0027000000000001467,-1.2234423321232837
-0.0037000000000000366,-2.662486666345999
-0.0047000000000001485,-4.0588067193127895
-0.005700000000000038,-5.411270721983764
-0.00670000000000015,-6.806176063650692
-0.00770000000000004,-8.158640066321666
-0.008700000000000152,-9.55496011928846
-0.009700000000000042,-10.993721511251199
-0.010700000000000154,-12.432482903213943
-0.011700000000000044,-13.872659006476551
-0.012700000000000156,-15.349617603535648
-0.013700000000000045,-16.70774045140608
-0.014700000000000157,-18.10830463827247
-0.015700000000000047,-19.409839034148305
-0.01670000000000016,-20.626490752032236
-0.01770000000000005,-21.899730921910766
-0.01870000000000016,-23.073941300798747
-0.01970000000000005,-24.290593018682678
-0.020700000000000163,-25.521391849565262
-0.021700000000000053,-26.69560222845324
-0.022700000000000164,-27.954695285333123
-0.023700000000000054,-29.22793545521166
-0.024700000000000166,-30.529469851087494
-0.025700000000000056,-31.84515135996197
-0.026700000000000168,-33.10424441684186
-0.027700000000000058,-34.377484586720385
-0.02870000000000017,-35.55169496560837
-0.02970000000000006,-36.725905344496354
-0.03070000000000017,-37.81523304539243
-0.03170000000000006,-38.90456074628851
-0.03270000000000017,-39.99388844718459
-0.03370000000000006,-41.083216148080666
-0.034700000000000175,-42.130102509980794
-0.035700000000000065,-43.36090134086337
-0.03670000000000018,-44.535111719751356
-0.03770000000000007,-45.70932209863933
-0.03870000000000018,-46.94012092952192
-0.03970000000000007,-48.114331308409895
-0.04070000000000018,-49.28854168729788
-0.04170000000000007,-50.42031072718991
-0.04270000000000018,-51.509638428085985
-0.04370000000000007,-52.55652478998611
-0.044700000000000184,-53.603411151886235
-0.045700000000000074,-54.56541483579447
-0.046700000000000186,-55.612301197694585
-0.047700000000000076,-56.61674622059877
-0.04870000000000019,-57.7485152604908
-0.04970000000000008,-58.83784296138688
-0.05070000000000019,-59.9696120012789
-0.05170000000000008,-61.07308681517363
-0.05270000000000019,-62.28973853305756
-0.05370000000000008,-63.3366248949577
-0.05470000000000019,-64.46839393484973
-0.05570000000000008,-65.51528029674984
-0.056700000000000195,-66.51972531965401
-0.057700000000000085,-67.52417034255821
-0.058700000000000196,-68.48617402646643
-0.059700000000000086,-69.39158925838004
-0.0607000000000002,-70.39603428128423
-0.06170000000000009,-71.4004793041884
-0.0627000000000002,-72.48980700508447
-0.06370000000000009,-73.57913470598055
-0.0647000000000002,-74.66846240687663
-0.06570000000000009,-75.81437855976732
-0.0667000000000002,-76.86126492166746
-0.0677000000000001,-77.95059262256353
-0.0687000000000002,-78.99747898446365
-0.0697000000000001,-79.94533555537322
-0.07070000000000021,-80.9497805782774
-0.0717000000000001,-81.91178426218562
-0.07270000000000021,-82.8313466070979
-0.0737000000000001,-83.79335029100612
-0.07470000000000021,-84.75535397491434
-0.0757000000000001,-85.84468167581042
-0.07670000000000021,-86.89156803771054
-0.0777000000000001,-87.98089573860662
-0.07870000000000021,-89.07022343950271
-0.0797000000000001,-90.15955114039879
-0.08070000000000022,-91.20643750229891
-0.0817000000000001,-92.25332386419905
-0.08270000000000022,-93.25776888710321
-0.08370000000000011,-94.21977257101145
-0.08470000000000022,-95.12518780292505
-0.08570000000000011,-96.0871914868333
-0.08670000000000022,-97.09163650973747
-0.08770000000000011,-98.05364019364569
-0.08870000000000022,-99.01564387755391
-0.08970000000000011,-100.06253023945405
-0.09070000000000022,-101.15185794035013
-0.09170000000000011,-102.24118564124619
-0.09270000000000023,-103.41539602013418
-0.09370000000000012,-104.41984104303836
-0.09470000000000023,-105.50916874393444
-0.09570000000000012,-106.51361376683862
-0.09670000000000023,-107.47561745074682
-0.09770000000000012,-108.43762113465506
-0.09870000000000023,-109.39962481856328
-0.09970000000000012,-110.3050400504769
-0.10070000000000023,-111.26704373438514
-0.10170000000000012,-112.22904741829338
-0.10270000000000024,-113.27593378019348
-0.10370000000000013,-114.36526148108955
-0.10470000000000024,-115.45458918198564
-0.10570000000000013,-116.54391688288172
-0.10670000000000024,-117.63324458377778
-0.10770000000000013,-118.72257228467387
-0.10870000000000024,-119.769458646574
-0.10970000000000013,-120.73146233048222
-0.11070000000000024,-121.69346601439047
-0.11170000000000013,-122.65546969829869
-0.11270000000000002,-123.57503204321095
-0.11370000000000013,-124.52288861412055
-0.11470000000000002,-125.48489229802875
-0.11570000000000014,-126.5317786599289
-0.11670000000000003,-127.62110636082497
-0.11770000000000014,-128.66799272272507
-0.11870000000000003,-129.7148790846252
-0.11970000000000014,-130.84664812451723
-0.12070000000000003,-131.89353448641737
-0.12170000000000014,-132.9404208483175
-0.12270000000000003,-133.94486587122168
-0.12370000000000014,-134.94931089412586
-0.12470000000000003,-135.86887323903812
-0.12570000000000014,-136.83087692294635
-0.12670000000000003,-137.79288060685457
-0.12770000000000015,-138.7548842907628
-0.12870000000000004,-139.74518220066832
-0.12970000000000015,-140.79206856256846
-0.13070000000000004,-141.89554337646317
-0.13170000000000015,-143.0273124163552
-0.13270000000000004,-144.15908145624724
-0.13370000000000015,-145.29085049613926
-0.13470000000000004,-146.4226195360313
-0.13570000000000015,-147.27144631595033
-0.13670000000000004,-148.40321535584232
-0.13770000000000016,-149.39351326574788
-0.13870000000000005,-150.24234004566688
-0.13970000000000016,-151.23263795557244
-0.14070000000000005,-152.22293586547795
-0.14170000000000016,-153.21323377538346
-0.14270000000000005,-154.3450028152755
-0.14370000000000016,-155.33530072518104
-0.14470000000000005,-156.46706976507306
-0.14570000000000016,-157.59883880496508
-0.14670000000000005,-158.73060784485713
-0.14770000000000016,-159.86237688474912
-0.14870000000000005,-160.8526747946547
-0.14970000000000017,-161.84297270456022
-0.15070000000000006,-162.97474174445222
-0.15170000000000017,-163.82356852437124
-0.15270000000000006,-164.81386643427678
-0.15370000000000017,-165.8041643441823
-0.15470000000000006,-166.79446225408785
-0.15570000000000017,-167.78476016399335
-0.15670000000000006,-168.91652920388537
-0.15770000000000017,-170.0482982437774
-0.15870000000000006,-171.18006728366944
-0.15970000000000018,-172.31183632356147
-0.16070000000000007,-173.44360536345349
-0.16170000000000018,-174.57537440334553
-0.16270000000000007,-175.56567231325104
-0.16370000000000018,-176.55597022315658
-0.16470000000000007,-177.54626813306209
-0.16570000000000018,-178.53656604296762
-0.16670000000000007,-179.52686395287316
-0.16770000000000018,-180.5171618627787
-0.16870000000000007,-181.5074597726842
-0.16970000000000018,-182.63922881257625
-0.17070000000000007,-183.77099785246824
-0.17170000000000019,-184.9027668923603
-0.17270000000000008,-186.03453593225234
-0.1737000000000002,-187.16630497214436
-0.17470000000000008,-188.29807401203638
-0.1757000000000002,-189.2883719219419
-0.17670000000000008,-190.27866983184742
-0.1777000000000002,-191.41043887173947
-0.17870000000000008,-192.2592656516585
-0.1797000000000002,-193.249563561564
-0.18070000000000008,-194.38133260145605
-0.1817000000000002,-195.37163051136156
-0.18270000000000008,-196.3619284212671
-0.1837000000000002,-197.35222633117263
-0.1847000000000001,-198.48399537106465
-0.1857000000000002,-199.61576441095667
-0.1867000000000001,-200.7475334508487
-0.1877000000000002,-201.87930249074074
-0.1887000000000001,-203.01107153063276
-0.1897000000000002,-204.0013694405383
-0.1907000000000001,-204.9916673504438
-0.1917000000000001,-205.98196526034934
-0.19269999999999998,-206.97226317025488
-0.1937000000000001,-207.96256108016038
-0.19469999999999998,-208.95285899006592
-0.1957000000000001,-210.08462802995794
-0.19669999999999999,-211.07492593986345
-0.1977000000000001,-212.2066949797555
-0.1987,-213.33846401964755
-0.1997000000000001,-214.61170418952605
-0.2007,-215.7434732294181
-0.2017000000000001,-216.73377113932364
-0.2027,-217.72406904922914
-0.2037000000000001,-218.85583808912116
-0.2047,-219.8461359990267
-0.2057000000000001,-220.6949627789457
-0.2067,-221.68526068885126
-0.2077000000000001,-222.81702972874328
-0.2087,-223.80732763864881
-0.2097000000000001,-224.93909667854084
-0.2107,-226.07086571843288
-0.2117000000000001,-227.2026347583249
-0.2127,-228.33440379821695
-0.2137000000000001,-229.46617283810895
-0.2147,-230.59794187800094
-0.2157000000000001,-231.729710917893
-0.2167,-232.72000882779852
-0.21770000000000012,-233.85177786769057
-0.2187,-234.7006046476096
-0.21970000000000012,-235.69090255751513
-0.2207,-236.82267159740715
-0.22170000000000012,-237.81296950731266
-0.2227,-238.8032674172182
-0.22370000000000012,-239.93503645711021
-0.2247,-240.92533436701575
-0.22570000000000012,-242.19857453689428
-0.2267,-243.18887244679982
-0.22770000000000012,-244.32064148669184
-0.22870000000000001,-245.45241052658386
-0.22970000000000013,-246.4427084364894
-0.23070000000000002,-247.4330063463949
-0.23170000000000013,-248.42330425630044
-0.23270000000000002,-249.41360216620598
-0.23370000000000013,-250.4039000761115
-0.23470000000000002,-251.39419798601702
-0.23570000000000013,-252.52596702590907
-0.23670000000000002,-253.65773606580112
-0.2376999999999999,-254.78950510569314
-0.23870000000000002,-255.92127414558513
-0.2396999999999999,-257.0530431854772
-0.24070000000000003,-258.18481222536917
-0.24169999999999991,-259.3165812652612
-0.24270000000000003,-260.4483503051532
-0.24369999999999992,-261.4386482150588
-0.24470000000000003,-262.42894612496434
-0.24569999999999992,-263.41924403486985
-0.24670000000000003,-264.55101307476184
-0.24769999999999992,-265.39983985468086
-0.24870000000000003,-266.5316088945729
-0.24969999999999992,-267.6633779344649
-0.25070000000000003,-268.79514697435695
-0.2516999999999999,-269.926916014249
-0.25270000000000004,-271.05868505414105
-0.2536999999999999,-272.1904540940331
-0.25470000000000004,-273.4636942639116
-0.2556999999999999,-274.4539921738171
-0.25670000000000004,-275.44429008372265
-0.25769999999999993,-276.5760591236147
-0.25870000000000004,-277.56635703352015
-0.25969999999999993,-278.5566549434257
-0.26070000000000004,-279.6884239833177
-0.26169999999999993,-280.67872189322327
-0.26270000000000004,-281.8104909331153
-0.26369999999999993,-282.9422599730073
-0.26470000000000005,-284.07402901289936
-0.26569999999999994,-285.3472691827779
-0.26670000000000005,-286.47903822266994
-0.26769999999999994,-287.610807262562
-0.26870000000000005,-288.742576302454
-0.26969999999999994,-289.73287421235955
-0.27070000000000005,-290.86464325225154
-0.27169999999999994,-291.9964122921436
-0.27270000000000005,-292.8452390720626
-0.27369999999999994,-293.9770081119546
-0.27470000000000006,-294.96730602186017
-0.27569999999999995,-296.2405461917387
-0.27670000000000006,-297.23084410164427
-0.27769999999999995,-298.50408427152274
-0.27870000000000006,-299.6358533114148
-0.27969999999999995,-300.9090934812933
-0.28070000000000006,-302.0408625211853
-0.28169999999999995,-303.17263156107737
-0.28270000000000006,-304.1629294709828
-0.28369999999999995,-305.29469851087487
-0.28470000000000006,-306.28499642078043
-0.28569999999999995,-307.27529433068594
-0.28670000000000007,-308.2655922405915
-0.28769999999999996,-309.3973612804835
-0.28870000000000007,-310.38765919038906
-0.28969999999999996,-311.5194282302811
-0.29070000000000007,-312.65119727017316
-0.29169999999999996,-313.78296631006515
-0.29270000000000007,-315.0562064799437
-0.29369999999999996,-316.04650438984913
-0.2947000000000001,-317.1782734297412
-0.29569999999999996,-318.16857133964675
-0.2967000000000001,-319.30034037953874
-0.29769999999999996,-320.2906382894443
-0.2987000000000001,-321.2809361993498
-0.29969999999999997,-322.2712341092554
-0.3007000000000001,-323.40300314914737
-0.30169999999999997,-324.5347721890394
-0.3027000000000001,-325.5250700989449
-0.30369999999999997,-326.656839138837
-0.3047000000000001,-327.788608178729
-0.30569999999999997,-328.92037721862107
-0.3067000000000001,-330.19361738849955
-0.3077,-331.3253864283916
-0.3087000000000001,-332.45715546828364
-0.3097,-333.5889245081757
-0.3107000000000001,-334.7206935480677
-0.3117,-335.71099145797325
-0.3127000000000001,-336.70128936787876
-0.3137,-337.83305840777075
-0.3147000000000001,-338.8233563176763
-0.3157,-339.95512535756825
-0.3167000000000001,-341.0868943974603
-0.3177,-342.21866343735235
-0.3187000000000001,-343.3504324772444
-0.3197,-344.62367264712293
-0.3207000000000001,-345.7554416870149
-0.3217,-347.0286818568935
-0.3227000000000001,-348.16045089678556
-0.3237,-349.15074880669107
-0.3247000000000001,-350.1410467165966
-0.3257,-351.2728157564886
-0.3267000000000001,-352.4045847963807
-0.3277,-353.5363538362726
-0.3287000000000001,-354.5266517461782
-0.3297,-355.65842078607017
-0.3307000000000001,-356.93166095594876
-0.3317,-358.20490112582723
-0.3327000000000001,-359.3366701657193
-0.3337,-360.6099103355978
-0.3347000000000001,-361.74167937548987
-0.3357,-362.87344841538186
-0.3367000000000001,-364.0052174552739
-0.3377,-365.2784576251525
-0.3387000000000001,-366.4102266650445
-0.3397,-367.40052457495005
-0.3407000000000001,-368.67376474482853
-0.3417,-369.8055337847206
-0.3427000000000001,-370.93730282461263
-0.3437,-372.2105429944911
-0.3447000000000001,-373.34231203438316
-0.3457,-374.61555220426175
-0.3467000000000001,-375.74732124415374
-0.3477,-377.0205614140323
-0.3487000000000001,-378.1523304539243
-0.3497,-379.28409949381637
-0.3507000000000001,-380.2743974037219
-0.3517,-381.4061664436139
-0.3527000000000001,-382.3964643535194
-0.3537,-383.38676226342494
-0.3547000000000001,-384.37706017333045
-0.3557,-385.5088292132225
-0.35670000000000013,-386.64059825311455
-0.3577,-387.7723672930066
-0.35870000000000013,-388.9041363328986
-0.3597,-390.1773765027771
-0.36070000000000013,-391.4506166726556
-0.3617,-392.58238571254765
-0.3626999999999999,-393.7141547524397
-0.3637,-394.70445266234526
-0.3646999999999999,-395.83622170223725
-0.3657,-396.6850484821562
-0.3666999999999999,-397.81681752204827
-0.3677,-398.9485865619403
-0.3686999999999999,-399.9388844718459
-0.36970000000000003,-401.2121246417244
-0.3706999999999999,-402.34389368161646
-0.37170000000000003,-403.61713385149494
-0.3726999999999999,-404.748902891387
-0.37370000000000003,-405.88067193127904
-0.3746999999999999,-407.1539121011575
-0.37570000000000003,-408.28568114104957
-0.3766999999999999,-409.4174501809416
-0.37770000000000004,-410.54921922083366
-0.3786999999999999,-411.53951713073917
-0.37970000000000004,-412.6712861706312
-0.3806999999999999,-413.80305521052327
-0.38170000000000004,-414.9348242504152
-0.38269999999999993,-416.06659329030725
-0.38370000000000004,-417.3398334601858
-0.38469999999999993,-418.6130736300644
-0.38570000000000004,-419.74484266995637
-0.38669999999999993,-419.6033715399698
-0.38570000000000004,-416.6324778102533
-0.38469999999999993,-413.6615840805367
-0.38370000000000004,-410.83216148080663
-0.38269999999999993,-408.0027388810766
-0.38170000000000004,-405.03184515135996
-0.3806999999999999,-402.2024225516299
-0.37970000000000004,-399.3729999518999
-0.3786999999999999,-396.5435773521698
-0.37770000000000004,-393.85562588242624
-0.3766999999999999,-391.30914554266917
-0.37570000000000003,-388.6211940729256
-0.3746999999999999,-386.0747137331685
-0.37370000000000003,-383.5282333934114
-0.3726999999999999,-380.98175305365436
-0.37170000000000003,-378.5767438438838
-0.3706999999999999,-376.0302635041267
-0.36970000000000003,-373.4837831643697
-0.3686999999999999,-370.93730282461263
-0.3677,-368.39082248485556
-0.3666999999999999,-365.8443421450985
-0.3657,-363.4393329353279
-0.3646999999999999,-360.89285259557084
-0.3637,-358.4878433858003
-0.3626999999999999,-356.2243053060162
-0.3617,-353.8192960962457
-0.36070000000000013,-351.5557580164616
-0.3597,-349.15074880669107
-0.35870000000000013,-346.88721072690697
-0.3577,-344.48220151713645
-0.35670000000000013,-342.07719230736586
-0.3557,-339.6721830975953
-0.3547000000000001,-337.12570275783827
-0.3537,-334.7206935480677
-0.3527000000000001,-332.3156843382971
-0.3517,-329.76920399854004
-0.3507000000000001,-327.505665918756
-0.3497,-325.1006567089854
-0.3487000000000001,-322.83711862920137
-0.3477,-320.4321094194308
-0.3467000000000001,-318.16857133964675
-0.3457,-315.76356212987616
-0.3447000000000001,-313.35855292010564
-0.3437,-310.95354371033505
-0.3427000000000001,-308.54853450056453
-0.3417,-306.1435252907939
-0.3407000000000001,-303.73851608102336
-0.3397,-301.33350687125284
-0.3387000000000001,-298.9284976614822
-0.3377,-296.6649595816982
-0.3367000000000001,-294.54289263190066
-0.3357,-292.2793545521166
-0.3347000000000001,-290.157287602319
-0.3337,-287.893749522535
-0.3327000000000001,-285.7716825727374
-0.3317,-283.5081444929533
-0.3307000000000001,-281.3860775431558
-0.3297,-278.9810683333853
-0.3287000000000001,-276.7175302536012
-0.3277,-274.31252104383066
-0.3267000000000001,-272.04898296404656
-0.3257,-269.78544488426246
-0.3247000000000001,-267.5219068044785
-0.3237,-265.2583687246944
-0.3227000000000001,-262.9948306449103
-0.3217,-261.01423482509927
-0.3207000000000001,-258.8921678753017
-0.3197,-256.62862979551767
-0.3187000000000001,-254.50656284572008
-0.3177,-252.38449589592256
-0.3167000000000001,-250.1209578161385
-0.3157,-247.85741973635444
-0.3147000000000001,-245.59388165657037
-0.3137,-243.18887244679982
-0.3127000000000001,-240.92533436701575
-0.3117,-238.8032674172182
-0.3107000000000001,-236.6812004674206
-0.3097,-234.55913351762308
-0.3087000000000001,-232.57853769781204
-0.3077,-230.45647074801445
-0.3067000000000001,-228.47587492820347
-0.30569999999999997,-226.35380797840588
-0.3047000000000001,-224.2317410286083
-0.30369999999999997,-222.10967407881074
-0.3027000000000001,-219.98760712901318
-0.30169999999999997,-217.72406904922914
-0.3007000000000001,-215.6020020994316
-0.29969999999999997,-213.47993514963403
-0.2987000000000001,-211.35786819983647
-0.29769999999999996,-209.23580125003892
-0.2967000000000001,-207.25520543022787
-0.29569999999999996,-205.27460961041683
-0.2947000000000001,-203.29401379060576
-0.29369999999999996,-201.31341797079472
-0.29270000000000007,-199.33282215098367
-0.29169999999999996,-197.35222633117263
-0.29070000000000007,-195.37163051136156
-0.28969999999999996,-193.249563561564
-0.28870000000000007,-191.12749661176645
-0.28769999999999996,-189.1469007919554
-0.28670000000000007,-186.88336271217133
-0.28569999999999995,-184.9027668923603
-0.28470000000000006,-182.92217107254925
-0.28369999999999995,-180.94157525273818
-0.28270000000000006,-179.10245056291362
-0.28169999999999995,-177.1218547431026
-0.28070000000000006,-175.28273005327804
-0.27969999999999995,-173.302134233467
-0.27870000000000006,-171.46300954364247
-0.27769999999999995,-169.48241372383137
-0.27670000000000006,-167.50181790402033
-0.27569999999999995,-165.5212220842093
-0.27470000000000006,-163.54062626439824
-0.27369999999999994,-161.41855931460069
-0.27270000000000005,-159.43796349478964
-0.27169999999999994,-157.45736767497857
-0.27070000000000005,-155.61824298515404
-0.26969999999999994,-153.77911829532948
-0.26870000000000005,-151.93999360550492
-0.26769999999999994,-150.1008689156804
