Potential V vs RHE, Current mA cm-2
0.013299999999999867,-0.6128529351015338
0.012299999999999978,-2.3144676865791998
0.011299999999999866,-3.447651437771094
0.010299999999999976,-4.276672259492005
0.009299999999999864,-4.887827541033701
0.008299999999999974,-5.411270721983764
0.007299999999999862,-5.80314575204638
0.006299999999999972,-6.108723392817228
0.00529999999999986,-6.326588932996443
0.0042999999999999705,-6.54445447317566
0.0032999999999998586,-6.719878674358924
0.0022999999999999687,-6.893888164242324
0.0012999999999998568,-7.024041603829907
0.00029999999999996696,-7.111753704421539
-0.000700000000000145,-7.199465805013171
-0.0017000000000000348,-7.243321855308987
-0.0027000000000001467,-7.329619244600755
-0.0037000000000000366,-7.37347529489657
-0.0047000000000001485,-7.461187395488204
-0.005700000000000038,-7.5474847847799715
-0.00670000000000015,-7.591340835075788
-0.00770000000000004,-7.635196885371603
-0.008700000000000152,-7.722908985963235
-0.009700000000000042,-7.722908985963235
-0.010700000000000154,-7.7653503249591855
-0.011700000000000044,-7.809206375255003
-0.012700000000000156,-7.853062425550818
-0.013700000000000045,-7.853062425550818
-0.014700000000000157,-7.896918475846635
-0.015700000000000047,-7.896918475846635
-0.01670000000000016,-7.896918475846635
-0.01770000000000005,-7.940774526142452
-0.01870000000000016,-7.984630576438266
-0.01970000000000005,-7.984630576438266
-0.020700000000000163,-8.027071915434218
-0.021700000000000053,-8.070927965730034
-0.022700000000000164,-8.11478401602585
-0.023700000000000054,-8.11478401602585
-0.024700000000000166,-8.11478401602585
-0.025700000000000056,-8.158640066321666
-0.026700000000000168,-8.11478401602585
-0.027700000000000058,-8.11478401602585
-0.02870000000000017,-8.158640066321666
-0.02970000000000006,-8.202496116617484
-0.03070000000000017,-8.202496116617484
-0.03170000000000006,-8.202496116617484
-0.03270000000000017,-8.246352166913299
-0.03370000000000006,-8.288793505909249
-0.034700000000000175,-8.288793505909249
-0.035700000000000065,-8.332649556205066
-0.03670000000000018,-8.332649556205066
-0.03770000000000007,-8.332649556205066
-0.03870000000000018,-8.332649556205066
-0.03970000000000007,-8.288793505909249
-0.04070000000000018,-8.332649556205066
-0.04170000000000007,-8.332649556205066
-0.04270000000000018,-8.332649556205066
-0.04370000000000007,-8.376505606500881
-0.044700000000000184,-8.332649556205066
-0.045700000000000074,-8.376505606500881
-0.046700000000000186,-8.4203616567967
-0.047700000000000076,-8.4203616567967
-0.04870000000000019,-8.4203616567967
-0.04970000000000008,-8.4203616567967
-0.05070000000000019,-8.4203616567967
-0.05170000000000008,-8.4203616567967
-0.05270000000000019,-8.4203616567967
-0.05370000000000008,-8.4203616567967
-0.05470000000000019,-8.464217707092514
-0.05570000000000008,-8.4203616567967
-0.056700000000000195,-8.4203616567967
-0.057700000000000085,-8.464217707092514
-0.058700000000000196,-8.464217707092514
-0.059700000000000086,-8.508073757388331
-0.0607000000000002,-8.464217707092514
-0.06170000000000009,-8.508073757388331
-0.0627000000000002,-8.508073757388331
-0.06370000000000009,-8.464217707092514
-0.0647000000000002,-8.508073757388331
-0.06570000000000009,-8.508073757388331
-0.0667000000000002,-8.464217707092514
-0.0677000000000001,-8.464217707092514
-0.0687000000000002,-8.464217707092514
-0.0697000000000001,-8.464217707092514
-0.07070000000000021,-8.464217707092514
-0.0717000000000001,-8.464217707092514
-0.07270000000000021,-8.464217707092514
-0.0737000000000001,-8.464217707092514
-0.07470000000000021,-8.508073757388331
-0.0757000000000001,-8.508073757388331
-0.07670000000000021,-8.464217707092514
-0.0777000000000001,-8.464217707092514
-0.07870000000000021,-8.464217707092514
-0.0797000000000001,-8.464217707092514
-0.08070000000000022,-8.4203616567967
-0.0817000000000001,-8.4203616567967
-0.08270000000000022,-8.4203616567967
-0.08370000000000011,-8.4203616567967
-0.08470000000000022,-8.4203616567967
-0.08570000000000011,-8.4203616567967
-0.08670000000000022,-8.4203616567967
-0.08770000000000011,-8.4203616567967
-0.08870000000000022,-8.4203616567967
-0.08970000000000011,-8.4203616567967
-0.09070000000000022,-8.376505606500881
-0.09170000000000011,-8.376505606500881
-0.09270000000000023,-8.332649556205066
-0.09370000000000012,-8.332649556205066
-0.09470000000000023,-8.332649556205066
-0.09570000000000012,-8.332649556205066
-0.09670000000000023,-8.332649556205066
-0.09770000000000012,-8.332649556205066
-0.09870000000000023,-8.288793505909249
-0.09970000000000012,-8.332649556205066
-0.10070000000000023,-8.332649556205066
-0.10170000000000012,-8.288793505909249
-0.10270000000000024,-8.288793505909249
-0.10370000000000013,-8.288793505909249
-0.10470000000000024,-8.288793505909249
-0.10570000000000013,-8.246352166913299
-0.10670000000000024,-8.246352166913299
-0.10770000000000013,-8.202496116617484
-0.10870000000000024,-8.202496116617484
-0.10970000000000013,-8.202496116617484
-0.11070000000000024,-8.202496116617484
-0.11170000000000013,-8.158640066321666
-0.11270000000000002,-8.202496116617484
-0.11370000000000013,-8.202496116617484
-0.11470000000000002,-8.202496116617484
-0.11570000000000014,-8.158640066321666
-0.11670000000000003,-8.158640066321666
-0.11770000000000014,-8.158640066321666
-0.11870000000000003,-8.158640066321666
-0.11970000000000014,-8.11478401602585
-0.12070000000000003,-8.11478401602585
-0.12170000000000014,-8.070927965730034
-0.12270000000000003,-8.070927965730034
-0.12370000000000014,-8.070927965730034
-0.12470000000000003,-8.070927965730034
-0.12570000000000014,-8.070927965730034
-0.12670000000000003,-8.070927965730034
-0.12770000000000015,-8.070927965730034
-0.12870000000000004,-8.070927965730034
-0.12970000000000015,-8.070927965730034
-0.13070000000000004,-8.027071915434218
-0.13170000000000015,-8.027071915434218
-0.13270000000000004,-8.027071915434218
-0.13370000000000015,-7.984630576438266
-0.13470000000000004,-7.984630576438266
-0.13570000000000015,-7.940774526142452
-0.13670000000000004,-7.940774526142452
-0.13770000000000016,-7.940774526142452
-0.13870000000000005,-7.940774526142452
-0.13970000000000016,-7.940774526142452
-0.14070000000000005,-7.940774526142452
-0.14170000000000016,-7.940774526142452
-0.14270000000000005,-7.940774526142452
-0.14370000000000016,-7.896918475846635
-0.14470000000000005,-7.896918475846635
-0.14570000000000016,-7.896918475846635
-0.14670000000000005,-7.896918475846635
-0.14770000000000016,-7.896918475846635
-0.14870000000000005,-7.853062425550818
-0.14970000000000017,-7.853062425550818
-0.15070000000000006,-7.853062425550818
-0.15170000000000017,-7.853062425550818
-0.15270000000000006,-7.853062425550818
-0.15370000000000017,-7.896918475846635
-0.15470000000000006,-7.853062425550818
-0.15570000000000017,-7.896918475846635
-0.15670000000000006,-7.896918475846635
-0.15770000000000017,-7.853062425550818
-0.15870000000000006,-7.853062425550818
-0.15970000000000018,-7.853062425550818
-0.16070000000000007,-7.809206375255003
-0.16170000000000018,-7.809206375255003
-0.16270000000000007,-7.809206375255003
-0.16370000000000018,-7.809206375255003
-0.16470000000000007,-7.809206375255003
-0.16570000000000018,-7.809206375255003
-0.16670000000000007,-7.809206375255003
-0.16770000000000018,-7.809206375255003
-0.16870000000000007,-7.809206375255003
-0.16970000000000018,-7.809206375255003
-0.17070000000000007,-7.809206375255003
-0.17170000000000019,-7.7653503249591855
-0.17270000000000008,-7.7653503249591855
-0.1737000000000002,-7.7653503249591855
-0.17470000000000008,-7.722908985963235
-0.1757000000000002,-7.722908985963235
-0.17670000000000008,-7.7653503249591855
-0.1777000000000002,-7.7653503249591855
-0.17870000000000008,-7.7653503249591855
-0.1797000000000002,-7.7653503249591855
-0.18070000000000008,-7.7653503249591855
-0.1817000000000002,-7.7653503249591855
-0.18270000000000008,-7.7653503249591855
-0.1837000000000002,-7.722908985963235
-0.1847000000000001,-7.722908985963235
-0.1857000000000002,-7.722908985963235
-0.1867000000000001,-7.722908985963235
-0.1877000000000002,-7.722908985963235
-0.1887000000000001,-7.722908985963235
-0.1897000000000002,-7.722908985963235
-0.1907000000000001,-7.722908985963235
-0.1917000000000001,-7.7653503249591855
-0.19269999999999998,-7.7653503249591855
-0.1937000000000001,-7.7653503249591855
-0.19469999999999998,-7.809206375255003
-0.1957000000000001,-7.809206375255003
-0.19669999999999999,-7.809206375255003
-0.1977000000000001,-7.809206375255003
-0.1987,-7.809206375255003
-0.1997000000000001,-7.7653503249591855
-0.2007,-7.7653503249591855
-0.2017000000000001,-7.7653503249591855
-0.2027,-7.7653503249591855
-0.2037000000000001,-7.809206375255003
-0.2047,-7.7653503249591855
-0.2057000000000001,-7.809206375255003
-0.2067,-7.809206375255003
-0.2077000000000001,-7.809206375255003
-0.2087,-7.809206375255003
-0.2097000000000001,-7.809206375255003
-0.2107,-7.809206375255003
-0.2117000000000001,-7.809206375255003
-0.2127,-7.809206375255003
-0.2137000000000001,-7.809206375255003
-0.2147,-7.809206375255003
-0.2157000000000001,-7.853062425550818
-0.2167,-7.853062425550818
-0.21770000000000012,-7.853062425550818
-0.2187,-7.853062425550818
-0.21970000000000012,-7.853062425550818
-0.2207,-7.853062425550818
-0.22170000000000012,-7.896918475846635
-0.2227,-7.896918475846635
-0.22370000000000012,-7.940774526142452
-0.2247,-7.896918475846635
-0.22570000000000012,-7.940774526142452
-0.2267,-7.896918475846635
-0.22770000000000012,-7.940774526142452
-0.22870000000000001,-7.940774526142452
-0.22970000000000013,-7.940774526142452
-0.23070000000000002,-7.984630576438266
-0.23170000000000013,-7.984630576438266
-0.23270000000000002,-8.027071915434218
-0.23370000000000013,-7.984630576438266
-0.23470000000000002,-8.027071915434218
-0.23570000000000013,-8.070927965730034
-0.23670000000000002,-8.070927965730034
-0.2376999999999999,-8.070927965730034
-0.23870000000000002,-8.070927965730034
-0.2396999999999999,-8.070927965730034
-0.24070000000000003,-8.070927965730034
-0.24169999999999991,-8.11478401602585
-0.24270000000000003,-8.11478401602585
-0.24369999999999992,-8.11478401602585
-0.24470000000000003,-8.158640066321666
-0.24569999999999992,-8.158640066321666
-0.24670000000000003,-8.202496116617484
-0.24769999999999992,-8.246352166913299
-0.24870000000000003,-8.246352166913299
-0.24969999999999992,-8.246352166913299
-0.25070000000000003,-8.246352166913299
-0.2516999999999999,-8.246352166913299
-0.25270000000000004,-8.288793505909249
-0.2536999999999999,-8.288793505909249
-0.25470000000000004,-8.288793505909249
-0.2556999999999999,-8.288793505909249
-0.25670000000000004,-8.288793505909249
-0.25769999999999993,-8.332649556205066
-0.25870000000000004,-8.376505606500881
-0.25969999999999993,-8.376505606500881
-0.26070000000000004,-8.4203616567967
-0.26169999999999993,-8.4203616567967
-0.26270000000000004,-8.464217707092514
-0.26369999999999993,-8.464217707092514
-0.26470000000000005,-8.508073757388331
-0.26569999999999994,-8.508073757388331
-0.26670000000000005,-8.55051509638428
-0.26769999999999994,-8.55051509638428
-0.26870000000000005,-8.55051509638428
-0.26969999999999994,-8.594371146680096
-0.27070000000000005,-8.594371146680096
-0.27169999999999994,-8.594371146680096
-0.27270000000000005,-8.68208324727173
-0.27369999999999994,-8.68208324727173
-0.27470000000000006,-8.68208324727173
-0.27569999999999995,-8.725939297567548
-0.27670000000000006,-8.725939297567548
-0.27769999999999995,-8.769795347863363
-0.27870000000000006,-8.769795347863363
-0.27969999999999995,-8.812236686859313
-0.28070000000000006,-8.812236686859313
-0.28169999999999995,-8.85609273715513
-0.28270000000000006,-8.85609273715513
-0.28369999999999995,-8.899948787450944
-0.28470000000000006,-8.943804837746763
-0.28569999999999995,-8.987660888042578
-0.28670000000000007,-9.031516938338395
-0.28769999999999996,-9.073958277334345
-0.28870000000000007,-9.073958277334345
-0.28969999999999996,-9.11781432763016
-0.29070000000000007,-9.11781432763016
-0.29169999999999996,-9.161670377925978
-0.29270000000000007,-9.205526428221793
-0.29369999999999996,-9.24938247851761
-0.2947000000000001,-9.24938247851761
-0.29569999999999996,-9.24938247851761
-0.2967000000000001,-9.293238528813426
-0.29769999999999996,-9.335679867809377
-0.2987000000000001,-9.379535918105192
-0.29969999999999997,-9.467248018696827
-0.3007000000000001,-9.467248018696827
-0.30169999999999997,-9.511104068992642
-0.3027000000000001,-9.55496011928846
-0.30369999999999997,-9.59740145828441
-0.3047000000000001,-9.641257508580225
-0.30569999999999997,-9.641257508580225
-0.3067000000000001,-9.685113558876042
-0.3077,-9.728969609171857
-0.3087000000000001,-9.728969609171857
-0.3097,-9.772825659467674
-0.3107000000000001,-9.85912304875944
-0.3117,-9.85912304875944
-0.3127000000000001,-9.946835149351072
-0.3137,-9.99069119964689
-0.3147000000000001,-10.034547249942705
-0.3157,-10.078403300238522
-0.3167000000000001,-10.120844639234473
-0.3177,-10.164700689530287
-0.3187000000000001,-10.208556739826104
-0.3197,-10.25241279012192
-0.3207000000000001,-10.296268840417738
-0.3217,-10.340124890713554
-0.3227000000000001,-10.382566229709504
-0.3237,-10.42642228000532
-0.3247000000000001,-10.470278330301136
-0.3257,-10.557990430892769
-0.3267000000000001,-10.601846481188586
-0.3277,-10.644287820184536
-0.3287000000000001,-10.731999920776168
-0.3297,-10.775855971071984
-0.3307000000000001,-10.819712021367803
-0.3317,-10.863568071663616
-0.3327000000000001,-10.949865460955383
-0.3337,-10.949865460955383
-0.3347000000000001,-11.037577561547016
-0.3357,-11.081433611842833
-0.3367000000000001,-11.1677310011346
-0.3377,-11.211587051430415
-0.3387000000000001,-11.299299152022046
-0.3397,-11.385596541313816
-0.3407000000000001,-11.473308641905447
-0.3417,-11.56102074249708
-0.3427000000000001,-11.604876792792895
-0.3437,-11.691174182084664
-0.3447000000000001,-11.73503023238048
-0.3457,-11.82274233297211
-0.3467000000000001,-11.86659838326793
-0.3477,-11.952895772559694
-0.3487000000000001,-11.996751822855511
-0.3497,-12.084463923447142
-0.3507000000000001,-12.170761312738911
-0.3517,-12.258473413330542
-0.3527000000000001,-12.346185513922174
-0.3537,-12.476338953509758
-0.3547000000000001,-12.56405105410139
-0.3557,-12.651763154693022
-0.35670000000000013,-12.694204493688973
-0.3577,-12.781916594280606
-0.35870000000000013,-12.913484745168056
-0.3597,-12.955926084164007
-0.36070000000000013,-13.043638184755638
-0.3617,-13.13135028534727
-0.3626999999999999,-13.217647674639037
-0.3637,-13.349215825526485
-0.3646999999999999,-13.3930718758223
-0.3657,-13.523225315409885
-0.3666999999999999,-13.654793466297335
-0.3677,-13.784946905884919
-0.3686999999999999,-13.872659006476551
-0.36970000000000003,-13.960371107068182
-0.3706999999999999,-14.090524546655764
-0.37170000000000003,-14.175407224647667
-0.3726999999999999,-14.26028990263957
-0.37370000000000003,-14.401761032626075
-0.3746999999999999,-14.486643710617974
-0.37570000000000003,-14.61396772760583
-0.3766999999999999,-14.69885040559773
-0.37770000000000004,-14.826174422585586
-0.3786999999999999,-14.967645552572087
-0.37970000000000004,-15.094969569559943
-0.3806999999999999,-15.222293586547794
-0.38170000000000004,-15.349617603535648
-0.38269999999999993,-15.491088733522153
-0.38370000000000004,-15.575971411514052
-0.38469999999999993,-15.74573676749786
-0.38570000000000004,-15.830619445489761
-0.38669999999999993,-15.972090575476265
-0.38770000000000004,-16.099414592464115
-0.38869999999999993,-16.22673860945197
-0.38970000000000005,-16.354062626439823
-0.39069999999999994,-16.495533756426326
-0.39170000000000005,-16.622857773414182
-0.39269999999999994,-16.792623129397985
-0.39370000000000005,-16.919947146385837
-0.39469999999999994,-17.103859615368293
-0.39570000000000005,-17.231183632356142
-0.39669999999999994,-17.358507649344002
-0.39770000000000005,-17.542420118326454
-0.39869999999999994,-17.669744135314307
-0.39970000000000006,-17.797068152302163
-0.40069999999999995,-17.924392169290012
-0.40170000000000006,-18.10830463827247
-0.40269999999999995,-18.27806999425627
-0.40370000000000006,-18.40539401124413
-0.40469999999999995,-18.589306480226583
-0.40570000000000006,-18.759071836210385
-0.40669999999999995,-18.92883719219419
-0.40770000000000006,-19.112749661176647
-0.40869999999999995,-19.28251501716045
-0.40970000000000006,-19.452280373144255
-0.41069999999999995,-19.579604390132108
-0.41170000000000007,-19.805958198110513
-0.41269999999999996,-19.93328221509837
-0.41370000000000007,-20.10304757108217
-0.41469999999999996,-20.286960040064624
-0.41570000000000007,-20.456725396048434
-0.41669999999999996,-20.683079204026836
-0.41770000000000007,-20.85284456001064
-0.41869999999999996,-21.022609915994444
-0.4197000000000001,-21.248963723972853
-0.42069999999999996,-21.418729079956652
-0.4217000000000001,-21.63093577493641
-0.42269999999999996,-21.857289582914817
-0.4237000000000001,-22.069496277894572
-0.42469999999999997,-22.196820294882425
-0.4257000000000001,-22.42317410286083
-0.42669999999999997,-22.63538079784059
-0.4277000000000001,-22.861734605818995
-0.42869999999999997,-23.031499961802798
-0.4297000000000001,-23.24370665678255
-0.43069999999999997,-23.47006046476096
-0.4317000000000001,-23.682267159740714
-0.4327,-23.908620967719123
-0.4337000000000001,-24.16326900169483
-0.4347,-24.389622809673234
-0.4357000000000001,-24.64427084364894
-0.4367,-24.814036199632742
-0.4377000000000001,-25.04039000761115
-0.4387,-25.210155363594954
-0.4397000000000001,-25.43650917157336
-0.4407,-25.648715866553115
-0.4417000000000001,-25.86092256153287
-0.4427,-26.129717708507226
-0.4437000000000001,-26.34192440348698
-0.4447,-26.61071955046134
-0.4457000000000001,-26.86536758443705
-0.4467,-27.091721392415455
-0.4477000000000001,-27.34636942639116
-0.4487,-27.615164573365515
-0.4497000000000001,-27.869812607341224
-0.4507,-28.09616641531963
-0.4517000000000001,-28.350814449295335
-0.4527,-28.619609596269694
-0.4537000000000001,-28.831816291249446
-0.4547,-29.100611438223805
-0.4557000000000001,-29.35525947219951
-0.4567,-29.581613280177915
-0.4577000000000001,-29.836261314153624
-0.4587,-30.10505646112798
-0.4597000000000001,-30.359704495103685
-0.4607,-30.670940981073993
-0.4617000000000001,-30.925589015049702
-0.4627,-31.19438416202406
-0.4637000000000001,-31.449032195999767
-0.4647,-31.717827342974125
-0.4657000000000001,-32.01491671594578
-0.4667,-32.283711862920136
-0.4677000000000001,-32.58080123589179
-0.4687,-32.84959638286615
-0.4697000000000001,-33.14668575583781
-0.4707,-33.41548090281216
-0.4717000000000001,-33.755011614779775
-0.4727,-34.10868943974604
-0.4737000000000001,-34.41992592571634
-0.4747,-34.717015298688004
-0.4757000000000001,-35.02825178465831
-0.4767,-35.32534115762997
-0.4777000000000001,-35.636577643600276
-0.4787,-35.90537279057463
-0.4797000000000001,-36.20246216354629
-0.4807,-36.5136986495166
-0.48170000000000013,-36.81078802248826
-0.4827,-37.122024508458566
-0.48370000000000013,-37.41911388143023
-0.4847,-37.77279170639648
-0.48570000000000013,-38.08402819236679
-0.4867,-38.38111756533845
-0.4876999999999999,-38.734795390304704
-0.4887,-39.046031876275016
-0.4896999999999999,-39.34312124924667
-0.4907,-39.654357735216976
-0.4916999999999999,-39.95144710818864
-0.4927,-40.26268359415894
-0.4936999999999999,-40.559772967130606
-0.49470000000000003,-40.91345079209687
-0.4956999999999999,-41.22468727806717
-0.49670000000000003,-41.606659329030734
-0.4976999999999999,-41.96033715399699
-0.49870000000000003,-42.31401497896325
-0.4996999999999999,-42.71013414292546
-0.5007,-43.04966485489307
-0.5016999999999999,-43.44578401885527
-0.5027,-43.79946184382153
-0.5036999999999999,-44.138992555789144
-0.5047,-44.4926703807554
-0.5056999999999999,-44.88878954471762
-0.5067,-45.22832025668522
-0.5076999999999999,-45.624439420647434
-0.5087,-45.97811724561369
-0.5096999999999999,-46.3176479575813
-0.5107,-46.713767121543505
-0.5116999999999999,-47.067444946509774
