Potential V vs RHE, Current mA cm-2
0.013299999999999867,11.556776608597485
0.012299999999999978,9.549301274088998
0.011299999999999866,7.892674341947039
0.010299999999999976,6.452498238684432
0.009299999999999864,5.275458437196722
0.008299999999999974,4.184716025000778
0.007299999999999862,3.0515322738088844
0.006299999999999972,1.8292217107254924
0.00529999999999986,0.6084673300719523
0.0042999999999999705,-0.5255652478998613
0.0032999999999998586,-1.4854468648582886
0.0022999999999999687,-2.3144676865791998
0.0012999999999998568,-3.1420737970002466
0.00029999999999996696,-4.014950669016974
-0.000700000000000145,-5.017980980621284
-0.0017000000000000348,-6.021011292225596
-0.0027000000000001467,-6.893888164242324
-0.0037000000000000366,-7.591340835075788
-0.0047000000000001485,-8.246352166913299
-0.005700000000000038,-8.943804837746763
-0.00670000000000015,-9.772825659467674
-0.00770000000000004,-10.644287820184536
-0.008700000000000152,-11.517164692201263
-0.009700000000000042,-12.258473413330542
-0.010700000000000154,-12.869628694872238
-0.011700000000000044,-13.47936926511407
-0.012700000000000156,-14.13438059695158
-0.013700000000000045,-14.868615761581536
-0.014700000000000157,-15.74573676749786
-0.015700000000000047,-16.438945304431726
-0.01670000000000016,-17.061418276372343
-0.01770000000000005,-17.584861457322408
-0.01870000000000016,-18.10830463827247
-0.01970000000000005,-18.759071836210385
-0.020700000000000163,-19.537163051136158
-0.021700000000000053,-20.329401379060574
-0.022700000000000164,-21.022609915994444
-0.023700000000000054,-21.54605309694451
-0.024700000000000166,-22.027054938898623
-0.025700000000000056,-22.592939458844636
-0.026700000000000168,-23.24370665678255
-0.027700000000000058,-24.035944984706973
-0.02870000000000017,-24.729153521640843
-0.02970000000000006,-25.337479380582806
-0.03070000000000017,-25.81848122253692
-0.03170000000000006,-26.257041725495082
-0.03270000000000017,-26.86536758443705
-0.03370000000000006,-27.530281895373616
-0.034700000000000175,-28.265931771303435
-0.035700000000000065,-28.91669896924135
-0.03670000000000018,-29.440142150191413
-0.03770000000000007,-29.878702653149578
-0.03870000000000018,-30.359704495103685
-0.03970000000000007,-30.925589015049702
-0.04070000000000018,-31.618797551983565
-0.04170000000000007,-32.368594540912035
-0.04270000000000018,-33.01936173884996
-0.04370000000000007,-33.54280491980002
-0.044700000000000184,-34.02380676175414
-0.045700000000000074,-34.5472499427042
-0.046700000000000186,-35.198017140642115
-0.047700000000000076,-35.90537279057463
-0.04870000000000019,-36.5985813275085
-0.04970000000000008,-37.164465847454515
-0.05070000000000019,-37.645467689408626
-0.05170000000000008,-38.08402819236679
-0.05270000000000019,-38.6499127123128
-0.05370000000000008,-39.34312124924667
-0.05470000000000019,-40.092918238175145
-0.05570000000000008,-40.78612677510901
-0.056700000000000195,-41.352011295055014
-0.057700000000000085,-41.74813045901723
-0.058700000000000196,-42.186690961975394
-0.059700000000000086,-42.752575481921404
-0.0607000000000002,-43.44578401885527
-0.06170000000000009,-44.223875233781044
-0.0627000000000002,-44.93123088371356
-0.06370000000000009,-45.45467406466363
-0.0647000000000002,-45.89323456762179
-0.06570000000000009,-46.41667774857186
-0.0667000000000002,-47.02500360751382
-0.0677000000000001,-47.76065348344364
-0.0687000000000002,-48.41142068138156
-0.0697000000000001,-49.03389365332217
-0.07070000000000021,-49.50074838227763
-0.0717000000000001,-49.98175022423175
-0.07270000000000021,-50.60422319617236
-0.0737000000000001,-51.33987307210218
-0.07470000000000021,-52.11796428702795
-0.0757000000000001,-52.82531993696047
-0.07670000000000021,-53.348763117910536
-0.0777000000000001,-53.7873236208687
-0.07870000000000021,-54.2117370108282
-0.0797000000000001,-54.791768643772876
-0.08070000000000022,-55.527418519702685
-0.0817000000000001,-56.26306839563251
-0.08270000000000022,-56.927982706569075
-0.08370000000000011,-57.45142588751914
-0.08470000000000022,-57.8333979384827
-0.08570000000000011,-58.27195844144086
-0.08670000000000022,-58.880284300382826
-0.08770000000000011,-59.587639950315335
-0.08870000000000022,-60.40817250423707
-0.08970000000000011,-61.11552815416958
-0.09070000000000022,-61.63897133511965
-0.09170000000000011,-62.06338472507916
-0.09270000000000023,-62.64341635802381
-0.09370000000000012,-63.37906623395363
-0.09470000000000023,-64.0722747708875
-0.09570000000000012,-64.77963042082003
-0.09670000000000023,-65.2464851497755
-0.09770000000000012,-65.7274869917296
-0.09870000000000023,-66.20848883368372
-0.09970000000000012,-66.91584448361623
-0.10070000000000023,-67.693935698542
-0.10170000000000012,-68.57105670445833
-0.10270000000000024,-69.39158925838004
-0.10370000000000013,-70.01406223032066
-0.10470000000000024,-70.48091695927613
-0.10570000000000013,-70.91947746223428
-0.10670000000000024,-71.48536198218031
-0.10770000000000013,-72.19271763211282
-0.10870000000000024,-72.8859261690467
-0.10970000000000013,-73.53669336698461
-0.11070000000000024,-74.20160767792116
-0.11170000000000013,-74.76749219786718
-0.11270000000000002,-75.37581805680915
-0.11370000000000013,-76.11146793273898
-0.11470000000000002,-76.9037062606634
-0.11570000000000014,-77.59691479759726
-0.11670000000000003,-78.16279931754329
-0.11770000000000014,-78.55891848150549
-0.11870000000000003,-79.0399203234596
-0.11970000000000014,-79.52092216541372
-0.12070000000000003,-80.25657204134353
-0.12170000000000014,-80.99222191727335
-0.12270000000000003,-81.69957756720586
-0.12370000000000014,-82.26546208715187
-0.12470000000000003,-82.78890526810196
-0.12570000000000014,-83.39723112704392
-0.12670000000000003,-84.04799832498183
-0.12770000000000015,-84.7977953139103
-0.12870000000000004,-85.44856251184822
-0.12970000000000015,-86.01444703179425
-0.13070000000000004,-86.49544887374834
-0.13170000000000015,-86.93400937670651
-0.13270000000000004,-87.41501121866061
-0.13370000000000015,-88.10821975559449
-0.13470000000000004,-88.80142829252836
-0.13570000000000015,-89.59366662045278
-0.13670000000000004,-90.15955114039879
-0.13770000000000016,-90.6405529823529
-0.13870000000000005,-91.07911348531105
-0.13970000000000016,-91.72988068324898
-0.14070000000000005,-92.42308922018285
-0.14170000000000016,-93.17288620911131
-0.14270000000000005,-93.82365340704924
-0.14370000000000016,-94.21977257101145
-0.14470000000000005,-94.6583330739696
-0.14570000000000016,-95.22421759391563
-0.14670000000000005,-95.91742613084948
-0.14770000000000016,-96.73795868477121
-0.14870000000000005,-97.4877556736997
-0.14970000000000017,-98.09608153264163
-0.15070000000000006,-98.5346420355998
-0.15170000000000017,-98.88831986056607
-0.15270000000000006,-99.41176304151614
-0.15370000000000017,-100.06253023945405
-0.15470000000000006,-100.88306279337576
-0.15570000000000017,-101.6753011213002
-0.15670000000000006,-102.28362698024215
-0.15770000000000017,-102.80707016119221
-0.15870000000000006,-103.28807200314633
-0.15970000000000018,-103.85395652309235
-0.16070000000000007,-104.5471650600262
-0.16170000000000018,-105.21207937096277
-0.16270000000000007,-105.86284656890071
-0.16370000000000018,-106.34384841085482
-0.16470000000000007,-106.73996757481702
-0.16570000000000018,-107.26341075576708
-0.16670000000000007,-107.914177953705
-0.16770000000000018,-108.64982782963483
-0.16870000000000007,-109.39962481856328
-0.16970000000000018,-110.05039201650122
-0.17070000000000007,-110.4465111804634
-0.17170000000000019,-110.82848323142699
-0.17270000000000008,-111.3094850733811
-0.1737000000000002,-112.01684072331359
-0.17470000000000008,-112.71004926024747
-0.1757000000000002,-113.40325779718134
-0.17670000000000008,-114.0115836561233
-0.1777000000000002,-114.45014415908147
-0.17870000000000008,-114.88870466203963
-0.1797000000000002,-115.53947185997755
-0.18070000000000008,-116.24682750991008
-0.1817000000000002,-116.94003604684394
-0.18270000000000008,-117.50592056678994
-0.1837000000000002,-117.94448106974811
-0.1847000000000001,-118.24157044271978
-0.1857000000000002,-118.59524826768603
-0.1867000000000001,-119.1186914486361
-0.1877000000000002,-119.9109297765605
-0.1887000000000001,-120.64657965249035
-0.1897000000000002,-121.29734685042824
-0.1907000000000001,-121.77834869238235
-0.1917000000000001,-122.1320265173486
-0.19269999999999998,-122.61302835930273
-0.1937000000000001,-123.2213542182447
-0.19469999999999998,-123.82968007718667
-0.1957000000000001,-124.35312325813672
-0.19669999999999999,-124.87656643908679
-0.1977000000000001,-125.44245095903281
-0.1987,-126.00833547897882
-0.1997000000000001,-126.61666133792076
-0.2007,-127.36645832684925
-0.2017000000000001,-128.10210820277908
-0.2027,-128.62555138372915
-0.2037000000000001,-128.9792292086954
-0.2047,-129.27631858166706
-0.2057000000000001,-129.6299964066333
-0.2067,-130.23832226557528
-0.2077000000000001,-131.03056059349967
-0.2087,-131.8510931474214
-0.2097000000000001,-132.516007458358
-0.2107,-132.9404208483175
-0.2117000000000001,-133.3365400122797
-0.2127,-133.81754185423384
-0.2137000000000001,-134.34098503518388
-0.2147,-134.9068695551299
-0.2157000000000001,-135.51519541407185
-0.2167,-135.95375591703004
-0.21770000000000012,-136.30743374199628
-0.2187,-136.7884355839504
-0.21970000000000012,-137.3543201038964
-0.2207,-137.9626459628384
-0.22170000000000012,-138.61341316077628
-0.2227,-139.09441500273041
-0.22370000000000012,-139.49053416669264
-0.2247,-139.84421199165885
-0.22570000000000012,-140.2686253816184
-0.2267,-140.89109835355902
-0.22770000000000012,-141.61260111649017
-0.22870000000000001,-142.31995676642268
-0.22970000000000013,-142.7443701563822
-0.23070000000000002,-143.16878354634173
-0.23170000000000013,-143.4517258063147
-0.23270000000000002,-143.73466806628772
-0.23370000000000013,-144.30055258623375
-0.23470000000000002,-144.86643710617977
-0.23570000000000013,-145.43232162612577
-0.23670000000000002,-145.7152638860988
-0.2376999999999999,-145.9982061460718
-0.23870000000000002,-146.1396772760583
-0.2396999999999999,-146.4226195360313
-0.24070000000000003,-146.9885040559773
-0.24169999999999991,-147.55438857592333
-0.24270000000000003,-148.12027309586935
-0.24369999999999992,-148.40321535584232
-0.24470000000000003,-148.68615761581535
-0.24569999999999992,-149.1105710057749
-0.24670000000000003,-149.53498439573437
-0.24769999999999992,-149.95939778569388
-0.24870000000000003,-150.5252823056399
-0.24969999999999992,-150.94969569559944
-0.25070000000000003,-151.37410908555893
-0.2516999999999999,-151.65705134553193
-0.25270000000000004,-151.93999360550492
-0.2536999999999999,-152.50587812545095
-0.25470000000000004,-152.93029151541046
-0.2556999999999999,-153.63764716534297
-0.25670000000000004,-154.0620605553025
-0.25769999999999993,-154.3450028152755
-0.25870000000000004,-154.6279450752485
-0.25969999999999993,-155.05235846520802
-0.26070000000000004,-155.47677185516753
-0.26169999999999993,-155.75971411514055
-0.26270000000000004,-156.18412750510007
-0.26369999999999993,-156.32559863508658
-0.26470000000000005,-156.60854089505958
-0.26569999999999994,-156.89148315503257
-0.26670000000000005,-157.45736767497857
-0.26769999999999994,-157.88178106493808
-0.26870000000000005,-158.5891367148706
-0.26969999999999994,-159.01355010483013
-0.27070000000000005,-159.43796349478964
-0.27169999999999994,-159.72090575476264
-0.27270000000000005,-160.14531914472215
-0.27369999999999994,-160.71120366466818
-0.27470000000000006,-160.99414592464117
-0.27569999999999995,-161.2770881846142
-0.27670000000000006,-161.5600304445872
-0.27769999999999995,-161.70150157457368
-0.27870000000000006,-161.9844438345467
-0.27969999999999995,-162.40885722450622
-0.28070000000000006,-163.11621287443873
-0.28169999999999995,-163.82356852437124
-0.28270000000000006,-164.38945304431726
-0.28369999999999995,-164.81386643427678
-0.28470000000000006,-164.9553375642633
-0.28569999999999995,-165.09680869424977
-0.28670000000000007,-165.3797509542228
-0.28769999999999996,-165.6626932141958
-0.28870000000000007,-166.0871066041553
-0.28969999999999996,-166.22857773414182
-0.29070000000000007,-166.3700488641283
-0.29169999999999996,-166.65299112410133
-0.29270000000000007,-167.07740451406085
-0.29369999999999996,-167.92623129397984
-0.2947000000000001,-168.63358694391238
-0.29569999999999996,-169.19947146385837
-0.2967000000000001,-169.48241372383137
-0.29769999999999996,-169.6238848538179
-0.2987000000000001,-169.7653559838044
-0.29969999999999997,-170.0482982437774
-0.3007000000000001,-170.0482982437774
-0.30169999999999997,-170.47271163373694
-0.3027000000000001,-170.61418276372342
-0.30369999999999997,-170.75565389370993
-0.3047000000000001,-170.89712502369645
-0.30569999999999997,-171.18006728366944
-0.3067000000000001,-171.60448067362896
-0.3077,-172.0288940635885
-0.3087000000000001,-172.45330745354798
-0.3097,-172.87772084350746
-0.3107000000000001,-173.01919197349397
-0.3117,-173.16066310348046
-0.3127000000000001,-173.44360536345349
-0.3137,-173.72654762342648
-0.3147000000000001,-174.150961013386
-0.3157,-174.57537440334553
-0.3167000000000001,-174.85831666331853
-0.3177,-174.99978779330505
-0.3187000000000001,-175.28273005327804
-0.3197,-175.56567231325104
-0.3207000000000001,-175.99008570321055
-0.3217,-176.55597022315658
-0.3227000000000001,-176.8389124831296
-0.3237,-176.98038361311612
-0.3247000000000001,-177.1218547431026
-0.3257,-177.4047970030756
-0.3267000000000001,-177.9706815230216
-0.3277,-178.3950949129811
-0.3287000000000001,-178.96097943292713
-0.3297,-179.38539282288664
-0.3307000000000001,-179.66833508285964
-0.3317,-179.95127734283267
-0.3327000000000001,-180.23421960280567
-0.3337,-180.5171618627787
-0.3347000000000001,-180.8001041227517
-0.3357,-180.94157525273818
-0.3367000000000001,-181.08304638272472
-0.3377,-181.08304638272472
-0.3387000000000001,-181.2245175127112
-0.3397,-181.5074597726842
-0.3407000000000001,-181.93187316264374
-0.3417,-182.21481542261674
-0.3427000000000001,-182.63922881257625
-0.3437,-182.92217107254925
-0.3447000000000001,-183.20511333252225
-0.3457,-183.34658446250873
-0.3467000000000001,-183.77099785246824
-0.3477,-184.05394011244127
-0.3487000000000001,-184.47835350240078
-0.3497,-184.7612957623738
-0.3507000000000001,-184.7612957623738
-0.3517,-184.6198246323873
-0.3527000000000001,-184.7612957623738
-0.3537,-185.0442380223468
-0.3547000000000001,-185.6101225422928
-0.3557,-186.03453593225234
-0.35670000000000013,-186.31747819222534
-0.3577,-186.45894932221185
-0.35870000000000013,-186.60042045219836
-0.3597,-186.88336271217133
-0.36070000000000013,-187.30777610213087
-0.3617,-187.59071836210387
-0.3626999999999999,-187.87366062207687
-0.3637,-187.87366062207687
-0.3646999999999999,-187.87366062207687
-0.3657,-188.01513175206335
-0.3666999999999999,-188.29807401203638
-0.3677,-188.58101627200938
-0.3686999999999999,-188.8639585319824
-0.36970000000000003,-189.2883719219419
-0.3706999999999999,-189.42984305192843
-0.37170000000000003,-189.71278531190143
-0.3726999999999999,-190.13719870186094
-0.37370000000000003,-190.56161209182042
-0.3746999999999999,-191.12749661176645
-0.37570000000000003,-191.69338113171247
-0.3766999999999999,-191.9763233916855
-0.37770000000000004,-191.9763233916855
-0.3786999999999999,-192.11779452167198
-0.37970000000000004,-192.11779452167198
-0.3806999999999999,-192.54220791163152
-0.38170000000000004,-193.10809243157752
-0.38269999999999993,-193.532505821537
-0.38370000000000004,-193.81544808151003
-0.38469999999999993,-194.09839034148303
-0.38570000000000004,-194.2398614714695
-0.38669999999999993,-192.966621301591
-0.38570000000000004,-189.2883719219419
-0.38469999999999993,-186.03453593225234
-0.38370000000000004,-182.78069994256273
-0.38269999999999993,-179.80980621284618
-0.38170000000000004,-177.6877392630486
-0.3806999999999999,-176.13155683319707
-0.37970000000000004,-174.150961013386
-0.3786999999999999,-171.74595180361547
-0.37770000000000004,-168.77505807389886
-0.3766999999999999,-165.3797509542228
-0.37570000000000003,-161.70150157457368
-0.3746999999999999,-157.88178106493808
-0.37370000000000003,-154.9108873352215
-0.3726999999999999,-152.22293586547795
-0.37170000000000003,-149.95939778569388
-0.3706999999999999,-147.83733083589632
-0.36970000000000003,-146.28114840604482
-0.3686999999999999,-144.58349484620675
-0.3677,-143.3102546763282
-0.3666999999999999,-141.61260111649017
-0.3657,-139.13685634172634
-0.3646999999999999,-136.08107993401788
-0.3637,-133.03945063930803
-0.3626999999999999,-130.37979339556176
-0.3617,-128.32846201075745
-0.36070000000000013,-126.75813246790726
-0.3597,-125.35756828104091
-0.35870000000000013,-123.74479739919475
-0.3577,-121.82079003137831
-0.35670000000000013,-119.4299279346064
-0.3557,-116.98247738583989
-0.3547000000000001,-114.71893930605583
-0.3537,-112.83737327723534
-0.3527000000000001,-111.35192641237703
-0.3517,-110.17771603348905
-0.3507000000000001,-108.96106431560513
-0.3497,-107.39073477275493
-0.3487000000000001,-105.59405142192634
-0.3477,-103.7266325061045
-0.3467000000000001,-101.92994915527588
-0.3457,-100.18985425644189
-0.3447000000000001,-98.57708337459576
-0.3437,-96.83698847576176
-0.3427000000000001,-95.08274646392913
-0.3417,-93.34265156509512
-0.3407000000000001,-91.77232202224494
-0.3397,-90.51322896536506
-0.3387000000000001,-89.23998879548651
-0.3377,-87.93845439961068
-0.3367000000000001,-86.36812485676049
-0.3357,-84.7129126359184
-0.3347000000000001,-83.0011119630817
-0.3337,-81.51566509822342
-0.3327000000000001,-80.12924802435568
-0.3317,-78.85600785447714
-0.3307000000000001,-77.55447345860131
-0.3297,-76.11146793273898
-0.3287000000000001,-74.62602106788069
-0.3277,-73.15472131602105
-0.3267000000000001,-71.83903980714656
-0.3257,-70.62238808926263
-0.3247000000000001,-69.30670658038814
-0.3237,-68.0051721845123
-0.3227000000000001,-66.60460799764593
-0.3217,-65.16160247178358
-0.3207000000000001,-63.902509414903705
-0.3197,-62.72829903601572
-0.3187000000000001,-61.63897133511965
-0.3177,-60.45061384323302
-0.3167000000000001,-59.14907944735718
-0.3157,-57.7485152604908
-0.3147000000000001,-56.404539525619015
-0.3137,-55.17374069473642
-0.3127000000000001,-54.08441299384035
-0.3117,-52.995085292944275
-0.3107000000000001,-51.73599223606439
-0.3097,-50.50519340518181
-0.3087000000000001,-49.24610034830193
-0.3077,-47.93041883942744
-0.3067000000000001,-46.75620846053947
-0.30569999999999997,-45.70932209863933
-0.3047000000000001,-44.619994397743255
-0.30369999999999997,-43.57310803584313
-0.3027000000000001,-42.4413389959511
-0.30169999999999997,-41.352011295055014
-0.3007000000000001,-40.34756627215084
-0.29969999999999997,-39.51288660523048
-0.2987000000000001,-38.734795390304704
-0.29769999999999996,-37.85767438438838
-0.2967000000000001,-36.768346683492304
-0.29569999999999996,-35.50925362661242
-0.2947000000000001,-34.236013456733886
-0.29369999999999996,-33.10424441684186
-0.29270000000000007,-32.09979939393769
-0.29169999999999996,-31.137795710029454
-0.29070000000000007,-30.147497800123933
-0.28969999999999996,-29.001581647233255
-0.28870000000000007,-27.912253946337174
-0.28769999999999996,-26.822926245441096
-0.28670000000000007,-25.959952352523427
-0.28569999999999995,-25.167714024599
-0.28470000000000006,-24.34718147067728
-0.28369999999999995,-23.385177786769056
-0.28270000000000006,-22.38073276386488
-0.28169999999999995,-21.291405062968803
-0.28070000000000006,-20.329401379060574
-0.27969999999999995,-19.49472171214021
-0.27870000000000006,-18.674189158218486
-0.27769999999999995,-17.839509491298113
-0.27670000000000006,-16.919947146385837
-0.27569999999999995,-15.87306078448571
-0.27470000000000006,-14.925204213576137
-0.27369999999999994,-14.090524546655764
-0.27270000000000005,-13.3930718758223
-0.27169999999999994,-12.73806054398479
-0.27070000000000005,-11.952895772559694
-0.26969999999999994,-10.993721511251199
-0.26870000000000005,-9.99069119964689
-0.26769999999999994,-9.073958277334345
