Potential V vs RHE, Current mA cm-2
0.013299999999999867,8.328405422305472
0.012299999999999978,6.278488748801033
0.011299999999999866,4.490293665771627
0.010299999999999976,2.8322520223298033
0.009299999999999864,1.2626298351295453
0.008299999999999974,-0.1330535977523067
0.007299999999999862,-1.6156003044458718
0.006299999999999972,-2.968064307116847
0.00529999999999986,-4.3205283097878215
0.0042999999999999705,-5.672992312458796
0.0032999999999998586,-6.93774421453814
0.0022999999999999687,-8.246352166913299
0.0012999999999998568,-9.511104068992642
0.00029999999999996696,-10.688143870480351
-0.000700000000000145,-11.909039722263879
-0.0017000000000000348,-13.043638184755638
-0.0027000000000001467,-14.13438059695158
-0.0037000000000000366,-15.137410908555893
-0.0047000000000001485,-16.184297270456018
-0.005700000000000038,-17.146300954364243
-0.00670000000000015,-18.06586329927652
-0.00770000000000004,-19.056161209182044
-0.008700000000000152,-19.97572355409432
-0.009700000000000042,-20.980168576998494
-0.010700000000000154,-22.027054938898623
-0.011700000000000044,-23.031499961802798
-0.012700000000000156,-23.993503645711023
-0.013700000000000045,-25.04039000761115
-0.014700000000000157,-25.959952352523427
-0.015700000000000047,-26.907808923433
-0.01670000000000016,-27.827371268345274
-0.01770000000000005,-28.662050935265643
-0.01870000000000016,-29.482583489187363
-0.01970000000000005,-30.274821817111786
-0.020700000000000163,-31.052913032037555
-0.021700000000000053,-31.802710020966025
-0.022700000000000164,-32.66568391388369
-0.023700000000000054,-33.41548090281216
-0.024700000000000166,-34.278454795729836
-0.025700000000000056,-35.15557580164616
-0.026700000000000168,-36.03269680756248
-0.027700000000000058,-36.89567070048016
-0.02870000000000017,-37.81523304539243
-0.02970000000000006,-38.692354051308754
-0.03070000000000017,-39.51288660523048
-0.03170000000000006,-40.3900076111468
-0.03270000000000017,-41.139804600075266
-0.03370000000000006,-41.91789581500104
-0.034700000000000175,-42.653545690930855
-0.035700000000000065,-43.44578401885527
-0.03670000000000018,-44.096551216793195
-0.03770000000000007,-44.88878954471762
-0.03870000000000018,-45.624439420647434
-0.03970000000000007,-46.41667774857186
-0.04070000000000018,-47.19476896349763
-0.04170000000000007,-47.987007291422046
-0.04270000000000018,-48.80753984534376
-0.04370000000000007,-49.68466085126009
-0.044700000000000184,-50.46275206618586
-0.045700000000000074,-51.29743173310623
-0.046700000000000186,-52.075522948032
-0.047700000000000076,-52.82531993696047
-0.04870000000000019,-53.56096981289029
-0.04970000000000008,-54.26832546282281
-0.05070000000000019,-55.003975338752625
-0.05170000000000008,-55.65474253669055
-0.05270000000000019,-56.489422203610914
-0.05370000000000008,-57.22507207954074
-0.05470000000000019,-58.017310407465146
-0.05570000000000008,-58.79540162239092
-0.056700000000000195,-59.587639950315335
-0.057700000000000085,-60.45061384323302
-0.058700000000000196,-61.327734849149344
-0.059700000000000086,-62.11997317707376
-0.0607000000000002,-62.94050573099548
-0.06170000000000009,-63.77518539791585
-0.0627000000000002,-64.55327661284163
-0.06370000000000009,-65.2464851497755
-0.0647000000000002,-65.99628213870396
-0.06570000000000009,-66.68949067563783
-0.0667000000000002,-67.39684632557035
-0.0677000000000001,-68.17493754049613
-0.0687000000000002,-68.91058741642594
-0.0697000000000001,-69.70282574435035
-0.07070000000000021,-70.48091695927613
-0.0717000000000001,-71.31559662619651
-0.07270000000000021,-72.19271763211282
-0.0737000000000001,-73.09813286402644
-0.07470000000000021,-73.93281253094682
-0.0757000000000001,-74.80993353686314
-0.07670000000000021,-75.63046609078486
-0.0777000000000001,-76.42270441870929
-0.07870000000000021,-77.20079563363505
-0.0797000000000001,-77.95059262256353
-0.08070000000000022,-78.72868383748929
-0.0817000000000001,-79.42189237442317
-0.08270000000000022,-80.21413070234757
-0.08370000000000011,-80.99222191727335
-0.08470000000000022,-81.78446024519776
-0.08570000000000011,-82.56255146012353
-0.08670000000000022,-83.39723112704392
-0.08770000000000011,-84.27435213296022
-0.08870000000000022,-85.13732602587791
-0.08970000000000011,-85.97200569279828
-0.09070000000000022,-86.84912669871461
-0.09170000000000011,-87.66965925263632
-0.09270000000000023,-88.5043389195567
-0.09370000000000012,-89.28243013448247
-0.09470000000000023,-90.07466846240689
-0.09570000000000012,-90.89520101632861
-0.09670000000000023,-91.64499800525708
-0.09770000000000012,-92.4655305591788
-0.09870000000000023,-93.25776888710321
-0.09970000000000012,-94.13488989301955
-0.10070000000000023,-94.99786378593721
-0.10170000000000012,-95.83254345285758
-0.10270000000000024,-96.69551734577524
-0.10370000000000013,-97.57263835169158
-0.10470000000000024,-98.40731801861195
-0.10570000000000013,-99.22785057253368
-0.10670000000000024,-100.06253023945405
-0.10770000000000013,-100.84062145437981
-0.10870000000000024,-101.59041844330828
-0.10970000000000013,-102.3260683192381
-0.11070000000000024,-103.11830664716253
-0.11170000000000013,-103.81151518409638
-0.11270000000000002,-104.58960639902216
-0.11370000000000013,-105.38184472694657
-0.11470000000000002,-106.21652439386696
-0.11570000000000014,-107.07949828678463
-0.11670000000000003,-107.95661929270095
-0.11770000000000014,-108.83374029861727
-0.11870000000000003,-109.78159686952685
-0.11970000000000014,-110.65871787544317
-0.12070000000000003,-111.57828022035544
-0.12170000000000014,-112.48369545226906
-0.12270000000000003,-113.27593378019348
-0.12370000000000014,-114.11061344711386
-0.12470000000000003,-114.88870466203963
-0.12570000000000014,-115.68094298996405
-0.12670000000000003,-116.45903420488982
-0.12770000000000015,-117.25127253281424
-0.12870000000000004,-117.98692240874406
-0.12970000000000015,-118.86404341466037
-0.13070000000000004,-119.68457596858211
-0.13170000000000015,-120.51925563550247
-0.13270000000000004,-121.38222952842017
-0.13370000000000015,-122.30179187333242
-0.13470000000000004,-123.17891287924873
-0.13570000000000015,-124.05603388516508
-0.13670000000000004,-124.91900777808273
-0.13770000000000016,-125.7536874450031
-0.13870000000000005,-126.5317786599289
-0.13970000000000016,-127.36645832684925
-0.14070000000000005,-128.144549541775
-0.14170000000000016,-128.89434653070347
-0.14270000000000005,-129.75732042362114
-0.14370000000000016,-130.5495587515456
-0.14470000000000005,-131.46912109645783
-0.14570000000000016,-132.2896536503796
-0.14670000000000005,-133.20921599529186
-0.14770000000000016,-134.12877834020412
-0.14870000000000005,-135.03419357211774
-0.14970000000000017,-135.91131457803408
-0.15070000000000006,-136.74599424495443
-0.15170000000000017,-137.56652679887617
-0.15270000000000006,-138.3587651268006
-0.15370000000000017,-139.13685634172634
-0.15470000000000006,-139.8866533306548
-0.15570000000000017,-140.62230320658463
-0.15670000000000006,-141.3155117435185
-0.15770000000000017,-142.03701450644968
-0.15870000000000006,-142.8858412863687
-0.15970000000000018,-143.73466806628772
-0.16070000000000007,-144.44202371622026
-0.16170000000000018,-145.43232162612577
-0.16270000000000007,-146.28114840604482
-0.16370000000000018,-147.1299751859638
-0.16470000000000007,-147.97880196588284
-0.16570000000000018,-148.96909987578834
-0.16670000000000007,-149.8179266557074
-0.16770000000000018,-150.66675343562642
-0.16870000000000007,-151.37410908555893
-0.16970000000000018,-152.22293586547795
-0.17070000000000007,-153.07176264539694
-0.17170000000000019,-153.77911829532948
-0.17270000000000008,-154.486473945262
-0.1737000000000002,-155.33530072518104
-0.17470000000000008,-156.18412750510007
-0.1757000000000002,-156.89148315503257
-0.17670000000000008,-157.7403099349516
-0.1777000000000002,-158.73060784485713
-0.17870000000000008,-159.57943462477613
-0.1797000000000002,-160.42826140469515
-0.18070000000000008,-161.2770881846142
-0.1817000000000002,-162.12591496453322
-0.18270000000000008,-162.97474174445222
-0.1837000000000002,-163.68209739438475
-0.1847000000000001,-164.38945304431726
-0.1857000000000002,-165.2382798242363
-0.1867000000000001,-165.94563547416882
-0.1877000000000002,-166.79446225408785
-0.1887000000000001,-167.6432890340068
-0.1897000000000002,-168.35064468393938
-0.1907000000000001,-169.19947146385837
-0.1917000000000001,-170.0482982437774
-0.19269999999999998,-170.89712502369645
-0.1937000000000001,-171.74595180361547
-0.19469999999999998,-172.59477858353446
-0.1957000000000001,-173.44360536345349
-0.19669999999999999,-174.2924321433725
-0.1977000000000001,-174.99978779330505
-0.1987,-175.70714344323756
-0.1997000000000001,-176.4144990931701
-0.2007,-177.1218547431026
-0.2017000000000001,-177.82921039303508
-0.2027,-178.53656604296762
-0.2037000000000001,-179.24392169290016
-0.2047,-180.09274847281918
-0.2057000000000001,-180.94157525273818
-0.2067,-181.64893090267074
-0.2077000000000001,-182.49775768258974
-0.2087,-183.34658446250873
-0.2097000000000001,-184.05394011244127
-0.2107,-184.9027668923603
-0.2117000000000001,-185.6101225422928
-0.2127,-186.31747819222534
-0.2137000000000001,-186.88336271217133
-0.2147,-187.59071836210387
-0.2157000000000001,-188.4395451420229
-0.2167,-189.1469007919554
-0.21770000000000012,-189.71278531190143
-0.2187,-190.56161209182042
-0.21970000000000012,-191.268967741753
-0.2207,-191.9763233916855
-0.22170000000000012,-192.82515017160452
-0.2227,-193.532505821537
-0.22370000000000012,-194.38133260145605
-0.2247,-195.08868825138856
-0.22570000000000012,-195.93751503130758
-0.2267,-196.6448706812401
-0.22770000000000012,-197.35222633117263
-0.22870000000000001,-198.20105311109162
-0.22970000000000013,-198.90840876102413
-0.23070000000000002,-199.61576441095667
-0.23170000000000013,-200.18164893090267
-0.23270000000000002,-201.03047571082172
-0.23370000000000013,-201.73783136075423
-0.23470000000000002,-202.44518701068677
-0.23570000000000013,-203.15254266061928
-0.23670000000000002,-203.85989831055176
-0.2376999999999999,-204.5672539604843
-0.23870000000000002,-205.41608074040332
-0.2396999999999999,-206.12343639033585
-0.24070000000000003,-206.83079204026836
-0.24169999999999991,-207.67961882018741
-0.24270000000000003,-208.3869744701199
-0.24369999999999992,-209.23580125003892
-0.24470000000000003,-209.94315689997146
-0.24569999999999992,-210.65051254990397
-0.24670000000000003,-211.35786819983647
-0.24769999999999992,-212.065223849769
-0.24870000000000003,-212.914050629688
-0.24969999999999992,-213.76287740960703
-0.25070000000000003,-214.61170418952605
-0.2516999999999999,-215.4605309694451
-0.25270000000000004,-216.4508288793506
-0.2536999999999999,-217.29965565926966
-0.25470000000000004,-218.14848243918865
-0.2556999999999999,-218.71436695913465
-0.25670000000000004,-219.42172260906716
-0.25769999999999993,-220.1290782589997
-0.25870000000000004,-220.83643390893224
-0.25969999999999993,-221.40231842887826
-0.26070000000000004,-221.96820294882426
-0.26169999999999993,-222.3926163387838
-0.26270000000000004,-223.09997198871628
-0.26369999999999993,-223.6658565086623
-0.26470000000000005,-224.37321215859478
-0.26569999999999994,-225.08056780852735
-0.26670000000000005,-225.78792345845983
-0.26769999999999994,-226.63675023837888
-0.26870000000000005,-227.34410588831142
-0.26969999999999994,-228.0514615382439
-0.27070000000000005,-228.75881718817644
-0.27169999999999994,-229.46617283810895
-0.27270000000000005,-230.03205735805497
-0.27369999999999994,-230.7394130079875
-0.27470000000000006,-231.44676865792
-0.27569999999999995,-232.15412430785253
-0.27670000000000006,-232.72000882779852
-0.27769999999999995,-233.56883560771757
-0.27870000000000006,-234.27619125765005
-0.27969999999999995,-235.12501803756908
-0.28070000000000006,-235.83237368750162
-0.28169999999999995,-236.6812004674206
-0.28270000000000006,-237.38855611735315
-0.28369999999999995,-238.2373828972722
-0.28470000000000006,-238.8032674172182
-0.28569999999999995,-239.5106230671507
-0.28670000000000007,-240.0765075870967
-0.28769999999999996,-240.64239210704275
-0.28870000000000007,-241.06680549700224
-0.28969999999999996,-241.6326900169483
-0.29070000000000007,-242.05710340690777
-0.29169999999999996,-242.62298792685377
-0.29270000000000007,-243.04740131681334
-0.29369999999999996,-243.47181470677282
-0.2947000000000001,-244.17917035670533
-0.29569999999999996,-244.74505487665132
-0.2967000000000001,-245.31093939659738
-0.29769999999999996,-246.01829504652986
-0.2987000000000001,-246.7256506964624
-0.29969999999999997,-247.2915352164084
-0.3007000000000001,-247.85741973635444
-0.30169999999999997,-248.42330425630044
-0.3027000000000001,-249.13065990623298
-0.30369999999999997,-249.69654442617897
-0.3047000000000001,-250.1209578161385
-0.30569999999999997,-250.6868423360845
-0.3067000000000001,-251.111255726044
-0.3077,-251.81861137597656
-0.3087000000000001,-252.38449589592256
-0.3097,-253.09185154585506
-0.3107000000000001,-253.79920719578757
-0.3117,-254.64803397570657
-0.3127000000000001,-255.35538962563913
-0.3137,-256.0627452755717
-0.3147000000000001,-256.62862979551767
-0.3157,-257.33598544545015
-0.3167000000000001,-257.90186996539614
-0.3177,-258.60922561532874
-0.3187000000000001,-259.17511013527474
-0.3197,-259.59952352523425
-0.3207000000000001,-260.16540804518024
-0.3217,-260.4483503051532
-0.3227000000000001,-260.8727636951128
-0.3237,-261.2971770850723
-0.3247000000000001,-261.7215904750318
-0.3257,-262.2874749949778
-0.3267000000000001,-262.8533595149238
-0.3277,-263.41924403486985
-0.3287000000000001,-263.98512855481584
-0.3297,-264.55101307476184
-0.3307000000000001,-265.11689759470784
-0.3317,-265.82425324464043
-0.3327000000000001,-266.3901377645864
-0.3337,-266.9560222845325
-0.3347000000000001,-267.5219068044785
-0.3357,-268.0877913244245
-0.3367000000000001,-268.65367584437047
-0.3377,-269.2195603643164
-0.3387000000000001,-269.78544488426246
-0.3397,-270.49280053419506
-0.3407000000000001,-271.05868505414105
-0.3417,-271.62456957408705
-0.3427000000000001,-272.1904540940331
-0.3437,-272.61486748399255
-0.3447000000000001,-273.03928087395207
-0.3457,-273.4636942639116
-0.3467000000000001,-273.8881076538711
-0.3477,-274.1710499138441
-0.3487000000000001,-274.5954633038036
-0.3497,-274.87840556377665
-0.3507000000000001,-275.30281895373616
-0.3517,-275.58576121370913
-0.3527000000000001,-276.01017460366864
-0.3537,-276.43458799362816
-0.3547000000000001,-276.8590013835877
-0.3557,-277.4248859035337
-0.35670000000000013,-277.9907704234797
-0.3577,-278.6981260734122
-0.35870000000000013,-279.40548172334474
-0.3597,-280.11283737327733
-0.36070000000000013,-280.67872189322327
-0.3617,-281.3860775431558
-0.3626999999999999,-282.09343319308834
-0.3637,-282.65931771303434
-0.3646999999999999,-283.3666733629668
-0.3657,-283.9325578829129
-0.3666999999999999,-284.49844240285887
-0.3677,-285.0643269228049
-0.3686999999999999,-285.6302114427509
-0.36970000000000003,-286.196095962697
-0.3706999999999999,-286.76198048264297
-0.37170000000000003,-287.327865002589
-0.3726999999999999,-287.893749522535
-0.37370000000000003,-288.45963404248096
-0.3746999999999999,-289.02551856242695
-0.37570000000000003,-289.4499319523865
-0.3766999999999999,-289.87434534234603
-0.37770000000000004,-290.29875873230554
-0.3786999999999999,-290.86464325225154
-0.37970000000000004,-291.14758551222457
-0.3806999999999999,-291.571998902184
-0.38170000000000004,-291.9964122921436
-0.38269999999999993,-292.56229681208964
-0.38370000000000004,-292.8452390720626
-0.38469999999999993,-293.4111235920086
-0.38570000000000004,-293.9770081119546
-0.38669999999999993,-292.9867102020491
-0.38570000000000004,-289.1669896924135
-0.38469999999999993,-285.7716825727374
-0.38370000000000004,-282.3763754530613
-0.38269999999999993,-279.26401059335825
-0.38170000000000004,-276.15164573365513
-0.3806999999999999,-272.8978097439656
-0.37970000000000004,-269.78544488426246
-0.3786999999999999,-266.6730800245594
-0.37770000000000004,-263.7021862948428
-0.3766999999999999,-260.58982143513975
-0.37570000000000003,-257.76039883540966
-0.3746999999999999,-254.78950510569314
-0.37370000000000003,-251.96008250596302
-0.3726999999999999,-249.13065990623298
-0.37170000000000003,-246.4427084364894
-0.3706999999999999,-243.75475696674582
-0.36970000000000003,-241.06680549700224
-0.3686999999999999,-238.37885402725868
-0.3677,-235.83237368750162
-0.3666999999999999,-233.28589334774458
-0.3657,-230.59794187800094
-0.3646999999999999,-228.0514615382439
-0.3637,-225.36351006850035
-0.3626999999999999,-222.81702972874328
-0.3617,-220.2705493889862
-0.36070000000000013,-217.86554017921566
-0.3597,-215.31905983945856
-0.35870000000000013,-213.05552175967455
-0.3577,-210.79198367989048
-0.35670000000000013,-208.52844560010638
-0.3557,-206.26490752032234
-0.3547000000000001,-204.2843117005113
-0.3537,-202.02077362072723
-0.3527000000000001,-199.89870667092967
-0.3517,-197.63516859114563
-0.3507000000000001,-195.51310164134807
-0.3497,-193.249563561564
-0.3487000000000001,-190.98602548177996
-0.3477,-188.8639585319824
-0.3467000000000001,-186.60042045219836
-0.3457,-184.47835350240078
-0.3447000000000001,-182.21481542261674
-0.3437,-180.23421960280567
-0.3427000000000001,-178.1121526530081
-0.3417,-175.99008570321055
-0.3407000000000001,-174.0094898833995
-0.3397,-172.0288940635885
-0.3387000000000001,-170.18976937376394
-0.3377,-168.49211581392586
-0.3367000000000001,-166.93593338407433
-0.3357,-165.3797509542228
-0.3347000000000001,-163.96503965435775
-0.3337,-162.40885722450622
-0.3327000000000001,-160.8526747946547
-0.3317,-159.29649236480313
-0.3307000000000001,-157.59883880496508
-0.3297,-155.90118524512707
-0.3287000000000001,-154.0620605553025
-0.3277,-152.0814647354914
-0.3267000000000001,-150.1008689156804
-0.3257,-147.97880196588284
-0.3247000000000001,-145.9982061460718
-0.3237,-143.87613919627424
-0.3227000000000001,-141.61260111649017
-0.3217,-139.57541684468453
-0.3207000000000001,-137.56652679887617
-0.3197,-135.43031273607997
-0.3187000000000001,-133.3365400122797
-0.3177,-131.32764996647134
-0.3167000000000001,-129.2338772426711
-0.3157,-127.36645832684925
-0.3147000000000001,-125.5273336370247
-0.3137,-123.82968007718667
-0.3127000000000001,-122.08958517835266
-0.3117,-120.39193161851462
-0.3107000000000001,-118.68013094567793
-0.3097,-117.10980140282774
-0.3087000000000001,-115.4970305209816
-0.3077,-113.96914231712736
-0.3067000000000001,-112.3563714352812
-0.30569999999999997,-110.65871787544317
-0.3047000000000001,-108.96106431560513
-0.30369999999999997,-107.30585209476303
-0.3027000000000001,-105.5516100829304
-0.30169999999999997,-103.76907384510045
-0.3007000000000001,-102.02897894626645
-0.29969999999999997,-100.2747369344338
-0.2987000000000001,-98.5346420355998
-0.29769999999999996,-96.87942981475771
-0.2967000000000001,-95.18177625491967
-0.29569999999999996,-93.61144671206948
-0.2947000000000001,-91.94208737822873
-0.29369999999999996,-90.32931649638259
-0.29270000000000007,-88.6741042755405
-0.29169999999999996,-87.06133339369435
-0.29070000000000007,-85.40612117285227
-0.28969999999999996,-83.70846761301424
-0.28870000000000007,-82.03910827917348
-0.28769999999999996,-80.46877873632329
-0.28670000000000007,-78.77112517648524
-0.28569999999999995,-77.243236972631
-0.28470000000000006,-75.77193722077136
-0.28369999999999995,-74.37137303390499
-0.28270000000000006,-73.0556915250305
-0.28169999999999995,-71.7965984681506
-0.28070000000000006,-70.53750541127073
-0.27969999999999995,-69.26426524139221
-0.27870000000000006,-67.86370105452582
-0.27769999999999995,-66.56216665864997
-0.27670000000000006,-65.2464851497755
-0.27569999999999995,-63.944950753899654
-0.27470000000000006,-62.58682790602922
-0.27369999999999994,-61.28529351015339
-0.27270000000000005,-59.884729323287
-0.27169999999999994,-58.45587091042332
-0.27070000000000005,-57.05530672355693
-0.26969999999999994,-55.65474253669055
-0.26870000000000005,-54.39564947981066
