Potential V vs RHE, Current mA cm-2
0.05339999999999995,-0.04899145231432622
0.05239999999999995,-0.050660811648166965
0.051399999999999946,-0.05143890286309273
0.050399999999999945,-0.052075522948032
0.049399999999999944,-0.052584819015983414
0.04839999999999994,-0.053037526631940224
0.04739999999999994,-0.053546822699891646
0.04639999999999994,-0.0540702658808417
0.04539999999999994,-0.05466444462678501
0.04439999999999994,-0.05513129935574049
0.04339999999999994,-0.055541565632701344
0.04239999999999994,-0.056022567474655456
0.04139999999999994,-0.056546010655605515
0.040399999999999936,-0.057069453836555574
0.039399999999999935,-0.05755045567850969
0.038399999999999934,-0.05798901618146785
0.03739999999999993,-0.05841342957142737
0.03639999999999993,-0.05893687275237742
0.03539999999999993,-0.05943202170733019
0.03439999999999993,-0.0598564350972897
0.03339999999999993,-0.06026670137425057
0.03239999999999993,-0.06071940899020737
0.03139999999999993,-0.06124285217115744
0.030399999999999927,-0.061752148239108844
0.029399999999999926,-0.06220485585506567
0.028399999999999925,-0.06262926924502517
0.027399999999999924,-0.06306782974798335
0.026399999999999924,-0.06357712581593475
0.025399999999999923,-0.06412886322288211
0.024399999999999922,-0.06458157083883892
0.02339999999999992,-0.06500598422879844
0.02239999999999992,-0.06543039761875795
0.02139999999999992,-0.06591139946071205
0.020399999999999918,-0.06644898975466076
0.019399999999999917,-0.06687340314462027
0.018399999999999916,-0.06728366942158114
0.017399999999999916,-0.0677222299245393
0.016399999999999915,-0.06820323176649341
0.015399999999999914,-0.06874082206044213
0.014399999999999913,-0.069151088337403
0.013399999999999912,-0.06956135461436386
0.012399999999999911,-0.06998576800432338
0.01139999999999991,-0.07045262273327882
0.01039999999999991,-0.07099021302722754
0.009399999999999908,-0.07141462641718704
0.008399999999999908,-0.0717965984681506
0.007399999999999907,-0.07223515897110877
0.006399999999999906,-0.07268786658706558
0.005399999999999905,-0.07316886842901969
0.004399999999999904,-0.07360742893197786
0.003399999999999903,-0.07396110675694412
0.002399999999999902,-0.07437137303390498
0.0013999999999999013,-0.07483822776286045
0.00039999999999990044,-0.0753333767178132
-0.0006000000000001005,-0.07572949588177541
-0.0016000000000001013,-0.07608317370674167
-0.0026000000000001022,-0.07647929287070389
-0.003600000000000103,-0.07691785337366204
-0.004600000000000104,-0.07737056098961885
-0.005600000000000105,-0.07779497437957837
-0.006600000000000106,-0.07816279931754326
-0.007600000000000107,-0.07850233002951089
-0.008600000000000108,-0.0789550376454677
-0.009600000000000108,-0.07939359814842585
-0.01060000000000011,-0.07977557019938941
-0.01160000000000011,-0.08012924802435568
-0.012600000000000111,-0.08048292584932194
-0.013600000000000112,-0.0808648979002855
-0.014600000000000113,-0.08130345840324366
-0.015600000000000114,-0.08165713622820991
-0.016600000000000115,-0.08199666694017753
-0.017600000000000116,-0.08233619765214513
-0.018600000000000116,-0.08271816970310869
-0.019600000000000117,-0.08312843598006955
-0.020600000000000118,-0.08343967246603987
-0.02160000000000012,-0.08369432050001557
-0.02260000000000012,-0.08400555698598587
-0.02360000000000012,-0.08431679347195618
-0.024600000000000122,-0.0847412068619157
-0.025600000000000123,-0.085052443347886
-0.026600000000000124,-0.08532123849486037
-0.027600000000000124,-0.08560418075483338
-0.028600000000000125,-0.08594371146680099
-0.029600000000000126,-0.08629738929176724
-0.030600000000000127,-0.08660862577773754
-0.03160000000000013,-0.08683497958571595
-0.03260000000000013,-0.08708962761969166
-0.03360000000000013,-0.08738671699266332
-0.03460000000000002,-0.08769795347863363
-0.03560000000000002,-0.08795260151260934
-0.03660000000000002,-0.08815066109459044
-0.03760000000000002,-0.0883911620155675
-0.03860000000000002,-0.08865995716254185
-0.039600000000000024,-0.08897119364851215
-0.040600000000000025,-0.08923998879548652
-0.041600000000000026,-0.08939560703847166
-0.04260000000000003,-0.08959366662045277
-0.04360000000000003,-0.08983416754142984
-0.04460000000000003,-0.09013125691440148
-0.04560000000000003,-0.0903576107223799
-0.04660000000000003,-0.09052737607836371
-0.04760000000000003,-0.09068299432134884
-0.04860000000000003,-0.09089520101632861
-0.04960000000000003,-0.09114984905030431
-0.050600000000000034,-0.09134790863228542
-0.051600000000000035,-0.09146108553627462
-0.052600000000000036,-0.09161670377925978
-0.053600000000000037,-0.09178646913524359
-0.05460000000000004,-0.09202697005622064
-0.05560000000000004,-0.09218258829920578
-0.05660000000000004,-0.09228161809019635
-0.05760000000000004,-0.09239479499418554
-0.05860000000000004,-0.09255041323717071
-0.05960000000000004,-0.0927484728191518
-0.06060000000000004,-0.09286164972314101
-0.061600000000000044,-0.0929465324011329
-0.06260000000000004,-0.09303141507912481
-0.06360000000000005,-0.09315873909611266
-0.06460000000000005,-0.09334265156509512
-0.06560000000000005,-0.09342753424308703
-0.06660000000000005,-0.09348412269508162
-0.06760000000000005,-0.09352656403407757
-0.06860000000000005,-0.09361144671206949
-0.06960000000000005,-0.09376706495505463
-0.07060000000000005,-0.09383780052004788
-0.07160000000000005,-0.09385194763304654
-0.07260000000000005,-0.09388024185904384
-0.07360000000000005,-0.09393683031103843
-0.07460000000000006,-0.0940641543280263
-0.07560000000000006,-0.09412074278002087
-0.07660000000000006,-0.09409244855402359
-0.07760000000000006,-0.09410659566702224
-0.07860000000000006,-0.09414903700601819
-0.07960000000000006,-0.09421977257101144
-0.08060000000000006,-0.0942622139100074
-0.08160000000000006,-0.09421977257101144
-0.08260000000000006,-0.09421977257101144
-0.08360000000000006,-0.09421977257101144
-0.08460000000000006,-0.0942622139100074
-0.08560000000000006,-0.09427636102300604
-0.08660000000000007,-0.09423391968401008
-0.08760000000000007,-0.0941773312320155
-0.08860000000000007,-0.0941773312320155
-0.08960000000000007,-0.09423391968401008
-0.09060000000000007,-0.0942056254580128
-0.09160000000000007,-0.09413488989301955
-0.09260000000000007,-0.0940641543280263
-0.09360000000000007,-0.09405000721502763
-0.09460000000000007,-0.0940641543280263
-0.09560000000000007,-0.094035860102029
-0.09660000000000007,-0.09395097742403709
-0.09760000000000008,-0.09383780052004788
-0.09860000000000008,-0.09378121206805329
-0.09960000000000008,-0.09380950629405059
-0.10060000000000008,-0.09375291784205599
-0.10160000000000008,-0.09365388805106543
-0.10260000000000008,-0.09355485826007487
-0.10360000000000008,-0.09346997558208296
-0.10460000000000008,-0.09346997558208296
-0.10560000000000008,-0.09339924001708971
-0.10660000000000008,-0.09325776888710322
-0.10760000000000008,-0.09314459198311402
-0.10860000000000009,-0.09307385641812077
-0.10960000000000009,-0.09305970930512211
-0.11060000000000009,-0.09298897374012885
-0.11160000000000009,-0.09286164972314101
-0.11260000000000009,-0.09270603148015585
-0.11360000000000009,-0.09260700168916529
-0.11460000000000009,-0.09262114880216396
-0.11560000000000009,-0.09255041323717071
-0.11660000000000009,-0.09236650076818824
-0.1176000000000001,-0.09222502963820174
-0.1186000000000001,-0.09212599984721119
-0.1196000000000001,-0.09206941139521659
-0.1206000000000001,-0.09198452871722468
-0.1216000000000001,-0.09181476336124088
-0.1226000000000001,-0.09167329223125438
-0.1236000000000001,-0.09158840955326249
-0.1246000000000001,-0.09150352687527057
-0.1256000000000001,-0.09141864419727867
-0.1266000000000001,-0.0912630259542935
-0.1276000000000001,-0.09109326059830972
-0.1286000000000001,-0.09098008369432051
-0.1296000000000001,-0.09093764235532456
-0.1306000000000001,-0.09082446545133536
-0.1316000000000001,-0.09068299432134884
-0.1326000000000001,-0.09048493473936775
-0.1336000000000001,-0.09037175783537854
-0.1346000000000001,-0.09030102227038528
-0.1356000000000001,-0.09020199247939473
-0.1366000000000001,-0.09003222712341094
-0.1376000000000001,-0.08986246176742714
-0.1386000000000001,-0.08973513775043927
-0.1396000000000001,-0.08966440218544602
-0.1406000000000001,-0.08956537239445547
-0.14160000000000011,-0.08939560703847166
-0.14260000000000012,-0.08921169456948921
-0.14360000000000012,-0.08908437055250136
-0.14460000000000012,-0.08901363498750811
-0.14560000000000012,-0.08888631097052026
-0.14660000000000012,-0.08871654561453644
-0.14760000000000012,-0.08857507448454995
-0.14860000000000012,-0.0884194562415648
-0.14960000000000012,-0.08837701490256884
-0.15060000000000012,-0.08824969088558099
-0.15160000000000012,-0.08809407264259583
-0.15260000000000012,-0.08793845439961068
-0.15360000000000013,-0.08781113038262284
-0.15460000000000013,-0.08775454193062822
-0.15560000000000013,-0.08765551213963767
-0.15660000000000013,-0.08747159967065522
-0.15760000000000013,-0.08731598142767007
-0.15860000000000013,-0.08720280452368086
-0.15960000000000002,-0.08713206895868761
-0.16060000000000002,-0.08703303916769706
-0.16160000000000002,-0.08686327381171326
-0.16260000000000002,-0.08669350845572944
-0.16360000000000002,-0.08655203732574294
-0.16460000000000002,-0.08646715464775104
-0.16560000000000002,-0.08642471330875509
-0.16660000000000003,-0.0862832421787686
-0.16760000000000003,-0.08607103548378882
-0.16860000000000003,-0.08594371146680099
-0.16960000000000003,-0.08585882878880907
-0.17060000000000003,-0.0857597989978185
-0.17160000000000003,-0.08559003364183472
-0.17260000000000003,-0.08543441539884956
-0.17360000000000003,-0.08530709138186171
-0.17460000000000003,-0.08522220870386982
-0.17560000000000003,-0.08513732602587791
-0.17660000000000003,-0.08498170778289275
-0.17760000000000004,-0.08481194242690895
-0.17860000000000004,-0.0846846184099211
-0.17960000000000004,-0.08461388284492784
-0.18060000000000004,-0.08452900016693596
-0.18160000000000004,-0.08437338192395079
-0.18260000000000004,-0.08420361656796697
-0.18360000000000004,-0.08406214543798048
-0.18460000000000004,-0.08401970409898453
-0.18560000000000004,-0.08394896853399128
-0.18660000000000004,-0.08380749740400478
-0.18760000000000004,-0.08365187916101963
-0.18860000000000005,-0.08352455514403176
-0.18960000000000005,-0.08346796669203715
-0.19060000000000005,-0.08341137824004256
-0.19160000000000005,-0.0832840542230547
-0.19260000000000005,-0.0831425830930682
-0.19360000000000005,-0.0830011119630817
-0.19460000000000005,-0.0829445235110871
-0.19560000000000005,-0.08285964083309519
-0.19660000000000005,-0.08273231681610735
-0.19760000000000005,-0.08259084568612084
-0.19860000000000005,-0.08246352166913298
-0.19960000000000006,-0.08239278610413973
-0.20060000000000006,-0.08233619765214513
-0.20160000000000006,-0.08216643229616134
-0.20260000000000006,-0.08205325539217213
-0.20360000000000006,-0.08192593137518428
-0.20460000000000006,-0.08186934292318966
-0.20560000000000006,-0.08181275447119508
-0.20660000000000006,-0.08168543045420722
-0.20760000000000006,-0.08150151798522477
-0.20860000000000006,-0.08140248819423422
-0.20960000000000006,-0.0813458997422396
-0.21060000000000006,-0.08128931129024501
-0.21160000000000007,-0.08116198727325716
-0.21260000000000007,-0.081006369030272
-0.21360000000000007,-0.0808648979002855
-0.21460000000000007,-0.08085075078728685
-0.21560000000000007,-0.08079416233529225
-0.21660000000000007,-0.08068098543130305
-0.21760000000000007,-0.08056780852731382
-0.21860000000000007,-0.080440484510326
-0.21960000000000007,-0.08039804317133004
-0.22060000000000007,-0.08034145471933543
-0.22160000000000007,-0.08021413070234758
-0.22260000000000008,-0.08010095379835838
-0.22360000000000008,-0.07998777689436919
-0.22460000000000008,-0.07995948266837187
-0.22560000000000008,-0.07990289421637728
-0.22660000000000008,-0.07978971731238807
-0.22760000000000008,-0.07964824618240157
-0.22860000000000008,-0.07953506927841236
-0.22960000000000008,-0.07953506927841236
-0.23060000000000008,-0.07947848082641776
-0.23160000000000008,-0.0793511568094299
-0.23260000000000008,-0.07925212701843935
-0.23360000000000009,-0.07913895011445016
-0.2346000000000001,-0.07911065588845285
-0.2356000000000001,-0.07906821454945691
-0.2366000000000001,-0.0789550376454677
-0.2376000000000001,-0.07882771362847985
-0.2386000000000001,-0.0787286838374893
-0.2396000000000001,-0.07870038961149198
-0.2406000000000001,-0.07868624249849335
-0.2416000000000001,-0.07854477136850684
-0.2426000000000001,-0.07844574157751628
-0.2436000000000001,-0.07834671178652573
-0.2446000000000001,-0.07830427044752979
-0.2456000000000001,-0.07829012333453113
-0.2466000000000001,-0.07817694643054193
-0.2476000000000001,-0.07806376952655272
-0.2486000000000001,-0.07796473973556219
-0.2496000000000001,-0.07793644550956487
-0.2506000000000001,-0.07792229839656621
-0.2516000000000001,-0.07780912149257702
-0.2526000000000001,-0.07768179747558916
-0.2536000000000001,-0.07759691479759726
-0.2546000000000001,-0.07758276768459862
-0.2556000000000001,-0.07755447345860131
-0.2566000000000001,-0.07746959078060942
-0.2576000000000001,-0.0773564138766202
-0.2586000000000001,-0.07724323697263101
-0.2596000000000001,-0.07724323697263101
-0.2606000000000001,-0.0772149427466337
-0.2616000000000001,-0.0771300600686418
-0.2626000000000001,-0.07703103027765125
-0.2636000000000001,-0.07694614759965934
-0.2646000000000001,-0.07691785337366204
-0.2656000000000001,-0.0769037062606634
-0.2666000000000001,-0.07681882358267149
-0.2676000000000001,-0.0767056466786823
-0.2686000000000001,-0.07663491111368903
-0.2696000000000001,-0.07663491111368903
-0.2706000000000001,-0.07660661688769173
-0.2716000000000001,-0.07650758709670118
-0.2726000000000001,-0.07643685153170793
-0.2736000000000001,-0.07632367462771873
-0.2746000000000001,-0.07632367462771873
-0.2756000000000001,-0.07632367462771873
-0.2766000000000001,-0.07623879194972684
-0.2776000000000001,-0.07613976215873627
-0.2786000000000001,-0.07606902659374302
-0.2796000000000001,-0.07604073236774572
-0.2806000000000001,-0.07604073236774572
-0.28160000000000013,-0.07595584968975382
-0.28260000000000013,-0.07585681989876326
-0.28360000000000013,-0.07578608433377002
-0.2846,-0.07575779010777271
-0.2856,-0.07575779010777271
-0.2866,-0.07570120165577811
-0.2876,-0.07557387763879025
-0.2886,-0.07551728918679566
-0.2896,-0.07548899496079836
-0.2906,-0.07548899496079836
-0.2916,-0.07543240650880376
-0.2926,-0.0753333767178132
-0.2936,-0.07524849403982131
-0.29460000000000003,-0.07524849403982131
-0.29560000000000003,-0.07524849403982131
-0.29660000000000003,-0.0751919055878267
-0.29760000000000003,-0.0750787286838375
-0.29860000000000003,-0.07500799311884425
-0.29960000000000003,-0.07500799311884425
-0.30060000000000003,-0.07500799311884425
-0.30160000000000003,-0.074937257553851
-0.30260000000000004,-0.07483822776286045
-0.30360000000000004,-0.07473919797186988
-0.30460000000000004,-0.07475334508486854
-0.30560000000000004,-0.07475334508486854
-0.30660000000000004,-0.07469675663287394
-0.30760000000000004,-0.07461187395488203
-0.30860000000000004,-0.07451284416389148
-0.30960000000000004,-0.07451284416389148
-0.31060000000000004,-0.07452699127689014
-0.31160000000000004,-0.07444210859889823
-0.31260000000000004,-0.07437137303390498
-0.31360000000000005,-0.07430063746891173
-0.31460000000000005,-0.07430063746891173
-0.31560000000000005,-0.07432893169490903
-0.31660000000000005,-0.07424404901691713
-0.31760000000000005,-0.07414501922592658
-0.31860000000000005,-0.07406013654793467
-0.31960000000000005,-0.07410257788693062
-0.32060000000000005,-0.07410257788693062
-0.32160000000000005,-0.07403184232193737
-0.32260000000000005,-0.07394695964394547
-0.32360000000000005,-0.07386207696595355
-0.32460000000000006,-0.07384792985295491
-0.32560000000000006,-0.07387622407895222
-0.32660000000000006,-0.07383378273995628
-0.32760000000000006,-0.07373475294896571
-0.32860000000000006,-0.0736498702709738
-0.32960000000000006,-0.07363572315797516
-0.33060000000000006,-0.07366401738397246
-0.33160000000000006,-0.0736215760449765
-0.33260000000000006,-0.07352254625398597
-0.33360000000000006,-0.0734518106889927
-0.33460000000000006,-0.07346595780199136
-0.33560000000000006,-0.0734518106889927
-0.33660000000000007,-0.07340936934999676
-0.33760000000000007,-0.07332448667200485
-0.33860000000000007,-0.07326789822001026
-0.33960000000000007,-0.07326789822001026
-0.34060000000000007,-0.0732537511070116
-0.34160000000000007,-0.07321130976801564
-0.34260000000000007,-0.07314057420302239
-0.34360000000000007,-0.0730556915250305
-0.3446000000000001,-0.07306983863802914
-0.3456000000000001,-0.0730839857510278
-0.3466000000000001,-0.07304154441203185
-0.34759999999999996,-0.07297080884703859
-0.3486000000000001,-0.07287177905604804
-0.34959999999999997,-0.0728859261690467
-0.3506000000000001,-0.0728859261690467
-0.35159999999999997,-0.07285763194304938
-0.3526000000000001,-0.0727727492650575
-0.35359999999999997,-0.07273030792606154
-0.3546000000000001,-0.07271616081306288
-0.35559999999999997,-0.07273030792606154
-0.3566000000000001,-0.07267371947406694
-0.3576,-0.07260298390907369
-0.3586000000000001,-0.07254639545707908
-0.3596,-0.07251810123108177
-0.3606000000000001,-0.07256054257007773
-0.3616,-0.07251810123108177
-0.3626000000000001,-0.07241907144009123
-0.3636,-0.07239077721409394
-0.3646000000000001,-0.07236248298809662
-0.3656,-0.07237663010109527
-0.3666000000000001,-0.07234833587509798
-0.3676,-0.07224930608410743
-0.3686000000000001,-0.07220686474511147
-0.3696,-0.07220686474511147
-0.3706000000000001,-0.07226345319710607
-0.3716,-0.07223515897110877
-0.3726000000000001,-0.07212198206711957
-0.3736,-0.07207954072812363
-0.3746000000000001,-0.07206539361512497
-0.3756,-0.07207954072812363
-0.3766000000000001,-0.07206539361512497
-0.3776,-0.07199465805013172
-0.3786000000000001,-0.07192392248513847
-0.3796,-0.07192392248513847
-0.3806000000000001,-0.07193806959813712
-0.3816,-0.07190977537213981
-0.3826000000000001,-0.07183903980714657
-0.3836,-0.07178245135515196
-0.3846000000000001,-0.07181074558114926
-0.3856,-0.07182489269414791
-0.3866000000000001,-0.07178245135515196
-0.3876,-0.07169756867716005
-0.3886000000000001,-0.07164098022516545
-0.3896,-0.0716551273381641
-0.3906000000000001,-0.07168342156416141
-0.3916,-0.07164098022516545
-0.3926000000000001,-0.07158439177317086
-0.3936,-0.07151365620817761
-0.3946000000000001,-0.07152780332117625
-0.3956,-0.07155609754717356
-0.3966000000000001,-0.07152780332117625
-0.3976,-0.07144292064318435
-0.3986000000000001,-0.07138633219118974
-0.3996,-0.07140047930418841
-0.4006000000000001,-0.0714287735301857
-0.4016,-0.07140047930418841
-0.4026000000000001,-0.0713438908521938
-0.4036,-0.07127315528720055
-0.4046000000000001,-0.0712590081742019
-0.4056,-0.07132974373919515
-0.40660000000000013,-0.07130144951319785
-0.4076,-0.07121656683520594
-0.40860000000000013,-0.07118827260920865
-0.4096,-0.07118827260920865
-0.41060000000000013,-0.0712024197222073
-0.4116,-0.07118827260920865
-0.41260000000000013,-0.0710892428182181
-0.4136,-0.07103265436622348
-0.41460000000000014,-0.07107509570521944
-0.4156,-0.07110338993121673
-0.41660000000000014,-0.07110338993121673
-0.4176,-0.07103265436622348
-0.41860000000000014,-0.0709760659142289
-0.41960000000000003,-0.07096191880123023
-0.42060000000000014,-0.07100436014022618
-0.42160000000000003,-0.07101850725322485
-0.42260000000000014,-0.07096191880123023
-0.42360000000000003,-0.07090533034923564
-0.42460000000000014,-0.07090533034923564
-0.42560000000000003,-0.07094777168823159
-0.42660000000000015,-0.07091947746223429
-0.42760000000000004,-0.07086288901023968
-0.42860000000000015,-0.07082044767124374
-0.42960000000000004,-0.07082044767124374
-0.43060000000000015,-0.07086288901023968
-0.43160000000000004,-0.07084874189724104
-0.43260000000000015,-0.07077800633224779
-0.43360000000000004,-0.07074971210625049
-0.43460000000000015,-0.07074971210625049
-0.43560000000000004,-0.07079215344524643
-0.43660000000000015,-0.07077800633224779
