Potential V vs RHE, Current mA cm-2
0.05339999999999995,-0.2646924842047484
0.05239999999999995,-0.27077574279416805
0.051399999999999946,-0.27501987669376315
0.050399999999999945,-0.27869812607341227
0.049399999999999944,-0.2812446064131693
0.04839999999999994,-0.2842155001428859
0.04739999999999994,-0.2866205093526564
0.04639999999999994,-0.2886011051724675
0.04539999999999994,-0.29086464325225153
0.04439999999999994,-0.29256229681208956
0.04339999999999994,-0.2944014215019141
0.04239999999999994,-0.2962405461917387
0.04139999999999994,-0.2976552574916037
0.040399999999999936,-0.2993529110514418
0.039399999999999935,-0.3009090934812933
0.038399999999999934,-0.30260674704113133
0.03739999999999993,-0.3041629294709829
0.03639999999999993,-0.30600205416080745
0.03539999999999993,-0.3079826499806185
0.03439999999999993,-0.30953883241047003
0.03339999999999993,-0.31123648597030806
0.03239999999999993,-0.3125097261401866
0.03139999999999993,-0.31434885083001113
0.030399999999999927,-0.3159050332598627
0.029399999999999926,-0.3173197445597277
0.028399999999999925,-0.3188759269895793
0.027399999999999924,-0.3204321094194308
0.026399999999999924,-0.3217053495893093
0.025399999999999923,-0.32269564749921487
0.024399999999999922,-0.3249591855789989
0.02339999999999992,-0.32580801235891793
0.02239999999999992,-0.32764713704874243
0.02139999999999992,-0.3293447906085805
0.020399999999999918,-0.3303350885184861
0.019399999999999917,-0.3318912709483376
0.018399999999999916,-0.3333059822482026
0.017399999999999916,-0.3348621646780542
0.016399999999999915,-0.33655981823789227
0.015399999999999914,-0.3378330584077708
0.014399999999999913,-0.3392477697076358
0.013399999999999912,-0.34094542326747385
0.012399999999999911,-0.3423601345673389
0.01139999999999991,-0.34405778812717697
0.01039999999999991,-0.345472499427042
0.009399999999999908,-0.34915074880669106
0.008399999999999908,-0.35183870027643466
0.007399999999999907,-0.3525460559263671
0.006399999999999906,-0.3542437094862052
0.005399999999999905,-0.35509253626612425
0.004399999999999904,-0.35664871869597575
0.003399999999999903,-0.3583463722558138
0.002399999999999902,-0.35990255468566534
0.0013999999999999013,-0.3617416793754899
0.00039999999999990044,-0.36329786180534146
-0.0006000000000001005,-0.3642881597152469
-0.0016000000000001013,-0.3661272844050715
-0.0026000000000001022,-0.36768346683492303
-0.003600000000000103,-0.36966406265473406
-0.004600000000000104,-0.3712202450845856
-0.005600000000000105,-0.3727764275144372
-0.006600000000000106,-0.3740496676843157
-0.007600000000000107,-0.3757473212441537
-0.008600000000000108,-0.37687909028404576
-0.009600000000000108,-0.37815233045392427
-0.01060000000000011,-0.3799914551437488
-0.01160000000000011,-0.3818305798335734
-0.012600000000000111,-0.38338676226342494
-0.013600000000000112,-0.38480147356329
-0.014600000000000113,-0.38635765599314154
-0.015600000000000114,-0.38805530955297957
-0.016600000000000115,-0.3900359053727906
-0.017600000000000116,-0.39060178989273664
-0.018600000000000116,-0.39187503006261515
-0.019600000000000117,-0.3932897413624802
-0.020600000000000118,-0.3942800392723857
-0.02160000000000012,-0.39583622170223726
-0.02260000000000012,-0.39739240413208876
-0.02360000000000012,-0.39937299995189984
-0.024600000000000122,-0.40121212464172434
-0.025600000000000123,-0.4027683070715759
-0.026600000000000124,-0.40432448950142746
-0.027600000000000124,-0.4051733162813465
-0.028600000000000125,-0.406729498711198
-0.029600000000000126,-0.4080027388810766
-0.030600000000000127,-0.40899303679098215
-0.03160000000000013,-0.4104077480908471
-0.03260000000000013,-0.4122468727806717
-0.03360000000000013,-0.4133786418205638
-0.03460000000000002,-0.4147933531204288
-0.03560000000000002,-0.4164910066802668
-0.03660000000000002,-0.41804718911011834
-0.03760000000000002,-0.4196033715399699
-0.03860000000000002,-0.42101808283983494
-0.039600000000000024,-0.4224327941397
-0.040600000000000025,-0.424130447699538
-0.041600000000000026,-0.42582810125937604
-0.04260000000000003,-0.42752575481921407
-0.04360000000000003,-0.42865752385910616
-0.04460000000000003,-0.4307795908089037
-0.04560000000000003,-0.4327601866287147
-0.04660000000000003,-0.4344578401885528
-0.04760000000000003,-0.4354481380984583
-0.04860000000000003,-0.43728726278828284
-0.04960000000000003,-0.4385605029581614
-0.050600000000000034,-0.4396922719980534
-0.051600000000000035,-0.4412484544279049
-0.052600000000000036,-0.4429461079877429
-0.053600000000000037,-0.44549258832750005
-0.05460000000000004,-0.4483220109272302
-0.05560000000000004,-0.4505855490070142
-0.05660000000000004,-0.45256614482682517
-0.05760000000000004,-0.4548296829066093
-0.05860000000000004,-0.45681027872642027
-0.05960000000000004,-0.4592152879361909
-0.06060000000000004,-0.4606299992360559
-0.061600000000000044,-0.46232765279589394
-0.06260000000000004,-0.46473266200566454
-0.06360000000000005,-0.46600590217554305
-0.06460000000000005,-0.4667132578254756
-0.06560000000000005,-0.4698256226851787
-0.06660000000000005,-0.47109886285505725
-0.06760000000000005,-0.47293798754488175
-0.06860000000000005,-0.4744941699747333
-0.06960000000000005,-0.47590888127459835
-0.07060000000000005,-0.47831389048436895
-0.07160000000000005,-0.4798700729142204
-0.07260000000000005,-0.4804359574341665
-0.07360000000000005,-0.48284096664393705
-0.07460000000000006,-0.4851045047237211
-0.07560000000000006,-0.4877924561934647
-0.07660000000000006,-0.48977305201327564
-0.07760000000000006,-0.49104629218315415
-0.07860000000000006,-0.49302688800296524
-0.07960000000000006,-0.49529042608274926
-0.08060000000000006,-0.4965636662526278
-0.08160000000000006,-0.49967603111233094
-0.08260000000000006,-0.501656626932142
-0.08360000000000006,-0.5026469248420475
-0.08460000000000006,-0.5054763474417775
-0.08560000000000006,-0.5077398855215616
-0.08660000000000007,-0.5105693081212918
-0.08760000000000007,-0.5133987307210217
-0.08860000000000007,-0.5160866821907654
-0.08960000000000007,-0.5186331625305225
-0.09060000000000007,-0.52075522948032
-0.09160000000000007,-0.5203308160903605
-0.09260000000000007,-0.5227358253001311
-0.09360000000000007,-0.5269799591997262
-0.09460000000000007,-0.5299508529294428
-0.09560000000000007,-0.5320729198792403
-0.09660000000000007,-0.533346160049119
-0.09760000000000008,-0.5349023424789704
-0.09860000000000008,-0.53815617846866
-0.09960000000000008,-0.5405611876784305
-0.10060000000000008,-0.5433906102781606
-0.10160000000000008,-0.5460785617479043
-0.10260000000000008,-0.5482006286977017
-0.10360000000000008,-0.5490494554776209
-0.10460000000000008,-0.5508885801674454
-0.10560000000000008,-0.5524447625972969
-0.10660000000000008,-0.5541424161571349
-0.10760000000000008,-0.5559815408469594
-0.10860000000000009,-0.5581036077967569
-0.10960000000000009,-0.5609330303964871
-0.11060000000000009,-0.5631965684762711
-0.11160000000000009,-0.5665918755959471
-0.11260000000000009,-0.5675821735058527
-0.11360000000000009,-0.5697042404556503
-0.11460000000000009,-0.5725336630553803
-0.11560000000000009,-0.5740898454852319
-0.11660000000000009,-0.576636325824989
-0.1176000000000001,-0.5786169216447999
-0.1186000000000001,-0.5815878153745165
-0.1196000000000001,-0.5839928245842871
-0.1206000000000001,-0.5838513534543007
-0.1216000000000001,-0.5858319492741116
-0.1226000000000001,-0.5880954873538957
-0.1236000000000001,-0.5890857852638013
-0.1246000000000001,-0.5929055057734368
-0.1256000000000001,-0.595734928373167
-0.1266000000000001,-0.5981399375829375
-0.1276000000000001,-0.5995546488828025
-0.1286000000000001,-0.601959658092573
-0.1296000000000001,-0.6053549652122492
-0.1306000000000001,-0.6064867342521413
-0.1316000000000001,-0.6077599744220198
-0.1326000000000001,-0.6101649836317904
-0.1336000000000001,-0.6118626371916284
-0.1346000000000001,-0.6139847041414259
-0.1356000000000001,-0.6165311844811829
-0.1366000000000001,-0.6176629535210749
-0.1376000000000001,-0.6197850204708726
-0.1386000000000001,-0.6216241451606972
-0.1396000000000001,-0.6236047409805081
-0.1406000000000001,-0.6254438656703327
-0.14160000000000011,-0.6262926924502518
-0.14260000000000012,-0.6268585769701978
-0.14360000000000012,-0.6292635861799682
-0.14460000000000012,-0.6333662489495769
-0.14560000000000012,-0.6361956715493069
-0.14660000000000012,-0.6405812765788885
-0.14760000000000012,-0.6429862857886591
-0.14860000000000012,-0.6436936414385916
-0.14960000000000012,-0.6473718908182408
-0.15060000000000012,-0.6497769000280114
-0.15160000000000012,-0.6511916113278763
-0.15260000000000012,-0.6510501401978899
-0.15360000000000013,-0.6513330824578628
-0.15460000000000013,-0.655860158617431
-0.15560000000000013,-0.6612360615569182
-0.15660000000000013,-0.6627922439867696
-0.15760000000000013,-0.6663290222364323
-0.15860000000000013,-0.6683096180562434
-0.15960000000000002,-0.6666119644964053
-0.16060000000000002,-0.6671778490163512
-0.16160000000000002,-0.6728366942158115
-0.16260000000000002,-0.6763734724654741
-0.16360000000000002,-0.6763734724654741
-0.16460000000000002,-0.6773637703753796
-0.16560000000000002,-0.6787784816752446
-0.16660000000000003,-0.6816079042749748
-0.16760000000000003,-0.6828811444448531
-0.16860000000000003,-0.6844373268747048
-0.16960000000000003,-0.692642652413922
-0.17060000000000003,-0.6985844398733552
-0.17160000000000003,-0.7025456315129773
-0.17260000000000003,-0.710892428182181
-0.17360000000000003,-0.713721850781911
-0.17460000000000003,-0.7157024466017221
-0.17560000000000003,-0.7164098022516546
-0.17660000000000003,-0.7178245135515195
-0.17760000000000004,-0.7234833587509798
-0.17860000000000004,-0.7280104349105478
-0.17960000000000004,-0.7297080884703859
-0.18060000000000004,-0.7298495596003725
-0.18160000000000004,-0.732254568810143
-0.18260000000000004,-0.7348010491499001
-0.18360000000000004,-0.7348010491499001
-0.18460000000000004,-0.7376304717496301
-0.18560000000000004,-0.7390451830494952
-0.18660000000000004,-0.7411672499992927
-0.18760000000000004,-0.7438552014690363
-0.18860000000000005,-0.7452699127689013
-0.18960000000000005,-0.7478163931086583
-0.19060000000000005,-0.751070229098348
-0.19160000000000005,-0.752484940398213
-0.19260000000000005,-0.7529093537881726
-0.19360000000000005,-0.7517775847482805
-0.19460000000000005,-0.7495140466684964
-0.19560000000000005,-0.7496555177984829
-0.19660000000000005,-0.7523434692682265
-0.19760000000000005,-0.7534752383081186
-0.19860000000000005,-0.7540411228280646
-0.19960000000000006,-0.7578608433377001
-0.20060000000000006,-0.7608317370674167
-0.20160000000000006,-0.7649343998370254
-0.20260000000000006,-0.7633782174071737
-0.20360000000000006,-0.7660661688769174
-0.20460000000000006,-0.7701688316465259
-0.20560000000000006,-0.7727153119862831
-0.20660000000000006,-0.774978850066067
-0.20760000000000006,-0.7773838592758376
-0.20860000000000006,-0.7768179747558916
-0.20960000000000006,-0.7775253304058242
-0.21060000000000006,-0.7793644550956487
-0.21160000000000007,-0.7829012333453113
-0.21260000000000007,-0.7850233002951088
-0.21360000000000007,-0.7877112517648525
-0.21460000000000007,-0.7899747898446364
-0.21560000000000007,-0.79266274131438
-0.21660000000000007,-0.7950677505241506
-0.21760000000000007,-0.7942189237442315
-0.21860000000000007,-0.7919553856644476
-0.21960000000000007,-0.794077452614245
-0.22060000000000007,-0.7987459999037997
-0.22160000000000007,-0.8031316049333813
-0.22260000000000008,-0.8065269120530575
-0.22360000000000008,-0.8034145471933544
-0.22460000000000008,-0.8092148635228009
-0.22560000000000008,-0.8154395932422072
-0.22660000000000008,-0.8179860735819643
-0.22760000000000008,-0.8192593137518428
-0.22860000000000008,-0.8235034476514379
-0.22960000000000008,-0.827181697031087
-0.23060000000000008,-0.8281719949409925
-0.23160000000000008,-0.8278890526810195
-0.23260000000000008,-0.82746463929106
-0.23360000000000009,-0.828030523811006
-0.2346000000000001,-0.8311428886707091
-0.2356000000000001,-0.8335478978804797
-0.2366000000000001,-0.8331234844905201
-0.2376000000000001,-0.832840542230547
-0.2386000000000001,-0.8355284937002907
-0.2396000000000001,-0.8376505606500882
-0.2406000000000001,-0.8392067430799398
-0.2416000000000001,-0.8414702811597239
-0.2426000000000001,-0.8427435213296024
-0.2436000000000001,-0.8467047129692244
-0.2446000000000001,-0.846846184099211
-0.2456000000000001,-0.8493926644389681
-0.2466000000000001,-0.8495341355689546
-0.2476000000000001,-0.8516562025187521
-0.2486000000000001,-0.8523635581686846
-0.2496000000000001,-0.8539197405985361
-0.2506000000000001,-0.8546270962484687
-0.2516000000000001,-0.8560418075483337
-0.2526000000000001,-0.8570321054582393
-0.2536000000000001,-0.8564662209382933
-0.2546000000000001,-0.8566076920682798
-0.2556000000000001,-0.8571735765882258
-0.2566000000000001,-0.8592956435380232
-0.2576000000000001,-0.8607103548378884
-0.2586000000000001,-0.8629738929176723
-0.2596000000000001,-0.8629738929176723
-0.2606000000000001,-0.8648130176074971
-0.2616000000000001,-0.8662277289073619
-0.2626000000000001,-0.868774209247119
-0.2636000000000001,-0.8711792184568896
-0.2646000000000001,-0.8691986226370785
-0.2656000000000001,-0.8700474494169976
-0.2666000000000001,-0.8716036318468491
-0.2676000000000001,-0.8734427565366737
-0.2686000000000001,-0.8758477657464442
-0.2696000000000001,-0.8769795347863362
-0.2706000000000001,-0.8769795347863362
-0.2716000000000001,-0.8771210059163228
-0.2726000000000001,-0.8765551213963767
-0.2736000000000001,-0.8751404100965116
-0.2746000000000001,-0.8762721791364039
-0.2756000000000001,-0.8798089573860663
-0.2766000000000001,-0.8800918996460394
-0.2776000000000001,-0.8785357172161878
-0.2786000000000001,-0.8786771883461743
-0.2796000000000001,-0.8775454193062823
-0.2806000000000001,-0.8785357172161878
-0.28160000000000013,-0.8786771883461743
-0.28260000000000013,-0.8785357172161878
-0.28360000000000013,-0.8772624770463092
-0.2846,-0.8771210059163228
-0.2856,-0.8759892368764308
-0.2866,-0.8745745255765657
-0.2876,-0.8740086410566196
-0.2886,-0.8754233523564846
-0.2896,-0.8776868904362687
-0.2906,-0.8792430728661204
-0.2916,-0.8805163130359989
-0.2926,-0.8792430728661204
-0.2936,-0.8798089573860663
-0.29460000000000003,-0.8826383799857964
-0.29560000000000003,-0.8829213222457692
-0.29660000000000003,-0.8840530912856616
-0.29760000000000003,-0.8861751582354589
-0.29860000000000003,-0.8858922159754858
-0.29960000000000003,-0.8861751582354589
-0.30060000000000003,-0.889853407615108
-0.30160000000000003,-0.8909851766550001
-0.30260000000000004,-0.8871654561453645
-0.30360000000000004,-0.8849019180655805
-0.30460000000000004,-0.8863166293654455
-0.30560000000000004,-0.8864581004954319
-0.30660000000000004,-0.887023985015378
-0.30760000000000004,-0.8885801674452296
-0.30860000000000004,-0.8914095900449596
-0.30960000000000004,-0.8942390126446896
-0.31060000000000004,-0.8950878394246087
-0.31160000000000004,-0.8956537239445548
-0.31260000000000004,-0.8970684352444198
-0.31360000000000005,-0.8970684352444198
-0.31460000000000005,-0.8963610795944873
-0.31560000000000005,-0.8970684352444198
-0.31660000000000005,-0.8979172620243387
-0.31760000000000005,-0.9000393289741364
-0.31860000000000005,-0.9093764235532455
-0.31960000000000005,-0.9168743934425302
-0.32060000000000005,-0.9151767398826923
-0.32160000000000005,-0.9161670377925977
-0.32260000000000005,-0.9182891047423953
-0.32360000000000005,-0.9201282294322198
-0.32460000000000006,-0.9194208737822873
-0.32560000000000006,-0.9184305758723817
-0.32660000000000006,-0.9184305758723817
-0.32760000000000006,-0.9175817490924627
-0.32860000000000006,-0.9165914511825571
-0.32960000000000006,-0.9167329223125438
-0.33060000000000006,-0.9171573357025032
-0.33160000000000006,-0.9192794026523009
-0.33260000000000006,-0.9205526428221793
-0.33360000000000006,-0.9211185273421254
-0.33460000000000006,-0.9205526428221793
-0.33560000000000006,-0.9216844118620713
-0.33660000000000007,-0.9228161809019634
-0.33760000000000007,-0.9242308922018284
-0.33860000000000007,-0.9263529591516261
-0.33960000000000007,-0.9279091415814775
-0.34060000000000007,-0.9296067951413157
-0.34160000000000007,-0.9318703332210997
-0.34260000000000007,-0.9301726796612616
-0.34360000000000007,-0.926070016891653
-0.3446000000000001,-0.9274847281915181
-0.3456000000000001,-0.928333554971437
-0.3466000000000001,-0.9287579683613965
-0.34759999999999996,-0.9290409106213695
-0.3486000000000001,-0.9305970930512211
-0.34959999999999997,-0.931728862091113
-0.3506000000000001,-0.9331435733909781
-0.35159999999999997,-0.9341338713008838
-0.3526000000000001,-0.9359729959907083
-0.35359999999999997,-0.9371047650306003
-0.3546000000000001,-0.9385194763304654
-0.35559999999999997,-0.9402171298903033
-0.3566000000000001,-0.941490370060182
-0.3576,-0.9427636102300604
-0.3586000000000001,-0.9450271483098445
-0.3596,-0.9472906863896284
-0.3606000000000001,-0.9474321575196151
-0.3616,-0.948280984299534
-0.3626000000000001,-0.9487053976894935
-0.3636,-0.9505445223793181
-0.3646000000000001,-0.9529495315890888
-0.3656,-0.9553545407988592
-0.3666000000000001,-0.9577595500086299
-0.3676,-0.9607304437383465
-0.3686000000000001,-0.96341839520809
-0.3696,-0.965964875547847
-0.3706000000000001,-0.9687942981475771
-0.3716,-0.9690772404075502
-0.3726000000000001,-0.9699260671874691
-0.3736,-0.9728969609171857
-0.3746000000000001,-0.9760093257768889
-0.3756,-0.9784143349866592
-0.3766000000000001,-0.9812437575863894
-0.3776,-0.983365824536187
-0.3786000000000001,-0.986195247135917
-0.3796,-0.9890246697356472
-0.3806000000000001,-0.9910052655554581
-0.3816,-0.9932688036352422
-0.3826000000000001,-0.9963811684949454
-0.3836,-0.9997764756146215
-0.3846000000000001,-1.0034547249942705
-0.3856,-1.0060012053340277
-0.3866000000000001,-1.0079818011538386
-0.3876,-1.010669752623582
-0.3886000000000001,-1.0137821174832853
-0.3896,-1.0173188957329478
-0.3906000000000001,-1.02128008737257
-0.3916,-1.024675394492246
-0.3926000000000001,-1.0284951150018817
-0.3936,-1.0330221911614497
-0.3946000000000001,-1.036134556021153
-0.3956,-1.040378689920748
-0.3966000000000001,-1.0441984104303836
-0.3976,-1.0487254865899516
-0.3986000000000001,-1.0532525627495197
-0.3996,-1.0574966966491148
-0.4006000000000001,-1.062589657328629
-0.4016,-1.0679655602681162
-0.4026000000000001,-1.0741902899875224
-0.4036,-1.079707664056996
-0.4046000000000001,-1.0866397494263347
-0.4056,-1.0930059502757274
-0.40660000000000013,-1.0980989109552417
-0.4076,-1.103899227284688
-0.40860000000000013,-1.1091336590941887
-0.4096,-1.1162072155935139
-0.41060000000000013,-1.1224319453129201
-0.4116,-1.1309202131121103
-0.41260000000000013,-1.1391255386513275
-0.4136,-1.146906450800585
-0.41460000000000014,-1.1545458918198563
-0.4156,-1.1628926884890602
-0.41660000000000014,-1.1706736006383178
-0.4176,-1.1787374550475485
-0.41860000000000014,-1.1880745496266578
-0.41960000000000003,-1.1974116442057672
-0.42060000000000014,-1.2057584408749709
-0.42160000000000003,-1.2146711220641204
-0.42260000000000014,-1.2237252743832567
-0.42360000000000003,-1.233628253482312
-0.42460000000000014,-1.243672703711354
-0.42560000000000003,-1.2537171539403955
-0.42660000000000015,-1.2641860175593966
-0.42760000000000004,-1.274088996658452
-0.42860000000000015,-1.2854066870573722
-0.42960000000000004,-1.2955926084164004
-0.43060000000000015,-1.3059200009054155
-0.43160000000000004,-1.3163888645244166
-0.43260000000000015,-1.3278480260533234
-0.43360000000000004,-1.3388827741922709
-0.43460000000000015,-1.3489272244213124
-0.43560000000000004,-1.3596790303002868
-0.43660000000000015,-1.370713778439234
-0.43760000000000004,-1.3837291223979924
-0.43860000000000016,-1.3978762353966427
-0.43960000000000005,-1.4110330504853876
-0.44060000000000016,-1.423199567664227
-0.44160000000000005,-1.4345172580631471
-0.44260000000000016,-1.4472496597619326
-0.44360000000000005,-1.459982061460718
-0.44460000000000016,-1.471299751859638
-0.44560000000000005,-1.4840321535584236
-0.44660000000000016,-1.4967645552572086
-0.44760000000000005,-1.5094969569559942
