Dec. 12, 2024   17:11:26
Linear Sweep Voltammetry
File: c:/users/guazh/data/banditlqround7_x0exp59_r20/2024-12-09-exp639\1acid_1ac-2024-12-12t17_08_17-lsvinphos\1acid_1ac_lsv_50mvs_efin_-2100mv.bin
Data Source:  Experiment
Instrument Model:  CHI760E
Header: LSV ran at 50 mVs with Efin at -2100mV
Note: 

Init E (V) = -0.6
Final E (V) = -2.1
Scan Rate (V/s) = 0.05
Sample Interval (V) = 0.001
Quiet Time (sec) = 2
Sensitivity (A/V) = 1e-4
Comp R (ohm) = 8.2

Results:

Channel 1:
Ep = -0.876V
ip = 4.012e-4A
Ah = 6.785e-4C

Ep = -1.480V
ip = 5.720e-4A
Ah = 5.947e-4C

Potential/V, Current/A

-0.600, 2.139e-4
-0.601, 2.180e-4
-0.602, 2.225e-4
-0.603, 2.257e-4
-0.604, 2.283e-4
-0.605, 2.305e-4
-0.606, 2.325e-4
-0.607, 2.344e-4
-0.608, 2.362e-4
-0.609, 2.380e-4
-0.610, 2.397e-4
-0.611, 2.414e-4
-0.612, 2.431e-4
-0.613, 2.448e-4
-0.614, 2.464e-4
-0.615, 2.481e-4
-0.616, 2.497e-4
-0.617, 2.513e-4
-0.618, 2.529e-4
-0.619, 2.545e-4
-0.620, 2.560e-4
-0.621, 2.577e-4
-0.622, 2.593e-4
-0.623, 2.609e-4
-0.624, 2.625e-4
-0.625, 2.641e-4
-0.626, 2.657e-4
-0.627, 2.672e-4
-0.628, 2.688e-4
-0.629, 2.703e-4
-0.630, 2.719e-4
-0.631, 2.735e-4
-0.632, 2.750e-4
-0.633, 2.765e-4
-0.634, 2.781e-4
-0.635, 2.796e-4
-0.636, 2.812e-4
-0.637, 2.827e-4
-0.638, 2.842e-4
-0.639, 2.857e-4
-0.640, 2.872e-4
-0.641, 2.887e-4
-0.642, 2.901e-4
-0.643, 2.915e-4
-0.644, 2.930e-4
-0.645, 2.945e-4
-0.646, 2.959e-4
-0.647, 2.974e-4
-0.648, 2.988e-4
-0.649, 3.001e-4
-0.650, 3.015e-4
-0.651, 3.030e-4
-0.652, 3.044e-4
-0.653, 3.057e-4
-0.654, 3.071e-4
-0.655, 3.085e-4
-0.656, 3.099e-4
-0.657, 3.113e-4
-0.658, 3.126e-4
-0.659, 3.139e-4
-0.660, 3.152e-4
-0.661, 3.166e-4
-0.662, 3.180e-4
-0.663, 3.192e-4
-0.664, 3.205e-4
-0.665, 3.219e-4
-0.666, 3.233e-4
-0.667, 3.247e-4
-0.668, 3.259e-4
-0.669, 3.272e-4
-0.670, 3.286e-4
-0.671, 3.299e-4
-0.672, 3.314e-4
-0.673, 3.327e-4
-0.674, 3.340e-4
-0.675, 3.354e-4
-0.676, 3.368e-4
-0.677, 3.383e-4
-0.678, 3.397e-4
-0.679, 3.410e-4
-0.680, 3.425e-4
-0.681, 3.440e-4
-0.682, 3.455e-4
-0.683, 3.470e-4
-0.684, 3.485e-4
-0.685, 3.500e-4
-0.686, 3.517e-4
-0.687, 3.533e-4
-0.688, 3.549e-4
-0.689, 3.566e-4
-0.690, 3.583e-4
-0.691, 3.600e-4
-0.692, 3.618e-4
-0.693, 3.636e-4
-0.694, 3.655e-4
-0.695, 3.673e-4
-0.696, 3.692e-4
-0.697, 3.711e-4
-0.698, 3.732e-4
-0.699, 3.752e-4
-0.700, 3.772e-4
-0.701, 3.792e-4
-0.702, 3.814e-4
-0.703, 3.836e-4
-0.704, 3.858e-4
-0.705, 3.881e-4
-0.706, 3.903e-4
-0.707, 3.926e-4
-0.708, 3.950e-4
-0.709, 3.974e-4
-0.710, 3.999e-4
-0.711, 4.024e-4
-0.712, 4.049e-4
-0.713, 4.075e-4
-0.714, 4.101e-4
-0.715, 4.127e-4
-0.716, 4.154e-4
-0.717, 4.182e-4
-0.718, 4.210e-4
-0.719, 4.237e-4
-0.720, 4.265e-4
-0.721, 4.294e-4
-0.722, 4.323e-4
-0.723, 4.352e-4
-0.724, 4.380e-4
-0.725, 4.410e-4
-0.726, 4.442e-4
-0.727, 4.472e-4
-0.728, 4.503e-4
-0.729, 4.533e-4
-0.730, 4.564e-4
-0.731, 4.596e-4
-0.732, 4.629e-4
-0.733, 4.661e-4
-0.734, 4.693e-4
-0.735, 4.728e-4
-0.736, 4.762e-4
-0.737, 4.794e-4
-0.738, 4.828e-4
-0.739, 4.862e-4
-0.740, 4.897e-4
-0.741, 4.933e-4
-0.742, 4.968e-4
-0.743, 5.004e-4
-0.744, 5.039e-4
-0.745, 5.074e-4
-0.746, 5.111e-4
-0.747, 5.147e-4
-0.748, 5.183e-4
-0.749, 5.219e-4
-0.750, 5.256e-4
-0.751, 5.294e-4
-0.752, 5.330e-4
-0.753, 5.367e-4
-0.754, 5.406e-4
-0.755, 5.444e-4
-0.756, 5.482e-4
-0.757, 5.521e-4
-0.758, 5.558e-4
-0.759, 5.596e-4
-0.760, 5.634e-4
-0.761, 5.673e-4
-0.762, 5.712e-4
-0.763, 5.750e-4
-0.764, 5.789e-4
-0.765, 5.829e-4
-0.766, 5.869e-4
-0.767, 5.909e-4
-0.768, 5.949e-4
-0.769, 5.989e-4
-0.770, 6.028e-4
-0.771, 6.068e-4
-0.772, 6.108e-4
-0.773, 6.148e-4
-0.774, 6.188e-4
-0.775, 6.230e-4
-0.776, 6.270e-4
-0.777, 6.311e-4
-0.778, 6.352e-4
-0.779, 6.392e-4
-0.780, 6.432e-4
-0.781, 6.473e-4
-0.782, 6.513e-4
-0.783, 6.553e-4
-0.784, 6.595e-4
-0.785, 6.636e-4
-0.786, 6.676e-4
-0.787, 6.718e-4
-0.788, 6.759e-4
-0.789, 6.800e-4
-0.790, 6.841e-4
-0.791, 6.883e-4
-0.792, 6.925e-4
-0.793, 6.965e-4
-0.794, 7.006e-4
-0.795, 7.047e-4
-0.796, 7.089e-4
-0.797, 7.131e-4
-0.798, 7.172e-4
-0.799, 7.213e-4
-0.800, 7.253e-4
-0.801, 7.294e-4
-0.802, 7.335e-4
-0.803, 7.376e-4
-0.804, 7.417e-4
-0.805, 7.458e-4
-0.806, 7.499e-4
-0.807, 7.540e-4
-0.808, 7.581e-4
-0.809, 7.622e-4
-0.810, 7.662e-4
-0.811, 7.702e-4
-0.812, 7.743e-4
-0.813, 7.783e-4
-0.814, 7.824e-4
-0.815, 7.864e-4
-0.816, 7.904e-4
-0.817, 7.943e-4
-0.818, 7.983e-4
-0.819, 8.024e-4
-0.820, 8.065e-4
-0.821, 8.106e-4
-0.822, 8.147e-4
-0.823, 8.185e-4
-0.824, 8.224e-4
-0.825, 8.263e-4
-0.826, 8.303e-4
-0.827, 8.342e-4
-0.828, 8.381e-4
-0.829, 8.419e-4
-0.830, 8.459e-4
-0.831, 8.499e-4
-0.832, 8.538e-4
-0.833, 8.577e-4
-0.834, 8.616e-4
-0.835, 8.655e-4
-0.836, 8.693e-4
-0.837, 8.730e-4
-0.838, 8.768e-4
-0.839, 8.805e-4
-0.840, 8.844e-4
-0.841, 8.882e-4
-0.842, 8.919e-4
-0.843, 8.957e-4
-0.844, 8.993e-4
-0.845, 9.031e-4
-0.846, 9.069e-4
-0.847, 9.106e-4
-0.848, 9.143e-4
-0.849, 9.180e-4
-0.850, 9.216e-4
-0.851, 9.254e-4
-0.852, 9.292e-4
-0.853, 9.327e-4
-0.854, 9.364e-4
-0.855, 9.400e-4
-0.856, 9.437e-4
-0.857, 9.474e-4
-0.858, 9.510e-4
-0.859, 9.546e-4
-0.860, 9.582e-4
-0.861, 9.618e-4
-0.862, 9.653e-4
-0.863, 9.689e-4
-0.864, 9.724e-4
-0.865, 9.759e-4
-0.866, 9.794e-4
-0.867, 9.828e-4
-0.868, 9.862e-4
-0.869, 9.896e-4
-0.870, 9.932e-4
-0.871, 9.966e-4
-0.872, 1.000e-3
-0.873, 1.003e-3
-0.874, 1.007e-3
-0.875, 1.010e-3
-0.876, 1.011e-3
-0.877, 1.011e-3
-0.878, 1.011e-3
-0.879, 1.011e-3
-0.880, 1.011e-3
-0.881, 1.011e-3
-0.882, 1.011e-3
-0.883, 1.011e-3
-0.884, 1.011e-3
-0.885, 1.011e-3
-0.886, 1.011e-3
-0.887, 1.011e-3
-0.888, 1.011e-3
-0.889, 1.011e-3
-0.890, 1.011e-3
-0.891, 1.011e-3
-0.892, 1.011e-3
-0.893, 1.011e-3
-0.894, 1.011e-3
-0.895, 1.011e-3
-0.896, 1.011e-3
-0.897, 1.011e-3
-0.898, 1.011e-3
-0.899, 1.011e-3
-0.900, 1.011e-3
-0.901, 1.011e-3
-0.902, 1.011e-3
-0.903, 1.011e-3
-0.904, 1.011e-3
-0.905, 1.011e-3
-0.906, 1.011e-3
-0.907, 1.011e-3
-0.908, 1.011e-3
-0.909, 1.011e-3
-0.910, 1.011e-3
-0.911, 1.011e-3
-0.912, 1.011e-3
-0.913, 1.011e-3
-0.914, 1.011e-3
-0.915, 1.011e-3
-0.916, 1.011e-3
-0.917, 1.011e-3
-0.918, 1.011e-3
-0.919, 1.011e-3
-0.920, 1.011e-3
-0.921, 1.011e-3
-0.922, 1.011e-3
-0.923, 1.011e-3
-0.924, 1.011e-3
-0.925, 1.011e-3
-0.926, 1.011e-3
-0.927, 1.011e-3
-0.928, 1.011e-3
-0.929, 1.011e-3
-0.930, 1.011e-3
-0.931, 1.011e-3
-0.932, 1.011e-3
-0.933, 1.011e-3
-0.934, 1.011e-3
-0.935, 1.011e-3
-0.936, 1.011e-3
-0.937, 1.011e-3
-0.938, 1.011e-3
-0.939, 1.011e-3
-0.940, 1.011e-3
-0.941, 1.011e-3
-0.942, 1.011e-3
-0.943, 1.011e-3
-0.944, 1.011e-3
-0.945, 1.011e-3
-0.946, 1.011e-3
-0.947, 1.011e-3
-0.948, 1.011e-3
-0.949, 1.011e-3
-0.950, 1.011e-3
-0.951, 1.011e-3
-0.952, 1.011e-3
-0.953, 1.011e-3
-0.954, 1.011e-3
-0.955, 1.011e-3
-0.956, 1.011e-3
-0.957, 1.011e-3
-0.958, 1.011e-3
-0.959, 1.011e-3
-0.960, 1.011e-3
-0.961, 1.011e-3
-0.962, 1.011e-3
-0.963, 1.011e-3
-0.964, 1.011e-3
-0.965, 1.011e-3
-0.966, 1.011e-3
-0.967, 1.011e-3
-0.968, 1.011e-3
-0.969, 1.011e-3
-0.970, 1.011e-3
-0.971, 1.011e-3
-0.972, 1.011e-3
-0.973, 1.011e-3
-0.974, 1.011e-3
-0.975, 1.011e-3
-0.976, 1.011e-3
-0.977, 1.011e-3
-0.978, 1.011e-3
-0.979, 1.011e-3
-0.980, 1.011e-3
-0.981, 1.011e-3
-0.982, 1.011e-3
-0.983, 1.011e-3
-0.984, 1.011e-3
-0.985, 1.011e-3
-0.986, 1.011e-3
-0.987, 1.011e-3
-0.988, 1.011e-3
-0.989, 1.011e-3
-0.990, 1.011e-3
-0.991, 1.011e-3
-0.992, 1.011e-3
-0.993, 1.011e-3
-0.994, 1.011e-3
-0.995, 1.011e-3
-0.996, 1.011e-3
-0.997, 1.011e-3
-0.998, 1.011e-3
-0.999, 1.011e-3
-1.000, 1.011e-3
-1.001, 1.011e-3
-1.002, 1.011e-3
-1.003, 1.011e-3
-1.004, 1.011e-3
-1.005, 1.011e-3
-1.006, 1.011e-3
-1.007, 1.011e-3
-1.008, 1.011e-3
-1.009, 1.011e-3
-1.010, 1.011e-3
-1.011, 1.011e-3
-1.012, 1.011e-3
-1.013, 1.011e-3
-1.014, 1.011e-3
-1.015, 1.011e-3
-1.016, 1.011e-3
-1.017, 1.011e-3
-1.018, 1.011e-3
-1.019, 1.011e-3
-1.020, 1.011e-3
-1.021, 1.011e-3
-1.022, 1.011e-3
-1.023, 1.011e-3
-1.024, 1.011e-3
-1.025, 1.011e-3
-1.026, 1.011e-3
-1.027, 1.011e-3
-1.028, 1.011e-3
-1.029, 1.011e-3
-1.030, 1.011e-3
-1.031, 1.011e-3
-1.032, 1.011e-3
-1.033, 1.011e-3
-1.034, 1.011e-3
-1.035, 1.011e-3
-1.036, 1.011e-3
-1.037, 1.011e-3
-1.038, 1.011e-3
-1.039, 1.011e-3
-1.040, 1.011e-3
-1.041, 1.010e-3
-1.042, 1.006e-3
-1.043, 1.002e-3
-1.044, 9.977e-4
-1.045, 9.936e-4
-1.046, 9.895e-4
-1.047, 9.853e-4
-1.048, 9.808e-4
-1.049, 9.765e-4
-1.050, 9.723e-4
-1.051, 9.678e-4
-1.052, 9.633e-4
-1.053, 9.584e-4
-1.054, 9.543e-4
-1.055, 9.504e-4
-1.056, 9.459e-4
-1.057, 9.417e-4
-1.058, 9.372e-4
-1.059, 9.323e-4
-1.060, 9.281e-4
-1.061, 9.240e-4
-1.062, 9.199e-4
-1.063, 9.160e-4
-1.064, 9.114e-4
-1.065, 9.068e-4
-1.066, 9.027e-4
-1.067, 8.983e-4
-1.068, 8.941e-4
-1.069, 8.901e-4
-1.070, 8.862e-4
-1.071, 8.821e-4
-1.072, 8.780e-4
-1.073, 8.740e-4
-1.074, 8.699e-4
-1.075, 8.657e-4
-1.076, 8.618e-4
-1.077, 8.579e-4
-1.078, 8.540e-4
-1.079, 8.499e-4
-1.080, 8.462e-4
-1.081, 8.425e-4
-1.082, 8.390e-4
-1.083, 8.352e-4
-1.084, 8.313e-4
-1.085, 8.273e-4
-1.086, 8.234e-4
-1.087, 8.191e-4
-1.088, 8.150e-4
-1.089, 8.112e-4
-1.090, 8.075e-4
-1.091, 8.036e-4
-1.092, 8.001e-4
-1.093, 7.964e-4
-1.094, 7.927e-4
-1.095, 7.893e-4
-1.096, 7.857e-4
-1.097, 7.823e-4
-1.098, 7.790e-4
-1.099, 7.757e-4
-1.100, 7.720e-4
-1.101, 7.683e-4
-1.102, 7.644e-4
-1.103, 7.611e-4
-1.104, 7.579e-4
-1.105, 7.544e-4
-1.106, 7.511e-4
-1.107, 7.478e-4
-1.108, 7.443e-4
-1.109, 7.408e-4
-1.110, 7.376e-4
-1.111, 7.344e-4
-1.112, 7.313e-4
-1.113, 7.281e-4
-1.114, 7.250e-4
-1.115, 7.219e-4
-1.116, 7.185e-4
-1.117, 7.156e-4
-1.118, 7.126e-4
-1.119, 7.100e-4
-1.120, 7.072e-4
-1.121, 7.044e-4
-1.122, 7.017e-4
-1.123, 6.992e-4
-1.124, 6.959e-4
-1.125, 6.924e-4
-1.126, 6.896e-4
-1.127, 6.871e-4
-1.128, 6.843e-4
-1.129, 6.814e-4
-1.130, 6.783e-4
-1.131, 6.750e-4
-1.132, 6.725e-4
-1.133, 6.698e-4
-1.134, 6.672e-4
-1.135, 6.645e-4
-1.136, 6.618e-4
-1.137, 6.589e-4
-1.138, 6.567e-4
-1.139, 6.544e-4
-1.140, 6.520e-4
-1.141, 6.493e-4
-1.142, 6.472e-4
-1.143, 6.449e-4
-1.144, 6.422e-4
-1.145, 6.395e-4
-1.146, 6.377e-4
-1.147, 6.353e-4
-1.148, 6.327e-4
-1.149, 6.304e-4
-1.150, 6.277e-4
-1.151, 6.251e-4
-1.152, 6.226e-4
-1.153, 6.202e-4
-1.154, 6.187e-4
-1.155, 6.172e-4
-1.156, 6.142e-4
-1.157, 6.118e-4
-1.158, 6.103e-4
-1.159, 6.082e-4
-1.160, 6.057e-4
-1.161, 6.036e-4
-1.162, 6.015e-4
-1.163, 5.990e-4
-1.164, 5.967e-4
-1.165, 5.948e-4
-1.166, 5.934e-4
-1.167, 5.923e-4
-1.168, 5.897e-4
-1.169, 5.871e-4
-1.170, 5.850e-4
-1.171, 5.837e-4
-1.172, 5.817e-4
-1.173, 5.794e-4
-1.174, 5.775e-4
-1.175, 5.758e-4
-1.176, 5.737e-4
-1.177, 5.718e-4
-1.178, 5.699e-4
-1.179, 5.681e-4
-1.180, 5.663e-4
-1.181, 5.650e-4
-1.182, 5.641e-4
-1.183, 5.622e-4
-1.184, 5.600e-4
-1.185, 5.578e-4
-1.186, 5.559e-4
-1.187, 5.543e-4
-1.188, 5.528e-4
-1.189, 5.509e-4
-1.190, 5.494e-4
-1.191, 5.478e-4
-1.192, 5.464e-4
-1.193, 5.456e-4
-1.194, 5.445e-4
-1.195, 5.431e-4
-1.196, 5.418e-4
-1.197, 5.403e-4
-1.198, 5.385e-4
-1.199, 5.369e-4
-1.200, 5.355e-4
-1.201, 5.338e-4
-1.202, 5.321e-4
-1.203, 5.305e-4
-1.204, 5.298e-4
-1.205, 5.289e-4
-1.206, 5.272e-4
-1.207, 5.257e-4
-1.208, 5.248e-4
-1.209, 5.231e-4
-1.210, 5.224e-4
-1.211, 5.207e-4
-1.212, 5.190e-4
-1.213, 5.182e-4
-1.214, 5.169e-4
-1.215, 5.153e-4
-1.216, 5.139e-4
-1.217, 5.127e-4
-1.218, 5.117e-4
-1.219, 5.104e-4
-1.220, 5.087e-4
-1.221, 5.083e-4
-1.222, 5.068e-4
-1.223, 5.064e-4
-1.224, 5.050e-4
-1.225, 5.035e-4
-1.226, 5.030e-4
-1.227, 5.024e-4
-1.228, 5.010e-4
-1.229, 4.997e-4
-1.230, 4.996e-4
-1.231, 4.983e-4
-1.232, 4.968e-4
-1.233, 4.957e-4
-1.234, 4.951e-4
-1.235, 4.949e-4
-1.236, 4.944e-4
-1.237, 4.924e-4
-1.238, 4.916e-4
-1.239, 4.904e-4
-1.240, 4.893e-4
-1.241, 4.880e-4
-1.242, 4.868e-4
-1.243, 4.859e-4
-1.244, 4.848e-4
-1.245, 4.838e-4
-1.246, 4.820e-4
-1.247, 4.803e-4
-1.248, 4.801e-4
-1.249, 4.791e-4
-1.250, 4.788e-4
-1.251, 4.776e-4
-1.252, 4.764e-4
-1.253, 4.750e-4
-1.254, 4.738e-4
-1.255, 4.720e-4
-1.256, 4.706e-4
-1.257, 4.696e-4
-1.258, 4.688e-4
-1.259, 4.686e-4
-1.260, 4.680e-4
-1.261, 4.674e-4
-1.262, 4.664e-4
-1.263, 4.646e-4
-1.264, 4.639e-4
-1.265, 4.630e-4
-1.266, 4.620e-4
-1.267, 4.620e-4
-1.268, 4.610e-4
-1.269, 4.600e-4
-1.270, 4.593e-4
-1.271, 4.586e-4
-1.272, 4.577e-4
-1.273, 4.578e-4
-1.274, 4.570e-4
-1.275, 4.581e-4
-1.276, 4.577e-4
-1.277, 4.569e-4
-1.278, 4.548e-4
-1.279, 4.528e-4
-1.280, 4.522e-4
-1.281, 4.517e-4
-1.282, 4.521e-4
-1.283, 4.512e-4
-1.284, 4.514e-4
-1.285, 4.515e-4
-1.286, 4.508e-4
-1.287, 4.502e-4
-1.288, 4.496e-4
-1.289, 4.485e-4
-1.290, 4.472e-4
-1.291, 4.468e-4
-1.292, 4.466e-4
-1.293, 4.464e-4
-1.294, 4.454e-4
-1.295, 4.442e-4
-1.296, 4.435e-4
-1.297, 4.428e-4
-1.298, 4.431e-4
-1.299, 4.428e-4
-1.300, 4.414e-4
-1.301, 4.415e-4
-1.302, 4.405e-4
-1.303, 4.395e-4
-1.304, 4.388e-4
-1.305, 4.389e-4
-1.306, 4.387e-4
-1.307, 4.378e-4
-1.308, 4.369e-4
-1.309, 4.370e-4
-1.310, 4.369e-4
-1.311, 4.368e-4
-1.312, 4.370e-4
-1.313, 4.365e-4
-1.314, 4.353e-4
-1.315, 4.350e-4
-1.316, 4.355e-4
-1.317, 4.356e-4
-1.318, 4.352e-4
-1.319, 4.352e-4
-1.320, 4.352e-4
-1.321, 4.351e-4
-1.322, 4.354e-4
-1.323, 4.352e-4
-1.324, 4.355e-4
-1.325, 4.355e-4
-1.326, 4.347e-4
-1.327, 4.350e-4
-1.328, 4.354e-4
-1.329, 4.356e-4
-1.330, 4.353e-4
-1.331, 4.353e-4
-1.332, 4.348e-4
-1.333, 4.356e-4
-1.334, 4.364e-4
-1.335, 4.375e-4
-1.336, 4.383e-4
-1.337, 4.385e-4
-1.338, 4.398e-4
-1.339, 4.408e-4
-1.340, 4.409e-4
-1.341, 4.417e-4
-1.342, 4.430e-4
-1.343, 4.433e-4
-1.344, 4.447e-4
-1.345, 4.463e-4
-1.346, 4.472e-4
-1.347, 4.492e-4
-1.348, 4.505e-4
-1.349, 4.528e-4
-1.350, 4.543e-4
-1.351, 4.553e-4
-1.352, 4.555e-4
-1.353, 4.556e-4
-1.354, 4.562e-4
-1.355, 4.577e-4
-1.356, 4.590e-4
-1.357, 4.604e-4
-1.358, 4.633e-4
-1.359, 4.649e-4
-1.360, 4.666e-4
-1.361, 4.684e-4
-1.362, 4.699e-4
-1.363, 4.724e-4
-1.364, 4.745e-4
-1.365, 4.765e-4
-1.366, 4.786e-4
-1.367, 4.802e-4
-1.368, 4.827e-4
-1.369, 4.851e-4
-1.370, 4.861e-4
-1.371, 4.871e-4
-1.372, 4.892e-4
-1.373, 4.919e-4
-1.374, 4.945e-4
-1.375, 4.969e-4
-1.376, 5.005e-4
-1.377, 5.033e-4
-1.378, 5.054e-4
-1.379, 5.079e-4
-1.380, 5.085e-4
-1.381, 5.117e-4
-1.382, 5.149e-4
-1.383, 5.183e-4
-1.384, 5.220e-4
-1.385, 5.243e-4
-1.386, 5.275e-4
-1.387, 5.307e-4
-1.388, 5.331e-4
-1.389, 5.365e-4
-1.390, 5.389e-4
-1.391, 5.424e-4
-1.392, 5.458e-4
-1.393, 5.491e-4
-1.394, 5.517e-4
-1.395, 5.539e-4
-1.396, 5.570e-4
-1.397, 5.595e-4
-1.398, 5.618e-4
-1.399, 5.659e-4
-1.400, 5.703e-4
-1.401, 5.735e-4
-1.402, 5.767e-4
-1.403, 5.798e-4
-1.404, 5.834e-4
-1.405, 5.877e-4
-1.406, 5.917e-4
-1.407, 5.941e-4
-1.408, 5.973e-4
-1.409, 6.010e-4
-1.410, 6.044e-4
-1.411, 6.076e-4
-1.412, 6.115e-4
-1.413, 6.160e-4
-1.414, 6.194e-4
-1.415, 6.230e-4
-1.416, 6.277e-4
-1.417, 6.323e-4
-1.418, 6.353e-4
-1.419, 6.390e-4
-1.420, 6.437e-4
-1.421, 6.480e-4
-1.422, 6.516e-4
-1.423, 6.560e-4
-1.424, 6.614e-4
-1.425, 6.664e-4
-1.426, 6.704e-4
-1.427, 6.753e-4
-1.428, 6.818e-4
-1.429, 6.879e-4
-1.430, 6.941e-4
-1.431, 6.986e-4
-1.432, 7.031e-4
-1.433, 7.070e-4
-1.434, 7.119e-4
-1.435, 7.178e-4
-1.436, 7.234e-4
-1.437, 7.289e-4
-1.438, 7.341e-4
-1.439, 7.401e-4
-1.440, 7.449e-4
-1.441, 7.491e-4
-1.442, 7.549e-4
-1.443, 7.601e-4
-1.444, 7.672e-4
-1.445, 7.751e-4
-1.446, 7.819e-4
-1.447, 7.876e-4
-1.448, 7.941e-4
-1.449, 8.000e-4
-1.450, 8.070e-4
-1.451, 8.136e-4
-1.452, 8.206e-4
-1.453, 8.283e-4
-1.454, 8.348e-4
-1.455, 8.416e-4
-1.456, 8.489e-4
-1.457, 8.569e-4
-1.458, 8.641e-4
-1.459, 8.705e-4
-1.460, 8.765e-4
-1.461, 8.831e-4
-1.462, 8.897e-4
-1.463, 8.965e-4
-1.464, 9.038e-4
-1.465, 9.108e-4
-1.466, 9.184e-4
-1.467, 9.263e-4
-1.468, 9.339e-4
-1.469, 9.403e-4
-1.470, 9.468e-4
-1.471, 9.542e-4
-1.472, 9.614e-4
-1.473, 9.698e-4
-1.474, 9.771e-4
-1.475, 9.839e-4
-1.476, 9.904e-4
-1.477, 9.973e-4
-1.478, 1.004e-3
-1.479, 1.010e-3
-1.480, 1.011e-3
-1.481, 1.011e-3
-1.482, 1.011e-3
-1.483, 1.011e-3
-1.484, 1.011e-3
-1.485, 1.011e-3
-1.486, 1.011e-3
-1.487, 1.011e-3
-1.488, 1.011e-3
-1.489, 1.011e-3
-1.490, 1.011e-3
-1.491, 1.011e-3
-1.492, 1.011e-3
-1.493, 1.011e-3
-1.494, 1.011e-3
-1.495, 1.011e-3
-1.496, 1.011e-3
-1.497, 1.011e-3
-1.498, 1.011e-3
-1.499, 1.011e-3
-1.500, 1.011e-3
-1.501, 1.011e-3
-1.502, 1.011e-3
-1.503, 1.011e-3
-1.504, 1.011e-3
-1.505, 1.011e-3
-1.506, 1.011e-3
-1.507, 1.011e-3
-1.508, 1.011e-3
-1.509, 1.011e-3
-1.510, 1.011e-3
-1.511, 1.011e-3
-1.512, 1.011e-3
-1.513, 1.011e-3
-1.514, 1.011e-3
-1.515, 1.011e-3
-1.516, 1.011e-3
-1.517, 1.011e-3
-1.518, 1.011e-3
-1.519, 1.011e-3
-1.520, 1.011e-3
-1.521, 1.011e-3
-1.522, 1.011e-3
-1.523, 1.011e-3
-1.524, 1.011e-3
-1.525, 1.011e-3
-1.526, 1.011e-3
-1.527, 1.011e-3
-1.528, 1.011e-3
-1.529, 1.011e-3
-1.530, 1.011e-3
-1.531, 1.011e-3
-1.532, 1.011e-3
-1.533, 1.011e-3
-1.534, 1.011e-3
-1.535, 1.011e-3
-1.536, 1.011e-3
-1.537, 1.011e-3
-1.538, 1.011e-3
-1.539, 1.011e-3
-1.540, 1.011e-3
-1.541, 1.011e-3
-1.542, 1.011e-3
-1.543, 1.011e-3
-1.544, 1.011e-3
-1.545, 1.011e-3
-1.546, 1.011e-3
-1.547, 1.011e-3
-1.548, 1.011e-3
-1.549, 1.011e-3
-1.550, 1.011e-3
-1.551, 1.011e-3
-1.552, 1.011e-3
-1.553, 1.011e-3
-1.554, 1.011e-3
-1.555, 1.011e-3
-1.556, 1.011e-3
-1.557, 1.011e-3
-1.558, 1.011e-3
-1.559, 1.011e-3
-1.560, 1.011e-3
-1.561, 1.011e-3
-1.562, 1.011e-3
-1.563, 1.011e-3
-1.564, 1.011e-3
-1.565, 1.011e-3
-1.566, 1.011e-3
-1.567, 1.011e-3
-1.568, 1.011e-3
-1.569, 1.011e-3
-1.570, 1.011e-3
-1.571, 1.011e-3
-1.572, 1.011e-3
-1.573, 1.011e-3
-1.574, 1.011e-3
-1.575, 1.011e-3
-1.576, 1.011e-3
-1.577, 1.011e-3
-1.578, 1.011e-3
-1.579, 1.011e-3
-1.580, 1.011e-3
-1.581, 1.011e-3
-1.582, 1.011e-3
-1.583, 1.011e-3
-1.584, 1.011e-3
-1.585, 1.011e-3
-1.586, 1.011e-3
-1.587, 1.011e-3
-1.588, 1.011e-3
-1.589, 1.011e-3
-1.590, 1.011e-3
-1.591, 1.011e-3
-1.592, 1.011e-3
-1.593, 1.011e-3
-1.594, 1.011e-3
-1.595, 1.011e-3
-1.596, 1.011e-3
-1.597, 1.011e-3
-1.598, 1.011e-3
-1.599, 1.011e-3
-1.600, 1.011e-3
-1.601, 1.011e-3
-1.602, 1.011e-3
-1.603, 1.011e-3
-1.604, 1.011e-3
-1.605, 1.011e-3
-1.606, 1.011e-3
-1.607, 1.011e-3
-1.608, 1.011e-3
-1.609, 1.011e-3
-1.610, 1.011e-3
-1.611, 1.011e-3
-1.612, 1.011e-3
-1.613, 1.011e-3
-1.614, 1.011e-3
-1.615, 1.011e-3
-1.616, 1.011e-3
-1.617, 1.011e-3
-1.618, 1.011e-3
-1.619, 1.011e-3
-1.620, 1.011e-3
-1.621, 1.011e-3
-1.622, 1.011e-3
-1.623, 1.011e-3
-1.624, 1.011e-3
-1.625, 1.011e-3
-1.626, 1.011e-3
-1.627, 1.011e-3
-1.628, 1.011e-3
-1.629, 1.011e-3
-1.630, 1.011e-3
-1.631, 1.011e-3
-1.632, 1.011e-3
-1.633, 1.011e-3
-1.634, 1.011e-3
-1.635, 1.011e-3
-1.636, 1.011e-3
-1.637, 1.011e-3
-1.638, 1.011e-3
-1.639, 1.011e-3
-1.640, 1.011e-3
-1.641, 1.011e-3
-1.642, 1.011e-3
-1.643, 1.011e-3
-1.644, 1.011e-3
-1.645, 1.011e-3
-1.646, 1.011e-3
-1.647, 1.011e-3
-1.648, 1.011e-3
-1.649, 1.011e-3
-1.650, 1.011e-3
-1.651, 1.011e-3
-1.652, 1.011e-3
-1.653, 1.011e-3
-1.654, 1.011e-3
-1.655, 1.011e-3
-1.656, 1.011e-3
-1.657, 1.011e-3
-1.658, 1.011e-3
-1.659, 1.011e-3
-1.660, 1.011e-3
-1.661, 1.011e-3
-1.662, 1.011e-3
-1.663, 1.011e-3
-1.664, 1.011e-3
-1.665, 1.011e-3
-1.666, 1.011e-3
-1.667, 1.011e-3
-1.668, 1.011e-3
-1.669, 1.011e-3
-1.670, 1.011e-3
-1.671, 1.011e-3
-1.672, 1.011e-3
-1.673, 1.011e-3
-1.674, 1.011e-3
-1.675, 1.011e-3
-1.676, 1.011e-3
-1.677, 1.011e-3
-1.678, 1.011e-3
-1.679, 1.011e-3
-1.680, 1.011e-3
-1.681, 1.011e-3
-1.682, 1.011e-3
-1.683, 1.011e-3
-1.684, 1.011e-3
-1.685, 1.011e-3
-1.686, 1.011e-3
-1.687, 1.011e-3
-1.688, 1.011e-3
-1.689, 1.011e-3
-1.690, 1.011e-3
-1.691, 1.011e-3
-1.692, 1.011e-3
-1.693, 1.011e-3
-1.694, 1.011e-3
-1.695, 1.011e-3
-1.696, 1.011e-3
-1.697, 1.011e-3
-1.698, 1.011e-3
-1.699, 1.011e-3
-1.700, 1.011e-3
-1.701, 1.011e-3
-1.702, 1.011e-3
-1.703, 1.011e-3
-1.704, 1.011e-3
-1.705, 1.011e-3
-1.706, 1.011e-3
-1.707, 1.011e-3
-1.708, 1.011e-3
-1.709, 1.011e-3
-1.710, 1.011e-3
-1.711, 1.011e-3
-1.712, 1.011e-3
-1.713, 1.011e-3
-1.714, 1.011e-3
-1.715, 1.011e-3
-1.716, 1.011e-3
-1.717, 1.011e-3
-1.718, 1.011e-3
-1.719, 1.011e-3
-1.720, 1.011e-3
-1.721, 1.011e-3
-1.722, 1.011e-3
-1.723, 1.011e-3
-1.724, 1.011e-3
-1.725, 1.011e-3
-1.726, 1.011e-3
-1.727, 1.011e-3
-1.728, 1.011e-3
-1.729, 1.011e-3
-1.730, 1.011e-3
-1.731, 1.011e-3
-1.732, 1.011e-3
-1.733, 1.011e-3
-1.734, 1.011e-3
-1.735, 1.011e-3
-1.736, 1.011e-3
-1.737, 1.011e-3
-1.738, 1.011e-3
-1.739, 1.011e-3
-1.740, 1.011e-3
-1.741, 1.011e-3
-1.742, 1.011e-3
-1.743, 1.011e-3
-1.744, 1.011e-3
-1.745, 1.011e-3
-1.746, 1.011e-3
-1.747, 1.011e-3
-1.748, 1.011e-3
-1.749, 1.011e-3
-1.750, 1.011e-3
-1.751, 1.011e-3
-1.752, 1.011e-3
-1.753, 1.011e-3
-1.754, 1.011e-3
-1.755, 1.011e-3
-1.756, 1.011e-3
-1.757, 1.011e-3
-1.758, 1.011e-3
-1.759, 1.011e-3
-1.760, 1.011e-3
-1.761, 1.011e-3
-1.762, 1.011e-3
-1.763, 1.011e-3
-1.764, 1.011e-3
-1.765, 1.011e-3
-1.766, 1.011e-3
-1.767, 1.011e-3
-1.768, 1.011e-3
-1.769, 1.011e-3
-1.770, 1.011e-3
-1.771, 1.011e-3
-1.772, 1.011e-3
-1.773, 1.011e-3
-1.774, 1.011e-3
-1.775, 1.011e-3
-1.776, 1.011e-3
-1.777, 1.011e-3
-1.778, 1.011e-3
-1.779, 1.011e-3
-1.780, 1.011e-3
-1.781, 1.011e-3
-1.782, 1.011e-3
-1.783, 1.011e-3
-1.784, 1.011e-3
-1.785, 1.011e-3
-1.786, 1.011e-3
-1.787, 1.011e-3
-1.788, 1.011e-3
-1.789, 1.011e-3
-1.790, 1.011e-3
-1.791, 1.011e-3
-1.792, 1.011e-3
-1.793, 1.011e-3
-1.794, 1.011e-3
-1.795, 1.011e-3
-1.796, 1.011e-3
-1.797, 1.011e-3
-1.798, 1.011e-3
-1.799, 1.011e-3
-1.800, 1.011e-3
-1.801, 1.011e-3
-1.802, 1.011e-3
-1.803, 1.011e-3
-1.804, 1.011e-3
-1.805, 1.011e-3
-1.806, 1.011e-3
-1.807, 1.011e-3
-1.808, 1.011e-3
-1.809, 1.011e-3
-1.810, 1.011e-3
-1.811, 1.011e-3
-1.812, 1.011e-3
-1.813, 1.011e-3
-1.814, 1.011e-3
-1.815, 1.011e-3
-1.816, 1.011e-3
-1.817, 1.011e-3
-1.818, 1.011e-3
-1.819, 1.011e-3
-1.820, 1.011e-3
-1.821, 1.011e-3
-1.822, 1.011e-3
-1.823, 1.011e-3
-1.824, 1.011e-3
-1.825, 1.011e-3
-1.826, 1.011e-3
-1.827, 1.011e-3
-1.828, 1.011e-3
-1.829, 1.011e-3
-1.830, 1.011e-3
-1.831, 1.011e-3
-1.832, 1.011e-3
-1.833, 1.011e-3
-1.834, 1.011e-3
-1.835, 1.011e-3
-1.836, 1.011e-3
-1.837, 1.011e-3
-1.838, 1.011e-3
-1.839, 1.011e-3
-1.840, 1.011e-3
-1.841, 1.011e-3
-1.842, 1.011e-3
-1.843, 1.011e-3
-1.844, 1.011e-3
-1.845, 1.011e-3
-1.846, 1.011e-3
-1.847, 1.011e-3
-1.848, 1.011e-3
-1.849, 1.011e-3
-1.850, 1.011e-3
-1.851, 1.011e-3
-1.852, 1.011e-3
-1.853, 1.011e-3
-1.854, 1.011e-3
-1.855, 1.011e-3
-1.856, 1.011e-3
-1.857, 1.011e-3
-1.858, 1.011e-3
-1.859, 1.011e-3
-1.860, 1.011e-3
-1.861, 1.011e-3
-1.862, 1.011e-3
-1.863, 1.011e-3
-1.864, 1.011e-3
-1.865, 1.011e-3
-1.866, 1.011e-3
-1.867, 1.011e-3
-1.868, 1.011e-3
-1.869, 1.011e-3
-1.870, 1.011e-3
-1.871, 1.011e-3
-1.872, 1.011e-3
-1.873, 1.011e-3
-1.874, 1.011e-3
-1.875, 1.011e-3
-1.876, 1.011e-3
-1.877, 1.011e-3
-1.878, 1.011e-3
-1.879, 1.011e-3
-1.880, 1.011e-3
-1.881, 1.011e-3
-1.882, 1.011e-3
-1.883, 1.011e-3
-1.884, 1.011e-3
-1.885, 1.011e-3
-1.886, 1.011e-3
-1.887, 1.011e-3
-1.888, 1.011e-3
-1.889, 1.011e-3
-1.890, 1.011e-3
-1.891, 1.011e-3
-1.892, 1.011e-3
-1.893, 1.011e-3
-1.894, 1.011e-3
-1.895, 1.011e-3
-1.896, 1.011e-3
-1.897, 1.011e-3
-1.898, 1.011e-3
-1.899, 1.011e-3
-1.900, 1.011e-3
-1.901, 1.011e-3
-1.902, 1.011e-3
-1.903, 1.011e-3
-1.904, 1.011e-3
-1.905, 1.011e-3
-1.906, 1.011e-3
-1.907, 1.011e-3
-1.908, 1.011e-3
-1.909, 1.011e-3
-1.910, 1.011e-3
-1.911, 1.011e-3
-1.912, 1.011e-3
-1.913, 1.011e-3
-1.914, 1.011e-3
-1.915, 1.011e-3
-1.916, 1.011e-3
-1.917, 1.011e-3
-1.918, 1.011e-3
-1.919, 1.011e-3
-1.920, 1.011e-3
-1.921, 1.011e-3
-1.922, 1.011e-3
-1.923, 1.011e-3
-1.924, 1.011e-3
-1.925, 1.011e-3
-1.926, 1.011e-3
-1.927, 1.011e-3
-1.928, 1.011e-3
-1.929, 1.011e-3
-1.930, 1.011e-3
-1.931, 1.011e-3
-1.932, 1.011e-3
-1.933, 1.011e-3
-1.934, 1.011e-3
-1.935, 1.011e-3
-1.936, 1.011e-3
-1.937, 1.011e-3
-1.938, 1.011e-3
-1.939, 1.011e-3
-1.940, 1.011e-3
-1.941, 1.011e-3
-1.942, 1.011e-3
-1.943, 1.011e-3
-1.944, 1.011e-3
-1.945, 1.011e-3
-1.946, 1.011e-3
-1.947, 1.011e-3
-1.948, 1.011e-3
-1.949, 1.011e-3
-1.950, 1.011e-3
-1.951, 1.011e-3
-1.952, 1.011e-3
-1.953, 1.011e-3
-1.954, 1.011e-3
-1.955, 1.011e-3
-1.956, 1.011e-3
-1.957, 1.011e-3
-1.958, 1.011e-3
-1.959, 1.011e-3
-1.960, 1.011e-3
-1.961, 1.011e-3
-1.962, 1.011e-3
-1.963, 1.011e-3
-1.964, 1.011e-3
-1.965, 1.011e-3
-1.966, 1.011e-3
-1.967, 1.011e-3
-1.968, 1.011e-3
-1.969, 1.011e-3
-1.970, 1.011e-3
-1.971, 1.011e-3
-1.972, 1.011e-3
-1.973, 1.011e-3
-1.974, 1.011e-3
-1.975, 1.011e-3
-1.976, 1.011e-3
-1.977, 1.011e-3
-1.978, 1.011e-3
-1.979, 1.011e-3
-1.980, 1.011e-3
-1.981, 1.011e-3
-1.982, 1.011e-3
-1.983, 1.011e-3
-1.984, 1.011e-3
-1.985, 1.011e-3
-1.986, 1.011e-3
-1.987, 1.011e-3
-1.988, 1.011e-3
-1.989, 1.011e-3
-1.990, 1.011e-3
-1.991, 1.011e-3
-1.992, 1.011e-3
-1.993, 1.011e-3
-1.994, 1.011e-3
-1.995, 1.011e-3
-1.996, 1.011e-3
-1.997, 1.011e-3
-1.998, 1.011e-3
-1.999, 1.011e-3
-2.000, 1.011e-3
-2.001, 1.011e-3
-2.002, 1.011e-3
-2.003, 1.011e-3
-2.004, 1.011e-3
-2.005, 1.011e-3
-2.006, 1.011e-3
-2.007, 1.011e-3
-2.008, 1.011e-3
-2.009, 1.011e-3
-2.010, 1.011e-3
-2.011, 1.011e-3
-2.012, 1.011e-3
-2.013, 1.011e-3
-2.014, 1.011e-3
-2.015, 1.011e-3
-2.016, 1.011e-3
-2.017, 1.011e-3
-2.018, 1.011e-3
-2.019, 1.011e-3
-2.020, 1.011e-3
-2.021, 1.011e-3
-2.022, 1.011e-3
-2.023, 1.011e-3
-2.024, 1.011e-3
-2.025, 1.011e-3
-2.026, 1.011e-3
-2.027, 1.011e-3
-2.028, 1.011e-3
-2.029, 1.011e-3
-2.030, 1.011e-3
-2.031, 1.011e-3
-2.032, 1.011e-3
-2.033, 1.011e-3
-2.034, 1.011e-3
-2.035, 1.011e-3
-2.036, 1.011e-3
-2.037, 1.011e-3
-2.038, 1.011e-3
-2.039, 1.011e-3
-2.040, 1.011e-3
-2.041, 1.011e-3
-2.042, 1.011e-3
-2.043, 1.011e-3
-2.044, 1.011e-3
-2.045, 1.011e-3
-2.046, 1.011e-3
-2.047, 1.011e-3
-2.048, 1.011e-3
-2.049, 1.011e-3
-2.050, 1.011e-3
-2.051, 1.011e-3
-2.052, 1.011e-3
-2.053, 1.011e-3
-2.054, 1.011e-3
-2.055, 1.011e-3
-2.056, 1.011e-3
-2.057, 1.011e-3
-2.058, 1.011e-3
-2.059, 1.011e-3
-2.060, 1.011e-3
-2.061, 1.011e-3
-2.062, 1.011e-3
-2.063, 1.011e-3
-2.064, 1.011e-3
-2.065, 1.011e-3
-2.066, 1.011e-3
-2.067, 1.011e-3
-2.068, 1.011e-3
-2.069, 1.011e-3
-2.070, 1.011e-3
-2.071, 1.011e-3
-2.072, 1.011e-3
-2.073, 1.011e-3
-2.074, 1.011e-3
-2.075, 1.011e-3
-2.076, 1.011e-3
-2.077, 1.011e-3
-2.078, 1.011e-3
-2.079, 1.011e-3
-2.080, 1.011e-3
-2.081, 1.011e-3
-2.082, 1.011e-3
-2.083, 1.011e-3
-2.084, 1.011e-3
-2.085, 1.011e-3
-2.086, 1.011e-3
-2.087, 1.011e-3
-2.088, 1.011e-3
-2.089, 1.011e-3
-2.090, 1.011e-3
-2.091, 1.011e-3
-2.092, 1.011e-3
-2.093, 1.011e-3
-2.094, 1.011e-3
-2.095, 1.011e-3
-2.096, 1.011e-3
-2.097, 1.011e-3
-2.098, 1.011e-3
-2.099, 1.011e-3
