Apr. 3, 2025   14:27:41
Linear Sweep Voltammetry
File: c:/users/guazh/data/banditlqround7_x0exp518_r20/2025-03-28-exp1030\post-regen1-2025-04-03t14_24_28-lsvinphos\post-regen1_lsv_50mvs_efin_-2300mv.bin
Data Source:  Experiment
Instrument Model:  CHI760E
Header: LSV ran at 50 mVs with Efin at -2300mV
Note: 

Init E (V) = -0.6
Final E (V) = -2.3
Scan Rate (V/s) = 0.05
Sample Interval (V) = 0.001
Quiet Time (sec) = 2
Sensitivity (A/V) = 1e-4
Comp R (ohm) = 10.3

Results:

Channel 1:
Ep = -1.689V
ip = 5.073e-4A
Ah = 7.379e-4C

Potential/V, Current/A

-0.600, 8.953e-6
-0.601, 9.043e-6
-0.602, 9.123e-6
-0.603, 9.063e-6
-0.604, 9.007e-6
-0.605, 9.128e-6
-0.606, 9.079e-6
-0.607, 9.189e-6
-0.608, 9.194e-6
-0.609, 9.176e-6
-0.610, 9.211e-6
-0.611, 9.312e-6
-0.612, 9.267e-6
-0.613, 9.228e-6
-0.614, 9.261e-6
-0.615, 9.268e-6
-0.616, 9.187e-6
-0.617, 9.154e-6
-0.618, 9.127e-6
-0.619, 9.111e-6
-0.620, 9.204e-6
-0.621, 9.202e-6
-0.622, 9.253e-6
-0.623, 9.349e-6
-0.624, 9.334e-6
-0.625, 9.386e-6
-0.626, 9.391e-6
-0.627, 9.382e-6
-0.628, 9.376e-6
-0.629, 9.610e-6
-0.630, 9.679e-6
-0.631, 9.572e-6
-0.632, 9.608e-6
-0.633, 9.633e-6
-0.634, 9.682e-6
-0.635, 9.630e-6
-0.636, 9.597e-6
-0.637, 9.649e-6
-0.638, 9.693e-6
-0.639, 9.659e-6
-0.640, 9.674e-6
-0.641, 9.606e-6
-0.642, 9.648e-6
-0.643, 9.656e-6
-0.644, 9.649e-6
-0.645, 9.698e-6
-0.646, 9.660e-6
-0.647, 9.605e-6
-0.648, 9.418e-6
-0.649, 9.503e-6
-0.650, 9.520e-6
-0.651, 9.423e-6
-0.652, 9.427e-6
-0.653, 9.411e-6
-0.654, 9.349e-6
-0.655, 9.388e-6
-0.656, 9.454e-6
-0.657, 9.380e-6
-0.658, 9.413e-6
-0.659, 9.464e-6
-0.660, 9.462e-6
-0.661, 9.483e-6
-0.662, 9.573e-6
-0.663, 9.573e-6
-0.664, 9.560e-6
-0.665, 9.612e-6
-0.666, 9.590e-6
-0.667, 9.673e-6
-0.668, 9.738e-6
-0.669, 9.742e-6
-0.670, 9.671e-6
-0.671, 9.643e-6
-0.672, 9.659e-6
-0.673, 9.614e-6
-0.674, 9.679e-6
-0.675, 9.701e-6
-0.676, 9.698e-6
-0.677, 9.778e-6
-0.678, 9.812e-6
-0.679, 9.809e-6
-0.680, 9.773e-6
-0.681, 9.701e-6
-0.682, 9.771e-6
-0.683, 9.736e-6
-0.684, 9.803e-6
-0.685, 9.861e-6
-0.686, 9.883e-6
-0.687, 9.915e-6
-0.688, 9.942e-6
-0.689, 9.941e-6
-0.690, 1.001e-5
-0.691, 9.974e-6
-0.692, 1.012e-5
-0.693, 1.004e-5
-0.694, 9.985e-6
-0.695, 1.004e-5
-0.696, 1.007e-5
-0.697, 1.004e-5
-0.698, 1.009e-5
-0.699, 1.011e-5
-0.700, 1.004e-5
-0.701, 1.010e-5
-0.702, 1.014e-5
-0.703, 1.012e-5
-0.704, 1.012e-5
-0.705, 1.014e-5
-0.706, 1.014e-5
-0.707, 1.009e-5
-0.708, 1.009e-5
-0.709, 1.006e-5
-0.710, 1.012e-5
-0.711, 1.005e-5
-0.712, 1.010e-5
-0.713, 1.011e-5
-0.714, 1.008e-5
-0.715, 1.015e-5
-0.716, 1.007e-5
-0.717, 1.015e-5
-0.718, 1.015e-5
-0.719, 1.018e-5
-0.720, 1.014e-5
-0.721, 1.023e-5
-0.722, 1.029e-5
-0.723, 1.033e-5
-0.724, 1.027e-5
-0.725, 1.023e-5
-0.726, 1.022e-5
-0.727, 1.020e-5
-0.728, 1.019e-5
-0.729, 1.017e-5
-0.730, 1.020e-5
-0.731, 1.025e-5
-0.732, 1.028e-5
-0.733, 1.026e-5
-0.734, 1.029e-5
-0.735, 1.039e-5
-0.736, 1.040e-5
-0.737, 1.039e-5
-0.738, 1.032e-5
-0.739, 1.029e-5
-0.740, 1.031e-5
-0.741, 1.034e-5
-0.742, 1.036e-5
-0.743, 1.027e-5
-0.744, 1.011e-5
-0.745, 1.015e-5
-0.746, 1.014e-5
-0.747, 1.020e-5
-0.748, 1.035e-5
-0.749, 1.038e-5
-0.750, 1.040e-5
-0.751, 1.036e-5
-0.752, 1.039e-5
-0.753, 1.035e-5
-0.754, 1.036e-5
-0.755, 1.043e-5
-0.756, 1.039e-5
-0.757, 1.036e-5
-0.758, 1.034e-5
-0.759, 1.034e-5
-0.760, 1.034e-5
-0.761, 1.037e-5
-0.762, 1.039e-5
-0.763, 1.041e-5
-0.764, 1.040e-5
-0.765, 1.038e-5
-0.766, 1.034e-5
-0.767, 1.037e-5
-0.768, 1.042e-5
-0.769, 1.045e-5
-0.770, 1.048e-5
-0.771, 1.051e-5
-0.772, 1.058e-5
-0.773, 1.064e-5
-0.774, 1.062e-5
-0.775, 1.068e-5
-0.776, 1.071e-5
-0.777, 1.075e-5
-0.778, 1.072e-5
-0.779, 1.073e-5
-0.780, 1.072e-5
-0.781, 1.065e-5
-0.782, 1.066e-5
-0.783, 1.063e-5
-0.784, 1.062e-5
-0.785, 1.076e-5
-0.786, 1.085e-5
-0.787, 1.083e-5
-0.788, 1.074e-5
-0.789, 1.079e-5
-0.790, 1.081e-5
-0.791, 1.078e-5
-0.792, 1.077e-5
-0.793, 1.079e-5
-0.794, 1.083e-5
-0.795, 1.092e-5
-0.796, 1.100e-5
-0.797, 1.096e-5
-0.798, 1.090e-5
-0.799, 1.084e-5
-0.800, 1.086e-5
-0.801, 1.085e-5
-0.802, 1.091e-5
-0.803, 1.107e-5
-0.804, 1.107e-5
-0.805, 1.109e-5
-0.806, 1.110e-5
-0.807, 1.104e-5
-0.808, 1.108e-5
-0.809, 1.107e-5
-0.810, 1.087e-5
-0.811, 1.093e-5
-0.812, 1.100e-5
-0.813, 1.106e-5
-0.814, 1.100e-5
-0.815, 1.112e-5
-0.816, 1.116e-5
-0.817, 1.102e-5
-0.818, 1.113e-5
-0.819, 1.130e-5
-0.820, 1.132e-5
-0.821, 1.140e-5
-0.822, 1.124e-5
-0.823, 1.122e-5
-0.824, 1.124e-5
-0.825, 1.114e-5
-0.826, 1.124e-5
-0.827, 1.136e-5
-0.828, 1.134e-5
-0.829, 1.140e-5
-0.830, 1.144e-5
-0.831, 1.130e-5
-0.832, 1.148e-5
-0.833, 1.177e-5
-0.834, 1.177e-5
-0.835, 1.189e-5
-0.836, 1.183e-5
-0.837, 1.171e-5
-0.838, 1.193e-5
-0.839, 1.205e-5
-0.840, 1.200e-5
-0.841, 1.193e-5
-0.842, 1.202e-5
-0.843, 1.204e-5
-0.844, 1.208e-5
-0.845, 1.205e-5
-0.846, 1.207e-5
-0.847, 1.211e-5
-0.848, 1.202e-5
-0.849, 1.194e-5
-0.850, 1.209e-5
-0.851, 1.220e-5
-0.852, 1.219e-5
-0.853, 1.206e-5
-0.854, 1.189e-5
-0.855, 1.240e-5
-0.856, 1.288e-5
-0.857, 1.286e-5
-0.858, 1.272e-5
-0.859, 1.264e-5
-0.860, 1.227e-5
-0.861, 1.254e-5
-0.862, 1.254e-5
-0.863, 1.248e-5
-0.864, 1.245e-5
-0.865, 1.255e-5
-0.866, 1.268e-5
-0.867, 1.264e-5
-0.868, 1.269e-5
-0.869, 1.270e-5
-0.870, 1.281e-5
-0.871, 1.478e-5
-0.872, 1.541e-5
-0.873, 1.510e-5
-0.874, 1.475e-5
-0.875, 1.436e-5
-0.876, 1.415e-5
-0.877, 1.396e-5
-0.878, 1.381e-5
-0.879, 1.369e-5
-0.880, 1.349e-5
-0.881, 1.346e-5
-0.882, 1.345e-5
-0.883, 1.370e-5
-0.884, 1.396e-5
-0.885, 1.404e-5
-0.886, 1.413e-5
-0.887, 1.400e-5
-0.888, 1.374e-5
-0.889, 1.386e-5
-0.890, 1.366e-5
-0.891, 1.371e-5
-0.892, 1.370e-5
-0.893, 1.370e-5
-0.894, 1.411e-5
-0.895, 1.429e-5
-0.896, 1.395e-5
-0.897, 1.427e-5
-0.898, 1.382e-5
-0.899, 1.454e-5
-0.900, 1.481e-5
-0.901, 1.492e-5
-0.902, 1.485e-5
-0.903, 1.476e-5
-0.904, 1.466e-5
-0.905, 1.338e-5
-0.906, 1.308e-5
-0.907, 1.321e-5
-0.908, 1.336e-5
-0.909, 1.367e-5
-0.910, 1.402e-5
-0.911, 1.391e-5
-0.912, 1.393e-5
-0.913, 1.407e-5
-0.914, 1.420e-5
-0.915, 1.424e-5
-0.916, 1.440e-5
-0.917, 1.452e-5
-0.918, 1.461e-5
-0.919, 1.469e-5
-0.920, 1.475e-5
-0.921, 1.478e-5
-0.922, 1.486e-5
-0.923, 1.499e-5
-0.924, 1.503e-5
-0.925, 1.513e-5
-0.926, 1.518e-5
-0.927, 1.530e-5
-0.928, 1.539e-5
-0.929, 1.540e-5
-0.930, 1.545e-5
-0.931, 1.550e-5
-0.932, 1.562e-5
-0.933, 1.568e-5
-0.934, 1.576e-5
-0.935, 1.584e-5
-0.936, 1.592e-5
-0.937, 1.600e-5
-0.938, 1.612e-5
-0.939, 1.623e-5
-0.940, 1.637e-5
-0.941, 1.637e-5
-0.942, 1.634e-5
-0.943, 1.651e-5
-0.944, 1.666e-5
-0.945, 1.680e-5
-0.946, 1.676e-5
-0.947, 1.688e-5
-0.948, 1.709e-5
-0.949, 1.728e-5
-0.950, 1.727e-5
-0.951, 1.728e-5
-0.952, 1.739e-5
-0.953, 1.744e-5
-0.954, 1.750e-5
-0.955, 1.763e-5
-0.956, 1.771e-5
-0.957, 1.783e-5
-0.958, 1.795e-5
-0.959, 1.798e-5
-0.960, 1.805e-5
-0.961, 1.813e-5
-0.962, 1.817e-5
-0.963, 1.817e-5
-0.964, 1.834e-5
-0.965, 1.853e-5
-0.966, 1.863e-5
-0.967, 1.869e-5
-0.968, 1.881e-5
-0.969, 1.892e-5
-0.970, 1.892e-5
-0.971, 1.901e-5
-0.972, 1.907e-5
-0.973, 1.906e-5
-0.974, 1.919e-5
-0.975, 1.932e-5
-0.976, 1.936e-5
-0.977, 1.940e-5
-0.978, 1.961e-5
-0.979, 1.969e-5
-0.980, 1.982e-5
-0.981, 1.989e-5
-0.982, 1.999e-5
-0.983, 2.005e-5
-0.984, 2.017e-5
-0.985, 2.017e-5
-0.986, 2.023e-5
-0.987, 2.041e-5
-0.988, 2.051e-5
-0.989, 2.059e-5
-0.990, 2.069e-5
-0.991, 2.075e-5
-0.992, 2.079e-5
-0.993, 2.088e-5
-0.994, 2.103e-5
-0.995, 2.117e-5
-0.996, 2.125e-5
-0.997, 2.133e-5
-0.998, 2.152e-5
-0.999, 2.156e-5
-1.000, 2.163e-5
-1.001, 2.172e-5
-1.002, 2.179e-5
-1.003, 2.182e-5
-1.004, 2.200e-5
-1.005, 2.220e-5
-1.006, 2.228e-5
-1.007, 2.235e-5
-1.008, 2.231e-5
-1.009, 2.240e-5
-1.010, 2.252e-5
-1.011, 2.258e-5
-1.012, 2.267e-5
-1.013, 2.277e-5
-1.014, 2.286e-5
-1.015, 2.300e-5
-1.016, 2.303e-5
-1.017, 2.323e-5
-1.018, 2.341e-5
-1.019, 2.349e-5
-1.020, 2.359e-5
-1.021, 2.367e-5
-1.022, 2.375e-5
-1.023, 2.382e-5
-1.024, 2.397e-5
-1.025, 2.414e-5
-1.026, 2.421e-5
-1.027, 2.436e-5
-1.028, 2.439e-5
-1.029, 2.455e-5
-1.030, 2.464e-5
-1.031, 2.478e-5
-1.032, 2.494e-5
-1.033, 2.503e-5
-1.034, 2.509e-5
-1.035, 2.518e-5
-1.036, 2.523e-5
-1.037, 2.534e-5
-1.038, 2.542e-5
-1.039, 2.547e-5
-1.040, 2.556e-5
-1.041, 2.575e-5
-1.042, 2.587e-5
-1.043, 2.597e-5
-1.044, 2.610e-5
-1.045, 2.628e-5
-1.046, 2.646e-5
-1.047, 2.654e-5
-1.048, 2.665e-5
-1.049, 2.678e-5
-1.050, 2.686e-5
-1.051, 2.699e-5
-1.052, 2.714e-5
-1.053, 2.719e-5
-1.054, 2.729e-5
-1.055, 2.736e-5
-1.056, 2.756e-5
-1.057, 2.767e-5
-1.058, 2.783e-5
-1.059, 2.795e-5
-1.060, 2.815e-5
-1.061, 2.828e-5
-1.062, 2.834e-5
-1.063, 2.887e-5
-1.064, 2.882e-5
-1.065, 2.838e-5
-1.066, 2.859e-5
-1.067, 2.859e-5
-1.068, 2.865e-5
-1.069, 2.882e-5
-1.070, 2.891e-5
-1.071, 2.895e-5
-1.072, 2.929e-5
-1.073, 2.951e-5
-1.074, 2.952e-5
-1.075, 2.956e-5
-1.076, 2.974e-5
-1.077, 2.992e-5
-1.078, 2.999e-5
-1.079, 3.001e-5
-1.080, 3.018e-5
-1.081, 3.035e-5
-1.082, 3.052e-5
-1.083, 3.060e-5
-1.084, 3.089e-5
-1.085, 3.106e-5
-1.086, 3.114e-5
-1.087, 3.123e-5
-1.088, 3.135e-5
-1.089, 3.144e-5
-1.090, 3.144e-5
-1.091, 3.150e-5
-1.092, 3.157e-5
-1.093, 3.176e-5
-1.094, 3.196e-5
-1.095, 3.212e-5
-1.096, 3.223e-5
-1.097, 3.230e-5
-1.098, 3.244e-5
-1.099, 3.253e-5
-1.100, 3.265e-5
-1.101, 3.278e-5
-1.102, 3.303e-5
-1.103, 3.320e-5
-1.104, 3.335e-5
-1.105, 3.344e-5
-1.106, 3.346e-5
-1.107, 3.358e-5
-1.108, 3.370e-5
-1.109, 3.404e-5
-1.110, 3.430e-5
-1.111, 3.437e-5
-1.112, 3.434e-5
-1.113, 3.420e-5
-1.114, 3.426e-5
-1.115, 3.440e-5
-1.116, 3.460e-5
-1.117, 3.487e-5
-1.118, 3.497e-5
-1.119, 3.508e-5
-1.120, 3.512e-5
-1.121, 3.535e-5
-1.122, 3.550e-5
-1.123, 3.570e-5
-1.124, 3.586e-5
-1.125, 3.599e-5
-1.126, 3.610e-5
-1.127, 3.638e-5
-1.128, 3.657e-5
-1.129, 3.678e-5
-1.130, 3.704e-5
-1.131, 3.720e-5
-1.132, 3.735e-5
-1.133, 3.750e-5
-1.134, 3.764e-5
-1.135, 3.782e-5
-1.136, 3.789e-5
-1.137, 3.808e-5
-1.138, 3.826e-5
-1.139, 3.842e-5
-1.140, 3.866e-5
-1.141, 3.890e-5
-1.142, 3.911e-5
-1.143, 3.936e-5
-1.144, 3.956e-5
-1.145, 3.985e-5
-1.146, 3.999e-5
-1.147, 4.005e-5
-1.148, 4.034e-5
-1.149, 4.038e-5
-1.150, 4.042e-5
-1.151, 4.064e-5
-1.152, 4.075e-5
-1.153, 4.091e-5
-1.154, 4.100e-5
-1.155, 4.101e-5
-1.156, 4.129e-5
-1.157, 4.144e-5
-1.158, 4.165e-5
-1.159, 4.188e-5
-1.160, 4.202e-5
-1.161, 4.230e-5
-1.162, 4.263e-5
-1.163, 4.285e-5
-1.164, 4.308e-5
-1.165, 4.340e-5
-1.166, 4.353e-5
-1.167, 4.366e-5
-1.168, 4.373e-5
-1.169, 4.394e-5
-1.170, 4.425e-5
-1.171, 4.449e-5
-1.172, 4.482e-5
-1.173, 4.519e-5
-1.174, 4.536e-5
-1.175, 4.559e-5
-1.176, 4.578e-5
-1.177, 4.606e-5
-1.178, 4.619e-5
-1.179, 4.624e-5
-1.180, 4.630e-5
-1.181, 4.663e-5
-1.182, 4.705e-5
-1.183, 4.724e-5
-1.184, 4.746e-5
-1.185, 4.761e-5
-1.186, 4.787e-5
-1.187, 4.824e-5
-1.188, 4.845e-5
-1.189, 4.858e-5
-1.190, 4.872e-5
-1.191, 4.923e-5
-1.192, 4.941e-5
-1.193, 4.955e-5
-1.194, 4.981e-5
-1.195, 5.009e-5
-1.196, 5.022e-5
-1.197, 5.044e-5
-1.198, 5.081e-5
-1.199, 5.197e-5
-1.200, 5.210e-5
-1.201, 5.245e-5
-1.202, 5.276e-5
-1.203, 5.304e-5
-1.204, 5.321e-5
-1.205, 5.318e-5
-1.206, 5.395e-5
-1.207, 5.401e-5
-1.208, 5.419e-5
-1.209, 5.465e-5
-1.210, 5.466e-5
-1.211, 5.461e-5
-1.212, 5.476e-5
-1.213, 5.498e-5
-1.214, 5.512e-5
-1.215, 5.541e-5
-1.216, 5.573e-5
-1.217, 5.610e-5
-1.218, 5.632e-5
-1.219, 5.648e-5
-1.220, 5.674e-5
-1.221, 5.693e-5
-1.222, 5.733e-5
-1.223, 5.811e-5
-1.224, 5.820e-5
-1.225, 5.876e-5
-1.226, 5.902e-5
-1.227, 5.933e-5
-1.228, 5.959e-5
-1.229, 6.002e-5
-1.230, 6.016e-5
-1.231, 5.999e-5
-1.232, 6.043e-5
-1.233, 6.100e-5
-1.234, 6.138e-5
-1.235, 6.159e-5
-1.236, 6.163e-5
-1.237, 6.193e-5
-1.238, 6.187e-5
-1.239, 6.209e-5
-1.240, 6.266e-5
-1.241, 6.284e-5
-1.242, 6.310e-5
-1.243, 6.348e-5
-1.244, 6.372e-5
-1.245, 6.391e-5
-1.246, 6.415e-5
-1.247, 6.465e-5
-1.248, 6.522e-5
-1.249, 6.558e-5
-1.250, 6.604e-5
-1.251, 6.622e-5
-1.252, 6.653e-5
-1.253, 6.686e-5
-1.254, 6.744e-5
-1.255, 6.787e-5
-1.256, 6.806e-5
-1.257, 6.841e-5
-1.258, 6.896e-5
-1.259, 6.923e-5
-1.260, 6.958e-5
-1.261, 7.003e-5
-1.262, 7.050e-5
-1.263, 7.077e-5
-1.264, 7.103e-5
-1.265, 7.113e-5
-1.266, 7.196e-5
-1.267, 7.217e-5
-1.268, 7.261e-5
-1.269, 7.294e-5
-1.270, 7.344e-5
-1.271, 7.381e-5
-1.272, 7.421e-5
-1.273, 7.461e-5
-1.274, 7.501e-5
-1.275, 7.553e-5
-1.276, 7.674e-5
-1.277, 7.857e-5
-1.278, 7.813e-5
-1.279, 7.890e-5
-1.280, 7.927e-5
-1.281, 7.952e-5
-1.282, 7.999e-5
-1.283, 8.019e-5
-1.284, 8.042e-5
-1.285, 8.062e-5
-1.286, 8.088e-5
-1.287, 8.064e-5
-1.288, 8.136e-5
-1.289, 8.219e-5
-1.290, 8.320e-5
-1.291, 8.263e-5
-1.292, 8.280e-5
-1.293, 8.347e-5
-1.294, 8.346e-5
-1.295, 8.260e-5
-1.296, 8.154e-5
-1.297, 8.194e-5
-1.298, 8.267e-5
-1.299, 8.288e-5
-1.300, 8.323e-5
-1.301, 8.401e-5
-1.302, 8.462e-5
-1.303, 8.494e-5
-1.304, 8.554e-5
-1.305, 8.608e-5
-1.306, 8.687e-5
-1.307, 8.718e-5
-1.308, 8.762e-5
-1.309, 8.831e-5
-1.310, 8.906e-5
-1.311, 8.995e-5
-1.312, 9.061e-5
-1.313, 9.116e-5
-1.314, 9.175e-5
-1.315, 9.240e-5
-1.316, 9.290e-5
-1.317, 9.327e-5
-1.318, 9.410e-5
-1.319, 9.440e-5
-1.320, 9.473e-5
-1.321, 9.507e-5
-1.322, 9.577e-5
-1.323, 9.622e-5
-1.324, 9.667e-5
-1.325, 9.710e-5
-1.326, 9.752e-5
-1.327, 9.829e-5
-1.328, 9.876e-5
-1.329, 1.000e-4
-1.330, 1.008e-4
-1.331, 1.015e-4
-1.332, 1.022e-4
-1.333, 1.034e-4
-1.334, 1.039e-4
-1.335, 1.041e-4
-1.336, 1.047e-4
-1.337, 1.052e-4
-1.338, 1.055e-4
-1.339, 1.059e-4
-1.340, 1.075e-4
-1.341, 1.083e-4
-1.342, 1.087e-4
-1.343, 1.092e-4
-1.344, 1.097e-4
-1.345, 1.103e-4
-1.346, 1.110e-4
-1.347, 1.111e-4
-1.348, 1.117e-4
-1.349, 1.122e-4
-1.350, 1.129e-4
-1.351, 1.136e-4
-1.352, 1.145e-4
-1.353, 1.155e-4
-1.354, 1.153e-4
-1.355, 1.156e-4
-1.356, 1.160e-4
-1.357, 1.167e-4
-1.358, 1.172e-4
-1.359, 1.178e-4
-1.360, 1.184e-4
-1.361, 1.190e-4
-1.362, 1.197e-4
-1.363, 1.211e-4
-1.364, 1.219e-4
-1.365, 1.229e-4
-1.366, 1.240e-4
-1.367, 1.250e-4
-1.368, 1.258e-4
-1.369, 1.264e-4
-1.370, 1.270e-4
-1.371, 1.280e-4
-1.372, 1.288e-4
-1.373, 1.282e-4
-1.374, 1.285e-4
-1.375, 1.291e-4
-1.376, 1.299e-4
-1.377, 1.302e-4
-1.378, 1.309e-4
-1.379, 1.317e-4
-1.380, 1.330e-4
-1.381, 1.342e-4
-1.382, 1.350e-4
-1.383, 1.359e-4
-1.384, 1.360e-4
-1.385, 1.368e-4
-1.386, 1.379e-4
-1.387, 1.384e-4
-1.388, 1.395e-4
-1.389, 1.398e-4
-1.390, 1.400e-4
-1.391, 1.406e-4
-1.392, 1.415e-4
-1.393, 1.423e-4
-1.394, 1.431e-4
-1.395, 1.434e-4
-1.396, 1.443e-4
-1.397, 1.453e-4
-1.398, 1.465e-4
-1.399, 1.489e-4
-1.400, 1.574e-4
-1.401, 1.608e-4
-1.402, 1.610e-4
-1.403, 1.620e-4
-1.404, 1.621e-4
-1.405, 1.625e-4
-1.406, 1.633e-4
-1.407, 1.644e-4
-1.408, 1.651e-4
-1.409, 1.659e-4
-1.410, 1.665e-4
-1.411, 1.670e-4
-1.412, 1.680e-4
-1.413, 1.687e-4
-1.414, 1.693e-4
-1.415, 1.700e-4
-1.416, 1.718e-4
-1.417, 1.728e-4
-1.418, 1.733e-4
-1.419, 1.737e-4
-1.420, 1.750e-4
-1.421, 1.760e-4
-1.422, 1.772e-4
-1.423, 1.783e-4
-1.424, 1.792e-4
-1.425, 1.798e-4
-1.426, 1.800e-4
-1.427, 1.805e-4
-1.428, 1.812e-4
-1.429, 1.819e-4
-1.430, 1.841e-4
-1.431, 1.854e-4
-1.432, 1.855e-4
-1.433, 1.863e-4
-1.434, 1.872e-4
-1.435, 1.886e-4
-1.436, 1.894e-4
-1.437, 1.905e-4
-1.438, 1.916e-4
-1.439, 1.927e-4
-1.440, 1.936e-4
-1.441, 1.945e-4
-1.442, 1.959e-4
-1.443, 1.970e-4
-1.444, 1.984e-4
-1.445, 1.995e-4
-1.446, 2.004e-4
-1.447, 2.016e-4
-1.448, 2.031e-4
-1.449, 2.045e-4
-1.450, 2.054e-4
-1.451, 2.065e-4
-1.452, 2.098e-4
-1.453, 2.133e-4
-1.454, 2.142e-4
-1.455, 2.142e-4
-1.456, 2.139e-4
-1.457, 2.151e-4
-1.458, 2.154e-4
-1.459, 2.160e-4
-1.460, 2.177e-4
-1.461, 2.190e-4
-1.462, 2.202e-4
-1.463, 2.211e-4
-1.464, 2.221e-4
-1.465, 2.235e-4
-1.466, 2.251e-4
-1.467, 2.264e-4
-1.468, 2.276e-4
-1.469, 2.288e-4
-1.470, 2.301e-4
-1.471, 2.315e-4
-1.472, 2.330e-4
-1.473, 2.345e-4
-1.474, 2.364e-4
-1.475, 2.386e-4
-1.476, 2.402e-4
-1.477, 2.414e-4
-1.478, 2.429e-4
-1.479, 2.441e-4
-1.480, 2.452e-4
-1.481, 2.467e-4
-1.482, 2.485e-4
-1.483, 2.502e-4
-1.484, 2.516e-4
-1.485, 2.536e-4
-1.486, 2.553e-4
-1.487, 2.571e-4
-1.488, 2.585e-4
-1.489, 2.601e-4
-1.490, 2.620e-4
-1.491, 2.642e-4
-1.492, 2.655e-4
-1.493, 2.671e-4
-1.494, 2.691e-4
-1.495, 2.706e-4
-1.496, 2.719e-4
-1.497, 2.738e-4
-1.498, 2.761e-4
-1.499, 2.775e-4
-1.500, 2.792e-4
-1.501, 2.810e-4
-1.502, 2.827e-4
-1.503, 2.846e-4
-1.504, 2.864e-4
-1.505, 2.884e-4
-1.506, 2.903e-4
-1.507, 2.920e-4
-1.508, 2.940e-4
-1.509, 2.959e-4
-1.510, 2.982e-4
-1.511, 3.000e-4
-1.512, 3.012e-4
-1.513, 3.034e-4
-1.514, 3.061e-4
-1.515, 3.083e-4
-1.516, 3.104e-4
-1.517, 3.126e-4
-1.518, 3.149e-4
-1.519, 3.179e-4
-1.520, 3.202e-4
-1.521, 3.222e-4
-1.522, 3.246e-4
-1.523, 3.273e-4
-1.524, 3.292e-4
-1.525, 3.311e-4
-1.526, 3.344e-4
-1.527, 3.378e-4
-1.528, 3.398e-4
-1.529, 3.418e-4
-1.530, 3.439e-4
-1.531, 3.460e-4
-1.532, 3.487e-4
-1.533, 3.510e-4
-1.534, 3.542e-4
-1.535, 3.569e-4
-1.536, 3.595e-4
-1.537, 3.622e-4
-1.538, 3.653e-4
-1.539, 3.677e-4
-1.540, 3.699e-4
-1.541, 3.728e-4
-1.542, 3.755e-4
-1.543, 3.773e-4
-1.544, 3.801e-4
-1.545, 3.830e-4
-1.546, 3.847e-4
-1.547, 3.877e-4
-1.548, 3.905e-4
-1.549, 3.925e-4
-1.550, 3.950e-4
-1.551, 3.976e-4
-1.552, 4.003e-4
-1.553, 4.032e-4
-1.554, 4.059e-4
-1.555, 4.087e-4
-1.556, 4.112e-4
-1.557, 4.145e-4
-1.558, 4.181e-4
-1.559, 4.212e-4
-1.560, 4.233e-4
-1.561, 4.260e-4
-1.562, 4.289e-4
-1.563, 4.317e-4
-1.564, 4.348e-4
-1.565, 4.378e-4
-1.566, 4.408e-4
-1.567, 4.439e-4
-1.568, 4.474e-4
-1.569, 4.515e-4
-1.570, 4.549e-4
-1.571, 4.577e-4
-1.572, 4.609e-4
-1.573, 4.637e-4
-1.574, 4.672e-4
-1.575, 4.710e-4
-1.576, 4.745e-4
-1.577, 4.782e-4
-1.578, 4.824e-4
-1.579, 4.852e-4
-1.580, 4.886e-4
-1.581, 4.923e-4
-1.582, 4.959e-4
-1.583, 4.995e-4
-1.584, 5.035e-4
-1.585, 5.073e-4
-1.586, 5.108e-4
-1.587, 5.150e-4
-1.588, 5.189e-4
-1.589, 5.226e-4
-1.590, 5.263e-4
-1.591, 5.320e-4
-1.592, 5.366e-4
-1.593, 5.411e-4
-1.594, 5.447e-4
-1.595, 5.478e-4
-1.596, 5.517e-4
-1.597, 5.555e-4
-1.598, 5.593e-4
-1.599, 5.635e-4
-1.600, 5.678e-4
-1.601, 5.719e-4
-1.602, 5.758e-4
-1.603, 5.803e-4
-1.604, 5.848e-4
-1.605, 5.885e-4
-1.606, 5.924e-4
-1.607, 5.971e-4
-1.608, 6.018e-4
-1.609, 6.060e-4
-1.610, 6.100e-4
-1.611, 6.142e-4
-1.612, 6.183e-4
-1.613, 6.220e-4
-1.614, 6.257e-4
-1.615, 6.304e-4
-1.616, 6.340e-4
-1.617, 6.386e-4
-1.618, 6.430e-4
-1.619, 6.470e-4
-1.620, 6.516e-4
-1.621, 6.563e-4
-1.622, 6.604e-4
-1.623, 6.644e-4
-1.624, 6.689e-4
-1.625, 6.738e-4
-1.626, 6.778e-4
-1.627, 6.813e-4
-1.628, 6.858e-4
-1.629, 6.905e-4
-1.630, 6.962e-4
-1.631, 7.066e-4
-1.632, 7.163e-4
-1.633, 7.183e-4
-1.634, 7.218e-4
-1.635, 7.254e-4
-1.636, 7.293e-4
-1.637, 7.345e-4
-1.638, 7.400e-4
-1.639, 7.451e-4
-1.640, 7.502e-4
-1.641, 7.543e-4
-1.642, 7.578e-4
-1.643, 7.634e-4
-1.644, 7.697e-4
-1.645, 7.745e-4
-1.646, 7.792e-4
-1.647, 7.834e-4
-1.648, 7.877e-4
-1.649, 7.892e-4
-1.650, 7.881e-4
-1.651, 7.905e-4
-1.652, 7.956e-4
-1.653, 8.011e-4
-1.654, 8.065e-4
-1.655, 8.124e-4
-1.656, 8.193e-4
-1.657, 8.251e-4
-1.658, 8.322e-4
-1.659, 8.374e-4
-1.660, 8.428e-4
-1.661, 8.497e-4
-1.662, 8.537e-4
-1.663, 8.593e-4
-1.664, 8.651e-4
-1.665, 8.713e-4
-1.666, 8.777e-4
-1.667, 8.831e-4
-1.668, 8.886e-4
-1.669, 8.953e-4
-1.670, 9.016e-4
-1.671, 9.073e-4
-1.672, 9.131e-4
-1.673, 9.190e-4
-1.674, 9.248e-4
-1.675, 9.306e-4
-1.676, 9.365e-4
-1.677, 9.424e-4
-1.678, 9.477e-4
-1.679, 9.537e-4
-1.680, 9.603e-4
-1.681, 9.663e-4
-1.682, 9.719e-4
-1.683, 9.776e-4
-1.684, 9.843e-4
-1.685, 9.911e-4
-1.686, 9.980e-4
-1.687, 1.005e-3
-1.688, 1.010e-3
-1.689, 1.011e-3
-1.690, 1.011e-3
-1.691, 1.011e-3
-1.692, 1.011e-3
-1.693, 1.011e-3
-1.694, 1.011e-3
-1.695, 1.011e-3
-1.696, 1.011e-3
-1.697, 1.011e-3
-1.698, 1.011e-3
-1.699, 1.011e-3
-1.700, 1.011e-3
-1.701, 1.011e-3
-1.702, 1.011e-3
-1.703, 1.011e-3
-1.704, 1.011e-3
-1.705, 1.011e-3
-1.706, 1.011e-3
-1.707, 1.011e-3
-1.708, 1.011e-3
-1.709, 1.011e-3
-1.710, 1.011e-3
-1.711, 1.011e-3
-1.712, 1.011e-3
-1.713, 1.011e-3
-1.714, 1.011e-3
-1.715, 1.011e-3
-1.716, 1.011e-3
-1.717, 1.011e-3
-1.718, 1.011e-3
-1.719, 1.011e-3
-1.720, 1.011e-3
-1.721, 1.011e-3
-1.722, 1.011e-3
-1.723, 1.011e-3
-1.724, 1.011e-3
-1.725, 1.011e-3
-1.726, 1.011e-3
-1.727, 1.011e-3
-1.728, 1.011e-3
-1.729, 1.011e-3
-1.730, 1.011e-3
-1.731, 1.011e-3
-1.732, 1.011e-3
-1.733, 1.011e-3
-1.734, 1.011e-3
-1.735, 1.011e-3
-1.736, 1.011e-3
-1.737, 1.011e-3
-1.738, 1.011e-3
-1.739, 1.011e-3
-1.740, 1.011e-3
-1.741, 1.011e-3
-1.742, 1.011e-3
-1.743, 1.011e-3
-1.744, 1.011e-3
-1.745, 1.011e-3
-1.746, 1.011e-3
-1.747, 1.011e-3
-1.748, 1.011e-3
-1.749, 1.011e-3
-1.750, 1.011e-3
-1.751, 1.011e-3
-1.752, 1.011e-3
-1.753, 1.011e-3
-1.754, 1.011e-3
-1.755, 1.011e-3
-1.756, 1.011e-3
-1.757, 1.011e-3
-1.758, 1.011e-3
-1.759, 1.011e-3
-1.760, 1.011e-3
-1.761, 1.011e-3
-1.762, 1.011e-3
-1.763, 1.011e-3
-1.764, 1.011e-3
-1.765, 1.011e-3
-1.766, 1.011e-3
-1.767, 1.011e-3
-1.768, 1.011e-3
-1.769, 1.011e-3
-1.770, 1.011e-3
-1.771, 1.011e-3
-1.772, 1.011e-3
-1.773, 1.011e-3
-1.774, 1.011e-3
-1.775, 1.011e-3
-1.776, 1.011e-3
-1.777, 1.011e-3
-1.778, 1.011e-3
-1.779, 1.011e-3
-1.780, 1.011e-3
-1.781, 1.011e-3
-1.782, 1.011e-3
-1.783, 1.011e-3
-1.784, 1.011e-3
-1.785, 1.011e-3
-1.786, 1.011e-3
-1.787, 1.011e-3
-1.788, 1.011e-3
-1.789, 1.011e-3
-1.790, 1.011e-3
-1.791, 1.011e-3
-1.792, 1.011e-3
-1.793, 1.011e-3
-1.794, 1.011e-3
-1.795, 1.011e-3
-1.796, 1.011e-3
-1.797, 1.011e-3
-1.798, 1.011e-3
-1.799, 1.011e-3
-1.800, 1.011e-3
-1.801, 1.011e-3
-1.802, 1.011e-3
-1.803, 1.011e-3
-1.804, 1.011e-3
-1.805, 1.011e-3
-1.806, 1.011e-3
-1.807, 1.011e-3
-1.808, 1.011e-3
-1.809, 1.011e-3
-1.810, 1.011e-3
-1.811, 1.011e-3
-1.812, 1.011e-3
-1.813, 1.011e-3
-1.814, 1.011e-3
-1.815, 1.011e-3
-1.816, 1.011e-3
-1.817, 1.011e-3
-1.818, 1.011e-3
-1.819, 1.011e-3
-1.820, 1.011e-3
-1.821, 1.011e-3
-1.822, 1.011e-3
-1.823, 1.011e-3
-1.824, 1.011e-3
-1.825, 1.011e-3
-1.826, 1.011e-3
-1.827, 1.011e-3
-1.828, 1.011e-3
-1.829, 1.011e-3
-1.830, 1.011e-3
-1.831, 1.011e-3
-1.832, 1.011e-3
-1.833, 1.011e-3
-1.834, 1.011e-3
-1.835, 1.011e-3
-1.836, 1.011e-3
-1.837, 1.011e-3
-1.838, 1.011e-3
-1.839, 1.011e-3
-1.840, 1.011e-3
-1.841, 1.011e-3
-1.842, 1.011e-3
-1.843, 1.011e-3
-1.844, 1.011e-3
-1.845, 1.011e-3
-1.846, 1.011e-3
-1.847, 1.011e-3
-1.848, 1.011e-3
-1.849, 1.011e-3
-1.850, 1.011e-3
-1.851, 1.011e-3
-1.852, 1.011e-3
-1.853, 1.011e-3
-1.854, 1.011e-3
-1.855, 1.011e-3
-1.856, 1.011e-3
-1.857, 1.011e-3
-1.858, 1.011e-3
-1.859, 1.011e-3
-1.860, 1.011e-3
-1.861, 1.011e-3
-1.862, 1.011e-3
-1.863, 1.011e-3
-1.864, 1.011e-3
-1.865, 1.011e-3
-1.866, 1.011e-3
-1.867, 1.011e-3
-1.868, 1.011e-3
-1.869, 1.011e-3
-1.870, 1.011e-3
-1.871, 1.011e-3
-1.872, 1.011e-3
-1.873, 1.011e-3
-1.874, 1.011e-3
-1.875, 1.011e-3
-1.876, 1.011e-3
-1.877, 1.011e-3
-1.878, 1.011e-3
-1.879, 1.011e-3
-1.880, 1.011e-3
-1.881, 1.011e-3
-1.882, 1.011e-3
-1.883, 1.011e-3
-1.884, 1.011e-3
-1.885, 1.011e-3
-1.886, 1.011e-3
-1.887, 1.011e-3
-1.888, 1.011e-3
-1.889, 1.011e-3
-1.890, 1.011e-3
-1.891, 1.011e-3
-1.892, 1.011e-3
-1.893, 1.011e-3
-1.894, 1.011e-3
-1.895, 1.011e-3
-1.896, 1.011e-3
-1.897, 1.011e-3
-1.898, 1.011e-3
-1.899, 1.011e-3
-1.900, 1.011e-3
-1.901, 1.011e-3
-1.902, 1.011e-3
-1.903, 1.011e-3
-1.904, 1.011e-3
-1.905, 1.011e-3
-1.906, 1.011e-3
-1.907, 1.011e-3
-1.908, 1.011e-3
-1.909, 1.011e-3
-1.910, 1.011e-3
-1.911, 1.011e-3
-1.912, 1.011e-3
-1.913, 1.011e-3
-1.914, 1.011e-3
-1.915, 1.011e-3
-1.916, 1.011e-3
-1.917, 1.011e-3
-1.918, 1.011e-3
-1.919, 1.011e-3
-1.920, 1.011e-3
-1.921, 1.011e-3
-1.922, 1.011e-3
-1.923, 1.011e-3
-1.924, 1.011e-3
-1.925, 1.011e-3
-1.926, 1.011e-3
-1.927, 1.011e-3
-1.928, 1.011e-3
-1.929, 1.011e-3
-1.930, 1.011e-3
-1.931, 1.011e-3
-1.932, 1.011e-3
-1.933, 1.011e-3
-1.934, 1.011e-3
-1.935, 1.011e-3
-1.936, 1.011e-3
-1.937, 1.011e-3
-1.938, 1.011e-3
-1.939, 1.011e-3
-1.940, 1.011e-3
-1.941, 1.011e-3
-1.942, 1.011e-3
-1.943, 1.011e-3
-1.944, 1.011e-3
-1.945, 1.011e-3
-1.946, 1.011e-3
-1.947, 1.011e-3
-1.948, 1.011e-3
-1.949, 1.011e-3
-1.950, 1.011e-3
-1.951, 1.011e-3
-1.952, 1.011e-3
-1.953, 1.011e-3
-1.954, 1.011e-3
-1.955, 1.011e-3
-1.956, 1.011e-3
-1.957, 1.011e-3
-1.958, 1.011e-3
-1.959, 1.011e-3
-1.960, 1.011e-3
-1.961, 1.011e-3
-1.962, 1.011e-3
-1.963, 1.011e-3
-1.964, 1.011e-3
-1.965, 1.011e-3
-1.966, 1.011e-3
-1.967, 1.011e-3
-1.968, 1.011e-3
-1.969, 1.011e-3
-1.970, 1.011e-3
-1.971, 1.011e-3
-1.972, 1.011e-3
-1.973, 1.011e-3
-1.974, 1.011e-3
-1.975, 1.011e-3
-1.976, 1.011e-3
-1.977, 1.011e-3
-1.978, 1.011e-3
-1.979, 1.011e-3
-1.980, 1.011e-3
-1.981, 1.011e-3
-1.982, 1.011e-3
-1.983, 1.011e-3
-1.984, 1.011e-3
-1.985, 1.011e-3
-1.986, 1.011e-3
-1.987, 1.011e-3
-1.988, 1.011e-3
-1.989, 1.011e-3
-1.990, 1.011e-3
-1.991, 1.011e-3
-1.992, 1.011e-3
-1.993, 1.011e-3
-1.994, 1.011e-3
-1.995, 1.011e-3
-1.996, 1.011e-3
-1.997, 1.011e-3
-1.998, 1.011e-3
-1.999, 1.011e-3
-2.000, 1.011e-3
-2.001, 1.011e-3
-2.002, 1.011e-3
-2.003, 1.011e-3
-2.004, 1.011e-3
-2.005, 1.011e-3
-2.006, 1.011e-3
-2.007, 1.011e-3
-2.008, 1.011e-3
-2.009, 1.011e-3
-2.010, 1.011e-3
-2.011, 1.011e-3
-2.012, 1.011e-3
-2.013, 1.011e-3
-2.014, 1.011e-3
-2.015, 1.011e-3
-2.016, 1.011e-3
-2.017, 1.011e-3
-2.018, 1.011e-3
-2.019, 1.011e-3
-2.020, 1.011e-3
-2.021, 1.011e-3
-2.022, 1.011e-3
-2.023, 1.011e-3
-2.024, 1.011e-3
-2.025, 1.011e-3
-2.026, 1.011e-3
-2.027, 1.011e-3
-2.028, 1.011e-3
-2.029, 1.011e-3
-2.030, 1.011e-3
-2.031, 1.011e-3
-2.032, 1.011e-3
-2.033, 1.011e-3
-2.034, 1.011e-3
-2.035, 1.011e-3
-2.036, 1.011e-3
-2.037, 1.011e-3
-2.038, 1.011e-3
-2.039, 1.011e-3
-2.040, 1.011e-3
-2.041, 1.011e-3
-2.042, 1.011e-3
-2.043, 1.011e-3
-2.044, 1.011e-3
-2.045, 1.011e-3
-2.046, 1.011e-3
-2.047, 1.011e-3
-2.048, 1.011e-3
-2.049, 1.011e-3
-2.050, 1.011e-3
-2.051, 1.011e-3
-2.052, 1.011e-3
-2.053, 1.011e-3
-2.054, 1.011e-3
-2.055, 1.011e-3
-2.056, 1.011e-3
-2.057, 1.011e-3
-2.058, 1.011e-3
-2.059, 1.011e-3
-2.060, 1.011e-3
-2.061, 1.011e-3
-2.062, 1.011e-3
-2.063, 1.011e-3
-2.064, 1.011e-3
-2.065, 1.011e-3
-2.066, 1.011e-3
-2.067, 1.011e-3
-2.068, 1.011e-3
-2.069, 1.011e-3
-2.070, 1.011e-3
-2.071, 1.011e-3
-2.072, 1.011e-3
-2.073, 1.011e-3
-2.074, 1.011e-3
-2.075, 1.011e-3
-2.076, 1.011e-3
-2.077, 1.011e-3
-2.078, 1.011e-3
-2.079, 1.011e-3
-2.080, 1.011e-3
-2.081, 1.011e-3
-2.082, 1.011e-3
-2.083, 1.011e-3
-2.084, 1.011e-3
-2.085, 1.011e-3
-2.086, 1.011e-3
-2.087, 1.011e-3
-2.088, 1.011e-3
-2.089, 1.011e-3
-2.090, 1.011e-3
-2.091, 1.011e-3
-2.092, 1.011e-3
-2.093, 1.011e-3
-2.094, 1.011e-3
-2.095, 1.011e-3
-2.096, 1.011e-3
-2.097, 1.011e-3
-2.098, 1.011e-3
-2.099, 1.011e-3
-2.100, 1.011e-3
-2.101, 1.011e-3
-2.102, 1.011e-3
-2.103, 1.011e-3
-2.104, 1.011e-3
-2.105, 1.011e-3
-2.106, 1.011e-3
-2.107, 1.011e-3
-2.108, 1.011e-3
-2.109, 1.011e-3
-2.110, 1.011e-3
-2.111, 1.011e-3
-2.112, 1.011e-3
-2.113, 1.011e-3
-2.114, 1.011e-3
-2.115, 1.011e-3
-2.116, 1.011e-3
-2.117, 1.011e-3
-2.118, 1.011e-3
-2.119, 1.011e-3
-2.120, 1.011e-3
-2.121, 1.011e-3
-2.122, 1.011e-3
-2.123, 1.011e-3
-2.124, 1.011e-3
-2.125, 1.011e-3
-2.126, 1.011e-3
-2.127, 1.011e-3
-2.128, 1.011e-3
-2.129, 1.011e-3
-2.130, 1.011e-3
-2.131, 1.011e-3
-2.132, 1.011e-3
-2.133, 1.011e-3
-2.134, 1.011e-3
-2.135, 1.011e-3
-2.136, 1.011e-3
-2.137, 1.011e-3
-2.138, 1.011e-3
-2.139, 1.011e-3
-2.140, 1.011e-3
-2.141, 1.011e-3
-2.142, 1.011e-3
-2.143, 1.011e-3
-2.144, 1.011e-3
-2.145, 1.011e-3
-2.146, 1.011e-3
-2.147, 1.011e-3
-2.148, 1.011e-3
-2.149, 1.011e-3
-2.150, 1.011e-3
-2.151, 1.011e-3
-2.152, 1.011e-3
-2.153, 1.011e-3
-2.154, 1.011e-3
-2.155, 1.011e-3
-2.156, 1.011e-3
-2.157, 1.011e-3
-2.158, 1.011e-3
-2.159, 1.011e-3
-2.160, 1.011e-3
-2.161, 1.011e-3
-2.162, 1.011e-3
-2.163, 1.011e-3
-2.164, 1.011e-3
-2.165, 1.011e-3
-2.166, 1.011e-3
-2.167, 1.011e-3
-2.168, 1.011e-3
-2.169, 1.011e-3
-2.170, 1.011e-3
-2.171, 1.011e-3
-2.172, 1.011e-3
-2.173, 1.011e-3
-2.174, 1.011e-3
-2.175, 1.011e-3
-2.176, 1.011e-3
-2.177, 1.011e-3
-2.178, 1.011e-3
-2.179, 1.011e-3
-2.180, 1.011e-3
-2.181, 1.011e-3
-2.182, 1.011e-3
-2.183, 1.011e-3
-2.184, 1.011e-3
-2.185, 1.011e-3
-2.186, 1.011e-3
-2.187, 1.011e-3
-2.188, 1.011e-3
-2.189, 1.011e-3
-2.190, 1.011e-3
-2.191, 1.011e-3
-2.192, 1.011e-3
-2.193, 1.011e-3
-2.194, 1.011e-3
-2.195, 1.011e-3
-2.196, 1.011e-3
-2.197, 1.011e-3
-2.198, 1.011e-3
-2.199, 1.011e-3
-2.200, 1.011e-3
-2.201, 1.011e-3
-2.202, 1.011e-3
-2.203, 1.011e-3
-2.204, 1.011e-3
-2.205, 1.011e-3
-2.206, 1.011e-3
-2.207, 1.011e-3
-2.208, 1.011e-3
-2.209, 1.011e-3
-2.210, 1.011e-3
-2.211, 1.011e-3
-2.212, 1.011e-3
-2.213, 1.011e-3
-2.214, 1.011e-3
-2.215, 1.011e-3
-2.216, 1.011e-3
-2.217, 1.011e-3
-2.218, 1.011e-3
-2.219, 1.011e-3
-2.220, 1.011e-3
-2.221, 1.011e-3
-2.222, 1.011e-3
-2.223, 1.011e-3
-2.224, 1.011e-3
-2.225, 1.011e-3
-2.226, 1.011e-3
-2.227, 1.011e-3
-2.228, 1.011e-3
-2.229, 1.011e-3
-2.230, 1.011e-3
-2.231, 1.011e-3
-2.232, 1.011e-3
-2.233, 1.011e-3
-2.234, 1.011e-3
-2.235, 1.011e-3
-2.236, 1.011e-3
-2.237, 1.011e-3
-2.238, 1.011e-3
-2.239, 1.011e-3
-2.240, 1.011e-3
-2.241, 1.011e-3
-2.242, 1.011e-3
-2.243, 1.011e-3
-2.244, 1.011e-3
-2.245, 1.011e-3
-2.246, 1.011e-3
-2.247, 1.011e-3
-2.248, 1.011e-3
-2.249, 1.011e-3
-2.250, 1.011e-3
-2.251, 1.011e-3
-2.252, 1.011e-3
-2.253, 1.011e-3
-2.254, 1.011e-3
-2.255, 1.011e-3
-2.256, 1.011e-3
-2.257, 1.011e-3
-2.258, 1.011e-3
-2.259, 1.011e-3
-2.260, 1.011e-3
-2.261, 1.011e-3
-2.262, 1.011e-3
-2.263, 1.011e-3
-2.264, 1.011e-3
-2.265, 1.011e-3
-2.266, 1.011e-3
-2.267, 1.011e-3
-2.268, 1.011e-3
-2.269, 1.011e-3
-2.270, 1.011e-3
-2.271, 1.011e-3
-2.272, 1.011e-3
-2.273, 1.011e-3
-2.274, 1.011e-3
-2.275, 1.011e-3
-2.276, 1.011e-3
-2.277, 1.011e-3
-2.278, 1.011e-3
-2.279, 1.011e-3
-2.280, 1.011e-3
-2.281, 1.011e-3
-2.282, 1.011e-3
-2.283, 1.011e-3
-2.284, 1.011e-3
-2.285, 1.011e-3
-2.286, 1.011e-3
-2.287, 1.011e-3
-2.288, 1.011e-3
-2.289, 1.011e-3
-2.290, 1.011e-3
-2.291, 1.011e-3
-2.292, 1.011e-3
-2.293, 1.011e-3
-2.294, 1.011e-3
-2.295, 1.011e-3
-2.296, 1.011e-3
-2.297, 1.011e-3
-2.298, 1.011e-3
-2.299, 1.011e-3
