Dec. 14, 2024   20:17:23
Cyclic Voltammetry
File: c:/users/guazh/data/banditlqround7_x0exp59_r20/2024-12-09-exp661\exp661-2024-12-14t20_09_34-arkoh\exp661_cv_sr_600mvs_efin_-1400mv.bin
Data Source:  Experiment
Instrument Model:  CHI760E
Header: CV ran at 600 mVs
Note: 

Init E (V) = -1
High E (V) = -1
Low E (V) = -1.4
Final E (V) = -1
Init P/N = N
Scan Rate (V/s) = 0.6
Segment = 3
Sample Interval (V) = 0.001
Quiet Time (sec) = 2
Sensitivity (A/V) = 0.01
Comp R (ohm) = 1.4

Results:

Channel 1:
Segment 1:

Segment 2:

Segment 3:

Potential/V, Current/A

-1.000, -9.542e-5
-1.001, 9.405e-6
-1.002, 1.019e-4
-1.003, 1.913e-4
-1.004, 2.715e-4
-1.005, 3.485e-4
-1.006, 4.164e-4
-1.007, 4.811e-4
-1.008, 5.428e-4
-1.009, 6.014e-4
-1.010, 6.630e-4
-1.011, 7.216e-4
-1.012, 7.802e-4
-1.013, 8.388e-4
-1.014, 8.912e-4
-1.015, 9.405e-4
-1.016, 9.868e-4
-1.017, 1.030e-3
-1.018, 1.073e-3
-1.019, 1.116e-3
-1.020, 1.159e-3
-1.021, 1.203e-3
-1.022, 1.246e-3
-1.023, 1.286e-3
-1.024, 1.326e-3
-1.025, 1.363e-3
-1.026, 1.394e-3
-1.027, 1.425e-3
-1.028, 1.455e-3
-1.029, 1.486e-3
-1.030, 1.520e-3
-1.031, 1.554e-3
-1.032, 1.591e-3
-1.033, 1.628e-3
-1.034, 1.659e-3
-1.035, 1.690e-3
-1.036, 1.714e-3
-1.037, 1.742e-3
-1.038, 1.764e-3
-1.039, 1.788e-3
-1.040, 1.813e-3
-1.041, 1.844e-3
-1.042, 1.872e-3
-1.043, 1.899e-3
-1.044, 1.927e-3
-1.045, 1.952e-3
-1.046, 1.970e-3
-1.047, 1.992e-3
-1.048, 2.007e-3
-1.049, 2.029e-3
-1.050, 2.050e-3
-1.051, 2.075e-3
-1.052, 2.100e-3
-1.053, 2.124e-3
-1.054, 2.149e-3
-1.055, 2.171e-3
-1.056, 2.189e-3
-1.057, 2.205e-3
-1.058, 2.223e-3
-1.059, 2.242e-3
-1.060, 2.263e-3
-1.061, 2.285e-3
-1.062, 2.309e-3
-1.063, 2.331e-3
-1.064, 2.356e-3
-1.065, 2.374e-3
-1.066, 2.390e-3
-1.067, 2.408e-3
-1.068, 2.423e-3
-1.069, 2.439e-3
-1.070, 2.457e-3
-1.071, 2.476e-3
-1.072, 2.497e-3
-1.073, 2.519e-3
-1.074, 2.538e-3
-1.075, 2.556e-3
-1.076, 2.571e-3
-1.077, 2.587e-3
-1.078, 2.602e-3
-1.079, 2.618e-3
-1.080, 2.639e-3
-1.081, 2.661e-3
-1.082, 2.686e-3
-1.083, 2.707e-3
-1.084, 2.729e-3
-1.085, 2.747e-3
-1.086, 2.763e-3
-1.087, 2.775e-3
-1.088, 2.787e-3
-1.089, 2.803e-3
-1.090, 2.818e-3
-1.091, 2.837e-3
-1.092, 2.852e-3
-1.093, 2.871e-3
-1.094, 2.889e-3
-1.095, 2.904e-3
-1.096, 2.917e-3
-1.097, 2.932e-3
-1.098, 2.941e-3
-1.099, 2.957e-3
-1.100, 2.975e-3
-1.101, 2.994e-3
-1.102, 3.012e-3
-1.103, 3.034e-3
-1.104, 3.052e-3
-1.105, 3.071e-3
-1.106, 3.083e-3
-1.107, 3.096e-3
-1.108, 3.111e-3
-1.109, 3.123e-3
-1.110, 3.136e-3
-1.111, 3.151e-3
-1.112, 3.167e-3
-1.113, 3.185e-3
-1.114, 3.200e-3
-1.115, 3.213e-3
-1.116, 3.222e-3
-1.117, 3.228e-3
-1.118, 3.237e-3
-1.119, 3.247e-3
-1.120, 3.256e-3
-1.121, 3.271e-3
-1.122, 3.284e-3
-1.123, 3.299e-3
-1.124, 3.311e-3
-1.125, 3.324e-3
-1.126, 3.336e-3
-1.127, 3.342e-3
-1.128, 3.355e-3
-1.129, 3.364e-3
-1.130, 3.379e-3
-1.131, 3.392e-3
-1.132, 3.407e-3
-1.133, 3.419e-3
-1.134, 3.429e-3
-1.135, 3.438e-3
-1.136, 3.441e-3
-1.137, 3.447e-3
-1.138, 3.453e-3
-1.139, 3.462e-3
-1.140, 3.475e-3
-1.141, 3.487e-3
-1.142, 3.499e-3
-1.143, 3.509e-3
-1.144, 3.515e-3
-1.145, 3.518e-3
-1.146, 3.515e-3
-1.147, 3.518e-3
-1.148, 3.518e-3
-1.149, 3.521e-3
-1.150, 3.533e-3
-1.151, 3.546e-3
-1.152, 3.561e-3
-1.153, 3.577e-3
-1.154, 3.586e-3
-1.155, 3.592e-3
-1.156, 3.595e-3
-1.157, 3.595e-3
-1.158, 3.595e-3
-1.159, 3.595e-3
-1.160, 3.598e-3
-1.161, 3.607e-3
-1.162, 3.610e-3
-1.163, 3.617e-3
-1.164, 3.623e-3
-1.165, 3.620e-3
-1.166, 3.620e-3
-1.167, 3.620e-3
-1.168, 3.620e-3
-1.169, 3.626e-3
-1.170, 3.635e-3
-1.171, 3.647e-3
-1.172, 3.657e-3
-1.173, 3.666e-3
-1.174, 3.672e-3
-1.175, 3.678e-3
-1.176, 3.678e-3
-1.177, 3.681e-3
-1.178, 3.681e-3
-1.179, 3.681e-3
-1.180, 3.684e-3
-1.181, 3.688e-3
-1.182, 3.694e-3
-1.183, 3.700e-3
-1.184, 3.706e-3
-1.185, 3.706e-3
-1.186, 3.709e-3
-1.187, 3.709e-3
-1.188, 3.712e-3
-1.189, 3.712e-3
-1.190, 3.715e-3
-1.191, 3.721e-3
-1.192, 3.725e-3
-1.193, 3.734e-3
-1.194, 3.740e-3
-1.195, 3.743e-3
-1.196, 3.749e-3
-1.197, 3.749e-3
-1.198, 3.749e-3
-1.199, 3.749e-3
-1.200, 3.749e-3
-1.201, 3.752e-3
-1.202, 3.758e-3
-1.203, 3.768e-3
-1.204, 3.777e-3
-1.205, 3.780e-3
-1.206, 3.777e-3
-1.207, 3.774e-3
-1.208, 3.768e-3
-1.209, 3.765e-3
-1.210, 3.768e-3
-1.211, 3.774e-3
-1.212, 3.783e-3
-1.213, 3.792e-3
-1.214, 3.799e-3
-1.215, 3.802e-3
-1.216, 3.802e-3
-1.217, 3.805e-3
-1.218, 3.805e-3
-1.219, 3.805e-3
-1.220, 3.811e-3
-1.221, 3.817e-3
-1.222, 3.826e-3
-1.223, 3.832e-3
-1.224, 3.836e-3
-1.225, 3.836e-3
-1.226, 3.832e-3
-1.227, 3.826e-3
-1.228, 3.820e-3
-1.229, 3.820e-3
-1.230, 3.820e-3
-1.231, 3.823e-3
-1.232, 3.823e-3
-1.233, 3.826e-3
-1.234, 3.823e-3
-1.235, 3.817e-3
-1.236, 3.811e-3
-1.237, 3.805e-3
-1.238, 3.802e-3
-1.239, 3.802e-3
-1.240, 3.808e-3
-1.241, 3.814e-3
-1.242, 3.817e-3
-1.243, 3.817e-3
-1.244, 3.817e-3
-1.245, 3.817e-3
-1.246, 3.814e-3
-1.247, 3.811e-3
-1.248, 3.808e-3
-1.249, 3.808e-3
-1.250, 3.811e-3
-1.251, 3.811e-3
-1.252, 3.814e-3
-1.253, 3.814e-3
-1.254, 3.814e-3
-1.255, 3.811e-3
-1.256, 3.802e-3
-1.257, 3.795e-3
-1.258, 3.789e-3
-1.259, 3.780e-3
-1.260, 3.780e-3
-1.261, 3.780e-3
-1.262, 3.786e-3
-1.263, 3.795e-3
-1.264, 3.802e-3
-1.265, 3.811e-3
-1.266, 3.808e-3
-1.267, 3.799e-3
-1.268, 3.789e-3
-1.269, 3.780e-3
-1.270, 3.774e-3
-1.271, 3.768e-3
-1.272, 3.765e-3
-1.273, 3.762e-3
-1.274, 3.755e-3
-1.275, 3.752e-3
-1.276, 3.752e-3
-1.277, 3.749e-3
-1.278, 3.749e-3
-1.279, 3.746e-3
-1.280, 3.743e-3
-1.281, 3.737e-3
-1.282, 3.734e-3
-1.283, 3.728e-3
-1.284, 3.731e-3
-1.285, 3.731e-3
-1.286, 3.728e-3
-1.287, 3.725e-3
-1.288, 3.718e-3
-1.289, 3.715e-3
-1.290, 3.712e-3
-1.291, 3.709e-3
-1.292, 3.709e-3
-1.293, 3.706e-3
-1.294, 3.706e-3
-1.295, 3.703e-3
-1.296, 3.700e-3
-1.297, 3.697e-3
-1.298, 3.697e-3
-1.299, 3.694e-3
-1.300, 3.694e-3
-1.301, 3.697e-3
-1.302, 3.697e-3
-1.303, 3.697e-3
-1.304, 3.694e-3
-1.305, 3.691e-3
-1.306, 3.684e-3
-1.307, 3.675e-3
-1.308, 3.666e-3
-1.309, 3.660e-3
-1.310, 3.657e-3
-1.311, 3.657e-3
-1.312, 3.654e-3
-1.313, 3.654e-3
-1.314, 3.651e-3
-1.315, 3.647e-3
-1.316, 3.641e-3
-1.317, 3.635e-3
-1.318, 3.629e-3
-1.319, 3.623e-3
-1.320, 3.623e-3
-1.321, 3.623e-3
-1.322, 3.623e-3
-1.323, 3.623e-3
-1.324, 3.620e-3
-1.325, 3.617e-3
-1.326, 3.610e-3
-1.327, 3.604e-3
-1.328, 3.598e-3
-1.329, 3.595e-3
-1.330, 3.592e-3
-1.331, 3.592e-3
-1.332, 3.595e-3
-1.333, 3.595e-3
-1.334, 3.595e-3
-1.335, 3.595e-3
-1.336, 3.592e-3
-1.337, 3.589e-3
-1.338, 3.583e-3
-1.339, 3.580e-3
-1.340, 3.577e-3
-1.341, 3.577e-3
-1.342, 3.580e-3
-1.343, 3.583e-3
-1.344, 3.586e-3
-1.345, 3.583e-3
-1.346, 3.580e-3
-1.347, 3.577e-3
-1.348, 3.570e-3
-1.349, 3.567e-3
-1.350, 3.567e-3
-1.351, 3.570e-3
-1.352, 3.577e-3
-1.353, 3.580e-3
-1.354, 3.586e-3
-1.355, 3.586e-3
-1.356, 3.583e-3
-1.357, 3.580e-3
-1.358, 3.577e-3
-1.359, 3.577e-3
-1.360, 3.580e-3
-1.361, 3.586e-3
-1.362, 3.592e-3
-1.363, 3.598e-3
-1.364, 3.604e-3
-1.365, 3.607e-3
-1.366, 3.610e-3
-1.367, 3.614e-3
-1.368, 3.614e-3
-1.369, 3.620e-3
-1.370, 3.626e-3
-1.371, 3.638e-3
-1.372, 3.651e-3
-1.373, 3.660e-3
-1.374, 3.666e-3
-1.375, 3.672e-3
-1.376, 3.675e-3
-1.377, 3.678e-3
-1.378, 3.681e-3
-1.379, 3.691e-3
-1.380, 3.700e-3
-1.381, 3.712e-3
-1.382, 3.728e-3
-1.383, 3.743e-3
-1.384, 3.758e-3
-1.385, 3.771e-3
-1.386, 3.783e-3
-1.387, 3.795e-3
-1.388, 3.808e-3
-1.389, 3.820e-3
-1.390, 3.839e-3
-1.391, 3.854e-3
-1.392, 3.876e-3
-1.393, 3.900e-3
-1.394, 3.922e-3
-1.395, 3.943e-3
-1.396, 3.965e-3
-1.397, 3.980e-3
-1.398, 3.999e-3
-1.399, 4.017e-3
-1.400, 3.965e-3
-1.399, 3.795e-3
-1.398, 3.647e-3
-1.397, 3.521e-3
-1.396, 3.401e-3
-1.395, 3.290e-3
-1.394, 3.185e-3
-1.393, 3.089e-3
-1.392, 2.997e-3
-1.391, 2.914e-3
-1.390, 2.840e-3
-1.389, 2.772e-3
-1.388, 2.707e-3
-1.387, 2.645e-3
-1.386, 2.584e-3
-1.385, 2.522e-3
-1.384, 2.464e-3
-1.383, 2.402e-3
-1.382, 2.346e-3
-1.381, 2.294e-3
-1.380, 2.248e-3
-1.379, 2.205e-3
-1.378, 2.164e-3
-1.377, 2.128e-3
-1.376, 2.087e-3
-1.375, 2.044e-3
-1.374, 2.001e-3
-1.373, 1.955e-3
-1.372, 1.912e-3
-1.371, 1.872e-3
-1.370, 1.838e-3
-1.369, 1.807e-3
-1.368, 1.779e-3
-1.367, 1.748e-3
-1.366, 1.714e-3
-1.365, 1.680e-3
-1.364, 1.640e-3
-1.363, 1.603e-3
-1.362, 1.563e-3
-1.361, 1.526e-3
-1.360, 1.492e-3
-1.359, 1.462e-3
-1.358, 1.431e-3
-1.357, 1.403e-3
-1.356, 1.372e-3
-1.355, 1.341e-3
-1.354, 1.304e-3
-1.353, 1.267e-3
-1.352, 1.233e-3
-1.351, 1.199e-3
-1.350, 1.169e-3
-1.349, 1.138e-3
-1.348, 1.110e-3
-1.347, 1.079e-3
-1.346, 1.051e-3
-1.345, 1.021e-3
-1.344, 9.868e-4
-1.343, 9.498e-4
-1.342, 9.128e-4
-1.341, 8.788e-4
-1.340, 8.480e-4
-1.339, 8.203e-4
-1.338, 7.894e-4
-1.337, 7.617e-4
-1.336, 7.339e-4
-1.335, 7.031e-4
-1.334, 6.692e-4
-1.333, 6.353e-4
-1.332, 5.983e-4
-1.331, 5.674e-4
-1.330, 5.366e-4
-1.329, 5.089e-4
-1.328, 4.811e-4
-1.327, 4.565e-4
-1.326, 4.256e-4
-1.325, 3.979e-4
-1.324, 3.640e-4
-1.323, 3.300e-4
-1.322, 2.961e-4
-1.321, 2.653e-4
-1.320, 2.376e-4
-1.319, 2.098e-4
-1.318, 1.851e-4
-1.317, 1.605e-4
-1.316, 1.327e-4
-1.315, 1.050e-4
-1.314, 7.415e-5
-1.313, 4.332e-5
-1.312, 9.405e-6
-1.311, -1.834e-5
-1.310, -4.609e-5
-1.309, -7.076e-5
-1.308, -9.542e-5
-1.307, -1.170e-4
-1.306, -1.417e-4
-1.305, -1.694e-4
-1.304, -1.972e-4
-1.303, -2.280e-4
-1.302, -2.557e-4
-1.301, -2.835e-4
-1.300, -3.082e-4
-1.299, -3.328e-4
-1.298, -3.544e-4
-1.297, -3.729e-4
-1.296, -3.945e-4
-1.295, -4.191e-4
-1.294, -4.438e-4
-1.293, -4.716e-4
-1.292, -5.024e-4
-1.291, -5.271e-4
-1.290, -5.486e-4
-1.289, -5.671e-4
-1.288, -5.856e-4
-1.287, -6.041e-4
-1.286, -6.226e-4
-1.285, -6.473e-4
-1.284, -6.720e-4
-1.283, -6.966e-4
-1.282, -7.182e-4
-1.281, -7.429e-4
-1.280, -7.614e-4
-1.279, -7.799e-4
-1.278, -7.984e-4
-1.277, -8.107e-4
-1.276, -8.323e-4
-1.275, -8.508e-4
-1.274, -8.724e-4
-1.273, -8.970e-4
-1.272, -9.186e-4
-1.271, -9.402e-4
-1.270, -9.556e-4
-1.269, -9.710e-4
-1.268, -9.864e-4
-1.267, -1.002e-3
-1.266, -1.017e-3
-1.265, -1.036e-3
-1.264, -1.051e-3
-1.263, -1.073e-3
-1.262, -1.094e-3
-1.261, -1.113e-3
-1.260, -1.128e-3
-1.259, -1.144e-3
-1.258, -1.153e-3
-1.257, -1.162e-3
-1.256, -1.175e-3
-1.255, -1.190e-3
-1.254, -1.208e-3
-1.253, -1.227e-3
-1.252, -1.245e-3
-1.251, -1.264e-3
-1.250, -1.276e-3
-1.249, -1.289e-3
-1.248, -1.298e-3
-1.247, -1.307e-3
-1.246, -1.319e-3
-1.245, -1.335e-3
-1.244, -1.350e-3
-1.243, -1.369e-3
-1.242, -1.387e-3
-1.241, -1.403e-3
-1.240, -1.415e-3
-1.239, -1.427e-3
-1.238, -1.437e-3
-1.237, -1.446e-3
-1.236, -1.455e-3
-1.235, -1.467e-3
-1.234, -1.483e-3
-1.233, -1.498e-3
-1.232, -1.514e-3
-1.231, -1.529e-3
-1.230, -1.541e-3
-1.229, -1.551e-3
-1.228, -1.560e-3
-1.227, -1.566e-3
-1.226, -1.575e-3
-1.225, -1.588e-3
-1.224, -1.603e-3
-1.223, -1.618e-3
-1.222, -1.634e-3
-1.221, -1.646e-3
-1.220, -1.659e-3
-1.219, -1.665e-3
-1.218, -1.671e-3
-1.217, -1.680e-3
-1.216, -1.686e-3
-1.215, -1.699e-3
-1.214, -1.711e-3
-1.213, -1.723e-3
-1.212, -1.739e-3
-1.211, -1.751e-3
-1.210, -1.760e-3
-1.209, -1.770e-3
-1.208, -1.773e-3
-1.207, -1.779e-3
-1.206, -1.788e-3
-1.205, -1.797e-3
-1.204, -1.810e-3
-1.203, -1.825e-3
-1.202, -1.840e-3
-1.201, -1.856e-3
-1.200, -1.865e-3
-1.199, -1.874e-3
-1.198, -1.881e-3
-1.197, -1.887e-3
-1.196, -1.893e-3
-1.195, -1.905e-3
-1.194, -1.914e-3
-1.193, -1.927e-3
-1.192, -1.939e-3
-1.191, -1.948e-3
-1.190, -1.955e-3
-1.189, -1.961e-3
-1.188, -1.967e-3
-1.187, -1.973e-3
-1.186, -1.982e-3
-1.185, -1.992e-3
-1.184, -2.004e-3
-1.183, -2.016e-3
-1.182, -2.032e-3
-1.181, -2.044e-3
-1.180, -2.056e-3
-1.179, -2.062e-3
-1.178, -2.069e-3
-1.177, -2.075e-3
-1.176, -2.081e-3
-1.175, -2.090e-3
-1.174, -2.103e-3
-1.173, -2.115e-3
-1.172, -2.130e-3
-1.171, -2.140e-3
-1.170, -2.149e-3
-1.169, -2.152e-3
-1.168, -2.155e-3
-1.167, -2.161e-3
-1.166, -2.164e-3
-1.165, -2.173e-3
-1.164, -2.186e-3
-1.163, -2.198e-3
-1.162, -2.214e-3
-1.161, -2.226e-3
-1.160, -2.235e-3
-1.159, -2.241e-3
-1.158, -2.247e-3
-1.157, -2.254e-3
-1.156, -2.263e-3
-1.155, -2.272e-3
-1.154, -2.284e-3
-1.153, -2.300e-3
-1.152, -2.312e-3
-1.151, -2.325e-3
-1.150, -2.334e-3
-1.149, -2.340e-3
-1.148, -2.346e-3
-1.147, -2.352e-3
-1.146, -2.358e-3
-1.145, -2.368e-3
-1.144, -2.377e-3
-1.143, -2.389e-3
-1.142, -2.405e-3
-1.141, -2.414e-3
-1.140, -2.423e-3
-1.139, -2.432e-3
-1.138, -2.439e-3
-1.137, -2.445e-3
-1.136, -2.454e-3
-1.135, -2.463e-3
-1.134, -2.476e-3
-1.133, -2.488e-3
-1.132, -2.503e-3
-1.131, -2.516e-3
-1.130, -2.525e-3
-1.129, -2.534e-3
-1.128, -2.540e-3
-1.127, -2.543e-3
-1.126, -2.553e-3
-1.125, -2.562e-3
-1.124, -2.574e-3
-1.123, -2.587e-3
-1.122, -2.602e-3
-1.121, -2.614e-3
-1.120, -2.624e-3
-1.119, -2.633e-3
-1.118, -2.639e-3
-1.117, -2.642e-3
-1.116, -2.648e-3
-1.115, -2.657e-3
-1.114, -2.670e-3
-1.113, -2.682e-3
-1.112, -2.698e-3
-1.111, -2.710e-3
-1.110, -2.719e-3
-1.109, -2.722e-3
-1.108, -2.725e-3
-1.107, -2.728e-3
-1.106, -2.735e-3
-1.105, -2.747e-3
-1.104, -2.762e-3
-1.103, -2.778e-3
-1.102, -2.793e-3
-1.101, -2.805e-3
-1.100, -2.812e-3
-1.099, -2.818e-3
-1.098, -2.824e-3
-1.097, -2.827e-3
-1.096, -2.836e-3
-1.095, -2.849e-3
-1.094, -2.861e-3
-1.093, -2.873e-3
-1.092, -2.889e-3
-1.091, -2.901e-3
-1.090, -2.913e-3
-1.089, -2.920e-3
-1.088, -2.923e-3
-1.087, -2.929e-3
-1.086, -2.935e-3
-1.085, -2.944e-3
-1.084, -2.953e-3
-1.083, -2.966e-3
-1.082, -2.981e-3
-1.081, -2.997e-3
-1.080, -3.009e-3
-1.079, -3.018e-3
-1.078, -3.027e-3
-1.077, -3.037e-3
-1.076, -3.046e-3
-1.075, -3.058e-3
-1.074, -3.071e-3
-1.073, -3.086e-3
-1.072, -3.098e-3
-1.071, -3.111e-3
-1.070, -3.120e-3
-1.069, -3.126e-3
-1.068, -3.132e-3
-1.067, -3.135e-3
-1.066, -3.145e-3
-1.065, -3.154e-3
-1.064, -3.166e-3
-1.063, -3.179e-3
-1.062, -3.191e-3
-1.061, -3.200e-3
-1.060, -3.206e-3
-1.059, -3.212e-3
-1.058, -3.216e-3
-1.057, -3.222e-3
-1.056, -3.228e-3
-1.055, -3.240e-3
-1.054, -3.253e-3
-1.053, -3.268e-3
-1.052, -3.283e-3
-1.051, -3.293e-3
-1.050, -3.302e-3
-1.049, -3.311e-3
-1.048, -3.320e-3
-1.047, -3.330e-3
-1.046, -3.339e-3
-1.045, -3.351e-3
-1.044, -3.364e-3
-1.043, -3.379e-3
-1.042, -3.394e-3
-1.041, -3.404e-3
-1.040, -3.416e-3
-1.039, -3.422e-3
-1.038, -3.425e-3
-1.037, -3.431e-3
-1.036, -3.438e-3
-1.035, -3.447e-3
-1.034, -3.462e-3
-1.033, -3.478e-3
-1.032, -3.493e-3
-1.031, -3.508e-3
-1.030, -3.521e-3
-1.029, -3.530e-3
-1.028, -3.539e-3
-1.027, -3.542e-3
-1.026, -3.552e-3
-1.025, -3.561e-3
-1.024, -3.573e-3
-1.023, -3.589e-3
-1.022, -3.604e-3
-1.021, -3.616e-3
-1.020, -3.626e-3
-1.019, -3.635e-3
-1.018, -3.638e-3
-1.017, -3.644e-3
-1.016, -3.647e-3
-1.015, -3.659e-3
-1.014, -3.669e-3
-1.013, -3.681e-3
-1.012, -3.703e-3
-1.011, -3.718e-3
-1.010, -3.733e-3
-1.009, -3.749e-3
-1.008, -3.758e-3
-1.007, -3.767e-3
-1.006, -3.777e-3
-1.005, -3.789e-3
-1.004, -3.811e-3
-1.003, -3.826e-3
-1.002, -3.841e-3
-1.001, -3.854e-3
