June 30, 2026   17:34:31
Cyclic Voltammetry
File: c:/users/guazh/data/20260623_doe_duplica2/2026-06-24-exp52\exp52-2026-06-30t17_20_17-h2koh\exp52_cv_sr_300mvs_efin_-1600mv.bin
Data Source:  Experiment
Instrument Model:  CHI760E
Header: CV ran at 300 mVs
Note: 

Init E (V) = -1
High E (V) = -1
Low E (V) = -1.6
Final E (V) = -1
Init P/N = N
Scan Rate (V/s) = 0.3
Segment = 3
Sample Interval (V) = 0.001
Quiet Time (sec) = 2
Sensitivity (A/V) = 0.01
Comp R (ohm) = 1.9

Results:

Channel 1:
Segment 1:

Segment 2:

Segment 3:

Potential/V, Current/A

-1.000, 2.790e-5
-1.001, 8.340e-5
-1.002, 1.019e-4
-1.003, 1.081e-4
-1.004, 1.111e-4
-1.005, 1.142e-4
-1.006, 1.173e-4
-1.007, 1.204e-4
-1.008, 1.204e-4
-1.009, 1.204e-4
-1.010, 1.235e-4
-1.011, 1.235e-4
-1.012, 1.266e-4
-1.013, 1.266e-4
-1.014, 1.266e-4
-1.015, 1.296e-4
-1.016, 1.296e-4
-1.017, 1.296e-4
-1.018, 1.327e-4
-1.019, 1.296e-4
-1.020, 1.296e-4
-1.021, 1.327e-4
-1.022, 1.327e-4
-1.023, 1.327e-4
-1.024, 1.358e-4
-1.025, 1.358e-4
-1.026, 1.358e-4
-1.027, 1.358e-4
-1.028, 1.358e-4
-1.029, 1.358e-4
-1.030, 1.389e-4
-1.031, 1.389e-4
-1.032, 1.358e-4
-1.033, 1.389e-4
-1.034, 1.389e-4
-1.035, 1.389e-4
-1.036, 1.389e-4
-1.037, 1.389e-4
-1.038, 1.389e-4
-1.039, 1.389e-4
-1.040, 1.389e-4
-1.041, 1.420e-4
-1.042, 1.420e-4
-1.043, 1.420e-4
-1.044, 1.420e-4
-1.045, 1.420e-4
-1.046, 1.420e-4
-1.047, 1.451e-4
-1.048, 1.420e-4
-1.049, 1.420e-4
-1.050, 1.420e-4
-1.051, 1.420e-4
-1.052, 1.451e-4
-1.053, 1.420e-4
-1.054, 1.420e-4
-1.055, 1.451e-4
-1.056, 1.451e-4
-1.057, 1.451e-4
-1.058, 1.451e-4
-1.059, 1.451e-4
-1.060, 1.451e-4
-1.061, 1.451e-4
-1.062, 1.451e-4
-1.063, 1.451e-4
-1.064, 1.451e-4
-1.065, 1.451e-4
-1.066, 1.451e-4
-1.067, 1.451e-4
-1.068, 1.451e-4
-1.069, 1.451e-4
-1.070, 1.451e-4
-1.071, 1.451e-4
-1.072, 1.451e-4
-1.073, 1.451e-4
-1.074, 1.451e-4
-1.075, 1.481e-4
-1.076, 1.481e-4
-1.077, 1.481e-4
-1.078, 1.451e-4
-1.079, 1.481e-4
-1.080, 1.451e-4
-1.081, 1.481e-4
-1.082, 1.481e-4
-1.083, 1.481e-4
-1.084, 1.481e-4
-1.085, 1.481e-4
-1.086, 1.481e-4
-1.087, 1.481e-4
-1.088, 1.481e-4
-1.089, 1.481e-4
-1.090, 1.481e-4
-1.091, 1.481e-4
-1.092, 1.481e-4
-1.093, 1.481e-4
-1.094, 1.481e-4
-1.095, 1.512e-4
-1.096, 1.481e-4
-1.097, 1.512e-4
-1.098, 1.512e-4
-1.099, 1.481e-4
-1.100, 1.481e-4
-1.101, 1.512e-4
-1.102, 1.512e-4
-1.103, 1.512e-4
-1.104, 1.481e-4
-1.105, 1.481e-4
-1.106, 1.481e-4
-1.107, 1.512e-4
-1.108, 1.512e-4
-1.109, 1.481e-4
-1.110, 1.481e-4
-1.111, 1.512e-4
-1.112, 1.512e-4
-1.113, 1.512e-4
-1.114, 1.512e-4
-1.115, 1.512e-4
-1.116, 1.512e-4
-1.117, 1.512e-4
-1.118, 1.512e-4
-1.119, 1.512e-4
-1.120, 1.512e-4
-1.121, 1.512e-4
-1.122, 1.512e-4
-1.123, 1.512e-4
-1.124, 1.512e-4
-1.125, 1.512e-4
-1.126, 1.512e-4
-1.127, 1.543e-4
-1.128, 1.512e-4
-1.129, 1.512e-4
-1.130, 1.512e-4
-1.131, 1.512e-4
-1.132, 1.543e-4
-1.133, 1.512e-4
-1.134, 1.512e-4
-1.135, 1.512e-4
-1.136, 1.512e-4
-1.137, 1.543e-4
-1.138, 1.543e-4
-1.139, 1.543e-4
-1.140, 1.543e-4
-1.141, 1.543e-4
-1.142, 1.543e-4
-1.143, 1.543e-4
-1.144, 1.543e-4
-1.145, 1.543e-4
-1.146, 1.543e-4
-1.147, 1.543e-4
-1.148, 1.543e-4
-1.149, 1.543e-4
-1.150, 1.543e-4
-1.151, 1.543e-4
-1.152, 1.543e-4
-1.153, 1.543e-4
-1.154, 1.543e-4
-1.155, 1.543e-4
-1.156, 1.543e-4
-1.157, 1.543e-4
-1.158, 1.574e-4
-1.159, 1.543e-4
-1.160, 1.543e-4
-1.161, 1.574e-4
-1.162, 1.543e-4
-1.163, 1.543e-4
-1.164, 1.543e-4
-1.165, 1.574e-4
-1.166, 1.574e-4
-1.167, 1.574e-4
-1.168, 1.574e-4
-1.169, 1.574e-4
-1.170, 1.574e-4
-1.171, 1.574e-4
-1.172, 1.574e-4
-1.173, 1.574e-4
-1.174, 1.574e-4
-1.175, 1.574e-4
-1.176, 1.574e-4
-1.177, 1.574e-4
-1.178, 1.605e-4
-1.179, 1.605e-4
-1.180, 1.605e-4
-1.181, 1.605e-4
-1.182, 1.605e-4
-1.183, 1.605e-4
-1.184, 1.605e-4
-1.185, 1.605e-4
-1.186, 1.636e-4
-1.187, 1.605e-4
-1.188, 1.605e-4
-1.189, 1.605e-4
-1.190, 1.636e-4
-1.191, 1.636e-4
-1.192, 1.636e-4
-1.193, 1.636e-4
-1.194, 1.636e-4
-1.195, 1.636e-4
-1.196, 1.636e-4
-1.197, 1.666e-4
-1.198, 1.636e-4
-1.199, 1.636e-4
-1.200, 1.636e-4
-1.201, 1.666e-4
-1.202, 1.666e-4
-1.203, 1.666e-4
-1.204, 1.666e-4
-1.205, 1.666e-4
-1.206, 1.666e-4
-1.207, 1.697e-4
-1.208, 1.697e-4
-1.209, 1.697e-4
-1.210, 1.697e-4
-1.211, 1.697e-4
-1.212, 1.728e-4
-1.213, 1.697e-4
-1.214, 1.697e-4
-1.215, 1.728e-4
-1.216, 1.728e-4
-1.217, 1.728e-4
-1.218, 1.728e-4
-1.219, 1.728e-4
-1.220, 1.728e-4
-1.221, 1.759e-4
-1.222, 1.759e-4
-1.223, 1.759e-4
-1.224, 1.759e-4
-1.225, 1.790e-4
-1.226, 1.790e-4
-1.227, 1.790e-4
-1.228, 1.790e-4
-1.229, 1.821e-4
-1.230, 1.821e-4
-1.231, 1.821e-4
-1.232, 1.851e-4
-1.233, 1.821e-4
-1.234, 1.851e-4
-1.235, 1.851e-4
-1.236, 1.882e-4
-1.237, 1.882e-4
-1.238, 1.882e-4
-1.239, 1.882e-4
-1.240, 1.882e-4
-1.241, 1.913e-4
-1.242, 1.913e-4
-1.243, 1.913e-4
-1.244, 1.944e-4
-1.245, 1.944e-4
-1.246, 1.975e-4
-1.247, 1.975e-4
-1.248, 1.975e-4
-1.249, 2.006e-4
-1.250, 2.006e-4
-1.251, 2.006e-4
-1.252, 2.036e-4
-1.253, 2.036e-4
-1.254, 2.036e-4
-1.255, 2.067e-4
-1.256, 2.067e-4
-1.257, 2.098e-4
-1.258, 2.098e-4
-1.259, 2.098e-4
-1.260, 2.129e-4
-1.261, 2.160e-4
-1.262, 2.160e-4
-1.263, 2.160e-4
-1.264, 2.191e-4
-1.265, 2.191e-4
-1.266, 2.221e-4
-1.267, 2.221e-4
-1.268, 2.252e-4
-1.269, 2.252e-4
-1.270, 2.283e-4
-1.271, 2.314e-4
-1.272, 2.314e-4
-1.273, 2.345e-4
-1.274, 2.345e-4
-1.275, 2.376e-4
-1.276, 2.376e-4
-1.277, 2.406e-4
-1.278, 2.437e-4
-1.279, 2.437e-4
-1.280, 2.468e-4
-1.281, 2.499e-4
-1.282, 2.530e-4
-1.283, 2.530e-4
-1.284, 2.561e-4
-1.285, 2.561e-4
-1.286, 2.591e-4
-1.287, 2.622e-4
-1.288, 2.653e-4
-1.289, 2.653e-4
-1.290, 2.684e-4
-1.291, 2.715e-4
-1.292, 2.746e-4
-1.293, 2.746e-4
-1.294, 2.776e-4
-1.295, 2.807e-4
-1.296, 2.838e-4
-1.297, 2.900e-4
-1.298, 2.900e-4
-1.299, 2.931e-4
-1.300, 2.961e-4
-1.301, 2.961e-4
-1.302, 3.023e-4
-1.303, 3.054e-4
-1.304, 3.054e-4
-1.305, 3.085e-4
-1.306, 3.115e-4
-1.307, 3.177e-4
-1.308, 3.208e-4
-1.309, 3.208e-4
-1.310, 3.239e-4
-1.311, 3.300e-4
-1.312, 3.331e-4
-1.313, 3.362e-4
-1.314, 3.393e-4
-1.315, 3.424e-4
-1.316, 3.455e-4
-1.317, 3.516e-4
-1.318, 3.547e-4
-1.319, 3.578e-4
-1.320, 3.609e-4
-1.321, 3.640e-4
-1.322, 3.701e-4
-1.323, 3.732e-4
-1.324, 3.763e-4
-1.325, 3.825e-4
-1.326, 3.855e-4
-1.327, 3.886e-4
-1.328, 3.917e-4
-1.329, 3.948e-4
-1.330, 4.010e-4
-1.331, 4.071e-4
-1.332, 4.102e-4
-1.333, 4.164e-4
-1.334, 4.195e-4
-1.335, 4.256e-4
-1.336, 4.287e-4
-1.337, 4.349e-4
-1.338, 4.380e-4
-1.339, 4.410e-4
-1.340, 4.472e-4
-1.341, 4.534e-4
-1.342, 4.565e-4
-1.343, 4.626e-4
-1.344, 4.657e-4
-1.345, 4.719e-4
-1.346, 4.780e-4
-1.347, 4.842e-4
-1.348, 4.873e-4
-1.349, 4.935e-4
-1.350, 4.996e-4
-1.351, 5.027e-4
-1.352, 5.089e-4
-1.353, 5.181e-4
-1.354, 5.212e-4
-1.355, 5.274e-4
-1.356, 5.335e-4
-1.357, 5.397e-4
-1.358, 5.428e-4
-1.359, 5.489e-4
-1.360, 5.551e-4
-1.361, 5.644e-4
-1.362, 5.705e-4
-1.363, 5.736e-4
-1.364, 5.767e-4
-1.365, 5.829e-4
-1.366, 5.952e-4
-1.367, 6.014e-4
-1.368, 6.075e-4
-1.369, 6.137e-4
-1.370, 6.199e-4
-1.371, 6.260e-4
-1.372, 6.353e-4
-1.373, 6.414e-4
-1.374, 6.476e-4
-1.375, 6.538e-4
-1.376, 6.599e-4
-1.377, 6.692e-4
-1.378, 6.754e-4
-1.379, 6.815e-4
-1.380, 6.877e-4
-1.381, 7.000e-4
-1.382, 7.062e-4
-1.383, 7.154e-4
-1.384, 7.154e-4
-1.385, 7.247e-4
-1.386, 7.370e-4
-1.387, 7.463e-4
-1.388, 7.555e-4
-1.389, 7.617e-4
-1.390, 7.679e-4
-1.391, 7.771e-4
-1.392, 7.863e-4
-1.393, 7.956e-4
-1.394, 8.018e-4
-1.395, 8.110e-4
-1.396, 8.233e-4
-1.397, 8.295e-4
-1.398, 8.388e-4
-1.399, 8.480e-4
-1.400, 8.542e-4
-1.401, 8.665e-4
-1.402, 8.727e-4
-1.403, 8.819e-4
-1.404, 8.912e-4
-1.405, 9.004e-4
-1.406, 9.097e-4
-1.407, 9.189e-4
-1.408, 9.313e-4
-1.409, 9.374e-4
-1.410, 9.467e-4
-1.411, 9.590e-4
-1.412, 9.683e-4
-1.413, 9.775e-4
-1.414, 9.868e-4
-1.415, 9.991e-4
-1.416, 1.008e-3
-1.417, 1.021e-3
-1.418, 1.030e-3
-1.419, 1.039e-3
-1.420, 1.051e-3
-1.421, 1.061e-3
-1.422, 1.073e-3
-1.423, 1.082e-3
-1.424, 1.092e-3
-1.425, 1.107e-3
-1.426, 1.116e-3
-1.427, 1.129e-3
-1.428, 1.141e-3
-1.429, 1.150e-3
-1.430, 1.162e-3
-1.431, 1.178e-3
-1.432, 1.187e-3
-1.433, 1.199e-3
-1.434, 1.212e-3
-1.435, 1.221e-3
-1.436, 1.236e-3
-1.437, 1.246e-3
-1.438, 1.261e-3
-1.439, 1.270e-3
-1.440, 1.286e-3
-1.441, 1.298e-3
-1.442, 1.310e-3
-1.443, 1.323e-3
-1.444, 1.338e-3
-1.445, 1.351e-3
-1.446, 1.366e-3
-1.447, 1.381e-3
-1.448, 1.394e-3
-1.449, 1.406e-3
-1.450, 1.421e-3
-1.451, 1.434e-3
-1.452, 1.449e-3
-1.453, 1.465e-3
-1.454, 1.480e-3
-1.455, 1.492e-3
-1.456, 1.508e-3
-1.457, 1.523e-3
-1.458, 1.539e-3
-1.459, 1.554e-3
-1.460, 1.569e-3
-1.461, 1.585e-3
-1.462, 1.600e-3
-1.463, 1.616e-3
-1.464, 1.631e-3
-1.465, 1.650e-3
-1.466, 1.665e-3
-1.467, 1.684e-3
-1.468, 1.699e-3
-1.469, 1.714e-3
-1.470, 1.733e-3
-1.471, 1.748e-3
-1.472, 1.767e-3
-1.473, 1.785e-3
-1.474, 1.801e-3
-1.475, 1.816e-3
-1.476, 1.838e-3
-1.477, 1.853e-3
-1.478, 1.875e-3
-1.479, 1.893e-3
-1.480, 1.912e-3
-1.481, 1.930e-3
-1.482, 1.952e-3
-1.483, 1.970e-3
-1.484, 1.989e-3
-1.485, 2.007e-3
-1.486, 2.029e-3
-1.487, 2.050e-3
-1.488, 2.069e-3
-1.489, 2.087e-3
-1.490, 2.109e-3
-1.491, 2.131e-3
-1.492, 2.152e-3
-1.493, 2.174e-3
-1.494, 2.192e-3
-1.495, 2.214e-3
-1.496, 2.238e-3
-1.497, 2.260e-3
-1.498, 2.282e-3
-1.499, 2.303e-3
-1.500, 2.325e-3
-1.501, 2.349e-3
-1.502, 2.371e-3
-1.503, 2.393e-3
-1.504, 2.417e-3
-1.505, 2.442e-3
-1.506, 2.467e-3
-1.507, 2.491e-3
-1.508, 2.516e-3
-1.509, 2.541e-3
-1.510, 2.565e-3
-1.511, 2.590e-3
-1.512, 2.615e-3
-1.513, 2.639e-3
-1.514, 2.667e-3
-1.515, 2.692e-3
-1.516, 2.716e-3
-1.517, 2.744e-3
-1.518, 2.772e-3
-1.519, 2.797e-3
-1.520, 2.824e-3
-1.521, 2.855e-3
-1.522, 2.880e-3
-1.523, 2.908e-3
-1.524, 2.938e-3
-1.525, 2.966e-3
-1.526, 2.994e-3
-1.527, 3.025e-3
-1.528, 3.052e-3
-1.529, 3.083e-3
-1.530, 3.111e-3
-1.531, 3.142e-3
-1.532, 3.176e-3
-1.533, 3.207e-3
-1.534, 3.237e-3
-1.535, 3.271e-3
-1.536, 3.302e-3
-1.537, 3.336e-3
-1.538, 3.367e-3
-1.539, 3.398e-3
-1.540, 3.429e-3
-1.541, 3.462e-3
-1.542, 3.499e-3
-1.543, 3.530e-3
-1.544, 3.564e-3
-1.545, 3.601e-3
-1.546, 3.635e-3
-1.547, 3.669e-3
-1.548, 3.706e-3
-1.549, 3.740e-3
-1.550, 3.777e-3
-1.551, 3.814e-3
-1.552, 3.851e-3
-1.553, 3.894e-3
-1.554, 3.934e-3
-1.555, 3.968e-3
-1.556, 4.008e-3
-1.557, 4.045e-3
-1.558, 4.085e-3
-1.559, 4.128e-3
-1.560, 4.159e-3
-1.561, 4.196e-3
-1.562, 4.239e-3
-1.563, 4.283e-3
-1.564, 4.323e-3
-1.565, 4.366e-3
-1.566, 4.409e-3
-1.567, 4.449e-3
-1.568, 4.492e-3
-1.569, 4.535e-3
-1.570, 4.579e-3
-1.571, 4.622e-3
-1.572, 4.668e-3
-1.573, 4.711e-3
-1.574, 4.757e-3
-1.575, 4.804e-3
-1.576, 4.850e-3
-1.577, 4.896e-3
-1.578, 4.942e-3
-1.579, 4.986e-3
-1.580, 5.035e-3
-1.581, 5.081e-3
-1.582, 5.130e-3
-1.583, 5.177e-3
-1.584, 5.226e-3
-1.585, 5.282e-3
-1.586, 5.334e-3
-1.587, 5.383e-3
-1.588, 5.436e-3
-1.589, 5.485e-3
-1.590, 5.534e-3
-1.591, 5.587e-3
-1.592, 5.639e-3
-1.593, 5.688e-3
-1.594, 5.744e-3
-1.595, 5.796e-3
-1.596, 5.855e-3
-1.597, 5.907e-3
-1.598, 5.963e-3
-1.599, 6.021e-3
-1.600, 6.003e-3
-1.599, 5.910e-3
-1.598, 5.849e-3
-1.597, 5.790e-3
-1.596, 5.729e-3
-1.595, 5.667e-3
-1.594, 5.608e-3
-1.593, 5.550e-3
-1.592, 5.485e-3
-1.591, 5.426e-3
-1.590, 5.365e-3
-1.589, 5.312e-3
-1.588, 5.260e-3
-1.587, 5.201e-3
-1.586, 5.143e-3
-1.585, 5.084e-3
-1.584, 5.029e-3
-1.583, 4.976e-3
-1.582, 4.918e-3
-1.581, 4.865e-3
-1.580, 4.807e-3
-1.579, 4.754e-3
-1.578, 4.699e-3
-1.577, 4.646e-3
-1.576, 4.591e-3
-1.575, 4.542e-3
-1.574, 4.489e-3
-1.573, 4.437e-3
-1.572, 4.384e-3
-1.571, 4.335e-3
-1.570, 4.283e-3
-1.569, 4.233e-3
-1.568, 4.184e-3
-1.567, 4.135e-3
-1.566, 4.085e-3
-1.565, 4.039e-3
-1.564, 3.993e-3
-1.563, 3.947e-3
-1.562, 3.900e-3
-1.561, 3.851e-3
-1.560, 3.808e-3
-1.559, 3.762e-3
-1.558, 3.718e-3
-1.557, 3.672e-3
-1.556, 3.629e-3
-1.555, 3.586e-3
-1.554, 3.543e-3
-1.553, 3.499e-3
-1.552, 3.459e-3
-1.551, 3.416e-3
-1.550, 3.376e-3
-1.549, 3.336e-3
-1.548, 3.296e-3
-1.547, 3.256e-3
-1.546, 3.216e-3
-1.545, 3.176e-3
-1.544, 3.139e-3
-1.543, 3.099e-3
-1.542, 3.059e-3
-1.541, 3.022e-3
-1.540, 2.985e-3
-1.539, 2.948e-3
-1.538, 2.914e-3
-1.537, 2.880e-3
-1.536, 2.846e-3
-1.535, 2.809e-3
-1.534, 2.775e-3
-1.533, 2.741e-3
-1.532, 2.704e-3
-1.531, 2.676e-3
-1.530, 2.645e-3
-1.529, 2.615e-3
-1.528, 2.587e-3
-1.527, 2.556e-3
-1.526, 2.516e-3
-1.525, 2.488e-3
-1.524, 2.457e-3
-1.523, 2.423e-3
-1.522, 2.393e-3
-1.521, 2.362e-3
-1.520, 2.334e-3
-1.519, 2.303e-3
-1.518, 2.275e-3
-1.517, 2.242e-3
-1.516, 2.214e-3
-1.515, 2.195e-3
-1.514, 2.174e-3
-1.513, 2.143e-3
-1.512, 2.115e-3
-1.511, 2.087e-3
-1.510, 2.063e-3
-1.509, 2.041e-3
-1.508, 2.017e-3
-1.507, 1.989e-3
-1.506, 1.961e-3
-1.505, 1.939e-3
-1.504, 1.921e-3
-1.503, 1.893e-3
-1.502, 1.869e-3
-1.501, 1.844e-3
-1.500, 1.819e-3
-1.499, 1.798e-3
-1.498, 1.773e-3
-1.497, 1.751e-3
-1.496, 1.733e-3
-1.495, 1.711e-3
-1.494, 1.687e-3
-1.493, 1.668e-3
-1.492, 1.640e-3
-1.491, 1.625e-3
-1.490, 1.603e-3
-1.489, 1.582e-3
-1.488, 1.563e-3
-1.487, 1.542e-3
-1.486, 1.517e-3
-1.485, 1.499e-3
-1.484, 1.483e-3
-1.483, 1.468e-3
-1.482, 1.449e-3
-1.481, 1.428e-3
-1.480, 1.406e-3
-1.479, 1.391e-3
-1.478, 1.378e-3
-1.477, 1.363e-3
-1.476, 1.341e-3
-1.475, 1.320e-3
-1.474, 1.304e-3
-1.473, 1.289e-3
-1.472, 1.273e-3
-1.471, 1.258e-3
-1.470, 1.243e-3
-1.469, 1.227e-3
-1.468, 1.212e-3
-1.467, 1.196e-3
-1.466, 1.181e-3
-1.465, 1.166e-3
-1.464, 1.153e-3
-1.463, 1.138e-3
-1.462, 1.122e-3
-1.461, 1.107e-3
-1.460, 1.088e-3
-1.459, 1.076e-3
-1.458, 1.064e-3
-1.457, 1.051e-3
-1.456, 1.036e-3
-1.455, 1.021e-3
-1.454, 1.008e-3
-1.453, 9.991e-4
-1.452, 9.837e-4
-1.451, 9.713e-4
-1.450, 9.590e-4
-1.449, 9.467e-4
-1.448, 9.282e-4
-1.447, 9.158e-4
-1.446, 9.035e-4
-1.445, 8.943e-4
-1.444, 8.819e-4
-1.443, 8.727e-4
-1.442, 8.542e-4
-1.441, 8.449e-4
-1.440, 8.326e-4
-1.439, 8.233e-4
-1.438, 8.110e-4
-1.437, 7.987e-4
-1.436, 7.833e-4
-1.435, 7.771e-4
-1.434, 7.679e-4
-1.433, 7.555e-4
-1.432, 7.463e-4
-1.431, 7.339e-4
-1.430, 7.216e-4
-1.429, 7.124e-4
-1.428, 7.031e-4
-1.427, 6.908e-4
-1.426, 6.815e-4
-1.425, 6.723e-4
-1.424, 6.630e-4
-1.423, 6.538e-4
-1.422, 6.414e-4
-1.421, 6.322e-4
-1.420, 6.229e-4
-1.419, 6.168e-4
-1.418, 6.075e-4
-1.417, 5.983e-4
-1.416, 5.890e-4
-1.415, 5.767e-4
-1.414, 5.674e-4
-1.413, 5.582e-4
-1.412, 5.520e-4
-1.411, 5.428e-4
-1.410, 5.335e-4
-1.409, 5.243e-4
-1.408, 5.181e-4
-1.407, 5.089e-4
-1.406, 4.996e-4
-1.405, 4.904e-4
-1.404, 4.842e-4
-1.403, 4.750e-4
-1.402, 4.657e-4
-1.401, 4.595e-4
-1.400, 4.534e-4
-1.399, 4.472e-4
-1.398, 4.349e-4
-1.397, 4.256e-4
-1.396, 4.195e-4
-1.395, 4.164e-4
-1.394, 4.071e-4
-1.393, 3.979e-4
-1.392, 3.917e-4
-1.391, 3.825e-4
-1.390, 3.763e-4
-1.389, 3.701e-4
-1.388, 3.640e-4
-1.387, 3.578e-4
-1.386, 3.485e-4
-1.385, 3.424e-4
-1.384, 3.362e-4
-1.383, 3.270e-4
-1.382, 3.208e-4
-1.381, 3.146e-4
-1.380, 3.085e-4
-1.379, 3.023e-4
-1.378, 2.961e-4
-1.377, 2.869e-4
-1.376, 2.838e-4
-1.375, 2.776e-4
-1.374, 2.715e-4
-1.373, 2.653e-4
-1.372, 2.561e-4
-1.371, 2.499e-4
-1.370, 2.437e-4
-1.369, 2.406e-4
-1.368, 2.345e-4
-1.367, 2.283e-4
-1.366, 2.221e-4
-1.365, 2.160e-4
-1.364, 2.129e-4
-1.363, 2.067e-4
-1.362, 2.006e-4
-1.361, 1.944e-4
-1.360, 1.882e-4
-1.359, 1.851e-4
-1.358, 1.790e-4
-1.357, 1.728e-4
-1.356, 1.666e-4
-1.355, 1.636e-4
-1.354, 1.574e-4
-1.353, 1.543e-4
-1.352, 1.481e-4
-1.351, 1.420e-4
-1.350, 1.389e-4
-1.349, 1.358e-4
-1.348, 1.296e-4
-1.347, 1.235e-4
-1.346, 1.204e-4
-1.345, 1.142e-4
-1.344, 1.111e-4
-1.343, 1.081e-4
-1.342, 1.019e-4
-1.341, 9.573e-5
-1.340, 9.265e-5
-1.339, 8.957e-5
-1.338, 8.648e-5
-1.337, 8.032e-5
-1.336, 7.723e-5
-1.335, 7.107e-5
-1.334, 6.798e-5
-1.333, 6.490e-5
-1.332, 5.873e-5
-1.331, 5.565e-5
-1.330, 5.257e-5
-1.329, 4.949e-5
-1.328, 4.640e-5
-1.327, 4.024e-5
-1.326, 3.715e-5
-1.325, 3.407e-5
-1.324, 3.099e-5
-1.323, 2.790e-5
-1.322, 2.482e-5
-1.321, 2.174e-5
-1.320, 1.865e-5
-1.319, 1.249e-5
-1.318, 1.249e-5
-1.317, 6.322e-6
-1.316, 3.239e-6
-1.315, 1.559e-7
-1.314, -2.927e-6
-1.313, -6.010e-6
-1.312, -6.010e-6
-1.311, -1.218e-5
-1.310, -1.526e-5
-1.309, -1.526e-5
-1.308, -1.834e-5
-1.307, -2.143e-5
-1.306, -2.759e-5
-1.305, -2.759e-5
-1.304, -3.068e-5
-1.303, -3.376e-5
-1.302, -3.684e-5
-1.301, -3.684e-5
-1.300, -4.301e-5
-1.299, -4.301e-5
-1.298, -4.609e-5
-1.297, -4.917e-5
-1.296, -5.226e-5
-1.295, -5.226e-5
-1.294, -5.534e-5
-1.293, -5.842e-5
-1.292, -6.151e-5
-1.291, -6.151e-5
-1.290, -6.459e-5
-1.289, -6.767e-5
-1.288, -6.767e-5
-1.287, -7.076e-5
-1.286, -7.384e-5
-1.285, -7.384e-5
-1.284, -7.692e-5
-1.283, -8.000e-5
-1.282, -8.000e-5
-1.281, -8.309e-5
-1.280, -8.617e-5
-1.279, -8.617e-5
-1.278, -8.925e-5
-1.277, -9.234e-5
-1.276, -9.234e-5
-1.275, -9.234e-5
-1.274, -9.542e-5
-1.273, -9.850e-5
-1.272, -9.850e-5
-1.271, -1.016e-4
-1.270, -1.016e-4
-1.269, -1.047e-4
-1.268, -1.047e-4
-1.267, -1.078e-4
-1.266, -1.078e-4
-1.265, -1.108e-4
-1.264, -1.108e-4
-1.263, -1.108e-4
-1.262, -1.139e-4
-1.261, -1.170e-4
-1.260, -1.170e-4
-1.259, -1.170e-4
-1.258, -1.201e-4
-1.257, -1.201e-4
-1.256, -1.232e-4
-1.255, -1.232e-4
-1.254, -1.263e-4
-1.253, -1.263e-4
-1.252, -1.293e-4
-1.251, -1.293e-4
-1.250, -1.293e-4
-1.249, -1.324e-4
-1.248, -1.324e-4
-1.247, -1.324e-4
-1.246, -1.355e-4
-1.245, -1.324e-4
-1.244, -1.355e-4
-1.243, -1.355e-4
-1.242, -1.386e-4
-1.241, -1.386e-4
-1.240, -1.386e-4
-1.239, -1.417e-4
-1.238, -1.417e-4
-1.237, -1.417e-4
-1.236, -1.448e-4
-1.235, -1.448e-4
-1.234, -1.478e-4
-1.233, -1.448e-4
-1.232, -1.478e-4
-1.231, -1.509e-4
-1.230, -1.478e-4
-1.229, -1.509e-4
-1.228, -1.509e-4
-1.227, -1.509e-4
-1.226, -1.509e-4
-1.225, -1.540e-4
-1.224, -1.509e-4
-1.223, -1.540e-4
-1.222, -1.540e-4
-1.221, -1.540e-4
-1.220, -1.571e-4
-1.219, -1.540e-4
-1.218, -1.571e-4
-1.217, -1.571e-4
-1.216, -1.571e-4
-1.215, -1.602e-4
-1.214, -1.571e-4
-1.213, -1.571e-4
-1.212, -1.602e-4
-1.211, -1.602e-4
-1.210, -1.602e-4
-1.209, -1.602e-4
-1.208, -1.602e-4
-1.207, -1.602e-4
-1.206, -1.632e-4
-1.205, -1.632e-4
-1.204, -1.632e-4
-1.203, -1.632e-4
-1.202, -1.632e-4
-1.201, -1.663e-4
-1.200, -1.632e-4
-1.199, -1.663e-4
-1.198, -1.663e-4
-1.197, -1.663e-4
-1.196, -1.663e-4
-1.195, -1.663e-4
-1.194, -1.663e-4
-1.193, -1.663e-4
-1.192, -1.663e-4
-1.191, -1.663e-4
-1.190, -1.663e-4
-1.189, -1.663e-4
-1.188, -1.694e-4
-1.187, -1.694e-4
-1.186, -1.694e-4
-1.185, -1.694e-4
-1.184, -1.694e-4
-1.183, -1.663e-4
-1.182, -1.694e-4
-1.181, -1.694e-4
-1.180, -1.694e-4
-1.179, -1.694e-4
-1.178, -1.694e-4
-1.177, -1.725e-4
-1.176, -1.725e-4
-1.175, -1.694e-4
-1.174, -1.694e-4
-1.173, -1.694e-4
-1.172, -1.725e-4
-1.171, -1.725e-4
-1.170, -1.725e-4
-1.169, -1.725e-4
-1.168, -1.725e-4
-1.167, -1.725e-4
-1.166, -1.725e-4
-1.165, -1.725e-4
-1.164, -1.725e-4
-1.163, -1.694e-4
-1.162, -1.694e-4
-1.161, -1.725e-4
-1.160, -1.725e-4
-1.159, -1.725e-4
-1.158, -1.725e-4
-1.157, -1.725e-4
-1.156, -1.725e-4
-1.155, -1.725e-4
-1.154, -1.725e-4
-1.153, -1.725e-4
-1.152, -1.756e-4
-1.151, -1.725e-4
-1.150, -1.725e-4
-1.149, -1.756e-4
-1.148, -1.725e-4
-1.147, -1.725e-4
-1.146, -1.756e-4
-1.145, -1.756e-4
-1.144, -1.756e-4
-1.143, -1.725e-4
-1.142, -1.756e-4
-1.141, -1.756e-4
-1.140, -1.756e-4
-1.139, -1.725e-4
-1.138, -1.725e-4
-1.137, -1.756e-4
-1.136, -1.756e-4
-1.135, -1.756e-4
-1.134, -1.756e-4
-1.133, -1.756e-4
-1.132, -1.756e-4
-1.131, -1.756e-4
-1.130, -1.756e-4
-1.129, -1.756e-4
-1.128, -1.756e-4
-1.127, -1.787e-4
-1.126, -1.787e-4
-1.125, -1.787e-4
-1.124, -1.756e-4
-1.123, -1.756e-4
-1.122, -1.787e-4
-1.121, -1.787e-4
-1.120, -1.787e-4
-1.119, -1.787e-4
-1.118, -1.787e-4
-1.117, -1.787e-4
-1.116, -1.787e-4
-1.115, -1.787e-4
-1.114, -1.787e-4
-1.113, -1.787e-4
-1.112, -1.787e-4
-1.111, -1.817e-4
-1.110, -1.817e-4
-1.109, -1.787e-4
-1.108, -1.787e-4
-1.107, -1.817e-4
-1.106, -1.817e-4
-1.105, -1.817e-4
-1.104, -1.817e-4
-1.103, -1.817e-4
-1.102, -1.817e-4
-1.101, -1.848e-4
-1.100, -1.848e-4
-1.099, -1.848e-4
-1.098, -1.848e-4
-1.097, -1.848e-4
-1.096, -1.848e-4
-1.095, -1.848e-4
-1.094, -1.848e-4
-1.093, -1.848e-4
-1.092, -1.879e-4
-1.091, -1.879e-4
-1.090, -1.879e-4
-1.089, -1.879e-4
-1.088, -1.879e-4
-1.087, -1.879e-4
-1.086, -1.910e-4
-1.085, -1.879e-4
-1.084, -1.879e-4
-1.083, -1.879e-4
-1.082, -1.910e-4
-1.081, -1.910e-4
-1.080, -1.910e-4
-1.079, -1.910e-4
-1.078, -1.910e-4
-1.077, -1.910e-4
-1.076, -1.941e-4
-1.075, -1.941e-4
-1.074, -1.941e-4
-1.073, -1.941e-4
-1.072, -1.941e-4
-1.071, -1.972e-4
-1.070, -1.972e-4
-1.069, -1.941e-4
-1.068, -1.972e-4
-1.067, -1.972e-4
-1.066, -1.972e-4
-1.065, -1.972e-4
-1.064, -2.002e-4
-1.063, -1.972e-4
-1.062, -2.002e-4
-1.061, -2.002e-4
-1.060, -2.002e-4
-1.059, -2.002e-4
-1.058, -2.033e-4
-1.057, -2.033e-4
-1.056, -2.033e-4
-1.055, -2.033e-4
-1.054, -2.033e-4
-1.053, -2.033e-4
-1.052, -2.064e-4
-1.051, -2.064e-4
-1.050, -2.064e-4
-1.049, -2.064e-4
-1.048, -2.064e-4
-1.047, -2.095e-4
-1.046, -2.095e-4
-1.045, -2.095e-4
-1.044, -2.126e-4
-1.043, -2.095e-4
-1.042, -2.095e-4
-1.041, -2.157e-4
-1.040, -2.126e-4
-1.039, -2.126e-4
-1.038, -2.126e-4
-1.037, -2.157e-4
-1.036, -2.157e-4
-1.035, -2.157e-4
-1.034, -2.157e-4
-1.033, -2.157e-4
-1.032, -2.187e-4
-1.031, -2.187e-4
-1.030, -2.218e-4
-1.029, -2.187e-4
-1.028, -2.218e-4
-1.027, -2.218e-4
-1.026, -2.249e-4
-1.025, -2.249e-4
-1.024, -2.249e-4
-1.023, -2.249e-4
-1.022, -2.280e-4
-1.021, -2.249e-4
-1.020, -2.280e-4
-1.019, -2.280e-4
-1.018, -2.280e-4
-1.017, -2.311e-4
-1.016, -2.311e-4
-1.015, -2.311e-4
-1.014, -2.311e-4
-1.013, -2.311e-4
-1.012, -2.342e-4
-1.011, -2.342e-4
-1.010, -2.342e-4
-1.009, -2.372e-4
-1.008, -2.342e-4
-1.007, -2.372e-4
-1.006, -2.372e-4
-1.005, -2.372e-4
-1.004, -2.372e-4
-1.003, -2.372e-4
-1.002, -2.403e-4
-1.001, -2.434e-4
