Jan. 11, 2025   15:57:21
Linear Sweep Voltammetry
File: c:/users/guazh/data/banditlqround7_x0exp772_r5/2025-01-10-exp814\post-regen1-2025-01-11t15_54_07-lsvinphos\post-regen1_lsv_50mvs_efin_-2300mv.bin
Data Source:  Experiment
Instrument Model:  CHI760E
Header: LSV ran at 50 mVs with Efin at -2300mV
Note: 

Init E (V) = -0.6
Final E (V) = -2.3
Scan Rate (V/s) = 0.05
Sample Interval (V) = 0.001
Quiet Time (sec) = 2
Sensitivity (A/V) = 1e-4
Comp R (ohm) = 10.3

Results:

Channel 1:
Ep = -1.820V
ip = 6.852e-4A
Ah = 9.067e-4C

Potential/V, Current/A

-0.600, 7.166e-6
-0.601, 7.409e-6
-0.602, 7.625e-6
-0.603, 7.794e-6
-0.604, 7.936e-6
-0.605, 8.055e-6
-0.606, 8.167e-6
-0.607, 8.275e-6
-0.608, 8.370e-6
-0.609, 8.466e-6
-0.610, 8.551e-6
-0.611, 8.631e-6
-0.612, 8.714e-6
-0.613, 8.805e-6
-0.614, 8.877e-6
-0.615, 8.933e-6
-0.616, 9.014e-6
-0.617, 9.097e-6
-0.618, 9.167e-6
-0.619, 9.251e-6
-0.620, 9.316e-6
-0.621, 9.387e-6
-0.622, 9.454e-6
-0.623, 9.512e-6
-0.624, 9.584e-6
-0.625, 9.647e-6
-0.626, 9.723e-6
-0.627, 9.805e-6
-0.628, 9.873e-6
-0.629, 9.940e-6
-0.630, 1.001e-5
-0.631, 1.009e-5
-0.632, 1.015e-5
-0.633, 1.021e-5
-0.634, 1.027e-5
-0.635, 1.033e-5
-0.636, 1.041e-5
-0.637, 1.050e-5
-0.638, 1.058e-5
-0.639, 1.063e-5
-0.640, 1.070e-5
-0.641, 1.077e-5
-0.642, 1.083e-5
-0.643, 1.089e-5
-0.644, 1.097e-5
-0.645, 1.103e-5
-0.646, 1.111e-5
-0.647, 1.118e-5
-0.648, 1.125e-5
-0.649, 1.132e-5
-0.650, 1.140e-5
-0.651, 1.146e-5
-0.652, 1.153e-5
-0.653, 1.159e-5
-0.654, 1.166e-5
-0.655, 1.172e-5
-0.656, 1.180e-5
-0.657, 1.189e-5
-0.658, 1.196e-5
-0.659, 1.202e-5
-0.660, 1.208e-5
-0.661, 1.215e-5
-0.662, 1.222e-5
-0.663, 1.230e-5
-0.664, 1.235e-5
-0.665, 1.243e-5
-0.666, 1.251e-5
-0.667, 1.257e-5
-0.668, 1.263e-5
-0.669, 1.270e-5
-0.670, 1.277e-5
-0.671, 1.283e-5
-0.672, 1.291e-5
-0.673, 1.299e-5
-0.674, 1.306e-5
-0.675, 1.313e-5
-0.676, 1.322e-5
-0.677, 1.329e-5
-0.678, 1.337e-5
-0.679, 1.343e-5
-0.680, 1.351e-5
-0.681, 1.359e-5
-0.682, 1.366e-5
-0.683, 1.373e-5
-0.684, 1.380e-5
-0.685, 1.386e-5
-0.686, 1.394e-5
-0.687, 1.400e-5
-0.688, 1.407e-5
-0.689, 1.413e-5
-0.690, 1.421e-5
-0.691, 1.428e-5
-0.692, 1.434e-5
-0.693, 1.441e-5
-0.694, 1.448e-5
-0.695, 1.453e-5
-0.696, 1.460e-5
-0.697, 1.466e-5
-0.698, 1.475e-5
-0.699, 1.480e-5
-0.700, 1.483e-5
-0.701, 1.493e-5
-0.702, 1.502e-5
-0.703, 1.508e-5
-0.704, 1.515e-5
-0.705, 1.521e-5
-0.706, 1.526e-5
-0.707, 1.530e-5
-0.708, 1.535e-5
-0.709, 1.541e-5
-0.710, 1.547e-5
-0.711, 1.554e-5
-0.712, 1.561e-5
-0.713, 1.570e-5
-0.714, 1.576e-5
-0.715, 1.582e-5
-0.716, 1.589e-5
-0.717, 1.597e-5
-0.718, 1.603e-5
-0.719, 1.608e-5
-0.720, 1.616e-5
-0.721, 1.623e-5
-0.722, 1.629e-5
-0.723, 1.634e-5
-0.724, 1.641e-5
-0.725, 1.649e-5
-0.726, 1.655e-5
-0.727, 1.662e-5
-0.728, 1.668e-5
-0.729, 1.671e-5
-0.730, 1.676e-5
-0.731, 1.683e-5
-0.732, 1.690e-5
-0.733, 1.696e-5
-0.734, 1.701e-5
-0.735, 1.706e-5
-0.736, 1.713e-5
-0.737, 1.719e-5
-0.738, 1.725e-5
-0.739, 1.729e-5
-0.740, 1.732e-5
-0.741, 1.736e-5
-0.742, 1.742e-5
-0.743, 1.746e-5
-0.744, 1.752e-5
-0.745, 1.757e-5
-0.746, 1.764e-5
-0.747, 1.768e-5
-0.748, 1.773e-5
-0.749, 1.778e-5
-0.750, 1.782e-5
-0.751, 1.784e-5
-0.752, 1.787e-5
-0.753, 1.792e-5
-0.754, 1.798e-5
-0.755, 1.802e-5
-0.756, 1.808e-5
-0.757, 1.812e-5
-0.758, 1.817e-5
-0.759, 1.820e-5
-0.760, 1.823e-5
-0.761, 1.829e-5
-0.762, 1.833e-5
-0.763, 1.837e-5
-0.764, 1.841e-5
-0.765, 1.844e-5
-0.766, 1.849e-5
-0.767, 1.853e-5
-0.768, 1.857e-5
-0.769, 1.864e-5
-0.770, 1.864e-5
-0.771, 1.866e-5
-0.772, 1.872e-5
-0.773, 1.878e-5
-0.774, 1.881e-5
-0.775, 1.883e-5
-0.776, 1.886e-5
-0.777, 1.889e-5
-0.778, 1.892e-5
-0.779, 1.893e-5
-0.780, 1.899e-5
-0.781, 1.900e-5
-0.782, 1.902e-5
-0.783, 1.905e-5
-0.784, 1.907e-5
-0.785, 1.908e-5
-0.786, 1.913e-5
-0.787, 1.915e-5
-0.788, 1.918e-5
-0.789, 1.920e-5
-0.790, 1.922e-5
-0.791, 1.924e-5
-0.792, 1.927e-5
-0.793, 1.926e-5
-0.794, 1.927e-5
-0.795, 1.932e-5
-0.796, 1.935e-5
-0.797, 1.937e-5
-0.798, 1.938e-5
-0.799, 1.939e-5
-0.800, 1.943e-5
-0.801, 1.946e-5
-0.802, 1.951e-5
-0.803, 1.954e-5
-0.804, 1.956e-5
-0.805, 1.957e-5
-0.806, 1.960e-5
-0.807, 1.962e-5
-0.808, 1.966e-5
-0.809, 1.968e-5
-0.810, 1.967e-5
-0.811, 1.967e-5
-0.812, 1.969e-5
-0.813, 1.970e-5
-0.814, 1.971e-5
-0.815, 1.975e-5
-0.816, 1.974e-5
-0.817, 1.976e-5
-0.818, 1.976e-5
-0.819, 1.979e-5
-0.820, 1.982e-5
-0.821, 1.984e-5
-0.822, 1.987e-5
-0.823, 1.988e-5
-0.824, 1.987e-5
-0.825, 1.989e-5
-0.826, 1.992e-5
-0.827, 1.993e-5
-0.828, 1.995e-5
-0.829, 1.997e-5
-0.830, 1.999e-5
-0.831, 1.999e-5
-0.832, 2.002e-5
-0.833, 2.006e-5
-0.834, 2.006e-5
-0.835, 2.008e-5
-0.836, 2.009e-5
-0.837, 2.008e-5
-0.838, 2.007e-5
-0.839, 2.007e-5
-0.840, 2.009e-5
-0.841, 2.010e-5
-0.842, 2.012e-5
-0.843, 2.012e-5
-0.844, 2.013e-5
-0.845, 2.015e-5
-0.846, 2.017e-5
-0.847, 2.020e-5
-0.848, 2.021e-5
-0.849, 2.022e-5
-0.850, 2.023e-5
-0.851, 2.020e-5
-0.852, 2.022e-5
-0.853, 2.020e-5
-0.854, 2.022e-5
-0.855, 2.022e-5
-0.856, 2.025e-5
-0.857, 2.022e-5
-0.858, 2.024e-5
-0.859, 2.026e-5
-0.860, 2.026e-5
-0.861, 2.027e-5
-0.862, 2.029e-5
-0.863, 2.030e-5
-0.864, 2.030e-5
-0.865, 2.033e-5
-0.866, 2.038e-5
-0.867, 2.043e-5
-0.868, 2.042e-5
-0.869, 2.041e-5
-0.870, 2.044e-5
-0.871, 2.044e-5
-0.872, 2.047e-5
-0.873, 2.049e-5
-0.874, 2.046e-5
-0.875, 2.050e-5
-0.876, 2.052e-5
-0.877, 2.053e-5
-0.878, 2.052e-5
-0.879, 2.053e-5
-0.880, 2.054e-5
-0.881, 2.058e-5
-0.882, 2.059e-5
-0.883, 2.060e-5
-0.884, 2.060e-5
-0.885, 2.060e-5
-0.886, 2.062e-5
-0.887, 2.063e-5
-0.888, 2.063e-5
-0.889, 2.065e-5
-0.890, 2.064e-5
-0.891, 2.069e-5
-0.892, 2.072e-5
-0.893, 2.070e-5
-0.894, 2.071e-5
-0.895, 2.074e-5
-0.896, 2.074e-5
-0.897, 2.076e-5
-0.898, 2.076e-5
-0.899, 2.080e-5
-0.900, 2.081e-5
-0.901, 2.080e-5
-0.902, 2.083e-5
-0.903, 2.085e-5
-0.904, 2.085e-5
-0.905, 2.082e-5
-0.906, 2.085e-5
-0.907, 2.087e-5
-0.908, 2.091e-5
-0.909, 2.094e-5
-0.910, 2.098e-5
-0.911, 2.098e-5
-0.912, 2.101e-5
-0.913, 2.103e-5
-0.914, 2.103e-5
-0.915, 2.107e-5
-0.916, 2.108e-5
-0.917, 2.109e-5
-0.918, 2.110e-5
-0.919, 2.110e-5
-0.920, 2.113e-5
-0.921, 2.125e-5
-0.922, 2.129e-5
-0.923, 2.129e-5
-0.924, 2.128e-5
-0.925, 2.132e-5
-0.926, 2.137e-5
-0.927, 2.148e-5
-0.928, 2.148e-5
-0.929, 2.148e-5
-0.930, 2.150e-5
-0.931, 2.150e-5
-0.932, 2.153e-5
-0.933, 2.158e-5
-0.934, 2.164e-5
-0.935, 2.165e-5
-0.936, 2.166e-5
-0.937, 2.167e-5
-0.938, 2.170e-5
-0.939, 2.173e-5
-0.940, 2.175e-5
-0.941, 2.179e-5
-0.942, 2.181e-5
-0.943, 2.184e-5
-0.944, 2.181e-5
-0.945, 2.182e-5
-0.946, 2.189e-5
-0.947, 2.192e-5
-0.948, 2.195e-5
-0.949, 2.199e-5
-0.950, 2.203e-5
-0.951, 2.208e-5
-0.952, 2.212e-5
-0.953, 2.214e-5
-0.954, 2.215e-5
-0.955, 2.219e-5
-0.956, 2.227e-5
-0.957, 2.229e-5
-0.958, 2.230e-5
-0.959, 2.232e-5
-0.960, 2.233e-5
-0.961, 2.238e-5
-0.962, 2.244e-5
-0.963, 2.249e-5
-0.964, 2.256e-5
-0.965, 2.259e-5
-0.966, 2.261e-5
-0.967, 2.263e-5
-0.968, 2.270e-5
-0.969, 2.275e-5
-0.970, 2.278e-5
-0.971, 2.282e-5
-0.972, 2.288e-5
-0.973, 2.290e-5
-0.974, 2.294e-5
-0.975, 2.297e-5
-0.976, 2.299e-5
-0.977, 2.302e-5
-0.978, 2.305e-5
-0.979, 2.313e-5
-0.980, 2.318e-5
-0.981, 2.323e-5
-0.982, 2.326e-5
-0.983, 2.326e-5
-0.984, 2.328e-5
-0.985, 2.335e-5
-0.986, 2.341e-5
-0.987, 2.345e-5
-0.988, 2.352e-5
-0.989, 2.356e-5
-0.990, 2.365e-5
-0.991, 2.377e-5
-0.992, 2.387e-5
-0.993, 2.390e-5
-0.994, 2.398e-5
-0.995, 2.399e-5
-0.996, 2.403e-5
-0.997, 2.407e-5
-0.998, 2.415e-5
-0.999, 2.420e-5
-1.000, 2.427e-5
-1.001, 2.431e-5
-1.002, 2.434e-5
-1.003, 2.442e-5
-1.004, 2.448e-5
-1.005, 2.451e-5
-1.006, 2.453e-5
-1.007, 2.458e-5
-1.008, 2.462e-5
-1.009, 2.469e-5
-1.010, 2.476e-5
-1.011, 2.480e-5
-1.012, 2.485e-5
-1.013, 2.492e-5
-1.014, 2.502e-5
-1.015, 2.507e-5
-1.016, 2.508e-5
-1.017, 2.516e-5
-1.018, 2.522e-5
-1.019, 2.527e-5
-1.020, 2.533e-5
-1.021, 2.540e-5
-1.022, 2.548e-5
-1.023, 2.554e-5
-1.024, 2.559e-5
-1.025, 2.567e-5
-1.026, 2.573e-5
-1.027, 2.580e-5
-1.028, 2.584e-5
-1.029, 2.592e-5
-1.030, 2.600e-5
-1.031, 2.603e-5
-1.032, 2.605e-5
-1.033, 2.612e-5
-1.034, 2.621e-5
-1.035, 2.627e-5
-1.036, 2.635e-5
-1.037, 2.641e-5
-1.038, 2.647e-5
-1.039, 2.656e-5
-1.040, 2.661e-5
-1.041, 2.669e-5
-1.042, 2.680e-5
-1.043, 2.686e-5
-1.044, 2.691e-5
-1.045, 2.698e-5
-1.046, 2.707e-5
-1.047, 2.716e-5
-1.048, 2.720e-5
-1.049, 2.727e-5
-1.050, 2.733e-5
-1.051, 2.738e-5
-1.052, 2.746e-5
-1.053, 2.753e-5
-1.054, 2.758e-5
-1.055, 2.766e-5
-1.056, 2.775e-5
-1.057, 2.783e-5
-1.058, 2.790e-5
-1.059, 2.797e-5
-1.060, 2.804e-5
-1.061, 2.811e-5
-1.062, 2.818e-5
-1.063, 2.827e-5
-1.064, 2.836e-5
-1.065, 2.844e-5
-1.066, 2.851e-5
-1.067, 2.856e-5
-1.068, 2.862e-5
-1.069, 2.870e-5
-1.070, 2.881e-5
-1.071, 2.889e-5
-1.072, 2.896e-5
-1.073, 2.905e-5
-1.074, 2.911e-5
-1.075, 2.921e-5
-1.076, 2.930e-5
-1.077, 2.939e-5
-1.078, 2.947e-5
-1.079, 2.957e-5
-1.080, 2.965e-5
-1.081, 2.972e-5
-1.082, 2.978e-5
-1.083, 2.987e-5
-1.084, 2.993e-5
-1.085, 3.002e-5
-1.086, 3.013e-5
-1.087, 3.022e-5
-1.088, 3.034e-5
-1.089, 3.043e-5
-1.090, 3.051e-5
-1.091, 3.062e-5
-1.092, 3.067e-5
-1.093, 3.081e-5
-1.094, 3.092e-5
-1.095, 3.092e-5
-1.096, 3.101e-5
-1.097, 3.114e-5
-1.098, 3.122e-5
-1.099, 3.131e-5
-1.100, 3.141e-5
-1.101, 3.149e-5
-1.102, 3.155e-5
-1.103, 3.168e-5
-1.104, 3.175e-5
-1.105, 3.179e-5
-1.106, 3.193e-5
-1.107, 3.205e-5
-1.108, 3.214e-5
-1.109, 3.225e-5
-1.110, 3.232e-5
-1.111, 3.243e-5
-1.112, 3.258e-5
-1.113, 3.271e-5
-1.114, 3.281e-5
-1.115, 3.288e-5
-1.116, 3.296e-5
-1.117, 3.303e-5
-1.118, 3.315e-5
-1.119, 3.324e-5
-1.120, 3.333e-5
-1.121, 3.342e-5
-1.122, 3.351e-5
-1.123, 3.360e-5
-1.124, 3.367e-5
-1.125, 3.377e-5
-1.126, 3.385e-5
-1.127, 3.395e-5
-1.128, 3.409e-5
-1.129, 3.422e-5
-1.130, 3.436e-5
-1.131, 3.444e-5
-1.132, 3.454e-5
-1.133, 3.459e-5
-1.134, 3.469e-5
-1.135, 3.477e-5
-1.136, 3.488e-5
-1.137, 3.500e-5
-1.138, 3.511e-5
-1.139, 3.518e-5
-1.140, 3.525e-5
-1.141, 3.537e-5
-1.142, 3.545e-5
-1.143, 3.567e-5
-1.144, 3.571e-5
-1.145, 3.578e-5
-1.146, 3.587e-5
-1.147, 3.598e-5
-1.148, 3.609e-5
-1.149, 3.613e-5
-1.150, 3.623e-5
-1.151, 3.628e-5
-1.152, 3.639e-5
-1.153, 3.645e-5
-1.154, 3.651e-5
-1.155, 3.659e-5
-1.156, 3.672e-5
-1.157, 3.686e-5
-1.158, 3.692e-5
-1.159, 3.696e-5
-1.160, 3.705e-5
-1.161, 3.716e-5
-1.162, 3.726e-5
-1.163, 3.732e-5
-1.164, 3.743e-5
-1.165, 3.757e-5
-1.166, 3.761e-5
-1.167, 3.770e-5
-1.168, 3.783e-5
-1.169, 3.791e-5
-1.170, 3.804e-5
-1.171, 3.811e-5
-1.172, 3.818e-5
-1.173, 3.824e-5
-1.174, 3.845e-5
-1.175, 3.856e-5
-1.176, 3.859e-5
-1.177, 3.859e-5
-1.178, 3.870e-5
-1.179, 3.880e-5
-1.180, 3.883e-5
-1.181, 3.890e-5
-1.182, 3.900e-5
-1.183, 3.909e-5
-1.184, 3.914e-5
-1.185, 3.925e-5
-1.186, 3.930e-5
-1.187, 3.934e-5
-1.188, 3.937e-5
-1.189, 3.940e-5
-1.190, 3.949e-5
-1.191, 3.957e-5
-1.192, 3.963e-5
-1.193, 3.974e-5
-1.194, 3.987e-5
-1.195, 3.995e-5
-1.196, 3.996e-5
-1.197, 4.003e-5
-1.198, 4.011e-5
-1.199, 4.018e-5
-1.200, 4.029e-5
-1.201, 4.038e-5
-1.202, 4.036e-5
-1.203, 4.044e-5
-1.204, 4.042e-5
-1.205, 4.043e-5
-1.206, 4.049e-5
-1.207, 4.056e-5
-1.208, 4.061e-5
-1.209, 4.064e-5
-1.210, 4.066e-5
-1.211, 4.069e-5
-1.212, 4.083e-5
-1.213, 4.089e-5
-1.214, 4.099e-5
-1.215, 4.103e-5
-1.216, 4.105e-5
-1.217, 4.106e-5
-1.218, 4.105e-5
-1.219, 4.107e-5
-1.220, 4.115e-5
-1.221, 4.128e-5
-1.222, 4.132e-5
-1.223, 4.134e-5
-1.224, 4.146e-5
-1.225, 4.161e-5
-1.226, 4.162e-5
-1.227, 4.162e-5
-1.228, 4.175e-5
-1.229, 4.182e-5
-1.230, 4.187e-5
-1.231, 4.186e-5
-1.232, 4.189e-5
-1.233, 4.194e-5
-1.234, 4.201e-5
-1.235, 4.210e-5
-1.236, 4.211e-5
-1.237, 4.218e-5
-1.238, 4.211e-5
-1.239, 4.206e-5
-1.240, 4.206e-5
-1.241, 4.212e-5
-1.242, 4.223e-5
-1.243, 4.229e-5
-1.244, 4.230e-5
-1.245, 4.236e-5
-1.246, 4.239e-5
-1.247, 4.253e-5
-1.248, 4.266e-5
-1.249, 4.272e-5
-1.250, 4.282e-5
-1.251, 4.281e-5
-1.252, 4.289e-5
-1.253, 4.313e-5
-1.254, 4.306e-5
-1.255, 4.301e-5
-1.256, 4.313e-5
-1.257, 4.317e-5
-1.258, 4.312e-5
-1.259, 4.317e-5
-1.260, 4.318e-5
-1.261, 4.323e-5
-1.262, 4.335e-5
-1.263, 4.338e-5
-1.264, 4.337e-5
-1.265, 4.333e-5
-1.266, 4.319e-5
-1.267, 4.312e-5
-1.268, 4.330e-5
-1.269, 4.336e-5
-1.270, 4.348e-5
-1.271, 4.355e-5
-1.272, 4.360e-5
-1.273, 4.347e-5
-1.274, 4.356e-5
-1.275, 4.364e-5
-1.276, 4.367e-5
-1.277, 4.375e-5
-1.278, 4.380e-5
-1.279, 4.383e-5
-1.280, 4.393e-5
-1.281, 4.407e-5
-1.282, 4.402e-5
-1.283, 4.409e-5
-1.284, 4.418e-5
-1.285, 4.420e-5
-1.286, 4.427e-5
-1.287, 4.429e-5
-1.288, 4.427e-5
-1.289, 4.427e-5
-1.290, 4.429e-5
-1.291, 4.435e-5
-1.292, 4.463e-5
-1.293, 4.499e-5
-1.294, 4.504e-5
-1.295, 4.509e-5
-1.296, 4.515e-5
-1.297, 4.532e-5
-1.298, 4.536e-5
-1.299, 4.531e-5
-1.300, 4.544e-5
-1.301, 4.587e-5
-1.302, 4.588e-5
-1.303, 4.590e-5
-1.304, 4.599e-5
-1.305, 4.601e-5
-1.306, 4.583e-5
-1.307, 4.588e-5
-1.308, 4.594e-5
-1.309, 4.610e-5
-1.310, 4.621e-5
-1.311, 4.621e-5
-1.312, 4.629e-5
-1.313, 4.625e-5
-1.314, 4.626e-5
-1.315, 4.633e-5
-1.316, 4.639e-5
-1.317, 4.653e-5
-1.318, 4.659e-5
-1.319, 4.665e-5
-1.320, 4.669e-5
-1.321, 4.683e-5
-1.322, 4.693e-5
-1.323, 4.691e-5
-1.324, 4.697e-5
-1.325, 4.706e-5
-1.326, 4.711e-5
-1.327, 4.717e-5
-1.328, 4.727e-5
-1.329, 4.728e-5
-1.330, 4.716e-5
-1.331, 4.721e-5
-1.332, 4.732e-5
-1.333, 4.746e-5
-1.334, 4.746e-5
-1.335, 4.760e-5
-1.336, 4.771e-5
-1.337, 4.770e-5
-1.338, 4.777e-5
-1.339, 4.793e-5
-1.340, 4.791e-5
-1.341, 4.791e-5
-1.342, 4.791e-5
-1.343, 4.800e-5
-1.344, 4.801e-5
-1.345, 4.809e-5
-1.346, 4.813e-5
-1.347, 4.827e-5
-1.348, 4.839e-5
-1.349, 4.841e-5
-1.350, 4.846e-5
-1.351, 4.858e-5
-1.352, 4.857e-5
-1.353, 4.863e-5
-1.354, 4.880e-5
-1.355, 4.874e-5
-1.356, 4.885e-5
-1.357, 4.895e-5
-1.358, 4.907e-5
-1.359, 4.908e-5
-1.360, 4.899e-5
-1.361, 4.884e-5
-1.362, 4.897e-5
-1.363, 4.900e-5
-1.364, 4.895e-5
-1.365, 4.903e-5
-1.366, 4.918e-5
-1.367, 4.930e-5
-1.368, 4.944e-5
-1.369, 4.950e-5
-1.370, 4.953e-5
-1.371, 4.985e-5
-1.372, 5.009e-5
-1.373, 5.019e-5
-1.374, 5.020e-5
-1.375, 5.008e-5
-1.376, 5.017e-5
-1.377, 5.030e-5
-1.378, 5.022e-5
-1.379, 5.024e-5
-1.380, 5.016e-5
-1.381, 5.012e-5
-1.382, 5.027e-5
-1.383, 5.043e-5
-1.384, 5.063e-5
-1.385, 5.070e-5
-1.386, 5.080e-5
-1.387, 5.110e-5
-1.388, 5.153e-5
-1.389, 5.177e-5
-1.390, 5.170e-5
-1.391, 5.168e-5
-1.392, 5.163e-5
-1.393, 5.171e-5
-1.394, 5.179e-5
-1.395, 5.179e-5
-1.396, 5.195e-5
-1.397, 5.215e-5
-1.398, 5.228e-5
-1.399, 5.229e-5
-1.400, 5.241e-5
-1.401, 5.256e-5
-1.402, 5.265e-5
-1.403, 5.275e-5
-1.404, 5.290e-5
-1.405, 5.304e-5
-1.406, 5.321e-5
-1.407, 5.335e-5
-1.408, 5.347e-5
-1.409, 5.352e-5
-1.410, 5.369e-5
-1.411, 5.373e-5
-1.412, 5.383e-5
-1.413, 5.403e-5
-1.414, 5.433e-5
-1.415, 5.416e-5
-1.416, 5.405e-5
-1.417, 5.444e-5
-1.418, 5.454e-5
-1.419, 5.447e-5
-1.420, 5.465e-5
-1.421, 5.485e-5
-1.422, 5.496e-5
-1.423, 5.510e-5
-1.424, 5.524e-5
-1.425, 5.539e-5
-1.426, 5.555e-5
-1.427, 5.580e-5
-1.428, 5.583e-5
-1.429, 5.596e-5
-1.430, 5.604e-5
-1.431, 5.629e-5
-1.432, 5.645e-5
-1.433, 5.659e-5
-1.434, 5.677e-5
-1.435, 5.689e-5
-1.436, 5.715e-5
-1.437, 5.727e-5
-1.438, 5.745e-5
-1.439, 5.782e-5
-1.440, 5.802e-5
-1.441, 5.807e-5
-1.442, 5.819e-5
-1.443, 5.835e-5
-1.444, 5.843e-5
-1.445, 5.861e-5
-1.446, 5.879e-5
-1.447, 5.906e-5
-1.448, 5.919e-5
-1.449, 5.928e-5
-1.450, 5.944e-5
-1.451, 5.964e-5
-1.452, 5.980e-5
-1.453, 5.993e-5
-1.454, 6.016e-5
-1.455, 6.042e-5
-1.456, 6.058e-5
-1.457, 6.079e-5
-1.458, 6.099e-5
-1.459, 6.119e-5
-1.460, 6.131e-5
-1.461, 6.153e-5
-1.462, 6.172e-5
-1.463, 6.200e-5
-1.464, 6.202e-5
-1.465, 6.236e-5
-1.466, 6.253e-5
-1.467, 6.270e-5
-1.468, 6.292e-5
-1.469, 6.315e-5
-1.470, 6.339e-5
-1.471, 6.367e-5
-1.472, 6.383e-5
-1.473, 6.411e-5
-1.474, 6.445e-5
-1.475, 6.474e-5
-1.476, 6.501e-5
-1.477, 6.550e-5
-1.478, 6.576e-5
-1.479, 6.604e-5
-1.480, 6.612e-5
-1.481, 6.640e-5
-1.482, 6.663e-5
-1.483, 6.682e-5
-1.484, 6.709e-5
-1.485, 6.713e-5
-1.486, 6.738e-5
-1.487, 6.769e-5
-1.488, 6.796e-5
-1.489, 6.816e-5
-1.490, 6.849e-5
-1.491, 6.867e-5
-1.492, 6.906e-5
-1.493, 6.928e-5
-1.494, 6.952e-5
-1.495, 6.987e-5
-1.496, 7.016e-5
-1.497, 7.039e-5
-1.498, 7.074e-5
-1.499, 7.091e-5
-1.500, 7.115e-5
-1.501, 7.148e-5
-1.502, 7.186e-5
-1.503, 7.217e-5
-1.504, 7.257e-5
-1.505, 7.295e-5
-1.506, 7.334e-5
-1.507, 7.375e-5
-1.508, 7.412e-5
-1.509, 7.436e-5
-1.510, 7.470e-5
-1.511, 7.494e-5
-1.512, 7.533e-5
-1.513, 7.565e-5
-1.514, 7.598e-5
-1.515, 7.643e-5
-1.516, 7.669e-5
-1.517, 7.700e-5
-1.518, 7.740e-5
-1.519, 7.780e-5
-1.520, 7.813e-5
-1.521, 7.856e-5
-1.522, 7.901e-5
-1.523, 7.942e-5
-1.524, 7.980e-5
-1.525, 8.019e-5
-1.526, 8.068e-5
-1.527, 8.104e-5
-1.528, 8.144e-5
-1.529, 8.181e-5
-1.530, 8.224e-5
-1.531, 8.268e-5
-1.532, 8.313e-5
-1.533, 8.363e-5
-1.534, 8.407e-5
-1.535, 8.464e-5
-1.536, 8.516e-5
-1.537, 8.561e-5
-1.538, 8.604e-5
-1.539, 8.644e-5
-1.540, 8.700e-5
-1.541, 8.758e-5
-1.542, 8.816e-5
-1.543, 8.870e-5
-1.544, 8.919e-5
-1.545, 8.973e-5
-1.546, 9.023e-5
-1.547, 9.067e-5
-1.548, 9.102e-5
-1.549, 9.153e-5
-1.550, 9.207e-5
-1.551, 9.272e-5
-1.552, 9.328e-5
-1.553, 9.377e-5
-1.554, 9.432e-5
-1.555, 9.499e-5
-1.556, 9.555e-5
-1.557, 9.608e-5
-1.558, 9.668e-5
-1.559, 9.746e-5
-1.560, 9.815e-5
-1.561, 9.875e-5
-1.562, 9.932e-5
-1.563, 9.993e-5
-1.564, 1.006e-4
-1.565, 1.013e-4
-1.566, 1.021e-4
-1.567, 1.027e-4
-1.568, 1.034e-4
-1.569, 1.041e-4
-1.570, 1.048e-4
-1.571, 1.054e-4
-1.572, 1.061e-4
-1.573, 1.069e-4
-1.574, 1.079e-4
-1.575, 1.086e-4
-1.576, 1.093e-4
-1.577, 1.101e-4
-1.578, 1.107e-4
-1.579, 1.115e-4
-1.580, 1.124e-4
-1.581, 1.131e-4
-1.582, 1.140e-4
-1.583, 1.148e-4
-1.584, 1.156e-4
-1.585, 1.164e-4
-1.586, 1.172e-4
-1.587, 1.181e-4
-1.588, 1.190e-4
-1.589, 1.200e-4
-1.590, 1.209e-4
-1.591, 1.219e-4
-1.592, 1.227e-4
-1.593, 1.236e-4
-1.594, 1.245e-4
-1.595, 1.254e-4
-1.596, 1.264e-4
-1.597, 1.273e-4
-1.598, 1.283e-4
-1.599, 1.292e-4
-1.600, 1.302e-4
-1.601, 1.313e-4
-1.602, 1.324e-4
-1.603, 1.336e-4
-1.604, 1.346e-4
-1.605, 1.355e-4
-1.606, 1.366e-4
-1.607, 1.376e-4
-1.608, 1.385e-4
-1.609, 1.396e-4
-1.610, 1.408e-4
-1.611, 1.420e-4
-1.612, 1.432e-4
-1.613, 1.446e-4
-1.614, 1.461e-4
-1.615, 1.476e-4
-1.616, 1.489e-4
-1.617, 1.501e-4
-1.618, 1.513e-4
-1.619, 1.525e-4
-1.620, 1.537e-4
-1.621, 1.549e-4
-1.622, 1.562e-4
-1.623, 1.575e-4
-1.624, 1.587e-4
-1.625, 1.603e-4
-1.626, 1.617e-4
-1.627, 1.631e-4
-1.628, 1.644e-4
-1.629, 1.659e-4
-1.630, 1.674e-4
-1.631, 1.689e-4
-1.632, 1.703e-4
-1.633, 1.719e-4
-1.634, 1.734e-4
-1.635, 1.749e-4
-1.636, 1.765e-4
-1.637, 1.780e-4
-1.638, 1.797e-4
-1.639, 1.815e-4
-1.640, 1.833e-4
-1.641, 1.849e-4
-1.642, 1.866e-4
-1.643, 1.883e-4
-1.644, 1.900e-4
-1.645, 1.916e-4
-1.646, 1.933e-4
-1.647, 1.950e-4
-1.648, 1.969e-4
-1.649, 1.986e-4
-1.650, 2.004e-4
-1.651, 2.021e-4
-1.652, 2.037e-4
-1.653, 2.054e-4
-1.654, 2.073e-4
-1.655, 2.092e-4
-1.656, 2.111e-4
-1.657, 2.132e-4
-1.658, 2.149e-4
-1.659, 2.166e-4
-1.660, 2.185e-4
-1.661, 2.204e-4
-1.662, 2.224e-4
-1.663, 2.243e-4
-1.664, 2.262e-4
-1.665, 2.284e-4
-1.666, 2.305e-4
-1.667, 2.325e-4
-1.668, 2.345e-4
-1.669, 2.364e-4
-1.670, 2.385e-4
-1.671, 2.405e-4
-1.672, 2.426e-4
-1.673, 2.447e-4
-1.674, 2.468e-4
-1.675, 2.490e-4
-1.676, 2.513e-4
-1.677, 2.536e-4
-1.678, 2.559e-4
-1.679, 2.583e-4
-1.680, 2.607e-4
-1.681, 2.630e-4
-1.682, 2.653e-4
-1.683, 2.677e-4
-1.684, 2.702e-4
-1.685, 2.726e-4
-1.686, 2.749e-4
-1.687, 2.776e-4
-1.688, 2.800e-4
-1.689, 2.825e-4
-1.690, 2.852e-4
-1.691, 2.878e-4
-1.692, 2.906e-4
-1.693, 2.936e-4
-1.694, 2.965e-4
-1.695, 2.995e-4
-1.696, 3.024e-4
-1.697, 3.053e-4
-1.698, 3.079e-4
-1.699, 3.110e-4
-1.700, 3.142e-4
-1.701, 3.178e-4
-1.702, 3.214e-4
-1.703, 3.250e-4
-1.704, 3.286e-4
-1.705, 3.322e-4
-1.706, 3.359e-4
-1.707, 3.396e-4
-1.708, 3.435e-4
-1.709, 3.475e-4
-1.710, 3.513e-4
-1.711, 3.557e-4
-1.712, 3.602e-4
-1.713, 3.646e-4
-1.714, 3.692e-4
-1.715, 3.740e-4
-1.716, 3.787e-4
-1.717, 3.835e-4
-1.718, 3.885e-4
-1.719, 3.935e-4
-1.720, 3.986e-4
-1.721, 4.035e-4
-1.722, 4.087e-4
-1.723, 4.139e-4
-1.724, 4.192e-4
-1.725, 4.243e-4
-1.726, 4.298e-4
-1.727, 4.354e-4
-1.728, 4.408e-4
-1.729, 4.463e-4
-1.730, 4.518e-4
-1.731, 4.572e-4
-1.732, 4.627e-4
-1.733, 4.681e-4
-1.734, 4.739e-4
-1.735, 4.796e-4
-1.736, 4.852e-4
-1.737, 4.910e-4
-1.738, 4.967e-4
-1.739, 5.024e-4
-1.740, 5.078e-4
-1.741, 5.133e-4
-1.742, 5.188e-4
-1.743, 5.246e-4
-1.744, 5.296e-4
-1.745, 5.348e-4
-1.746, 5.402e-4
-1.747, 5.455e-4
-1.748, 5.507e-4
-1.749, 5.560e-4
-1.750, 5.612e-4
-1.751, 5.663e-4
-1.752, 5.713e-4
-1.753, 5.762e-4
-1.754, 5.813e-4
-1.755, 5.862e-4
-1.756, 5.913e-4
-1.757, 5.962e-4
-1.758, 6.010e-4
-1.759, 6.058e-4
-1.760, 6.107e-4
-1.761, 6.158e-4
-1.762, 6.209e-4
-1.763, 6.260e-4
-1.764, 6.310e-4
-1.765, 6.358e-4
-1.766, 6.407e-4
-1.767, 6.455e-4
-1.768, 6.504e-4
-1.769, 6.552e-4
-1.770, 6.601e-4
-1.771, 6.652e-4
-1.772, 6.701e-4
-1.773, 6.753e-4
-1.774, 6.805e-4
-1.775, 6.856e-4
-1.776, 6.909e-4
-1.777, 6.965e-4
-1.778, 7.017e-4
-1.779, 7.068e-4
-1.780, 7.119e-4
-1.781, 7.170e-4
-1.782, 7.225e-4
-1.783, 7.281e-4
-1.784, 7.337e-4
-1.785, 7.397e-4
-1.786, 7.458e-4
-1.787, 7.516e-4
-1.788, 7.575e-4
-1.789, 7.636e-4
-1.790, 7.698e-4
-1.791, 7.762e-4
-1.792, 7.829e-4
-1.793, 7.896e-4
-1.794, 7.963e-4
-1.795, 8.032e-4
-1.796, 8.100e-4
-1.797, 8.168e-4
-1.798, 8.233e-4
-1.799, 8.297e-4
-1.800, 8.364e-4
-1.801, 8.434e-4
-1.802, 8.507e-4
-1.803, 8.581e-4
-1.804, 8.659e-4
-1.805, 8.757e-4
-1.806, 8.844e-4
-1.807, 8.927e-4
-1.808, 9.010e-4
-1.809, 9.096e-4
-1.810, 9.182e-4
-1.811, 9.273e-4
-1.812, 9.367e-4
-1.813, 9.462e-4
-1.814, 9.557e-4
-1.815, 9.656e-4
-1.816, 9.759e-4
-1.817, 9.862e-4
-1.818, 9.968e-4
-1.819, 1.008e-3
-1.820, 1.011e-3
-1.821, 1.011e-3
-1.822, 1.011e-3
-1.823, 1.011e-3
-1.824, 1.011e-3
-1.825, 1.011e-3
-1.826, 1.011e-3
-1.827, 1.011e-3
-1.828, 1.011e-3
-1.829, 1.011e-3
-1.830, 1.011e-3
-1.831, 1.011e-3
-1.832, 1.011e-3
-1.833, 1.011e-3
-1.834, 1.011e-3
-1.835, 1.011e-3
-1.836, 1.011e-3
-1.837, 1.011e-3
-1.838, 1.011e-3
-1.839, 1.011e-3
-1.840, 1.011e-3
-1.841, 1.011e-3
-1.842, 1.011e-3
-1.843, 1.011e-3
-1.844, 1.011e-3
-1.845, 1.011e-3
-1.846, 1.011e-3
-1.847, 1.011e-3
-1.848, 1.011e-3
-1.849, 1.011e-3
-1.850, 1.011e-3
-1.851, 1.011e-3
-1.852, 1.011e-3
-1.853, 1.011e-3
-1.854, 1.011e-3
-1.855, 1.011e-3
-1.856, 1.011e-3
-1.857, 1.011e-3
-1.858, 1.011e-3
-1.859, 1.011e-3
-1.860, 1.011e-3
-1.861, 1.011e-3
-1.862, 1.011e-3
-1.863, 1.011e-3
-1.864, 1.011e-3
-1.865, 1.011e-3
-1.866, 1.011e-3
-1.867, 1.011e-3
-1.868, 1.011e-3
-1.869, 1.011e-3
-1.870, 1.011e-3
-1.871, 1.011e-3
-1.872, 1.011e-3
-1.873, 1.011e-3
-1.874, 1.011e-3
-1.875, 1.011e-3
-1.876, 1.011e-3
-1.877, 1.011e-3
-1.878, 1.011e-3
-1.879, 1.011e-3
-1.880, 1.011e-3
-1.881, 1.011e-3
-1.882, 1.011e-3
-1.883, 1.011e-3
-1.884, 1.011e-3
-1.885, 1.011e-3
-1.886, 1.011e-3
-1.887, 1.011e-3
-1.888, 1.011e-3
-1.889, 1.011e-3
-1.890, 1.011e-3
-1.891, 1.011e-3
-1.892, 1.011e-3
-1.893, 1.011e-3
-1.894, 1.011e-3
-1.895, 1.011e-3
-1.896, 1.011e-3
-1.897, 1.011e-3
-1.898, 1.011e-3
-1.899, 1.011e-3
-1.900, 1.011e-3
-1.901, 1.011e-3
-1.902, 1.011e-3
-1.903, 1.011e-3
-1.904, 1.011e-3
-1.905, 1.011e-3
-1.906, 1.011e-3
-1.907, 1.011e-3
-1.908, 1.011e-3
-1.909, 1.011e-3
-1.910, 1.011e-3
-1.911, 1.011e-3
-1.912, 1.011e-3
-1.913, 1.011e-3
-1.914, 1.011e-3
-1.915, 1.011e-3
-1.916, 1.011e-3
-1.917, 1.011e-3
-1.918, 1.011e-3
-1.919, 1.011e-3
-1.920, 1.011e-3
-1.921, 1.011e-3
-1.922, 1.011e-3
-1.923, 1.011e-3
-1.924, 1.011e-3
-1.925, 1.011e-3
-1.926, 1.011e-3
-1.927, 1.011e-3
-1.928, 1.011e-3
-1.929, 1.011e-3
-1.930, 1.011e-3
-1.931, 1.011e-3
-1.932, 1.011e-3
-1.933, 1.011e-3
-1.934, 1.011e-3
-1.935, 1.011e-3
-1.936, 1.011e-3
-1.937, 1.011e-3
-1.938, 1.011e-3
-1.939, 1.011e-3
-1.940, 1.011e-3
-1.941, 1.011e-3
-1.942, 1.011e-3
-1.943, 1.011e-3
-1.944, 1.011e-3
-1.945, 1.011e-3
-1.946, 1.011e-3
-1.947, 1.011e-3
-1.948, 1.011e-3
-1.949, 1.011e-3
-1.950, 1.011e-3
-1.951, 1.011e-3
-1.952, 1.011e-3
-1.953, 1.011e-3
-1.954, 1.011e-3
-1.955, 1.011e-3
-1.956, 1.011e-3
-1.957, 1.011e-3
-1.958, 1.011e-3
-1.959, 1.011e-3
-1.960, 1.011e-3
-1.961, 1.011e-3
-1.962, 1.011e-3
-1.963, 1.011e-3
-1.964, 1.011e-3
-1.965, 1.011e-3
-1.966, 1.011e-3
-1.967, 1.011e-3
-1.968, 1.011e-3
-1.969, 1.011e-3
-1.970, 1.011e-3
-1.971, 1.011e-3
-1.972, 1.011e-3
-1.973, 1.011e-3
-1.974, 1.011e-3
-1.975, 1.011e-3
-1.976, 1.011e-3
-1.977, 1.011e-3
-1.978, 1.011e-3
-1.979, 1.011e-3
-1.980, 1.011e-3
-1.981, 1.011e-3
-1.982, 1.011e-3
-1.983, 1.011e-3
-1.984, 1.011e-3
-1.985, 1.011e-3
-1.986, 1.011e-3
-1.987, 1.011e-3
-1.988, 1.011e-3
-1.989, 1.011e-3
-1.990, 1.011e-3
-1.991, 1.011e-3
-1.992, 1.011e-3
-1.993, 1.011e-3
-1.994, 1.011e-3
-1.995, 1.011e-3
-1.996, 1.011e-3
-1.997, 1.011e-3
-1.998, 1.011e-3
-1.999, 1.011e-3
-2.000, 1.011e-3
-2.001, 1.011e-3
-2.002, 1.011e-3
-2.003, 1.011e-3
-2.004, 1.011e-3
-2.005, 1.011e-3
-2.006, 1.011e-3
-2.007, 1.011e-3
-2.008, 1.011e-3
-2.009, 1.011e-3
-2.010, 1.011e-3
-2.011, 1.011e-3
-2.012, 1.011e-3
-2.013, 1.011e-3
-2.014, 1.011e-3
-2.015, 1.011e-3
-2.016, 1.011e-3
-2.017, 1.011e-3
-2.018, 1.011e-3
-2.019, 1.011e-3
-2.020, 1.011e-3
-2.021, 1.011e-3
-2.022, 1.011e-3
-2.023, 1.011e-3
-2.024, 1.011e-3
-2.025, 1.011e-3
-2.026, 1.011e-3
-2.027, 1.011e-3
-2.028, 1.011e-3
-2.029, 1.011e-3
-2.030, 1.011e-3
-2.031, 1.011e-3
-2.032, 1.011e-3
-2.033, 1.011e-3
-2.034, 1.011e-3
-2.035, 1.011e-3
-2.036, 1.011e-3
-2.037, 1.011e-3
-2.038, 1.011e-3
-2.039, 1.011e-3
-2.040, 1.011e-3
-2.041, 1.011e-3
-2.042, 1.011e-3
-2.043, 1.011e-3
-2.044, 1.011e-3
-2.045, 1.011e-3
-2.046, 1.011e-3
-2.047, 1.011e-3
-2.048, 1.011e-3
-2.049, 1.011e-3
-2.050, 1.011e-3
-2.051, 1.011e-3
-2.052, 1.011e-3
-2.053, 1.011e-3
-2.054, 1.011e-3
-2.055, 1.011e-3
-2.056, 1.011e-3
-2.057, 1.011e-3
-2.058, 1.011e-3
-2.059, 1.011e-3
-2.060, 1.011e-3
-2.061, 1.011e-3
-2.062, 1.011e-3
-2.063, 1.011e-3
-2.064, 1.011e-3
-2.065, 1.011e-3
-2.066, 1.011e-3
-2.067, 1.011e-3
-2.068, 1.011e-3
-2.069, 1.011e-3
-2.070, 1.011e-3
-2.071, 1.011e-3
-2.072, 1.011e-3
-2.073, 1.011e-3
-2.074, 1.011e-3
-2.075, 1.011e-3
-2.076, 1.011e-3
-2.077, 1.011e-3
-2.078, 1.011e-3
-2.079, 1.011e-3
-2.080, 1.011e-3
-2.081, 1.011e-3
-2.082, 1.011e-3
-2.083, 1.011e-3
-2.084, 1.011e-3
-2.085, 1.011e-3
-2.086, 1.011e-3
-2.087, 1.011e-3
-2.088, 1.011e-3
-2.089, 1.011e-3
-2.090, 1.011e-3
-2.091, 1.011e-3
-2.092, 1.011e-3
-2.093, 1.011e-3
-2.094, 1.011e-3
-2.095, 1.011e-3
-2.096, 1.011e-3
-2.097, 1.011e-3
-2.098, 1.011e-3
-2.099, 1.011e-3
-2.100, 1.011e-3
-2.101, 1.011e-3
-2.102, 1.011e-3
-2.103, 1.011e-3
-2.104, 1.011e-3
-2.105, 1.011e-3
-2.106, 1.011e-3
-2.107, 1.011e-3
-2.108, 1.011e-3
-2.109, 1.011e-3
-2.110, 1.011e-3
-2.111, 1.011e-3
-2.112, 1.011e-3
-2.113, 1.011e-3
-2.114, 1.011e-3
-2.115, 1.011e-3
-2.116, 1.011e-3
-2.117, 1.011e-3
-2.118, 1.011e-3
-2.119, 1.011e-3
-2.120, 1.011e-3
-2.121, 1.011e-3
-2.122, 1.011e-3
-2.123, 1.011e-3
-2.124, 1.011e-3
-2.125, 1.011e-3
-2.126, 1.011e-3
-2.127, 1.011e-3
-2.128, 1.011e-3
-2.129, 1.011e-3
-2.130, 1.011e-3
-2.131, 1.011e-3
-2.132, 1.011e-3
-2.133, 1.011e-3
-2.134, 1.011e-3
-2.135, 1.011e-3
-2.136, 1.011e-3
-2.137, 1.011e-3
-2.138, 1.011e-3
-2.139, 1.011e-3
-2.140, 1.011e-3
-2.141, 1.011e-3
-2.142, 1.011e-3
-2.143, 1.011e-3
-2.144, 1.011e-3
-2.145, 1.011e-3
-2.146, 1.011e-3
-2.147, 1.011e-3
-2.148, 1.011e-3
-2.149, 1.011e-3
-2.150, 1.011e-3
-2.151, 1.011e-3
-2.152, 1.011e-3
-2.153, 1.011e-3
-2.154, 1.011e-3
-2.155, 1.011e-3
-2.156, 1.011e-3
-2.157, 1.011e-3
-2.158, 1.011e-3
-2.159, 1.011e-3
-2.160, 1.011e-3
-2.161, 1.011e-3
-2.162, 1.011e-3
-2.163, 1.011e-3
-2.164, 1.011e-3
-2.165, 1.011e-3
-2.166, 1.011e-3
-2.167, 1.011e-3
-2.168, 1.011e-3
-2.169, 1.011e-3
-2.170, 1.011e-3
-2.171, 1.011e-3
-2.172, 1.011e-3
-2.173, 1.011e-3
-2.174, 1.011e-3
-2.175, 1.011e-3
-2.176, 1.011e-3
-2.177, 1.011e-3
-2.178, 1.011e-3
-2.179, 1.011e-3
-2.180, 1.011e-3
-2.181, 1.011e-3
-2.182, 1.011e-3
-2.183, 1.011e-3
-2.184, 1.011e-3
-2.185, 1.011e-3
-2.186, 1.011e-3
-2.187, 1.011e-3
-2.188, 1.011e-3
-2.189, 1.011e-3
-2.190, 1.011e-3
-2.191, 1.011e-3
-2.192, 1.011e-3
-2.193, 1.011e-3
-2.194, 1.011e-3
-2.195, 1.011e-3
-2.196, 1.011e-3
-2.197, 1.011e-3
-2.198, 1.011e-3
-2.199, 1.011e-3
-2.200, 1.011e-3
-2.201, 1.011e-3
-2.202, 1.011e-3
-2.203, 1.011e-3
-2.204, 1.011e-3
-2.205, 1.011e-3
-2.206, 1.011e-3
-2.207, 1.011e-3
-2.208, 1.011e-3
-2.209, 1.011e-3
-2.210, 1.011e-3
-2.211, 1.011e-3
-2.212, 1.011e-3
-2.213, 1.011e-3
-2.214, 1.011e-3
-2.215, 1.011e-3
-2.216, 1.011e-3
-2.217, 1.011e-3
-2.218, 1.011e-3
-2.219, 1.011e-3
-2.220, 1.011e-3
-2.221, 1.011e-3
-2.222, 1.011e-3
-2.223, 1.011e-3
-2.224, 1.011e-3
-2.225, 1.011e-3
-2.226, 1.011e-3
-2.227, 1.011e-3
-2.228, 1.011e-3
-2.229, 1.011e-3
-2.230, 1.011e-3
-2.231, 1.011e-3
-2.232, 1.011e-3
-2.233, 1.011e-3
-2.234, 1.011e-3
-2.235, 1.011e-3
-2.236, 1.011e-3
-2.237, 1.011e-3
-2.238, 1.011e-3
-2.239, 1.011e-3
-2.240, 1.011e-3
-2.241, 1.011e-3
-2.242, 1.011e-3
-2.243, 1.011e-3
-2.244, 1.011e-3
-2.245, 1.011e-3
-2.246, 1.011e-3
-2.247, 1.011e-3
-2.248, 1.011e-3
-2.249, 1.011e-3
-2.250, 1.011e-3
-2.251, 1.011e-3
-2.252, 1.011e-3
-2.253, 1.011e-3
-2.254, 1.011e-3
-2.255, 1.011e-3
-2.256, 1.011e-3
-2.257, 1.011e-3
-2.258, 1.011e-3
-2.259, 1.011e-3
-2.260, 1.011e-3
-2.261, 1.011e-3
-2.262, 1.011e-3
-2.263, 1.011e-3
-2.264, 1.011e-3
-2.265, 1.011e-3
-2.266, 1.011e-3
-2.267, 1.011e-3
-2.268, 1.011e-3
-2.269, 1.011e-3
-2.270, 1.011e-3
-2.271, 1.011e-3
-2.272, 1.011e-3
-2.273, 1.011e-3
-2.274, 1.011e-3
-2.275, 1.011e-3
-2.276, 1.011e-3
-2.277, 1.011e-3
-2.278, 1.011e-3
-2.279, 1.011e-3
-2.280, 1.011e-3
-2.281, 1.011e-3
-2.282, 1.011e-3
-2.283, 1.011e-3
-2.284, 1.011e-3
-2.285, 1.011e-3
-2.286, 1.011e-3
-2.287, 1.011e-3
-2.288, 1.011e-3
-2.289, 1.011e-3
-2.290, 1.011e-3
-2.291, 1.011e-3
-2.292, 1.011e-3
-2.293, 1.011e-3
-2.294, 1.011e-3
-2.295, 1.011e-3
-2.296, 1.011e-3
-2.297, 1.011e-3
-2.298, 1.011e-3
-2.299, 1.011e-3
