Mar. 16, 2025   23:39:34
Cyclic Voltammetry
File: c:/users/guazh/data/banditlqround7_x0exp891_r5/2025-03-03-exp916\exp916-2025-03-16t23_31_26-arkoh\exp916_cv_sr_700mvs_efin_-1400mv.bin
Data Source:  Experiment
Instrument Model:  CHI760E
Header: CV ran at 700 mVs
Note: 

Init E (V) = -1
High E (V) = -1
Low E (V) = -1.4
Final E (V) = -1
Init P/N = N
Scan Rate (V/s) = 0.7
Segment = 3
Sample Interval (V) = 0.001
Quiet Time (sec) = 2
Sensitivity (A/V) = 0.01
Comp R (ohm) = 2.0

Results:

Channel 1:
Segment 1:

Segment 2:

Segment 3:

Potential/V, Current/A

-1.000, 2.790e-5
-1.001, 7.723e-5
-1.002, 9.882e-5
-1.003, 1.111e-4
-1.004, 1.204e-4
-1.005, 1.266e-4
-1.006, 1.327e-4
-1.007, 1.389e-4
-1.008, 1.420e-4
-1.009, 1.481e-4
-1.010, 1.512e-4
-1.011, 1.543e-4
-1.012, 1.605e-4
-1.013, 1.636e-4
-1.014, 1.666e-4
-1.015, 1.728e-4
-1.016, 1.759e-4
-1.017, 1.790e-4
-1.018, 1.821e-4
-1.019, 1.851e-4
-1.020, 1.882e-4
-1.021, 1.913e-4
-1.022, 1.944e-4
-1.023, 1.975e-4
-1.024, 2.006e-4
-1.025, 2.067e-4
-1.026, 2.098e-4
-1.027, 2.129e-4
-1.028, 2.160e-4
-1.029, 2.221e-4
-1.030, 2.252e-4
-1.031, 2.283e-4
-1.032, 2.314e-4
-1.033, 2.345e-4
-1.034, 2.376e-4
-1.035, 2.437e-4
-1.036, 2.468e-4
-1.037, 2.499e-4
-1.038, 2.561e-4
-1.039, 2.591e-4
-1.040, 2.622e-4
-1.041, 2.684e-4
-1.042, 2.715e-4
-1.043, 2.746e-4
-1.044, 2.776e-4
-1.045, 2.807e-4
-1.046, 2.838e-4
-1.047, 2.900e-4
-1.048, 2.931e-4
-1.049, 2.992e-4
-1.050, 3.023e-4
-1.051, 3.054e-4
-1.052, 3.085e-4
-1.053, 3.115e-4
-1.054, 3.177e-4
-1.055, 3.208e-4
-1.056, 3.239e-4
-1.057, 3.270e-4
-1.058, 3.270e-4
-1.059, 3.331e-4
-1.060, 3.331e-4
-1.061, 3.393e-4
-1.062, 3.424e-4
-1.063, 3.455e-4
-1.064, 3.485e-4
-1.065, 3.485e-4
-1.066, 3.516e-4
-1.067, 3.516e-4
-1.068, 3.547e-4
-1.069, 3.547e-4
-1.070, 3.578e-4
-1.071, 3.578e-4
-1.072, 3.578e-4
-1.073, 3.609e-4
-1.074, 3.640e-4
-1.075, 3.640e-4
-1.076, 3.670e-4
-1.077, 3.670e-4
-1.078, 3.670e-4
-1.079, 3.670e-4
-1.080, 3.670e-4
-1.081, 3.670e-4
-1.082, 3.670e-4
-1.083, 3.670e-4
-1.084, 3.670e-4
-1.085, 3.701e-4
-1.086, 3.701e-4
-1.087, 3.670e-4
-1.088, 3.670e-4
-1.089, 3.670e-4
-1.090, 3.640e-4
-1.091, 3.640e-4
-1.092, 3.640e-4
-1.093, 3.609e-4
-1.094, 3.609e-4
-1.095, 3.609e-4
-1.096, 3.609e-4
-1.097, 3.609e-4
-1.098, 3.609e-4
-1.099, 3.578e-4
-1.100, 3.578e-4
-1.101, 3.547e-4
-1.102, 3.516e-4
-1.103, 3.516e-4
-1.104, 3.485e-4
-1.105, 3.485e-4
-1.106, 3.455e-4
-1.107, 3.455e-4
-1.108, 3.455e-4
-1.109, 3.424e-4
-1.110, 3.424e-4
-1.111, 3.393e-4
-1.112, 3.393e-4
-1.113, 3.362e-4
-1.114, 3.362e-4
-1.115, 3.331e-4
-1.116, 3.300e-4
-1.117, 3.300e-4
-1.118, 3.270e-4
-1.119, 3.270e-4
-1.120, 3.239e-4
-1.121, 3.239e-4
-1.122, 3.208e-4
-1.123, 3.208e-4
-1.124, 3.177e-4
-1.125, 3.146e-4
-1.126, 3.115e-4
-1.127, 3.115e-4
-1.128, 3.085e-4
-1.129, 3.085e-4
-1.130, 3.054e-4
-1.131, 3.054e-4
-1.132, 3.054e-4
-1.133, 3.054e-4
-1.134, 3.023e-4
-1.135, 2.992e-4
-1.136, 2.992e-4
-1.137, 2.961e-4
-1.138, 2.931e-4
-1.139, 2.931e-4
-1.140, 2.931e-4
-1.141, 2.900e-4
-1.142, 2.900e-4
-1.143, 2.900e-4
-1.144, 2.869e-4
-1.145, 2.869e-4
-1.146, 2.838e-4
-1.147, 2.838e-4
-1.148, 2.807e-4
-1.149, 2.776e-4
-1.150, 2.776e-4
-1.151, 2.776e-4
-1.152, 2.746e-4
-1.153, 2.746e-4
-1.154, 2.746e-4
-1.155, 2.715e-4
-1.156, 2.715e-4
-1.157, 2.715e-4
-1.158, 2.684e-4
-1.159, 2.684e-4
-1.160, 2.653e-4
-1.161, 2.653e-4
-1.162, 2.622e-4
-1.163, 2.622e-4
-1.164, 2.591e-4
-1.165, 2.591e-4
-1.166, 2.591e-4
-1.167, 2.591e-4
-1.168, 2.561e-4
-1.169, 2.561e-4
-1.170, 2.530e-4
-1.171, 2.530e-4
-1.172, 2.530e-4
-1.173, 2.499e-4
-1.174, 2.499e-4
-1.175, 2.499e-4
-1.176, 2.468e-4
-1.177, 2.468e-4
-1.178, 2.468e-4
-1.179, 2.468e-4
-1.180, 2.437e-4
-1.181, 2.437e-4
-1.182, 2.437e-4
-1.183, 2.406e-4
-1.184, 2.406e-4
-1.185, 2.376e-4
-1.186, 2.376e-4
-1.187, 2.376e-4
-1.188, 2.376e-4
-1.189, 2.345e-4
-1.190, 2.376e-4
-1.191, 2.345e-4
-1.192, 2.345e-4
-1.193, 2.345e-4
-1.194, 2.314e-4
-1.195, 2.314e-4
-1.196, 2.283e-4
-1.197, 2.283e-4
-1.198, 2.283e-4
-1.199, 2.283e-4
-1.200, 2.283e-4
-1.201, 2.283e-4
-1.202, 2.283e-4
-1.203, 2.252e-4
-1.204, 2.252e-4
-1.205, 2.252e-4
-1.206, 2.252e-4
-1.207, 2.221e-4
-1.208, 2.221e-4
-1.209, 2.221e-4
-1.210, 2.221e-4
-1.211, 2.221e-4
-1.212, 2.191e-4
-1.213, 2.191e-4
-1.214, 2.221e-4
-1.215, 2.191e-4
-1.216, 2.191e-4
-1.217, 2.191e-4
-1.218, 2.160e-4
-1.219, 2.160e-4
-1.220, 2.160e-4
-1.221, 2.160e-4
-1.222, 2.160e-4
-1.223, 2.160e-4
-1.224, 2.160e-4
-1.225, 2.160e-4
-1.226, 2.160e-4
-1.227, 2.129e-4
-1.228, 2.129e-4
-1.229, 2.160e-4
-1.230, 2.129e-4
-1.231, 2.129e-4
-1.232, 2.098e-4
-1.233, 2.098e-4
-1.234, 2.098e-4
-1.235, 2.098e-4
-1.236, 2.098e-4
-1.237, 2.098e-4
-1.238, 2.098e-4
-1.239, 2.098e-4
-1.240, 2.098e-4
-1.241, 2.098e-4
-1.242, 2.067e-4
-1.243, 2.067e-4
-1.244, 2.067e-4
-1.245, 2.067e-4
-1.246, 2.067e-4
-1.247, 2.067e-4
-1.248, 2.067e-4
-1.249, 2.067e-4
-1.250, 2.067e-4
-1.251, 2.067e-4
-1.252, 2.067e-4
-1.253, 2.036e-4
-1.254, 2.067e-4
-1.255, 2.036e-4
-1.256, 2.036e-4
-1.257, 2.036e-4
-1.258, 2.036e-4
-1.259, 2.036e-4
-1.260, 2.036e-4
-1.261, 2.067e-4
-1.262, 2.036e-4
-1.263, 2.036e-4
-1.264, 2.036e-4
-1.265, 2.036e-4
-1.266, 2.036e-4
-1.267, 2.036e-4
-1.268, 2.036e-4
-1.269, 2.036e-4
-1.270, 2.036e-4
-1.271, 2.036e-4
-1.272, 2.067e-4
-1.273, 2.036e-4
-1.274, 2.036e-4
-1.275, 2.036e-4
-1.276, 2.036e-4
-1.277, 2.036e-4
-1.278, 2.036e-4
-1.279, 2.036e-4
-1.280, 2.067e-4
-1.281, 2.067e-4
-1.282, 2.067e-4
-1.283, 2.067e-4
-1.284, 2.067e-4
-1.285, 2.098e-4
-1.286, 2.067e-4
-1.287, 2.098e-4
-1.288, 2.098e-4
-1.289, 2.098e-4
-1.290, 2.067e-4
-1.291, 2.098e-4
-1.292, 2.098e-4
-1.293, 2.098e-4
-1.294, 2.129e-4
-1.295, 2.129e-4
-1.296, 2.129e-4
-1.297, 2.160e-4
-1.298, 2.160e-4
-1.299, 2.160e-4
-1.300, 2.160e-4
-1.301, 2.160e-4
-1.302, 2.160e-4
-1.303, 2.191e-4
-1.304, 2.191e-4
-1.305, 2.221e-4
-1.306, 2.221e-4
-1.307, 2.221e-4
-1.308, 2.252e-4
-1.309, 2.252e-4
-1.310, 2.252e-4
-1.311, 2.283e-4
-1.312, 2.283e-4
-1.313, 2.314e-4
-1.314, 2.314e-4
-1.315, 2.345e-4
-1.316, 2.345e-4
-1.317, 2.376e-4
-1.318, 2.406e-4
-1.319, 2.437e-4
-1.320, 2.437e-4
-1.321, 2.468e-4
-1.322, 2.468e-4
-1.323, 2.499e-4
-1.324, 2.530e-4
-1.325, 2.530e-4
-1.326, 2.561e-4
-1.327, 2.591e-4
-1.328, 2.622e-4
-1.329, 2.653e-4
-1.330, 2.715e-4
-1.331, 2.746e-4
-1.332, 2.776e-4
-1.333, 2.807e-4
-1.334, 2.838e-4
-1.335, 2.869e-4
-1.336, 2.931e-4
-1.337, 2.961e-4
-1.338, 2.992e-4
-1.339, 3.054e-4
-1.340, 3.115e-4
-1.341, 3.177e-4
-1.342, 3.208e-4
-1.343, 3.300e-4
-1.344, 3.331e-4
-1.345, 3.424e-4
-1.346, 3.455e-4
-1.347, 3.547e-4
-1.348, 3.609e-4
-1.349, 3.670e-4
-1.350, 3.763e-4
-1.351, 3.855e-4
-1.352, 3.948e-4
-1.353, 4.040e-4
-1.354, 4.164e-4
-1.355, 4.256e-4
-1.356, 4.349e-4
-1.357, 4.472e-4
-1.358, 4.595e-4
-1.359, 4.750e-4
-1.360, 4.873e-4
-1.361, 5.027e-4
-1.362, 5.181e-4
-1.363, 5.335e-4
-1.364, 5.520e-4
-1.365, 5.705e-4
-1.366, 5.921e-4
-1.367, 6.137e-4
-1.368, 6.353e-4
-1.369, 6.599e-4
-1.370, 6.846e-4
-1.371, 7.124e-4
-1.372, 7.432e-4
-1.373, 7.709e-4
-1.374, 8.048e-4
-1.375, 8.418e-4
-1.376, 8.788e-4
-1.377, 9.189e-4
-1.378, 9.590e-4
-1.379, 1.002e-3
-1.380, 1.048e-3
-1.381, 1.098e-3
-1.382, 1.147e-3
-1.383, 1.196e-3
-1.384, 1.249e-3
-1.385, 1.304e-3
-1.386, 1.363e-3
-1.387, 1.425e-3
-1.388, 1.486e-3
-1.389, 1.551e-3
-1.390, 1.616e-3
-1.391, 1.687e-3
-1.392, 1.754e-3
-1.393, 1.825e-3
-1.394, 1.896e-3
-1.395, 1.970e-3
-1.396, 2.047e-3
-1.397, 2.121e-3
-1.398, 2.201e-3
-1.399, 2.282e-3
-1.400, 2.294e-3
-1.399, 2.257e-3
-1.398, 2.235e-3
-1.397, 2.214e-3
-1.396, 2.192e-3
-1.395, 2.168e-3
-1.394, 2.140e-3
-1.393, 2.109e-3
-1.392, 2.081e-3
-1.391, 2.050e-3
-1.390, 2.020e-3
-1.389, 1.989e-3
-1.388, 1.958e-3
-1.387, 1.924e-3
-1.386, 1.893e-3
-1.385, 1.859e-3
-1.384, 1.822e-3
-1.383, 1.788e-3
-1.382, 1.754e-3
-1.381, 1.721e-3
-1.380, 1.687e-3
-1.379, 1.650e-3
-1.378, 1.619e-3
-1.377, 1.582e-3
-1.376, 1.551e-3
-1.375, 1.514e-3
-1.374, 1.483e-3
-1.373, 1.449e-3
-1.372, 1.415e-3
-1.371, 1.381e-3
-1.370, 1.347e-3
-1.369, 1.317e-3
-1.368, 1.283e-3
-1.367, 1.252e-3
-1.366, 1.224e-3
-1.365, 1.193e-3
-1.364, 1.166e-3
-1.363, 1.135e-3
-1.362, 1.107e-3
-1.361, 1.076e-3
-1.360, 1.048e-3
-1.359, 1.018e-3
-1.358, 9.898e-4
-1.357, 9.621e-4
-1.356, 9.374e-4
-1.355, 9.097e-4
-1.354, 8.850e-4
-1.353, 8.603e-4
-1.352, 8.357e-4
-1.351, 8.110e-4
-1.350, 7.863e-4
-1.349, 7.617e-4
-1.348, 7.401e-4
-1.347, 7.154e-4
-1.346, 6.939e-4
-1.345, 6.723e-4
-1.344, 6.507e-4
-1.343, 6.291e-4
-1.342, 6.106e-4
-1.341, 5.921e-4
-1.340, 5.705e-4
-1.339, 5.520e-4
-1.338, 5.335e-4
-1.337, 5.150e-4
-1.336, 4.996e-4
-1.335, 4.811e-4
-1.334, 4.657e-4
-1.333, 4.472e-4
-1.332, 4.318e-4
-1.331, 4.195e-4
-1.330, 4.040e-4
-1.329, 3.886e-4
-1.328, 3.732e-4
-1.327, 3.609e-4
-1.326, 3.485e-4
-1.325, 3.331e-4
-1.324, 3.208e-4
-1.323, 3.085e-4
-1.322, 2.961e-4
-1.321, 2.838e-4
-1.320, 2.746e-4
-1.319, 2.622e-4
-1.318, 2.530e-4
-1.317, 2.406e-4
-1.316, 2.314e-4
-1.315, 2.221e-4
-1.314, 2.129e-4
-1.313, 2.036e-4
-1.312, 1.944e-4
-1.311, 1.851e-4
-1.310, 1.759e-4
-1.309, 1.697e-4
-1.308, 1.605e-4
-1.307, 1.512e-4
-1.306, 1.481e-4
-1.305, 1.389e-4
-1.304, 1.296e-4
-1.303, 1.235e-4
-1.302, 1.173e-4
-1.301, 1.111e-4
-1.300, 1.019e-4
-1.299, 9.882e-5
-1.298, 9.265e-5
-1.297, 8.648e-5
-1.296, 8.032e-5
-1.295, 7.723e-5
-1.294, 7.107e-5
-1.293, 6.490e-5
-1.292, 5.873e-5
-1.291, 5.565e-5
-1.290, 4.949e-5
-1.289, 4.640e-5
-1.288, 4.024e-5
-1.287, 3.715e-5
-1.286, 3.099e-5
-1.285, 2.790e-5
-1.284, 2.482e-5
-1.283, 2.174e-5
-1.282, 1.865e-5
-1.281, 1.557e-5
-1.280, 9.405e-6
-1.279, 6.322e-6
-1.278, 3.239e-6
-1.277, 1.559e-7
-1.276, -2.927e-6
-1.275, -6.010e-6
-1.274, -9.093e-6
-1.273, -9.093e-6
-1.272, -1.218e-5
-1.271, -1.526e-5
-1.270, -1.834e-5
-1.269, -1.834e-5
-1.268, -2.451e-5
-1.267, -2.451e-5
-1.266, -2.759e-5
-1.265, -3.068e-5
-1.264, -3.068e-5
-1.263, -3.376e-5
-1.262, -3.684e-5
-1.261, -3.684e-5
-1.260, -3.992e-5
-1.259, -3.992e-5
-1.258, -4.301e-5
-1.257, -4.609e-5
-1.256, -4.609e-5
-1.255, -4.917e-5
-1.254, -5.226e-5
-1.253, -5.226e-5
-1.252, -5.534e-5
-1.251, -5.534e-5
-1.250, -5.534e-5
-1.249, -5.842e-5
-1.248, -5.842e-5
-1.247, -6.151e-5
-1.246, -6.151e-5
-1.245, -6.459e-5
-1.244, -6.767e-5
-1.243, -6.767e-5
-1.242, -6.767e-5
-1.241, -7.076e-5
-1.240, -7.076e-5
-1.239, -7.384e-5
-1.238, -7.384e-5
-1.237, -7.384e-5
-1.236, -7.384e-5
-1.235, -7.692e-5
-1.234, -7.692e-5
-1.233, -8.000e-5
-1.232, -8.000e-5
-1.231, -8.309e-5
-1.230, -8.617e-5
-1.229, -8.617e-5
-1.228, -8.617e-5
-1.227, -8.617e-5
-1.226, -8.617e-5
-1.225, -8.925e-5
-1.224, -8.925e-5
-1.223, -9.234e-5
-1.222, -9.234e-5
-1.221, -9.234e-5
-1.220, -9.542e-5
-1.219, -9.542e-5
-1.218, -9.850e-5
-1.217, -1.016e-4
-1.216, -9.850e-5
-1.215, -1.016e-4
-1.214, -1.016e-4
-1.213, -1.016e-4
-1.212, -1.047e-4
-1.211, -1.047e-4
-1.210, -1.078e-4
-1.209, -1.078e-4
-1.208, -1.078e-4
-1.207, -1.108e-4
-1.206, -1.108e-4
-1.205, -1.139e-4
-1.204, -1.139e-4
-1.203, -1.139e-4
-1.202, -1.170e-4
-1.201, -1.170e-4
-1.200, -1.170e-4
-1.199, -1.170e-4
-1.198, -1.201e-4
-1.197, -1.232e-4
-1.196, -1.232e-4
-1.195, -1.263e-4
-1.194, -1.232e-4
-1.193, -1.263e-4
-1.192, -1.263e-4
-1.191, -1.293e-4
-1.190, -1.293e-4
-1.189, -1.293e-4
-1.188, -1.324e-4
-1.187, -1.324e-4
-1.186, -1.355e-4
-1.185, -1.355e-4
-1.184, -1.386e-4
-1.183, -1.386e-4
-1.182, -1.417e-4
-1.181, -1.417e-4
-1.180, -1.448e-4
-1.179, -1.448e-4
-1.178, -1.448e-4
-1.177, -1.478e-4
-1.176, -1.478e-4
-1.175, -1.478e-4
-1.174, -1.509e-4
-1.173, -1.509e-4
-1.172, -1.540e-4
-1.171, -1.571e-4
-1.170, -1.571e-4
-1.169, -1.571e-4
-1.168, -1.571e-4
-1.167, -1.602e-4
-1.166, -1.602e-4
-1.165, -1.632e-4
-1.164, -1.632e-4
-1.163, -1.663e-4
-1.162, -1.694e-4
-1.161, -1.694e-4
-1.160, -1.725e-4
-1.159, -1.725e-4
-1.158, -1.756e-4
-1.157, -1.756e-4
-1.156, -1.756e-4
-1.155, -1.756e-4
-1.154, -1.787e-4
-1.153, -1.817e-4
-1.152, -1.817e-4
-1.151, -1.848e-4
-1.150, -1.848e-4
-1.149, -1.879e-4
-1.148, -1.910e-4
-1.147, -1.910e-4
-1.146, -1.910e-4
-1.145, -1.941e-4
-1.144, -1.941e-4
-1.143, -1.972e-4
-1.142, -1.972e-4
-1.141, -2.002e-4
-1.140, -2.002e-4
-1.139, -2.033e-4
-1.138, -2.033e-4
-1.137, -2.064e-4
-1.136, -2.095e-4
-1.135, -2.095e-4
-1.134, -2.126e-4
-1.133, -2.126e-4
-1.132, -2.157e-4
-1.131, -2.157e-4
-1.130, -2.157e-4
-1.129, -2.187e-4
-1.128, -2.187e-4
-1.127, -2.218e-4
-1.126, -2.249e-4
-1.125, -2.249e-4
-1.124, -2.280e-4
-1.123, -2.311e-4
-1.122, -2.311e-4
-1.121, -2.311e-4
-1.120, -2.311e-4
-1.119, -2.342e-4
-1.118, -2.372e-4
-1.117, -2.372e-4
-1.116, -2.403e-4
-1.115, -2.434e-4
-1.114, -2.434e-4
-1.113, -2.465e-4
-1.112, -2.465e-4
-1.111, -2.496e-4
-1.110, -2.496e-4
-1.109, -2.527e-4
-1.108, -2.527e-4
-1.107, -2.527e-4
-1.106, -2.557e-4
-1.105, -2.588e-4
-1.104, -2.619e-4
-1.103, -2.619e-4
-1.102, -2.650e-4
-1.101, -2.681e-4
-1.100, -2.681e-4
-1.099, -2.712e-4
-1.098, -2.712e-4
-1.097, -2.742e-4
-1.096, -2.742e-4
-1.095, -2.742e-4
-1.094, -2.773e-4
-1.093, -2.804e-4
-1.092, -2.835e-4
-1.091, -2.835e-4
-1.090, -2.897e-4
-1.089, -2.897e-4
-1.088, -2.897e-4
-1.087, -2.927e-4
-1.086, -2.927e-4
-1.085, -2.958e-4
-1.084, -2.958e-4
-1.083, -2.989e-4
-1.082, -3.020e-4
-1.081, -3.051e-4
-1.080, -3.051e-4
-1.079, -3.082e-4
-1.078, -3.112e-4
-1.077, -3.112e-4
-1.076, -3.143e-4
-1.075, -3.143e-4
-1.074, -3.174e-4
-1.073, -3.205e-4
-1.072, -3.205e-4
-1.071, -3.236e-4
-1.070, -3.267e-4
-1.069, -3.297e-4
-1.068, -3.328e-4
-1.067, -3.328e-4
-1.066, -3.359e-4
-1.065, -3.390e-4
-1.064, -3.390e-4
-1.063, -3.421e-4
-1.062, -3.421e-4
-1.061, -3.452e-4
-1.060, -3.482e-4
-1.059, -3.482e-4
-1.058, -3.544e-4
-1.057, -3.544e-4
-1.056, -3.575e-4
-1.055, -3.637e-4
-1.054, -3.637e-4
-1.053, -3.667e-4
-1.052, -3.667e-4
-1.051, -3.698e-4
-1.050, -3.698e-4
-1.049, -3.729e-4
-1.048, -3.760e-4
-1.047, -3.791e-4
-1.046, -3.821e-4
-1.045, -3.821e-4
-1.044, -3.852e-4
-1.043, -3.914e-4
-1.042, -3.945e-4
-1.041, -3.976e-4
-1.040, -3.976e-4
-1.039, -4.006e-4
-1.038, -4.037e-4
-1.037, -4.037e-4
-1.036, -4.068e-4
-1.035, -4.099e-4
-1.034, -4.130e-4
-1.033, -4.161e-4
-1.032, -4.191e-4
-1.031, -4.253e-4
-1.030, -4.284e-4
-1.029, -4.284e-4
-1.028, -4.346e-4
-1.027, -4.346e-4
-1.026, -4.376e-4
-1.025, -4.407e-4
-1.024, -4.438e-4
-1.023, -4.500e-4
-1.022, -4.531e-4
-1.021, -4.561e-4
-1.020, -4.623e-4
-1.019, -4.654e-4
-1.018, -4.685e-4
-1.017, -4.716e-4
-1.016, -4.746e-4
-1.015, -4.777e-4
-1.014, -4.808e-4
-1.013, -4.870e-4
-1.012, -4.901e-4
-1.011, -4.931e-4
-1.010, -4.993e-4
-1.009, -5.055e-4
-1.008, -5.086e-4
-1.007, -5.147e-4
-1.006, -5.178e-4
-1.005, -5.240e-4
-1.004, -5.271e-4
-1.003, -5.301e-4
-1.002, -5.363e-4
-1.001, -5.425e-4
