Potential V vs RHE, Current mA cm-2
0.013299999999999867,-0.05285361416295777
0.012299999999999978,-0.07612561504573763
0.011299999999999866,-0.0867359497947254
0.010299999999999976,-0.09379535918105193
0.009299999999999864,-0.09894490831256067
0.008299999999999974,-0.10284951150018817
0.007299999999999862,-0.10570722832591554
0.006299999999999972,-0.11078604189243102
0.00529999999999986,-0.11559606031197216
0.0042999999999999705,-0.11868013094567793
0.0032999999999998586,-0.12142467086741611
0.0022999999999999687,-0.12323550133124336
0.0012999999999998568,-0.12838505046275206
0.00029999999999996696,-0.13296871507431476
-0.000700000000000145,-0.1355010483010732
-0.0017000000000000348,-0.13804752864083028
-0.0027000000000001467,-0.13941979860169937
-0.0037000000000000366,-0.14387613919627423
-0.0047000000000001485,-0.14953498439573437
-0.005700000000000038,-0.15151558021554543
-0.00670000000000015,-0.15307176264539696
-0.00770000000000004,-0.15632559863508652
-0.008700000000000152,-0.16113561705462764
-0.009700000000000042,-0.16622857773414182
-0.010700000000000154,-0.1694824137238314
-0.011700000000000044,-0.17033124050375043
-0.012700000000000156,-0.17415096101338604
-0.013700000000000045,-0.17924392169290015
-0.014700000000000157,-0.1844783535024008
-0.015700000000000047,-0.18801513175206336
-0.01670000000000016,-0.1890054296619689
-0.01770000000000005,-0.1936739769515235
-0.01870000000000016,-0.19805958198110513
-0.01970000000000005,-0.20343548492059227
-0.020700000000000163,-0.20838697447011992
-0.021700000000000053,-0.20909433012005244
-0.022700000000000164,-0.21263110836971502
-0.023700000000000054,-0.2195631937390537
-0.024700000000000166,-0.22437321215859482
-0.025700000000000056,-0.22890028831816295
-0.026700000000000168,-0.2293247017081224
-0.027700000000000058,-0.23342736447773108
-0.02870000000000017,-0.24092533436701574
-0.02970000000000006,-0.24417917035670533
-0.03070000000000017,-0.25026242894612494
-0.03170000000000006,-0.250545371206098
-0.03270000000000017,-0.25507244736566614
-0.03370000000000006,-0.2617215904750318
-0.034700000000000175,-0.2661071955046134
-0.035700000000000065,-0.269361031494303
-0.03670000000000018,-0.2724733963540061
-0.03770000000000007,-0.27487840556377663
-0.03870000000000018,-0.2820934331930883
-0.03970000000000007,-0.2874693361325754
-0.04070000000000018,-0.2911475855122245
-0.04170000000000007,-0.29355259472199513
-0.04270000000000018,-0.2955331905418062
-0.04370000000000007,-0.30204086252118534
-0.044700000000000184,-0.30925589015049704
-0.045700000000000074,-0.31052913032037555
-0.046700000000000186,-0.31293413953014615
-0.047700000000000076,-0.3164709177798087
-0.04870000000000019,-0.3215638784593228
-0.04970000000000008,-0.328354492698675
-0.05070000000000019,-0.3299106751285265
-0.05170000000000008,-0.3310424441684186
-0.05270000000000019,-0.3351451069380272
-0.05370000000000008,-0.33981365422758186
-0.05470000000000019,-0.3456139705570285
-0.05570000000000008,-0.34844339315675854
-0.056700000000000195,-0.34816045089678554
-0.057700000000000085,-0.35297046931632664
-0.058700000000000196,-0.3572146032159218
-0.059700000000000086,-0.3616002082455034
-0.0607000000000002,-0.3642881597152469
-0.06170000000000009,-0.3649955153651795
-0.0627000000000002,-0.366268755535058
-0.06370000000000009,-0.37079583169462615
-0.0647000000000002,-0.3753229078541942
-0.06570000000000009,-0.3767376191540593
-0.0667000000000002,-0.3753229078541942
-0.0677000000000001,-0.37744497480399175
-0.0687000000000002,-0.38409411791335746
-0.0697000000000001,-0.38508441582326297
-0.07070000000000021,-0.38607471373316854
-0.0717000000000001,-0.386216184863155
-0.07270000000000021,-0.386216184863155
-0.0737000000000001,-0.39116767441268263
-0.07470000000000021,-0.39272385684253414
-0.0757000000000001,-0.39286532797252066
-0.07670000000000021,-0.39215797232258814
-0.0777000000000001,-0.3913091455426691
-0.07870000000000021,-0.3956947505722508
-0.0797000000000001,-0.39838270204199433
-0.08070000000000022,-0.39696799074212924
-0.0817000000000001,-0.3951288660523047
-0.08270000000000022,-0.3942800392723857
-0.08370000000000011,-0.39725093300210224
-0.08470000000000022,-0.4005047689917918
-0.08570000000000011,-0.3975338752620753
-0.08670000000000022,-0.3948459237923317
-0.08770000000000011,-0.39583622170223726
-0.08870000000000022,-0.39640210622218325
-0.08970000000000011,-0.3992315288219133
-0.09070000000000022,-0.3962606350921968
-0.09170000000000011,-0.39357268362245323
-0.09270000000000023,-0.39343121249246665
-0.09370000000000012,-0.3942800392723857
-0.09470000000000023,-0.39668504848215624
-0.09570000000000012,-0.3930067991025072
-0.09670000000000023,-0.3893285497228581
-0.09770000000000012,-0.3907432610227231
-0.09870000000000023,-0.3898944342428041
-0.09970000000000012,-0.39088473215270964
-0.10070000000000023,-0.3901773765027771
-0.10170000000000012,-0.38508441582326297
-0.10270000000000024,-0.3835282333934114
-0.10370000000000013,-0.38480147356329
-0.10470000000000024,-0.386216184863155
-0.10570000000000013,-0.38437706017333045
-0.10670000000000024,-0.37829380158391085
-0.10770000000000013,-0.37786938819395127
-0.10870000000000024,-0.3799914551437488
-0.10970000000000013,-0.3792840994938163
-0.11070000000000024,-0.37588879237414025
-0.11170000000000013,-0.3724934852544642
-0.11270000000000002,-0.37136171621457215
-0.11370000000000013,-0.37263495638445066
-0.11470000000000002,-0.37065436056463963
-0.11570000000000014,-0.36909817813478807
-0.11670000000000003,-0.365702871015112
-0.11770000000000014,-0.36273197728539536
-0.11870000000000003,-0.36541992875513896
-0.11970000000000014,-0.3637222751953009
-0.12070000000000003,-0.3613172659855304
-0.12170000000000014,-0.3570731320859353
-0.12270000000000003,-0.35579989191605677
-0.12370000000000014,-0.35636577643600276
-0.12470000000000003,-0.35664871869597575
-0.12570000000000014,-0.3528289981863401
-0.12670000000000003,-0.34886780654671806
-0.12770000000000015,-0.347453095246853
-0.12870000000000004,-0.347453095246853
-0.12970000000000015,-0.34844339315675854
-0.13070000000000004,-0.34448220151713643
-0.13170000000000015,-0.33995512535756833
-0.13270000000000004,-0.34094542326747385
-0.13370000000000015,-0.33995512535756833
-0.13470000000000004,-0.34037953874752785
-0.13570000000000015,-0.33740864501781126
-0.13670000000000004,-0.33373039563816215
-0.13770000000000016,-0.33373039563816215
-0.13870000000000005,-0.33274009772825663
-0.13970000000000016,-0.3341548090281217
-0.14070000000000005,-0.3316083286883646
-0.14170000000000016,-0.326373896878864
-0.14270000000000005,-0.32693978139880997
-0.14370000000000016,-0.32764713704874243
-0.14470000000000005,-0.32778860817872896
-0.14570000000000016,-0.3260909546188909
-0.14670000000000005,-0.3215638784593228
-0.14770000000000016,-0.3211394650693633
-0.14870000000000005,-0.32326153201916086
-0.14970000000000017,-0.32297858975918786
-0.15070000000000006,-0.3204321094194308
-0.15170000000000017,-0.3181685713396467
-0.15270000000000006,-0.3170368022997547
-0.15370000000000017,-0.3194418115095253
-0.15470000000000006,-0.31831004246963324
-0.15570000000000017,-0.3173197445597277
-0.15670000000000006,-0.3146317930899841
-0.15770000000000017,-0.3136414951800786
-0.15870000000000006,-0.31632944664982215
-0.15970000000000018,-0.31604650438984916
-0.16070000000000007,-0.31505620647994365
-0.16170000000000018,-0.3133585529201056
-0.16270000000000007,-0.31236825501020005
-0.16370000000000018,-0.31548061986990317
-0.16470000000000007,-0.3177441579496872
-0.16570000000000018,-0.31350002405009214
-0.16670000000000007,-0.31123648597030806
-0.16770000000000018,-0.3127926684001596
-0.16870000000000007,-0.3127926684001596
-0.16970000000000018,-0.3161879755198357
-0.17070000000000007,-0.31236825501020005
-0.17170000000000019,-0.310670601450362
-0.17270000000000008,-0.31293413953014615
-0.1737000000000002,-0.31406590857003813
-0.17470000000000008,-0.3156220909998897
-0.1757000000000002,-0.31434885083001113
-0.17670000000000008,-0.3122267838802136
-0.1777000000000002,-0.3149147353499572
-0.17870000000000008,-0.3159050332598627
-0.1797000000000002,-0.31675386003978173
-0.18070000000000008,-0.3174612156897142
-0.1817000000000002,-0.3146317930899841
-0.18270000000000008,-0.3161879755198357
-0.1837000000000002,-0.3185929847296063
-0.1847000000000001,-0.3215638784593228
-0.1857000000000002,-0.31958328263951175
-0.1867000000000001,-0.31802710020966024
-0.1877000000000002,-0.31958328263951175
-0.1887000000000001,-0.32382741653910685
-0.1897000000000002,-0.3248177144490124
-0.1907000000000001,-0.3243933010590529
-0.1917000000000001,-0.3231200608891744
-0.19269999999999998,-0.3251006567089854
-0.1937000000000001,-0.329203319478594
-0.19469999999999998,-0.32976920399854004
-0.1957000000000001,-0.32948626173856704
-0.19669999999999999,-0.3309009730384321
-0.1977000000000001,-0.3309009730384321
-0.1987,-0.3348621646780542
-0.1997000000000001,-0.3382574717977303
-0.2007,-0.33670128936787874
-0.2017000000000001,-0.33769158727778426
-0.2027,-0.3388233563176763
-0.2037000000000001,-0.3422186634373524
-0.2047,-0.346321326206961
-0.2057000000000001,-0.3453310282970554
-0.2067,-0.3461798550769745
-0.2077000000000001,-0.3495751621966506
-0.2087,-0.3528289981863401
-0.2097000000000001,-0.35608283417602976
-0.2107,-0.35622430530601623
-0.2117000000000001,-0.35636577643600276
-0.2127,-0.3603269680756248
-0.2137000000000001,-0.36414668858526045
-0.2147,-0.3688152358748151
-0.2157000000000001,-0.3695225915247476
-0.2167,-0.3685322936148421
-0.21770000000000012,-0.3732008409043967
-0.2187,-0.37772791706396475
-0.21970000000000012,-0.38013292627373535
-0.2207,-0.3825379354835059
-0.22170000000000012,-0.3823964643535194
-0.2227,-0.387065011643074
-0.22370000000000012,-0.3915920878026421
-0.2247,-0.3949873949223182
-0.22570000000000012,-0.3979582886520348
-0.2267,-0.3985241731719808
-0.22770000000000012,-0.4022024225516299
-0.22870000000000001,-0.4074368543611306
-0.22970000000000013,-0.4121054016506852
-0.23070000000000002,-0.4133786418205638
-0.23170000000000013,-0.41550070877036127
-0.23270000000000002,-0.42002778492992937
-0.23370000000000013,-0.42596957238936256
-0.23470000000000002,-0.42978929289899814
-0.23570000000000013,-0.4313454753288497
-0.23670000000000002,-0.43516519583848523
-0.2376999999999999,-0.43955080086806686
-0.23870000000000002,-0.444926703807554
-0.2396999999999999,-0.4505855490070142
-0.24070000000000003,-0.4535564427367308
-0.24169999999999991,-0.4572346921163799
-0.24270000000000003,-0.461478826015975
-0.24369999999999992,-0.46756208460539456
-0.24470000000000003,-0.47548446788463883
-0.24569999999999992,-0.47718212144447686
-0.24670000000000003,-0.4810018419541125
-0.24769999999999992,-0.4884998118433972
-0.24870000000000003,-0.4948660126927898
-0.24969999999999992,-0.5026469248420475
-0.25070000000000003,-0.5057592897017505
-0.2516999999999999,-0.5115596060311972
-0.25270000000000004,-0.5189161047904954
-0.2536999999999999,-0.5266970169397532
-0.25470000000000004,-0.5353267558689299
-0.2556999999999999,-0.5405611876784305
-0.25670000000000004,-0.5472103307877962
-0.25769999999999993,-0.5561230119769459
-0.25870000000000004,-0.5646112797761362
-0.25969999999999993,-0.5755045567850969
-0.26070000000000004,-0.582295171024449
-0.26169999999999993,-0.5896516697837473
-0.26270000000000004,-0.5998375911427756
-0.26369999999999993,-0.6112967526716824
-0.26470000000000005,-0.6227559142005892
-0.26569999999999994,-0.6313856531297658
-0.26670000000000005,-0.6418545167487671
-0.26769999999999994,-0.6538795627976199
-0.26870000000000005,-0.6673193201463378
-0.26969999999999994,-0.6794858373251772
-0.27070000000000005,-0.6916523545040165
-0.27169999999999994,-0.7036774005528693
-0.27270000000000005,-0.716551273381641
-0.27369999999999994,-0.733952222369981
-0.27470000000000006,-0.749089633278537
-0.27569999999999995,-0.7639441019271197
-0.27670000000000006,-0.7796473973556217
-0.27769999999999995,-0.7966239329540021
-0.27870000000000006,-0.8160054777621532
-0.27969999999999995,-0.8358114359602636
-0.28070000000000006,-0.8537782694685497
-0.28169999999999995,-0.8737256987966467
-0.28270000000000006,-0.8953707816845817
-0.28369999999999995,-0.9191379315223143
-0.28470000000000006,-0.9450271483098445
-0.28569999999999995,-0.9680869424976446
-0.28670000000000007,-0.9939761592851746
-0.28769999999999996,-1.0218459718925161
-0.28870000000000007,-1.0524037359696008
-0.28969999999999996,-1.0849420958664966
-0.29070000000000007,-1.1163486867235004
-0.29169999999999996,-1.1500188156602882
-0.29270000000000007,-1.1868013094567793
-0.29369999999999996,-1.2268376392429596
-0.2947000000000001,-1.2699863338888435
-0.29569999999999996,-1.3127106151447676
-0.2967000000000001,-1.3582643190004215
-0.29769999999999996,-1.410325694835455
-0.2987000000000001,-1.462811484060448
-0.29969999999999997,-1.5222293586547795
-0.3007000000000001,-1.583061944548976
-0.30169999999999997,-1.6495533756426328
-0.3027000000000001,-1.7217036519357498
-0.30369999999999997,-1.8009274847281918
-0.3047000000000001,-1.8858101627200938
-0.30569999999999997,-1.9763516859114565
-0.3067000000000001,-2.073966765602144
-0.3077,-2.1828995356917518
-0.3087000000000001,-2.30314999618028
-0.3097,-2.433303435767863
-0.3107000000000001,-2.5747745657543666
-0.3117,-2.730392808739521
-0.3127000000000001,-2.8987434534234597
-0.3137,-3.08690005630551
-0.3147000000000001,-3.28637434958648
-0.3157,-3.502825178465831
-0.3167000000000001,-3.7433260994428865
-0.3177,-4.01070653511738
-0.3187000000000001,-4.303551774189442
-0.3197,-4.623276527958939
-0.3207000000000001,-4.962807239926549
-0.3217,-5.336291023090919
-0.3227000000000001,-5.740898454852318
-0.3237,-6.17945895781048
-0.3247000000000001,-6.6505578206655365
-0.3257,-7.149950909517895
-0.3267000000000001,-7.683297069567015
-0.3277,-8.244937455613433
-0.3287000000000001,-8.837701490256883
-0.3297,-9.47149215259642
-0.3307000000000001,-10.142065308732448
-0.3317,-10.842347402165641
-0.3327000000000001,-11.570923721596136
-0.3337,-12.33062368962366
-0.3347000000000001,-13.134179707947
-0.3357,-13.984421199165887
-0.3367000000000001,-14.868615761581536
-0.3377,-15.78817810649381
-0.3387000000000001,-16.736034677403385
-0.3397,-17.683891248312957
-0.3407000000000001,-18.674189158218486
-0.3417,-19.73522263311726
-0.3427000000000001,-20.838697447011988
-0.3437,-21.97046648690402
-0.3447000000000001,-23.144676865792
-0.3457,-24.36132858367593
-0.3467000000000001,-25.60627452755716
-0.3477,-26.879514697435695
-0.3487000000000001,-28.18104909331153
-0.3497,-29.468436376188716
-0.3507000000000001,-30.741676546067247
-0.3517,-32.04321094194308
-0.3527000000000001,-33.358892450817564
-0.3537,-34.6604268466934
-0.3547000000000001,-35.97610835556789
-0.3557,-37.291789864442364
-0.35670000000000013,-38.63576559931415
-0.3577,-39.99388844718459
-0.35870000000000013,-41.40859974704962
-0.3597,-42.80916393391601
-0.36070000000000013,-44.153139668787794
-0.3617,-45.553703855654184
-0.3626999999999999,-47.01085649451517
-0.3637,-48.41142068138156
-0.3646999999999999,-49.84027909424525
-0.3657,-51.31157884610488
-0.3666999999999999,-52.71214303297127
-0.3677,-54.14100144583495
-0.3686999999999999,-55.76791944067975
-0.36970000000000003,-57.352396096528594
-0.3706999999999999,-58.82369584838823
-0.37170000000000003,-60.32328982624517
-0.3726999999999999,-61.96435493408861
-0.37370000000000003,-63.4780960249442
-0.3746999999999999,-64.9352486638052
-0.37570000000000003,-66.42069552866347
-0.3766999999999999,-67.97687795851502
-0.37770000000000004,-69.70282574435035
-0.3786999999999999,-71.2307139482046
-0.37970000000000004,-72.70201370006424
-0.3806999999999999,-74.47040282489553
-0.38170000000000004,-76.23879194972683
-0.38269999999999993,-77.87985705757028
-0.38370000000000004,-79.54921639141102
-0.38469999999999993,-81.10539882126255
-0.38570000000000004,-82.52011012112759
-0.38669999999999993,-82.6898754771114
-0.38570000000000004,-81.71372468020452
-0.38469999999999993,-80.6385440923071
-0.38370000000000004,-79.54921639141102
-0.38269999999999993,-78.34671178652573
-0.38170000000000004,-77.05932450364854
-0.3806999999999999,-75.78608433377002
-0.37970000000000004,-74.68260951987529
-0.3786999999999999,-73.48010491499001
-0.37770000000000004,-72.29174742310337
-0.3766999999999999,-70.9760659142289
-0.37570000000000003,-69.6886786313517
-0.3746999999999999,-68.38714423547587
-0.37370000000000003,-67.128051178596
-0.3726999999999999,-65.9255465737107
-0.37170000000000003,-64.69474774282813
-0.3706999999999999,-63.56297870293609
-0.36970000000000003,-62.28973853305756
-0.3686999999999999,-61.10138104117093
-0.3677,-59.9696120012789
-0.3666999999999999,-58.76710739639362
-0.3657,-57.550455678509685
-0.3646999999999999,-56.34795107362442
-0.3637,-55.088858016744524
-0.3626999999999999,-53.9287947508552
-0.3617,-52.76873148496586
-0.36070000000000013,-51.62281533207519
-0.3597,-50.56178185717641
-0.35870000000000013,-49.514895495276285
-0.3577,-48.38312645538425
-0.35670000000000013,-47.30794586748683
-0.3557,-46.24691239258805
-0.3547000000000001,-45.242467369683865
-0.3537,-44.238022346779694
-0.3527000000000001,-43.17698887188092
-0.3517,-42.087661170984845
-0.3507000000000001,-41.083216148080666
-0.3497,-40.03632978618054
-0.3487000000000001,-39.116767441268266
-0.3477,-38.16891087035869
-0.3467000000000001,-37.192760073451815
-0.3457,-36.315639067535486
-0.3447000000000001,-35.45266517461782
-0.3437,-34.60383839469879
-0.3427000000000001,-33.783305840777075
-0.3417,-32.9486261738567
-0.3407000000000001,-32.09979939393769
-0.3397,-31.250972614018657
-0.3387000000000001,-30.444587173095588
-0.3377,-29.66649595816982
-0.3367000000000001,-28.88840474324405
-0.3357,-28.12446064131693
-0.3347000000000001,-27.36051653938981
-0.3337,-26.63901377645864
-0.3327000000000001,-25.931658126526123
-0.3317,-25.252596702590903
-0.3307000000000001,-24.559388165657033
-0.3297,-23.908620967719123
-0.3287000000000001,-23.24370665678255
-0.3277,-22.607086571843286
-0.3267000000000001,-21.97046648690402
-0.3257,-21.362140627962056
-0.3247000000000001,-20.75381476902009
-0.3237,-20.17378313607542
-0.3227000000000001,-19.60789861612941
-0.3217,-19.042014096183394
-0.3207000000000001,-18.49027668923603
-0.3197,-17.966833508285966
-0.3187000000000001,-17.4433903273359
-0.3177,-16.93409425938449
-0.3167000000000001,-16.438945304431726
-0.3157,-15.943796349478962
-0.3147000000000001,-15.462794507524851
-0.3137,-14.995939778569388
-0.3127000000000001,-14.543232162612577
-0.3117,-14.104671659654418
-0.3107000000000001,-13.67035529059585
-0.3097,-13.254430168435528
-0.3087000000000001,-12.845578602774532
-0.3077,-12.438141748413402
-0.3067000000000001,-12.049096140950518
-0.30569999999999997,-11.667124089986958
-0.3047000000000001,-11.303543285921643
-0.30369999999999997,-10.941377193156194
-0.3027000000000001,-10.57779638909088
-0.30169999999999997,-10.236850965823406
-0.3007000000000001,-9.910052655554582
-0.29969999999999997,-9.586083767885489
-0.2987000000000001,-9.270603148015587
-0.29769999999999996,-8.95795195074541
-0.2967000000000001,-8.65944786647389
-0.29569999999999996,-8.372261472601286
-0.2947000000000001,-8.09497805782774
-0.29369999999999996,-7.823353488253653
-0.29270000000000007,-7.560217186478756
-0.29169999999999996,-7.305569152503049
-0.29070000000000007,-7.0565799637268025
-0.28969999999999996,-6.814664331449882
-0.28870000000000007,-6.5769928330725556
-0.28769999999999996,-6.34498017989469
-0.28670000000000007,-6.121455794516013
-0.28569999999999995,-5.906419676936528
-0.28470000000000006,-5.702701249755963
-0.28369999999999995,-5.5003975338752635
-0.28270000000000006,-5.310826219693348
-0.28169999999999995,-5.1198401942115686
-0.28070000000000006,-4.934513013929248
-0.27969999999999995,-4.757674101446118
-0.27870000000000006,-4.585079322862584
-0.27769999999999995,-4.41814338947851
-0.27670000000000006,-4.2611104351934905
-0.27569999999999995,-4.106906903508202
-0.27470000000000006,-3.9597769283222375
-0.27369999999999994,-3.811232241836409
