Potential V vs RHE, Current mA cm-2
0.4132999999999999,-0.017499978779330502
0.4122999999999999,-0.019197632339168547
0.4112999999999999,-0.019622045729128058
0.4102999999999999,-0.019834252424107815
0.4092999999999999,-0.020018164893090266
0.4082999999999999,-0.020145488910078124
0.4072999999999999,-0.020286960040064625
0.4062999999999999,-0.020400136944053827
0.4052999999999999,-0.020513313848043033
0.4042999999999999,-0.020640637865030884
0.4032999999999999,-0.020697226317025485
0.4022999999999999,-0.020810403221014687
0.4012999999999999,-0.020909433012005242
0.4002999999999999,-0.020994315689997142
0.3992999999999999,-0.021121639706984996
0.3982999999999999,-0.0212065223849769
0.3972999999999999,-0.021291405062968803
0.3962999999999999,-0.021362140627962056
0.3952999999999999,-0.021432876192955305
0.3942999999999999,-0.021517758870947205
0.39329999999999987,-0.02157434732294181
0.39229999999999987,-0.021645082887935062
0.39129999999999987,-0.021729965565926962
0.39029999999999987,-0.021828995356917517
0.38929999999999987,-0.021885583808912118
0.38829999999999987,-0.02197046648690402
0.38729999999999987,-0.022027054938898623
0.38629999999999987,-0.022111937616890523
0.38529999999999986,-0.022210967407881078
0.38429999999999986,-0.022253408746877028
0.38329999999999986,-0.022338291424868928
0.38229999999999986,-0.02238073276386488
0.38129999999999986,-0.022465615441856785
0.38029999999999986,-0.022550498119848682
0.37929999999999986,-0.022621233684841938
0.37829999999999986,-0.022691969249835187
0.37729999999999986,-0.02273441058883114
0.37629999999999986,-0.02279099904082574
0.37529999999999986,-0.022890028831816296
0.37429999999999986,-0.022946617283810897
0.37329999999999985,-0.022989058622806844
0.37229999999999985,-0.023073941300798748
0.37129999999999985,-0.023116382639794698
0.37029999999999985,-0.023215412430785252
0.36929999999999985,-0.023257853769781203
0.36829999999999985,-0.023314442221775804
0.36729999999999985,-0.023399324899767704
0.36629999999999985,-0.02345591335176231
0.36529999999999985,-0.023498354690758262
0.36429999999999985,-0.02356909025575151
0.36329999999999985,-0.023611531594747465
0.36229999999999984,-0.023696414272739365
0.36129999999999984,-0.023767149837732617
0.36029999999999984,-0.02385203251572452
0.35929999999999984,-0.02392276808071777
0.35829999999999984,-0.02393691519371642
0.35729999999999984,-0.02397935653271237
0.35629999999999984,-0.024064239210704275
0.35529999999999984,-0.024120827662698876
0.35429999999999984,-0.024191563227692125
0.35329999999999984,-0.02426229879268538
0.35229999999999984,-0.024304740131681327
0.35129999999999983,-0.024375475696674583
0.35029999999999983,-0.024432064148669184
0.34929999999999983,-0.02447450548766513
0.34829999999999983,-0.024545241052658383
0.34729999999999983,-0.024644270843648942
0.34629999999999983,-0.02467256506964624
0.34529999999999983,-0.024729153521640842
0.34429999999999983,-0.024785741973635443
0.3432999999999998,-0.02482818331263139
0.3422999999999998,-0.024884771764625994
0.3412999999999998,-0.0249413602166206
0.3402999999999998,-0.0250262428946125
0.3392999999999998,-0.0250828313466071
0.3382999999999998,-0.025139419798601705
0.3372999999999998,-0.025210155363594954
0.3362999999999998,-0.025238449589592253
0.3352999999999998,-0.025309185154585506
0.3342999999999998,-0.02537992071957876
0.3332999999999998,-0.02540821494557606
0.3322999999999998,-0.02547895051056931
0.3312999999999998,-0.025521391849565263
0.3302999999999998,-0.025592127414558512
0.3292999999999998,-0.025634568753554465
0.3282999999999998,-0.025677010092550415
0.3272999999999998,-0.02576189277054232
0.3262999999999998,-0.025832628335535568
0.3252999999999999,-0.02587506967453152
0.3242999999999999,-0.02594580523952477
0.3232999999999999,-0.025959952352523425
0.3222999999999999,-0.026044835030515325
0.3212999999999999,-0.026101423482509926
0.3202999999999999,-0.026158011934504528
0.3192999999999999,-0.02622874749949778
0.3182999999999999,-0.02627118883849373
0.3172999999999999,-0.02632777729048833
0.3162999999999999,-0.026384365742482933
0.3152999999999999,-0.02645510130747619
0.3142999999999999,-0.026511689759470786
0.3132999999999999,-0.026539983985468085
0.3122999999999999,-0.02662486666345999
0.3112999999999999,-0.026695602228453245
0.3102999999999999,-0.026752190680447843
0.3092999999999999,-0.026837073358439746
0.3082999999999999,-0.026879514697435696
0.3072999999999999,-0.026907808923433
0.3062999999999999,-0.0269643973754276
0.3052999999999999,-0.027006838714423546
0.3042999999999999,-0.027063427166418155
0.3032999999999999,-0.02709172139241545
0.3022999999999999,-0.027176604070407354
0.3012999999999999,-0.027261486748399254
0.3002999999999999,-0.02734636942639116
0.2992999999999999,-0.02738881076538711
0.2982999999999999,-0.02743125210438306
0.2972999999999999,-0.027487840556377662
0.2962999999999999,-0.02750198766937631
0.2952999999999999,-0.02755857612137091
0.2942999999999999,-0.027615164573365516
0.2932999999999999,-0.027671753025360117
0.2922999999999999,-0.02775663570335202
0.2912999999999999,-0.027799077042347967
0.2902999999999999,-0.027841518381343924
0.2892999999999999,-0.027926401059335824
0.2882999999999999,-0.027940548172334476
0.2872999999999999,-0.027997136624329073
0.2862999999999999,-0.028053725076323675
0.2852999999999999,-0.02809616641531963
0.2842999999999999,-0.028166901980312884
0.2832999999999999,-0.028181049093311532
0.2822999999999999,-0.028265931771303435
0.2812999999999999,-0.028322520223298033
0.2802999999999999,-0.028393255788291286
0.2792999999999999,-0.028449844240285887
0.2782999999999999,-0.02849228557928184
0.2772999999999999,-0.028534726918277787
0.2762999999999999,-0.028591315370272388
0.2752999999999999,-0.02861960959626969
0.2742999999999999,-0.028704492274261594
0.2732999999999999,-0.028732786500258897
0.2722999999999999,-0.028789374952253494
0.2712999999999999,-0.028860110517246747
0.2702999999999999,-0.02893084608224
0.2692999999999999,-0.028973287421235953
0.26829999999999987,-0.02902987587323055
0.26729999999999987,-0.0290723172122265
0.26629999999999987,-0.02912890566422111
0.26529999999999987,-0.029185494116215707
0.26429999999999987,-0.029242082568210308
0.26329999999999987,-0.029284523907206258
0.26229999999999987,-0.029341112359200863
0.26129999999999987,-0.02941184792419411
0.26029999999999986,-0.02945428926319007
0.25929999999999986,-0.02949673060218601
0.25829999999999986,-0.02953917194118197
0.25729999999999986,-0.02959576039317657
0.25629999999999986,-0.029652348845171168
0.25529999999999986,-0.02972308441016442
0.25429999999999986,-0.029765525749160374
0.25329999999999986,-0.02979381997515767
0.25229999999999986,-0.029878702653149573
0.25129999999999986,-0.029921143992145526
0.25029999999999986,-0.029977732444140127
0.24929999999999986,-0.03002017378313608
0.24829999999999985,-0.030048468009133376
0.24729999999999985,-0.03011920357412663
0.24629999999999985,-0.030175792026121234
0.24529999999999985,-0.030260674704113137
0.24429999999999985,-0.03033141026910639
0.24329999999999985,-0.03033141026910639
0.24229999999999985,-0.03040214583409964
0.24129999999999985,-0.030430440060096934
0.24029999999999985,-0.030487028512091542
0.23929999999999985,-0.03055776407708479
0.23829999999999985,-0.030600205416080745
0.23729999999999984,-0.03065679386807535
0.23629999999999984,-0.030741676546067253
0.23529999999999984,-0.030755823659065897
0.23429999999999984,-0.030812412111060502
0.23329999999999984,-0.03082655922405915
0.23229999999999984,-0.030883147676053754
0.23129999999999984,-0.030939736128048352
0.23029999999999984,-0.03099632458004295
0.22929999999999984,-0.031052913032037555
0.22829999999999984,-0.03110950148403216
0.22729999999999984,-0.031151942823028106
0.22629999999999983,-0.03120853127502271
0.22529999999999983,-0.031250972614018664
0.22429999999999983,-0.03129341395301461
0.22329999999999983,-0.03136414951800787
0.22229999999999983,-0.03139244374400516
0.22129999999999983,-0.03147732642199706
0.22029999999999983,-0.03154806198699031
0.21929999999999983,-0.03157635621298762
0.21829999999999983,-0.03161879755198357
0.21729999999999983,-0.03166123889097952
0.21629999999999983,-0.03168953311697682
0.21529999999999982,-0.03174612156897143
0.21429999999999982,-0.031788562907967374
0.21329999999999982,-0.03185929847296063
0.21229999999999982,-0.03194418115095252
0.21129999999999982,-0.032014916715945786
0.21029999999999982,-0.032071505167940384
0.20929999999999982,-0.03211394650693633
0.20829999999999982,-0.03212809361993498
0.20729999999999982,-0.032184682071929586
0.20629999999999982,-0.03221297629792688
0.20529999999999982,-0.03226956474992148
0.20429999999999982,-0.03235444742791339
0.20329999999999981,-0.03238274165391069
0.2022999999999998,-0.032453477218903945
0.2012999999999998,-0.032524212783897194
0.20029999999999992,-0.03256665412289315
0.19929999999999992,-0.032637389687886396
0.19829999999999992,-0.0326656839138837
0.19729999999999992,-0.032722272365878304
0.19629999999999992,-0.0327788608178729
0.19529999999999992,-0.03282130215686885
0.19429999999999992,-0.03293447906085806
0.19329999999999992,-0.032976920399854
0.19229999999999992,-0.032991067512852655
0.19129999999999991,-0.033075950190844555
0.1902999999999999,-0.033104244416841865
0.1892999999999999,-0.03318912709483376
0.1882999999999999,-0.03324571554682836
0.1872999999999999,-0.033288156885824316
0.1862999999999999,-0.03333059822482026
0.1852999999999999,-0.03337303956381622
0.1842999999999999,-0.03342962801581082
0.1832999999999999,-0.033457922241808116
0.1822999999999999,-0.03352865780680137
0.1812999999999999,-0.03359939337179463
0.1802999999999999,-0.03367012893678788
0.1792999999999999,-0.033712570275783824
0.1782999999999999,-0.033740864501781126
0.1772999999999999,-0.03381160006677438
0.1762999999999999,-0.03386818851876898
0.1752999999999999,-0.03395307119676088
0.1742999999999999,-0.03402380676175413
0.1732999999999999,-0.03405210098775143
0.1722999999999999,-0.03413698366574334
0.1712999999999999,-0.03415113077874199
0.1702999999999999,-0.03420771923073659
0.1692999999999999,-0.034278454795729836
0.1682999999999999,-0.03429260190872849
0.1672999999999999,-0.034377484586720394
0.1662999999999999,-0.03441992592571634
0.1652999999999999,-0.0344906614907096
0.1642999999999999,-0.03458969128170015
0.1632999999999999,-0.0346038383946988
0.1622999999999999,-0.03467457395969205
0.1612999999999999,-0.034731162411686646
0.1602999999999999,-0.034745309524685304
0.1592999999999999,-0.03481604508967855
0.15829999999999989,-0.03481604508967855
0.15729999999999988,-0.03490092776767045
0.15629999999999988,-0.0349716633326637
0.15529999999999988,-0.03504239889765696
0.15429999999999988,-0.03511313446265021
0.15329999999999988,-0.035127281575648865
0.15229999999999988,-0.03518387002764346
0.15129999999999988,-0.03522631136663941
0.15029999999999988,-0.03526875270563536
0.14929999999999988,-0.03533948827062862
0.14829999999999988,-0.03541022383562187
0.14729999999999988,-0.03545266517461782
0.14629999999999987,-0.03552340073961108
0.14529999999999987,-0.035579989191605675
0.14429999999999987,-0.03563657764360027
0.14329999999999987,-0.03570731320859352
0.14229999999999987,-0.03576390166058813
0.14129999999999987,-0.03579219588658543
0.14029999999999987,-0.03584878433858003
0.13929999999999987,-0.03590537279057463
0.13829999999999987,-0.035947814129570585
0.13729999999999987,-0.036018549694563834
0.13629999999999987,-0.03607513814655844
0.13529999999999986,-0.036160020824550346
0.13429999999999986,-0.036216609276544943
0.13329999999999986,-0.03627319772853954
0.13229999999999986,-0.03632978618053414
0.13129999999999986,-0.03635808040653144
0.13029999999999986,-0.03642881597152469
0.12929999999999986,-0.036471257310520644
0.12829999999999986,-0.03652784576251525
0.12729999999999986,-0.036598581327508505
0.12629999999999986,-0.0366551697795031
0.12529999999999986,-0.03672590534449635
0.12429999999999986,-0.03681078802248825
0.12329999999999985,-0.0368249351354869
0.12229999999999985,-0.03689567070048015
0.12129999999999985,-0.03693811203947611
0.12029999999999985,-0.03699470049147071
0.11929999999999985,-0.03707958316946261
0.11829999999999985,-0.03712202450845856
0.11729999999999985,-0.03719276007345181
0.11629999999999985,-0.037291789864442364
0.11529999999999985,-0.037320084090439666
0.11429999999999985,-0.037404966768431566
0.11329999999999985,-0.037433260994428876
0.11229999999999984,-0.037461555220426164
0.11129999999999984,-0.03754643789841807
0.11029999999999984,-0.037603026350412676
0.10929999999999984,-0.037673761915405925
0.10829999999999984,-0.03774449748039918
0.10729999999999984,-0.03781523304539243
0.10629999999999984,-0.037843527271389725
0.10529999999999984,-0.03791426283638299
0.10429999999999984,-0.037970851288377586
0.10329999999999984,-0.03802743974037219
0.10229999999999984,-0.03808402819236679
0.10129999999999983,-0.038126469531362735
0.10029999999999983,-0.03821135220935464
0.09929999999999983,-0.03826794066134924
0.09829999999999983,-0.03833867622634249
0.09729999999999983,-0.03839526467833709
0.09629999999999983,-0.03843770601733305
0.09529999999999983,-0.038522588695324954
0.09429999999999983,-0.0385650300343209
0.09329999999999983,-0.03860747137331685
0.09229999999999983,-0.038692354051308754
0.09129999999999983,-0.03874894250330335
0.09029999999999982,-0.0388196780682966
0.08929999999999982,-0.03890456074628851
0.08829999999999982,-0.03894700208528446
0.08729999999999982,-0.039003590537279066
0.08629999999999982,-0.039074326102272315
0.08529999999999982,-0.03913091455426691
0.08429999999999982,-0.03920165011926016
0.08329999999999982,-0.039244091458256115
0.08229999999999982,-0.039314827023249364
0.08129999999999982,-0.03939970970124127
0.08029999999999982,-0.03947044526623452
0.07929999999999982,-0.03954118083122777
0.07829999999999981,-0.039597769283222374
0.07729999999999981,-0.03964021062221833
0.07629999999999981,-0.03971094618721158
0.07529999999999992,-0.039795828865203484
0.07429999999999992,-0.03986656443019673
0.07329999999999992,-0.03993729999518999
0.07229999999999992,-0.039979741334185935
0.07129999999999992,-0.04005047689917919
0.07029999999999992,-0.04009291823817514
0.06929999999999992,-0.04016365380316839
0.06829999999999992,-0.04023438936816164
0.06729999999999992,-0.04029097782015625
0.06629999999999991,-0.040361713385149496
0.06529999999999991,-0.04043244895014275
0.06429999999999991,-0.040503184515136
0.06329999999999991,-0.04057392008012925
0.06229999999999991,-0.040630508532123855
0.06129999999999991,-0.04068709698411845
0.06029999999999991,-0.04078612677510901
0.05929999999999991,-0.04082856811410496
0.05829999999999991,-0.040885156566099555
0.05729999999999991,-0.04097003924409146
0.056299999999999906,-0.041012480583087416
0.055299999999999905,-0.041097363261079316
0.054299999999999904,-0.041168098826072565
0.0532999999999999,-0.041238834391065814
0.0522999999999999,-0.04133786418205637
0.0512999999999999,-0.04139445263405097
0.0502999999999999,-0.041451041086045574
0.0492999999999999,-0.04152177665103883
0.0482999999999999,-0.041550070877036126
0.0472999999999999,-0.041649100668026684
0.0462999999999999,-0.04171983623301993
0.045299999999999896,-0.04179057179801319
0.044299999999999895,-0.04184716025000779
0.043299999999999894,-0.04188960158900373
0.04229999999999989,-0.04196033715399699
0.04129999999999989,-0.04204521983198889
0.04029999999999989,-0.04215839673597809
0.03929999999999989,-0.04222913230097135
0.03829999999999989,-0.042271573639967294
0.03729999999999989,-0.04234230920496055
0.03629999999999989,-0.0424413389959511
0.03529999999999989,-0.0424413389959511
0.034299999999999886,-0.042526221673943
0.033299999999999885,-0.042582810125937606
0.032299999999999884,-0.042639398577932204
0.031299999999999883,-0.042738428368922755
0.030299999999999883,-0.042809163933916004
0.02929999999999988,-0.04287989949890925
0.02829999999999988,-0.04296478217690116
0.02729999999999988,-0.043021370628895765
0.02629999999999988,-0.043106253306887665
0.025299999999999878,-0.04314869464588362
0.024299999999999877,-0.04323357732387552
0.023299999999999876,-0.04330431288886877
0.022299999999999875,-0.04337504845386203
0.021299999999999875,-0.04344578401885528
0.020299999999999874,-0.04354481380984583
0.019299999999999873,-0.04360140226184043
0.018299999999999872,-0.04365799071383503
0.01729999999999987,-0.04372872627882829
0.01629999999999987,-0.04381360895682019
0.01529999999999987,-0.043912638747810734
0.014299999999999868,-0.04398337431280399
0.013299999999999867,-0.044039962764798594
0.012299999999999978,-0.044124845442790495
0.011299999999999866,-0.04418143389478509
0.010299999999999976,-0.04425216945977835
0.009299999999999864,-0.04433705213777025
0.008299999999999974,-0.044393640589764846
0.007299999999999862,-0.04447852326775675
0.006299999999999972,-0.04454925883275
0.00529999999999986,-0.04463414151074191
0.0042999999999999705,-0.04470487707573516
0.0032999999999998586,-0.044733171301732454
0.0022999999999999687,-0.04484634820572166
0.0012999999999998568,-0.04493123088371357
0.00029999999999996696,-0.04501611356170547
-0.000700000000000145,-0.045115143352696015
-0.0017000000000000348,-0.04515758469169197
-0.0027000000000001467,-0.04522832025668522
-0.0037000000000000366,-0.04528490870867982
-0.0047000000000001485,-0.04535564427367308
-0.005700000000000038,-0.04542637983866633
-0.00670000000000015,-0.04549711540365958
-0.00770000000000004,-0.04559614519465013
-0.008700000000000152,-0.045709322098639336
-0.009700000000000042,-0.045765910550633934
-0.010700000000000154,-0.04583664611562719
-0.011700000000000044,-0.04586494034162449
-0.012700000000000156,-0.04592152879361909
-0.013700000000000045,-0.04597811724561369
-0.014700000000000157,-0.046062999923605595
-0.015700000000000047,-0.04613373548859885
-0.01670000000000016,-0.04619032394059345
-0.01770000000000005,-0.04628935373158401
-0.01870000000000016,-0.046345942183578605
-0.01970000000000005,-0.046416677748571854
-0.020700000000000163,-0.04647326620056645
-0.021700000000000053,-0.046529854652561056
-0.022700000000000164,-0.04660059021755431
-0.023700000000000054,-0.04664303155655026
-0.024700000000000166,-0.04674206134754081
-0.025700000000000056,-0.04682694402553272
-0.026700000000000168,-0.046883532477527315
-0.027700000000000058,-0.046996709381516524
-0.02870000000000017,-0.04702500360751381
-0.02970000000000006,-0.04713818051150302
-0.03070000000000017,-0.047166474737500325
-0.03170000000000006,-0.04720891607649628
-0.03270000000000017,-0.04729379875448818
-0.03370000000000006,-0.047350387206482776
-0.034700000000000175,-0.04743526988447468
-0.035700000000000065,-0.047548446788463886
-0.03670000000000018,-0.04759088812745983
-0.03770000000000007,-0.04767577080545173
-0.03870000000000018,-0.04773235925744633
-0.03970000000000007,-0.04781724193543824
-0.04070000000000018,-0.0478596832744342
-0.04170000000000007,-0.047916271726428795
-0.04270000000000018,-0.048001154404420696
-0.04370000000000007,-0.048086037082412596
-0.044700000000000184,-0.0481426255344072
-0.045700000000000074,-0.048227508212399094
-0.046700000000000186,-0.048312390890391
-0.047700000000000076,-0.04838312645538425
-0.04870000000000019,-0.04849630335937346
-0.04970000000000008,-0.04859533315036401
-0.05070000000000019,-0.048637774489359964
-0.05170000000000008,-0.04868021582835592
-0.05270000000000019,-0.048736804280350515
-0.05370000000000008,-0.048807539845343764
-0.05470000000000019,-0.04886412829733837
-0.05570000000000008,-0.04893486386233162
-0.056700000000000195,-0.049005599427324874
-0.057700000000000085,-0.04909048210531677
-0.058700000000000196,-0.049175364783308674
-0.059700000000000086,-0.04924610034830192
-0.0607000000000002,-0.04930268880029653
-0.06170000000000009,-0.04937342436528978
-0.0627000000000002,-0.04944415993028303
-0.06370000000000009,-0.04950074838227764
-0.0647000000000002,-0.04961392528626684
-0.06570000000000009,-0.04968466085126009
-0.0667000000000002,-0.049727102190256035
-0.0677000000000001,-0.04979783775524929
