Potential V vs RHE, Current mA cm-2
0.013299999999999867,-0.3511313446265021
0.012299999999999978,-2.1390434853959355
0.011299999999999866,-3.623075638954359
0.010299999999999976,-4.887827541033701
0.009299999999999864,-6.021011292225596
0.008299999999999974,-6.981600264833956
0.007299999999999862,-7.896918475846635
0.006299999999999972,-8.68208324727173
0.00529999999999986,-9.467248018696827
0.0042999999999999705,-10.164700689530287
0.0032999999999998586,-10.819712021367803
0.0022999999999999687,-11.42945259160963
0.0012999999999998568,-12.040607873151327
0.00029999999999996696,-12.607907104397206
-0.000700000000000145,-13.13135028534727
-0.0017000000000000348,-13.698649516593148
-0.0027000000000001467,-14.13438059695158
-0.0037000000000000366,-14.57152638860988
-0.0047000000000001485,-14.967645552572087
-0.005700000000000038,-15.307176264539699
-0.00670000000000015,-15.660854089505953
-0.00770000000000004,-15.972090575476265
-0.008700000000000152,-16.269179948447924
-0.009700000000000042,-16.580416434418233
-0.010700000000000154,-16.919947146385837
-0.011700000000000044,-17.188742293360193
-0.012700000000000156,-17.48583166633185
-0.013700000000000045,-17.797068152302163
-0.014700000000000157,-18.10830463827247
-0.015700000000000047,-18.40539401124413
-0.01670000000000016,-18.716630497214435
-0.01770000000000005,-18.97127853119014
-0.01870000000000016,-19.2400736781645
-0.01970000000000005,-19.452280373144255
-0.020700000000000163,-19.636192842126707
-0.021700000000000053,-19.848399537106463
-0.022700000000000164,-20.01816489309027
-0.023700000000000054,-20.202077362072725
-0.024700000000000166,-20.414284057052477
-0.025700000000000056,-20.626490752032236
-0.026700000000000168,-20.810403221014692
-0.027700000000000058,-21.022609915994444
-0.02870000000000017,-21.248963723972853
-0.02970000000000006,-21.461170418952605
-0.03070000000000017,-21.67337711393236
-0.03170000000000006,-21.94217226090672
-0.03270000000000017,-22.111937616890522
-0.03370000000000006,-22.33829142486893
-0.034700000000000175,-22.42317410286083
-0.035700000000000065,-22.63538079784059
-0.03670000000000018,-22.72026347583249
-0.03770000000000007,-22.904175944814945
-0.03870000000000018,-23.031499961802798
-0.03970000000000007,-23.15882397879065
-0.04070000000000018,-23.342736447773106
-0.04170000000000007,-23.47006046476096
-0.04270000000000018,-23.639825820744765
-0.04370000000000007,-23.86617962872317
-0.044700000000000184,-24.035944984706973
-0.045700000000000074,-24.20571034069078
-0.046700000000000186,-24.389622809673234
-0.047700000000000076,-24.516946826661083
-0.04870000000000019,-24.729153521640843
-0.04970000000000008,-24.814036199632742
-0.05070000000000019,-24.9130659906233
-0.05170000000000008,-25.0828313466071
-0.05270000000000019,-25.167714024599
-0.05370000000000008,-25.252596702590903
-0.05470000000000019,-25.39406783257741
-0.05570000000000008,-25.521391849565262
-0.056700000000000195,-25.648715866553115
-0.057700000000000085,-25.77603988354097
-0.058700000000000196,-25.959952352523427
-0.059700000000000086,-26.129717708507226
-0.0607000000000002,-26.257041725495082
-0.06170000000000009,-26.440954194477534
-0.0627000000000002,-26.568278211465387
-0.06370000000000009,-26.69560222845324
-0.0647000000000002,-26.780484906445146
-0.06570000000000009,-26.907808923433
-0.0667000000000002,-27.00683871442355
-0.0677000000000001,-27.091721392415455
-0.0687000000000002,-27.134162731411404
-0.0697000000000001,-27.261486748399253
-0.07070000000000021,-27.34636942639116
-0.0717000000000001,-27.43125210438306
-0.07270000000000021,-27.615164573365515
-0.0737000000000001,-27.742488590353368
-0.07470000000000021,-27.869812607341224
-0.0757000000000001,-28.011283737327723
-0.07670000000000021,-28.13860775431558
-0.0777000000000001,-28.265931771303435
-0.07870000000000021,-28.350814449295335
-0.0797000000000001,-28.435697127287238
-0.08070000000000022,-28.53472691827779
-0.0817000000000001,-28.662050935265643
-0.08270000000000022,-28.704492274261593
-0.08370000000000011,-28.746933613257543
-0.08470000000000022,-28.831816291249446
-0.08570000000000011,-28.91669896924135
-0.08670000000000022,-29.001581647233255
-0.08770000000000011,-29.14305277721976
-0.08870000000000022,-29.31281813320356
-0.08970000000000011,-29.39770081119546
-0.09070000000000022,-29.525024828183312
-0.09170000000000011,-29.66649595816982
-0.09270000000000023,-29.751378636161718
-0.09370000000000012,-29.878702653149578
-0.09470000000000023,-29.96358533114148
-0.09570000000000012,-30.00602667013743
-0.09670000000000023,-30.10505646112798
-0.09770000000000012,-30.147497800123933
-0.09870000000000023,-30.189939139119886
-0.09970000000000012,-30.274821817111786
-0.10070000000000023,-30.317263156107735
-0.10170000000000012,-30.402145834099635
-0.10270000000000024,-30.529469851087494
-0.10370000000000013,-30.614352529079397
-0.10470000000000024,-30.7558236590659
-0.10570000000000013,-30.8407063370578
-0.10670000000000024,-30.968030354045652
-0.10770000000000013,-31.052913032037555
-0.10870000000000024,-31.137795710029454
-0.10970000000000013,-31.23682550102001
-0.11070000000000024,-31.27926684001596
-0.11170000000000013,-31.321708179011907
-0.11270000000000002,-31.36414951800786
-0.11370000000000013,-31.40659085700382
-0.11470000000000002,-31.449032195999767
-0.11570000000000014,-31.57635621298762
-0.11670000000000003,-31.57635621298762
-0.11770000000000014,-31.717827342974125
-0.11870000000000003,-31.802710020966025
-0.11970000000000014,-31.930034037953877
-0.12070000000000003,-32.01491671594578
-0.12170000000000014,-32.14224073293363
-0.12270000000000003,-32.24127052392419
-0.12370000000000014,-32.368594540912035
-0.12470000000000003,-32.368594540912035
-0.12570000000000014,-32.41103587990799
-0.12670000000000003,-32.49591855789989
-0.12770000000000015,-32.49591855789989
-0.12870000000000004,-32.53835989689585
-0.12970000000000015,-32.62324257488775
-0.13070000000000004,-32.66568391388369
-0.13170000000000015,-32.764713704874254
-0.13270000000000004,-32.84959638286615
-0.13370000000000015,-32.93447906085806
-0.13470000000000004,-33.01936173884996
-0.13570000000000015,-33.14668575583781
-0.13670000000000004,-33.231568433829715
-0.13770000000000016,-33.330598224820264
-0.13870000000000005,-33.41548090281216
-0.13970000000000016,-33.45792224180811
-0.14070000000000005,-33.50036358080407
-0.14170000000000016,-33.54280491980002
-0.14270000000000005,-33.58524625879597
-0.14370000000000016,-33.58524625879597
-0.14470000000000005,-33.670128936787876
-0.14570000000000016,-33.712570275783825
-0.14670000000000005,-33.712570275783825
-0.14770000000000016,-33.85404140577033
-0.14870000000000005,-33.93892408376223
-0.14970000000000017,-34.02380676175414
-0.15070000000000006,-34.10868943974604
-0.15170000000000017,-34.236013456733886
-0.15270000000000006,-34.278454795729836
-0.15370000000000017,-34.377484586720385
-0.15470000000000006,-34.41992592571634
-0.15570000000000017,-34.462367264712285
-0.15670000000000006,-34.50480860370825
-0.15770000000000017,-34.5472499427042
-0.15870000000000006,-34.5472499427042
-0.15970000000000018,-34.58969128170015
-0.16070000000000007,-34.67457395969205
-0.16170000000000018,-34.67457395969205
-0.16270000000000007,-34.75945663768395
-0.16370000000000018,-34.90092776767045
-0.16470000000000007,-34.98581044566235
-0.16570000000000018,-35.07069312365426
-0.16670000000000007,-35.198017140642115
-0.16770000000000018,-35.240458479638065
-0.16870000000000007,-35.32534115762997
-0.16970000000000018,-35.38192960962457
-0.17070000000000007,-35.38192960962457
-0.17170000000000019,-35.42437094862052
-0.17270000000000008,-35.46681228761647
-0.1737000000000002,-35.46681228761647
-0.17470000000000008,-35.50925362661242
-0.1757000000000002,-35.594136304604326
-0.17670000000000008,-35.636577643600276
-0.1777000000000002,-35.721460321592176
-0.17870000000000008,-35.763901660588125
-0.1797000000000002,-35.90537279057463
-0.18070000000000008,-35.99025546856653
-0.1817000000000002,-36.07513814655844
-0.18270000000000008,-36.11757948555439
-0.1837000000000002,-36.20246216354629
-0.1847000000000001,-36.244903502542236
-0.1857000000000002,-36.244903502542236
-0.1867000000000001,-36.329786180534136
-0.1877000000000002,-36.329786180534136
-0.1887000000000001,-36.37222751953009
-0.1897000000000002,-36.4288159715247
-0.1907000000000001,-36.47125731052064
-0.1917000000000001,-36.5136986495166
-0.19269999999999998,-36.5985813275085
-0.1937000000000001,-36.6834640055004
-0.19469999999999998,-36.768346683492304
-0.1957000000000001,-36.8532293614842
-0.19669999999999999,-36.99470049147071
-0.1977000000000001,-37.037141830466666
-0.1987,-37.122024508458566
-0.1997000000000001,-37.164465847454515
-0.2007,-37.206907186450465
-0.2017000000000001,-37.249348525446415
-0.2027,-37.291789864442364
-0.2037000000000001,-37.291789864442364
-0.2047,-37.334231203438314
-0.2057000000000001,-37.41911388143023
-0.2067,-37.47570233342482
-0.2077000000000001,-37.51814367242077
-0.2087,-37.645467689408626
-0.2097000000000001,-37.77279170639648
-0.2107,-37.85767438438838
-0.2117000000000001,-37.94255706238028
-0.2127,-37.99914551437489
-0.2137000000000001,-38.12646953136274
-0.2147,-38.16891087035869
-0.2157000000000001,-38.253793548350586
-0.2167,-38.29623488734655
-0.21770000000000012,-38.33867622634249
-0.2187,-38.33867622634249
-0.21970000000000012,-38.38111756533845
-0.2207,-38.42355890433439
-0.22170000000000012,-38.46600024333035
-0.2227,-38.607471373316855
-0.22370000000000012,-38.692354051308754
-0.2247,-38.777236729300654
-0.22570000000000012,-38.90456074628851
-0.2267,-38.98944342428042
-0.22770000000000012,-39.130914554266916
-0.22870000000000001,-39.173355893262865
-0.22970000000000013,-39.21579723225882
-0.23070000000000002,-39.30067991025072
-0.23170000000000013,-39.34312124924667
-0.23270000000000002,-39.38556258824262
-0.23370000000000013,-39.42800392723857
-0.23470000000000002,-39.51288660523048
-0.23570000000000013,-39.61191639622103
-0.23670000000000002,-39.654357735216976
-0.2376999999999999,-39.739240413208876
-0.23870000000000002,-39.86656443019674
-0.2396999999999999,-39.95144710818864
-0.24070000000000003,-40.092918238175145
-0.24169999999999991,-40.220242255162994
-0.24270000000000003,-40.30512493315489
-0.24369999999999992,-40.3900076111468
-0.24470000000000003,-40.51733162813464
-0.24569999999999992,-40.559772967130606
-0.24670000000000003,-40.616361419125205
-0.24769999999999992,-40.65880275812115
-0.24870000000000003,-40.743685436113054
-0.24969999999999992,-40.78612677510901
-0.25070000000000003,-40.87100945310091
-0.2516999999999999,-40.95589213109281
-0.25270000000000004,-41.083216148080666
-0.2536999999999999,-41.22468727806717
-0.25470000000000004,-41.352011295055014
-0.2556999999999999,-41.47933531204288
-0.25670000000000004,-41.606659329030734
-0.25769999999999993,-41.70568912002128
-0.25870000000000004,-41.83301313700913
-0.25969999999999993,-41.91789581500104
-0.26070000000000004,-42.00277849299294
-0.26169999999999993,-42.130102509980794
-0.26270000000000004,-42.229132300971344
-0.26369999999999993,-42.229132300971344
-0.26470000000000005,-42.3564563179592
-0.26569999999999994,-42.483780334947056
-0.26670000000000005,-42.6111043519349
-0.26769999999999994,-42.752575481921404
-0.26870000000000005,-42.87989949890926
-0.26969999999999994,-43.04966485489307
-0.27070000000000005,-43.17698887188092
-0.27169999999999994,-43.36090134086337
-0.27270000000000005,-43.48822535785123
-0.27369999999999994,-43.657990713835034
-0.27470000000000006,-43.79946184382153
-0.27569999999999995,-43.88434452181344
-0.27670000000000006,-44.011668538801295
-0.27769999999999995,-44.096551216793195
-0.27870000000000006,-44.181433894785094
-0.27969999999999995,-44.3229050247716
-0.28070000000000006,-44.4926703807554
-0.28169999999999995,-44.577553058747306
-0.28270000000000006,-44.74731841473111
-0.28369999999999995,-44.93123088371356
-0.28470000000000006,-45.10099623969737
-0.28569999999999995,-45.32735004767578
-0.28670000000000007,-45.53955674265553
-0.28769999999999996,-45.666880759643384
-0.28870000000000007,-45.85079322862584
-0.28969999999999996,-46.02055858460964
-0.29070000000000007,-46.10544126260155
-0.29169999999999996,-46.27520661858535
-0.29270000000000007,-46.41667774857186
-0.29369999999999996,-46.544001765559706
-0.2947000000000001,-46.713767121543505
-0.29569999999999996,-46.88353247752732
-0.2967000000000001,-47.02500360751382
-0.29769999999999996,-47.23721030249357
-0.2987000000000001,-47.46356411047198
-0.29969999999999997,-47.67577080545174
-0.3007000000000001,-47.8879775004315
-0.30169999999999997,-48.114331308409895
-0.3027000000000001,-48.32653800338966
-0.30369999999999997,-48.55289181136806
-0.3047000000000001,-48.76509850634781
-0.30569999999999997,-48.89242252333566
-0.3067000000000001,-49.118776331314066
-0.3077,-49.33098302629383
-0.3087000000000001,-49.458307043281685
-0.3097,-49.68466085126009
-0.3107000000000001,-49.89686754623985
-0.3117,-50.12322135421825
-0.3127000000000001,-50.37786938819396
-0.3137,-50.64666453516831
-0.3147000000000001,-50.90131256914402
-0.3157,-51.127666377122424
-0.3167000000000001,-51.424755750094086
-0.3177,-51.69355089706845
-0.3187000000000001,-51.948198931044146
-0.3197,-52.17455273902255
-0.3207000000000001,-52.386759434002315
-0.3217,-52.64140746797801
-0.3227000000000001,-52.86776127595642
-0.3237,-53.079967970936174
-0.3247000000000001,-53.348763117910536
-0.3257,-53.56096981289029
-0.3267000000000001,-53.82976495986464
-0.3277,-54.1268543328363
-0.3287000000000001,-54.43809081880661
-0.3297,-54.791768643772876
-0.3307000000000001,-55.088858016744524
-0.3317,-55.442535841710786
-0.3327000000000001,-55.73962521468245
-0.3337,-56.05086170065276
-0.3347000000000001,-56.36209818662306
-0.3357,-56.61674622059877
-0.3367000000000001,-56.927982706569075
-0.3377,-57.22507207954074
-0.3387000000000001,-57.493867226515086
-0.3397,-57.8333979384827
-0.3407000000000001,-58.10219308545706
-0.3417,-58.39928245842871
-0.3427000000000001,-58.79540162239092
-0.3437,-59.19152078635314
-0.3447000000000001,-59.54519861131939
-0.3457,-59.92717066228296
-0.3467000000000001,-60.32328982624517
-0.3477,-60.71940899020737
-0.3487000000000001,-61.07308681517363
-0.3497,-61.455058866137186
-0.3507000000000001,-61.7662953521075
-0.3517,-62.11997317707376
-0.3527000000000001,-62.459503889041365
-0.3537,-62.81318171400764
-0.3547000000000001,-63.20930087796983
-0.3557,-63.54883158993744
-0.35670000000000013,-63.944950753899654
-0.3577,-64.38351125685783
-0.35870000000000013,-64.82207175981598
-0.3597,-65.2464851497755
-0.36070000000000013,-65.68504565273366
-0.3617,-66.16604749468777
-0.3626999999999999,-66.56216665864997
-0.3637,-67.00072716160814
-0.3646999999999999,-67.43928766456631
-0.3657,-67.82125971552985
-0.3666999999999999,-68.25982021848802
-0.3677,-68.69838072144618
-0.3686999999999999,-69.0944998854084
-0.36970000000000003,-69.57550172736251
-0.3706999999999999,-70.01406223032066
-0.37170000000000003,-70.43847562028017
-0.3726999999999999,-70.91947746223428
-0.37370000000000003,-71.4004793041884
-0.3746999999999999,-71.92392248513846
-0.37570000000000003,-72.44736566608852
-0.3766999999999999,-72.97080884703858
-0.37770000000000004,-73.45181068899271
-0.3786999999999999,-73.97525386994278
-0.37970000000000004,-74.49869705089283
-0.3806999999999999,-74.93725755385098
-0.38170000000000004,-75.46070073480107
-0.38269999999999993,-75.94170257675518
-0.38370000000000004,-76.38026307971333
-0.38469999999999993,-76.9037062606634
-0.38570000000000004,-77.42714944161345
-0.38669999999999993,-77.90815128356756
-0.38770000000000004,-78.47403580351359
-0.38869999999999993,-79.0399203234596
-0.38970000000000005,-79.60580484340561
-0.39069999999999994,-80.17168936335163
-0.39170000000000005,-80.73757388329766
-0.39269999999999994,-81.30345840324367
-0.39370000000000005,-81.91178426218562
-0.39469999999999994,-82.43522744313569
-0.39570000000000005,-83.0011119630817
-0.39669999999999994,-83.52455514403178
-0.39770000000000005,-84.04799832498183
-0.39869999999999994,-84.57144150593189
-0.39970000000000006,-85.13732602587791
-0.40069999999999995,-85.70321054582392
-0.40170000000000006,-86.22665372677399
-0.40269999999999995,-86.89156803771054
-0.40370000000000006,-87.54233523564847
-0.40469999999999995,-88.15066109459043
-0.40570000000000006,-88.80142829252836
-0.40669999999999995,-89.46634260346492
-0.40770000000000006,-90.11710980140283
-0.40869999999999995,-90.76787699934074
-0.40970000000000006,-91.37620285828272
-0.41069999999999995,-91.94208737822873
-0.41170000000000007,-92.6070016891653
-0.41269999999999996,-93.17288620911131
-0.41370000000000007,-93.82365340704924
-0.41469999999999996,-94.4319792659912
-0.41570000000000007,-95.08274646392913
-0.41669999999999996,-95.69107232287108
-0.41770000000000007,-96.3984279728036
-0.41869999999999996,-97.09163650973747
-0.4197000000000001,-97.78484504667132
-0.42069999999999996,-98.5346420355998
-0.4217000000000001,-99.22785057253368
-0.42269999999999996,-99.93520622246619
-0.4237000000000001,-100.58597342040412
-0.42469999999999997,-101.27918195733798
-0.4257000000000001,-101.92994915527588
-0.42669999999999997,-102.63730480520842
-0.4277000000000001,-103.28807200314633
-0.42869999999999997,-103.93883920108425
-0.4297000000000001,-104.64619485101677
-0.43069999999999997,-105.33940338795064
-0.4317000000000001,-106.0326119248845
-0.4327,-106.73996757481702
-0.4337000000000001,-107.51805878974278
-0.4347,-108.2537086656726
-0.4357000000000001,-109.00350565460108
-0.4367,-109.73915553053091
-0.4377000000000001,-110.53139385845533
-0.4387,-111.3094850733811
-0.4397000000000001,-112.01684072331359
-0.4407,-112.75249059924342
-0.4417000000000001,-113.48814047517324
-0.4427,-114.23793746410173
-0.4437000000000001,-114.93114600103557
-0.4447,-115.72338432896
-0.4457000000000001,-116.50147554388576
-0.4467,-117.25127253281424
-0.4477000000000001,-118.02936374774
-0.4487,-118.86404341466037
-0.4497000000000001,-119.68457596858211
-0.4507,-120.51925563550247
-0.4517000000000001,-121.38222952842017
-0.4527,-122.17446785634456
-0.4537000000000001,-123.00914752326493
-0.4547,-123.82968007718667
-0.4557000000000001,-124.62191840511109
-0.4567,-125.44245095903281
-0.4577000000000001,-126.23468928695722
-0.4587,-127.012780501883
-0.4597000000000001,-127.84746016880335
-0.4607,-128.62555138372915
-0.4617000000000001,-129.41778971165354
-0.4627,-130.32320494356716
-0.4637000000000001,-131.15788461048754
-0.4647,-132.03500561640385
-0.4657000000000001,-132.89797950932152
-0.4667,-133.81754185423384
-0.4677000000000001,-134.69466286015015
-0.4687,-135.5576367530678
-0.4697000000000001,-136.3923164199882
-0.4707,-137.2694374259045
-0.4717000000000001,-138.13241131882216
-0.4727,-139.0095323247385
-0.4737000000000001,-139.84421199165885
-0.4747,-140.66474454558062
-0.4757000000000001,-141.61260111649017
-0.4767,-142.4614278964092
-0.4777000000000001,-143.3102546763282
-0.4787,-144.30055258623375
-0.4797000000000001,-145.14937936615277
-0.4807,-146.1396772760583
-0.48170000000000013,-147.1299751859638
-0.4827,-147.97880196588284
-0.48370000000000013,-148.96909987578834
-0.4847,-149.95939778569388
-0.48570000000000013,-150.8082245656129
-0.4867,-150.24234004566688
-0.48570000000000013,-147.55438857592333
-0.4847,-145.14937936615277
-0.48370000000000013,-143.16878354634173
-0.4827,-141.3721001955131
-0.48170000000000013,-139.61785818368048
-0.4807,-138.00508730183432
-0.4797000000000001,-136.47719909798008
-0.4787,-134.9917522331218
-0.4777000000000001,-133.60533515925405
-0.4767,-132.20477097238768
-0.4757000000000001,-130.8042067855213
-0.4747,-129.50267238964545
-0.4737000000000001,-128.18699088077096
-0.4727,-126.84301514589919
-0.4717000000000001,-125.48489229802875
-0.4707,-124.18335790215292
-0.4697000000000001,-122.86767639327843
-0.4687,-121.60858333639854
-0.4677000000000001,-120.33534316652002
-0.4667,-119.07625010964013
-0.4657000000000001,-117.90203973075215
-0.4647,-116.72782935186417
-0.4637000000000001,-115.53947185997755
