Potential V vs RHE, Current mA cm-2
0.013299999999999867,0.21390434853959353
0.012299999999999978,-0.30147497800123935
0.011299999999999866,-0.5677236446358392
0.010299999999999976,-0.7462602106788069
0.009299999999999864,-0.8798089573860663
0.008299999999999974,-0.9802534596764839
0.007299999999999862,-1.0866397494263347
0.006299999999999972,-1.1969872308158076
0.00529999999999986,-1.2830016778476019
0.0042999999999999705,-1.3514737047610696
0.0032999999999998586,-1.4035350805961027
0.0022999999999999687,-1.4698850405597732
0.0012999999999998568,-1.54486473945262
0.00029999999999996696,-1.6056973253468165
-0.000700000000000145,-1.6467239530429028
-0.0017000000000000348,-1.6849211581392587
-0.0027000000000001467,-1.7259477858353447
-0.0037000000000000366,-1.7910245056291363
-0.0047000000000001485,-1.8362952672248178
-0.005700000000000038,-1.8617600706223882
-0.00670000000000015,-1.8858101627200938
-0.00770000000000004,-1.9183485226169896
-0.008700000000000152,-1.972107552011861
-0.009700000000000042,-2.014548891007812
-0.010700000000000154,-2.0414284057052483
-0.011700000000000044,-2.052746096104168
-0.012700000000000156,-2.083869744701199
-0.013700000000000045,-2.1206522384976902
-0.014700000000000157,-2.161678866193776
-0.015700000000000047,-2.171581845292831
-0.01670000000000016,-2.178655401792157
-0.01770000000000005,-2.2097790503891876
-0.01870000000000016,-2.2437321215859485
-0.01970000000000005,-2.2748557701829792
-0.020700000000000163,-2.2875881718817643
-0.021700000000000053,-2.2918323057813597
-0.022700000000000164,-2.3158823978790646
-0.023700000000000054,-2.349835469075826
-0.024700000000000166,-2.3753002724733965
-0.025700000000000056,-2.386617962872317
-0.026700000000000168,-2.380959117672857
-0.027700000000000058,-2.4035944984706976
-0.02870000000000017,-2.437547569667458
-0.02970000000000006,-2.4545241052658384
-0.03070000000000017,-2.467256506964624
-0.03170000000000006,-2.465841795664759
-0.03270000000000017,-2.4785741973635442
-0.03370000000000006,-2.509697845960575
-0.034700000000000175,-2.5266743815589554
-0.035700000000000065,-2.536577360658011
-0.03670000000000018,-2.532333226758415
-0.03770000000000007,-2.545065628457201
-0.03870000000000018,-2.5747745657543666
-0.03970000000000007,-2.590336390052882
-0.04070000000000018,-2.5945805239524775
-0.04170000000000007,-2.5931658126526123
-0.04270000000000018,-2.6073129256512626
-0.04370000000000007,-2.6356071516485633
-0.044700000000000184,-2.6497542646472136
-0.045700000000000074,-2.6426807081478887
-0.046700000000000186,-2.6426807081478887
-0.047700000000000076,-2.6511689759470785
-0.04870000000000019,-2.6766337793446495
-0.04970000000000008,-2.697854448842625
-0.05070000000000019,-2.6879514697435702
-0.05170000000000008,-2.6865367584437045
-0.05270000000000019,-2.6950250262428948
-0.05370000000000008,-2.7162456957408705
-0.05470000000000019,-2.740295787838576
-0.05570000000000008,-2.734636942639116
-0.056700000000000195,-2.7289780974396556
-0.057700000000000085,-2.737466365238846
-0.058700000000000196,-2.7572723234369563
-0.059700000000000086,-2.775663570335202
-0.0607000000000002,-2.770004725135742
-0.06170000000000009,-2.772834147735472
-0.0627000000000002,-2.7827371268345273
-0.06370000000000009,-2.798298951133043
-0.0647000000000002,-2.813860775431558
-0.06570000000000009,-2.8166901980312877
-0.0667000000000002,-2.794054817233447
-0.0677000000000001,-2.8067872189322327
-0.0687000000000002,-2.8308373110299385
-0.0697000000000001,-2.8393255788291283
-0.07070000000000021,-2.8379108675292635
-0.0717000000000001,-2.8280078884302084
-0.07270000000000021,-2.8350814449295334
-0.0737000000000001,-2.863375670926834
-0.07470000000000021,-2.8690345161262942
-0.0757000000000001,-2.866205093526564
-0.07670000000000021,-2.8577168257273744
-0.0777000000000001,-2.8605462483271045
-0.07870000000000021,-2.88742576302454
-0.0797000000000001,-2.8987434534234597
-0.08070000000000022,-2.8916698969241352
-0.0817000000000001,-2.88742576302454
-0.08270000000000022,-2.88742576302454
-0.08370000000000011,-2.9072317212226504
-0.08470000000000022,-2.924208256821031
-0.08570000000000011,-2.919964122921436
-0.08670000000000022,-2.9086464325225156
-0.08770000000000011,-2.9171347003217054
-0.08870000000000022,-2.9369406585198163
-0.08970000000000011,-2.949673060218602
-0.09070000000000022,-2.9397700811195464
-0.09170000000000011,-2.9298671020204905
-0.09270000000000023,-2.941184792419411
-0.09370000000000012,-2.956746616717927
-0.09470000000000023,-2.975137863616172
-0.09570000000000012,-2.9666495958169823
-0.09670000000000023,-2.9595760393176564
-0.09770000000000012,-2.9624054619173865
-0.09870000000000023,-2.9807967088156326
-0.09970000000000012,-2.994943821814283
-0.10070000000000023,-2.9921143992145525
-0.10170000000000012,-2.977967286215902
-0.10270000000000024,-2.9850408427152275
-0.10370000000000013,-3.002017378313608
-0.10470000000000024,-3.0119203574126634
-0.10570000000000013,-3.013335068712528
-0.10670000000000024,-2.999187955713878
-0.10770000000000013,-3.009090934812933
-0.10870000000000024,-3.0303116043109086
-0.10970000000000013,-3.0402145834099636
-0.11070000000000024,-3.0359704495103688
-0.11170000000000013,-3.0274821817111786
-0.11270000000000002,-3.031726315610774
-0.11370000000000013,-3.054361696408614
-0.11470000000000002,-3.0628499642078046
-0.11570000000000014,-3.0642646755076695
-0.11670000000000003,-3.0571911190083445
-0.11770000000000014,-3.0571911190083445
-0.11870000000000003,-3.0854853450056448
-0.11970000000000014,-3.0939736128048354
-0.12070000000000003,-3.0883147676053753
-0.12170000000000014,-3.08407063370578
-0.12270000000000003,-3.079826499806185
-0.12370000000000014,-3.1052913032037557
-0.12470000000000003,-3.122267838802136
-0.12570000000000014,-3.119438416202406
-0.12670000000000003,-3.1151942823028107
-0.12770000000000015,-3.1166089936026755
-0.12870000000000004,-3.1364149518007864
-0.12970000000000015,-3.156220909998897
-0.13070000000000004,-3.1491473534995715
-0.13170000000000015,-3.1420737970002466
-0.13270000000000004,-3.150562064799437
-0.13370000000000015,-3.168953311697682
-0.13470000000000004,-3.1915886924955226
-0.13570000000000015,-3.1831004246963324
-0.13670000000000004,-3.1802710020966023
-0.13770000000000016,-3.1915886924955226
-0.13870000000000005,-3.2128093619934983
-0.13970000000000016,-3.228371186292014
-0.14070000000000005,-3.228371186292014
-0.14170000000000016,-3.2212976297926885
-0.14270000000000005,-3.2312006088917435
-0.14370000000000016,-3.253835989689584
-0.14470000000000005,-3.27505665918756
-0.14570000000000016,-3.279300793087155
-0.14670000000000005,-3.2693978139880997
-0.14770000000000016,-3.27788608178729
-0.14870000000000005,-3.3047655964847262
-0.14970000000000017,-3.3203274207832414
-0.15070000000000006,-3.3274009772825663
-0.15170000000000017,-3.321742132083106
-0.15270000000000006,-3.3302303998822964
-0.15370000000000017,-3.358524625879597
-0.15470000000000006,-3.3755011614779775
-0.15570000000000017,-3.381160006677438
-0.15670000000000006,-3.379745295377573
-0.15770000000000017,-3.3910629857764927
-0.15870000000000006,-3.4236013456733887
-0.15970000000000018,-3.440577881271769
-0.16070000000000007,-3.4448220151713644
-0.16170000000000018,-3.4462367264712297
-0.16270000000000007,-3.4561397055702843
-0.16370000000000018,-3.4943369106666404
-0.16470000000000007,-3.5240458479638064
-0.16570000000000018,-3.5240458479638064
-0.16670000000000007,-3.5268752705635364
-0.16770000000000018,-3.5381929609624567
-0.16870000000000007,-3.573560743459083
-0.16970000000000018,-3.5990255468566534
-0.17070000000000007,-3.6018549694563835
-0.17170000000000019,-3.608928525955709
-0.17270000000000008,-3.6259050615540893
-0.1737000000000002,-3.65985813275085
-0.17470000000000008,-3.690981781347881
-0.1757000000000002,-3.698055337847206
-0.17670000000000008,-3.707958316946261
-0.1777000000000002,-3.7291789864442366
-0.17870000000000008,-3.7631320576409975
-0.1797000000000002,-3.795670417537894
-0.18070000000000008,-3.8098175305365434
-0.1817000000000002,-3.818305798335734
-0.18270000000000008,-3.84235589043344
-0.1837000000000002,-3.881967806829661
-0.1847000000000001,-3.914506166726557
-0.1857000000000002,-3.934312124924667
-0.1867000000000001,-3.9413856814239923
-0.1877000000000002,-3.971094618721158
-0.1887000000000001,-4.013535957717109
-0.1897000000000002,-4.054562585413195
-0.1907000000000001,-4.077197966211036
-0.1917000000000001,-4.08710094531009
-0.19269999999999998,-4.115395171307392
-0.1937000000000001,-4.164910066802668
-0.19469999999999998,-4.203107271899024
-0.1957000000000001,-4.231401497896325
-0.19669999999999999,-4.24979274479457
-0.1977000000000001,-4.279501682091736
-0.1987,-4.336090134086337
-0.1997000000000001,-4.377116761782423
-0.2007,-4.405410987779724
-0.2017000000000001,-4.43511992507689
-0.2027,-4.466243573673921
-0.2037000000000001,-4.524246736968387
-0.2047,-4.5765910550633935
-0.2057000000000001,-4.61478826015975
-0.2067,-4.645911908756781
-0.2077000000000001,-4.678450268653676
-0.2087,-4.730794586748683
-0.2097000000000001,-4.795871306542475
-0.2107,-4.829824377739236
-0.2117000000000001,-4.865192160235861
-0.2127,-4.909048210531677
-0.2137000000000001,-4.974124930325469
-0.2147,-5.0420310727189905
-0.2157000000000001,-5.098619524713592
-0.2167,-5.125499039411029
-0.21770000000000012,-5.1863316253052245
-0.2187,-5.255652478998611
-0.21970000000000012,-5.319314487492538
-0.2207,-5.365999960388084
-0.22170000000000012,-5.408441299384036
-0.2227,-5.470688596578097
-0.22370000000000012,-5.538594738971618
-0.2247,-5.612159726564601
-0.22570000000000012,-5.674407023758662
-0.2267,-5.723921919253939
-0.22770000000000012,-5.787583927747865
-0.22870000000000001,-5.871051894439902
-0.22970000000000013,-5.948861015932479
-0.23070000000000002,-6.018181869625866
-0.23170000000000013,-6.066282053821277
-0.23270000000000002,-6.141261752714124
-0.23370000000000013,-6.233217987205351
-0.23470000000000002,-6.320930087796984
-0.23570000000000013,-6.394495075389965
-0.23670000000000002,-6.458157083883892
-0.2376999999999999,-6.54445447317566
-0.23870000000000002,-6.643484264166212
-0.2396999999999999,-6.74392876645663
-0.24070000000000003,-6.821737887949207
-0.24169999999999991,-6.898132298141919
-0.24270000000000003,-6.981600264833956
-0.24369999999999992,-7.0891183236236985
-0.24470000000000003,-7.19663638241344
-0.24569999999999992,-7.281519060405343
-0.24670000000000003,-7.37347529489657
-0.24769999999999992,-7.471090374587258
-0.24870000000000003,-7.589926123775921
-0.24969999999999992,-7.708761872964584
-0.25070000000000003,-7.803547530055542
-0.2516999999999999,-7.899747898446365
-0.25270000000000004,-8.012924802435567
-0.2536999999999999,-8.136004685523828
-0.25470000000000004,-8.273231681610733
-0.2556999999999999,-8.380749740400477
-0.25670000000000004,-8.484023665290625
-0.25769999999999993,-8.600029991879557
-0.25870000000000004,-8.738671699266332
-0.25969999999999993,-8.87306927275351
-0.26070000000000004,-8.994734444541903
-0.26169999999999993,-9.112155482430701
-0.26270000000000004,-9.250797189817476
-0.26369999999999993,-9.39792716500344
-0.26470000000000005,-9.546471851489269
-0.26569999999999994,-9.689357692775637
-0.26670000000000005,-9.823755266262815
-0.26769999999999994,-9.969470530148914
-0.26870000000000005,-10.134991752233123
-0.26969999999999994,-10.299098263017466
-0.27070000000000005,-10.444813526903566
-0.27169999999999994,-10.587699368189934
-0.27270000000000005,-10.743317611175089
-0.27369999999999994,-10.93430363665687
-0.27470000000000006,-11.113971971739728
-0.27569999999999995,-11.286566750323264
-0.27670000000000006,-11.452087972407472
-0.27769999999999995,-11.626097462290872
-0.27870000000000006,-11.818498199072517
-0.27969999999999995,-12.019387203653352
-0.28070000000000006,-12.194811404836617
-0.28169999999999995,-12.37023560601988
-0.28270000000000006,-12.55273336370247
-0.28369999999999995,-12.773428326481417
-0.28470000000000006,-12.994123289260362
-0.28569999999999995,-13.190768159941602
-0.28670000000000007,-13.387413030622842
-0.28769999999999996,-13.589716746503543
-0.28870000000000007,-13.823144110981273
-0.28969999999999996,-14.050912630259544
-0.29070000000000007,-14.26028990263957
-0.29169999999999996,-14.472496597619326
-0.29270000000000007,-14.69885040559773
-0.29369999999999996,-14.953498439573437
-0.2947000000000001,-15.193999360550496
-0.29569999999999996,-15.4203531685289
-0.2967000000000001,-15.632559863508657
-0.29769999999999996,-15.88720789748436
-0.2987000000000001,-16.141855931460068
-0.29969999999999997,-16.410651078434423
-0.3007000000000001,-16.679446225408782
-0.30169999999999997,-16.919947146385837
-0.3027000000000001,-17.188742293360193
-0.30369999999999997,-17.471684553333205
-0.3047000000000001,-17.74047970030756
-0.30569999999999997,-18.009274847281915
-0.3067000000000001,-18.27806999425627
-0.3077,-18.561012254229283
-0.3087000000000001,-18.858101627200938
-0.3097,-19.169338113171246
-0.3107000000000001,-19.452280373144255
-0.3117,-19.73522263311726
-0.3127000000000001,-20.03231200608892
-0.3137,-20.34354849205923
-0.3147000000000001,-20.668932091028186
-0.3157,-20.980168576998494
-0.3167000000000001,-21.277257949970153
-0.3177,-21.58849443594046
-0.3187000000000001,-21.92802514790807
-0.3197,-22.267555859875678
-0.3207000000000001,-22.607086571843286
-0.3217,-22.932470170812245
-0.3227000000000001,-23.286147995778503
-0.3237,-23.639825820744765
-0.3247000000000001,-23.97935653271237
-0.3257,-24.33303435767863
-0.3267000000000001,-24.67256506964624
-0.3277,-25.012095781613848
-0.3287000000000001,-25.37992071957876
-0.3297,-25.761892770542314
-0.3307000000000001,-26.11557059550858
-0.3317,-26.469248420474838
-0.3327000000000001,-26.851220471438396
-0.3337,-27.233192522401957
-0.3347000000000001,-27.615164573365515
-0.3357,-27.98298951133043
-0.3367000000000001,-28.350814449295335
-0.3377,-28.718639387260247
-0.3387000000000001,-29.128905664221104
-0.3397,-29.539171941181966
-0.3407000000000001,-29.921143992145527
-0.3417,-30.303116043109085
-0.3427000000000001,-30.71338232006995
-0.3437,-31.109501484032155
-0.3447000000000001,-31.519767760993016
-0.3457,-31.930034037953877
-0.3467000000000001,-32.32615320191609
-0.3477,-32.73641947887695
-0.3487000000000001,-33.17497998183511
-0.3497,-33.59939337179462
-0.3507000000000001,-34.03795387475279
-0.3517,-34.44822015171364
-0.3527000000000001,-34.87263354167316
-0.3537,-35.32534115762997
-0.3547000000000001,-35.763901660588125
-0.3557,-36.18831505054764
-0.35670000000000013,-36.61272844050715
-0.3577,-37.05128894346531
-0.35870000000000013,-37.51814367242077
-0.3597,-37.97085128837759
-0.36070000000000013,-38.42355890433439
-0.3617,-38.8762665202912
-0.3626999999999999,-39.30067991025072
-0.3637,-39.76753463920618
-0.3646999999999999,-40.220242255162994
-0.3657,-40.68709698411846
-0.3666999999999999,-41.139804600075266
-0.3677,-41.59251221603208
-0.3686999999999999,-42.087661170984845
-0.36970000000000003,-42.582810125937606
-0.3706999999999999,-43.06381196789171
-0.37170000000000003,-43.53066669684718
-0.3726999999999999,-44.011668538801295
-0.37370000000000003,-44.506817493754056
-0.3746999999999999,-45.01611356170547
-0.37570000000000003,-45.497115403659585
-0.3766999999999999,-45.97811724561369
-0.37770000000000004,-46.45911908756781
-0.3786999999999999,-46.96841515551922
-0.37970000000000004,-47.435269884474685
-0.3806999999999999,-47.987007291422046
-0.38170000000000004,-48.609480263362656
-0.38269999999999993,-49.118776331314066
-0.38370000000000004,-49.58563106026953
-0.38469999999999993,-50.06663290222365
-0.38570000000000004,-50.59007608317371
-0.38669999999999993,-51.09937215112513
-0.38770000000000004,-51.594521106077885
-0.38869999999999993,-52.11796428702795
-0.38970000000000005,-52.66970169397532
-0.39069999999999994,-53.19314487492538
-0.39170000000000005,-53.70244094287679
-0.39269999999999994,-54.24003123682551
-0.39370000000000005,-54.791768643772876
-0.39469999999999994,-55.32935893772159
-0.39570000000000005,-55.85280211867165
-0.39669999999999994,-56.39039241262036
-0.39770000000000005,-57.04115961055828
-0.39869999999999994,-57.66363258249889
-0.39970000000000006,-58.27195844144086
-0.40069999999999995,-58.78125450939227
-0.40170000000000006,-59.34713902933829
-0.40269999999999995,-59.842287984291055
-0.40370000000000006,-60.37987827823977
-0.40469999999999995,-60.95990991118443
-0.40570000000000006,-61.53994154412909
-0.40669999999999995,-62.09167895107646
-0.40770000000000006,-62.65756347102247
-0.40869999999999995,-63.22344799096849
-0.40970000000000006,-63.831773849910455
-0.41069999999999995,-64.42595259585376
-0.41170000000000007,-64.99183711579978
-0.41269999999999996,-65.57186874874445
-0.41370000000000007,-66.13775326869046
-0.41469999999999996,-66.7885204666284
-0.41570000000000007,-67.3826992125717
-0.41669999999999996,-68.03346641050962
-0.41770000000000007,-68.67008649544888
-0.41869999999999996,-69.3491479193841
-0.4197000000000001,-69.9433266653274
-0.42069999999999996,-70.56579963726803
-0.4217000000000001,-71.1458312702127
-0.42269999999999996,-71.76830424215332
-0.4237000000000001,-72.32004164910067
-0.42469999999999997,-72.94251462104128
-0.4257000000000001,-73.60742893197786
-0.42669999999999997,-74.27234324291443
-0.4277000000000001,-74.8806691018564
-0.42869999999999997,-75.51728918679565
-0.4297000000000001,-76.18220349773222
-0.43069999999999997,-76.83297069567014
-0.4317000000000001,-77.41300232861481
-0.4327,-78.06376952655272
-0.4337000000000001,-78.7569780634866
-0.4347,-79.39359814842585
-0.4357000000000001,-80.07265957236108
-0.4367,-80.7517209962963
-0.4377000000000001,-81.38834108123557
-0.4387,-82.05325539217212
-0.4397000000000001,-82.73231681610734
-0.4407,-83.35478978804795
-0.4417000000000001,-84.00555698598588
-0.4427,-84.6563241839238
-0.4437000000000001,-85.34953272085767
-0.4447,-86.02859414479288
-0.4457000000000001,-86.69350845572944
-0.4467,-87.38671699266331
-0.4477000000000001,-88.07992552959718
-0.4487,-88.8438696315243
-0.4497000000000001,-89.52293105545952
-0.4507,-90.24443381839069
-0.4517000000000001,-90.9517894683232
-0.4527,-91.71573357025032
-0.4537000000000001,-92.40894210718419
-0.4547,-93.13044487011537
-0.4557000000000001,-93.85194763304654
-0.4567,-94.5168619439831
-0.4577000000000001,-95.28080604591021
-0.4587,-96.04475014783733
-0.4597000000000001,-96.86528270175907
-0.4607,-97.54434412569428
-0.4617000000000001,-98.32243534062005
-0.4627,-99.10052655554581
-0.4637000000000001,-99.83617643147564
-0.4647,-100.68500321139466
-0.4657000000000001,-101.85921359028264
-0.4667,-102.83536438718951
-0.4677000000000001,-103.5568671501207
-0.4687,-104.10860455706805
-0.4697000000000001,-104.80181309400191
-0.4707,-105.48087451793714
-0.4717000000000001,-106.21652439386696
-0.4727,-106.88143870480351
-0.4737000000000001,-107.65952991972928
-0.4747,-108.36688556966182
-0.4757000000000001,-109.15912389758623
-0.4767,-109.97965645150795
-0.4777000000000001,-110.71530632743777
-0.4787,-111.46510331636625
-0.4797000000000001,-112.27148875728932
-0.4807,-113.07787419821238
-0.48170000000000013,-113.85596541313815
-0.4827,-114.64820374106257
-0.48370000000000013,-115.4970305209816
-0.4847,-116.54391688288172
-0.48570000000000013,-117.59080324478184
-0.4867,-117.47762634079265
-0.48570000000000013,-116.16194483191815
-0.4847,-114.95944022703287
-0.48370000000000013,-113.85596541313815
-0.4827,-112.83737327723534
-0.48170000000000013,-111.7056042373433
-0.4807,-110.5879823104499
-0.4797000000000001,-109.55524306154844
-0.4787,-108.53665092564562
-0.4777000000000001,-107.54635301574008
-0.4767,-106.5702022188332
-0.4757000000000001,-105.7496696649115
-0.4747,-104.83010731999921
-0.4737000000000001,-103.98128054008019
-0.4727,-103.01927685617197
-0.4717000000000001,-101.9865376072705
-0.4707,-100.99623969736497
-0.4697000000000001,-100.10497157844999
-0.4687,-99.19955634653638
-0.4677000000000001,-98.18096421063355
-0.4667,-97.23310763972397
-0.4657000000000001,-96.18622127782385
-0.4647,-95.37983583690077
