Dec. 19, 2024   23:29:59
Linear Sweep Voltammetry
File: c:/users/guazh/data/banditlqround7_x0exp667_r5/2024-12-16-exp705\1acid_1ac-2024-12-19t23_26_49-lsvinphos\1acid_1ac_lsv_50mvs_efin_-2100mv.bin
Data Source:  Experiment
Instrument Model:  CHI760E
Header: LSV ran at 50 mVs with Efin at -2100mV
Note: 

Init E (V) = -0.6
Final E (V) = -2.1
Scan Rate (V/s) = 0.05
Sample Interval (V) = 0.001
Quiet Time (sec) = 2
Sensitivity (A/V) = 1e-4
Comp R (ohm) = 8.5

Results:

Channel 1:
Ep = -1.307V
ip = 3.936e-7A
Ah = 7.641e-7C

Ep = -2.020V
ip = 8.398e-4A
Ah = 1.233e-3C

Potential/V, Current/A

-0.600, 2.555e-6
-0.601, 2.658e-6
-0.602, 2.700e-6
-0.603, 2.734e-6
-0.604, 2.761e-6
-0.605, 2.788e-6
-0.606, 2.817e-6
-0.607, 2.848e-6
-0.608, 2.878e-6
-0.609, 2.906e-6
-0.610, 2.931e-6
-0.611, 2.959e-6
-0.612, 2.989e-6
-0.613, 3.019e-6
-0.614, 3.048e-6
-0.615, 3.076e-6
-0.616, 3.103e-6
-0.617, 3.134e-6
-0.618, 3.164e-6
-0.619, 3.193e-6
-0.620, 3.219e-6
-0.621, 3.247e-6
-0.622, 3.279e-6
-0.623, 3.309e-6
-0.624, 3.338e-6
-0.625, 3.366e-6
-0.626, 3.396e-6
-0.627, 3.428e-6
-0.628, 3.462e-6
-0.629, 3.490e-6
-0.630, 3.518e-6
-0.631, 3.547e-6
-0.632, 3.581e-6
-0.633, 3.615e-6
-0.634, 3.644e-6
-0.635, 3.673e-6
-0.636, 3.704e-6
-0.637, 3.737e-6
-0.638, 3.772e-6
-0.639, 3.800e-6
-0.640, 3.833e-6
-0.641, 3.865e-6
-0.642, 3.898e-6
-0.643, 3.933e-6
-0.644, 3.963e-6
-0.645, 3.993e-6
-0.646, 4.025e-6
-0.647, 4.060e-6
-0.648, 4.094e-6
-0.649, 4.127e-6
-0.650, 4.155e-6
-0.651, 4.187e-6
-0.652, 4.222e-6
-0.653, 4.256e-6
-0.654, 4.287e-6
-0.655, 4.320e-6
-0.656, 4.352e-6
-0.657, 4.388e-6
-0.658, 4.425e-6
-0.659, 4.456e-6
-0.660, 4.490e-6
-0.661, 4.524e-6
-0.662, 4.561e-6
-0.663, 4.597e-6
-0.664, 4.629e-6
-0.665, 4.662e-6
-0.666, 4.697e-6
-0.667, 4.733e-6
-0.668, 4.769e-6
-0.669, 4.801e-6
-0.670, 4.835e-6
-0.671, 4.868e-6
-0.672, 4.905e-6
-0.673, 4.942e-6
-0.674, 4.974e-6
-0.675, 5.009e-6
-0.676, 5.042e-6
-0.677, 5.080e-6
-0.678, 5.116e-6
-0.679, 5.149e-6
-0.680, 5.182e-6
-0.681, 5.217e-6
-0.682, 5.253e-6
-0.683, 5.290e-6
-0.684, 5.322e-6
-0.685, 5.356e-6
-0.686, 5.390e-6
-0.687, 5.425e-6
-0.688, 5.462e-6
-0.689, 5.495e-6
-0.690, 5.527e-6
-0.691, 5.562e-6
-0.692, 5.600e-6
-0.693, 5.636e-6
-0.694, 5.666e-6
-0.695, 5.698e-6
-0.696, 5.731e-6
-0.697, 5.769e-6
-0.698, 5.804e-6
-0.699, 5.836e-6
-0.700, 5.868e-6
-0.701, 5.898e-6
-0.702, 5.931e-6
-0.703, 5.964e-6
-0.704, 5.997e-6
-0.705, 6.026e-6
-0.706, 6.057e-6
-0.707, 6.094e-6
-0.708, 6.127e-6
-0.709, 6.154e-6
-0.710, 6.183e-6
-0.711, 6.211e-6
-0.712, 6.244e-6
-0.713, 6.277e-6
-0.714, 6.306e-6
-0.715, 6.334e-6
-0.716, 6.363e-6
-0.717, 6.396e-6
-0.718, 6.428e-6
-0.719, 6.455e-6
-0.720, 6.482e-6
-0.721, 6.510e-6
-0.722, 6.539e-6
-0.723, 6.571e-6
-0.724, 6.596e-6
-0.725, 6.621e-6
-0.726, 6.649e-6
-0.727, 6.678e-6
-0.728, 6.705e-6
-0.729, 6.729e-6
-0.730, 6.753e-6
-0.731, 6.778e-6
-0.732, 6.807e-6
-0.733, 6.833e-6
-0.734, 6.855e-6
-0.735, 6.875e-6
-0.736, 6.897e-6
-0.737, 6.923e-6
-0.738, 6.947e-6
-0.739, 6.967e-6
-0.740, 6.987e-6
-0.741, 7.008e-6
-0.742, 7.032e-6
-0.743, 7.055e-6
-0.744, 7.073e-6
-0.745, 7.092e-6
-0.746, 7.110e-6
-0.747, 7.131e-6
-0.748, 7.153e-6
-0.749, 7.167e-6
-0.750, 7.184e-6
-0.751, 7.200e-6
-0.752, 7.219e-6
-0.753, 7.238e-6
-0.754, 7.250e-6
-0.755, 7.265e-6
-0.756, 7.278e-6
-0.757, 7.295e-6
-0.758, 7.312e-6
-0.759, 7.323e-6
-0.760, 7.334e-6
-0.761, 7.347e-6
-0.762, 7.361e-6
-0.763, 7.374e-6
-0.764, 7.384e-6
-0.765, 7.392e-6
-0.766, 7.404e-6
-0.767, 7.415e-6
-0.768, 7.429e-6
-0.769, 7.437e-6
-0.770, 7.443e-6
-0.771, 7.451e-6
-0.772, 7.462e-6
-0.773, 7.472e-6
-0.774, 7.477e-6
-0.775, 7.482e-6
-0.776, 7.487e-6
-0.777, 7.496e-6
-0.778, 7.502e-6
-0.779, 7.507e-6
-0.780, 7.509e-6
-0.781, 7.513e-6
-0.782, 7.519e-6
-0.783, 7.525e-6
-0.784, 7.527e-6
-0.785, 7.528e-6
-0.786, 7.530e-6
-0.787, 7.534e-6
-0.788, 7.537e-6
-0.789, 7.537e-6
-0.790, 7.536e-6
-0.791, 7.535e-6
-0.792, 7.539e-6
-0.793, 7.541e-6
-0.794, 7.538e-6
-0.795, 7.536e-6
-0.796, 7.535e-6
-0.797, 7.535e-6
-0.798, 7.535e-6
-0.799, 7.531e-6
-0.800, 7.528e-6
-0.801, 7.526e-6
-0.802, 7.524e-6
-0.803, 7.522e-6
-0.804, 7.517e-6
-0.805, 7.511e-6
-0.806, 7.506e-6
-0.807, 7.506e-6
-0.808, 7.502e-6
-0.809, 7.496e-6
-0.810, 7.488e-6
-0.811, 7.483e-6
-0.812, 7.480e-6
-0.813, 7.475e-6
-0.814, 7.468e-6
-0.815, 7.459e-6
-0.816, 7.452e-6
-0.817, 7.447e-6
-0.818, 7.441e-6
-0.819, 7.436e-6
-0.820, 7.429e-6
-0.821, 7.418e-6
-0.822, 7.414e-6
-0.823, 7.407e-6
-0.824, 7.397e-6
-0.825, 7.387e-6
-0.826, 7.377e-6
-0.827, 7.372e-6
-0.828, 7.365e-6
-0.829, 7.353e-6
-0.830, 7.344e-6
-0.831, 7.334e-6
-0.832, 7.327e-6
-0.833, 7.320e-6
-0.834, 7.307e-6
-0.835, 7.297e-6
-0.836, 7.286e-6
-0.837, 7.279e-6
-0.838, 7.271e-6
-0.839, 7.259e-6
-0.840, 7.248e-6
-0.841, 7.237e-6
-0.842, 7.229e-6
-0.843, 7.220e-6
-0.844, 7.207e-6
-0.845, 7.196e-6
-0.846, 7.184e-6
-0.847, 7.175e-6
-0.848, 7.167e-6
-0.849, 7.154e-6
-0.850, 7.139e-6
-0.851, 7.131e-6
-0.852, 7.122e-6
-0.853, 7.112e-6
-0.854, 7.098e-6
-0.855, 7.084e-6
-0.856, 7.073e-6
-0.857, 7.065e-6
-0.858, 7.055e-6
-0.859, 7.042e-6
-0.860, 7.028e-6
-0.861, 7.017e-6
-0.862, 7.009e-6
-0.863, 6.998e-6
-0.864, 6.985e-6
-0.865, 6.972e-6
-0.866, 6.961e-6
-0.867, 6.952e-6
-0.868, 6.942e-6
-0.869, 6.927e-6
-0.870, 6.917e-6
-0.871, 6.905e-6
-0.872, 6.897e-6
-0.873, 6.888e-6
-0.874, 6.873e-6
-0.875, 6.861e-6
-0.876, 6.849e-6
-0.877, 6.841e-6
-0.878, 6.830e-6
-0.879, 6.817e-6
-0.880, 6.804e-6
-0.881, 6.793e-6
-0.882, 6.784e-6
-0.883, 6.774e-6
-0.884, 6.760e-6
-0.885, 6.747e-6
-0.886, 6.737e-6
-0.887, 6.727e-6
-0.888, 6.718e-6
-0.889, 6.705e-6
-0.890, 6.693e-6
-0.891, 6.681e-6
-0.892, 6.675e-6
-0.893, 6.664e-6
-0.894, 6.650e-6
-0.895, 6.637e-6
-0.896, 6.628e-6
-0.897, 6.621e-6
-0.898, 6.610e-6
-0.899, 6.598e-6
-0.900, 6.586e-6
-0.901, 6.575e-6
-0.902, 6.568e-6
-0.903, 6.559e-6
-0.904, 6.546e-6
-0.905, 6.533e-6
-0.906, 6.523e-6
-0.907, 6.517e-6
-0.908, 6.507e-6
-0.909, 6.494e-6
-0.910, 6.485e-6
-0.911, 6.475e-6
-0.912, 6.466e-6
-0.913, 6.458e-6
-0.914, 6.446e-6
-0.915, 6.435e-6
-0.916, 6.426e-6
-0.917, 6.419e-6
-0.918, 6.412e-6
-0.919, 6.399e-6
-0.920, 6.388e-6
-0.921, 6.380e-6
-0.922, 6.373e-6
-0.923, 6.365e-6
-0.924, 6.352e-6
-0.925, 6.342e-6
-0.926, 6.334e-6
-0.927, 6.328e-6
-0.928, 6.319e-6
-0.929, 6.308e-6
-0.930, 6.297e-6
-0.931, 6.289e-6
-0.932, 6.282e-6
-0.933, 6.275e-6
-0.934, 6.265e-6
-0.935, 6.253e-6
-0.936, 6.246e-6
-0.937, 6.241e-6
-0.938, 6.233e-6
-0.939, 6.224e-6
-0.940, 6.215e-6
-0.941, 6.207e-6
-0.942, 6.202e-6
-0.943, 6.195e-6
-0.944, 6.184e-6
-0.945, 6.176e-6
-0.946, 6.169e-6
-0.947, 6.165e-6
-0.948, 6.159e-6
-0.949, 6.149e-6
-0.950, 6.140e-6
-0.951, 6.132e-6
-0.952, 6.128e-6
-0.953, 6.122e-6
-0.954, 6.112e-6
-0.955, 6.104e-6
-0.956, 6.097e-6
-0.957, 6.092e-6
-0.958, 6.086e-6
-0.959, 6.075e-6
-0.960, 6.067e-6
-0.961, 6.060e-6
-0.962, 6.056e-6
-0.963, 6.051e-6
-0.964, 6.040e-6
-0.965, 6.033e-6
-0.966, 6.027e-6
-0.967, 6.022e-6
-0.968, 6.016e-6
-0.969, 6.007e-6
-0.970, 5.999e-6
-0.971, 5.992e-6
-0.972, 5.991e-6
-0.973, 5.986e-6
-0.974, 5.976e-6
-0.975, 5.968e-6
-0.976, 5.963e-6
-0.977, 5.960e-6
-0.978, 5.953e-6
-0.979, 5.946e-6
-0.980, 5.940e-6
-0.981, 5.934e-6
-0.982, 5.929e-6
-0.983, 5.925e-6
-0.984, 5.919e-6
-0.985, 5.913e-6
-0.986, 5.907e-6
-0.987, 5.905e-6
-0.988, 5.901e-6
-0.989, 5.893e-6
-0.990, 5.886e-6
-0.991, 5.881e-6
-0.992, 5.880e-6
-0.993, 5.875e-6
-0.994, 5.867e-6
-0.995, 5.862e-6
-0.996, 5.857e-6
-0.997, 5.854e-6
-0.998, 5.851e-6
-0.999, 5.843e-6
-1.000, 5.837e-6
-1.001, 5.833e-6
-1.002, 5.831e-6
-1.003, 5.826e-6
-1.004, 5.819e-6
-1.005, 5.812e-6
-1.006, 5.810e-6
-1.007, 5.807e-6
-1.008, 5.802e-6
-1.009, 5.795e-6
-1.010, 5.790e-6
-1.011, 5.786e-6
-1.012, 5.785e-6
-1.013, 5.780e-6
-1.014, 5.774e-6
-1.015, 5.769e-6
-1.016, 5.765e-6
-1.017, 5.764e-6
-1.018, 5.760e-6
-1.019, 5.753e-6
-1.020, 5.747e-6
-1.021, 5.744e-6
-1.022, 5.743e-6
-1.023, 5.739e-6
-1.024, 5.734e-6
-1.025, 5.730e-6
-1.026, 5.726e-6
-1.027, 5.725e-6
-1.028, 5.721e-6
-1.029, 5.715e-6
-1.030, 5.710e-6
-1.031, 5.708e-6
-1.032, 5.707e-6
-1.033, 5.704e-6
-1.034, 5.697e-6
-1.035, 5.694e-6
-1.036, 5.691e-6
-1.037, 5.692e-6
-1.038, 5.689e-6
-1.039, 5.683e-6
-1.040, 5.680e-6
-1.041, 5.677e-6
-1.042, 5.676e-6
-1.043, 5.673e-6
-1.044, 5.668e-6
-1.045, 5.664e-6
-1.046, 5.663e-6
-1.047, 5.663e-6
-1.048, 5.659e-6
-1.049, 5.654e-6
-1.050, 5.651e-6
-1.051, 5.649e-6
-1.052, 5.650e-6
-1.053, 5.647e-6
-1.054, 5.643e-6
-1.055, 5.639e-6
-1.056, 5.639e-6
-1.057, 5.639e-6
-1.058, 5.636e-6
-1.059, 5.634e-6
-1.060, 5.630e-6
-1.061, 5.628e-6
-1.062, 5.630e-6
-1.063, 5.627e-6
-1.064, 5.623e-6
-1.065, 5.621e-6
-1.066, 5.620e-6
-1.067, 5.621e-6
-1.068, 5.618e-6
-1.069, 5.614e-6
-1.070, 5.612e-6
-1.071, 5.611e-6
-1.072, 5.612e-6
-1.073, 5.610e-6
-1.074, 5.606e-6
-1.075, 5.606e-6
-1.076, 5.605e-6
-1.077, 5.605e-6
-1.078, 5.605e-6
-1.079, 5.601e-6
-1.080, 5.599e-6
-1.081, 5.599e-6
-1.082, 5.602e-6
-1.083, 5.598e-6
-1.084, 5.595e-6
-1.085, 5.594e-6
-1.086, 5.593e-6
-1.087, 5.595e-6
-1.088, 5.595e-6
-1.089, 5.593e-6
-1.090, 5.590e-6
-1.091, 5.590e-6
-1.092, 5.592e-6
-1.093, 5.591e-6
-1.094, 5.589e-6
-1.095, 5.586e-6
-1.096, 5.588e-6
-1.097, 5.590e-6
-1.098, 5.588e-6
-1.099, 5.586e-6
-1.100, 5.586e-6
-1.101, 5.586e-6
-1.102, 5.590e-6
-1.103, 5.588e-6
-1.104, 5.587e-6
-1.105, 5.585e-6
-1.106, 5.586e-6
-1.107, 5.590e-6
-1.108, 5.589e-6
-1.109, 5.586e-6
-1.110, 5.587e-6
-1.111, 5.588e-6
-1.112, 5.590e-6
-1.113, 5.591e-6
-1.114, 5.589e-6
-1.115, 5.589e-6
-1.116, 5.590e-6
-1.117, 5.593e-6
-1.118, 5.593e-6
-1.119, 5.591e-6
-1.120, 5.589e-6
-1.121, 5.592e-6
-1.122, 5.595e-6
-1.123, 5.596e-6
-1.124, 5.593e-6
-1.125, 5.594e-6
-1.126, 5.597e-6
-1.127, 5.599e-6
-1.128, 5.599e-6
-1.129, 5.599e-6
-1.130, 5.599e-6
-1.131, 5.599e-6
-1.132, 5.605e-6
-1.133, 5.604e-6
-1.134, 5.605e-6
-1.135, 5.603e-6
-1.136, 5.605e-6
-1.137, 5.609e-6
-1.138, 5.609e-6
-1.139, 5.609e-6
-1.140, 5.610e-6
-1.141, 5.610e-6
-1.142, 5.616e-6
-1.143, 5.616e-6
-1.144, 5.615e-6
-1.145, 5.617e-6
-1.146, 5.619e-6
-1.147, 5.623e-6
-1.148, 5.624e-6
-1.149, 5.623e-6
-1.150, 5.624e-6
-1.151, 5.626e-6
-1.152, 5.632e-6
-1.153, 5.632e-6
-1.154, 5.632e-6
-1.155, 5.633e-6
-1.156, 5.636e-6
-1.157, 5.640e-6
-1.158, 5.642e-6
-1.159, 5.640e-6
-1.160, 5.641e-6
-1.161, 5.645e-6
-1.162, 5.649e-6
-1.163, 5.650e-6
-1.164, 5.651e-6
-1.165, 5.651e-6
-1.166, 5.655e-6
-1.167, 5.658e-6
-1.168, 5.661e-6
-1.169, 5.662e-6
-1.170, 5.662e-6
-1.171, 5.666e-6
-1.172, 5.672e-6
-1.173, 5.672e-6
-1.174, 5.672e-6
-1.175, 5.673e-6
-1.176, 5.678e-6
-1.177, 5.683e-6
-1.178, 5.685e-6
-1.179, 5.685e-6
-1.180, 5.686e-6
-1.181, 5.689e-6
-1.182, 5.695e-6
-1.183, 5.698e-6
-1.184, 5.698e-6
-1.185, 5.700e-6
-1.186, 5.703e-6
-1.187, 5.708e-6
-1.188, 5.710e-6
-1.189, 5.712e-6
-1.190, 5.713e-6
-1.191, 5.717e-6
-1.192, 5.724e-6
-1.193, 5.726e-6
-1.194, 5.726e-6
-1.195, 5.728e-6
-1.196, 5.732e-6
-1.197, 5.738e-6
-1.198, 5.740e-6
-1.199, 5.742e-6
-1.200, 5.744e-6
-1.201, 5.747e-6
-1.202, 5.753e-6
-1.203, 5.757e-6
-1.204, 5.758e-6
-1.205, 5.759e-6
-1.206, 5.765e-6
-1.207, 5.771e-6
-1.208, 5.771e-6
-1.209, 5.774e-6
-1.210, 5.776e-6
-1.211, 5.780e-6
-1.212, 5.787e-6
-1.213, 5.788e-6
-1.214, 5.789e-6
-1.215, 5.791e-6
-1.216, 5.798e-6
-1.217, 5.804e-6
-1.218, 5.806e-6
-1.219, 5.807e-6
-1.220, 5.809e-6
-1.221, 5.814e-6
-1.222, 5.819e-6
-1.223, 5.822e-6
-1.224, 5.823e-6
-1.225, 5.826e-6
-1.226, 5.830e-6
-1.227, 5.837e-6
-1.228, 5.840e-6
-1.229, 5.844e-6
-1.230, 5.844e-6
-1.231, 5.848e-6
-1.232, 5.853e-6
-1.233, 5.856e-6
-1.234, 5.856e-6
-1.235, 5.859e-6
-1.236, 5.864e-6
-1.237, 5.869e-6
-1.238, 5.870e-6
-1.239, 5.871e-6
-1.240, 5.874e-6
-1.241, 5.878e-6
-1.242, 5.882e-6
-1.243, 5.884e-6
-1.244, 5.885e-6
-1.245, 5.886e-6
-1.246, 5.890e-6
-1.247, 5.895e-6
-1.248, 5.897e-6
-1.249, 5.899e-6
-1.250, 5.900e-6
-1.251, 5.905e-6
-1.252, 5.909e-6
-1.253, 5.910e-6
-1.254, 5.912e-6
-1.255, 5.913e-6
-1.256, 5.916e-6
-1.257, 5.922e-6
-1.258, 5.922e-6
-1.259, 5.922e-6
-1.260, 5.924e-6
-1.261, 5.928e-6
-1.262, 5.932e-6
-1.263, 5.932e-6
-1.264, 5.932e-6
-1.265, 5.933e-6
-1.266, 5.937e-6
-1.267, 5.941e-6
-1.268, 5.944e-6
-1.269, 5.943e-6
-1.270, 5.944e-6
-1.271, 5.947e-6
-1.272, 5.952e-6
-1.273, 5.950e-6
-1.274, 5.951e-6
-1.275, 5.952e-6
-1.276, 5.955e-6
-1.277, 5.959e-6
-1.278, 5.958e-6
-1.279, 5.958e-6
-1.280, 5.961e-6
-1.281, 5.964e-6
-1.282, 5.967e-6
-1.283, 5.967e-6
-1.284, 5.966e-6
-1.285, 5.965e-6
-1.286, 5.968e-6
-1.287, 5.972e-6
-1.288, 5.972e-6
-1.289, 5.972e-6
-1.290, 5.971e-6
-1.291, 5.973e-6
-1.292, 5.976e-6
-1.293, 5.976e-6
-1.294, 5.975e-6
-1.295, 5.974e-6
-1.296, 5.978e-6
-1.297, 5.981e-6
-1.298, 5.980e-6
-1.299, 5.980e-6
-1.300, 5.979e-6
-1.301, 5.980e-6
-1.302, 5.984e-6
-1.303, 5.982e-6
-1.304, 5.979e-6
-1.305, 5.980e-6
-1.306, 5.982e-6
-1.307, 5.984e-6
-1.308, 5.983e-6
-1.309, 5.980e-6
-1.310, 5.980e-6
-1.311, 5.980e-6
-1.312, 5.984e-6
-1.313, 5.981e-6
-1.314, 5.978e-6
-1.315, 5.976e-6
-1.316, 5.979e-6
-1.317, 5.981e-6
-1.318, 5.980e-6
-1.319, 5.976e-6
-1.320, 5.975e-6
-1.321, 5.977e-6
-1.322, 5.978e-6
-1.323, 5.976e-6
-1.324, 5.973e-6
-1.325, 5.971e-6
-1.326, 5.972e-6
-1.327, 5.973e-6
-1.328, 5.971e-6
-1.329, 5.968e-6
-1.330, 5.964e-6
-1.331, 5.966e-6
-1.332, 5.967e-6
-1.333, 5.963e-6
-1.334, 5.960e-6
-1.335, 5.956e-6
-1.336, 5.958e-6
-1.337, 5.959e-6
-1.338, 5.955e-6
-1.339, 5.953e-6
-1.340, 5.949e-6
-1.341, 5.949e-6
-1.342, 5.950e-6
-1.343, 5.947e-6
-1.344, 5.943e-6
-1.345, 5.940e-6
-1.346, 5.939e-6
-1.347, 5.941e-6
-1.348, 5.938e-6
-1.349, 5.933e-6
-1.350, 5.931e-6
-1.351, 5.931e-6
-1.352, 5.930e-6
-1.353, 5.926e-6
-1.354, 5.922e-6
-1.355, 5.920e-6
-1.356, 5.920e-6
-1.357, 5.920e-6
-1.358, 5.917e-6
-1.359, 5.913e-6
-1.360, 5.909e-6
-1.361, 5.909e-6
-1.362, 5.909e-6
-1.363, 5.906e-6
-1.364, 5.902e-6
-1.365, 5.897e-6
-1.366, 5.899e-6
-1.367, 5.899e-6
-1.368, 5.894e-6
-1.369, 5.891e-6
-1.370, 5.887e-6
-1.371, 5.888e-6
-1.372, 5.887e-6
-1.373, 5.884e-6
-1.374, 5.880e-6
-1.375, 5.876e-6
-1.376, 5.876e-6
-1.377, 5.878e-6
-1.378, 5.874e-6
-1.379, 5.869e-6
-1.380, 5.866e-6
-1.381, 5.866e-6
-1.382, 5.868e-6
-1.383, 5.865e-6
-1.384, 5.859e-6
-1.385, 5.857e-6
-1.386, 5.857e-6
-1.387, 5.858e-6
-1.388, 5.854e-6
-1.389, 5.850e-6
-1.390, 5.847e-6
-1.391, 5.848e-6
-1.392, 5.847e-6
-1.393, 5.845e-6
-1.394, 5.840e-6
-1.395, 5.837e-6
-1.396, 5.838e-6
-1.397, 5.839e-6
-1.398, 5.837e-6
-1.399, 5.833e-6
-1.400, 5.829e-6
-1.401, 5.833e-6
-1.402, 5.833e-6
-1.403, 5.830e-6
-1.404, 5.827e-6
-1.405, 5.824e-6
-1.406, 5.827e-6
-1.407, 5.829e-6
-1.408, 5.826e-6
-1.409, 5.824e-6
-1.410, 5.822e-6
-1.411, 5.824e-6
-1.412, 5.827e-6
-1.413, 5.824e-6
-1.414, 5.822e-6
-1.415, 5.820e-6
-1.416, 5.822e-6
-1.417, 5.825e-6
-1.418, 5.822e-6
-1.419, 5.822e-6
-1.420, 5.821e-6
-1.421, 5.825e-6
-1.422, 5.827e-6
-1.423, 5.825e-6
-1.424, 5.824e-6
-1.425, 5.823e-6
-1.426, 5.826e-6
-1.427, 5.829e-6
-1.428, 5.829e-6
-1.429, 5.827e-6
-1.430, 5.828e-6
-1.431, 5.830e-6
-1.432, 5.836e-6
-1.433, 5.835e-6
-1.434, 5.837e-6
-1.435, 5.837e-6
-1.436, 5.842e-6
-1.437, 5.845e-6
-1.438, 5.846e-6
-1.439, 5.844e-6
-1.440, 5.845e-6
-1.441, 5.850e-6
-1.442, 5.852e-6
-1.443, 5.856e-6
-1.444, 5.854e-6
-1.445, 5.855e-6
-1.446, 5.861e-6
-1.447, 5.865e-6
-1.448, 5.866e-6
-1.449, 5.867e-6
-1.450, 5.866e-6
-1.451, 5.872e-6
-1.452, 5.879e-6
-1.453, 5.879e-6
-1.454, 5.880e-6
-1.455, 5.882e-6
-1.456, 5.887e-6
-1.457, 5.893e-6
-1.458, 5.894e-6
-1.459, 5.896e-6
-1.460, 5.899e-6
-1.461, 5.903e-6
-1.462, 5.910e-6
-1.463, 5.911e-6
-1.464, 5.913e-6
-1.465, 5.916e-6
-1.466, 5.921e-6
-1.467, 5.929e-6
-1.468, 5.930e-6
-1.469, 5.931e-6
-1.470, 5.935e-6
-1.471, 5.942e-6
-1.472, 5.950e-6
-1.473, 5.954e-6
-1.474, 5.955e-6
-1.475, 5.959e-6
-1.476, 5.968e-6
-1.477, 5.975e-6
-1.478, 5.981e-6
-1.479, 5.983e-6
-1.480, 5.988e-6
-1.481, 5.997e-6
-1.482, 6.004e-6
-1.483, 6.009e-6
-1.484, 6.013e-6
-1.485, 6.021e-6
-1.486, 6.029e-6
-1.487, 6.036e-6
-1.488, 6.040e-6
-1.489, 6.046e-6
-1.490, 6.050e-6
-1.491, 6.060e-6
-1.492, 6.071e-6
-1.493, 6.073e-6
-1.494, 6.079e-6
-1.495, 6.084e-6
-1.496, 6.096e-6
-1.497, 6.107e-6
-1.498, 6.112e-6
-1.499, 6.117e-6
-1.500, 6.123e-6
-1.501, 6.133e-6
-1.502, 6.144e-6
-1.503, 6.151e-6
-1.504, 6.156e-6
-1.505, 6.163e-6
-1.506, 6.174e-6
-1.507, 6.186e-6
-1.508, 6.192e-6
-1.509, 6.197e-6
-1.510, 6.206e-6
-1.511, 6.218e-6
-1.512, 6.230e-6
-1.513, 6.239e-6
-1.514, 6.245e-6
-1.515, 6.254e-6
-1.516, 6.267e-6
-1.517, 6.281e-6
-1.518, 6.289e-6
-1.519, 6.296e-6
-1.520, 6.307e-6
-1.521, 6.323e-6
-1.522, 6.334e-6
-1.523, 6.345e-6
-1.524, 6.355e-6
-1.525, 6.364e-6
-1.526, 6.382e-6
-1.527, 6.395e-6
-1.528, 6.404e-6
-1.529, 6.415e-6
-1.530, 6.427e-6
-1.531, 6.444e-6
-1.532, 6.460e-6
-1.533, 6.470e-6
-1.534, 6.482e-6
-1.535, 6.494e-6
-1.536, 6.512e-6
-1.537, 6.529e-6
-1.538, 6.540e-6
-1.539, 6.554e-6
-1.540, 6.566e-6
-1.541, 6.586e-6
-1.542, 6.606e-6
-1.543, 6.618e-6
-1.544, 6.630e-6
-1.545, 6.645e-6
-1.546, 6.665e-6
-1.547, 6.685e-6
-1.548, 6.698e-6
-1.549, 6.713e-6
-1.550, 6.731e-6
-1.551, 6.751e-6
-1.552, 6.772e-6
-1.553, 6.789e-6
-1.554, 6.803e-6
-1.555, 6.823e-6
-1.556, 6.844e-6
-1.557, 6.867e-6
-1.558, 6.883e-6
-1.559, 6.899e-6
-1.560, 6.919e-6
-1.561, 6.944e-6
-1.562, 6.965e-6
-1.563, 6.987e-6
-1.564, 7.004e-6
-1.565, 7.022e-6
-1.566, 7.052e-6
-1.567, 7.075e-6
-1.568, 7.096e-6
-1.569, 7.117e-6
-1.570, 7.138e-6
-1.571, 7.168e-6
-1.572, 7.194e-6
-1.573, 7.216e-6
-1.574, 7.240e-6
-1.575, 7.263e-6
-1.576, 7.292e-6
-1.577, 7.321e-6
-1.578, 7.345e-6
-1.579, 7.367e-6
-1.580, 7.394e-6
-1.581, 7.426e-6
-1.582, 7.458e-6
-1.583, 7.483e-6
-1.584, 7.510e-6
-1.585, 7.537e-6
-1.586, 7.570e-6
-1.587, 7.603e-6
-1.588, 7.632e-6
-1.589, 7.658e-6
-1.590, 7.689e-6
-1.591, 7.726e-6
-1.592, 7.761e-6
-1.593, 7.794e-6
-1.594, 7.825e-6
-1.595, 7.858e-6
-1.596, 7.897e-6
-1.597, 7.932e-6
-1.598, 7.971e-6
-1.599, 8.002e-6
-1.600, 8.038e-6
-1.601, 8.079e-6
-1.602, 8.116e-6
-1.603, 8.153e-6
-1.604, 8.192e-6
-1.605, 8.235e-6
-1.606, 8.279e-6
-1.607, 8.322e-6
-1.608, 8.361e-6
-1.609, 8.398e-6
-1.610, 8.440e-6
-1.611, 8.490e-6
-1.612, 8.539e-6
-1.613, 8.581e-6
-1.614, 8.622e-6
-1.615, 8.667e-6
-1.616, 8.721e-6
-1.617, 8.775e-6
-1.618, 8.821e-6
-1.619, 8.869e-6
-1.620, 8.922e-6
-1.621, 8.982e-6
-1.622, 9.039e-6
-1.623, 9.088e-6
-1.624, 9.139e-6
-1.625, 9.194e-6
-1.626, 9.251e-6
-1.627, 9.305e-6
-1.628, 9.356e-6
-1.629, 9.408e-6
-1.630, 9.464e-6
-1.631, 9.528e-6
-1.632, 9.586e-6
-1.633, 9.642e-6
-1.634, 9.697e-6
-1.635, 9.760e-6
-1.636, 9.829e-6
-1.637, 9.892e-6
-1.638, 9.956e-6
-1.639, 1.002e-5
-1.640, 1.008e-5
-1.641, 1.015e-5
-1.642, 1.022e-5
-1.643, 1.028e-5
-1.644, 1.035e-5
-1.645, 1.042e-5
-1.646, 1.050e-5
-1.647, 1.058e-5
-1.648, 1.065e-5
-1.649, 1.072e-5
-1.650, 1.079e-5
-1.651, 1.088e-5
-1.652, 1.096e-5
-1.653, 1.104e-5
-1.654, 1.111e-5
-1.655, 1.119e-5
-1.656, 1.128e-5
-1.657, 1.136e-5
-1.658, 1.144e-5
-1.659, 1.152e-5
-1.660, 1.161e-5
-1.661, 1.171e-5
-1.662, 1.180e-5
-1.663, 1.189e-5
-1.664, 1.198e-5
-1.665, 1.206e-5
-1.666, 1.216e-5
-1.667, 1.226e-5
-1.668, 1.236e-5
-1.669, 1.245e-5
-1.670, 1.256e-5
-1.671, 1.267e-5
-1.672, 1.278e-5
-1.673, 1.288e-5
-1.674, 1.299e-5
-1.675, 1.310e-5
-1.676, 1.322e-5
-1.677, 1.334e-5
-1.678, 1.345e-5
-1.679, 1.357e-5
-1.680, 1.370e-5
-1.681, 1.382e-5
-1.682, 1.395e-5
-1.683, 1.407e-5
-1.684, 1.419e-5
-1.685, 1.432e-5
-1.686, 1.446e-5
-1.687, 1.459e-5
-1.688, 1.472e-5
-1.689, 1.485e-5
-1.690, 1.499e-5
-1.691, 1.513e-5
-1.692, 1.527e-5
-1.693, 1.542e-5
-1.694, 1.555e-5
-1.695, 1.565e-5
-1.696, 1.578e-5
-1.697, 1.593e-5
-1.698, 1.608e-5
-1.699, 1.622e-5
-1.700, 1.635e-5
-1.701, 1.647e-5
-1.702, 1.662e-5
-1.703, 1.677e-5
-1.704, 1.690e-5
-1.705, 1.701e-5
-1.706, 1.716e-5
-1.707, 1.732e-5
-1.708, 1.747e-5
-1.709, 1.762e-5
-1.710, 1.779e-5
-1.711, 1.796e-5
-1.712, 1.812e-5
-1.713, 1.829e-5
-1.714, 1.845e-5
-1.715, 1.862e-5
-1.716, 1.879e-5
-1.717, 1.896e-5
-1.718, 1.914e-5
-1.719, 1.931e-5
-1.720, 1.948e-5
-1.721, 1.967e-5
-1.722, 1.986e-5
-1.723, 2.004e-5
-1.724, 2.022e-5
-1.725, 2.042e-5
-1.726, 2.063e-5
-1.727, 2.083e-5
-1.728, 2.103e-5
-1.729, 2.122e-5
-1.730, 2.143e-5
-1.731, 2.165e-5
-1.732, 2.188e-5
-1.733, 2.209e-5
-1.734, 2.231e-5
-1.735, 2.254e-5
-1.736, 2.277e-5
-1.737, 2.300e-5
-1.738, 2.323e-5
-1.739, 2.347e-5
-1.740, 2.372e-5
-1.741, 2.399e-5
-1.742, 2.426e-5
-1.743, 2.451e-5
-1.744, 2.477e-5
-1.745, 2.504e-5
-1.746, 2.533e-5
-1.747, 2.561e-5
-1.748, 2.589e-5
-1.749, 2.616e-5
-1.750, 2.645e-5
-1.751, 2.676e-5
-1.752, 2.706e-5
-1.753, 2.736e-5
-1.754, 2.768e-5
-1.755, 2.798e-5
-1.756, 2.829e-5
-1.757, 2.862e-5
-1.758, 2.893e-5
-1.759, 2.924e-5
-1.760, 2.956e-5
-1.761, 2.991e-5
-1.762, 3.023e-5
-1.763, 3.054e-5
-1.764, 3.087e-5
-1.765, 3.122e-5
-1.766, 3.157e-5
-1.767, 3.195e-5
-1.768, 3.234e-5
-1.769, 3.272e-5
-1.770, 3.311e-5
-1.771, 3.353e-5
-1.772, 3.395e-5
-1.773, 3.435e-5
-1.774, 3.476e-5
-1.775, 3.519e-5
-1.776, 3.564e-5
-1.777, 3.608e-5
-1.778, 3.653e-5
-1.779, 3.700e-5
-1.780, 3.747e-5
-1.781, 3.794e-5
-1.782, 3.844e-5
-1.783, 3.894e-5
-1.784, 3.941e-5
-1.785, 3.976e-5
-1.786, 4.024e-5
-1.787, 4.077e-5
-1.788, 4.129e-5
-1.789, 4.177e-5
-1.790, 4.229e-5
-1.791, 4.289e-5
-1.792, 4.349e-5
-1.793, 4.408e-5
-1.794, 4.468e-5
-1.795, 4.530e-5
-1.796, 4.595e-5
-1.797, 4.662e-5
-1.798, 4.729e-5
-1.799, 4.798e-5
-1.800, 4.862e-5
-1.801, 4.933e-5
-1.802, 5.007e-5
-1.803, 5.083e-5
-1.804, 5.159e-5
-1.805, 5.236e-5
-1.806, 5.317e-5
-1.807, 5.400e-5
-1.808, 5.483e-5
-1.809, 5.567e-5
-1.810, 5.654e-5
-1.811, 5.743e-5
-1.812, 5.836e-5
-1.813, 5.927e-5
-1.814, 6.022e-5
-1.815, 6.118e-5
-1.816, 6.209e-5
-1.817, 6.301e-5
-1.818, 6.401e-5
-1.819, 6.504e-5
-1.820, 6.610e-5
-1.821, 6.722e-5
-1.822, 6.833e-5
-1.823, 6.946e-5
-1.824, 7.061e-5
-1.825, 7.179e-5
-1.826, 7.300e-5
-1.827, 7.422e-5
-1.828, 7.546e-5
-1.829, 7.676e-5
-1.830, 7.802e-5
-1.831, 7.934e-5
-1.832, 8.072e-5
-1.833, 8.212e-5
-1.834, 8.355e-5
-1.835, 8.501e-5
-1.836, 8.652e-5
-1.837, 8.805e-5
-1.838, 8.959e-5
-1.839, 9.115e-5
-1.840, 9.276e-5
-1.841, 9.443e-5
-1.842, 9.616e-5
-1.843, 9.791e-5
-1.844, 9.962e-5
-1.845, 1.014e-4
-1.846, 1.032e-4
-1.847, 1.051e-4
-1.848, 1.070e-4
-1.849, 1.090e-4
-1.850, 1.110e-4
-1.851, 1.131e-4
-1.852, 1.151e-4
-1.853, 1.172e-4
-1.854, 1.193e-4
-1.855, 1.215e-4
-1.856, 1.238e-4
-1.857, 1.261e-4
-1.858, 1.284e-4
-1.859, 1.308e-4
-1.860, 1.332e-4
-1.861, 1.357e-4
-1.862, 1.382e-4
-1.863, 1.408e-4
-1.864, 1.434e-4
-1.865, 1.461e-4
-1.866, 1.488e-4
-1.867, 1.515e-4
-1.868, 1.544e-4
-1.869, 1.572e-4
-1.870, 1.602e-4
-1.871, 1.632e-4
-1.872, 1.662e-4
-1.873, 1.693e-4
-1.874, 1.724e-4
-1.875, 1.756e-4
-1.876, 1.789e-4
-1.877, 1.821e-4
-1.878, 1.855e-4
-1.879, 1.889e-4
-1.880, 1.923e-4
-1.881, 1.957e-4
-1.882, 1.993e-4
-1.883, 2.028e-4
-1.884, 2.064e-4
-1.885, 2.102e-4
-1.886, 2.140e-4
-1.887, 2.178e-4
-1.888, 2.217e-4
-1.889, 2.256e-4
-1.890, 2.296e-4
-1.891, 2.337e-4
-1.892, 2.377e-4
-1.893, 2.419e-4
-1.894, 2.460e-4
-1.895, 2.502e-4
-1.896, 2.545e-4
-1.897, 2.589e-4
-1.898, 2.632e-4
-1.899, 2.676e-4
-1.900, 2.721e-4
-1.901, 2.765e-4
-1.902, 2.811e-4
-1.903, 2.857e-4
-1.904, 2.903e-4
-1.905, 2.948e-4
-1.906, 2.995e-4
-1.907, 3.042e-4
-1.908, 3.089e-4
-1.909, 3.136e-4
-1.910, 3.183e-4
-1.911, 3.231e-4
-1.912, 3.277e-4
-1.913, 3.323e-4
-1.914, 3.370e-4
-1.915, 3.418e-4
-1.916, 3.467e-4
-1.917, 3.516e-4
-1.918, 3.564e-4
-1.919, 3.613e-4
-1.920, 3.662e-4
-1.921, 3.711e-4
-1.922, 3.759e-4
-1.923, 3.807e-4
-1.924, 3.855e-4
-1.925, 3.904e-4
-1.926, 3.953e-4
-1.927, 4.002e-4
-1.928, 4.053e-4
-1.929, 4.103e-4
-1.930, 4.152e-4
-1.931, 4.202e-4
-1.932, 4.252e-4
-1.933, 4.302e-4
-1.934, 4.354e-4
-1.935, 4.405e-4
-1.936, 4.456e-4
-1.937, 4.508e-4
-1.938, 4.561e-4
-1.939, 4.613e-4
-1.940, 4.667e-4
-1.941, 4.722e-4
-1.942, 4.778e-4
-1.943, 4.833e-4
-1.944, 4.887e-4
-1.945, 4.942e-4
-1.946, 4.997e-4
-1.947, 5.053e-4
-1.948, 5.110e-4
-1.949, 5.166e-4
-1.950, 5.222e-4
-1.951, 5.279e-4
-1.952, 5.338e-4
-1.953, 5.397e-4
-1.954, 5.456e-4
-1.955, 5.516e-4
-1.956, 5.575e-4
-1.957, 5.634e-4
-1.958, 5.693e-4
-1.959, 5.754e-4
-1.960, 5.815e-4
-1.961, 5.876e-4
-1.962, 5.938e-4
-1.963, 6.000e-4
-1.964, 6.063e-4
-1.965, 6.127e-4
-1.966, 6.194e-4
-1.967, 6.261e-4
-1.968, 6.328e-4
-1.969, 6.394e-4
-1.970, 6.457e-4
-1.971, 6.518e-4
-1.972, 6.584e-4
-1.973, 6.649e-4
-1.974, 6.716e-4
-1.975, 6.782e-4
-1.976, 6.850e-4
-1.977, 6.916e-4
-1.978, 6.982e-4
-1.979, 7.048e-4
-1.980, 7.115e-4
-1.981, 7.185e-4
-1.982, 7.256e-4
-1.983, 7.326e-4
-1.984, 7.399e-4
-1.985, 7.472e-4
-1.986, 7.546e-4
-1.987, 7.620e-4
-1.988, 7.693e-4
-1.989, 7.766e-4
-1.990, 7.839e-4
-1.991, 7.911e-4
-1.992, 7.983e-4
-1.993, 8.058e-4
-1.994, 8.135e-4
-1.995, 8.213e-4
-1.996, 8.291e-4
-1.997, 8.368e-4
-1.998, 8.445e-4
-1.999, 8.523e-4
-2.000, 8.601e-4
-2.001, 8.677e-4
-2.002, 8.755e-4
-2.003, 8.836e-4
-2.004, 8.916e-4
-2.005, 8.995e-4
-2.006, 9.077e-4
-2.007, 9.159e-4
-2.008, 9.241e-4
-2.009, 9.323e-4
-2.010, 9.406e-4
-2.011, 9.489e-4
-2.012, 9.570e-4
-2.013, 9.653e-4
-2.014, 9.734e-4
-2.015, 9.815e-4
-2.016, 9.897e-4
-2.017, 9.980e-4
-2.018, 1.006e-3
-2.019, 1.011e-3
-2.020, 1.011e-3
-2.021, 1.011e-3
-2.022, 1.011e-3
-2.023, 1.011e-3
-2.024, 1.011e-3
-2.025, 1.011e-3
-2.026, 1.011e-3
-2.027, 1.011e-3
-2.028, 1.011e-3
-2.029, 1.011e-3
-2.030, 1.011e-3
-2.031, 1.011e-3
-2.032, 1.011e-3
-2.033, 1.011e-3
-2.034, 1.011e-3
-2.035, 1.011e-3
-2.036, 1.011e-3
-2.037, 1.011e-3
-2.038, 1.011e-3
-2.039, 1.011e-3
-2.040, 1.011e-3
-2.041, 1.011e-3
-2.042, 1.011e-3
-2.043, 1.011e-3
-2.044, 1.011e-3
-2.045, 1.011e-3
-2.046, 1.011e-3
-2.047, 1.011e-3
-2.048, 1.011e-3
-2.049, 1.011e-3
-2.050, 1.011e-3
-2.051, 1.011e-3
-2.052, 1.011e-3
-2.053, 1.011e-3
-2.054, 1.011e-3
-2.055, 1.011e-3
-2.056, 1.011e-3
-2.057, 1.011e-3
-2.058, 1.011e-3
-2.059, 1.011e-3
-2.060, 1.011e-3
-2.061, 1.011e-3
-2.062, 1.011e-3
-2.063, 1.011e-3
-2.064, 1.011e-3
-2.065, 1.011e-3
-2.066, 1.011e-3
-2.067, 1.011e-3
-2.068, 1.011e-3
-2.069, 1.011e-3
-2.070, 1.011e-3
-2.071, 1.011e-3
-2.072, 1.011e-3
-2.073, 1.011e-3
-2.074, 1.011e-3
-2.075, 1.011e-3
-2.076, 1.011e-3
-2.077, 1.011e-3
-2.078, 1.011e-3
-2.079, 1.011e-3
-2.080, 1.011e-3
-2.081, 1.011e-3
-2.082, 1.011e-3
-2.083, 1.011e-3
-2.084, 1.011e-3
-2.085, 1.011e-3
-2.086, 1.011e-3
-2.087, 1.011e-3
-2.088, 1.011e-3
-2.089, 1.011e-3
-2.090, 1.011e-3
-2.091, 1.011e-3
-2.092, 1.011e-3
-2.093, 1.011e-3
-2.094, 1.011e-3
-2.095, 1.011e-3
-2.096, 1.011e-3
-2.097, 1.011e-3
-2.098, 1.011e-3
-2.099, 1.011e-3
