Potential V vs RHE, Current mA cm-2
0.05339999999999995,-0.17952686395287318
0.05239999999999995,-0.1849027668923603
0.051399999999999946,-0.18744924723211737
0.050399999999999945,-0.18914690079195542
0.049399999999999944,-0.19042014096183393
0.04839999999999994,-0.19141043887173945
0.04739999999999994,-0.19254220791163149
0.04639999999999994,-0.193532505821537
0.04539999999999994,-0.19438133260145604
0.04439999999999994,-0.19494721712140206
0.04339999999999994,-0.19551310164134805
0.04239999999999994,-0.19622045729128057
0.04139999999999994,-0.19678634181122662
0.040399999999999936,-0.1973522263311726
0.039399999999999935,-0.1976351685911456
0.038399999999999934,-0.19805958198110513
0.03739999999999993,-0.19834252424107812
0.03639999999999993,-0.19890840876102414
0.03539999999999993,-0.19904987989101067
0.03439999999999993,-0.19933282215098366
0.03339999999999993,-0.19947429328097016
0.03239999999999993,-0.19975723554094318
0.03139999999999993,-0.20004017780091618
0.030399999999999927,-0.20018164893090268
0.029399999999999926,-0.20032312006088918
0.028399999999999925,-0.20032312006088918
0.027399999999999924,-0.20046459119087567
0.026399999999999924,-0.2007475334508487
0.025399999999999923,-0.2008890045808352
0.024399999999999922,-0.2008890045808352
0.02339999999999992,-0.2010304757108217
0.02239999999999992,-0.2010304757108217
0.02139999999999992,-0.20131341797079472
0.020399999999999918,-0.20131341797079472
0.019399999999999917,-0.20131341797079472
0.018399999999999916,-0.20131341797079472
0.017399999999999916,-0.20145488910078121
0.016399999999999915,-0.20159636023076774
0.015399999999999914,-0.20173783136075424
0.014399999999999913,-0.20173783136075424
0.013399999999999912,-0.20173783136075424
0.012399999999999911,-0.20187930249074074
0.01139999999999991,-0.20202077362072723
0.01039999999999991,-0.20216224475071373
0.009399999999999908,-0.20216224475071373
0.008399999999999908,-0.20216224475071373
0.007399999999999907,-0.20244518701068673
0.006399999999999906,-0.20258665814067325
0.005399999999999905,-0.20286960040064628
0.004399999999999904,-0.20301107153063278
0.003399999999999903,-0.20315254266061927
0.002399999999999902,-0.20329401379060577
0.0013999999999999013,-0.2035769560505788
0.00039999999999990044,-0.2037184271805653
-0.0006000000000001005,-0.2040013694405383
-0.0016000000000001013,-0.2041428405705248
-0.0026000000000001022,-0.2044257828304978
-0.003600000000000103,-0.20485019622045733
-0.004600000000000104,-0.20513313848043033
-0.005600000000000105,-0.20527460961041682
-0.006600000000000106,-0.20541608074040332
-0.007600000000000107,-0.20569902300037635
-0.008600000000000108,-0.20612343639033584
-0.009600000000000108,-0.2065478497802954
-0.01060000000000011,-0.20683079204026839
-0.01160000000000011,-0.20711373430024138
-0.012600000000000111,-0.2076796188201874
-0.013600000000000112,-0.2082455033401334
-0.014600000000000113,-0.2086699167300929
-0.015600000000000114,-0.2089528589900659
-0.016600000000000115,-0.20923580125003893
-0.017600000000000116,-0.20966021463999845
-0.018600000000000116,-0.21022609915994445
-0.019600000000000117,-0.21065051254990397
-0.020600000000000118,-0.21093345480987696
-0.02160000000000012,-0.21135786819983648
-0.02260000000000012,-0.211782281589796
-0.02360000000000012,-0.21220669497975553
-0.024600000000000122,-0.21277257949970152
-0.025600000000000123,-0.21305552175967452
-0.026600000000000124,-0.21333846401964754
-0.027600000000000124,-0.21390434853959353
-0.028600000000000125,-0.21447023305953958
-0.029600000000000126,-0.21489464644949907
-0.030600000000000127,-0.2153190598394586
-0.03160000000000013,-0.2156020020994316
-0.03260000000000013,-0.2160264154893911
-0.03360000000000013,-0.2164508288793506
-0.03460000000000002,-0.21687524226931013
-0.03560000000000002,-0.21715818452928315
-0.03660000000000002,-0.21744112678925615
-0.03760000000000002,-0.21786554017921567
-0.03860000000000002,-0.2181484824391887
-0.039600000000000024,-0.21843142469916169
-0.040600000000000025,-0.21871436695913468
-0.041600000000000026,-0.21871436695913468
-0.04260000000000003,-0.2189973092191077
-0.04360000000000003,-0.2192802514790807
-0.04460000000000003,-0.2195631937390537
-0.04560000000000003,-0.2195631937390537
-0.04660000000000003,-0.2195631937390537
-0.04760000000000003,-0.2195631937390537
-0.04860000000000003,-0.2198461359990267
-0.04960000000000003,-0.2198461359990267
-0.050600000000000034,-0.21970466486904017
-0.051600000000000035,-0.21942172260906717
-0.052600000000000036,-0.2192802514790807
-0.053600000000000037,-0.2192802514790807
-0.05460000000000004,-0.2189973092191077
-0.05560000000000004,-0.21857289582914816
-0.05660000000000004,-0.21828995356917516
-0.05760000000000004,-0.21800701130920216
-0.05860000000000004,-0.21772406904922914
-0.05960000000000004,-0.21744112678925615
-0.06060000000000004,-0.21687524226931013
-0.061600000000000044,-0.21630935774936413
-0.06260000000000004,-0.2157434732294181
-0.06360000000000005,-0.2151775887094721
-0.06460000000000005,-0.21447023305953958
-0.06560000000000005,-0.21362140627962053
-0.06660000000000005,-0.21291405062968802
-0.06760000000000005,-0.21220669497975553
-0.06860000000000005,-0.21149933932982298
-0.06960000000000005,-0.21079198367989047
-0.07060000000000005,-0.20966021463999845
-0.07160000000000005,-0.2088113878600794
-0.07260000000000005,-0.2079625610801604
-0.07360000000000005,-0.20725520543022788
-0.07460000000000006,-0.2065478497802954
-0.07560000000000006,-0.20541608074040332
-0.07660000000000006,-0.2044257828304978
-0.07760000000000006,-0.20343548492059227
-0.07860000000000006,-0.20258665814067325
-0.07960000000000006,-0.20159636023076774
-0.08060000000000006,-0.20046459119087567
-0.08160000000000006,-0.19947429328097016
-0.08260000000000006,-0.19848399537106462
-0.08360000000000006,-0.1976351685911456
-0.08460000000000006,-0.1965033995512536
-0.08560000000000006,-0.19537163051136155
-0.08660000000000007,-0.19423986147146954
-0.08760000000000007,-0.1931080924315775
-0.08860000000000007,-0.1922592656516585
-0.08960000000000007,-0.19126896774175295
-0.09060000000000007,-0.19013719870186094
-0.09160000000000007,-0.1890054296619689
-0.09260000000000007,-0.18787366062207686
-0.09360000000000007,-0.18702483384215784
-0.09460000000000007,-0.1861760070622388
-0.09560000000000007,-0.1850442380223468
-0.09660000000000007,-0.18405394011244128
-0.09760000000000008,-0.18306364220253574
-0.09860000000000008,-0.18235628655260325
-0.09960000000000008,-0.18150745977268423
-0.10060000000000008,-0.1805171618627787
-0.10160000000000008,-0.17966833508285968
-0.10260000000000008,-0.17867803717295414
-0.10360000000000008,-0.17797068152302162
-0.10460000000000008,-0.1774047970030756
-0.10560000000000008,-0.17641449909317006
-0.10660000000000008,-0.17556567231325104
-0.10760000000000008,-0.17485831666331855
-0.10860000000000009,-0.17415096101338604
-0.10960000000000009,-0.17358507649344
-0.11060000000000009,-0.172736249713521
-0.11160000000000009,-0.17188742293360199
-0.11260000000000009,-0.17132153841365594
-0.11360000000000009,-0.17089712502369644
-0.11460000000000009,-0.17047271163373692
-0.11560000000000009,-0.16990682711379093
-0.11660000000000009,-0.16919947146385841
-0.1176000000000001,-0.16863358694391237
-0.1186000000000001,-0.16820917355395287
-0.1196000000000001,-0.16750181790402036
-0.1206000000000001,-0.1669359333840743
-0.1216000000000001,-0.16637004886412832
-0.1226000000000001,-0.1659456354741688
-0.1236000000000001,-0.1658041643441823
-0.1246000000000001,-0.16523827982423628
-0.1256000000000001,-0.16453092417430376
-0.1266000000000001,-0.16396503965435774
-0.1276000000000001,-0.16354062626439822
-0.1286000000000001,-0.16325768400442522
-0.1296000000000001,-0.1628332706144657
-0.1306000000000001,-0.1622673860945197
-0.1316000000000001,-0.1617015015745737
-0.1326000000000001,-0.16113561705462764
-0.1336000000000001,-0.16085267479465465
-0.1346000000000001,-0.16042826140469515
-0.1356000000000001,-0.16000384801473563
-0.1366000000000001,-0.15957943462477614
-0.1376000000000001,-0.15915502123481662
-0.1386000000000001,-0.15901355010483012
-0.1396000000000001,-0.1585891367148706
-0.1406000000000001,-0.15816472332491108
-0.14160000000000011,-0.15759883880496509
-0.14260000000000012,-0.15731589654499206
-0.14360000000000012,-0.15717442541500556
-0.14460000000000012,-0.15689148315503257
-0.14560000000000012,-0.15660854089505957
-0.14660000000000012,-0.15618412750510002
-0.14760000000000012,-0.15604265637511353
-0.14860000000000012,-0.15590118524512703
-0.14960000000000012,-0.15561824298515403
-0.15060000000000012,-0.1551938295951945
-0.15160000000000012,-0.15476941620523502
-0.15260000000000012,-0.15448647394526202
-0.15360000000000013,-0.1543450028152755
-0.15460000000000013,-0.1540620605553025
-0.15560000000000013,-0.15363764716534298
-0.15660000000000013,-0.15335470490536995
-0.15760000000000013,-0.15321323377538346
-0.15860000000000013,-0.15307176264539696
-0.15960000000000002,-0.15278882038542396
-0.16060000000000002,-0.15307176264539696
-0.16160000000000002,-0.15321323377538346
-0.16260000000000002,-0.15250587812545094
-0.16360000000000002,-0.15208146473549145
-0.16460000000000002,-0.15179852247551845
-0.16560000000000002,-0.15165705134553195
-0.16660000000000003,-0.1513741090855589
-0.16760000000000003,-0.1512326379555724
-0.16860000000000003,-0.1512326379555724
-0.16960000000000003,-0.1509496956955994
-0.17060000000000003,-0.1506667534356264
-0.17160000000000003,-0.1502423400456669
-0.17260000000000003,-0.1502423400456669
-0.17360000000000003,-0.1503838111756534
-0.17460000000000003,-0.1503838111756534
-0.17560000000000003,-0.1501008689156804
-0.17660000000000003,-0.1499593977856939
-0.17760000000000004,-0.1498179266557074
-0.17860000000000004,-0.1496764555257209
-0.17960000000000004,-0.1496764555257209
-0.18060000000000004,-0.14939351326574787
-0.18160000000000004,-0.14925204213576138
-0.18260000000000004,-0.14911057100577488
-0.18360000000000004,-0.14911057100577488
-0.18460000000000004,-0.14925204213576138
-0.18560000000000004,-0.14896909987578838
-0.18660000000000004,-0.14882762874580185
-0.18760000000000004,-0.14868615761581536
-0.18860000000000005,-0.14882762874580185
-0.18960000000000005,-0.14854468648582883
-0.19060000000000005,-0.14840321535584233
-0.19160000000000005,-0.14826174422585583
-0.19260000000000005,-0.14854468648582883
-0.19360000000000005,-0.14868615761581536
-0.19460000000000005,-0.14868615761581536
-0.19560000000000005,-0.14854468648582883
-0.19660000000000005,-0.14840321535584233
-0.19760000000000005,-0.14840321535584233
-0.19860000000000005,-0.14854468648582883
-0.19960000000000006,-0.14854468648582883
-0.20060000000000006,-0.14854468648582883
-0.20160000000000006,-0.14840321535584233
-0.20260000000000006,-0.14840321535584233
-0.20360000000000006,-0.14854468648582883
-0.20460000000000006,-0.14868615761581536
-0.20560000000000006,-0.14854468648582883
-0.20660000000000006,-0.14840321535584233
-0.20760000000000006,-0.14840321535584233
-0.20860000000000006,-0.14854468648582883
-0.20960000000000006,-0.14868615761581536
-0.21060000000000006,-0.14868615761581536
-0.21160000000000007,-0.14868615761581536
-0.21260000000000007,-0.14868615761581536
-0.21360000000000007,-0.14882762874580185
-0.21460000000000007,-0.14896909987578838
-0.21560000000000007,-0.14896909987578838
-0.21660000000000007,-0.14896909987578838
-0.21760000000000007,-0.14896909987578838
-0.21860000000000007,-0.14925204213576138
-0.21960000000000007,-0.14939351326574787
-0.22060000000000007,-0.14925204213576138
-0.22160000000000007,-0.14925204213576138
-0.22260000000000008,-0.14953498439573437
-0.22360000000000008,-0.1496764555257209
-0.22460000000000008,-0.1498179266557074
-0.22560000000000008,-0.1498179266557074
-0.22660000000000008,-0.1498179266557074
-0.22760000000000008,-0.1501008689156804
-0.22860000000000008,-0.1503838111756534
-0.22960000000000008,-0.15052528230563988
-0.23060000000000008,-0.15052528230563988
-0.23160000000000008,-0.15052528230563988
-0.23260000000000008,-0.1508082245656129
-0.23360000000000009,-0.1509496956955994
-0.2346000000000001,-0.1512326379555724
-0.2356000000000001,-0.1512326379555724
-0.2366000000000001,-0.1513741090855589
-0.2376000000000001,-0.15151558021554543
-0.2386000000000001,-0.15179852247551845
-0.2396000000000001,-0.15193999360550495
-0.2406000000000001,-0.15208146473549145
-0.2416000000000001,-0.15208146473549145
-0.2426000000000001,-0.15236440699546444
-0.2436000000000001,-0.15278882038542396
-0.2446000000000001,-0.15293029151541046
-0.2456000000000001,-0.15307176264539696
-0.2466000000000001,-0.15321323377538346
-0.2476000000000001,-0.15335470490536995
-0.2486000000000001,-0.15377911829532948
-0.2496000000000001,-0.1540620605553025
-0.2506000000000001,-0.154203531685289
-0.2516000000000001,-0.15448647394526202
-0.2526000000000001,-0.15462794507524852
-0.2536000000000001,-0.155052358465208
-0.2546000000000001,-0.1551938295951945
-0.2556000000000001,-0.155335300725181
-0.2566000000000001,-0.155335300725181
-0.2576000000000001,-0.15561824298515403
-0.2586000000000001,-0.15604265637511353
-0.2596000000000001,-0.15632559863508652
-0.2606000000000001,-0.15660854089505957
-0.2616000000000001,-0.15675001202504607
-0.2626000000000001,-0.15689148315503257
-0.2636000000000001,-0.15731589654499206
-0.2646000000000001,-0.15774030993495158
-0.2656000000000001,-0.15774030993495158
-0.2666000000000001,-0.15788178106493808
-0.2676000000000001,-0.15816472332491108
-0.2686000000000001,-0.1585891367148706
-0.2696000000000001,-0.1587306078448571
-0.2706000000000001,-0.15915502123481662
-0.2716000000000001,-0.15943796349478964
-0.2726000000000001,-0.15943796349478964
-0.2736000000000001,-0.16000384801473563
-0.2746000000000001,-0.16042826140469515
-0.2756000000000001,-0.16056973253468165
-0.2766000000000001,-0.16056973253468165
-0.2776000000000001,-0.16113561705462764
-0.2786000000000001,-0.16141855931460067
-0.2796000000000001,-0.1615600304445872
-0.2806000000000001,-0.1618429727045602
-0.28160000000000013,-0.1618429727045602
-0.28260000000000013,-0.1619844438345467
-0.28360000000000013,-0.1625503283544927
-0.2846,-0.1626917994844792
-0.2856,-0.1626917994844792
-0.2866,-0.1629747417444522
-0.2876,-0.16325768400442522
-0.2886,-0.16354062626439822
-0.2896,-0.16396503965435774
-0.2906,-0.16396503965435774
-0.2916,-0.16396503965435774
-0.2926,-0.16438945304431726
-0.2936,-0.16495533756426325
-0.29460000000000003,-0.16495533756426325
-0.29560000000000003,-0.16509680869424978
-0.29660000000000003,-0.16537975095422278
-0.29760000000000003,-0.1656626932141958
-0.29860000000000003,-0.1659456354741688
-0.29960000000000003,-0.16637004886412832
-0.30060000000000003,-0.1667944622540878
-0.30160000000000003,-0.1666529911241013
-0.30260000000000004,-0.1669359333840743
-0.30360000000000004,-0.16750181790402036
-0.30460000000000004,-0.16806770242396638
-0.30560000000000004,-0.16835064468393937
-0.30660000000000004,-0.16849211581392587
-0.30760000000000004,-0.16905800033387192
-0.30860000000000004,-0.1693409425938449
-0.30960000000000004,-0.1697653559838044
-0.31060000000000004,-0.17004829824377743
-0.31160000000000004,-0.17033124050375043
-0.31260000000000004,-0.17075565389370992
-0.31360000000000005,-0.17146300954364244
-0.31460000000000005,-0.17160448067362896
-0.31560000000000005,-0.17202889406358848
-0.31660000000000005,-0.17245330745354798
-0.31760000000000005,-0.173019191973494
-0.31860000000000005,-0.173302134233467
-0.31960000000000005,-0.17443390327335903
-0.32060000000000005,-0.17485831666331855
-0.32160000000000005,-0.17514125892329155
-0.32260000000000005,-0.17584861457322407
-0.32360000000000005,-0.17641449909317006
-0.32460000000000006,-0.1774047970030756
-0.32560000000000006,-0.17811215265300812
-0.32660000000000006,-0.17853656604296764
-0.32760000000000006,-0.17896097943292713
-0.32860000000000006,-0.17980980621284617
-0.32960000000000006,-0.1808001041227517
-0.33060000000000006,-0.18094157525273818
-0.33160000000000006,-0.18136598864269768
-0.33260000000000006,-0.18193187316264373
-0.33360000000000006,-0.18278069994256274
-0.33460000000000006,-0.18362952672248176
-0.33560000000000006,-0.18419541124242778
-0.33660000000000007,-0.1847612957623738
-0.33760000000000007,-0.18532718028231981
-0.33860000000000007,-0.1861760070622388
-0.33960000000000007,-0.18716630497214437
-0.34060000000000007,-0.18759071836210386
-0.34160000000000007,-0.18815660288204988
-0.34260000000000007,-0.1890054296619689
-0.34360000000000007,-0.18971278531190142
-0.3446000000000001,-0.19042014096183393
-0.3456000000000001,-0.19098602548177993
-0.3466000000000001,-0.19169338113171247
-0.34759999999999996,-0.19254220791163149
-0.3486000000000001,-0.193249563561564
-0.34959999999999997,-0.19395691921149652
-0.3506000000000001,-0.19466427486142904
-0.35159999999999997,-0.19523015938137506
-0.3526000000000001,-0.19607898616129407
-0.35359999999999997,-0.19692781294121312
-0.3546000000000001,-0.1976351685911456
-0.35559999999999997,-0.19834252424107812
-0.3566000000000001,-0.19890840876102414
-0.3576,-0.19947429328097016
-0.3586000000000001,-0.20032312006088918
-0.3596,-0.2008890045808352
-0.3606000000000001,-0.20131341797079472
-0.3616,-0.20187930249074074
-0.3626000000000001,-0.20258665814067325
-0.3636,-0.20315254266061927
-0.3646000000000001,-0.2038598983105518
-0.3656,-0.20456725396048434
-0.3666000000000001,-0.20499166735044383
-0.3676,-0.20541608074040332
-0.3686000000000001,-0.20612343639033584
-0.3696,-0.20711373430024138
-0.3706000000000001,-0.2075381476902009
-0.3716,-0.2078210899501739
-0.3726000000000001,-0.2082455033401334
-0.3736,-0.2089528589900659
-0.3746000000000001,-0.20951874351001196
-0.3756,-0.20980168576998495
-0.3766000000000001,-0.21036757028993097
-0.3776,-0.21079198367989047
-0.3786000000000001,-0.2116408104598095
-0.3796,-0.211782281589796
-0.3806000000000001,-0.2116408104598095
-0.3816,-0.212065223849769
-0.3826000000000001,-0.21277257949970152
-0.3836,-0.21362140627962053
-0.3846000000000001,-0.21447023305953958
-0.3856,-0.2153190598394586
-0.3866000000000001,-0.2160264154893911
-0.3876,-0.21630935774936413
-0.3886000000000001,-0.21687524226931013
-0.3896,-0.21744112678925615
-0.3906000000000001,-0.21758259791924262
-0.3916,-0.21786554017921567
-0.3926000000000001,-0.21857289582914816
-0.3936,-0.2192802514790807
-0.3946000000000001,-0.21970466486904017
-0.3956,-0.2198461359990267
-0.3966000000000001,-0.22012907825899972
-0.3976,-0.22055349164895924
-0.3986000000000001,-0.22097790503891873
-0.3996,-0.22154378955886472
-0.4006000000000001,-0.22196820294882427
-0.4016,-0.2228170297287433
-0.4026000000000001,-0.22409026989862182
-0.4036,-0.22522203893851384
-0.4046000000000001,-0.22635380797840585
-0.4056,-0.2270611636283384
-0.40660000000000013,-0.2273441058883114
-0.4076,-0.22805146153824393
-0.40860000000000013,-0.22918323057813594
-0.4096,-0.22989058622806843
-0.41060000000000013,-0.23031499961802795
-0.4116,-0.2307394130079875
-0.41260000000000013,-0.231729710917893
-0.4136,-0.23328589334774452
-0.41460000000000014,-0.23484207577759608
-0.4156,-0.23526648916755558
-0.41660000000000014,-0.2359738448174881
-0.4176,-0.23696414272739363
-0.41860000000000014,-0.23809591176728565
-0.41960000000000003,-0.2385203251572452
-0.42060000000000014,-0.23908620967719119
-0.42160000000000003,-0.2399350364571102
-0.42260000000000014,-0.24149121888696176
-0.42360000000000003,-0.24191563227692126
-0.42460000000000014,-0.2429059301868268
-0.42560000000000003,-0.2437547569667458
-0.42660000000000015,-0.24474505487665132
-0.42760000000000004,-0.24587682391654336
-0.42860000000000015,-0.24672565069646235
-0.42960000000000004,-0.24785741973635445
-0.43060000000000015,-0.24927213103621945
-0.43160000000000004,-0.250545371206098
-0.43260000000000015,-0.2521015536359495
-0.43360000000000004,-0.2537992071957876
-0.43460000000000015,-0.25563833188561214
-0.43560000000000004,-0.2560627452755716
-0.43660000000000015,-0.2554968607556256
-0.43760000000000004,-0.25592127414558513
-0.43860000000000016,-0.25634568753554465
