Potential V vs RHE, Current mA cm-2
0.05339999999999995,2.3201265317786604
0.05239999999999995,2.228170297287433
0.051399999999999946,2.11782281589796
0.050399999999999945,2.0187930249074073
0.049399999999999944,1.9296662130159101
0.04839999999999994,1.847612957623738
0.04739999999999994,1.772633258730891
0.04639999999999994,1.700482982437774
0.04539999999999994,1.6325768400442524
0.04439999999999994,1.5675001202504606
0.04339999999999994,1.505252823056399
0.04239999999999994,1.4458349484620676
0.04139999999999994,1.3876903140376144
0.040399999999999936,1.3312433331729996
0.039399999999999935,1.2764940058682226
0.038399999999999934,1.2233008609932974
0.03739999999999993,1.1719468408081963
0.03639999999999993,1.1225734164429066
0.03539999999999993,1.0737658765975628
0.03439999999999993,1.0259486346621245
0.03339999999999993,0.9801119885464974
0.03239999999999993,0.9352656403407758
0.03139999999999993,0.8914095900449596
0.030399999999999927,0.8481194242690895
0.029399999999999926,0.8052536718831789
0.028399999999999925,0.7640855730571063
0.027399999999999924,0.7241907144009123
0.026399999999999924,0.6845787980046913
0.025399999999999923,0.6455327661284163
0.024399999999999922,0.6071940899020738
0.02339999999999992,0.5698457115856368
0.02239999999999992,0.5336291023090919
0.02139999999999992,0.4978369064225064
0.020399999999999918,0.46232765279589394
0.019399999999999917,0.4273842836892276
0.018399999999999916,0.3932897413624802
0.017399999999999916,0.36046843920561134
0.016399999999999915,0.32764713704874243
0.015399999999999914,0.2952502482818331
0.014399999999999913,0.2639851285548159
0.013399999999999912,0.232578537697812
0.012399999999999911,0.20202077362072723
0.01139999999999991,0.17217036519357498
0.01039999999999991,0.1423199567664227
0.009399999999999908,0.11313446265020698
0.008399999999999908,0.08444411748894404
0.007399999999999907,0.056673334672593376
0.006399999999999906,0.029284523907206258
0.005399999999999905,0.0015590118524512703
0.004399999999999904,-0.02547895051056931
0.003399999999999903,-0.05160866821907654
0.002399999999999902,-0.07758276768459862
0.0013999999999999013,-0.10309001242116521
0.00039999999999990044,-0.12868213983572377
-0.0006000000000001005,-0.15377911829532948
-0.0016000000000001013,-0.17782921039303512
-0.0026000000000001022,-0.20202077362072723
-0.003600000000000103,-0.22592939458844638
-0.004600000000000104,-0.24955507329619245
-0.005600000000000105,-0.2728978097439656
-0.006600000000000106,-0.2952502482818331
-0.007600000000000107,-0.3176026868197007
-0.008600000000000108,-0.3395307119676088
-0.009600000000000108,-0.3613172659855304
-0.01060000000000011,-0.38338676226342494
-0.01160000000000011,-0.404465960631414
-0.012600000000000111,-0.42596957238936256
-0.013600000000000112,-0.4470487707573516
-0.014600000000000113,-0.46756208460539456
-0.015600000000000114,-0.48793392732345114
-0.016600000000000115,-0.5074569432615886
-0.017600000000000116,-0.5265555458097667
-0.018600000000000116,-0.5457956194879312
-0.019600000000000117,-0.5651771642960822
-0.020600000000000118,-0.5844172379742467
-0.02160000000000012,-0.6030914271324651
-0.02260000000000012,-0.6209167895107646
-0.02360000000000012,-0.6390250941490371
-0.024600000000000122,-0.6571333987873096
-0.025600000000000123,-0.6753831745555685
-0.026600000000000124,-0.6930670658038814
-0.027600000000000124,-0.7101850725322485
-0.028600000000000125,-0.7271616081306289
-0.029600000000000126,-0.7448454993789418
-0.030600000000000127,-0.7615390927173492
-0.03160000000000013,-0.7782326860557566
-0.03260000000000013,-0.7945018660042045
-0.03360000000000013,-0.8104881036926795
-0.03460000000000002,-0.8270402259011005
-0.03560000000000002,-0.8433094058495484
-0.03660000000000002,-0.8590127012780503
-0.03760000000000002,-0.8744330544465793
-0.03860000000000002,-0.8897119364851216
-0.039600000000000024,-0.905273760783637
-0.040600000000000025,-0.9209770562121388
-0.041600000000000026,-0.9355485826007488
-0.04260000000000003,-0.9502615801193451
-0.04360000000000003,-0.9646916353779685
-0.04460000000000003,-0.9795461040265513
-0.04560000000000003,-0.9945420438051207
-0.04660000000000003,-1.008406214543798
-0.04760000000000003,-1.022411856412462
-0.04860000000000003,-1.036417498281126
-0.04960000000000003,-1.0502816690198031
-0.050600000000000034,-1.06457025314844
-0.051600000000000035,-1.0781514816271445
-0.052600000000000036,-1.0911668255859028
-0.053600000000000037,-1.1047480540646073
-0.05460000000000004,-1.118187811413325
-0.05560000000000004,-1.1316275687620427
-0.05660000000000004,-1.1447843838507878
-0.05760000000000004,-1.1572338432895999
-0.05860000000000004,-1.1702491872483582
-0.05960000000000004,-1.1832645312071168
-0.06060000000000004,-1.195996932905902
-0.061600000000000044,-1.2087293346046872
-0.06260000000000004,-1.2210373229135134
-0.06360000000000005,-1.233628253482312
-0.06460000000000005,-1.2463606551810973
-0.06560000000000005,-1.2585271723599365
-0.06660000000000005,-1.270693689538776
-0.06760000000000005,-1.2824357933276558
-0.06860000000000005,-1.2938949548565624
-0.06960000000000005,-1.3063444142953748
-0.07060000000000005,-1.3183694603442275
-0.07160000000000005,-1.329970093003121
-0.07260000000000005,-1.3414292545320279
-0.07360000000000005,-1.3530298871909212
-0.07460000000000006,-1.3649134621097874
-0.07560000000000006,-1.3765140947686807
-0.07660000000000006,-1.387548842907628
-0.07760000000000006,-1.3987250621765617
-0.07860000000000006,-1.409759810315509
-0.07960000000000006,-1.421784856364362
-0.08060000000000006,-1.433102546763282
-0.08160000000000006,-1.4430055258623373
-0.08260000000000006,-1.4543232162612578
-0.08360000000000006,-1.4656409066601779
-0.08460000000000006,-1.4755438857592333
-0.08560000000000006,-1.4868615761581534
-0.08660000000000007,-1.498179266557074
-0.08760000000000007,-1.5080822456561291
-0.08860000000000007,-1.5193999360550492
-0.08960000000000007,-1.5293029151541047
-0.09060000000000007,-1.540620605553025
-0.09160000000000007,-1.55052358465208
-0.09260000000000007,-1.5604265637511354
-0.09360000000000007,-1.5703295428501907
-0.09460000000000007,-1.5816472332491107
-0.09560000000000007,-1.5915502123481662
-0.09660000000000007,-1.6028679027470865
-0.09760000000000008,-1.612770881846142
-0.09860000000000008,-1.6226738609451972
-0.09960000000000008,-1.6325768400442524
-0.10060000000000008,-1.6424798191433077
-0.10160000000000008,-1.6523827982423631
-0.10260000000000008,-1.6622857773414181
-0.10360000000000008,-1.6721887564404734
-0.10460000000000008,-1.6835064468393939
-0.10560000000000008,-1.6919947146385839
-0.10660000000000008,-1.701897693737639
-0.10760000000000008,-1.7118006728366943
-0.10860000000000009,-1.7217036519357498
-0.10960000000000009,-1.7316066310348048
-0.11060000000000009,-1.7415096101338603
-0.11160000000000009,-1.7499978779330503
-0.11260000000000009,-1.7599008570321055
-0.11360000000000009,-1.769803836131161
-0.11460000000000009,-1.779706815230216
-0.11560000000000009,-1.7910245056291363
-0.11660000000000009,-1.7995127734283267
-0.1176000000000001,-1.8094157525273817
-0.1186000000000001,-1.8179040203265722
-0.1196000000000001,-1.8278069994256272
-0.1206000000000001,-1.8377099785246829
-0.1216000000000001,-1.8461982463238729
-0.1226000000000001,-1.8561012254229279
-0.1236000000000001,-1.8645894932221183
-0.1246000000000001,-1.8744924723211736
-0.1256000000000001,-1.884395451420229
-0.1266000000000001,-1.892883719219419
-0.1276000000000001,-1.9027866983184742
-0.1286000000000001,-1.9112749661176645
-0.1296000000000001,-1.92117794521672
-0.1306000000000001,-1.9310809243157752
-0.1316000000000001,-1.9395691921149654
-0.1326000000000001,-1.9480574599141556
-0.1336000000000001,-1.9565457277133458
-0.1346000000000001,-1.9664487068124006
-0.1356000000000001,-1.9763516859114565
-0.1366000000000001,-1.9848399537106465
-0.1376000000000001,-1.993328221509837
-0.1386000000000001,-2.0032312006088917
-0.1396000000000001,-2.011719468408082
-0.1406000000000001,-2.0216224475071374
-0.14160000000000011,-2.0315254266061924
-0.14260000000000012,-2.040013694405383
-0.14360000000000012,-2.048501962204573
-0.14460000000000012,-2.0584049413036287
-0.14560000000000012,-2.0683079204026833
-0.14660000000000012,-2.076796188201874
-0.14760000000000012,-2.085284456001064
-0.14860000000000012,-2.0937727238002544
-0.14960000000000012,-2.10367570289931
-0.15060000000000012,-2.113578681998365
-0.15160000000000012,-2.122066949797555
-0.15260000000000012,-2.1305552175967453
-0.15360000000000013,-2.1404581966958003
-0.15460000000000013,-2.150361175794856
-0.15560000000000013,-2.158849443594046
-0.15660000000000013,-2.1687524226931014
-0.15760000000000013,-2.177240690492291
-0.15860000000000013,-2.1857289582914814
-0.15960000000000002,-2.1956319373905373
-0.16060000000000002,-2.205534916489592
-0.16160000000000002,-2.2140231842887825
-0.16260000000000002,-2.2239261633878376
-0.16360000000000002,-2.2324144311870278
-0.16460000000000002,-2.2423174102860832
-0.16560000000000002,-2.2522203893851382
-0.16660000000000003,-2.263538079784059
-0.16760000000000003,-2.272026347583249
-0.16860000000000003,-2.2819293266823037
-0.16960000000000003,-2.2904175944814944
-0.17060000000000003,-2.3003205735805494
-0.17160000000000003,-2.30880884137974
-0.17260000000000003,-2.3172971091789303
-0.17360000000000003,-2.3272000882779853
-0.17460000000000003,-2.3356883560771755
-0.17560000000000003,-2.3455913351762305
-0.17660000000000003,-2.355494314275286
-0.17760000000000004,-2.3639825820744766
-0.17860000000000004,-2.3738855611735317
-0.17960000000000004,-2.383788540272587
-0.18060000000000004,-2.392276808071777
-0.18160000000000004,-2.4021797871708324
-0.18260000000000004,-2.4106680549700226
-0.18360000000000004,-2.420571034069078
-0.18460000000000004,-2.430474013168133
-0.18560000000000004,-2.4403769922671885
-0.18660000000000004,-2.4502799713662435
-0.18760000000000004,-2.4587682391654337
-0.18860000000000005,-2.468671218264489
-0.18960000000000005,-2.4785741973635442
-0.19060000000000005,-2.4884771764625997
-0.19160000000000005,-2.4983801555616547
-0.19260000000000005,-2.50828313466071
-0.19360000000000005,-2.5167714024599
-0.19460000000000005,-2.5280890928588207
-0.19560000000000005,-2.5379920719578757
-0.19660000000000005,-2.546480339757066
-0.19760000000000005,-2.5563833188561214
-0.19860000000000005,-2.5662862979551764
-0.19960000000000006,-2.576189277054232
-0.20060000000000006,-2.587506967453152
-0.20160000000000006,-2.5959952352523423
-0.20260000000000006,-2.6058982143513973
-0.20360000000000006,-2.615801193450453
-0.20460000000000006,-2.6257041725495083
-0.20560000000000006,-2.637021862948428
-0.20660000000000006,-2.6469248420474836
-0.20760000000000006,-2.655413109846674
-0.20860000000000006,-2.666730800245594
-0.20960000000000006,-2.6766337793446495
-0.21060000000000006,-2.6879514697435702
-0.21160000000000007,-2.697854448842625
-0.21260000000000007,-2.706342716641815
-0.21360000000000007,-2.7176604070407357
-0.21460000000000007,-2.7275633861397908
-0.21560000000000007,-2.738881076538711
-0.21660000000000007,-2.7487840556377665
-0.21760000000000007,-2.7601017460366863
-0.21860000000000007,-2.770004725135742
-0.21960000000000007,-2.7799077042347973
-0.22060000000000007,-2.791225394633717
-0.22160000000000007,-2.8011283737327726
-0.22260000000000008,-2.8124460641316933
-0.22360000000000008,-2.822349043230748
-0.22460000000000008,-2.833666733629668
-0.22560000000000008,-2.843569712728724
-0.22660000000000008,-2.8534726918277786
-0.22760000000000008,-2.864790382226699
-0.22860000000000008,-2.874693361325755
-0.22960000000000008,-2.8860110517246746
-0.23060000000000008,-2.897328742123595
-0.23160000000000008,-2.9072317212226504
-0.23260000000000008,-2.9185494116215707
-0.23360000000000009,-2.9284523907206257
-0.2346000000000001,-2.9397700811195464
-0.2356000000000001,-2.9510877715184667
-0.2366000000000001,-2.9609907506175217
-0.2376000000000001,-2.972308441016442
-0.2386000000000001,-2.9836261314153627
-0.2396000000000001,-2.9935291105144173
-0.2406000000000001,-3.006261512213203
-0.2416000000000001,-3.0161644913122583
-0.2426000000000001,-3.0274821817111786
-0.2436000000000001,-3.0387998721100984
-0.2446000000000001,-3.050117562509019
-0.2456000000000001,-3.0614352529079394
-0.2466000000000001,-3.0727529433068597
-0.2476000000000001,-3.082655922405915
-0.2486000000000001,-3.0939736128048354
-0.2496000000000001,-3.1052913032037557
-0.2506000000000001,-3.1180237049025408
-0.2516000000000001,-3.129341395301461
-0.2526000000000001,-3.1392443744005165
-0.2536000000000001,-3.150562064799437
-0.2546000000000001,-3.1632944664982214
-0.2556000000000001,-3.174612156897142
-0.2566000000000001,-3.1859298472960624
-0.2576000000000001,-3.1972475376949827
-0.2586000000000001,-3.208565228093903
-0.2596000000000001,-3.2198829184928233
-0.2606000000000001,-3.232615320191609
-0.2616000000000001,-3.243933010590529
-0.2626000000000001,-3.2552507009894494
-0.2636000000000001,-3.2665683913883696
-0.2646000000000001,-3.279300793087155
-0.2656000000000001,-3.2920331947859403
-0.2666000000000001,-3.303350885184861
-0.2676000000000001,-3.316083286883646
-0.2686000000000001,-3.3274009772825663
-0.2696000000000001,-3.3401333789813514
-0.2706000000000001,-3.351451069380272
-0.2716000000000001,-3.3641834710790572
-0.2726000000000001,-3.3755011614779775
-0.2736000000000001,-3.386818851876898
-0.2746000000000001,-3.3995512535756833
-0.2756000000000001,-3.4108689439746036
-0.2766000000000001,-3.4236013456733887
-0.2776000000000001,-3.434919036072309
-0.2786000000000001,-3.4462367264712297
-0.2796000000000001,-3.4589691281700143
-0.2806000000000001,-3.4717015298688
-0.28160000000000013,-3.4830192202677206
-0.28260000000000013,-3.4957516219665052
-0.28360000000000013,-3.507069312365426
-0.2846,-3.5183870027643462
-0.2856,-3.5311194044631313
-0.2866,-3.543851806161917
-0.2876,-3.555169496560837
-0.2886,-3.566487186959758
-0.2896,-3.579219588658543
-0.2906,-3.591951990357328
-0.2916,-3.6046843920561136
-0.2926,-3.6160020824550334
-0.2936,-3.6287344841538194
-0.29460000000000003,-3.641466885852605
-0.29560000000000003,-3.6541992875513896
-0.29660000000000003,-3.666931689250175
-0.29760000000000003,-3.678249379649095
-0.29860000000000003,-3.690981781347881
-0.29960000000000003,-3.7037141830466664
-0.30060000000000003,-3.716446584745451
-0.30160000000000003,-3.7291789864442366
-0.30260000000000004,-3.7419113881430217
-0.30360000000000004,-3.7532290785419424
-0.30460000000000004,-3.765961480240728
-0.30560000000000004,-3.7786938819395126
-0.30660000000000004,-3.7928409949381634
-0.30760000000000004,-3.8041586853370832
-0.30860000000000004,-3.8168910870358688
-0.30960000000000004,-3.8296234887346547
-0.31060000000000004,-3.84235589043344
-0.31160000000000004,-3.8565030034320897
-0.31260000000000004,-3.86782069383101
-0.31360000000000005,-3.8805530955297955
-0.31460000000000005,-3.8932854972285815
-0.31560000000000005,-3.9074326102272314
-0.31660000000000005,-3.9201650119260174
-0.31760000000000005,-3.932897413624801
-0.31860000000000005,-3.945629815323587
-0.31960000000000005,-3.9597769283222375
-0.32060000000000005,-3.973924041320888
-0.32160000000000005,-3.986656443019674
-0.32260000000000005,-3.999388844718459
-0.32360000000000005,-4.0121212464172435
-0.32460000000000006,-4.024853648116029
-0.32560000000000006,-4.03900076111468
-0.32660000000000006,-4.051733162813465
-0.32760000000000006,-4.0644655645122505
-0.32860000000000006,-4.078612677510901
-0.32960000000000006,-4.091345079209686
-0.33060000000000006,-4.105492192208336
-0.33160000000000006,-4.118224593907121
-0.33260000000000006,-4.130956995605907
-0.33360000000000006,-4.145104108604558
-0.33460000000000006,-4.157836510303343
-0.33560000000000006,-4.171983623301993
-0.33660000000000007,-4.186130736300643
-0.33760000000000007,-4.198863137999429
-0.33860000000000007,-4.211595539698214
-0.33960000000000007,-4.225742652696865
-0.34060000000000007,-4.239889765695515
-0.34160000000000007,-4.2526221673943
-0.34260000000000007,-4.265354569093086
-0.34360000000000007,-4.279501682091736
-0.3446000000000001,-4.2936487950903865
-0.3456000000000001,-4.307795908089036
-0.3466000000000001,-4.3205283097878215
-0.34759999999999996,-4.334675422786473
-0.3486000000000001,-4.347407824485257
-0.34959999999999997,-4.361554937483908
-0.3506000000000001,-4.375702050482558
-0.35159999999999997,-4.389849163481209
-0.3526000000000001,-4.402581565179994
-0.35359999999999997,-4.416728678178644
-0.3546000000000001,-4.430875791177296
-0.35559999999999997,-4.445022904175945
-0.3566000000000001,-4.459170017174596
-0.3576,-4.473317130173245
-0.3586000000000001,-4.487464243171897
-0.3596,-4.501611356170546
-0.3606000000000001,-4.515758469169198
-0.3616,-4.529905582167847
-0.3626000000000001,-4.544052695166498
-0.3636,-4.558199808165148
-0.3646000000000001,-4.572346921163798
-0.3656,-4.586494034162449
-0.3666000000000001,-4.6020558584609645
-0.3676,-4.6162029714596144
-0.3686000000000001,-4.630350084458265
-0.3696,-4.644497197456915
-0.3706000000000001,-4.658644310455566
-0.3716,-4.6742061347540815
-0.3726000000000001,-4.688353247752731
-0.3736,-4.702500360751382
-0.3746000000000001,-4.716647473750032
-0.3756,-4.732209298048548
-0.3766000000000001,-4.7463564110471985
-0.3776,-4.760503524045848
-0.3786000000000001,-4.774650637044499
-0.3796,-4.790212461343015
-0.3806000000000001,-4.80577428564153
-0.3816,-4.819921398640179
-0.3826000000000001,-4.835483222938696
-0.3836,-4.849630335937346
-0.3846000000000001,-4.865192160235861
-0.3856,-4.880753984534377
-0.3866000000000001,-4.894901097533027
-0.3876,-4.910462921831542
-0.3886000000000001,-4.926024746130058
-0.3896,-4.941586570428573
-0.3906000000000001,-4.955733683427223
-0.3916,-4.971295507725738
-0.3926000000000001,-4.986857332024254
-0.3936,-5.002419156322769
-0.3946000000000001,-5.017980980621284
-0.3956,-5.0335428049198
-0.3966000000000001,-5.0491046292183155
-0.3976,-5.06466645351683
-0.3986000000000001,-5.080228277815347
-0.3996,-5.095790102113861
-0.4006000000000001,-5.111351926412377
-0.4016,-5.126913750710893
-0.4026000000000001,-5.143890286309273
-0.4036,-5.158037399307924
-0.4046000000000001,-5.175013934906304
-0.4056,-5.190575759204819
-0.40660000000000013,-5.2075522948032
-0.4076,-5.223114119101715
-0.40860000000000013,-5.2386759434002315
-0.4096,-5.255652478998611
-0.41060000000000013,-5.272629014596992
-0.4116,-5.288190838895507
-0.41260000000000013,-5.303752663194023
-0.4136,-5.320729198792402
-0.41460000000000014,-5.337705734390783
-0.4156,-5.354682269989163
-0.41660000000000014,-5.371658805587544
-0.4176,-5.38722062988606
-0.41860000000000014,-5.40419716548444
-0.41960000000000003,-5.421173701082821
-0.42060000000000014,-5.438150236681202
-0.42160000000000003,-5.4551267722795815
-0.42260000000000014,-5.473518019177827
-0.42360000000000003,-5.490494554776207
-0.42460000000000014,-5.507471090374587
-0.42560000000000003,-5.524447625972968
-0.42660000000000015,-5.542838872871213
-0.42760000000000004,-5.5598154084695945
-0.42860000000000015,-5.576791944067974
-0.42960000000000004,-5.59518319096622
-0.43060000000000015,-5.613574437864465
-0.43160000000000004,-5.631965684762711
-0.43260000000000015,-5.648942220361092
-0.43360000000000004,-5.667333467259336
-0.43460000000000015,-5.685724714157582
-0.43560000000000004,-5.704115961055828
-0.43660000000000015,-5.722507207954074
-0.43760000000000004,-5.740898454852318
-0.43860000000000016,-5.759289701750564
-0.43960000000000005,-5.779095659948675
-0.44060000000000016,-5.7974869068469195
-0.44160000000000005,-5.817292865045031
-0.44260000000000016,-5.8356841119432765
-0.44360000000000005,-5.855490070141387
-0.44460000000000016,-5.873881317039633
-0.44560000000000005,-5.893687275237743
-0.44660000000000016,-5.913493233435854
-0.44760000000000005,-5.933299191633965
-0.44860000000000017,-5.953105149832074
-0.44960000000000006,-5.9729111080301855
-0.45060000000000017,-5.99413177752816
-0.45160000000000006,-6.01393773572627
-0.45260000000000017,-6.033743693924381
-0.45360000000000006,-6.053549652122491
