Potential V vs RHE, Current mA cm-2
0.4132999999999999,0.005053348763117911
0.4122999999999999,0.0029086464325225156
0.4112999999999999,0.0019919135102099716
0.4102999999999999,0.0014812027309586936
0.4092999999999999,0.0011112557260439864
0.4082999999999999,0.0008000192400736783
0.4072999999999999,0.0004818506687340315
0.4062999999999999,0.00017613155683319706
0.4052999999999999,-6.253023945403462e-05
0.4042999999999999,-0.00026214600386499133
0.4032999999999999,-0.00045058554900701415
0.4022999999999999,-0.0006766564147254471
0.4012999999999999,-0.0008832042645057424
0.4002999999999999,-0.001042359285740559
0.3992999999999999,-0.0011860939538068467
0.3982999999999999,-0.001352181060411002
0.3972999999999999,-0.0014854468648582886
0.3962999999999999,-0.0016863358694391237
0.3952999999999999,-0.001813659886426977
0.3942999999999999,-0.0019183485226169897
0.39329999999999987,-0.0020315254266061924
0.39229999999999987,-0.0021659230000933708
0.39129999999999987,-0.0023286147995778507
0.39029999999999987,-0.0024177416114693475
0.38929999999999987,-0.0024898918877624644
0.38829999999999987,-0.0026030687917516677
0.38729999999999987,-0.0026992691601424898
0.38629999999999987,-0.0028322520223298033
0.38529999999999986,-0.0029411847924194112
0.38429999999999986,-0.0029864555540150923
0.38329999999999986,-0.003079826499806185
0.38229999999999986,-0.0031675386003978175
0.38129999999999986,-0.0032991067512852653
0.38029999999999986,-0.003398136542275818
0.37929999999999986,-0.003454724994270419
0.37829999999999986,-0.0035141428688647506
0.37729999999999986,-0.003620246216354629
0.37629999999999986,-0.0037263495638445066
0.37529999999999986,-0.0038041586853370833
0.37429999999999986,-0.00384235589043344
0.37329999999999985,-0.003918750300626152
0.37229999999999985,-0.004007877112517649
0.37129999999999985,-0.004098418635709011
0.37029999999999985,-0.004180471891101184
0.36929999999999985,-0.004208766117098485
0.36829999999999985,-0.004254036878694165
0.36729999999999985,-0.004343163690585663
0.36629999999999985,-0.004446437615475811
0.36529999999999985,-0.0045030260674704115
0.36429999999999985,-0.004538393849967038
0.36329999999999985,-0.004572346921163798
0.36229999999999984,-0.004638838352257455
0.36129999999999984,-0.004753429967546524
0.36029999999999984,-0.0047987007291422044
0.35929999999999984,-0.004826994955139506
0.35829999999999984,-0.004862362737636131
0.35729999999999984,-0.004930268880029653
0.35629999999999984,-0.005020810403221014
0.35529999999999984,-0.005061837030917102
0.35429999999999984,-0.0050943753908139966
0.35329999999999984,-0.0051240843281111625
0.35229999999999984,-0.005170769801006709
0.35129999999999983,-0.005282531993696047
0.35029999999999983,-0.005303752663194023
0.34929999999999983,-0.005316485064892808
0.34829999999999983,-0.005377317650787005
0.34729999999999983,-0.005466444462678501
0.34629999999999983,-0.005532935893772158
0.34529999999999983,-0.0055654742536690545
0.34429999999999983,-0.005562644831069324
0.3432999999999998,-0.00560650088136514
0.3422999999999998,-0.005668748178559202
0.3412999999999998,-0.005762119124350294
0.3402999999999998,-0.005787583927747865
0.3392999999999998,-0.00580031632944665
0.3382999999999998,-0.0058356841119432765
0.3372999999999998,-0.005871051894439902
0.3362999999999998,-0.005944616882032884
0.3352999999999998,-0.0060068641792269456
0.3342999999999998,-0.0060238407148253265
0.3332999999999998,-0.006026670137425056
0.3322999999999998,-0.006094576279818579
0.3312999999999998,-0.006158238288312504
0.3302999999999998,-0.006203509049908186
0.3292999999999998,-0.006210582606407511
0.3282999999999998,-0.006226144430706026
0.3272999999999998,-0.006296879995699278
0.3262999999999998,-0.00634215075729496
0.3252999999999999,-0.006380347962391316
0.3242999999999999,-0.006401568631889292
0.3232999999999999,-0.006402983343189157
0.3222999999999999,-0.006472304196882543
0.3212999999999999,-0.006551528029674985
0.3202999999999999,-0.00656143100877404
0.3192999999999999,-0.006592554657371071
0.3182999999999999,-0.006613775326869047
0.3172999999999999,-0.006650557820665538
0.3162999999999999,-0.006712805117859599
0.3152999999999999,-0.006734025787357574
0.3142999999999999,-0.00674392876645663
0.3132999999999999,-0.0067609053020550106
0.3122999999999999,-0.006806176063650692
0.3112999999999999,-0.0068853998964431345
0.3102999999999999,-0.006888229319042864
0.3092999999999999,-0.006913694122440434
0.3082999999999999,-0.00693774421453814
0.3072999999999999,-0.0069716972857349
0.3062999999999999,-0.007038188716828557
0.3052999999999999,-0.007069312365425588
0.3042999999999999,-0.007066482942825859
0.3032999999999999,-0.007107509570521945
0.3022999999999999,-0.0071457067756183
0.3012999999999999,-0.007219271763211282
0.3002999999999999,-0.007246151277908719
0.2992999999999999,-0.007207954072812361
0.2982999999999999,-0.007241907144009123
0.2972999999999999,-0.007282933771705209
0.2962999999999999,-0.0073508399140987295
0.2952999999999999,-0.007396110675694412
0.2942999999999999,-0.0073989400982941425
0.2932999999999999,-0.0073890371191950854
0.2922999999999999,-0.007461187395488203
0.2912999999999999,-0.007524849403982131
0.2902999999999999,-0.007553143629979431
0.2892999999999999,-0.0075658760316782165
0.2882999999999999,-0.00755597305257916
0.2872999999999999,-0.0076083173706741666
0.2862999999999999,-0.007663491111368904
0.2852999999999999,-0.007700273605165396
0.2842999999999999,-0.007683297069567014
0.2832999999999999,-0.007718664852063639
0.2822999999999999,-0.007795059262256353
0.2812999999999999,-0.00784457415775163
0.2802999999999999,-0.007868624249849333
0.2792999999999999,-0.007858721270750279
0.2782999999999999,-0.007858721270750279
0.2772999999999999,-0.00790682145494569
0.2762999999999999,-0.007970483463439615
0.2752999999999999,-0.007977557019938943
0.2742999999999999,-0.007990289421637726
0.2732999999999999,-0.008000192400736782
0.2722999999999999,-0.008058195564031248
0.2712999999999999,-0.00812327228382504
0.2702999999999999,-0.008136004685523826
0.2692999999999999,-0.00813176055162423
0.26829999999999987,-0.00814590766462288
0.26729999999999987,-0.008172787179320318
0.26629999999999987,-0.00824069332171384
0.26529999999999987,-0.00826332870251168
0.26429999999999987,-0.008259084568612084
0.26329999999999987,-0.008273231681610736
0.26229999999999987,-0.008321331865806147
0.26129999999999987,-0.008360943782202368
0.26029999999999986,-0.008406214543798049
0.25929999999999986,-0.008394896853399128
0.25829999999999986,-0.008435923481095214
0.25729999999999986,-0.00849109722178995
0.25629999999999986,-0.008553344518984013
0.25529999999999986,-0.008566076920682796
0.25429999999999986,-0.008556173941583742
0.25329999999999986,-0.008554759230283877
0.25229999999999986,-0.008618421238777804
0.25129999999999986,-0.008663692000373483
0.25029999999999986,-0.00868491266987146
0.24929999999999986,-0.008673594979472541
0.24829999999999985,-0.008691986226370785
0.24729999999999985,-0.008733012854066871
0.24629999999999985,-0.008785357172161877
0.24529999999999985,-0.008822139665958368
0.24429999999999985,-0.008840530912856614
0.24329999999999985,-0.008824969088558099
0.24229999999999985,-0.008905607632650405
0.24129999999999985,-0.008965025507244737
0.24029999999999985,-0.008962196084645007
0.23929999999999985,-0.008960781373345144
0.23829999999999985,-0.008966440218544603
0.23729999999999984,-0.009000393289741363
0.23629999999999984,-0.009085275967733264
0.23529999999999984,-0.009076787699934075
0.23429999999999984,-0.009083861256433401
0.23329999999999984,-0.009098008369432052
0.23229999999999984,-0.009143279131027731
0.23129999999999984,-0.009212599984721119
0.23029999999999984,-0.009211185273421255
0.22929999999999984,-0.009218258829920578
0.22829999999999984,-0.009246553055917879
0.22729999999999984,-0.009267773725415856
0.22629999999999983,-0.009338509290409108
0.22529999999999983,-0.009351241692107892
0.22429999999999983,-0.009349826980808027
0.22329999999999983,-0.009363974093806677
0.22229999999999983,-0.009396512453703574
0.22129999999999983,-0.0094601744621975
0.22029999999999983,-0.009489883399494666
0.21929999999999983,-0.009487053976894935
0.21829999999999983,-0.009513933491592371
0.21729999999999983,-0.009536568872390213
0.21629999999999983,-0.009601645592184002
0.21529999999999982,-0.009621451550382114
0.21429999999999982,-0.009620036839082248
0.21329999999999982,-0.00964550164247982
0.21229999999999982,-0.009693601826675231
0.21129999999999982,-0.009728969609171858
0.21029999999999982,-0.009751604989969699
0.20929999999999982,-0.009741702010870643
0.20829999999999982,-0.009760093257768887
0.20729999999999982,-0.00984780535836052
0.20629999999999982,-0.009912882078154312
0.20529999999999982,-0.009907223232954851
0.20429999999999982,-0.009922785057253367
0.20329999999999981,-0.009907223232954851
0.2022999999999998,-0.009973714664048509
0.2012999999999998,-0.010023229559543784
0.20029999999999992,-0.010040206095142164
0.19929999999999992,-0.01002747369344338
0.19829999999999992,-0.010028888404743246
0.19729999999999992,-0.010079818011538386
0.19629999999999992,-0.010153382999131369
0.19529999999999992,-0.010147724153931907
0.19429999999999992,-0.010204312605926509
0.19329999999999992,-0.01024392452232273
0.19229999999999992,-0.010265145191820707
0.19129999999999991,-0.010301927685617196
0.1902999999999999,-0.010314660087315984
0.1892999999999999,-0.010313245376016118
0.1882999999999999,-0.010321733643815306
0.1872999999999999,-0.010365589694111124
0.1862999999999999,-0.010427836991305185
0.1852999999999999,-0.01045754592860235
0.1842999999999999,-0.0104433988156037
0.1832999999999999,-0.010461790062501947
0.1822999999999999,-0.010511304957997222
0.1812999999999999,-0.010567893409991824
0.1802999999999999,-0.010584869945590204
0.1792999999999999,-0.010562234564792364
0.1782999999999999,-0.010587699368189934
0.1772999999999999,-0.010645702531484402
0.1762999999999999,-0.010689558581780218
0.1752999999999999,-0.010709364539978328
0.1742999999999999,-0.01069946156087927
0.1732999999999999,-0.010722096941677113
0.1722999999999999,-0.010773026548472254
0.1712999999999999,-0.010814053176168343
0.1702999999999999,-0.010831029711766721
0.1692999999999999,-0.010850835669964832
0.1682999999999999,-0.010879129895962132
0.1672999999999999,-0.010934303636656869
0.1662999999999999,-0.010989477377351606
0.1652999999999999,-0.010988062666051741
0.1642999999999999,-0.011012112758149445
0.1632999999999999,-0.01099938035645066
0.1622999999999999,-0.011061627653644723
0.1612999999999999,-0.011119630816939188
0.1602999999999999,-0.011129533796038244
0.1592999999999999,-0.011130948507338109
0.15829999999999989,-0.011156413310735679
0.15729999999999988,-0.01118753695933271
0.15629999999999988,-0.011286566750323261
0.15529999999999988,-0.011292225595522723
0.15429999999999988,-0.011292225595522723
0.15329999999999988,-0.011331837511918944
0.15229999999999988,-0.011371449428315167
0.15129999999999988,-0.011442184993308417
0.15029999999999988,-0.011440770282008551
0.14929999999999988,-0.011459161528906798
0.14829999999999988,-0.011480382198404773
0.14729999999999988,-0.011517164692201263
0.14629999999999987,-0.011573753144195864
0.14529999999999987,-0.011596388524993706
0.14429999999999987,-0.01159214439109411
0.14329999999999987,-0.01161760919449168
0.14229999999999987,-0.011701077161183718
0.14129999999999987,-0.011725127253281424
0.14029999999999987,-0.01175766561317832
0.13929999999999987,-0.011744933211479534
0.13829999999999987,-0.01176898330357724
0.13729999999999987,-0.011834060023371031
0.13629999999999987,-0.011897722031864958
0.13529999999999986,-0.011935919236961313
0.13429999999999986,-0.01192601625786226
0.13329999999999986,-0.011947236927360235
0.13229999999999986,-0.012008069513254432
0.13129999999999986,-0.012042022584451192
0.13029999999999986,-0.012071731521748359
0.12929999999999986,-0.012087293346046874
0.12829999999999986,-0.012074560944348087
0.12729999999999986,-0.012143881798041475
0.12629999999999986,-0.012206129095235538
0.12529999999999986,-0.012220276208234187
0.12429999999999986,-0.012240082166432296
0.12329999999999985,-0.012249985145531354
0.12229999999999985,-0.012306573597525955
0.12129999999999985,-0.01237306502861961
0.12029999999999985,-0.012371650317319745
0.11929999999999985,-0.012391456275517855
0.11829999999999985,-0.012401359254616912
0.11729999999999985,-0.012456532995311648
0.11629999999999985,-0.012525853849005035
0.11529999999999985,-0.012525853849005035
0.11429999999999985,-0.012540000962003686
0.11329999999999985,-0.012565465765401256
0.11229999999999984,-0.012619224794796127
0.11129999999999984,-0.012695619204988838
0.11029999999999984,-0.01270410747278803
0.10929999999999984,-0.012716839874486815
0.10829999999999984,-0.012739475255284655
0.10729999999999984,-0.012793234284679527
0.10629999999999984,-0.012849822736674128
0.10529999999999984,-0.012883775807870888
0.10429999999999984,-0.012888019941770485
0.10329999999999984,-0.01291489945646792
0.10229999999999984,-0.012955926084164005
0.10129999999999983,-0.013028076360457124
0.10029999999999983,-0.013052126452554828
0.09929999999999983,-0.013056370586454424
0.09829999999999983,-0.013084664812451725
0.09729999999999983,-0.013161059222644435
0.09629999999999983,-0.013217647674639038
0.09529999999999983,-0.013236038921537283
0.09429999999999983,-0.013237453632837147
0.09329999999999983,-0.013251600745835798
0.09229999999999983,-0.013329409867328374
0.09129999999999983,-0.013405804277521088
0.09029999999999982,-0.013424195524419334
0.08929999999999982,-0.013442586771317579
0.08829999999999982,-0.013460978018215825
0.08729999999999982,-0.013526054738009618
0.08629999999999982,-0.013576984344804758
0.08529999999999982,-0.013605278570802059
0.08429999999999982,-0.013629328662899764
0.08329999999999982,-0.013630743374199627
0.08229999999999982,-0.013717040763491397
0.08129999999999982,-0.013787776328484647
0.08029999999999982,-0.013789191039784512
0.07929999999999982,-0.013818899977081677
0.07829999999999981,-0.013840120646579654
0.07729999999999981,-0.013908026788973175
0.07629999999999981,-0.013998568312164537
0.07529999999999992,-0.01401554484776292
0.07429999999999992,-0.014022618404262242
0.07329999999999992,-0.014070718588457654
0.07229999999999992,-0.014125892329152392
0.07129999999999992,-0.014203701450644968
0.07029999999999992,-0.014217848563643616
0.06929999999999992,-0.014203701450644968
0.06829999999999992,-0.01424614278964092
0.06729999999999992,-0.01427443701563822
0.06629999999999991,-0.014359319693630123
0.06529999999999991,-0.014415908145624722
0.06429999999999991,-0.014401761032626074
0.06329999999999991,-0.014444202371622025
0.06229999999999991,-0.014500790823616624
0.06129999999999991,-0.014571526388609878
0.06029999999999991,-0.014599820614607179
0.05929999999999991,-0.014599820614607179
0.05829999999999991,-0.01465640906660178
0.05729999999999991,-0.01469885040559773
0.056299999999999906,-0.014783733083589632
0.055299999999999905,-0.014812027309586936
0.054299999999999904,-0.014797880196588285
0.0532999999999999,-0.014854468648582884
0.0522999999999999,-0.014925204213576137
0.0512999999999999,-0.014981792665570736
0.0502999999999999,-0.01501008689156804
0.0492999999999999,-0.01503838111756534
0.0482999999999999,-0.015080822456561293
0.0472999999999999,-0.015151558021554544
0.0462999999999999,-0.015222293586547794
0.045299999999999896,-0.015250587812545097
0.044299999999999895,-0.015264734925543746
0.043299999999999894,-0.015278882038542396
0.04229999999999989,-0.015349617603535646
0.04129999999999989,-0.015406206055530251
0.04029999999999989,-0.01546279450752485
0.03929999999999989,-0.015491088733522153
0.03829999999999989,-0.015491088733522153
0.03729999999999989,-0.015575971411514053
0.03629999999999989,-0.015646706976507305
0.03529999999999989,-0.015632559863508654
0.034299999999999886,-0.015675001202504608
0.033299999999999885,-0.01568914831550326
0.032299999999999884,-0.01573158965449921
0.031299999999999883,-0.01585891367148706
0.030299999999999883,-0.01584476655848841
0.02929999999999988,-0.015873060784485714
0.02829999999999988,-0.01591550212348166
0.02729999999999988,-0.015986237688474913
0.02629999999999988,-0.016056973253468165
0.025299999999999878,-0.01608526747946547
0.024299999999999877,-0.016099414592464115
0.023299999999999876,-0.016127708818461418
0.022299999999999875,-0.01618429727045602
0.021299999999999875,-0.016269179948447923
0.020299999999999874,-0.016311621287443873
0.019299999999999873,-0.016325768400442524
0.018299999999999872,-0.016368209739438477
0.01729999999999987,-0.016438945304431726
0.01629999999999987,-0.01648138664342768
0.01529999999999987,-0.016537975095422278
0.014299999999999868,-0.016552122208420932
0.013299999999999867,-0.01659456354741688
0.012299999999999978,-0.01666529911241013
0.011299999999999866,-0.01673603467740338
0.010299999999999976,-0.016750181790402035
0.009299999999999864,-0.016792623129397985
0.008299999999999974,-0.01683506446839394
0.007299999999999862,-0.01691994714638584
0.006299999999999972,-0.01697653559838044
0.00529999999999986,-0.017004829824377742
0.0042999999999999705,-0.01703312405037504
0.0032999999999998586,-0.017047271163373692
0.0022999999999999687,-0.017146300954364244
0.0012999999999998568,-0.017217036519357496
0.00029999999999996696,-0.0172453307453548
-0.000700000000000145,-0.017273624971352097
-0.0017000000000000348,-0.01731606631034805
-0.0027000000000001467,-0.017400948988339954
-0.0037000000000000366,-0.01748583166633185
-0.0047000000000001485,-0.017499978779330502
-0.005700000000000038,-0.017514125892329157
-0.00670000000000015,-0.017556567231325104
-0.00770000000000004,-0.017627302796318356
-0.008700000000000152,-0.01769803836131161
-0.009700000000000042,-0.01771218547431026
-0.010700000000000154,-0.01776877392630486
-0.011700000000000044,-0.01781121526530081
-0.012700000000000156,-0.017867803717295416
-0.013700000000000045,-0.017952686395287316
-0.014700000000000157,-0.017980980621284618
-0.015700000000000047,-0.017980980621284618
-0.01670000000000016,-0.01803756907327922
-0.01770000000000005,-0.018094157525273817
-0.01870000000000016,-0.01817904020326572
-0.01970000000000005,-0.01820733442926302
-0.020700000000000163,-0.018221481542261674
-0.021700000000000053,-0.018263922881257624
-0.022700000000000164,-0.018348805559249524
-0.023700000000000054,-0.018405394011244126
-0.024700000000000166,-0.018433688237241428
-0.025700000000000056,-0.018447835350240076
-0.026700000000000168,-0.01849027668923603
-0.027700000000000058,-0.018575159367227933
-0.02870000000000017,-0.018645894932221182
-0.02970000000000006,-0.018674189158218484
-0.03070000000000017,-0.018702483384215783
-0.03170000000000006,-0.018730777610213082
-0.03270000000000017,-0.018815660288204986
-0.03370000000000006,-0.01891469007919554
-0.034700000000000175,-0.01892883719219419
-0.035700000000000065,-0.018957131418191494
-0.03670000000000018,-0.018999572757187444
-0.03770000000000007,-0.019070308322180696
-0.03870000000000018,-0.019126896774175294
-0.03970000000000007,-0.019141043887173945
-0.04070000000000018,-0.019197632339168547
-0.04170000000000007,-0.019211779452167198
-0.04270000000000018,-0.019310809243157753
-0.04370000000000007,-0.019395691921149656
-0.044700000000000184,-0.0194098390341483
-0.045700000000000074,-0.019438133260145606
-0.046700000000000186,-0.019466427486142905
-0.047700000000000076,-0.019523015938137503
-0.04870000000000019,-0.019607898616129407
-0.04970000000000008,-0.01963619284212671
-0.05070000000000019,-0.01965033995512536
-0.05170000000000008,-0.01970692840711996
-0.05270000000000019,-0.019791811085111865
-0.05370000000000008,-0.019848399537106463
-0.05470000000000019,-0.019890840876102416
-0.05570000000000008,-0.019904987989101064
-0.056700000000000195,-0.019947429328097017
-0.057700000000000085,-0.020018164893090266
-0.058700000000000196,-0.02008890045808352
-0.059700000000000086,-0.02011719468408082
-0.0607000000000002,-0.02011719468408082
-0.06170000000000009,-0.02020207736207272
