Aug. 5, 2024   06:12:02
Cyclic Voltammetry
File: c:/users/guazh/data/20240802_batch_500/2024-08-02-exp23\exp23-2024-08-05t05_52_31-h2koh\exp23_cv_sr_600mvs_efin_-1700mv.bin
Data Source:  Experiment
Instrument Model:  CHI760E
Header: CV ran at 600 mVs
Note: 

Init E (V) = -1
High E (V) = -1
Low E (V) = -1.7
Final E (V) = -1
Init P/N = N
Scan Rate (V/s) = 0.6
Segment = 3
Sample Interval (V) = 0.001
Quiet Time (sec) = 2
Sensitivity (A/V) = 0.01
Comp R (ohm) = 2.0

Results:

Channel 1:
Segment 1:

Segment 2:

Segment 3:

Potential/V, Current/A

-1.000, 1.557e-5
-1.001, 4.024e-5
-1.002, 5.257e-5
-1.003, 6.182e-5
-1.004, 6.798e-5
-1.005, 7.107e-5
-1.006, 7.723e-5
-1.007, 8.032e-5
-1.008, 8.032e-5
-1.009, 8.032e-5
-1.010, 8.340e-5
-1.011, 8.032e-5
-1.012, 8.340e-5
-1.013, 8.340e-5
-1.014, 8.648e-5
-1.015, 8.957e-5
-1.016, 8.957e-5
-1.017, 8.957e-5
-1.018, 9.265e-5
-1.019, 8.957e-5
-1.020, 8.957e-5
-1.021, 8.957e-5
-1.022, 8.957e-5
-1.023, 8.957e-5
-1.024, 9.265e-5
-1.025, 9.573e-5
-1.026, 9.573e-5
-1.027, 9.573e-5
-1.028, 9.573e-5
-1.029, 9.573e-5
-1.030, 9.265e-5
-1.031, 9.265e-5
-1.032, 9.265e-5
-1.033, 9.573e-5
-1.034, 9.573e-5
-1.035, 9.573e-5
-1.036, 9.882e-5
-1.037, 9.882e-5
-1.038, 9.882e-5
-1.039, 9.573e-5
-1.040, 9.573e-5
-1.041, 9.573e-5
-1.042, 9.573e-5
-1.043, 9.573e-5
-1.044, 9.882e-5
-1.045, 9.882e-5
-1.046, 1.019e-4
-1.047, 9.882e-5
-1.048, 9.882e-5
-1.049, 9.882e-5
-1.050, 9.882e-5
-1.051, 9.573e-5
-1.052, 9.573e-5
-1.053, 9.882e-5
-1.054, 9.882e-5
-1.055, 1.019e-4
-1.056, 1.019e-4
-1.057, 1.019e-4
-1.058, 1.019e-4
-1.059, 9.882e-5
-1.060, 9.882e-5
-1.061, 9.573e-5
-1.062, 9.882e-5
-1.063, 9.882e-5
-1.064, 9.882e-5
-1.065, 1.019e-4
-1.066, 1.019e-4
-1.067, 1.019e-4
-1.068, 1.019e-4
-1.069, 9.882e-5
-1.070, 9.882e-5
-1.071, 9.882e-5
-1.072, 9.882e-5
-1.073, 9.882e-5
-1.074, 9.882e-5
-1.075, 1.019e-4
-1.076, 1.050e-4
-1.077, 1.019e-4
-1.078, 1.019e-4
-1.079, 1.019e-4
-1.080, 1.019e-4
-1.081, 9.882e-5
-1.082, 9.882e-5
-1.083, 9.882e-5
-1.084, 1.019e-4
-1.085, 1.019e-4
-1.086, 1.050e-4
-1.087, 1.019e-4
-1.088, 1.019e-4
-1.089, 1.019e-4
-1.090, 1.019e-4
-1.091, 9.882e-5
-1.092, 9.882e-5
-1.093, 1.019e-4
-1.094, 1.019e-4
-1.095, 1.050e-4
-1.096, 1.050e-4
-1.097, 1.019e-4
-1.098, 1.050e-4
-1.099, 1.019e-4
-1.100, 1.019e-4
-1.101, 9.882e-5
-1.102, 1.019e-4
-1.103, 1.019e-4
-1.104, 1.019e-4
-1.105, 1.050e-4
-1.106, 1.050e-4
-1.107, 1.050e-4
-1.108, 1.050e-4
-1.109, 1.019e-4
-1.110, 1.019e-4
-1.111, 1.019e-4
-1.112, 1.019e-4
-1.113, 1.019e-4
-1.114, 1.019e-4
-1.115, 1.050e-4
-1.116, 1.050e-4
-1.117, 1.050e-4
-1.118, 1.050e-4
-1.119, 1.050e-4
-1.120, 1.019e-4
-1.121, 1.019e-4
-1.122, 1.019e-4
-1.123, 1.019e-4
-1.124, 1.050e-4
-1.125, 1.050e-4
-1.126, 1.081e-4
-1.127, 1.050e-4
-1.128, 1.050e-4
-1.129, 1.050e-4
-1.130, 1.050e-4
-1.131, 1.019e-4
-1.132, 1.019e-4
-1.133, 1.050e-4
-1.134, 1.050e-4
-1.135, 1.081e-4
-1.136, 1.081e-4
-1.137, 1.081e-4
-1.138, 1.050e-4
-1.139, 1.050e-4
-1.140, 1.050e-4
-1.141, 1.019e-4
-1.142, 1.050e-4
-1.143, 1.050e-4
-1.144, 1.050e-4
-1.145, 1.081e-4
-1.146, 1.081e-4
-1.147, 1.081e-4
-1.148, 1.081e-4
-1.149, 1.081e-4
-1.150, 1.050e-4
-1.151, 1.050e-4
-1.152, 1.050e-4
-1.153, 1.081e-4
-1.154, 1.081e-4
-1.155, 1.081e-4
-1.156, 1.111e-4
-1.157, 1.111e-4
-1.158, 1.111e-4
-1.159, 1.081e-4
-1.160, 1.081e-4
-1.161, 1.081e-4
-1.162, 1.081e-4
-1.163, 1.081e-4
-1.164, 1.111e-4
-1.165, 1.111e-4
-1.166, 1.142e-4
-1.167, 1.111e-4
-1.168, 1.111e-4
-1.169, 1.111e-4
-1.170, 1.111e-4
-1.171, 1.081e-4
-1.172, 1.111e-4
-1.173, 1.111e-4
-1.174, 1.111e-4
-1.175, 1.142e-4
-1.176, 1.142e-4
-1.177, 1.142e-4
-1.178, 1.142e-4
-1.179, 1.142e-4
-1.180, 1.142e-4
-1.181, 1.111e-4
-1.182, 1.142e-4
-1.183, 1.142e-4
-1.184, 1.142e-4
-1.185, 1.173e-4
-1.186, 1.173e-4
-1.187, 1.173e-4
-1.188, 1.173e-4
-1.189, 1.173e-4
-1.190, 1.173e-4
-1.191, 1.142e-4
-1.192, 1.173e-4
-1.193, 1.173e-4
-1.194, 1.173e-4
-1.195, 1.204e-4
-1.196, 1.235e-4
-1.197, 1.204e-4
-1.198, 1.235e-4
-1.199, 1.204e-4
-1.200, 1.204e-4
-1.201, 1.204e-4
-1.202, 1.204e-4
-1.203, 1.204e-4
-1.204, 1.235e-4
-1.205, 1.235e-4
-1.206, 1.266e-4
-1.207, 1.266e-4
-1.208, 1.266e-4
-1.209, 1.266e-4
-1.210, 1.266e-4
-1.211, 1.235e-4
-1.212, 1.266e-4
-1.213, 1.266e-4
-1.214, 1.296e-4
-1.215, 1.327e-4
-1.216, 1.327e-4
-1.217, 1.327e-4
-1.218, 1.327e-4
-1.219, 1.327e-4
-1.220, 1.327e-4
-1.221, 1.296e-4
-1.222, 1.327e-4
-1.223, 1.327e-4
-1.224, 1.358e-4
-1.225, 1.358e-4
-1.226, 1.389e-4
-1.227, 1.389e-4
-1.228, 1.389e-4
-1.229, 1.389e-4
-1.230, 1.389e-4
-1.231, 1.389e-4
-1.232, 1.389e-4
-1.233, 1.420e-4
-1.234, 1.420e-4
-1.235, 1.451e-4
-1.236, 1.481e-4
-1.237, 1.481e-4
-1.238, 1.481e-4
-1.239, 1.481e-4
-1.240, 1.451e-4
-1.241, 1.481e-4
-1.242, 1.481e-4
-1.243, 1.481e-4
-1.244, 1.512e-4
-1.245, 1.543e-4
-1.246, 1.574e-4
-1.247, 1.574e-4
-1.248, 1.574e-4
-1.249, 1.574e-4
-1.250, 1.574e-4
-1.251, 1.574e-4
-1.252, 1.574e-4
-1.253, 1.605e-4
-1.254, 1.636e-4
-1.255, 1.636e-4
-1.256, 1.666e-4
-1.257, 1.666e-4
-1.258, 1.697e-4
-1.259, 1.666e-4
-1.260, 1.697e-4
-1.261, 1.697e-4
-1.262, 1.697e-4
-1.263, 1.728e-4
-1.264, 1.759e-4
-1.265, 1.759e-4
-1.266, 1.790e-4
-1.267, 1.790e-4
-1.268, 1.790e-4
-1.269, 1.821e-4
-1.270, 1.821e-4
-1.271, 1.821e-4
-1.272, 1.851e-4
-1.273, 1.851e-4
-1.274, 1.882e-4
-1.275, 1.913e-4
-1.276, 1.944e-4
-1.277, 1.944e-4
-1.278, 1.944e-4
-1.279, 1.975e-4
-1.280, 1.975e-4
-1.281, 1.975e-4
-1.282, 1.975e-4
-1.283, 2.006e-4
-1.284, 2.036e-4
-1.285, 2.067e-4
-1.286, 2.098e-4
-1.287, 2.098e-4
-1.288, 2.129e-4
-1.289, 2.129e-4
-1.290, 2.129e-4
-1.291, 2.129e-4
-1.292, 2.160e-4
-1.293, 2.191e-4
-1.294, 2.221e-4
-1.295, 2.252e-4
-1.296, 2.283e-4
-1.297, 2.283e-4
-1.298, 2.314e-4
-1.299, 2.314e-4
-1.300, 2.314e-4
-1.301, 2.314e-4
-1.302, 2.345e-4
-1.303, 2.376e-4
-1.304, 2.406e-4
-1.305, 2.437e-4
-1.306, 2.468e-4
-1.307, 2.499e-4
-1.308, 2.499e-4
-1.309, 2.499e-4
-1.310, 2.530e-4
-1.311, 2.530e-4
-1.312, 2.561e-4
-1.313, 2.591e-4
-1.314, 2.622e-4
-1.315, 2.653e-4
-1.316, 2.684e-4
-1.317, 2.715e-4
-1.318, 2.746e-4
-1.319, 2.746e-4
-1.320, 2.746e-4
-1.321, 2.776e-4
-1.322, 2.807e-4
-1.323, 2.807e-4
-1.324, 2.869e-4
-1.325, 2.900e-4
-1.326, 2.931e-4
-1.327, 2.961e-4
-1.328, 2.961e-4
-1.329, 2.992e-4
-1.330, 3.023e-4
-1.331, 3.023e-4
-1.332, 3.054e-4
-1.333, 3.085e-4
-1.334, 3.115e-4
-1.335, 3.146e-4
-1.336, 3.208e-4
-1.337, 3.208e-4
-1.338, 3.239e-4
-1.339, 3.270e-4
-1.340, 3.300e-4
-1.341, 3.300e-4
-1.342, 3.331e-4
-1.343, 3.362e-4
-1.344, 3.424e-4
-1.345, 3.455e-4
-1.346, 3.485e-4
-1.347, 3.516e-4
-1.348, 3.547e-4
-1.349, 3.578e-4
-1.350, 3.609e-4
-1.351, 3.609e-4
-1.352, 3.640e-4
-1.353, 3.670e-4
-1.354, 3.732e-4
-1.355, 3.763e-4
-1.356, 3.825e-4
-1.357, 3.825e-4
-1.358, 3.855e-4
-1.359, 3.886e-4
-1.360, 3.917e-4
-1.361, 3.948e-4
-1.362, 3.948e-4
-1.363, 4.010e-4
-1.364, 4.040e-4
-1.365, 4.102e-4
-1.366, 4.133e-4
-1.367, 4.164e-4
-1.368, 4.195e-4
-1.369, 4.225e-4
-1.370, 4.256e-4
-1.371, 4.287e-4
-1.372, 4.318e-4
-1.373, 4.349e-4
-1.374, 4.380e-4
-1.375, 4.441e-4
-1.376, 4.503e-4
-1.377, 4.534e-4
-1.378, 4.565e-4
-1.379, 4.595e-4
-1.380, 4.626e-4
-1.381, 4.657e-4
-1.382, 4.688e-4
-1.383, 4.719e-4
-1.384, 4.780e-4
-1.385, 4.842e-4
-1.386, 4.873e-4
-1.387, 4.935e-4
-1.388, 4.965e-4
-1.389, 4.996e-4
-1.390, 5.027e-4
-1.391, 5.027e-4
-1.392, 5.058e-4
-1.393, 5.120e-4
-1.394, 5.181e-4
-1.395, 5.243e-4
-1.396, 5.305e-4
-1.397, 5.335e-4
-1.398, 5.366e-4
-1.399, 5.397e-4
-1.400, 5.428e-4
-1.401, 5.459e-4
-1.402, 5.489e-4
-1.403, 5.551e-4
-1.404, 5.613e-4
-1.405, 5.644e-4
-1.406, 5.705e-4
-1.407, 5.767e-4
-1.408, 5.798e-4
-1.409, 5.829e-4
-1.410, 5.890e-4
-1.411, 5.890e-4
-1.412, 5.952e-4
-1.413, 5.983e-4
-1.414, 6.044e-4
-1.415, 6.106e-4
-1.416, 6.168e-4
-1.417, 6.199e-4
-1.418, 6.229e-4
-1.419, 6.260e-4
-1.420, 6.322e-4
-1.421, 6.353e-4
-1.422, 6.384e-4
-1.423, 6.445e-4
-1.424, 6.507e-4
-1.425, 6.569e-4
-1.426, 6.630e-4
-1.427, 6.661e-4
-1.428, 6.723e-4
-1.429, 6.784e-4
-1.430, 6.815e-4
-1.431, 6.846e-4
-1.432, 6.908e-4
-1.433, 6.939e-4
-1.434, 7.000e-4
-1.435, 7.062e-4
-1.436, 7.154e-4
-1.437, 7.185e-4
-1.438, 7.247e-4
-1.439, 7.278e-4
-1.440, 7.309e-4
-1.441, 7.339e-4
-1.442, 7.401e-4
-1.443, 7.463e-4
-1.444, 7.524e-4
-1.445, 7.586e-4
-1.446, 7.648e-4
-1.447, 7.709e-4
-1.448, 7.771e-4
-1.449, 7.802e-4
-1.450, 7.863e-4
-1.451, 7.894e-4
-1.452, 7.956e-4
-1.453, 8.018e-4
-1.454, 8.079e-4
-1.455, 8.141e-4
-1.456, 8.203e-4
-1.457, 8.264e-4
-1.458, 8.326e-4
-1.459, 8.388e-4
-1.460, 8.449e-4
-1.461, 8.480e-4
-1.462, 8.542e-4
-1.463, 8.603e-4
-1.464, 8.665e-4
-1.465, 8.758e-4
-1.466, 8.819e-4
-1.467, 8.881e-4
-1.468, 8.943e-4
-1.469, 8.973e-4
-1.470, 9.035e-4
-1.471, 9.097e-4
-1.472, 9.158e-4
-1.473, 9.220e-4
-1.474, 9.282e-4
-1.475, 9.374e-4
-1.476, 9.467e-4
-1.477, 9.498e-4
-1.478, 9.590e-4
-1.479, 9.652e-4
-1.480, 9.713e-4
-1.481, 9.744e-4
-1.482, 9.837e-4
-1.483, 9.898e-4
-1.484, 9.991e-4
-1.485, 1.005e-3
-1.486, 1.014e-3
-1.487, 1.021e-3
-1.488, 1.030e-3
-1.489, 1.036e-3
-1.490, 1.042e-3
-1.491, 1.048e-3
-1.492, 1.055e-3
-1.493, 1.064e-3
-1.494, 1.073e-3
-1.495, 1.079e-3
-1.496, 1.088e-3
-1.497, 1.098e-3
-1.498, 1.104e-3
-1.499, 1.110e-3
-1.500, 1.119e-3
-1.501, 1.122e-3
-1.502, 1.132e-3
-1.503, 1.141e-3
-1.504, 1.150e-3
-1.505, 1.156e-3
-1.506, 1.166e-3
-1.507, 1.175e-3
-1.508, 1.184e-3
-1.509, 1.190e-3
-1.510, 1.199e-3
-1.511, 1.206e-3
-1.512, 1.212e-3
-1.513, 1.221e-3
-1.514, 1.230e-3
-1.515, 1.240e-3
-1.516, 1.252e-3
-1.517, 1.258e-3
-1.518, 1.267e-3
-1.519, 1.277e-3
-1.520, 1.286e-3
-1.521, 1.292e-3
-1.522, 1.301e-3
-1.523, 1.310e-3
-1.524, 1.323e-3
-1.525, 1.335e-3
-1.526, 1.344e-3
-1.527, 1.354e-3
-1.528, 1.366e-3
-1.529, 1.372e-3
-1.530, 1.384e-3
-1.531, 1.391e-3
-1.532, 1.400e-3
-1.533, 1.409e-3
-1.534, 1.421e-3
-1.535, 1.431e-3
-1.536, 1.443e-3
-1.537, 1.455e-3
-1.538, 1.465e-3
-1.539, 1.477e-3
-1.540, 1.486e-3
-1.541, 1.492e-3
-1.542, 1.505e-3
-1.543, 1.517e-3
-1.544, 1.529e-3
-1.545, 1.542e-3
-1.546, 1.554e-3
-1.547, 1.563e-3
-1.548, 1.579e-3
-1.549, 1.588e-3
-1.550, 1.597e-3
-1.551, 1.610e-3
-1.552, 1.619e-3
-1.553, 1.634e-3
-1.554, 1.647e-3
-1.555, 1.659e-3
-1.556, 1.674e-3
-1.557, 1.687e-3
-1.558, 1.699e-3
-1.559, 1.711e-3
-1.560, 1.721e-3
-1.561, 1.733e-3
-1.562, 1.745e-3
-1.563, 1.758e-3
-1.564, 1.773e-3
-1.565, 1.785e-3
-1.566, 1.801e-3
-1.567, 1.813e-3
-1.568, 1.825e-3
-1.569, 1.838e-3
-1.570, 1.850e-3
-1.571, 1.862e-3
-1.572, 1.875e-3
-1.573, 1.890e-3
-1.574, 1.906e-3
-1.575, 1.921e-3
-1.576, 1.939e-3
-1.577, 1.952e-3
-1.578, 1.967e-3
-1.579, 1.983e-3
-1.580, 1.995e-3
-1.581, 2.007e-3
-1.582, 2.023e-3
-1.583, 2.035e-3
-1.584, 2.050e-3
-1.585, 2.069e-3
-1.586, 2.084e-3
-1.587, 2.100e-3
-1.588, 2.115e-3
-1.589, 2.131e-3
-1.590, 2.146e-3
-1.591, 2.158e-3
-1.592, 2.171e-3
-1.593, 2.189e-3
-1.594, 2.205e-3
-1.595, 2.220e-3
-1.596, 2.238e-3
-1.597, 2.254e-3
-1.598, 2.269e-3
-1.599, 2.288e-3
-1.600, 2.303e-3
-1.601, 2.316e-3
-1.602, 2.334e-3
-1.603, 2.349e-3
-1.604, 2.368e-3
-1.605, 2.390e-3
-1.606, 2.408e-3
-1.607, 2.427e-3
-1.608, 2.442e-3
-1.609, 2.460e-3
-1.610, 2.479e-3
-1.611, 2.494e-3
-1.612, 2.513e-3
-1.613, 2.528e-3
-1.614, 2.550e-3
-1.615, 2.568e-3
-1.616, 2.587e-3
-1.617, 2.608e-3
-1.618, 2.627e-3
-1.619, 2.645e-3
-1.620, 2.664e-3
-1.621, 2.682e-3
-1.622, 2.701e-3
-1.623, 2.723e-3
-1.624, 2.741e-3
-1.625, 2.763e-3
-1.626, 2.784e-3
-1.627, 2.803e-3
-1.628, 2.824e-3
-1.629, 2.843e-3
-1.630, 2.861e-3
-1.631, 2.880e-3
-1.632, 2.901e-3
-1.633, 2.923e-3
-1.634, 2.945e-3
-1.635, 2.966e-3
-1.636, 2.988e-3
-1.637, 3.012e-3
-1.638, 3.034e-3
-1.639, 3.056e-3
-1.640, 3.077e-3
-1.641, 3.099e-3
-1.642, 3.120e-3
-1.643, 3.142e-3
-1.644, 3.167e-3
-1.645, 3.191e-3
-1.646, 3.213e-3
-1.647, 3.237e-3
-1.648, 3.262e-3
-1.649, 3.284e-3
-1.650, 3.302e-3
-1.651, 3.324e-3
-1.652, 3.348e-3
-1.653, 3.370e-3
-1.654, 3.395e-3
-1.655, 3.419e-3
-1.656, 3.444e-3
-1.657, 3.472e-3
-1.658, 3.496e-3
-1.659, 3.521e-3
-1.660, 3.543e-3
-1.661, 3.564e-3
-1.662, 3.589e-3
-1.663, 3.614e-3
-1.664, 3.641e-3
-1.665, 3.666e-3
-1.666, 3.694e-3
-1.667, 3.718e-3
-1.668, 3.746e-3
-1.669, 3.771e-3
-1.670, 3.795e-3
-1.671, 3.820e-3
-1.672, 3.845e-3
-1.673, 3.873e-3
-1.674, 3.903e-3
-1.675, 3.931e-3
-1.676, 3.962e-3
-1.677, 3.990e-3
-1.678, 4.021e-3
-1.679, 4.048e-3
-1.680, 4.076e-3
-1.681, 4.101e-3
-1.682, 4.128e-3
-1.683, 4.156e-3
-1.684, 4.184e-3
-1.685, 4.215e-3
-1.686, 4.246e-3
-1.687, 4.273e-3
-1.688, 4.304e-3
-1.689, 4.332e-3
-1.690, 4.357e-3
-1.691, 4.381e-3
-1.692, 4.406e-3
-1.693, 4.434e-3
-1.694, 4.464e-3
-1.695, 4.495e-3
-1.696, 4.526e-3
-1.697, 4.557e-3
-1.698, 4.588e-3
-1.699, 4.616e-3
-1.700, 4.612e-3
-1.699, 4.566e-3
-1.698, 4.529e-3
-1.697, 4.495e-3
-1.696, 4.464e-3
-1.695, 4.431e-3
-1.694, 4.400e-3
-1.693, 4.369e-3
-1.692, 4.335e-3
-1.691, 4.301e-3
-1.690, 4.267e-3
-1.689, 4.230e-3
-1.688, 4.193e-3
-1.687, 4.159e-3
-1.686, 4.125e-3
-1.685, 4.091e-3
-1.684, 4.058e-3
-1.683, 4.024e-3
-1.682, 3.987e-3
-1.681, 3.953e-3
-1.680, 3.916e-3
-1.679, 3.882e-3
-1.678, 3.848e-3
-1.677, 3.814e-3
-1.676, 3.783e-3
-1.675, 3.752e-3
-1.674, 3.725e-3
-1.673, 3.694e-3
-1.672, 3.666e-3
-1.671, 3.635e-3
-1.670, 3.607e-3
-1.669, 3.573e-3
-1.668, 3.543e-3
-1.667, 3.512e-3
-1.666, 3.481e-3
-1.665, 3.453e-3
-1.664, 3.422e-3
-1.663, 3.392e-3
-1.662, 3.361e-3
-1.661, 3.330e-3
-1.660, 3.296e-3
-1.659, 3.262e-3
-1.658, 3.231e-3
-1.657, 3.204e-3
-1.656, 3.173e-3
-1.655, 3.145e-3
-1.654, 3.117e-3
-1.653, 3.089e-3
-1.652, 3.062e-3
-1.651, 3.034e-3
-1.650, 3.006e-3
-1.649, 2.975e-3
-1.648, 2.948e-3
-1.647, 2.920e-3
-1.646, 2.895e-3
-1.645, 2.867e-3
-1.644, 2.843e-3
-1.643, 2.818e-3
-1.642, 2.790e-3
-1.641, 2.766e-3
-1.640, 2.738e-3
-1.639, 2.710e-3
-1.638, 2.686e-3
-1.637, 2.661e-3
-1.636, 2.636e-3
-1.635, 2.612e-3
-1.634, 2.590e-3
-1.633, 2.565e-3
-1.632, 2.541e-3
-1.631, 2.519e-3
-1.630, 2.494e-3
-1.629, 2.470e-3
-1.628, 2.445e-3
-1.627, 2.423e-3
-1.626, 2.402e-3
-1.625, 2.377e-3
-1.624, 2.359e-3
-1.623, 2.334e-3
-1.622, 2.312e-3
-1.621, 2.291e-3
-1.620, 2.269e-3
-1.619, 2.245e-3
-1.618, 2.226e-3
-1.617, 2.201e-3
-1.616, 2.183e-3
-1.615, 2.164e-3
-1.614, 2.146e-3
-1.613, 2.124e-3
-1.612, 2.106e-3
-1.611, 2.084e-3
-1.610, 2.063e-3
-1.609, 2.044e-3
-1.608, 2.023e-3
-1.607, 2.004e-3
-1.606, 1.986e-3
-1.605, 1.970e-3
-1.604, 1.955e-3
-1.603, 1.933e-3
-1.602, 1.915e-3
-1.601, 1.896e-3
-1.600, 1.875e-3
-1.599, 1.856e-3
-1.598, 1.838e-3
-1.597, 1.819e-3
-1.596, 1.801e-3
-1.595, 1.785e-3
-1.594, 1.770e-3
-1.593, 1.751e-3
-1.592, 1.736e-3
-1.591, 1.717e-3
-1.590, 1.699e-3
-1.589, 1.684e-3
-1.588, 1.665e-3
-1.587, 1.650e-3
-1.586, 1.634e-3
-1.585, 1.619e-3
-1.584, 1.606e-3
-1.583, 1.588e-3
-1.582, 1.573e-3
-1.581, 1.557e-3
-1.580, 1.542e-3
-1.579, 1.526e-3
-1.578, 1.511e-3
-1.577, 1.495e-3
-1.576, 1.480e-3
-1.575, 1.468e-3
-1.574, 1.452e-3
-1.573, 1.440e-3
-1.572, 1.425e-3
-1.571, 1.409e-3
-1.570, 1.397e-3
-1.569, 1.381e-3
-1.568, 1.366e-3
-1.567, 1.354e-3
-1.566, 1.341e-3
-1.565, 1.329e-3
-1.564, 1.317e-3
-1.563, 1.304e-3
-1.562, 1.292e-3
-1.561, 1.280e-3
-1.560, 1.264e-3
-1.559, 1.249e-3
-1.558, 1.240e-3
-1.557, 1.227e-3
-1.556, 1.215e-3
-1.555, 1.206e-3
-1.554, 1.196e-3
-1.553, 1.184e-3
-1.552, 1.172e-3
-1.551, 1.159e-3
-1.550, 1.147e-3
-1.549, 1.135e-3
-1.548, 1.122e-3
-1.547, 1.110e-3
-1.546, 1.101e-3
-1.545, 1.092e-3
-1.544, 1.082e-3
-1.543, 1.070e-3
-1.542, 1.061e-3
-1.541, 1.048e-3
-1.540, 1.036e-3
-1.539, 1.027e-3
-1.538, 1.014e-3
-1.537, 1.005e-3
-1.536, 9.960e-4
-1.535, 9.868e-4
-1.534, 9.806e-4
-1.533, 9.683e-4
-1.532, 9.590e-4
-1.531, 9.498e-4
-1.530, 9.374e-4
-1.529, 9.282e-4
-1.528, 9.189e-4
-1.527, 9.097e-4
-1.526, 9.004e-4
-1.525, 8.943e-4
-1.524, 8.850e-4
-1.523, 8.788e-4
-1.522, 8.665e-4
-1.521, 8.603e-4
-1.520, 8.480e-4
-1.519, 8.388e-4
-1.518, 8.326e-4
-1.517, 8.233e-4
-1.516, 8.141e-4
-1.515, 8.079e-4
-1.514, 8.018e-4
-1.513, 7.925e-4
-1.512, 7.863e-4
-1.511, 7.740e-4
-1.510, 7.679e-4
-1.509, 7.555e-4
-1.508, 7.494e-4
-1.507, 7.432e-4
-1.506, 7.339e-4
-1.505, 7.278e-4
-1.504, 7.216e-4
-1.503, 7.154e-4
-1.502, 7.062e-4
-1.501, 7.000e-4
-1.500, 6.908e-4
-1.499, 6.815e-4
-1.498, 6.784e-4
-1.497, 6.692e-4
-1.496, 6.630e-4
-1.495, 6.599e-4
-1.494, 6.538e-4
-1.493, 6.476e-4
-1.492, 6.384e-4
-1.491, 6.322e-4
-1.490, 6.260e-4
-1.489, 6.168e-4
-1.488, 6.106e-4
-1.487, 6.044e-4
-1.486, 6.014e-4
-1.485, 5.952e-4
-1.484, 5.890e-4
-1.483, 5.829e-4
-1.482, 5.767e-4
-1.481, 5.674e-4
-1.480, 5.644e-4
-1.479, 5.551e-4
-1.478, 5.489e-4
-1.477, 5.428e-4
-1.476, 5.397e-4
-1.475, 5.366e-4
-1.474, 5.305e-4
-1.473, 5.243e-4
-1.472, 5.212e-4
-1.471, 5.120e-4
-1.470, 5.058e-4
-1.469, 4.996e-4
-1.468, 4.935e-4
-1.467, 4.904e-4
-1.466, 4.842e-4
-1.465, 4.811e-4
-1.464, 4.780e-4
-1.463, 4.719e-4
-1.462, 4.657e-4
-1.461, 4.595e-4
-1.460, 4.534e-4
-1.459, 4.472e-4
-1.458, 4.441e-4
-1.457, 4.380e-4
-1.456, 4.349e-4
-1.455, 4.318e-4
-1.454, 4.287e-4
-1.453, 4.225e-4
-1.452, 4.164e-4
-1.451, 4.133e-4
-1.450, 4.071e-4
-1.449, 4.010e-4
-1.448, 3.979e-4
-1.447, 3.917e-4
-1.446, 3.886e-4
-1.445, 3.855e-4
-1.444, 3.825e-4
-1.443, 3.794e-4
-1.442, 3.732e-4
-1.441, 3.670e-4
-1.440, 3.640e-4
-1.439, 3.578e-4
-1.438, 3.516e-4
-1.437, 3.485e-4
-1.436, 3.455e-4
-1.435, 3.424e-4
-1.434, 3.393e-4
-1.433, 3.331e-4
-1.432, 3.300e-4
-1.431, 3.270e-4
-1.430, 3.208e-4
-1.429, 3.146e-4
-1.428, 3.115e-4
-1.427, 3.085e-4
-1.426, 3.054e-4
-1.425, 3.023e-4
-1.424, 2.992e-4
-1.423, 2.931e-4
-1.422, 2.900e-4
-1.421, 2.869e-4
-1.420, 2.807e-4
-1.419, 2.776e-4
-1.418, 2.715e-4
-1.417, 2.684e-4
-1.416, 2.653e-4
-1.415, 2.653e-4
-1.414, 2.622e-4
-1.413, 2.591e-4
-1.412, 2.561e-4
-1.411, 2.499e-4
-1.410, 2.468e-4
-1.409, 2.406e-4
-1.408, 2.376e-4
-1.407, 2.345e-4
-1.406, 2.314e-4
-1.405, 2.314e-4
-1.404, 2.283e-4
-1.403, 2.252e-4
-1.402, 2.221e-4
-1.401, 2.160e-4
-1.400, 2.129e-4
-1.399, 2.067e-4
-1.398, 2.036e-4
-1.397, 2.006e-4
-1.396, 1.975e-4
-1.395, 1.975e-4
-1.394, 1.975e-4
-1.393, 1.913e-4
-1.392, 1.882e-4
-1.391, 1.851e-4
-1.390, 1.790e-4
-1.389, 1.759e-4
-1.388, 1.728e-4
-1.387, 1.697e-4
-1.386, 1.697e-4
-1.385, 1.666e-4
-1.384, 1.666e-4
-1.383, 1.636e-4
-1.382, 1.605e-4
-1.381, 1.574e-4
-1.380, 1.512e-4
-1.379, 1.481e-4
-1.378, 1.451e-4
-1.377, 1.420e-4
-1.376, 1.389e-4
-1.375, 1.389e-4
-1.374, 1.358e-4
-1.373, 1.327e-4
-1.372, 1.296e-4
-1.371, 1.266e-4
-1.370, 1.235e-4
-1.369, 1.204e-4
-1.368, 1.173e-4
-1.367, 1.142e-4
-1.366, 1.111e-4
-1.365, 1.111e-4
-1.364, 1.111e-4
-1.363, 1.081e-4
-1.362, 1.050e-4
-1.361, 9.882e-5
-1.360, 9.573e-5
-1.359, 9.265e-5
-1.358, 8.957e-5
-1.357, 8.648e-5
-1.356, 8.648e-5
-1.355, 8.648e-5
-1.354, 8.340e-5
-1.353, 8.340e-5
-1.352, 8.032e-5
-1.351, 7.723e-5
-1.350, 7.107e-5
-1.349, 6.798e-5
-1.348, 6.490e-5
-1.347, 6.490e-5
-1.346, 6.490e-5
-1.345, 6.182e-5
-1.344, 6.182e-5
-1.343, 5.873e-5
-1.342, 5.565e-5
-1.341, 5.257e-5
-1.340, 4.949e-5
-1.339, 4.640e-5
-1.338, 4.332e-5
-1.337, 4.024e-5
-1.336, 4.024e-5
-1.335, 4.024e-5
-1.334, 3.715e-5
-1.333, 3.715e-5
-1.332, 3.407e-5
-1.331, 3.099e-5
-1.330, 2.790e-5
-1.329, 2.482e-5
-1.328, 2.174e-5
-1.327, 1.865e-5
-1.326, 1.865e-5
-1.325, 1.865e-5
-1.324, 1.557e-5
-1.323, 1.249e-5
-1.322, 1.249e-5
-1.321, 9.405e-6
-1.320, 6.322e-6
-1.319, 3.239e-6
-1.318, 3.239e-6
-1.317, 1.559e-7
-1.316, 1.559e-7
-1.315, -2.927e-6
-1.314, -2.927e-6
-1.313, -2.927e-6
-1.312, -6.010e-6
-1.311, -9.093e-6
-1.310, -1.218e-5
-1.309, -1.526e-5
-1.308, -1.526e-5
-1.307, -1.834e-5
-1.306, -1.834e-5
-1.305, -1.834e-5
-1.304, -1.834e-5
-1.303, -2.143e-5
-1.302, -2.451e-5
-1.301, -2.451e-5
-1.300, -2.759e-5
-1.299, -3.068e-5
-1.298, -3.376e-5
-1.297, -3.376e-5
-1.296, -3.376e-5
-1.295, -3.684e-5
-1.294, -3.684e-5
-1.293, -3.684e-5
-1.292, -3.992e-5
-1.291, -4.301e-5
-1.290, -4.301e-5
-1.289, -4.609e-5
-1.288, -4.917e-5
-1.287, -4.917e-5
-1.286, -4.917e-5
-1.285, -4.917e-5
-1.284, -4.917e-5
-1.283, -5.226e-5
-1.282, -5.226e-5
-1.281, -5.534e-5
-1.280, -5.842e-5
-1.279, -6.151e-5
-1.278, -6.151e-5
-1.277, -6.459e-5
-1.276, -6.459e-5
-1.275, -6.459e-5
-1.274, -6.459e-5
-1.273, -6.459e-5
-1.272, -6.767e-5
-1.271, -7.076e-5
-1.270, -7.076e-5
-1.269, -7.384e-5
-1.268, -7.384e-5
-1.267, -7.692e-5
-1.266, -7.692e-5
-1.265, -7.692e-5
-1.264, -7.384e-5
-1.263, -7.692e-5
-1.262, -8.000e-5
-1.261, -8.000e-5
-1.260, -8.309e-5
-1.259, -8.617e-5
-1.258, -8.617e-5
-1.257, -8.925e-5
-1.256, -8.617e-5
-1.255, -8.617e-5
-1.254, -8.617e-5
-1.253, -8.925e-5
-1.252, -8.925e-5
-1.251, -9.234e-5
-1.250, -9.234e-5
-1.249, -9.542e-5
-1.248, -9.542e-5
-1.247, -9.850e-5
-1.246, -9.850e-5
-1.245, -9.542e-5
-1.244, -9.542e-5
-1.243, -9.850e-5
-1.242, -9.850e-5
-1.241, -9.850e-5
-1.240, -1.016e-4
-1.239, -1.047e-4
-1.238, -1.047e-4
-1.237, -1.047e-4
-1.236, -1.047e-4
-1.235, -1.047e-4
-1.234, -1.047e-4
-1.233, -1.047e-4
-1.232, -1.078e-4
-1.231, -1.078e-4
-1.230, -1.108e-4
-1.229, -1.108e-4
-1.228, -1.139e-4
-1.227, -1.139e-4
-1.226, -1.139e-4
-1.225, -1.108e-4
-1.224, -1.108e-4
-1.223, -1.139e-4
-1.222, -1.139e-4
-1.221, -1.139e-4
-1.220, -1.170e-4
-1.219, -1.201e-4
-1.218, -1.201e-4
-1.217, -1.201e-4
-1.216, -1.201e-4
-1.215, -1.170e-4
-1.214, -1.170e-4
-1.213, -1.170e-4
-1.212, -1.201e-4
-1.211, -1.201e-4
-1.210, -1.232e-4
-1.209, -1.232e-4
-1.208, -1.232e-4
-1.207, -1.263e-4
-1.206, -1.232e-4
-1.205, -1.232e-4
-1.204, -1.232e-4
-1.203, -1.232e-4
-1.202, -1.232e-4
-1.201, -1.263e-4
-1.200, -1.263e-4
-1.199, -1.293e-4
-1.198, -1.293e-4
-1.197, -1.293e-4
-1.196, -1.293e-4
-1.195, -1.293e-4
-1.194, -1.263e-4
-1.193, -1.293e-4
-1.192, -1.293e-4
-1.191, -1.293e-4
-1.190, -1.324e-4
-1.189, -1.324e-4
-1.188, -1.324e-4
-1.187, -1.324e-4
-1.186, -1.324e-4
-1.185, -1.324e-4
-1.184, -1.293e-4
-1.183, -1.324e-4
-1.182, -1.324e-4
-1.181, -1.324e-4
-1.180, -1.355e-4
-1.179, -1.386e-4
-1.178, -1.386e-4
-1.177, -1.386e-4
-1.176, -1.355e-4
-1.175, -1.355e-4
-1.174, -1.355e-4
-1.173, -1.355e-4
-1.172, -1.355e-4
-1.171, -1.386e-4
-1.170, -1.386e-4
-1.169, -1.417e-4
-1.168, -1.417e-4
-1.167, -1.417e-4
-1.166, -1.386e-4
-1.165, -1.386e-4
-1.164, -1.386e-4
-1.163, -1.386e-4
-1.162, -1.386e-4
-1.161, -1.417e-4
-1.160, -1.417e-4
-1.159, -1.448e-4
-1.158, -1.448e-4
-1.157, -1.448e-4
-1.156, -1.417e-4
-1.155, -1.417e-4
-1.154, -1.417e-4
-1.153, -1.417e-4
-1.152, -1.417e-4
-1.151, -1.448e-4
-1.150, -1.448e-4
-1.149, -1.448e-4
-1.148, -1.448e-4
-1.147, -1.448e-4
-1.146, -1.448e-4
-1.145, -1.448e-4
-1.144, -1.417e-4
-1.143, -1.417e-4
-1.142, -1.448e-4
-1.141, -1.448e-4
-1.140, -1.478e-4
-1.139, -1.478e-4
-1.138, -1.478e-4
-1.137, -1.478e-4
-1.136, -1.478e-4
-1.135, -1.448e-4
-1.134, -1.448e-4
-1.133, -1.448e-4
-1.132, -1.478e-4
-1.131, -1.478e-4
-1.130, -1.478e-4
-1.129, -1.509e-4
-1.128, -1.509e-4
-1.127, -1.509e-4
-1.126, -1.509e-4
-1.125, -1.478e-4
-1.124, -1.478e-4
-1.123, -1.478e-4
-1.122, -1.478e-4
-1.121, -1.509e-4
-1.120, -1.509e-4
-1.119, -1.540e-4
-1.118, -1.540e-4
-1.117, -1.540e-4
-1.116, -1.509e-4
-1.115, -1.509e-4
-1.114, -1.478e-4
-1.113, -1.509e-4
-1.112, -1.509e-4
-1.111, -1.540e-4
-1.110, -1.540e-4
-1.109, -1.571e-4
-1.108, -1.540e-4
-1.107, -1.540e-4
-1.106, -1.540e-4
-1.105, -1.540e-4
-1.104, -1.509e-4
-1.103, -1.540e-4
-1.102, -1.540e-4
-1.101, -1.540e-4
-1.100, -1.571e-4
-1.099, -1.571e-4
-1.098, -1.571e-4
-1.097, -1.571e-4
-1.096, -1.571e-4
-1.095, -1.540e-4
-1.094, -1.540e-4
-1.093, -1.540e-4
-1.092, -1.571e-4
-1.091, -1.571e-4
-1.090, -1.602e-4
-1.089, -1.602e-4
-1.088, -1.602e-4
-1.087, -1.602e-4
-1.086, -1.602e-4
-1.085, -1.602e-4
-1.084, -1.571e-4
-1.083, -1.602e-4
-1.082, -1.571e-4
-1.081, -1.602e-4
-1.080, -1.632e-4
-1.079, -1.632e-4
-1.078, -1.632e-4
-1.077, -1.632e-4
-1.076, -1.632e-4
-1.075, -1.632e-4
-1.074, -1.602e-4
-1.073, -1.632e-4
-1.072, -1.632e-4
-1.071, -1.632e-4
-1.070, -1.663e-4
-1.069, -1.663e-4
-1.068, -1.663e-4
-1.067, -1.694e-4
-1.066, -1.663e-4
-1.065, -1.663e-4
-1.064, -1.632e-4
-1.063, -1.663e-4
-1.062, -1.663e-4
-1.061, -1.663e-4
-1.060, -1.694e-4
-1.059, -1.694e-4
-1.058, -1.694e-4
-1.057, -1.725e-4
-1.056, -1.694e-4
-1.055, -1.694e-4
-1.054, -1.694e-4
-1.053, -1.694e-4
-1.052, -1.694e-4
-1.051, -1.725e-4
-1.050, -1.725e-4
-1.049, -1.756e-4
-1.048, -1.756e-4
-1.047, -1.756e-4
-1.046, -1.756e-4
-1.045, -1.756e-4
-1.044, -1.725e-4
-1.043, -1.756e-4
-1.042, -1.756e-4
-1.041, -1.756e-4
-1.040, -1.787e-4
-1.039, -1.787e-4
-1.038, -1.787e-4
-1.037, -1.817e-4
-1.036, -1.787e-4
-1.035, -1.787e-4
-1.034, -1.787e-4
-1.033, -1.787e-4
-1.032, -1.787e-4
-1.031, -1.817e-4
-1.030, -1.817e-4
-1.029, -1.848e-4
-1.028, -1.879e-4
-1.027, -1.848e-4
-1.026, -1.848e-4
-1.025, -1.848e-4
-1.024, -1.817e-4
-1.023, -1.848e-4
-1.022, -1.848e-4
-1.021, -1.879e-4
-1.020, -1.879e-4
-1.019, -1.910e-4
-1.018, -1.910e-4
-1.017, -1.941e-4
-1.016, -1.910e-4
-1.015, -1.910e-4
-1.014, -1.910e-4
-1.013, -1.910e-4
-1.012, -1.910e-4
-1.011, -1.941e-4
-1.010, -1.941e-4
-1.009, -1.972e-4
-1.008, -1.972e-4
-1.007, -1.972e-4
-1.006, -1.972e-4
-1.005, -1.972e-4
-1.004, -1.972e-4
-1.003, -1.972e-4
-1.002, -1.972e-4
-1.001, -2.002e-4
