Potential V vs RHE, Current mA cm-2
0.05339999999999995,-0.03765961480240728
0.05239999999999995,-0.03891870785928716
0.051399999999999946,-0.03965435773521698
0.050399999999999945,-0.04023438936816164
0.049399999999999944,-0.04077197966211036
0.04839999999999994,-0.04129542284306042
0.04739999999999994,-0.041748130459017235
0.04639999999999994,-0.042186690961975394
0.04539999999999994,-0.04262525146493356
0.04439999999999994,-0.04307795908089037
0.04339999999999994,-0.04353066669684717
0.04239999999999994,-0.04395508008680669
0.04139999999999994,-0.04436534636376756
0.040399999999999936,-0.044775612640728414
0.039399999999999935,-0.04522832025668522
0.038399999999999934,-0.04565273364664474
0.03739999999999993,-0.046062999923605595
0.03639999999999993,-0.0464591190875678
0.03539999999999993,-0.046869385364528664
0.03439999999999993,-0.04732209298048548
0.03339999999999993,-0.04777480059644229
0.03239999999999993,-0.048170919760404496
0.03139999999999993,-0.04859533315036401
0.030399999999999927,-0.04899145231432622
0.029399999999999926,-0.04944415993028303
0.028399999999999925,-0.04986857332024254
0.027399999999999924,-0.05026469248420476
0.026399999999999924,-0.05070325298716292
0.025399999999999923,-0.051127666377122426
0.024399999999999922,-0.051580373993079236
0.02339999999999992,-0.05203308160903605
0.02239999999999992,-0.0524433478859969
0.02139999999999992,-0.05286776127595642
0.020399999999999918,-0.05330632177891458
0.019399999999999917,-0.05375902939487139
0.018399999999999916,-0.054240031236825505
0.017399999999999916,-0.05466444462678501
0.016399999999999915,-0.05510300512974318
0.015399999999999914,-0.055541565632701344
0.014399999999999913,-0.05598012613565951
0.013399999999999912,-0.05648942220361091
0.012399999999999911,-0.05692798270656907
0.01139999999999991,-0.057352396096528584
0.01039999999999991,-0.05781925082548405
0.009399999999999908,-0.05827195844144086
0.008399999999999908,-0.05873881317039633
0.007399999999999907,-0.05919152078635314
0.006399999999999906,-0.059601787063313996
0.005399999999999905,-0.06004034756627216
0.004399999999999904,-0.06053549652122492
0.003399999999999903,-0.06101649836317903
0.002399999999999902,-0.06146920597913584
0.0013999999999999013,-0.06192191359509265
0.00039999999999990044,-0.06241706255004542
-0.0006000000000001005,-0.06292635861799684
-0.0016000000000001013,-0.06337906623395365
-0.0026000000000001022,-0.06386006807590776
-0.003600000000000103,-0.06435521703086051
-0.004600000000000104,-0.06482207175981598
-0.005600000000000105,-0.0653313678277674
-0.006600000000000106,-0.0658406638957188
-0.007600000000000107,-0.06632166573767292
-0.008600000000000108,-0.06680266757962702
-0.009600000000000108,-0.06728366942158114
-0.01060000000000011,-0.06780711260253121
-0.01160000000000011,-0.06833055578348128
-0.012600000000000111,-0.06882570473843404
-0.013600000000000112,-0.0692925594673895
-0.014600000000000113,-0.06978770842234226
-0.015600000000000114,-0.07031115160329232
-0.016600000000000115,-0.07084874189724104
-0.017600000000000116,-0.07130144951319785
-0.018600000000000116,-0.07182489269414791
-0.019600000000000117,-0.07230589453610202
-0.020600000000000118,-0.07280104349105479
-0.02160000000000012,-0.07332448667200485
-0.02260000000000012,-0.07383378273995628
-0.02360000000000012,-0.07432893169490903
-0.024600000000000122,-0.07482408064986179
-0.025600000000000123,-0.07534752383081185
-0.026600000000000124,-0.07587096701176191
-0.027600000000000124,-0.07633782174071738
-0.028600000000000125,-0.07683297069567015
-0.029600000000000126,-0.07734226676362156
-0.030600000000000127,-0.07787985705757026
-0.03160000000000013,-0.07840330023852032
-0.03260000000000013,-0.07888430208047445
-0.03360000000000013,-0.07939359814842585
-0.03460000000000002,-0.07987459999037998
-0.03560000000000002,-0.08036974894533275
-0.03660000000000002,-0.0808931921262828
-0.03760000000000002,-0.08138834108123556
-0.03860000000000002,-0.08188349003618833
-0.039600000000000024,-0.08237863899114109
-0.040600000000000025,-0.0828879350590925
-0.041600000000000026,-0.0833972311270439
-0.04260000000000003,-0.08383579163000207
-0.04360000000000003,-0.0842884992459589
-0.04460000000000003,-0.08478364820091165
-0.04560000000000003,-0.08532123849486037
-0.04660000000000003,-0.08581638744981313
-0.04760000000000003,-0.08631153640476588
-0.04860000000000003,-0.08677839113372135
-0.04960000000000003,-0.08721695163667952
-0.050600000000000034,-0.08771210059163227
-0.051600000000000035,-0.08817895532058774
-0.052600000000000036,-0.08861751582354589
-0.053600000000000037,-0.08908437055250136
-0.05460000000000004,-0.08956537239445547
-0.05560000000000004,-0.09006052134940823
-0.05660000000000004,-0.09052737607836371
-0.05760000000000004,-0.09096593658132186
-0.05860000000000004,-0.09139034997128137
-0.05960000000000004,-0.09184305758723818
-0.06060000000000004,-0.09230991231619365
-0.061600000000000044,-0.0928050612711464
-0.06260000000000004,-0.09322947466110591
-0.06360000000000005,-0.09368218227706274
-0.06460000000000005,-0.09412074278002087
-0.06560000000000005,-0.09453100905698175
-0.06660000000000005,-0.0949695695599399
-0.06760000000000005,-0.09536568872390214
-0.06860000000000005,-0.09579010211386164
-0.06960000000000005,-0.09621451550382115
-0.07060000000000005,-0.0966530760067793
-0.07160000000000005,-0.09703504805774286
-0.07260000000000005,-0.09738872588270912
-0.07360000000000005,-0.09778484504667133
-0.07460000000000006,-0.0982234055496295
-0.07560000000000006,-0.09869026027858496
-0.07660000000000006,-0.09904393810355122
-0.07760000000000006,-0.09939761592851748
-0.07860000000000006,-0.09977958797948104
-0.07960000000000006,-0.10011911869144864
-0.08060000000000006,-0.1004727965164149
-0.08160000000000006,-0.10084062145437982
-0.08260000000000006,-0.10120844639234472
-0.08360000000000006,-0.10153382999131368
-0.08460000000000006,-0.10185921359028265
-0.08560000000000006,-0.1022411856412462
-0.08660000000000007,-0.1025241279012192
-0.08760000000000007,-0.10279292304819357
-0.08860000000000007,-0.10304757108216928
-0.08960000000000007,-0.10335880756813957
-0.09060000000000007,-0.10368419116710853
-0.09160000000000007,-0.1039529863140829
-0.09260000000000007,-0.1042076343480586
-0.09360000000000007,-0.10447642949503295
-0.09460000000000007,-0.10471693041601002
-0.09560000000000007,-0.10505646112797762
-0.09660000000000007,-0.10532525627495198
-0.09760000000000008,-0.10552331585693309
-0.09860000000000008,-0.10576381677791014
-0.09960000000000008,-0.1060043176988872
-0.10060000000000008,-0.10617408305487101
-0.10160000000000008,-0.10645702531484401
-0.10260000000000008,-0.10661264355782916
-0.10360000000000008,-0.10679655602681161
-0.10460000000000008,-0.10693802715679812
-0.10560000000000008,-0.10715023385177787
-0.10660000000000008,-0.10736244054675763
-0.10760000000000008,-0.1075463530157401
-0.10860000000000009,-0.1076878241457266
-0.10960000000000009,-0.10787173661470904
-0.11060000000000009,-0.10806979619669015
-0.11160000000000009,-0.1082254144396753
-0.11260000000000009,-0.10832444423066585
-0.11360000000000009,-0.10843762113465506
-0.11460000000000009,-0.10859323937764022
-0.11560000000000009,-0.10879129895962131
-0.11660000000000009,-0.10893277008960783
-0.1176000000000001,-0.10901765276759973
-0.1186000000000001,-0.10908838833259296
-0.1196000000000001,-0.10918741812358353
-0.1206000000000001,-0.1093430363665687
-0.1216000000000001,-0.10952694883555114
-0.1226000000000001,-0.10964012573954035
-0.1236000000000001,-0.10964012573954035
-0.1246000000000001,-0.1096825670785363
-0.1256000000000001,-0.10975330264352953
-0.1266000000000001,-0.1098240382085228
-0.1276000000000001,-0.10985233243452008
-0.1286000000000001,-0.10989477377351606
-0.1296000000000001,-0.10989477377351606
-0.1306000000000001,-0.10995136222551065
-0.1316000000000001,-0.11002209779050391
-0.1326000000000001,-0.11002209779050391
-0.1336000000000001,-0.11000795067750524
-0.1346000000000001,-0.1099938035645066
-0.1356000000000001,-0.1099938035645066
-0.1366000000000001,-0.11002209779050391
-0.1376000000000001,-0.1099938035645066
-0.1386000000000001,-0.1099938035645066
-0.1396000000000001,-0.10996550933850929
-0.1406000000000001,-0.1099938035645066
-0.14160000000000011,-0.1099938035645066
-0.14260000000000012,-0.109937215112512
-0.14360000000000012,-0.10989477377351606
-0.14460000000000012,-0.10986647954751874
-0.14560000000000012,-0.1098240382085228
-0.14660000000000012,-0.1098240382085228
-0.14760000000000012,-0.1097674497565282
-0.14860000000000012,-0.10966841996553764
-0.14960000000000012,-0.1095976844005444
-0.15060000000000012,-0.10955524306154844
-0.15160000000000012,-0.10951280172255247
-0.15260000000000012,-0.10944206615755923
-0.15360000000000013,-0.10937133059256597
-0.15460000000000013,-0.10928644791457408
-0.15560000000000013,-0.10921571234958084
-0.15660000000000013,-0.10913082967158892
-0.15760000000000013,-0.10901765276759973
-0.15860000000000013,-0.10891862297660918
-0.15960000000000002,-0.10877715184662266
-0.16060000000000002,-0.10867812205563213
-0.16160000000000002,-0.10857909226464157
-0.16260000000000002,-0.10846591536065237
-0.16360000000000002,-0.10832444423066585
-0.16460000000000002,-0.10819712021367801
-0.16560000000000002,-0.1081405317616834
-0.16660000000000003,-0.1080556490836915
-0.16760000000000003,-0.1078858837277077
-0.16860000000000003,-0.10775855971071985
-0.16960000000000003,-0.10760294146773468
-0.17060000000000003,-0.10750391167674413
-0.17160000000000003,-0.10737658765975629
-0.17260000000000003,-0.10720682230377249
-0.17360000000000003,-0.10705120406078733
-0.17460000000000003,-0.10692388004379948
-0.17560000000000003,-0.10676826180081432
-0.17660000000000003,-0.10666923200982377
-0.17760000000000004,-0.10651361376683861
-0.17860000000000004,-0.10638628974985076
-0.17960000000000004,-0.10624481861986426
-0.18060000000000004,-0.1061174946028764
-0.18160000000000004,-0.10599017058588855
-0.18260000000000004,-0.10582040522990475
-0.18360000000000004,-0.10562234564792364
-0.18460000000000004,-0.10548087451793714
-0.18560000000000004,-0.10536769761394793
-0.18660000000000004,-0.10522622648396143
-0.18760000000000004,-0.10504231401497897
-0.18860000000000005,-0.10487254865899517
-0.18960000000000005,-0.10470278330301136
-0.19060000000000005,-0.10460375351202081
-0.19160000000000005,-0.10447642949503295
-0.19260000000000005,-0.1042925170260505
-0.19360000000000005,-0.10410860455706805
-0.19460000000000005,-0.1039529863140829
-0.19560000000000005,-0.1038398094100937
-0.19660000000000005,-0.10368419116710853
-0.19760000000000005,-0.10352857292412339
-0.19860000000000005,-0.10337295468113822
-0.19960000000000006,-0.10318904221215577
-0.20060000000000006,-0.10306171819516792
-0.20160000000000006,-0.10293439417818008
-0.20260000000000006,-0.10277877593519492
-0.20360000000000006,-0.10262315769220977
-0.20460000000000006,-0.10246753944922461
-0.20560000000000006,-0.10234021543223674
-0.20660000000000006,-0.1022128914152489
-0.20760000000000006,-0.1020431260592651
-0.20860000000000006,-0.1019016549292786
-0.20960000000000006,-0.10173188957329479
-0.21060000000000006,-0.10163285978230424
-0.21160000000000007,-0.10149138865231773
-0.21260000000000007,-0.10130747618333527
-0.21360000000000007,-0.10113771082735147
-0.21460000000000007,-0.10099623969736496
-0.21560000000000007,-0.10085476856737846
-0.21660000000000007,-0.10074159166338927
-0.21760000000000007,-0.1005859734204041
-0.21860000000000007,-0.10041620806442031
-0.21960000000000007,-0.10026058982143515
-0.22060000000000007,-0.10011911869144864
-0.22160000000000007,-0.10000594178745945
-0.22260000000000008,-0.09985032354447429
-0.22360000000000008,-0.09970885241448779
-0.22460000000000008,-0.09955323417150262
-0.22560000000000008,-0.09945420438051207
-0.22660000000000008,-0.09932688036352423
-0.22760000000000008,-0.09919955634653636
-0.22860000000000008,-0.09901564387755392
-0.22960000000000008,-0.09890246697356471
-0.23060000000000008,-0.09878929006957551
-0.23160000000000008,-0.09869026027858496
-0.23260000000000008,-0.09856293626159711
-0.23360000000000009,-0.09839317090561331
-0.2346000000000001,-0.0982516997756268
-0.2356000000000001,-0.09815266998463625
-0.2366000000000001,-0.09803949308064704
-0.2376000000000001,-0.09792631617665784
-0.2386000000000001,-0.09775655082067403
-0.2396000000000001,-0.09762922680368619
-0.2406000000000001,-0.09753019701269564
-0.2416000000000001,-0.09743116722170508
-0.2426000000000001,-0.09731799031771587
-0.2436000000000001,-0.09719066630072802
-0.2446000000000001,-0.09704919517074152
-0.2456000000000001,-0.09696431249274962
-0.2466000000000001,-0.09686528270175906
-0.2476000000000001,-0.09673795868477121
-0.2486000000000001,-0.09661063466778336
-0.2496000000000001,-0.09646916353779686
-0.2506000000000001,-0.09639842797280361
-0.2516000000000001,-0.09629939818181305
-0.2526000000000001,-0.09617207416482519
-0.2536000000000001,-0.096058897260836
-0.2546000000000001,-0.09594572035684679
-0.2556000000000001,-0.0958608376788549
-0.2566000000000001,-0.09577595500086299
-0.2576000000000001,-0.09563448387087647
-0.2586000000000001,-0.09552130696688728
-0.2596000000000001,-0.09540813006289808
-0.2606000000000001,-0.09532324738490616
-0.2616000000000001,-0.09526665893291157
-0.2626000000000001,-0.09513933491592372
-0.2636000000000001,-0.09501201089893586
-0.2646000000000001,-0.09492712822094396
-0.2656000000000001,-0.09484224554295206
-0.2666000000000001,-0.0947715099779588
-0.2676000000000001,-0.09467248018696825
-0.2686000000000001,-0.09457345039597771
-0.2696000000000001,-0.0944602734919885
-0.2706000000000001,-0.0944036850399939
-0.2716000000000001,-0.09433294947500065
-0.2726000000000001,-0.09423391968401008
-0.2736000000000001,-0.09412074278002087
-0.2746000000000001,-0.09402171298903034
-0.2756000000000001,-0.09396512453703573
-0.2766000000000001,-0.09389438897204248
-0.2776000000000001,-0.09380950629405059
-0.2786000000000001,-0.09369632939006138
-0.2796000000000001,-0.09359729959907082
-0.2806000000000001,-0.09355485826007487
-0.28160000000000013,-0.09352656403407757
-0.28260000000000013,-0.09342753424308703
-0.28360000000000013,-0.09332850445209646
-0.2846,-0.09322947466110591
-0.2856,-0.09320118043510862
-0.2866,-0.09313044487011536
-0.2876,-0.09303141507912481
-0.2886,-0.09296067951413156
-0.2896,-0.09286164972314101
-0.2906,-0.09281920838414506
-0.2916,-0.09281920838414506
-0.2926,-0.09270603148015585
-0.2936,-0.09263529591516259
-0.29460000000000003,-0.09256456035016934
-0.29560000000000003,-0.0925221190111734
-0.29660000000000003,-0.09246553055917879
-0.29760000000000003,-0.0924089421071842
-0.29860000000000003,-0.09232405942919229
-0.29960000000000003,-0.0922674709771977
-0.30060000000000003,-0.09222502963820174
-0.30160000000000003,-0.09221088252520308
-0.30260000000000004,-0.09215429407320849
-0.30360000000000004,-0.09209770562121389
-0.30460000000000004,-0.09202697005622064
-0.30560000000000004,-0.09197038160422603
-0.30660000000000004,-0.09197038160422603
-0.30760000000000004,-0.09189964603923279
-0.30860000000000004,-0.09184305758723818
-0.30960000000000004,-0.09178646913524359
-0.31060000000000004,-0.09177232202224493
-0.31160000000000004,-0.09174402779624763
-0.31260000000000004,-0.09168743934425302
-0.31360000000000005,-0.09161670377925978
-0.31460000000000005,-0.09156011532726518
-0.31560000000000005,-0.09153182110126787
-0.31660000000000005,-0.09151767398826924
-0.31760000000000005,-0.09146108553627462
-0.31860000000000005,-0.09140449708428001
-0.31960000000000005,-0.09137620285828273
-0.32060000000000005,-0.09137620285828273
-0.32160000000000005,-0.09136205574528407
-0.32260000000000005,-0.09129132018029082
-0.32360000000000005,-0.09124887884129487
-0.32460000000000006,-0.09120643750229893
-0.32560000000000006,-0.09116399616330297
-0.32660000000000006,-0.09116399616330297
-0.32760000000000006,-0.09109326059830972
-0.32860000000000006,-0.09106496637231241
-0.32960000000000006,-0.09102252503331647
-0.33060000000000006,-0.09099423080731917
-0.33160000000000006,-0.09100837792031781
-0.33260000000000006,-0.0909517894683232
-0.33360000000000006,-0.0909234952423259
-0.33460000000000006,-0.09088105390332996
-0.33560000000000006,-0.090838612564334
-0.33660000000000007,-0.090838612564334
-0.33760000000000007,-0.09079617122533806
-0.33860000000000007,-0.09073958277334346
-0.33960000000000007,-0.09071128854734616
-0.34060000000000007,-0.0906971414343475
-0.34160000000000007,-0.0906971414343475
-0.34260000000000007,-0.09062640586935425
-0.34360000000000007,-0.09056981741735964
-0.3446000000000001,-0.090555670304361
-0.3456000000000001,-0.090555670304361
-0.3466000000000001,-0.090555670304361
-0.34759999999999996,-0.0904990818523664
-0.3486000000000001,-0.09047078762636909
-0.34959999999999997,-0.09042834628737315
-0.3506000000000001,-0.09042834628737315
-0.35159999999999997,-0.09042834628737315
-0.3526000000000001,-0.09038590494837719
-0.35359999999999997,-0.09034346360938124
-0.3546000000000001,-0.09031516938338394
-0.35559999999999997,-0.09031516938338394
-0.3566000000000001,-0.09028687515738665
-0.3576,-0.09027272804438799
-0.3586000000000001,-0.0902161395923934
-0.3596,-0.09018784536639608
-0.3606000000000001,-0.09018784536639608
-0.3616,-0.09018784536639608
-0.3626000000000001,-0.09014540402740015
-0.3636,-0.09014540402740015
-0.3646000000000001,-0.09011710980140283
-0.3656,-0.09011710980140283
-0.3666000000000001,-0.09011710980140283
-0.3676,-0.09008881557540553
-0.3686000000000001,-0.09007466846240689
-0.3696,-0.09003222712341094
-0.3706000000000001,-0.09006052134940823
-0.3716,-0.09007466846240689
-0.3726000000000001,-0.09006052134940823
-0.3736,-0.09003222712341094
-0.3746000000000001,-0.09001808001041228
-0.3756,-0.09003222712341094
-0.3766000000000001,-0.09007466846240689
-0.3776,-0.09004637423640958
-0.3786000000000001,-0.09004637423640958
-0.3796,-0.09007466846240689
-0.3806000000000001,-0.09007466846240689
-0.3816,-0.09011710980140283
-0.3826000000000001,-0.09013125691440148
-0.3836,-0.09014540402740015
-0.3846000000000001,-0.09017369825339744
-0.3856,-0.09024443381839069
-0.3866000000000001,-0.09028687515738665
-0.3876,-0.09030102227038528
-0.3886000000000001,-0.09030102227038528
-0.3896,-0.09034346360938124
-0.3906000000000001,-0.09040005206137584
-0.3916,-0.09048493473936775
-0.3926000000000001,-0.09051322896536505
-0.3936,-0.09056981741735964
-0.3946000000000001,-0.09061225875635559
-0.3956,-0.09071128854734616
-0.3966000000000001,-0.0908103183383367
-0.3976,-0.09086690679033131
-0.3986000000000001,-0.09093764235532456
-0.3996,-0.09099423080731917
-0.4006000000000001,-0.09109326059830972
-0.4016,-0.09119229038930025
-0.4026000000000001,-0.09124887884129487
-0.4036,-0.09133376151928675
-0.4046000000000001,-0.09140449708428001
-0.4056,-0.09151767398826924
-0.40660000000000013,-0.09163085089225843
-0.4076,-0.09171573357025031
-0.40860000000000013,-0.09180061624824223
-0.4096,-0.09191379315223143
-0.41060000000000013,-0.09204111716921928
-0.4116,-0.09218258829920578
-0.41260000000000013,-0.0922674709771977
-0.4136,-0.09239479499418554
-0.41460000000000014,-0.09250797189817477
-0.4156,-0.09267773725415854
-0.41660000000000014,-0.09281920838414506
-0.4176,-0.0929182381751356
-0.41860000000000014,-0.09305970930512211
-0.41960000000000003,-0.09321532754810727
-0.42060000000000014,-0.09338509290409107
-0.42160000000000003,-0.09356900537307353
-0.42260000000000014,-0.09372462361605868
-0.42360000000000003,-0.09388024185904384
-0.42460000000000014,-0.094035860102029
-0.42560000000000003,-0.0942056254580128
-0.42660000000000015,-0.0943753908139966
-0.42760000000000004,-0.09453100905698175
-0.42860000000000015,-0.09470077441296555
-0.42960000000000004,-0.09487053976894937
-0.43060000000000015,-0.09506859935093047
-0.43160000000000004,-0.09529495315890889
-0.43260000000000015,-0.09549301274088996
-0.43360000000000004,-0.09567692520987243
-0.43460000000000015,-0.09587498479185352
-0.43560000000000004,-0.09611548571283059
-0.43660000000000015,-0.09635598663380765
