Potential V vs RHE, Current mA cm-2
0.013299999999999867,-0.3340133378981352
0.012299999999999978,-0.3989485865619403
0.011299999999999866,-0.4276672259492006
0.010299999999999976,-0.45313202934677127
0.009299999999999864,-0.4747771122347063
0.008299999999999974,-0.4923195323530327
0.007299999999999862,-0.5129743173310622
0.006299999999999972,-0.5303752663194023
0.00529999999999986,-0.5482006286977017
0.0042999999999999705,-0.5590939057066625
0.0032999999999998586,-0.5716848362754614
0.0022999999999999687,-0.5832854689343547
0.0012999999999998568,-0.5984228798429104
0.00029999999999996696,-0.615399415441291
-0.000700000000000145,-0.6366200849392665
-0.0017000000000000348,-0.6451083527384567
-0.0027000000000001467,-0.6565675142673635
-0.0037000000000000366,-0.67410993438569
-0.0047000000000001485,-0.6872667494744349
-0.005700000000000038,-0.7022626892530042
-0.00670000000000015,-0.7169756867716006
-0.00770000000000004,-0.7315472131602104
-0.008700000000000152,-0.7480993353686314
-0.009700000000000042,-0.7670564667868228
-0.010700000000000154,-0.7810621086554868
-0.011700000000000044,-0.7922383279244205
-0.012700000000000156,-0.8079416233529224
-0.013700000000000045,-0.8233619765214514
-0.014700000000000157,-0.8437338192395079
-0.015700000000000047,-0.8638227196975914
-0.01670000000000016,-0.8754233523564846
-0.01770000000000005,-0.888721638575216
-0.01870000000000016,-0.90555670304361
-0.01970000000000005,-0.9267773725415855
-0.020700000000000163,-0.9447442060498714
-0.021700000000000053,-0.960871914868333
-0.022700000000000164,-0.9823755266262814
-0.023700000000000054,-1.002181484824392
-0.024700000000000166,-1.0143480020032312
-0.025700000000000056,-1.039812805400802
-0.026700000000000168,-1.0587699368189936
-0.027700000000000058,-1.079424721797023
-0.02870000000000017,-1.100503920165012
-0.02970000000000006,-1.118187811413325
-0.03070000000000017,-1.1425208457710037
-0.03170000000000006,-1.1730786098480883
-0.03270000000000017,-1.2019387203653351
-0.03370000000000006,-1.2237252743832567
-0.034700000000000175,-1.2428238769314346
-0.035700000000000065,-1.2726742853585868
-0.03670000000000018,-1.3037979339556176
-0.03770000000000007,-1.3278480260533234
-0.03870000000000018,-1.3625084529000169
-0.03970000000000007,-1.3961785818368047
-0.04070000000000018,-1.426028990263957
-0.04170000000000007,-1.4543232162612578
-0.04270000000000018,-1.4840321535584236
-0.04370000000000007,-1.5165705134553193
-0.044700000000000184,-1.5377911829532949
-0.045700000000000074,-1.5675001202504606
-0.046700000000000186,-1.6056973253468165
-0.047700000000000076,-1.6481386643427678
-0.04870000000000019,-1.6849211581392587
-0.04970000000000008,-1.7188742293360195
-0.05070000000000019,-1.7570714344323757
-0.05170000000000008,-1.7924392169290013
-0.05270000000000019,-1.8348805559249526
-0.05370000000000008,-1.8801513175206337
-0.05470000000000019,-1.922592656516585
-0.05570000000000008,-1.9650339955125358
-0.056700000000000195,-2.004645911908757
-0.057700000000000085,-2.0584049413036287
-0.058700000000000196,-2.0937727238002544
-0.059700000000000086,-2.1390434853959355
-0.0607000000000002,-2.1871436695913467
-0.06170000000000009,-2.2409026989862184
-0.0627000000000002,-2.286173460581899
-0.06370000000000009,-2.352664891675556
-0.0647000000000002,-2.4035944984706976
-0.06570000000000009,-2.457353527865569
-0.0667000000000002,-2.5139419798601703
-0.0677000000000001,-2.5677010092550416
-0.0687000000000002,-2.6327777290488332
-0.0697000000000001,-2.6921956036431647
-0.07070000000000021,-2.7615164573365516
-0.0717000000000001,-2.822349043230748
-0.07270000000000021,-2.8860110517246746
-0.0737000000000001,-2.942599503719276
-0.07470000000000021,-3.003432089613473
-0.0757000000000001,-3.082655922405915
-0.07670000000000021,-3.156220909998897
-0.0777000000000001,-3.2156387845932284
-0.07870000000000021,-3.2849596382866153
-0.0797000000000001,-3.361354048479327
-0.08070000000000022,-3.4518955716706894
-0.0817000000000001,-3.5212164253640763
-0.08270000000000022,-3.6046843920561136
-0.08370000000000011,-3.67966409094896
-0.08470000000000022,-3.7673761915405932
-0.08570000000000011,-3.8480147356329
-0.08670000000000022,-3.931482702324937
-0.08770000000000011,-4.009291823817514
-0.08870000000000022,-4.106906903508202
-0.08970000000000011,-4.2087661170984845
-0.09070000000000022,-4.2936487950903865
-0.09170000000000011,-4.371457916582963
-0.09270000000000023,-4.467658284973785
-0.09370000000000012,-4.570932209863933
-0.09470000000000023,-4.671376712154351
-0.09570000000000012,-4.759088812745984
-0.09670000000000023,-4.872265716735186
-0.09770000000000012,-4.967051373826144
-0.09870000000000023,-5.0745694326158866
-0.09970000000000012,-5.175013934906304
-0.10070000000000023,-5.283946704995913
-0.10170000000000012,-5.3815617846866
-0.10270000000000024,-5.504641667774858
-0.10370000000000013,-5.612159726564601
-0.10470000000000024,-5.745142588751914
-0.10570000000000013,-5.856904781441251
-0.10670000000000024,-5.961593417631265
-0.10770000000000013,-6.081843878119792
-0.10870000000000024,-6.20209433860832
-0.10970000000000013,-6.309612397398063
-0.11070000000000024,-6.410056899688482
-0.11170000000000013,-6.53030736017701
-0.11270000000000002,-6.6505578206655365
-0.11370000000000013,-6.789199528052311
-0.11470000000000002,-6.892473452942459
-0.11570000000000014,-7.021212181230177
-0.11670000000000003,-7.132974373919516
-0.11770000000000014,-7.256054257007774
-0.11870000000000003,-7.357913470598056
-0.11970000000000014,-7.495140466684964
-0.12070000000000003,-7.598414391575112
-0.12170000000000014,-7.729982542462561
-0.12270000000000003,-7.847403580351358
-0.12370000000000014,-7.947848082641776
-0.12470000000000003,-8.085075078728684
-0.12570000000000014,-8.199666694017752
-0.12670000000000003,-8.317087731906552
-0.12770000000000015,-8.397726275998858
-0.12870000000000004,-8.522220870386981
-0.12970000000000015,-8.6226653726774
-0.13070000000000004,-8.745745255765657
-0.13170000000000015,-8.843360335456342
-0.13270000000000004,-8.931072436047977
-0.13370000000000015,-9.006052134940823
-0.13470000000000004,-9.10649663723124
-0.13570000000000015,-9.199867583022334
-0.13670000000000004,-9.31162977571167
-0.13770000000000016,-9.406415432802628
-0.13870000000000005,-9.488468688194802
-0.13970000000000016,-9.567692520987244
-0.14070000000000005,-9.670966445877392
-0.14170000000000016,-9.744531433470373
-0.14270000000000005,-9.795461040265515
-0.14370000000000016,-9.874684873057957
-0.14470000000000005,-9.946835149351072
-0.14570000000000016,-10.007667735245269
-0.14670000000000005,-10.040206095142164
-0.14770000000000016,-10.088306279337578
-0.14870000000000005,-10.176018379929207
-0.14970000000000017,-10.232606831923809
-0.15070000000000006,-10.273633459619896
-0.15170000000000017,-10.292024706518141
-0.15270000000000006,-10.341539602013418
-0.15370000000000017,-10.344369024613147
-0.15470000000000006,-10.37832209580991
-0.15570000000000017,-10.38398094100937
-0.15670000000000006,-10.413689878306533
-0.15770000000000017,-10.389639786208829
-0.15870000000000006,-10.405201610507346
-0.15970000000000018,-10.396713342708155
-0.16070000000000007,-10.396713342708155
-0.16170000000000018,-10.403786899207478
-0.16270000000000007,-10.37832209580991
-0.16370000000000018,-10.3585161376118
-0.16470000000000007,-10.345783735913013
-0.16570000000000018,-10.309001242116523
-0.16670000000000007,-10.262315769220976
-0.16770000000000018,-10.23826567712327
-0.16870000000000007,-10.195824338127318
-0.16970000000000018,-10.164700689530287
-0.17070000000000007,-10.126503484433933
-0.17170000000000019,-10.065670898539736
-0.17270000000000008,-10.009082446545134
-0.1737000000000002,-9.945420438051208
-0.17470000000000008,-9.900149676455525
-0.1757000000000002,-9.849220069660385
-0.17670000000000008,-9.761507969068754
-0.1777000000000002,-9.747360856070104
-0.17870000000000008,-9.678040002376715
-0.1797000000000002,-9.594572035684678
-0.18070000000000008,-9.515348202892236
-0.1817000000000002,-9.46583330739696
-0.18270000000000008,-9.382365340704922
-0.1837000000000002,-9.349826980808027
-0.1847000000000001,-9.293238528813426
-0.1857000000000002,-9.222502963820174
-0.1867000000000001,-9.177232202224493
-0.1877000000000002,-9.134790863228544
-0.1887000000000001,-9.056981741735965
-0.1897000000000002,-8.967854929844465
-0.1907000000000001,-8.936731281247436
-0.1917000000000001,-8.916925323049327
-0.19269999999999998,-8.878728117952969
-0.1937000000000001,-8.832042645057424
-0.19469999999999998,-8.820724954658504
-0.1957000000000001,-8.769795347863363
-0.19669999999999999,-8.723109874967816
-0.1977000000000001,-8.690571515070921
-0.1987,-8.63681248567605
-0.1997000000000001,-8.650959598674698
-0.2007,-8.629738929176723
-0.2017000000000001,-8.598615280579693
-0.2027,-8.564662209382933
-0.2037000000000001,-8.489682510490084
-0.2047,-8.455729439293325
-0.2057000000000001,-8.444411748894403
-0.2067,-8.431679347195619
-0.2077000000000001,-8.435923481095214
-0.2087,-8.44299703759454
-0.2097000000000001,-8.461388284492784
-0.2107,-8.450070594093864
-0.2117000000000001,-8.360943782202368
-0.2127,-8.31425830930682
-0.2137000000000001,-8.298696485008303
-0.2147,-8.290208217209116
-0.2157000000000001,-8.28596408330952
-0.2167,-8.315673020606686
-0.21770000000000012,-8.317087731906552
-0.2187,-8.278890526810194
-0.21970000000000012,-8.28030523811006
-0.2207,-8.263328702511679
-0.22170000000000012,-8.307184752807496
-0.2227,-8.293037639808846
-0.22370000000000012,-8.3312348449052
-0.2247,-8.328405422305472
-0.22570000000000012,-8.305770041507632
-0.2267,-8.348211380503582
-0.22770000000000012,-8.27181697031087
-0.22870000000000001,-8.310014175407224
-0.22970000000000013,-8.338308401404527
-0.23070000000000002,-8.376505606500881
-0.23170000000000013,-8.390652719499533
-0.23270000000000002,-8.341137824004257
-0.23370000000000013,-8.31425830930682
-0.23470000000000002,-8.321331865806146
-0.23570000000000013,-8.35669964830277
-0.23670000000000002,-8.393482142099263
-0.2376999999999999,-8.355284937002907
-0.23870000000000002,-8.277475815510329
-0.2396999999999999,-8.239278610413974
-0.24070000000000003,-8.273231681610733
-0.24169999999999991,-8.290208217209116
-0.24270000000000003,-8.244937455613433
-0.24369999999999992,-8.203910827917348
-0.24470000000000003,-8.203910827917348
-0.24569999999999992,-8.186934292318968
-0.24670000000000003,-8.138834108123556
-0.24769999999999992,-8.152981221122205
-0.24870000000000003,-8.158640066321666
-0.24969999999999992,-8.119028149925446
-0.25070000000000003,-8.141663530723285
-0.2516999999999999,-8.134589974223962
-0.25270000000000004,-8.145907664622882
-0.2536999999999999,-8.09780748042747
-0.25470000000000004,-8.045463162332464
-0.2556999999999999,-8.092148635228009
-0.25670000000000004,-8.11195459342612
-0.25769999999999993,-8.14873708722261
-0.25870000000000004,-7.771009170158646
-0.25969999999999993,-7.679052935667419
-0.26070000000000004,-7.6663205339686336
-0.26169999999999993,-7.691785337366205
-0.26270000000000004,-7.721494274663371
-0.26369999999999993,-7.708761872964584
-0.26470000000000005,-7.653588132269849
-0.26569999999999994,-7.650758709670118
-0.26670000000000005,-7.6337821740717375
-0.26769999999999994,-7.693200048666069
-0.26870000000000005,-7.629538040172143
-0.26969999999999994,-7.622464483672818
-0.27070000000000005,-7.598414391575112
-0.27169999999999994,-7.6069026593743025
-0.27270000000000005,-7.642270441870928
-0.27369999999999994,-7.667735245268498
-0.27470000000000006,-7.66490582266877
-0.27569999999999995,-7.563046609078486
-0.27670000000000006,-7.543240650880375
-0.27769999999999995,-7.5743642994774065
-0.27870000000000006,-7.578608433377001
-0.27969999999999995,-7.602658525474708
-0.28070000000000006,-7.5941702576755175
-0.28169999999999995,-7.622464483672818
-0.28270000000000006,-7.729982542462561
-0.28369999999999995,-7.789400417056893
-0.28470000000000006,-7.807791663955138
-0.28569999999999995,-7.782326860557566
-0.28670000000000007,-7.831841756052842
-0.28769999999999996,-7.824768199553517
-0.28870000000000007,-7.888430208047444
-0.28969999999999996,-7.942189237442316
-0.29070000000000007,-7.899747898446365
-0.29169999999999996,-7.9153097227448805
-0.29270000000000007,-7.885600785447715
-0.29369999999999996,-7.976142308639078
-0.2947000000000001,-7.993118844237457
-0.29569999999999996,-8.042633739732734
-0.2967000000000001,-7.981801153838537
-0.29769999999999996,-7.964824618240158
-0.2987000000000001,-8.03273076063368
-0.29969999999999997,-8.007265957236108
-0.3007000000000001,-8.061024986630978
-0.30169999999999997,-8.082245656128954
-0.3027000000000001,-8.10346632562693
-0.30369999999999997,-8.136004685523828
-0.3047000000000001,-8.179860735819641
-0.30569999999999997,-8.222302074815595
-0.3067000000000001,-8.203910827917348
-0.3077,-8.24918158951303
-0.3087000000000001,-8.236449187814243
-0.3097,-8.198251982717888
-0.3107000000000001,-8.195422560118157
-0.3117,-8.329820133605336
-0.3127000000000001,-8.379335029100613
-0.3137,-8.35669964830277
-0.3147000000000001,-8.29162292850898
-0.3157,-8.351040803103311
-0.3167000000000001,-8.523635581686847
-0.3177,-8.537782694685495
-0.3187000000000001,-8.431679347195619
-0.3197,-8.434508769795347
-0.3207000000000001,-8.498170778289277
-0.3217,-8.540612117285226
-0.3227000000000001,-8.501000200889004
-0.3237,-8.472705974891705
-0.3247000000000001,-8.641056619575643
-0.3257,-8.68774209247119
-0.3267000000000001,-8.656618443874159
-0.3277,-8.701889205469842
-0.3287000000000001,-8.730183431467141
-0.3297,-8.731598142767007
-0.3307000000000001,-8.655203732574295
-0.3317,-8.575979899781853
-0.3327000000000001,-8.619835950077668
-0.3337,-8.704718628069573
-0.3347000000000001,-8.833457356357288
-0.3357,-8.926828302148381
-0.3367000000000001,-8.92116945694892
-0.3377,-8.885801674452297
-0.3387000000000001,-9.04424934003718
-0.3397,-9.082446545133534
-0.3407000000000001,-9.035761072237987
-0.3417,-9.082446545133534
-0.3427000000000001,-9.130546729328946
-0.3437,-9.250797189817476
-0.3447000000000001,-9.233820654219095
-0.3457,-9.290409106213696
-0.3467000000000001,-9.359729959907083
-0.3477,-9.455930328297907
-0.3487000000000001,-9.553545407988592
-0.3497,-9.571936654886837
-0.3507000000000001,-9.537983583690076
-0.3517,-9.60871914868333
-0.3527000000000001,-9.745946144770238
-0.3537,-9.736043165671184
-0.3547000000000001,-9.673795868477121
-0.3557,-9.683698847576176
-0.35670000000000013,-9.832243534062004
-0.3577,-9.898734965155663
-0.35870000000000013,-9.822340554962949
-0.3597,-9.921370345953502
-0.36070000000000013,-10.058597342040411
-0.3617,-10.23826567712327
-0.3626999999999999,-10.265145191820706
-0.3637,-10.290609995218277
-0.3646999999999999,-10.333051334214227
-0.3657,-10.248168656222326
-0.3666999999999999,-10.21563029632543
-0.3677,-10.273633459619896
-0.3686999999999999,-10.36417498281126
-0.36970000000000003,-10.58628465689007
-0.3706999999999999,-10.712193962578057
-0.37170000000000003,-10.531110916195333
-0.3726999999999999,-10.610334748987775
-0.37370000000000003,-10.635799552385345
-0.3746999999999999,-10.59760234728899
-0.37570000000000003,-10.441984104303836
-0.3766999999999999,-10.641458397584804
-0.37770000000000004,-10.78858837277077
-0.3786999999999999,-10.94845074965552
-0.37970000000000004,-10.877715184662266
-0.3806999999999999,-10.978159686952685
-0.38170000000000004,-11.065871787544317
-0.38269999999999993,-11.104068992640675
-0.38370000000000004,-11.088507168342158
-0.38469999999999993,-10.941377193156194
-0.38570000000000004,-11.169145712434466
-0.38669999999999993,-11.238466566127851
-0.38570000000000004,-10.925815368857677
-0.38469999999999993,-10.632970129785615
-0.38370000000000004,-10.441984104303836
-0.38269999999999993,-10.174603668629343
-0.38170000000000004,-10.041620806442031
-0.3806999999999999,-9.912882078154311
-0.37970000000000004,-9.731799031771587
-0.3786999999999999,-9.629939818181304
-0.37770000000000004,-9.487053976894938
-0.3766999999999999,-9.23523536551896
-0.37570000000000003,-9.206941139521659
-0.3746999999999999,-8.885801674452297
-0.37370000000000003,-8.71886574106822
-0.3726999999999999,-8.608518259678748
-0.37170000000000003,-8.573150477182121
-0.3706999999999999,-8.400555698598588
-0.36970000000000003,-8.160054777621532
-0.3686999999999999,-8.229375631314918
-0.3677,-8.066683831830439
-0.3666999999999999,-7.854477136850684
-0.3657,-7.693200048666069
-0.3646999999999999,-7.548899496079835
-0.3637,-7.479578642386449
-0.3626999999999999,-7.421575479091982
-0.3617,-7.288592616904668
-0.36070000000000013,-7.212198206711958
-0.3597,-7.236248298809663
-0.35870000000000013,-7.093362457523294
-0.3577,-6.824567310548938
-0.35670000000000013,-6.640654841566483
-0.3557,-6.6505578206655365
-0.3547000000000001,-6.548698607075254
-0.3537,-6.578407544372421
-0.3527000000000001,-6.428448146586726
-0.3517,-6.226144430706027
-0.3507000000000001,-6.328003644296309
-0.3497,-6.228973853305757
-0.3487000000000001,-6.074770321620467
-0.3477,-5.958763995031535
-0.3467000000000001,-5.811634019845571
-0.3457,-5.697042404556503
-0.3447000000000001,-5.609330303964871
-0.3437,-5.668748178559202
-0.3427000000000001,-5.670162889859067
-0.3417,-5.491909266076072
-0.3407000000000001,-5.332046889191323
-0.3397,-5.249993633799152
-0.3387000000000001,-5.1467197089090035
-0.3377,-5.135402018510083
-0.3367000000000001,-5.083057700415077
-0.3357,-4.945830704328168
-0.3347000000000001,-4.904804076632082
-0.3337,-4.865192160235861
-0.3327000000000001,-4.794456595242609
-0.3317,-4.783138904843689
-0.3307000000000001,-4.6742061347540815
-0.3297,-4.627520661858535
-0.3287000000000001,-4.534149716067443
-0.3277,-4.493123088371357
-0.3267000000000001,-4.408240410379454
-0.3257,-4.364384360083638
-0.3247000000000001,-4.367213782683368
-0.3237,-4.327601866287147
-0.3227000000000001,-4.266769280392952
-0.3217,-4.126712861706312
-0.3207000000000001,-4.211595539698214
-0.3197,-4.1833013137009125
-0.3187000000000001,-4.099833347008876
-0.3177,-4.1889601589003735
-0.3167000000000001,-4.2526221673943
-0.3157,-4.203107271899024
-0.3147000000000001,-3.952703371822913
-0.3137,-3.7716203254401877
-0.3127000000000001,-3.7221054299449117
-0.3117,-3.7093730282461257
-0.3107000000000001,-3.7461555220426166
-0.3097,-3.693811203947611
-0.3087000000000001,-3.6725905344496357
-0.3077,-3.4136983665743337
-0.3067000000000001,-3.3755011614779775
-0.30569999999999997,-3.4646279733694745
-0.3047000000000001,-3.46887210726907
-0.30369999999999997,-3.4193572117737934
-0.3027000000000001,-3.2906184834860754
-0.30169999999999997,-3.1052913032037557
-0.3007000000000001,-3.08407063370578
-0.29969999999999997,-3.1548061986990317
-0.2987000000000001,-3.122267838802136
-0.29769999999999996,-3.0175792026121235
-0.2967000000000001,-2.9510877715184667
-0.29569999999999996,-3.0628499642078046
-0.2947000000000001,-3.3670128936787878
-0.29369999999999996,-3.2340300314914736
-0.29270000000000007,-2.9440142150191413
-0.29169999999999996,-2.720489829640466
-0.29070000000000007,-2.631363017748968
-0.28969999999999996,-2.545065628457201
-0.28870000000000007,-2.542236205857471
-0.28769999999999996,-2.518186113759765
-0.28670000000000007,-2.5111125572604402
-0.28569999999999995,-2.396520941971372
-0.28470000000000006,-2.3017352848804147
-0.28369999999999995,-2.272026347583249
-0.28270000000000006,-2.3257853769781205
-0.28169999999999995,-2.2479762554855434
-0.28070000000000006,-2.225340874687703
-0.27969999999999995,-2.0909433012005243
-0.27870000000000006,-2.011719468408082
-0.27769999999999995,-1.9862546650105113
-0.27670000000000006,-1.9324956356156402
-0.27569999999999995,-1.9296662130159101
-0.27470000000000006,-1.8263922881257622
-0.27369999999999994,-1.6976535598380442
-0.27270000000000005,-1.6325768400442524
-0.27169999999999994,-1.5929649236480312
-0.27070000000000005,-1.5689148315503256
-0.26969999999999994,-1.5731589654499207
-0.26870000000000005,-1.2889434653070349
-0.26769999999999994,-0.3188759269895793
-0.26670000000000005,-0.4921780612230462
-0.26569999999999994,-0.04463414151074191
