Potential V vs RHE, Current mA cm-2
0.013299999999999867,-1.2671569112891135
0.012299999999999978,-7.4173313451923875
0.011299999999999866,-12.99978213445982
0.010299999999999976,-17.839509491298113
0.009299999999999864,-22.38073276386488
0.008299999999999974,-26.568278211465387
0.007299999999999862,-30.317263156107735
0.006299999999999972,-33.755011614779775
0.00529999999999986,-37.037141830466666
0.0042999999999999705,-40.092918238175145
0.0032999999999998586,-42.92234083790521
0.0022999999999999687,-45.70932209863933
0.0012999999999998568,-48.32653800338966
0.00029999999999996696,-50.81642989115212
-0.000700000000000145,-53.16485064892808
-0.0017000000000000348,-55.400094502714836
-0.0027000000000001467,-57.408984548523186
-0.0037000000000000366,-59.36128614233694
-0.0047000000000001485,-61.01649836317903
-0.005700000000000038,-62.544386567033264
-0.00670000000000015,-64.02983343189156
-0.00770000000000004,-65.38795627976201
-0.008700000000000152,-66.60460799764593
-0.009700000000000042,-67.9202895065204
-0.010700000000000154,-69.0944998854084
-0.011700000000000044,-70.31115160329232
-0.012700000000000156,-71.44292064318435
-0.013700000000000045,-72.63127813507097
-0.014700000000000157,-73.76304717496302
-0.015700000000000047,-74.8523748758591
-0.01670000000000016,-75.8992612377592
-0.01770000000000005,-76.7622351306769
-0.01870000000000016,-77.68179747558916
-0.01970000000000005,-78.43159446451764
-0.020700000000000163,-79.08236166245555
-0.021700000000000053,-79.73312886039348
-0.022700000000000164,-80.34145471933543
-0.023700000000000054,-80.86489790028548
-0.024700000000000166,-81.47322375922747
-0.025700000000000056,-82.03910827917348
-0.026700000000000168,-82.61913991211814
-0.027700000000000058,-83.22746577106011
-0.02870000000000017,-83.79335029100612
-0.02970000000000006,-84.44411748894404
-0.03070000000000017,-85.052443347886
-0.03170000000000006,-85.61832786783202
-0.03270000000000017,-86.14177104878208
-0.03370000000000006,-86.7076555687281
-0.034700000000000175,-87.10377473269031
-0.035700000000000065,-87.41501121866061
-0.03670000000000018,-87.66965925263632
-0.03770000000000007,-88.02333707760259
-0.03870000000000018,-88.23554377258235
-0.03970000000000007,-88.54678025855264
-0.04070000000000018,-88.8438696315243
-0.04170000000000007,-89.15510611749461
-0.04270000000000018,-89.50878394246087
-0.04370000000000007,-89.94734444541903
-0.044700000000000184,-90.32931649638259
-0.045700000000000074,-90.7254356603448
-0.046700000000000186,-91.16399616330297
-0.047700000000000076,-91.41864419727867
-0.04870000000000019,-91.85720470023682
-0.04970000000000008,-91.98452871722468
-0.05070000000000019,-92.16844118620713
-0.05170000000000008,-92.3806478811869
-0.05270000000000019,-92.4655305591788
-0.05370000000000008,-92.50797189817473
-0.05470000000000019,-92.73432570615316
-0.05570000000000008,-92.90409106213696
-0.056700000000000195,-93.03141507912481
-0.057700000000000085,-93.34265156509512
-0.058700000000000196,-93.65388805106544
-0.059700000000000086,-93.90853608504113
-0.0607000000000002,-94.13488989301955
-0.06170000000000009,-94.4319792659912
-0.0627000000000002,-94.6583330739696
-0.06370000000000009,-94.8280984299534
-0.0647000000000002,-94.87053976894937
-0.06570000000000009,-94.95542244694126
-0.0667000000000002,-94.95542244694126
-0.0677000000000001,-94.99786378593721
-0.0687000000000002,-94.91298110794531
-0.0697000000000001,-94.99786378593721
-0.07070000000000021,-94.99786378593721
-0.0717000000000001,-95.08274646392913
-0.07270000000000021,-95.26665893291157
-0.0737000000000001,-95.43642428889537
-0.07470000000000021,-95.69107232287108
-0.0757000000000001,-95.87498479185354
-0.07670000000000021,-96.04475014783733
-0.0777000000000001,-96.17207416482519
-0.07870000000000021,-96.44086931179956
-0.0797000000000001,-96.44086931179956
-0.08070000000000022,-96.4833106507955
-0.0817000000000001,-96.5681933287874
-0.08270000000000022,-96.4833106507955
-0.08370000000000011,-96.4833106507955
-0.08470000000000022,-96.5681933287874
-0.08570000000000011,-96.65307600677932
-0.08670000000000022,-96.79454713676581
-0.08770000000000011,-96.92187115375367
-0.08870000000000022,-97.13407784873341
-0.08970000000000011,-97.26140186572127
-0.09070000000000022,-97.53019701269562
-0.09170000000000011,-97.74240370767538
-0.09270000000000023,-97.88387483766188
-0.09370000000000012,-98.01119885464975
-0.09470000000000023,-98.01119885464975
-0.09570000000000012,-98.05364019364569
-0.09670000000000023,-98.01119885464975
-0.09770000000000012,-98.05364019364569
-0.09870000000000023,-97.92631617665783
-0.09970000000000012,-98.05364019364569
-0.10070000000000023,-98.09608153264163
-0.10170000000000012,-98.13852287163759
-0.10270000000000024,-98.3082882276214
-0.10370000000000013,-98.4497593576079
-0.10470000000000024,-98.66196605258766
-0.10570000000000013,-98.83173140857146
-0.10670000000000024,-99.10052655554581
-0.10770000000000013,-99.22785057253368
-0.10870000000000024,-99.41176304151614
-0.10970000000000013,-99.45420438051207
-0.11070000000000024,-99.49664571950804
-0.11170000000000013,-99.45420438051207
-0.11270000000000002,-99.41176304151614
-0.11370000000000013,-99.45420438051207
-0.11470000000000002,-99.45420438051207
-0.11570000000000014,-99.58152839749994
-0.11670000000000003,-99.62396973649588
-0.11770000000000014,-99.75129375348374
-0.11870000000000003,-99.93520622246619
-0.11970000000000014,-100.10497157844999
-0.12070000000000003,-100.35961961242569
-0.12170000000000014,-100.58597342040412
-0.12270000000000003,-100.670856098396
-0.12370000000000014,-100.98209258436633
-0.12470000000000003,-100.98209258436633
-0.12570000000000014,-101.02453392336226
-0.12670000000000003,-101.10941660135417
-0.12770000000000015,-101.06697526235823
-0.12870000000000004,-101.02453392336226
-0.12970000000000015,-101.15185794035013
-0.13070000000000004,-101.23674061834203
-0.13170000000000015,-101.3640646353299
-0.13270000000000004,-101.63285978230424
-0.13370000000000015,-101.80262513828804
-0.13470000000000004,-102.11386162425833
-0.13570000000000015,-102.3260683192381
-0.13670000000000004,-102.72218748320032
-0.13770000000000016,-102.93439417818009
-0.13870000000000005,-103.24563066415038
-0.13970000000000016,-103.33051334214227
-0.14070000000000005,-103.41539602013418
-0.14170000000000016,-103.50027869812607
-0.14270000000000005,-103.64174982811258
-0.14370000000000016,-103.64174982811258
-0.14470000000000005,-103.85395652309235
-0.14570000000000016,-103.93883920108425
-0.14670000000000005,-104.12275167006669
-0.14770000000000016,-104.41984104303836
-0.14870000000000005,-104.68863619001272
-0.14970000000000017,-104.98572556298437
-0.15070000000000006,-105.33940338795064
-0.15170000000000017,-105.69308121291688
-0.15270000000000006,-106.0326119248845
-0.15370000000000017,-106.34384841085482
-0.15470000000000006,-106.47117242784265
-0.15570000000000017,-106.64093778382647
-0.15670000000000006,-106.82485025280893
-0.15770000000000017,-106.99461560879273
-0.15870000000000006,-107.12193962578058
-0.15970000000000018,-107.34829343375898
-0.16070000000000007,-107.64538280673065
-0.16170000000000018,-107.87173661470905
-0.16270000000000007,-108.21126732667666
-0.16370000000000018,-108.56494515164292
-0.16470000000000007,-109.00350565460108
-0.16570000000000018,-109.39962481856328
-0.16670000000000007,-109.78159686952685
-0.16770000000000018,-110.09283335549715
-0.16870000000000007,-110.40406984146746
-0.16970000000000018,-110.6162765364472
-0.17070000000000007,-110.74360055343507
-0.17170000000000019,-111.01239570040943
-0.17270000000000008,-111.18216105639323
-0.1737000000000002,-111.3094850733811
-0.17470000000000008,-111.49339754236355
-0.1757000000000002,-111.7056042373433
-0.17670000000000008,-111.96025227131899
-0.1777000000000002,-112.31393009628526
-0.17870000000000008,-112.62516658225556
-0.1797000000000002,-113.06372708521374
-0.18070000000000008,-113.44569913617728
-0.1817000000000002,-113.79937696114357
-0.18270000000000008,-114.19549612510575
-0.1837000000000002,-114.57746817606933
-0.1847000000000001,-114.71893930605583
-0.1857000000000002,-114.93114600103557
-0.1867000000000001,-115.19994114800993
-0.1877000000000002,-115.4121478429897
-0.1887000000000001,-115.53947185997755
-0.1897000000000002,-115.80826700695191
-0.1907000000000001,-116.14779771891952
-0.1917000000000001,-116.37415152689792
-0.19269999999999998,-116.72782935186417
-0.1937000000000001,-117.10980140282774
-0.19469999999999998,-117.50592056678994
-0.1957000000000001,-117.98692240874406
-0.19669999999999999,-118.42548291170223
-0.1977000000000001,-118.82160207566443
-0.1987,-119.24601546562396
-0.1997000000000001,-119.51481061259831
-0.2007,-119.86848843756455
-0.2017000000000001,-120.16557781053622
-0.2027,-120.47681429650652
-0.2037000000000001,-120.68902099148629
-0.2047,-121.04269881645253
-0.2057000000000001,-121.38222952842017
-0.2067,-121.82079003137831
-0.2077000000000001,-122.25935053433648
-0.2087,-122.82523505428249
-0.2097000000000001,-123.39111957422851
-0.2107,-123.91456275517855
-0.2117000000000001,-124.52288861412055
-0.2127,-125.00389045607463
-0.2137000000000001,-125.56977497602065
-0.2147,-126.00833547897882
-0.2157000000000001,-126.57421999892482
-0.2167,-127.012780501883
-0.21770000000000012,-127.4088996658452
-0.2187,-127.66354769982091
-0.21970000000000012,-128.144549541775
-0.2207,-128.54066870573723
-0.22170000000000012,-128.9792292086954
-0.2227,-129.50267238964545
-0.22370000000000012,-130.06855690959148
-0.2247,-130.67688276853346
-0.22570000000000012,-131.24276728847948
-0.2267,-131.89353448641737
-0.22770000000000012,-132.516007458358
-0.22870000000000001,-133.08189197830401
-0.22970000000000013,-133.60533515925405
-0.23070000000000002,-133.9873072102176
-0.23170000000000013,-134.46830905217172
-0.23270000000000002,-134.9917522331218
-0.23370000000000013,-135.3029887190921
-0.23470000000000002,-135.86887323903812
-0.23570000000000013,-136.3923164199882
-0.23670000000000002,-136.91575960093826
-0.2376999999999999,-137.56652679887617
-0.23870000000000002,-138.3163237878046
-0.2396999999999999,-138.96709098574257
-0.24070000000000003,-139.6602995226764
-0.24169999999999991,-140.45253785060083
-0.24270000000000003,-141.06086370954282
-0.24369999999999992,-141.75407224647665
-0.24470000000000003,-142.31995676642268
-0.24569999999999992,-142.8858412863687
-0.24670000000000003,-143.4517258063147
-0.24769999999999992,-143.87613919627424
-0.24870000000000003,-144.44202371622026
-0.24969999999999992,-145.14937936615277
-0.25070000000000003,-145.7152638860988
-0.2516999999999999,-146.28114840604482
-0.25270000000000004,-146.9885040559773
-0.2536999999999999,-147.6958597059098
-0.25470000000000004,-148.54468648582886
-0.2556999999999999,-149.1105710057749
-0.25670000000000004,-149.95939778569388
-0.25769999999999993,-150.66675343562642
-0.25870000000000004,-151.37410908555893
-0.25969999999999993,-151.93999360550492
-0.26070000000000004,-152.64734925543743
-0.26169999999999993,-153.21323377538346
-0.26270000000000004,-153.77911829532948
-0.26369999999999993,-154.3450028152755
-0.26470000000000005,-155.05235846520802
-0.26569999999999994,-155.75971411514055
-0.26670000000000005,-156.46706976507306
-0.26769999999999994,-157.17442541500557
-0.26870000000000005,-158.02325219492457
-0.26969999999999994,-158.87207897484362
-0.27070000000000005,-159.72090575476264
-0.27169999999999994,-160.5697325346817
-0.27270000000000005,-161.2770881846142
-0.27369999999999994,-162.2673860945197
-0.27470000000000006,-162.97474174445222
-0.27569999999999995,-163.54062626439824
-0.27670000000000006,-164.24798191433075
-0.27769999999999995,-164.9553375642633
-0.27870000000000006,-165.5212220842093
-0.27969999999999995,-166.3700488641283
-0.28070000000000006,-167.07740451406085
-0.28169999999999995,-167.78476016399335
-0.28270000000000006,-168.63358694391238
-0.28369999999999995,-169.6238848538179
-0.28470000000000006,-170.47271163373694
-0.28569999999999995,-171.32153841365593
-0.28670000000000007,-172.31183632356147
-0.28769999999999996,-173.16066310348046
-0.28870000000000007,-174.0094898833995
-0.28969999999999996,-174.85831666331853
-0.29070000000000007,-175.56567231325104
-0.29169999999999996,-176.4144990931701
-0.29270000000000007,-177.1218547431026
-0.29369999999999996,-177.82921039303508
-0.2947000000000001,-178.81950830294062
-0.29569999999999996,-179.66833508285964
-0.2967000000000001,-180.5171618627787
-0.29769999999999996,-181.64893090267074
-0.2987000000000001,-182.49775768258974
-0.29969999999999997,-183.77099785246824
-0.3007000000000001,-184.7612957623738
-0.30169999999999997,-185.89306480226583
-0.3027000000000001,-186.88336271217133
-0.30369999999999997,-188.01513175206335
-0.3047000000000001,-188.8639585319824
-0.30569999999999997,-189.71278531190143
-0.3067000000000001,-190.70308322180696
-0.3077,-191.69338113171247
-0.3087000000000001,-192.54220791163152
-0.3097,-193.532505821537
-0.3107000000000001,-194.52280373144254
-0.3117,-195.51310164134807
-0.3127000000000001,-196.6448706812401
-0.3137,-197.77663972113214
-0.3147000000000001,-198.90840876102413
-0.3157,-200.04017780091618
-0.3167000000000001,-201.31341797079472
-0.3177,-202.44518701068677
-0.3187000000000001,-203.57695605057876
-0.3197,-204.7087250904708
-0.3207000000000001,-205.69902300037634
-0.3217,-206.83079204026836
-0.3227000000000001,-207.8210899501739
-0.3237,-208.95285899006592
-0.3247000000000001,-210.08462802995794
-0.3257,-211.35786819983647
-0.3267000000000001,-212.631108369715
-0.3277,-214.04581966958003
-0.3287000000000001,-215.4605309694451
-0.3297,-216.73377113932364
-0.3307000000000001,-218.14848243918865
-0.3317,-219.7046648690402
-0.3327000000000001,-220.97790503891872
-0.3337,-222.3926163387838
-0.3347000000000001,-223.80732763864881
-0.3357,-224.93909667854084
-0.3367000000000001,-226.35380797840588
-0.3377,-227.4855770182979
-0.3387000000000001,-228.61734605818995
-0.3397,-229.89058622806846
-0.3407000000000001,-231.163826397947
-0.3417,-232.43706656782552
-0.3427000000000001,-233.85177786769057
-0.3437,-235.26648916755556
-0.3447000000000001,-236.82267159740715
-0.3457,-238.0959117672857
-0.3467000000000001,-239.65209419713722
-0.3477,-241.06680549700224
-0.3487000000000001,-242.62298792685377
-0.3497,-243.75475696674582
-0.3507000000000001,-245.16946826661086
-0.3517,-246.5841795664759
-0.3527000000000001,-247.99889086634093
-0.3537,-249.41360216620598
-0.3547000000000001,-250.9697845960575
-0.3557,-252.66743815589555
-0.35670000000000013,-254.2236205857471
-0.3577,-255.92127414558513
-0.35870000000000013,-257.6189277054232
-0.3597,-259.3165812652612
-0.36070000000000013,-261.01423482509927
-0.3617,-262.57041725495077
-0.3626999999999999,-264.12659968480233
-0.3637,-265.6827821146539
-0.3646999999999999,-266.9560222845325
-0.3657,-268.37073358439744
-0.3666999999999999,-269.78544488426246
-0.3677,-271.05868505414105
-0.3686999999999999,-272.3319252240195
-0.36970000000000003,-273.8881076538711
-0.3706999999999999,-275.30281895373616
-0.37170000000000003,-276.8590013835877
-0.3726999999999999,-278.4151838134392
-0.37370000000000003,-280.11283737327733
-0.3746999999999999,-281.9519620631018
-0.37570000000000003,-283.79108675292633
-0.3766999999999999,-285.7716825727374
-0.37770000000000004,-287.7522783925485
-0.3786999999999999,-289.73287421235955
-0.37970000000000004,-291.571998902184
-0.3806999999999999,-293.55259472199515
-0.38170000000000004,-295.53319054180616
-0.38269999999999993,-297.6552574916037
-0.38370000000000004,-299.49438218142825
-0.38469999999999993,-301.6164491312258
-0.38570000000000004,-303.73851608102336
-0.38669999999999993,-301.1920357412663
-0.38570000000000004,-291.0061143822381
-0.38469999999999993,-282.09343319308834
-0.38370000000000004,-273.8881076538711
-0.38269999999999993,-266.3901377645864
-0.38170000000000004,-259.4580523952477
-0.3806999999999999,-252.80890928588207
-0.37970000000000004,-246.4427084364894
-0.3786999999999999,-240.35944984706975
-0.37770000000000004,-234.55913351762308
-0.3766999999999999,-228.90028831816295
-0.37570000000000003,-223.52438537867582
-0.3746999999999999,-218.28995356917517
-0.37370000000000003,-213.19699288966103
-0.3726999999999999,-208.3869744701199
-0.37170000000000003,-203.57695605057876
-0.3706999999999999,-199.04987989101065
-0.36970000000000003,-194.66427486142905
-0.3686999999999999,-190.42014096183394
-0.3677,-186.17600706223882
-0.3666999999999999,-182.21481542261674
-0.3657,-178.1121526530081
-0.3646999999999999,-174.150961013386
-0.3637,-170.0482982437774
-0.3626999999999999,-166.22857773414182
-0.3617,-162.40885722450622
-0.36070000000000013,-158.4476655848841
-0.3597,-154.76941620523502
-0.35870000000000013,-150.94969569559944
-0.3577,-147.4129174459368
-0.35670000000000013,-143.87613919627424
-0.3557,-140.45253785060083
-0.3547000000000001,-137.12796629591801
-0.3537,-133.77510051523788
-0.3527000000000001,-130.59200009054155
-0.3517,-127.4088996658452
-0.3507000000000001,-124.18335790215292
-0.3497,-121.0851401554485
-0.3487000000000001,-117.81715705276027
-0.3477,-114.57746817606933
-0.3467000000000001,-111.4509562033676
-0.3457,-108.21126732667666
-0.3447000000000001,-105.11304957997223
-0.3437,-102.11386162425833
-0.3427000000000001,-99.01564387755391
-0.3417,-96.0871914868333
-0.3407000000000001,-93.21532754810727
-0.3397,-90.47078762636909
-0.3387000000000001,-87.71210059163228
-0.3377,-85.052443347886
-0.3367000000000001,-82.47766878213164
-0.3357,-79.7755701993894
-0.3347000000000001,-77.0734716166472
-0.3337,-74.28649035591307
-0.3327000000000001,-71.6268331121668
-0.3317,-68.91058741642594
-0.3307000000000001,-66.25093017267966
-0.3297,-63.54883158993744
-0.3287000000000001,-61.01649836317903
-0.3277,-58.54075358841522
-0.3267000000000001,-56.008420361656796
-0.3257,-53.64585249088219
-0.3247000000000001,-51.424755750094086
-0.3237,-49.16121767031002
-0.3227000000000001,-46.88353247752732
-0.3217,-44.704877075735155
-0.3207000000000001,-42.526221673943
-0.3197,-40.34756627215084
-0.3187000000000001,-38.04158685337084
-0.3177,-35.806342999584075
-0.3167000000000001,-33.54280491980002
-0.3157,-31.321708179011907
-0.3147000000000001,-29.058170099227848
-0.3137,-27.00683871442355
-0.3127000000000001,-24.870624651627345
-0.3117,-22.861734605818995
-0.3107000000000001,-20.93772723800254
-0.3097,-19.112749661176647
-0.3087000000000001,-17.2736249713521
-0.3077,-15.491088733522153
-0.3067000000000001,-13.828802956180734
-0.30569999999999997,-11.952895772559694
-0.3047000000000001,-10.208556739826104
-0.30369999999999997,-8.332649556205066
-0.3027000000000001,-6.54445447317566
-0.30169999999999997,-4.712403339850438
-0.3007000000000001,-2.8379108675292635
-0.29969999999999997,-1.0054353208140816
-0.2987000000000001,0.6956135461436386
-0.29769999999999996,2.4403769922671885
-0.2967000000000001,4.140859974704963
-0.29569999999999996,5.667333467259336
-0.2947000000000001,7.195221671113577
-0.29369999999999996,8.72169516366795
-0.29270000000000007,10.160456555630693
-0.29169999999999996,11.643073997889251
-0.29070000000000007,13.127106151447675
-0.28969999999999996,14.65640906660178
-0.28870000000000007,16.184297270456018
-0.28769999999999996,17.669744135314307
-0.28670000000000007,19.28251501716045
-0.28569999999999995,20.75381476902009
-0.28470000000000006,22.42317410286083
-0.28369999999999995,23.852032515724517
-0.28270000000000006,25.295038041586857
-0.28169999999999995,26.738043567449193
-0.28070000000000006,27.997136624329073
-0.27969999999999995,29.27037679420761
-0.27870000000000006,30.487028512091538
-0.27769999999999995,31.703680229975475
-0.27670000000000006,32.8354492698675
-0.27569999999999995,34.15113077874198
-0.27470000000000006,35.282899818634014
-0.27369999999999994,36.64102266650445
-0.27270000000000005,37.98499840137623
-0.27169999999999994,39.30067991025072
-0.27070000000000005,40.602214306126555
-0.26969999999999994,41.91789581500104
-0.26870000000000005,43.17698887188092
-0.26769999999999994,44.30875791177294
-0.26670000000000005,45.624439420647434
