Potential V vs RHE, Current mA cm-2
0.4132999999999999,-0.0017627302796318356
0.4122999999999999,-0.003358524625879597
0.4112999999999999,-0.003833867622634249
0.4102999999999999,-0.0040715391210115765
0.4092999999999999,-0.0042809163933916015
0.4082999999999999,-0.00444077877027635
0.4072999999999999,-0.004569517498564069
0.4062999999999999,-0.004706744494650977
0.4052999999999999,-0.004821336109940045
0.4042999999999999,-0.004954318972127358
0.4032999999999999,-0.005032128093619936
0.4022999999999999,-0.005148134420208869
0.4012999999999999,-0.005261311324198071
0.4002999999999999,-0.005344779290890109
0.3992999999999999,-0.005480591575677152
0.3982999999999999,-0.0055612301197694594
0.3972999999999999,-0.005639039241262036
0.3962999999999999,-0.005718263074054478
0.3952999999999999,-0.005784754505148136
0.3942999999999999,-0.005889443141338148
0.39329999999999987,-0.005946031593332749
0.39229999999999987,-0.006016767158326
0.39129999999999987,-0.006094576279818579
0.39029999999999987,-0.006163897133511965
0.38929999999999987,-0.006248779811503867
0.38829999999999987,-0.0063110271086979286
0.38729999999999987,-0.006343565468594825
0.38629999999999987,-0.006425618723986996
0.38529999999999986,-0.006504842556779439
0.38429999999999986,-0.006564260431373771
0.38329999999999986,-0.006634995996367021
0.38229999999999986,-0.006694413870961353
0.38129999999999986,-0.006745343477756495
0.38029999999999986,-0.006821737887949208
0.37929999999999986,-0.0068853998964431345
0.37829999999999986,-0.006936329503238275
0.37729999999999986,-0.006995747377832606
0.37629999999999986,-0.007045262273327883
0.37529999999999986,-0.0070990213027227545
0.37429999999999986,-0.007189562825914116
0.37329999999999985,-0.007254639545707908
0.37229999999999985,-0.007311227997702509
0.37129999999999985,-0.007357913470598055
0.37029999999999985,-0.007425819612991578
0.36929999999999985,-0.007497969889284694
0.36829999999999985,-0.007543240650880376
0.36729999999999985,-0.0075998291028749766
0.36629999999999985,-0.0076337821740717375
0.36529999999999985,-0.0076946147599659355
0.36429999999999985,-0.00776959445885878
0.36329999999999985,-0.007802132818755678
0.36229999999999984,-0.007845988869051492
0.36129999999999984,-0.007896918475846634
0.36029999999999984,-0.007964824618240158
0.35929999999999984,-0.008038389605833139
0.35829999999999984,-0.00806951325443017
0.35729999999999984,-0.00813176055162423
0.35629999999999984,-0.008188349003618832
0.35529999999999984,-0.008230790342614784
0.35429999999999984,-0.00829728177370844
0.35329999999999984,-0.00834538195790385
0.35229999999999984,-0.008360943782202368
0.35129999999999983,-0.008428849924595888
0.35029999999999983,-0.008471291263591838
0.34929999999999983,-0.008536367983385631
0.34829999999999983,-0.008598615280579694
0.34729999999999983,-0.008680668535971865
0.34629999999999983,-0.008706133339369435
0.34529999999999983,-0.008748574678365387
0.34429999999999983,-0.008786771883461744
0.3432999999999998,-0.00887306927275351
0.3422999999999998,-0.0088815575405527
0.3412999999999998,-0.008936731281247438
0.3402999999999998,-0.008990490310642309
0.3392999999999998,-0.009045664051337044
0.3382999999999998,-0.009095178946832322
0.3372999999999998,-0.009119229038930027
0.3362999999999998,-0.009172988068324898
0.3352999999999998,-0.00923523536551896
0.3342999999999998,-0.009301726796612616
0.3332999999999998,-0.009335679867809378
0.3322999999999998,-0.009382365340704923
0.3312999999999998,-0.009421977257101142
0.3302999999999998,-0.00945451561699804
0.3292999999999998,-0.009501201089893585
0.3282999999999998,-0.009543642428889536
0.3272999999999998,-0.00961154857128306
0.3262999999999998,-0.009652575198979146
0.3252999999999999,-0.009686528270175906
0.3242999999999999,-0.009750190278669833
0.3232999999999999,-0.009775655082067403
0.3222999999999999,-0.009818096421063354
0.3212999999999999,-0.009863367182659035
0.3202999999999999,-0.009895905542555932
0.3192999999999999,-0.009958152839749995
0.3182999999999999,-0.01001898542564419
0.3172999999999999,-0.010048694362941356
0.3162999999999999,-0.010105282814935957
0.3152999999999999,-0.010132162329633394
0.3142999999999999,-0.010194409626827456
0.3132999999999999,-0.010249583367522191
0.3122999999999999,-0.01028070701611922
0.3112999999999999,-0.0103302219116145
0.3102999999999999,-0.01035285729241234
0.3092999999999999,-0.01042642228000532
0.3082999999999999,-0.010475937175500598
0.3072999999999999,-0.010499987267598302
0.3062999999999999,-0.010550916874393444
0.3052999999999999,-0.010576381677791015
0.3042999999999999,-0.010635799552385347
0.3032999999999999,-0.010693802715679813
0.3022999999999999,-0.010719267519077383
0.3012999999999999,-0.010764538280673063
0.3002999999999999,-0.010812638464868476
0.2992999999999999,-0.01084517682476537
0.2982999999999999,-0.010901765276759973
0.2972999999999999,-0.010927230080157543
0.2962999999999999,-0.01098523324345201
0.2952999999999999,-0.011017771603348906
0.2942999999999999,-0.011063042364944587
0.2932999999999999,-0.011109727837840132
0.2922999999999999,-0.011154998599435815
0.2912999999999999,-0.011160657444635274
0.2902999999999999,-0.011211587051430416
0.2892999999999999,-0.011263931369525422
0.2882999999999999,-0.011312031553720835
0.2872999999999999,-0.01136720529441557
0.2862999999999999,-0.011385596541313816
0.2852999999999999,-0.011430867302909497
0.2842999999999999,-0.011505847001802343
0.2832999999999999,-0.011558191319897349
0.2822999999999999,-0.01160912092669249
0.2812999999999999,-0.011641659286589386
0.2802999999999999,-0.01167278293518642
0.2792999999999999,-0.011720883119381829
0.2782999999999999,-0.0117746421487767
0.2772999999999999,-0.01180010695217427
0.2762999999999999,-0.01185669540416887
0.2752999999999999,-0.011892063186665499
0.2742999999999999,-0.01193167510306172
0.2732999999999999,-0.0119769458646574
0.2722999999999999,-0.012008069513254432
0.2712999999999999,-0.012058999120049574
0.2702999999999999,-0.012078805078247682
0.2692999999999999,-0.01213397881894242
0.26829999999999987,-0.012191981982236887
0.26729999999999987,-0.012206129095235538
0.26629999999999987,-0.012254229279430947
0.26529999999999987,-0.012285352928027979
0.26429999999999987,-0.01233628253482312
0.26329999999999987,-0.012371650317319745
0.26229999999999987,-0.012395700409417452
0.26129999999999987,-0.012435312325813672
0.26029999999999986,-0.012477753664809623
0.25929999999999986,-0.012528683271604767
0.25829999999999986,-0.012573954033200446
0.25729999999999986,-0.012606492393097342
0.25629999999999986,-0.012644689598193698
0.25529999999999986,-0.012672983824190999
0.25429999999999986,-0.012714010451887085
0.25329999999999986,-0.01278050188298074
0.25229999999999986,-0.012808796108978043
0.25129999999999986,-0.012848408025374264
0.25029999999999986,-0.012895093498269809
0.24929999999999986,-0.01294602310506495
0.24829999999999985,-0.012981390887561577
0.24729999999999985,-0.013005440979659283
0.24629999999999985,-0.013052126452554828
0.24529999999999985,-0.01310871490454943
0.24429999999999985,-0.013156815088744842
0.24329999999999985,-0.01317662104694295
0.24229999999999985,-0.013223306519838498
0.24129999999999985,-0.013278480260533233
0.24029999999999985,-0.013326580444728646
0.23929999999999985,-0.013397316009721896
0.23829999999999985,-0.0134539044617165
0.23729999999999984,-0.013476539842514339
0.23629999999999984,-0.01351332233631083
0.23529999999999984,-0.013520395892810155
0.23429999999999984,-0.013581228478704351
0.23329999999999984,-0.01364206106459855
0.23229999999999984,-0.013657622888897063
0.23129999999999984,-0.013708552495692205
0.23029999999999984,-0.013728358453890317
0.22929999999999984,-0.013770799792886269
0.22829999999999984,-0.013842950069179384
0.22729999999999984,-0.013869829583876819
0.22629999999999983,-0.013908026788973175
0.22529999999999983,-0.013939150437570205
0.22429999999999983,-0.013978762353966426
0.22329999999999983,-0.014057986186758867
0.22229999999999983,-0.014060815609358597
0.22129999999999983,-0.01411457463875347
0.22029999999999983,-0.014161260111649017
0.21929999999999983,-0.014203701450644968
0.21829999999999983,-0.014288584128636872
0.21729999999999983,-0.014288584128636872
0.21629999999999983,-0.01430273124163552
0.21529999999999982,-0.014345172580631472
0.21429999999999982,-0.014373466806628774
0.21329999999999982,-0.014444202371622025
0.21229999999999982,-0.014486643710617976
0.21129999999999982,-0.014514937936615275
0.21029999999999982,-0.014529085049613928
0.20929999999999982,-0.014585673501608528
0.20829999999999982,-0.014642261953603129
0.20729999999999982,-0.01465640906660178
0.20629999999999982,-0.014712997518596381
0.20529999999999982,-0.014741291744593682
0.20429999999999982,-0.014783733083589632
0.20329999999999981,-0.014840321535584235
0.2022999999999998,-0.014840321535584235
0.2012999999999998,-0.014911057100577486
0.20029999999999992,-0.014953498439573438
0.19929999999999992,-0.014981792665570736
0.19829999999999992,-0.01503838111756534
0.19729999999999992,-0.015080822456561293
0.19629999999999992,-0.01509496956955994
0.19529999999999992,-0.015109116682558592
0.19429999999999992,-0.015208146473549147
0.19329999999999992,-0.015278882038542396
0.19229999999999992,-0.015264734925543746
0.19129999999999991,-0.015307176264539698
0.1902999999999999,-0.015307176264539698
0.1892999999999999,-0.0153637647165343
0.1882999999999999,-0.015420353168528897
0.1872999999999999,-0.01543450028152755
0.1862999999999999,-0.015476941620523503
0.1852999999999999,-0.015519382959519455
0.1842999999999999,-0.015561824298515404
0.1832999999999999,-0.015618412750510005
0.1822999999999999,-0.015632559863508654
0.1812999999999999,-0.015675001202504608
0.1802999999999999,-0.015717442541500558
0.1792999999999999,-0.01573158965449921
0.1782999999999999,-0.01580232521949246
0.1772999999999999,-0.01581647233249111
0.1762999999999999,-0.01585891367148706
0.1752999999999999,-0.01588720789748436
0.1742999999999999,-0.015929649236480315
0.1732999999999999,-0.015986237688474913
0.1722999999999999,-0.016042826140469518
0.1712999999999999,-0.016099414592464115
0.1702999999999999,-0.01615600304445872
0.1692999999999999,-0.016212591496453318
0.1682999999999999,-0.01625503283544927
0.1672999999999999,-0.016283327061446574
0.1662999999999999,-0.016311621287443873
0.1652999999999999,-0.016325768400442524
0.1642999999999999,-0.016368209739438477
0.1632999999999999,-0.016424798191433075
0.1622999999999999,-0.01646723953042903
0.1612999999999999,-0.016495533756426328
0.1602999999999999,-0.01650968086942498
0.1592999999999999,-0.01658041643441823
0.15829999999999989,-0.01662285777341418
0.15729999999999988,-0.01666529911241013
0.15629999999999988,-0.016693593338407434
0.15529999999999988,-0.01673603467740338
0.15429999999999988,-0.016792623129397985
0.15329999999999988,-0.016820917355395284
0.15229999999999988,-0.016849211581392583
0.15129999999999988,-0.01691994714638584
0.15029999999999988,-0.01691994714638584
0.14929999999999988,-0.01697653559838044
0.14829999999999988,-0.01703312405037504
0.14729999999999988,-0.01706141827637234
0.14629999999999987,-0.017089712502369642
0.14529999999999987,-0.017132153841365592
0.14429999999999987,-0.017160448067362895
0.14329999999999987,-0.0172453307453548
0.14229999999999987,-0.01728777208435075
0.14129999999999987,-0.0173019191973494
0.14029999999999987,-0.01734436053634535
0.13929999999999987,-0.017372654762342652
0.13829999999999987,-0.017429243214337253
0.13729999999999987,-0.017471684553333203
0.13629999999999987,-0.017499978779330502
0.13529999999999986,-0.0175282730053278
0.13429999999999986,-0.017570714344323755
0.13329999999999986,-0.017627302796318356
0.13229999999999986,-0.01768389124831296
0.13129999999999986,-0.01768389124831296
0.13029999999999986,-0.01772633258730891
0.12929999999999986,-0.017782921039303512
0.12829999999999986,-0.017825362378299462
0.12729999999999986,-0.017867803717295416
0.12629999999999986,-0.017910245056291362
0.12529999999999986,-0.017924392169290013
0.12429999999999986,-0.017995127734283266
0.12329999999999985,-0.01803756907327922
0.12229999999999985,-0.018080010412275173
0.12129999999999985,-0.018108304638272472
0.12029999999999985,-0.01813659886426977
0.11929999999999985,-0.018193187316264375
0.11829999999999985,-0.018249775768258973
0.11729999999999985,-0.018278069994256275
0.11629999999999985,-0.018320511333252226
0.11529999999999985,-0.018362952672248176
0.11429999999999985,-0.018419541124242777
0.11329999999999985,-0.018461982463238727
0.11229999999999984,-0.01850442380223468
0.11129999999999984,-0.018546865141230634
0.11029999999999984,-0.018575159367227933
0.10929999999999984,-0.018603453593225232
0.10829999999999984,-0.018674189158218484
0.10729999999999984,-0.018688336271217135
0.10629999999999984,-0.018730777610213082
0.10529999999999984,-0.018773218949209036
0.10429999999999984,-0.01885810162720094
0.10329999999999984,-0.01892883719219419
0.10229999999999984,-0.01897127853119014
0.10129999999999983,-0.019013719870186095
0.10029999999999983,-0.019056161209182042
0.09929999999999983,-0.019084455435179344
0.09829999999999983,-0.019141043887173945
0.09729999999999983,-0.019169338113171244
0.09629999999999983,-0.019197632339168547
0.09529999999999983,-0.019254220791163148
0.09429999999999983,-0.0192683679041618
0.09329999999999983,-0.019353250582153703
0.09229999999999983,-0.019395691921149656
0.09129999999999983,-0.019423986147146955
0.09029999999999982,-0.019480574599141553
0.08929999999999982,-0.019523015938137503
0.08829999999999982,-0.019565457277133456
0.08729999999999982,-0.019622045729128058
0.08629999999999982,-0.019622045729128058
0.08529999999999982,-0.01967863418112266
0.08429999999999982,-0.01973522263311726
0.08329999999999982,-0.019777663972113214
0.08229999999999982,-0.019820105311109164
0.08129999999999982,-0.019862546650105117
0.08029999999999982,-0.019876693763103765
0.07929999999999982,-0.019933282215098366
0.07829999999999981,-0.019989870667092968
0.07729999999999981,-0.02004645911908757
0.07629999999999981,-0.02008890045808352
0.07529999999999992,-0.020131341797079472
0.07429999999999992,-0.020187930249074077
0.07329999999999992,-0.020244518701068675
0.07229999999999992,-0.020286960040064625
0.07129999999999992,-0.020315254266061927
0.07029999999999992,-0.020343548492059226
0.06929999999999992,-0.020400136944053827
0.06829999999999992,-0.02045672539604843
0.06729999999999992,-0.02048501962204573
0.06629999999999991,-0.020541608074040336
0.06529999999999991,-0.020598196526034934
0.06429999999999991,-0.020640637865030884
0.06329999999999991,-0.02071137343002414
0.06229999999999991,-0.020725520543022787
0.06129999999999991,-0.02075381476902009
0.06029999999999991,-0.020824550334013342
0.05929999999999991,-0.02086699167300929
0.05829999999999991,-0.020923580125003893
0.05729999999999991,-0.020951874351001196
0.056299999999999906,-0.020994315689997142
0.055299999999999905,-0.021050904141991744
0.054299999999999904,-0.021079198367989046
0.0532999999999999,-0.021149933932982302
0.0522999999999999,-0.02119237527197825
0.0512999999999999,-0.02122066949797555
0.0502999999999999,-0.021291405062968803
0.0492999999999999,-0.021333846401964753
0.0482999999999999,-0.021404581966958002
0.0472999999999999,-0.021447023305953956
0.0462999999999999,-0.021489464644949906
0.045299999999999896,-0.021546053096944507
0.044299999999999895,-0.02161678866193776
0.043299999999999894,-0.02167337711393236
0.04229999999999989,-0.021715818452928314
0.04129999999999989,-0.021772406904922915
0.04029999999999989,-0.02185728958291482
0.03929999999999989,-0.02189973092191077
0.03829999999999989,-0.02194217226090672
0.03729999999999989,-0.02199876071290132
0.03629999999999989,-0.02205534916489592
0.03529999999999989,-0.02208364339089322
0.034299999999999886,-0.022126084729889174
0.033299999999999885,-0.022210967407881078
0.032299999999999884,-0.022239261633878377
0.031299999999999883,-0.022295850085872978
0.030299999999999883,-0.022338291424868928
0.02929999999999988,-0.02239487987686353
0.02829999999999988,-0.022493909667854084
0.02729999999999988,-0.022536351006850038
0.02629999999999988,-0.022564645232847336
0.025299999999999878,-0.022621233684841938
0.024299999999999877,-0.022663675023837888
0.023299999999999876,-0.02274855770182979
0.022299999999999875,-0.02277685192782709
0.021299999999999875,-0.022833440379821688
0.020299999999999874,-0.022890028831816296
0.019299999999999873,-0.022932470170812246
0.018299999999999872,-0.023017352848804146
0.01729999999999987,-0.0230597941878001
0.01629999999999987,-0.023073941300798748
0.01529999999999987,-0.023116382639794698
0.014299999999999868,-0.02318711820478795
0.013299999999999867,-0.02324370665678255
0.012299999999999978,-0.023300295108777156
0.011299999999999866,-0.023328589334774455
0.010299999999999976,-0.02338517778676906
0.009299999999999864,-0.023441766238763657
0.008299999999999974,-0.02352664891675556
0.007299999999999862,-0.023583237368750162
0.006299999999999972,-0.023625678707746112
0.00529999999999986,-0.023682267159740714
0.0042999999999999705,-0.023767149837732617
0.0032999999999998586,-0.023823738289727222
0.0022999999999999687,-0.02388032674172182
0.0012999999999998568,-0.02392276808071777
0.00029999999999996696,-0.023965209419713723
-0.000700000000000145,-0.02400765075870967
-0.0017000000000000348,-0.024078386323702922
-0.0027000000000001467,-0.024120827662698876
-0.0037000000000000366,-0.024163269001694826
-0.0047000000000001485,-0.024219857453689427
-0.005700000000000038,-0.02427644590568403
-0.00670000000000015,-0.02434718147067728
-0.00770000000000004,-0.02438962280967323
-0.008700000000000152,-0.024446211261667832
-0.009700000000000042,-0.024502799713662437
-0.010700000000000154,-0.024587682391654337
-0.011700000000000044,-0.02465841795664759
-0.012700000000000156,-0.02468671218264489
-0.013700000000000045,-0.024729153521640842
-0.014700000000000157,-0.024771594860636792
-0.015700000000000047,-0.024814036199632745
-0.01670000000000016,-0.024927213103621948
-0.01770000000000005,-0.024955507329619247
-0.01870000000000016,-0.0249979486686152
-0.01970000000000005,-0.02506868423360845
-0.020700000000000163,-0.02512527268560305
-0.021700000000000053,-0.025196008250596303
-0.022700000000000164,-0.025252596702590904
-0.023700000000000054,-0.025295038041586858
-0.024700000000000166,-0.025337479380582808
-0.025700000000000056,-0.025365773606580107
-0.026700000000000168,-0.02546480339757066
-0.027700000000000058,-0.025507244736566608
-0.02870000000000017,-0.02554968607556256
-0.02970000000000006,-0.025606274527557166
-0.03070000000000017,-0.025648715866553113
-0.03170000000000006,-0.025719451431546365
-0.03270000000000017,-0.02577603988354097
-0.03370000000000006,-0.02580433410953827
-0.034700000000000175,-0.025846775448534223
-0.035700000000000065,-0.025931658126526123
-0.03670000000000018,-0.025988246578520724
-0.03770000000000007,-0.026016540804518026
-0.03870000000000018,-0.026073129256512624
-0.03970000000000007,-0.02612971770850723
-0.04070000000000018,-0.02620045327350048
-0.04170000000000007,-0.026257041725495082
-0.04270000000000018,-0.026370218629484285
-0.04370000000000007,-0.02645510130747619
-0.044700000000000184,-0.02652583687246944
-0.045700000000000074,-0.02658242532446404
-0.046700000000000186,-0.02661071955046134
-0.047700000000000076,-0.02665316088945729
-0.04870000000000019,-0.026723896454450544
-0.04970000000000008,-0.026780484906445145
-0.05070000000000019,-0.026851220471438397
-0.05170000000000008,-0.02692195603643165
-0.05270000000000019,-0.02695025026242895
-0.05370000000000008,-0.026992691601424906
-0.05470000000000019,-0.02703513294042085
-0.05570000000000008,-0.0270775742794168
-0.056700000000000195,-0.027148309844410055
-0.057700000000000085,-0.027204898296404656
-0.058700000000000196,-0.02723319252240196
-0.059700000000000086,-0.027289780974396556
-0.0607000000000002,-0.027332222313392506
-0.06170000000000009,-0.02743125210438306
-0.0627000000000002,-0.027487840556377662
-0.06370000000000009,-0.02750198766937631
