Potential V vs RHE, Current mA cm-2
0.05339999999999995,-0.025309185154585506
0.05239999999999995,-0.02649754264647214
0.051399999999999946,-0.02695025026242895
0.050399999999999945,-0.027289780974396556
0.049399999999999944,-0.027601017460366868
0.04839999999999994,-0.027954695285333123
0.04739999999999994,-0.02829422599730073
0.04639999999999994,-0.028577168257273744
0.04539999999999994,-0.028860110517246747
0.04439999999999994,-0.029171347003217055
0.04339999999999994,-0.029482583489187364
0.04239999999999994,-0.029807967088156324
0.04139999999999994,-0.030090909348129333
0.040399999999999936,-0.030359704495103685
0.039399999999999935,-0.030685088094072648
0.038399999999999934,-0.031010471693041605
0.03739999999999993,-0.03130756106601326
0.03639999999999993,-0.03160465043898492
0.03539999999999993,-0.03184515135996198
0.03439999999999993,-0.03212809361993498
0.03339999999999993,-0.032467624331902596
0.03239999999999993,-0.03279300793087155
0.03139999999999993,-0.033090097303843206
0.030399999999999927,-0.03337303956381622
0.029399999999999926,-0.03368427604978652
0.028399999999999925,-0.03403795387475279
0.027399999999999924,-0.03436333747372174
0.026399999999999924,-0.03467457395969205
0.025399999999999923,-0.03495751621966506
0.024399999999999922,-0.03525460559263671
0.02339999999999992,-0.03560828341760297
0.02239999999999992,-0.03597610835556788
0.02139999999999992,-0.03627319772853954
0.020399999999999918,-0.03661272844050715
0.019399999999999917,-0.036923964926477454
0.018399999999999916,-0.037305936977441015
0.017399999999999916,-0.037673761915405925
0.016399999999999915,-0.03799914551437489
0.015399999999999914,-0.03832452911334384
0.014399999999999913,-0.038635765599314156
0.013399999999999912,-0.039003590537279066
0.012399999999999911,-0.03941385681423992
0.01139999999999991,-0.03975338752620753
0.01039999999999991,-0.04006462401217784
0.009399999999999908,-0.04040415472414544
0.008399999999999908,-0.04078612677510901
0.007399999999999907,-0.04119639305206987
0.006399999999999906,-0.041535923764037475
0.005399999999999905,-0.04187545447600509
0.004399999999999904,-0.04225742652696864
0.003399999999999903,-0.04262525146493356
0.002399999999999902,-0.04303551774189441
0.0013999999999999013,-0.043389195566860675
0.00039999999999990044,-0.043757020504825585
-0.0006000000000001005,-0.044124845442790495
-0.0016000000000001013,-0.04454925883275
-0.0026000000000001022,-0.04497367222270952
-0.003600000000000103,-0.04534149716067442
-0.004600000000000104,-0.045709322098639336
-0.005600000000000105,-0.046062999923605595
-0.006600000000000106,-0.04647326620056645
-0.007600000000000107,-0.04691182670352462
-0.008600000000000108,-0.04730794586748682
-0.009600000000000108,-0.04767577080545173
-0.01060000000000011,-0.048071889969413945
-0.01160000000000011,-0.048538744698369406
-0.012600000000000111,-0.04899145231432622
-0.013600000000000112,-0.04937342436528978
-0.014600000000000113,-0.04976954352925199
-0.015600000000000114,-0.05015151558021554
-0.016600000000000115,-0.05060422319617236
-0.017600000000000116,-0.05105693081212918
-0.018600000000000116,-0.05146719708909004
-0.019600000000000117,-0.05187746336605089
-0.020600000000000118,-0.052301876756010404
-0.02160000000000012,-0.052768731484965865
-0.02260000000000012,-0.053235586213921327
-0.02360000000000012,-0.053617558264884894
-0.024600000000000122,-0.0540702658808417
-0.025600000000000123,-0.05449467927080121
-0.026600000000000124,-0.054975681112755324
-0.027600000000000124,-0.05545668295470944
-0.028600000000000125,-0.05585280211867165
-0.029600000000000126,-0.05627721550863116
-0.030600000000000127,-0.05671577601158932
-0.03160000000000013,-0.057182630740544776
-0.03260000000000013,-0.05767777969549755
-0.03360000000000013,-0.058102193085457055
-0.03460000000000002,-0.05851245936241791
-0.03560000000000002,-0.05896516697837473
-0.03660000000000002,-0.05943202170733019
-0.03760000000000002,-0.0599130235492843
-0.03860000000000002,-0.06036573116524111
-0.039600000000000024,-0.06079014455520062
-0.040600000000000025,-0.06125699928415609
-0.041600000000000026,-0.0617380011261102
-0.04260000000000003,-0.06223315008106296
-0.04360000000000003,-0.06270000481001843
-0.04460000000000003,-0.0631385653129766
-0.04560000000000003,-0.0636195671549307
-0.04660000000000003,-0.06412886322288211
-0.04760000000000003,-0.06465230640383217
-0.04860000000000003,-0.06509086690679033
-0.04960000000000003,-0.06551528029674986
-0.050600000000000034,-0.06601042925170261
-0.051600000000000035,-0.06653387243265267
-0.052600000000000036,-0.06702902138760544
-0.053600000000000037,-0.06751002322955955
-0.05460000000000004,-0.06793443661951905
-0.05560000000000004,-0.06841543846147317
-0.05660000000000004,-0.06892473452942459
-0.05760000000000004,-0.069434030597376
-0.05860000000000004,-0.06990088532633146
-0.05960000000000004,-0.07036774005528693
-0.06060000000000004,-0.07082044767124374
-0.061600000000000044,-0.07135803796519245
-0.06260000000000004,-0.07186733403314385
-0.06360000000000005,-0.07234833587509798
-0.06460000000000005,-0.07280104349105479
-0.06560000000000005,-0.07326789822001026
-0.06660000000000005,-0.07377719428796166
-0.06760000000000005,-0.07430063746891173
-0.06860000000000005,-0.07475334508486854
-0.06960000000000005,-0.07522019981382401
-0.07060000000000005,-0.07568705454277945
-0.07160000000000005,-0.07619635061073088
-0.07260000000000005,-0.0767339409046796
-0.07360000000000005,-0.07714420718164045
-0.07460000000000006,-0.07762520902359457
-0.07560000000000006,-0.07810621086554868
-0.07660000000000006,-0.07860135982050144
-0.07760000000000006,-0.07911065588845285
-0.07860000000000006,-0.07956336350440966
-0.07960000000000006,-0.08000192400736782
-0.08060000000000006,-0.08045463162332463
-0.08160000000000006,-0.08094978057827738
-0.08260000000000006,-0.08147322375922747
-0.08360000000000006,-0.08191178426218561
-0.08460000000000006,-0.08237863899114109
-0.08560000000000006,-0.08278890526810194
-0.08660000000000007,-0.08326990711005607
-0.08760000000000007,-0.08372261472601288
-0.08860000000000007,-0.08414702811597238
-0.08960000000000007,-0.08458558861893054
-0.09060000000000007,-0.08501000200889006
-0.09160000000000007,-0.08549100385084417
-0.09260000000000007,-0.08595785857979962
-0.09360000000000007,-0.08639641908275779
-0.09460000000000007,-0.08680668535971865
-0.09560000000000007,-0.08720280452368086
-0.09660000000000007,-0.08764136502663902
-0.09760000000000008,-0.08806577841659853
-0.09860000000000008,-0.08847604469355938
-0.09960000000000008,-0.08885801674452294
-0.10060000000000008,-0.08925413590848516
-0.10160000000000008,-0.08970684352444197
-0.10260000000000008,-0.09015955114039878
-0.10360000000000008,-0.090555670304361
-0.10460000000000008,-0.0909517894683232
-0.10560000000000008,-0.09131961440628812
-0.10660000000000008,-0.09171573357025031
-0.10760000000000008,-0.09214014696020983
-0.10860000000000009,-0.09250797189817477
-0.10960000000000009,-0.09287579683613965
-0.11060000000000009,-0.09324362177410456
-0.11160000000000009,-0.09361144671206949
-0.11260000000000009,-0.09402171298903034
-0.11360000000000009,-0.0943753908139966
-0.11460000000000009,-0.09471492152596421
-0.11560000000000009,-0.09505445223793182
-0.11660000000000009,-0.09540813006289808
-0.1176000000000001,-0.09580424922686027
-0.1186000000000001,-0.09614377993882789
-0.1196000000000001,-0.0964267221988009
-0.1206000000000001,-0.09673795868477121
-0.1216000000000001,-0.09707748939673881
-0.1226000000000001,-0.09743116722170508
-0.1236000000000001,-0.0977424037076754
-0.1246000000000001,-0.09798290462865245
-0.1256000000000001,-0.09827999400162409
-0.1266000000000001,-0.09860537760059306
-0.1276000000000001,-0.09893076119956201
-0.1286000000000001,-0.09919955634653636
-0.1296000000000001,-0.09944005726751343
-0.1306000000000001,-0.09968055818849049
-0.1316000000000001,-0.09996350044846349
-0.1326000000000001,-0.10026058982143515
-0.1336000000000001,-0.10052938496840952
-0.1346000000000001,-0.10074159166338927
-0.1356000000000001,-0.10096794547136766
-0.1366000000000001,-0.10120844639234472
-0.1376000000000001,-0.10147724153931909
-0.1386000000000001,-0.10170359534729749
-0.1396000000000001,-0.1019016549292786
-0.1406000000000001,-0.10208556739826105
-0.14160000000000011,-0.1022977740932408
-0.14260000000000012,-0.10255242212721652
-0.14360000000000012,-0.10273633459619896
-0.14460000000000012,-0.10289195283918412
-0.14560000000000012,-0.10304757108216928
-0.14660000000000012,-0.10323148355115172
-0.14760000000000012,-0.10345783735913014
-0.14860000000000012,-0.10361345560211528
-0.14960000000000012,-0.10375492673210178
-0.15060000000000012,-0.10388225074908965
-0.15160000000000012,-0.1040378689920748
-0.15260000000000012,-0.10423592857405589
-0.15360000000000013,-0.10437739970404242
-0.15460000000000013,-0.10446228238203431
-0.15560000000000013,-0.10458960639902216
-0.15660000000000013,-0.10470278330301136
-0.15760000000000013,-0.10487254865899517
-0.15860000000000013,-0.10497157844998573
-0.15960000000000002,-0.10504231401497897
-0.16060000000000002,-0.10514134380596953
-0.16160000000000002,-0.10522622648396143
-0.16260000000000002,-0.10536769761394793
-0.16360000000000002,-0.10545258029193984
-0.16460000000000002,-0.10548087451793714
-0.16560000000000002,-0.105608198534925
-0.16660000000000003,-0.10573552255191283
-0.16760000000000003,-0.10582040522990475
-0.16860000000000003,-0.10587699368189933
-0.16960000000000003,-0.10587699368189933
-0.17060000000000003,-0.10590528790789665
-0.17160000000000003,-0.10596187635989125
-0.17260000000000003,-0.1060326119248845
-0.17360000000000003,-0.10607505326388045
-0.17460000000000003,-0.10607505326388045
-0.17560000000000003,-0.10608920037687909
-0.17660000000000003,-0.10610334748987776
-0.17760000000000004,-0.10617408305487101
-0.17860000000000004,-0.10618823016786964
-0.17960000000000004,-0.10618823016786964
-0.18060000000000004,-0.10615993594187234
-0.18160000000000004,-0.10620237728086832
-0.18260000000000004,-0.10621652439386696
-0.18360000000000004,-0.10621652439386696
-0.18460000000000004,-0.10617408305487101
-0.18560000000000004,-0.1061457888288737
-0.18660000000000004,-0.10613164171587507
-0.18760000000000004,-0.1061457888288737
-0.18860000000000005,-0.10610334748987776
-0.18960000000000005,-0.10606090615088182
-0.19060000000000005,-0.10601846481188584
-0.19160000000000005,-0.10599017058588855
-0.19260000000000005,-0.10601846481188584
-0.19360000000000005,-0.1059760234728899
-0.19460000000000005,-0.10590528790789665
-0.19560000000000005,-0.10584869945590204
-0.19660000000000005,-0.10580625811690608
-0.19760000000000005,-0.10579211100390745
-0.19860000000000005,-0.10574966966491149
-0.19960000000000006,-0.10565063987392094
-0.20060000000000006,-0.10559405142192634
-0.20160000000000006,-0.10552331585693309
-0.20260000000000006,-0.10550916874393444
-0.20360000000000006,-0.10543843317894118
-0.20460000000000006,-0.10536769761394793
-0.20560000000000006,-0.10526866782295738
-0.20660000000000006,-0.10521207937096277
-0.20760000000000006,-0.10516963803196683
-0.20860000000000006,-0.10511304957997222
-0.20960000000000006,-0.10498572556298437
-0.21060000000000006,-0.1048866957719938
-0.21160000000000007,-0.10483010731999923
-0.21260000000000007,-0.10477351886800461
-0.21360000000000007,-0.10470278330301136
-0.21460000000000007,-0.10458960639902216
-0.21560000000000007,-0.10444813526903567
-0.21660000000000007,-0.10441984104303836
-0.21760000000000007,-0.10437739970404242
-0.21860000000000007,-0.10430666413904917
-0.21960000000000007,-0.1041793401220613
-0.22060000000000007,-0.10405201610507345
-0.22160000000000007,-0.10396713342708154
-0.22260000000000008,-0.10391054497508695
-0.22360000000000008,-0.10385395652309233
-0.22460000000000008,-0.10371248539310583
-0.22560000000000008,-0.10358516137611798
-0.22660000000000008,-0.10351442581112473
-0.22760000000000008,-0.10345783735913014
-0.22860000000000008,-0.10334466045514094
-0.22960000000000008,-0.10320318932515443
-0.23060000000000008,-0.10311830664716252
-0.23160000000000008,-0.10301927685617196
-0.23260000000000008,-0.10294854129117871
-0.23360000000000009,-0.10286365861318682
-0.2346000000000001,-0.10273633459619896
-0.2356000000000001,-0.10263730480520841
-0.2366000000000001,-0.1025241279012192
-0.2376000000000001,-0.10246753944922461
-0.2386000000000001,-0.10235436254523542
-0.2396000000000001,-0.1022411856412462
-0.2406000000000001,-0.1021563029632543
-0.2416000000000001,-0.1020148318332678
-0.2426000000000001,-0.10198653760727049
-0.2436000000000001,-0.10187336070328129
-0.2446000000000001,-0.10174603668629344
-0.2456000000000001,-0.10163285978230424
-0.2466000000000001,-0.10151968287831505
-0.2476000000000001,-0.10146309442632043
-0.2486000000000001,-0.10137821174832852
-0.2496000000000001,-0.10122259350534336
-0.2506000000000001,-0.10109526948835552
-0.2516000000000001,-0.10101038681036362
-0.2526000000000001,-0.10095379835836901
-0.2536000000000001,-0.10086891568037712
-0.2546000000000001,-0.10074159166338927
-0.2556000000000001,-0.1006142676464014
-0.2566000000000001,-0.10051523785541085
-0.2576000000000001,-0.1004445022904176
-0.2586000000000001,-0.1003596196124257
-0.2596000000000001,-0.10020400136944055
-0.2606000000000001,-0.10010497157845
-0.2616000000000001,-0.10002008890045809
-0.2626000000000001,-0.09994935333546484
-0.2636000000000001,-0.09985032354447429
-0.2646000000000001,-0.09972299952748644
-0.2656000000000001,-0.09960982262349724
-0.2666000000000001,-0.09951079283250668
-0.2676000000000001,-0.09946835149351073
-0.2686000000000001,-0.09938346881551882
-0.2696000000000001,-0.09925614479853098
-0.2706000000000001,-0.09914296789454177
-0.2716000000000001,-0.09904393810355122
-0.2726000000000001,-0.09900149676455527
-0.2736000000000001,-0.09891661408656337
-0.2746000000000001,-0.09880343718257417
-0.2756000000000001,-0.09869026027858496
-0.2766000000000001,-0.0985912304875944
-0.2776000000000001,-0.09854878914859845
-0.2786000000000001,-0.09846390647060656
-0.2796000000000001,-0.09835072956661735
-0.2806000000000001,-0.09823755266262815
-0.28160000000000013,-0.09815266998463625
-0.28260000000000013,-0.09809608153264164
-0.28360000000000013,-0.09801119885464975
-0.2846,-0.0978838748376619
-0.2856,-0.09778484504667133
-0.2866,-0.09771410948167808
-0.2876,-0.09765752102968349
-0.2886,-0.09760093257768888
-0.2896,-0.09747360856070103
-0.2906,-0.09738872588270912
-0.2916,-0.09730384320471722
-0.2926,-0.09724725475272263
-0.2936,-0.09720481341372668
-0.29460000000000003,-0.09709163650973747
-0.29560000000000003,-0.09697845960574826
-0.29660000000000003,-0.09692187115375367
-0.29760000000000003,-0.09686528270175906
-0.29860000000000003,-0.0967945471367658
-0.29960000000000003,-0.09670966445877392
-0.30060000000000003,-0.0965964875547847
-0.30160000000000003,-0.09653989910279011
-0.30260000000000004,-0.0964833106507955
-0.30360000000000004,-0.09641257508580224
-0.30460000000000004,-0.09631354529481169
-0.30560000000000004,-0.09621451550382115
-0.30660000000000004,-0.09615792705182655
-0.30760000000000004,-0.09611548571283059
-0.30860000000000004,-0.09604475014783734
-0.30960000000000004,-0.09594572035684679
-0.31060000000000004,-0.0958608376788549
-0.31160000000000004,-0.09577595500086299
-0.31260000000000004,-0.09573351366186703
-0.31360000000000005,-0.09567692520987243
-0.31460000000000005,-0.09557789541888188
-0.31560000000000005,-0.09549301274088996
-0.31660000000000005,-0.09542227717589671
-0.31760000000000005,-0.09542227717589671
-0.31860000000000005,-0.09535154161090346
-0.31960000000000005,-0.09528080604591022
-0.32060000000000005,-0.09518177625491966
-0.32160000000000005,-0.0951110406899264
-0.32260000000000005,-0.09508274646392911
-0.32360000000000005,-0.09502615801193452
-0.32460000000000006,-0.09494127533394262
-0.32560000000000006,-0.09487053976894937
-0.32660000000000006,-0.09481395131695476
-0.32760000000000006,-0.09478565709095746
-0.32860000000000006,-0.09472906863896285
-0.32960000000000006,-0.0946300388479723
-0.33060000000000006,-0.09457345039597771
-0.33160000000000006,-0.09451686194398311
-0.33260000000000006,-0.09450271483098445
-0.33360000000000006,-0.09444612637898986
-0.33460000000000006,-0.0943470965879993
-0.33560000000000006,-0.09427636102300604
-0.33660000000000007,-0.09421977257101144
-0.33760000000000007,-0.09421977257101144
-0.33860000000000007,-0.0941773312320155
-0.33960000000000007,-0.09410659566702224
-0.34060000000000007,-0.09402171298903034
-0.34160000000000007,-0.09396512453703573
-0.34260000000000007,-0.09395097742403709
-0.34360000000000007,-0.09389438897204248
-0.3446000000000001,-0.09383780052004788
-0.3456000000000001,-0.09376706495505463
-0.3466000000000001,-0.09369632939006138
-0.34759999999999996,-0.09369632939006138
-0.3486000000000001,-0.09365388805106543
-0.34959999999999997,-0.09358315248607219
-0.3506000000000001,-0.09351241692107892
-0.35159999999999997,-0.09346997558208296
-0.3526000000000001,-0.09346997558208296
-0.35359999999999997,-0.09342753424308703
-0.3546000000000001,-0.09334265156509512
-0.35559999999999997,-0.09325776888710322
-0.3566000000000001,-0.09322947466110591
-0.3576,-0.09321532754810727
-0.3586000000000001,-0.09321532754810727
-0.3596,-0.09311629775711672
-0.3606000000000001,-0.09304556219212347
-0.3616,-0.09298897374012885
-0.3626000000000001,-0.09298897374012885
-0.3636,-0.09296067951413156
-0.3646000000000001,-0.09288994394913831
-0.3656,-0.09283335549714371
-0.3666000000000001,-0.0927767670451491
-0.3676,-0.09279091415814776
-0.3686000000000001,-0.0927767670451491
-0.3696,-0.09267773725415854
-0.3706000000000001,-0.09264944302816126
-0.3716,-0.09262114880216396
-0.3726000000000001,-0.09259285457616664
-0.3736,-0.09257870746316801
-0.3746000000000001,-0.09250797189817477
-0.3756,-0.0924372363331815
-0.3766000000000001,-0.0924089421071842
-0.3776,-0.0924089421071842
-0.3786000000000001,-0.09236650076818824
-0.3796,-0.09230991231619365
-0.3806000000000001,-0.09225332386419903
-0.3816,-0.0922391767512004
-0.3826000000000001,-0.09221088252520308
-0.3836,-0.09222502963820174
-0.3846000000000001,-0.09216844118620715
-0.3856,-0.09208355850821524
-0.3866000000000001,-0.09206941139521659
-0.3876,-0.09206941139521659
-0.3886000000000001,-0.09205526428221794
-0.3896,-0.092012822943222
-0.3906000000000001,-0.09194208737822873
-0.3916,-0.09189964603923279
-0.3926000000000001,-0.09191379315223143
-0.3936,-0.09189964603923279
-0.3946000000000001,-0.09184305758723818
-0.3956,-0.09180061624824223
-0.3966000000000001,-0.09175817490924627
-0.3976,-0.09175817490924627
-0.3986000000000001,-0.09174402779624763
-0.3996,-0.09167329223125438
-0.4006000000000001,-0.09164499800525706
-0.4016,-0.09160255666626112
-0.4026000000000001,-0.09163085089225843
-0.4036,-0.09161670377925978
-0.4046000000000001,-0.09156011532726518
-0.4056,-0.09150352687527057
-0.40660000000000013,-0.09148937976227192
-0.4076,-0.09147523264927326
-0.40860000000000013,-0.09147523264927326
-0.4096,-0.09144693842327598
-0.41060000000000013,-0.09139034997128137
-0.4116,-0.09134790863228542
-0.41260000000000013,-0.09137620285828273
-0.4136,-0.09137620285828273
-0.41460000000000014,-0.09131961440628812
-0.4156,-0.09127717306729217
-0.41660000000000014,-0.09124887884129487
-0.4176,-0.09123473172829621
-0.41860000000000014,-0.09124887884129487
-0.41960000000000003,-0.09122058461529756
-0.42060000000000014,-0.09114984905030431
-0.42160000000000003,-0.09114984905030431
-0.42260000000000014,-0.09119229038930025
-0.42360000000000003,-0.09116399616330297
-0.42460000000000014,-0.091121554824307
-0.42560000000000003,-0.09106496637231241
-0.42660000000000015,-0.09103667214631511
-0.42760000000000004,-0.09103667214631511
-0.42860000000000015,-0.09105081925931376
-0.42960000000000004,-0.09102252503331647
-0.43060000000000015,-0.09098008369432051
-0.43160000000000004,-0.09093764235532456
-0.43260000000000015,-0.09096593658132186
-0.43360000000000004,-0.09096593658132186
-0.43460000000000015,-0.0909234952423259
-0.43560000000000004,-0.09089520101632861
