Potential V vs RHE, Current mA cm-2
0.013299999999999867,-7.243321855308987
0.012299999999999978,-10.514134380596953
0.011299999999999866,-12.651763154693022
0.010299999999999976,-14.090524546655764
0.009299999999999864,-15.307176264539699
0.008299999999999974,-16.438945304431726
0.007299999999999862,-17.40094898833995
0.006299999999999972,-17.924392169290012
0.00529999999999986,-18.23562865526032
0.0042999999999999705,-18.80151317520634
0.0032999999999998586,-19.452280373144255
0.0022999999999999687,-20.06060623208622
0.0012999999999998568,-20.414284057052477
0.00029999999999996696,-20.584049413036283
-0.000700000000000145,-20.85284456001064
-0.0017000000000000348,-21.291405062968803
-0.0027000000000001467,-21.729965565926964
-0.0037000000000000366,-21.94217226090672
-0.0047000000000001485,-21.94217226090672
-0.005700000000000038,-22.196820294882425
-0.00670000000000015,-22.63538079784059
-0.00770000000000004,-22.989058622806844
-0.008700000000000152,-23.2012653177866
-0.009700000000000042,-23.300295108777156
-0.010700000000000154,-23.47006046476096
-0.011700000000000044,-23.86617962872317
-0.012700000000000156,-24.20571034069078
-0.013700000000000045,-24.24815167968673
-0.014700000000000157,-24.24815167968673
-0.015700000000000047,-24.34718147067728
-0.01670000000000016,-24.64427084364894
-0.01770000000000005,-24.95550732961925
-0.01870000000000016,-24.997948668615198
-0.01970000000000005,-24.95550732961925
-0.020700000000000163,-25.04039000761115
-0.021700000000000053,-25.39406783257741
-0.022700000000000164,-25.73359854454502
-0.023700000000000054,-25.81848122253692
-0.024700000000000166,-25.86092256153287
-0.025700000000000056,-26.044835030515326
-0.026700000000000168,-26.38436574248293
-0.027700000000000058,-26.69560222845324
-0.02870000000000017,-26.738043567449193
-0.02970000000000006,-26.65316088945729
-0.03070000000000017,-26.738043567449193
-0.03170000000000006,-26.9643973754276
-0.03270000000000017,-27.303928087395207
-0.03370000000000006,-27.303928087395207
-0.034700000000000175,-27.303928087395207
-0.035700000000000065,-27.487840556377662
-0.03670000000000018,-27.827371268345274
-0.03770000000000007,-28.18104909331153
-0.03870000000000018,-28.308373110299385
-0.03970000000000007,-28.265931771303435
-0.04070000000000018,-28.350814449295335
-0.04170000000000007,-28.662050935265643
-0.04270000000000018,-28.91669896924135
-0.04370000000000007,-28.959140308237306
-0.044700000000000184,-28.91669896924135
-0.045700000000000074,-29.058170099227848
-0.046700000000000186,-29.35525947219951
-0.047700000000000076,-29.62405461917387
-0.04870000000000019,-29.751378636161718
-0.04970000000000008,-29.793819975157668
-0.05070000000000019,-30.00602667013743
-0.05170000000000008,-30.402145834099635
-0.05270000000000019,-30.7558236590659
-0.05370000000000008,-30.88314767605375
-0.05470000000000019,-30.88314767605375
-0.05570000000000008,-30.925589015049702
-0.056700000000000195,-31.19438416202406
-0.057700000000000085,-31.449032195999767
-0.058700000000000196,-31.49147353499572
-0.059700000000000086,-31.533914873991666
-0.0607000000000002,-31.717827342974125
-0.06170000000000009,-32.09979939393769
-0.0627000000000002,-32.49591855789989
-0.06370000000000009,-32.62324257488775
-0.0647000000000002,-32.62324257488775
-0.06570000000000009,-32.70812525287965
-0.0667000000000002,-32.97692039985401
-0.0677000000000001,-33.288156885824314
-0.0687000000000002,-33.288156885824314
-0.0697000000000001,-33.288156885824314
-0.07070000000000021,-33.41548090281216
-0.0717000000000001,-33.670128936787876
-0.07270000000000021,-34.06624810075008
-0.0737000000000001,-34.10868943974604
-0.07470000000000021,-34.10868943974604
-0.0757000000000001,-34.278454795729836
-0.07670000000000021,-34.632132620696105
-0.0777000000000001,-34.98581044566235
-0.07870000000000021,-35.15557580164616
-0.0797000000000001,-35.11313446265021
-0.08070000000000022,-35.240458479638065
-0.0817000000000001,-35.594136304604326
-0.08270000000000022,-35.90537279057463
-0.08370000000000011,-35.94781412957058
-0.08470000000000022,-36.07513814655844
-0.08570000000000011,-36.244903502542236
-0.08670000000000022,-36.329786180534136
-0.08770000000000011,-36.6834640055004
-0.08870000000000022,-36.8532293614842
-0.08970000000000011,-36.95225915247476
-0.09070000000000022,-37.206907186450465
-0.09170000000000011,-37.645467689408626
-0.09270000000000023,-37.99914551437489
-0.09370000000000012,-37.94255706238028
-0.09470000000000023,-37.85767438438838
-0.09570000000000012,-37.85767438438838
-0.09670000000000023,-38.12646953136274
-0.09770000000000012,-38.42355890433439
-0.09870000000000023,-38.42355890433439
-0.09970000000000012,-38.38111756533845
-0.10070000000000023,-38.46600024333035
-0.10170000000000012,-38.81967806829661
-0.10270000000000024,-39.258238571254765
-0.10370000000000013,-39.38556258824262
-0.10470000000000024,-39.42800392723857
-0.10570000000000013,-39.61191639622103
-0.10670000000000024,-40.03632978618054
-0.10770000000000013,-40.51733162813464
-0.10870000000000024,-40.743685436113054
-0.10970000000000013,-40.87100945310091
-0.11070000000000024,-41.083216148080666
-0.11170000000000013,-41.52177665103883
-0.11270000000000002,-42.00277849299294
-0.11370000000000013,-42.2715736399673
-0.11470000000000002,-42.3564563179592
-0.11570000000000014,-42.6111043519349
-0.11670000000000003,-42.96478217690117
-0.11770000000000014,-43.27601866287147
-0.11870000000000003,-43.17698887188092
-0.11970000000000014,-42.96478217690117
-0.12070000000000003,-42.87989949890926
-0.12170000000000014,-43.134547532884966
-0.12270000000000003,-43.40334267985933
-0.12370000000000014,-43.53066669684718
-0.12470000000000003,-43.48822535785123
-0.12570000000000014,-43.70043205283099
-0.12670000000000003,-44.096551216793195
-0.12770000000000015,-44.535111719751356
-0.12870000000000004,-44.80390686672572
-0.12970000000000015,-44.88878954471762
-0.13070000000000004,-45.10099623969737
-0.13170000000000015,-45.497115403659585
-0.13270000000000004,-45.89323456762179
-0.13370000000000015,-46.02055858460964
-0.13470000000000004,-46.10544126260155
-0.13570000000000015,-46.3176479575813
-0.13670000000000004,-46.75620846053947
-0.13770000000000016,-47.10988628550572
-0.13870000000000005,-47.27965164148953
-0.13970000000000016,-47.36453431948143
-0.14070000000000005,-47.590888127459834
-0.14170000000000016,-48.071889969413945
-0.14270000000000005,-48.55289181136806
-0.14370000000000016,-48.63777448935996
-0.14470000000000005,-48.68021582835591
-0.14570000000000016,-48.84998118433972
-0.14670000000000005,-49.24610034830193
-0.14770000000000016,-49.642219512264134
-0.14870000000000005,-49.81198486824794
-0.14970000000000017,-49.85442620724389
-0.15070000000000006,-50.0807800152223
-0.15170000000000017,-50.50519340518181
-0.15270000000000006,-50.98619524713592
-0.15370000000000017,-51.17010771611838
-0.15470000000000006,-51.21254905511432
-0.15570000000000017,-51.38231441109813
-0.15670000000000006,-51.73599223606439
-0.15770000000000017,-52.2169940780185
-0.15870000000000006,-52.386759434002315
-0.15970000000000018,-52.42920077299826
-0.16070000000000007,-52.69799591997262
-0.16170000000000018,-53.12240930993213
-0.16270000000000007,-53.56096981289029
-0.16370000000000018,-53.82976495986464
-0.16470000000000007,-53.91464763785655
-0.16570000000000018,-54.1268543328363
-0.16670000000000007,-54.65029751378637
-0.16770000000000018,-55.17374069473642
-0.16870000000000007,-55.442535841710786
-0.16970000000000018,-55.612301197694585
-0.17070000000000007,-55.838655005673
-0.17170000000000019,-56.26306839563251
-0.17270000000000008,-56.70162889859067
-0.1737000000000002,-57.012865384560975
-0.17470000000000008,-57.097748062552874
-0.1757000000000002,-57.30995475753264
-0.17670000000000008,-57.8333979384827
-0.1777000000000002,-58.22951710244491
-0.17870000000000008,-58.45587091042332
-0.1797000000000002,-58.583194927411164
-0.18070000000000008,-58.75296028339497
-0.1817000000000002,-59.19152078635314
-0.18270000000000008,-59.757405306299155
-0.1837000000000002,-60.02620045327351
-0.1847000000000001,-60.19596580925731
-0.1857000000000002,-60.45061384323302
-0.1867000000000001,-60.93161568518713
-0.1877000000000002,-61.412617527141244
-0.1887000000000001,-61.6814126741156
-0.1897000000000002,-61.851178030099405
-0.1907000000000001,-62.16241451606972
-0.1917000000000001,-62.64341635802381
-0.19269999999999998,-63.15271242597524
-0.1937000000000001,-63.421507572949594
-0.19469999999999998,-63.54883158993744
-0.1957000000000001,-63.81762673691181
-0.19669999999999999,-64.29862857886593
-0.1977000000000001,-64.77963042082003
-0.1987,-65.11916113278764
-0.1997000000000001,-65.3030736017701
-0.2007,-65.68504565273366
-0.2017000000000001,-66.20848883368372
-0.2027,-66.73193201463377
-0.2037000000000001,-67.08560983960004
-0.2047,-67.21293385658788
-0.2057000000000001,-67.6090530205501
-0.2067,-68.17493754049613
-0.2077000000000001,-68.69838072144618
-0.2087,-69.0944998854084
-0.2097000000000001,-69.26426524139221
-0.2107,-69.57550172736251
-0.2117000000000001,-70.09894490831257
-0.2127,-70.66482942825859
-0.2137000000000001,-71.0043601402262
-0.2147,-71.27315528720055
-0.2157000000000001,-71.66927445116276
-0.2167,-72.19271763211282
-0.21770000000000012,-72.71616081306288
-0.2187,-72.97080884703858
-0.21970000000000012,-73.15472131602105
-0.2207,-73.45181068899271
-0.22170000000000012,-73.97525386994278
-0.2227,-74.58357972888473
-0.22370000000000012,-74.93725755385098
-0.2247,-75.14946424883075
-0.22570000000000012,-75.50314207379701
-0.2267,-76.02658525474708
-0.22770000000000012,-76.63491111368903
-0.22870000000000001,-77.03103027765125
-0.22970000000000013,-77.243236972631
-0.23070000000000002,-77.63935613659322
-0.23170000000000013,-78.24768199553519
-0.23270000000000002,-78.91259630647174
-0.23370000000000013,-79.25212701843935
-0.23470000000000002,-79.52092216541372
-0.23570000000000013,-79.94533555537322
-0.23670000000000002,-80.46877873632329
-0.2376999999999999,-80.99222191727335
-0.23870000000000002,-81.38834108123557
-0.2396999999999999,-81.51566509822342
-0.24070000000000003,-81.86934292318966
-0.24169999999999991,-82.43522744313569
-0.24270000000000003,-83.0011119630817
-0.24369999999999992,-83.43967246603985
-0.24470000000000003,-83.70846761301424
-0.24569999999999992,-84.13288100297372
-0.24670000000000003,-84.75535397491434
-0.24769999999999992,-85.40612117285227
-0.24870000000000003,-85.80224033681448
-0.24969999999999992,-86.05688837079018
-0.25070000000000003,-86.45300753475239
-0.2516999999999999,-87.06133339369435
-0.25270000000000004,-87.66965925263632
-0.2536999999999999,-88.06577841659853
-0.25470000000000004,-88.32042645057423
-0.2556999999999999,-88.63166293654454
-0.25670000000000004,-89.15510611749461
-0.25769999999999993,-89.76343197643658
-0.25870000000000004,-90.20199247939475
-0.25969999999999993,-90.51322896536506
-0.26070000000000004,-90.89520101632861
-0.26169999999999993,-91.51767398826922
-0.26270000000000004,-92.12599984721119
-0.26369999999999993,-92.50797189817473
-0.26470000000000005,-92.7767670451491
-0.26569999999999994,-93.21532754810727
-0.26670000000000005,-93.86609474604518
-0.26769999999999994,-94.55930328297906
-0.26870000000000005,-94.95542244694126
-0.26969999999999994,-95.22421759391563
-0.27070000000000005,-95.69107232287108
-0.27169999999999994,-96.35598663380765
-0.27270000000000005,-97.00675383174556
-0.27369999999999994,-97.4877556736997
-0.27470000000000006,-97.74240370767538
-0.27569999999999995,-98.13852287163759
-0.27670000000000006,-98.7044073915836
-0.27769999999999995,-99.31273325052557
-0.27870000000000006,-99.70885241448778
-0.27969999999999995,-99.97764756146215
-0.28070000000000006,-100.18985425644189
-0.28169999999999995,-100.71329743739196
-0.28270000000000006,-101.50553576531638
-0.28369999999999995,-102.3260683192381
-0.28470000000000006,-102.93439417818009
-0.28569999999999995,-103.64174982811258
-0.28670000000000007,-104.5471650600262
-0.28769999999999996,-105.38184472694657
-0.28870000000000007,-105.69308121291688
-0.28969999999999996,-105.73552255191284
-0.29070000000000007,-105.99017058588855
-0.29169999999999996,-106.2589657328629
-0.29270000000000007,-106.59849644483052
-0.29369999999999996,-106.95217426979677
-0.2947000000000001,-107.16438096477653
-0.29569999999999996,-107.51805878974278
-0.2967000000000001,-108.2537086656726
-0.29769999999999996,-108.96106431560513
-0.2987000000000001,-109.4845074965552
-0.29969999999999997,-109.78159686952685
-0.3007000000000001,-110.22015737248502
-0.30169999999999997,-110.87092457042293
-0.3027000000000001,-111.7904869153352
-0.30369999999999997,-112.48369545226906
-0.3047000000000001,-113.14860976320564
-0.30569999999999997,-113.84181830013951
-0.3067000000000001,-114.76138064505177
-0.3077,-115.72338432896
-0.3087000000000001,-116.50147554388576
-0.3097,-117.10980140282774
-0.3107000000000001,-117.85959839175621
-0.3117,-118.68013094567793
-0.3127000000000001,-119.38748659561045
-0.3137,-119.68457596858211
-0.3147000000000001,-119.72701730757805
-0.3157,-119.99581245455242
-0.3167000000000001,-120.51925563550247
-0.3177,-121.21246417243634
-0.3187000000000001,-121.69346601439047
-0.3197,-122.0471438393567
-0.3207000000000001,-122.69791103729463
-0.3217,-123.4760022522204
-0.3227000000000001,-124.35312325813672
-0.3237,-125.04633179507057
-0.3247000000000001,-125.62636342801528
-0.3257,-126.3195719649491
-0.3267000000000001,-127.23913430986138
-0.3277,-128.10210820277908
-0.3287000000000001,-128.8094638527116
-0.3297,-129.33290703366166
-0.3307000000000001,-129.98367423159957
-0.3317,-130.84664812451723
-0.3327000000000001,-131.72376913043357
-0.3337,-132.41697766736743
-0.3347000000000001,-133.03945063930803
-0.3357,-133.64777649825
-0.3367000000000001,-134.56733884316228
-0.3377,-135.51519541407185
-0.3387000000000001,-136.26499240300032
-0.3397,-136.8733182619423
-0.3407000000000001,-137.70799792886265
-0.3417,-138.65585449977226
-0.3427000000000001,-139.70274086167237
-0.3437,-140.4949791895968
-0.3447000000000001,-141.14574638753473
-0.3457,-142.03701450644968
-0.3467000000000001,-143.0273124163552
-0.3477,-144.15908145624724
-0.3487000000000001,-145.00790823616626
-0.3497,-145.7152638860988
-0.3507000000000001,-146.7055617960043
-0.3517,-147.6958597059098
-0.3527000000000001,-148.82762874580186
-0.3537,-149.8179266557074
-0.3547000000000001,-150.66675343562642
-0.3557,-151.5155802155454
-0.35670000000000013,-152.50587812545095
-0.3577,-153.77911829532948
-0.35870000000000013,-154.76941620523502
-0.3597,-155.47677185516753
-0.36070000000000013,-156.60854089505958
-0.3617,-157.7403099349516
-0.3626999999999999,-159.01355010483013
-0.3637,-160.00384801473567
-0.3646999999999999,-160.8526747946547
-0.3657,-161.84297270456022
-0.3666999999999999,-163.25768400442522
-0.3677,-164.67239530429026
-0.3686999999999999,-165.6626932141958
-0.36970000000000003,-166.65299112410133
-0.3706999999999999,-167.6432890340068
-0.37170000000000003,-168.91652920388537
-0.3726999999999999,-170.33124050375042
-0.37370000000000003,-171.32153841365593
-0.3746999999999999,-172.31183632356147
-0.37570000000000003,-173.44360536345349
-0.3766999999999999,-174.71684553333202
-0.37770000000000004,-176.27302796318358
-0.3786999999999999,-177.54626813306209
-0.37970000000000004,-178.81950830294062
-0.3806999999999999,-180.09274847281918
-0.38170000000000004,-181.64893090267074
-0.38269999999999993,-183.20511333252225
-0.38370000000000004,-184.47835350240078
-0.38469999999999993,-185.7515936722793
-0.38570000000000004,-186.88336271217133
-0.38669999999999993,-185.3271802823198
-0.38570000000000004,-180.09274847281918
-0.38469999999999993,-175.84861457322407
-0.38370000000000004,-172.0288940635885
-0.38269999999999993,-168.77505807389886
-0.38170000000000004,-165.94563547416882
-0.3806999999999999,-163.39915513441173
-0.37970000000000004,-160.71120366466818
-0.3786999999999999,-157.88178106493808
-0.37770000000000004,-155.33530072518104
-0.3766999999999999,-153.07176264539694
-0.37570000000000003,-150.8082245656129
-0.3746999999999999,-148.40321535584232
-0.37370000000000003,-145.85673501608528
-0.3726999999999999,-143.3102546763282
-0.37170000000000003,-141.18818772653066
-0.3706999999999999,-139.13685634172634
-0.36970000000000003,-136.8733182619423
-0.3686999999999999,-134.6097801821582
-0.3677,-132.47356611936203
-0.3666999999999999,-130.46467607355368
-0.3657,-128.62555138372915
-0.3646999999999999,-126.48933732093293
-0.3637,-124.31068191914078
-0.3626999999999999,-122.25935053433648
-0.3617,-120.43437295751058
-0.36070000000000013,-118.68013094567793
-0.3597,-116.72782935186417
-0.35870000000000013,-114.67649796705987
-0.3577,-112.66760792125153
-0.35670000000000013,-110.92751302241753
-0.3557,-109.13082967158894
-0.3547000000000001,-107.30585209476303
-0.3537,-105.33940338795064
-0.3527000000000001,-103.50027869812607
-0.3517,-101.88750781627995
-0.3507000000000001,-100.45864940341626
-0.3497,-98.74684873057957
-0.3487000000000001,-96.96431249274961
-0.3477,-95.30910027190752
-0.3467000000000001,-93.82365340704924
-0.3457,-92.33820654219093
-0.3447000000000001,-90.68299432134886
-0.3437,-88.8438696315243
-0.3427000000000001,-87.14621607168625
-0.3417,-85.70321054582392
-0.3407000000000001,-84.31679347195619
-0.3397,-82.746463929106
-0.3387000000000001,-81.09125170826391
-0.3377,-79.52092216541372
-0.3367000000000001,-78.16279931754329
-0.3357,-76.98858893865528
-0.3347000000000001,-75.5880247517889
-0.3337,-74.14501922592657
-0.3327000000000001,-72.80104349105478
-0.3317,-71.58439177317086
-0.3307000000000001,-70.39603428128423
-0.3297,-69.0096172074165
-0.3287000000000001,-67.43928766456631
-0.3277,-65.95384079970802
-0.3267000000000001,-64.72304196882543
-0.3257,-63.59127292893339
-0.3247000000000001,-62.24729719406162
-0.3237,-60.84673300719523
-0.3227000000000001,-59.587639950315335
-0.3217,-58.54075358841522
-0.3207000000000001,-57.53630856551105
-0.3197,-56.36209818662306
-0.3187000000000001,-54.919092660760725
-0.3177,-53.603411151886235
-0.3167000000000001,-52.514083450990164
-0.3157,-51.509638428085985
-0.3147000000000001,-50.37786938819396
-0.3137,-49.076334992318124
-0.3127000000000001,-47.8879775004315
-0.3117,-46.982562268517874
-0.3107000000000001,-46.10544126260155
-0.3097,-45.10099623969737
-0.3087000000000001,-43.96922719980534
-0.3077,-42.87989949890926
-0.3067000000000001,-42.087661170984845
-0.30569999999999997,-41.267128617063115
-0.3047000000000001,-40.220242255162994
-0.30369999999999997,-39.130914554266916
-0.3027000000000001,-38.08402819236679
-0.30169999999999997,-37.334231203438314
-0.3007000000000001,-36.64102266650445
-0.29969999999999997,-35.636577643600276
-0.2987000000000001,-34.50480860370825
-0.29769999999999996,-33.330598224820264
-0.2967000000000001,-32.45347721890394
-0.29569999999999996,-31.717827342974125
-0.2947000000000001,-30.79826499806185
-0.29369999999999996,-29.751378636161718
-0.29270000000000007,-28.789374952253496
-0.29169999999999996,-28.05372507632368
-0.29070000000000007,-27.38881076538711
-0.28969999999999996,-26.568278211465387
-0.28870000000000007,-25.60627452755716
-0.28769999999999996,-24.771594860636792
-0.28670000000000007,-24.120827662698876
-0.28569999999999995,-23.639825820744765
-0.28470000000000006,-22.904175944814945
-0.28369999999999995,-21.98461359990267
-0.28270000000000006,-21.248963723972853
-0.28169999999999995,-20.683079204026836
-0.28070000000000006,-20.202077362072725
-0.27969999999999995,-19.49472171214021
-0.27870000000000006,-18.589306480226583
-0.27769999999999995,-17.75462681330621
-0.27670000000000006,-17.231183632356142
-0.27569999999999995,-16.750181790402035
-0.27470000000000006,-16.099414592464115
-0.27369999999999994,-15.264734925543747
-0.27270000000000005,-14.486643710617974
-0.27169999999999994,-14.002812446064135
-0.27070000000000005,-13.567081365705702
-0.26969999999999994,-12.99978213445982
-0.26870000000000005,-12.170761312738911
-0.26769999999999994,-11.517164692201263
-0.26670000000000005,-10.993721511251199
