Potential V vs RHE, Current mA cm-2
0.05339999999999995,0.20258665814067325
0.05239999999999995,0.16071120366466815
0.051399999999999946,0.1312003259494835
0.050399999999999945,0.11282322616423668
0.049399999999999944,0.09857708337459577
0.04839999999999994,0.08611347682278478
0.04739999999999994,0.07472505085887124
0.04639999999999994,0.06428448146586727
0.04539999999999994,0.05448053215780257
0.04439999999999994,0.045666880759643376
0.04339999999999994,0.03713617162145721
0.04239999999999994,0.028662050935265648
0.04139999999999994,0.020980168576998495
0.040399999999999936,0.013343556980327026
0.039399999999999935,0.006107308681517363
0.038399999999999934,-0.0010116600505334877
0.03739999999999993,-0.007632367462771873
0.03639999999999993,-0.014147112998650365
0.03539999999999993,-0.020343548492059226
0.03439999999999993,-0.026384365742482933
0.03339999999999993,-0.03193003403795388
0.03239999999999993,-0.037518143672420776
0.03139999999999993,-0.04327601866287147
0.030399999999999927,-0.04855289181136806
0.029399999999999926,-0.05374488228187274
0.028399999999999925,-0.058597342040409825
0.027399999999999924,-0.0634498017989469
0.026399999999999924,-0.06862764515645292
0.025399999999999923,-0.07318301554201835
0.024399999999999922,-0.07765350324959187
0.02339999999999992,-0.08212399095716538
0.02239999999999992,-0.08633983063076318
0.02139999999999992,-0.09071128854734616
0.020399999999999918,-0.09495542244694127
0.019399999999999917,-0.0988175842955728
0.018399999999999916,-0.10280707016119221
0.017399999999999916,-0.10659849644483052
0.016399999999999915,-0.11057383519745125
0.015399999999999914,-0.11461990951506526
0.014399999999999913,-0.11801521663474136
0.013399999999999912,-0.1216793189013918
0.012399999999999911,-0.12537171539403955
0.01139999999999991,-0.12876702251371563
0.01039999999999991,-0.13244527189336472
0.009399999999999908,-0.13569910788305434
0.008399999999999908,-0.1388963554207493
0.007399999999999907,-0.1423199567664227
0.006399999999999906,-0.14543232162612577
0.005399999999999905,-0.14882762874580185
0.004399999999999904,-0.15193999360550495
0.003399999999999903,-0.15476941620523502
0.002399999999999902,-0.15802325219492458
0.0013999999999999013,-0.16127708818461417
0.00039999999999990044,-0.16438945304431726
-0.0006000000000001005,-0.16736034677403386
-0.0016000000000001013,-0.16990682711379093
-0.0026000000000001022,-0.1728777208435075
-0.003600000000000103,-0.17599008570321056
-0.004600000000000104,-0.17881950830294063
-0.005600000000000105,-0.18179040203265723
-0.006600000000000106,-0.1844783535024008
-0.007600000000000107,-0.18744924723211737
-0.008600000000000108,-0.19042014096183393
-0.009600000000000108,-0.193249563561564
-0.01060000000000011,-0.19607898616129407
-0.01160000000000011,-0.19862546650105112
-0.012600000000000111,-0.20202077362072723
-0.013600000000000112,-0.20499166735044383
-0.014600000000000113,-0.2075381476902009
-0.015600000000000114,-0.21008462802995795
-0.016600000000000115,-0.21291405062968802
-0.017600000000000116,-0.2157434732294181
-0.018600000000000116,-0.21857289582914816
-0.019600000000000117,-0.22140231842887825
-0.020600000000000118,-0.2242317410286083
-0.02160000000000012,-0.2270611636283384
-0.02260000000000012,-0.22989058622806843
-0.02360000000000012,-0.23272000882779853
-0.024600000000000122,-0.23583237368750162
-0.025600000000000123,-0.2385203251572452
-0.026600000000000124,-0.24149121888696176
-0.027600000000000124,-0.2443206414866918
-0.028600000000000125,-0.2474330063463949
-0.029600000000000126,-0.250545371206098
-0.030600000000000127,-0.2532333226758416
-0.03160000000000013,-0.2562042164055581
-0.03260000000000013,-0.2591751101352747
-0.03360000000000013,-0.2622874749949778
-0.03460000000000002,-0.26554131098466743
-0.03560000000000002,-0.26851220471438403
-0.03660000000000002,-0.27148309844410057
-0.03760000000000002,-0.27473693443379016
-0.03860000000000002,-0.2781322415534663
-0.039600000000000024,-0.2813860775431558
-0.040600000000000025,-0.2844984424028589
-0.041600000000000026,-0.2874693361325754
-0.04260000000000003,-0.29100611438223806
-0.04360000000000003,-0.29454289263190064
-0.04460000000000003,-0.29779672862159023
-0.04560000000000003,-0.3011920357412663
-0.04660000000000003,-0.3044458717309559
-0.04760000000000003,-0.3079826499806185
-0.04860000000000003,-0.31180237049025405
-0.04960000000000003,-0.31533914873991664
-0.050600000000000034,-0.31901739811956575
-0.051600000000000035,-0.32269564749921487
-0.052600000000000036,-0.326373896878864
-0.053600000000000037,-0.3303350885184861
-0.05460000000000004,-0.3338718667681486
-0.05560000000000004,-0.3378330584077708
-0.05660000000000004,-0.3419357211773794
-0.05760000000000004,-0.345755441687015
-0.05860000000000004,-0.3499995755866101
-0.05960000000000004,-0.3541022383562187
-0.06060000000000004,-0.3580634299958408
-0.061600000000000044,-0.36244903502542236
-0.06260000000000004,-0.3666931689250175
-0.06360000000000005,-0.37107877395459915
-0.06460000000000005,-0.3754643789841807
-0.06560000000000005,-0.37970851288377583
-0.06660000000000005,-0.384235589043344
-0.06760000000000005,-0.3887626652029121
-0.06860000000000005,-0.39314827023249366
-0.06960000000000005,-0.39809975978202133
-0.07060000000000005,-0.4024853648116029
-0.07160000000000005,-0.40701244097117106
-0.07260000000000005,-0.4122468727806717
-0.07360000000000005,-0.41705689120021283
-0.07460000000000006,-0.42200838074974045
-0.07560000000000006,-0.4271013414292546
-0.07660000000000006,-0.43176988871880917
-0.07760000000000006,-0.4371457916582963
-0.07860000000000006,-0.44238022346779693
-0.07960000000000006,-0.44761465527729766
-0.08060000000000006,-0.45299055821678474
-0.08160000000000006,-0.45808351889629884
-0.08260000000000006,-0.46374236409575903
-0.08360000000000006,-0.4694012092952191
-0.08460000000000006,-0.4749185833646928
-0.08560000000000006,-0.480577428564153
-0.08660000000000007,-0.4859533315036401
-0.08760000000000007,-0.4917536478330867
-0.08860000000000007,-0.4978369064225064
-0.08960000000000007,-0.503637222751953
-0.09060000000000007,-0.5094375390813997
-0.09160000000000007,-0.5153793265408328
-0.09260000000000007,-0.5214625851302525
-0.09360000000000007,-0.5279702571096317
-0.09460000000000007,-0.5339120445690649
-0.09560000000000007,-0.5399953031584845
-0.09660000000000007,-0.5463615040078772
-0.09760000000000008,-0.5525862337272834
-0.09860000000000008,-0.5593768479666354
-0.09960000000000008,-0.5660259910760012
-0.10060000000000008,-0.5723921919253939
-0.10160000000000008,-0.5790413350347595
-0.10260000000000008,-0.5856904781441251
-0.10360000000000008,-0.5924810923834773
-0.10460000000000008,-0.5995546488828025
-0.10560000000000008,-0.6062037919921682
-0.10660000000000008,-0.6132773484914934
-0.10760000000000008,-0.620209433860832
-0.10860000000000009,-0.6271415192301707
-0.10960000000000009,-0.6344980179894689
-0.11060000000000009,-0.6414301033588077
-0.11160000000000009,-0.6486451309881194
-0.11260000000000009,-0.6561431008774039
-0.11360000000000009,-0.6634995996367021
-0.11460000000000009,-0.6715634540459329
-0.11560000000000009,-0.6793443661951906
-0.11660000000000009,-0.6864179226945158
-0.1176000000000001,-0.6941988348437735
-0.1186000000000001,-0.7018382758630447
-0.1196000000000001,-0.7096191880123024
-0.1206000000000001,-0.7175415712915466
-0.1216000000000001,-0.7251810123108178
-0.1226000000000001,-0.7332448667200485
-0.1236000000000001,-0.7413087211292793
-0.1246000000000001,-0.7492311044085235
-0.1256000000000001,-0.7574364299477406
-0.1266000000000001,-0.7656417554869578
-0.1276000000000001,-0.773847081026175
-0.1286000000000001,-0.7823353488253653
-0.1296000000000001,-0.7906821454945689
-0.1306000000000001,-0.7991704132937593
-0.1316000000000001,-0.8076586810929495
-0.1326000000000001,-0.8160054777621532
-0.1336000000000001,-0.8252011012112759
-0.1346000000000001,-0.8335478978804797
-0.1356000000000001,-0.8423191079396429
-0.1366000000000001,-0.8509488468688196
-0.1376000000000001,-0.8597200569279828
-0.1386000000000001,-0.8690571515070921
-0.1396000000000001,-0.8778283615662553
-0.1406000000000001,-0.8868825138853914
-0.14160000000000011,-0.8960781373345142
-0.14260000000000012,-0.905273760783637
-0.14360000000000012,-0.9144693842327598
-0.14460000000000012,-0.923806478811869
-0.14560000000000012,-0.9330021022609917
-0.14660000000000012,-0.9424806679700873
-0.14760000000000012,-0.9518177625491967
-0.14860000000000012,-0.961437799388279
-0.14960000000000012,-0.9713407784873341
-0.15060000000000012,-0.9806778730664433
-0.15160000000000012,-0.9902979099055255
-0.15260000000000012,-1.0002008890045808
-0.15360000000000013,-1.010103868103636
-0.15460000000000013,-1.0200068472026915
-0.15560000000000013,-1.0299098263017468
-0.15660000000000013,-1.039812805400802
-0.15760000000000013,-1.0499987267598303
-0.15860000000000013,-1.060043176988872
-0.15960000000000002,-1.0700876272179138
-0.16060000000000002,-1.0804150197069284
-0.16160000000000002,-1.0904594699359704
-0.16260000000000002,-1.100786862424985
-0.16360000000000002,-1.1115386683039592
-0.16460000000000002,-1.1218660607929742
-0.16560000000000002,-1.1331837511918943
-0.16660000000000003,-1.1450673261107607
-0.16760000000000003,-1.154970305209816
-0.16860000000000003,-1.1655806399588036
-0.16960000000000003,-1.176049503577805
-0.17060000000000003,-1.1869427805867658
-0.17160000000000003,-1.1978360575957268
-0.17260000000000003,-1.2087293346046872
-0.17360000000000003,-1.2199055538736212
-0.17460000000000003,-1.2309403020125684
-0.17560000000000003,-1.2419750501515157
-0.17660000000000003,-1.2532927405504362
-0.17760000000000004,-1.2643274886893834
-0.17860000000000004,-1.2759281213482767
-0.17960000000000004,-1.2872458117471968
-0.18060000000000004,-1.2984220310161307
-0.18160000000000004,-1.310305605934997
-0.18260000000000004,-1.3216232963339174
-0.18360000000000004,-1.3335068712527836
-0.18460000000000004,-1.3455319173016365
-0.18560000000000004,-1.3571325499605296
-0.18660000000000004,-1.3688746537494096
-0.18760000000000004,-1.3807582286682758
-0.18860000000000005,-1.3930662169771015
-0.18960000000000005,-1.4053742052859275
-0.19060000000000005,-1.4175407224647667
-0.19160000000000005,-1.4288584128636872
-0.19260000000000005,-1.4415908145624723
-0.19360000000000005,-1.4543232162612578
-0.19460000000000005,-1.4670556179600431
-0.19560000000000005,-1.4797880196588282
-0.19660000000000005,-1.4925204213576138
-0.19760000000000005,-1.505252823056399
-0.19860000000000005,-1.5179852247551844
-0.19960000000000006,-1.5307176264539697
-0.20060000000000006,-1.543450028152755
-0.20160000000000006,-1.5561824298515403
-0.20260000000000006,-1.5703295428501907
-0.20360000000000006,-1.583061944548976
-0.20460000000000006,-1.5972090575476263
-0.20560000000000006,-1.6099414592464116
-0.20660000000000006,-1.6226738609451972
-0.20760000000000006,-1.6368209739438475
-0.20860000000000006,-1.6509680869424979
-0.20960000000000006,-1.6651151999411482
-0.21060000000000006,-1.6792623129397986
-0.21160000000000007,-1.693409425938449
-0.21260000000000007,-1.7075565389370995
-0.21360000000000007,-1.7217036519357498
-0.21460000000000007,-1.7358507649344
-0.21560000000000007,-1.7499978779330503
-0.21660000000000007,-1.7655597022315657
-0.21760000000000007,-1.779706815230216
-0.21860000000000007,-1.7952686395287314
-0.21960000000000007,-1.8108304638272468
-0.22060000000000007,-1.8249775768258971
-0.22160000000000007,-1.8405394011244125
-0.22260000000000008,-1.8561012254229279
-0.22360000000000008,-1.8716630497214433
-0.22460000000000008,-1.8872248740199586
-0.22560000000000008,-1.9027866983184742
-0.22660000000000008,-1.9183485226169896
-0.22760000000000008,-1.933910346915505
-0.22860000000000008,-1.9508868825138854
-0.22960000000000008,-1.9664487068124006
-0.23060000000000008,-1.9834252424107812
-0.23160000000000008,-1.9989870667092968
-0.23260000000000008,-2.0159636023076772
-0.23360000000000009,-2.0329401379060577
-0.2346000000000001,-2.049916673504438
-0.2356000000000001,-2.0668932091028185
-0.2366000000000001,-2.083869744701199
-0.2376000000000001,-2.1008462802995793
-0.2386000000000001,-2.1192375271978254
-0.2396000000000001,-2.136214062796206
-0.2406000000000001,-2.1531905983945863
-0.2416000000000001,-2.171581845292831
-0.2426000000000001,-2.1885583808912115
-0.2436000000000001,-2.206949627789457
-0.2446000000000001,-2.225340874687703
-0.2456000000000001,-2.2437321215859485
-0.2466000000000001,-2.2621233684841937
-0.2476000000000001,-2.280514615382439
-0.2486000000000001,-2.298905862280684
-0.2496000000000001,-2.3172971091789303
-0.2506000000000001,-2.3356883560771755
-0.2516000000000001,-2.354079602975421
-0.2526000000000001,-2.3724708498736664
-0.2536000000000001,-2.3908620967719116
-0.2546000000000001,-2.4106680549700226
-0.2556000000000001,-2.4290593018682682
-0.2566000000000001,-2.4474505487665135
-0.2576000000000001,-2.465841795664759
-0.2586000000000001,-2.485647753862869
-0.2596000000000001,-2.504039000761115
-0.2606000000000001,-2.5224302476593605
-0.2616000000000001,-2.5408214945576058
-0.2626000000000001,-2.5592127414558514
-0.2636000000000001,-2.579018699653962
-0.2646000000000001,-2.597409946552207
-0.2656000000000001,-2.6143864821505876
-0.2666000000000001,-2.6327777290488332
-0.2676000000000001,-2.6511689759470785
-0.2686000000000001,-2.669560222845324
-0.2696000000000001,-2.6879514697435702
-0.2706000000000001,-2.7049280053419507
-0.2716000000000001,-2.7233192522401954
-0.2726000000000001,-2.740295787838576
-0.2736000000000001,-2.7586870347368215
-0.2746000000000001,-2.775663570335202
-0.2756000000000001,-2.7926401059335824
-0.2766000000000001,-2.8096166415319628
-0.2776000000000001,-2.8265931771303436
-0.2786000000000001,-2.842155001428859
-0.2796000000000001,-2.8577168257273744
-0.2806000000000001,-2.874693361325755
-0.28160000000000013,-2.89025518562427
-0.28260000000000013,-2.9058170099227856
-0.28360000000000013,-2.9213788342213007
-0.2846,-2.935525947219951
-0.2856,-2.9510877715184667
-0.2866,-2.965234884517117
-0.2876,-2.9793819975157674
-0.2886,-2.9935291105144173
-0.2896,-3.0076762235130676
-0.2906,-3.021823336511718
-0.2916,-3.034555738210504
-0.2926,-3.047288139909289
-0.2936,-3.0614352529079394
-0.29460000000000003,-3.0727529433068597
-0.29560000000000003,-3.0854853450056448
-0.29660000000000003,-3.0982177467044303
-0.29760000000000003,-3.1095354371033506
-0.29860000000000003,-3.122267838802136
-0.29960000000000003,-3.1335855292010564
-0.30060000000000003,-3.1449032195999767
-0.30160000000000003,-3.156220909998897
-0.30260000000000004,-3.166123889097952
-0.30360000000000004,-3.1774415794968722
-0.30460000000000004,-3.1887592698957925
-0.30560000000000004,-3.198662248994848
-0.30660000000000004,-3.2099799393937682
-0.30760000000000004,-3.2198829184928233
-0.30860000000000004,-3.2297858975918787
-0.30960000000000004,-3.2411035879907995
-0.31060000000000004,-3.2510065670898545
-0.31160000000000004,-3.2609095461889095
-0.31260000000000004,-3.27222723658783
-0.31360000000000005,-3.2821302156868852
-0.31460000000000005,-3.2934479060858055
-0.31560000000000005,-3.303350885184861
-0.31660000000000005,-3.313253864283916
-0.31760000000000005,-3.3245715546828363
-0.31860000000000005,-3.3344745337818917
-0.31960000000000005,-3.3457922241808116
-0.32060000000000005,-3.358524625879597
-0.32160000000000005,-3.368427604978652
-0.32260000000000005,-3.379745295377573
-0.32360000000000005,-3.3910629857764927
-0.32460000000000006,-3.403795387475278
-0.32560000000000006,-3.415113077874199
-0.32660000000000006,-3.426430768273119
-0.32760000000000006,-3.439163169971904
-0.32860000000000006,-3.4518955716706894
-0.32960000000000006,-3.4646279733694745
-0.33060000000000006,-3.4787750863681253
-0.33160000000000006,-3.4915074880669104
-0.33260000000000006,-3.505654601065561
-0.33360000000000006,-3.519801714064211
-0.33460000000000006,-3.533948827062862
-0.33560000000000006,-3.548095940061512
-0.33660000000000007,-3.5636577643600273
-0.33760000000000007,-3.579219588658543
-0.33860000000000007,-3.594781412957058
-0.33960000000000007,-3.6103432372555737
-0.34060000000000007,-3.627319772853954
-0.34160000000000007,-3.644296308452334
-0.34260000000000007,-3.661272844050715
-0.34360000000000007,-3.678249379649095
-0.3446000000000001,-3.695225915247476
-0.3456000000000001,-3.713617162145721
-0.3466000000000001,-3.7320084090439667
-0.34759999999999996,-3.7503996559422124
-0.3486000000000001,-3.768790902840458
-0.34959999999999997,-3.788596861038568
-0.3506000000000001,-3.8084028192366786
-0.35159999999999997,-3.8282087774347895
-0.3526000000000001,-3.8480147356329
-0.35359999999999997,-3.869235405130875
-0.3546000000000001,-3.889041363328986
-0.35559999999999997,-3.910262032826961
-0.3566000000000001,-3.931482702324937
-0.3576,-3.9541180831227782
-0.3586000000000001,-3.975338752620753
-0.3596,-3.9979741334185936
-0.3606000000000001,-4.020609514216435
-0.3616,-4.043244895014275
-0.3626000000000001,-4.065880275812115
-0.3636,-4.089930367909821
-0.3646000000000001,-4.112565748707662
-0.3656,-4.138030552105232
-0.3666000000000001,-4.160665932903073
-0.3676,-4.186130736300643
-0.3686000000000001,-4.21018082839835
-0.3696,-4.234230920496055
-0.3706000000000001,-4.259695723893626
-0.3716,-4.286575238591061
-0.3726000000000001,-4.310625330688767
-0.3736,-4.337504845386203
-0.3746000000000001,-4.362969648783774
-0.3756,-4.388434452181344
-0.3766000000000001,-4.415313966878779
-0.3776,-4.442193481576215
-0.3786000000000001,-4.469072996273651
-0.3796,-4.495952510971087
-0.3806000000000001,-4.522832025668523
-0.3816,-4.5497115403659585
-0.3826000000000001,-4.578005766363259
-0.3836,-4.60629999236056
-0.3846000000000001,-4.633179507057995
-0.3856,-4.6614737330552956
-0.3866000000000001,-4.689767959052596
-0.3876,-4.718062185049897
-0.3886000000000001,-4.7463564110471985
-0.3896,-4.776065348344364
-0.3906000000000001,-4.804359574341665
-0.3916,-4.83406851163883
-0.3926000000000001,-4.862362737636131
-0.3936,-4.892071674933297
-0.3946000000000001,-4.921780612230462
-0.3956,-4.951489549527628
-0.3966000000000001,-4.981198486824794
-0.3976,-5.01090742412196
-0.3986000000000001,-5.0420310727189905
-0.3996,-5.071740010016156
-0.4006000000000001,-5.102863658613187
-0.4016,-5.132572595910353
-0.4026000000000001,-5.163696244507384
-0.4036,-5.194819893104414
-0.4046000000000001,-5.2259435417014455
-0.4056,-5.257067190298477
-0.40660000000000013,-5.288190838895507
-0.4076,-5.319314487492538
-0.40860000000000013,-5.351852847389433
-0.4096,-5.382976495986464
-0.41060000000000013,-5.414100144583495
-0.4116,-5.446638504480391
-0.41260000000000013,-5.477762153077422
-0.4136,-5.510300512974317
-0.41460000000000014,-5.542838872871213
-0.4156,-5.57537723276811
-0.41660000000000014,-5.607915592665005
-0.4176,-5.640453952561901
-0.41860000000000014,-5.672992312458796
-0.41960000000000003,-5.705530672355693
-0.42060000000000014,-5.7380690322525885
-0.42160000000000003,-5.772022103449349
-0.42260000000000014,-5.805975174646111
-0.42360000000000003,-5.838513534543006
-0.42460000000000014,-5.872466605739767
-0.42560000000000003,-5.905004965636663
-0.42660000000000015,-5.938958036833425
-0.42760000000000004,-5.97149639673032
-0.42860000000000015,-6.005449467927082
-0.42960000000000004,-6.039402539123842
-0.43060000000000015,-6.073355610320603
-0.43160000000000004,-6.107308681517363
-0.43260000000000015,-6.141261752714124
-0.43360000000000004,-6.175214823910885
-0.43460000000000015,-6.209167895107646
-0.43560000000000004,-6.2431209663044065
-0.43660000000000015,-6.277074037501167
-0.43760000000000004,-6.311027108697928
-0.43860000000000016,-6.34498017989469
-0.43960000000000005,-6.3803479623913155
-0.44060000000000016,-6.414301033588076
-0.44160000000000005,-6.448254104784837
-0.44260000000000016,-6.482207175981599
-0.44360000000000005,-6.517574958478224
-0.44460000000000016,-6.5515280296749845
-0.44560000000000005,-6.585481100871745
-0.44660000000000016,-6.619434172068506
-0.44760000000000005,-6.654801954565133
-0.44860000000000017,-6.6887550257618935
-0.44960000000000006,-6.722708096958654
