Potential V vs RHE, Current mA cm-2
0.013299999999999867,0.02515356691160035
0.012299999999999978,-0.01769803836131161
0.011299999999999866,-0.035282899818634014
0.010299999999999976,-0.044492670380755404
0.009299999999999864,-0.05593768479666354
0.008299999999999974,-0.06557186874874445
0.007299999999999862,-0.07422990190391847
0.006299999999999972,-0.0813458997422396
0.00529999999999986,-0.08455729439293323
0.0042999999999999705,-0.09110740771130836
0.0032999999999998586,-0.09697845960574826
0.0022999999999999687,-0.10367004405410989
0.0012999999999998568,-0.10939962481856329
0.00029999999999996696,-0.1098240382085228
-0.000700000000000145,-0.11498773445303019
-0.0017000000000000348,-0.12015143069753757
-0.0027000000000001467,-0.12363162049520555
-0.0037000000000000366,-0.12796063707279257
-0.0047000000000001485,-0.1310305605934997
-0.005700000000000038,-0.1339590129842203
-0.00670000000000015,-0.13647719909798006
-0.00770000000000004,-0.1408062156755671
-0.008700000000000152,-0.14557379275611226
-0.009700000000000042,-0.14486643710617977
-0.010700000000000154,-0.1503838111756534
-0.011700000000000044,-0.15208146473549145
-0.012700000000000156,-0.15703295428501907
-0.013700000000000045,-0.15901355010483012
-0.014700000000000157,-0.15986237688474914
-0.015700000000000047,-0.16325768400442522
-0.01670000000000016,-0.1659456354741688
-0.01770000000000005,-0.1694824137238314
-0.01870000000000016,-0.17033124050375043
-0.01970000000000005,-0.17089712502369644
-0.020700000000000163,-0.17259477858353447
-0.021700000000000053,-0.17429243214337253
-0.022700000000000164,-0.17924392169290015
-0.023700000000000054,-0.18150745977268423
-0.024700000000000166,-0.18136598864269768
-0.025700000000000056,-0.18150745977268423
-0.026700000000000168,-0.18377099785246825
-0.027700000000000058,-0.18744924723211737
-0.02870000000000017,-0.19042014096183393
-0.02970000000000006,-0.18702483384215784
-0.03070000000000017,-0.18801513175206336
-0.03170000000000006,-0.19042014096183393
-0.03270000000000017,-0.19282515017160448
-0.03370000000000006,-0.19593751503130757
-0.034700000000000175,-0.192400736781645
-0.035700000000000065,-0.19523015938137506
-0.03670000000000018,-0.19678634181122662
-0.03770000000000007,-0.19975723554094318
-0.03870000000000018,-0.2007475334508487
-0.03970000000000007,-0.19919135102099716
-0.04070000000000018,-0.19975723554094318
-0.04170000000000007,-0.20060606232086217
-0.04270000000000018,-0.20301107153063278
-0.04370000000000007,-0.20315254266061927
-0.044700000000000184,-0.2035769560505788
-0.045700000000000074,-0.20286960040064628
-0.046700000000000186,-0.20301107153063278
-0.047700000000000076,-0.20569902300037635
-0.04870000000000019,-0.2073966765602144
-0.04970000000000008,-0.2066893209102819
-0.05070000000000019,-0.20541608074040332
-0.05170000000000008,-0.20711373430024138
-0.05270000000000019,-0.20725520543022788
-0.05370000000000008,-0.20980168576998495
-0.05470000000000019,-0.20725520543022788
-0.05570000000000008,-0.20923580125003893
-0.056700000000000195,-0.2079625610801604
-0.057700000000000085,-0.21149933932982298
-0.058700000000000196,-0.2119237527197825
-0.059700000000000086,-0.21149933932982298
-0.0607000000000002,-0.21079198367989047
-0.06170000000000009,-0.21121639706985
-0.0627000000000002,-0.21447023305953958
-0.06370000000000009,-0.21404581966958006
-0.0647000000000002,-0.21376287740960703
-0.06570000000000009,-0.21362140627962053
-0.0667000000000002,-0.21248963723972852
-0.0677000000000001,-0.21503611757948557
-0.0687000000000002,-0.21687524226931013
-0.0697000000000001,-0.2164508288793506
-0.07070000000000021,-0.21489464644949907
-0.0717000000000001,-0.2160264154893911
-0.07270000000000021,-0.21701671339929662
-0.0737000000000001,-0.21659230000933713
-0.07470000000000021,-0.21800701130920216
-0.0757000000000001,-0.21701671339929662
-0.07670000000000021,-0.21758259791924262
-0.0777000000000001,-0.21885583808912115
-0.07870000000000021,-0.22012907825899972
-0.0797000000000001,-0.21885583808912115
-0.08070000000000022,-0.21772406904922914
-0.0817000000000001,-0.22012907825899972
-0.08270000000000022,-0.22083643390893223
-0.08370000000000011,-0.2198461359990267
-0.08470000000000022,-0.22111937616890526
-0.08570000000000011,-0.22012907825899972
-0.08670000000000022,-0.22168526068885125
-0.08770000000000011,-0.22437321215859482
-0.08870000000000022,-0.22437321215859482
-0.08970000000000011,-0.22380732763864883
-0.09070000000000022,-0.22182673181883775
-0.09170000000000011,-0.22338291424868928
-0.09270000000000023,-0.2250805678085273
-0.09370000000000012,-0.2245146832885813
-0.09470000000000023,-0.22366585650866228
-0.09570000000000012,-0.22338291424868928
-0.09670000000000023,-0.22479762554855431
-0.09770000000000012,-0.22720263475832486
-0.09870000000000023,-0.22649527910839237
-0.09970000000000012,-0.22536351006850036
-0.10070000000000023,-0.22564645232847336
-0.10170000000000012,-0.22663675023837887
-0.10270000000000024,-0.22904175944814942
-0.10370000000000013,-0.22748557701829786
-0.10470000000000024,-0.22748557701829786
-0.10570000000000013,-0.2267782213683654
-0.10670000000000024,-0.22748557701829786
-0.10770000000000013,-0.2307394130079875
-0.10870000000000024,-0.23059794187800098
-0.10970000000000013,-0.22904175944814942
-0.11070000000000024,-0.22875881718817642
-0.11170000000000013,-0.23017352848804143
-0.11270000000000002,-0.23356883560771755
-0.11370000000000013,-0.23314442221775805
-0.11470000000000002,-0.23187118204787951
-0.11570000000000014,-0.23045647074801448
-0.11670000000000003,-0.23356883560771755
-0.11770000000000014,-0.2345591335176231
-0.11870000000000003,-0.23583237368750162
-0.11970000000000014,-0.23427619125765006
-0.12070000000000003,-0.2321541243078525
-0.12170000000000014,-0.23470060464760956
-0.12270000000000003,-0.23611531594747462
-0.12370000000000014,-0.23724708498736666
-0.12470000000000003,-0.2368226715974071
-0.12570000000000014,-0.23498354690758255
-0.12670000000000003,-0.23767149837732615
-0.12770000000000015,-0.2392276808071777
-0.12870000000000004,-0.2385203251572452
-0.12970000000000015,-0.23795444063729917
-0.13070000000000004,-0.23625678707746112
-0.13170000000000015,-0.2393691519371642
-0.13270000000000004,-0.24134974775697526
-0.13370000000000015,-0.24078386323702924
-0.13470000000000004,-0.24092533436701574
-0.13570000000000015,-0.24021797871708325
-0.13670000000000004,-0.24106680549700227
-0.13770000000000016,-0.2426229879268538
-0.13870000000000005,-0.24276445905684027
-0.13970000000000016,-0.2426229879268538
-0.14070000000000005,-0.2426229879268538
-0.14170000000000016,-0.24361328583675934
-0.14270000000000005,-0.24446211261667833
-0.14370000000000016,-0.24502799713662435
-0.14470000000000005,-0.2446035837466648
-0.14570000000000016,-0.24446211261667833
-0.14670000000000005,-0.24573535278655687
-0.14770000000000016,-0.24545241052658387
-0.14870000000000005,-0.24658417956647588
-0.14970000000000017,-0.24630123730650288
-0.15070000000000006,-0.24587682391654336
-0.15170000000000017,-0.24785741973635445
-0.15270000000000006,-0.24969654442617895
-0.15370000000000017,-0.25026242894612494
-0.15470000000000006,-0.24870624651627343
-0.15570000000000017,-0.24870624651627343
-0.15670000000000006,-0.24955507329619245
-0.15770000000000017,-0.25040390007611146
-0.15870000000000006,-0.2521015536359495
-0.15970000000000018,-0.2512527268560305
-0.16070000000000007,-0.24997948668615194
-0.16170000000000018,-0.252808909285882
-0.16270000000000007,-0.2515356691160035
-0.16370000000000018,-0.25436509171573357
-0.16470000000000007,-0.2540821494557606
-0.16570000000000018,-0.2523844958959225
-0.16670000000000007,-0.25365773606580105
-0.16770000000000018,-0.2560627452755716
-0.16870000000000007,-0.2562042164055581
-0.16970000000000018,-0.25365773606580105
-0.17070000000000007,-0.25563833188561214
-0.17170000000000019,-0.2564871586655311
-0.17270000000000008,-0.25733598544545017
-0.1737000000000002,-0.25761892770542316
-0.17470000000000008,-0.25592127414558513
-0.1757000000000002,-0.25592127414558513
-0.17670000000000008,-0.25790186996539616
-0.1777000000000002,-0.26030687917516676
-0.17870000000000008,-0.2607312925651262
-0.1797000000000002,-0.2581848122253692
-0.18070000000000008,-0.25931658126526125
-0.1817000000000002,-0.2594580523952477
-0.18270000000000008,-0.2625704172549508
-0.1837000000000002,-0.2621460038649913
-0.1847000000000001,-0.26058982143513976
-0.1857000000000002,-0.2611557059550858
-0.1867000000000001,-0.2620045327350048
-0.1877000000000002,-0.26412659968480234
-0.1887000000000001,-0.2648339553347349
-0.1897000000000002,-0.2628533595149239
-0.1907000000000001,-0.26384365742482935
-0.1917000000000001,-0.26455101307476186
-0.19269999999999998,-0.2652583687246944
-0.1937000000000001,-0.26808779132442445
-0.19469999999999998,-0.2656827821146539
-0.1957000000000001,-0.2666730800245595
-0.19669999999999999,-0.2662486666345999
-0.1977000000000001,-0.26738043567449193
-0.1987,-0.2697854448842625
-0.1997000000000001,-0.26752190680447846
-0.2007,-0.2686536758443705
-0.2017000000000001,-0.269361031494303
-0.2027,-0.27105868505414105
-0.2037000000000001,-0.2726148674839926
-0.2047,-0.26851220471438403
-0.2057000000000001,-0.2697854448842625
-0.2067,-0.2700683871442355
-0.2077000000000001,-0.2726148674839926
-0.2087,-0.27431252104383064
-0.2097000000000001,-0.27049280053419505
-0.2107,-0.27162456957408704
-0.2117000000000001,-0.27204898296404656
-0.2127,-0.2738881076538711
-0.2137000000000001,-0.2767175302536012
-0.2147,-0.27431252104383064
-0.2157000000000001,-0.2770004725135742
-0.2167,-0.2770004725135742
-0.21770000000000012,-0.27841518381343927
-0.2187,-0.2796884239833177
-0.21970000000000012,-0.27586870347368214
-0.2207,-0.2777078281635067
-0.22170000000000012,-0.27841518381343927
-0.2227,-0.27898106833338526
-0.22370000000000012,-0.28308373110299384
-0.2247,-0.27841518381343927
-0.22570000000000012,-0.2806787218932233
-0.2267,-0.27926401059335826
-0.22770000000000012,-0.2819519620631018
-0.22870000000000001,-0.2843569712728724
-0.22970000000000013,-0.2813860775431558
-0.23070000000000002,-0.2818104909331153
-0.23170000000000013,-0.28223490432307485
-0.23270000000000002,-0.2843569712728724
-0.23370000000000013,-0.2874693361325754
-0.23470000000000002,-0.28280078884302084
-0.23570000000000013,-0.2842155001428859
-0.23670000000000002,-0.28633756709268343
-0.2376999999999999,-0.28619609596269696
-0.23870000000000002,-0.289025518562427
-0.2396999999999999,-0.28619609596269696
-0.24070000000000003,-0.2874693361325754
-0.24169999999999991,-0.287893749522535
-0.24270000000000003,-0.28973287421235955
-0.24369999999999992,-0.29058170099227854
-0.24470000000000003,-0.2891669896924135
-0.24569999999999992,-0.29001581647233254
-0.24670000000000003,-0.29058170099227854
-0.24769999999999992,-0.29397700811195465
-0.24870000000000003,-0.2932696524620221
-0.24969999999999992,-0.2917134700321706
-0.25070000000000003,-0.29086464325225153
-0.2516999999999999,-0.29369406585198166
-0.25270000000000004,-0.2944014215019141
-0.2536999999999999,-0.2959576039317657
-0.25470000000000004,-0.29369406585198166
-0.2556999999999999,-0.2956746616717927
-0.25670000000000004,-0.2952502482818331
-0.25769999999999993,-0.29850408427152275
-0.25870000000000004,-0.29850408427152275
-0.25969999999999993,-0.2966649595816982
-0.26070000000000004,-0.29652348845171167
-0.26169999999999993,-0.2986455554015092
-0.26270000000000004,-0.30034320896134725
-0.26369999999999993,-0.3028896893011043
-0.26470000000000005,-0.2999187955713878
-0.26569999999999994,-0.30204086252118534
-0.26670000000000005,-0.30402145834099636
-0.26769999999999994,-0.3044458717309559
-0.26870000000000005,-0.30755823659065895
-0.26969999999999994,-0.3055776407708479
-0.27070000000000005,-0.3071338232006995
-0.27169999999999994,-0.30755823659065895
-0.27270000000000005,-0.3102461880604025
-0.27369999999999994,-0.31123648597030806
-0.27470000000000006,-0.3096803035404565
-0.27569999999999995,-0.30953883241047003
-0.27670000000000006,-0.3125097261401866
-0.27769999999999995,-0.3136414951800786
-0.27870000000000006,-0.31632944664982215
-0.27969999999999995,-0.3164709177798087
-0.28070000000000006,-0.31548061986990317
-0.28169999999999995,-0.3177441579496872
-0.28270000000000006,-0.31972475376949827
-0.28369999999999995,-0.3222712341092553
-0.28470000000000006,-0.3208565228093903
-0.28569999999999995,-0.3215638784593228
-0.28670000000000007,-0.3253835989689584
-0.28769999999999996,-0.3253835989689584
-0.28870000000000007,-0.32849596382866153
-0.28969999999999996,-0.32722272365878297
-0.29070000000000007,-0.32651536800885045
-0.29169999999999996,-0.3316083286883646
-0.29270000000000007,-0.33641834710790575
-0.29369999999999996,-0.33811600066774383
-0.2947000000000001,-0.33698423162785174
-0.29569999999999996,-0.33712570275783826
-0.2967000000000001,-0.34023806761754133
-0.29769999999999996,-0.3432089613472579
-0.2987000000000001,-0.346604268466934
-0.29969999999999997,-0.346321326206961
-0.3007000000000001,-0.346604268466934
-0.30169999999999997,-0.3499995755866101
-0.3027000000000001,-0.3541022383562187
-0.30369999999999997,-0.3570731320859353
-0.3047000000000001,-0.35565842078607024
-0.30569999999999997,-0.3583463722558138
-0.3067000000000001,-0.3617416793754899
-0.3077,-0.36513698649516596
-0.3087000000000001,-0.36839082248485555
-0.3097,-0.36909817813478807
-0.3107000000000001,-0.37136171621457215
-0.3117,-0.37560585011416725
-0.3127000000000001,-0.3795670417537893
-0.3137,-0.3825379354835059
-0.3147000000000001,-0.38409411791335746
-0.3157,-0.386216184863155
-0.3167000000000001,-0.3901773765027771
-0.3177,-0.3951288660523047
-0.3187000000000001,-0.39951447108188637
-0.3197,-0.4017780091616704
-0.3207000000000001,-0.4037586049814815
-0.3217,-0.4084271522710361
-0.3227000000000001,-0.4128127573006177
-0.3237,-0.41804718911011834
-0.3247000000000001,-0.42115955396982147
-0.3257,-0.4231401497896325
-0.3267000000000001,-0.42950635063902515
-0.3277,-0.43403342679859325
-0.3287000000000001,-0.43870197408814793
-0.3297,-0.4428046368577565
-0.3307000000000001,-0.4469072996273651
-0.3317,-0.4514343757869332
-0.3327000000000001,-0.4570932209863934
-0.3337,-0.462044710535921
-0.3347000000000001,-0.4677035557353811
-0.3357,-0.47025003607513816
-0.3367000000000001,-0.47831389048436895
-0.3377,-0.48368979342385604
-0.3387000000000001,-0.4890656963633432
-0.3397,-0.49557336834272236
-0.3407000000000001,-0.49896867546239837
-0.3417,-0.505334876311791
-0.3427000000000001,-0.5131157884610488
-0.3437,-0.519906402700401
-0.3447000000000001,-0.5257067190298478
-0.3457,-0.5305167374493888
-0.3467000000000001,-0.5385805918586195
-0.3477,-0.5455126772279582
-0.3487000000000001,-0.5549912429370539
-0.3497,-0.5606500881365141
-0.3507000000000001,-0.5660259910760012
-0.3517,-0.5739483743552454
-0.3527000000000001,-0.5830025266743816
-0.3537,-0.5917737367335448
-0.3547000000000001,-0.598281408712924
-0.3557,-0.6035158405224247
-0.35670000000000013,-0.6149750020513315
-0.3577,-0.6230388564605621
-0.35870000000000013,-0.6325174221696578
-0.3597,-0.640722747708875
-0.36070000000000013,-0.6480792464681732
-0.3617,-0.658406638957188
-0.3626999999999999,-0.6681681469262569
-0.3637,-0.6786370105452582
-0.3646999999999999,-0.6891058741642594
-0.3657,-0.6960379595335981
-0.3666999999999999,-0.7080630055824508
-0.3677,-0.7188148114614252
-0.3686999999999999,-0.7315472131602104
-0.36970000000000003,-0.7424404901691712
-0.3706999999999999,-0.7513531713583209
-0.37170000000000003,-0.7646514575770523
-0.3726999999999999,-0.7775253304058242
-0.37370000000000003,-0.7885600785447714
-0.3746999999999999,-0.7990289421637727
-0.37570000000000003,-0.8111954593426121
-0.3766999999999999,-0.8254840434712489
-0.37770000000000004,-0.8390652719499533
-0.3786999999999999,-0.8515147313887655
-0.37970000000000004,-0.8633983063076318
-0.3806999999999999,-0.8765551213963767
-0.38170000000000004,-0.8905607632650405
-0.38269999999999993,-0.9076787699934075
-0.38370000000000004,-0.9206941139521657
-0.38469999999999993,-0.9341338713008838
-0.38570000000000004,-0.949129811079453
-0.38669999999999993,-0.9646916353779685
-0.38770000000000004,-0.9818096421063355
-0.38869999999999993,-0.9977958797948104
-0.38970000000000005,-1.0136406463532988
-0.39069999999999994,-1.0277877593519493
-0.39170000000000005,-1.0443398815603702
-0.39269999999999994,-1.063155541848575
-0.39370000000000005,-1.0821126732667665
-0.39469999999999994,-1.0988062666051739
-0.39570000000000005,-1.1157828022035543
-0.39669999999999994,-1.1347399336217459
-0.39770000000000005,-1.15440442068987
-0.39869999999999994,-1.174068907757994
-0.39970000000000006,-1.1938748659561045
-0.40069999999999995,-1.2119831705943769
-0.40170000000000006,-1.23249648444242
-0.40269999999999995,-1.2532927405504362
-0.40370000000000006,-1.2743719389184252
-0.40469999999999995,-1.2971487908462522
-0.40570000000000006,-1.3163888645244166
-0.40669999999999995,-1.3390242453222572
-0.40770000000000006,-1.3640646353298684
-0.40869999999999995,-1.385285304827844
-0.40970000000000006,-1.4108915793554009
-0.41069999999999995,-1.431687835463417
-0.41170000000000007,-1.4571526388609877
-0.41269999999999996,-1.4826174422585585
-0.41370000000000007,-1.5080822456561291
-0.41469999999999996,-1.5349617603535646
-0.41570000000000007,-1.5575971411514054
-0.41669999999999996,-1.584476655848841
-0.41770000000000007,-1.612770881846142
-0.41869999999999996,-1.6410651078434426
-0.4197000000000001,-1.6693593338407433
-0.42069999999999996,-1.6990682711379093
-0.4217000000000001,-1.7259477858353447
-0.42269999999999996,-1.7570714344323757
-0.4237000000000001,-1.7896097943292715
-0.42469999999999997,-1.8193187316264372
-0.4257000000000001,-1.849027668923603
-0.42669999999999997,-1.8801513175206337
-0.4277000000000001,-1.9126896774175295
-0.42869999999999997,-1.9466427486142908
-0.4297000000000001,-1.9777663972113213
-0.43069999999999997,-2.011719468408082
-0.4317000000000001,-2.045672539604843
-0.4327,-2.082455033401334
-0.4337000000000001,-2.1206522384976902
-0.4347,-2.1546053096944506
-0.4357000000000001,-2.1899730921910767
-0.4367,-2.228170297287433
-0.4377000000000001,-2.2663675023837886
-0.4387,-2.307394130079875
-0.4397000000000001,-2.3441766238763657
-0.4407,-2.382373828972722
-0.4417000000000001,-2.424815167968673
-0.4427,-2.465841795664759
-0.4437000000000001,-2.509697845960575
-0.4447,-2.552139184956526
-0.4457000000000001,-2.5931658126526123
-0.4467,-2.6384365742482934
-0.4477000000000001,-2.6822926245441097
-0.4487,-2.7289780974396556
-0.4497000000000001,-2.7742488590353367
-0.4507,-2.818104909331153
-0.4517000000000001,-2.866205093526564
-0.4527,-2.9143052777219753
-0.4537000000000001,-2.965234884517117
-0.4547,-3.0119203574126634
-0.4557000000000001,-3.0614352529079394
-0.4567,-3.1123648597030806
-0.4577000000000001,-3.164709177798087
-0.4587,-3.2198829184928233
-0.4597000000000001,-3.27222723658783
-0.4607,-3.323156843382971
-0.4617000000000001,-3.3783305840777076
-0.4627,-3.434919036072309
-0.4637000000000001,-3.492922199366775
-0.4647,-3.5495106513613774
-0.4657000000000001,-3.606099103355979
-0.4667,-3.664102266650445
-0.4677000000000001,-3.7263495638445066
-0.4687,-3.788596861038568
-0.4697000000000001,-3.85084415823263
-0.4707,-3.9116767441268263
-0.4717000000000001,-3.9781681752204827
-0.4727,-4.043244895014275
-0.4737000000000001,-4.112565748707662
-0.4747,-4.177642468501453
-0.4757000000000001,-4.24413389959511
-0.4767,-4.313454753288497
-0.4777000000000001,-4.382775606981883
-0.4787,-4.456340594574866
-0.4797000000000001,-4.527076159568118
-0.4807,-4.597811724561368
-0.48170000000000013,-4.675620846053946
-0.4827,-4.750600544946793
-0.48370000000000013,-4.829824377739236
-0.4847,-4.907633499231812
-0.48570000000000013,-4.986857332024254
-0.4867,-5.066081164816696
-0.4876999999999999,-5.149549131508733
-0.4887,-5.234431809500635
-0.4896999999999999,-5.3178997761926725
-0.4907,-5.399953031584845
-0.4916999999999999,-5.489079843476342
-0.4927,-5.576791944067974
-0.4936999999999999,-5.667333467259336
-0.49470000000000003,-5.757874990450699
