Aug. 24, 2024   12:10:31
Cyclic Voltammetry
File: c:/users/guazh/data/20240813_batch_94_500/2024-08-15-exp178\exp178-2024-08-24t11_50_08-arkoh\exp178_cv_sr_700mvs_efin_-1700mv.bin
Data Source:  Experiment
Instrument Model:  CHI760E
Header: CV ran at 700 mVs
Note: 

Init E (V) = -1
High E (V) = -1
Low E (V) = -1.7
Final E (V) = -1
Init P/N = N
Scan Rate (V/s) = 0.7
Segment = 3
Sample Interval (V) = 0.001
Quiet Time (sec) = 2
Sensitivity (A/V) = 0.01
Comp R (ohm) = 1.9

Results:

Channel 1:
Segment 1:

Segment 2:

Segment 3:

Potential/V, Current/A

-1.000, 1.557e-5
-1.001, 3.407e-5
-1.002, 4.640e-5
-1.003, 5.565e-5
-1.004, 5.873e-5
-1.005, 6.490e-5
-1.006, 6.798e-5
-1.007, 7.107e-5
-1.008, 7.415e-5
-1.009, 7.723e-5
-1.010, 7.723e-5
-1.011, 8.032e-5
-1.012, 8.340e-5
-1.013, 8.340e-5
-1.014, 8.648e-5
-1.015, 8.957e-5
-1.016, 8.957e-5
-1.017, 8.957e-5
-1.018, 9.265e-5
-1.019, 9.265e-5
-1.020, 9.265e-5
-1.021, 9.573e-5
-1.022, 9.573e-5
-1.023, 9.573e-5
-1.024, 9.882e-5
-1.025, 9.882e-5
-1.026, 1.019e-4
-1.027, 1.019e-4
-1.028, 1.019e-4
-1.029, 1.019e-4
-1.030, 1.019e-4
-1.031, 1.019e-4
-1.032, 1.050e-4
-1.033, 1.050e-4
-1.034, 1.050e-4
-1.035, 1.050e-4
-1.036, 1.081e-4
-1.037, 1.081e-4
-1.038, 1.081e-4
-1.039, 1.081e-4
-1.040, 1.081e-4
-1.041, 1.081e-4
-1.042, 1.081e-4
-1.043, 1.081e-4
-1.044, 1.081e-4
-1.045, 1.111e-4
-1.046, 1.111e-4
-1.047, 1.111e-4
-1.048, 1.111e-4
-1.049, 1.111e-4
-1.050, 1.142e-4
-1.051, 1.111e-4
-1.052, 1.142e-4
-1.053, 1.111e-4
-1.054, 1.142e-4
-1.055, 1.142e-4
-1.056, 1.142e-4
-1.057, 1.173e-4
-1.058, 1.142e-4
-1.059, 1.142e-4
-1.060, 1.142e-4
-1.061, 1.173e-4
-1.062, 1.173e-4
-1.063, 1.173e-4
-1.064, 1.173e-4
-1.065, 1.173e-4
-1.066, 1.173e-4
-1.067, 1.204e-4
-1.068, 1.204e-4
-1.069, 1.204e-4
-1.070, 1.204e-4
-1.071, 1.204e-4
-1.072, 1.235e-4
-1.073, 1.235e-4
-1.074, 1.204e-4
-1.075, 1.235e-4
-1.076, 1.235e-4
-1.077, 1.235e-4
-1.078, 1.235e-4
-1.079, 1.235e-4
-1.080, 1.235e-4
-1.081, 1.235e-4
-1.082, 1.235e-4
-1.083, 1.266e-4
-1.084, 1.266e-4
-1.085, 1.266e-4
-1.086, 1.266e-4
-1.087, 1.266e-4
-1.088, 1.266e-4
-1.089, 1.266e-4
-1.090, 1.266e-4
-1.091, 1.266e-4
-1.092, 1.296e-4
-1.093, 1.296e-4
-1.094, 1.296e-4
-1.095, 1.296e-4
-1.096, 1.296e-4
-1.097, 1.296e-4
-1.098, 1.296e-4
-1.099, 1.296e-4
-1.100, 1.296e-4
-1.101, 1.296e-4
-1.102, 1.327e-4
-1.103, 1.327e-4
-1.104, 1.327e-4
-1.105, 1.327e-4
-1.106, 1.327e-4
-1.107, 1.327e-4
-1.108, 1.327e-4
-1.109, 1.327e-4
-1.110, 1.358e-4
-1.111, 1.327e-4
-1.112, 1.327e-4
-1.113, 1.327e-4
-1.114, 1.327e-4
-1.115, 1.358e-4
-1.116, 1.358e-4
-1.117, 1.358e-4
-1.118, 1.358e-4
-1.119, 1.358e-4
-1.120, 1.358e-4
-1.121, 1.358e-4
-1.122, 1.358e-4
-1.123, 1.358e-4
-1.124, 1.358e-4
-1.125, 1.358e-4
-1.126, 1.389e-4
-1.127, 1.389e-4
-1.128, 1.389e-4
-1.129, 1.389e-4
-1.130, 1.389e-4
-1.131, 1.389e-4
-1.132, 1.389e-4
-1.133, 1.389e-4
-1.134, 1.389e-4
-1.135, 1.389e-4
-1.136, 1.389e-4
-1.137, 1.389e-4
-1.138, 1.420e-4
-1.139, 1.420e-4
-1.140, 1.420e-4
-1.141, 1.420e-4
-1.142, 1.420e-4
-1.143, 1.420e-4
-1.144, 1.420e-4
-1.145, 1.451e-4
-1.146, 1.451e-4
-1.147, 1.420e-4
-1.148, 1.451e-4
-1.149, 1.420e-4
-1.150, 1.451e-4
-1.151, 1.451e-4
-1.152, 1.451e-4
-1.153, 1.451e-4
-1.154, 1.451e-4
-1.155, 1.481e-4
-1.156, 1.451e-4
-1.157, 1.481e-4
-1.158, 1.451e-4
-1.159, 1.481e-4
-1.160, 1.481e-4
-1.161, 1.481e-4
-1.162, 1.481e-4
-1.163, 1.481e-4
-1.164, 1.481e-4
-1.165, 1.481e-4
-1.166, 1.481e-4
-1.167, 1.481e-4
-1.168, 1.481e-4
-1.169, 1.512e-4
-1.170, 1.481e-4
-1.171, 1.512e-4
-1.172, 1.481e-4
-1.173, 1.512e-4
-1.174, 1.512e-4
-1.175, 1.512e-4
-1.176, 1.512e-4
-1.177, 1.512e-4
-1.178, 1.512e-4
-1.179, 1.512e-4
-1.180, 1.512e-4
-1.181, 1.512e-4
-1.182, 1.512e-4
-1.183, 1.512e-4
-1.184, 1.512e-4
-1.185, 1.543e-4
-1.186, 1.543e-4
-1.187, 1.543e-4
-1.188, 1.543e-4
-1.189, 1.543e-4
-1.190, 1.543e-4
-1.191, 1.543e-4
-1.192, 1.543e-4
-1.193, 1.543e-4
-1.194, 1.543e-4
-1.195, 1.543e-4
-1.196, 1.543e-4
-1.197, 1.543e-4
-1.198, 1.543e-4
-1.199, 1.543e-4
-1.200, 1.543e-4
-1.201, 1.574e-4
-1.202, 1.543e-4
-1.203, 1.543e-4
-1.204, 1.543e-4
-1.205, 1.543e-4
-1.206, 1.543e-4
-1.207, 1.543e-4
-1.208, 1.543e-4
-1.209, 1.574e-4
-1.210, 1.574e-4
-1.211, 1.574e-4
-1.212, 1.574e-4
-1.213, 1.574e-4
-1.214, 1.543e-4
-1.215, 1.574e-4
-1.216, 1.574e-4
-1.217, 1.574e-4
-1.218, 1.574e-4
-1.219, 1.574e-4
-1.220, 1.574e-4
-1.221, 1.574e-4
-1.222, 1.574e-4
-1.223, 1.574e-4
-1.224, 1.574e-4
-1.225, 1.605e-4
-1.226, 1.574e-4
-1.227, 1.574e-4
-1.228, 1.574e-4
-1.229, 1.574e-4
-1.230, 1.574e-4
-1.231, 1.574e-4
-1.232, 1.605e-4
-1.233, 1.574e-4
-1.234, 1.605e-4
-1.235, 1.574e-4
-1.236, 1.605e-4
-1.237, 1.605e-4
-1.238, 1.605e-4
-1.239, 1.605e-4
-1.240, 1.574e-4
-1.241, 1.605e-4
-1.242, 1.605e-4
-1.243, 1.605e-4
-1.244, 1.605e-4
-1.245, 1.605e-4
-1.246, 1.605e-4
-1.247, 1.605e-4
-1.248, 1.605e-4
-1.249, 1.605e-4
-1.250, 1.605e-4
-1.251, 1.605e-4
-1.252, 1.605e-4
-1.253, 1.605e-4
-1.254, 1.605e-4
-1.255, 1.605e-4
-1.256, 1.605e-4
-1.257, 1.605e-4
-1.258, 1.636e-4
-1.259, 1.636e-4
-1.260, 1.636e-4
-1.261, 1.605e-4
-1.262, 1.636e-4
-1.263, 1.605e-4
-1.264, 1.605e-4
-1.265, 1.636e-4
-1.266, 1.636e-4
-1.267, 1.636e-4
-1.268, 1.636e-4
-1.269, 1.636e-4
-1.270, 1.636e-4
-1.271, 1.636e-4
-1.272, 1.636e-4
-1.273, 1.636e-4
-1.274, 1.636e-4
-1.275, 1.636e-4
-1.276, 1.636e-4
-1.277, 1.636e-4
-1.278, 1.636e-4
-1.279, 1.636e-4
-1.280, 1.636e-4
-1.281, 1.666e-4
-1.282, 1.666e-4
-1.283, 1.666e-4
-1.284, 1.636e-4
-1.285, 1.636e-4
-1.286, 1.666e-4
-1.287, 1.636e-4
-1.288, 1.666e-4
-1.289, 1.666e-4
-1.290, 1.666e-4
-1.291, 1.666e-4
-1.292, 1.666e-4
-1.293, 1.666e-4
-1.294, 1.666e-4
-1.295, 1.666e-4
-1.296, 1.666e-4
-1.297, 1.666e-4
-1.298, 1.666e-4
-1.299, 1.666e-4
-1.300, 1.666e-4
-1.301, 1.666e-4
-1.302, 1.666e-4
-1.303, 1.666e-4
-1.304, 1.697e-4
-1.305, 1.666e-4
-1.306, 1.697e-4
-1.307, 1.697e-4
-1.308, 1.697e-4
-1.309, 1.697e-4
-1.310, 1.666e-4
-1.311, 1.697e-4
-1.312, 1.697e-4
-1.313, 1.697e-4
-1.314, 1.697e-4
-1.315, 1.728e-4
-1.316, 1.728e-4
-1.317, 1.728e-4
-1.318, 1.728e-4
-1.319, 1.697e-4
-1.320, 1.697e-4
-1.321, 1.697e-4
-1.322, 1.728e-4
-1.323, 1.728e-4
-1.324, 1.728e-4
-1.325, 1.728e-4
-1.326, 1.728e-4
-1.327, 1.728e-4
-1.328, 1.759e-4
-1.329, 1.759e-4
-1.330, 1.759e-4
-1.331, 1.759e-4
-1.332, 1.759e-4
-1.333, 1.759e-4
-1.334, 1.759e-4
-1.335, 1.759e-4
-1.336, 1.759e-4
-1.337, 1.759e-4
-1.338, 1.759e-4
-1.339, 1.790e-4
-1.340, 1.790e-4
-1.341, 1.790e-4
-1.342, 1.790e-4
-1.343, 1.790e-4
-1.344, 1.790e-4
-1.345, 1.790e-4
-1.346, 1.821e-4
-1.347, 1.821e-4
-1.348, 1.821e-4
-1.349, 1.821e-4
-1.350, 1.851e-4
-1.351, 1.851e-4
-1.352, 1.851e-4
-1.353, 1.851e-4
-1.354, 1.851e-4
-1.355, 1.851e-4
-1.356, 1.851e-4
-1.357, 1.882e-4
-1.358, 1.882e-4
-1.359, 1.882e-4
-1.360, 1.882e-4
-1.361, 1.913e-4
-1.362, 1.913e-4
-1.363, 1.944e-4
-1.364, 1.944e-4
-1.365, 1.944e-4
-1.366, 1.944e-4
-1.367, 1.944e-4
-1.368, 1.944e-4
-1.369, 1.944e-4
-1.370, 1.975e-4
-1.371, 1.975e-4
-1.372, 2.006e-4
-1.373, 1.975e-4
-1.374, 2.006e-4
-1.375, 2.006e-4
-1.376, 2.036e-4
-1.377, 2.036e-4
-1.378, 2.036e-4
-1.379, 2.067e-4
-1.380, 2.067e-4
-1.381, 2.067e-4
-1.382, 2.098e-4
-1.383, 2.098e-4
-1.384, 2.098e-4
-1.385, 2.129e-4
-1.386, 2.129e-4
-1.387, 2.129e-4
-1.388, 2.160e-4
-1.389, 2.160e-4
-1.390, 2.191e-4
-1.391, 2.191e-4
-1.392, 2.191e-4
-1.393, 2.221e-4
-1.394, 2.221e-4
-1.395, 2.252e-4
-1.396, 2.252e-4
-1.397, 2.252e-4
-1.398, 2.283e-4
-1.399, 2.314e-4
-1.400, 2.314e-4
-1.401, 2.314e-4
-1.402, 2.345e-4
-1.403, 2.376e-4
-1.404, 2.345e-4
-1.405, 2.376e-4
-1.406, 2.406e-4
-1.407, 2.406e-4
-1.408, 2.437e-4
-1.409, 2.437e-4
-1.410, 2.468e-4
-1.411, 2.499e-4
-1.412, 2.530e-4
-1.413, 2.530e-4
-1.414, 2.530e-4
-1.415, 2.561e-4
-1.416, 2.561e-4
-1.417, 2.591e-4
-1.418, 2.622e-4
-1.419, 2.622e-4
-1.420, 2.653e-4
-1.421, 2.684e-4
-1.422, 2.715e-4
-1.423, 2.746e-4
-1.424, 2.746e-4
-1.425, 2.746e-4
-1.426, 2.776e-4
-1.427, 2.807e-4
-1.428, 2.807e-4
-1.429, 2.838e-4
-1.430, 2.900e-4
-1.431, 2.900e-4
-1.432, 2.900e-4
-1.433, 2.961e-4
-1.434, 2.961e-4
-1.435, 3.023e-4
-1.436, 3.023e-4
-1.437, 3.054e-4
-1.438, 3.054e-4
-1.439, 3.085e-4
-1.440, 3.115e-4
-1.441, 3.146e-4
-1.442, 3.177e-4
-1.443, 3.208e-4
-1.444, 3.239e-4
-1.445, 3.270e-4
-1.446, 3.300e-4
-1.447, 3.331e-4
-1.448, 3.362e-4
-1.449, 3.393e-4
-1.450, 3.424e-4
-1.451, 3.455e-4
-1.452, 3.485e-4
-1.453, 3.516e-4
-1.454, 3.547e-4
-1.455, 3.578e-4
-1.456, 3.609e-4
-1.457, 3.670e-4
-1.458, 3.701e-4
-1.459, 3.701e-4
-1.460, 3.763e-4
-1.461, 3.794e-4
-1.462, 3.825e-4
-1.463, 3.855e-4
-1.464, 3.917e-4
-1.465, 3.948e-4
-1.466, 3.979e-4
-1.467, 4.010e-4
-1.468, 4.040e-4
-1.469, 4.102e-4
-1.470, 4.133e-4
-1.471, 4.195e-4
-1.472, 4.195e-4
-1.473, 4.256e-4
-1.474, 4.287e-4
-1.475, 4.349e-4
-1.476, 4.380e-4
-1.477, 4.410e-4
-1.478, 4.472e-4
-1.479, 4.534e-4
-1.480, 4.565e-4
-1.481, 4.626e-4
-1.482, 4.657e-4
-1.483, 4.719e-4
-1.484, 4.750e-4
-1.485, 4.780e-4
-1.486, 4.842e-4
-1.487, 4.904e-4
-1.488, 4.935e-4
-1.489, 5.027e-4
-1.490, 5.058e-4
-1.491, 5.120e-4
-1.492, 5.150e-4
-1.493, 5.212e-4
-1.494, 5.274e-4
-1.495, 5.335e-4
-1.496, 5.366e-4
-1.497, 5.428e-4
-1.498, 5.489e-4
-1.499, 5.520e-4
-1.500, 5.613e-4
-1.501, 5.644e-4
-1.502, 5.705e-4
-1.503, 5.798e-4
-1.504, 5.859e-4
-1.505, 5.921e-4
-1.506, 5.983e-4
-1.507, 6.014e-4
-1.508, 6.075e-4
-1.509, 6.137e-4
-1.510, 6.229e-4
-1.511, 6.291e-4
-1.512, 6.353e-4
-1.513, 6.384e-4
-1.514, 6.476e-4
-1.515, 6.538e-4
-1.516, 6.630e-4
-1.517, 6.692e-4
-1.518, 6.784e-4
-1.519, 6.815e-4
-1.520, 6.877e-4
-1.521, 6.969e-4
-1.522, 7.062e-4
-1.523, 7.124e-4
-1.524, 7.216e-4
-1.525, 7.278e-4
-1.526, 7.370e-4
-1.527, 7.432e-4
-1.528, 7.524e-4
-1.529, 7.586e-4
-1.530, 7.679e-4
-1.531, 7.740e-4
-1.532, 7.833e-4
-1.533, 7.894e-4
-1.534, 8.018e-4
-1.535, 8.110e-4
-1.536, 8.172e-4
-1.537, 8.264e-4
-1.538, 8.357e-4
-1.539, 8.449e-4
-1.540, 8.573e-4
-1.541, 8.665e-4
-1.542, 8.727e-4
-1.543, 8.819e-4
-1.544, 8.912e-4
-1.545, 9.004e-4
-1.546, 9.128e-4
-1.547, 9.220e-4
-1.548, 9.313e-4
-1.549, 9.436e-4
-1.550, 9.528e-4
-1.551, 9.621e-4
-1.552, 9.744e-4
-1.553, 9.837e-4
-1.554, 9.960e-4
-1.555, 1.005e-3
-1.556, 1.014e-3
-1.557, 1.027e-3
-1.558, 1.039e-3
-1.559, 1.051e-3
-1.560, 1.061e-3
-1.561, 1.073e-3
-1.562, 1.085e-3
-1.563, 1.098e-3
-1.564, 1.110e-3
-1.565, 1.122e-3
-1.566, 1.132e-3
-1.567, 1.144e-3
-1.568, 1.156e-3
-1.569, 1.172e-3
-1.570, 1.184e-3
-1.571, 1.196e-3
-1.572, 1.212e-3
-1.573, 1.221e-3
-1.574, 1.236e-3
-1.575, 1.252e-3
-1.576, 1.264e-3
-1.577, 1.280e-3
-1.578, 1.292e-3
-1.579, 1.304e-3
-1.580, 1.320e-3
-1.581, 1.335e-3
-1.582, 1.351e-3
-1.583, 1.366e-3
-1.584, 1.381e-3
-1.585, 1.397e-3
-1.586, 1.412e-3
-1.587, 1.428e-3
-1.588, 1.446e-3
-1.589, 1.462e-3
-1.590, 1.474e-3
-1.591, 1.492e-3
-1.592, 1.508e-3
-1.593, 1.526e-3
-1.594, 1.545e-3
-1.595, 1.563e-3
-1.596, 1.579e-3
-1.597, 1.597e-3
-1.598, 1.616e-3
-1.599, 1.634e-3
-1.600, 1.653e-3
-1.601, 1.671e-3
-1.602, 1.690e-3
-1.603, 1.708e-3
-1.604, 1.730e-3
-1.605, 1.748e-3
-1.606, 1.767e-3
-1.607, 1.788e-3
-1.608, 1.810e-3
-1.609, 1.828e-3
-1.610, 1.850e-3
-1.611, 1.872e-3
-1.612, 1.893e-3
-1.613, 1.915e-3
-1.614, 1.936e-3
-1.615, 1.958e-3
-1.616, 1.980e-3
-1.617, 2.004e-3
-1.618, 2.026e-3
-1.619, 2.050e-3
-1.620, 2.075e-3
-1.621, 2.097e-3
-1.622, 2.124e-3
-1.623, 2.146e-3
-1.624, 2.171e-3
-1.625, 2.195e-3
-1.626, 2.223e-3
-1.627, 2.248e-3
-1.628, 2.275e-3
-1.629, 2.303e-3
-1.630, 2.328e-3
-1.631, 2.356e-3
-1.632, 2.383e-3
-1.633, 2.411e-3
-1.634, 2.439e-3
-1.635, 2.467e-3
-1.636, 2.494e-3
-1.637, 2.522e-3
-1.638, 2.553e-3
-1.639, 2.584e-3
-1.640, 2.615e-3
-1.641, 2.645e-3
-1.642, 2.673e-3
-1.643, 2.707e-3
-1.644, 2.735e-3
-1.645, 2.769e-3
-1.646, 2.800e-3
-1.647, 2.830e-3
-1.648, 2.864e-3
-1.649, 2.895e-3
-1.650, 2.929e-3
-1.651, 2.963e-3
-1.652, 2.997e-3
-1.653, 3.034e-3
-1.654, 3.068e-3
-1.655, 3.102e-3
-1.656, 3.139e-3
-1.657, 3.176e-3
-1.658, 3.213e-3
-1.659, 3.250e-3
-1.660, 3.284e-3
-1.661, 3.324e-3
-1.662, 3.361e-3
-1.663, 3.398e-3
-1.664, 3.438e-3
-1.665, 3.478e-3
-1.666, 3.518e-3
-1.667, 3.555e-3
-1.668, 3.595e-3
-1.669, 3.638e-3
-1.670, 3.678e-3
-1.671, 3.721e-3
-1.672, 3.762e-3
-1.673, 3.802e-3
-1.674, 3.845e-3
-1.675, 3.891e-3
-1.676, 3.934e-3
-1.677, 3.977e-3
-1.678, 4.024e-3
-1.679, 4.067e-3
-1.680, 4.113e-3
-1.681, 4.159e-3
-1.682, 4.196e-3
-1.683, 4.243e-3
-1.684, 4.289e-3
-1.685, 4.335e-3
-1.686, 4.381e-3
-1.687, 4.431e-3
-1.688, 4.480e-3
-1.689, 4.529e-3
-1.690, 4.579e-3
-1.691, 4.628e-3
-1.692, 4.677e-3
-1.693, 4.727e-3
-1.694, 4.779e-3
-1.695, 4.828e-3
-1.696, 4.881e-3
-1.697, 4.933e-3
-1.698, 4.986e-3
-1.699, 5.038e-3
-1.700, 5.050e-3
-1.699, 5.010e-3
-1.698, 4.976e-3
-1.697, 4.945e-3
-1.696, 4.912e-3
-1.695, 4.875e-3
-1.694, 4.838e-3
-1.693, 4.801e-3
-1.692, 4.764e-3
-1.691, 4.727e-3
-1.690, 4.690e-3
-1.689, 4.649e-3
-1.688, 4.612e-3
-1.687, 4.572e-3
-1.686, 4.535e-3
-1.685, 4.498e-3
-1.684, 4.458e-3
-1.683, 4.418e-3
-1.682, 4.381e-3
-1.681, 4.341e-3
-1.680, 4.301e-3
-1.679, 4.261e-3
-1.678, 4.224e-3
-1.677, 4.184e-3
-1.676, 4.147e-3
-1.675, 4.110e-3
-1.674, 4.070e-3
-1.673, 4.030e-3
-1.672, 3.993e-3
-1.671, 3.953e-3
-1.670, 3.916e-3
-1.669, 3.876e-3
-1.668, 3.836e-3
-1.667, 3.799e-3
-1.666, 3.762e-3
-1.665, 3.728e-3
-1.664, 3.688e-3
-1.663, 3.651e-3
-1.662, 3.614e-3
-1.661, 3.573e-3
-1.660, 3.540e-3
-1.659, 3.503e-3
-1.658, 3.462e-3
-1.657, 3.429e-3
-1.656, 3.392e-3
-1.655, 3.355e-3
-1.654, 3.318e-3
-1.653, 3.284e-3
-1.652, 3.247e-3
-1.651, 3.213e-3
-1.650, 3.179e-3
-1.649, 3.142e-3
-1.648, 3.108e-3
-1.647, 3.074e-3
-1.646, 3.040e-3
-1.645, 3.006e-3
-1.644, 2.969e-3
-1.643, 2.938e-3
-1.642, 2.904e-3
-1.641, 2.871e-3
-1.640, 2.840e-3
-1.639, 2.806e-3
-1.638, 2.772e-3
-1.637, 2.741e-3
-1.636, 2.710e-3
-1.635, 2.676e-3
-1.634, 2.645e-3
-1.633, 2.615e-3
-1.632, 2.584e-3
-1.631, 2.553e-3
-1.630, 2.522e-3
-1.629, 2.494e-3
-1.628, 2.464e-3
-1.627, 2.433e-3
-1.626, 2.402e-3
-1.625, 2.374e-3
-1.624, 2.346e-3
-1.623, 2.316e-3
-1.622, 2.285e-3
-1.621, 2.257e-3
-1.620, 2.229e-3
-1.619, 2.201e-3
-1.618, 2.177e-3
-1.617, 2.149e-3
-1.616, 2.124e-3
-1.615, 2.097e-3
-1.614, 2.066e-3
-1.613, 2.044e-3
-1.612, 2.017e-3
-1.611, 1.989e-3
-1.610, 1.964e-3
-1.609, 1.939e-3
-1.608, 1.915e-3
-1.607, 1.890e-3
-1.606, 1.865e-3
-1.605, 1.841e-3
-1.604, 1.819e-3
-1.603, 1.795e-3
-1.602, 1.773e-3
-1.601, 1.748e-3
-1.600, 1.727e-3
-1.599, 1.702e-3
-1.598, 1.677e-3
-1.597, 1.656e-3
-1.596, 1.634e-3
-1.595, 1.613e-3
-1.594, 1.591e-3
-1.593, 1.569e-3
-1.592, 1.548e-3
-1.591, 1.526e-3
-1.590, 1.505e-3
-1.589, 1.483e-3
-1.588, 1.462e-3
-1.587, 1.443e-3
-1.586, 1.421e-3
-1.585, 1.403e-3
-1.584, 1.384e-3
-1.583, 1.366e-3
-1.582, 1.347e-3
-1.581, 1.329e-3
-1.580, 1.310e-3
-1.579, 1.289e-3
-1.578, 1.273e-3
-1.577, 1.255e-3
-1.576, 1.236e-3
-1.575, 1.218e-3
-1.574, 1.199e-3
-1.573, 1.184e-3
-1.572, 1.169e-3
-1.571, 1.153e-3
-1.570, 1.138e-3
-1.569, 1.119e-3
-1.568, 1.104e-3
-1.567, 1.085e-3
-1.566, 1.073e-3
-1.565, 1.055e-3
-1.564, 1.039e-3
-1.563, 1.024e-3
-1.562, 1.008e-3
-1.561, 9.929e-4
-1.560, 9.806e-4
-1.559, 9.683e-4
-1.558, 9.528e-4
-1.557, 9.374e-4
-1.556, 9.220e-4
-1.555, 9.097e-4
-1.554, 8.943e-4
-1.553, 8.819e-4
-1.552, 8.696e-4
-1.551, 8.542e-4
-1.550, 8.449e-4
-1.549, 8.295e-4
-1.548, 8.172e-4
-1.547, 8.048e-4
-1.546, 7.925e-4
-1.545, 7.802e-4
-1.544, 7.679e-4
-1.543, 7.555e-4
-1.542, 7.432e-4
-1.541, 7.339e-4
-1.540, 7.216e-4
-1.539, 7.093e-4
-1.538, 6.969e-4
-1.537, 6.877e-4
-1.536, 6.784e-4
-1.535, 6.692e-4
-1.534, 6.569e-4
-1.533, 6.445e-4
-1.532, 6.353e-4
-1.531, 6.260e-4
-1.530, 6.137e-4
-1.529, 6.075e-4
-1.528, 5.952e-4
-1.527, 5.859e-4
-1.526, 5.767e-4
-1.525, 5.674e-4
-1.524, 5.582e-4
-1.523, 5.489e-4
-1.522, 5.397e-4
-1.521, 5.305e-4
-1.520, 5.212e-4
-1.519, 5.120e-4
-1.518, 5.058e-4
-1.517, 4.965e-4
-1.516, 4.873e-4
-1.515, 4.780e-4
-1.514, 4.719e-4
-1.513, 4.626e-4
-1.512, 4.565e-4
-1.511, 4.472e-4
-1.510, 4.410e-4
-1.509, 4.318e-4
-1.508, 4.256e-4
-1.507, 4.164e-4
-1.506, 4.102e-4
-1.505, 4.040e-4
-1.504, 3.948e-4
-1.503, 3.886e-4
-1.502, 3.794e-4
-1.501, 3.763e-4
-1.500, 3.701e-4
-1.499, 3.640e-4
-1.498, 3.547e-4
-1.497, 3.485e-4
-1.496, 3.424e-4
-1.495, 3.362e-4
-1.494, 3.300e-4
-1.493, 3.208e-4
-1.492, 3.146e-4
-1.491, 3.115e-4
-1.490, 3.054e-4
-1.489, 2.992e-4
-1.488, 2.931e-4
-1.487, 2.900e-4
-1.486, 2.807e-4
-1.485, 2.746e-4
-1.484, 2.684e-4
-1.483, 2.622e-4
-1.482, 2.591e-4
-1.481, 2.530e-4
-1.480, 2.499e-4
-1.479, 2.406e-4
-1.478, 2.406e-4
-1.477, 2.345e-4
-1.476, 2.283e-4
-1.475, 2.252e-4
-1.474, 2.191e-4
-1.473, 2.129e-4
-1.472, 2.098e-4
-1.471, 2.036e-4
-1.470, 2.006e-4
-1.469, 1.944e-4
-1.468, 1.882e-4
-1.467, 1.851e-4
-1.466, 1.821e-4
-1.465, 1.790e-4
-1.464, 1.759e-4
-1.463, 1.697e-4
-1.462, 1.636e-4
-1.461, 1.605e-4
-1.460, 1.574e-4
-1.459, 1.543e-4
-1.458, 1.481e-4
-1.457, 1.451e-4
-1.456, 1.389e-4
-1.455, 1.358e-4
-1.454, 1.327e-4
-1.453, 1.296e-4
-1.452, 1.266e-4
-1.451, 1.235e-4
-1.450, 1.173e-4
-1.449, 1.142e-4
-1.448, 1.111e-4
-1.447, 1.081e-4
-1.446, 1.050e-4
-1.445, 1.019e-4
-1.444, 9.573e-5
-1.443, 9.573e-5
-1.442, 9.265e-5
-1.441, 8.957e-5
-1.440, 8.648e-5
-1.439, 8.032e-5
-1.438, 7.723e-5
-1.437, 7.415e-5
-1.436, 7.107e-5
-1.435, 7.107e-5
-1.434, 6.798e-5
-1.433, 6.490e-5
-1.432, 6.182e-5
-1.431, 5.873e-5
-1.430, 5.565e-5
-1.429, 5.257e-5
-1.428, 4.949e-5
-1.427, 4.640e-5
-1.426, 4.332e-5
-1.425, 4.332e-5
-1.424, 4.024e-5
-1.423, 3.715e-5
-1.422, 3.407e-5
-1.421, 3.407e-5
-1.420, 2.790e-5
-1.419, 2.790e-5
-1.418, 2.482e-5
-1.417, 2.482e-5
-1.416, 2.174e-5
-1.415, 1.865e-5
-1.414, 1.249e-5
-1.413, 1.249e-5
-1.412, 1.249e-5
-1.411, 9.405e-6
-1.410, 9.405e-6
-1.409, 3.239e-6
-1.408, 3.239e-6
-1.407, 3.239e-6
-1.406, 1.559e-7
-1.405, 1.559e-7
-1.404, -6.010e-6
-1.403, -6.010e-6
-1.402, -6.010e-6
-1.401, -9.093e-6
-1.400, -9.093e-6
-1.399, -1.218e-5
-1.398, -1.526e-5
-1.397, -1.526e-5
-1.396, -1.834e-5
-1.395, -1.834e-5
-1.394, -1.834e-5
-1.393, -2.143e-5
-1.392, -2.451e-5
-1.391, -2.451e-5
-1.390, -2.759e-5
-1.389, -2.759e-5
-1.388, -3.068e-5
-1.387, -3.068e-5
-1.386, -3.376e-5
-1.385, -3.376e-5
-1.384, -3.684e-5
-1.383, -3.684e-5
-1.382, -3.684e-5
-1.381, -3.992e-5
-1.380, -4.301e-5
-1.379, -4.301e-5
-1.378, -4.301e-5
-1.377, -4.609e-5
-1.376, -4.609e-5
-1.375, -4.917e-5
-1.374, -4.917e-5
-1.373, -4.917e-5
-1.372, -5.226e-5
-1.371, -5.226e-5
-1.370, -5.226e-5
-1.369, -5.534e-5
-1.368, -5.534e-5
-1.367, -5.842e-5
-1.366, -5.842e-5
-1.365, -5.842e-5
-1.364, -6.151e-5
-1.363, -6.151e-5
-1.362, -6.151e-5
-1.361, -6.459e-5
-1.360, -6.459e-5
-1.359, -6.459e-5
-1.358, -6.459e-5
-1.357, -6.767e-5
-1.356, -6.767e-5
-1.355, -7.076e-5
-1.354, -7.076e-5
-1.353, -7.076e-5
-1.352, -7.076e-5
-1.351, -7.076e-5
-1.350, -7.384e-5
-1.349, -7.384e-5
-1.348, -7.692e-5
-1.347, -7.692e-5
-1.346, -7.692e-5
-1.345, -8.000e-5
-1.344, -8.000e-5
-1.343, -8.309e-5
-1.342, -8.000e-5
-1.341, -8.309e-5
-1.340, -8.000e-5
-1.339, -8.309e-5
-1.338, -8.309e-5
-1.337, -8.617e-5
-1.336, -8.617e-5
-1.335, -8.617e-5
-1.334, -8.617e-5
-1.333, -8.617e-5
-1.332, -8.925e-5
-1.331, -8.925e-5
-1.330, -8.925e-5
-1.329, -9.234e-5
-1.328, -9.234e-5
-1.327, -9.234e-5
-1.326, -9.234e-5
-1.325, -9.234e-5
-1.324, -9.234e-5
-1.323, -9.542e-5
-1.322, -9.542e-5
-1.321, -9.850e-5
-1.320, -9.850e-5
-1.319, -9.850e-5
-1.318, -9.850e-5
-1.317, -9.850e-5
-1.316, -9.850e-5
-1.315, -1.016e-4
-1.314, -1.016e-4
-1.313, -1.016e-4
-1.312, -1.016e-4
-1.311, -1.016e-4
-1.310, -1.047e-4
-1.309, -1.047e-4
-1.308, -1.078e-4
-1.307, -1.047e-4
-1.306, -1.047e-4
-1.305, -1.047e-4
-1.304, -1.078e-4
-1.303, -1.078e-4
-1.302, -1.078e-4
-1.301, -1.078e-4
-1.300, -1.078e-4
-1.299, -1.108e-4
-1.298, -1.108e-4
-1.297, -1.108e-4
-1.296, -1.139e-4
-1.295, -1.108e-4
-1.294, -1.139e-4
-1.293, -1.108e-4
-1.292, -1.139e-4
-1.291, -1.139e-4
-1.290, -1.139e-4
-1.289, -1.139e-4
-1.288, -1.139e-4
-1.287, -1.139e-4
-1.286, -1.170e-4
-1.285, -1.170e-4
-1.284, -1.170e-4
-1.283, -1.201e-4
-1.282, -1.170e-4
-1.281, -1.170e-4
-1.280, -1.201e-4
-1.279, -1.201e-4
-1.278, -1.201e-4
-1.277, -1.201e-4
-1.276, -1.201e-4
-1.275, -1.201e-4
-1.274, -1.201e-4
-1.273, -1.232e-4
-1.272, -1.232e-4
-1.271, -1.232e-4
-1.270, -1.201e-4
-1.269, -1.232e-4
-1.268, -1.232e-4
-1.267, -1.232e-4
-1.266, -1.232e-4
-1.265, -1.232e-4
-1.264, -1.232e-4
-1.263, -1.232e-4
-1.262, -1.232e-4
-1.261, -1.232e-4
-1.260, -1.263e-4
-1.259, -1.232e-4
-1.258, -1.232e-4
-1.257, -1.263e-4
-1.256, -1.263e-4
-1.255, -1.263e-4
-1.254, -1.263e-4
-1.253, -1.263e-4
-1.252, -1.263e-4
-1.251, -1.263e-4
-1.250, -1.293e-4
-1.249, -1.293e-4
-1.248, -1.293e-4
-1.247, -1.293e-4
-1.246, -1.263e-4
-1.245, -1.293e-4
-1.244, -1.293e-4
-1.243, -1.293e-4
-1.242, -1.293e-4
-1.241, -1.293e-4
-1.240, -1.293e-4
-1.239, -1.293e-4
-1.238, -1.324e-4
-1.237, -1.293e-4
-1.236, -1.324e-4
-1.235, -1.293e-4
-1.234, -1.293e-4
-1.233, -1.293e-4
-1.232, -1.293e-4
-1.231, -1.324e-4
-1.230, -1.324e-4
-1.229, -1.324e-4
-1.228, -1.324e-4
-1.227, -1.324e-4
-1.226, -1.355e-4
-1.225, -1.324e-4
-1.224, -1.355e-4
-1.223, -1.324e-4
-1.222, -1.355e-4
-1.221, -1.355e-4
-1.220, -1.355e-4
-1.219, -1.355e-4
-1.218, -1.355e-4
-1.217, -1.355e-4
-1.216, -1.355e-4
-1.215, -1.355e-4
-1.214, -1.386e-4
-1.213, -1.386e-4
-1.212, -1.386e-4
-1.211, -1.355e-4
-1.210, -1.386e-4
-1.209, -1.386e-4
-1.208, -1.386e-4
-1.207, -1.386e-4
-1.206, -1.386e-4
-1.205, -1.386e-4
-1.204, -1.417e-4
-1.203, -1.417e-4
-1.202, -1.417e-4
-1.201, -1.417e-4
-1.200, -1.417e-4
-1.199, -1.417e-4
-1.198, -1.417e-4
-1.197, -1.417e-4
-1.196, -1.448e-4
-1.195, -1.448e-4
-1.194, -1.448e-4
-1.193, -1.448e-4
-1.192, -1.448e-4
-1.191, -1.478e-4
-1.190, -1.478e-4
-1.189, -1.478e-4
-1.188, -1.478e-4
-1.187, -1.478e-4
-1.186, -1.478e-4
-1.185, -1.509e-4
-1.184, -1.478e-4
-1.183, -1.478e-4
-1.182, -1.509e-4
-1.181, -1.509e-4
-1.180, -1.509e-4
-1.179, -1.509e-4
-1.178, -1.540e-4
-1.177, -1.540e-4
-1.176, -1.540e-4
-1.175, -1.540e-4
-1.174, -1.540e-4
-1.173, -1.571e-4
-1.172, -1.571e-4
-1.171, -1.571e-4
-1.170, -1.571e-4
-1.169, -1.571e-4
-1.168, -1.571e-4
-1.167, -1.602e-4
-1.166, -1.602e-4
-1.165, -1.571e-4
-1.164, -1.602e-4
-1.163, -1.602e-4
-1.162, -1.571e-4
-1.161, -1.602e-4
-1.160, -1.602e-4
-1.159, -1.632e-4
-1.158, -1.602e-4
-1.157, -1.602e-4
-1.156, -1.632e-4
-1.155, -1.632e-4
-1.154, -1.632e-4
-1.153, -1.632e-4
-1.152, -1.632e-4
-1.151, -1.632e-4
-1.150, -1.632e-4
-1.149, -1.632e-4
-1.148, -1.632e-4
-1.147, -1.663e-4
-1.146, -1.632e-4
-1.145, -1.663e-4
-1.144, -1.663e-4
-1.143, -1.663e-4
-1.142, -1.663e-4
-1.141, -1.663e-4
-1.140, -1.663e-4
-1.139, -1.663e-4
-1.138, -1.694e-4
-1.137, -1.663e-4
-1.136, -1.663e-4
-1.135, -1.663e-4
-1.134, -1.694e-4
-1.133, -1.694e-4
-1.132, -1.694e-4
-1.131, -1.694e-4
-1.130, -1.694e-4
-1.129, -1.694e-4
-1.128, -1.694e-4
-1.127, -1.694e-4
-1.126, -1.694e-4
-1.125, -1.694e-4
-1.124, -1.725e-4
-1.123, -1.694e-4
-1.122, -1.725e-4
-1.121, -1.725e-4
-1.120, -1.725e-4
-1.119, -1.725e-4
-1.118, -1.725e-4
-1.117, -1.725e-4
-1.116, -1.725e-4
-1.115, -1.725e-4
-1.114, -1.725e-4
-1.113, -1.725e-4
-1.112, -1.725e-4
-1.111, -1.756e-4
-1.110, -1.725e-4
-1.109, -1.756e-4
-1.108, -1.756e-4
-1.107, -1.756e-4
-1.106, -1.756e-4
-1.105, -1.756e-4
-1.104, -1.756e-4
-1.103, -1.787e-4
-1.102, -1.756e-4
-1.101, -1.756e-4
-1.100, -1.787e-4
-1.099, -1.787e-4
-1.098, -1.817e-4
-1.097, -1.787e-4
-1.096, -1.787e-4
-1.095, -1.787e-4
-1.094, -1.787e-4
-1.093, -1.787e-4
-1.092, -1.787e-4
-1.091, -1.787e-4
-1.090, -1.817e-4
-1.089, -1.817e-4
-1.088, -1.787e-4
-1.087, -1.817e-4
-1.086, -1.817e-4
-1.085, -1.817e-4
-1.084, -1.848e-4
-1.083, -1.817e-4
-1.082, -1.817e-4
-1.081, -1.817e-4
-1.080, -1.817e-4
-1.079, -1.848e-4
-1.078, -1.848e-4
-1.077, -1.848e-4
-1.076, -1.879e-4
-1.075, -1.848e-4
-1.074, -1.879e-4
-1.073, -1.879e-4
-1.072, -1.879e-4
-1.071, -1.879e-4
-1.070, -1.879e-4
-1.069, -1.879e-4
-1.068, -1.879e-4
-1.067, -1.879e-4
-1.066, -1.879e-4
-1.065, -1.879e-4
-1.064, -1.879e-4
-1.063, -1.910e-4
-1.062, -1.910e-4
-1.061, -1.910e-4
-1.060, -1.910e-4
-1.059, -1.910e-4
-1.058, -1.910e-4
-1.057, -1.910e-4
-1.056, -1.910e-4
-1.055, -1.941e-4
-1.054, -1.941e-4
-1.053, -1.910e-4
-1.052, -1.941e-4
-1.051, -1.941e-4
-1.050, -1.972e-4
-1.049, -1.972e-4
-1.048, -1.972e-4
-1.047, -1.972e-4
-1.046, -1.972e-4
-1.045, -1.972e-4
-1.044, -1.972e-4
-1.043, -2.002e-4
-1.042, -2.002e-4
-1.041, -2.002e-4
-1.040, -2.002e-4
-1.039, -2.033e-4
-1.038, -2.033e-4
-1.037, -2.033e-4
-1.036, -2.033e-4
-1.035, -2.033e-4
-1.034, -2.033e-4
-1.033, -2.033e-4
-1.032, -2.033e-4
-1.031, -2.064e-4
-1.030, -2.064e-4
-1.029, -2.064e-4
-1.028, -2.095e-4
-1.027, -2.095e-4
-1.026, -2.095e-4
-1.025, -2.095e-4
-1.024, -2.095e-4
-1.023, -2.095e-4
-1.022, -2.126e-4
-1.021, -2.126e-4
-1.020, -2.126e-4
-1.019, -2.157e-4
-1.018, -2.157e-4
-1.017, -2.157e-4
-1.016, -2.157e-4
-1.015, -2.157e-4
-1.014, -2.187e-4
-1.013, -2.187e-4
-1.012, -2.187e-4
-1.011, -2.187e-4
-1.010, -2.218e-4
-1.009, -2.218e-4
-1.008, -2.218e-4
-1.007, -2.249e-4
-1.006, -2.249e-4
-1.005, -2.249e-4
-1.004, -2.249e-4
-1.003, -2.280e-4
-1.002, -2.280e-4
-1.001, -2.311e-4
