Potential V vs RHE, Current mA cm-2
0.013299999999999867,-3.7970851288377587
0.012299999999999978,-5.323558621392133
0.011299999999999866,-6.458157083883892
0.010299999999999976,-7.28576319430494
0.009299999999999864,-7.940774526142452
0.008299999999999974,-8.508073757388331
0.007299999999999862,-8.987660888042578
0.006299999999999972,-9.423391968401008
0.00529999999999986,-9.81668170976349
0.0042999999999999705,-10.164700689530287
0.0032999999999998586,-10.514134380596953
0.0022999999999999687,-10.819712021367803
0.0012999999999998568,-11.123874950838783
0.00029999999999996696,-11.385596541313816
-0.000700000000000145,-11.691174182084664
-0.0017000000000000348,-11.952895772559694
-0.0027000000000001467,-12.258473413330542
-0.0037000000000000366,-12.520195003805576
-0.0047000000000001485,-12.825772644576423
-0.005700000000000038,-13.043638184755638
-0.00670000000000015,-13.30535977523067
-0.00770000000000004,-13.523225315409885
-0.008700000000000152,-13.741090855589102
-0.009700000000000042,-13.916515056772363
-0.010700000000000154,-14.090524546655764
-0.011700000000000044,-14.26028990263957
-0.012700000000000156,-14.444202371622024
-0.013700000000000045,-14.61396772760583
-0.014700000000000157,-14.826174422585586
-0.015700000000000047,-15.01008689156804
-0.01670000000000016,-15.179852247551842
-0.01770000000000005,-15.448647394526201
-0.01870000000000016,-15.575971411514052
-0.01970000000000005,-15.74573676749786
-0.020700000000000163,-15.91550212348166
-0.021700000000000053,-16.056973253468165
-0.022700000000000164,-16.184297270456018
-0.023700000000000054,-16.311621287443874
-0.024700000000000166,-16.396503965435777
-0.025700000000000056,-16.53797509542228
-0.026700000000000168,-16.665299112410132
-0.027700000000000058,-16.792623129397985
-0.02870000000000017,-16.919947146385837
-0.02970000000000006,-17.103859615368293
-0.03070000000000017,-17.231183632356142
-0.03170000000000006,-17.40094898833995
-0.03270000000000017,-17.542420118326454
-0.03370000000000006,-17.627302796318357
-0.034700000000000175,-17.71218547431026
-0.035700000000000065,-17.797068152302163
-0.03670000000000018,-17.924392169290012
-0.03770000000000007,-17.966833508285966
-0.03870000000000018,-18.06586329927652
-0.03970000000000007,-18.15074597726842
-0.04070000000000018,-18.27806999425627
-0.04170000000000007,-18.40539401124413
-0.04270000000000018,-18.49027668923603
-0.04370000000000007,-18.631747819222536
-0.044700000000000184,-18.716630497214435
-0.045700000000000074,-18.843954514202288
-0.046700000000000186,-18.92883719219419
-0.047700000000000076,-19.01371987018609
-0.04870000000000019,-19.112749661176647
-0.04970000000000008,-19.155191000172596
-0.05070000000000019,-19.197632339168546
-0.05170000000000008,-19.28251501716045
-0.05270000000000019,-19.3249563561564
-0.05370000000000008,-19.409839034148305
-0.05470000000000019,-19.49472171214021
-0.05570000000000008,-19.579604390132108
-0.056700000000000195,-19.721075520118614
-0.057700000000000085,-19.805958198110513
-0.058700000000000196,-19.93328221509837
-0.059700000000000086,-20.01816489309027
-0.0607000000000002,-20.10304757108217
-0.06170000000000009,-20.159636023076775
-0.0627000000000002,-20.202077362072725
-0.06370000000000009,-20.244518701068674
-0.0647000000000002,-20.329401379060574
-0.06570000000000009,-20.371842718056527
-0.0667000000000002,-20.414284057052477
-0.0677000000000001,-20.499166735044383
-0.0687000000000002,-20.626490752032236
-0.0697000000000001,-20.72552054302279
-0.07070000000000021,-20.85284456001064
-0.0717000000000001,-20.93772723800254
-0.07270000000000021,-21.022609915994444
-0.0737000000000001,-21.065051254990397
-0.07470000000000021,-21.149933932982297
-0.0757000000000001,-21.2065223849769
-0.07670000000000021,-21.248963723972853
-0.0777000000000001,-21.333846401964752
-0.07870000000000021,-21.376287740960702
-0.0797000000000001,-21.418729079956652
-0.08070000000000022,-21.503611757948562
-0.0817000000000001,-21.58849443594046
-0.08270000000000022,-21.729965565926964
-0.08370000000000011,-21.814848243918867
-0.08470000000000022,-21.899730921910766
-0.08570000000000011,-22.027054938898623
-0.08670000000000022,-22.111937616890522
-0.08770000000000011,-22.196820294882425
-0.08870000000000022,-22.253408746877028
-0.08970000000000011,-22.33829142486893
-0.09070000000000022,-22.38073276386488
-0.09170000000000011,-22.42317410286083
-0.09270000000000023,-22.508056780852733
-0.09370000000000012,-22.592939458844636
-0.09470000000000023,-22.67782213683654
-0.09570000000000012,-22.776851927827092
-0.09670000000000023,-22.904175944814945
-0.09770000000000012,-23.031499961802798
-0.09870000000000023,-23.1163826397947
-0.09970000000000012,-23.24370665678255
-0.10070000000000023,-23.342736447773106
-0.10170000000000012,-23.427619125765005
-0.10270000000000024,-23.47006046476096
-0.10370000000000013,-23.55494314275286
-0.10470000000000024,-23.639825820744765
-0.10570000000000013,-23.724708498736668
-0.10670000000000024,-23.823738289727217
-0.10770000000000013,-23.908620967719123
-0.10870000000000024,-24.035944984706973
-0.10970000000000013,-24.16326900169483
-0.11070000000000024,-24.290593018682678
-0.11170000000000013,-24.432064148669184
-0.11270000000000002,-24.516946826661083
-0.11370000000000013,-24.64427084364894
-0.11470000000000002,-24.771594860636792
-0.11570000000000014,-24.870624651627345
-0.11670000000000003,-24.95550732961925
-0.11770000000000014,-25.04039000761115
-0.11870000000000003,-25.12527268560305
-0.11970000000000014,-25.252596702590903
-0.12070000000000003,-25.39406783257741
-0.12170000000000014,-25.478950510569312
-0.12270000000000003,-25.648715866553115
-0.12370000000000014,-25.77603988354097
-0.12470000000000003,-25.91751101352747
-0.12570000000000014,-26.087276369511276
-0.12670000000000003,-26.21460038649913
-0.12770000000000015,-26.38436574248293
-0.12870000000000004,-26.483395533473487
-0.12970000000000015,-26.61071955046134
-0.13070000000000004,-26.69560222845324
-0.13170000000000015,-26.86536758443705
-0.13270000000000004,-26.9643973754276
-0.13370000000000015,-27.134162731411404
-0.13470000000000004,-27.261486748399253
-0.13570000000000015,-27.38881076538711
-0.13670000000000004,-27.615164573365515
-0.13770000000000016,-27.742488590353368
-0.13870000000000005,-27.954695285333123
-0.13970000000000016,-28.13860775431558
-0.14070000000000005,-28.308373110299385
-0.14170000000000016,-28.435697127287238
-0.14270000000000005,-28.577168257273744
-0.14370000000000016,-28.704492274261593
-0.14470000000000005,-28.8742576302454
-0.14570000000000016,-29.001581647233255
-0.14670000000000005,-29.18549411621571
-0.14770000000000016,-29.35525947219951
-0.14870000000000005,-29.581613280177915
-0.14970000000000017,-29.751378636161718
-0.15070000000000006,-29.96358533114148
-0.15170000000000017,-30.189939139119886
-0.15270000000000006,-30.359704495103685
-0.15370000000000017,-30.571911190083444
-0.15470000000000006,-30.7558236590659
-0.15570000000000017,-30.968030354045652
-0.15670000000000006,-31.095354371033505
-0.15770000000000017,-31.27926684001596
-0.15870000000000006,-31.449032195999767
-0.15970000000000018,-31.661238890979522
-0.16070000000000007,-31.84515135996197
-0.16170000000000018,-32.09979939393769
-0.16270000000000007,-32.32615320191609
-0.16370000000000018,-32.53835989689585
-0.16470000000000007,-32.807155043870196
-0.16570000000000018,-33.01936173884996
-0.16670000000000007,-33.231568433829715
-0.16770000000000018,-33.45792224180811
-0.16870000000000007,-33.627687597791926
-0.16970000000000018,-33.81160006677438
-0.17070000000000007,-34.02380676175414
-0.17170000000000019,-34.278454795729836
-0.17270000000000008,-34.462367264712285
-0.1737000000000002,-34.67457395969205
-0.17470000000000008,-34.90092776767045
-0.1757000000000002,-35.11313446265021
-0.17670000000000008,-35.38192960962457
-0.1777000000000002,-35.636577643600276
-0.17870000000000008,-35.848784338580025
-0.1797000000000002,-36.11757948555439
-0.18070000000000008,-36.329786180534136
-0.1817000000000002,-36.55613998851254
-0.18270000000000008,-36.725905344496354
-0.1837000000000002,-36.95225915247476
-0.1847000000000001,-37.164465847454515
-0.1857000000000002,-37.376672542434264
-0.1867000000000001,-37.60302635041268
-0.1877000000000002,-37.81523304539243
-0.1887000000000001,-38.08402819236679
-0.1897000000000002,-38.38111756533845
-0.1907000000000001,-38.607471373316855
-0.1917000000000001,-38.90456074628851
-0.19269999999999998,-39.130914554266916
-0.1937000000000001,-39.38556258824262
-0.19469999999999998,-39.61191639622103
-0.1957000000000001,-39.86656443019674
-0.19669999999999999,-40.03632978618054
-0.1977000000000001,-40.26268359415894
-0.1987,-40.4748902891387
-0.1997000000000001,-40.701244097117105
-0.2007,-40.95589213109281
-0.2017000000000001,-41.22468727806717
-0.2027,-41.47933531204288
-0.2037000000000001,-41.74813045901723
-0.2047,-42.00277849299294
-0.2057000000000001,-42.2715736399673
-0.2067,-42.483780334947056
-0.2077000000000001,-42.752575481921404
-0.2087,-42.96478217690117
-0.2097000000000001,-43.17698887188092
-0.2107,-43.40334267985933
-0.2117000000000001,-43.657990713835034
-0.2127,-43.88434452181344
-0.2137000000000001,-44.096551216793195
-0.2147,-44.4077877027635
-0.2157000000000001,-44.66243573673921
-0.2167,-44.93123088371356
-0.21770000000000012,-45.18587891768927
-0.2187,-45.497115403659585
-0.21970000000000012,-45.70932209863933
-0.2207,-45.97811724561369
-0.22170000000000012,-46.19032394059345
-0.2227,-46.41667774857186
-0.22370000000000012,-46.67132578254756
-0.2247,-46.88353247752732
-0.22570000000000012,-47.067444946509774
-0.2267,-47.32209298048547
-0.22770000000000012,-47.590888127459834
-0.22870000000000001,-47.84553616143554
-0.22970000000000013,-48.114331308409895
-0.23070000000000002,-48.36897934238561
-0.23170000000000013,-48.63777448935996
-0.23270000000000002,-48.89242252333566
-0.23370000000000013,-49.16121767031002
-0.23470000000000002,-49.373424365289786
-0.23570000000000013,-49.59977817326819
-0.23670000000000002,-49.85442620724389
-0.2376999999999999,-50.0807800152223
-0.23870000000000002,-50.2505453712061
-0.2396999999999999,-50.50519340518181
-0.24070000000000003,-50.73154721316022
-0.24169999999999991,-50.98619524713592
-0.24270000000000003,-51.25499039411028
-0.24369999999999992,-51.55207976708194
-0.24470000000000003,-51.77843357506035
-0.24569999999999992,-52.075522948032
-0.24670000000000003,-52.34431809500636
-0.24769999999999992,-52.55652478998611
-0.24870000000000003,-52.82531993696047
-0.24969999999999992,-52.995085292944275
-0.25070000000000003,-53.26388043991864
-0.2516999999999999,-53.476087134898386
-0.25270000000000004,-53.68829382987814
-0.2536999999999999,-53.91464763785655
-0.25470000000000004,-54.1268543328363
-0.2556999999999999,-54.39564947981066
-0.25670000000000004,-54.65029751378637
-0.25769999999999993,-54.919092660760725
-0.25870000000000004,-55.21618203373238
-0.25969999999999993,-55.484977180706736
-0.26070000000000004,-55.6971838756865
-0.26169999999999993,-55.9235376836649
-0.26270000000000004,-56.13574437864466
-0.26369999999999993,-56.36209818662306
-0.26470000000000005,-56.57430488160282
-0.26569999999999994,-56.786511576582576
-0.26670000000000005,-57.012865384560975
-0.26769999999999994,-57.22507207954074
-0.26870000000000005,-57.45142588751914
-0.26969999999999994,-57.70607392149485
-0.27070000000000005,-57.974869068469204
-0.27169999999999994,-58.18707576344896
-0.27270000000000005,-58.45587091042332
-0.27369999999999994,-58.66807760540307
-0.27470000000000006,-58.880284300382826
-0.27569999999999995,-59.10663810836124
-0.27670000000000006,-59.31884480334099
-0.27769999999999995,-59.44616882032884
-0.27870000000000006,-59.67252262830725
-0.27969999999999995,-59.884729323287
-0.28070000000000006,-60.11108313126541
-0.28169999999999995,-60.32328982624517
-0.28270000000000006,-60.59208497321952
-0.28369999999999995,-60.80429166819927
-0.28470000000000006,-61.01649836317903
-0.28569999999999995,-61.28529351015339
-0.28670000000000007,-61.49750020513315
-0.28769999999999996,-61.72385401311155
-0.28870000000000007,-61.936060708091304
-0.28969999999999996,-62.11997317707376
-0.29070000000000007,-62.28973853305756
-0.29169999999999996,-62.501945228037314
-0.29270000000000007,-62.72829903601572
-0.29369999999999996,-62.89806439199953
-0.2947000000000001,-63.15271242597524
-0.29569999999999996,-63.37906623395363
-0.2967000000000001,-63.59127292893339
-0.29769999999999996,-63.860068075907755
-0.2987000000000001,-64.0722747708875
-0.29969999999999997,-64.29862857886593
-0.3007000000000001,-64.51083527384567
-0.30169999999999997,-64.68060062982947
-0.3027000000000001,-64.86451309881193
-0.30369999999999997,-65.03427845479574
-0.3047000000000001,-65.2464851497755
-0.30569999999999997,-65.43039761875795
-0.3067000000000001,-65.64260431373769
-0.3077,-65.86895812171612
-0.3087000000000001,-66.08116481669586
-0.3097,-66.34995996367022
-0.3107000000000001,-66.56216665864997
-0.3117,-66.77437335362974
-0.3127000000000001,-67.04316850060408
-0.3137,-67.25537519558385
-0.3147000000000001,-67.43928766456631
-0.3157,-67.693935698542
-0.3167000000000001,-67.82125971552985
-0.3177,-68.04761352350828
-0.3187000000000001,-68.21737887949207
-0.3197,-68.44373268747047
-0.3207000000000001,-68.65593938245023
-0.3217,-68.86814607742998
-0.3227000000000001,-69.0944998854084
-0.3237,-69.3491479193841
-0.3247000000000001,-69.57550172736251
-0.3257,-69.78770842234226
-0.3267000000000001,-70.01406223032066
-0.3277,-70.22626892530042
-0.3287000000000001,-70.39603428128423
-0.3297,-70.62238808926263
-0.3307000000000001,-70.79215344524643
-0.3317,-71.0043601402262
-0.3327000000000001,-71.18827260920865
-0.3337,-71.4004793041884
-0.3347000000000001,-71.6268331121668
-0.3357,-71.83903980714656
-0.3367000000000001,-72.05124650212633
-0.3377,-72.27760031010472
-0.3387000000000001,-72.53224834408043
-0.3397,-72.75860215205884
-0.3407000000000001,-72.97080884703858
-0.3417,-73.15472131602105
-0.3427000000000001,-73.32448667200485
-0.3437,-73.53669336698461
-0.3447000000000001,-73.76304717496302
-0.3457,-73.93281253094682
-0.3467000000000001,-74.14501922592657
-0.3477,-74.37137303390499
-0.3487000000000001,-74.66846240687663
-0.3497,-74.89481621485504
-0.3507000000000001,-75.19190558782671
-0.3517,-75.46070073480107
-0.3527000000000001,-75.71534876877676
-0.3537,-75.98414391575112
-0.3547000000000001,-76.23879194972683
-0.3557,-76.46514575770523
-0.35670000000000013,-76.71979379168094
-0.3577,-76.94614759965934
-0.35870000000000013,-77.1583542946391
-0.3597,-77.42714944161345
-0.36070000000000013,-77.68179747558916
-0.3617,-77.95059262256353
-0.3626999999999999,-78.20524065653922
-0.3637,-78.55891848150549
-0.3646999999999999,-78.85600785447714
-0.3657,-79.1248030014515
-0.3666999999999999,-79.42189237442317
-0.3677,-79.69068752139752
-0.3686999999999999,-79.94533555537322
-0.36970000000000003,-80.21413070234757
-0.3706999999999999,-80.46877873632329
-0.37170000000000003,-80.73757388329766
-0.3726999999999999,-80.99222191727335
-0.37370000000000003,-81.26101706424771
-0.3746999999999999,-81.51566509822342
-0.37570000000000003,-81.82690158419373
-0.3766999999999999,-82.18057940915998
-0.37770000000000004,-82.47766878213164
-0.3786999999999999,-82.78890526810196
-0.37970000000000004,-83.14258309306821
-0.3806999999999999,-83.43967246603985
-0.38170000000000004,-83.70846761301424
-0.38269999999999993,-83.96311564698992
-0.38370000000000004,-84.23191079396429
-0.38469999999999993,-84.52900016693594
-0.38570000000000004,-84.7977953139103
-0.38669999999999993,-85.052443347886
-0.38770000000000004,-85.36367983385631
-0.38869999999999993,-85.66076920682796
-0.38970000000000005,-86.01444703179425
-0.39069999999999994,-86.36812485676049
-0.39170000000000005,-86.66521422973216
-0.39269999999999994,-87.01889205469841
-0.39370000000000005,-87.33012854066871
-0.39469999999999994,-87.62721791364037
-0.39570000000000005,-87.98089573860662
-0.39669999999999994,-88.23554377258235
-0.39770000000000005,-88.54678025855264
-0.39869999999999994,-88.80142829252836
-0.39970000000000006,-89.11266477849867
-0.40069999999999995,-89.42390126446898
-0.40170000000000006,-89.76343197643658
-0.40269999999999995,-90.07466846240689
-0.40370000000000006,-90.47078762636909
-0.40469999999999995,-90.81031833833671
-0.40570000000000006,-91.16399616330297
-0.40669999999999995,-91.46108553627462
-0.40770000000000006,-91.81476336124088
-0.40869999999999995,-92.12599984721119
-0.40970000000000006,-92.42308922018285
-0.41069999999999995,-92.73432570615316
-0.41170000000000007,-93.03141507912481
-0.41269999999999996,-93.34265156509512
-0.41370000000000007,-93.65388805106544
-0.41469999999999996,-94.03586010202899
-0.41570000000000007,-94.34709658799929
-0.41669999999999996,-94.70077441296557
-0.41770000000000007,-95.08274646392913
-0.41869999999999996,-95.43642428889537
-0.4197000000000001,-95.79010211386164
-0.42069999999999996,-96.17207416482519
-0.4217000000000001,-96.4833106507955
-0.42269999999999996,-96.79454713676581
-0.4237000000000001,-97.09163650973747
-0.42469999999999997,-97.44531433470372
-0.4257000000000001,-97.69996236867944
-0.42669999999999997,-98.09608153264163
-0.4277000000000001,-98.40731801861195
-0.42869999999999997,-98.7892900695755
-0.4297000000000001,-99.14296789454177
-0.43069999999999997,-99.53908705850398
-0.4317000000000001,-99.87861777047159
-0.4327,-100.2747369344338
-0.4337000000000001,-100.62841475940007
-0.4347,-100.98209258436633
-0.4357000000000001,-101.32162329633393
-0.4367,-101.6753011213002
-0.4377000000000001,-101.97239049427183
-0.4387,-102.3260683192381
-0.4397000000000001,-102.67974614420436
-0.4407,-103.01927685617197
-0.4417000000000001,-103.41539602013418
-0.4427,-103.76907384510045
-0.4437000000000001,-104.16519300906265
-0.4447,-104.58960639902216
-0.4457000000000001,-105.02816690198033
-0.4467,-105.38184472694657
-0.4477000000000001,-105.7779638909088
-0.4487,-106.11749460287639
-0.4497000000000001,-106.47117242784265
-0.4507,-106.78240891381296
-0.4517000000000001,-107.16438096477653
-0.4527,-107.56050012873874
-0.4537000000000001,-107.914177953705
-0.4547,-108.3102971176672
-0.4557000000000001,-108.69226916863077
-0.4567,-109.17327101058488
-0.4577000000000001,-109.56939017454708
-0.4587,-110.00795067750525
-0.4597000000000001,-110.40406984146746
-0.4607,-110.78604189243102
-0.4617000000000001,-111.18216105639323
-0.4627,-111.57828022035544
-0.4637000000000001,-111.91781093232305
-0.4647,-112.3563714352812
-0.4657000000000001,-112.71004926024747
-0.4667,-113.10616842420968
-0.4677000000000001,-113.53058181416918
-0.4687,-113.92670097813141
-0.4697000000000001,-114.36526148108955
-0.4707,-114.84626332304367
-0.4717000000000001,-115.32726516499778
-0.4727,-115.76582566795594
-0.4737000000000001,-116.14779771891952
-0.4747,-116.58635822187767
-0.4757000000000001,-117.02491872483584
-0.4767,-117.42103788879804
-0.4777000000000001,-117.81715705276027
-0.4787,-118.24157044271978
-0.4797000000000001,-118.68013094567793
-0.4807,-119.1186914486361
-0.48170000000000013,-119.55725195159425
-0.4827,-119.99581245455242
-0.48370000000000013,-120.47681429650652
-0.4847,-120.95781613846064
-0.48570000000000013,-121.43881798041474
-0.4867,-121.86323137037427
-0.4876999999999999,-122.30179187333242
-0.4887,-122.78279371528653
-0.4896999999999999,-123.17891287924873
-0.4907,-123.6174733822069
-0.4916999999999999,-124.05603388516508
-0.4927,-124.48044727512458
-0.4936999999999999,-124.9614491170787
-0.49470000000000003,-125.40000962003687
-0.4956999999999999,-125.88101146199097
-0.49670000000000003,-126.36201330394509
-0.4976999999999999,-126.84301514589919
-0.49870000000000003,-127.36645832684925
-0.4996999999999999,-127.84746016880335
-0.5007,-128.32846201075745
-0.5016999999999999,-128.752875400717
-0.5027,-129.2338772426711
-0.5036999999999999,-129.67243774562928
-0.5047,-130.1534395875834
-0.5056999999999999,-130.59200009054155
-0.5067,-131.07300193249566
-0.5076999999999999,-131.55400377444977
-0.5087,-132.07744695539984
