May 5, 2025   08:04:38
Cyclic Voltammetry
File: c:/users/guazh/data/banditlqround7_x0exp1108_r5/2025-04-30-exp1246\exp1246-2025-05-05t07_49_44-arkoh\exp1246_cv_sr_500mvs_efin_-1600mv.bin
Data Source:  Experiment
Instrument Model:  CHI760E
Header: CV ran at 500 mVs
Note: 

Init E (V) = -1
High E (V) = -1
Low E (V) = -1.6
Final E (V) = -1
Init P/N = N
Scan Rate (V/s) = 0.5
Segment = 3
Sample Interval (V) = 0.001
Quiet Time (sec) = 2
Sensitivity (A/V) = 0.01
Comp R (ohm) = 1.1

Results:

Channel 1:
Segment 1:

Segment 2:

Segment 3:

Potential/V, Current/A

-1.000, 2.345e-4
-1.001, 3.270e-4
-1.002, 3.794e-4
-1.003, 4.225e-4
-1.004, 4.595e-4
-1.005, 4.904e-4
-1.006, 5.181e-4
-1.007, 5.397e-4
-1.008, 5.582e-4
-1.009, 5.736e-4
-1.010, 5.952e-4
-1.011, 6.106e-4
-1.012, 6.322e-4
-1.013, 6.507e-4
-1.014, 6.661e-4
-1.015, 6.815e-4
-1.016, 6.908e-4
-1.017, 7.031e-4
-1.018, 7.124e-4
-1.019, 7.247e-4
-1.020, 7.401e-4
-1.021, 7.524e-4
-1.022, 7.648e-4
-1.023, 7.771e-4
-1.024, 7.833e-4
-1.025, 7.894e-4
-1.026, 7.956e-4
-1.027, 8.048e-4
-1.028, 8.141e-4
-1.029, 8.264e-4
-1.030, 8.357e-4
-1.031, 8.449e-4
-1.032, 8.480e-4
-1.033, 8.542e-4
-1.034, 8.573e-4
-1.035, 8.634e-4
-1.036, 8.696e-4
-1.037, 8.788e-4
-1.038, 8.881e-4
-1.039, 8.943e-4
-1.040, 9.004e-4
-1.041, 9.035e-4
-1.042, 9.066e-4
-1.043, 9.097e-4
-1.044, 9.158e-4
-1.045, 9.220e-4
-1.046, 9.313e-4
-1.047, 9.374e-4
-1.048, 9.436e-4
-1.049, 9.467e-4
-1.050, 9.467e-4
-1.051, 9.498e-4
-1.052, 9.528e-4
-1.053, 9.590e-4
-1.054, 9.652e-4
-1.055, 9.744e-4
-1.056, 9.775e-4
-1.057, 9.806e-4
-1.058, 9.837e-4
-1.059, 9.837e-4
-1.060, 9.868e-4
-1.061, 9.898e-4
-1.062, 9.991e-4
-1.063, 1.005e-3
-1.064, 1.008e-3
-1.065, 1.014e-3
-1.066, 1.014e-3
-1.067, 1.014e-3
-1.068, 1.018e-3
-1.069, 1.021e-3
-1.070, 1.027e-3
-1.071, 1.033e-3
-1.072, 1.039e-3
-1.073, 1.045e-3
-1.074, 1.045e-3
-1.075, 1.048e-3
-1.076, 1.048e-3
-1.077, 1.051e-3
-1.078, 1.058e-3
-1.079, 1.064e-3
-1.080, 1.070e-3
-1.081, 1.076e-3
-1.082, 1.076e-3
-1.083, 1.079e-3
-1.084, 1.079e-3
-1.085, 1.082e-3
-1.086, 1.085e-3
-1.087, 1.095e-3
-1.088, 1.101e-3
-1.089, 1.104e-3
-1.090, 1.110e-3
-1.091, 1.110e-3
-1.092, 1.113e-3
-1.093, 1.116e-3
-1.094, 1.122e-3
-1.095, 1.129e-3
-1.096, 1.135e-3
-1.097, 1.144e-3
-1.098, 1.144e-3
-1.099, 1.150e-3
-1.100, 1.150e-3
-1.101, 1.153e-3
-1.102, 1.156e-3
-1.103, 1.166e-3
-1.104, 1.172e-3
-1.105, 1.181e-3
-1.106, 1.187e-3
-1.107, 1.190e-3
-1.108, 1.193e-3
-1.109, 1.196e-3
-1.110, 1.203e-3
-1.111, 1.209e-3
-1.112, 1.215e-3
-1.113, 1.224e-3
-1.114, 1.233e-3
-1.115, 1.236e-3
-1.116, 1.243e-3
-1.117, 1.246e-3
-1.118, 1.249e-3
-1.119, 1.258e-3
-1.120, 1.267e-3
-1.121, 1.277e-3
-1.122, 1.286e-3
-1.123, 1.292e-3
-1.124, 1.301e-3
-1.125, 1.301e-3
-1.126, 1.307e-3
-1.127, 1.314e-3
-1.128, 1.323e-3
-1.129, 1.335e-3
-1.130, 1.347e-3
-1.131, 1.354e-3
-1.132, 1.363e-3
-1.133, 1.366e-3
-1.134, 1.372e-3
-1.135, 1.381e-3
-1.136, 1.391e-3
-1.137, 1.403e-3
-1.138, 1.415e-3
-1.139, 1.425e-3
-1.140, 1.434e-3
-1.141, 1.440e-3
-1.142, 1.449e-3
-1.143, 1.458e-3
-1.144, 1.468e-3
-1.145, 1.480e-3
-1.146, 1.492e-3
-1.147, 1.508e-3
-1.148, 1.517e-3
-1.149, 1.526e-3
-1.150, 1.536e-3
-1.151, 1.545e-3
-1.152, 1.554e-3
-1.153, 1.566e-3
-1.154, 1.579e-3
-1.155, 1.597e-3
-1.156, 1.606e-3
-1.157, 1.619e-3
-1.158, 1.628e-3
-1.159, 1.637e-3
-1.160, 1.650e-3
-1.161, 1.662e-3
-1.162, 1.674e-3
-1.163, 1.693e-3
-1.164, 1.705e-3
-1.165, 1.717e-3
-1.166, 1.730e-3
-1.167, 1.739e-3
-1.168, 1.748e-3
-1.169, 1.764e-3
-1.170, 1.779e-3
-1.171, 1.795e-3
-1.172, 1.813e-3
-1.173, 1.825e-3
-1.174, 1.835e-3
-1.175, 1.847e-3
-1.176, 1.856e-3
-1.177, 1.872e-3
-1.178, 1.887e-3
-1.179, 1.902e-3
-1.180, 1.921e-3
-1.181, 1.933e-3
-1.182, 1.949e-3
-1.183, 1.958e-3
-1.184, 1.970e-3
-1.185, 1.983e-3
-1.186, 1.998e-3
-1.187, 2.017e-3
-1.188, 2.032e-3
-1.189, 2.047e-3
-1.190, 2.066e-3
-1.191, 2.075e-3
-1.192, 2.087e-3
-1.193, 2.100e-3
-1.194, 2.115e-3
-1.195, 2.134e-3
-1.196, 2.152e-3
-1.197, 2.171e-3
-1.198, 2.186e-3
-1.199, 2.201e-3
-1.200, 2.211e-3
-1.201, 2.223e-3
-1.202, 2.238e-3
-1.203, 2.257e-3
-1.204, 2.275e-3
-1.205, 2.294e-3
-1.206, 2.309e-3
-1.207, 2.325e-3
-1.208, 2.337e-3
-1.209, 2.349e-3
-1.210, 2.365e-3
-1.211, 2.383e-3
-1.212, 2.399e-3
-1.213, 2.420e-3
-1.214, 2.436e-3
-1.215, 2.454e-3
-1.216, 2.467e-3
-1.217, 2.479e-3
-1.218, 2.494e-3
-1.219, 2.510e-3
-1.220, 2.525e-3
-1.221, 2.544e-3
-1.222, 2.562e-3
-1.223, 2.581e-3
-1.224, 2.593e-3
-1.225, 2.605e-3
-1.226, 2.621e-3
-1.227, 2.633e-3
-1.228, 2.652e-3
-1.229, 2.670e-3
-1.230, 2.692e-3
-1.231, 2.707e-3
-1.232, 2.719e-3
-1.233, 2.735e-3
-1.234, 2.747e-3
-1.235, 2.763e-3
-1.236, 2.778e-3
-1.237, 2.793e-3
-1.238, 2.812e-3
-1.239, 2.830e-3
-1.240, 2.846e-3
-1.241, 2.861e-3
-1.242, 2.874e-3
-1.243, 2.886e-3
-1.244, 2.901e-3
-1.245, 2.920e-3
-1.246, 2.938e-3
-1.247, 2.957e-3
-1.248, 2.972e-3
-1.249, 2.988e-3
-1.250, 3.000e-3
-1.251, 3.015e-3
-1.252, 3.028e-3
-1.253, 3.046e-3
-1.254, 3.065e-3
-1.255, 3.083e-3
-1.256, 3.099e-3
-1.257, 3.114e-3
-1.258, 3.126e-3
-1.259, 3.139e-3
-1.260, 3.154e-3
-1.261, 3.167e-3
-1.262, 3.185e-3
-1.263, 3.204e-3
-1.264, 3.222e-3
-1.265, 3.237e-3
-1.266, 3.250e-3
-1.267, 3.262e-3
-1.268, 3.274e-3
-1.269, 3.290e-3
-1.270, 3.305e-3
-1.271, 3.324e-3
-1.272, 3.339e-3
-1.273, 3.355e-3
-1.274, 3.367e-3
-1.275, 3.379e-3
-1.276, 3.392e-3
-1.277, 3.404e-3
-1.278, 3.422e-3
-1.279, 3.438e-3
-1.280, 3.453e-3
-1.281, 3.472e-3
-1.282, 3.484e-3
-1.283, 3.493e-3
-1.284, 3.506e-3
-1.285, 3.518e-3
-1.286, 3.533e-3
-1.287, 3.549e-3
-1.288, 3.564e-3
-1.289, 3.580e-3
-1.290, 3.592e-3
-1.291, 3.604e-3
-1.292, 3.617e-3
-1.293, 3.626e-3
-1.294, 3.638e-3
-1.295, 3.654e-3
-1.296, 3.669e-3
-1.297, 3.684e-3
-1.298, 3.700e-3
-1.299, 3.709e-3
-1.300, 3.721e-3
-1.301, 3.731e-3
-1.302, 3.743e-3
-1.303, 3.758e-3
-1.304, 3.771e-3
-1.305, 3.789e-3
-1.306, 3.802e-3
-1.307, 3.817e-3
-1.308, 3.826e-3
-1.309, 3.836e-3
-1.310, 3.848e-3
-1.311, 3.860e-3
-1.312, 3.876e-3
-1.313, 3.891e-3
-1.314, 3.906e-3
-1.315, 3.919e-3
-1.316, 3.928e-3
-1.317, 3.937e-3
-1.318, 3.950e-3
-1.319, 3.962e-3
-1.320, 3.974e-3
-1.321, 3.993e-3
-1.322, 4.008e-3
-1.323, 4.021e-3
-1.324, 4.033e-3
-1.325, 4.042e-3
-1.326, 4.051e-3
-1.327, 4.064e-3
-1.328, 4.076e-3
-1.329, 4.095e-3
-1.330, 4.110e-3
-1.331, 4.122e-3
-1.332, 4.135e-3
-1.333, 4.147e-3
-1.334, 4.156e-3
-1.335, 4.169e-3
-1.336, 4.184e-3
-1.337, 4.199e-3
-1.338, 4.215e-3
-1.339, 4.230e-3
-1.340, 4.246e-3
-1.341, 4.258e-3
-1.342, 4.267e-3
-1.343, 4.280e-3
-1.344, 4.292e-3
-1.345, 4.310e-3
-1.346, 4.326e-3
-1.347, 4.344e-3
-1.348, 4.360e-3
-1.349, 4.369e-3
-1.350, 4.381e-3
-1.351, 4.394e-3
-1.352, 4.409e-3
-1.353, 4.424e-3
-1.354, 4.443e-3
-1.355, 4.461e-3
-1.356, 4.480e-3
-1.357, 4.495e-3
-1.358, 4.508e-3
-1.359, 4.520e-3
-1.360, 4.532e-3
-1.361, 4.548e-3
-1.362, 4.569e-3
-1.363, 4.588e-3
-1.364, 4.606e-3
-1.365, 4.622e-3
-1.366, 4.634e-3
-1.367, 4.649e-3
-1.368, 4.662e-3
-1.369, 4.680e-3
-1.370, 4.699e-3
-1.371, 4.717e-3
-1.372, 4.739e-3
-1.373, 4.754e-3
-1.374, 4.770e-3
-1.375, 4.785e-3
-1.376, 4.801e-3
-1.377, 4.816e-3
-1.378, 4.834e-3
-1.379, 4.856e-3
-1.380, 4.878e-3
-1.381, 4.896e-3
-1.382, 4.912e-3
-1.383, 4.927e-3
-1.384, 4.942e-3
-1.385, 4.958e-3
-1.386, 4.976e-3
-1.387, 4.998e-3
-1.388, 5.019e-3
-1.389, 5.038e-3
-1.390, 5.060e-3
-1.391, 5.075e-3
-1.392, 5.090e-3
-1.393, 5.106e-3
-1.394, 5.124e-3
-1.395, 5.146e-3
-1.396, 5.167e-3
-1.397, 5.189e-3
-1.398, 5.211e-3
-1.399, 5.229e-3
-1.400, 5.245e-3
-1.401, 5.260e-3
-1.402, 5.282e-3
-1.403, 5.300e-3
-1.404, 5.322e-3
-1.405, 5.346e-3
-1.406, 5.365e-3
-1.407, 5.386e-3
-1.408, 5.402e-3
-1.409, 5.420e-3
-1.410, 5.439e-3
-1.411, 5.457e-3
-1.412, 5.482e-3
-1.413, 5.504e-3
-1.414, 5.528e-3
-1.415, 5.547e-3
-1.416, 5.565e-3
-1.417, 5.587e-3
-1.418, 5.602e-3
-1.419, 5.621e-3
-1.420, 5.645e-3
-1.421, 5.670e-3
-1.422, 5.698e-3
-1.423, 5.716e-3
-1.424, 5.738e-3
-1.425, 5.756e-3
-1.426, 5.775e-3
-1.427, 5.793e-3
-1.428, 5.818e-3
-1.429, 5.843e-3
-1.430, 5.870e-3
-1.431, 5.892e-3
-1.432, 5.914e-3
-1.433, 5.935e-3
-1.434, 5.954e-3
-1.435, 5.975e-3
-1.436, 5.997e-3
-1.437, 6.021e-3
-1.438, 6.046e-3
-1.439, 6.071e-3
-1.440, 6.095e-3
-1.441, 6.117e-3
-1.442, 6.136e-3
-1.443, 6.154e-3
-1.444, 6.179e-3
-1.445, 6.203e-3
-1.446, 6.231e-3
-1.447, 6.259e-3
-1.448, 6.280e-3
-1.449, 6.302e-3
-1.450, 6.324e-3
-1.451, 6.345e-3
-1.452, 6.367e-3
-1.453, 6.391e-3
-1.454, 6.416e-3
-1.455, 6.447e-3
-1.456, 6.472e-3
-1.457, 6.496e-3
-1.458, 6.518e-3
-1.459, 6.539e-3
-1.460, 6.561e-3
-1.461, 6.586e-3
-1.462, 6.613e-3
-1.463, 6.641e-3
-1.464, 6.666e-3
-1.465, 6.691e-3
-1.466, 6.715e-3
-1.467, 6.737e-3
-1.468, 6.758e-3
-1.469, 6.783e-3
-1.470, 6.811e-3
-1.471, 6.838e-3
-1.472, 6.866e-3
-1.473, 6.894e-3
-1.474, 6.916e-3
-1.475, 6.937e-3
-1.476, 6.959e-3
-1.477, 6.983e-3
-1.478, 7.011e-3
-1.479, 7.039e-3
-1.480, 7.070e-3
-1.481, 7.097e-3
-1.482, 7.122e-3
-1.483, 7.150e-3
-1.484, 7.171e-3
-1.485, 7.196e-3
-1.486, 7.221e-3
-1.487, 7.252e-3
-1.488, 7.279e-3
-1.489, 7.310e-3
-1.490, 7.338e-3
-1.491, 7.366e-3
-1.492, 7.390e-3
-1.493, 7.415e-3
-1.494, 7.443e-3
-1.495, 7.474e-3
-1.496, 7.501e-3
-1.497, 7.535e-3
-1.498, 7.563e-3
-1.499, 7.591e-3
-1.500, 7.619e-3
-1.501, 7.643e-3
-1.502, 7.671e-3
-1.503, 7.702e-3
-1.504, 7.733e-3
-1.505, 7.767e-3
-1.506, 7.800e-3
-1.507, 7.828e-3
-1.508, 7.859e-3
-1.509, 7.887e-3
-1.510, 7.914e-3
-1.511, 7.945e-3
-1.512, 7.979e-3
-1.513, 8.013e-3
-1.514, 8.050e-3
-1.515, 8.081e-3
-1.516, 8.115e-3
-1.517, 8.143e-3
-1.518, 8.173e-3
-1.519, 8.204e-3
-1.520, 8.238e-3
-1.521, 8.278e-3
-1.522, 8.315e-3
-1.523, 8.352e-3
-1.524, 8.386e-3
-1.525, 8.417e-3
-1.526, 8.448e-3
-1.527, 8.482e-3
-1.528, 8.519e-3
-1.529, 8.559e-3
-1.530, 8.602e-3
-1.531, 8.642e-3
-1.532, 8.685e-3
-1.533, 8.722e-3
-1.534, 8.762e-3
-1.535, 8.799e-3
-1.536, 8.836e-3
-1.537, 8.880e-3
-1.538, 8.923e-3
-1.539, 8.969e-3
-1.540, 9.015e-3
-1.541, 9.055e-3
-1.542, 9.095e-3
-1.543, 9.135e-3
-1.544, 9.175e-3
-1.545, 9.222e-3
-1.546, 9.268e-3
-1.547, 9.314e-3
-1.548, 9.360e-3
-1.549, 9.404e-3
-1.550, 9.447e-3
-1.551, 9.487e-3
-1.552, 9.533e-3
-1.553, 9.579e-3
-1.554, 9.629e-3
-1.555, 9.678e-3
-1.556, 9.724e-3
-1.557, 9.771e-3
-1.558, 9.817e-3
-1.559, 9.860e-3
-1.560, 9.903e-3
-1.561, 9.949e-3
-1.562, 1.000e-2
-1.563, 1.006e-2
-1.564, 1.011e-2
-1.565, 1.016e-2
-1.566, 1.021e-2
-1.567, 1.026e-2
-1.568, 1.031e-2
-1.569, 1.036e-2
-1.570, 1.041e-2
-1.571, 1.047e-2
-1.572, 1.053e-2
-1.573, 1.058e-2
-1.574, 1.064e-2
-1.575, 1.070e-2
-1.576, 1.075e-2
-1.577, 1.081e-2
-1.578, 1.087e-2
-1.579, 1.092e-2
-1.580, 1.099e-2
-1.581, 1.105e-2
-1.582, 1.111e-2
-1.583, 1.117e-2
-1.584, 1.123e-2
-1.585, 1.129e-2
-1.586, 1.135e-2
-1.587, 1.142e-2
-1.588, 1.149e-2
-1.589, 1.156e-2
-1.590, 1.162e-2
-1.591, 1.169e-2
-1.592, 1.176e-2
-1.593, 1.182e-2
-1.594, 1.189e-2
-1.595, 1.196e-2
-1.596, 1.203e-2
-1.597, 1.211e-2
-1.598, 1.218e-2
-1.599, 1.225e-2
-1.600, 1.221e-2
-1.599, 1.203e-2
-1.598, 1.190e-2
-1.597, 1.177e-2
-1.596, 1.165e-2
-1.595, 1.154e-2
-1.594, 1.142e-2
-1.593, 1.131e-2
-1.592, 1.120e-2
-1.591, 1.109e-2
-1.590, 1.098e-2
-1.589, 1.088e-2
-1.588, 1.078e-2
-1.587, 1.068e-2
-1.586, 1.058e-2
-1.585, 1.048e-2
-1.584, 1.038e-2
-1.583, 1.029e-2
-1.582, 1.018e-2
-1.581, 1.009e-2
-1.580, 9.999e-3
-1.579, 9.909e-3
-1.578, 9.823e-3
-1.577, 9.730e-3
-1.576, 9.641e-3
-1.575, 9.545e-3
-1.574, 9.456e-3
-1.573, 9.364e-3
-1.572, 9.277e-3
-1.571, 9.191e-3
-1.570, 9.111e-3
-1.569, 9.028e-3
-1.568, 8.944e-3
-1.567, 8.858e-3
-1.566, 8.775e-3
-1.565, 8.691e-3
-1.564, 8.605e-3
-1.563, 8.528e-3
-1.562, 8.451e-3
-1.561, 8.377e-3
-1.560, 8.297e-3
-1.559, 8.217e-3
-1.558, 8.133e-3
-1.557, 8.053e-3
-1.556, 7.973e-3
-1.555, 7.899e-3
-1.554, 7.825e-3
-1.553, 7.754e-3
-1.552, 7.680e-3
-1.551, 7.606e-3
-1.550, 7.529e-3
-1.549, 7.452e-3
-1.548, 7.378e-3
-1.547, 7.307e-3
-1.546, 7.236e-3
-1.545, 7.168e-3
-1.544, 7.097e-3
-1.543, 7.030e-3
-1.542, 6.959e-3
-1.541, 6.885e-3
-1.540, 6.814e-3
-1.539, 6.746e-3
-1.538, 6.681e-3
-1.537, 6.617e-3
-1.536, 6.555e-3
-1.535, 6.487e-3
-1.534, 6.422e-3
-1.533, 6.354e-3
-1.532, 6.287e-3
-1.531, 6.219e-3
-1.530, 6.157e-3
-1.529, 6.095e-3
-1.528, 6.037e-3
-1.527, 5.975e-3
-1.526, 5.914e-3
-1.525, 5.849e-3
-1.524, 5.784e-3
-1.523, 5.722e-3
-1.522, 5.664e-3
-1.521, 5.608e-3
-1.520, 5.553e-3
-1.519, 5.494e-3
-1.518, 5.436e-3
-1.517, 5.377e-3
-1.516, 5.315e-3
-1.515, 5.260e-3
-1.514, 5.204e-3
-1.513, 5.149e-3
-1.512, 5.100e-3
-1.511, 5.047e-3
-1.510, 4.992e-3
-1.509, 4.936e-3
-1.508, 4.881e-3
-1.507, 4.825e-3
-1.506, 4.773e-3
-1.505, 4.720e-3
-1.504, 4.674e-3
-1.503, 4.625e-3
-1.502, 4.575e-3
-1.501, 4.523e-3
-1.500, 4.471e-3
-1.499, 4.418e-3
-1.498, 4.369e-3
-1.497, 4.323e-3
-1.496, 4.276e-3
-1.495, 4.230e-3
-1.494, 4.184e-3
-1.493, 4.138e-3
-1.492, 4.088e-3
-1.491, 4.042e-3
-1.490, 3.993e-3
-1.489, 3.947e-3
-1.488, 3.906e-3
-1.487, 3.863e-3
-1.486, 3.820e-3
-1.485, 3.777e-3
-1.484, 3.731e-3
-1.483, 3.684e-3
-1.482, 3.638e-3
-1.481, 3.595e-3
-1.480, 3.555e-3
-1.479, 3.515e-3
-1.478, 3.478e-3
-1.477, 3.435e-3
-1.476, 3.392e-3
-1.475, 3.351e-3
-1.474, 3.305e-3
-1.473, 3.265e-3
-1.472, 3.225e-3
-1.471, 3.188e-3
-1.470, 3.151e-3
-1.469, 3.111e-3
-1.468, 3.074e-3
-1.467, 3.034e-3
-1.466, 2.994e-3
-1.465, 2.954e-3
-1.464, 2.917e-3
-1.463, 2.883e-3
-1.462, 2.849e-3
-1.461, 2.818e-3
-1.460, 2.781e-3
-1.459, 2.744e-3
-1.458, 2.704e-3
-1.457, 2.667e-3
-1.456, 2.630e-3
-1.455, 2.596e-3
-1.454, 2.565e-3
-1.453, 2.534e-3
-1.452, 2.501e-3
-1.451, 2.467e-3
-1.450, 2.430e-3
-1.449, 2.393e-3
-1.448, 2.359e-3
-1.447, 2.328e-3
-1.446, 2.297e-3
-1.445, 2.266e-3
-1.444, 2.235e-3
-1.443, 2.205e-3
-1.442, 2.171e-3
-1.441, 2.137e-3
-1.440, 2.106e-3
-1.439, 2.075e-3
-1.438, 2.047e-3
-1.437, 2.026e-3
-1.436, 1.995e-3
-1.435, 1.964e-3
-1.434, 1.933e-3
-1.433, 1.899e-3
-1.432, 1.869e-3
-1.431, 1.838e-3
-1.430, 1.813e-3
-1.429, 1.788e-3
-1.428, 1.761e-3
-1.427, 1.736e-3
-1.426, 1.705e-3
-1.425, 1.674e-3
-1.424, 1.643e-3
-1.423, 1.616e-3
-1.422, 1.588e-3
-1.421, 1.563e-3
-1.420, 1.539e-3
-1.419, 1.514e-3
-1.418, 1.489e-3
-1.417, 1.458e-3
-1.416, 1.431e-3
-1.415, 1.403e-3
-1.414, 1.378e-3
-1.413, 1.354e-3
-1.412, 1.332e-3
-1.411, 1.310e-3
-1.410, 1.286e-3
-1.409, 1.258e-3
-1.408, 1.230e-3
-1.407, 1.206e-3
-1.406, 1.181e-3
-1.405, 1.159e-3
-1.404, 1.138e-3
-1.403, 1.119e-3
-1.402, 1.095e-3
-1.401, 1.070e-3
-1.400, 1.048e-3
-1.399, 1.021e-3
-1.398, 9.991e-4
-1.397, 9.775e-4
-1.396, 9.590e-4
-1.395, 9.405e-4
-1.394, 9.189e-4
-1.393, 8.973e-4
-1.392, 8.727e-4
-1.391, 8.480e-4
-1.390, 8.264e-4
-1.389, 8.048e-4
-1.388, 7.833e-4
-1.387, 7.679e-4
-1.386, 7.494e-4
-1.385, 7.278e-4
-1.384, 7.062e-4
-1.383, 6.846e-4
-1.382, 6.599e-4
-1.381, 6.414e-4
-1.380, 6.229e-4
-1.379, 6.075e-4
-1.378, 5.921e-4
-1.377, 5.736e-4
-1.376, 5.520e-4
-1.375, 5.305e-4
-1.374, 5.089e-4
-1.373, 4.904e-4
-1.372, 4.750e-4
-1.371, 4.595e-4
-1.370, 4.441e-4
-1.369, 4.256e-4
-1.368, 4.102e-4
-1.367, 3.886e-4
-1.366, 3.701e-4
-1.365, 3.516e-4
-1.364, 3.300e-4
-1.363, 3.177e-4
-1.362, 3.023e-4
-1.361, 2.869e-4
-1.360, 2.746e-4
-1.359, 2.530e-4
-1.358, 2.314e-4
-1.357, 2.160e-4
-1.356, 1.975e-4
-1.355, 1.851e-4
-1.354, 1.697e-4
-1.353, 1.574e-4
-1.352, 1.420e-4
-1.351, 1.235e-4
-1.350, 1.050e-4
-1.349, 8.648e-5
-1.348, 7.107e-5
-1.347, 5.565e-5
-1.346, 4.332e-5
-1.345, 3.099e-5
-1.344, 1.557e-5
-1.343, 1.559e-7
-1.342, -1.526e-5
-1.341, -3.376e-5
-1.340, -4.917e-5
-1.339, -6.459e-5
-1.338, -7.384e-5
-1.337, -8.617e-5
-1.336, -9.850e-5
-1.335, -1.108e-4
-1.334, -1.263e-4
-1.333, -1.417e-4
-1.332, -1.602e-4
-1.331, -1.756e-4
-1.330, -1.848e-4
-1.329, -1.972e-4
-1.328, -2.064e-4
-1.327, -2.187e-4
-1.326, -2.342e-4
-1.325, -2.496e-4
-1.324, -2.650e-4
-1.323, -2.773e-4
-1.322, -2.897e-4
-1.321, -2.989e-4
-1.320, -3.112e-4
-1.319, -3.205e-4
-1.318, -3.328e-4
-1.317, -3.482e-4
-1.316, -3.637e-4
-1.315, -3.760e-4
-1.314, -3.883e-4
-1.313, -3.976e-4
-1.312, -4.068e-4
-1.311, -4.161e-4
-1.310, -4.253e-4
-1.309, -4.407e-4
-1.308, -4.531e-4
-1.307, -4.685e-4
-1.306, -4.808e-4
-1.305, -4.870e-4
-1.304, -4.962e-4
-1.303, -5.055e-4
-1.302, -5.147e-4
-1.301, -5.271e-4
-1.300, -5.394e-4
-1.299, -5.548e-4
-1.298, -5.641e-4
-1.297, -5.764e-4
-1.296, -5.826e-4
-1.295, -5.887e-4
-1.294, -6.011e-4
-1.293, -6.103e-4
-1.292, -6.226e-4
-1.291, -6.350e-4
-1.290, -6.473e-4
-1.289, -6.565e-4
-1.288, -6.658e-4
-1.287, -6.689e-4
-1.286, -6.781e-4
-1.285, -6.874e-4
-1.284, -6.997e-4
-1.283, -7.090e-4
-1.282, -7.244e-4
-1.281, -7.336e-4
-1.280, -7.398e-4
-1.279, -7.460e-4
-1.278, -7.521e-4
-1.277, -7.614e-4
-1.276, -7.737e-4
-1.275, -7.830e-4
-1.274, -7.922e-4
-1.273, -8.045e-4
-1.272, -8.107e-4
-1.271, -8.169e-4
-1.270, -8.230e-4
-1.269, -8.323e-4
-1.268, -8.415e-4
-1.267, -8.508e-4
-1.266, -8.631e-4
-1.265, -8.724e-4
-1.264, -8.816e-4
-1.263, -8.847e-4
-1.262, -8.939e-4
-1.261, -8.970e-4
-1.260, -9.032e-4
-1.259, -9.155e-4
-1.258, -9.248e-4
-1.257, -9.340e-4
-1.256, -9.433e-4
-1.255, -9.494e-4
-1.254, -9.556e-4
-1.253, -9.587e-4
-1.252, -9.649e-4
-1.251, -9.741e-4
-1.250, -9.834e-4
-1.249, -9.957e-4
-1.248, -1.002e-3
-1.247, -1.008e-3
-1.246, -1.014e-3
-1.245, -1.017e-3
-1.244, -1.023e-3
-1.243, -1.030e-3
-1.242, -1.042e-3
-1.241, -1.051e-3
-1.240, -1.057e-3
-1.239, -1.067e-3
-1.238, -1.070e-3
-1.237, -1.073e-3
-1.236, -1.079e-3
-1.235, -1.085e-3
-1.234, -1.091e-3
-1.233, -1.101e-3
-1.232, -1.110e-3
-1.231, -1.119e-3
-1.230, -1.122e-3
-1.229, -1.128e-3
-1.228, -1.131e-3
-1.227, -1.138e-3
-1.226, -1.144e-3
-1.225, -1.153e-3
-1.224, -1.162e-3
-1.223, -1.168e-3
-1.222, -1.175e-3
-1.221, -1.178e-3
-1.220, -1.181e-3
-1.219, -1.187e-3
-1.218, -1.190e-3
-1.217, -1.199e-3
-1.216, -1.208e-3
-1.215, -1.218e-3
-1.214, -1.221e-3
-1.213, -1.224e-3
-1.212, -1.230e-3
-1.211, -1.230e-3
-1.210, -1.236e-3
-1.209, -1.245e-3
-1.208, -1.255e-3
-1.207, -1.264e-3
-1.206, -1.270e-3
-1.205, -1.273e-3
-1.204, -1.276e-3
-1.203, -1.279e-3
-1.202, -1.282e-3
-1.201, -1.295e-3
-1.200, -1.301e-3
-1.199, -1.310e-3
-1.198, -1.316e-3
-1.197, -1.319e-3
-1.196, -1.326e-3
-1.195, -1.326e-3
-1.194, -1.332e-3
-1.193, -1.338e-3
-1.192, -1.344e-3
-1.191, -1.353e-3
-1.190, -1.359e-3
-1.189, -1.369e-3
-1.188, -1.369e-3
-1.187, -1.372e-3
-1.186, -1.375e-3
-1.185, -1.381e-3
-1.184, -1.387e-3
-1.183, -1.396e-3
-1.182, -1.403e-3
-1.181, -1.412e-3
-1.180, -1.415e-3
-1.179, -1.418e-3
-1.178, -1.421e-3
-1.177, -1.424e-3
-1.176, -1.433e-3
-1.175, -1.440e-3
-1.174, -1.449e-3
-1.173, -1.455e-3
-1.172, -1.461e-3
-1.171, -1.461e-3
-1.170, -1.464e-3
-1.169, -1.470e-3
-1.168, -1.474e-3
-1.167, -1.486e-3
-1.166, -1.492e-3
-1.165, -1.498e-3
-1.164, -1.507e-3
-1.163, -1.507e-3
-1.162, -1.511e-3
-1.161, -1.517e-3
-1.160, -1.523e-3
-1.159, -1.532e-3
-1.158, -1.541e-3
-1.157, -1.551e-3
-1.156, -1.557e-3
-1.155, -1.563e-3
-1.154, -1.566e-3
-1.153, -1.569e-3
-1.152, -1.575e-3
-1.151, -1.585e-3
-1.150, -1.594e-3
-1.149, -1.603e-3
-1.148, -1.612e-3
-1.147, -1.615e-3
-1.146, -1.618e-3
-1.145, -1.625e-3
-1.144, -1.628e-3
-1.143, -1.637e-3
-1.142, -1.646e-3
-1.141, -1.655e-3
-1.140, -1.665e-3
-1.139, -1.671e-3
-1.138, -1.677e-3
-1.137, -1.680e-3
-1.136, -1.686e-3
-1.135, -1.692e-3
-1.134, -1.702e-3
-1.133, -1.711e-3
-1.132, -1.720e-3
-1.131, -1.729e-3
-1.130, -1.733e-3
-1.129, -1.742e-3
-1.128, -1.745e-3
-1.127, -1.751e-3
-1.126, -1.763e-3
-1.125, -1.773e-3
-1.124, -1.785e-3
-1.123, -1.791e-3
-1.122, -1.800e-3
-1.121, -1.807e-3
-1.120, -1.810e-3
-1.119, -1.819e-3
-1.118, -1.825e-3
-1.117, -1.837e-3
-1.116, -1.847e-3
-1.115, -1.859e-3
-1.114, -1.868e-3
-1.113, -1.874e-3
-1.112, -1.881e-3
-1.111, -1.887e-3
-1.110, -1.896e-3
-1.109, -1.905e-3
-1.108, -1.918e-3
-1.107, -1.933e-3
-1.106, -1.939e-3
-1.105, -1.948e-3
-1.104, -1.955e-3
-1.103, -1.961e-3
-1.102, -1.970e-3
-1.101, -1.979e-3
-1.100, -1.992e-3
-1.099, -2.004e-3
-1.098, -2.016e-3
-1.097, -2.025e-3
-1.096, -2.032e-3
-1.095, -2.038e-3
-1.094, -2.047e-3
-1.093, -2.056e-3
-1.092, -2.069e-3
-1.091, -2.081e-3
-1.090, -2.093e-3
-1.089, -2.106e-3
-1.088, -2.112e-3
-1.087, -2.121e-3
-1.086, -2.130e-3
-1.085, -2.136e-3
-1.084, -2.152e-3
-1.083, -2.164e-3
-1.082, -2.177e-3
-1.081, -2.189e-3
-1.080, -2.195e-3
-1.079, -2.204e-3
-1.078, -2.210e-3
-1.077, -2.223e-3
-1.076, -2.235e-3
-1.075, -2.247e-3
-1.074, -2.260e-3
-1.073, -2.272e-3
-1.072, -2.284e-3
-1.071, -2.294e-3
-1.070, -2.300e-3
-1.069, -2.309e-3
-1.068, -2.321e-3
-1.067, -2.334e-3
-1.066, -2.349e-3
-1.065, -2.362e-3
-1.064, -2.371e-3
-1.063, -2.380e-3
-1.062, -2.389e-3
-1.061, -2.395e-3
-1.060, -2.408e-3
-1.059, -2.423e-3
-1.058, -2.436e-3
-1.057, -2.448e-3
-1.056, -2.460e-3
-1.055, -2.469e-3
-1.054, -2.479e-3
-1.053, -2.488e-3
-1.052, -2.500e-3
-1.051, -2.509e-3
-1.050, -2.525e-3
-1.049, -2.540e-3
-1.048, -2.550e-3
-1.047, -2.562e-3
-1.046, -2.571e-3
-1.045, -2.577e-3
-1.044, -2.590e-3
-1.043, -2.599e-3
-1.042, -2.614e-3
-1.041, -2.630e-3
-1.040, -2.639e-3
-1.039, -2.654e-3
-1.038, -2.661e-3
-1.037, -2.670e-3
-1.036, -2.682e-3
-1.035, -2.691e-3
-1.034, -2.704e-3
-1.033, -2.719e-3
-1.032, -2.731e-3
-1.031, -2.744e-3
-1.030, -2.753e-3
-1.029, -2.762e-3
-1.028, -2.772e-3
-1.027, -2.781e-3
-1.026, -2.793e-3
-1.025, -2.809e-3
-1.024, -2.824e-3
-1.023, -2.836e-3
-1.022, -2.846e-3
-1.021, -2.855e-3
-1.020, -2.864e-3
-1.019, -2.873e-3
-1.018, -2.886e-3
-1.017, -2.901e-3
-1.016, -2.913e-3
-1.015, -2.929e-3
-1.014, -2.938e-3
-1.013, -2.947e-3
-1.012, -2.957e-3
-1.011, -2.963e-3
-1.010, -2.975e-3
-1.009, -2.987e-3
-1.008, -3.003e-3
-1.007, -3.015e-3
-1.006, -3.027e-3
-1.005, -3.037e-3
-1.004, -3.046e-3
-1.003, -3.055e-3
-1.002, -3.064e-3
-1.001, -3.077e-3
