Potential V vs RHE, Current mA cm-2
0.013299999999999867,-0.4384190318281749
0.012299999999999978,-1.3543031273607997
0.011299999999999866,-1.92117794521672
0.010299999999999976,-2.3144676865791998
0.009299999999999864,-2.618630616050183
0.008299999999999974,-2.794054817233447
0.007299999999999862,-2.968064307116847
0.006299999999999972,-3.0996324580042955
0.00529999999999986,-3.1859298472960624
0.0042999999999999705,-3.317497998183511
0.0032999999999998586,-3.403795387475278
0.0022999999999999687,-3.4915074880669104
0.0012999999999998568,-3.579219588658543
0.00029999999999996696,-3.6655169779503103
-0.000700000000000145,-3.7970851288377587
-0.0017000000000000348,-3.840941179133574
-0.0027000000000001467,-3.884797229429391
-0.0037000000000000366,-3.971094618721158
-0.0047000000000001485,-4.014950669016974
-0.005700000000000038,-4.014950669016974
-0.00670000000000015,-4.0588067193127895
-0.00770000000000004,-4.0588067193127895
-0.008700000000000152,-4.102662769608606
-0.009700000000000042,-4.146518819904423
-0.010700000000000154,-4.146518819904423
-0.011700000000000044,-4.23281620919619
-0.012700000000000156,-4.3205283097878215
-0.013700000000000045,-4.3205283097878215
-0.014700000000000157,-4.406825699079589
-0.015700000000000047,-4.406825699079589
-0.01670000000000016,-4.494537799671222
-0.01770000000000005,-4.494537799671222
-0.01870000000000016,-4.494537799671222
-0.01970000000000005,-4.494537799671222
-0.020700000000000163,-4.494537799671222
-0.021700000000000053,-4.538393849967037
-0.022700000000000164,-4.538393849967037
-0.023700000000000054,-4.582249900262854
-0.024700000000000166,-4.626105950558669
-0.025700000000000056,-4.668547289554621
-0.026700000000000168,-4.712403339850438
-0.027700000000000058,-4.712403339850438
-0.02870000000000017,-4.756259390146253
-0.02970000000000006,-4.800115440442069
-0.03070000000000017,-4.843971490737885
-0.03170000000000006,-4.800115440442069
-0.03270000000000017,-4.800115440442069
-0.03370000000000006,-4.800115440442069
-0.034700000000000175,-4.800115440442069
-0.035700000000000065,-4.843971490737885
-0.03670000000000018,-4.843971490737885
-0.03770000000000007,-4.843971490737885
-0.03870000000000018,-4.887827541033701
-0.03970000000000007,-4.9302688800296535
-0.04070000000000018,-4.974124930325469
-0.04170000000000007,-5.017980980621284
-0.04270000000000018,-5.017980980621284
-0.04370000000000007,-5.0618370309171015
-0.044700000000000184,-5.017980980621284
-0.045700000000000074,-5.017980980621284
-0.046700000000000186,-5.017980980621284
-0.047700000000000076,-5.017980980621284
-0.04870000000000019,-5.017980980621284
-0.04970000000000008,-5.017980980621284
-0.05070000000000019,-5.017980980621284
-0.05170000000000008,-5.0618370309171015
-0.05270000000000019,-5.105693081212917
-0.05370000000000008,-5.149549131508733
-0.05470000000000019,-5.191990470504685
-0.05570000000000008,-5.235846520800501
-0.056700000000000195,-5.235846520800501
-0.057700000000000085,-5.235846520800501
-0.058700000000000196,-5.235846520800501
-0.059700000000000086,-5.235846520800501
-0.0607000000000002,-5.235846520800501
-0.06170000000000009,-5.191990470504685
-0.0627000000000002,-5.235846520800501
-0.06370000000000009,-5.191990470504685
-0.0647000000000002,-5.235846520800501
-0.06570000000000009,-5.235846520800501
-0.0667000000000002,-5.279702571096316
-0.0677000000000001,-5.279702571096316
-0.0687000000000002,-5.323558621392133
-0.0697000000000001,-5.323558621392133
-0.07070000000000021,-5.323558621392133
-0.0717000000000001,-5.323558621392133
-0.07270000000000021,-5.279702571096316
-0.0737000000000001,-5.279702571096316
-0.07470000000000021,-5.235846520800501
-0.0757000000000001,-5.279702571096316
-0.07670000000000021,-5.235846520800501
-0.0777000000000001,-5.279702571096316
-0.07870000000000021,-5.323558621392133
-0.0797000000000001,-5.323558621392133
-0.08070000000000022,-5.367414671687949
-0.0817000000000001,-5.367414671687949
-0.08270000000000022,-5.367414671687949
-0.08370000000000011,-5.367414671687949
-0.08470000000000022,-5.367414671687949
-0.08570000000000011,-5.323558621392133
-0.08670000000000022,-5.323558621392133
-0.08770000000000011,-5.279702571096316
-0.08870000000000022,-5.279702571096316
-0.08970000000000011,-5.279702571096316
-0.09070000000000022,-5.235846520800501
-0.09170000000000011,-5.279702571096316
-0.09270000000000023,-5.323558621392133
-0.09370000000000012,-5.323558621392133
-0.09470000000000023,-5.323558621392133
-0.09570000000000012,-5.323558621392133
-0.09670000000000023,-5.323558621392133
-0.09770000000000012,-5.279702571096316
-0.09870000000000023,-5.279702571096316
-0.09970000000000012,-5.235846520800501
-0.10070000000000023,-5.235846520800501
-0.10170000000000012,-5.191990470504685
-0.10270000000000024,-5.191990470504685
-0.10370000000000013,-5.191990470504685
-0.10470000000000024,-5.191990470504685
-0.10570000000000013,-5.235846520800501
-0.10670000000000024,-5.235846520800501
-0.10770000000000013,-5.235846520800501
-0.10870000000000024,-5.235846520800501
-0.10970000000000013,-5.235846520800501
-0.11070000000000024,-5.191990470504685
-0.11170000000000013,-5.191990470504685
-0.11270000000000002,-5.149549131508733
-0.11370000000000013,-5.149549131508733
-0.11470000000000002,-5.105693081212917
-0.11570000000000014,-5.0618370309171015
-0.11670000000000003,-5.0618370309171015
-0.11770000000000014,-5.0618370309171015
-0.11870000000000003,-5.0618370309171015
-0.11970000000000014,-5.0618370309171015
-0.12070000000000003,-5.105693081212917
-0.12170000000000014,-5.105693081212917
-0.12270000000000003,-5.105693081212917
-0.12370000000000014,-5.0618370309171015
-0.12470000000000003,-5.0618370309171015
-0.12570000000000014,-5.017980980621284
-0.12670000000000003,-5.017980980621284
-0.12770000000000015,-4.974124930325469
-0.12870000000000004,-4.9302688800296535
-0.12970000000000015,-4.9302688800296535
-0.13070000000000004,-4.887827541033701
-0.13170000000000015,-4.9302688800296535
-0.13270000000000004,-4.9302688800296535
-0.13370000000000015,-4.9302688800296535
-0.13470000000000004,-4.9302688800296535
-0.13570000000000015,-4.887827541033701
-0.13670000000000004,-4.9302688800296535
-0.13770000000000016,-4.887827541033701
-0.13870000000000005,-4.843971490737885
-0.13970000000000016,-4.800115440442069
-0.14070000000000005,-4.756259390146253
-0.14170000000000016,-4.712403339850438
-0.14270000000000005,-4.712403339850438
-0.14370000000000016,-4.712403339850438
-0.14470000000000005,-4.712403339850438
-0.14570000000000016,-4.712403339850438
-0.14670000000000005,-4.712403339850438
-0.14770000000000016,-4.712403339850438
-0.14870000000000005,-4.712403339850438
-0.14970000000000017,-4.668547289554621
-0.15070000000000006,-4.668547289554621
-0.15170000000000017,-4.626105950558669
-0.15270000000000006,-4.582249900262854
-0.15370000000000017,-4.582249900262854
-0.15470000000000006,-4.494537799671222
-0.15570000000000017,-4.538393849967037
-0.15670000000000006,-4.494537799671222
-0.15770000000000017,-4.494537799671222
-0.15870000000000006,-4.494537799671222
-0.15970000000000018,-4.494537799671222
-0.16070000000000007,-4.538393849967037
-0.16170000000000018,-4.538393849967037
-0.16270000000000007,-4.494537799671222
-0.16370000000000018,-4.494537799671222
-0.16470000000000007,-4.494537799671222
-0.16570000000000018,-4.406825699079589
-0.16670000000000007,-4.450681749375406
-0.16770000000000018,-4.364384360083638
-0.16870000000000007,-4.3205283097878215
-0.16970000000000018,-4.3205283097878215
-0.17070000000000007,-4.3205283097878215
-0.17170000000000019,-4.3205283097878215
-0.17270000000000008,-4.3205283097878215
-0.1737000000000002,-4.3205283097878215
-0.17470000000000008,-4.364384360083638
-0.1757000000000002,-4.3205283097878215
-0.17670000000000008,-4.3205283097878215
-0.1777000000000002,-4.276672259492005
-0.17870000000000008,-4.276672259492005
-0.1797000000000002,-4.23281620919619
-0.18070000000000008,-4.1889601589003735
-0.1817000000000002,-4.1889601589003735
-0.18270000000000008,-4.1889601589003735
-0.1837000000000002,-4.146518819904423
-0.1847000000000001,-4.1889601589003735
-0.1857000000000002,-4.1889601589003735
-0.1867000000000001,-4.1889601589003735
-0.1877000000000002,-4.1889601589003735
-0.1887000000000001,-4.1889601589003735
-0.1897000000000002,-4.1889601589003735
-0.1907000000000001,-4.1889601589003735
-0.1917000000000001,-4.146518819904423
-0.19269999999999998,-4.102662769608606
-0.1937000000000001,-4.102662769608606
-0.19469999999999998,-4.0588067193127895
-0.1957000000000001,-4.0588067193127895
-0.19669999999999999,-4.014950669016974
-0.1977000000000001,-4.014950669016974
-0.1987,-4.0588067193127895
-0.1997000000000001,-4.0588067193127895
-0.2007,-4.0588067193127895
-0.2017000000000001,-4.102662769608606
-0.2027,-4.0588067193127895
-0.2037000000000001,-4.0588067193127895
-0.2047,-4.0588067193127895
-0.2057000000000001,-4.014950669016974
-0.2067,-4.014950669016974
-0.2077000000000001,-3.971094618721158
-0.2087,-3.971094618721158
-0.2097000000000001,-3.971094618721158
-0.2107,-3.927238568425342
-0.2117000000000001,-3.971094618721158
-0.2127,-3.971094618721158
-0.2137000000000001,-3.971094618721158
-0.2147,-4.014950669016974
-0.2157000000000001,-4.014950669016974
-0.2167,-3.971094618721158
-0.21770000000000012,-3.971094618721158
-0.2187,-3.927238568425342
-0.21970000000000012,-3.927238568425342
-0.2207,-3.884797229429391
-0.22170000000000012,-3.840941179133574
-0.2227,-3.884797229429391
-0.22370000000000012,-3.840941179133574
-0.2247,-3.884797229429391
-0.22570000000000012,-3.884797229429391
-0.2267,-3.884797229429391
-0.22770000000000012,-3.927238568425342
-0.22870000000000001,-3.927238568425342
-0.22970000000000013,-3.927238568425342
-0.23070000000000002,-3.927238568425342
-0.23170000000000013,-3.884797229429391
-0.23270000000000002,-3.884797229429391
-0.23370000000000013,-3.840941179133574
-0.23470000000000002,-3.840941179133574
-0.23570000000000013,-3.840941179133574
-0.23670000000000002,-3.840941179133574
-0.2376999999999999,-3.840941179133574
-0.23870000000000002,-3.840941179133574
-0.2396999999999999,-3.884797229429391
-0.24070000000000003,-3.884797229429391
-0.24169999999999991,-3.927238568425342
-0.24270000000000003,-3.927238568425342
-0.24369999999999992,-3.884797229429391
-0.24470000000000003,-3.884797229429391
-0.24569999999999992,-3.884797229429391
-0.24670000000000003,-3.840941179133574
-0.24769999999999992,-3.840941179133574
-0.24870000000000003,-3.840941179133574
-0.24969999999999992,-3.840941179133574
-0.25070000000000003,-3.7970851288377587
-0.2516999999999999,-3.840941179133574
-0.25270000000000004,-3.884797229429391
-0.2536999999999999,-3.884797229429391
-0.25470000000000004,-3.927238568425342
-0.2556999999999999,-3.884797229429391
-0.25670000000000004,-3.884797229429391
-0.25769999999999993,-3.884797229429391
-0.25870000000000004,-3.884797229429391
-0.25969999999999993,-3.840941179133574
-0.26070000000000004,-3.840941179133574
-0.26169999999999993,-3.7970851288377587
-0.26270000000000004,-3.840941179133574
-0.26369999999999993,-3.840941179133574
-0.26470000000000005,-3.840941179133574
-0.26569999999999994,-3.884797229429391
-0.26670000000000005,-3.884797229429391
-0.26769999999999994,-3.927238568425342
-0.26870000000000005,-3.927238568425342
-0.26969999999999994,-3.927238568425342
-0.27070000000000005,-3.971094618721158
-0.27169999999999994,-3.927238568425342
-0.27270000000000005,-3.884797229429391
-0.27369999999999994,-3.884797229429391
-0.27470000000000006,-3.840941179133574
-0.27569999999999995,-3.884797229429391
-0.27670000000000006,-3.884797229429391
-0.27769999999999995,-3.884797229429391
-0.27870000000000006,-3.927238568425342
-0.27969999999999995,-3.927238568425342
-0.28070000000000006,-3.971094618721158
-0.28169999999999995,-3.971094618721158
-0.28270000000000006,-3.971094618721158
-0.28369999999999995,-3.971094618721158
-0.28470000000000006,-3.971094618721158
-0.28569999999999995,-3.971094618721158
-0.28670000000000007,-3.927238568425342
-0.28769999999999996,-3.927238568425342
-0.28870000000000007,-3.884797229429391
-0.28969999999999996,-3.927238568425342
-0.29070000000000007,-3.927238568425342
-0.29169999999999996,-3.971094618721158
-0.29270000000000007,-3.971094618721158
-0.29369999999999996,-4.014950669016974
-0.2947000000000001,-4.0588067193127895
-0.29569999999999996,-4.0588067193127895
-0.2967000000000001,-4.0588067193127895
-0.29769999999999996,-4.0588067193127895
-0.2987000000000001,-4.014950669016974
-0.29969999999999997,-4.014950669016974
-0.3007000000000001,-4.014950669016974
-0.30169999999999997,-3.971094618721158
-0.3027000000000001,-3.971094618721158
-0.30369999999999997,-4.014950669016974
-0.3047000000000001,-4.014950669016974
-0.30569999999999997,-4.0588067193127895
-0.3067000000000001,-4.102662769608606
-0.3077,-4.102662769608606
-0.3087000000000001,-4.146518819904423
-0.3097,-4.146518819904423
-0.3107000000000001,-4.146518819904423
-0.3117,-4.102662769608606
-0.3127000000000001,-4.102662769608606
-0.3137,-4.102662769608606
-0.3147000000000001,-4.0588067193127895
-0.3157,-4.0588067193127895
-0.3167000000000001,-4.102662769608606
-0.3177,-4.102662769608606
-0.3187000000000001,-4.146518819904423
-0.3197,-4.146518819904423
-0.3207000000000001,-4.1889601589003735
-0.3217,-4.23281620919619
-0.3227000000000001,-4.23281620919619
-0.3237,-4.23281620919619
-0.3247000000000001,-4.23281620919619
-0.3257,-4.23281620919619
-0.3267000000000001,-4.23281620919619
-0.3277,-4.23281620919619
-0.3287000000000001,-4.23281620919619
-0.3297,-4.23281620919619
-0.3307000000000001,-4.23281620919619
-0.3317,-4.276672259492005
-0.3327000000000001,-4.276672259492005
-0.3337,-4.3205283097878215
-0.3347000000000001,-4.364384360083638
-0.3357,-4.364384360083638
-0.3367000000000001,-4.364384360083638
-0.3377,-4.364384360083638
-0.3387000000000001,-4.364384360083638
-0.3397,-4.364384360083638
-0.3407000000000001,-4.364384360083638
-0.3417,-4.3205283097878215
-0.3427000000000001,-4.364384360083638
-0.3437,-4.364384360083638
-0.3447000000000001,-4.406825699079589
-0.3457,-4.450681749375406
-0.3467000000000001,-4.450681749375406
-0.3477,-4.538393849967037
-0.3487000000000001,-4.538393849967037
-0.3497,-4.538393849967037
-0.3507000000000001,-4.582249900262854
-0.3517,-4.538393849967037
-0.3527000000000001,-4.538393849967037
-0.3537,-4.538393849967037
-0.3547000000000001,-4.494537799671222
-0.3557,-4.538393849967037
-0.35670000000000013,-4.538393849967037
-0.3577,-4.538393849967037
-0.35870000000000013,-4.626105950558669
-0.3597,-4.626105950558669
-0.36070000000000013,-4.668547289554621
-0.3617,-4.712403339850438
-0.3626999999999999,-4.712403339850438
-0.3637,-4.756259390146253
-0.3646999999999999,-4.712403339850438
-0.3657,-4.712403339850438
-0.3666999999999999,-4.712403339850438
-0.3677,-4.712403339850438
-0.3686999999999999,-4.712403339850438
-0.36970000000000003,-4.712403339850438
-0.3706999999999999,-4.712403339850438
-0.37170000000000003,-4.756259390146253
-0.3726999999999999,-4.843971490737885
-0.37370000000000003,-4.843971490737885
-0.3746999999999999,-4.887827541033701
-0.37570000000000003,-4.9302688800296535
-0.3766999999999999,-4.9302688800296535
-0.37770000000000004,-4.9302688800296535
-0.3786999999999999,-4.887827541033701
-0.37970000000000004,-4.9302688800296535
-0.3806999999999999,-4.9302688800296535
-0.38170000000000004,-4.9302688800296535
-0.38269999999999993,-4.9302688800296535
-0.38370000000000004,-4.974124930325469
-0.38469999999999993,-5.017980980621284
-0.38570000000000004,-5.0618370309171015
-0.38669999999999993,-5.105693081212917
-0.38770000000000004,-5.105693081212917
-0.38869999999999993,-5.191990470504685
-0.38970000000000005,-5.191990470504685
-0.39069999999999994,-5.235846520800501
-0.39170000000000005,-5.235846520800501
-0.39269999999999994,-5.235846520800501
-0.39370000000000005,-5.235846520800501
-0.39469999999999994,-5.235846520800501
-0.39570000000000005,-5.279702571096316
-0.39669999999999994,-5.279702571096316
-0.39770000000000005,-5.367414671687949
-0.39869999999999994,-5.367414671687949
-0.39970000000000006,-5.411270721983764
-0.40069999999999995,-5.453712060979717
-0.40170000000000006,-5.5414241615713475
-0.40269999999999995,-5.5414241615713475
-0.40370000000000006,-5.5414241615713475
-0.40469999999999995,-5.5414241615713475
-0.40570000000000006,-5.5414241615713475
-0.40669999999999995,-5.585280211867165
-0.40770000000000006,-5.585280211867165
-0.40869999999999995,-5.585280211867165
-0.40970000000000006,-5.629136262162981
-0.41069999999999995,-5.629136262162981
-0.41170000000000007,-5.715433651454749
-0.41269999999999996,-5.715433651454749
-0.41370000000000007,-5.80314575204638
-0.41469999999999996,-5.847001802342197
-0.41570000000000007,-5.890857852638012
-0.41669999999999996,-5.977155241929781
-0.41770000000000007,-5.977155241929781
-0.41869999999999996,-5.977155241929781
-0.4197000000000001,-6.021011292225596
-0.42069999999999996,-6.064867342521412
-0.4217000000000001,-6.064867342521412
-0.42269999999999996,-6.108723392817228
-0.4237000000000001,-6.152579443113044
-0.42469999999999997,-6.238876832404812
-0.4257000000000001,-6.282732882700628
-0.42669999999999997,-6.37044498329226
-0.4277000000000001,-6.414301033588076
-0.42869999999999997,-6.500598422879844
-0.4297000000000001,-6.54445447317566
-0.43069999999999997,-6.588310523471475
-0.4317000000000001,-6.588310523471475
-0.4327,-6.632166573767292
-0.4337000000000001,-6.632166573767292
-0.4347,-6.6760226240631075
-0.4357000000000001,-6.719878674358924
-0.4367,-6.806176063650692
-0.4377000000000001,-6.850032113946507
-0.4387,-6.893888164242324
-0.4397000000000001,-6.981600264833956
-0.4407,-7.024041603829907
-0.4417000000000001,-7.111753704421539
-0.4427,-7.155609754717355
-0.4437000000000001,-7.243321855308987
-0.4447,-7.28576319430494
-0.4457000000000001,-7.37347529489657
-0.4467,-7.4173313451923875
-0.4477000000000001,-7.461187395488204
-0.4487,-7.50504344578402
-0.4497000000000001,-7.591340835075788
-0.4507,-7.679052935667419
-0.4517000000000001,-7.7653503249591855
-0.4527,-7.853062425550818
-0.4537000000000001,-7.984630576438266
-0.4547,-8.070927965730034
-0.4557000000000001,-8.158640066321666
-0.4567,-8.246352166913299
-0.4577000000000001,-8.332649556205066
-0.4587,-8.376505606500881
-0.4597000000000001,-8.4203616567967
-0.4607,-8.508073757388331
-0.4617000000000001,-8.55051509638428
-0.4627,-8.68208324727173
-0.4637000000000001,-8.769795347863363
-0.4647,-8.85609273715513
-0.4657000000000001,-8.987660888042578
-0.4667,-9.073958277334345
-0.4677000000000001,-9.205526428221793
-0.4687,-9.335679867809377
-0.4697000000000001,-9.423391968401008
-0.4707,-9.511104068992642
-0.4717000000000001,-9.641257508580225
-0.4727,-9.728969609171857
-0.4737000000000001,-9.81668170976349
-0.4747,-9.946835149351072
-0.4757000000000001,-10.034547249942705
-0.4767,-10.208556739826104
-0.4777000000000001,-10.296268840417738
-0.4787,-10.470278330301136
-0.4797000000000001,-10.644287820184536
-0.4807,-10.775855971071984
-0.48170000000000013,-10.949865460955383
-0.4827,-11.081433611842833
-0.48370000000000013,-11.255443101726232
-0.4847,-11.385596541313816
-0.48570000000000013,-11.517164692201263
-0.4867,-11.691174182084664
-0.4876999999999999,-11.778886282676295
-0.4887,-11.952895772559694
-0.4896999999999999,-12.12831997374296
-0.4907,-12.302329463626359
-0.4916999999999999,-12.520195003805576
-0.4927,-12.694204493688973
-0.4936999999999999,-12.869628694872238
-0.49470000000000003,-13.13135028534727
-0.4956999999999999,-13.30535977523067
-0.49670000000000003,-13.523225315409885
-0.4976999999999999,-13.698649516593148
-0.49870000000000003,-13.916515056772363
-0.4996999999999999,-14.13438059695158
-0.5007,-14.30273124163552
-0.5016999999999999,-14.529085049613924
-0.5027,-14.783733083589633
-0.5036999999999999,-15.01008689156804
-0.5047,-15.264734925543747
-0.5056999999999999,-15.533530072518102
-0.5067,-15.78817810649381
-0.5076999999999999,-16.099414592464115
-0.5087,-16.354062626439823
-0.5096999999999999,-16.622857773414182
-0.5107,-16.919947146385837
-0.5116999999999999,-17.188742293360193
