Dec. 25, 2024   04:31:30
Cyclic Voltammetry
File: c:/users/guazh/data/banditlqround7_x0exp136_r20/2024-12-24-exp734\exp734-2024-12-25t04_15_09-arkoh\exp734_cv_50mvs_efin_-1700mv.bin
Data Source:  Experiment
Instrument Model:  CHI760E
Header: CV ran at 50 mVs
Note: 

Init E (V) = -1
High E (V) = -1
Low E (V) = -1.7
Final E (V) = -1
Init P/N = N
Scan Rate (V/s) = 0.05
Segment = 7
Sample Interval (V) = 0.001
Quiet Time (sec) = 60
Sensitivity (A/V) = 0.001
Comp R (ohm) = 1.4

Results:

Channel 1:
Segment 1:

Segment 2:

Segment 3:

Segment 4:

Segment 5:

Segment 6:

Segment 7:

Potential/V, Current/A

-1.000, 7.894e-6
-1.001, 1.174e-5
-1.002, 1.377e-5
-1.003, 1.512e-5
-1.004, 1.576e-5
-1.005, 1.578e-5
-1.006, 1.598e-5
-1.007, 1.716e-5
-1.008, 1.798e-5
-1.009, 1.829e-5
-1.010, 1.810e-5
-1.011, 1.807e-5
-1.012, 1.893e-5
-1.013, 1.979e-5
-1.014, 1.988e-5
-1.015, 1.967e-5
-1.016, 1.951e-5
-1.017, 2.027e-5
-1.018, 2.108e-5
-1.019, 2.119e-5
-1.020, 2.081e-5
-1.021, 2.064e-5
-1.022, 2.130e-5
-1.023, 2.221e-5
-1.024, 2.234e-5
-1.025, 2.185e-5
-1.026, 2.175e-5
-1.027, 2.239e-5
-1.028, 2.316e-5
-1.029, 2.329e-5
-1.030, 2.275e-5
-1.031, 2.267e-5
-1.032, 2.324e-5
-1.033, 2.397e-5
-1.034, 2.415e-5
-1.035, 2.364e-5
-1.036, 2.348e-5
-1.037, 2.410e-5
-1.038, 2.483e-5
-1.039, 2.503e-5
-1.040, 2.441e-5
-1.041, 2.431e-5
-1.042, 2.501e-5
-1.043, 2.567e-5
-1.044, 2.581e-5
-1.045, 2.525e-5
-1.046, 2.507e-5
-1.047, 2.587e-5
-1.048, 2.639e-5
-1.049, 2.658e-5
-1.050, 2.624e-5
-1.051, 2.589e-5
-1.052, 2.658e-5
-1.053, 2.731e-5
-1.054, 2.740e-5
-1.055, 2.694e-5
-1.056, 2.667e-5
-1.057, 2.729e-5
-1.058, 2.812e-5
-1.059, 2.813e-5
-1.060, 2.773e-5
-1.061, 2.746e-5
-1.062, 2.805e-5
-1.063, 2.889e-5
-1.064, 2.883e-5
-1.065, 2.841e-5
-1.066, 2.822e-5
-1.067, 2.880e-5
-1.068, 2.953e-5
-1.069, 2.965e-5
-1.070, 2.912e-5
-1.071, 2.892e-5
-1.072, 2.943e-5
-1.073, 3.008e-5
-1.074, 3.043e-5
-1.075, 2.988e-5
-1.076, 2.961e-5
-1.077, 3.013e-5
-1.078, 3.091e-5
-1.079, 3.108e-5
-1.080, 3.036e-5
-1.081, 3.010e-5
-1.082, 3.079e-5
-1.083, 3.142e-5
-1.084, 3.158e-5
-1.085, 3.103e-5
-1.086, 3.076e-5
-1.087, 3.129e-5
-1.088, 3.202e-5
-1.089, 3.210e-5
-1.090, 3.156e-5
-1.091, 3.114e-5
-1.092, 3.178e-5
-1.093, 3.243e-5
-1.094, 3.245e-5
-1.095, 3.203e-5
-1.096, 3.158e-5
-1.097, 3.208e-5
-1.098, 3.285e-5
-1.099, 3.282e-5
-1.100, 3.223e-5
-1.101, 3.190e-5
-1.102, 3.236e-5
-1.103, 3.310e-5
-1.104, 3.304e-5
-1.105, 3.244e-5
-1.106, 3.207e-5
-1.107, 3.247e-5
-1.108, 3.317e-5
-1.109, 3.309e-5
-1.110, 3.256e-5
-1.111, 3.221e-5
-1.112, 3.249e-5
-1.113, 3.313e-5
-1.114, 3.322e-5
-1.115, 3.240e-5
-1.116, 3.216e-5
-1.117, 3.248e-5
-1.118, 3.311e-5
-1.119, 3.312e-5
-1.120, 3.233e-5
-1.121, 3.185e-5
-1.122, 3.234e-5
-1.123, 3.277e-5
-1.124, 3.289e-5
-1.125, 3.208e-5
-1.126, 3.165e-5
-1.127, 3.206e-5
-1.128, 3.249e-5
-1.129, 3.246e-5
-1.130, 3.175e-5
-1.131, 3.120e-5
-1.132, 3.156e-5
-1.133, 3.211e-5
-1.134, 3.191e-5
-1.135, 3.128e-5
-1.136, 3.071e-5
-1.137, 3.096e-5
-1.138, 3.153e-5
-1.139, 3.138e-5
-1.140, 3.066e-5
-1.141, 3.012e-5
-1.142, 3.029e-5
-1.143, 3.095e-5
-1.144, 3.064e-5
-1.145, 2.994e-5
-1.146, 2.950e-5
-1.147, 2.966e-5
-1.148, 3.012e-5
-1.149, 3.008e-5
-1.150, 2.920e-5
-1.151, 2.865e-5
-1.152, 2.885e-5
-1.153, 2.933e-5
-1.154, 2.921e-5
-1.155, 2.834e-5
-1.156, 2.783e-5
-1.157, 2.805e-5
-1.158, 2.849e-5
-1.159, 2.839e-5
-1.160, 2.755e-5
-1.161, 2.701e-5
-1.162, 2.730e-5
-1.163, 2.770e-5
-1.164, 2.756e-5
-1.165, 2.679e-5
-1.166, 2.622e-5
-1.167, 2.656e-5
-1.168, 2.695e-5
-1.169, 2.679e-5
-1.170, 2.618e-5
-1.171, 2.552e-5
-1.172, 2.588e-5
-1.173, 2.634e-5
-1.174, 2.631e-5
-1.175, 2.558e-5
-1.176, 2.498e-5
-1.177, 2.541e-5
-1.178, 2.593e-5
-1.179, 2.571e-5
-1.180, 2.501e-5
-1.181, 2.469e-5
-1.182, 2.486e-5
-1.183, 2.549e-5
-1.184, 2.533e-5
-1.185, 2.474e-5
-1.186, 2.427e-5
-1.187, 2.451e-5
-1.188, 2.513e-5
-1.189, 2.506e-5
-1.190, 2.439e-5
-1.191, 2.411e-5
-1.192, 2.422e-5
-1.193, 2.480e-5
-1.194, 2.499e-5
-1.195, 2.417e-5
-1.196, 2.379e-5
-1.197, 2.409e-5
-1.198, 2.466e-5
-1.199, 2.475e-5
-1.200, 2.405e-5
-1.201, 2.358e-5
-1.202, 2.400e-5
-1.203, 2.452e-5
-1.204, 2.457e-5
-1.205, 2.390e-5
-1.206, 2.343e-5
-1.207, 2.395e-5
-1.208, 2.437e-5
-1.209, 2.437e-5
-1.210, 2.388e-5
-1.211, 2.334e-5
-1.212, 2.379e-5
-1.213, 2.430e-5
-1.214, 2.435e-5
-1.215, 2.386e-5
-1.216, 2.331e-5
-1.217, 2.365e-5
-1.218, 2.437e-5
-1.219, 2.428e-5
-1.220, 2.380e-5
-1.221, 2.335e-5
-1.222, 2.358e-5
-1.223, 2.436e-5
-1.224, 2.432e-5
-1.225, 2.372e-5
-1.226, 2.341e-5
-1.227, 2.371e-5
-1.228, 2.445e-5
-1.229, 2.450e-5
-1.230, 2.383e-5
-1.231, 2.353e-5
-1.232, 2.374e-5
-1.233, 2.441e-5
-1.234, 2.451e-5
-1.235, 2.388e-5
-1.236, 2.358e-5
-1.237, 2.392e-5
-1.238, 2.445e-5
-1.239, 2.460e-5
-1.240, 2.405e-5
-1.241, 2.358e-5
-1.242, 2.405e-5
-1.243, 2.455e-5
-1.244, 2.476e-5
-1.245, 2.422e-5
-1.246, 2.389e-5
-1.247, 2.417e-5
-1.248, 2.478e-5
-1.249, 2.494e-5
-1.250, 2.456e-5
-1.251, 2.405e-5
-1.252, 2.442e-5
-1.253, 2.512e-5
-1.254, 2.520e-5
-1.255, 2.478e-5
-1.256, 2.429e-5
-1.257, 2.469e-5
-1.258, 2.541e-5
-1.259, 2.541e-5
-1.260, 2.504e-5
-1.261, 2.471e-5
-1.262, 2.499e-5
-1.263, 2.584e-5
-1.264, 2.577e-5
-1.265, 2.539e-5
-1.266, 2.518e-5
-1.267, 2.542e-5
-1.268, 2.621e-5
-1.269, 2.631e-5
-1.270, 2.585e-5
-1.271, 2.565e-5
-1.272, 2.588e-5
-1.273, 2.667e-5
-1.274, 2.690e-5
-1.275, 2.638e-5
-1.276, 2.608e-5
-1.277, 2.656e-5
-1.278, 2.715e-5
-1.279, 2.749e-5
-1.280, 2.717e-5
-1.281, 2.662e-5
-1.282, 2.721e-5
-1.283, 2.787e-5
-1.284, 2.812e-5
-1.285, 2.778e-5
-1.286, 2.750e-5
-1.287, 2.800e-5
-1.288, 2.865e-5
-1.289, 2.891e-5
-1.290, 2.869e-5
-1.291, 2.835e-5
-1.292, 2.886e-5
-1.293, 2.962e-5
-1.294, 2.986e-5
-1.295, 2.965e-5
-1.296, 2.931e-5
-1.297, 2.983e-5
-1.298, 3.074e-5
-1.299, 3.092e-5
-1.300, 3.077e-5
-1.301, 3.054e-5
-1.302, 3.097e-5
-1.303, 3.192e-5
-1.304, 3.215e-5
-1.305, 3.197e-5
-1.306, 3.181e-5
-1.307, 3.227e-5
-1.308, 3.320e-5
-1.309, 3.358e-5
-1.310, 3.335e-5
-1.311, 3.329e-5
-1.312, 3.374e-5
-1.313, 3.468e-5
-1.314, 3.515e-5
-1.315, 3.491e-5
-1.316, 3.490e-5
-1.317, 3.550e-5
-1.318, 3.632e-5
-1.319, 3.693e-5
-1.320, 3.674e-5
-1.321, 3.661e-5
-1.322, 3.735e-5
-1.323, 3.822e-5
-1.324, 3.888e-5
-1.325, 3.874e-5
-1.326, 3.866e-5
-1.327, 3.942e-5
-1.328, 4.036e-5
-1.329, 4.093e-5
-1.330, 4.093e-5
-1.331, 4.087e-5
-1.332, 4.161e-5
-1.333, 4.269e-5
-1.334, 4.333e-5
-1.335, 4.337e-5
-1.336, 4.340e-5
-1.337, 4.404e-5
-1.338, 4.532e-5
-1.339, 4.591e-5
-1.340, 4.596e-5
-1.341, 4.621e-5
-1.342, 4.675e-5
-1.343, 4.818e-5
-1.344, 4.881e-5
-1.345, 4.897e-5
-1.346, 4.919e-5
-1.347, 5.002e-5
-1.348, 5.123e-5
-1.349, 5.211e-5
-1.350, 5.224e-5
-1.351, 5.260e-5
-1.352, 5.340e-5
-1.353, 5.471e-5
-1.354, 5.577e-5
-1.355, 5.592e-5
-1.356, 5.625e-5
-1.357, 5.724e-5
-1.358, 5.866e-5
-1.359, 5.971e-5
-1.360, 5.990e-5
-1.361, 6.039e-5
-1.362, 6.151e-5
-1.363, 6.289e-5
-1.364, 6.415e-5
-1.365, 6.460e-5
-1.366, 6.507e-5
-1.367, 6.635e-5
-1.368, 6.780e-5
-1.369, 6.902e-5
-1.370, 6.963e-5
-1.371, 7.025e-5
-1.372, 7.159e-5
-1.373, 7.320e-5
-1.374, 7.463e-5
-1.375, 7.542e-5
-1.376, 7.605e-5
-1.377, 7.745e-5
-1.378, 7.938e-5
-1.379, 8.086e-5
-1.380, 8.167e-5
-1.381, 8.257e-5
-1.382, 8.426e-5
-1.383, 8.624e-5
-1.384, 8.781e-5
-1.385, 8.880e-5
-1.386, 9.003e-5
-1.387, 9.161e-5
-1.388, 9.383e-5
-1.389, 9.570e-5
-1.390, 9.689e-5
-1.391, 9.825e-5
-1.392, 1.002e-4
-1.393, 1.024e-4
-1.394, 1.046e-4
-1.395, 1.060e-4
-1.396, 1.075e-4
-1.397, 1.096e-4
-1.398, 1.122e-4
-1.399, 1.146e-4
-1.400, 1.161e-4
-1.401, 1.179e-4
-1.402, 1.203e-4
-1.403, 1.232e-4
-1.404, 1.258e-4
-1.405, 1.278e-4
-1.406, 1.298e-4
-1.407, 1.325e-4
-1.408, 1.356e-4
-1.409, 1.386e-4
-1.410, 1.410e-4
-1.411, 1.432e-4
-1.412, 1.464e-4
-1.413, 1.499e-4
-1.414, 1.533e-4
-1.415, 1.560e-4
-1.416, 1.588e-4
-1.417, 1.622e-4
-1.418, 1.662e-4
-1.419, 1.699e-4
-1.420, 1.731e-4
-1.421, 1.763e-4
-1.422, 1.802e-4
-1.423, 1.847e-4
-1.424, 1.889e-4
-1.425, 1.926e-4
-1.426, 1.964e-4
-1.427, 2.007e-4
-1.428, 2.058e-4
-1.429, 2.107e-4
-1.430, 2.149e-4
-1.431, 2.193e-4
-1.432, 2.245e-4
-1.433, 2.302e-4
-1.434, 2.357e-4
-1.435, 2.407e-4
-1.436, 2.458e-4
-1.437, 2.519e-4
-1.438, 2.582e-4
-1.439, 2.648e-4
-1.440, 2.705e-4
-1.441, 2.766e-4
-1.442, 2.835e-4
-1.443, 2.906e-4
-1.444, 2.981e-4
-1.445, 3.052e-4
-1.446, 3.124e-4
-1.447, 3.206e-4
-1.448, 3.292e-4
-1.449, 3.380e-4
-1.450, 3.464e-4
-1.451, 3.552e-4
-1.452, 3.648e-4
-1.453, 3.750e-4
-1.454, 3.854e-4
-1.455, 3.957e-4
-1.456, 4.061e-4
-1.457, 4.173e-4
-1.458, 4.293e-4
-1.459, 4.413e-4
-1.460, 4.531e-4
-1.461, 4.652e-4
-1.462, 4.775e-4
-1.463, 4.908e-4
-1.464, 5.043e-4
-1.465, 5.174e-4
-1.466, 5.311e-4
-1.467, 5.450e-4
-1.468, 5.595e-4
-1.469, 5.743e-4
-1.470, 5.888e-4
-1.471, 6.035e-4
-1.472, 6.185e-4
-1.473, 6.345e-4
-1.474, 6.505e-4
-1.475, 6.661e-4
-1.476, 6.819e-4
-1.477, 6.984e-4
-1.478, 7.157e-4
-1.479, 7.329e-4
-1.480, 7.494e-4
-1.481, 7.663e-4
-1.482, 7.841e-4
-1.483, 8.021e-4
-1.484, 8.207e-4
-1.485, 8.387e-4
-1.486, 8.568e-4
-1.487, 8.758e-4
-1.488, 8.954e-4
-1.489, 9.151e-4
-1.490, 9.336e-4
-1.491, 9.541e-4
-1.492, 9.736e-4
-1.493, 9.941e-4
-1.494, 1.015e-3
-1.495, 1.034e-3
-1.496, 1.056e-3
-1.497, 1.077e-3
-1.498, 1.099e-3
-1.499, 1.121e-3
-1.500, 1.142e-3
-1.501, 1.163e-3
-1.502, 1.186e-3
-1.503, 1.209e-3
-1.504, 1.232e-3
-1.505, 1.254e-3
-1.506, 1.277e-3
-1.507, 1.302e-3
-1.508, 1.326e-3
-1.509, 1.351e-3
-1.510, 1.375e-3
-1.511, 1.399e-3
-1.512, 1.424e-3
-1.513, 1.450e-3
-1.514, 1.476e-3
-1.515, 1.500e-3
-1.516, 1.527e-3
-1.517, 1.553e-3
-1.518, 1.579e-3
-1.519, 1.607e-3
-1.520, 1.633e-3
-1.521, 1.661e-3
-1.522, 1.689e-3
-1.523, 1.717e-3
-1.524, 1.745e-3
-1.525, 1.774e-3
-1.526, 1.803e-3
-1.527, 1.833e-3
-1.528, 1.860e-3
-1.529, 1.891e-3
-1.530, 1.921e-3
-1.531, 1.949e-3
-1.532, 1.981e-3
-1.533, 2.011e-3
-1.534, 2.041e-3
-1.535, 2.073e-3
-1.536, 2.104e-3
-1.537, 2.137e-3
-1.538, 2.170e-3
-1.539, 2.206e-3
-1.540, 2.239e-3
-1.541, 2.271e-3
-1.542, 2.309e-3
-1.543, 2.342e-3
-1.544, 2.371e-3
-1.545, 2.404e-3
-1.546, 2.438e-3
-1.547, 2.474e-3
-1.548, 2.509e-3
-1.549, 2.544e-3
-1.550, 2.578e-3
-1.551, 2.612e-3
-1.552, 2.657e-3
-1.553, 2.697e-3
-1.554, 2.728e-3
-1.555, 2.761e-3
-1.556, 2.788e-3
-1.557, 2.808e-3
-1.558, 2.834e-3
-1.559, 2.873e-3
-1.560, 2.908e-3
-1.561, 2.944e-3
-1.562, 2.980e-3
-1.563, 3.022e-3
-1.564, 3.060e-3
-1.565, 3.095e-3
-1.566, 3.137e-3
-1.567, 3.180e-3
-1.568, 3.213e-3
-1.569, 3.249e-3
-1.570, 3.291e-3
-1.571, 3.333e-3
-1.572, 3.383e-3
-1.573, 3.427e-3
-1.574, 3.466e-3
-1.575, 3.504e-3
-1.576, 3.539e-3
-1.577, 3.578e-3
-1.578, 3.627e-3
-1.579, 3.673e-3
-1.580, 3.702e-3
-1.581, 3.734e-3
-1.582, 3.782e-3
-1.583, 3.824e-3
-1.584, 3.864e-3
-1.585, 3.900e-3
-1.586, 3.938e-3
-1.587, 3.983e-3
-1.588, 4.028e-3
-1.589, 4.078e-3
-1.590, 4.117e-3
-1.591, 4.148e-3
-1.592, 4.202e-3
-1.593, 4.247e-3
-1.594, 4.288e-3
-1.595, 4.327e-3
-1.596, 4.371e-3
-1.597, 4.407e-3
-1.598, 4.459e-3
-1.599, 4.511e-3
-1.600, 4.550e-3
-1.601, 4.591e-3
-1.602, 4.645e-3
-1.603, 4.692e-3
-1.604, 4.734e-3
-1.605, 4.789e-3
-1.606, 4.856e-3
-1.607, 4.897e-3
-1.608, 4.947e-3
-1.609, 4.980e-3
-1.610, 5.012e-3
-1.611, 5.049e-3
-1.612, 5.107e-3
-1.613, 5.137e-3
-1.614, 5.177e-3
-1.615, 5.231e-3
-1.616, 5.292e-3
-1.617, 5.343e-3
-1.618, 5.393e-3
-1.619, 5.470e-3
-1.620, 5.517e-3
-1.621, 5.540e-3
-1.622, 5.577e-3
-1.623, 5.619e-3
-1.624, 5.671e-3
-1.625, 5.724e-3
-1.626, 5.778e-3
-1.627, 5.817e-3
-1.628, 5.891e-3
-1.629, 5.951e-3
-1.630, 5.983e-3
-1.631, 5.999e-3
-1.632, 6.038e-3
-1.633, 6.107e-3
-1.634, 6.173e-3
-1.635, 6.229e-3
-1.636, 6.278e-3
-1.637, 6.321e-3
-1.638, 6.408e-3
-1.639, 6.501e-3
-1.640, 6.557e-3
-1.641, 6.597e-3
-1.642, 6.649e-3
-1.643, 6.708e-3
-1.644, 6.769e-3
-1.645, 6.832e-3
-1.646, 6.881e-3
-1.647, 6.938e-3
-1.648, 6.987e-3
-1.649, 7.029e-3
-1.650, 7.091e-3
-1.651, 7.168e-3
-1.652, 7.211e-3
-1.653, 7.259e-3
-1.654, 7.339e-3
-1.655, 7.380e-3
-1.656, 7.437e-3
-1.657, 7.490e-3
-1.658, 7.526e-3
-1.659, 7.579e-3
-1.660, 7.612e-3
-1.661, 7.667e-3
-1.662, 7.701e-3
-1.663, 7.739e-3
-1.664, 7.801e-3
-1.665, 7.894e-3
-1.666, 7.989e-3
-1.667, 8.033e-3
-1.668, 8.066e-3
-1.669, 8.103e-3
-1.670, 8.187e-3
-1.671, 8.199e-3
-1.672, 8.223e-3
-1.673, 8.277e-3
-1.674, 8.320e-3
-1.675, 8.391e-3
-1.676, 8.530e-3
-1.677, 8.568e-3
-1.678, 8.611e-3
-1.679, 8.703e-3
-1.680, 8.781e-3
-1.681, 8.847e-3
-1.682, 8.881e-3
-1.683, 8.885e-3
-1.684, 8.954e-3
-1.685, 9.085e-3
-1.686, 9.200e-3
-1.687, 9.316e-3
-1.688, 9.357e-3
-1.689, 9.479e-3
-1.690, 9.529e-3
-1.691, 9.553e-3
-1.692, 9.608e-3
-1.693, 9.635e-3
-1.694, 9.700e-3
-1.695, 9.724e-3
-1.696, 9.760e-3
-1.697, 9.780e-3
-1.698, 9.845e-3
-1.699, 9.863e-3
-1.700, 9.877e-3
-1.699, 9.899e-3
-1.698, 9.753e-3
-1.697, 9.648e-3
-1.696, 9.585e-3
-1.695, 9.448e-3
-1.694, 9.374e-3
-1.693, 9.292e-3
-1.692, 9.187e-3
-1.691, 9.105e-3
-1.690, 9.069e-3
-1.689, 8.988e-3
-1.688, 8.956e-3
-1.687, 8.876e-3
-1.686, 8.943e-3
-1.685, 8.858e-3
-1.684, 8.802e-3
-1.683, 8.782e-3
-1.682, 8.709e-3
-1.681, 8.649e-3
-1.680, 8.669e-3
-1.679, 8.559e-3
-1.678, 8.563e-3
-1.677, 8.460e-3
-1.676, 8.364e-3
-1.675, 8.279e-3
-1.674, 8.208e-3
-1.673, 8.133e-3
-1.672, 8.037e-3
-1.671, 7.983e-3
-1.670, 7.887e-3
-1.669, 7.844e-3
-1.668, 7.828e-3
-1.667, 7.743e-3
-1.666, 7.673e-3
-1.665, 7.596e-3
-1.664, 7.556e-3
-1.663, 7.462e-3
-1.662, 7.407e-3
-1.661, 7.343e-3
-1.660, 7.305e-3
-1.659, 7.247e-3
-1.658, 7.214e-3
-1.657, 7.144e-3
-1.656, 7.069e-3
-1.655, 7.027e-3
-1.654, 6.937e-3
-1.653, 6.879e-3
-1.652, 6.806e-3
-1.651, 6.739e-3
-1.650, 6.663e-3
-1.649, 6.585e-3
-1.648, 6.459e-3
-1.647, 6.369e-3
-1.646, 6.285e-3
-1.645, 6.274e-3
-1.644, 6.225e-3
-1.643, 6.162e-3
-1.642, 6.080e-3
-1.641, 6.026e-3
-1.640, 5.936e-3
-1.639, 5.849e-3
-1.638, 5.811e-3
-1.637, 5.759e-3
-1.636, 5.705e-3
-1.635, 5.628e-3
-1.634, 5.571e-3
-1.633, 5.498e-3
-1.632, 5.419e-3
-1.631, 5.352e-3
-1.630, 5.294e-3
-1.629, 5.196e-3
-1.628, 5.136e-3
-1.627, 5.095e-3
-1.626, 5.030e-3
-1.625, 4.975e-3
-1.624, 4.909e-3
-1.623, 4.856e-3
-1.622, 4.776e-3
-1.621, 4.696e-3
-1.620, 4.658e-3
-1.619, 4.586e-3
-1.618, 4.513e-3
-1.617, 4.454e-3
-1.616, 4.424e-3
-1.615, 4.351e-3
-1.614, 4.296e-3
-1.613, 4.233e-3
-1.612, 4.175e-3
-1.611, 4.134e-3
-1.610, 4.131e-3
-1.609, 4.108e-3
-1.608, 4.058e-3
-1.607, 3.984e-3
-1.606, 3.963e-3
-1.605, 3.920e-3
-1.604, 3.857e-3
-1.603, 3.797e-3
-1.602, 3.750e-3
-1.601, 3.693e-3
-1.600, 3.643e-3
-1.599, 3.607e-3
-1.598, 3.563e-3
-1.597, 3.517e-3
-1.596, 3.460e-3
-1.595, 3.414e-3
-1.594, 3.361e-3
-1.593, 3.307e-3
-1.592, 3.258e-3
-1.591, 3.214e-3
-1.590, 3.165e-3
-1.589, 3.143e-3
-1.588, 3.111e-3
-1.587, 3.060e-3
-1.586, 3.010e-3
-1.585, 2.973e-3
-1.584, 2.935e-3
-1.583, 2.894e-3
-1.582, 2.847e-3
-1.581, 2.804e-3
-1.580, 2.761e-3
-1.579, 2.713e-3
-1.578, 2.668e-3
-1.577, 2.625e-3
-1.576, 2.579e-3
-1.575, 2.544e-3
-1.574, 2.527e-3
-1.573, 2.528e-3
-1.572, 2.483e-3
-1.571, 2.442e-3
-1.570, 2.417e-3
-1.569, 2.379e-3
-1.568, 2.337e-3
-1.567, 2.303e-3
-1.566, 2.269e-3
-1.565, 2.227e-3
-1.564, 2.186e-3
-1.563, 2.148e-3
-1.562, 2.112e-3
-1.561, 2.074e-3
-1.560, 2.032e-3
-1.559, 1.999e-3
-1.558, 1.962e-3
-1.557, 1.925e-3
-1.556, 1.891e-3
-1.555, 1.857e-3
-1.554, 1.824e-3
-1.553, 1.792e-3
-1.552, 1.765e-3
-1.551, 1.734e-3
-1.550, 1.702e-3
-1.549, 1.672e-3
-1.548, 1.639e-3
-1.547, 1.609e-3
-1.546, 1.583e-3
-1.545, 1.553e-3
-1.544, 1.524e-3
-1.543, 1.497e-3
-1.542, 1.480e-3
-1.541, 1.452e-3
-1.540, 1.427e-3
-1.539, 1.403e-3
-1.538, 1.385e-3
-1.537, 1.358e-3
-1.536, 1.330e-3
-1.535, 1.304e-3
-1.534, 1.279e-3
-1.533, 1.258e-3
-1.532, 1.233e-3
-1.531, 1.210e-3
-1.530, 1.194e-3
-1.529, 1.170e-3
-1.528, 1.156e-3
-1.527, 1.128e-3
-1.526, 1.107e-3
-1.525, 1.085e-3
-1.524, 1.060e-3
-1.523, 1.040e-3
-1.522, 1.021e-3
-1.521, 1.003e-3
-1.520, 9.864e-4
-1.519, 9.678e-4
-1.518, 9.474e-4
-1.517, 9.275e-4
-1.516, 9.088e-4
-1.515, 8.907e-4
-1.514, 8.735e-4
-1.513, 8.553e-4
-1.512, 8.393e-4
-1.511, 8.222e-4
-1.510, 8.042e-4
-1.509, 7.863e-4
-1.508, 7.691e-4
-1.507, 7.535e-4
-1.506, 7.390e-4
-1.505, 7.234e-4
-1.504, 7.072e-4
-1.503, 6.914e-4
-1.502, 6.782e-4
-1.501, 6.630e-4
-1.500, 6.554e-4
-1.499, 6.382e-4
-1.498, 6.239e-4
-1.497, 6.094e-4
-1.496, 5.966e-4
-1.495, 5.833e-4
-1.494, 5.696e-4
-1.493, 5.566e-4
-1.492, 5.437e-4
-1.491, 5.318e-4
-1.490, 5.193e-4
-1.489, 5.089e-4
-1.488, 4.968e-4
-1.487, 4.858e-4
-1.486, 4.741e-4
-1.485, 4.629e-4
-1.484, 4.523e-4
-1.483, 4.409e-4
-1.482, 4.308e-4
-1.481, 4.212e-4
-1.480, 4.114e-4
-1.479, 4.016e-4
-1.478, 3.914e-4
-1.477, 3.836e-4
-1.476, 3.755e-4
-1.475, 3.653e-4
-1.474, 3.564e-4
-1.473, 3.486e-4
-1.472, 3.401e-4
-1.471, 3.324e-4
-1.470, 3.243e-4
-1.469, 3.161e-4
-1.468, 3.090e-4
-1.467, 3.011e-4
-1.466, 2.946e-4
-1.465, 2.873e-4
-1.464, 2.800e-4
-1.463, 2.732e-4
-1.462, 2.668e-4
-1.461, 2.609e-4
-1.460, 2.545e-4
-1.459, 2.477e-4
-1.458, 2.412e-4
-1.457, 2.364e-4
-1.456, 2.302e-4
-1.455, 2.245e-4
-1.454, 2.192e-4
-1.453, 2.139e-4
-1.452, 2.089e-4
-1.451, 2.040e-4
-1.450, 1.991e-4
-1.449, 1.941e-4
-1.448, 1.883e-4
-1.447, 1.841e-4
-1.446, 1.795e-4
-1.445, 1.750e-4
-1.444, 1.702e-4
-1.443, 1.655e-4
-1.442, 1.615e-4
-1.441, 1.577e-4
-1.440, 1.552e-4
-1.439, 1.495e-4
-1.438, 1.449e-4
-1.437, 1.414e-4
-1.436, 1.384e-4
-1.435, 1.348e-4
-1.434, 1.310e-4
-1.433, 1.271e-4
-1.432, 1.240e-4
-1.431, 1.214e-4
-1.430, 1.192e-4
-1.429, 1.145e-4
-1.428, 1.111e-4
-1.427, 1.082e-4
-1.426, 1.059e-4
-1.425, 1.030e-4
-1.424, 9.982e-5
-1.423, 9.675e-5
-1.422, 9.414e-5
-1.421, 9.225e-5
-1.420, 9.087e-5
-1.419, 8.691e-5
-1.418, 8.391e-5
-1.417, 8.161e-5
-1.416, 7.985e-5
-1.415, 7.748e-5
-1.414, 7.496e-5
-1.413, 7.239e-5
-1.412, 7.050e-5
-1.411, 6.881e-5
-1.410, 6.726e-5
-1.409, 6.545e-5
-1.408, 6.274e-5
-1.407, 6.099e-5
-1.406, 5.940e-5
-1.405, 5.753e-5
-1.404, 5.526e-5
-1.403, 5.312e-5
-1.402, 5.180e-5
-1.401, 5.059e-5
-1.400, 4.901e-5
-1.399, 4.712e-5
-1.398, 4.507e-5
-1.397, 4.386e-5
-1.396, 4.297e-5
-1.395, 4.143e-5
-1.394, 4.043e-5
-1.393, 3.817e-5
-1.392, 3.703e-5
-1.391, 3.627e-5
-1.390, 3.493e-5
-1.389, 3.313e-5
-1.388, 3.156e-5
-1.387, 3.054e-5
-1.386, 2.993e-5
-1.385, 2.885e-5
-1.384, 2.736e-5
-1.383, 2.581e-5
-1.382, 2.498e-5
-1.381, 2.454e-5
-1.380, 2.362e-5
-1.379, 2.212e-5
-1.378, 2.087e-5
-1.377, 2.008e-5
-1.376, 1.977e-5
-1.375, 1.895e-5
-1.374, 1.754e-5
-1.373, 1.668e-5
-1.372, 1.615e-5
-1.371, 1.557e-5
-1.370, 1.490e-5
-1.369, 1.357e-5
-1.368, 1.246e-5
-1.367, 1.190e-5
-1.366, 1.159e-5
-1.365, 1.112e-5
-1.364, 1.002e-5
-1.363, 8.775e-6
-1.362, 8.399e-6
-1.361, 8.200e-6
-1.360, 7.829e-6
-1.359, 6.697e-6
-1.358, 5.540e-6
-1.357, 5.238e-6
-1.356, 5.195e-6
-1.355, 4.715e-6
-1.354, 3.754e-6
-1.353, 2.635e-6
-1.352, 2.428e-6
-1.351, 2.395e-6
-1.350, 1.972e-6
-1.349, 1.101e-6
-1.348, 1.616e-7
-1.347, -2.301e-7
-1.346, 2.841e-8
-1.345, -4.008e-7
-1.344, -1.174e-6
-1.343, -2.162e-6
-1.342, -2.447e-6
-1.341, -2.204e-6
-1.340, -2.465e-6
-1.339, -3.340e-6
-1.338, -4.190e-6
-1.337, -4.466e-6
-1.336, -4.127e-6
-1.335, -4.256e-6
-1.334, -5.272e-6
-1.333, -5.946e-6
-1.332, -6.106e-6
-1.331, -5.671e-6
-1.330, -6.024e-6
-1.329, -6.920e-6
-1.328, -7.545e-6
-1.327, -7.686e-6
-1.326, -7.534e-6
-1.325, -7.516e-6
-1.324, -8.278e-6
-1.323, -9.123e-6
-1.322, -9.157e-6
-1.321, -8.888e-6
-1.320, -8.891e-6
-1.319, -9.695e-6
-1.318, -1.050e-5
-1.317, -1.051e-5
-1.316, -1.015e-5
-1.315, -1.019e-5
-1.314, -1.085e-5
-1.313, -1.167e-5
-1.312, -1.161e-5
-1.311, -1.126e-5
-1.310, -1.137e-5
-1.309, -1.191e-5
-1.308, -1.252e-5
-1.307, -1.268e-5
-1.306, -1.230e-5
-1.305, -1.222e-5
-1.304, -1.288e-5
-1.303, -1.348e-5
-1.302, -1.358e-5
-1.301, -1.306e-5
-1.300, -1.306e-5
-1.299, -1.373e-5
-1.298, -1.431e-5
-1.297, -1.435e-5
-1.296, -1.393e-5
-1.295, -1.369e-5
-1.294, -1.452e-5
-1.293, -1.494e-5
-1.292, -1.500e-5
-1.291, -1.455e-5
-1.290, -1.440e-5
-1.289, -1.512e-5
-1.288, -1.553e-5
-1.287, -1.556e-5
-1.286, -1.528e-5
-1.285, -1.493e-5
-1.284, -1.557e-5
-1.283, -1.619e-5
-1.282, -1.613e-5
-1.281, -1.568e-5
-1.280, -1.563e-5
-1.279, -1.602e-5
-1.278, -1.674e-5
-1.277, -1.648e-5
-1.276, -1.606e-5
-1.275, -1.594e-5
-1.274, -1.643e-5
-1.273, -1.705e-5
-1.272, -1.686e-5
-1.271, -1.639e-5
-1.270, -1.626e-5
-1.269, -1.682e-5
-1.268, -1.725e-5
-1.267, -1.733e-5
-1.266, -1.675e-5
-1.265, -1.662e-5
-1.264, -1.700e-5
-1.263, -1.759e-5
-1.262, -1.763e-5
-1.261, -1.701e-5
-1.260, -1.667e-5
-1.259, -1.740e-5
-1.258, -1.777e-5
-1.257, -1.778e-5
-1.256, -1.722e-5
-1.255, -1.692e-5
-1.254, -1.759e-5
-1.253, -1.789e-5
-1.252, -1.789e-5
-1.251, -1.747e-5
-1.250, -1.699e-5
-1.249, -1.770e-5
-1.248, -1.814e-5
-1.247, -1.794e-5
-1.246, -1.752e-5
-1.245, -1.711e-5
-1.244, -1.769e-5
-1.243, -1.830e-5
-1.242, -1.803e-5
-1.241, -1.763e-5
-1.240, -1.723e-5
-1.239, -1.772e-5
-1.238, -1.833e-5
-1.237, -1.814e-5
-1.236, -1.767e-5
-1.235, -1.736e-5
-1.234, -1.777e-5
-1.233, -1.833e-5
-1.232, -1.820e-5
-1.231, -1.760e-5
-1.230, -1.731e-5
-1.229, -1.814e-5
-1.228, -1.831e-5
-1.227, -1.828e-5
-1.226, -1.769e-5
-1.225, -1.740e-5
-1.224, -1.786e-5
-1.223, -1.828e-5
-1.222, -1.830e-5
-1.221, -1.768e-5
-1.220, -1.729e-5
-1.219, -1.786e-5
-1.218, -1.831e-5
-1.217, -1.826e-5
-1.216, -1.762e-5
-1.215, -1.728e-5
-1.214, -1.787e-5
-1.213, -1.817e-5
-1.212, -1.816e-5
-1.211, -1.769e-5
-1.210, -1.730e-5
-1.209, -1.781e-5
-1.208, -1.825e-5
-1.207, -1.807e-5
-1.206, -1.765e-5
-1.205, -1.724e-5
-1.204, -1.770e-5
-1.203, -1.824e-5
-1.202, -1.812e-5
-1.201, -1.763e-5
-1.200, -1.723e-5
-1.199, -1.760e-5
-1.198, -1.825e-5
-1.197, -1.800e-5
-1.196, -1.756e-5
-1.195, -1.726e-5
-1.194, -1.763e-5
-1.193, -1.818e-5
-1.192, -1.795e-5
-1.191, -1.753e-5
-1.190, -1.728e-5
-1.189, -1.761e-5
-1.188, -1.809e-5
-1.187, -1.809e-5
-1.186, -1.747e-5
-1.185, -1.722e-5
-1.184, -1.758e-5
-1.183, -1.810e-5
-1.182, -1.808e-5
-1.181, -1.744e-5
-1.180, -1.717e-5
-1.179, -1.766e-5
-1.178, -1.820e-5
-1.177, -1.809e-5
-1.176, -1.753e-5
-1.175, -1.714e-5
-1.174, -1.773e-5
-1.173, -1.813e-5
-1.172, -1.808e-5
-1.171, -1.768e-5
-1.170, -1.723e-5
-1.169, -1.771e-5
-1.168, -1.820e-5
-1.167, -1.808e-5
-1.166, -1.770e-5
-1.165, -1.726e-5
-1.164, -1.777e-5
-1.163, -1.830e-5
-1.162, -1.818e-5
-1.161, -1.776e-5
-1.160, -1.730e-5
-1.159, -1.779e-5
-1.158, -1.840e-5
-1.157, -1.824e-5
-1.156, -1.784e-5
-1.155, -1.755e-5
-1.154, -1.783e-5
-1.153, -1.857e-5
-1.152, -1.836e-5
-1.151, -1.794e-5
-1.150, -1.769e-5
-1.149, -1.797e-5
-1.148, -1.860e-5
-1.147, -1.860e-5
-1.146, -1.808e-5
-1.145, -1.785e-5
-1.144, -1.818e-5
-1.143, -1.871e-5
-1.142, -1.877e-5
-1.141, -1.826e-5
-1.140, -1.794e-5
-1.139, -1.842e-5
-1.138, -1.900e-5
-1.137, -1.897e-5
-1.136, -1.850e-5
-1.135, -1.816e-5
-1.134, -1.872e-5
-1.133, -1.918e-5
-1.132, -1.923e-5
-1.131, -1.889e-5
-1.130, -1.844e-5
-1.129, -1.899e-5
-1.128, -1.948e-5
-1.127, -1.954e-5
-1.126, -1.914e-5
-1.125, -1.883e-5
-1.124, -1.924e-5
-1.123, -1.996e-5
-1.122, -1.985e-5
-1.121, -1.957e-5
-1.120, -1.920e-5
-1.119, -1.959e-5
-1.118, -2.035e-5
-1.117, -2.023e-5
-1.116, -1.990e-5
-1.115, -1.967e-5
-1.114, -2.011e-5
-1.113, -2.079e-5
-1.112, -2.081e-5
-1.111, -2.039e-5
-1.110, -2.017e-5
-1.109, -2.053e-5
-1.108, -2.125e-5
-1.107, -2.138e-5
-1.106, -2.093e-5
-1.105, -2.072e-5
-1.104, -2.114e-5
-1.103, -2.178e-5
-1.102, -2.204e-5
-1.101, -2.161e-5
-1.100, -2.131e-5
-1.099, -2.185e-5
-1.098, -2.250e-5
-1.097, -2.266e-5
-1.096, -2.225e-5
-1.095, -2.202e-5
-1.094, -2.261e-5
-1.093, -2.318e-5
-1.092, -2.338e-5
-1.091, -2.308e-5
-1.090, -2.273e-5
-1.089, -2.336e-5
-1.088, -2.404e-5
-1.087, -2.421e-5
-1.086, -2.395e-5
-1.085, -2.358e-5
-1.084, -2.414e-5
-1.083, -2.493e-5
-1.082, -2.511e-5
-1.081, -2.494e-5
-1.080, -2.459e-5
-1.079, -2.506e-5
-1.078, -2.601e-5
-1.077, -2.608e-5
-1.076, -2.590e-5
-1.075, -2.577e-5
-1.074, -2.622e-5
-1.073, -2.711e-5
-1.072, -2.730e-5
-1.071, -2.698e-5
-1.070, -2.692e-5
-1.069, -2.730e-5
-1.068, -2.821e-5
-1.067, -2.856e-5
-1.066, -2.825e-5
-1.065, -2.813e-5
-1.064, -2.857e-5
-1.063, -2.954e-5
-1.062, -2.998e-5
-1.061, -2.954e-5
-1.060, -2.940e-5
-1.059, -3.005e-5
-1.058, -3.089e-5
-1.057, -3.134e-5
-1.056, -3.103e-5
-1.055, -3.086e-5
-1.054, -3.158e-5
-1.053, -3.240e-5
-1.052, -3.289e-5
-1.051, -3.272e-5
-1.050, -3.244e-5
-1.049, -3.328e-5
-1.048, -3.399e-5
-1.047, -3.451e-5
-1.046, -3.444e-5
-1.045, -3.418e-5
-1.044, -3.486e-5
-1.043, -3.598e-5
-1.042, -3.643e-5
-1.041, -3.630e-5
-1.040, -3.607e-5
-1.039, -3.670e-5
-1.038, -3.790e-5
-1.037, -3.824e-5
-1.036, -3.814e-5
-1.035, -3.822e-5
-1.034, -3.877e-5
-1.033, -4.003e-5
-1.032, -4.043e-5
-1.031, -4.034e-5
-1.030, -4.037e-5
-1.029, -4.101e-5
-1.028, -4.218e-5
-1.027, -4.283e-5
-1.026, -4.257e-5
-1.025, -4.276e-5
-1.024, -4.349e-5
-1.023, -4.458e-5
-1.022, -4.533e-5
-1.021, -4.524e-5
-1.020, -4.514e-5
-1.019, -4.599e-5
-1.018, -4.711e-5
-1.017, -4.798e-5
-1.016, -4.774e-5
-1.015, -4.782e-5
-1.014, -4.873e-5
-1.013, -4.983e-5
-1.012, -5.067e-5
-1.011, -5.078e-5
-1.010, -5.066e-5
-1.009, -5.169e-5
-1.008, -5.266e-5
-1.007, -5.367e-5
-1.006, -5.373e-5
-1.005, -5.376e-5
-1.004, -5.466e-5
-1.003, -5.613e-5
-1.002, -5.676e-5
-1.001, -5.708e-5
-1.000, -3.207e-5
-1.001, -1.750e-5
-1.002, -1.200e-5
-1.003, -7.834e-6
-1.004, -3.694e-6
-1.005, -2.468e-7
-1.006, 2.144e-6
-1.007, 3.786e-6
-1.008, 5.423e-6
-1.009, 7.745e-6
-1.010, 1.000e-5
-1.011, 1.117e-5
-1.012, 1.180e-5
-1.013, 1.277e-5
-1.014, 1.436e-5
-1.015, 1.612e-5
-1.016, 1.669e-5
-1.017, 1.685e-5
-1.018, 1.759e-5
-1.019, 1.867e-5
-1.020, 2.002e-5
-1.021, 2.037e-5
-1.022, 2.020e-5
-1.023, 2.076e-5
-1.024, 2.174e-5
-1.025, 2.263e-5
-1.026, 2.304e-5
-1.027, 2.247e-5
-1.028, 2.287e-5
-1.029, 2.367e-5
-1.030, 2.452e-5
-1.031, 2.471e-5
-1.032, 2.407e-5
-1.033, 2.417e-5
-1.034, 2.510e-5
-1.035, 2.562e-5
-1.036, 2.573e-5
-1.037, 2.522e-5
-1.038, 2.514e-5
-1.039, 2.592e-5
-1.040, 2.640e-5
-1.041, 2.624e-5
-1.042, 2.572e-5
-1.043, 2.560e-5
-1.044, 2.622e-5
-1.045, 2.681e-5
-1.046, 2.656e-5
-1.047, 2.607e-5
-1.048, 2.581e-5
-1.049, 2.630e-5
-1.050, 2.690e-5
-1.051, 2.662e-5
-1.052, 2.591e-5
-1.053, 2.578e-5
-1.054, 2.615e-5
-1.055, 2.675e-5
-1.056, 2.636e-5
-1.057, 2.569e-5
-1.058, 2.552e-5
-1.059, 2.584e-5
-1.060, 2.646e-5
-1.061, 2.609e-5
-1.062, 2.524e-5
-1.063, 2.518e-5
-1.064, 2.551e-5
-1.065, 2.585e-5
-1.066, 2.571e-5
-1.067, 2.489e-5
-1.068, 2.467e-5
-1.069, 2.498e-5
-1.070, 2.550e-5
-1.071, 2.517e-5
-1.072, 2.423e-5
-1.073, 2.413e-5
-1.074, 2.456e-5
-1.075, 2.502e-5
-1.076, 2.460e-5
-1.077, 2.388e-5
-1.078, 2.354e-5
-1.079, 2.405e-5
-1.080, 2.429e-5
-1.081, 2.396e-5
-1.082, 2.328e-5
-1.083, 2.293e-5
-1.084, 2.337e-5
-1.085, 2.371e-5
-1.086, 2.333e-5
-1.087, 2.272e-5
-1.088, 2.239e-5
-1.089, 2.271e-5
-1.090, 2.319e-5
-1.091, 2.275e-5
-1.092, 2.199e-5
-1.093, 2.181e-5
-1.094, 2.206e-5
-1.095, 2.261e-5
-1.096, 2.209e-5
-1.097, 2.138e-5
-1.098, 2.123e-5
-1.099, 2.152e-5
-1.100, 2.199e-5
-1.101, 2.159e-5
-1.102, 2.081e-5
-1.103, 2.066e-5
-1.104, 2.099e-5
-1.105, 2.132e-5
-1.106, 2.111e-5
-1.107, 2.022e-5
-1.108, 2.018e-5
-1.109, 2.041e-5
-1.110, 2.080e-5
-1.111, 2.055e-5
-1.112, 1.977e-5
-1.113, 1.959e-5
-1.114, 2.000e-5
-1.115, 2.036e-5
-1.116, 2.003e-5
-1.117, 1.936e-5
-1.118, 1.912e-5
-1.119, 1.951e-5
-1.120, 1.989e-5
-1.121, 1.955e-5
-1.122, 1.889e-5
-1.123, 1.868e-5
-1.124, 1.909e-5
-1.125, 1.949e-5
-1.126, 1.913e-5
-1.127, 1.856e-5
-1.128, 1.822e-5
-1.129, 1.867e-5
-1.130, 1.918e-5
-1.131, 1.872e-5
-1.132, 1.818e-5
-1.133, 1.799e-5
-1.134, 1.839e-5
-1.135, 1.880e-5
-1.136, 1.844e-5
-1.137, 1.781e-5
-1.138, 1.776e-5
-1.139, 1.798e-5
-1.140, 1.852e-5
-1.141, 1.823e-5
-1.142, 1.748e-5
-1.143, 1.751e-5
-1.144, 1.782e-5
-1.145, 1.819e-5
-1.146, 1.803e-5
-1.147, 1.731e-5
-1.148, 1.727e-5
-1.149, 1.760e-5
-1.150, 1.807e-5
-1.151, 1.785e-5
-1.152, 1.710e-5
-1.153, 1.707e-5
-1.154, 1.752e-5
-1.155, 1.786e-5
-1.156, 1.763e-5
-1.157, 1.701e-5
-1.158, 1.687e-5
-1.159, 1.742e-5
-1.160, 1.774e-5
-1.161, 1.752e-5
-1.162, 1.699e-5
-1.163, 1.683e-5
-1.164, 1.727e-5
-1.165, 1.769e-5
-1.166, 1.744e-5
-1.167, 1.691e-5
-1.168, 1.669e-5
-1.169, 1.724e-5
-1.170, 1.765e-5
-1.171, 1.742e-5
-1.172, 1.689e-5
-1.173, 1.673e-5
-1.174, 1.716e-5
-1.175, 1.768e-5
-1.176, 1.742e-5
-1.177, 1.694e-5
-1.178, 1.679e-5
-1.179, 1.721e-5
-1.180, 1.764e-5
-1.181, 1.740e-5
-1.182, 1.692e-5
-1.183, 1.687e-5
-1.184, 1.721e-5
-1.185, 1.758e-5
-1.186, 1.762e-5
-1.187, 1.688e-5
-1.188, 1.688e-5
-1.189, 1.730e-5
-1.190, 1.775e-5
-1.191, 1.763e-5
-1.192, 1.697e-5
-1.193, 1.689e-5
-1.194, 1.742e-5
-1.195, 1.783e-5
-1.196, 1.765e-5
-1.197, 1.716e-5
-1.198, 1.700e-5
-1.199, 1.757e-5
-1.200, 1.794e-5
-1.201, 1.779e-5
-1.202, 1.732e-5
-1.203, 1.712e-5
-1.204, 1.766e-5
-1.205, 1.817e-5
-1.206, 1.796e-5
-1.207, 1.742e-5
-1.208, 1.726e-5
-1.209, 1.780e-5
-1.210, 1.837e-5
-1.211, 1.809e-5
-1.212, 1.761e-5
-1.213, 1.753e-5
-1.214, 1.792e-5
-1.215, 1.855e-5
-1.216, 1.828e-5
-1.217, 1.779e-5
-1.218, 1.773e-5
-1.219, 1.816e-5
-1.220, 1.873e-5
-1.221, 1.850e-5
-1.222, 1.801e-5
-1.223, 1.797e-5
-1.224, 1.845e-5
-1.225, 1.884e-5
-1.226, 1.879e-5
-1.227, 1.829e-5
-1.228, 1.825e-5
-1.229, 1.884e-5
-1.230, 1.919e-5
-1.231, 1.913e-5
-1.232, 1.842e-5
-1.233, 1.840e-5
-1.234, 1.892e-5
-1.235, 1.943e-5
-1.236, 1.937e-5
-1.237, 1.878e-5
-1.238, 1.866e-5
-1.239, 1.923e-5
-1.240, 1.971e-5
-1.241, 1.962e-5
-1.242, 1.911e-5
-1.243, 1.897e-5
-1.244, 1.952e-5
-1.245, 2.002e-5
-1.246, 1.991e-5
-1.247, 1.948e-5
-1.248, 1.928e-5
-1.249, 1.982e-5
-1.250, 2.041e-5
-1.251, 2.020e-5
-1.252, 1.978e-5
-1.253, 1.961e-5
-1.254, 2.019e-5
-1.255, 2.077e-5
-1.256, 2.049e-5
-1.257, 2.008e-5
-1.258, 1.997e-5
-1.259, 2.055e-5
-1.260, 2.106e-5
-1.261, 2.101e-5
-1.262, 2.045e-5
-1.263, 2.043e-5
-1.264, 2.083e-5
-1.265, 2.145e-5
-1.266, 2.144e-5
-1.267, 2.086e-5
-1.268, 2.079e-5
-1.269, 2.135e-5
-1.270, 2.182e-5
-1.271, 2.192e-5
-1.272, 2.128e-5
-1.273, 2.125e-5
-1.274, 2.189e-5
-1.275, 2.228e-5
-1.276, 2.231e-5
-1.277, 2.184e-5
-1.278, 2.162e-5
-1.279, 2.233e-5
-1.280, 2.295e-5
-1.281, 2.281e-5
-1.282, 2.239e-5
-1.283, 2.211e-5
-1.284, 2.281e-5
-1.285, 2.334e-5
-1.286, 2.335e-5
-1.287, 2.289e-5
-1.288, 2.272e-5
-1.289, 2.323e-5
-1.290, 2.396e-5
-1.291, 2.387e-5
-1.292, 2.348e-5
-1.293, 2.334e-5
-1.294, 2.386e-5
-1.295, 2.461e-5
-1.296, 2.451e-5
-1.297, 2.406e-5
-1.298, 2.399e-5
-1.299, 2.462e-5
-1.300, 2.520e-5
-1.301, 2.523e-5
-1.302, 2.475e-5
-1.303, 2.479e-5
-1.304, 2.529e-5
-1.305, 2.590e-5
-1.306, 2.602e-5
-1.307, 2.549e-5
-1.308, 2.548e-5
-1.309, 2.611e-5
-1.310, 2.672e-5
-1.311, 2.687e-5
-1.312, 2.635e-5
-1.313, 2.629e-5
-1.314, 2.703e-5
-1.315, 2.767e-5
-1.316, 2.770e-5
-1.317, 2.732e-5
-1.318, 2.725e-5
-1.319, 2.802e-5
-1.320, 2.860e-5
-1.321, 2.864e-5
-1.322, 2.829e-5
-1.323, 2.827e-5
-1.324, 2.902e-5
-1.325, 2.967e-5
-1.326, 2.985e-5
-1.327, 2.956e-5
-1.328, 2.936e-5
-1.329, 3.017e-5
-1.330, 3.098e-5
-1.331, 3.098e-5
-1.332, 3.078e-5
-1.333, 3.075e-5
-1.334, 3.151e-5
-1.335, 3.235e-5
-1.336, 3.236e-5
-1.337, 3.211e-5
-1.338, 3.220e-5
-1.339, 3.297e-5
-1.340, 3.382e-5
-1.341, 3.405e-5
-1.342, 3.366e-5
-1.343, 3.388e-5
-1.344, 3.461e-5
-1.345, 3.540e-5
-1.346, 3.579e-5
-1.347, 3.543e-5
-1.348, 3.569e-5
-1.349, 3.636e-5
-1.350, 3.724e-5
-1.351, 3.762e-5
-1.352, 3.740e-5
-1.353, 3.761e-5
-1.354, 3.853e-5
-1.355, 3.941e-5
-1.356, 3.983e-5
-1.357, 3.972e-5
-1.358, 3.985e-5
-1.359, 4.089e-5
-1.360, 4.178e-5
-1.361, 4.219e-5
-1.362, 4.225e-5
-1.363, 4.242e-5
-1.364, 4.350e-5
-1.365, 4.456e-5
-1.366, 4.499e-5
-1.367, 4.507e-5
-1.368, 4.528e-5
-1.369, 4.643e-5
-1.370, 4.763e-5
-1.371, 4.807e-5
-1.372, 4.819e-5
-1.373, 4.863e-5
-1.374, 4.981e-5
-1.375, 5.114e-5
-1.376, 5.162e-5
-1.377, 5.186e-5
-1.378, 5.242e-5
-1.379, 5.363e-5
-1.380, 5.494e-5
-1.381, 5.574e-5
-1.382, 5.603e-5
-1.383, 5.674e-5
-1.384, 5.803e-5
-1.385, 5.938e-5
-1.386, 6.033e-5
-1.387, 6.076e-5
-1.388, 6.149e-5
-1.389, 6.304e-5
-1.390, 6.457e-5
-1.391, 6.566e-5
-1.392, 6.611e-5
-1.393, 6.713e-5
-1.394, 6.878e-5
-1.395, 7.034e-5
-1.396, 7.165e-5
-1.397, 7.231e-5
-1.398, 7.352e-5
-1.399, 7.537e-5
-1.400, 7.716e-5
-1.401, 7.848e-5
-1.402, 7.957e-5
-1.403, 8.063e-5
-1.404, 8.288e-5
-1.405, 8.488e-5
-1.406, 8.653e-5
-1.407, 8.779e-5
-1.408, 8.916e-5
-1.409, 9.155e-5
-1.410, 9.382e-5
-1.411, 9.567e-5
-1.412, 9.719e-5
-1.413, 9.888e-5
-1.414, 1.016e-4
-1.415, 1.042e-4
-1.416, 1.062e-4
-1.417, 1.080e-4
-1.418, 1.101e-4
-1.419, 1.130e-4
-1.420, 1.161e-4
-1.421, 1.185e-4
-1.422, 1.206e-4
-1.423, 1.232e-4
-1.424, 1.263e-4
-1.425, 1.296e-4
-1.426, 1.326e-4
-1.427, 1.352e-4
-1.428, 1.382e-4
-1.429, 1.419e-4
-1.430, 1.457e-4
-1.431, 1.493e-4
-1.432, 1.522e-4
-1.433, 1.558e-4
-1.434, 1.602e-4
-1.435, 1.645e-4
-1.436, 1.687e-4
-1.437, 1.725e-4
-1.438, 1.765e-4
-1.439, 1.815e-4
-1.440, 1.866e-4
-1.441, 1.914e-4
-1.442, 1.961e-4
-1.443, 2.009e-4
-1.444, 2.068e-4
-1.445, 2.128e-4
-1.446, 2.187e-4
-1.447, 2.242e-4
-1.448, 2.304e-4
-1.449, 2.373e-4
-1.450, 2.445e-4
-1.451, 2.515e-4
-1.452, 2.582e-4
-1.453, 2.657e-4
-1.454, 2.740e-4
-1.455, 2.827e-4
-1.456, 2.910e-4
-1.457, 2.991e-4
-1.458, 3.079e-4
-1.459, 3.176e-4
-1.460, 3.275e-4
-1.461, 3.372e-4
-1.462, 3.465e-4
-1.463, 3.562e-4
-1.464, 3.671e-4
-1.465, 3.779e-4
-1.466, 3.880e-4
-1.467, 3.975e-4
-1.468, 4.097e-4
-1.469, 4.209e-4
-1.470, 4.324e-4
-1.471, 4.438e-4
-1.472, 4.540e-4
-1.473, 4.659e-4
-1.474, 4.788e-4
-1.475, 4.904e-4
-1.476, 5.026e-4
-1.477, 5.140e-4
-1.478, 5.257e-4
-1.479, 5.388e-4
-1.480, 5.517e-4
-1.481, 5.639e-4
-1.482, 5.758e-4
-1.483, 5.897e-4
-1.484, 6.023e-4
-1.485, 6.176e-4
-1.486, 6.304e-4
-1.487, 6.434e-4
-1.488, 6.572e-4
-1.489, 6.707e-4
-1.490, 6.869e-4
-1.491, 7.019e-4
-1.492, 7.155e-4
-1.493, 7.309e-4
-1.494, 7.483e-4
-1.495, 7.637e-4
-1.496, 7.793e-4
-1.497, 7.958e-4
-1.498, 8.118e-4
-1.499, 8.286e-4
-1.500, 8.471e-4
-1.501, 8.638e-4
-1.502, 8.817e-4
-1.503, 9.002e-4
-1.504, 9.190e-4
-1.505, 9.389e-4
-1.506, 9.580e-4
-1.507, 9.758e-4
-1.508, 9.967e-4
-1.509, 1.017e-3
-1.510, 1.038e-3
-1.511, 1.059e-3
-1.512, 1.081e-3
-1.513, 1.102e-3
-1.514, 1.124e-3
-1.515, 1.147e-3
-1.516, 1.170e-3
-1.517, 1.191e-3
-1.518, 1.214e-3
-1.519, 1.238e-3
-1.520, 1.265e-3
-1.521, 1.288e-3
-1.522, 1.312e-3
-1.523, 1.335e-3
-1.524, 1.361e-3
-1.525, 1.388e-3
-1.526, 1.415e-3
-1.527, 1.440e-3
-1.528, 1.467e-3
-1.529, 1.493e-3
-1.530, 1.522e-3
-1.531, 1.550e-3
-1.532, 1.579e-3
-1.533, 1.609e-3
-1.534, 1.640e-3
-1.535, 1.668e-3
-1.536, 1.696e-3
-1.537, 1.726e-3
-1.538, 1.757e-3
-1.539, 1.787e-3
-1.540, 1.818e-3
-1.541, 1.850e-3
-1.542, 1.885e-3
-1.543, 1.920e-3
-1.544, 1.950e-3
-1.545, 1.981e-3
-1.546, 2.018e-3
-1.547, 2.053e-3
-1.548, 2.084e-3
-1.549, 2.116e-3
-1.550, 2.152e-3
-1.551, 2.186e-3
-1.552, 2.219e-3
-1.553, 2.253e-3
-1.554, 2.287e-3
-1.555, 2.328e-3
-1.556, 2.368e-3
-1.557, 2.406e-3
-1.558, 2.445e-3
-1.559, 2.486e-3
-1.560, 2.526e-3
-1.561, 2.560e-3
-1.562, 2.599e-3
-1.563, 2.642e-3
-1.564, 2.683e-3
-1.565, 2.721e-3
-1.566, 2.757e-3
-1.567, 2.794e-3
-1.568, 2.834e-3
-1.569, 2.876e-3
-1.570, 2.921e-3
-1.571, 2.962e-3
-1.572, 2.992e-3
-1.573, 3.038e-3
-1.574, 3.078e-3
-1.575, 3.121e-3
-1.576, 3.165e-3
-1.577, 3.224e-3
-1.578, 3.272e-3
-1.579, 3.309e-3
-1.580, 3.344e-3
-1.581, 3.383e-3
-1.582, 3.426e-3
-1.583, 3.473e-3
-1.584, 3.518e-3
-1.585, 3.560e-3
-1.586, 3.601e-3
-1.587, 3.639e-3
-1.588, 3.690e-3
-1.589, 3.736e-3
-1.590, 3.784e-3
-1.591, 3.823e-3
-1.592, 3.876e-3
-1.593, 3.910e-3
-1.594, 3.946e-3
-1.595, 3.985e-3
-1.596, 4.042e-3
-1.597, 4.092e-3
-1.598, 4.141e-3
-1.599, 4.184e-3
-1.600, 4.227e-3
-1.601, 4.269e-3
-1.602, 4.316e-3
-1.603, 4.359e-3
-1.604, 4.399e-3
-1.605, 4.442e-3
-1.606, 4.509e-3
-1.607, 4.575e-3
-1.608, 4.614e-3
-1.609, 4.657e-3
-1.610, 4.713e-3
-1.611, 4.764e-3
-1.612, 4.832e-3
-1.613, 4.875e-3
-1.614, 4.969e-3
-1.615, 5.017e-3
-1.616, 5.079e-3
-1.617, 5.117e-3
-1.618, 5.163e-3
-1.619, 5.206e-3
-1.620, 5.258e-3
-1.621, 5.304e-3
-1.622, 5.337e-3
-1.623, 5.395e-3
-1.624, 5.430e-3
-1.625, 5.487e-3
-1.626, 5.528e-3
-1.627, 5.575e-3
-1.628, 5.627e-3
-1.629, 5.656e-3
-1.630, 5.709e-3
-1.631, 5.774e-3
-1.632, 5.837e-3
-1.633, 5.894e-3
-1.634, 5.938e-3
-1.635, 6.008e-3
-1.636, 6.080e-3
-1.637, 6.124e-3
-1.638, 6.172e-3
-1.639, 6.206e-3
-1.640, 6.271e-3
-1.641, 6.319e-3
-1.642, 6.351e-3
-1.643, 6.412e-3
-1.644, 6.462e-3
-1.645, 6.535e-3
-1.646, 6.587e-3
-1.647, 6.675e-3
-1.648, 6.722e-3
-1.649, 6.765e-3
-1.650, 6.790e-3
-1.651, 6.833e-3
-1.652, 6.885e-3
-1.653, 6.906e-3
-1.654, 6.938e-3
-1.655, 6.982e-3
-1.656, 7.013e-3
-1.657, 7.069e-3
-1.658, 7.096e-3
-1.659, 7.165e-3
-1.660, 7.234e-3
-1.661, 7.292e-3
-1.662, 7.361e-3
-1.663, 7.417e-3
-1.664, 7.452e-3
-1.665, 7.486e-3
-1.666, 7.549e-3
-1.667, 7.591e-3
-1.668, 7.622e-3
-1.669, 7.661e-3
-1.670, 7.693e-3
-1.671, 7.754e-3
-1.672, 7.783e-3
-1.673, 7.891e-3
-1.674, 7.983e-3
-1.675, 8.034e-3
-1.676, 8.091e-3
-1.677, 8.152e-3
-1.678, 8.220e-3
-1.679, 8.275e-3
-1.680, 8.324e-3
-1.681, 8.375e-3
-1.682, 8.425e-3
-1.683, 8.585e-3
-1.684, 8.734e-3
-1.685, 8.796e-3
-1.686, 8.830e-3
-1.687, 8.887e-3
-1.688, 8.896e-3
-1.689, 8.937e-3
-1.690, 9.010e-3
-1.691, 9.040e-3
-1.692, 9.086e-3
-1.693, 9.161e-3
-1.694, 9.198e-3
-1.695, 9.312e-3
-1.696, 9.367e-3
-1.697, 9.481e-3
-1.698, 9.574e-3
-1.699, 9.639e-3
-1.700, 9.601e-3
-1.699, 9.517e-3
-1.698, 9.433e-3
-1.697, 9.399e-3
-1.696, 9.252e-3
-1.695, 9.133e-3
-1.694, 9.100e-3
-1.693, 9.061e-3
-1.692, 9.000e-3
-1.691, 8.904e-3
-1.690, 8.856e-3
-1.689, 8.760e-3
-1.688, 8.684e-3
-1.687, 8.703e-3
-1.686, 8.660e-3
-1.685, 8.578e-3
-1.684, 8.489e-3
-1.683, 8.468e-3
-1.682, 8.364e-3
-1.681, 8.253e-3
-1.680, 8.177e-3
-1.679, 8.144e-3
-1.678, 8.112e-3
-1.677, 8.061e-3
-1.676, 7.962e-3
-1.675, 7.888e-3
-1.674, 7.843e-3
-1.673, 7.762e-3
-1.672, 7.705e-3
-1.671, 7.593e-3
-1.670, 7.523e-3
-1.669, 7.449e-3
-1.668, 7.361e-3
-1.667, 7.269e-3
-1.666, 7.193e-3
-1.665, 7.119e-3
-1.664, 7.029e-3
-1.663, 6.983e-3
-1.662, 7.177e-3
-1.661, 7.114e-3
-1.660, 7.036e-3
-1.659, 6.957e-3
-1.658, 6.889e-3
-1.657, 6.869e-3
-1.656, 6.802e-3
-1.655, 6.737e-3
-1.654, 6.646e-3
-1.653, 6.577e-3
-1.652, 6.532e-3
-1.651, 6.458e-3
-1.650, 6.391e-3
-1.649, 6.334e-3
-1.648, 6.270e-3
-1.647, 6.246e-3
-1.646, 6.167e-3
-1.645, 6.128e-3
-1.644, 6.071e-3
-1.643, 6.006e-3
-1.642, 5.923e-3
-1.641, 5.847e-3
-1.640, 5.790e-3
-1.639, 5.747e-3
-1.638, 5.699e-3
-1.637, 5.675e-3
-1.636, 5.594e-3
-1.635, 5.515e-3
-1.634, 5.450e-3
-1.633, 5.396e-3
-1.632, 5.365e-3
-1.631, 5.324e-3
-1.630, 5.263e-3
-1.629, 5.194e-3
-1.628, 5.154e-3
-1.627, 5.096e-3
-1.626, 5.022e-3
-1.625, 4.966e-3
-1.624, 4.891e-3
-1.623, 4.830e-3
-1.622, 4.785e-3
-1.621, 4.732e-3
-1.620, 4.688e-3
-1.619, 4.629e-3
-1.618, 4.556e-3
-1.617, 4.483e-3
-1.616, 4.427e-3
-1.615, 4.362e-3
-1.614, 4.305e-3
-1.613, 4.258e-3
-1.612, 4.205e-3
-1.611, 4.155e-3
-1.610, 4.086e-3
-1.609, 4.034e-3
-1.608, 4.002e-3
-1.607, 3.967e-3
-1.606, 3.896e-3
-1.605, 3.840e-3
-1.604, 3.815e-3
-1.603, 3.756e-3
-1.602, 3.723e-3
-1.601, 3.677e-3
-1.600, 3.615e-3
-1.599, 3.567e-3
-1.598, 3.511e-3
-1.597, 3.466e-3
-1.596, 3.423e-3
-1.595, 3.374e-3
-1.594, 3.325e-3
-1.593, 3.276e-3
-1.592, 3.223e-3
-1.591, 3.175e-3
-1.590, 3.135e-3
-1.589, 3.092e-3
-1.588, 3.039e-3
-1.587, 2.991e-3
-1.586, 2.939e-3
-1.585, 2.893e-3
-1.584, 2.847e-3
-1.583, 2.803e-3
-1.582, 2.769e-3
-1.581, 2.713e-3
-1.580, 2.672e-3
-1.579, 2.623e-3
-1.578, 2.579e-3
-1.577, 2.546e-3
-1.576, 2.506e-3
-1.575, 2.466e-3
-1.574, 2.435e-3
-1.573, 2.388e-3
-1.572, 2.350e-3
-1.571, 2.308e-3
-1.570, 2.272e-3
-1.569, 2.240e-3
-1.568, 2.207e-3
-1.567, 2.189e-3
-1.566, 2.170e-3
-1.565, 2.143e-3
-1.564, 2.102e-3
-1.563, 2.059e-3
-1.562, 2.017e-3
-1.561, 1.989e-3
-1.560, 1.970e-3
-1.559, 1.939e-3
-1.558, 1.907e-3
-1.557, 1.874e-3
-1.556, 1.846e-3
-1.555, 1.814e-3
-1.554, 1.784e-3
-1.553, 1.753e-3
-1.552, 1.722e-3
-1.551, 1.690e-3
-1.550, 1.659e-3
-1.549, 1.631e-3
-1.548, 1.601e-3
-1.547, 1.573e-3
-1.546, 1.542e-3
-1.545, 1.514e-3
-1.544, 1.486e-3
-1.543, 1.459e-3
-1.542, 1.432e-3
-1.541, 1.404e-3
-1.540, 1.379e-3
-1.539, 1.353e-3
-1.538, 1.327e-3
-1.537, 1.300e-3
-1.536, 1.274e-3
-1.535, 1.247e-3
-1.534, 1.223e-3
-1.533, 1.199e-3
-1.532, 1.175e-3
-1.531, 1.152e-3
-1.530, 1.130e-3
-1.529, 1.108e-3
-1.528, 1.085e-3
-1.527, 1.062e-3
-1.526, 1.038e-3
-1.525, 1.019e-3
-1.524, 9.949e-4
-1.523, 9.725e-4
-1.522, 9.528e-4
-1.521, 9.332e-4
-1.520, 9.126e-4
-1.519, 8.946e-4
-1.518, 8.748e-4
-1.517, 8.545e-4
-1.516, 8.378e-4
-1.515, 8.186e-4
-1.514, 8.017e-4
-1.513, 7.852e-4
-1.512, 7.667e-4
-1.511, 7.498e-4
-1.510, 7.346e-4
-1.509, 7.175e-4
-1.508, 7.002e-4
-1.507, 6.850e-4
-1.506, 6.712e-4
-1.505, 6.542e-4
-1.504, 6.403e-4
-1.503, 6.256e-4
-1.502, 6.126e-4
-1.501, 5.991e-4
-1.500, 5.847e-4
-1.499, 5.722e-4
-1.498, 5.576e-4
-1.497, 5.429e-4
-1.496, 5.312e-4
-1.495, 5.198e-4
-1.494, 5.091e-4
-1.493, 4.968e-4
-1.492, 4.848e-4
-1.491, 4.745e-4
-1.490, 4.652e-4
-1.489, 4.533e-4
-1.488, 4.411e-4
-1.487, 4.307e-4
-1.486, 4.208e-4
-1.485, 4.118e-4
-1.484, 4.018e-4
-1.483, 3.922e-4
-1.482, 3.826e-4
-1.481, 3.741e-4
-1.480, 3.647e-4
-1.479, 3.559e-4
-1.478, 3.466e-4
-1.477, 3.371e-4
-1.476, 3.296e-4
-1.475, 3.227e-4
-1.474, 3.142e-4
-1.473, 3.057e-4
-1.472, 2.977e-4
-1.471, 2.908e-4
-1.470, 2.848e-4
-1.469, 2.784e-4
-1.468, 2.705e-4
-1.467, 2.633e-4
-1.466, 2.573e-4
-1.465, 2.508e-4
-1.464, 2.457e-4
-1.463, 2.385e-4
-1.462, 2.324e-4
-1.461, 2.264e-4
-1.460, 2.208e-4
-1.459, 2.152e-4
-1.458, 2.093e-4
-1.457, 2.041e-4
-1.456, 1.995e-4
-1.455, 1.945e-4
-1.454, 1.897e-4
-1.453, 1.841e-4
-1.452, 1.785e-4
-1.451, 1.747e-4
-1.450, 1.704e-4
-1.449, 1.657e-4
-1.448, 1.620e-4
-1.447, 1.568e-4
-1.446, 1.531e-4
-1.445, 1.495e-4
-1.444, 1.454e-4
-1.443, 1.408e-4
-1.442, 1.367e-4
-1.441, 1.335e-4
-1.440, 1.304e-4
-1.439, 1.267e-4
-1.438, 1.228e-4
-1.437, 1.200e-4
-1.436, 1.168e-4
-1.435, 1.139e-4
-1.434, 1.106e-4
-1.433, 1.073e-4
-1.432, 1.040e-4
-1.431, 1.015e-4
-1.430, 9.913e-5
-1.429, 9.602e-5
-1.428, 9.284e-5
-1.427, 8.978e-5
-1.426, 8.788e-5
-1.425, 8.556e-5
-1.424, 8.324e-5
-1.423, 8.027e-5
-1.422, 7.760e-5
-1.421, 7.579e-5
-1.420, 7.445e-5
-1.419, 7.192e-5
-1.418, 6.917e-5
-1.417, 6.678e-5
-1.416, 6.516e-5
-1.415, 6.363e-5
-1.414, 6.153e-5
-1.413, 5.925e-5
-1.412, 5.714e-5
-1.411, 5.567e-5
-1.410, 5.446e-5
-1.409, 5.244e-5
-1.408, 5.036e-5
-1.407, 4.847e-5
-1.406, 4.713e-5
-1.405, 4.606e-5
-1.404, 4.447e-5
-1.403, 4.243e-5
-1.402, 4.084e-5
-1.401, 3.973e-5
-1.400, 3.892e-5
-1.399, 3.740e-5
-1.398, 3.540e-5
-1.397, 3.398e-5
-1.396, 3.320e-5
-1.395, 3.235e-5
-1.394, 3.112e-5
-1.393, 2.941e-5
-1.392, 2.819e-5
-1.391, 2.797e-5
-1.390, 2.682e-5
-1.389, 2.568e-5
-1.388, 2.405e-5
-1.387, 2.277e-5
-1.386, 2.233e-5
-1.385, 2.166e-5
-1.384, 2.069e-5
-1.383, 1.918e-5
-1.382, 1.802e-5
-1.381, 1.770e-5
-1.380, 1.725e-5
-1.379, 1.618e-5
-1.378, 1.490e-5
-1.377, 1.381e-5
-1.376, 1.357e-5
-1.375, 1.320e-5
-1.374, 1.233e-5
-1.373, 1.108e-5
-1.372, 1.012e-5
-1.371, 9.802e-6
-1.370, 9.598e-6
-1.369, 8.770e-6
-1.368, 7.656e-6
-1.367, 6.859e-6
-1.366, 6.543e-6
-1.365, 6.429e-6
-1.364, 5.759e-6
-1.363, 4.382e-6
-1.362, 3.801e-6
-1.361, 3.600e-6
-1.360, 3.527e-6
-1.359, 2.903e-6
-1.358, 1.770e-6
-1.357, 1.121e-6
-1.356, 1.060e-6
-1.355, 8.552e-7
-1.354, 4.191e-7
-1.353, -7.609e-7
-1.352, -1.325e-6
-1.351, -1.343e-6
-1.350, -1.472e-6
-1.349, -1.895e-6
-1.348, -2.782e-6
-1.347, -3.562e-6
-1.346, -3.460e-6
-1.345, -3.393e-6
-1.344, -3.853e-6
-1.343, -4.753e-6
-1.342, -5.444e-6
-1.341, -5.299e-6
-1.340, -5.172e-6
-1.339, -5.676e-6
-1.338, -6.578e-6
-1.337, -7.187e-6
-1.336, -6.976e-6
-1.335, -6.785e-6
-1.334, -7.274e-6
-1.333, -8.154e-6
-1.332, -8.575e-6
-1.331, -8.504e-6
-1.330, -8.270e-6
-1.329, -8.781e-6
-1.328, -9.495e-6
-1.327, -9.967e-6
-1.326, -9.914e-6
-1.325, -9.581e-6
-1.324, -9.980e-6
-1.323, -1.083e-5
-1.322, -1.129e-5
-1.321, -1.118e-5
-1.320, -1.073e-5
-1.319, -1.107e-5
-1.318, -1.199e-5
-1.317, -1.221e-5
-1.316, -1.199e-5
-1.315, -1.183e-5
-1.314, -1.211e-5
-1.313, -1.294e-5
-1.312, -1.328e-5
-1.311, -1.303e-5
-1.310, -1.282e-5
-1.309, -1.309e-5
-1.308, -1.379e-5
-1.307, -1.424e-5
-1.306, -1.391e-5
-1.305, -1.367e-5
-1.304, -1.386e-5
-1.303, -1.465e-5
-1.302, -1.498e-5
-1.301, -1.460e-5
-1.300, -1.429e-5
-1.299, -1.468e-5
-1.298, -1.548e-5
-1.297, -1.569e-5
-1.296, -1.534e-5
-1.295, -1.492e-5
-1.294, -1.538e-5
-1.293, -1.596e-5
-1.292, -1.616e-5
-1.291, -1.599e-5
-1.290, -1.540e-5
-1.289, -1.583e-5
-1.288, -1.649e-5
-1.287, -1.677e-5
-1.286, -1.658e-5
-1.285, -1.593e-5
-1.284, -1.630e-5
-1.283, -1.697e-5
-1.282, -1.722e-5
-1.281, -1.686e-5
-1.280, -1.648e-5
-1.279, -1.671e-5
-1.278, -1.741e-5
-1.277, -1.740e-5
-1.276, -1.711e-5
-1.275, -1.680e-5
-1.274, -1.690e-5
-1.273, -1.768e-5
-1.272, -1.776e-5
-1.271, -1.735e-5
-1.270, -1.703e-5
-1.269, -1.719e-5
-1.268, -1.786e-5
-1.267, -1.808e-5
-1.266, -1.781e-5
-1.265, -1.727e-5
-1.264, -1.740e-5
-1.263, -1.809e-5
-1.262, -1.826e-5
-1.261, -1.788e-5
-1.260, -1.733e-5
-1.259, -1.771e-5
-1.258, -1.824e-5
-1.257, -1.845e-5
-1.256, -1.799e-5
-1.255, -1.751e-5
-1.254, -1.788e-5
-1.253, -1.837e-5
-1.252, -1.847e-5
-1.251, -1.817e-5
-1.250, -1.760e-5
-1.249, -1.792e-5
-1.248, -1.846e-5
-1.247, -1.852e-5
-1.246, -1.832e-5
-1.245, -1.760e-5
-1.244, -1.794e-5
-1.243, -1.853e-5
-1.242, -1.857e-5
-1.241, -1.827e-5
-1.240, -1.766e-5
-1.239, -1.794e-5
-1.238, -1.860e-5
-1.237, -1.860e-5
-1.236, -1.817e-5
-1.235, -1.781e-5
-1.234, -1.789e-5
-1.233, -1.861e-5
-1.232, -1.865e-5
-1.231, -1.821e-5
-1.230, -1.778e-5
-1.229, -1.825e-5
-1.228, -1.854e-5
-1.227, -1.869e-5
-1.226, -1.812e-5
-1.225, -1.776e-5
-1.224, -1.785e-5
-1.223, -1.844e-5
-1.222, -1.859e-5
-1.221, -1.804e-5
-1.220, -1.761e-5
-1.219, -1.790e-5
-1.218, -1.837e-5
-1.217, -1.850e-5
-1.216, -1.793e-5
-1.215, -1.753e-5
-1.214, -1.779e-5
-1.213, -1.834e-5
-1.212, -1.833e-5
-1.211, -1.800e-5
-1.210, -1.745e-5
-1.209, -1.776e-5
-1.208, -1.823e-5
-1.207, -1.836e-5
-1.206, -1.793e-5
-1.205, -1.740e-5
-1.204, -1.764e-5
-1.203, -1.829e-5
-1.202, -1.828e-5
-1.201, -1.784e-5
-1.200, -1.732e-5
-1.199, -1.759e-5
-1.198, -1.818e-5
-1.197, -1.817e-5
-1.196, -1.771e-5
-1.195, -1.738e-5
-1.194, -1.754e-5
-1.193, -1.816e-5
-1.192, -1.810e-5
-1.191, -1.767e-5
-1.190, -1.734e-5
-1.189, -1.749e-5
-1.188, -1.800e-5
-1.187, -1.814e-5
-1.186, -1.763e-5
-1.185, -1.731e-5
-1.184, -1.752e-5
-1.183, -1.803e-5
-1.182, -1.808e-5
-1.181, -1.760e-5
-1.180, -1.719e-5
-1.179, -1.759e-5
-1.178, -1.815e-5
-1.177, -1.813e-5
-1.176, -1.760e-5
-1.175, -1.720e-5
-1.174, -1.763e-5
-1.173, -1.796e-5
-1.172, -1.807e-5
-1.171, -1.768e-5
-1.170, -1.722e-5
-1.169, -1.756e-5
-1.168, -1.807e-5
-1.167, -1.811e-5
-1.166, -1.772e-5
-1.165, -1.726e-5
-1.164, -1.753e-5
-1.163, -1.817e-5
-1.162, -1.816e-5
-1.161, -1.774e-5
-1.160, -1.741e-5
-1.159, -1.769e-5
-1.158, -1.826e-5
-1.157, -1.823e-5
-1.156, -1.777e-5
-1.155, -1.751e-5
-1.154, -1.777e-5
-1.153, -1.840e-5
-1.152, -1.844e-5
-1.151, -1.790e-5
-1.150, -1.759e-5
-1.149, -1.794e-5
-1.148, -1.841e-5
-1.147, -1.861e-5
-1.146, -1.812e-5
-1.145, -1.778e-5
-1.144, -1.805e-5
-1.143, -1.863e-5
-1.142, -1.880e-5
-1.141, -1.826e-5
-1.140, -1.794e-5
-1.139, -1.838e-5
-1.138, -1.889e-5
-1.137, -1.905e-5
-1.136, -1.852e-5
-1.135, -1.814e-5
-1.134, -1.869e-5
-1.133, -1.912e-5
-1.132, -1.923e-5
-1.131, -1.881e-5
-1.130, -1.849e-5
-1.129, -1.889e-5
-1.128, -1.942e-5
-1.127, -1.957e-5
-1.126, -1.926e-5
-1.125, -1.881e-5
-1.124, -1.923e-5
-1.123, -1.991e-5
-1.122, -1.993e-5
-1.121, -1.965e-5
-1.120, -1.919e-5
-1.119, -1.968e-5
-1.118, -2.034e-5
-1.117, -2.035e-5
-1.116, -1.999e-5
-1.115, -1.971e-5
-1.114, -2.011e-5
-1.113, -2.086e-5
-1.112, -2.083e-5
-1.111, -2.053e-5
-1.110, -2.032e-5
-1.109, -2.059e-5
-1.108, -2.127e-5
-1.107, -2.152e-5
-1.106, -2.109e-5
-1.105, -2.085e-5
-1.104, -2.124e-5
-1.103, -2.191e-5
-1.102, -2.222e-5
-1.101, -2.170e-5
-1.100, -2.144e-5
-1.099, -2.204e-5
-1.098, -2.263e-5
-1.097, -2.286e-5
-1.096, -2.244e-5
-1.095, -2.218e-5
-1.094, -2.281e-5
-1.093, -2.338e-5
-1.092, -2.360e-5
-1.091, -2.329e-5
-1.090, -2.305e-5
-1.089, -2.367e-5
-1.088, -2.426e-5
-1.087, -2.450e-5
-1.086, -2.428e-5
-1.085, -2.386e-5
-1.084, -2.452e-5
-1.083, -2.535e-5
-1.082, -2.550e-5
-1.081, -2.520e-5
-1.080, -2.499e-5
-1.079, -2.556e-5
-1.078, -2.645e-5
-1.077, -2.656e-5
-1.076, -2.643e-5
-1.075, -2.616e-5
-1.074, -2.667e-5
-1.073, -2.761e-5
-1.072, -2.779e-5
-1.071, -2.748e-5
-1.070, -2.742e-5
-1.069, -2.791e-5
-1.068, -2.873e-5
-1.067, -2.969e-5
-1.066, -2.871e-5
-1.065, -2.868e-5
-1.064, -2.921e-5
-1.063, -3.019e-5
-1.062, -3.055e-5
-1.061, -3.012e-5
-1.060, -3.003e-5
-1.059, -3.084e-5
-1.058, -3.162e-5
-1.057, -3.210e-5
-1.056, -3.169e-5
-1.055, -3.159e-5
-1.054, -3.241e-5
-1.053, -3.320e-5
-1.052, -3.361e-5
-1.051, -3.349e-5
-1.050, -3.335e-5
-1.049, -3.409e-5
-1.048, -3.499e-5
-1.047, -3.740e-5
-1.046, -3.580e-5
-1.045, -3.528e-5
-1.044, -3.600e-5
-1.043, -3.715e-5
-1.042, -3.742e-5
-1.041, -3.737e-5
-1.040, -3.712e-5
-1.039, -3.795e-5
-1.038, -3.916e-5
-1.037, -3.946e-5
-1.036, -3.942e-5
-1.035, -3.927e-5
-1.034, -4.006e-5
-1.033, -4.133e-5
-1.032, -4.172e-5
-1.031, -4.147e-5
-1.030, -4.166e-5
-1.029, -4.241e-5
-1.028, -4.366e-5
-1.027, -4.423e-5
-1.026, -4.381e-5
-1.025, -4.400e-5
-1.024, -4.515e-5
-1.023, -4.608e-5
-1.022, -4.687e-5
-1.021, -4.663e-5
-1.020, -4.672e-5
-1.019, -4.764e-5
-1.018, -4.888e-5
-1.017, -4.943e-5
-1.016, -4.948e-5
-1.015, -4.932e-5
-1.014, -5.061e-5
-1.013, -5.158e-5
-1.012, -5.239e-5
-1.011, -5.237e-5
-1.010, -5.245e-5
-1.009, -5.365e-5
-1.008, -5.477e-5
-1.007, -5.544e-5
-1.006, -5.558e-5
-1.005, -5.571e-5
-1.004, -5.674e-5
-1.003, -5.822e-5
-1.002, -5.873e-5
-1.001, -5.906e-5
-1.000, -3.366e-5
-1.001, -1.828e-5
-1.002, -1.234e-5
-1.003, -7.729e-6
-1.004, -3.327e-6
-1.005, 2.948e-7
-1.006, 2.446e-6
-1.007, 4.283e-6
-1.008, 6.121e-6
-1.009, 8.653e-6
-1.010, 1.095e-5
-1.011, 1.187e-5
-1.012, 1.270e-5
-1.013, 1.393e-5
-1.014, 1.554e-5
-1.015, 1.718e-5
-1.016, 1.754e-5
-1.017, 1.790e-5
-1.018, 1.889e-5
-1.019, 2.002e-5
-1.020, 2.131e-5
-1.021, 2.150e-5
-1.022, 2.139e-5
-1.023, 2.211e-5
-1.024, 2.322e-5
-1.025, 2.414e-5
-1.026, 2.413e-5
-1.027, 2.369e-5
-1.028, 2.434e-5
-1.029, 2.516e-5
-1.030, 2.581e-5
-1.031, 2.587e-5
-1.032, 2.529e-5
-1.033, 2.563e-5
-1.034, 2.657e-5
-1.035, 2.707e-5
-1.036, 2.679e-5
-1.037, 2.641e-5
-1.038, 2.653e-5
-1.039, 2.737e-5
-1.040, 2.783e-5
-1.041, 2.740e-5
-1.042, 2.689e-5
-1.043, 2.692e-5
-1.044, 2.764e-5
-1.045, 2.820e-5
-1.046, 2.757e-5
-1.047, 2.712e-5
-1.048, 2.703e-5
-1.049, 2.776e-5
-1.050, 2.829e-5
-1.051, 2.744e-5
-1.052, 2.700e-5
-1.053, 2.696e-5
-1.054, 2.758e-5
-1.055, 2.797e-5
-1.056, 2.737e-5
-1.057, 2.666e-5
-1.058, 2.677e-5
-1.059, 2.722e-5
-1.060, 2.759e-5
-1.061, 2.691e-5
-1.062, 2.633e-5
-1.063, 2.636e-5
-1.064, 2.670e-5
-1.065, 2.698e-5
-1.066, 2.656e-5
-1.067, 2.574e-5
-1.068, 2.582e-5
-1.069, 2.623e-5
-1.070, 2.646e-5
-1.071, 2.593e-5
-1.072, 2.515e-5
-1.073, 2.522e-5
-1.074, 2.577e-5
-1.075, 2.595e-5
-1.076, 2.529e-5
-1.077, 2.458e-5
-1.078, 2.451e-5
-1.079, 2.516e-5
-1.080, 2.522e-5
-1.081, 2.456e-5
-1.082, 2.391e-5
-1.083, 2.387e-5
-1.084, 2.437e-5
-1.085, 2.452e-5
-1.086, 2.396e-5
-1.087, 2.340e-5
-1.088, 2.320e-5
-1.089, 2.368e-5
-1.090, 2.394e-5
-1.091, 2.322e-5
-1.092, 2.267e-5
-1.093, 2.265e-5
-1.094, 2.303e-5
-1.095, 2.328e-5
-1.096, 2.256e-5
-1.097, 2.199e-5
-1.098, 2.202e-5
-1.099, 2.236e-5
-1.100, 2.258e-5
-1.101, 2.198e-5
-1.102, 2.135e-5
-1.103, 2.134e-5
-1.104, 2.177e-5
-1.105, 2.195e-5
-1.106, 2.136e-5
-1.107, 2.072e-5
-1.108, 2.083e-5
-1.109, 2.124e-5
-1.110, 2.131e-5
-1.111, 2.085e-5
-1.112, 2.015e-5
-1.113, 2.020e-5
-1.114, 2.075e-5
-1.115, 2.076e-5
-1.116, 2.025e-5
-1.117, 1.965e-5
-1.118, 1.970e-5
-1.119, 2.029e-5
-1.120, 2.024e-5
-1.121, 1.965e-5
-1.122, 1.921e-5
-1.123, 1.925e-5
-1.124, 1.974e-5
-1.125, 1.984e-5
-1.126, 1.927e-5
-1.127, 1.882e-5
-1.128, 1.882e-5
-1.129, 1.929e-5
-1.130, 1.947e-5
-1.131, 1.884e-5
-1.132, 1.838e-5
-1.133, 1.847e-5
-1.134, 1.892e-5
-1.135, 1.909e-5
-1.136, 1.850e-5
-1.137, 1.794e-5
-1.138, 1.822e-5
-1.139, 1.857e-5
-1.140, 1.877e-5
-1.141, 1.823e-5
-1.142, 1.770e-5
-1.143, 1.792e-5
-1.144, 1.834e-5
-1.145, 1.846e-5
-1.146, 1.802e-5
-1.147, 1.742e-5
-1.148, 1.765e-5
-1.149, 1.819e-5
-1.150, 1.817e-5
-1.151, 1.783e-5
-1.152, 1.729e-5
-1.153, 1.747e-5
-1.154, 1.807e-5
-1.155, 1.804e-5
-1.156, 1.763e-5
-1.157, 1.715e-5
-1.158, 1.732e-5
-1.159, 1.787e-5
-1.160, 1.794e-5
-1.161, 1.736e-5
-1.162, 1.708e-5
-1.163, 1.717e-5
-1.164, 1.779e-5
-1.165, 1.783e-5
-1.166, 1.742e-5
-1.167, 1.702e-5
-1.168, 1.710e-5
-1.169, 1.764e-5
-1.170, 1.779e-5
-1.171, 1.730e-5
-1.172, 1.692e-5
-1.173, 1.711e-5
-1.174, 1.765e-5
-1.175, 1.779e-5
-1.176, 1.725e-5
-1.177, 1.698e-5
-1.178, 1.716e-5
-1.179, 1.765e-5
-1.180, 1.779e-5
-1.181, 1.729e-5
-1.182, 1.689e-5
-1.183, 1.723e-5
-1.184, 1.768e-5
-1.185, 1.768e-5
-1.186, 1.742e-5
-1.187, 1.698e-5
-1.188, 1.732e-5
-1.189, 1.780e-5
-1.190, 1.785e-5
-1.191, 1.744e-5
-1.192, 1.704e-5
-1.193, 1.726e-5
-1.194, 1.795e-5
-1.195, 1.793e-5
-1.196, 1.758e-5
-1.197, 1.716e-5
-1.198, 1.740e-5
-1.199, 1.801e-5
-1.200, 1.804e-5
-1.201, 1.772e-5
-1.202, 1.730e-5
-1.203, 1.748e-5
-1.204, 1.821e-5
-1.205, 1.823e-5
-1.206, 1.783e-5
-1.207, 1.750e-5
-1.208, 1.769e-5
-1.209, 1.828e-5
-1.210, 1.848e-5
-1.211, 1.797e-5
-1.212, 1.759e-5
-1.213, 1.790e-5
-1.214, 1.848e-5
-1.215, 1.865e-5
-1.216, 1.810e-5
-1.217, 1.779e-5
-1.218, 1.817e-5
-1.219, 1.870e-5
-1.220, 1.887e-5
-1.221, 1.846e-5
-1.222, 1.800e-5
-1.223, 1.836e-5
-1.224, 1.889e-5
-1.225, 1.902e-5
-1.226, 1.874e-5
-1.227, 1.824e-5
-1.228, 1.875e-5
-1.229, 1.933e-5
-1.230, 1.932e-5
-1.231, 1.900e-5
-1.232, 1.854e-5
-1.233, 1.883e-5
-1.234, 1.952e-5
-1.235, 1.951e-5
-1.236, 1.919e-5
-1.237, 1.882e-5
-1.238, 1.916e-5
-1.239, 1.984e-5
-1.240, 1.987e-5
-1.241, 1.950e-5
-1.242, 1.922e-5
-1.243, 1.936e-5
-1.244, 2.012e-5
-1.245, 2.024e-5
-1.246, 1.979e-5
-1.247, 1.949e-5
-1.248, 1.973e-5
-1.249, 2.037e-5
-1.250, 2.054e-5
-1.251, 2.007e-5
-1.252, 1.982e-5
-1.253, 2.006e-5
-1.254, 2.068e-5
-1.255, 2.099e-5
-1.256, 2.036e-5
-1.257, 2.005e-5
-1.258, 2.055e-5
-1.259, 2.106e-5
-1.260, 2.121e-5
-1.261, 2.071e-5
-1.262, 2.045e-5
-1.263, 2.088e-5
-1.264, 2.136e-5
-1.265, 2.158e-5
-1.266, 2.117e-5
-1.267, 2.085e-5
-1.268, 2.119e-5
-1.269, 2.182e-5
-1.270, 2.201e-5
-1.271, 2.161e-5
-1.272, 2.122e-5
-1.273, 2.162e-5
-1.274, 2.232e-5
-1.275, 2.241e-5
-1.276, 2.198e-5
-1.277, 2.163e-5
-1.278, 2.208e-5
-1.279, 2.284e-5
-1.280, 2.299e-5
-1.281, 2.231e-5
-1.282, 2.212e-5
-1.283, 2.248e-5
-1.284, 2.323e-5
-1.285, 2.339e-5
-1.286, 2.295e-5
-1.287, 2.271e-5
-1.288, 2.298e-5
-1.289, 2.368e-5
-1.290, 2.395e-5
-1.291, 2.340e-5
-1.292, 2.317e-5
-1.293, 2.359e-5
-1.294, 2.416e-5
-1.295, 2.453e-5
-1.296, 2.393e-5
-1.297, 2.368e-5
-1.298, 2.422e-5
-1.299, 2.484e-5
-1.300, 2.498e-5
-1.301, 2.459e-5
-1.302, 2.428e-5
-1.303, 2.485e-5
-1.304, 2.542e-5
-1.305, 2.562e-5
-1.306, 2.529e-5
-1.307, 2.497e-5
-1.308, 2.546e-5
-1.309, 2.610e-5
-1.310, 2.627e-5
-1.311, 2.602e-5
-1.312, 2.570e-5
-1.313, 2.617e-5
-1.314, 2.693e-5
-1.315, 2.709e-5
-1.316, 2.686e-5
-1.317, 2.654e-5
-1.318, 2.700e-5
-1.319, 2.781e-5
-1.320, 2.780e-5
-1.321, 2.763e-5
-1.322, 2.746e-5
-1.323, 2.789e-5
-1.324, 2.867e-5
-1.325, 2.882e-5
-1.326, 2.853e-5
-1.327, 2.842e-5
-1.328, 2.884e-5
-1.329, 2.961e-5
-1.330, 2.989e-5
-1.331, 2.949e-5
-1.332, 2.946e-5
-1.333, 2.998e-5
-1.334, 3.073e-5
-1.335, 3.116e-5
-1.336, 3.055e-5
-1.337, 3.067e-5
-1.338, 3.118e-5
-1.339, 3.197e-5
-1.340, 3.228e-5
-1.341, 3.205e-5
-1.342, 3.187e-5
-1.343, 3.262e-5
-1.344, 3.326e-5
-1.345, 3.369e-5
-1.346, 3.346e-5
-1.347, 3.337e-5
-1.348, 3.403e-5
-1.349, 3.497e-5
-1.350, 3.522e-5
-1.351, 3.507e-5
-1.352, 3.506e-5
-1.353, 3.572e-5
-1.354, 3.667e-5
-1.355, 3.703e-5
-1.356, 3.695e-5
-1.357, 3.686e-5
-1.358, 3.763e-5
-1.359, 3.868e-5
-1.360, 3.900e-5
-1.361, 3.888e-5
-1.362, 3.904e-5
-1.363, 3.977e-5
-1.364, 4.086e-5
-1.365, 4.127e-5
-1.366, 4.119e-5
-1.367, 4.150e-5
-1.368, 4.224e-5
-1.369, 4.325e-5
-1.370, 4.390e-5
-1.371, 4.388e-5
-1.372, 4.413e-5
-1.373, 4.501e-5
-1.374, 4.620e-5
-1.375, 4.686e-5
-1.376, 4.689e-5
-1.377, 4.714e-5
-1.378, 4.828e-5
-1.379, 4.937e-5
-1.380, 5.015e-5
-1.381, 5.029e-5
-1.382, 5.083e-5
-1.383, 5.195e-5
-1.384, 5.313e-5
-1.385, 5.379e-5
-1.386, 5.436e-5
-1.387, 5.467e-5
-1.388, 5.598e-5
-1.389, 5.743e-5
-1.390, 5.835e-5
-1.391, 5.879e-5
-1.392, 5.919e-5
-1.393, 6.070e-5
-1.394, 6.232e-5
-1.395, 6.345e-5
-1.396, 6.376e-5
-1.397, 6.478e-5
-1.398, 6.619e-5
-1.399, 6.787e-5
-1.400, 6.915e-5
-1.401, 6.976e-5
-1.402, 7.083e-5
-1.403, 7.256e-5
-1.404, 7.427e-5
-1.405, 7.584e-5
-1.406, 7.662e-5
-1.407, 7.820e-5
-1.408, 7.976e-5
-1.409, 8.171e-5
-1.410, 8.358e-5
-1.411, 8.460e-5
-1.412, 8.623e-5
-1.413, 8.830e-5
-1.414, 9.068e-5
-1.415, 9.263e-5
-1.416, 9.396e-5
-1.417, 9.571e-5
-1.418, 9.815e-5
-1.419, 1.008e-4
-1.420, 1.030e-4
-1.421, 1.048e-4
-1.422, 1.068e-4
-1.423, 1.098e-4
-1.424, 1.125e-4
-1.425, 1.151e-4
-1.426, 1.175e-4
-1.427, 1.197e-4
-1.428, 1.229e-4
-1.429, 1.264e-4
-1.430, 1.293e-4
-1.431, 1.320e-4
-1.432, 1.347e-4
-1.433, 1.387e-4
-1.434, 1.426e-4
-1.435, 1.460e-4
-1.436, 1.493e-4
-1.437, 1.527e-4
-1.438, 1.571e-4
-1.439, 1.614e-4
-1.440, 1.658e-4
-1.441, 1.697e-4
-1.442, 1.738e-4
-1.443, 1.789e-4
-1.444, 1.841e-4
-1.445, 1.892e-4
-1.446, 1.939e-4
-1.447, 1.990e-4
-1.448, 2.048e-4
-1.449, 2.112e-4
-1.450, 2.169e-4
-1.451, 2.229e-4
-1.452, 2.292e-4
-1.453, 2.363e-4
-1.454, 2.436e-4
-1.455, 2.509e-4
-1.456, 2.580e-4
-1.457, 2.654e-4
-1.458, 2.738e-4
-1.459, 2.826e-4
-1.460, 2.912e-4
-1.461, 2.997e-4
-1.462, 3.084e-4
-1.463, 3.183e-4
-1.464, 3.283e-4
-1.465, 3.380e-4
-1.466, 3.476e-4
-1.467, 3.572e-4
-1.468, 3.681e-4
-1.469, 3.782e-4
-1.470, 3.894e-4
-1.471, 4.000e-4
-1.472, 4.105e-4
-1.473, 4.220e-4
-1.474, 4.341e-4
-1.475, 4.447e-4
-1.476, 4.546e-4
-1.477, 4.671e-4
-1.478, 4.787e-4
-1.479, 4.923e-4
-1.480, 5.039e-4
-1.481, 5.142e-4
-1.482, 5.258e-4
-1.483, 5.393e-4
-1.484, 5.526e-4
-1.485, 5.650e-4
-1.486, 5.777e-4
-1.487, 5.890e-4
-1.488, 6.035e-4
-1.489, 6.172e-4
-1.490, 6.310e-4
-1.491, 6.439e-4
-1.492, 6.578e-4
-1.493, 6.737e-4
-1.494, 6.895e-4
-1.495, 7.024e-4
-1.496, 7.178e-4
-1.497, 7.349e-4
-1.498, 7.493e-4
-1.499, 7.654e-4
-1.500, 7.837e-4
-1.501, 7.983e-4
-1.502, 8.138e-4
-1.503, 8.333e-4
-1.504, 8.515e-4
-1.505, 8.697e-4
-1.506, 8.886e-4
-1.507, 9.057e-4
-1.508, 9.229e-4
-1.509, 9.430e-4
-1.510, 9.633e-4
-1.511, 9.820e-4
-1.512, 1.003e-3
-1.513, 1.022e-3
-1.514, 1.043e-3
-1.515, 1.064e-3
-1.516, 1.088e-3
-1.517, 1.110e-3
-1.518, 1.131e-3
-1.519, 1.153e-3
-1.520, 1.176e-3
-1.521, 1.200e-3
-1.522, 1.222e-3
-1.523, 1.248e-3
-1.524, 1.271e-3
-1.525, 1.297e-3
-1.526, 1.323e-3
-1.527, 1.348e-3
-1.528, 1.374e-3
-1.529, 1.400e-3
-1.530, 1.424e-3
-1.531, 1.451e-3
-1.532, 1.476e-3
-1.533, 1.507e-3
-1.534, 1.537e-3
-1.535, 1.562e-3
-1.536, 1.586e-3
-1.537, 1.622e-3
-1.538, 1.647e-3
-1.539, 1.678e-3
-1.540, 1.708e-3
-1.541, 1.736e-3
-1.542, 1.775e-3
-1.543, 1.808e-3
-1.544, 1.846e-3
-1.545, 1.883e-3
-1.546, 1.920e-3
-1.547, 1.947e-3
-1.548, 1.976e-3
-1.549, 2.013e-3
-1.550, 2.046e-3
-1.551, 2.080e-3
-1.552, 2.115e-3
-1.553, 2.149e-3
-1.554, 2.182e-3
-1.555, 2.222e-3
-1.556, 2.259e-3
-1.557, 2.294e-3
-1.558, 2.329e-3
-1.559, 2.367e-3
-1.560, 2.411e-3
-1.561, 2.448e-3
-1.562, 2.485e-3
-1.563, 2.526e-3
-1.564, 2.564e-3
-1.565, 2.599e-3
-1.566, 2.638e-3
-1.567, 2.679e-3
-1.568, 2.719e-3
-1.569, 2.759e-3
-1.570, 2.797e-3
-1.571, 2.835e-3
-1.572, 2.885e-3
-1.573, 2.931e-3
-1.574, 2.979e-3
-1.575, 3.025e-3
-1.576, 3.062e-3
-1.577, 3.101e-3
-1.578, 3.139e-3
-1.579, 3.190e-3
-1.580, 3.240e-3
-1.581, 3.273e-3
-1.582, 3.324e-3
-1.583, 3.359e-3
-1.584, 3.415e-3
-1.585, 3.469e-3
-1.586, 3.516e-3
-1.587, 3.551e-3
-1.588, 3.599e-3
-1.589, 3.649e-3
-1.590, 3.683e-3
-1.591, 3.742e-3
-1.592, 3.774e-3
-1.593, 3.825e-3
-1.594, 3.872e-3
-1.595, 3.915e-3
-1.596, 3.959e-3
-1.597, 4.009e-3
-1.598, 4.062e-3
-1.599, 4.106e-3
-1.600, 4.163e-3
-1.601, 4.213e-3
-1.602, 4.252e-3
-1.603, 4.294e-3
-1.604, 4.349e-3
-1.605, 4.400e-3
-1.606, 4.454e-3
-1.607, 4.501e-3
-1.608, 4.591e-3
-1.609, 4.676e-3
-1.610, 4.713e-3
-1.611, 4.763e-3
-1.612, 4.812e-3
-1.613, 4.859e-3
-1.614, 4.917e-3
-1.615, 4.964e-3
-1.616, 5.025e-3
-1.617, 5.065e-3
-1.618, 5.128e-3
-1.619, 5.169e-3
-1.620, 5.225e-3
-1.621, 5.259e-3
-1.622, 5.298e-3
-1.623, 5.346e-3
-1.624, 5.385e-3
-1.625, 5.449e-3
-1.626, 5.522e-3
-1.627, 5.582e-3
-1.628, 5.616e-3
-1.629, 5.674e-3
-1.630, 5.739e-3
-1.631, 5.799e-3
-1.632, 5.861e-3
-1.633, 5.894e-3
-1.634, 5.961e-3
-1.635, 6.038e-3
-1.636, 6.110e-3
-1.637, 6.178e-3
-1.638, 6.232e-3
-1.639, 6.292e-3
-1.640, 6.376e-3
-1.641, 6.406e-3
-1.642, 6.449e-3
-1.643, 6.504e-3
-1.644, 6.550e-3
-1.645, 6.585e-3
-1.646, 6.643e-3
-1.647, 6.686e-3
-1.648, 6.779e-3
-1.649, 6.822e-3
-1.650, 6.891e-3
-1.651, 6.927e-3
-1.652, 6.989e-3
-1.653, 7.083e-3
-1.654, 7.149e-3
-1.655, 7.209e-3
-1.656, 7.302e-3
-1.657, 7.336e-3
-1.658, 7.385e-3
-1.659, 7.449e-3
-1.660, 7.514e-3
-1.661, 7.550e-3
-1.662, 7.647e-3
-1.663, 7.760e-3
-1.664, 7.860e-3
-1.665, 7.958e-3
-1.666, 8.104e-3
-1.667, 8.120e-3
-1.668, 8.134e-3
-1.669, 8.166e-3
-1.670, 8.217e-3
-1.671, 8.326e-3
-1.672, 8.473e-3
-1.673, 8.534e-3
-1.674, 8.594e-3
-1.675, 8.631e-3
-1.676, 8.634e-3
-1.677, 8.664e-3
-1.678, 8.709e-3
-1.679, 8.807e-3
-1.680, 8.833e-3
-1.681, 8.956e-3
-1.682, 8.974e-3
-1.683, 9.040e-3
-1.684, 9.113e-3
-1.685, 9.239e-3
-1.686, 9.298e-3
-1.687, 9.331e-3
-1.688, 9.404e-3
-1.689, 9.442e-3
-1.690, 9.515e-3
-1.691, 9.586e-3
-1.692, 9.602e-3
-1.693, 9.595e-3
-1.694, 9.648e-3
-1.695, 9.760e-3
-1.696, 9.700e-3
-1.697, 9.756e-3
-1.698, 9.814e-3
-1.699, 9.916e-3
-1.700, 9.990e-3
-1.699, 9.891e-3
-1.698, 9.807e-3
-1.697, 9.711e-3
-1.696, 9.653e-3
-1.695, 9.618e-3
-1.694, 9.517e-3
-1.693, 9.533e-3
-1.692, 9.404e-3
-1.691, 9.339e-3
-1.690, 9.248e-3
-1.689, 9.174e-3
-1.688, 9.148e-3
-1.687, 9.092e-3
-1.686, 9.102e-3
-1.685, 9.024e-3
-1.684, 8.957e-3
-1.683, 8.908e-3
-1.682, 8.833e-3
-1.681, 8.729e-3
-1.680, 8.681e-3
-1.679, 8.639e-3
-1.678, 8.511e-3
-1.677, 8.392e-3
-1.676, 8.327e-3
-1.675, 8.246e-3
-1.674, 8.192e-3
-1.673, 8.075e-3
-1.672, 7.975e-3
-1.671, 7.897e-3
-1.670, 7.838e-3
-1.669, 7.742e-3
-1.668, 7.704e-3
-1.667, 7.611e-3
-1.666, 7.510e-3
-1.665, 7.404e-3
-1.664, 7.369e-3
-1.663, 7.276e-3
-1.662, 7.194e-3
-1.661, 7.149e-3
-1.660, 7.075e-3
-1.659, 6.989e-3
-1.658, 6.943e-3
-1.657, 6.921e-3
-1.656, 6.865e-3
-1.655, 6.812e-3
-1.654, 6.721e-3
-1.653, 6.642e-3
-1.652, 6.603e-3
-1.651, 6.508e-3
-1.650, 6.435e-3
-1.649, 6.370e-3
-1.648, 6.353e-3
-1.647, 6.298e-3
-1.646, 6.235e-3
-1.645, 6.148e-3
-1.644, 6.122e-3
-1.643, 6.063e-3
-1.642, 5.995e-3
-1.641, 5.950e-3
-1.640, 5.883e-3
-1.639, 5.854e-3
-1.638, 5.796e-3
-1.637, 5.727e-3
-1.636, 5.641e-3
-1.635, 5.644e-3
-1.634, 5.549e-3
-1.633, 5.460e-3
-1.632, 5.422e-3
-1.631, 5.369e-3
-1.630, 5.289e-3
-1.629, 5.225e-3
-1.628, 5.166e-3
-1.627, 5.135e-3
-1.626, 5.090e-3
-1.625, 5.049e-3
-1.624, 5.008e-3
-1.623, 4.954e-3
-1.622, 4.878e-3
-1.621, 4.822e-3
-1.620, 4.771e-3
-1.619, 4.675e-3
-1.618, 4.655e-3
-1.617, 4.578e-3
-1.616, 4.526e-3
-1.615, 4.469e-3
-1.614, 4.442e-3
-1.613, 4.392e-3
-1.612, 4.341e-3
-1.611, 4.278e-3
-1.610, 4.218e-3
-1.609, 4.161e-3
-1.608, 4.086e-3
-1.607, 4.041e-3
-1.606, 3.990e-3
-1.605, 3.939e-3
-1.604, 3.893e-3
-1.603, 3.843e-3
-1.602, 3.806e-3
-1.601, 3.755e-3
-1.600, 3.710e-3
-1.599, 3.649e-3
-1.598, 3.604e-3
-1.597, 3.566e-3
-1.596, 3.524e-3
-1.595, 3.478e-3
-1.594, 3.421e-3
-1.593, 3.382e-3
-1.592, 3.341e-3
-1.591, 3.287e-3
-1.590, 3.235e-3
-1.589, 3.190e-3
-1.588, 3.133e-3
-1.587, 3.095e-3
-1.586, 3.047e-3
-1.585, 2.992e-3
-1.584, 2.939e-3
-1.583, 2.896e-3
-1.582, 2.850e-3
-1.581, 2.805e-3
-1.580, 2.750e-3
-1.579, 2.711e-3
-1.578, 2.661e-3
-1.577, 2.626e-3
-1.576, 2.576e-3
-1.575, 2.533e-3
-1.574, 2.496e-3
-1.573, 2.442e-3
-1.572, 2.405e-3
-1.571, 2.364e-3
-1.570, 2.327e-3
-1.569, 2.287e-3
-1.568, 2.239e-3
-1.567, 2.210e-3
-1.566, 2.165e-3
-1.565, 2.128e-3
-1.564, 2.091e-3
-1.563, 2.053e-3
-1.562, 2.019e-3
-1.561, 1.976e-3
-1.560, 1.949e-3
-1.559, 1.918e-3
-1.558, 1.880e-3
-1.557, 1.843e-3
-1.556, 1.809e-3
-1.555, 1.775e-3
-1.554, 1.749e-3
-1.553, 1.719e-3
-1.552, 1.684e-3
-1.551, 1.655e-3
-1.550, 1.624e-3
-1.549, 1.595e-3
-1.548, 1.561e-3
-1.547, 1.528e-3
-1.546, 1.500e-3
-1.545, 1.475e-3
-1.544, 1.446e-3
-1.543, 1.419e-3
-1.542, 1.386e-3
-1.541, 1.359e-3
-1.540, 1.329e-3
-1.539, 1.310e-3
-1.538, 1.283e-3
-1.537, 1.256e-3
-1.536, 1.237e-3
-1.535, 1.209e-3
-1.534, 1.186e-3
-1.533, 1.164e-3
-1.532, 1.139e-3
-1.531, 1.114e-3
-1.530, 1.093e-3
-1.529, 1.075e-3
-1.528, 1.048e-3
-1.527, 1.031e-3
-1.526, 1.003e-3
-1.525, 9.820e-4
-1.524, 9.616e-4
-1.523, 9.402e-4
-1.522, 9.203e-4
-1.521, 8.990e-4
-1.520, 8.816e-4
-1.519, 8.608e-4
-1.518, 8.406e-4
-1.517, 8.238e-4
-1.516, 8.042e-4
-1.515, 7.875e-4
-1.514, 7.690e-4
-1.513, 7.521e-4
-1.512, 7.371e-4
-1.511, 7.191e-4
-1.510, 7.027e-4
-1.509, 6.881e-4
-1.508, 6.716e-4
-1.507, 6.585e-4
-1.506, 6.469e-4
-1.505, 6.309e-4
-1.504, 6.181e-4
-1.503, 6.033e-4
-1.502, 5.898e-4
-1.501, 5.762e-4
-1.500, 5.639e-4
-1.499, 5.498e-4
-1.498, 5.379e-4
-1.497, 5.256e-4
-1.496, 5.152e-4
-1.495, 5.028e-4
-1.494, 4.899e-4
-1.493, 4.780e-4
-1.492, 4.686e-4
-1.491, 4.572e-4
-1.490, 4.463e-4
-1.489, 4.347e-4
-1.488, 4.248e-4
-1.487, 4.146e-4
-1.486, 4.053e-4
-1.485, 3.947e-4
-1.484, 3.852e-4
-1.483, 3.762e-4
-1.482, 3.671e-4
-1.481, 3.581e-4
-1.480, 3.492e-4
-1.479, 3.400e-4
-1.478, 3.332e-4
-1.477, 3.246e-4
-1.476, 3.162e-4
-1.475, 3.079e-4
-1.474, 2.996e-4
-1.473, 2.931e-4
-1.472, 2.853e-4
-1.471, 2.788e-4
-1.470, 2.709e-4
-1.469, 2.636e-4
-1.468, 2.567e-4
-1.467, 2.516e-4
-1.466, 2.446e-4
-1.465, 2.382e-4
-1.464, 2.318e-4
-1.463, 2.253e-4
-1.462, 2.199e-4
-1.461, 2.144e-4
-1.460, 2.094e-4
-1.459, 2.030e-4
-1.458, 1.976e-4
-1.457, 1.928e-4
-1.456, 1.880e-4
-1.455, 1.828e-4
-1.454, 1.774e-4
-1.453, 1.727e-4
-1.452, 1.689e-4
-1.451, 1.647e-4
-1.450, 1.602e-4
-1.449, 1.551e-4
-1.448, 1.508e-4
-1.447, 1.474e-4
-1.446, 1.435e-4
-1.445, 1.396e-4
-1.444, 1.350e-4
-1.443, 1.312e-4
-1.442, 1.280e-4
-1.441, 1.250e-4
-1.440, 1.217e-4
-1.439, 1.181e-4
-1.438, 1.141e-4
-1.437, 1.115e-4
-1.436, 1.089e-4
-1.435, 1.057e-4
-1.434, 1.022e-4
-1.433, 9.893e-5
-1.432, 9.674e-5
-1.431, 9.426e-5
-1.430, 9.114e-5
-1.429, 8.852e-5
-1.428, 8.552e-5
-1.427, 8.311e-5
-1.426, 8.126e-5
-1.425, 7.857e-5
-1.424, 7.586e-5
-1.423, 7.389e-5
-1.422, 7.175e-5
-1.421, 7.004e-5
-1.420, 6.779e-5
-1.419, 6.505e-5
-1.418, 6.298e-5
-1.417, 6.135e-5
-1.416, 5.984e-5
-1.415, 5.793e-5
-1.414, 5.542e-5
-1.413, 5.369e-5
-1.412, 5.240e-5
-1.411, 5.092e-5
-1.410, 4.925e-5
-1.409, 4.699e-5
-1.408, 4.524e-5
-1.407, 4.415e-5
-1.406, 4.297e-5
-1.405, 4.155e-5
-1.404, 3.944e-5
-1.403, 3.790e-5
-1.402, 3.736e-5
-1.401, 3.612e-5
-1.400, 3.488e-5
-1.399, 3.297e-5
-1.398, 3.159e-5
-1.397, 3.080e-5
-1.396, 3.013e-5
-1.395, 2.865e-5
-1.394, 2.710e-5
-1.393, 2.576e-5
-1.392, 2.521e-5
-1.391, 2.457e-5
-1.390, 2.332e-5
-1.389, 2.188e-5
-1.388, 2.071e-5
-1.387, 2.016e-5
-1.386, 1.984e-5
-1.385, 1.858e-5
-1.384, 1.720e-5
-1.383, 1.610e-5
-1.382, 1.563e-5
-1.381, 1.529e-5
-1.380, 1.436e-5
-1.379, 1.292e-5
-1.378, 1.203e-5
-1.377, 1.168e-5
-1.376, 1.149e-5
-1.375, 1.054e-5
-1.374, 9.226e-6
-1.373, 8.478e-6
-1.372, 8.230e-6
-1.371, 8.184e-6
-1.370, 7.294e-6
-1.369, 5.910e-6
-1.368, 5.267e-6
-1.367, 5.141e-6
-1.366, 4.870e-6
-1.365, 4.345e-6
-1.364, 3.066e-6
-1.363, 2.402e-6
-1.362, 2.320e-6
-1.361, 2.215e-6
-1.360, 1.679e-6
-1.359, 5.365e-7
-1.358, -2.123e-7
-1.357, -5.446e-8
-1.356, -1.748e-7
-1.355, -7.944e-7
-1.354, -1.712e-6
-1.353, -2.468e-6
-1.352, -2.318e-6
-1.351, -2.343e-6
-1.350, -2.918e-6
-1.349, -3.874e-6
-1.348, -4.440e-6
-1.347, -4.366e-6
-1.346, -4.293e-6
-1.345, -4.872e-6
-1.344, -5.704e-6
-1.343, -6.351e-6
-1.342, -6.244e-6
-1.341, -6.036e-6
-1.340, -6.529e-6
-1.339, -7.609e-6
-1.338, -7.954e-6
-1.337, -7.953e-6
-1.336, -7.654e-6
-1.335, -8.062e-6
-1.334, -9.120e-6
-1.333, -9.486e-6
-1.332, -9.292e-6
-1.331, -9.163e-6
-1.330, -9.457e-6
-1.329, -1.050e-5
-1.328, -1.071e-5
-1.327, -1.061e-5
-1.326, -1.041e-5
-1.325, -1.067e-5
-1.324, -1.159e-5
-1.323, -1.209e-5
-1.322, -1.181e-5
-1.321, -1.163e-5
-1.320, -1.174e-5
-1.319, -1.265e-5
-1.318, -1.313e-5
-1.317, -1.276e-5
-1.316, -1.257e-5
-1.315, -1.287e-5
-1.314, -1.361e-5
-1.313, -1.405e-5
-1.312, -1.369e-5
-1.311, -1.334e-5
-1.310, -1.383e-5
-1.309, -1.443e-5
-1.308, -1.485e-5
-1.307, -1.465e-5
-1.306, -1.420e-5
-1.305, -1.461e-5
-1.304, -1.521e-5
-1.303, -1.561e-5
-1.302, -1.538e-5
-1.301, -1.487e-5
-1.300, -1.514e-5
-1.299, -1.600e-5
-1.298, -1.626e-5
-1.297, -1.593e-5
-1.296, -1.550e-5
-1.295, -1.582e-5
-1.294, -1.665e-5
-1.293, -1.670e-5
-1.292, -1.650e-5
-1.291, -1.608e-5
-1.290, -1.628e-5
-1.289, -1.701e-5
-1.288, -1.729e-5
-1.287, -1.682e-5
-1.286, -1.665e-5
-1.285, -1.663e-5
-1.284, -1.738e-5
-1.283, -1.778e-5
-1.282, -1.732e-5
-1.281, -1.697e-5
-1.280, -1.723e-5
-1.279, -1.779e-5
-1.278, -1.817e-5
-1.277, -1.763e-5
-1.276, -1.722e-5
-1.275, -1.748e-5
-1.274, -1.806e-5
-1.273, -1.843e-5
-1.272, -1.797e-5
-1.271, -1.745e-5
-1.270, -1.770e-5
-1.269, -1.837e-5
-1.268, -1.850e-5
-1.267, -1.825e-5
-1.266, -1.771e-5
-1.265, -1.797e-5
-1.264, -1.848e-5
-1.263, -1.879e-5
-1.262, -1.845e-5
-1.261, -1.784e-5
-1.260, -1.803e-5
-1.259, -1.875e-5
-1.258, -1.894e-5
-1.257, -1.855e-5
-1.256, -1.798e-5
-1.255, -1.818e-5
-1.254, -1.886e-5
-1.253, -1.904e-5
-1.252, -1.856e-5
-1.251, -1.811e-5
-1.250, -1.824e-5
-1.249, -1.891e-5
-1.248, -1.905e-5
-1.247, -1.855e-5
-1.246, -1.822e-5
-1.245, -1.824e-5
-1.244, -1.889e-5
-1.243, -1.910e-5
-1.242, -1.859e-5
-1.241, -1.827e-5
-1.240, -1.818e-5
-1.239, -1.885e-5
-1.238, -1.913e-5
-1.237, -1.856e-5
-1.236, -1.808e-5
-1.235, -1.834e-5
-1.234, -1.889e-5
-1.233, -1.920e-5
-1.232, -1.851e-5
-1.231, -1.813e-5
-1.230, -1.830e-5
-1.229, -1.913e-5
-1.228, -1.901e-5
-1.227, -1.862e-5
-1.226, -1.806e-5
-1.225, -1.825e-5
-1.224, -1.880e-5
-1.223, -1.889e-5
-1.222, -1.856e-5
-1.221, -1.803e-5
-1.220, -1.802e-5
-1.219, -1.884e-5
-1.218, -1.884e-5
-1.217, -1.845e-5
-1.216, -1.792e-5
-1.215, -1.802e-5
-1.214, -1.876e-5
-1.213, -1.879e-5
-1.212, -1.834e-5
-1.211, -1.791e-5
-1.210, -1.790e-5
-1.209, -1.857e-5
-1.208, -1.870e-5
-1.207, -1.822e-5
-1.206, -1.780e-5
-1.205, -1.784e-5
-1.204, -1.846e-5
-1.203, -1.866e-5
-1.202, -1.811e-5
-1.201, -1.780e-5
-1.200, -1.774e-5
-1.199, -1.837e-5
-1.198, -1.859e-5
-1.197, -1.807e-5
-1.196, -1.760e-5
-1.195, -1.786e-5
-1.194, -1.827e-5
-1.193, -1.854e-5
-1.192, -1.797e-5
-1.191, -1.756e-5
-1.190, -1.775e-5
-1.189, -1.820e-5
-1.188, -1.842e-5
-1.187, -1.807e-5
-1.186, -1.750e-5
-1.185, -1.769e-5
-1.184, -1.826e-5
-1.183, -1.834e-5
-1.182, -1.800e-5
-1.181, -1.743e-5
-1.180, -1.767e-5
-1.179, -1.829e-5
-1.178, -1.846e-5
-1.177, -1.803e-5
-1.176, -1.749e-5
-1.175, -1.761e-5
-1.174, -1.827e-5
-1.173, -1.835e-5
-1.172, -1.794e-5
-1.171, -1.758e-5
-1.170, -1.762e-5
-1.169, -1.833e-5
-1.168, -1.834e-5
-1.167, -1.792e-5
-1.166, -1.762e-5
-1.165, -1.769e-5
-1.164, -1.825e-5
-1.163, -1.852e-5
-1.162, -1.806e-5
-1.161, -1.765e-5
-1.160, -1.776e-5
-1.159, -1.833e-5
-1.158, -1.860e-5
-1.157, -1.816e-5
-1.156, -1.768e-5
-1.155, -1.800e-5
-1.154, -1.842e-5
-1.153, -1.872e-5
-1.152, -1.820e-5
-1.151, -1.785e-5
-1.150, -1.810e-5
-1.149, -1.861e-5
-1.148, -1.880e-5
-1.147, -1.841e-5
-1.146, -1.798e-5
-1.145, -1.828e-5
-1.144, -1.879e-5
-1.143, -1.899e-5
-1.142, -1.869e-5
-1.141, -1.820e-5
-1.140, -1.840e-5
-1.139, -1.909e-5
-1.138, -1.923e-5
-1.137, -1.886e-5
-1.136, -1.847e-5
-1.135, -1.862e-5
-1.134, -1.934e-5
-1.133, -1.950e-5
-1.132, -1.914e-5
-1.131, -1.881e-5
-1.130, -1.896e-5
-1.129, -1.971e-5
-1.128, -1.983e-5
-1.127, -1.948e-5
-1.126, -1.922e-5
-1.125, -1.933e-5
-1.124, -2.003e-5
-1.123, -2.037e-5
-1.122, -1.991e-5
-1.121, -1.955e-5
-1.120, -1.975e-5
-1.119, -2.048e-5
-1.118, -2.076e-5
-1.117, -2.032e-5
-1.116, -1.999e-5
-1.115, -2.033e-5
-1.114, -2.088e-5
-1.113, -2.135e-5
-1.112, -2.082e-5
-1.111, -2.059e-5
-1.110, -2.078e-5
-1.109, -2.150e-5
-1.108, -2.179e-5
-1.107, -2.155e-5
-1.106, -2.113e-5
-1.105, -2.150e-5
-1.104, -2.212e-5
-1.103, -2.244e-5
-1.102, -2.221e-5
-1.101, -2.188e-5
-1.100, -2.208e-5
-1.099, -2.293e-5
-1.098, -2.317e-5
-1.097, -2.304e-5
-1.096, -2.257e-5
-1.095, -2.289e-5
-1.094, -2.376e-5
-1.093, -2.401e-5
-1.092, -2.379e-5
-1.091, -2.352e-5
-1.090, -2.377e-5
-1.089, -2.460e-5
-1.088, -2.494e-5
-1.087, -2.463e-5
-1.086, -2.449e-5
-1.085, -2.468e-5
-1.084, -2.554e-5
-1.083, -2.596e-5
-1.082, -2.570e-5
-1.081, -2.559e-5
-1.080, -2.570e-5
-1.079, -2.661e-5
-1.078, -2.727e-5
-1.077, -2.674e-5
-1.076, -2.658e-5
-1.075, -2.707e-5
-1.074, -2.782e-5
-1.073, -2.847e-5
-1.072, -2.797e-5
-1.071, -2.785e-5
-1.070, -2.827e-5
-1.069, -2.902e-5
-1.068, -2.962e-5
-1.067, -2.948e-5
-1.066, -2.910e-5
-1.065, -2.962e-5
-1.064, -3.050e-5
-1.063, -3.098e-5
-1.062, -3.095e-5
-1.061, -3.070e-5
-1.060, -3.098e-5
-1.059, -3.220e-5
-1.058, -3.249e-5
-1.057, -3.251e-5
-1.056, -3.219e-5
-1.055, -3.259e-5
-1.054, -3.378e-5
-1.053, -3.426e-5
-1.052, -3.420e-5
-1.051, -3.395e-5
-1.050, -3.451e-5
-1.049, -3.550e-5
-1.048, -3.611e-5
-1.047, -3.601e-5
-1.046, -3.591e-5
-1.045, -3.627e-5
-1.044, -3.741e-5
-1.043, -3.815e-5
-1.042, -3.796e-5
-1.041, -3.800e-5
-1.040, -3.830e-5
-1.039, -3.948e-5
-1.038, -4.030e-5
-1.037, -4.014e-5
-1.036, -4.002e-5
-1.035, -4.068e-5
-1.034, -4.176e-5
-1.033, -4.246e-5
-1.032, -4.247e-5
-1.031, -4.222e-5
-1.030, -4.295e-5
-1.029, -4.394e-5
-1.028, -4.490e-5
-1.027, -4.502e-5
-1.026, -4.471e-5
-1.025, -4.550e-5
-1.024, -4.665e-5
-1.023, -4.769e-5
-1.022, -4.750e-5
-1.021, -4.743e-5
-1.020, -4.812e-5
-1.019, -4.964e-5
-1.018, -5.022e-5
-1.017, -5.052e-5
-1.016, -5.025e-5
-1.015, -5.106e-5
-1.014, -5.237e-5
-1.013, -5.319e-5
-1.012, -5.335e-5
-1.011, -5.351e-5
-1.010, -5.411e-5
-1.009, -5.568e-5
-1.008, -5.631e-5
-1.007, -5.659e-5
-1.006, -5.683e-5
-1.005, -5.739e-5
-1.004, -5.888e-5
-1.003, -6.012e-5
-1.002, -5.993e-5
-1.001, -6.036e-5
