Apr. 3, 2025   07:18:53
Linear Sweep Voltammetry
File: c:/users/guazh/data/banditlqround7_x0exp518_r20/2025-03-28-exp1027\post-regen1-2025-04-03t07_15_39-lsvinphos\post-regen1_lsv_50mvs_efin_-2300mv.bin
Data Source:  Experiment
Instrument Model:  CHI760E
Header: LSV ran at 50 mVs with Efin at -2300mV
Note: 

Init E (V) = -0.6
Final E (V) = -2.3
Scan Rate (V/s) = 0.05
Sample Interval (V) = 0.001
Quiet Time (sec) = 2
Sensitivity (A/V) = 1e-4
Comp R (ohm) = 9.5

Results:

Channel 1:
Ep = -1.887V
ip = 8.887e-4A
Ah = 1.274e-3C

Potential/V, Current/A

-0.600, 2.690e-6
-0.601, 2.795e-6
-0.602, 2.836e-6
-0.603, 2.870e-6
-0.604, 2.898e-6
-0.605, 2.927e-6
-0.606, 2.955e-6
-0.607, 2.982e-6
-0.608, 3.012e-6
-0.609, 3.038e-6
-0.610, 3.065e-6
-0.611, 3.093e-6
-0.612, 3.120e-6
-0.613, 3.148e-6
-0.614, 3.176e-6
-0.615, 3.203e-6
-0.616, 3.229e-6
-0.617, 3.256e-6
-0.618, 3.284e-6
-0.619, 3.311e-6
-0.620, 3.339e-6
-0.621, 3.366e-6
-0.622, 3.394e-6
-0.623, 3.424e-6
-0.624, 3.452e-6
-0.625, 3.480e-6
-0.626, 3.506e-6
-0.627, 3.534e-6
-0.628, 3.566e-6
-0.629, 3.594e-6
-0.630, 3.621e-6
-0.631, 3.650e-6
-0.632, 3.679e-6
-0.633, 3.711e-6
-0.634, 3.739e-6
-0.635, 3.766e-6
-0.636, 3.796e-6
-0.637, 3.826e-6
-0.638, 3.858e-6
-0.639, 3.886e-6
-0.640, 3.915e-6
-0.641, 3.946e-6
-0.642, 3.974e-6
-0.643, 4.005e-6
-0.644, 4.034e-6
-0.645, 4.063e-6
-0.646, 4.094e-6
-0.647, 4.124e-6
-0.648, 4.156e-6
-0.649, 4.186e-6
-0.650, 4.212e-6
-0.651, 4.242e-6
-0.652, 4.272e-6
-0.653, 4.305e-6
-0.654, 4.336e-6
-0.655, 4.365e-6
-0.656, 4.396e-6
-0.657, 4.430e-6
-0.658, 4.462e-6
-0.659, 4.494e-6
-0.660, 4.525e-6
-0.661, 4.555e-6
-0.662, 4.588e-6
-0.663, 4.620e-6
-0.664, 4.651e-6
-0.665, 4.682e-6
-0.666, 4.713e-6
-0.667, 4.743e-6
-0.668, 4.777e-6
-0.669, 4.809e-6
-0.670, 4.839e-6
-0.671, 4.869e-6
-0.672, 4.902e-6
-0.673, 4.936e-6
-0.674, 4.967e-6
-0.675, 4.998e-6
-0.676, 5.030e-6
-0.677, 5.061e-6
-0.678, 5.096e-6
-0.679, 5.125e-6
-0.680, 5.155e-6
-0.681, 5.186e-6
-0.682, 5.217e-6
-0.683, 5.252e-6
-0.684, 5.284e-6
-0.685, 5.314e-6
-0.686, 5.344e-6
-0.687, 5.374e-6
-0.688, 5.406e-6
-0.689, 5.437e-6
-0.690, 5.467e-6
-0.691, 5.500e-6
-0.692, 5.532e-6
-0.693, 5.563e-6
-0.694, 5.595e-6
-0.695, 5.626e-6
-0.696, 5.654e-6
-0.697, 5.685e-6
-0.698, 5.718e-6
-0.699, 5.746e-6
-0.700, 5.775e-6
-0.701, 5.805e-6
-0.702, 5.837e-6
-0.703, 5.867e-6
-0.704, 5.894e-6
-0.705, 5.922e-6
-0.706, 5.946e-6
-0.707, 5.975e-6
-0.708, 6.005e-6
-0.709, 6.032e-6
-0.710, 6.058e-6
-0.711, 6.085e-6
-0.712, 6.115e-6
-0.713, 6.143e-6
-0.714, 6.167e-6
-0.715, 6.193e-6
-0.716, 6.215e-6
-0.717, 6.241e-6
-0.718, 6.269e-6
-0.719, 6.292e-6
-0.720, 6.317e-6
-0.721, 6.341e-6
-0.722, 6.366e-6
-0.723, 6.393e-6
-0.724, 6.416e-6
-0.725, 6.436e-6
-0.726, 6.459e-6
-0.727, 6.482e-6
-0.728, 6.505e-6
-0.729, 6.527e-6
-0.730, 6.548e-6
-0.731, 6.570e-6
-0.732, 6.592e-6
-0.733, 6.613e-6
-0.734, 6.633e-6
-0.735, 6.653e-6
-0.736, 6.671e-6
-0.737, 6.693e-6
-0.738, 6.712e-6
-0.739, 6.731e-6
-0.740, 6.749e-6
-0.741, 6.764e-6
-0.742, 6.782e-6
-0.743, 6.801e-6
-0.744, 6.816e-6
-0.745, 6.831e-6
-0.746, 6.846e-6
-0.747, 6.862e-6
-0.748, 6.877e-6
-0.749, 6.891e-6
-0.750, 6.903e-6
-0.751, 6.916e-6
-0.752, 6.928e-6
-0.753, 6.943e-6
-0.754, 6.953e-6
-0.755, 6.967e-6
-0.756, 6.980e-6
-0.757, 6.991e-6
-0.758, 7.002e-6
-0.759, 7.011e-6
-0.760, 7.019e-6
-0.761, 7.025e-6
-0.762, 7.034e-6
-0.763, 7.045e-6
-0.764, 7.052e-6
-0.765, 7.057e-6
-0.766, 7.065e-6
-0.767, 7.073e-6
-0.768, 7.082e-6
-0.769, 7.087e-6
-0.770, 7.091e-6
-0.771, 7.097e-6
-0.772, 7.101e-6
-0.773, 7.104e-6
-0.774, 7.107e-6
-0.775, 7.108e-6
-0.776, 7.110e-6
-0.777, 7.114e-6
-0.778, 7.118e-6
-0.779, 7.118e-6
-0.780, 7.120e-6
-0.781, 7.120e-6
-0.782, 7.124e-6
-0.783, 7.124e-6
-0.784, 7.122e-6
-0.785, 7.123e-6
-0.786, 7.119e-6
-0.787, 7.120e-6
-0.788, 7.122e-6
-0.789, 7.118e-6
-0.790, 7.114e-6
-0.791, 7.110e-6
-0.792, 7.109e-6
-0.793, 7.108e-6
-0.794, 7.105e-6
-0.795, 7.104e-6
-0.796, 7.100e-6
-0.797, 7.094e-6
-0.798, 7.091e-6
-0.799, 7.083e-6
-0.800, 7.078e-6
-0.801, 7.072e-6
-0.802, 7.065e-6
-0.803, 7.062e-6
-0.804, 7.053e-6
-0.805, 7.046e-6
-0.806, 7.040e-6
-0.807, 7.035e-6
-0.808, 7.031e-6
-0.809, 7.021e-6
-0.810, 7.013e-6
-0.811, 7.006e-6
-0.812, 7.000e-6
-0.813, 6.994e-6
-0.814, 6.985e-6
-0.815, 6.974e-6
-0.816, 6.965e-6
-0.817, 6.959e-6
-0.818, 6.950e-6
-0.819, 6.944e-6
-0.820, 6.935e-6
-0.821, 6.922e-6
-0.822, 6.915e-6
-0.823, 6.907e-6
-0.824, 6.896e-6
-0.825, 6.885e-6
-0.826, 6.874e-6
-0.827, 6.868e-6
-0.828, 6.860e-6
-0.829, 6.849e-6
-0.830, 6.837e-6
-0.831, 6.825e-6
-0.832, 6.817e-6
-0.833, 6.808e-6
-0.834, 6.795e-6
-0.835, 6.784e-6
-0.836, 6.772e-6
-0.837, 6.762e-6
-0.838, 6.754e-6
-0.839, 6.743e-6
-0.840, 6.731e-6
-0.841, 6.719e-6
-0.842, 6.710e-6
-0.843, 6.701e-6
-0.844, 6.689e-6
-0.845, 6.675e-6
-0.846, 6.664e-6
-0.847, 6.655e-6
-0.848, 6.646e-6
-0.849, 6.638e-6
-0.850, 6.624e-6
-0.851, 6.616e-6
-0.852, 6.606e-6
-0.853, 6.596e-6
-0.854, 6.586e-6
-0.855, 6.573e-6
-0.856, 6.558e-6
-0.857, 6.547e-6
-0.858, 6.538e-6
-0.859, 6.525e-6
-0.860, 6.513e-6
-0.861, 6.503e-6
-0.862, 6.495e-6
-0.863, 6.484e-6
-0.864, 6.473e-6
-0.865, 6.463e-6
-0.866, 6.450e-6
-0.867, 6.441e-6
-0.868, 6.432e-6
-0.869, 6.420e-6
-0.870, 6.409e-6
-0.871, 6.398e-6
-0.872, 6.389e-6
-0.873, 6.379e-6
-0.874, 6.365e-6
-0.875, 6.353e-6
-0.876, 6.341e-6
-0.877, 6.333e-6
-0.878, 6.325e-6
-0.879, 6.312e-6
-0.880, 6.304e-6
-0.881, 6.293e-6
-0.882, 6.281e-6
-0.883, 6.272e-6
-0.884, 6.263e-6
-0.885, 6.251e-6
-0.886, 6.243e-6
-0.887, 6.236e-6
-0.888, 6.227e-6
-0.889, 6.217e-6
-0.890, 6.208e-6
-0.891, 6.199e-6
-0.892, 6.192e-6
-0.893, 6.185e-6
-0.894, 6.176e-6
-0.895, 6.167e-6
-0.896, 6.159e-6
-0.897, 6.151e-6
-0.898, 6.142e-6
-0.899, 6.132e-6
-0.900, 6.124e-6
-0.901, 6.116e-6
-0.902, 6.107e-6
-0.903, 6.098e-6
-0.904, 6.088e-6
-0.905, 6.078e-6
-0.906, 6.069e-6
-0.907, 6.061e-6
-0.908, 6.054e-6
-0.909, 6.046e-6
-0.910, 6.038e-6
-0.911, 6.030e-6
-0.912, 6.023e-6
-0.913, 6.015e-6
-0.914, 6.001e-6
-0.915, 5.993e-6
-0.916, 5.985e-6
-0.917, 5.980e-6
-0.918, 5.973e-6
-0.919, 5.966e-6
-0.920, 5.959e-6
-0.921, 5.955e-6
-0.922, 5.948e-6
-0.923, 5.942e-6
-0.924, 5.934e-6
-0.925, 5.926e-6
-0.926, 5.922e-6
-0.927, 5.920e-6
-0.928, 5.914e-6
-0.929, 5.909e-6
-0.930, 5.899e-6
-0.931, 5.890e-6
-0.932, 5.888e-6
-0.933, 5.881e-6
-0.934, 5.873e-6
-0.935, 5.866e-6
-0.936, 5.865e-6
-0.937, 5.864e-6
-0.938, 5.858e-6
-0.939, 5.851e-6
-0.940, 5.842e-6
-0.941, 5.836e-6
-0.942, 5.833e-6
-0.943, 5.826e-6
-0.944, 5.821e-6
-0.945, 5.815e-6
-0.946, 5.807e-6
-0.947, 5.802e-6
-0.948, 5.800e-6
-0.949, 5.790e-6
-0.950, 5.784e-6
-0.951, 5.778e-6
-0.952, 5.778e-6
-0.953, 5.772e-6
-0.954, 5.768e-6
-0.955, 5.766e-6
-0.956, 5.764e-6
-0.957, 5.759e-6
-0.958, 5.754e-6
-0.959, 5.747e-6
-0.960, 5.743e-6
-0.961, 5.739e-6
-0.962, 5.732e-6
-0.963, 5.730e-6
-0.964, 5.725e-6
-0.965, 5.718e-6
-0.966, 5.716e-6
-0.967, 5.717e-6
-0.968, 5.710e-6
-0.969, 5.698e-6
-0.970, 5.691e-6
-0.971, 5.692e-6
-0.972, 5.687e-6
-0.973, 5.687e-6
-0.974, 5.686e-6
-0.975, 5.691e-6
-0.976, 5.679e-6
-0.977, 5.681e-6
-0.978, 5.670e-6
-0.979, 5.665e-6
-0.980, 5.664e-6
-0.981, 5.670e-6
-0.982, 5.662e-6
-0.983, 5.670e-6
-0.984, 5.662e-6
-0.985, 5.657e-6
-0.986, 5.641e-6
-0.987, 5.636e-6
-0.988, 5.638e-6
-0.989, 5.631e-6
-0.990, 5.624e-6
-0.991, 5.621e-6
-0.992, 5.622e-6
-0.993, 5.616e-6
-0.994, 5.610e-6
-0.995, 5.610e-6
-0.996, 5.606e-6
-0.997, 5.605e-6
-0.998, 5.602e-6
-0.999, 5.599e-6
-1.000, 5.592e-6
-1.001, 5.590e-6
-1.002, 5.586e-6
-1.003, 5.585e-6
-1.004, 5.579e-6
-1.005, 5.578e-6
-1.006, 5.576e-6
-1.007, 5.574e-6
-1.008, 5.574e-6
-1.009, 5.572e-6
-1.010, 5.575e-6
-1.011, 5.570e-6
-1.012, 5.561e-6
-1.013, 5.555e-6
-1.014, 5.554e-6
-1.015, 5.549e-6
-1.016, 5.545e-6
-1.017, 5.543e-6
-1.018, 5.543e-6
-1.019, 5.544e-6
-1.020, 5.538e-6
-1.021, 5.538e-6
-1.022, 5.545e-6
-1.023, 5.541e-6
-1.024, 5.538e-6
-1.025, 5.532e-6
-1.026, 5.531e-6
-1.027, 5.532e-6
-1.028, 5.530e-6
-1.029, 5.528e-6
-1.030, 5.526e-6
-1.031, 5.521e-6
-1.032, 5.519e-6
-1.033, 5.518e-6
-1.034, 5.516e-6
-1.035, 5.513e-6
-1.036, 5.509e-6
-1.037, 5.511e-6
-1.038, 5.507e-6
-1.039, 5.503e-6
-1.040, 5.502e-6
-1.041, 5.506e-6
-1.042, 5.508e-6
-1.043, 5.504e-6
-1.044, 5.503e-6
-1.045, 5.505e-6
-1.046, 5.507e-6
-1.047, 5.508e-6
-1.048, 5.510e-6
-1.049, 5.502e-6
-1.050, 5.500e-6
-1.051, 5.498e-6
-1.052, 5.501e-6
-1.053, 5.506e-6
-1.054, 5.510e-6
-1.055, 5.511e-6
-1.056, 5.511e-6
-1.057, 5.507e-6
-1.058, 5.506e-6
-1.059, 5.499e-6
-1.060, 5.491e-6
-1.061, 5.495e-6
-1.062, 5.510e-6
-1.063, 5.514e-6
-1.064, 5.520e-6
-1.065, 5.514e-6
-1.066, 5.523e-6
-1.067, 5.529e-6
-1.068, 5.527e-6
-1.069, 5.549e-6
-1.070, 5.550e-6
-1.071, 5.577e-6
-1.072, 5.567e-6
-1.073, 5.560e-6
-1.074, 5.544e-6
-1.075, 5.558e-6
-1.076, 5.560e-6
-1.077, 5.565e-6
-1.078, 5.571e-6
-1.079, 5.572e-6
-1.080, 5.579e-6
-1.081, 5.580e-6
-1.082, 5.583e-6
-1.083, 5.587e-6
-1.084, 5.591e-6
-1.085, 5.600e-6
-1.086, 5.606e-6
-1.087, 5.602e-6
-1.088, 5.597e-6
-1.089, 5.589e-6
-1.090, 5.589e-6
-1.091, 5.599e-6
-1.092, 5.600e-6
-1.093, 5.601e-6
-1.094, 5.601e-6
-1.095, 5.605e-6
-1.096, 5.606e-6
-1.097, 5.613e-6
-1.098, 5.612e-6
-1.099, 5.613e-6
-1.100, 5.613e-6
-1.101, 5.615e-6
-1.102, 5.621e-6
-1.103, 5.620e-6
-1.104, 5.619e-6
-1.105, 5.622e-6
-1.106, 5.619e-6
-1.107, 5.621e-6
-1.108, 5.621e-6
-1.109, 5.620e-6
-1.110, 5.621e-6
-1.111, 5.623e-6
-1.112, 5.629e-6
-1.113, 5.628e-6
-1.114, 5.625e-6
-1.115, 5.625e-6
-1.116, 5.626e-6
-1.117, 5.631e-6
-1.118, 5.635e-6
-1.119, 5.633e-6
-1.120, 5.633e-6
-1.121, 5.632e-6
-1.122, 5.633e-6
-1.123, 5.634e-6
-1.124, 5.639e-6
-1.125, 5.644e-6
-1.126, 5.644e-6
-1.127, 5.638e-6
-1.128, 5.643e-6
-1.129, 5.644e-6
-1.130, 5.645e-6
-1.131, 5.647e-6
-1.132, 5.651e-6
-1.133, 5.654e-6
-1.134, 5.658e-6
-1.135, 5.662e-6
-1.136, 5.667e-6
-1.137, 5.666e-6
-1.138, 5.661e-6
-1.139, 5.667e-6
-1.140, 5.667e-6
-1.141, 5.668e-6
-1.142, 5.667e-6
-1.143, 5.666e-6
-1.144, 5.667e-6
-1.145, 5.676e-6
-1.146, 5.682e-6
-1.147, 5.686e-6
-1.148, 5.690e-6
-1.149, 5.689e-6
-1.150, 5.698e-6
-1.151, 5.709e-6
-1.152, 5.702e-6
-1.153, 5.700e-6
-1.154, 5.704e-6
-1.155, 5.707e-6
-1.156, 5.711e-6
-1.157, 5.712e-6
-1.158, 5.712e-6
-1.159, 5.711e-6
-1.160, 5.717e-6
-1.161, 5.723e-6
-1.162, 5.720e-6
-1.163, 5.716e-6
-1.164, 5.725e-6
-1.165, 5.727e-6
-1.166, 5.729e-6
-1.167, 5.729e-6
-1.168, 5.733e-6
-1.169, 5.735e-6
-1.170, 5.733e-6
-1.171, 5.748e-6
-1.172, 5.752e-6
-1.173, 5.749e-6
-1.174, 5.747e-6
-1.175, 5.751e-6
-1.176, 5.760e-6
-1.177, 5.766e-6
-1.178, 5.776e-6
-1.179, 5.777e-6
-1.180, 5.773e-6
-1.181, 5.776e-6
-1.182, 5.785e-6
-1.183, 5.780e-6
-1.184, 5.775e-6
-1.185, 5.774e-6
-1.186, 5.777e-6
-1.187, 5.782e-6
-1.188, 5.791e-6
-1.189, 5.792e-6
-1.190, 5.791e-6
-1.191, 5.803e-6
-1.192, 5.810e-6
-1.193, 5.811e-6
-1.194, 5.810e-6
-1.195, 5.812e-6
-1.196, 5.817e-6
-1.197, 5.825e-6
-1.198, 5.832e-6
-1.199, 5.834e-6
-1.200, 5.823e-6
-1.201, 5.821e-6
-1.202, 5.822e-6
-1.203, 5.824e-6
-1.204, 5.828e-6
-1.205, 5.836e-6
-1.206, 5.838e-6
-1.207, 5.841e-6
-1.208, 5.851e-6
-1.209, 5.857e-6
-1.210, 5.864e-6
-1.211, 5.874e-6
-1.212, 5.876e-6
-1.213, 5.881e-6
-1.214, 5.887e-6
-1.215, 5.886e-6
-1.216, 5.883e-6
-1.217, 5.883e-6
-1.218, 5.876e-6
-1.219, 5.878e-6
-1.220, 5.879e-6
-1.221, 5.877e-6
-1.222, 5.880e-6
-1.223, 5.883e-6
-1.224, 5.886e-6
-1.225, 5.892e-6
-1.226, 5.894e-6
-1.227, 5.892e-6
-1.228, 5.895e-6
-1.229, 5.898e-6
-1.230, 5.900e-6
-1.231, 5.905e-6
-1.232, 5.908e-6
-1.233, 5.912e-6
-1.234, 5.922e-6
-1.235, 5.927e-6
-1.236, 5.929e-6
-1.237, 5.937e-6
-1.238, 5.943e-6
-1.239, 5.941e-6
-1.240, 5.943e-6
-1.241, 5.944e-6
-1.242, 5.946e-6
-1.243, 5.948e-6
-1.244, 5.950e-6
-1.245, 5.949e-6
-1.246, 5.954e-6
-1.247, 5.958e-6
-1.248, 5.959e-6
-1.249, 5.964e-6
-1.250, 5.967e-6
-1.251, 5.973e-6
-1.252, 5.975e-6
-1.253, 5.978e-6
-1.254, 5.984e-6
-1.255, 5.975e-6
-1.256, 5.977e-6
-1.257, 5.983e-6
-1.258, 5.988e-6
-1.259, 5.995e-6
-1.260, 5.998e-6
-1.261, 5.999e-6
-1.262, 6.003e-6
-1.263, 6.005e-6
-1.264, 6.008e-6
-1.265, 6.010e-6
-1.266, 6.017e-6
-1.267, 6.023e-6
-1.268, 6.025e-6
-1.269, 6.028e-6
-1.270, 6.035e-6
-1.271, 6.043e-6
-1.272, 6.047e-6
-1.273, 6.050e-6
-1.274, 6.052e-6
-1.275, 6.059e-6
-1.276, 6.067e-6
-1.277, 6.069e-6
-1.278, 6.072e-6
-1.279, 6.076e-6
-1.280, 6.084e-6
-1.281, 6.094e-6
-1.282, 6.097e-6
-1.283, 6.103e-6
-1.284, 6.106e-6
-1.285, 6.110e-6
-1.286, 6.120e-6
-1.287, 6.126e-6
-1.288, 6.128e-6
-1.289, 6.132e-6
-1.290, 6.139e-6
-1.291, 6.145e-6
-1.292, 6.148e-6
-1.293, 6.152e-6
-1.294, 6.155e-6
-1.295, 6.161e-6
-1.296, 6.169e-6
-1.297, 6.173e-6
-1.298, 6.182e-6
-1.299, 6.186e-6
-1.300, 6.190e-6
-1.301, 6.196e-6
-1.302, 6.202e-6
-1.303, 6.207e-6
-1.304, 6.210e-6
-1.305, 6.215e-6
-1.306, 6.222e-6
-1.307, 6.228e-6
-1.308, 6.232e-6
-1.309, 6.234e-6
-1.310, 6.240e-6
-1.311, 6.249e-6
-1.312, 6.256e-6
-1.313, 6.262e-6
-1.314, 6.267e-6
-1.315, 6.276e-6
-1.316, 6.285e-6
-1.317, 6.292e-6
-1.318, 6.300e-6
-1.319, 6.308e-6
-1.320, 6.315e-6
-1.321, 6.323e-6
-1.322, 6.329e-6
-1.323, 6.329e-6
-1.324, 6.334e-6
-1.325, 6.341e-6
-1.326, 6.349e-6
-1.327, 6.354e-6
-1.328, 6.361e-6
-1.329, 6.368e-6
-1.330, 6.374e-6
-1.331, 6.380e-6
-1.332, 6.389e-6
-1.333, 6.396e-6
-1.334, 6.407e-6
-1.335, 6.416e-6
-1.336, 6.427e-6
-1.337, 6.432e-6
-1.338, 6.442e-6
-1.339, 6.453e-6
-1.340, 6.461e-6
-1.341, 6.468e-6
-1.342, 6.478e-6
-1.343, 6.484e-6
-1.344, 6.492e-6
-1.345, 6.504e-6
-1.346, 6.519e-6
-1.347, 6.529e-6
-1.348, 6.536e-6
-1.349, 6.536e-6
-1.350, 6.543e-6
-1.351, 6.552e-6
-1.352, 6.560e-6
-1.353, 6.569e-6
-1.354, 6.584e-6
-1.355, 6.595e-6
-1.356, 6.605e-6
-1.357, 6.615e-6
-1.358, 6.622e-6
-1.359, 6.630e-6
-1.360, 6.639e-6
-1.361, 6.654e-6
-1.362, 6.665e-6
-1.363, 6.674e-6
-1.364, 6.683e-6
-1.365, 6.694e-6
-1.366, 6.709e-6
-1.367, 6.712e-6
-1.368, 6.722e-6
-1.369, 6.731e-6
-1.370, 6.740e-6
-1.371, 6.754e-6
-1.372, 6.766e-6
-1.373, 6.772e-6
-1.374, 6.781e-6
-1.375, 6.795e-6
-1.376, 6.808e-6
-1.377, 6.817e-6
-1.378, 6.825e-6
-1.379, 6.836e-6
-1.380, 6.848e-6
-1.381, 6.859e-6
-1.382, 6.872e-6
-1.383, 6.883e-6
-1.384, 6.889e-6
-1.385, 6.904e-6
-1.386, 6.917e-6
-1.387, 6.926e-6
-1.388, 6.933e-6
-1.389, 6.938e-6
-1.390, 6.950e-6
-1.391, 6.964e-6
-1.392, 6.969e-6
-1.393, 6.980e-6
-1.394, 6.986e-6
-1.395, 6.998e-6
-1.396, 7.015e-6
-1.397, 7.027e-6
-1.398, 7.038e-6
-1.399, 7.050e-6
-1.400, 7.065e-6
-1.401, 7.081e-6
-1.402, 7.095e-6
-1.403, 7.105e-6
-1.404, 7.116e-6
-1.405, 7.132e-6
-1.406, 7.144e-6
-1.407, 7.146e-6
-1.408, 7.164e-6
-1.409, 7.180e-6
-1.410, 7.189e-6
-1.411, 7.216e-6
-1.412, 7.232e-6
-1.413, 7.247e-6
-1.414, 7.270e-6
-1.415, 7.273e-6
-1.416, 7.282e-6
-1.417, 7.292e-6
-1.418, 7.296e-6
-1.419, 7.311e-6
-1.420, 7.334e-6
-1.421, 7.358e-6
-1.422, 7.363e-6
-1.423, 7.380e-6
-1.424, 7.390e-6
-1.425, 7.403e-6
-1.426, 7.397e-6
-1.427, 7.406e-6
-1.428, 7.416e-6
-1.429, 7.431e-6
-1.430, 7.446e-6
-1.431, 7.464e-6
-1.432, 7.483e-6
-1.433, 7.501e-6
-1.434, 7.517e-6
-1.435, 7.556e-6
-1.436, 7.619e-6
-1.437, 7.653e-6
-1.438, 7.669e-6
-1.439, 7.670e-6
-1.440, 7.690e-6
-1.441, 7.717e-6
-1.442, 7.723e-6
-1.443, 7.733e-6
-1.444, 7.765e-6
-1.445, 7.775e-6
-1.446, 7.795e-6
-1.447, 7.830e-6
-1.448, 7.856e-6
-1.449, 7.873e-6
-1.450, 7.886e-6
-1.451, 7.888e-6
-1.452, 7.898e-6
-1.453, 7.932e-6
-1.454, 7.950e-6
-1.455, 7.951e-6
-1.456, 7.971e-6
-1.457, 7.983e-6
-1.458, 7.984e-6
-1.459, 8.010e-6
-1.460, 8.035e-6
-1.461, 8.059e-6
-1.462, 8.078e-6
-1.463, 8.097e-6
-1.464, 8.122e-6
-1.465, 8.155e-6
-1.466, 8.168e-6
-1.467, 8.188e-6
-1.468, 8.217e-6
-1.469, 8.234e-6
-1.470, 8.264e-6
-1.471, 8.278e-6
-1.472, 8.296e-6
-1.473, 8.319e-6
-1.474, 8.326e-6
-1.475, 8.340e-6
-1.476, 8.364e-6
-1.477, 8.392e-6
-1.478, 8.409e-6
-1.479, 8.426e-6
-1.480, 8.444e-6
-1.481, 8.460e-6
-1.482, 8.482e-6
-1.483, 8.506e-6
-1.484, 8.524e-6
-1.485, 8.552e-6
-1.486, 8.574e-6
-1.487, 8.599e-6
-1.488, 8.629e-6
-1.489, 8.651e-6
-1.490, 8.664e-6
-1.491, 8.703e-6
-1.492, 8.740e-6
-1.493, 8.778e-6
-1.494, 8.803e-6
-1.495, 8.822e-6
-1.496, 8.836e-6
-1.497, 8.859e-6
-1.498, 8.892e-6
-1.499, 8.916e-6
-1.500, 8.944e-6
-1.501, 8.969e-6
-1.502, 8.986e-6
-1.503, 9.010e-6
-1.504, 9.039e-6
-1.505, 9.071e-6
-1.506, 9.099e-6
-1.507, 9.124e-6
-1.508, 9.154e-6
-1.509, 9.187e-6
-1.510, 9.240e-6
-1.511, 9.266e-6
-1.512, 9.287e-6
-1.513, 9.324e-6
-1.514, 9.355e-6
-1.515, 9.396e-6
-1.516, 9.432e-6
-1.517, 9.457e-6
-1.518, 9.483e-6
-1.519, 9.519e-6
-1.520, 9.553e-6
-1.521, 9.589e-6
-1.522, 9.622e-6
-1.523, 9.656e-6
-1.524, 9.692e-6
-1.525, 9.717e-6
-1.526, 9.759e-6
-1.527, 9.791e-6
-1.528, 9.823e-6
-1.529, 9.866e-6
-1.530, 9.913e-6
-1.531, 9.960e-6
-1.532, 9.996e-6
-1.533, 1.004e-5
-1.534, 1.009e-5
-1.535, 1.013e-5
-1.536, 1.016e-5
-1.537, 1.020e-5
-1.538, 1.025e-5
-1.539, 1.030e-5
-1.540, 1.035e-5
-1.541, 1.039e-5
-1.542, 1.044e-5
-1.543, 1.048e-5
-1.544, 1.053e-5
-1.545, 1.058e-5
-1.546, 1.063e-5
-1.547, 1.069e-5
-1.548, 1.074e-5
-1.549, 1.080e-5
-1.550, 1.085e-5
-1.551, 1.089e-5
-1.552, 1.094e-5
-1.553, 1.100e-5
-1.554, 1.106e-5
-1.555, 1.111e-5
-1.556, 1.117e-5
-1.557, 1.123e-5
-1.558, 1.128e-5
-1.559, 1.133e-5
-1.560, 1.140e-5
-1.561, 1.146e-5
-1.562, 1.153e-5
-1.563, 1.158e-5
-1.564, 1.164e-5
-1.565, 1.170e-5
-1.566, 1.177e-5
-1.567, 1.184e-5
-1.568, 1.191e-5
-1.569, 1.197e-5
-1.570, 1.203e-5
-1.571, 1.209e-5
-1.572, 1.215e-5
-1.573, 1.222e-5
-1.574, 1.230e-5
-1.575, 1.237e-5
-1.576, 1.244e-5
-1.577, 1.252e-5
-1.578, 1.258e-5
-1.579, 1.266e-5
-1.580, 1.275e-5
-1.581, 1.284e-5
-1.582, 1.293e-5
-1.583, 1.301e-5
-1.584, 1.309e-5
-1.585, 1.317e-5
-1.586, 1.325e-5
-1.587, 1.333e-5
-1.588, 1.343e-5
-1.589, 1.352e-5
-1.590, 1.362e-5
-1.591, 1.372e-5
-1.592, 1.382e-5
-1.593, 1.392e-5
-1.594, 1.403e-5
-1.595, 1.413e-5
-1.596, 1.424e-5
-1.597, 1.435e-5
-1.598, 1.445e-5
-1.599, 1.456e-5
-1.600, 1.467e-5
-1.601, 1.478e-5
-1.602, 1.490e-5
-1.603, 1.501e-5
-1.604, 1.514e-5
-1.605, 1.527e-5
-1.606, 1.541e-5
-1.607, 1.553e-5
-1.608, 1.566e-5
-1.609, 1.580e-5
-1.610, 1.594e-5
-1.611, 1.609e-5
-1.612, 1.623e-5
-1.613, 1.637e-5
-1.614, 1.652e-5
-1.615, 1.667e-5
-1.616, 1.682e-5
-1.617, 1.698e-5
-1.618, 1.714e-5
-1.619, 1.730e-5
-1.620, 1.747e-5
-1.621, 1.765e-5
-1.622, 1.782e-5
-1.623, 1.800e-5
-1.624, 1.818e-5
-1.625, 1.838e-5
-1.626, 1.857e-5
-1.627, 1.876e-5
-1.628, 1.897e-5
-1.629, 1.918e-5
-1.630, 1.939e-5
-1.631, 1.959e-5
-1.632, 1.980e-5
-1.633, 2.003e-5
-1.634, 2.026e-5
-1.635, 2.051e-5
-1.636, 2.075e-5
-1.637, 2.099e-5
-1.638, 2.125e-5
-1.639, 2.153e-5
-1.640, 2.180e-5
-1.641, 2.207e-5
-1.642, 2.234e-5
-1.643, 2.262e-5
-1.644, 2.292e-5
-1.645, 2.323e-5
-1.646, 2.354e-5
-1.647, 2.385e-5
-1.648, 2.418e-5
-1.649, 2.451e-5
-1.650, 2.485e-5
-1.651, 2.521e-5
-1.652, 2.557e-5
-1.653, 2.593e-5
-1.654, 2.630e-5
-1.655, 2.669e-5
-1.656, 2.709e-5
-1.657, 2.748e-5
-1.658, 2.789e-5
-1.659, 2.831e-5
-1.660, 2.876e-5
-1.661, 2.921e-5
-1.662, 2.963e-5
-1.663, 3.010e-5
-1.664, 3.059e-5
-1.665, 3.110e-5
-1.666, 3.162e-5
-1.667, 3.216e-5
-1.668, 3.270e-5
-1.669, 3.326e-5
-1.670, 3.383e-5
-1.671, 3.442e-5
-1.672, 3.502e-5
-1.673, 3.562e-5
-1.674, 3.625e-5
-1.675, 3.691e-5
-1.676, 3.759e-5
-1.677, 3.826e-5
-1.678, 3.898e-5
-1.679, 3.970e-5
-1.680, 4.045e-5
-1.681, 4.121e-5
-1.682, 4.198e-5
-1.683, 4.277e-5
-1.684, 4.358e-5
-1.685, 4.442e-5
-1.686, 4.529e-5
-1.687, 4.616e-5
-1.688, 4.707e-5
-1.689, 4.801e-5
-1.690, 4.898e-5
-1.691, 4.996e-5
-1.692, 5.094e-5
-1.693, 5.196e-5
-1.694, 5.302e-5
-1.695, 5.408e-5
-1.696, 5.518e-5
-1.697, 5.631e-5
-1.698, 5.748e-5
-1.699, 5.868e-5
-1.700, 5.990e-5
-1.701, 6.116e-5
-1.702, 6.245e-5
-1.703, 6.378e-5
-1.704, 6.513e-5
-1.705, 6.650e-5
-1.706, 6.790e-5
-1.707, 6.934e-5
-1.708, 7.080e-5
-1.709, 7.226e-5
-1.710, 7.379e-5
-1.711, 7.536e-5
-1.712, 7.698e-5
-1.713, 7.864e-5
-1.714, 8.034e-5
-1.715, 8.206e-5
-1.716, 8.382e-5
-1.717, 8.562e-5
-1.718, 8.745e-5
-1.719, 8.933e-5
-1.720, 9.125e-5
-1.721, 9.321e-5
-1.722, 9.521e-5
-1.723, 9.726e-5
-1.724, 9.934e-5
-1.725, 1.015e-4
-1.726, 1.037e-4
-1.727, 1.059e-4
-1.728, 1.081e-4
-1.729, 1.104e-4
-1.730, 1.128e-4
-1.731, 1.152e-4
-1.732, 1.176e-4
-1.733, 1.201e-4
-1.734, 1.227e-4
-1.735, 1.253e-4
-1.736, 1.279e-4
-1.737, 1.306e-4
-1.738, 1.333e-4
-1.739, 1.361e-4
-1.740, 1.389e-4
-1.741, 1.418e-4
-1.742, 1.447e-4
-1.743, 1.477e-4
-1.744, 1.507e-4
-1.745, 1.538e-4
-1.746, 1.569e-4
-1.747, 1.601e-4
-1.748, 1.633e-4
-1.749, 1.666e-4
-1.750, 1.699e-4
-1.751, 1.733e-4
-1.752, 1.767e-4
-1.753, 1.802e-4
-1.754, 1.837e-4
-1.755, 1.872e-4
-1.756, 1.909e-4
-1.757, 1.945e-4
-1.758, 1.982e-4
-1.759, 2.020e-4
-1.760, 2.058e-4
-1.761, 2.097e-4
-1.762, 2.136e-4
-1.763, 2.176e-4
-1.764, 2.216e-4
-1.765, 2.256e-4
-1.766, 2.297e-4
-1.767, 2.338e-4
-1.768, 2.380e-4
-1.769, 2.423e-4
-1.770, 2.466e-4
-1.771, 2.509e-4
-1.772, 2.553e-4
-1.773, 2.597e-4
-1.774, 2.642e-4
-1.775, 2.687e-4
-1.776, 2.733e-4
-1.777, 2.779e-4
-1.778, 2.825e-4
-1.779, 2.872e-4
-1.780, 2.920e-4
-1.781, 2.967e-4
-1.782, 3.015e-4
-1.783, 3.064e-4
-1.784, 3.113e-4
-1.785, 3.163e-4
-1.786, 3.213e-4
-1.787, 3.263e-4
-1.788, 3.314e-4
-1.789, 3.365e-4
-1.790, 3.417e-4
-1.791, 3.469e-4
-1.792, 3.522e-4
-1.793, 3.575e-4
-1.794, 3.628e-4
-1.795, 3.682e-4
-1.796, 3.736e-4
-1.797, 3.791e-4
-1.798, 3.846e-4
-1.799, 3.901e-4
-1.800, 3.958e-4
-1.801, 4.014e-4
-1.802, 4.070e-4
-1.803, 4.128e-4
-1.804, 4.185e-4
-1.805, 4.243e-4
-1.806, 4.301e-4
-1.807, 4.360e-4
-1.808, 4.419e-4
-1.809, 4.479e-4
-1.810, 4.539e-4
-1.811, 4.599e-4
-1.812, 4.660e-4
-1.813, 4.721e-4
-1.814, 4.783e-4
-1.815, 4.845e-4
-1.816, 4.907e-4
-1.817, 4.970e-4
-1.818, 5.033e-4
-1.819, 5.096e-4
-1.820, 5.160e-4
-1.821, 5.224e-4
-1.822, 5.289e-4
-1.823, 5.354e-4
-1.824, 5.419e-4
-1.825, 5.484e-4
-1.826, 5.550e-4
-1.827, 5.617e-4
-1.828, 5.684e-4
-1.829, 5.751e-4
-1.830, 5.818e-4
-1.831, 5.885e-4
-1.832, 5.953e-4
-1.833, 6.021e-4
-1.834, 6.090e-4
-1.835, 6.159e-4
-1.836, 6.228e-4
-1.837, 6.297e-4
-1.838, 6.367e-4
-1.839, 6.437e-4
-1.840, 6.508e-4
-1.841, 6.579e-4
-1.842, 6.650e-4
-1.843, 6.722e-4
-1.844, 6.793e-4
-1.845, 6.866e-4
-1.846, 6.939e-4
-1.847, 7.013e-4
-1.848, 7.088e-4
-1.849, 7.162e-4
-1.850, 7.237e-4
-1.851, 7.311e-4
-1.852, 7.386e-4
-1.853, 7.461e-4
-1.854, 7.536e-4
-1.855, 7.611e-4
-1.856, 7.687e-4
-1.857, 7.763e-4
-1.858, 7.841e-4
-1.859, 7.919e-4
-1.860, 7.996e-4
-1.861, 8.072e-4
-1.862, 8.149e-4
-1.863, 8.226e-4
-1.864, 8.305e-4
-1.865, 8.384e-4
-1.866, 8.464e-4
-1.867, 8.546e-4
-1.868, 8.627e-4
-1.869, 8.707e-4
-1.870, 8.786e-4
-1.871, 8.865e-4
-1.872, 8.944e-4
-1.873, 9.024e-4
-1.874, 9.104e-4
-1.875, 9.185e-4
-1.876, 9.273e-4
-1.877, 9.362e-4
-1.878, 9.445e-4
-1.879, 9.527e-4
-1.880, 9.609e-4
-1.881, 9.693e-4
-1.882, 9.777e-4
-1.883, 9.859e-4
-1.884, 9.940e-4
-1.885, 1.002e-3
-1.886, 1.010e-3
-1.887, 1.011e-3
-1.888, 1.011e-3
-1.889, 1.011e-3
-1.890, 1.011e-3
-1.891, 1.011e-3
-1.892, 1.011e-3
-1.893, 1.011e-3
-1.894, 1.011e-3
-1.895, 1.011e-3
-1.896, 1.011e-3
-1.897, 1.011e-3
-1.898, 1.011e-3
-1.899, 1.011e-3
-1.900, 1.011e-3
-1.901, 1.011e-3
-1.902, 1.011e-3
-1.903, 1.011e-3
-1.904, 1.011e-3
-1.905, 1.011e-3
-1.906, 1.011e-3
-1.907, 1.011e-3
-1.908, 1.011e-3
-1.909, 1.011e-3
-1.910, 1.011e-3
-1.911, 1.011e-3
-1.912, 1.011e-3
-1.913, 1.011e-3
-1.914, 1.011e-3
-1.915, 1.011e-3
-1.916, 1.011e-3
-1.917, 1.011e-3
-1.918, 1.011e-3
-1.919, 1.011e-3
-1.920, 1.011e-3
-1.921, 1.011e-3
-1.922, 1.011e-3
-1.923, 1.011e-3
-1.924, 1.011e-3
-1.925, 1.011e-3
-1.926, 1.011e-3
-1.927, 1.011e-3
-1.928, 1.011e-3
-1.929, 1.011e-3
-1.930, 1.011e-3
-1.931, 1.011e-3
-1.932, 1.011e-3
-1.933, 1.011e-3
-1.934, 1.011e-3
-1.935, 1.011e-3
-1.936, 1.011e-3
-1.937, 1.011e-3
-1.938, 1.011e-3
-1.939, 1.011e-3
-1.940, 1.011e-3
-1.941, 1.011e-3
-1.942, 1.011e-3
-1.943, 1.011e-3
-1.944, 1.011e-3
-1.945, 1.011e-3
-1.946, 1.011e-3
-1.947, 1.011e-3
-1.948, 1.011e-3
-1.949, 1.011e-3
-1.950, 1.011e-3
-1.951, 1.011e-3
-1.952, 1.011e-3
-1.953, 1.011e-3
-1.954, 1.011e-3
-1.955, 1.011e-3
-1.956, 1.011e-3
-1.957, 1.011e-3
-1.958, 1.011e-3
-1.959, 1.011e-3
-1.960, 1.011e-3
-1.961, 1.011e-3
-1.962, 1.011e-3
-1.963, 1.011e-3
-1.964, 1.011e-3
-1.965, 1.011e-3
-1.966, 1.011e-3
-1.967, 1.011e-3
-1.968, 1.011e-3
-1.969, 1.011e-3
-1.970, 1.011e-3
-1.971, 1.011e-3
-1.972, 1.011e-3
-1.973, 1.011e-3
-1.974, 1.011e-3
-1.975, 1.011e-3
-1.976, 1.011e-3
-1.977, 1.011e-3
-1.978, 1.011e-3
-1.979, 1.011e-3
-1.980, 1.011e-3
-1.981, 1.011e-3
-1.982, 1.011e-3
-1.983, 1.011e-3
-1.984, 1.011e-3
-1.985, 1.011e-3
-1.986, 1.011e-3
-1.987, 1.011e-3
-1.988, 1.011e-3
-1.989, 1.011e-3
-1.990, 1.011e-3
-1.991, 1.011e-3
-1.992, 1.011e-3
-1.993, 1.011e-3
-1.994, 1.011e-3
-1.995, 1.011e-3
-1.996, 1.011e-3
-1.997, 1.011e-3
-1.998, 1.011e-3
-1.999, 1.011e-3
-2.000, 1.011e-3
-2.001, 1.011e-3
-2.002, 1.011e-3
-2.003, 1.011e-3
-2.004, 1.011e-3
-2.005, 1.011e-3
-2.006, 1.011e-3
-2.007, 1.011e-3
-2.008, 1.011e-3
-2.009, 1.011e-3
-2.010, 1.011e-3
-2.011, 1.011e-3
-2.012, 1.011e-3
-2.013, 1.011e-3
-2.014, 1.011e-3
-2.015, 1.011e-3
-2.016, 1.011e-3
-2.017, 1.011e-3
-2.018, 1.011e-3
-2.019, 1.011e-3
-2.020, 1.011e-3
-2.021, 1.011e-3
-2.022, 1.011e-3
-2.023, 1.011e-3
-2.024, 1.011e-3
-2.025, 1.011e-3
-2.026, 1.011e-3
-2.027, 1.011e-3
-2.028, 1.011e-3
-2.029, 1.011e-3
-2.030, 1.011e-3
-2.031, 1.011e-3
-2.032, 1.011e-3
-2.033, 1.011e-3
-2.034, 1.011e-3
-2.035, 1.011e-3
-2.036, 1.011e-3
-2.037, 1.011e-3
-2.038, 1.011e-3
-2.039, 1.011e-3
-2.040, 1.011e-3
-2.041, 1.011e-3
-2.042, 1.011e-3
-2.043, 1.011e-3
-2.044, 1.011e-3
-2.045, 1.011e-3
-2.046, 1.011e-3
-2.047, 1.011e-3
-2.048, 1.011e-3
-2.049, 1.011e-3
-2.050, 1.011e-3
-2.051, 1.011e-3
-2.052, 1.011e-3
-2.053, 1.011e-3
-2.054, 1.011e-3
-2.055, 1.011e-3
-2.056, 1.011e-3
-2.057, 1.011e-3
-2.058, 1.011e-3
-2.059, 1.011e-3
-2.060, 1.011e-3
-2.061, 1.011e-3
-2.062, 1.011e-3
-2.063, 1.011e-3
-2.064, 1.011e-3
-2.065, 1.011e-3
-2.066, 1.011e-3
-2.067, 1.011e-3
-2.068, 1.011e-3
-2.069, 1.011e-3
-2.070, 1.011e-3
-2.071, 1.011e-3
-2.072, 1.011e-3
-2.073, 1.011e-3
-2.074, 1.011e-3
-2.075, 1.011e-3
-2.076, 1.011e-3
-2.077, 1.011e-3
-2.078, 1.011e-3
-2.079, 1.011e-3
-2.080, 1.011e-3
-2.081, 1.011e-3
-2.082, 1.011e-3
-2.083, 1.011e-3
-2.084, 1.011e-3
-2.085, 1.011e-3
-2.086, 1.011e-3
-2.087, 1.011e-3
-2.088, 1.011e-3
-2.089, 1.011e-3
-2.090, 1.011e-3
-2.091, 1.011e-3
-2.092, 1.011e-3
-2.093, 1.011e-3
-2.094, 1.011e-3
-2.095, 1.011e-3
-2.096, 1.011e-3
-2.097, 1.011e-3
-2.098, 1.011e-3
-2.099, 1.011e-3
-2.100, 1.011e-3
-2.101, 1.011e-3
-2.102, 1.011e-3
-2.103, 1.011e-3
-2.104, 1.011e-3
-2.105, 1.011e-3
-2.106, 1.011e-3
-2.107, 1.011e-3
-2.108, 1.011e-3
-2.109, 1.011e-3
-2.110, 1.011e-3
-2.111, 1.011e-3
-2.112, 1.011e-3
-2.113, 1.011e-3
-2.114, 1.011e-3
-2.115, 1.011e-3
-2.116, 1.011e-3
-2.117, 1.011e-3
-2.118, 1.011e-3
-2.119, 1.011e-3
-2.120, 1.011e-3
-2.121, 1.011e-3
-2.122, 1.011e-3
-2.123, 1.011e-3
-2.124, 1.011e-3
-2.125, 1.011e-3
-2.126, 1.011e-3
-2.127, 1.011e-3
-2.128, 1.011e-3
-2.129, 1.011e-3
-2.130, 1.011e-3
-2.131, 1.011e-3
-2.132, 1.011e-3
-2.133, 1.011e-3
-2.134, 1.011e-3
-2.135, 1.011e-3
-2.136, 1.011e-3
-2.137, 1.011e-3
-2.138, 1.011e-3
-2.139, 1.011e-3
-2.140, 1.011e-3
-2.141, 1.011e-3
-2.142, 1.011e-3
-2.143, 1.011e-3
-2.144, 1.011e-3
-2.145, 1.011e-3
-2.146, 1.011e-3
-2.147, 1.011e-3
-2.148, 1.011e-3
-2.149, 1.011e-3
-2.150, 1.011e-3
-2.151, 1.011e-3
-2.152, 1.011e-3
-2.153, 1.011e-3
-2.154, 1.011e-3
-2.155, 1.011e-3
-2.156, 1.011e-3
-2.157, 1.011e-3
-2.158, 1.011e-3
-2.159, 1.011e-3
-2.160, 1.011e-3
-2.161, 1.011e-3
-2.162, 1.011e-3
-2.163, 1.011e-3
-2.164, 1.011e-3
-2.165, 1.011e-3
-2.166, 1.011e-3
-2.167, 1.011e-3
-2.168, 1.011e-3
-2.169, 1.011e-3
-2.170, 1.011e-3
-2.171, 1.011e-3
-2.172, 1.011e-3
-2.173, 1.011e-3
-2.174, 1.011e-3
-2.175, 1.011e-3
-2.176, 1.011e-3
-2.177, 1.011e-3
-2.178, 1.011e-3
-2.179, 1.011e-3
-2.180, 1.011e-3
-2.181, 1.011e-3
-2.182, 1.011e-3
-2.183, 1.011e-3
-2.184, 1.011e-3
-2.185, 1.011e-3
-2.186, 1.011e-3
-2.187, 1.011e-3
-2.188, 1.011e-3
-2.189, 1.011e-3
-2.190, 1.011e-3
-2.191, 1.011e-3
-2.192, 1.011e-3
-2.193, 1.011e-3
-2.194, 1.011e-3
-2.195, 1.011e-3
-2.196, 1.011e-3
-2.197, 1.011e-3
-2.198, 1.011e-3
-2.199, 1.011e-3
-2.200, 1.011e-3
-2.201, 1.011e-3
-2.202, 1.011e-3
-2.203, 1.011e-3
-2.204, 1.011e-3
-2.205, 1.011e-3
-2.206, 1.011e-3
-2.207, 1.011e-3
-2.208, 1.011e-3
-2.209, 1.011e-3
-2.210, 1.011e-3
-2.211, 1.011e-3
-2.212, 1.011e-3
-2.213, 1.011e-3
-2.214, 1.011e-3
-2.215, 1.011e-3
-2.216, 1.011e-3
-2.217, 1.011e-3
-2.218, 1.011e-3
-2.219, 1.011e-3
-2.220, 1.011e-3
-2.221, 1.011e-3
-2.222, 1.011e-3
-2.223, 1.011e-3
-2.224, 1.011e-3
-2.225, 1.011e-3
-2.226, 1.011e-3
-2.227, 1.011e-3
-2.228, 1.011e-3
-2.229, 1.011e-3
-2.230, 1.011e-3
-2.231, 1.011e-3
-2.232, 1.011e-3
-2.233, 1.011e-3
-2.234, 1.011e-3
-2.235, 1.011e-3
-2.236, 1.011e-3
-2.237, 1.011e-3
-2.238, 1.011e-3
-2.239, 1.011e-3
-2.240, 1.011e-3
-2.241, 1.011e-3
-2.242, 1.011e-3
-2.243, 1.011e-3
-2.244, 1.011e-3
-2.245, 1.011e-3
-2.246, 1.011e-3
-2.247, 1.011e-3
-2.248, 1.011e-3
-2.249, 1.011e-3
-2.250, 1.011e-3
-2.251, 1.011e-3
-2.252, 1.011e-3
-2.253, 1.011e-3
-2.254, 1.011e-3
-2.255, 1.011e-3
-2.256, 1.011e-3
-2.257, 1.011e-3
-2.258, 1.011e-3
-2.259, 1.011e-3
-2.260, 1.011e-3
-2.261, 1.011e-3
-2.262, 1.011e-3
-2.263, 1.011e-3
-2.264, 1.011e-3
-2.265, 1.011e-3
-2.266, 1.011e-3
-2.267, 1.011e-3
-2.268, 1.011e-3
-2.269, 1.011e-3
-2.270, 1.011e-3
-2.271, 1.011e-3
-2.272, 1.011e-3
-2.273, 1.011e-3
-2.274, 1.011e-3
-2.275, 1.011e-3
-2.276, 1.011e-3
-2.277, 1.011e-3
-2.278, 1.011e-3
-2.279, 1.011e-3
-2.280, 1.011e-3
-2.281, 1.011e-3
-2.282, 1.011e-3
-2.283, 1.011e-3
-2.284, 1.011e-3
-2.285, 1.011e-3
-2.286, 1.011e-3
-2.287, 1.011e-3
-2.288, 1.011e-3
-2.289, 1.011e-3
-2.290, 1.011e-3
-2.291, 1.011e-3
-2.292, 1.011e-3
-2.293, 1.011e-3
-2.294, 1.011e-3
-2.295, 1.011e-3
-2.296, 1.011e-3
-2.297, 1.011e-3
-2.298, 1.011e-3
-2.299, 1.011e-3
