Potential V vs RHE, Current mA cm-2
0.05339999999999995,0.22253408746877026
0.05239999999999995,0.13216232963339172
0.051399999999999946,0.0424413389959511
0.050399999999999945,-0.019904987989101064
0.049399999999999944,-0.0655011331837512
0.04839999999999994,-0.10219874430225025
0.04739999999999994,-0.13449660327816904
0.04639999999999994,-0.1624088572245062
0.04539999999999994,-0.18829807401203638
0.04439999999999994,-0.21277257949970152
0.04339999999999994,-0.23611531594747462
0.04239999999999994,-0.2591751101352747
0.04139999999999994,-0.2805372507632368
0.040399999999999936,-0.30147497800123935
0.039399999999999935,-0.3222712341092553
0.038399999999999934,-0.3427845479572984
0.03739999999999993,-0.36244903502542236
0.03639999999999993,-0.3812646953136274
0.03539999999999993,-0.39965594221187284
0.03439999999999993,-0.41847160250007787
0.03339999999999993,-0.4364384360083638
0.03239999999999993,-0.4542637983866633
0.03139999999999993,-0.4719476896349762
0.030399999999999927,-0.4890656963633432
0.029399999999999926,-0.5060422319617235
0.028399999999999925,-0.5231602386900907
0.027399999999999924,-0.5399953031584845
0.026399999999999924,-0.556405954236919
0.025399999999999923,-0.5725336630553803
0.024399999999999922,-0.5886613718738418
0.02339999999999992,-0.6049305518222896
0.02239999999999992,-0.6206338472507915
0.02139999999999992,-0.6360542004193205
0.020399999999999918,-0.6511916113278763
0.019399999999999917,-0.6666119644964053
0.018399999999999916,-0.6823152599249072
0.017399999999999916,-0.6974526708334631
0.016399999999999915,-0.7121656683520595
0.015399999999999914,-0.7270201370006424
0.014399999999999913,-0.7417331345192387
0.013399999999999912,-0.7568705454277946
0.012399999999999911,-0.7714420718164045
0.01139999999999991,-0.7855891848150548
0.01039999999999991,-0.8003021823336512
0.009399999999999908,-0.8140248819423421
0.008399999999999908,-0.828313466070979
0.007399999999999907,-0.8423191079396429
0.006399999999999906,-0.8561832786783202
0.005399999999999905,-0.870188920546984
0.004399999999999904,-0.8839116201556749
0.003399999999999903,-0.8979172620243387
0.002399999999999902,-0.9119229038930027
0.0013999999999999013,-0.925221190111734
0.00039999999999990044,-0.9393683031103843
-0.0006000000000001005,-0.9528080604591023
-0.0016000000000001013,-0.965964875547847
-0.0026000000000001022,-0.9795461040265513
-0.003600000000000103,-0.9931273325052556
-0.004600000000000104,-1.0062841475940008
-0.005600000000000105,-1.0197239049427183
-0.006600000000000106,-1.0328807200314631
-0.007600000000000107,-1.0461790062501946
-0.008600000000000108,-1.0591943502089531
-0.009600000000000108,-1.0719267519077382
-0.01060000000000011,-1.0850835669964831
-0.01160000000000011,-1.097957439825255
-0.012600000000000111,-1.1119630816939188
-0.013600000000000112,-1.1252613679126502
-0.014600000000000113,-1.136720529441557
-0.015600000000000114,-1.1495944022703288
-0.016600000000000115,-1.1626097462290872
-0.017600000000000116,-1.17463479227794
-0.018600000000000116,-1.1873671939767252
-0.019600000000000117,-1.1998166534155377
-0.020600000000000118,-1.2121246417243634
-0.02160000000000012,-1.2245741011631757
-0.02260000000000012,-1.236740618342015
-0.02360000000000012,-1.2489071355208543
-0.024600000000000122,-1.2610736526996937
-0.025600000000000123,-1.2730986987485464
-0.026600000000000124,-1.2856896293173452
-0.027600000000000124,-1.2974317331062253
-0.028600000000000125,-1.3090323657651184
-0.029600000000000126,-1.3211988829439578
-0.030600000000000127,-1.332516573342878
-0.03160000000000013,-1.344258677131758
-0.03260000000000013,-1.356142252050624
-0.03360000000000013,-1.3674599424495446
-0.03460000000000002,-1.3787776328484649
-0.03560000000000002,-1.3899538521173986
-0.03660000000000002,-1.4012715425163187
-0.03760000000000002,-1.4125892329152392
-0.03860000000000002,-1.423199567664227
-0.039600000000000024,-1.4345172580631471
-0.040600000000000025,-1.4444202371622026
-0.041600000000000026,-1.4557379275611226
-0.04260000000000003,-1.4656409066601779
-0.04360000000000003,-1.4769585970590984
-0.04460000000000003,-1.4868615761581534
-0.04560000000000003,-1.4967645552572086
-0.04660000000000003,-1.506667534356264
-0.04760000000000003,-1.5165705134553193
-0.04860000000000003,-1.5250587812545096
-0.04960000000000003,-1.5349617603535646
-0.050600000000000034,-1.543450028152755
-0.051600000000000035,-1.5533530072518102
-0.052600000000000036,-1.5618412750510005
-0.053600000000000037,-1.5703295428501907
-0.05460000000000004,-1.5788178106493809
-0.05560000000000004,-1.587306078448571
-0.05660000000000004,-1.5957943462477613
-0.05760000000000004,-1.6028679027470865
-0.05860000000000004,-1.6113561705462767
-0.05960000000000004,-1.6184297270456018
-0.06060000000000004,-1.6255032835449272
-0.061600000000000044,-1.6325768400442524
-0.06260000000000004,-1.6382356852437125
-0.06360000000000005,-1.6453092417430377
-0.06460000000000005,-1.6509680869424979
-0.06560000000000005,-1.656626932141958
-0.06660000000000005,-1.6637004886412832
-0.06760000000000005,-1.6693593338407433
-0.06860000000000005,-1.6736034677403384
-0.06960000000000005,-1.6792623129397986
-0.07060000000000005,-1.6835064468393939
-0.07160000000000005,-1.6877505807389888
-0.07260000000000005,-1.6919947146385839
-0.07360000000000005,-1.696238848538179
-0.07460000000000006,-1.6990682711379093
-0.07560000000000006,-1.7033124050375041
-0.07660000000000006,-1.7061418276372344
-0.07760000000000006,-1.7089712502369643
-0.07860000000000006,-1.7118006728366943
-0.07960000000000006,-1.7132153841365596
-0.08060000000000006,-1.7160448067362895
-0.08160000000000006,-1.7174595180361545
-0.08260000000000006,-1.7188742293360195
-0.08360000000000006,-1.7202889406358846
-0.08460000000000006,-1.7202889406358846
-0.08560000000000006,-1.7217036519357498
-0.08660000000000007,-1.7231183632356148
-0.08760000000000007,-1.7231183632356148
-0.08860000000000007,-1.7231183632356148
-0.08960000000000007,-1.7231183632356148
-0.09060000000000007,-1.7217036519357498
-0.09160000000000007,-1.7217036519357498
-0.09260000000000007,-1.7202889406358846
-0.09360000000000007,-1.7202889406358846
-0.09460000000000007,-1.7188742293360195
-0.09560000000000007,-1.7174595180361545
-0.09660000000000007,-1.7160448067362895
-0.09760000000000008,-1.7132153841365596
-0.09860000000000008,-1.7118006728366943
-0.09960000000000008,-1.7089712502369643
-0.10060000000000008,-1.7061418276372344
-0.10160000000000008,-1.7047271163373692
-0.10260000000000008,-1.701897693737639
-0.10360000000000008,-1.6990682711379093
-0.10460000000000008,-1.696238848538179
-0.10560000000000008,-1.6919947146385839
-0.10660000000000008,-1.6891652920388538
-0.10760000000000008,-1.6863358694391237
-0.10860000000000009,-1.6835064468393939
-0.10960000000000009,-1.6792623129397986
-0.11060000000000009,-1.6764328903400685
-0.11160000000000009,-1.6721887564404734
-0.11260000000000009,-1.6679446225408785
-0.11360000000000009,-1.6651151999411482
-0.11460000000000009,-1.6622857773414181
-0.11560000000000009,-1.6594563547416883
-0.11660000000000009,-1.655212220842093
-0.1176000000000001,-1.6509680869424979
-0.1186000000000001,-1.6467239530429028
-0.1196000000000001,-1.6424798191433077
-0.1206000000000001,-1.6382356852437125
-0.1216000000000001,-1.6339915513441174
-0.1226000000000001,-1.6311621287443874
-0.1236000000000001,-1.626917994844792
-0.1246000000000001,-1.6226738609451972
-0.1256000000000001,-1.6198444383454669
-0.1266000000000001,-1.6156003044458718
-0.1276000000000001,-1.612770881846142
-0.1286000000000001,-1.6099414592464116
-0.1296000000000001,-1.6056973253468165
-0.1306000000000001,-1.6028679027470865
-0.1316000000000001,-1.5986237688474914
-0.1326000000000001,-1.5957943462477613
-0.1336000000000001,-1.5929649236480312
-0.1346000000000001,-1.5901355010483011
-0.1356000000000001,-1.585891367148706
-0.1366000000000001,-1.584476655848841
-0.1376000000000001,-1.5816472332491107
-0.1386000000000001,-1.5788178106493809
-0.1396000000000001,-1.5759883880496508
-0.1406000000000001,-1.5731589654499207
-0.14160000000000011,-1.5717442541500557
-0.14260000000000012,-1.5689148315503256
-0.14360000000000012,-1.5675001202504606
-0.14460000000000012,-1.5646706976507305
-0.14560000000000012,-1.5632559863508655
-0.14660000000000012,-1.5618412750510005
-0.14760000000000012,-1.5604265637511354
-0.14860000000000012,-1.5590118524512704
-0.14960000000000012,-1.5575971411514054
-0.15060000000000012,-1.5561824298515403
-0.15160000000000012,-1.5547677185516753
-0.15260000000000012,-1.5547677185516753
-0.15360000000000013,-1.5533530072518102
-0.15460000000000013,-1.5533530072518102
-0.15560000000000013,-1.5519382959519452
-0.15660000000000013,-1.5519382959519452
-0.15760000000000013,-1.5519382959519452
-0.15860000000000013,-1.5519382959519452
-0.15960000000000002,-1.5519382959519452
-0.16060000000000002,-1.5519382959519452
-0.16160000000000002,-1.5519382959519452
-0.16260000000000002,-1.5533530072518102
-0.16360000000000002,-1.5533530072518102
-0.16460000000000002,-1.5533530072518102
-0.16560000000000002,-1.5561824298515403
-0.16660000000000003,-1.5590118524512704
-0.16760000000000003,-1.5590118524512704
-0.16860000000000003,-1.5590118524512704
-0.16960000000000003,-1.5604265637511354
-0.17060000000000003,-1.5618412750510005
-0.17160000000000003,-1.5618412750510005
-0.17260000000000003,-1.5632559863508655
-0.17360000000000003,-1.5660854089505953
-0.17460000000000003,-1.5660854089505953
-0.17560000000000003,-1.5689148315503256
-0.17660000000000003,-1.5703295428501907
-0.17760000000000004,-1.5717442541500557
-0.17860000000000004,-1.5745736767497858
-0.17960000000000004,-1.5774030993495158
-0.18060000000000004,-1.5788178106493809
-0.18160000000000004,-1.5816472332491107
-0.18260000000000004,-1.584476655848841
-0.18360000000000004,-1.585891367148706
-0.18460000000000004,-1.5887207897484361
-0.18560000000000004,-1.5915502123481662
-0.18660000000000004,-1.5943796349478963
-0.18760000000000004,-1.5972090575476263
-0.18860000000000005,-1.6000384801473564
-0.18960000000000005,-1.6042826140469515
-0.19060000000000005,-1.6071120366466816
-0.19160000000000005,-1.6099414592464116
-0.19260000000000005,-1.614185593146007
-0.19360000000000005,-1.6170150157457368
-0.19460000000000005,-1.6212591496453321
-0.19560000000000005,-1.6240885722450622
-0.19660000000000005,-1.6283327061446573
-0.19760000000000005,-1.6325768400442524
-0.19860000000000005,-1.6368209739438475
-0.19960000000000006,-1.6410651078434426
-0.20060000000000006,-1.6453092417430377
-0.20160000000000006,-1.6495533756426328
-0.20260000000000006,-1.653797509542228
-0.20360000000000006,-1.658041643441823
-0.20460000000000006,-1.6622857773414181
-0.20560000000000006,-1.6679446225408785
-0.20660000000000006,-1.6721887564404734
-0.20760000000000006,-1.6778476016399335
-0.20860000000000006,-1.6820917355395286
-0.20960000000000006,-1.6863358694391237
-0.21060000000000006,-1.6919947146385839
-0.21160000000000007,-1.6976535598380442
-0.21260000000000007,-1.7033124050375041
-0.21360000000000007,-1.7089712502369643
-0.21460000000000007,-1.7146300954364246
-0.21560000000000007,-1.7217036519357498
-0.21660000000000007,-1.72736249713521
-0.21760000000000007,-1.734436053634535
-0.21860000000000007,-1.7400948988339953
-0.21960000000000007,-1.7457537440334552
-0.22060000000000007,-1.7514125892329155
-0.22160000000000007,-1.7584861457322407
-0.22260000000000008,-1.7655597022315657
-0.22360000000000008,-1.771218547431026
-0.22460000000000008,-1.778292103930351
-0.22560000000000008,-1.7853656604296764
-0.22660000000000008,-1.7924392169290013
-0.22760000000000008,-1.7995127734283267
-0.22860000000000008,-1.8065863299276517
-0.22960000000000008,-1.813659886426977
-0.23060000000000008,-1.8207334429263025
-0.23160000000000008,-1.8292217107254924
-0.23260000000000008,-1.8362952672248178
-0.23360000000000009,-1.8433688237241426
-0.2346000000000001,-1.8518570915233332
-0.2356000000000001,-1.8589306480226582
-0.2366000000000001,-1.8674189158218486
-0.2376000000000001,-1.8744924723211736
-0.2386000000000001,-1.882980740120364
-0.2396000000000001,-1.891469007919554
-0.2406000000000001,-1.8985425644188794
-0.2416000000000001,-1.9070308322180693
-0.2426000000000001,-1.9155191000172598
-0.2436000000000001,-1.92400736781645
-0.2446000000000001,-1.9324956356156402
-0.2456000000000001,-1.9409839034148304
-0.2466000000000001,-1.9494721712140204
-0.2476000000000001,-1.9579604390132106
-0.2486000000000001,-1.9650339955125358
-0.2496000000000001,-1.9735222633117262
-0.2506000000000001,-1.9820105311109162
-0.2516000000000001,-1.9904987989101068
-0.2526000000000001,-1.9989870667092968
-0.2536000000000001,-2.008890045808352
-0.2546000000000001,-2.0159636023076772
-0.2556000000000001,-2.0244518701068674
-0.2566000000000001,-2.0343548492059225
-0.2576000000000001,-2.042843117005113
-0.2586000000000001,-2.051331384804303
-0.2596000000000001,-2.0598196526034935
-0.2606000000000001,-2.0668932091028185
-0.2616000000000001,-2.0753814769020087
-0.2626000000000001,-2.083869744701199
-0.2636000000000001,-2.092358012500389
-0.2646000000000001,-2.1008462802995793
-0.2656000000000001,-2.1093345480987695
-0.2666000000000001,-2.11782281589796
-0.2676000000000001,-2.124896372397285
-0.2686000000000001,-2.133384640196476
-0.2696000000000001,-2.1418729079956655
-0.2706000000000001,-2.148946464494991
-0.2716000000000001,-2.1574347322941807
-0.2726000000000001,-2.1645082887935065
-0.2736000000000001,-2.171581845292831
-0.2746000000000001,-2.178655401792157
-0.2756000000000001,-2.1871436695913467
-0.2766000000000001,-2.194217226090672
-0.2776000000000001,-2.201290782589997
-0.2786000000000001,-2.206949627789457
-0.2796000000000001,-2.215437895588648
-0.2806000000000001,-2.2210967407881075
-0.28160000000000013,-2.228170297287433
-0.28260000000000013,-2.235243853786758
-0.28360000000000013,-2.2409026989862184
-0.2846,-2.2465615441856785
-0.2856,-2.253635100685003
-0.2866,-2.2592939458844636
-0.2876,-2.2649527910839233
-0.2886,-2.2706116362833835
-0.2896,-2.276270481482844
-0.2906,-2.2819293266823037
-0.2916,-2.2875881718817643
-0.2926,-2.2918323057813597
-0.2936,-2.2974911509808194
-0.29460000000000003,-2.3017352848804147
-0.29560000000000003,-2.30597941878001
-0.29660000000000003,-2.310223552679605
-0.29760000000000003,-2.3144676865791998
-0.29860000000000003,-2.318711820478795
-0.29960000000000003,-2.3229559543783904
-0.30060000000000003,-2.3257853769781205
-0.30160000000000003,-2.330029510877715
-0.30260000000000004,-2.3342736447773107
-0.30360000000000004,-2.3371030673770408
-0.30460000000000004,-2.339932489976771
-0.30560000000000004,-2.3427619125765005
-0.30660000000000004,-2.3455913351762305
-0.30760000000000004,-2.348420757775961
-0.30860000000000004,-2.351250180375691
-0.30960000000000004,-2.352664891675556
-0.31060000000000004,-2.355494314275286
-0.31160000000000004,-2.3569090255751513
-0.31260000000000004,-2.358323736875016
-0.31360000000000005,-2.359738448174881
-0.31460000000000005,-2.362567870774611
-0.31560000000000005,-2.3639825820744766
-0.31660000000000005,-2.3653972933743415
-0.31760000000000005,-2.3668120046742067
-0.31860000000000005,-2.3668120046742067
-0.31960000000000005,-2.3682267159740715
-0.32060000000000005,-2.3696414272739363
-0.32160000000000005,-2.3696414272739363
-0.32260000000000005,-2.3710561385738016
-0.32360000000000005,-2.3710561385738016
-0.32460000000000006,-2.3710561385738016
-0.32560000000000006,-2.3710561385738016
-0.32660000000000006,-2.3710561385738016
-0.32760000000000006,-2.3710561385738016
-0.32860000000000006,-2.3710561385738016
-0.32960000000000006,-2.3696414272739363
-0.33060000000000006,-2.3696414272739363
-0.33160000000000006,-2.3696414272739363
-0.33260000000000006,-2.3696414272739363
-0.33360000000000006,-2.3682267159740715
-0.33460000000000006,-2.3682267159740715
-0.33560000000000006,-2.3668120046742067
-0.33660000000000007,-2.3668120046742067
-0.33760000000000007,-2.3653972933743415
-0.33860000000000007,-2.3653972933743415
-0.33960000000000007,-2.3639825820744766
-0.34060000000000007,-2.362567870774611
-0.34160000000000007,-2.362567870774611
-0.34260000000000007,-2.361153159474746
-0.34360000000000007,-2.359738448174881
-0.3446000000000001,-2.358323736875016
-0.3456000000000001,-2.3569090255751513
-0.3466000000000001,-2.3569090255751513
-0.34759999999999996,-2.355494314275286
-0.3486000000000001,-2.354079602975421
-0.34959999999999997,-2.352664891675556
-0.3506000000000001,-2.351250180375691
-0.35159999999999997,-2.351250180375691
-0.3526000000000001,-2.349835469075826
-0.35359999999999997,-2.348420757775961
-0.3546000000000001,-2.347006046476096
-0.35559999999999997,-2.3455913351762305
-0.3566000000000001,-2.3455913351762305
-0.3576,-2.3441766238763657
-0.3586000000000001,-2.3427619125765005
-0.3596,-2.3413472012766356
-0.3606000000000001,-2.3413472012766356
-0.3616,-2.339932489976771
-0.3626000000000001,-2.339932489976771
-0.3636,-2.3385177786769056
-0.3646000000000001,-2.3371030673770408
-0.3656,-2.3371030673770408
-0.3666000000000001,-2.3371030673770408
-0.3676,-2.3356883560771755
-0.3686000000000001,-2.3356883560771755
-0.3696,-2.3342736447773107
-0.3706000000000001,-2.3356883560771755
-0.3716,-2.3356883560771755
-0.3726000000000001,-2.3342736447773107
-0.3736,-2.3342736447773107
-0.3746000000000001,-2.3342736447773107
-0.3756,-2.3342736447773107
-0.3766000000000001,-2.3342736447773107
-0.3776,-2.3342736447773107
-0.3786000000000001,-2.3342736447773107
-0.3796,-2.3356883560771755
-0.3806000000000001,-2.3356883560771755
-0.3816,-2.3371030673770408
-0.3826000000000001,-2.3371030673770408
-0.3836,-2.3385177786769056
-0.3846000000000001,-2.339932489976771
-0.3856,-2.339932489976771
-0.3866000000000001,-2.3413472012766356
-0.3876,-2.3441766238763657
-0.3886000000000001,-2.3455913351762305
-0.3896,-2.347006046476096
-0.3906000000000001,-2.348420757775961
-0.3916,-2.351250180375691
-0.3926000000000001,-2.354079602975421
-0.3936,-2.355494314275286
-0.3946000000000001,-2.358323736875016
-0.3956,-2.361153159474746
-0.3966000000000001,-2.3639825820744766
-0.3976,-2.3682267159740715
-0.3986000000000001,-2.3710561385738016
-0.3996,-2.3738855611735317
-0.4006000000000001,-2.3781296950731265
-0.4016,-2.382373828972722
-0.4026000000000001,-2.386617962872317
-0.4036,-2.3908620967719116
-0.4046000000000001,-2.3951062306715074
-0.4056,-2.4007650758709675
-0.40660000000000013,-2.4050092097705624
-0.4076,-2.4106680549700226
-0.40860000000000013,-2.4163269001694827
-0.4096,-2.4219857453689424
-0.41060000000000013,-2.4290593018682682
-0.4116,-2.4347181470677284
-0.41260000000000013,-2.4417917035670533
-0.4136,-2.4488652600663787
-0.41460000000000014,-2.4559388165657037
-0.4156,-2.464427084364894
-0.41660000000000014,-2.4715006408642193
-0.4176,-2.4799889086634095
-0.41860000000000014,-2.4884771764625997
-0.41960000000000003,-2.49696544426179
-0.42060000000000014,-2.50545371206098
-0.42160000000000003,-2.515356691160035
-0.42260000000000014,-2.5252596702590906
-0.42360000000000003,-2.5351626493581456
-0.42460000000000014,-2.545065628457201
-0.42560000000000003,-2.554968607556256
-0.42660000000000015,-2.5662862979551764
-0.42760000000000004,-2.576189277054232
-0.42860000000000015,-2.587506967453152
-0.42960000000000004,-2.600239369151937
-0.43060000000000015,-2.6115570595508575
-0.43160000000000004,-2.624289461249643
-0.43260000000000015,-2.637021862948428
-0.43360000000000004,-2.6497542646472136
-0.43460000000000015,-2.663901377645864
-0.43560000000000004,-2.6766337793446495
-0.43660000000000015,-2.6907808923433
-0.43760000000000004,-2.7049280053419507
-0.43860000000000016,-2.719075118340601
-0.43960000000000005,-2.734636942639116
-0.44060000000000016,-2.7501987669376318
-0.44160000000000005,-2.765760591236147
-0.44260000000000016,-2.7813224155346625
-0.44360000000000005,-2.798298951133043
-0.44460000000000016,-2.8152754867314234
-0.44560000000000005,-2.8322520223298033
-0.44660000000000016,-2.8492285579281837
-0.44760000000000005,-2.867619804826429
-0.44860000000000017,-2.8860110517246746
-0.44960000000000006,-2.9029875873230555
