Potential V vs RHE, Current mA cm-2
0.013299999999999867,9.201282294322198
0.012299999999999978,7.15136562081776
0.011299999999999866,5.145304997609139
0.010299999999999976,3.0939736128048354
0.009299999999999864,1.0010497157844997
0.008299999999999974,-1.0054353208140816
0.007299999999999862,-2.8803522065252145
0.006299999999999972,-4.582249900262854
0.00529999999999986,-6.152579443113044
0.0042999999999999705,-7.591340835075788
0.0032999999999998586,-9.031516938338395
0.0022999999999999687,-10.42642228000532
0.0012999999999998568,-11.952895772559694
0.00029999999999996696,-13.523225315409885
-0.000700000000000145,-15.137410908555893
-0.0017000000000000348,-16.750181790402035
-0.0027000000000001467,-18.23562865526032
-0.0037000000000000366,-19.579604390132108
-0.0047000000000001485,-20.76796188201874
-0.005700000000000038,-21.899730921910766
-0.00670000000000015,-23.031499961802798
-0.00770000000000004,-24.120827662698876
-0.008700000000000152,-25.39406783257741
-0.009700000000000042,-26.69560222845324
-0.010700000000000154,-28.09616641531963
-0.011700000000000044,-29.440142150191413
-0.012700000000000156,-30.71338232006995
-0.013700000000000045,-31.802710020966025
-0.014700000000000157,-32.807155043870196
-0.015700000000000047,-33.712570275783825
-0.01670000000000016,-34.632132620696105
-0.01770000000000005,-35.55169496560837
-0.01870000000000016,-36.5985813275085
-0.01970000000000005,-37.77279170639648
-0.020700000000000163,-38.98944342428042
-0.021700000000000053,-40.220242255162994
-0.022700000000000164,-41.39445263405098
-0.023700000000000054,-42.2715736399673
-0.024700000000000166,-43.09210619388902
-0.025700000000000056,-43.88434452181344
-0.026700000000000168,-44.66243573673921
-0.027700000000000058,-45.45467406466363
-0.02870000000000017,-46.41667774857186
-0.02970000000000006,-47.46356411047198
-0.03070000000000017,-48.51045047237211
-0.03170000000000006,-49.59977817326819
-0.03270000000000017,-50.64666453516831
-0.03370000000000006,-51.509638428085985
-0.034700000000000175,-52.25943541701445
-0.035700000000000065,-52.995085292944275
-0.03670000000000018,-53.64585249088219
-0.03770000000000007,-54.39564947981066
-0.03870000000000018,-55.21618203373238
-0.03970000000000007,-56.1781857176406
-0.04070000000000018,-57.182630740544774
-0.04170000000000007,-58.18707576344896
-0.04270000000000018,-59.14907944735718
-0.04370000000000007,-59.92717066228296
-0.044700000000000184,-60.63452631221547
-0.045700000000000074,-61.242852171157445
-0.046700000000000186,-61.80873669110345
-0.047700000000000076,-62.501945228037314
-0.04870000000000019,-63.3366248949577
-0.04970000000000008,-64.25618723986996
-0.05070000000000019,-65.20404381077954
-0.05170000000000008,-66.16604749468777
-0.05270000000000019,-67.08560983960004
-0.05370000000000008,-67.9202895065204
-0.05470000000000019,-68.61349804345427
-0.05570000000000008,-69.22182390239624
-0.056700000000000195,-69.8301497613382
-0.057700000000000085,-70.53750541127073
-0.058700000000000196,-71.31559662619651
-0.059700000000000086,-72.19271763211282
-0.0607000000000002,-73.15472131602105
-0.06170000000000009,-74.10257788693062
-0.0627000000000002,-75.06458157083884
-0.06370000000000009,-75.85681989876326
-0.0647000000000002,-76.50758709670117
-0.06570000000000009,-77.1583542946391
-0.0667000000000002,-77.76668015358106
-0.0677000000000001,-78.43159446451764
-0.0687000000000002,-79.20968567944341
-0.0697000000000001,-80.08680668535972
-0.07070000000000021,-80.99222191727335
-0.0717000000000001,-81.95422560118158
-0.07270000000000021,-82.9162292850898
-0.0737000000000001,-83.70846761301424
-0.07470000000000021,-84.35923481095215
-0.0757000000000001,-85.01000200889004
-0.07670000000000021,-85.61832786783202
-0.0777000000000001,-86.28324217876859
-0.07870000000000021,-87.14621607168625
-0.0797000000000001,-88.02333707760259
-0.08070000000000022,-88.9853407615108
-0.0817000000000001,-90.07466846240689
-0.08270000000000022,-91.03667214631511
-0.08370000000000011,-91.81476336124088
-0.08470000000000022,-92.56456035016936
-0.08570000000000011,-93.25776888710321
-0.08670000000000022,-93.86609474604518
-0.08770000000000011,-94.5168619439831
-0.08870000000000022,-95.35154161090348
-0.08970000000000011,-96.27110395581576
-0.09070000000000022,-97.21896052672531
-0.09170000000000011,-98.26584688862545
-0.09270000000000023,-99.22785057253368
-0.09370000000000012,-100.06253023945405
-0.09470000000000023,-100.75573877638791
-0.09570000000000012,-101.40650597432582
-0.09670000000000023,-101.97239049427183
-0.09770000000000012,-102.67974614420436
-0.09870000000000023,-103.54272003712204
-0.09970000000000012,-104.50472372103027
-0.10070000000000023,-105.46672740493848
-0.10170000000000012,-106.51361376683862
-0.10270000000000024,-107.47561745074682
-0.10370000000000013,-108.3102971176672
-0.10470000000000024,-109.08838833259297
-0.10570000000000013,-109.78159686952685
-0.10670000000000024,-110.40406984146746
-0.10770000000000013,-111.13971971739728
-0.10870000000000024,-111.96025227131899
-0.10970000000000013,-112.87981461623129
-0.11070000000000024,-113.88425963913545
-0.11170000000000013,-114.93114600103557
-0.11270000000000002,-115.93559102393975
-0.11370000000000013,-116.81271202985609
-0.11470000000000002,-117.54836190578591
-0.11570000000000014,-118.24157044271978
-0.11670000000000003,-118.94892609265229
-0.11770000000000014,-119.68457596858211
-0.11870000000000003,-120.51925563550247
-0.11970000000000014,-121.43881798041474
-0.12070000000000003,-122.38667455132433
-0.12170000000000014,-123.3062368962366
-0.12270000000000003,-124.22579924114888
-0.12370000000000014,-125.10292024706521
-0.12470000000000003,-125.79612878399907
-0.12570000000000014,-126.44689598193698
-0.12670000000000003,-127.09766317987489
-0.12770000000000015,-127.76257749081147
-0.12870000000000004,-128.62555138372915
-0.12970000000000015,-129.5451137286414
-0.13070000000000004,-130.50711741254963
-0.13170000000000015,-131.55400377444977
-0.13270000000000004,-132.55844879735392
-0.13370000000000015,-133.4214226902716
-0.13470000000000004,-134.21366101819604
-0.13570000000000015,-134.9917522331218
-0.13670000000000004,-135.65666654405837
-0.13770000000000016,-136.43475775898415
-0.13870000000000005,-137.31187876490046
-0.13970000000000016,-138.3163237878046
-0.14070000000000005,-139.36321014970477
-0.14170000000000016,-140.53742052859275
-0.14270000000000005,-141.61260111649017
-0.14370000000000016,-142.4614278964092
-0.14470000000000005,-143.16878354634173
-0.14570000000000016,-143.87613919627424
-0.14670000000000005,-144.44202371622026
-0.14770000000000016,-145.29085049613926
-0.14870000000000005,-146.1396772760583
-0.14970000000000017,-146.9885040559773
-0.15070000000000006,-147.97880196588284
-0.15170000000000017,-148.96909987578834
-0.15270000000000006,-149.95939778569388
-0.15370000000000017,-150.8082245656129
-0.15470000000000006,-151.65705134553193
-0.15570000000000017,-152.36440699546444
-0.15670000000000006,-153.07176264539694
-0.15770000000000017,-153.77911829532948
-0.15870000000000006,-154.76941620523502
-0.15970000000000018,-155.75971411514055
-0.16070000000000007,-156.89148315503257
-0.16170000000000018,-157.88178106493808
-0.16270000000000007,-159.01355010483013
-0.16370000000000018,-159.86237688474912
-0.16470000000000007,-160.71120366466818
-0.16570000000000018,-161.2770881846142
-0.16670000000000007,-161.9844438345467
-0.16770000000000018,-162.6917994844792
-0.16870000000000007,-163.54062626439824
-0.16970000000000018,-164.38945304431726
-0.17070000000000007,-165.5212220842093
-0.17170000000000019,-166.65299112410133
-0.17270000000000008,-167.6432890340068
-0.1737000000000002,-168.49211581392586
-0.17470000000000008,-169.3409425938449
-0.1757000000000002,-170.0482982437774
-0.17670000000000008,-170.61418276372342
-0.1777000000000002,-171.32153841365593
-0.17870000000000008,-172.31183632356147
-0.1797000000000002,-173.302134233467
-0.18070000000000008,-174.2924321433725
-0.1817000000000002,-175.42420118326456
-0.18270000000000008,-176.4144990931701
-0.1837000000000002,-177.2633258730891
-0.1847000000000001,-178.1121526530081
-0.1857000000000002,-178.96097943292713
-0.1867000000000001,-179.66833508285964
-0.1877000000000002,-180.37569073279218
-0.1887000000000001,-181.36598864269772
-0.1897000000000002,-182.49775768258974
-0.1907000000000001,-183.48805559249527
-0.1917000000000001,-184.6198246323873
-0.19269999999999998,-185.6101225422928
-0.1937000000000001,-186.45894932221185
-0.19469999999999998,-187.30777610213087
-0.1957000000000001,-188.01513175206335
-0.19669999999999999,-188.72248740199586
-0.1977000000000001,-189.57131418191491
-0.1987,-190.56161209182042
-0.1997000000000001,-191.551910001726
-0.2007,-192.54220791163152
-0.2017000000000001,-193.532505821537
-0.2027,-194.66427486142905
-0.2037000000000001,-195.51310164134807
-0.2047,-196.2204572912806
-0.2057000000000001,-197.0692840711996
-0.2067,-197.63516859114563
-0.2077000000000001,-198.3425242410781
-0.2087,-199.33282215098367
-0.2097000000000001,-200.3231200608892
-0.2107,-201.31341797079472
-0.2117000000000001,-202.44518701068677
-0.2127,-203.43548492059227
-0.2137000000000001,-204.2843117005113
-0.2147,-205.27460961041683
-0.2157000000000001,-205.98196526034934
-0.2167,-206.68932091028185
-0.21770000000000012,-207.3966765602144
-0.2187,-208.24550334013338
-0.21970000000000012,-209.23580125003892
-0.2207,-210.08462802995794
-0.22170000000000012,-211.21639706985
-0.2227,-212.2066949797555
-0.22370000000000012,-213.19699288966103
-0.2247,-214.04581966958003
-0.22570000000000012,-214.61170418952605
-0.2267,-215.31905983945856
-0.22770000000000012,-216.0264154893911
-0.22870000000000001,-216.87524226931012
-0.22970000000000013,-217.86554017921566
-0.23070000000000002,-218.99730921910768
-0.23170000000000013,-219.98760712901318
-0.23270000000000002,-221.11937616890526
-0.23370000000000013,-221.96820294882426
-0.23470000000000002,-222.81702972874328
-0.23570000000000013,-223.52438537867582
-0.23670000000000002,-224.2317410286083
-0.2376999999999999,-224.93909667854084
-0.23870000000000002,-225.92939458844637
-0.2396999999999999,-226.91969249835188
-0.24070000000000003,-228.0514615382439
-0.24169999999999991,-229.18323057813595
-0.24270000000000003,-230.17352848804146
-0.24369999999999992,-231.0223552679605
-0.24470000000000003,-231.8711820478795
-0.24569999999999992,-232.57853769781204
-0.24670000000000003,-233.28589334774458
-0.24769999999999992,-234.13472012766357
-0.24870000000000003,-235.12501803756908
-0.24969999999999992,-236.1153159474746
-0.25070000000000003,-237.10561385738015
-0.2516999999999999,-238.2373828972722
-0.25270000000000004,-239.2276808071777
-0.2536999999999999,-240.0765075870967
-0.25470000000000004,-240.92533436701575
-0.2556999999999999,-241.49121888696175
-0.25670000000000004,-242.19857453689428
-0.25769999999999993,-242.90593018682682
-0.25870000000000004,-243.75475696674582
-0.25969999999999993,-244.74505487665132
-0.26070000000000004,-245.87682391654337
-0.26169999999999993,-247.0085929564354
-0.26270000000000004,-248.14036199632744
-0.26369999999999993,-248.9891887762465
-0.26470000000000005,-249.83801555616546
-0.26569999999999994,-250.6868423360845
-0.26670000000000005,-251.25272685603056
-0.26769999999999994,-251.96008250596302
-0.26870000000000005,-252.80890928588207
-0.26969999999999994,-253.79920719578757
-0.27070000000000005,-254.93097623567962
-0.27169999999999994,-256.0627452755717
-0.27270000000000005,-257.0530431854772
-0.27369999999999994,-258.0433410953827
-0.27470000000000006,-258.8921678753017
-0.27569999999999995,-259.59952352523425
-0.27670000000000006,-260.16540804518024
-0.27769999999999995,-261.01423482509927
-0.27870000000000006,-261.8630616050183
-0.27969999999999995,-262.8533595149238
-0.28070000000000006,-263.84365742482936
-0.28169999999999995,-264.9754264647214
-0.28270000000000006,-265.9657243746269
-0.28369999999999995,-266.9560222845325
-0.28470000000000006,-267.80484906445145
-0.28569999999999995,-268.512204714384
-0.28670000000000007,-269.2195603643164
-0.28769999999999996,-269.926916014249
-0.28870000000000007,-270.63427166418154
-0.28969999999999996,-271.62456957408705
-0.29070000000000007,-272.61486748399255
-0.29169999999999996,-273.60516539389806
-0.29270000000000007,-274.5954633038036
-0.29369999999999996,-275.44429008372265
-0.2947000000000001,-276.15164573365513
-0.29569999999999996,-276.8590013835877
-0.2967000000000001,-277.4248859035337
-0.29769999999999996,-278.2737126834527
-0.2987000000000001,-279.1225394633717
-0.29969999999999997,-280.11283737327733
-0.3007000000000001,-281.1031352831828
-0.30169999999999997,-282.2349043230748
-0.3027000000000001,-283.22520223298034
-0.30369999999999997,-283.9325578829129
-0.3047000000000001,-284.7813846628319
-0.30569999999999997,-285.4887403127644
-0.3067000000000001,-286.0546248327104
-0.3077,-286.76198048264297
-0.3087000000000001,-287.7522783925485
-0.3097,-288.6011051724675
-0.3107000000000001,-289.73287421235955
-0.3117,-290.86464325225154
-0.3127000000000001,-291.85494116215705
-0.3137,-292.8452390720626
-0.3147000000000001,-293.55259472199515
-0.3157,-294.2599503719276
-0.3167000000000001,-294.96730602186017
-0.3177,-295.67466167179265
-0.3187000000000001,-296.52348845171167
-0.3197,-297.3723152316307
-0.3207000000000001,-298.3626131415362
-0.3217,-299.3529110514418
-0.3227000000000001,-300.2017378313608
-0.3237,-301.0505646112798
-0.3247000000000001,-301.8993913911989
-0.3257,-302.6067470411313
-0.3267000000000001,-303.31410269106385
-0.3277,-303.87998721100985
-0.3287000000000001,-304.72881399092887
-0.3297,-305.57764077084795
-0.3307000000000001,-306.70940981073994
-0.3317,-307.841178850632
-0.3327000000000001,-308.972947890524
-0.3337,-309.9632458004295
-0.3347000000000001,-310.81207258034857
-0.3357,-311.5194282302811
-0.3367000000000001,-312.0853127502271
-0.3377,-312.65119727017316
-0.3387000000000001,-313.35855292010564
-0.3397,-314.0659085700381
-0.3407000000000001,-315.0562064799437
-0.3417,-316.1879755198357
-0.3427000000000001,-317.1782734297412
-0.3437,-318.16857133964675
-0.3447000000000001,-318.8759269895793
-0.3457,-319.58328263951176
-0.3467000000000001,-320.1491671594578
-0.3477,-320.9979939393768
-0.3487000000000001,-321.7053495893094
-0.3497,-322.83711862920137
-0.3507000000000001,-323.8274165391069
-0.3517,-324.81771444901244
-0.3527000000000001,-325.80801235891795
-0.3537,-326.656839138837
-0.3547000000000001,-327.505665918756
-0.3557,-328.2130215686885
-0.35670000000000013,-329.0618483486075
-0.3577,-329.76920399854004
-0.35870000000000013,-330.4765596484726
-0.3597,-331.18391529840505
-0.36070000000000013,-332.03274207832413
-0.3617,-333.1645111182162
-0.3626999999999999,-334.1548090281217
-0.3637,-335.1451069380272
-0.3646999999999999,-335.9939337179462
-0.3657,-336.70128936787876
-0.3666999999999999,-337.40864501781124
-0.3677,-338.1160006677438
-0.3686999999999999,-338.96482744766274
-0.36970000000000003,-339.95512535756825
-0.3706999999999999,-340.80395213748733
-0.37170000000000003,-341.9357211773794
-0.3726999999999999,-342.7845479572984
-0.37370000000000003,-343.49190360723094
-0.3746999999999999,-344.1992592571634
-0.37570000000000003,-344.7651437771094
-0.3766999999999999,-345.33102829705547
-0.37770000000000004,-346.03838394698795
-0.3786999999999999,-346.88721072690697
-0.37970000000000004,-347.87750863681254
-0.3806999999999999,-349.0092776767046
-0.38170000000000004,-350.1410467165966
-0.38269999999999993,-350.98987349651554
-0.38370000000000004,-351.8387002764346
-0.38469999999999993,-352.54605592636716
-0.38570000000000004,-353.25341157629964
-0.38669999999999993,-352.1216425364076
-0.38570000000000004,-348.301922026772
-0.38469999999999993,-344.7651437771094
-0.38370000000000004,-341.3698366574333
-0.38269999999999993,-337.9745295377573
-0.38170000000000004,-334.7206935480677
-0.3806999999999999,-331.4668575583781
-0.37970000000000004,-328.071550438702
-0.3786999999999999,-324.67624331902596
-0.37770000000000004,-321.1394650693634
-0.3766999999999999,-317.60268681970075
-0.37570000000000003,-314.20737970002466
-0.3746999999999999,-310.95354371033505
-0.37370000000000003,-307.841178850632
-0.3726999999999999,-304.72881399092887
-0.37170000000000003,-301.6164491312258
-0.3706999999999999,-298.50408427152274
-0.36970000000000003,-295.25024828183314
-0.3686999999999999,-291.9964122921436
-0.3677,-288.8840474324405
-0.3666999999999999,-285.6302114427509
-0.3657,-282.65931771303434
-0.3646999999999999,-279.82989511330425
-0.3637,-276.8590013835877
-0.3626999999999999,-274.1710499138441
-0.3617,-271.9075118340601
-0.36070000000000013,-269.361031494303
-0.3597,-266.3901377645864
-0.35870000000000013,-263.13630177489676
-0.3577,-260.02393691519376
-0.35670000000000013,-256.91157205549064
-0.3557,-254.08214945576057
-0.3547000000000001,-251.39419798601702
-0.3537,-248.84771764625998
-0.3527000000000001,-246.15976617651637
-0.3517,-243.3303435767863
-0.3507000000000001,-240.64239210704275
-0.3497,-238.0959117672857
-0.3487000000000001,-235.54943142752862
-0.3477,-232.43706656782552
-0.3467000000000001,-229.32470170812243
-0.3457,-226.35380797840588
-0.3447000000000001,-223.38291424868927
-0.3437,-220.6949627789457
-0.3427000000000001,-218.14848243918865
-0.3417,-215.88494435940459
-0.3407000000000001,-213.47993514963403
-0.3397,-210.79198367989048
-0.3387000000000001,-208.24550334013338
-0.3377,-205.41608074040332
-0.3367000000000001,-202.58665814067325
-0.3357,-199.89870667092967
-0.3347000000000001,-197.21075520118612
-0.3337,-194.66427486142905
-0.3327000000000001,-192.11779452167198
-0.3317,-189.71278531190143
-0.3307000000000001,-187.30777610213087
-0.3297,-184.6198246323873
-0.3287000000000001,-181.93187316264374
-0.3277,-179.24392169290016
-0.3267000000000001,-176.27302796318358
-0.3257,-173.58507649344
-0.3247000000000001,-171.03859615368293
-0.3237,-168.63358694391238
-0.3227000000000001,-166.3700488641283
-0.3217,-164.10651078434424
-0.3207000000000001,-161.70150157457368
-0.3197,-159.15502123481662
-0.3187000000000001,-156.60854089505958
-0.3177,-154.0620605553025
-0.3167000000000001,-151.37410908555893
-0.3157,-148.96909987578834
-0.3147000000000001,-146.5640906660178
-0.3137,-144.30055258623375
-0.3127000000000001,-142.03701450644968
-0.3117,-139.97153600864672
-0.3107000000000001,-137.83532194585052
-0.3097,-135.5576367530678
-0.3087000000000001,-133.2516573342878
-0.3077,-130.9456779155078
-0.3067000000000001,-128.54066870573723
-0.30569999999999997,-126.19224794796128
-0.3047000000000001,-124.05603388516508
-0.30369999999999997,-121.86323137037427
-0.3027000000000001,-119.81189998556997
-0.30169999999999997,-117.90203973075215
-0.3007000000000001,-115.8931496849438
-0.29969999999999997,-113.75693562214758
-0.2987000000000001,-111.6207215593514
-0.29769999999999996,-109.30059502757274
-0.2967000000000001,-106.99461560879273
-0.29569999999999996,-104.81596020700057
-0.2947000000000001,-102.72218748320032
-0.29369999999999996,-100.71329743739196
-0.29270000000000007,-98.7892900695755
-0.29169999999999996,-96.96431249274961
-0.29070000000000007,-95.08274646392913
-0.28969999999999996,-93.03141507912481
-0.28870000000000007,-90.99423080731917
-0.28769999999999996,-88.80142829252836
-0.28670000000000007,-86.58033155174023
-0.28569999999999995,-84.48655882793999
-0.28470000000000006,-82.52011012112759
-0.28369999999999995,-80.61024986630979
-0.28270000000000006,-78.8135665154812
-0.28169999999999995,-77.03103027765125
-0.28070000000000006,-75.29093537881725
-0.27969999999999995,-73.40936934999675
-0.27870000000000006,-71.4004793041884
-0.27769999999999995,-69.39158925838004
-0.27670000000000006,-67.25537519558385
-0.27569999999999995,-65.3030736017701
-0.27470000000000006,-63.37906623395363
-0.27369999999999994,-61.63897133511965
-0.27270000000000005,-59.884729323287
-0.27169999999999994,-58.27195844144086
-0.27070000000000005,-56.53186354260687
-0.26969999999999994,-54.73518019177827
-0.26870000000000005,-52.82531993696047
-0.26769999999999994,-50.90131256914402
