Potential V vs RHE, Current mA cm-2
0.013299999999999867,9.157426244026382
0.012299999999999978,7.15136562081776
0.011299999999999866,5.405611876784305
0.010299999999999976,3.661272844050715
0.009299999999999864,1.8292217107254924
0.008299999999999974,-0.04582249900262853
0.007299999999999862,-2.008890045808352
0.006299999999999972,-3.840941179133574
0.00529999999999986,-5.497568111275533
0.0042999999999999705,-6.93774421453814
0.0032999999999998586,-8.202496116617484
0.0022999999999999687,-9.55496011928846
0.0012999999999998568,-10.863568071663616
0.00029999999999996696,-12.390041564217992
-0.000700000000000145,-13.916515056772363
-0.0017000000000000348,-15.491088733522153
-0.0027000000000001467,-16.877505807389888
-0.0037000000000000366,-18.10830463827247
-0.0047000000000001485,-19.155191000172596
-0.005700000000000038,-20.10304757108217
-0.00670000000000015,-21.2065223849769
-0.00770000000000004,-22.38073276386488
-0.008700000000000152,-23.767149837732617
-0.009700000000000042,-25.0828313466071
-0.010700000000000154,-26.34192440348698
-0.011700000000000044,-27.43125210438306
-0.012700000000000156,-28.350814449295335
-0.013700000000000045,-29.14305277721976
-0.014700000000000157,-30.04846800913338
-0.015700000000000047,-31.010471693041605
-0.01670000000000016,-32.14224073293363
-0.01770000000000005,-33.330598224820264
-0.01870000000000016,-34.50480860370825
-0.01970000000000005,-35.50925362661242
-0.020700000000000163,-36.28734484153819
-0.021700000000000053,-37.037141830466666
-0.022700000000000164,-37.73035036740053
-0.023700000000000054,-38.607471373316855
-0.024700000000000166,-39.56947505722508
-0.025700000000000056,-40.616361419125205
-0.026700000000000168,-41.70568912002128
-0.027700000000000058,-42.71013414292546
-0.02870000000000017,-43.48822535785123
-0.02970000000000006,-44.181433894785094
-0.03070000000000017,-44.74731841473111
-0.03170000000000006,-45.45467406466363
-0.03270000000000017,-46.27520661858535
-0.03370000000000006,-47.23721030249357
-0.034700000000000175,-48.32653800338966
-0.035700000000000065,-49.28854168729788
-0.03670000000000018,-50.024191563227696
-0.03770000000000007,-50.64666453516831
-0.03870000000000018,-51.21254905511432
-0.03970000000000007,-51.77843357506035
-0.04070000000000018,-52.55652478998611
-0.04170000000000007,-53.433645795902436
-0.04270000000000018,-54.480532157802564
-0.04370000000000007,-55.400094502714836
-0.044700000000000184,-56.22062705663656
-0.045700000000000074,-56.88554136757313
-0.046700000000000186,-57.45142588751914
-0.047700000000000076,-58.017310407465146
-0.04870000000000019,-58.66807760540307
-0.04970000000000008,-59.44616882032884
-0.05070000000000019,-60.40817250423707
-0.05170000000000008,-61.327734849149344
-0.05270000000000019,-62.24729719406162
-0.05370000000000008,-62.89806439199953
-0.05470000000000019,-63.5063902509415
-0.05570000000000008,-63.98739209289561
-0.056700000000000195,-64.59571795183757
-0.057700000000000085,-65.38795627976201
-0.058700000000000196,-66.29337151167562
-0.059700000000000086,-67.2978165345798
-0.0607000000000002,-68.21737887949207
-0.06170000000000009,-68.96717586842054
-0.0627000000000002,-69.61794306635846
-0.06370000000000009,-70.05650356931662
-0.0647000000000002,-70.57994675026669
-0.06570000000000009,-71.35803796519245
-0.0667000000000002,-72.23515897110877
-0.0677000000000001,-73.197162655017
-0.0687000000000002,-74.0176952089387
-0.0697000000000001,-74.80993353686314
-0.07070000000000021,-75.46070073480107
-0.0717000000000001,-75.98414391575112
-0.07270000000000021,-76.46514575770523
-0.0737000000000001,-77.0734716166472
-0.07470000000000021,-77.86570994457162
-0.0757000000000001,-78.77112517648524
-0.07670000000000021,-79.69068752139752
-0.0777000000000001,-80.46877873632329
-0.07870000000000021,-81.13369304725985
-0.0797000000000001,-81.65713622820991
-0.08070000000000022,-82.13813807016405
-0.0817000000000001,-82.70402259011003
-0.08270000000000022,-83.43967246603985
-0.08370000000000011,-84.35923481095215
-0.08470000000000022,-85.32123849486035
-0.08570000000000011,-86.22665372677399
-0.08670000000000022,-87.06133339369435
-0.08770000000000011,-87.66965925263632
-0.08870000000000022,-88.19310243358639
-0.08970000000000011,-88.80142829252836
-0.09070000000000022,-89.59366662045278
-0.09170000000000011,-90.51322896536506
-0.09270000000000023,-91.51767398826922
-0.09370000000000012,-92.50797189817473
-0.09470000000000023,-93.38509290409107
-0.09570000000000012,-94.03586010202899
-0.09670000000000023,-94.6583330739696
-0.09770000000000012,-95.26665893291157
-0.09870000000000023,-95.91742613084948
-0.09970000000000012,-96.79454713676581
-0.10070000000000023,-97.74240370767538
-0.10170000000000012,-98.74684873057957
-0.10270000000000024,-99.66641107549184
-0.10370000000000013,-100.40206095142165
-0.10470000000000024,-100.98209258436633
-0.10570000000000013,-101.50553576531638
-0.10670000000000024,-102.11386162425833
-0.10770000000000013,-102.93439417818009
-0.10870000000000024,-103.89639786208829
-0.10970000000000013,-104.90084288499246
-0.11070000000000024,-105.86284656890071
-0.11170000000000013,-106.59849644483052
-0.11270000000000002,-107.30585209476303
-0.11370000000000013,-107.87173661470905
-0.11470000000000002,-108.48006247365102
-0.11570000000000014,-109.30059502757274
-0.11670000000000003,-110.26259871148096
-0.11770000000000014,-111.3094850733811
-0.11870000000000003,-112.3563714352812
-0.11970000000000014,-113.19105110220158
-0.12070000000000003,-113.92670097813141
-0.12170000000000014,-114.53502683707337
-0.12270000000000003,-115.10091135701937
-0.12370000000000014,-115.8931496849438
-0.12470000000000003,-116.72782935186417
-0.12570000000000014,-117.71812726176971
-0.12670000000000003,-118.82160207566443
-0.12770000000000015,-119.68457596858211
-0.12870000000000004,-120.47681429650652
-0.12970000000000015,-121.0851401554485
-0.13070000000000004,-121.69346601439047
-0.13170000000000015,-122.38667455132433
-0.13270000000000004,-123.2213542182447
-0.13370000000000015,-124.22579924114888
-0.13470000000000004,-125.272685603049
-0.13570000000000015,-126.27713062595316
-0.13670000000000004,-127.09766317987489
-0.13770000000000016,-127.80501882980741
-0.13870000000000005,-128.37090334975343
-0.13970000000000016,-129.02167054769134
-0.14070000000000005,-129.75732042362114
-0.14170000000000016,-130.67688276853346
-0.14270000000000005,-131.76621046942952
-0.14370000000000016,-132.7706554923337
-0.14470000000000005,-133.64777649825
-0.14570000000000016,-134.38342637417986
-0.14670000000000005,-134.9917522331218
-0.14770000000000016,-135.65666654405837
-0.14870000000000005,-136.34987508099226
-0.14970000000000017,-137.31187876490046
-0.15070000000000006,-138.3163237878046
-0.15170000000000017,-139.3207688107088
-0.15270000000000006,-140.22618404262244
-0.15370000000000017,-140.9759810315509
-0.15470000000000006,-141.61260111649017
-0.15570000000000017,-142.17848563643616
-0.15670000000000006,-142.8858412863687
-0.15770000000000017,-143.73466806628772
-0.15870000000000006,-144.72496597619326
-0.15970000000000018,-145.7152638860988
-0.16070000000000007,-146.7055617960043
-0.16170000000000018,-147.55438857592333
-0.16270000000000007,-148.40321535584232
-0.16370000000000018,-148.96909987578834
-0.16470000000000007,-149.6764555257209
-0.16570000000000018,-150.38381117565342
-0.16670000000000007,-151.37410908555893
-0.16770000000000018,-152.36440699546444
-0.16870000000000007,-153.35470490536997
-0.16970000000000018,-154.203531685289
-0.17070000000000007,-154.9108873352215
-0.17170000000000019,-155.47677185516753
-0.17270000000000008,-156.04265637511355
-0.1737000000000002,-156.75001202504606
-0.17470000000000008,-157.59883880496508
-0.1757000000000002,-158.73060784485713
-0.17670000000000008,-159.72090575476264
-0.1777000000000002,-160.71120366466818
-0.17870000000000008,-161.41855931460069
-0.1797000000000002,-162.12591496453322
-0.18070000000000008,-162.6917994844792
-0.1817000000000002,-163.39915513441173
-0.18270000000000008,-164.24798191433075
-0.1837000000000002,-165.3797509542228
-0.1847000000000001,-166.51151999411482
-0.1857000000000002,-167.50181790402033
-0.1867000000000001,-168.35064468393938
-0.1877000000000002,-169.0580003338719
-0.1887000000000001,-169.6238848538179
-0.1897000000000002,-170.33124050375042
-0.1907000000000001,-171.18006728366944
-0.1917000000000001,-172.0288940635885
-0.19269999999999998,-173.16066310348046
-0.1937000000000001,-174.150961013386
-0.19469999999999998,-174.99978779330505
-0.1957000000000001,-175.70714344323756
-0.19669999999999999,-176.4144990931701
-0.1977000000000001,-176.98038361311612
-0.1987,-177.6877392630486
-0.1997000000000001,-178.53656604296762
-0.2007,-179.66833508285964
-0.2017000000000001,-180.65863299276518
-0.2027,-181.64893090267074
-0.2037000000000001,-182.35628655260325
-0.2047,-183.06364220253573
-0.2057000000000001,-183.62952672248176
-0.2067,-184.33688237241427
-0.2077000000000001,-185.1857091523333
-0.2087,-186.17600706223882
-0.2097000000000001,-187.30777610213087
-0.2107,-188.29807401203638
-0.2117000000000001,-189.1469007919554
-0.2127,-189.99572757187443
-0.2137000000000001,-190.56161209182042
-0.2147,-191.268967741753
-0.2157000000000001,-192.11779452167198
-0.2167,-193.10809243157752
-0.21770000000000012,-194.09839034148303
-0.2187,-195.08868825138856
-0.21970000000000012,-196.0789861612941
-0.2207,-196.7863418112266
-0.22170000000000012,-197.35222633117263
-0.2227,-198.05958198110514
-0.22370000000000012,-198.62546650105114
-0.2247,-199.61576441095667
-0.22570000000000012,-200.4645911908757
-0.2267,-201.4548891007812
-0.22770000000000012,-202.44518701068677
-0.22870000000000001,-203.29401379060576
-0.22970000000000013,-203.85989831055176
-0.23070000000000002,-204.42578283049778
-0.23170000000000013,-205.13313848043032
-0.23270000000000002,-205.98196526034934
-0.23370000000000013,-206.97226317025488
-0.23470000000000002,-207.96256108016038
-0.23570000000000013,-208.95285899006592
-0.23670000000000002,-209.8016857699849
-0.2376999999999999,-210.50904141991748
-0.23870000000000002,-211.21639706985
-0.2396999999999999,-211.782281589796
-0.24070000000000003,-212.48963723972852
-0.24169999999999991,-213.47993514963403
-0.24270000000000003,-214.61170418952605
-0.24369999999999992,-215.6020020994316
-0.24470000000000003,-216.4508288793506
-0.24569999999999992,-217.15818452928315
-0.24670000000000003,-217.72406904922914
-0.24769999999999992,-218.28995356917517
-0.24870000000000003,-218.99730921910768
-0.24969999999999992,-219.8461359990267
-0.25070000000000003,-220.97790503891872
-0.2516999999999999,-221.96820294882426
-0.25270000000000004,-222.9585008587298
-0.2536999999999999,-223.80732763864881
-0.25470000000000004,-224.65615441856778
-0.2556999999999999,-225.08056780852735
-0.25670000000000004,-225.78792345845983
-0.25769999999999993,-226.63675023837888
-0.25870000000000004,-227.4855770182979
-0.25969999999999993,-228.61734605818995
-0.26070000000000004,-229.60764396809546
-0.26169999999999993,-230.45647074801445
-0.26270000000000004,-231.163826397947
-0.26369999999999993,-231.729710917893
-0.26470000000000005,-232.43706656782552
-0.26569999999999994,-233.1444222177581
-0.26670000000000005,-234.13472012766357
-0.26769999999999994,-235.26648916755556
-0.26870000000000005,-236.25678707746113
-0.26969999999999994,-237.24708498736666
-0.27070000000000005,-238.0959117672857
-0.27169999999999994,-238.8032674172182
-0.27270000000000005,-239.5106230671507
-0.27369999999999994,-240.21797871708318
-0.27470000000000006,-240.92533436701575
-0.27569999999999995,-242.05710340690777
-0.27670000000000006,-243.04740131681334
-0.27769999999999995,-244.03769922671884
-0.27870000000000006,-244.8865260066378
-0.27969999999999995,-245.45241052658386
-0.28070000000000006,-246.15976617651637
-0.28169999999999995,-246.7256506964624
-0.28270000000000006,-247.57447747638145
-0.28369999999999995,-248.70624651627344
-0.28470000000000006,-249.69654442617897
-0.28569999999999995,-250.6868423360845
-0.28670000000000007,-251.53566911600356
-0.28769999999999996,-252.243024765936
-0.28870000000000007,-252.80890928588207
-0.28969999999999996,-253.37479380582806
-0.29070000000000007,-254.2236205857471
-0.29169999999999996,-255.07244736566614
-0.29270000000000007,-256.20421640555816
-0.29369999999999996,-257.1945143154637
-0.2947000000000001,-258.0433410953827
-0.29569999999999996,-258.8921678753017
-0.2967000000000001,-259.4580523952477
-0.29769999999999996,-260.16540804518024
-0.2987000000000001,-260.8727636951128
-0.29969999999999997,-261.7215904750318
-0.3007000000000001,-262.7118883849373
-0.30169999999999997,-263.7021862948428
-0.3027000000000001,-264.6924842047484
-0.30369999999999997,-265.2583687246944
-0.3047000000000001,-265.9657243746269
-0.30569999999999997,-266.3901377645864
-0.3067000000000001,-267.09749341451896
-0.3077,-267.80484906445145
-0.3087000000000001,-268.79514697435695
-0.3097,-269.78544488426246
-0.3107000000000001,-270.775742794168
-0.3117,-271.62456957408705
-0.3127000000000001,-272.47339635400607
-0.3137,-273.03928087395207
-0.3147000000000001,-273.7466365238846
-0.3157,-274.5954633038036
-0.3167000000000001,-275.7272323436957
-0.3177,-276.7175302536012
-0.3187000000000001,-277.7078281635067
-0.3197,-278.6981260734122
-0.3207000000000001,-279.40548172334474
-0.3217,-279.97136624329073
-0.3227000000000001,-280.5372507632368
-0.3237,-281.24460641316927
-0.3247000000000001,-282.09343319308834
-0.3257,-282.9422599730073
-0.3267000000000001,-284.07402901289936
-0.3277,-284.9228557928184
-0.3287000000000001,-285.6302114427509
-0.3297,-286.33756709268346
-0.3307000000000001,-286.9034516126294
-0.3317,-287.46933613257545
-0.3327000000000001,-288.3181629124945
-0.3337,-289.3084608224
-0.3347000000000001,-290.44022986229203
-0.3357,-291.4305277721976
-0.3367000000000001,-292.1378834221301
-0.3377,-292.8452390720626
-0.3387000000000001,-293.4111235920086
-0.3397,-293.8355369819681
-0.3407000000000001,-294.54289263190066
-0.3417,-295.3917194118196
-0.3427000000000001,-296.3820173217252
-0.3437,-297.3723152316307
-0.3447000000000001,-298.2211420115498
-0.3457,-298.78702653149577
-0.3467000000000001,-299.3529110514418
-0.3477,-299.91879557138776
-0.3487000000000001,-300.6261512213203
-0.3497,-301.47497800123926
-0.3507000000000001,-302.4652759111449
-0.3517,-303.5970449510368
-0.3527000000000001,-304.72881399092887
-0.3537,-305.43616964086146
-0.3547000000000001,-306.1435252907939
-0.3557,-306.70940981073994
-0.35670000000000013,-307.27529433068594
-0.3577,-307.98264998061853
-0.35870000000000013,-308.8314767605375
-0.3597,-309.821774670443
-0.36070000000000013,-310.6706014503621
-0.3617,-311.3779571002945
-0.3626999999999999,-312.0853127502271
-0.3637,-312.50972614018656
-0.3646999999999999,-313.0756106601326
-0.3657,-313.78296631006515
-0.3666999999999999,-314.77326421997066
-0.3677,-315.76356212987616
-0.3686999999999999,-316.6123889097952
-0.36970000000000003,-317.60268681970075
-0.3706999999999999,-318.16857133964675
-0.37170000000000003,-318.73445585959274
-0.3726999999999999,-319.30034037953874
-0.37370000000000003,-319.8662248994848
-0.3746999999999999,-320.8565228093903
-0.37570000000000003,-321.8468207192958
-0.3766999999999999,-322.83711862920137
-0.37770000000000004,-323.68594540912045
-0.3786999999999999,-324.3933010590529
-0.37970000000000004,-324.9591855789989
-0.3806999999999999,-325.3835989689584
-0.38170000000000004,-325.94948348890443
-0.38269999999999993,-326.656839138837
-0.38370000000000004,-327.505665918756
-0.38469999999999993,-328.3544926986751
-0.38570000000000004,-329.20331947859404
-0.38669999999999993,-328.2130215686885
-0.38570000000000004,-324.25182992906645
-0.38469999999999993,-320.4321094194308
-0.38370000000000004,-316.6123889097952
-0.38269999999999993,-313.0756106601326
-0.38170000000000004,-309.6803035404565
-0.3806999999999999,-306.4264675507669
-0.37970000000000004,-303.31410269106385
-0.3786999999999999,-300.06026670137425
-0.37770000000000004,-296.6649595816982
-0.3766999999999999,-293.26965246202207
-0.37570000000000003,-289.73287421235955
-0.3746999999999999,-286.33756709268346
-0.37370000000000003,-283.22520223298034
-0.3726999999999999,-280.11283737327733
-0.37170000000000003,-277.1419436435607
-0.3706999999999999,-273.8881076538711
-0.36970000000000003,-270.63427166418154
-0.3686999999999999,-267.5219068044785
-0.3677,-264.12659968480233
-0.3666999999999999,-260.73129256512624
-0.3657,-257.76039883540966
-0.3646999999999999,-254.78950510569314
-0.3637,-252.10155363594956
-0.3626999999999999,-249.2721310362195
-0.3617,-246.30123730650286
-0.36070000000000013,-243.3303435767863
-0.3597,-240.0765075870967
-0.35870000000000013,-237.10561385738015
-0.3577,-234.13472012766357
-0.35670000000000013,-231.3052975279335
-0.3557,-228.61734605818995
-0.3547000000000001,-225.92939458844637
-0.3537,-223.09997198871628
-0.3527000000000001,-220.1290782589997
-0.3517,-217.15818452928315
-0.3507000000000001,-214.04581966958003
-0.3497,-211.07492593986345
-0.3487000000000001,-208.24550334013338
-0.3477,-205.69902300037634
-0.3467000000000001,-203.15254266061928
-0.3457,-200.4645911908757
-0.3447000000000001,-197.63516859114563
-0.3437,-194.80574599141553
-0.3427000000000001,-191.83485226169896
-0.3417,-188.8639585319824
-0.3407000000000001,-186.17600706223882
-0.3397,-183.62952672248176
-0.3387000000000001,-181.2245175127112
-0.3377,-178.81950830294062
-0.3367000000000001,-176.4144990931701
-0.3357,-173.72654762342648
-0.3347000000000001,-171.03859615368293
-0.3337,-168.35064468393938
-0.3327000000000001,-165.8041643441823
-0.3317,-163.54062626439824
-0.3307000000000001,-161.2770881846142
-0.3297,-159.01355010483013
-0.3287000000000001,-156.60854089505958
-0.3277,-154.0620605553025
-0.3267000000000001,-151.37410908555893
-0.3257,-148.82762874580186
-0.3247000000000001,-146.28114840604482
-0.3237,-143.87613919627424
-0.3227000000000001,-141.75407224647665
-0.3217,-139.61785818368048
-0.3207000000000001,-137.43920278188833
-0.3197,-135.09078202411234
-0.3187000000000001,-132.55844879735392
-0.3177,-130.02611557059552
-0.3167000000000001,-127.53622368283307
-0.3157,-125.272685603049
-0.3147000000000001,-123.2213542182447
-0.3137,-121.21246417243634
-0.3127000000000001,-119.1186914486361
-0.3117,-116.98247738583989
-0.3107000000000001,-114.63405662806393
-0.3097,-112.22904741829338
-0.3087000000000001,-109.8806266605174
-0.3077,-107.68782414572658
-0.3067000000000001,-105.69308121291688
-0.30569999999999997,-103.76907384510045
-0.3047000000000001,-101.88750781627995
-0.30369999999999997,-99.93520622246619
-0.3027000000000001,-97.74240370767538
-0.30169999999999997,-95.47886562789132
-0.3007000000000001,-93.17288620911131
-0.29969999999999997,-91.03667214631511
-0.2987000000000001,-89.02778210050676
-0.29769999999999996,-87.18865741068221
-0.2967000000000001,-85.40612117285227
-0.29569999999999996,-83.60943782202366
-0.2947000000000001,-81.65713622820991
-0.29369999999999996,-79.56336350440966
-0.29270000000000007,-77.34226676362155
-0.29169999999999996,-75.19190558782671
-0.29070000000000007,-73.32448667200485
-0.28969999999999996,-71.58439177317086
-0.28870000000000007,-70.01406223032066
-0.28769999999999996,-68.30226155748396
-0.28670000000000007,-66.43484264166212
-0.28569999999999995,-64.51083527384567
-0.28470000000000006,-62.41706255004542
-0.28369999999999995,-60.45061384323302
-0.28270000000000006,-58.583194927411164
-0.28169999999999995,-56.927982706569075
-0.28070000000000006,-55.400094502714836
-0.27969999999999995,-53.82976495986464
-0.27870000000000006,-52.11796428702795
-0.27769999999999995,-50.29298671020206
-0.27670000000000006,-48.2840966643937
-0.27569999999999995,-46.27520661858535
-0.27470000000000006,-44.36534636376755
-0.27369999999999994,-42.653545690930855
-0.27270000000000005,-41.139804600075266
-0.27169999999999994,-39.696799074212926
-0.27070000000000005,-38.211352209354644
-0.26969999999999994,-36.5985813275085
-0.26870000000000005,-34.717015298688004
-0.26769999999999994,-32.84959638286615
