Dec. 21, 2024   01:05:11
Linear Sweep Voltammetry
File: c:/users/guazh/data/banditlqround7_x0exp667_r5/2024-12-16-exp716\1acid_1ac-2024-12-21t01_01_59-lsvinphos\1acid_1ac_lsv_50mvs_efin_-2100mv.bin
Data Source:  Experiment
Instrument Model:  CHI760E
Header: LSV ran at 50 mVs with Efin at -2100mV
Note: 

Init E (V) = -0.6
Final E (V) = -2.1
Scan Rate (V/s) = 0.05
Sample Interval (V) = 0.001
Quiet Time (sec) = 2
Sensitivity (A/V) = 1e-4
Comp R (ohm) = 8.8

Results:

Channel 1:
Ep = -2.039V
ip = 8.462e-4A
Ah = 1.286e-3C

Potential/V, Current/A

-0.600, 2.436e-6
-0.601, 2.533e-6
-0.602, 2.573e-6
-0.603, 2.606e-6
-0.604, 2.638e-6
-0.605, 2.664e-6
-0.606, 2.691e-6
-0.607, 2.715e-6
-0.608, 2.744e-6
-0.609, 2.776e-6
-0.610, 2.801e-6
-0.611, 2.827e-6
-0.612, 2.854e-6
-0.613, 2.882e-6
-0.614, 2.913e-6
-0.615, 2.942e-6
-0.616, 2.967e-6
-0.617, 2.994e-6
-0.618, 3.022e-6
-0.619, 3.054e-6
-0.620, 3.082e-6
-0.621, 3.109e-6
-0.622, 3.136e-6
-0.623, 3.167e-6
-0.624, 3.198e-6
-0.625, 3.226e-6
-0.626, 3.252e-6
-0.627, 3.281e-6
-0.628, 3.311e-6
-0.629, 3.344e-6
-0.630, 3.373e-6
-0.631, 3.400e-6
-0.632, 3.431e-6
-0.633, 3.463e-6
-0.634, 3.495e-6
-0.635, 3.525e-6
-0.636, 3.554e-6
-0.637, 3.583e-6
-0.638, 3.616e-6
-0.639, 3.650e-6
-0.640, 3.682e-6
-0.641, 3.711e-6
-0.642, 3.741e-6
-0.643, 3.774e-6
-0.644, 3.809e-6
-0.645, 3.840e-6
-0.646, 3.871e-6
-0.647, 3.902e-6
-0.648, 3.935e-6
-0.649, 3.971e-6
-0.650, 4.001e-6
-0.651, 4.032e-6
-0.652, 4.065e-6
-0.653, 4.099e-6
-0.654, 4.134e-6
-0.655, 4.165e-6
-0.656, 4.195e-6
-0.657, 4.227e-6
-0.658, 4.259e-6
-0.659, 4.298e-6
-0.660, 4.330e-6
-0.661, 4.360e-6
-0.662, 4.394e-6
-0.663, 4.429e-6
-0.664, 4.466e-6
-0.665, 4.501e-6
-0.666, 4.536e-6
-0.667, 4.569e-6
-0.668, 4.603e-6
-0.669, 4.641e-6
-0.670, 4.674e-6
-0.671, 4.705e-6
-0.672, 4.740e-6
-0.673, 4.776e-6
-0.674, 4.812e-6
-0.675, 4.847e-6
-0.676, 4.879e-6
-0.677, 4.912e-6
-0.678, 4.949e-6
-0.679, 4.987e-6
-0.680, 5.022e-6
-0.681, 5.054e-6
-0.682, 5.087e-6
-0.683, 5.123e-6
-0.684, 5.161e-6
-0.685, 5.195e-6
-0.686, 5.229e-6
-0.687, 5.261e-6
-0.688, 5.297e-6
-0.689, 5.336e-6
-0.690, 5.369e-6
-0.691, 5.401e-6
-0.692, 5.435e-6
-0.693, 5.471e-6
-0.694, 5.508e-6
-0.695, 5.543e-6
-0.696, 5.575e-6
-0.697, 5.608e-6
-0.698, 5.642e-6
-0.699, 5.680e-6
-0.700, 5.713e-6
-0.701, 5.744e-6
-0.702, 5.778e-6
-0.703, 5.812e-6
-0.704, 5.849e-6
-0.705, 5.882e-6
-0.706, 5.909e-6
-0.707, 5.940e-6
-0.708, 5.972e-6
-0.709, 6.008e-6
-0.710, 6.041e-6
-0.711, 6.070e-6
-0.712, 6.102e-6
-0.713, 6.134e-6
-0.714, 6.167e-6
-0.715, 6.196e-6
-0.716, 6.224e-6
-0.717, 6.253e-6
-0.718, 6.284e-6
-0.719, 6.317e-6
-0.720, 6.347e-6
-0.721, 6.374e-6
-0.722, 6.403e-6
-0.723, 6.434e-6
-0.724, 6.466e-6
-0.725, 6.492e-6
-0.726, 6.519e-6
-0.727, 6.546e-6
-0.728, 6.573e-6
-0.729, 6.606e-6
-0.730, 6.631e-6
-0.731, 6.657e-6
-0.732, 6.681e-6
-0.733, 6.709e-6
-0.734, 6.738e-6
-0.735, 6.762e-6
-0.736, 6.785e-6
-0.737, 6.810e-6
-0.738, 6.834e-6
-0.739, 6.861e-6
-0.740, 6.884e-6
-0.741, 6.903e-6
-0.742, 6.925e-6
-0.743, 6.949e-6
-0.744, 6.974e-6
-0.745, 6.995e-6
-0.746, 7.013e-6
-0.747, 7.033e-6
-0.748, 7.054e-6
-0.749, 7.076e-6
-0.750, 7.097e-6
-0.751, 7.113e-6
-0.752, 7.130e-6
-0.753, 7.150e-6
-0.754, 7.170e-6
-0.755, 7.188e-6
-0.756, 7.201e-6
-0.757, 7.217e-6
-0.758, 7.233e-6
-0.759, 7.251e-6
-0.760, 7.266e-6
-0.761, 7.278e-6
-0.762, 7.291e-6
-0.763, 7.305e-6
-0.764, 7.322e-6
-0.765, 7.335e-6
-0.766, 7.345e-6
-0.767, 7.355e-6
-0.768, 7.370e-6
-0.769, 7.384e-6
-0.770, 7.394e-6
-0.771, 7.402e-6
-0.772, 7.411e-6
-0.773, 7.420e-6
-0.774, 7.432e-6
-0.775, 7.441e-6
-0.776, 7.447e-6
-0.777, 7.453e-6
-0.778, 7.461e-6
-0.779, 7.473e-6
-0.780, 7.479e-6
-0.781, 7.484e-6
-0.782, 7.488e-6
-0.783, 7.494e-6
-0.784, 7.501e-6
-0.785, 7.507e-6
-0.786, 7.508e-6
-0.787, 7.511e-6
-0.788, 7.515e-6
-0.789, 7.520e-6
-0.790, 7.522e-6
-0.791, 7.521e-6
-0.792, 7.523e-6
-0.793, 7.525e-6
-0.794, 7.529e-6
-0.795, 7.530e-6
-0.796, 7.529e-6
-0.797, 7.526e-6
-0.798, 7.528e-6
-0.799, 7.529e-6
-0.800, 7.528e-6
-0.801, 7.526e-6
-0.802, 7.523e-6
-0.803, 7.521e-6
-0.804, 7.521e-6
-0.805, 7.519e-6
-0.806, 7.515e-6
-0.807, 7.511e-6
-0.808, 7.507e-6
-0.809, 7.507e-6
-0.810, 7.502e-6
-0.811, 7.496e-6
-0.812, 7.491e-6
-0.813, 7.486e-6
-0.814, 7.483e-6
-0.815, 7.478e-6
-0.816, 7.471e-6
-0.817, 7.465e-6
-0.818, 7.457e-6
-0.819, 7.458e-6
-0.820, 7.453e-6
-0.821, 7.442e-6
-0.822, 7.433e-6
-0.823, 7.425e-6
-0.824, 7.422e-6
-0.825, 7.415e-6
-0.826, 7.406e-6
-0.827, 7.396e-6
-0.828, 7.388e-6
-0.829, 7.382e-6
-0.830, 7.375e-6
-0.831, 7.364e-6
-0.832, 7.354e-6
-0.833, 7.346e-6
-0.834, 7.340e-6
-0.835, 7.330e-6
-0.836, 7.319e-6
-0.837, 7.307e-6
-0.838, 7.298e-6
-0.839, 7.292e-6
-0.840, 7.282e-6
-0.841, 7.271e-6
-0.842, 7.259e-6
-0.843, 7.250e-6
-0.844, 7.243e-6
-0.845, 7.233e-6
-0.846, 7.220e-6
-0.847, 7.209e-6
-0.848, 7.199e-6
-0.849, 7.190e-6
-0.850, 7.181e-6
-0.851, 7.167e-6
-0.852, 7.156e-6
-0.853, 7.144e-6
-0.854, 7.137e-6
-0.855, 7.125e-6
-0.856, 7.112e-6
-0.857, 7.101e-6
-0.858, 7.089e-6
-0.859, 7.079e-6
-0.860, 7.069e-6
-0.861, 7.055e-6
-0.862, 7.043e-6
-0.863, 7.031e-6
-0.864, 7.023e-6
-0.865, 7.012e-6
-0.866, 6.998e-6
-0.867, 6.986e-6
-0.868, 6.973e-6
-0.869, 6.965e-6
-0.870, 6.954e-6
-0.871, 6.942e-6
-0.872, 6.929e-6
-0.873, 6.916e-6
-0.874, 6.908e-6
-0.875, 6.897e-6
-0.876, 6.884e-6
-0.877, 6.871e-6
-0.878, 6.860e-6
-0.879, 6.851e-6
-0.880, 6.841e-6
-0.881, 6.827e-6
-0.882, 6.814e-6
-0.883, 6.804e-6
-0.884, 6.793e-6
-0.885, 6.782e-6
-0.886, 6.768e-6
-0.887, 6.755e-6
-0.888, 6.745e-6
-0.889, 6.737e-6
-0.890, 6.725e-6
-0.891, 6.713e-6
-0.892, 6.700e-6
-0.893, 6.689e-6
-0.894, 6.681e-6
-0.895, 6.668e-6
-0.896, 6.657e-6
-0.897, 6.645e-6
-0.898, 6.633e-6
-0.899, 6.625e-6
-0.900, 6.615e-6
-0.901, 6.601e-6
-0.902, 6.589e-6
-0.903, 6.578e-6
-0.904, 6.570e-6
-0.905, 6.560e-6
-0.906, 6.546e-6
-0.907, 6.535e-6
-0.908, 6.525e-6
-0.909, 6.517e-6
-0.910, 6.508e-6
-0.911, 6.493e-6
-0.912, 6.483e-6
-0.913, 6.472e-6
-0.914, 6.464e-6
-0.915, 6.455e-6
-0.916, 6.443e-6
-0.917, 6.432e-6
-0.918, 6.423e-6
-0.919, 6.414e-6
-0.920, 6.405e-6
-0.921, 6.394e-6
-0.922, 6.382e-6
-0.923, 6.373e-6
-0.924, 6.365e-6
-0.925, 6.356e-6
-0.926, 6.344e-6
-0.927, 6.332e-6
-0.928, 6.323e-6
-0.929, 6.316e-6
-0.930, 6.307e-6
-0.931, 6.296e-6
-0.932, 6.285e-6
-0.933, 6.276e-6
-0.934, 6.270e-6
-0.935, 6.261e-6
-0.936, 6.251e-6
-0.937, 6.241e-6
-0.938, 6.232e-6
-0.939, 6.225e-6
-0.940, 6.218e-6
-0.941, 6.208e-6
-0.942, 6.198e-6
-0.943, 6.189e-6
-0.944, 6.184e-6
-0.945, 6.176e-6
-0.946, 6.166e-6
-0.947, 6.158e-6
-0.948, 6.150e-6
-0.949, 6.144e-6
-0.950, 6.137e-6
-0.951, 6.126e-6
-0.952, 6.116e-6
-0.953, 6.109e-6
-0.954, 6.104e-6
-0.955, 6.096e-6
-0.956, 6.086e-6
-0.957, 6.076e-6
-0.958, 6.069e-6
-0.959, 6.063e-6
-0.960, 6.057e-6
-0.961, 6.046e-6
-0.962, 6.037e-6
-0.963, 6.029e-6
-0.964, 6.024e-6
-0.965, 6.017e-6
-0.966, 6.008e-6
-0.967, 5.998e-6
-0.968, 5.990e-6
-0.969, 5.987e-6
-0.970, 5.980e-6
-0.971, 5.970e-6
-0.972, 5.962e-6
-0.973, 5.956e-6
-0.974, 5.951e-6
-0.975, 5.944e-6
-0.976, 5.937e-6
-0.977, 5.929e-6
-0.978, 5.922e-6
-0.979, 5.918e-6
-0.980, 5.912e-6
-0.981, 5.903e-6
-0.982, 5.896e-6
-0.983, 5.891e-6
-0.984, 5.886e-6
-0.985, 5.882e-6
-0.986, 5.873e-6
-0.987, 5.866e-6
-0.988, 5.858e-6
-0.989, 5.854e-6
-0.990, 5.850e-6
-0.991, 5.841e-6
-0.992, 5.833e-6
-0.993, 5.827e-6
-0.994, 5.822e-6
-0.995, 5.817e-6
-0.996, 5.809e-6
-0.997, 5.800e-6
-0.998, 5.794e-6
-0.999, 5.791e-6
-1.000, 5.785e-6
-1.001, 5.779e-6
-1.002, 5.770e-6
-1.003, 5.764e-6
-1.004, 5.761e-6
-1.005, 5.756e-6
-1.006, 5.748e-6
-1.007, 5.740e-6
-1.008, 5.734e-6
-1.009, 5.733e-6
-1.010, 5.727e-6
-1.011, 5.719e-6
-1.012, 5.714e-6
-1.013, 5.707e-6
-1.014, 5.704e-6
-1.015, 5.700e-6
-1.016, 5.691e-6
-1.017, 5.685e-6
-1.018, 5.679e-6
-1.019, 5.677e-6
-1.020, 5.673e-6
-1.021, 5.665e-6
-1.022, 5.660e-6
-1.023, 5.654e-6
-1.024, 5.652e-6
-1.025, 5.649e-6
-1.026, 5.641e-6
-1.027, 5.636e-6
-1.028, 5.630e-6
-1.029, 5.628e-6
-1.030, 5.624e-6
-1.031, 5.617e-6
-1.032, 5.612e-6
-1.033, 5.606e-6
-1.034, 5.602e-6
-1.035, 5.599e-6
-1.036, 5.594e-6
-1.037, 5.588e-6
-1.038, 5.583e-6
-1.039, 5.580e-6
-1.040, 5.577e-6
-1.041, 5.571e-6
-1.042, 5.564e-6
-1.043, 5.559e-6
-1.044, 5.558e-6
-1.045, 5.555e-6
-1.046, 5.548e-6
-1.047, 5.542e-6
-1.048, 5.538e-6
-1.049, 5.536e-6
-1.050, 5.533e-6
-1.051, 5.527e-6
-1.052, 5.521e-6
-1.053, 5.517e-6
-1.054, 5.514e-6
-1.055, 5.512e-6
-1.056, 5.505e-6
-1.057, 5.500e-6
-1.058, 5.496e-6
-1.059, 5.493e-6
-1.060, 5.491e-6
-1.061, 5.484e-6
-1.062, 5.481e-6
-1.063, 5.476e-6
-1.064, 5.474e-6
-1.065, 5.473e-6
-1.066, 5.466e-6
-1.067, 5.460e-6
-1.068, 5.456e-6
-1.069, 5.455e-6
-1.070, 5.453e-6
-1.071, 5.447e-6
-1.072, 5.443e-6
-1.073, 5.440e-6
-1.074, 5.437e-6
-1.075, 5.437e-6
-1.076, 5.432e-6
-1.077, 5.426e-6
-1.078, 5.423e-6
-1.079, 5.421e-6
-1.080, 5.420e-6
-1.081, 5.415e-6
-1.082, 5.410e-6
-1.083, 5.409e-6
-1.084, 5.407e-6
-1.085, 5.404e-6
-1.086, 5.400e-6
-1.087, 5.394e-6
-1.088, 5.391e-6
-1.089, 5.391e-6
-1.090, 5.388e-6
-1.091, 5.384e-6
-1.092, 5.381e-6
-1.093, 5.377e-6
-1.094, 5.375e-6
-1.095, 5.373e-6
-1.096, 5.370e-6
-1.097, 5.366e-6
-1.098, 5.363e-6
-1.099, 5.361e-6
-1.100, 5.361e-6
-1.101, 5.356e-6
-1.102, 5.353e-6
-1.103, 5.348e-6
-1.104, 5.347e-6
-1.105, 5.347e-6
-1.106, 5.341e-6
-1.107, 5.339e-6
-1.108, 5.336e-6
-1.109, 5.334e-6
-1.110, 5.334e-6
-1.111, 5.330e-6
-1.112, 5.326e-6
-1.113, 5.322e-6
-1.114, 5.323e-6
-1.115, 5.322e-6
-1.116, 5.319e-6
-1.117, 5.314e-6
-1.118, 5.312e-6
-1.119, 5.311e-6
-1.120, 5.310e-6
-1.121, 5.306e-6
-1.122, 5.301e-6
-1.123, 5.299e-6
-1.124, 5.299e-6
-1.125, 5.298e-6
-1.126, 5.294e-6
-1.127, 5.292e-6
-1.128, 5.290e-6
-1.129, 5.289e-6
-1.130, 5.288e-6
-1.131, 5.285e-6
-1.132, 5.280e-6
-1.133, 5.279e-6
-1.134, 5.278e-6
-1.135, 5.277e-6
-1.136, 5.273e-6
-1.137, 5.270e-6
-1.138, 5.268e-6
-1.139, 5.268e-6
-1.140, 5.269e-6
-1.141, 5.264e-6
-1.142, 5.261e-6
-1.143, 5.258e-6
-1.144, 5.257e-6
-1.145, 5.257e-6
-1.146, 5.254e-6
-1.147, 5.250e-6
-1.148, 5.246e-6
-1.149, 5.247e-6
-1.150, 5.247e-6
-1.151, 5.243e-6
-1.152, 5.241e-6
-1.153, 5.239e-6
-1.154, 5.238e-6
-1.155, 5.238e-6
-1.156, 5.236e-6
-1.157, 5.231e-6
-1.158, 5.229e-6
-1.159, 5.230e-6
-1.160, 5.230e-6
-1.161, 5.226e-6
-1.162, 5.222e-6
-1.163, 5.221e-6
-1.164, 5.222e-6
-1.165, 5.222e-6
-1.166, 5.218e-6
-1.167, 5.214e-6
-1.168, 5.212e-6
-1.169, 5.213e-6
-1.170, 5.213e-6
-1.171, 5.210e-6
-1.172, 5.206e-6
-1.173, 5.203e-6
-1.174, 5.206e-6
-1.175, 5.204e-6
-1.176, 5.202e-6
-1.177, 5.199e-6
-1.178, 5.198e-6
-1.179, 5.198e-6
-1.180, 5.199e-6
-1.181, 5.195e-6
-1.182, 5.194e-6
-1.183, 5.189e-6
-1.184, 5.189e-6
-1.185, 5.191e-6
-1.186, 5.187e-6
-1.187, 5.184e-6
-1.188, 5.183e-6
-1.189, 5.183e-6
-1.190, 5.182e-6
-1.191, 5.180e-6
-1.192, 5.178e-6
-1.193, 5.176e-6
-1.194, 5.175e-6
-1.195, 5.177e-6
-1.196, 5.174e-6
-1.197, 5.172e-6
-1.198, 5.170e-6
-1.199, 5.171e-6
-1.200, 5.171e-6
-1.201, 5.169e-6
-1.202, 5.166e-6
-1.203, 5.166e-6
-1.204, 5.166e-6
-1.205, 5.166e-6
-1.206, 5.164e-6
-1.207, 5.161e-6
-1.208, 5.159e-6
-1.209, 5.159e-6
-1.210, 5.159e-6
-1.211, 5.157e-6
-1.212, 5.154e-6
-1.213, 5.152e-6
-1.214, 5.153e-6
-1.215, 5.154e-6
-1.216, 5.151e-6
-1.217, 5.150e-6
-1.218, 5.146e-6
-1.219, 5.148e-6
-1.220, 5.149e-6
-1.221, 5.146e-6
-1.222, 5.144e-6
-1.223, 5.141e-6
-1.224, 5.141e-6
-1.225, 5.143e-6
-1.226, 5.140e-6
-1.227, 5.138e-6
-1.228, 5.137e-6
-1.229, 5.142e-6
-1.230, 5.141e-6
-1.231, 5.138e-6
-1.232, 5.136e-6
-1.233, 5.134e-6
-1.234, 5.135e-6
-1.235, 5.136e-6
-1.236, 5.133e-6
-1.237, 5.130e-6
-1.238, 5.128e-6
-1.239, 5.130e-6
-1.240, 5.131e-6
-1.241, 5.128e-6
-1.242, 5.126e-6
-1.243, 5.126e-6
-1.244, 5.127e-6
-1.245, 5.126e-6
-1.246, 5.126e-6
-1.247, 5.123e-6
-1.248, 5.121e-6
-1.249, 5.123e-6
-1.250, 5.124e-6
-1.251, 5.122e-6
-1.252, 5.120e-6
-1.253, 5.118e-6
-1.254, 5.120e-6
-1.255, 5.121e-6
-1.256, 5.118e-6
-1.257, 5.118e-6
-1.258, 5.116e-6
-1.259, 5.117e-6
-1.260, 5.118e-6
-1.261, 5.115e-6
-1.262, 5.114e-6
-1.263, 5.113e-6
-1.264, 5.114e-6
-1.265, 5.116e-6
-1.266, 5.113e-6
-1.267, 5.112e-6
-1.268, 5.111e-6
-1.269, 5.112e-6
-1.270, 5.115e-6
-1.271, 5.112e-6
-1.272, 5.110e-6
-1.273, 5.110e-6
-1.274, 5.111e-6
-1.275, 5.113e-6
-1.276, 5.111e-6
-1.277, 5.110e-6
-1.278, 5.108e-6
-1.279, 5.109e-6
-1.280, 5.113e-6
-1.281, 5.111e-6
-1.282, 5.109e-6
-1.283, 5.108e-6
-1.284, 5.110e-6
-1.285, 5.111e-6
-1.286, 5.109e-6
-1.287, 5.108e-6
-1.288, 5.106e-6
-1.289, 5.108e-6
-1.290, 5.110e-6
-1.291, 5.109e-6
-1.292, 5.107e-6
-1.293, 5.105e-6
-1.294, 5.108e-6
-1.295, 5.109e-6
-1.296, 5.109e-6
-1.297, 5.107e-6
-1.298, 5.104e-6
-1.299, 5.107e-6
-1.300, 5.111e-6
-1.301, 5.108e-6
-1.302, 5.107e-6
-1.303, 5.105e-6
-1.304, 5.107e-6
-1.305, 5.111e-6
-1.306, 5.109e-6
-1.307, 5.107e-6
-1.308, 5.106e-6
-1.309, 5.107e-6
-1.310, 5.111e-6
-1.311, 5.109e-6
-1.312, 5.107e-6
-1.313, 5.107e-6
-1.314, 5.108e-6
-1.315, 5.111e-6
-1.316, 5.110e-6
-1.317, 5.107e-6
-1.318, 5.107e-6
-1.319, 5.110e-6
-1.320, 5.113e-6
-1.321, 5.111e-6
-1.322, 5.110e-6
-1.323, 5.109e-6
-1.324, 5.111e-6
-1.325, 5.113e-6
-1.326, 5.113e-6
-1.327, 5.111e-6
-1.328, 5.111e-6
-1.329, 5.113e-6
-1.330, 5.116e-6
-1.331, 5.115e-6
-1.332, 5.114e-6
-1.333, 5.112e-6
-1.334, 5.116e-6
-1.335, 5.118e-6
-1.336, 5.116e-6
-1.337, 5.116e-6
-1.338, 5.116e-6
-1.339, 5.118e-6
-1.340, 5.121e-6
-1.341, 5.119e-6
-1.342, 5.118e-6
-1.343, 5.118e-6
-1.344, 5.120e-6
-1.345, 5.123e-6
-1.346, 5.122e-6
-1.347, 5.121e-6
-1.348, 5.120e-6
-1.349, 5.122e-6
-1.350, 5.125e-6
-1.351, 5.126e-6
-1.352, 5.123e-6
-1.353, 5.123e-6
-1.354, 5.126e-6
-1.355, 5.129e-6
-1.356, 5.128e-6
-1.357, 5.127e-6
-1.358, 5.129e-6
-1.359, 5.131e-6
-1.360, 5.133e-6
-1.361, 5.133e-6
-1.362, 5.132e-6
-1.363, 5.132e-6
-1.364, 5.135e-6
-1.365, 5.137e-6
-1.366, 5.137e-6
-1.367, 5.135e-6
-1.368, 5.135e-6
-1.369, 5.138e-6
-1.370, 5.142e-6
-1.371, 5.141e-6
-1.372, 5.142e-6
-1.373, 5.140e-6
-1.374, 5.143e-6
-1.375, 5.146e-6
-1.376, 5.147e-6
-1.377, 5.147e-6
-1.378, 5.146e-6
-1.379, 5.149e-6
-1.380, 5.153e-6
-1.381, 5.152e-6
-1.382, 5.153e-6
-1.383, 5.153e-6
-1.384, 5.156e-6
-1.385, 5.160e-6
-1.386, 5.159e-6
-1.387, 5.159e-6
-1.388, 5.158e-6
-1.389, 5.162e-6
-1.390, 5.165e-6
-1.391, 5.165e-6
-1.392, 5.164e-6
-1.393, 5.164e-6
-1.394, 5.168e-6
-1.395, 5.172e-6
-1.396, 5.173e-6
-1.397, 5.171e-6
-1.398, 5.173e-6
-1.399, 5.176e-6
-1.400, 5.179e-6
-1.401, 5.180e-6
-1.402, 5.179e-6
-1.403, 5.180e-6
-1.404, 5.183e-6
-1.405, 5.187e-6
-1.406, 5.189e-6
-1.407, 5.187e-6
-1.408, 5.189e-6
-1.409, 5.192e-6
-1.410, 5.196e-6
-1.411, 5.196e-6
-1.412, 5.197e-6
-1.413, 5.196e-6
-1.414, 5.202e-6
-1.415, 5.205e-6
-1.416, 5.205e-6
-1.417, 5.206e-6
-1.418, 5.206e-6
-1.419, 5.212e-6
-1.420, 5.216e-6
-1.421, 5.216e-6
-1.422, 5.216e-6
-1.423, 5.216e-6
-1.424, 5.220e-6
-1.425, 5.227e-6
-1.426, 5.227e-6
-1.427, 5.227e-6
-1.428, 5.230e-6
-1.429, 5.233e-6
-1.430, 5.238e-6
-1.431, 5.238e-6
-1.432, 5.238e-6
-1.433, 5.240e-6
-1.434, 5.246e-6
-1.435, 5.251e-6
-1.436, 5.252e-6
-1.437, 5.252e-6
-1.438, 5.254e-6
-1.439, 5.258e-6
-1.440, 5.264e-6
-1.441, 5.267e-6
-1.442, 5.266e-6
-1.443, 5.267e-6
-1.444, 5.272e-6
-1.445, 5.278e-6
-1.446, 5.281e-6
-1.447, 5.279e-6
-1.448, 5.281e-6
-1.449, 5.286e-6
-1.450, 5.292e-6
-1.451, 5.294e-6
-1.452, 5.295e-6
-1.453, 5.297e-6
-1.454, 5.301e-6
-1.455, 5.308e-6
-1.456, 5.310e-6
-1.457, 5.310e-6
-1.458, 5.311e-6
-1.459, 5.319e-6
-1.460, 5.325e-6
-1.461, 5.326e-6
-1.462, 5.328e-6
-1.463, 5.331e-6
-1.464, 5.336e-6
-1.465, 5.343e-6
-1.466, 5.344e-6
-1.467, 5.347e-6
-1.468, 5.348e-6
-1.469, 5.354e-6
-1.470, 5.362e-6
-1.471, 5.364e-6
-1.472, 5.366e-6
-1.473, 5.369e-6
-1.474, 5.375e-6
-1.475, 5.382e-6
-1.476, 5.385e-6
-1.477, 5.386e-6
-1.478, 5.390e-6
-1.479, 5.394e-6
-1.480, 5.402e-6
-1.481, 5.406e-6
-1.482, 5.408e-6
-1.483, 5.411e-6
-1.484, 5.417e-6
-1.485, 5.427e-6
-1.486, 5.432e-6
-1.487, 5.433e-6
-1.488, 5.435e-6
-1.489, 5.443e-6
-1.490, 5.449e-6
-1.491, 5.454e-6
-1.492, 5.458e-6
-1.493, 5.462e-6
-1.494, 5.468e-6
-1.495, 5.478e-6
-1.496, 5.481e-6
-1.497, 5.485e-6
-1.498, 5.489e-6
-1.499, 5.496e-6
-1.500, 5.505e-6
-1.501, 5.509e-6
-1.502, 5.515e-6
-1.503, 5.519e-6
-1.504, 5.527e-6
-1.505, 5.536e-6
-1.506, 5.541e-6
-1.507, 5.546e-6
-1.508, 5.550e-6
-1.509, 5.559e-6
-1.510, 5.568e-6
-1.511, 5.576e-6
-1.512, 5.579e-6
-1.513, 5.584e-6
-1.514, 5.592e-6
-1.515, 5.603e-6
-1.516, 5.609e-6
-1.517, 5.614e-6
-1.518, 5.620e-6
-1.519, 5.627e-6
-1.520, 5.637e-6
-1.521, 5.645e-6
-1.522, 5.650e-6
-1.523, 5.657e-6
-1.524, 5.666e-6
-1.525, 5.677e-6
-1.526, 5.685e-6
-1.527, 5.689e-6
-1.528, 5.696e-6
-1.529, 5.706e-6
-1.530, 5.719e-6
-1.531, 5.727e-6
-1.532, 5.732e-6
-1.533, 5.739e-6
-1.534, 5.751e-6
-1.535, 5.762e-6
-1.536, 5.772e-6
-1.537, 5.779e-6
-1.538, 5.785e-6
-1.539, 5.797e-6
-1.540, 5.811e-6
-1.541, 5.819e-6
-1.542, 5.828e-6
-1.543, 5.834e-6
-1.544, 5.846e-6
-1.545, 5.862e-6
-1.546, 5.869e-6
-1.547, 5.877e-6
-1.548, 5.886e-6
-1.549, 5.898e-6
-1.550, 5.911e-6
-1.551, 5.920e-6
-1.552, 5.926e-6
-1.553, 5.934e-6
-1.554, 5.946e-6
-1.555, 5.962e-6
-1.556, 5.973e-6
-1.557, 5.980e-6
-1.558, 5.992e-6
-1.559, 6.005e-6
-1.560, 6.021e-6
-1.561, 6.030e-6
-1.562, 6.041e-6
-1.563, 6.051e-6
-1.564, 6.065e-6
-1.565, 6.081e-6
-1.566, 6.093e-6
-1.567, 6.101e-6
-1.568, 6.113e-6
-1.569, 6.129e-6
-1.570, 6.144e-6
-1.571, 6.155e-6
-1.572, 6.164e-6
-1.573, 6.176e-6
-1.574, 6.192e-6
-1.575, 6.207e-6
-1.576, 6.219e-6
-1.577, 6.232e-6
-1.578, 6.242e-6
-1.579, 6.259e-6
-1.580, 6.276e-6
-1.581, 6.290e-6
-1.582, 6.302e-6
-1.583, 6.313e-6
-1.584, 6.330e-6
-1.585, 6.349e-6
-1.586, 6.363e-6
-1.587, 6.379e-6
-1.588, 6.392e-6
-1.589, 6.407e-6
-1.590, 6.427e-6
-1.591, 6.442e-6
-1.592, 6.454e-6
-1.593, 6.468e-6
-1.594, 6.486e-6
-1.595, 6.507e-6
-1.596, 6.522e-6
-1.597, 6.535e-6
-1.598, 6.552e-6
-1.599, 6.569e-6
-1.600, 6.593e-6
-1.601, 6.610e-6
-1.602, 6.622e-6
-1.603, 6.638e-6
-1.604, 6.657e-6
-1.605, 6.679e-6
-1.606, 6.699e-6
-1.607, 6.712e-6
-1.608, 6.728e-6
-1.609, 6.749e-6
-1.610, 6.772e-6
-1.611, 6.791e-6
-1.612, 6.808e-6
-1.613, 6.824e-6
-1.614, 6.846e-6
-1.615, 6.870e-6
-1.616, 6.887e-6
-1.617, 6.905e-6
-1.618, 6.923e-6
-1.619, 6.946e-6
-1.620, 6.969e-6
-1.621, 6.991e-6
-1.622, 7.008e-6
-1.623, 7.025e-6
-1.624, 7.049e-6
-1.625, 7.076e-6
-1.626, 7.097e-6
-1.627, 7.117e-6
-1.628, 7.136e-6
-1.629, 7.161e-6
-1.630, 7.189e-6
-1.631, 7.210e-6
-1.632, 7.231e-6
-1.633, 7.252e-6
-1.634, 7.277e-6
-1.635, 7.306e-6
-1.636, 7.330e-6
-1.637, 7.350e-6
-1.638, 7.375e-6
-1.639, 7.408e-6
-1.640, 7.432e-6
-1.641, 7.458e-6
-1.642, 7.480e-6
-1.643, 7.503e-6
-1.644, 7.531e-6
-1.645, 7.564e-6
-1.646, 7.593e-6
-1.647, 7.614e-6
-1.648, 7.638e-6
-1.649, 7.671e-6
-1.650, 7.704e-6
-1.651, 7.735e-6
-1.652, 7.761e-6
-1.653, 7.786e-6
-1.654, 7.819e-6
-1.655, 7.854e-6
-1.656, 7.885e-6
-1.657, 7.914e-6
-1.658, 7.942e-6
-1.659, 7.977e-6
-1.660, 8.014e-6
-1.661, 8.049e-6
-1.662, 8.082e-6
-1.663, 8.116e-6
-1.664, 8.159e-6
-1.665, 8.208e-6
-1.666, 8.252e-6
-1.667, 8.292e-6
-1.668, 8.334e-6
-1.669, 8.375e-6
-1.670, 8.419e-6
-1.671, 8.454e-6
-1.672, 8.485e-6
-1.673, 8.520e-6
-1.674, 8.556e-6
-1.675, 8.599e-6
-1.676, 8.639e-6
-1.677, 8.677e-6
-1.678, 8.720e-6
-1.679, 8.765e-6
-1.680, 8.813e-6
-1.681, 8.857e-6
-1.682, 8.896e-6
-1.683, 8.940e-6
-1.684, 8.988e-6
-1.685, 9.038e-6
-1.686, 9.090e-6
-1.687, 9.132e-6
-1.688, 9.181e-6
-1.689, 9.236e-6
-1.690, 9.296e-6
-1.691, 9.349e-6
-1.692, 9.395e-6
-1.693, 9.445e-6
-1.694, 9.504e-6
-1.695, 9.564e-6
-1.696, 9.623e-6
-1.697, 9.675e-6
-1.698, 9.731e-6
-1.699, 9.795e-6
-1.700, 9.864e-6
-1.701, 9.926e-6
-1.702, 9.989e-6
-1.703, 1.005e-5
-1.704, 1.011e-5
-1.705, 1.018e-5
-1.706, 1.025e-5
-1.707, 1.031e-5
-1.708, 1.037e-5
-1.709, 1.044e-5
-1.710, 1.052e-5
-1.711, 1.059e-5
-1.712, 1.065e-5
-1.713, 1.070e-5
-1.714, 1.078e-5
-1.715, 1.087e-5
-1.716, 1.095e-5
-1.717, 1.102e-5
-1.718, 1.110e-5
-1.719, 1.118e-5
-1.720, 1.128e-5
-1.721, 1.137e-5
-1.722, 1.145e-5
-1.723, 1.153e-5
-1.724, 1.161e-5
-1.725, 1.170e-5
-1.726, 1.179e-5
-1.727, 1.188e-5
-1.728, 1.198e-5
-1.729, 1.206e-5
-1.730, 1.215e-5
-1.731, 1.226e-5
-1.732, 1.236e-5
-1.733, 1.246e-5
-1.734, 1.257e-5
-1.735, 1.268e-5
-1.736, 1.280e-5
-1.737, 1.291e-5
-1.738, 1.302e-5
-1.739, 1.315e-5
-1.740, 1.327e-5
-1.741, 1.340e-5
-1.742, 1.353e-5
-1.743, 1.365e-5
-1.744, 1.378e-5
-1.745, 1.393e-5
-1.746, 1.406e-5
-1.747, 1.417e-5
-1.748, 1.430e-5
-1.749, 1.445e-5
-1.750, 1.461e-5
-1.751, 1.476e-5
-1.752, 1.491e-5
-1.753, 1.506e-5
-1.754, 1.523e-5
-1.755, 1.540e-5
-1.756, 1.557e-5
-1.757, 1.574e-5
-1.758, 1.592e-5
-1.759, 1.610e-5
-1.760, 1.629e-5
-1.761, 1.647e-5
-1.762, 1.665e-5
-1.763, 1.685e-5
-1.764, 1.706e-5
-1.765, 1.726e-5
-1.766, 1.747e-5
-1.767, 1.768e-5
-1.768, 1.790e-5
-1.769, 1.812e-5
-1.770, 1.835e-5
-1.771, 1.859e-5
-1.772, 1.880e-5
-1.773, 1.895e-5
-1.774, 1.917e-5
-1.775, 1.942e-5
-1.776, 1.968e-5
-1.777, 1.994e-5
-1.778, 2.021e-5
-1.779, 2.049e-5
-1.780, 2.078e-5
-1.781, 2.107e-5
-1.782, 2.138e-5
-1.783, 2.168e-5
-1.784, 2.199e-5
-1.785, 2.231e-5
-1.786, 2.261e-5
-1.787, 2.292e-5
-1.788, 2.325e-5
-1.789, 2.360e-5
-1.790, 2.397e-5
-1.791, 2.432e-5
-1.792, 2.470e-5
-1.793, 2.508e-5
-1.794, 2.547e-5
-1.795, 2.589e-5
-1.796, 2.630e-5
-1.797, 2.673e-5
-1.798, 2.718e-5
-1.799, 2.763e-5
-1.800, 2.809e-5
-1.801, 2.854e-5
-1.802, 2.899e-5
-1.803, 2.949e-5
-1.804, 2.999e-5
-1.805, 3.052e-5
-1.806, 3.106e-5
-1.807, 3.156e-5
-1.808, 3.208e-5
-1.809, 3.263e-5
-1.810, 3.322e-5
-1.811, 3.383e-5
-1.812, 3.443e-5
-1.813, 3.502e-5
-1.814, 3.567e-5
-1.815, 3.635e-5
-1.816, 3.703e-5
-1.817, 3.774e-5
-1.818, 3.845e-5
-1.819, 3.919e-5
-1.820, 3.994e-5
-1.821, 4.072e-5
-1.822, 4.151e-5
-1.823, 4.231e-5
-1.824, 4.315e-5
-1.825, 4.400e-5
-1.826, 4.488e-5
-1.827, 4.578e-5
-1.828, 4.669e-5
-1.829, 4.765e-5
-1.830, 4.864e-5
-1.831, 4.963e-5
-1.832, 5.066e-5
-1.833, 5.171e-5
-1.834, 5.279e-5
-1.835, 5.387e-5
-1.836, 5.496e-5
-1.837, 5.611e-5
-1.838, 5.729e-5
-1.839, 5.849e-5
-1.840, 5.974e-5
-1.841, 6.103e-5
-1.842, 6.232e-5
-1.843, 6.367e-5
-1.844, 6.506e-5
-1.845, 6.649e-5
-1.846, 6.794e-5
-1.847, 6.940e-5
-1.848, 7.091e-5
-1.849, 7.246e-5
-1.850, 7.404e-5
-1.851, 7.566e-5
-1.852, 7.733e-5
-1.853, 7.903e-5
-1.854, 8.079e-5
-1.855, 8.261e-5
-1.856, 8.444e-5
-1.857, 8.628e-5
-1.858, 8.815e-5
-1.859, 9.009e-5
-1.860, 9.208e-5
-1.861, 9.411e-5
-1.862, 9.617e-5
-1.863, 9.830e-5
-1.864, 1.005e-4
-1.865, 1.027e-4
-1.866, 1.050e-4
-1.867, 1.073e-4
-1.868, 1.096e-4
-1.869, 1.120e-4
-1.870, 1.145e-4
-1.871, 1.170e-4
-1.872, 1.195e-4
-1.873, 1.221e-4
-1.874, 1.247e-4
-1.875, 1.274e-4
-1.876, 1.302e-4
-1.877, 1.330e-4
-1.878, 1.359e-4
-1.879, 1.387e-4
-1.880, 1.417e-4
-1.881, 1.447e-4
-1.882, 1.478e-4
-1.883, 1.510e-4
-1.884, 1.543e-4
-1.885, 1.574e-4
-1.886, 1.606e-4
-1.887, 1.639e-4
-1.888, 1.672e-4
-1.889, 1.706e-4
-1.890, 1.741e-4
-1.891, 1.776e-4
-1.892, 1.812e-4
-1.893, 1.848e-4
-1.894, 1.885e-4
-1.895, 1.923e-4
-1.896, 1.962e-4
-1.897, 2.000e-4
-1.898, 2.038e-4
-1.899, 2.078e-4
-1.900, 2.118e-4
-1.901, 2.159e-4
-1.902, 2.200e-4
-1.903, 2.241e-4
-1.904, 2.283e-4
-1.905, 2.325e-4
-1.906, 2.367e-4
-1.907, 2.410e-4
-1.908, 2.452e-4
-1.909, 2.494e-4
-1.910, 2.537e-4
-1.911, 2.580e-4
-1.912, 2.623e-4
-1.913, 2.665e-4
-1.914, 2.708e-4
-1.915, 2.751e-4
-1.916, 2.794e-4
-1.917, 2.837e-4
-1.918, 2.879e-4
-1.919, 2.921e-4
-1.920, 2.964e-4
-1.921, 3.006e-4
-1.922, 3.048e-4
-1.923, 3.089e-4
-1.924, 3.131e-4
-1.925, 3.172e-4
-1.926, 3.213e-4
-1.927, 3.255e-4
-1.928, 3.296e-4
-1.929, 3.338e-4
-1.930, 3.379e-4
-1.931, 3.422e-4
-1.932, 3.464e-4
-1.933, 3.506e-4
-1.934, 3.548e-4
-1.935, 3.590e-4
-1.936, 3.634e-4
-1.937, 3.678e-4
-1.938, 3.721e-4
-1.939, 3.765e-4
-1.940, 3.810e-4
-1.941, 3.855e-4
-1.942, 3.900e-4
-1.943, 3.945e-4
-1.944, 3.990e-4
-1.945, 4.036e-4
-1.946, 4.083e-4
-1.947, 4.130e-4
-1.948, 4.177e-4
-1.949, 4.225e-4
-1.950, 4.273e-4
-1.951, 4.322e-4
-1.952, 4.371e-4
-1.953, 4.420e-4
-1.954, 4.469e-4
-1.955, 4.520e-4
-1.956, 4.570e-4
-1.957, 4.621e-4
-1.958, 4.672e-4
-1.959, 4.723e-4
-1.960, 4.776e-4
-1.961, 4.828e-4
-1.962, 4.881e-4
-1.963, 4.935e-4
-1.964, 4.988e-4
-1.965, 5.043e-4
-1.966, 5.097e-4
-1.967, 5.152e-4
-1.968, 5.208e-4
-1.969, 5.264e-4
-1.970, 5.320e-4
-1.971, 5.377e-4
-1.972, 5.434e-4
-1.973, 5.491e-4
-1.974, 5.548e-4
-1.975, 5.605e-4
-1.976, 5.664e-4
-1.977, 5.723e-4
-1.978, 5.782e-4
-1.979, 5.842e-4
-1.980, 5.902e-4
-1.981, 5.964e-4
-1.982, 6.025e-4
-1.983, 6.086e-4
-1.984, 6.148e-4
-1.985, 6.211e-4
-1.986, 6.274e-4
-1.987, 6.338e-4
-1.988, 6.402e-4
-1.989, 6.466e-4
-1.990, 6.531e-4
-1.991, 6.595e-4
-1.992, 6.661e-4
-1.993, 6.727e-4
-1.994, 6.793e-4
-1.995, 6.860e-4
-1.996, 6.927e-4
-1.997, 6.995e-4
-1.998, 7.065e-4
-1.999, 7.135e-4
-2.000, 7.204e-4
-2.001, 7.274e-4
-2.002, 7.345e-4
-2.003, 7.415e-4
-2.004, 7.485e-4
-2.005, 7.557e-4
-2.006, 7.629e-4
-2.007, 7.700e-4
-2.008, 7.771e-4
-2.009, 7.843e-4
-2.010, 7.915e-4
-2.011, 7.989e-4
-2.012, 8.064e-4
-2.013, 8.139e-4
-2.014, 8.214e-4
-2.015, 8.289e-4
-2.016, 8.365e-4
-2.017, 8.441e-4
-2.018, 8.516e-4
-2.019, 8.593e-4
-2.020, 8.670e-4
-2.021, 8.746e-4
-2.022, 8.823e-4
-2.023, 8.901e-4
-2.024, 8.979e-4
-2.025, 9.058e-4
-2.026, 9.138e-4
-2.027, 9.219e-4
-2.028, 9.298e-4
-2.029, 9.379e-4
-2.030, 9.459e-4
-2.031, 9.541e-4
-2.032, 9.622e-4
-2.033, 9.704e-4
-2.034, 9.788e-4
-2.035, 9.873e-4
-2.036, 9.957e-4
-2.037, 1.004e-3
-2.038, 1.010e-3
-2.039, 1.011e-3
-2.040, 1.011e-3
-2.041, 1.011e-3
-2.042, 1.011e-3
-2.043, 1.011e-3
-2.044, 1.011e-3
-2.045, 1.011e-3
-2.046, 1.011e-3
-2.047, 1.011e-3
-2.048, 1.011e-3
-2.049, 1.011e-3
-2.050, 1.011e-3
-2.051, 1.011e-3
-2.052, 1.011e-3
-2.053, 1.011e-3
-2.054, 1.011e-3
-2.055, 1.011e-3
-2.056, 1.011e-3
-2.057, 1.011e-3
-2.058, 1.011e-3
-2.059, 1.011e-3
-2.060, 1.011e-3
-2.061, 1.011e-3
-2.062, 1.011e-3
-2.063, 1.011e-3
-2.064, 1.011e-3
-2.065, 1.011e-3
-2.066, 1.011e-3
-2.067, 1.011e-3
-2.068, 1.011e-3
-2.069, 1.011e-3
-2.070, 1.011e-3
-2.071, 1.011e-3
-2.072, 1.011e-3
-2.073, 1.011e-3
-2.074, 1.011e-3
-2.075, 1.011e-3
-2.076, 1.011e-3
-2.077, 1.011e-3
-2.078, 1.011e-3
-2.079, 1.011e-3
-2.080, 1.011e-3
-2.081, 1.011e-3
-2.082, 1.011e-3
-2.083, 1.011e-3
-2.084, 1.011e-3
-2.085, 1.011e-3
-2.086, 1.011e-3
-2.087, 1.011e-3
-2.088, 1.011e-3
-2.089, 1.011e-3
-2.090, 1.011e-3
-2.091, 1.011e-3
-2.092, 1.011e-3
-2.093, 1.011e-3
-2.094, 1.011e-3
-2.095, 1.011e-3
-2.096, 1.011e-3
-2.097, 1.011e-3
-2.098, 1.011e-3
-2.099, 1.011e-3
