Apr. 7, 2025   15:57:02
Cyclic Voltammetry
File: c:/users/guazh/data/banditlqround7_x0exp994_r5/2025-03-28-exp1010\exp1010-2025-04-07t15_41_05-arkoh\exp1010_cv_sr_700mvs_efin_-1600mv.bin
Data Source:  Experiment
Instrument Model:  CHI760E
Header: CV ran at 700 mVs
Note: 

Init E (V) = -1
High E (V) = -1
Low E (V) = -1.6
Final E (V) = -1
Init P/N = N
Scan Rate (V/s) = 0.7
Segment = 3
Sample Interval (V) = 0.001
Quiet Time (sec) = 2
Sensitivity (A/V) = 0.01
Comp R (ohm) = 1.9

Results:

Channel 1:
Segment 1:

Segment 2:

Segment 3:

Potential/V, Current/A

-1.000, 3.239e-6
-1.001, 3.239e-6
-1.002, 6.322e-6
-1.003, 3.239e-6
-1.004, 3.239e-6
-1.005, 3.239e-6
-1.006, 6.322e-6
-1.007, 6.322e-6
-1.008, 3.239e-6
-1.009, 6.322e-6
-1.010, 3.239e-6
-1.011, 6.322e-6
-1.012, 6.322e-6
-1.013, 6.322e-6
-1.014, 3.239e-6
-1.015, 6.322e-6
-1.016, 6.322e-6
-1.017, 3.239e-6
-1.018, 6.322e-6
-1.019, 6.322e-6
-1.020, 6.322e-6
-1.021, 3.239e-6
-1.022, 6.322e-6
-1.023, 6.322e-6
-1.024, 6.322e-6
-1.025, 6.322e-6
-1.026, 6.322e-6
-1.027, 6.322e-6
-1.028, 6.322e-6
-1.029, 6.322e-6
-1.030, 6.322e-6
-1.031, 6.322e-6
-1.032, 6.322e-6
-1.033, 6.322e-6
-1.034, 6.322e-6
-1.035, 6.322e-6
-1.036, 6.322e-6
-1.037, 6.322e-6
-1.038, 6.322e-6
-1.039, 6.322e-6
-1.040, 6.322e-6
-1.041, 6.322e-6
-1.042, 6.322e-6
-1.043, 6.322e-6
-1.044, 6.322e-6
-1.045, 6.322e-6
-1.046, 6.322e-6
-1.047, 6.322e-6
-1.048, 6.322e-6
-1.049, 6.322e-6
-1.050, 6.322e-6
-1.051, 6.322e-6
-1.052, 6.322e-6
-1.053, 6.322e-6
-1.054, 6.322e-6
-1.055, 6.322e-6
-1.056, 6.322e-6
-1.057, 6.322e-6
-1.058, 6.322e-6
-1.059, 6.322e-6
-1.060, 6.322e-6
-1.061, 6.322e-6
-1.062, 6.322e-6
-1.063, 6.322e-6
-1.064, 6.322e-6
-1.065, 9.405e-6
-1.066, 6.322e-6
-1.067, 6.322e-6
-1.068, 6.322e-6
-1.069, 6.322e-6
-1.070, 6.322e-6
-1.071, 6.322e-6
-1.072, 6.322e-6
-1.073, 6.322e-6
-1.074, 9.405e-6
-1.075, 6.322e-6
-1.076, 9.405e-6
-1.077, 6.322e-6
-1.078, 6.322e-6
-1.079, 9.405e-6
-1.080, 6.322e-6
-1.081, 9.405e-6
-1.082, 6.322e-6
-1.083, 9.405e-6
-1.084, 9.405e-6
-1.085, 9.405e-6
-1.086, 9.405e-6
-1.087, 6.322e-6
-1.088, 9.405e-6
-1.089, 6.322e-6
-1.090, 9.405e-6
-1.091, 6.322e-6
-1.092, 6.322e-6
-1.093, 9.405e-6
-1.094, 9.405e-6
-1.095, 9.405e-6
-1.096, 6.322e-6
-1.097, 9.405e-6
-1.098, 6.322e-6
-1.099, 9.405e-6
-1.100, 9.405e-6
-1.101, 9.405e-6
-1.102, 9.405e-6
-1.103, 9.405e-6
-1.104, 9.405e-6
-1.105, 9.405e-6
-1.106, 9.405e-6
-1.107, 6.322e-6
-1.108, 9.405e-6
-1.109, 6.322e-6
-1.110, 9.405e-6
-1.111, 9.405e-6
-1.112, 9.405e-6
-1.113, 9.405e-6
-1.114, 9.405e-6
-1.115, 9.405e-6
-1.116, 9.405e-6
-1.117, 9.405e-6
-1.118, 9.405e-6
-1.119, 9.405e-6
-1.120, 9.405e-6
-1.121, 9.405e-6
-1.122, 9.405e-6
-1.123, 9.405e-6
-1.124, 9.405e-6
-1.125, 9.405e-6
-1.126, 9.405e-6
-1.127, 9.405e-6
-1.128, 9.405e-6
-1.129, 9.405e-6
-1.130, 9.405e-6
-1.131, 9.405e-6
-1.132, 9.405e-6
-1.133, 9.405e-6
-1.134, 9.405e-6
-1.135, 9.405e-6
-1.136, 9.405e-6
-1.137, 9.405e-6
-1.138, 9.405e-6
-1.139, 9.405e-6
-1.140, 9.405e-6
-1.141, 9.405e-6
-1.142, 9.405e-6
-1.143, 9.405e-6
-1.144, 9.405e-6
-1.145, 9.405e-6
-1.146, 9.405e-6
-1.147, 9.405e-6
-1.148, 9.405e-6
-1.149, 9.405e-6
-1.150, 9.405e-6
-1.151, 9.405e-6
-1.152, 9.405e-6
-1.153, 1.249e-5
-1.154, 9.405e-6
-1.155, 9.405e-6
-1.156, 9.405e-6
-1.157, 9.405e-6
-1.158, 9.405e-6
-1.159, 9.405e-6
-1.160, 9.405e-6
-1.161, 9.405e-6
-1.162, 9.405e-6
-1.163, 9.405e-6
-1.164, 9.405e-6
-1.165, 9.405e-6
-1.166, 9.405e-6
-1.167, 1.249e-5
-1.168, 9.405e-6
-1.169, 9.405e-6
-1.170, 9.405e-6
-1.171, 9.405e-6
-1.172, 9.405e-6
-1.173, 9.405e-6
-1.174, 9.405e-6
-1.175, 9.405e-6
-1.176, 1.249e-5
-1.177, 9.405e-6
-1.178, 1.249e-5
-1.179, 1.249e-5
-1.180, 9.405e-6
-1.181, 1.249e-5
-1.182, 1.249e-5
-1.183, 1.249e-5
-1.184, 9.405e-6
-1.185, 1.249e-5
-1.186, 9.405e-6
-1.187, 1.249e-5
-1.188, 1.249e-5
-1.189, 1.249e-5
-1.190, 1.249e-5
-1.191, 9.405e-6
-1.192, 1.249e-5
-1.193, 9.405e-6
-1.194, 1.249e-5
-1.195, 1.249e-5
-1.196, 1.249e-5
-1.197, 1.249e-5
-1.198, 1.249e-5
-1.199, 1.249e-5
-1.200, 9.405e-6
-1.201, 1.249e-5
-1.202, 1.249e-5
-1.203, 1.249e-5
-1.204, 1.249e-5
-1.205, 1.249e-5
-1.206, 1.249e-5
-1.207, 1.249e-5
-1.208, 1.249e-5
-1.209, 1.249e-5
-1.210, 1.249e-5
-1.211, 1.249e-5
-1.212, 1.249e-5
-1.213, 1.249e-5
-1.214, 1.249e-5
-1.215, 1.249e-5
-1.216, 1.249e-5
-1.217, 1.249e-5
-1.218, 1.249e-5
-1.219, 1.249e-5
-1.220, 1.249e-5
-1.221, 1.249e-5
-1.222, 1.249e-5
-1.223, 1.249e-5
-1.224, 1.249e-5
-1.225, 1.249e-5
-1.226, 1.249e-5
-1.227, 1.249e-5
-1.228, 1.249e-5
-1.229, 1.249e-5
-1.230, 1.249e-5
-1.231, 1.249e-5
-1.232, 1.249e-5
-1.233, 1.249e-5
-1.234, 1.249e-5
-1.235, 1.249e-5
-1.236, 1.249e-5
-1.237, 1.249e-5
-1.238, 1.249e-5
-1.239, 1.249e-5
-1.240, 1.249e-5
-1.241, 1.249e-5
-1.242, 1.249e-5
-1.243, 1.249e-5
-1.244, 1.557e-5
-1.245, 1.249e-5
-1.246, 1.557e-5
-1.247, 1.249e-5
-1.248, 1.249e-5
-1.249, 1.249e-5
-1.250, 1.249e-5
-1.251, 1.557e-5
-1.252, 1.249e-5
-1.253, 1.557e-5
-1.254, 1.249e-5
-1.255, 1.557e-5
-1.256, 1.249e-5
-1.257, 1.249e-5
-1.258, 1.249e-5
-1.259, 1.557e-5
-1.260, 1.557e-5
-1.261, 1.249e-5
-1.262, 1.557e-5
-1.263, 1.557e-5
-1.264, 1.557e-5
-1.265, 1.249e-5
-1.266, 1.557e-5
-1.267, 1.557e-5
-1.268, 1.557e-5
-1.269, 1.249e-5
-1.270, 1.557e-5
-1.271, 1.557e-5
-1.272, 1.249e-5
-1.273, 1.557e-5
-1.274, 1.557e-5
-1.275, 1.557e-5
-1.276, 1.557e-5
-1.277, 1.557e-5
-1.278, 1.557e-5
-1.279, 1.557e-5
-1.280, 1.557e-5
-1.281, 1.557e-5
-1.282, 1.557e-5
-1.283, 1.557e-5
-1.284, 1.557e-5
-1.285, 1.557e-5
-1.286, 1.557e-5
-1.287, 1.557e-5
-1.288, 1.557e-5
-1.289, 1.557e-5
-1.290, 1.557e-5
-1.291, 1.557e-5
-1.292, 1.557e-5
-1.293, 1.557e-5
-1.294, 1.557e-5
-1.295, 1.557e-5
-1.296, 1.557e-5
-1.297, 1.557e-5
-1.298, 1.557e-5
-1.299, 1.557e-5
-1.300, 1.865e-5
-1.301, 1.557e-5
-1.302, 1.557e-5
-1.303, 1.865e-5
-1.304, 1.557e-5
-1.305, 1.865e-5
-1.306, 1.557e-5
-1.307, 1.865e-5
-1.308, 1.557e-5
-1.309, 1.865e-5
-1.310, 1.865e-5
-1.311, 1.865e-5
-1.312, 1.865e-5
-1.313, 1.865e-5
-1.314, 1.865e-5
-1.315, 1.865e-5
-1.316, 1.865e-5
-1.317, 1.865e-5
-1.318, 1.865e-5
-1.319, 1.865e-5
-1.320, 1.865e-5
-1.321, 1.865e-5
-1.322, 1.865e-5
-1.323, 1.865e-5
-1.324, 1.865e-5
-1.325, 1.865e-5
-1.326, 1.865e-5
-1.327, 2.174e-5
-1.328, 1.865e-5
-1.329, 1.865e-5
-1.330, 2.174e-5
-1.331, 2.174e-5
-1.332, 2.174e-5
-1.333, 2.174e-5
-1.334, 2.174e-5
-1.335, 2.174e-5
-1.336, 2.174e-5
-1.337, 2.174e-5
-1.338, 2.174e-5
-1.339, 2.482e-5
-1.340, 2.482e-5
-1.341, 2.174e-5
-1.342, 2.482e-5
-1.343, 2.482e-5
-1.344, 2.482e-5
-1.345, 2.482e-5
-1.346, 2.482e-5
-1.347, 2.482e-5
-1.348, 2.482e-5
-1.349, 2.482e-5
-1.350, 2.790e-5
-1.351, 2.790e-5
-1.352, 2.790e-5
-1.353, 2.790e-5
-1.354, 2.790e-5
-1.355, 2.790e-5
-1.356, 2.790e-5
-1.357, 3.099e-5
-1.358, 3.099e-5
-1.359, 3.099e-5
-1.360, 3.099e-5
-1.361, 3.099e-5
-1.362, 3.407e-5
-1.363, 3.407e-5
-1.364, 3.407e-5
-1.365, 3.407e-5
-1.366, 3.715e-5
-1.367, 3.715e-5
-1.368, 3.715e-5
-1.369, 3.715e-5
-1.370, 3.715e-5
-1.371, 4.024e-5
-1.372, 4.024e-5
-1.373, 4.024e-5
-1.374, 4.024e-5
-1.375, 4.332e-5
-1.376, 4.332e-5
-1.377, 4.640e-5
-1.378, 4.640e-5
-1.379, 4.640e-5
-1.380, 4.949e-5
-1.381, 4.949e-5
-1.382, 4.949e-5
-1.383, 5.257e-5
-1.384, 5.257e-5
-1.385, 5.257e-5
-1.386, 5.565e-5
-1.387, 5.565e-5
-1.388, 5.873e-5
-1.389, 5.873e-5
-1.390, 6.182e-5
-1.391, 6.182e-5
-1.392, 6.490e-5
-1.393, 6.490e-5
-1.394, 6.798e-5
-1.395, 7.107e-5
-1.396, 7.107e-5
-1.397, 7.415e-5
-1.398, 7.415e-5
-1.399, 7.723e-5
-1.400, 8.032e-5
-1.401, 8.340e-5
-1.402, 8.340e-5
-1.403, 8.648e-5
-1.404, 8.957e-5
-1.405, 9.265e-5
-1.406, 9.573e-5
-1.407, 9.882e-5
-1.408, 1.019e-4
-1.409, 1.050e-4
-1.410, 1.081e-4
-1.411, 1.111e-4
-1.412, 1.142e-4
-1.413, 1.173e-4
-1.414, 1.204e-4
-1.415, 1.235e-4
-1.416, 1.296e-4
-1.417, 1.327e-4
-1.418, 1.358e-4
-1.419, 1.389e-4
-1.420, 1.451e-4
-1.421, 1.481e-4
-1.422, 1.543e-4
-1.423, 1.574e-4
-1.424, 1.636e-4
-1.425, 1.697e-4
-1.426, 1.728e-4
-1.427, 1.790e-4
-1.428, 1.851e-4
-1.429, 1.913e-4
-1.430, 1.944e-4
-1.431, 2.006e-4
-1.432, 2.098e-4
-1.433, 2.160e-4
-1.434, 2.221e-4
-1.435, 2.283e-4
-1.436, 2.345e-4
-1.437, 2.437e-4
-1.438, 2.499e-4
-1.439, 2.591e-4
-1.440, 2.653e-4
-1.441, 2.746e-4
-1.442, 2.807e-4
-1.443, 2.900e-4
-1.444, 2.992e-4
-1.445, 3.085e-4
-1.446, 3.177e-4
-1.447, 3.270e-4
-1.448, 3.362e-4
-1.449, 3.485e-4
-1.450, 3.578e-4
-1.451, 3.701e-4
-1.452, 3.794e-4
-1.453, 3.917e-4
-1.454, 4.040e-4
-1.455, 4.133e-4
-1.456, 4.256e-4
-1.457, 4.380e-4
-1.458, 4.534e-4
-1.459, 4.657e-4
-1.460, 4.780e-4
-1.461, 4.935e-4
-1.462, 5.058e-4
-1.463, 5.212e-4
-1.464, 5.335e-4
-1.465, 5.520e-4
-1.466, 5.674e-4
-1.467, 5.829e-4
-1.468, 5.983e-4
-1.469, 6.137e-4
-1.470, 6.322e-4
-1.471, 6.476e-4
-1.472, 6.661e-4
-1.473, 6.846e-4
-1.474, 7.031e-4
-1.475, 7.216e-4
-1.476, 7.401e-4
-1.477, 7.586e-4
-1.478, 7.802e-4
-1.479, 8.018e-4
-1.480, 8.233e-4
-1.481, 8.449e-4
-1.482, 8.665e-4
-1.483, 8.881e-4
-1.484, 9.097e-4
-1.485, 9.343e-4
-1.486, 9.559e-4
-1.487, 9.806e-4
-1.488, 1.005e-3
-1.489, 1.030e-3
-1.490, 1.055e-3
-1.491, 1.079e-3
-1.492, 1.107e-3
-1.493, 1.132e-3
-1.494, 1.159e-3
-1.495, 1.187e-3
-1.496, 1.215e-3
-1.497, 1.240e-3
-1.498, 1.270e-3
-1.499, 1.298e-3
-1.500, 1.329e-3
-1.501, 1.360e-3
-1.502, 1.391e-3
-1.503, 1.421e-3
-1.504, 1.452e-3
-1.505, 1.483e-3
-1.506, 1.517e-3
-1.507, 1.548e-3
-1.508, 1.582e-3
-1.509, 1.616e-3
-1.510, 1.650e-3
-1.511, 1.687e-3
-1.512, 1.721e-3
-1.513, 1.758e-3
-1.514, 1.795e-3
-1.515, 1.832e-3
-1.516, 1.869e-3
-1.517, 1.906e-3
-1.518, 1.946e-3
-1.519, 1.983e-3
-1.520, 2.023e-3
-1.521, 2.060e-3
-1.522, 2.100e-3
-1.523, 2.137e-3
-1.524, 2.180e-3
-1.525, 2.220e-3
-1.526, 2.263e-3
-1.527, 2.306e-3
-1.528, 2.349e-3
-1.529, 2.393e-3
-1.530, 2.436e-3
-1.531, 2.482e-3
-1.532, 2.528e-3
-1.533, 2.571e-3
-1.534, 2.618e-3
-1.535, 2.661e-3
-1.536, 2.707e-3
-1.537, 2.756e-3
-1.538, 2.803e-3
-1.539, 2.849e-3
-1.540, 2.898e-3
-1.541, 2.948e-3
-1.542, 2.997e-3
-1.543, 3.046e-3
-1.544, 3.096e-3
-1.545, 3.145e-3
-1.546, 3.197e-3
-1.547, 3.250e-3
-1.548, 3.302e-3
-1.549, 3.355e-3
-1.550, 3.407e-3
-1.551, 3.462e-3
-1.552, 3.518e-3
-1.553, 3.570e-3
-1.554, 3.626e-3
-1.555, 3.678e-3
-1.556, 3.737e-3
-1.557, 3.789e-3
-1.558, 3.845e-3
-1.559, 3.903e-3
-1.560, 3.962e-3
-1.561, 4.021e-3
-1.562, 4.079e-3
-1.563, 4.138e-3
-1.564, 4.196e-3
-1.565, 4.258e-3
-1.566, 4.317e-3
-1.567, 4.375e-3
-1.568, 4.431e-3
-1.569, 4.492e-3
-1.570, 4.554e-3
-1.571, 4.616e-3
-1.572, 4.677e-3
-1.573, 4.739e-3
-1.574, 4.804e-3
-1.575, 4.868e-3
-1.576, 4.930e-3
-1.577, 4.995e-3
-1.578, 5.060e-3
-1.579, 5.124e-3
-1.580, 5.189e-3
-1.581, 5.251e-3
-1.582, 5.319e-3
-1.583, 5.383e-3
-1.584, 5.448e-3
-1.585, 5.516e-3
-1.586, 5.587e-3
-1.587, 5.655e-3
-1.588, 5.725e-3
-1.589, 5.790e-3
-1.590, 5.861e-3
-1.591, 5.926e-3
-1.592, 5.997e-3
-1.593, 6.065e-3
-1.594, 6.132e-3
-1.595, 6.200e-3
-1.596, 6.274e-3
-1.597, 6.345e-3
-1.598, 6.419e-3
-1.599, 6.493e-3
-1.600, 6.518e-3
-1.599, 6.456e-3
-1.598, 6.385e-3
-1.597, 6.317e-3
-1.596, 6.247e-3
-1.595, 6.176e-3
-1.594, 6.108e-3
-1.593, 6.037e-3
-1.592, 5.969e-3
-1.591, 5.901e-3
-1.590, 5.830e-3
-1.589, 5.762e-3
-1.588, 5.695e-3
-1.587, 5.627e-3
-1.586, 5.556e-3
-1.585, 5.488e-3
-1.584, 5.423e-3
-1.583, 5.359e-3
-1.582, 5.291e-3
-1.581, 5.229e-3
-1.580, 5.164e-3
-1.579, 5.100e-3
-1.578, 5.038e-3
-1.577, 4.973e-3
-1.576, 4.908e-3
-1.575, 4.844e-3
-1.574, 4.779e-3
-1.573, 4.714e-3
-1.572, 4.653e-3
-1.571, 4.591e-3
-1.570, 4.529e-3
-1.569, 4.471e-3
-1.568, 4.412e-3
-1.567, 4.354e-3
-1.566, 4.298e-3
-1.565, 4.239e-3
-1.564, 4.181e-3
-1.563, 4.125e-3
-1.562, 4.067e-3
-1.561, 4.008e-3
-1.560, 3.953e-3
-1.559, 3.894e-3
-1.558, 3.842e-3
-1.557, 3.786e-3
-1.556, 3.734e-3
-1.555, 3.678e-3
-1.554, 3.626e-3
-1.553, 3.573e-3
-1.552, 3.521e-3
-1.551, 3.466e-3
-1.550, 3.413e-3
-1.549, 3.364e-3
-1.548, 3.311e-3
-1.547, 3.262e-3
-1.546, 3.213e-3
-1.545, 3.163e-3
-1.544, 3.114e-3
-1.543, 3.065e-3
-1.542, 3.015e-3
-1.541, 2.969e-3
-1.540, 2.923e-3
-1.539, 2.874e-3
-1.538, 2.827e-3
-1.537, 2.781e-3
-1.536, 2.738e-3
-1.535, 2.692e-3
-1.534, 2.645e-3
-1.533, 2.605e-3
-1.532, 2.559e-3
-1.531, 2.519e-3
-1.530, 2.476e-3
-1.529, 2.433e-3
-1.528, 2.390e-3
-1.527, 2.349e-3
-1.526, 2.309e-3
-1.525, 2.266e-3
-1.524, 2.226e-3
-1.523, 2.189e-3
-1.522, 2.149e-3
-1.521, 2.112e-3
-1.520, 2.075e-3
-1.519, 2.038e-3
-1.518, 2.001e-3
-1.517, 1.967e-3
-1.516, 1.930e-3
-1.515, 1.893e-3
-1.514, 1.856e-3
-1.513, 1.822e-3
-1.512, 1.788e-3
-1.511, 1.754e-3
-1.510, 1.724e-3
-1.509, 1.690e-3
-1.508, 1.659e-3
-1.507, 1.625e-3
-1.506, 1.594e-3
-1.505, 1.563e-3
-1.504, 1.532e-3
-1.503, 1.502e-3
-1.502, 1.471e-3
-1.501, 1.443e-3
-1.500, 1.415e-3
-1.499, 1.388e-3
-1.498, 1.360e-3
-1.497, 1.332e-3
-1.496, 1.304e-3
-1.495, 1.280e-3
-1.494, 1.252e-3
-1.493, 1.227e-3
-1.492, 1.203e-3
-1.491, 1.178e-3
-1.490, 1.153e-3
-1.489, 1.129e-3
-1.488, 1.104e-3
-1.487, 1.082e-3
-1.486, 1.058e-3
-1.485, 1.036e-3
-1.484, 1.014e-3
-1.483, 9.929e-4
-1.482, 9.713e-4
-1.481, 9.498e-4
-1.480, 9.282e-4
-1.479, 9.066e-4
-1.478, 8.881e-4
-1.477, 8.696e-4
-1.476, 8.511e-4
-1.475, 8.326e-4
-1.474, 8.110e-4
-1.473, 7.925e-4
-1.472, 7.740e-4
-1.471, 7.586e-4
-1.470, 7.401e-4
-1.469, 7.247e-4
-1.468, 7.062e-4
-1.467, 6.908e-4
-1.466, 6.754e-4
-1.465, 6.599e-4
-1.464, 6.445e-4
-1.463, 6.291e-4
-1.462, 6.137e-4
-1.461, 6.014e-4
-1.460, 5.859e-4
-1.459, 5.705e-4
-1.458, 5.582e-4
-1.457, 5.459e-4
-1.456, 5.305e-4
-1.455, 5.181e-4
-1.454, 5.058e-4
-1.453, 4.935e-4
-1.452, 4.811e-4
-1.451, 4.688e-4
-1.450, 4.595e-4
-1.449, 4.472e-4
-1.448, 4.380e-4
-1.447, 4.256e-4
-1.446, 4.164e-4
-1.445, 4.071e-4
-1.444, 3.948e-4
-1.443, 3.855e-4
-1.442, 3.763e-4
-1.441, 3.670e-4
-1.440, 3.578e-4
-1.439, 3.485e-4
-1.438, 3.393e-4
-1.437, 3.300e-4
-1.436, 3.208e-4
-1.435, 3.146e-4
-1.434, 3.085e-4
-1.433, 2.961e-4
-1.432, 2.900e-4
-1.431, 2.838e-4
-1.430, 2.746e-4
-1.429, 2.684e-4
-1.428, 2.622e-4
-1.427, 2.561e-4
-1.426, 2.468e-4
-1.425, 2.406e-4
-1.424, 2.345e-4
-1.423, 2.283e-4
-1.422, 2.221e-4
-1.421, 2.191e-4
-1.420, 2.129e-4
-1.419, 2.067e-4
-1.418, 2.006e-4
-1.417, 1.944e-4
-1.416, 1.913e-4
-1.415, 1.851e-4
-1.414, 1.790e-4
-1.413, 1.759e-4
-1.412, 1.697e-4
-1.411, 1.666e-4
-1.410, 1.605e-4
-1.409, 1.574e-4
-1.408, 1.543e-4
-1.407, 1.481e-4
-1.406, 1.451e-4
-1.405, 1.420e-4
-1.404, 1.358e-4
-1.403, 1.327e-4
-1.402, 1.296e-4
-1.401, 1.266e-4
-1.400, 1.235e-4
-1.399, 1.173e-4
-1.398, 1.142e-4
-1.397, 1.111e-4
-1.396, 1.081e-4
-1.395, 1.050e-4
-1.394, 1.050e-4
-1.393, 1.019e-4
-1.392, 9.882e-5
-1.391, 9.573e-5
-1.390, 9.265e-5
-1.389, 8.957e-5
-1.388, 8.648e-5
-1.387, 8.648e-5
-1.386, 8.340e-5
-1.385, 8.032e-5
-1.384, 7.723e-5
-1.383, 7.415e-5
-1.382, 7.415e-5
-1.381, 7.107e-5
-1.380, 7.107e-5
-1.379, 6.798e-5
-1.378, 6.490e-5
-1.377, 6.490e-5
-1.376, 6.182e-5
-1.375, 6.182e-5
-1.374, 5.873e-5
-1.373, 5.565e-5
-1.372, 5.257e-5
-1.371, 5.257e-5
-1.370, 5.257e-5
-1.369, 4.949e-5
-1.368, 4.949e-5
-1.367, 4.640e-5
-1.366, 4.640e-5
-1.365, 4.332e-5
-1.364, 4.332e-5
-1.363, 4.024e-5
-1.362, 4.024e-5
-1.361, 4.024e-5
-1.360, 3.715e-5
-1.359, 3.715e-5
-1.358, 3.715e-5
-1.357, 3.407e-5
-1.356, 3.407e-5
-1.355, 3.407e-5
-1.354, 3.099e-5
-1.353, 3.099e-5
-1.352, 3.099e-5
-1.351, 2.790e-5
-1.350, 2.790e-5
-1.349, 2.482e-5
-1.348, 2.482e-5
-1.347, 2.482e-5
-1.346, 2.482e-5
-1.345, 2.174e-5
-1.344, 2.174e-5
-1.343, 2.174e-5
-1.342, 2.174e-5
-1.341, 2.174e-5
-1.340, 1.865e-5
-1.339, 1.865e-5
-1.338, 1.865e-5
-1.337, 1.865e-5
-1.336, 1.865e-5
-1.335, 1.865e-5
-1.334, 1.557e-5
-1.333, 1.557e-5
-1.332, 1.557e-5
-1.331, 1.249e-5
-1.330, 1.557e-5
-1.329, 1.249e-5
-1.328, 1.249e-5
-1.327, 1.249e-5
-1.326, 1.249e-5
-1.325, 1.249e-5
-1.324, 1.249e-5
-1.323, 9.405e-6
-1.322, 9.405e-6
-1.321, 9.405e-6
-1.320, 9.405e-6
-1.319, 9.405e-6
-1.318, 9.405e-6
-1.317, 9.405e-6
-1.316, 9.405e-6
-1.315, 6.322e-6
-1.314, 6.322e-6
-1.313, 6.322e-6
-1.312, 6.322e-6
-1.311, 6.322e-6
-1.310, 6.322e-6
-1.309, 6.322e-6
-1.308, 6.322e-6
-1.307, 6.322e-6
-1.306, 6.322e-6
-1.305, 6.322e-6
-1.304, 3.239e-6
-1.303, 6.322e-6
-1.302, 3.239e-6
-1.301, 3.239e-6
-1.300, 3.239e-6
-1.299, 3.239e-6
-1.298, 3.239e-6
-1.297, 3.239e-6
-1.296, 3.239e-6
-1.295, 3.239e-6
-1.294, 3.239e-6
-1.293, 3.239e-6
-1.292, 3.239e-6
-1.291, 3.239e-6
-1.290, 3.239e-6
-1.289, 3.239e-6
-1.288, 1.559e-7
-1.287, 3.239e-6
-1.286, 1.559e-7
-1.285, 3.239e-6
-1.284, 1.559e-7
-1.283, 1.559e-7
-1.282, 1.559e-7
-1.281, 1.559e-7
-1.280, 1.559e-7
-1.279, 1.559e-7
-1.278, 1.559e-7
-1.277, 1.559e-7
-1.276, 1.559e-7
-1.275, 1.559e-7
-1.274, 1.559e-7
-1.273, 1.559e-7
-1.272, 1.559e-7
-1.271, 1.559e-7
-1.270, 1.559e-7
-1.269, 1.559e-7
-1.268, 1.559e-7
-1.267, 1.559e-7
-1.266, 1.559e-7
-1.265, 1.559e-7
-1.264, 1.559e-7
-1.263, -2.927e-6
-1.262, 1.559e-7
-1.261, -2.927e-6
-1.260, 1.559e-7
-1.259, -2.927e-6
-1.258, -2.927e-6
-1.257, -2.927e-6
-1.256, -2.927e-6
-1.255, 1.559e-7
-1.254, -2.927e-6
-1.253, -2.927e-6
-1.252, -2.927e-6
-1.251, -2.927e-6
-1.250, -2.927e-6
-1.249, -2.927e-6
-1.248, -2.927e-6
-1.247, -2.927e-6
-1.246, -2.927e-6
-1.245, -2.927e-6
-1.244, -2.927e-6
-1.243, -2.927e-6
-1.242, -2.927e-6
-1.241, -2.927e-6
-1.240, -2.927e-6
-1.239, -2.927e-6
-1.238, -2.927e-6
-1.237, -2.927e-6
-1.236, -2.927e-6
-1.235, -2.927e-6
-1.234, -2.927e-6
-1.233, -2.927e-6
-1.232, -2.927e-6
-1.231, -2.927e-6
-1.230, -2.927e-6
-1.229, -2.927e-6
-1.228, -2.927e-6
-1.227, -6.010e-6
-1.226, -2.927e-6
-1.225, -2.927e-6
-1.224, -2.927e-6
-1.223, -2.927e-6
-1.222, -6.010e-6
-1.221, -2.927e-6
-1.220, -6.010e-6
-1.219, -2.927e-6
-1.218, -2.927e-6
-1.217, -2.927e-6
-1.216, -2.927e-6
-1.215, -6.010e-6
-1.214, -2.927e-6
-1.213, -2.927e-6
-1.212, -2.927e-6
-1.211, -6.010e-6
-1.210, -2.927e-6
-1.209, -6.010e-6
-1.208, -2.927e-6
-1.207, -2.927e-6
-1.206, -2.927e-6
-1.205, -2.927e-6
-1.204, -6.010e-6
-1.203, -2.927e-6
-1.202, -6.010e-6
-1.201, -2.927e-6
-1.200, -2.927e-6
-1.199, -6.010e-6
-1.198, -6.010e-6
-1.197, -2.927e-6
-1.196, -2.927e-6
-1.195, -2.927e-6
-1.194, -6.010e-6
-1.193, -6.010e-6
-1.192, -6.010e-6
-1.191, -2.927e-6
-1.190, -6.010e-6
-1.189, -6.010e-6
-1.188, -6.010e-6
-1.187, -6.010e-6
-1.186, -6.010e-6
-1.185, -6.010e-6
-1.184, -6.010e-6
-1.183, -2.927e-6
-1.182, -6.010e-6
-1.181, -6.010e-6
-1.180, -6.010e-6
-1.179, -6.010e-6
-1.178, -2.927e-6
-1.177, -6.010e-6
-1.176, -6.010e-6
-1.175, -6.010e-6
-1.174, -6.010e-6
-1.173, -6.010e-6
-1.172, -6.010e-6
-1.171, -6.010e-6
-1.170, -6.010e-6
-1.169, -6.010e-6
-1.168, -6.010e-6
-1.167, -2.927e-6
-1.166, -6.010e-6
-1.165, -6.010e-6
-1.164, -6.010e-6
-1.163, -6.010e-6
-1.162, -6.010e-6
-1.161, -6.010e-6
-1.160, -6.010e-6
-1.159, -6.010e-6
-1.158, -6.010e-6
-1.157, -6.010e-6
-1.156, -6.010e-6
-1.155, -6.010e-6
-1.154, -6.010e-6
-1.153, -6.010e-6
-1.152, -6.010e-6
-1.151, -6.010e-6
-1.150, -6.010e-6
-1.149, -6.010e-6
-1.148, -6.010e-6
-1.147, -6.010e-6
-1.146, -6.010e-6
-1.145, -6.010e-6
-1.144, -6.010e-6
-1.143, -6.010e-6
-1.142, -6.010e-6
-1.141, -6.010e-6
-1.140, -6.010e-6
-1.139, -6.010e-6
-1.138, -6.010e-6
-1.137, -6.010e-6
-1.136, -6.010e-6
-1.135, -6.010e-6
-1.134, -6.010e-6
-1.133, -6.010e-6
-1.132, -6.010e-6
-1.131, -6.010e-6
-1.130, -6.010e-6
-1.129, -6.010e-6
-1.128, -6.010e-6
-1.127, -6.010e-6
-1.126, -6.010e-6
-1.125, -6.010e-6
-1.124, -6.010e-6
-1.123, -6.010e-6
-1.122, -6.010e-6
-1.121, -6.010e-6
-1.120, -6.010e-6
-1.119, -6.010e-6
-1.118, -6.010e-6
-1.117, -6.010e-6
-1.116, -6.010e-6
-1.115, -6.010e-6
-1.114, -6.010e-6
-1.113, -6.010e-6
-1.112, -6.010e-6
-1.111, -6.010e-6
-1.110, -6.010e-6
-1.109, -9.093e-6
-1.108, -6.010e-6
-1.107, -6.010e-6
-1.106, -9.093e-6
-1.105, -9.093e-6
-1.104, -6.010e-6
-1.103, -6.010e-6
-1.102, -6.010e-6
-1.101, -6.010e-6
-1.100, -9.093e-6
-1.099, -9.093e-6
-1.098, -9.093e-6
-1.097, -6.010e-6
-1.096, -6.010e-6
-1.095, -9.093e-6
-1.094, -9.093e-6
-1.093, -9.093e-6
-1.092, -6.010e-6
-1.091, -9.093e-6
-1.090, -6.010e-6
-1.089, -9.093e-6
-1.088, -9.093e-6
-1.087, -6.010e-6
-1.086, -9.093e-6
-1.085, -6.010e-6
-1.084, -9.093e-6
-1.083, -9.093e-6
-1.082, -9.093e-6
-1.081, -9.093e-6
-1.080, -9.093e-6
-1.079, -9.093e-6
-1.078, -9.093e-6
-1.077, -9.093e-6
-1.076, -9.093e-6
-1.075, -9.093e-6
-1.074, -9.093e-6
-1.073, -9.093e-6
-1.072, -9.093e-6
-1.071, -9.093e-6
-1.070, -9.093e-6
-1.069, -9.093e-6
-1.068, -9.093e-6
-1.067, -9.093e-6
-1.066, -9.093e-6
-1.065, -9.093e-6
-1.064, -9.093e-6
-1.063, -9.093e-6
-1.062, -9.093e-6
-1.061, -9.093e-6
-1.060, -9.093e-6
-1.059, -9.093e-6
-1.058, -9.093e-6
-1.057, -9.093e-6
-1.056, -9.093e-6
-1.055, -9.093e-6
-1.054, -1.218e-5
-1.053, -9.093e-6
-1.052, -9.093e-6
-1.051, -9.093e-6
-1.050, -9.093e-6
-1.049, -9.093e-6
-1.048, -9.093e-6
-1.047, -9.093e-6
-1.046, -9.093e-6
-1.045, -1.218e-5
-1.044, -9.093e-6
-1.043, -1.218e-5
-1.042, -9.093e-6
-1.041, -9.093e-6
-1.040, -9.093e-6
-1.039, -1.218e-5
-1.038, -9.093e-6
-1.037, -1.218e-5
-1.036, -1.218e-5
-1.035, -1.218e-5
-1.034, -1.218e-5
-1.033, -1.218e-5
-1.032, -1.218e-5
-1.031, -1.218e-5
-1.030, -1.218e-5
-1.029, -1.218e-5
-1.028, -1.218e-5
-1.027, -1.218e-5
-1.026, -1.218e-5
-1.025, -1.218e-5
-1.024, -1.218e-5
-1.023, -1.218e-5
-1.022, -1.218e-5
-1.021, -1.218e-5
-1.020, -1.218e-5
-1.019, -1.218e-5
-1.018, -1.218e-5
-1.017, -1.218e-5
-1.016, -1.218e-5
-1.015, -1.218e-5
-1.014, -1.218e-5
-1.013, -1.218e-5
-1.012, -1.218e-5
-1.011, -1.218e-5
-1.010, -1.218e-5
-1.009, -1.218e-5
-1.008, -1.218e-5
-1.007, -1.526e-5
-1.006, -1.218e-5
-1.005, -1.526e-5
-1.004, -1.526e-5
-1.003, -1.218e-5
-1.002, -1.526e-5
-1.001, -1.218e-5
