Mar. 16, 2025   00:23:22
Cyclic Voltammetry
File: c:/users/guazh/data/banditlqround7_x0exp891_r5/2025-03-03-exp907\exp907-2025-03-16t00_12_31-h2koh\exp907_cv_sr_400mvs_efin_-1500mv.bin
Data Source:  Experiment
Instrument Model:  CHI760E
Header: CV ran at 400 mVs
Note: 

Init E (V) = -1
High E (V) = -1
Low E (V) = -1.5
Final E (V) = -1
Init P/N = N
Scan Rate (V/s) = 0.4
Segment = 3
Sample Interval (V) = 0.001
Quiet Time (sec) = 2
Sensitivity (A/V) = 0.01
Comp R (ohm) = 1.9

Results:

Channel 1:
Segment 1:

Segment 2:

Segment 3:

Potential/V, Current/A

-1.000, 3.407e-5
-1.001, 6.182e-5
-1.002, 6.490e-5
-1.003, 6.490e-5
-1.004, 6.490e-5
-1.005, 6.798e-5
-1.006, 6.798e-5
-1.007, 6.798e-5
-1.008, 6.798e-5
-1.009, 6.798e-5
-1.010, 6.798e-5
-1.011, 6.798e-5
-1.012, 6.798e-5
-1.013, 6.798e-5
-1.014, 6.798e-5
-1.015, 6.798e-5
-1.016, 6.798e-5
-1.017, 6.798e-5
-1.018, 6.798e-5
-1.019, 6.798e-5
-1.020, 7.107e-5
-1.021, 6.798e-5
-1.022, 6.798e-5
-1.023, 6.798e-5
-1.024, 6.798e-5
-1.025, 6.798e-5
-1.026, 7.107e-5
-1.027, 7.107e-5
-1.028, 7.107e-5
-1.029, 6.798e-5
-1.030, 6.798e-5
-1.031, 6.798e-5
-1.032, 6.798e-5
-1.033, 7.107e-5
-1.034, 7.107e-5
-1.035, 6.798e-5
-1.036, 6.798e-5
-1.037, 6.798e-5
-1.038, 6.798e-5
-1.039, 7.107e-5
-1.040, 7.107e-5
-1.041, 7.107e-5
-1.042, 6.798e-5
-1.043, 6.798e-5
-1.044, 6.798e-5
-1.045, 7.107e-5
-1.046, 7.107e-5
-1.047, 7.107e-5
-1.048, 7.107e-5
-1.049, 6.798e-5
-1.050, 7.107e-5
-1.051, 7.107e-5
-1.052, 7.107e-5
-1.053, 7.415e-5
-1.054, 7.415e-5
-1.055, 7.107e-5
-1.056, 7.107e-5
-1.057, 7.107e-5
-1.058, 7.107e-5
-1.059, 7.415e-5
-1.060, 7.415e-5
-1.061, 7.415e-5
-1.062, 7.107e-5
-1.063, 7.107e-5
-1.064, 7.107e-5
-1.065, 7.415e-5
-1.066, 7.415e-5
-1.067, 7.723e-5
-1.068, 7.415e-5
-1.069, 7.415e-5
-1.070, 7.415e-5
-1.071, 7.415e-5
-1.072, 7.415e-5
-1.073, 7.723e-5
-1.074, 7.723e-5
-1.075, 7.723e-5
-1.076, 7.415e-5
-1.077, 7.415e-5
-1.078, 7.415e-5
-1.079, 7.723e-5
-1.080, 7.723e-5
-1.081, 7.723e-5
-1.082, 7.723e-5
-1.083, 7.723e-5
-1.084, 7.723e-5
-1.085, 7.723e-5
-1.086, 8.032e-5
-1.087, 8.032e-5
-1.088, 7.723e-5
-1.089, 7.723e-5
-1.090, 7.723e-5
-1.091, 7.723e-5
-1.092, 8.032e-5
-1.093, 8.032e-5
-1.094, 8.032e-5
-1.095, 8.032e-5
-1.096, 7.723e-5
-1.097, 8.032e-5
-1.098, 8.032e-5
-1.099, 8.032e-5
-1.100, 8.340e-5
-1.101, 8.032e-5
-1.102, 8.032e-5
-1.103, 8.032e-5
-1.104, 8.032e-5
-1.105, 8.340e-5
-1.106, 8.340e-5
-1.107, 8.340e-5
-1.108, 8.340e-5
-1.109, 8.032e-5
-1.110, 8.032e-5
-1.111, 8.032e-5
-1.112, 8.340e-5
-1.113, 8.648e-5
-1.114, 8.340e-5
-1.115, 8.340e-5
-1.116, 8.340e-5
-1.117, 8.032e-5
-1.118, 8.340e-5
-1.119, 8.648e-5
-1.120, 8.340e-5
-1.121, 8.648e-5
-1.122, 8.648e-5
-1.123, 8.340e-5
-1.124, 8.340e-5
-1.125, 8.648e-5
-1.126, 8.648e-5
-1.127, 8.648e-5
-1.128, 8.648e-5
-1.129, 8.648e-5
-1.130, 8.340e-5
-1.131, 8.648e-5
-1.132, 8.648e-5
-1.133, 8.957e-5
-1.134, 8.648e-5
-1.135, 8.648e-5
-1.136, 8.648e-5
-1.137, 8.648e-5
-1.138, 8.648e-5
-1.139, 8.957e-5
-1.140, 8.957e-5
-1.141, 8.957e-5
-1.142, 8.648e-5
-1.143, 8.648e-5
-1.144, 8.648e-5
-1.145, 8.957e-5
-1.146, 8.957e-5
-1.147, 8.957e-5
-1.148, 8.957e-5
-1.149, 8.648e-5
-1.150, 8.957e-5
-1.151, 8.957e-5
-1.152, 8.957e-5
-1.153, 8.957e-5
-1.154, 9.265e-5
-1.155, 8.957e-5
-1.156, 8.957e-5
-1.157, 8.957e-5
-1.158, 8.957e-5
-1.159, 9.265e-5
-1.160, 9.265e-5
-1.161, 9.265e-5
-1.162, 8.957e-5
-1.163, 8.957e-5
-1.164, 8.957e-5
-1.165, 9.265e-5
-1.166, 9.265e-5
-1.167, 9.265e-5
-1.168, 9.265e-5
-1.169, 9.265e-5
-1.170, 8.957e-5
-1.171, 8.957e-5
-1.172, 9.265e-5
-1.173, 9.573e-5
-1.174, 9.265e-5
-1.175, 9.265e-5
-1.176, 9.265e-5
-1.177, 9.265e-5
-1.178, 9.265e-5
-1.179, 9.265e-5
-1.180, 9.573e-5
-1.181, 9.573e-5
-1.182, 9.265e-5
-1.183, 9.265e-5
-1.184, 9.265e-5
-1.185, 9.265e-5
-1.186, 9.573e-5
-1.187, 9.573e-5
-1.188, 9.573e-5
-1.189, 9.265e-5
-1.190, 9.265e-5
-1.191, 9.265e-5
-1.192, 9.573e-5
-1.193, 9.573e-5
-1.194, 9.573e-5
-1.195, 9.573e-5
-1.196, 9.573e-5
-1.197, 9.573e-5
-1.198, 9.573e-5
-1.199, 9.882e-5
-1.200, 9.882e-5
-1.201, 9.882e-5
-1.202, 9.573e-5
-1.203, 9.573e-5
-1.204, 9.573e-5
-1.205, 9.573e-5
-1.206, 9.882e-5
-1.207, 9.882e-5
-1.208, 9.882e-5
-1.209, 9.573e-5
-1.210, 9.573e-5
-1.211, 9.573e-5
-1.212, 9.882e-5
-1.213, 9.882e-5
-1.214, 9.882e-5
-1.215, 9.882e-5
-1.216, 9.573e-5
-1.217, 9.573e-5
-1.218, 9.573e-5
-1.219, 9.882e-5
-1.220, 9.882e-5
-1.221, 9.882e-5
-1.222, 9.882e-5
-1.223, 9.573e-5
-1.224, 9.573e-5
-1.225, 9.882e-5
-1.226, 9.882e-5
-1.227, 9.882e-5
-1.228, 9.882e-5
-1.229, 9.882e-5
-1.230, 9.573e-5
-1.231, 9.882e-5
-1.232, 9.882e-5
-1.233, 1.019e-4
-1.234, 1.019e-4
-1.235, 9.882e-5
-1.236, 9.882e-5
-1.237, 9.882e-5
-1.238, 9.882e-5
-1.239, 1.019e-4
-1.240, 1.019e-4
-1.241, 1.019e-4
-1.242, 9.882e-5
-1.243, 9.882e-5
-1.244, 9.882e-5
-1.245, 1.019e-4
-1.246, 1.019e-4
-1.247, 1.019e-4
-1.248, 1.019e-4
-1.249, 9.882e-5
-1.250, 9.882e-5
-1.251, 9.882e-5
-1.252, 1.019e-4
-1.253, 1.019e-4
-1.254, 1.019e-4
-1.255, 1.019e-4
-1.256, 9.882e-5
-1.257, 9.882e-5
-1.258, 1.019e-4
-1.259, 1.019e-4
-1.260, 1.019e-4
-1.261, 1.019e-4
-1.262, 1.019e-4
-1.263, 1.019e-4
-1.264, 1.019e-4
-1.265, 1.019e-4
-1.266, 1.050e-4
-1.267, 1.050e-4
-1.268, 1.019e-4
-1.269, 1.019e-4
-1.270, 1.019e-4
-1.271, 1.019e-4
-1.272, 1.050e-4
-1.273, 1.050e-4
-1.274, 1.050e-4
-1.275, 1.050e-4
-1.276, 1.050e-4
-1.277, 1.019e-4
-1.278, 1.050e-4
-1.279, 1.050e-4
-1.280, 1.081e-4
-1.281, 1.050e-4
-1.282, 1.050e-4
-1.283, 1.050e-4
-1.284, 1.081e-4
-1.285, 1.081e-4
-1.286, 1.081e-4
-1.287, 1.081e-4
-1.288, 1.081e-4
-1.289, 1.081e-4
-1.290, 1.081e-4
-1.291, 1.081e-4
-1.292, 1.111e-4
-1.293, 1.111e-4
-1.294, 1.111e-4
-1.295, 1.111e-4
-1.296, 1.111e-4
-1.297, 1.111e-4
-1.298, 1.142e-4
-1.299, 1.142e-4
-1.300, 1.173e-4
-1.301, 1.173e-4
-1.302, 1.142e-4
-1.303, 1.173e-4
-1.304, 1.173e-4
-1.305, 1.204e-4
-1.306, 1.204e-4
-1.307, 1.204e-4
-1.308, 1.235e-4
-1.309, 1.235e-4
-1.310, 1.235e-4
-1.311, 1.266e-4
-1.312, 1.266e-4
-1.313, 1.296e-4
-1.314, 1.296e-4
-1.315, 1.296e-4
-1.316, 1.327e-4
-1.317, 1.327e-4
-1.318, 1.358e-4
-1.319, 1.389e-4
-1.320, 1.420e-4
-1.321, 1.420e-4
-1.322, 1.451e-4
-1.323, 1.451e-4
-1.324, 1.481e-4
-1.325, 1.512e-4
-1.326, 1.543e-4
-1.327, 1.574e-4
-1.328, 1.605e-4
-1.329, 1.605e-4
-1.330, 1.666e-4
-1.331, 1.666e-4
-1.332, 1.728e-4
-1.333, 1.759e-4
-1.334, 1.821e-4
-1.335, 1.851e-4
-1.336, 1.882e-4
-1.337, 1.944e-4
-1.338, 2.006e-4
-1.339, 2.067e-4
-1.340, 2.129e-4
-1.341, 2.191e-4
-1.342, 2.252e-4
-1.343, 2.314e-4
-1.344, 2.406e-4
-1.345, 2.499e-4
-1.346, 2.591e-4
-1.347, 2.684e-4
-1.348, 2.776e-4
-1.349, 2.900e-4
-1.350, 2.992e-4
-1.351, 3.115e-4
-1.352, 3.270e-4
-1.353, 3.424e-4
-1.354, 3.578e-4
-1.355, 3.732e-4
-1.356, 3.886e-4
-1.357, 4.040e-4
-1.358, 4.225e-4
-1.359, 4.441e-4
-1.360, 4.657e-4
-1.361, 4.873e-4
-1.362, 5.089e-4
-1.363, 5.335e-4
-1.364, 5.582e-4
-1.365, 5.859e-4
-1.366, 6.137e-4
-1.367, 6.445e-4
-1.368, 6.754e-4
-1.369, 7.093e-4
-1.370, 7.432e-4
-1.371, 7.802e-4
-1.372, 8.172e-4
-1.373, 8.603e-4
-1.374, 8.973e-4
-1.375, 9.405e-4
-1.376, 9.806e-4
-1.377, 1.024e-3
-1.378, 1.070e-3
-1.379, 1.119e-3
-1.380, 1.169e-3
-1.381, 1.218e-3
-1.382, 1.267e-3
-1.383, 1.320e-3
-1.384, 1.372e-3
-1.385, 1.431e-3
-1.386, 1.489e-3
-1.387, 1.551e-3
-1.388, 1.613e-3
-1.389, 1.674e-3
-1.390, 1.736e-3
-1.391, 1.804e-3
-1.392, 1.872e-3
-1.393, 1.943e-3
-1.394, 2.013e-3
-1.395, 2.084e-3
-1.396, 2.158e-3
-1.397, 2.232e-3
-1.398, 2.306e-3
-1.399, 2.383e-3
-1.400, 2.464e-3
-1.401, 2.547e-3
-1.402, 2.627e-3
-1.403, 2.707e-3
-1.404, 2.790e-3
-1.405, 2.877e-3
-1.406, 2.966e-3
-1.407, 3.056e-3
-1.408, 3.145e-3
-1.409, 3.237e-3
-1.410, 3.327e-3
-1.411, 3.416e-3
-1.412, 3.509e-3
-1.413, 3.604e-3
-1.414, 3.703e-3
-1.415, 3.795e-3
-1.416, 3.891e-3
-1.417, 3.987e-3
-1.418, 4.082e-3
-1.419, 4.181e-3
-1.420, 4.283e-3
-1.421, 4.378e-3
-1.422, 4.474e-3
-1.423, 4.569e-3
-1.424, 4.668e-3
-1.425, 4.764e-3
-1.426, 4.868e-3
-1.427, 4.967e-3
-1.428, 5.066e-3
-1.429, 5.164e-3
-1.430, 5.263e-3
-1.431, 5.359e-3
-1.432, 5.460e-3
-1.433, 5.565e-3
-1.434, 5.670e-3
-1.435, 5.772e-3
-1.436, 5.867e-3
-1.437, 5.963e-3
-1.438, 6.065e-3
-1.439, 6.166e-3
-1.440, 6.274e-3
-1.441, 6.382e-3
-1.442, 6.490e-3
-1.443, 6.598e-3
-1.444, 6.703e-3
-1.445, 6.805e-3
-1.446, 6.909e-3
-1.447, 7.014e-3
-1.448, 7.116e-3
-1.449, 7.218e-3
-1.450, 7.313e-3
-1.451, 7.412e-3
-1.452, 7.511e-3
-1.453, 7.606e-3
-1.454, 7.705e-3
-1.455, 7.800e-3
-1.456, 7.899e-3
-1.457, 8.001e-3
-1.458, 8.099e-3
-1.459, 8.204e-3
-1.460, 8.309e-3
-1.461, 8.414e-3
-1.462, 8.516e-3
-1.463, 8.614e-3
-1.464, 8.713e-3
-1.465, 8.815e-3
-1.466, 8.920e-3
-1.467, 9.028e-3
-1.468, 9.129e-3
-1.469, 9.231e-3
-1.470, 9.330e-3
-1.471, 9.428e-3
-1.472, 9.524e-3
-1.473, 9.626e-3
-1.474, 9.740e-3
-1.475, 9.857e-3
-1.476, 9.977e-3
-1.477, 1.009e-2
-1.478, 1.020e-2
-1.479, 1.030e-2
-1.480, 1.039e-2
-1.481, 1.049e-2
-1.482, 1.059e-2
-1.483, 1.070e-2
-1.484, 1.081e-2
-1.485, 1.091e-2
-1.486, 1.102e-2
-1.487, 1.111e-2
-1.488, 1.121e-2
-1.489, 1.131e-2
-1.490, 1.140e-2
-1.491, 1.150e-2
-1.492, 1.160e-2
-1.493, 1.171e-2
-1.494, 1.181e-2
-1.495, 1.192e-2
-1.496, 1.202e-2
-1.497, 1.213e-2
-1.498, 1.223e-2
-1.499, 1.234e-2
-1.500, 1.237e-2
-1.499, 1.226e-2
-1.498, 1.215e-2
-1.497, 1.203e-2
-1.496, 1.192e-2
-1.495, 1.182e-2
-1.494, 1.172e-2
-1.493, 1.161e-2
-1.492, 1.150e-2
-1.491, 1.139e-2
-1.490, 1.128e-2
-1.489, 1.116e-2
-1.488, 1.106e-2
-1.487, 1.096e-2
-1.486, 1.087e-2
-1.485, 1.076e-2
-1.484, 1.065e-2
-1.483, 1.054e-2
-1.482, 1.043e-2
-1.481, 1.032e-2
-1.480, 1.021e-2
-1.479, 1.011e-2
-1.478, 9.999e-3
-1.477, 9.894e-3
-1.476, 9.798e-3
-1.475, 9.709e-3
-1.474, 9.626e-3
-1.473, 9.536e-3
-1.472, 9.444e-3
-1.471, 9.354e-3
-1.470, 9.259e-3
-1.469, 9.151e-3
-1.468, 9.034e-3
-1.467, 8.913e-3
-1.466, 8.799e-3
-1.465, 8.695e-3
-1.464, 8.596e-3
-1.463, 8.497e-3
-1.462, 8.405e-3
-1.461, 8.309e-3
-1.460, 8.214e-3
-1.459, 8.118e-3
-1.458, 8.010e-3
-1.457, 7.902e-3
-1.456, 7.797e-3
-1.455, 7.693e-3
-1.454, 7.597e-3
-1.453, 7.511e-3
-1.452, 7.424e-3
-1.451, 7.338e-3
-1.450, 7.249e-3
-1.449, 7.159e-3
-1.448, 7.067e-3
-1.447, 6.977e-3
-1.446, 6.888e-3
-1.445, 6.795e-3
-1.444, 6.706e-3
-1.443, 6.613e-3
-1.442, 6.524e-3
-1.441, 6.435e-3
-1.440, 6.348e-3
-1.439, 6.262e-3
-1.438, 6.173e-3
-1.437, 6.077e-3
-1.436, 5.988e-3
-1.435, 5.904e-3
-1.434, 5.824e-3
-1.433, 5.738e-3
-1.432, 5.655e-3
-1.431, 5.568e-3
-1.430, 5.479e-3
-1.429, 5.396e-3
-1.428, 5.312e-3
-1.427, 5.232e-3
-1.426, 5.155e-3
-1.425, 5.072e-3
-1.424, 4.989e-3
-1.423, 4.912e-3
-1.422, 4.831e-3
-1.421, 4.745e-3
-1.420, 4.665e-3
-1.419, 4.585e-3
-1.418, 4.508e-3
-1.417, 4.428e-3
-1.416, 4.354e-3
-1.415, 4.276e-3
-1.414, 4.202e-3
-1.413, 4.132e-3
-1.412, 4.058e-3
-1.411, 3.984e-3
-1.410, 3.910e-3
-1.409, 3.836e-3
-1.408, 3.771e-3
-1.407, 3.700e-3
-1.406, 3.632e-3
-1.405, 3.561e-3
-1.404, 3.493e-3
-1.403, 3.422e-3
-1.402, 3.355e-3
-1.401, 3.287e-3
-1.400, 3.222e-3
-1.399, 3.157e-3
-1.398, 3.093e-3
-1.397, 3.028e-3
-1.396, 2.960e-3
-1.395, 2.898e-3
-1.394, 2.840e-3
-1.393, 2.781e-3
-1.392, 2.723e-3
-1.391, 2.661e-3
-1.390, 2.599e-3
-1.389, 2.541e-3
-1.388, 2.485e-3
-1.387, 2.433e-3
-1.386, 2.377e-3
-1.385, 2.322e-3
-1.384, 2.269e-3
-1.383, 2.214e-3
-1.382, 2.158e-3
-1.381, 2.109e-3
-1.380, 2.063e-3
-1.379, 2.013e-3
-1.378, 1.964e-3
-1.377, 1.912e-3
-1.376, 1.865e-3
-1.375, 1.819e-3
-1.374, 1.773e-3
-1.373, 1.727e-3
-1.372, 1.684e-3
-1.371, 1.640e-3
-1.370, 1.594e-3
-1.369, 1.551e-3
-1.368, 1.514e-3
-1.367, 1.474e-3
-1.366, 1.434e-3
-1.365, 1.397e-3
-1.364, 1.357e-3
-1.363, 1.320e-3
-1.362, 1.283e-3
-1.361, 1.249e-3
-1.360, 1.215e-3
-1.359, 1.181e-3
-1.358, 1.147e-3
-1.357, 1.113e-3
-1.356, 1.079e-3
-1.355, 1.048e-3
-1.354, 1.021e-3
-1.353, 9.898e-4
-1.352, 9.621e-4
-1.351, 9.343e-4
-1.350, 9.035e-4
-1.349, 8.758e-4
-1.348, 8.511e-4
-1.347, 8.264e-4
-1.346, 8.018e-4
-1.345, 7.771e-4
-1.344, 7.524e-4
-1.343, 7.278e-4
-1.342, 7.062e-4
-1.341, 6.846e-4
-1.340, 6.630e-4
-1.339, 6.414e-4
-1.338, 6.199e-4
-1.337, 6.014e-4
-1.336, 5.798e-4
-1.335, 5.644e-4
-1.334, 5.459e-4
-1.333, 5.274e-4
-1.332, 5.089e-4
-1.331, 4.935e-4
-1.330, 4.780e-4
-1.329, 4.595e-4
-1.328, 4.441e-4
-1.327, 4.349e-4
-1.326, 4.195e-4
-1.325, 4.040e-4
-1.324, 3.886e-4
-1.323, 3.763e-4
-1.322, 3.640e-4
-1.321, 3.516e-4
-1.320, 3.393e-4
-1.319, 3.300e-4
-1.318, 3.146e-4
-1.317, 3.054e-4
-1.316, 2.931e-4
-1.315, 2.838e-4
-1.314, 2.746e-4
-1.313, 2.653e-4
-1.312, 2.561e-4
-1.311, 2.468e-4
-1.310, 2.376e-4
-1.309, 2.283e-4
-1.308, 2.191e-4
-1.307, 2.129e-4
-1.306, 2.067e-4
-1.305, 1.975e-4
-1.304, 1.882e-4
-1.303, 1.821e-4
-1.302, 1.759e-4
-1.301, 1.697e-4
-1.300, 1.636e-4
-1.299, 1.574e-4
-1.298, 1.481e-4
-1.297, 1.420e-4
-1.296, 1.358e-4
-1.295, 1.327e-4
-1.294, 1.296e-4
-1.293, 1.204e-4
-1.292, 1.173e-4
-1.291, 1.111e-4
-1.290, 1.050e-4
-1.289, 1.019e-4
-1.288, 9.882e-5
-1.287, 9.573e-5
-1.286, 8.957e-5
-1.285, 8.340e-5
-1.284, 8.032e-5
-1.283, 7.723e-5
-1.282, 7.415e-5
-1.281, 7.107e-5
-1.280, 6.798e-5
-1.279, 6.490e-5
-1.278, 6.182e-5
-1.277, 5.565e-5
-1.276, 5.257e-5
-1.275, 5.257e-5
-1.274, 4.949e-5
-1.273, 4.640e-5
-1.272, 4.332e-5
-1.271, 4.024e-5
-1.270, 3.715e-5
-1.269, 3.715e-5
-1.268, 3.407e-5
-1.267, 3.407e-5
-1.266, 3.099e-5
-1.265, 2.790e-5
-1.264, 2.482e-5
-1.263, 2.174e-5
-1.262, 2.174e-5
-1.261, 1.865e-5
-1.260, 1.865e-5
-1.259, 1.557e-5
-1.258, 1.249e-5
-1.257, 1.249e-5
-1.256, 9.405e-6
-1.255, 9.405e-6
-1.254, 9.405e-6
-1.253, 6.322e-6
-1.252, 3.239e-6
-1.251, 3.239e-6
-1.250, 1.559e-7
-1.249, 1.559e-7
-1.248, 1.559e-7
-1.247, 1.559e-7
-1.246, 1.559e-7
-1.245, -6.010e-6
-1.244, -6.010e-6
-1.243, -6.010e-6
-1.242, -9.093e-6
-1.241, -9.093e-6
-1.240, -9.093e-6
-1.239, -1.218e-5
-1.238, -1.218e-5
-1.237, -1.218e-5
-1.236, -1.526e-5
-1.235, -1.526e-5
-1.234, -1.218e-5
-1.233, -1.526e-5
-1.232, -1.526e-5
-1.231, -1.834e-5
-1.230, -1.834e-5
-1.229, -2.143e-5
-1.228, -2.143e-5
-1.227, -2.143e-5
-1.226, -2.143e-5
-1.225, -2.143e-5
-1.224, -2.143e-5
-1.223, -2.451e-5
-1.222, -2.451e-5
-1.221, -2.451e-5
-1.220, -2.451e-5
-1.219, -2.759e-5
-1.218, -2.759e-5
-1.217, -2.759e-5
-1.216, -2.759e-5
-1.215, -2.759e-5
-1.214, -2.759e-5
-1.213, -2.759e-5
-1.212, -3.068e-5
-1.211, -3.068e-5
-1.210, -3.068e-5
-1.209, -3.376e-5
-1.208, -3.068e-5
-1.207, -3.068e-5
-1.206, -3.376e-5
-1.205, -3.376e-5
-1.204, -3.684e-5
-1.203, -3.684e-5
-1.202, -3.376e-5
-1.201, -3.376e-5
-1.200, -3.376e-5
-1.199, -3.684e-5
-1.198, -3.684e-5
-1.197, -3.684e-5
-1.196, -3.992e-5
-1.195, -3.992e-5
-1.194, -3.684e-5
-1.193, -3.684e-5
-1.192, -3.684e-5
-1.191, -3.992e-5
-1.190, -3.992e-5
-1.189, -3.992e-5
-1.188, -3.992e-5
-1.187, -3.992e-5
-1.186, -3.992e-5
-1.185, -4.301e-5
-1.184, -4.301e-5
-1.183, -4.301e-5
-1.182, -4.301e-5
-1.181, -4.301e-5
-1.180, -4.301e-5
-1.179, -4.301e-5
-1.178, -4.609e-5
-1.177, -4.609e-5
-1.176, -4.609e-5
-1.175, -4.301e-5
-1.174, -4.301e-5
-1.173, -4.609e-5
-1.172, -4.609e-5
-1.171, -4.609e-5
-1.170, -4.917e-5
-1.169, -4.609e-5
-1.168, -4.609e-5
-1.167, -4.609e-5
-1.166, -4.609e-5
-1.165, -4.917e-5
-1.164, -4.917e-5
-1.163, -4.917e-5
-1.162, -4.917e-5
-1.161, -4.917e-5
-1.160, -4.609e-5
-1.159, -4.917e-5
-1.158, -5.226e-5
-1.157, -5.226e-5
-1.156, -5.226e-5
-1.155, -5.226e-5
-1.154, -4.917e-5
-1.153, -4.917e-5
-1.152, -5.226e-5
-1.151, -5.226e-5
-1.150, -5.226e-5
-1.149, -5.226e-5
-1.148, -5.226e-5
-1.147, -5.226e-5
-1.146, -5.226e-5
-1.145, -5.226e-5
-1.144, -5.534e-5
-1.143, -5.534e-5
-1.142, -5.534e-5
-1.141, -5.226e-5
-1.140, -5.226e-5
-1.139, -5.534e-5
-1.138, -5.534e-5
-1.137, -5.842e-5
-1.136, -5.842e-5
-1.135, -5.534e-5
-1.134, -5.534e-5
-1.133, -5.534e-5
-1.132, -5.842e-5
-1.131, -5.842e-5
-1.130, -5.842e-5
-1.129, -5.842e-5
-1.128, -5.534e-5
-1.127, -5.534e-5
-1.126, -5.842e-5
-1.125, -5.842e-5
-1.124, -5.842e-5
-1.123, -5.842e-5
-1.122, -6.151e-5
-1.121, -5.842e-5
-1.120, -5.842e-5
-1.119, -5.842e-5
-1.118, -6.151e-5
-1.117, -6.151e-5
-1.116, -6.151e-5
-1.115, -6.151e-5
-1.114, -6.151e-5
-1.113, -6.151e-5
-1.112, -6.151e-5
-1.111, -6.151e-5
-1.110, -6.151e-5
-1.109, -6.459e-5
-1.108, -6.151e-5
-1.107, -6.151e-5
-1.106, -6.151e-5
-1.105, -6.459e-5
-1.104, -6.459e-5
-1.103, -6.459e-5
-1.102, -6.459e-5
-1.101, -6.459e-5
-1.100, -6.459e-5
-1.099, -6.459e-5
-1.098, -6.459e-5
-1.097, -6.767e-5
-1.096, -6.767e-5
-1.095, -6.459e-5
-1.094, -6.459e-5
-1.093, -6.459e-5
-1.092, -6.767e-5
-1.091, -6.767e-5
-1.090, -6.767e-5
-1.089, -6.767e-5
-1.088, -6.767e-5
-1.087, -6.767e-5
-1.086, -6.767e-5
-1.085, -7.076e-5
-1.084, -7.076e-5
-1.083, -7.076e-5
-1.082, -6.767e-5
-1.081, -7.076e-5
-1.080, -6.767e-5
-1.079, -7.076e-5
-1.078, -7.076e-5
-1.077, -7.384e-5
-1.076, -7.384e-5
-1.075, -7.076e-5
-1.074, -7.076e-5
-1.073, -7.076e-5
-1.072, -7.076e-5
-1.071, -7.384e-5
-1.070, -7.384e-5
-1.069, -7.384e-5
-1.068, -7.384e-5
-1.067, -7.076e-5
-1.066, -7.076e-5
-1.065, -7.384e-5
-1.064, -7.384e-5
-1.063, -7.384e-5
-1.062, -7.384e-5
-1.061, -7.384e-5
-1.060, -7.384e-5
-1.059, -7.384e-5
-1.058, -7.692e-5
-1.057, -7.692e-5
-1.056, -7.692e-5
-1.055, -7.692e-5
-1.054, -7.692e-5
-1.053, -7.692e-5
-1.052, -7.692e-5
-1.051, -7.692e-5
-1.050, -8.000e-5
-1.049, -8.000e-5
-1.048, -8.000e-5
-1.047, -7.692e-5
-1.046, -7.692e-5
-1.045, -8.000e-5
-1.044, -8.000e-5
-1.043, -8.000e-5
-1.042, -8.000e-5
-1.041, -8.000e-5
-1.040, -8.000e-5
-1.039, -8.000e-5
-1.038, -8.309e-5
-1.037, -8.309e-5
-1.036, -8.617e-5
-1.035, -8.309e-5
-1.034, -8.000e-5
-1.033, -8.309e-5
-1.032, -8.309e-5
-1.031, -8.617e-5
-1.030, -8.617e-5
-1.029, -8.617e-5
-1.028, -8.617e-5
-1.027, -8.309e-5
-1.026, -8.309e-5
-1.025, -8.617e-5
-1.024, -8.925e-5
-1.023, -8.925e-5
-1.022, -8.925e-5
-1.021, -8.617e-5
-1.020, -8.617e-5
-1.019, -8.617e-5
-1.018, -8.925e-5
-1.017, -9.234e-5
-1.016, -9.234e-5
-1.015, -8.925e-5
-1.014, -8.925e-5
-1.013, -8.925e-5
-1.012, -9.234e-5
-1.011, -9.234e-5
-1.010, -9.234e-5
-1.009, -9.234e-5
-1.008, -9.234e-5
-1.007, -9.234e-5
-1.006, -9.234e-5
-1.005, -9.234e-5
-1.004, -9.542e-5
-1.003, -9.542e-5
-1.002, -9.542e-5
-1.001, -9.542e-5
