Potential V vs RHE, Current mA cm-2
0.013299999999999867,10.647117242784265
0.012299999999999978,8.914095900449595
0.011299999999999866,7.4767492197867185
0.010299999999999976,6.312441819997794
0.009299999999999864,5.191990470504685
0.008299999999999974,4.1889601589003735
0.007299999999999862,3.3500363580804073
0.006299999999999972,2.5252596702590906
0.00529999999999986,1.700482982437774
0.0042999999999999705,1.0188750781627993
0.0032999999999998586,0.40573920080129255
0.0022999999999999687,-0.2924208256821031
0.0012999999999998568,-0.9120643750229891
0.00029999999999996696,-1.3927832747171285
-0.000700000000000145,-1.9692781294121309
-0.0017000000000000348,-2.5266743815589554
-0.0027000000000001467,-2.9468436376188714
-0.0037000000000000366,-3.4207719230736586
-0.0047000000000001485,-3.9428003927238575
-0.005700000000000038,-4.3205283097878215
-0.00670000000000015,-4.696841515551922
-0.00770000000000004,-5.166525667107114
-0.008700000000000152,-5.558400697169729
-0.009700000000000042,-5.858319492741117
-0.010700000000000154,-6.292635861799683
-0.011700000000000044,-6.705731561360274
-0.012700000000000156,-6.953306038836654
-0.013700000000000045,-7.28576319430494
-0.014700000000000157,-7.688955914766475
-0.015700000000000047,-7.949262793941642
-0.01670000000000016,-8.196837271418023
-0.01770000000000005,-8.556173941583742
-0.01870000000000016,-8.864581004954319
-0.01970000000000005,-9.079617122533806
-0.020700000000000163,-9.372462361605868
-0.021700000000000053,-9.686528270175906
-0.022700000000000164,-9.91571150075404
-0.023700000000000054,-10.15904184433083
-0.024700000000000166,-10.450472372103025
-0.025700000000000056,-10.669752623582108
-0.026700000000000168,-10.873471050762673
-0.027700000000000058,-11.163486867235004
-0.02870000000000017,-11.379937696114355
-0.02970000000000006,-11.556776608597485
-0.03070000000000017,-11.849621847669546
-0.03170000000000006,-12.081634500847414
-0.03270000000000017,-12.245741011631758
-0.03370000000000006,-12.46785068571057
-0.034700000000000175,-12.74654881178398
-0.035700000000000065,-12.91489945646792
-0.03670000000000018,-13.06061472035402
-0.03770000000000007,-13.354874670725946
-0.03870000000000018,-13.596790303002868
-0.03970000000000007,-13.666111156696253
-0.04070000000000018,-13.910856211572908
-0.04170000000000007,-14.231995676642269
-0.04270000000000018,-14.345172580631472
-0.04370000000000007,-14.500790823616628
-0.044700000000000184,-14.797880196588284
-0.045700000000000074,-14.967645552572087
-0.046700000000000186,-15.080822456561293
-0.047700000000000076,-15.349617603535648
-0.04870000000000019,-15.505235846520803
-0.04970000000000008,-15.590118524512702
-0.05070000000000019,-15.830619445489761
-0.05170000000000008,-16.071120366466815
-0.05270000000000019,-16.170150157457368
-0.05370000000000008,-16.368209739438473
-0.05470000000000019,-16.60871066041553
-0.05570000000000008,-16.750181790402035
-0.056700000000000195,-16.90580003338719
-0.057700000000000085,-17.132153841365596
-0.058700000000000196,-17.28777208435075
-0.059700000000000086,-17.4150961013386
-0.0607000000000002,-17.669744135314307
-0.06170000000000009,-17.910245056291366
-0.0627000000000002,-17.995127734283265
-0.06370000000000009,-18.17904020326572
-0.0647000000000002,-18.461982463238726
-0.06570000000000009,-18.589306480226583
-0.0667000000000002,-18.674189158218486
-0.0677000000000001,-18.999572757187444
-0.0687000000000002,-19.22592656516585
-0.0697000000000001,-19.25422079116315
-0.07070000000000021,-19.537163051136158
-0.0717000000000001,-19.805958198110513
-0.07270000000000021,-19.890840876102416
-0.0737000000000001,-20.046459119087572
-0.07470000000000021,-20.357695605057877
-0.0757000000000001,-20.555755187038983
-0.07670000000000021,-20.683079204026836
-0.0777000000000001,-20.881138786007945
-0.07870000000000021,-21.13578681998365
-0.0797000000000001,-21.277257949970153
-0.08070000000000022,-21.461170418952605
-0.0817000000000001,-21.729965565926964
-0.08270000000000022,-21.899730921910766
-0.08370000000000011,-22.055349164895922
-0.08470000000000022,-22.36658565086623
-0.08570000000000011,-22.564645232847337
-0.08670000000000022,-22.691969249835186
-0.08770000000000011,-22.989058622806844
-0.08870000000000022,-23.272000882779853
-0.08970000000000011,-23.41347201276636
-0.09070000000000022,-23.66812004674206
-0.09170000000000011,-23.993503645711023
-0.09270000000000023,-24.21985745368943
-0.09370000000000012,-24.389622809673234
-0.09470000000000023,-24.630123730650286
-0.09570000000000012,-24.856477538628695
-0.09670000000000023,-25.012095781613848
-0.09770000000000012,-25.238449589592253
-0.09870000000000023,-25.43650917157336
-0.09970000000000012,-25.57798030155986
-0.10070000000000023,-25.875069674531517
-0.10170000000000012,-26.101423482509926
-0.10270000000000024,-26.242894612496432
-0.10370000000000013,-26.55413109846674
-0.10470000000000024,-26.95025026242895
-0.10570000000000013,-27.162456957408708
-0.10670000000000024,-27.38881076538711
-0.10770000000000013,-27.841518381343924
-0.10870000000000024,-28.209343319308836
-0.10970000000000013,-28.280078884302082
-0.11070000000000024,-28.52057980527914
-0.11170000000000013,-28.86011051724675
-0.11270000000000002,-29.015728760231898
-0.11370000000000013,-29.157199890218404
-0.11470000000000002,-29.440142150191413
-0.11570000000000014,-29.751378636161718
-0.11670000000000003,-29.878702653149578
-0.11770000000000014,-30.09090934812933
-0.11870000000000003,-30.47288139909289
-0.11970000000000014,-30.71338232006995
-0.12070000000000003,-30.939736128048356
-0.12170000000000014,-31.265119727017314
-0.12270000000000003,-31.618797551983565
-0.12370000000000014,-31.915886924955227
-0.12470000000000003,-32.170534958930936
-0.12570000000000014,-32.52421278389719
-0.12670000000000003,-32.84959638286615
-0.12770000000000015,-33.160832868836465
-0.12870000000000004,-33.48621646780542
-0.12970000000000015,-33.76915872777842
-0.13070000000000004,-34.12283655274469
-0.13170000000000015,-34.50480860370825
-0.13270000000000004,-34.7453095246853
-0.13370000000000015,-34.94336910666641
-0.13470000000000004,-35.32534115762997
-0.13570000000000015,-35.664871869597576
-0.13670000000000004,-35.91951990357328
-0.13770000000000016,-36.25905061554089
-0.13870000000000005,-36.64102266650445
-0.13970000000000016,-36.9381120394761
-0.14070000000000005,-37.376672542434264
-0.14170000000000016,-37.744497480399176
-0.14270000000000005,-38.02743974037218
-0.14370000000000016,-38.46600024333035
-0.14470000000000005,-38.94700208528445
-0.14570000000000016,-39.28653279725207
-0.14670000000000005,-39.88071154319538
-0.14770000000000016,-40.177800916167044
-0.14870000000000005,-40.24853648116029
-0.14970000000000017,-40.65880275812115
-0.15070000000000006,-40.99833347008877
-0.15170000000000017,-41.23883439106582
-0.15270000000000006,-41.77642468501453
-0.15370000000000017,-42.34230920496055
-0.15470000000000006,-42.695987029926805
-0.15570000000000017,-42.837458159913304
-0.15670000000000006,-42.93648795090387
-0.15770000000000017,-43.290165775870115
-0.15870000000000006,-43.77116761782423
-0.15970000000000018,-44.054109877797245
-0.16070000000000007,-44.43608192876081
-0.16170000000000018,-44.95952510971087
-0.16270000000000007,-45.28490870867982
-0.16370000000000018,-45.70932209863933
-0.16470000000000007,-46.218618166590744
-0.16570000000000018,-46.515707539562406
-0.16670000000000007,-46.94012092952192
-0.16770000000000018,-47.49185833646928
-0.16870000000000007,-47.8879775004315
-0.16970000000000018,-48.24165532539775
-0.17070000000000007,-48.920716749332975
-0.17170000000000019,-49.373424365289786
-0.17270000000000008,-49.59977817326819
-0.1737000000000002,-50.15151558021555
-0.17470000000000008,-50.77398855215617
-0.1757000000000002,-51.014489473133224
-0.17670000000000008,-51.396461524096786
-0.1777000000000002,-52.00478738303875
-0.17870000000000008,-52.44334788599691
-0.1797000000000002,-52.65555458097666
-0.18070000000000008,-53.20729198792403
-0.1817000000000002,-54.0136774288471
-0.18270000000000008,-54.45223793180526
-0.1837000000000002,-54.59370906179176
-0.1847000000000001,-55.21618203373238
-0.1857000000000002,-56.23477416963521
-0.1867000000000001,-56.65918755959472
-0.1877000000000002,-56.75821735058527
-0.1887000000000001,-57.394837435524536
-0.1897000000000002,-58.15878153745166
-0.1907000000000001,-58.45587091042332
-0.1917000000000001,-58.569047814412514
-0.19269999999999998,-59.09249099536258
-0.1937000000000001,-59.70081685430455
-0.19469999999999998,-59.70081685430455
-0.1957000000000001,-59.85643509728971
-0.19669999999999999,-60.74770321620468
-0.1977000000000001,-61.53994154412909
-0.1987,-61.97850204708726
-0.1997000000000001,-62.51609234103597
-0.2007,-63.364919120955
-0.2017000000000001,-64.11471610988345
-0.2027,-64.70889485582677
-0.2037000000000001,-65.43039761875795
-0.2047,-65.99628213870396
-0.2057000000000001,-66.53387243265267
-0.2067,-66.9582858226122
-0.2077000000000001,-67.24122808258521
-0.2087,-67.7788183765339
-0.2097000000000001,-68.35885000947859
-0.2107,-68.8115576254354
-0.2117000000000001,-69.3774421453814
-0.2127,-70.05650356931662
-0.2137000000000001,-70.66482942825859
-0.2147,-71.5136562081776
-0.2157000000000001,-72.15027629311687
-0.2167,-72.61713102207234
-0.21770000000000012,-73.3952222369981
-0.2187,-74.10257788693062
-0.21970000000000012,-74.61187395488203
-0.2207,-75.50314207379701
-0.22170000000000012,-76.50758709670117
-0.2227,-77.08761872964584
-0.22370000000000012,-77.48373789360807
-0.2247,-78.33256467352709
-0.22570000000000012,-79.18139145344611
-0.2267,-79.36530392242857
-0.22770000000000012,-79.7472759733921
-0.22870000000000001,-80.14339513735433
-0.22970000000000013,-80.29901338033947
-0.23070000000000002,-81.06295748226661
-0.23170000000000013,-81.95422560118158
-0.23270000000000002,-82.37863899114109
-0.23370000000000013,-82.97281773708441
-0.23470000000000002,-83.80749740400476
-0.23570000000000013,-84.59973573192919
-0.23670000000000002,-85.13732602587791
-0.2376999999999999,-85.61832786783202
-0.23870000000000002,-86.39641908275779
-0.2396999999999999,-87.06133339369435
-0.24070000000000003,-87.75454193062824
-0.24169999999999991,-88.5892215975486
-0.24270000000000003,-89.52293105545952
-0.24369999999999992,-90.5273760783637
-0.24470000000000003,-91.03667214631511
-0.24569999999999992,-91.72988068324898
-0.24670000000000003,-92.62114880216394
-0.24769999999999992,-93.05970930512211
-0.24870000000000003,-93.22947466110593
-0.24969999999999992,-93.82365340704924
-0.25070000000000003,-95.06859935093047
-0.2516999999999999,-96.44086931179956
-0.25270000000000004,-96.7662529107685
-0.2536999999999999,-96.5964875547847
-0.25470000000000004,-97.21896052672531
-0.2556999999999999,-98.2799940016241
-0.25670000000000004,-98.6195247135917
-0.25769999999999993,-99.01564387755391
-0.25870000000000004,-100.17570714344325
-0.25969999999999993,-100.78403300238521
-0.26070000000000004,-101.32162329633393
-0.26169999999999993,-102.42509811022865
-0.26270000000000004,-103.07586530816658
-0.26369999999999993,-103.6983382801072
-0.26470000000000005,-104.78766598100327
-0.26569999999999994,-105.26866782295738
-0.26670000000000005,-105.59405142192634
-0.26769999999999994,-106.17408305487102
-0.26870000000000005,-106.32970129785616
-0.26969999999999994,-106.66923200982377
-0.27070000000000005,-107.44732322474954
-0.27169999999999994,-107.98491351869825
-0.27270000000000005,-108.26785577867126
-0.27369999999999994,-108.84788741161593
-0.27470000000000006,-109.56939017454708
-0.27569999999999995,-110.2767458244796
-0.27670000000000006,-110.57383519745127
-0.27769999999999995,-111.0265428134081
-0.27870000000000006,-111.66316289834735
-0.27969999999999995,-111.98854649731629
-0.28070000000000006,-112.28563587028796
-0.28169999999999995,-112.73834348624479
-0.28270000000000006,-113.07787419821238
-0.28369999999999995,-113.71449428315165
-0.28470000000000006,-114.1813490121071
-0.28569999999999995,-114.3511143680909
-0.28670000000000007,-114.73308641905447
-0.28769999999999996,-115.32726516499778
-0.28870000000000007,-115.72338432896
-0.28969999999999996,-116.07706215392626
-0.29070000000000007,-116.36000441389926
-0.29169999999999996,-116.79856491685742
-0.29270000000000007,-116.96833027284121
-0.29369999999999996,-116.47318131788847
-0.2947000000000001,-116.61465244787497
-0.29569999999999996,-117.01077161183719
-0.2967000000000001,-116.79856491685742
-0.29769999999999996,-116.64294667387229
-0.2987000000000001,-116.75612357786147
-0.29969999999999997,-116.62879956087362
-0.3007000000000001,-116.67124089986959
-0.30169999999999997,-116.30341596190465
-0.3027000000000001,-115.90729679794246
-0.30369999999999997,-116.00632658893302
-0.3047000000000001,-115.79411989395325
-0.30569999999999997,-115.3555593909951
-0.3067000000000001,-114.98773445303017
-0.3077,-115.0726171310221
-0.3087000000000001,-114.81796909704637
-0.3097,-113.89840675213411
-0.3107000000000001,-113.78522984814491
-0.3117,-113.68620005715434
-0.3127000000000001,-112.82322616423666
-0.3137,-112.29978298328662
-0.3147000000000001,-112.03098783631226
-0.3157,-111.66316289834735
-0.3167000000000001,-111.21045528239053
-0.3177,-110.48895251945936
-0.3187000000000001,-109.92306799951335
-0.3197,-109.49865460955384
-0.3207000000000001,-108.83374029861727
-0.3217,-108.15467887468205
-0.3227000000000001,-107.54635301574008
-0.3237,-107.31999920776168
-0.3247000000000001,-106.82485025280893
-0.3257,-105.86284656890071
-0.3267000000000001,-105.45258029193982
-0.3277,-105.14134380596953
-0.3287000000000001,-104.33495836504645
-0.3297,-103.61345560211528
-0.3307000000000001,-103.25977777714903
-0.3317,-102.76462882219626
-0.3327000000000001,-102.2694798672435
-0.3337,-101.60456555630694
-0.3347000000000001,-100.96794547136767
-0.3357,-100.58597342040412
-0.3367000000000001,-100.03423601345675
-0.3377,-99.45420438051207
-0.3387000000000001,-98.98734965155661
-0.3397,-98.60537760059306
-0.3407000000000001,-98.40731801861195
-0.3417,-97.79899215967
-0.3427000000000001,-97.26140186572127
-0.3437,-97.17651918772938
-0.3447000000000001,-96.8511355887604
-0.3457,-96.29939818181305
-0.3467000000000001,-96.21451550382113
-0.3477,-96.0871914868333
-0.3487000000000001,-95.33739449790482
-0.3497,-95.09689357692776
-0.3507000000000001,-95.12518780292505
-0.3517,-94.68662729996691
-0.3527000000000001,-94.24806679700876
-0.3537,-94.33294947500065
-0.3547000000000001,-94.21977257101145
-0.3557,-93.59729959907082
-0.35670000000000013,-93.80950629405058
-0.3577,-94.36124370099793
-0.35870000000000013,-93.93683031103843
-0.3597,-93.55485826007487
-0.36070000000000013,-93.75291784205598
-0.3617,-93.92268319803979
-0.3626999999999999,-93.73877072905732
-0.3637,-93.48412269508162
-0.3646999999999999,-93.65388805106544
-0.3657,-93.73877072905732
-0.3666999999999999,-93.65388805106544
-0.3677,-93.75291784205598
-0.3686999999999999,-94.19147834501413
-0.36970000000000003,-94.36124370099793
-0.3706999999999999,-94.29050813600469
-0.37170000000000003,-94.24806679700876
-0.3726999999999999,-94.84224554295207
-0.37370000000000003,-94.85639265595071
-0.3746999999999999,-94.61589173497366
-0.37570000000000003,-95.05445223793181
-0.3766999999999999,-95.74766077486568
-0.37770000000000004,-95.83254345285758
-0.3786999999999999,-95.88913190485218
-0.37970000000000004,-96.61063466778336
-0.3806999999999999,-97.20481341372668
-0.38170000000000004,-97.4877556736997
-0.38269999999999993,-98.15266998463625
-0.38370000000000004,-99.10052655554581
-0.38469999999999993,-99.83617643147564
-0.38570000000000004,-100.35961961242569
-0.38669999999999993,-99.35517458952152
-0.38570000000000004,-96.5681933287874
-0.38469999999999993,-93.93683031103843
-0.38370000000000004,-92.04111716921928
-0.38269999999999993,-90.51322896536506
-0.38170000000000004,-89.08437055250135
-0.3806999999999999,-87.54233523564847
-0.37970000000000004,-85.95785857979962
-0.3786999999999999,-84.7129126359184
-0.37770000000000004,-83.41137824004257
-0.3766999999999999,-81.74201890620182
-0.37570000000000003,-80.45463162332464
-0.3746999999999999,-79.13895011445015
-0.37370000000000003,-77.92229839656622
-0.3726999999999999,-76.84711780866878
-0.37170000000000003,-75.46070073480107
-0.3706999999999999,-74.20160767792116
-0.36970000000000003,-73.2254568810143
-0.3686999999999999,-72.02295227612902
-0.3677,-70.57994675026669
-0.3666999999999999,-69.39158925838004
-0.3657,-68.40129134847452
-0.3646999999999999,-67.2695223085825
-0.3637,-65.8972523477134
-0.3626999999999999,-64.82207175981598
-0.3617,-63.874215188906405
-0.36070000000000013,-62.68585769701977
-0.3597,-61.525794431130436
-0.35870000000000013,-60.59208497321952
-0.3577,-59.587639950315335
-0.35670000000000013,-58.35684111943277
-0.3557,-57.394837435524536
-0.3547000000000001,-56.546010655605514
-0.3537,-55.51327140670405
-0.3527000000000001,-54.508826383799864
-0.3517,-53.617558264884885
-0.3507000000000001,-52.74043725896857
-0.3497,-51.60866821907654
-0.3487000000000001,-50.66081164816696
-0.3477,-50.052485789224995
-0.3467000000000001,-49.005599427324874
-0.3457,-47.95871306542474
-0.3447000000000001,-47.37868143248008
-0.3437,-46.75620846053947
-0.3427000000000001,-45.73761632463664
-0.3417,-44.45022904175945
-0.3407000000000001,-43.71457916582963
-0.3397,-43.290165775870115
-0.3387000000000001,-42.37060343095784
-0.3377,-41.42274686004827
-0.3367000000000001,-40.743685436113054
-0.3357,-39.90900576919269
-0.3347000000000001,-39.060178989273666
-0.3337,-38.28208777434789
-0.3327000000000001,-37.43326099442887
-0.3317,-36.7117582314977
-0.3307000000000001,-35.99025546856653
-0.3297,-35.15557580164616
-0.3287000000000001,-34.5472499427042
-0.3277,-33.93892408376223
-0.3267000000000001,-33.13253864283916
-0.3257,-32.42518299290664
-0.3247000000000001,-31.816857133964678
-0.3237,-31.08120725803486
-0.3227000000000001,-30.387998721100992
-0.3217,-29.68064307116847
-0.3207000000000001,-28.97328742123595
-0.3197,-28.251784658304786
-0.3187000000000001,-27.58687034736821
-0.3177,-26.97854448842625
-0.3167000000000001,-26.34192440348698
-0.3157,-25.719451431546364
-0.3147000000000001,-25.111125572604404
-0.3137,-24.502799713662437
-0.3127000000000001,-23.96520941971372
-0.3117,-23.356883560771752
-0.3107000000000001,-22.66367502383789
-0.3097,-22.126084729889175
-0.3087000000000001,-21.61678866193776
-0.3077,-20.980168576998494
-0.3067000000000001,-20.44257828304978
-0.30569999999999997,-20.03231200608892
-0.3047000000000001,-19.480574599141555
-0.30369999999999997,-18.858101627200938
-0.3027000000000001,-18.419541124242777
-0.30169999999999997,-17.952686395287316
-0.3007000000000001,-17.34436053634535
-0.29969999999999997,-16.863358694391238
-0.2987000000000001,-16.481386643427676
-0.29769999999999996,-15.943796349478962
-0.2967000000000001,-15.363764716534297
-0.29569999999999996,-14.967645552572087
-0.2947000000000001,-14.557379275611227
-0.29369999999999996,-13.984421199165887
-0.29270000000000007,-13.514737047610696
-0.29169999999999996,-13.081835389851994
-0.29070000000000007,-12.549903941102741
-0.28969999999999996,-12.11134343814458
-0.28870000000000007,-11.756250901878454
-0.28769999999999996,-11.299299152022046
-0.28670000000000007,-10.840932690865777
-0.28569999999999995,-10.507060824097627
-0.28470000000000006,-10.093965124537037
-0.28369999999999995,-9.59174261308495
-0.28270000000000006,-9.262114880216396
-0.28169999999999995,-8.89287523095162
-0.28070000000000006,-8.430264635895755
-0.27969999999999995,-8.063854409230709
-0.27870000000000006,-7.754032634560266
-0.27769999999999995,-7.32537511070116
-0.27670000000000006,-6.910864699840705
-0.27569999999999995,-6.629337151167562
-0.27470000000000006,-6.277074037501167
-0.27369999999999994,-5.851245936241792
-0.27270000000000005,-5.5739625214682444
-0.27169999999999994,-5.295264395394832
-0.27070000000000005,-4.863777448935997
-0.26969999999999994,-4.535564427367307
-0.26870000000000005,-4.292234083790521
-0.26769999999999994,-3.915920878026421
-0.26670000000000005,-3.5297046931632665
