Potential V vs RHE, Current mA cm-2
0.013299999999999867,-0.09877514295657686
0.012299999999999978,-1.1851036558969412
0.011299999999999866,-1.7542420118326456
0.010299999999999976,-2.1008462802995793
0.009299999999999864,-2.351250180375691
0.008299999999999974,-2.515356691160035
0.007299999999999862,-2.6497542646472136
0.006299999999999972,-2.7615164573365516
0.00529999999999986,-2.846399135328454
0.0042999999999999705,-2.9369406585198163
0.0032999999999998586,-3.0147497800123935
0.0022999999999999687,-3.0628499642078046
0.0012999999999998568,-3.1166089936026755
0.00029999999999996696,-3.168953311697682
-0.000700000000000145,-3.243933010590529
-0.0017000000000000348,-3.2934479060858055
-0.0027000000000001467,-3.3245715546828363
-0.0037000000000000366,-3.3726717388782474
-0.0047000000000001485,-3.450480860370824
-0.005700000000000038,-3.4872633541673155
-0.00670000000000015,-3.525460559263671
-0.00770000000000004,-3.559413630460432
-0.008700000000000152,-3.6004402581565187
-0.009700000000000042,-3.644296308452334
-0.010700000000000154,-3.698055337847206
-0.011700000000000044,-3.734837831643697
-0.012700000000000156,-3.768790902840458
-0.013700000000000045,-3.798499840137624
-0.014700000000000157,-3.849429446932765
-0.015700000000000047,-3.8932854972285815
-0.01670000000000016,-3.9258238571254775
-0.01770000000000005,-3.956947505722508
-0.01870000000000016,-3.988071154319539
-0.01970000000000005,-4.020609514216435
-0.020700000000000163,-4.060221430612655
-0.021700000000000053,-4.108321614808066
-0.022700000000000164,-4.152177665103882
-0.023700000000000054,-4.187545447600509
-0.024700000000000166,-4.21018082839835
-0.025700000000000056,-4.25828101259376
-0.026700000000000168,-4.307795908089036
-0.027700000000000058,-4.348822535785122
-0.02870000000000017,-4.394093297380804
-0.02970000000000006,-4.422387523378105
-0.03070000000000017,-4.467658284973785
-0.03170000000000006,-4.521417314368658
-0.03270000000000017,-4.566688075964338
-0.03370000000000006,-4.593567590661774
-0.034700000000000175,-4.624691239258805
-0.035700000000000065,-4.695426804252056
-0.03670000000000018,-4.737868143248008
-0.03770000000000007,-4.757674101446118
-0.03870000000000018,-4.814262553440719
-0.03970000000000007,-4.872265716735186
-0.04070000000000018,-4.926024746130058
-0.04170000000000007,-4.968466085126009
-0.04270000000000018,-5.003833867622634
-0.04370000000000007,-5.067495876116562
-0.044700000000000184,-5.139646152409678
-0.045700000000000074,-5.190575759204819
-0.046700000000000186,-5.249993633799152
-0.047700000000000076,-5.2910202614952375
-0.04870000000000019,-5.341949868290378
-0.04970000000000008,-5.408441299384036
-0.05070000000000019,-5.467859173978367
-0.05170000000000008,-5.523032914673103
-0.05270000000000019,-5.569718387568649
-0.05370000000000008,-5.588109634466894
-0.05470000000000019,-5.664504044659607
-0.05570000000000008,-5.756460279150835
-0.056700000000000195,-5.830025266743816
-0.057700000000000085,-5.8625636266407115
-0.058700000000000196,-5.906419676936528
-0.059700000000000086,-5.981399375829374
-0.0607000000000002,-6.076185032920332
-0.06170000000000009,-6.14833530921345
-0.0627000000000002,-6.199264916008591
-0.06370000000000009,-6.245950388904137
-0.0647000000000002,-6.312441819997794
-0.06570000000000009,-6.410056899688482
-0.0667000000000002,-6.483621887281464
-0.0677000000000001,-6.545869184475525
-0.0687000000000002,-6.608116481669587
-0.0697000000000001,-6.681681469262568
-0.07070000000000021,-6.770808281154065
-0.0717000000000001,-6.837299712247723
-0.07270000000000021,-6.906620565941108
-0.0737000000000001,-6.980185553534091
-0.07470000000000021,-7.053750541127073
-0.0757000000000001,-7.155609754717355
-0.07670000000000021,-7.243321855308987
-0.0777000000000001,-7.315472131602105
-0.07870000000000021,-7.404598943493602
-0.0797000000000001,-7.495140466684964
-0.08070000000000022,-7.596999680275248
-0.0817000000000001,-7.688955914766475
-0.08270000000000022,-7.756862057159997
-0.08370000000000011,-7.845988869051494
-0.08470000000000022,-7.949262793941642
-0.08570000000000011,-8.055366141431518
-0.08670000000000022,-8.154395932422071
-0.08770000000000011,-8.233619765214515
-0.08870000000000022,-8.336893690104661
-0.08970000000000011,-8.426020501996158
-0.09070000000000022,-8.556173941583742
-0.09170000000000011,-8.672180268172674
-0.09270000000000023,-8.769795347863363
-0.09370000000000012,-8.83911620155675
-0.09470000000000023,-8.952293105545952
-0.09570000000000012,-9.06688472083502
-0.09670000000000023,-9.165914511825573
-0.09770000000000012,-9.307385641812077
-0.09870000000000023,-9.410659566702224
-0.09970000000000012,-9.518177625491967
-0.10070000000000023,-9.64267221988009
-0.10170000000000012,-9.786972772466322
-0.10270000000000024,-9.922785057253368
-0.10370000000000013,-10.023229559543786
-0.10470000000000024,-10.116600505334876
-0.10570000000000013,-10.2693893257203
-0.10670000000000024,-10.410860455706805
-0.10770000000000013,-10.508475535397492
-0.10870000000000024,-10.62306715068656
-0.10970000000000013,-10.780100104971579
-0.11070000000000024,-10.968256707853628
-0.11170000000000013,-11.116801394339458
-0.11270000000000002,-11.235637143528121
-0.11370000000000013,-11.345984624917593
-0.11470000000000002,-11.457746817606932
-0.11570000000000014,-11.60912092669249
-0.11670000000000003,-11.77747157137643
-0.11770000000000014,-11.964213462958616
-0.11870000000000003,-12.163687756239584
-0.11970000000000014,-12.31930599922474
-0.12070000000000003,-12.486241932608813
-0.12170000000000014,-12.651763154693022
-0.12270000000000003,-12.767769481281956
-0.12370000000000014,-12.965829063263062
-0.12470000000000003,-13.11154432714916
-0.12570000000000014,-13.24028305543688
-0.12670000000000003,-13.449660327816902
-0.12770000000000015,-13.667525867996119
-0.12870000000000004,-13.848608914378843
-0.12970000000000015,-14.0325213833613
-0.13070000000000004,-14.26028990263957
-0.13170000000000015,-14.444202371622024
-0.13270000000000004,-14.642261953603128
-0.13370000000000015,-14.769585970590983
-0.13470000000000004,-14.911057100577487
-0.13570000000000015,-15.151558021554543
-0.13670000000000004,-15.37791182953295
-0.13770000000000016,-15.618412750510005
-0.13870000000000005,-15.830619445489761
-0.13970000000000016,-15.986237688474914
-0.14070000000000005,-16.22673860945197
-0.14170000000000016,-16.52382798242363
-0.14270000000000005,-16.778476016399335
-0.14370000000000016,-16.97653559838044
-0.14470000000000005,-17.160448067362896
-0.14570000000000016,-17.40094898833995
-0.14670000000000005,-17.669744135314307
-0.14770000000000016,-17.952686395287316
-0.14870000000000005,-18.207334429263025
-0.14970000000000017,-18.47612957623738
-0.15070000000000006,-18.631747819222536
-0.15170000000000017,-18.92883719219419
-0.15270000000000006,-19.2683679041618
-0.15370000000000017,-19.551310164134804
-0.15470000000000006,-19.70692840711996
-0.15570000000000017,-19.947429328097016
-0.15670000000000006,-20.357695605057877
-0.15770000000000017,-20.640637865030882
-0.15870000000000006,-20.93772723800254
-0.15970000000000018,-21.30555217596745
-0.16070000000000007,-21.68752422693101
-0.16170000000000018,-21.95631937390537
-0.16270000000000007,-22.267555859875678
-0.16370000000000018,-22.607086571843286
-0.16470000000000007,-22.91832305781359
-0.16570000000000018,-23.215412430785253
-0.16670000000000007,-23.639825820744765
-0.16770000000000018,-23.97935653271237
-0.16870000000000007,-24.31888724467998
-0.16970000000000018,-24.587682391654337
-0.17070000000000007,-24.95550732961925
-0.17170000000000019,-25.39406783257741
-0.17270000000000008,-25.77603988354097
-0.1737000000000002,-26.073129256512626
-0.17470000000000008,-26.440954194477534
-0.1757000000000002,-26.86536758443705
-0.17670000000000008,-27.303928087395207
-0.1777000000000002,-27.685900138358768
-0.17870000000000008,-28.06787218932233
-0.1797000000000002,-28.44984424028589
-0.18070000000000008,-28.93084608224
-0.1817000000000002,-29.42599503719276
-0.18270000000000008,-29.822114201154974
-0.1837000000000002,-30.17579202612123
-0.1847000000000001,-30.62849964207804
-0.1857000000000002,-31.12364859703081
-0.1867000000000001,-31.54806198699032
-0.1877000000000002,-32.04321094194308
-0.1887000000000001,-32.52421278389719
-0.1897000000000002,-32.97692039985401
-0.1907000000000001,-33.373039563816214
-0.1917000000000001,-33.825747179773025
-0.19269999999999998,-34.36333747372174
-0.1937000000000001,-34.84433931567585
-0.19469999999999998,-35.240458479638065
-0.1957000000000001,-35.83463722558138
-0.19669999999999999,-36.41466885852605
-0.1977000000000001,-36.86737647448285
-0.1987,-37.305936977441014
-0.1997000000000001,-37.90011572338433
-0.2007,-38.522588695324956
-0.2017000000000001,-38.97529631128177
-0.2027,-39.56947505722508
-0.2037000000000001,-40.234389368161644
-0.2047,-40.84271522710361
-0.2057000000000001,-41.281275730061765
-0.2067,-41.79057179801318
-0.2077000000000001,-42.31401497896325
-0.2087,-42.93648795090387
-0.2097000000000001,-43.45993113185393
-0.2107,-43.91263874781074
-0.2117000000000001,-44.42193481576215
-0.2127,-45.030260674704124
-0.2137000000000001,-45.92152879361909
-0.2147,-46.4025306355732
-0.2157000000000001,-46.75620846053947
-0.2167,-47.29379875448818
-0.21770000000000012,-47.84553616143554
-0.2187,-48.4255677943802
-0.21970000000000012,-48.93486386233162
-0.2207,-49.387571478288436
-0.22170000000000012,-49.939308885235796
-0.2227,-50.51934051818046
-0.22370000000000012,-50.957901021138625
-0.2247,-51.424755750094086
-0.22570000000000012,-51.962346044042796
-0.2267,-52.485789224992864
-0.22770000000000012,-52.980938179945625
-0.22870000000000001,-53.476087134898386
-0.22970000000000013,-53.985383202849796
-0.23070000000000002,-54.551267722795814
-0.23170000000000013,-54.890798434763425
-0.23270000000000002,-55.17374069473642
-0.23370000000000013,-55.612301197694585
-0.23470000000000002,-55.7254781016838
-0.23570000000000013,-56.23477416963521
-0.23670000000000002,-56.43283375161632
-0.2376999999999999,-56.51771642960822
-0.23870000000000002,-56.63089333359741
-0.2396999999999999,-56.74407023758662
-0.24070000000000003,-56.71577601158933
-0.24169999999999991,-56.31965684762711
-0.24270000000000003,-55.96597902266086
-0.24369999999999992,-55.8952434576676
-0.24470000000000003,-55.838655005673
-0.24569999999999992,-55.82450789267435
-0.24670000000000003,-55.626448310693235
-0.24769999999999992,-55.31521182472294
-0.24870000000000003,-54.933239773759375
-0.24969999999999992,-54.551267722795814
-0.25070000000000003,-54.09856010683901
-0.2516999999999999,-53.546822699891635
-0.25270000000000004,-52.61311324198071
-0.2536999999999999,-51.792580688059
-0.25470000000000004,-51.15596060311972
-0.2556999999999999,-50.47689917918451
-0.25670000000000004,-49.571483947270885
-0.25769999999999993,-48.66606871535726
-0.25870000000000004,-47.74650637044499
-0.25969999999999993,-46.85523825153001
-0.26070000000000004,-45.72346921163799
-0.26169999999999993,-44.66243573673921
-0.26270000000000004,-43.71457916582963
-0.26369999999999993,-42.667692803929505
-0.26470000000000005,-41.620806442029384
-0.26569999999999994,-40.6729498711198
-0.26670000000000005,-39.58362217022373
-0.26769999999999994,-38.55088292132225
-0.26870000000000005,-37.54643789841808
-0.26969999999999994,-36.52784576251525
-0.27070000000000005,-35.45266517461782
-0.27169999999999994,-34.43407303871499
-0.27270000000000005,-33.48621646780542
-0.27369999999999994,-32.5525070098945
-0.27470000000000006,-31.54806198699032
-0.27569999999999995,-30.685088094072643
-0.27670000000000006,-29.878702653149578
-0.27769999999999995,-29.128905664221104
-0.27870000000000006,-28.32252022329803
-0.27969999999999995,-27.544429008372262
-0.28070000000000006,-26.95025026242895
-0.28169999999999995,-26.34192440348698
-0.28270000000000006,-25.77603988354097
-0.28369999999999995,-25.309185154585506
-0.28470000000000006,-24.983801555616548
-0.28569999999999995,-24.65841795664759
-0.28670000000000007,-24.44621126166783
-0.28769999999999996,-24.21985745368943
-0.28870000000000007,-24.064239210704276
-0.28969999999999996,-24.00765075870967
-0.29070000000000007,-23.993503645711023
-0.29169999999999996,-24.00765075870967
-0.29270000000000007,-24.021797871708326
-0.29369999999999996,-24.078386323702922
-0.2947000000000001,-24.20571034069078
-0.29569999999999996,-24.37547569667458
-0.2967000000000001,-24.531093939659737
-0.29769999999999996,-24.729153521640843
-0.2987000000000001,-24.983801555616548
-0.29969999999999997,-25.266743815589557
-0.3007000000000001,-25.563833188561212
-0.30169999999999997,-25.90336390052882
-0.3027000000000001,-26.22874749949778
-0.30369999999999997,-26.568278211465387
-0.3047000000000001,-27.00683871442355
-0.30569999999999997,-27.43125210438306
-0.3067000000000001,-27.742488590353368
-0.3077,-28.18104909331153
-0.3087000000000001,-28.633756709268344
-0.3097,-29.072317212226505
-0.3107000000000001,-29.55331905418062
-0.3117,-30.07676223513068
-0.3127000000000001,-30.62849964207804
-0.3137,-31.095354371033505
-0.3147000000000001,-31.64709177798087
-0.3157,-32.22712341092554
-0.3167000000000001,-32.79300793087155
-0.3177,-33.245715546828364
-0.3187000000000001,-33.740864501781125
-0.3197,-34.44822015171364
-0.3207000000000001,-35.098987349651566
-0.3217,-35.650724756598926
-0.3227000000000001,-36.20246216354629
-0.3237,-36.88152358748151
-0.3247000000000001,-37.54643789841808
-0.3257,-38.211352209354644
-0.3267000000000001,-38.81967806829661
-0.3277,-39.47044526623452
-0.3287000000000001,-40.14950669016974
-0.3297,-40.78612677510901
-0.3307000000000001,-41.56421799003478
-0.3317,-42.29986786596459
-0.3327000000000001,-43.02137062889577
-0.3337,-43.72872627882828
-0.3347000000000001,-44.4643761547581
-0.3357,-45.17173180469062
-0.3367000000000001,-45.949823019616396
-0.3377,-46.74206134754081
-0.3387000000000001,-47.54844678846388
-0.3397,-48.43971490737886
-0.3407000000000001,-49.24610034830193
-0.3417,-49.95345599823444
-0.3427000000000001,-50.80228277815347
-0.3437,-51.594521106077885
-0.3447000000000001,-52.2735825300131
-0.3457,-53.136556422930774
-0.3467000000000001,-54.09856010683901
-0.3477,-54.890798434763425
-0.3487000000000001,-55.68303676268785
-0.3497,-56.333803960625765
-0.3507000000000001,-57.29580764453399
-0.3517,-58.32854689343546
-0.3527000000000001,-59.304697690342344
-0.3537,-60.16767158326001
-0.3547000000000001,-61.18626371916283
-0.3557,-62.19070874206701
-0.35670000000000013,-63.08197686098199
-0.3577,-64.02983343189156
-0.35870000000000013,-64.90695443780788
-0.3597,-65.76992833072556
-0.36070000000000013,-66.68949067563783
-0.3617,-67.55246456855551
-0.3626999999999999,-68.35885000947859
-0.3637,-69.02376432041514
-0.3646999999999999,-69.87259110033416
-0.3657,-70.9760659142289
-0.3666999999999999,-72.12198206711957
-0.3677,-73.21130976801565
-0.3686999999999999,-74.27234324291443
-0.36970000000000003,-75.20605270082535
-0.3706999999999999,-76.36611596671467
-0.37170000000000003,-77.42714944161345
-0.3726999999999999,-78.33256467352709
-0.37370000000000003,-79.11065588845284
-0.3746999999999999,-80.05851245936242
-0.37570000000000003,-80.9780748042747
-0.3766999999999999,-81.72787179320316
-0.37770000000000004,-82.73231681610734
-0.3786999999999999,-83.90652719499532
-0.37970000000000004,-85.052443347886
-0.3806999999999999,-85.78809322381582
-0.38170000000000004,-86.80668535971866
-0.38269999999999993,-87.72624770463094
-0.38370000000000004,-88.74483984053374
-0.38469999999999993,-89.96149155841768
-0.38570000000000004,-91.36205574528407
-0.38669999999999993,-90.7820241123394
-0.38570000000000004,-88.97119364851217
-0.38469999999999993,-87.72624770463094
-0.38370000000000004,-86.25494795277129
-0.38269999999999993,-84.7977953139103
-0.38170000000000004,-83.63773204802096
-0.3806999999999999,-82.81719949409924
-0.37970000000000004,-82.06740250517078
-0.3786999999999999,-81.11954593426121
-0.37770000000000004,-79.94533555537322
-0.3766999999999999,-78.8984491934731
-0.37570000000000003,-78.09206375255003
-0.3746999999999999,-76.94614759965934
-0.37370000000000003,-75.46070073480107
-0.3726999999999999,-74.54113838988879
-0.37170000000000003,-73.6498702709738
-0.3706999999999999,-72.37663010109527
-0.36970000000000003,-71.30144951319785
-0.3686999999999999,-70.76385921924914
-0.3677,-70.12723913430986
-0.3666999999999999,-68.99547009441784
-0.3657,-67.97687795851502
-0.3646999999999999,-67.0997569525987
-0.3637,-66.18019460768642
-0.3626999999999999,-65.0767197937917
-0.3617,-64.18545167487672
-0.36070000000000013,-63.19515376497119
-0.3597,-62.28973853305756
-0.35870000000000013,-61.5682357701264
-0.3577,-60.761850329203334
-0.35670000000000013,-60.12523024426406
-0.3557,-59.20566789935179
-0.3547000000000001,-58.14463442445301
-0.3537,-56.956276932566375
-0.3527000000000001,-55.7820665536784
-0.3517,-54.834209982768826
-0.3507000000000001,-54.39564947981066
-0.3497,-53.815617846866
-0.3487000000000001,-52.966791066946975
-0.3477,-52.033081609036046
-0.3467000000000001,-51.15596060311972
-0.3457,-50.32128093619935
-0.3447000000000001,-49.41586570428573
-0.3437,-48.55289181136806
-0.3427000000000001,-47.902124613430146
-0.3417,-47.26550452849088
-0.3407000000000001,-46.43082486157051
-0.3397,-45.70932209863933
-0.3387000000000001,-44.95952510971087
-0.3377,-44.16728678178645
-0.3367000000000001,-43.40334267985933
-0.3357,-42.625251464933555
-0.3347000000000001,-41.83301313700913
-0.3337,-41.111510374077966
-0.3327000000000001,-40.4748902891387
-0.3317,-39.66850484821563
-0.3307000000000001,-38.93285497228581
-0.3297,-38.40941179133574
-0.3287000000000001,-37.84352727138973
-0.3277,-37.107877395459916
-0.3267000000000001,-36.3439332935328
-0.3257,-35.721460321592176
-0.3247000000000001,-35.02825178465831
-0.3237,-34.41992592571634
-0.3227000000000001,-33.88233563176763
-0.3217,-33.231568433829715
-0.3207000000000001,-32.58080123589179
-0.3197,-32.02906382894443
-0.3187000000000001,-31.321708179011907
-0.3177,-30.79826499806185
-0.3167000000000001,-30.11920357412663
-0.3157,-29.496730602186016
-0.3147000000000001,-29.072317212226505
-0.3137,-28.53472691827779
-0.3127000000000001,-27.869812607341224
-0.3117,-27.303928087395207
-0.3107000000000001,-26.879514697435695
-0.3097,-26.32777729048833
-0.3087000000000001,-25.761892770542314
-0.3077,-25.238449589592253
-0.3067000000000001,-24.74330063463949
-0.30569999999999997,-24.24815167968673
-0.3047000000000001,-23.753002724733967
-0.30369999999999997,-23.286147995778503
-0.3027000000000001,-22.84758749282034
-0.30169999999999997,-22.352438537867577
-0.3007000000000001,-21.772406904922917
-0.29969999999999997,-21.277257949970153
-0.2987000000000001,-20.85284456001064
-0.29769999999999996,-20.499166735044383
-0.2967000000000001,-20.00401778009162
-0.29569999999999996,-19.508868825138855
-0.2947000000000001,-19.070308322180697
-0.29369999999999996,-18.660042045219836
-0.29270000000000007,-18.207334429263025
-0.29169999999999996,-17.81121526530081
-0.29070000000000007,-17.429243214337255
-0.28969999999999996,-16.90580003338719
-0.28870000000000007,-16.495533756426326
-0.28769999999999996,-16.15600304445872
-0.28670000000000007,-15.77403099349516
-0.28569999999999995,-15.349617603535648
-0.28470000000000006,-15.01008689156804
-0.28369999999999995,-14.642261953603128
-0.28270000000000006,-14.288584128636872
-0.28169999999999995,-13.943394571469803
-0.28070000000000006,-13.601034436902461
-0.27969999999999995,-13.237453632837148
-0.27870000000000006,-12.913484745168056
-0.27769999999999995,-12.57253932190058
-0.27670000000000006,-12.230179187333244
-0.27569999999999995,-11.884989630166173
-0.27470000000000006,-11.587900257194516
-0.27369999999999994,-11.394084809113005
-0.27270000000000005,-11.053139385845531
-0.27169999999999994,-10.720682230377248
-0.27070000000000005,-10.372663250610449
-0.26969999999999994,-10.051523785541084
-0.26870000000000005,-9.748775567369968
-0.26769999999999994,-9.453100905698175
-0.26670000000000005,-9.181476336124089
-0.26569999999999994,-8.914095900449595
