Potential V vs RHE, Current mA cm-2
0.013299999999999867,-0.2796884239833177
0.012299999999999978,-0.3818305798335734
0.011299999999999866,-0.42158396735978093
0.010299999999999976,-0.44238022346779693
0.009299999999999864,-0.4686938536452867
0.008299999999999974,-0.48694362941354563
0.007299999999999862,-0.5054763474417775
0.006299999999999972,-0.5231602386900907
0.00529999999999986,-0.5343364579590244
0.0042999999999999705,-0.5487665132176478
0.0032999999999998586,-0.5654601065560552
0.0022999999999999687,-0.577202210344935
0.0012999999999998568,-0.5903590254336798
0.00029999999999996696,-0.6039402539123842
-0.000700000000000145,-0.618794722560967
-0.0017000000000000348,-0.6333662489495769
-0.0027000000000001467,-0.6432692280486321
-0.0037000000000000366,-0.6554357452274714
-0.0047000000000001485,-0.6691584448361624
-0.005700000000000038,-0.6790614239352176
-0.00670000000000015,-0.6879741051243674
-0.00770000000000004,-0.7113168415721405
-0.008700000000000152,-0.7236248298809663
-0.009700000000000042,-0.7342351646299541
-0.010700000000000154,-0.7506458157083884
-0.011700000000000044,-0.7649343998370254
-0.012700000000000156,-0.7787985705757027
-0.013700000000000045,-0.7847403580351359
-0.014700000000000157,-0.8012924802435567
-0.015700000000000047,-0.8178446024519777
-0.01670000000000016,-0.8276061104210465
-0.01770000000000005,-0.8396311564698993
-0.01870000000000016,-0.8583053456281178
-0.01970000000000005,-0.8766965925263633
-0.020700000000000163,-0.8955122528145681
-0.021700000000000053,-0.9096593658132186
-0.022700000000000164,-0.9288994394913831
-0.023700000000000054,-0.9416318411901684
-0.024700000000000166,-0.9556374830588322
-0.025700000000000056,-0.9655404621578876
-0.026700000000000168,-0.9813852287163759
-0.027700000000000058,-1.0116600505334876
-0.02870000000000017,-1.025807163532138
-0.02970000000000006,-1.0453301794702756
-0.03070000000000017,-1.065136137668386
-0.03170000000000006,-1.080273548576942
-0.03270000000000017,-1.0988062666051739
-0.03370000000000006,-1.1215831185330012
-0.034700000000000175,-1.1396914231712736
-0.035700000000000065,-1.154970305209816
-0.03670000000000018,-1.1652976976988305
-0.03770000000000007,-1.1976945864657402
-0.03870000000000018,-1.2245741011631757
-0.03970000000000007,-1.2455118284011784
-0.04070000000000018,-1.2650348443393156
-0.04170000000000007,-1.2921973012967245
-0.04270000000000018,-1.315681508874484
-0.04370000000000007,-1.3381754185423382
-0.044700000000000184,-1.3476539842514341
-0.045700000000000074,-1.3810411709282489
-0.046700000000000186,-1.4138624730851177
-0.047700000000000076,-1.4444202371622026
-0.04870000000000019,-1.4698850405597732
-0.04970000000000008,-1.4953498439573436
-0.05070000000000019,-1.5208146473549145
-0.05170000000000008,-1.5547677185516753
-0.05270000000000019,-1.5675001202504606
-0.05370000000000008,-1.6113561705462767
-0.05470000000000019,-1.6424798191433077
-0.05570000000000008,-1.6820917355395286
-0.056700000000000195,-1.7174595180361545
-0.057700000000000085,-1.7514125892329155
-0.058700000000000196,-1.781121526530081
-0.059700000000000086,-1.8207334429263025
-0.0607000000000002,-1.8631747819222533
-0.06170000000000009,-1.8801513175206337
-0.0627000000000002,-1.925422079116315
-0.06370000000000009,-1.9706928407119961
-0.0647000000000002,-2.0159636023076772
-0.06570000000000009,-2.0555755187038987
-0.0667000000000002,-2.0937727238002544
-0.0677000000000001,-2.1390434853959355
-0.0687000000000002,-2.197046648690402
-0.0697000000000001,-2.225340874687703
-0.07070000000000021,-2.2592939458844636
-0.0717000000000001,-2.3130529752793345
-0.07270000000000021,-2.3738855611735317
-0.0737000000000001,-2.4290593018682682
-0.07470000000000021,-2.468671218264489
-0.0757000000000001,-2.5210155363594953
-0.07670000000000021,-2.576189277054232
-0.0777000000000001,-2.6327777290488332
-0.07870000000000021,-2.6539983985468085
-0.0797000000000001,-2.7233192522401954
-0.08070000000000022,-2.785566549434257
-0.0817000000000001,-2.852057980527914
-0.08270000000000022,-2.9072317212226504
-0.08370000000000011,-2.9581613280177916
-0.08470000000000022,-3.0147497800123935
-0.08570000000000011,-3.07841178850632
-0.08670000000000022,-3.125097261401866
-0.08770000000000011,-3.1703680229975473
-0.08870000000000022,-3.2411035879907995
-0.08970000000000011,-3.314668575583781
-0.09070000000000022,-3.379745295377573
-0.09170000000000011,-3.437748458672039
-0.09270000000000023,-3.4943369106666404
-0.09370000000000012,-3.552340073961107
-0.09470000000000023,-3.6202462163546287
-0.09570000000000012,-3.65702871015112
-0.09670000000000023,-3.7093730282461257
-0.09770000000000012,-3.7772791706396474
-0.09870000000000023,-3.8480147356329
-0.09970000000000012,-3.9130914554266916
-0.10070000000000023,-3.962606350921967
-0.10170000000000012,-4.014950669016974
-0.10270000000000024,-4.081442100110631
-0.10370000000000013,-4.121054016506851
-0.10470000000000024,-4.140859974704963
-0.10570000000000013,-4.21018082839835
-0.10670000000000024,-4.27525754819214
-0.10770000000000013,-4.338919556686067
-0.10870000000000024,-4.382775606981883
-0.10970000000000013,-4.415313966878779
-0.11070000000000024,-4.4648288623740555
-0.11170000000000013,-4.522832025668523
-0.11270000000000002,-4.524246736968387
-0.11370000000000013,-4.568102787264204
-0.11470000000000002,-4.600641147161099
-0.11570000000000014,-4.66288844435516
-0.11670000000000003,-4.705329783351112
-0.11770000000000014,-4.729379875448817
-0.11870000000000003,-4.756259390146253
-0.11970000000000014,-4.784553616143554
-0.12070000000000003,-4.821336109940045
-0.12170000000000014,-4.778894770944094
-0.12270000000000003,-4.829824377739236
-0.12370000000000014,-4.84821562463748
-0.12470000000000003,-4.8849981184339715
-0.12570000000000014,-4.903389365332218
-0.12670000000000003,-4.907633499231812
-0.12770000000000015,-4.916121767031002
-0.12870000000000004,-4.9302688800296535
-0.12970000000000015,-4.920365900930598
-0.13070000000000004,-4.882168695834241
-0.13170000000000015,-4.913292344431272
-0.13270000000000004,-4.916121767031002
-0.13370000000000015,-4.926024746130058
-0.13470000000000004,-4.924610034830192
-0.13570000000000015,-4.9175364783308675
-0.13670000000000004,-4.910462921831542
-0.13770000000000016,-4.893486386233161
-0.13870000000000005,-4.892071674933297
-0.13970000000000016,-4.83406851163883
-0.14070000000000005,-4.759088812745984
-0.14170000000000016,-4.787383038743283
-0.14270000000000005,-4.829824377739236
-0.14370000000000016,-4.790212461343015
-0.14470000000000005,-4.788797750043149
-0.14570000000000016,-4.766162369245309
-0.14670000000000005,-4.730794586748683
-0.14770000000000016,-4.710988628550572
-0.14870000000000005,-4.702500360751382
-0.14970000000000017,-4.665717866954891
-0.15070000000000006,-4.593567590661774
-0.15170000000000017,-4.582249900262854
-0.15270000000000006,-4.575176343763529
-0.15370000000000017,-4.556785096865283
-0.15470000000000006,-4.518587891768927
-0.15570000000000017,-4.488878954471762
-0.15670000000000006,-4.470487707573516
-0.15770000000000017,-4.461999439774326
-0.15870000000000006,-4.370043205283098
-0.15970000000000018,-4.354481380984582
-0.16070000000000007,-4.334675422786473
-0.16170000000000018,-4.323357732387552
-0.16270000000000007,-4.296478217690116
-0.16370000000000018,-4.26393985779322
-0.16470000000000007,-4.234230920496055
-0.16570000000000018,-4.211595539698214
-0.16670000000000007,-4.166324778102533
-0.16770000000000018,-4.119639305206987
-0.16870000000000007,-4.097003924409146
-0.16970000000000018,-4.081442100110631
-0.17070000000000007,-4.0588067193127895
-0.17170000000000019,-4.026268359415894
-0.17270000000000008,-3.9979741334185936
-0.1737000000000002,-3.973924041320888
-0.17470000000000008,-3.932897413624801
-0.1757000000000002,-3.8975296311281755
-0.17670000000000008,-3.869235405130875
-0.1777000000000002,-3.8579177147319554
-0.17870000000000008,-3.833867622634249
-0.1797000000000002,-3.801329262737354
-0.18070000000000008,-3.7772791706396474
-0.1817000000000002,-3.751814367242077
-0.18270000000000008,-3.7376672542434273
-0.1837000000000002,-3.7178612960453163
-0.1847000000000001,-3.6485404423519294
-0.1857000000000002,-3.6372227519530096
-0.1867000000000001,-3.6244903502542236
-0.1877000000000002,-3.6103432372555737
-0.1887000000000001,-3.583463722558138
-0.1897000000000002,-3.555169496560837
-0.1907000000000001,-3.541022383562187
-0.1917000000000001,-3.525460559263671
-0.19269999999999998,-3.4830192202677206
-0.1937000000000001,-3.453310282970554
-0.19469999999999998,-3.439163169971904
-0.1957000000000001,-3.430674902172714
-0.19669999999999999,-3.408039521374873
-0.1977000000000001,-3.3839894292771677
-0.1987,-3.3655981823789225
-0.1997000000000001,-3.352865780680137
-0.2007,-3.3401333789813514
-0.2017000000000001,-3.2948626173856703
-0.2027,-3.2821302156868852
-0.2037000000000001,-3.276471370487425
-0.2047,-3.2623242574887747
-0.2057000000000001,-3.2396888766909337
-0.2067,-3.225541763692284
-0.2077000000000001,-3.2099799393937682
-0.2087,-3.1972475376949827
-0.2097000000000001,-3.1548061986990317
-0.2107,-3.1477326421997063
-0.2117000000000001,-3.1392443744005165
-0.2127,-3.1279266840015962
-0.2137000000000001,-3.110950148403216
-0.2147,-3.0996324580042955
-0.2157000000000001,-3.0883147676053753
-0.2167,-3.07841178850632
-0.21770000000000012,-3.069923520707129
-0.2187,-3.024652759111448
-0.21970000000000012,-3.0175792026121235
-0.2207,-3.013335068712528
-0.22170000000000012,-3.006261512213203
-0.2227,-2.990699687914687
-0.22370000000000012,-2.976552574916037
-0.2247,-2.9666495958169823
-0.22570000000000012,-2.9581613280177916
-0.2267,-2.9397700811195464
-0.22770000000000012,-2.9298671020204905
-0.22870000000000001,-2.9185494116215707
-0.22970000000000013,-2.9058170099227856
-0.23070000000000002,-2.8944993195238653
-0.23170000000000013,-2.8845963404248094
-0.23270000000000002,-2.874693361325755
-0.23370000000000013,-2.864790382226699
-0.23470000000000002,-2.8506432692280486
-0.23570000000000013,-2.843569712728724
-0.23670000000000002,-2.833666733629668
-0.2376999999999999,-2.822349043230748
-0.23870000000000002,-2.8152754867314234
-0.2396999999999999,-2.8082019302320975
-0.24070000000000003,-2.8011283737327726
-0.24169999999999991,-2.7968842398331777
-0.24270000000000003,-2.785566549434257
-0.24369999999999992,-2.768590013835877
-0.24470000000000003,-2.7516134782374966
-0.24569999999999992,-2.7530281895373614
-0.24670000000000003,-2.7530281895373614
-0.24769999999999992,-2.7487840556377665
-0.24870000000000003,-2.738881076538711
-0.24969999999999992,-2.7332222313392514
-0.25070000000000003,-2.7233192522401954
-0.2516999999999999,-2.7233192522401954
-0.25270000000000004,-2.7077574279416803
-0.2536999999999999,-2.6851220471438397
-0.25470000000000004,-2.6921956036431647
-0.2556999999999999,-2.6907808923433
-0.25670000000000004,-2.69361031494303
-0.25769999999999993,-2.6865367584437045
-0.25870000000000004,-2.6794632019443796
-0.25969999999999993,-2.6780484906445143
-0.26070000000000004,-2.6780484906445143
-0.26169999999999993,-2.658242532446404
-0.26270000000000004,-2.656827821146539
-0.26369999999999993,-2.6539983985468085
-0.26470000000000005,-2.655413109846674
-0.26569999999999994,-2.656827821146539
-0.26670000000000005,-2.655413109846674
-0.26769999999999994,-2.6525836872469437
-0.26870000000000005,-2.6525836872469437
-0.26969999999999994,-2.6356071516485633
-0.27070000000000005,-2.6384365742482934
-0.27169999999999994,-2.637021862948428
-0.27270000000000005,-2.641265996848024
-0.27369999999999994,-2.6426807081478887
-0.27470000000000006,-2.637021862948428
-0.27569999999999995,-2.6384365742482934
-0.27670000000000006,-2.6426807081478887
-0.27769999999999995,-2.637021862948428
-0.27870000000000006,-2.6327777290488332
-0.27969999999999995,-2.6327777290488332
-0.28070000000000006,-2.639851285548158
-0.28169999999999995,-2.648339553347349
-0.28270000000000006,-2.648339553347349
-0.28369999999999995,-2.6497542646472136
-0.28470000000000006,-2.6539983985468085
-0.28569999999999995,-2.6497542646472136
-0.28670000000000007,-2.6511689759470785
-0.28769999999999996,-2.6539983985468085
-0.28870000000000007,-2.6653160889457292
-0.28969999999999996,-2.670974934145189
-0.29070000000000007,-2.6738043567449195
-0.29169999999999996,-2.6794632019443796
-0.29270000000000007,-2.6851220471438397
-0.29369999999999996,-2.6837073358439745
-0.2947000000000001,-2.6794632019443796
-0.29569999999999996,-2.6921956036431647
-0.2967000000000001,-2.69926916014249
-0.29769999999999996,-2.7134162731411404
-0.2987000000000001,-2.7219045409403306
-0.29969999999999997,-2.7289780974396556
-0.3007000000000001,-2.7360516539389814
-0.30169999999999997,-2.745954633038036
-0.3027000000000001,-2.7629311686364164
-0.30369999999999997,-2.7615164573365516
-0.3047000000000001,-2.754442900837226
-0.30569999999999997,-2.7813224155346625
-0.3067000000000001,-2.7926401059335824
-0.3077,-2.8096166415319628
-0.3087000000000001,-2.823763754530613
-0.3097,-2.8322520223298033
-0.3107000000000001,-2.846399135328454
-0.3117,-2.8577168257273744
-0.3127000000000001,-2.8718639387260247
-0.3137,-2.8732786500258896
-0.3147000000000001,-2.893084608224
-0.3157,-2.9086464325225156
-0.3167000000000001,-2.935525947219951
-0.3177,-2.9553319054180616
-0.3187000000000001,-2.973723152316307
-0.3197,-2.9878702653149576
-0.3207000000000001,-3.010505646112798
-0.3217,-3.0387998721100984
-0.3227000000000001,-3.0373851608102336
-0.3237,-3.0628499642078046
-0.3247000000000001,-3.0911441902051053
-0.3257,-3.1166089936026755
-0.3267000000000001,-3.1434885083001114
-0.3277,-3.167538600397817
-0.3287000000000001,-3.1972475376949827
-0.3297,-3.2297858975918787
-0.3307000000000001,-3.2396888766909337
-0.3317,-3.279300793087155
-0.3327000000000001,-3.314668575583781
-0.3337,-3.361354048479327
-0.3347000000000001,-3.400965964875548
-0.3357,-3.4448220151713644
-0.3367000000000001,-3.4943369106666404
-0.3377,-3.552340073961107
-0.3387000000000001,-3.6103432372555737
-0.3397,-3.67683466834923
-0.3407000000000001,-3.7560585011416725
-0.3417,-3.8466000243330347
-0.3427000000000001,-3.9484592379233177
-0.3437,-4.05597729671306
-0.3447000000000001,-4.184716025000778
-0.3457,-4.337504845386203
-0.3467000000000001,-4.500196644870682
-0.3477,-4.679864979953542
-0.3487000000000001,-4.880753984534377
-0.3497,-5.097204813413727
-0.3507000000000001,-5.315070353592943
-0.3517,-5.547083006770809
-0.3527000000000001,-5.820122287644761
-0.3537,-6.124285217115744
-0.3547000000000001,-6.438351125685783
-0.3557,-6.790614239352177
-0.35670000000000013,-7.1457067756183
-0.3577,-7.520605270082535
-0.35870000000000013,-7.92379799054407
-0.3597,-8.321331865806146
-0.36070000000000013,-8.747159967065523
-0.3617,-9.112155482430701
-0.3626999999999999,-9.521007048091697
-0.3637,-9.992105910946753
-0.3646999999999999,-10.495743133698706
-0.3657,-10.972500841753224
-0.3666999999999999,-11.456332106307068
-0.3677,-11.955725195159426
-0.3686999999999999,-12.507462602106788
-0.36970000000000003,-12.883775807870888
-0.3706999999999999,-13.343556980327028
-0.37170000000000003,-13.879732562975875
-0.3726999999999999,-14.486643710617974
-0.37370000000000003,-15.03838111756534
-0.3746999999999999,-15.547677185516752
-0.37570000000000003,-16.085267479465468
-0.3766999999999999,-16.60871066041553
-0.37770000000000004,-17.089712502369647
-0.3786999999999999,-17.627302796318357
-0.37970000000000004,-18.207334429263025
-0.3806999999999999,-18.78736606220769
-0.38170000000000004,-19.3249563561564
-0.38269999999999993,-19.862546650105116
-0.38370000000000004,-20.47087250904708
-0.38469999999999993,-21.008462802995794
-0.38570000000000004,-21.248963723972853
-0.38669999999999993,-21.107492593986347
-0.38570000000000004,-20.541608074040333
-0.38469999999999993,-19.93328221509837
-0.38370000000000004,-19.2400736781645
-0.38269999999999993,-18.57515936722793
-0.38170000000000004,-17.995127734283265
-0.3806999999999999,-17.45753744033455
-0.37970000000000004,-16.651151999411482
-0.3786999999999999,-15.91550212348166
-0.37770000000000004,-15.406206055530248
-0.3766999999999999,-14.939351326574789
-0.37570000000000003,-14.401761032626075
-0.3746999999999999,-13.840120646579654
-0.37370000000000003,-13.34214226902716
-0.3726999999999999,-12.923387724267112
-0.37170000000000003,-12.380138585118935
-0.3706999999999999,-11.800106952174271
-0.36970000000000003,-11.344569913617729
-0.3686999999999999,-10.95976844005444
-0.3677,-10.557990430892769
-0.3666999999999999,-10.132162329633392
-0.3657,-9.726140186572128
-0.3646999999999999,-9.349826980808027
-0.3637,-8.911266477849864
-0.3626999999999999,-8.532123849486036
-0.3617,-8.182690158419373
-0.36070000000000013,-7.848818291651225
-0.3597,-7.548899496079835
-0.35870000000000013,-7.251810123108179
-0.3577,-6.950476616236925
-0.35670000000000013,-6.6505578206655365
-0.3557,-6.3647861380928
-0.3547000000000001,-6.115796949316553
-0.3537,-5.855490070141387
-0.3527000000000001,-5.490494554776207
-0.3517,-5.305167374493887
-0.3507000000000001,-5.068910587416426
-0.3497,-4.849630335937346
-0.3487000000000001,-4.651570753956241
-0.3477,-4.43511992507689
-0.3467000000000001,-4.234230920496055
-0.3457,-4.043244895014275
-0.3447000000000001,-3.8635765599314156
-0.3437,-3.6683464005500404
-0.3427000000000001,-3.4886780654671803
-0.3417,-3.3302303998822964
-0.3407000000000001,-3.1845151359961976
-0.3397,-3.034555738210504
-0.3387000000000001,-2.8916698969241352
-0.3377,-2.7530281895373614
-0.3367000000000001,-2.6285335951492383
-0.3357,-2.4955507329619246
-0.3347000000000001,-2.3653972933743415
-0.3337,-2.2451468328858133
-0.3327000000000001,-2.1461170418952604
-0.3317,-2.042843117005113
-0.3307000000000001,-1.9423986147146954
-0.3297,-1.8433688237241426
-0.3287000000000001,-1.7499978779330503
-0.3277,-1.6622857773414181
-0.3267000000000001,-1.5660854089505953
-0.3257,-1.4854468648582886
-0.3247000000000001,-1.410042752575482
-0.3237,-1.3343556980327025
-0.3227000000000001,-1.2637616041694373
-0.3217,-1.1964213462958615
-0.3207000000000001,-1.1310616842420969
-0.3197,-1.0682485025280892
-0.3187000000000001,-0.9970885241448778
-0.3177,-0.9395097742403707
-0.3167000000000001,-0.884477504675621
-0.3157,-0.829162292850898
-0.3147000000000001,-0.7783741571857431
-0.3137,-0.7261713102207233
-0.3127000000000001,-0.6767978858554337
-0.3117,-0.6332247778195904
-0.3107000000000001,-0.5859734204040982
-0.3097,-0.5317899776192673
-0.3087000000000001,-0.48977305201327564
-0.3077,-0.44733171301732455
-0.3067000000000001,-0.4133786418205638
-0.30569999999999997,-0.3730593697744102
-0.3047000000000001,-0.33245715546828364
-0.30369999999999997,-0.2969479018416712
-0.3027000000000001,-0.25931658126526125
-0.30169999999999997,-0.22309997198871628
-0.3007000000000001,-0.1849027668923603
-0.29969999999999997,-0.14599820614607179
-0.2987000000000001,-0.1150726171310221
-0.29769999999999996,-0.08420361656796697
-0.2967000000000001,-0.053037526631940224
-0.29569999999999996,-0.023172971091789302
-0.2947000000000001,0.01135022875881719
-0.29369999999999996,0.04553955674265553
-0.29270000000000007,0.0766207640006904
-0.29169999999999996,0.11094166013541619
-0.29070000000000007,0.14004227157364
-0.28969999999999996,0.17103859615368294
-0.28870000000000007,0.19777663972113213
-0.28769999999999996,0.22111937616890526
-0.28670000000000007,0.24955507329619245
-0.28569999999999995,0.2764345879936282
-0.28470000000000006,0.30487028512091535
-0.28369999999999995,0.33316451111821616
-0.28270000000000006,0.3580634299958408
-0.28169999999999995,0.3823964643535194
-0.28070000000000006,0.4072953832311441
-0.27969999999999995,0.4293648795090386
-0.27870000000000006,0.4522832025668522
-0.27769999999999995,0.4761918235345713
-0.27670000000000006,0.49557336834272236
-0.27569999999999995,0.5200478738303875
-0.27470000000000006,0.5465029751378637
-0.27369999999999994,0.5750801433951374
-0.27270000000000005,0.5984228798429104
-0.27169999999999994,0.6175214823910884
-0.27070000000000005,0.637893325109145
-0.26969999999999994,0.6613775326869047
-0.26870000000000005,0.6869838072144618
