Potential V vs RHE, Current mA cm-2
0.013299999999999867,-0.21263110836971502
0.012299999999999978,-0.6554357452274714
0.011299999999999866,-0.8543441539884957
0.010299999999999976,-0.9904393810355122
0.009299999999999864,-1.1068701210144047
0.008299999999999974,-1.1853865981569143
0.007299999999999862,-1.2419750501515157
0.006299999999999972,-1.3144082687046057
0.00529999999999986,-1.3666111156696257
0.0042999999999999705,-1.4079206856256845
0.0032999999999998586,-1.4585673501608527
0.0022999999999999687,-1.5094969569559942
0.0012999999999998568,-1.5547677185516753
0.00029999999999996696,-1.614185593146007
-0.000700000000000145,-1.696238848538179
-0.0017000000000000348,-1.774047970030756
-0.0027000000000001467,-1.8179040203265722
-0.0037000000000000366,-1.8801513175206337
-0.0047000000000001485,-1.9183485226169896
-0.005700000000000038,-1.9395691921149654
-0.00670000000000015,-1.9706928407119961
-0.00770000000000004,-1.9989870667092968
-0.008700000000000152,-2.0187930249074073
-0.009700000000000042,-2.042843117005113
-0.010700000000000154,-2.079625610801604
-0.011700000000000044,-2.1065051254990395
-0.012700000000000156,-2.1305552175967453
-0.013700000000000045,-2.1630935774936413
-0.014700000000000157,-2.202705493889862
-0.015700000000000047,-2.2210967407881075
-0.01670000000000016,-2.2592939458844636
-0.01770000000000005,-2.30880884137974
-0.01870000000000016,-2.321541243078525
-0.01970000000000005,-2.3653972933743415
-0.020700000000000163,-2.4007650758709675
-0.021700000000000053,-2.424815167968673
-0.022700000000000164,-2.4502799713662435
-0.023700000000000054,-2.4715006408642193
-0.024700000000000166,-2.4927213103621946
-0.025700000000000056,-2.50262428946125
-0.026700000000000168,-2.512527268560305
-0.027700000000000058,-2.536577360658011
-0.02870000000000017,-2.5379920719578757
-0.02970000000000006,-2.5408214945576058
-0.03070000000000017,-2.5606274527557162
-0.03170000000000006,-2.5648715866553116
-0.03270000000000017,-2.5592127414558514
-0.03370000000000006,-2.576189277054232
-0.034700000000000175,-2.584677544853422
-0.035700000000000065,-2.581848122253692
-0.03670000000000018,-2.590336390052882
-0.03770000000000007,-2.6044835030515325
-0.03870000000000018,-2.6073129256512626
-0.03970000000000007,-2.6073129256512626
-0.04070000000000018,-2.6285335951492383
-0.04170000000000007,-2.639851285548158
-0.04270000000000018,-2.6356071516485633
-0.04370000000000007,-2.656827821146539
-0.044700000000000184,-2.6723896454450546
-0.045700000000000074,-2.6723896454450546
-0.046700000000000186,-2.6865367584437045
-0.047700000000000076,-2.7049280053419507
-0.04870000000000019,-2.7077574279416803
-0.04970000000000008,-2.7247339635400607
-0.05070000000000019,-2.7318075200393857
-0.05170000000000008,-2.7530281895373614
-0.05270000000000019,-2.7516134782374966
-0.05370000000000008,-2.770004725135742
-0.05470000000000019,-2.785566549434257
-0.05570000000000008,-2.7898106833338523
-0.056700000000000195,-2.798298951133043
-0.057700000000000085,-2.8251784658304784
-0.058700000000000196,-2.8280078884302084
-0.059700000000000086,-2.8350814449295334
-0.0607000000000002,-2.854887403127644
-0.06170000000000009,-2.870449227426159
-0.0627000000000002,-2.8690345161262942
-0.06370000000000009,-2.8803522065252145
-0.0647000000000002,-2.8916698969241352
-0.06570000000000009,-2.88742576302454
-0.0667000000000002,-2.888840474324405
-0.0677000000000001,-2.9029875873230555
-0.0687000000000002,-2.900158164723325
-0.0697000000000001,-2.90157287602319
-0.07070000000000021,-2.9100611438223805
-0.0717000000000001,-2.9100611438223805
-0.07270000000000021,-2.897328742123595
-0.0737000000000001,-2.9072317212226504
-0.07470000000000021,-2.91289056642211
-0.0757000000000001,-2.9029875873230555
-0.07670000000000021,-2.900158164723325
-0.0777000000000001,-2.9086464325225156
-0.07870000000000021,-2.9029875873230555
-0.0797000000000001,-2.8987434534234597
-0.08070000000000022,-2.8987434534234597
-0.0817000000000001,-2.9044022986229203
-0.08270000000000022,-2.89025518562427
-0.08370000000000011,-2.897328742123595
-0.08470000000000022,-2.900158164723325
-0.08570000000000011,-2.88742576302454
-0.08670000000000022,-2.8916698969241352
-0.08770000000000011,-2.8987434534234597
-0.08870000000000022,-2.8831816291249446
-0.08970000000000011,-2.8860110517246746
-0.09070000000000022,-2.888840474324405
-0.09170000000000011,-2.89025518562427
-0.09270000000000023,-2.8789374952253497
-0.09370000000000012,-2.88742576302454
-0.09470000000000023,-2.8959140308237297
-0.09570000000000012,-2.8845963404248094
-0.09670000000000023,-2.8845963404248094
-0.09770000000000012,-2.8944993195238653
-0.09870000000000023,-2.8845963404248094
-0.09970000000000012,-2.8860110517246746
-0.10070000000000023,-2.893084608224
-0.10170000000000012,-2.897328742123595
-0.10270000000000024,-2.8831816291249446
-0.10370000000000013,-2.8944993195238653
-0.10470000000000024,-2.897328742123595
-0.10570000000000013,-2.8959140308237297
-0.10670000000000024,-2.888840474324405
-0.10770000000000013,-2.9058170099227856
-0.10870000000000024,-2.897328742123595
-0.10970000000000013,-2.8916698969241352
-0.11070000000000024,-2.9058170099227856
-0.11170000000000013,-2.9058170099227856
-0.11270000000000002,-2.8987434534234597
-0.11370000000000013,-2.91289056642211
-0.11470000000000002,-2.91289056642211
-0.11570000000000014,-2.9114758551222453
-0.11670000000000003,-2.91571998902184
-0.11770000000000014,-2.9185494116215707
-0.11870000000000003,-2.9213788342213007
-0.11970000000000014,-2.925622968120896
-0.12070000000000003,-2.9298671020204905
-0.12170000000000014,-2.9341112359200863
-0.12270000000000003,-2.927037679420761
-0.12370000000000014,-2.9440142150191413
-0.12470000000000003,-2.945428926319006
-0.12570000000000014,-2.942599503719276
-0.12670000000000003,-2.9510877715184667
-0.12770000000000015,-2.9624054619173865
-0.12870000000000004,-2.9581613280177916
-0.12970000000000015,-2.965234884517117
-0.13070000000000004,-2.970893729716577
-0.13170000000000015,-2.9793819975157674
-0.13270000000000004,-2.972308441016442
-0.13370000000000015,-2.989284976614823
-0.13470000000000004,-2.997773244414013
-0.13570000000000015,-2.994943821814283
-0.13670000000000004,-3.003432089613473
-0.13770000000000016,-3.0161644913122583
-0.13870000000000005,-3.0147497800123935
-0.13970000000000016,-3.021823336511718
-0.14070000000000005,-3.0402145834099636
-0.14170000000000016,-3.047288139909289
-0.14270000000000005,-3.047288139909289
-0.14370000000000016,-3.0600205416080746
-0.14470000000000005,-3.0713382320069944
-0.14570000000000016,-3.0685088094072643
-0.14670000000000005,-3.076997077206455
-0.14770000000000016,-3.10104716930416
-0.14870000000000005,-3.0982177467044303
-0.14970000000000017,-3.1067060145036205
-0.15070000000000006,-3.1279266840015962
-0.15170000000000017,-3.1364149518007864
-0.15270000000000006,-3.135000240500921
-0.15370000000000017,-3.156220909998897
-0.15470000000000006,-3.168953311697682
-0.15570000000000017,-3.1731974455972773
-0.15670000000000006,-3.1831004246963324
-0.15770000000000017,-3.207150516794038
-0.15870000000000006,-3.208565228093903
-0.15970000000000018,-3.2212976297926885
-0.16070000000000007,-3.243933010590529
-0.16170000000000018,-3.2623242574887747
-0.16270000000000007,-3.2665683913883696
-0.16370000000000018,-3.2934479060858055
-0.16470000000000007,-3.316083286883646
-0.16570000000000018,-3.316083286883646
-0.16670000000000007,-3.3373039563816214
-0.16770000000000018,-3.358524625879597
-0.16870000000000007,-3.368427604978652
-0.16970000000000018,-3.382574717977303
-0.17070000000000007,-3.408039521374873
-0.17170000000000019,-3.4292601908728493
-0.17270000000000008,-3.434919036072309
-0.1737000000000002,-3.4632132620696097
-0.17470000000000008,-3.4886780654671803
-0.1757000000000002,-3.5014104671659654
-0.17670000000000008,-3.522631136663941
-0.1777000000000002,-3.557998919160567
-0.17870000000000008,-3.5636577643600273
-0.1797000000000002,-3.591951990357328
-0.18070000000000008,-3.6244903502542236
-0.1817000000000002,-3.6485404423519294
-0.18270000000000008,-3.6683464005500404
-0.1837000000000002,-3.699470049147071
-0.1847000000000001,-3.730593697744102
-0.1857000000000002,-3.7503996559422124
-0.1867000000000001,-3.7772791706396474
-0.1877000000000002,-3.818305798335734
-0.1887000000000001,-3.835282333934114
-0.1897000000000002,-3.869235405130875
-0.1907000000000001,-3.9116767441268263
-0.1917000000000001,-3.945629815323587
-0.19269999999999998,-3.971094618721158
-0.1937000000000001,-4.01070653511738
-0.19469999999999998,-4.051733162813465
-0.1957000000000001,-4.080027388810766
-0.19669999999999999,-4.116809882607257
-0.1977000000000001,-4.163495355502803
-0.1987,-4.197448426699564
-0.1997000000000001,-4.23281620919619
-0.2007,-4.280916393391601
-0.2017000000000001,-4.3332607114866075
-0.2027,-4.367213782683368
-0.2037000000000001,-4.420972812078239
-0.2047,-4.463414151074191
-0.2057000000000001,-4.508684912669872
-0.2067,-4.562443942064744
-0.2077000000000001,-4.61478826015975
-0.2087,-4.658644310455566
-0.2097000000000001,-4.710988628550572
-0.2107,-4.766162369245309
-0.2117000000000001,-4.82840966643937
-0.2127,-4.870851005435322
-0.2137000000000001,-4.938757147828842
-0.2147,-5.00807800152223
-0.2157000000000001,-5.080228277815347
-0.2167,-5.132572595910353
-0.21770000000000012,-5.2061375835033346
-0.2187,-5.258481901598341
-0.21970000000000012,-5.323558621392133
-0.2207,-5.397123608985115
-0.22170000000000012,-5.466444462678503
-0.2227,-5.531521182472294
-0.22370000000000012,-5.610745015264735
-0.2247,-5.688554136757313
-0.22570000000000012,-5.760704413050429
-0.2267,-5.838513534543006
-0.22770000000000012,-5.926225635134639
-0.22870000000000001,-6.004034756627216
-0.22970000000000013,-6.081843878119792
-0.23070000000000002,-6.178044246510615
-0.23170000000000013,-6.265756347102247
-0.23270000000000002,-6.34780960249442
-0.23370000000000013,-6.449668816084703
-0.23470000000000002,-6.554357452274714
-0.23570000000000013,-6.637825418966753
-0.23670000000000002,-6.738269921257169
-0.2376999999999999,-6.851446825246373
-0.23870000000000002,-6.950476616236925
-0.2396999999999999,-7.049506407227478
-0.24070000000000003,-7.166927445116276
-0.24169999999999991,-7.28293377170521
-0.24270000000000003,-7.383378273995626
-0.24369999999999992,-7.50504344578402
-0.24470000000000003,-7.6337821740717375
-0.24569999999999992,-7.744129655461211
-0.24670000000000003,-7.868624249849334
-0.24769999999999992,-8.003021823336512
-0.24870000000000003,-8.12610170642477
-0.24969999999999992,-8.247766878213163
-0.25070000000000003,-8.389238008199667
-0.2516999999999999,-8.532123849486036
-0.25270000000000004,-8.655203732574295
-0.2536999999999999,-8.803748419060124
-0.25470000000000004,-8.950878394246088
-0.2556999999999999,-9.086690679033131
-0.25670000000000004,-9.23806478811869
-0.25769999999999993,-9.421977257101144
-0.25870000000000004,-9.557789541888187
-0.25969999999999993,-9.717651918772937
-0.26070000000000004,-9.881758429557282
-0.26169999999999993,-10.04727965164149
-0.26270000000000004,-10.207142028526238
-0.26369999999999993,-10.37832209580991
-0.26470000000000005,-10.565063987392096
-0.26569999999999994,-10.73765876597563
-0.26670000000000005,-10.925815368857677
-0.26769999999999994,-11.12528966213865
-0.26870000000000005,-11.297884440722184
-0.26969999999999994,-11.486041043604232
-0.27070000000000005,-11.699662449883853
-0.27169999999999994,-11.897722031864959
-0.27270000000000005,-12.084463923447142
-0.27369999999999994,-12.298085329726765
-0.27470000000000006,-12.511706736006385
-0.27569999999999995,-12.716839874486816
-0.27670000000000006,-12.92621714686684
-0.27769999999999995,-13.158229800044706
-0.27870000000000006,-13.371851206324326
-0.27969999999999995,-13.602449148202329
-0.28070000000000006,-13.835876512680057
-0.28169999999999995,-14.073548011057385
-0.28270000000000006,-14.288584128636872
-0.28369999999999995,-14.543232162612577
-0.28470000000000006,-14.797880196588284
-0.28569999999999995,-15.03838111756534
-0.28670000000000007,-15.293029151541045
-0.28769999999999996,-15.561824298515406
-0.28870000000000007,-15.816472332491113
-0.28969999999999996,-16.071120366466815
-0.29070000000000007,-16.354062626439823
-0.29169999999999996,-16.637004886412832
-0.29270000000000007,-16.891652920388537
-0.29369999999999996,-17.174595180361546
-0.2947000000000001,-17.4433903273359
-0.29569999999999996,-17.72633258730891
-0.2967000000000001,-18.02342196028057
-0.29769999999999996,-18.334658446250877
-0.2987000000000001,-18.631747819222536
-0.29969999999999997,-18.92883719219419
-0.3007000000000001,-19.25422079116315
-0.30169999999999997,-19.565457277133458
-0.3027000000000001,-19.876693763103766
-0.30369999999999997,-20.202077362072725
-0.3047000000000001,-20.541608074040333
-0.30569999999999997,-20.86699167300929
-0.3067000000000001,-21.19237527197825
-0.3077,-21.560200209943158
-0.3087000000000001,-21.885583808912116
-0.3097,-22.239261633878378
-0.3107000000000001,-22.607086571843286
-0.3117,-22.974911509808198
-0.3127000000000001,-23.328589334774456
-0.3137,-23.710561385738018
-0.3147000000000001,-24.092533436701576
-0.3157,-24.460358374666487
-0.3167000000000001,-24.842330425630045
-0.3177,-25.238449589592253
-0.3187000000000001,-25.620421640555815
-0.3197,-26.016540804518023
-0.3207000000000001,-26.426807081478888
-0.3217,-26.837073358439746
-0.3227000000000001,-27.233192522401957
-0.3237,-27.65760591236147
-0.3247000000000001,-28.082019302320973
-0.3257,-28.49228557928184
-0.3267000000000001,-28.93084608224
-0.3277,-29.369406585198163
-0.3287000000000001,-29.80796708815632
-0.3297,-30.246527591114486
-0.3307000000000001,-30.71338232006995
-0.3317,-31.151942823028104
-0.3327000000000001,-31.604650438984915
-0.3337,-32.07150516794038
-0.3347000000000001,-32.56665412289314
-0.3357,-33.01936173884996
-0.3367000000000001,-33.50036358080407
-0.3377,-34.00965964875548
-0.3387000000000001,-34.47651437771095
-0.3397,-34.9716633326637
-0.3407000000000001,-35.48095940061512
-0.3417,-35.99025546856653
-0.3427000000000001,-36.48540442351929
-0.3437,-36.99470049147071
-0.3447000000000001,-37.53229078541942
-0.3457,-38.04158685337084
-0.3467000000000001,-38.5650300343209
-0.3477,-39.116767441268266
-0.3487000000000001,-39.62606350921968
-0.3497,-40.163653803168394
-0.3507000000000001,-40.729538323114404
-0.3517,-41.267128617063115
-0.3527000000000001,-41.83301313700913
-0.3537,-42.39889765695515
-0.3547000000000001,-42.96478217690117
-0.3557,-43.53066669684718
-0.35670000000000013,-44.110698329791845
-0.3577,-44.704877075735155
-0.35870000000000013,-45.29905582167847
-0.3597,-45.87908745462314
-0.36070000000000013,-46.501560426563756
-0.3617,-47.095739172507066
-0.3626999999999999,-47.689917918450384
-0.3637,-48.312390890391
-0.3646999999999999,-48.93486386233162
-0.3657,-49.543189721273585
-0.3666999999999999,-50.179809806212845
-0.3677,-50.81642989115212
-0.3686999999999999,-51.453049976091386
-0.36970000000000003,-52.08967006103065
-0.3706999999999999,-52.74043725896857
-0.37170000000000003,-53.39120445690648
-0.3726999999999999,-54.0419716548444
-0.37370000000000003,-54.70688596578097
-0.3746999999999999,-55.385947389716186
-0.37570000000000003,-56.05086170065276
-0.3766999999999999,-56.71577601158933
-0.37770000000000004,-57.423131661521836
-0.3786999999999999,-58.10219308545706
-0.37970000000000004,-58.79540162239092
-0.3806999999999999,-59.4886101593248
-0.38170000000000004,-60.19596580925731
-0.38269999999999993,-60.889174346191176
-0.38370000000000004,-61.5965299961237
-0.38469999999999993,-62.30388564605621
-0.38570000000000004,-63.02538840898739
-0.38669999999999993,-62.544386567033264
-0.38570000000000004,-61.17211660616418
-0.38469999999999993,-60.11108313126541
-0.38370000000000004,-59.16322656035583
-0.38269999999999993,-58.30025266743816
-0.38170000000000004,-57.43727877452049
-0.3806999999999999,-56.58845199460147
-0.37970000000000004,-55.7537723276811
-0.3786999999999999,-54.961533999756675
-0.37770000000000004,-54.14100144583495
-0.3766999999999999,-53.33461600491189
-0.37570000000000003,-52.57067190298476
-0.3746999999999999,-51.77843357506035
-0.37370000000000003,-51.014489473133224
-0.3726999999999999,-50.26469248420475
-0.37170000000000003,-49.514895495276285
-0.3706999999999999,-48.75095139334916
-0.36970000000000003,-48.01530151741934
-0.3686999999999999,-47.27965164148953
-0.3677,-46.558148878558356
-0.3666999999999999,-45.83664611562718
-0.3657,-45.12929046569467
-0.3646999999999999,-44.4077877027635
-0.3637,-43.71457916582963
-0.3626999999999999,-43.04966485489307
-0.3617,-42.37060343095784
-0.36070000000000013,-41.677394894023976
-0.3597,-41.02662769608606
-0.35870000000000013,-40.36171338514949
-0.3577,-39.71094618721158
-0.35670000000000013,-39.074326102272316
-0.3557,-38.4518531303317
-0.3547000000000001,-37.81523304539243
-0.3537,-37.178612960453165
-0.3527000000000001,-36.584434214509855
-0.3517,-35.97610835556789
-0.3507000000000001,-35.367782496625914
-0.3497,-34.773603750682604
-0.3487000000000001,-34.193572117737936
-0.3477,-33.59939337179462
-0.3467000000000001,-33.01936173884996
-0.3457,-32.4676243319026
-0.3447000000000001,-31.887592698957924
-0.3437,-31.335855292010564
-0.3427000000000001,-30.79826499806185
-0.3417,-30.260674704113132
-0.3407000000000001,-29.708937297165768
-0.3397,-29.171347003217054
-0.3387000000000001,-28.662050935265643
-0.3377,-28.13860775431558
-0.3367000000000001,-27.62931168636417
-0.3357,-27.134162731411404
-0.3347000000000001,-26.62486666345999
-0.3337,-26.129717708507226
-0.3327000000000001,-25.648715866553115
-0.3317,-25.18186113759765
-0.3307000000000001,-24.686712182644893
-0.3297,-24.23400456668808
-0.3287000000000001,-23.781296950731264
-0.3277,-23.314442221775803
-0.3267000000000001,-22.87588171881764
-0.3257,-22.451468328858134
-0.3247000000000001,-22.012907825899973
-0.3237,-21.560200209943158
-0.3227000000000001,-21.13578681998365
-0.3217,-20.72552054302279
-0.3207000000000001,-20.286960040064624
-0.3197,-19.890840876102416
-0.3187000000000001,-19.49472171214021
-0.3177,-19.084455435179343
-0.3167000000000001,-18.688336271217132
-0.3157,-18.320511333252224
-0.3147000000000001,-17.938539282288666
-0.3137,-17.556567231325104
-0.3127000000000001,-17.20288940635885
-0.3117,-16.849211581392588
-0.3107000000000001,-16.481386643427676
-0.3097,-16.127708818461418
-0.3087000000000001,-15.78817810649381
-0.3077,-15.4203531685289
-0.3067000000000001,-15.080822456561293
-0.30569999999999997,-14.755438857592333
-0.3047000000000001,-14.415908145624723
-0.30369999999999997,-14.090524546655764
-0.3027000000000001,-13.779288060685458
-0.30169999999999997,-13.46522215211542
-0.3007000000000001,-13.139838553146461
-0.29969999999999997,-12.837090334975343
-0.2987000000000001,-12.545659807203146
-0.29769999999999996,-12.237252743832567
-0.2967000000000001,-11.93450452566145
-0.29569999999999996,-11.665709378687092
-0.2947000000000001,-11.37569356221476
-0.29369999999999996,-11.089921879642024
-0.29270000000000007,-10.816882598768071
-0.29169999999999996,-10.553746296993173
-0.29070000000000007,-10.2693893257203
-0.28969999999999996,-10.014741291744594
-0.28870000000000007,-9.760093257768888
-0.28769999999999996,-9.498371667293856
-0.28670000000000007,-9.24089421071842
-0.28569999999999995,-9.011710980140284
-0.28470000000000006,-8.761307080064174
-0.28369999999999995,-8.517976736487388
-0.28270000000000006,-8.30011119630817
-0.28169999999999995,-8.070927965730034
-0.28070000000000006,-7.829012333453114
-0.27969999999999995,-7.618220349773223
-0.27870000000000006,-7.400354809594007
-0.27769999999999995,-7.176830424215332
-0.27670000000000006,-6.963209017935711
-0.27569999999999995,-6.7693935698542
-0.27470000000000006,-6.557186874874445
-0.27369999999999994,-6.3548831589937445
-0.27270000000000005,-6.163897133511965
-0.27169999999999994,-5.975740530629915
-0.27070000000000005,-5.776266237348945
-0.26969999999999994,-5.59518319096622
-0.26870000000000005,-5.421173701082821
-0.26769999999999994,-5.228772964301175
-0.26670000000000005,-5.046275206618586
