Potential V vs RHE, Current mA cm-2
0.013299999999999867,32.892037721862096
0.012299999999999978,31.010471693041605
0.011299999999999866,29.128905664221104
0.010299999999999976,27.134162731411404
0.009299999999999864,25.167714024599
0.008299999999999974,23.328589334774456
0.007299999999999862,21.63093577493641
0.006299999999999972,20.01816489309027
0.00529999999999986,18.40539401124413
0.0042999999999999705,16.622857773414182
0.0032999999999998586,14.783733083589633
0.0022999999999999687,12.995538000560227
0.0012999999999998568,11.33891106841827
0.00029999999999996696,9.811022864564029
-0.000700000000000145,8.328405422305472
-0.0017000000000000348,6.75807587945528
-0.0027000000000001467,5.101448947313322
-0.0037000000000000366,3.355695203279867
-0.0047000000000001485,1.7429243214337253
-0.005700000000000038,0.2594580523952477
-0.00670000000000015,-1.1798692240874404
-0.00770000000000004,-2.576189277054232
-0.008700000000000152,-4.0588067193127895
-0.009700000000000042,-5.672992312458796
-0.010700000000000154,-7.28576319430494
-0.011700000000000044,-8.812236686859313
-0.012700000000000156,-10.208556739826104
-0.013700000000000045,-11.517164692201263
-0.014700000000000157,-12.913484745168056
-0.015700000000000047,-14.345172580631472
-0.01670000000000016,-15.91550212348166
-0.01770000000000005,-17.40094898833995
-0.01870000000000016,-18.80151317520634
-0.01970000000000005,-20.10304757108217
-0.020700000000000163,-21.333846401964752
-0.021700000000000053,-22.67782213683654
-0.022700000000000164,-24.120827662698876
-0.023700000000000054,-25.60627452755716
-0.024700000000000166,-27.049280053419505
-0.025700000000000056,-28.308373110299385
-0.026700000000000168,-29.525024828183312
-0.027700000000000058,-30.71338232006995
-0.02870000000000017,-32.01491671594578
-0.02970000000000006,-33.45792224180811
-0.03070000000000017,-34.85848642867451
-0.03170000000000006,-36.16002082455034
-0.03270000000000017,-37.376672542434264
-0.03370000000000006,-38.522588695324956
-0.034700000000000175,-39.654357735216976
-0.035700000000000065,-40.95589213109281
-0.03670000000000018,-42.31401497896325
-0.03770000000000007,-43.61554937483908
-0.03870000000000018,-44.84634820572166
-0.03970000000000007,-45.93567590661774
-0.04070000000000018,-47.02500360751382
-0.04170000000000007,-48.1992139864018
-0.04270000000000018,-49.458307043281685
-0.04370000000000007,-50.81642989115212
-0.044700000000000184,-52.033081609036046
-0.045700000000000074,-53.16485064892808
-0.046700000000000186,-54.16929567183226
-0.047700000000000076,-55.21618203373238
-0.04870000000000019,-56.44698086461496
-0.04970000000000008,-57.66363258249889
-0.05070000000000019,-58.92272563937878
-0.05170000000000008,-60.11108313126541
-0.05270000000000019,-61.15796949316553
-0.05370000000000008,-62.11997317707376
-0.05470000000000019,-63.15271242597524
-0.05570000000000008,-64.29862857886593
-0.056700000000000195,-65.5577216357458
-0.057700000000000085,-66.77437335362974
-0.058700000000000196,-67.86370105452582
-0.059700000000000086,-68.86814607742998
-0.0607000000000002,-69.8301497613382
-0.06170000000000009,-70.87703612323833
-0.0627000000000002,-72.05124650212633
-0.06370000000000009,-73.2820453330089
-0.0647000000000002,-74.37137303390499
-0.06570000000000009,-75.4182593958051
-0.0667000000000002,-76.33782174071737
-0.0677000000000001,-77.28567831162695
-0.0687000000000002,-78.33256467352709
-0.0697000000000001,-79.47848082641775
-0.07070000000000021,-80.61024986630979
-0.0717000000000001,-81.69957756720586
-0.07270000000000021,-82.6615812511141
-0.0737000000000001,-83.52455514403178
-0.07470000000000021,-84.44411748894404
-0.0757000000000001,-85.53344518984011
-0.07670000000000021,-86.6227728907362
-0.0777000000000001,-87.75454193062824
-0.07870000000000021,-88.7589869535324
-0.0797000000000001,-89.67854929844468
-0.08070000000000022,-90.59811164335694
-0.0817000000000001,-91.56011532726518
-0.08270000000000022,-92.6070016891653
-0.08370000000000011,-93.73877072905732
-0.08470000000000022,-94.87053976894937
-0.08570000000000011,-95.79010211386164
-0.08670000000000022,-96.61063466778336
-0.08770000000000011,-97.4877556736997
-0.08870000000000022,-98.4497593576079
-0.08970000000000011,-99.53908705850398
-0.09070000000000022,-100.62841475940007
-0.09170000000000011,-101.63285978230424
-0.09270000000000023,-102.4958336752219
-0.09370000000000012,-103.37295468113824
-0.09470000000000023,-104.25007568705455
-0.09570000000000012,-105.25452070995874
-0.09670000000000023,-106.30140707185885
-0.09770000000000012,-107.30585209476303
-0.09870000000000023,-108.2537086656726
-0.09970000000000012,-109.17327101058488
-0.10070000000000023,-110.00795067750525
-0.10170000000000012,-110.96995436141347
-0.10270000000000024,-112.05928206230955
-0.10370000000000013,-113.19105110220158
-0.10470000000000024,-114.23793746410173
-0.10570000000000013,-115.10091135701937
-0.10670000000000024,-115.8931496849438
-0.10770000000000013,-116.72782935186417
-0.10870000000000024,-117.67568592277377
-0.10970000000000013,-118.72257228467387
-0.11070000000000024,-119.72701730757805
-0.11170000000000013,-120.64657965249035
-0.11270000000000002,-121.48125931941068
-0.11370000000000013,-122.21690919534053
-0.11470000000000002,-123.05158886226087
-0.11570000000000014,-124.05603388516508
-0.11670000000000003,-125.10292024706521
-0.11770000000000014,-126.14980660896532
-0.11870000000000003,-127.05522184087894
-0.11970000000000014,-127.84746016880335
-0.12070000000000003,-128.66799272272507
-0.12170000000000014,-129.5451137286414
-0.12270000000000003,-130.5495587515456
-0.12370000000000014,-131.5964451134457
-0.12470000000000003,-132.60089013634988
-0.12570000000000014,-133.4214226902716
-0.12670000000000003,-134.17121967920008
-0.12770000000000015,-134.9917522331218
-0.12870000000000004,-135.86887323903812
-0.12970000000000015,-136.8733182619423
-0.13070000000000004,-137.87776328484648
-0.13170000000000015,-138.8397669687547
-0.13270000000000004,-139.6602995226764
-0.13370000000000015,-140.36765517260895
-0.13470000000000004,-141.18818772653066
-0.13570000000000015,-142.17848563643616
-0.13670000000000004,-143.16878354634173
-0.13770000000000016,-144.15908145624724
-0.13870000000000005,-145.00790823616626
-0.13970000000000016,-145.85673501608528
-0.14070000000000005,-146.7055617960043
-0.14170000000000016,-147.55438857592333
-0.14270000000000005,-148.54468648582886
-0.14370000000000016,-149.8179266557074
-0.14470000000000005,-150.94969569559944
-0.14570000000000016,-151.65705134553193
-0.14670000000000005,-152.36440699546444
-0.14770000000000016,-153.07176264539694
-0.14870000000000005,-153.920589425316
-0.14970000000000017,-154.9108873352215
-0.15070000000000006,-155.75971411514055
-0.15170000000000017,-156.60854089505958
-0.15270000000000006,-157.17442541500557
-0.15370000000000017,-157.88178106493808
-0.15470000000000006,-158.5891367148706
-0.15570000000000017,-159.43796349478964
-0.15670000000000006,-160.28679027470866
-0.15770000000000017,-161.2770881846142
-0.15870000000000006,-161.9844438345467
-0.15970000000000018,-162.5503283544927
-0.16070000000000007,-163.25768400442522
-0.16170000000000018,-164.10651078434424
-0.16270000000000007,-164.9553375642633
-0.16370000000000018,-165.94563547416882
-0.16470000000000007,-166.93593338407433
-0.16570000000000018,-167.78476016399335
-0.16670000000000007,-168.49211581392586
-0.16770000000000018,-169.19947146385837
-0.16870000000000007,-170.0482982437774
-0.16970000000000018,-171.03859615368293
-0.17070000000000007,-172.0288940635885
-0.17170000000000019,-172.87772084350746
-0.17270000000000008,-173.72654762342648
-0.1737000000000002,-174.43390327335902
-0.17470000000000008,-175.14125892329156
-0.1757000000000002,-175.99008570321055
-0.17670000000000008,-176.98038361311612
-0.1777000000000002,-177.9706815230216
-0.17870000000000008,-178.81950830294062
-0.1797000000000002,-179.66833508285964
-0.18070000000000008,-180.37569073279218
-0.1817000000000002,-181.2245175127112
-0.18270000000000008,-182.21481542261674
-0.1837000000000002,-183.20511333252225
-0.1847000000000001,-184.19541124242778
-0.1857000000000002,-185.0442380223468
-0.1867000000000001,-185.89306480226583
-0.1877000000000002,-186.60042045219836
-0.1887000000000001,-187.44924723211736
-0.1897000000000002,-188.58101627200938
-0.1907000000000001,-189.57131418191491
-0.1917000000000001,-190.42014096183394
-0.19269999999999998,-191.12749661176645
-0.1937000000000001,-191.83485226169896
-0.19469999999999998,-192.683679041618
-0.1957000000000001,-193.6739769515235
-0.19669999999999999,-194.66427486142905
-0.1977000000000001,-195.51310164134807
-0.1987,-196.3619284212671
-0.1997000000000001,-197.0692840711996
-0.2007,-197.77663972113214
-0.2017000000000001,-198.48399537106465
-0.2027,-199.33282215098367
-0.2037000000000001,-200.3231200608892
-0.2047,-201.17194684080823
-0.2057000000000001,-202.02077362072723
-0.2067,-202.7281292706598
-0.2077000000000001,-203.43548492059227
-0.2087,-204.2843117005113
-0.2097000000000001,-205.27460961041683
-0.2107,-206.12343639033585
-0.2117000000000001,-207.1137343002414
-0.2127,-207.8210899501739
-0.2137000000000001,-208.52844560010638
-0.2147,-209.23580125003892
-0.2157000000000001,-210.08462802995794
-0.2167,-211.07492593986345
-0.21770000000000012,-211.9237527197825
-0.2187,-212.77257949970152
-0.21970000000000012,-213.47993514963403
-0.2207,-214.18729079956654
-0.22170000000000012,-214.89464644949908
-0.2227,-215.7434732294181
-0.22370000000000012,-216.73377113932364
-0.2247,-217.58259791924263
-0.22570000000000012,-218.28995356917517
-0.2267,-218.99730921910768
-0.22770000000000012,-219.7046648690402
-0.22870000000000001,-220.5534916489592
-0.22970000000000013,-221.40231842887826
-0.23070000000000002,-222.3926163387838
-0.23170000000000013,-223.2414431187028
-0.23270000000000002,-223.9487987686353
-0.23370000000000013,-224.65615441856778
-0.23470000000000002,-225.36351006850035
-0.23570000000000013,-226.35380797840588
-0.23670000000000002,-227.4855770182979
-0.2376999999999999,-228.33440379821695
-0.23870000000000002,-229.18323057813595
-0.2396999999999999,-229.89058622806846
-0.24070000000000003,-230.59794187800094
-0.24169999999999991,-231.44676865792
-0.24270000000000003,-232.29559543783904
-0.24369999999999992,-233.28589334774458
-0.24470000000000003,-233.99324899767706
-0.24569999999999992,-234.7006046476096
-0.24670000000000003,-235.26648916755556
-0.24769999999999992,-235.83237368750162
-0.24870000000000003,-236.53972933743412
-0.24969999999999992,-237.38855611735315
-0.25070000000000003,-238.2373828972722
-0.2516999999999999,-239.0862096771912
-0.25270000000000004,-239.7935653271237
-0.2536999999999999,-240.35944984706975
-0.25470000000000004,-241.06680549700224
-0.2556999999999999,-242.05710340690777
-0.25670000000000004,-242.90593018682682
-0.25769999999999993,-243.6132858367593
-0.25870000000000004,-244.46211261667833
-0.25969999999999993,-245.02799713662432
-0.26070000000000004,-245.73535278655686
-0.26169999999999993,-246.5841795664759
-0.26270000000000004,-247.4330063463949
-0.26369999999999993,-248.42330425630044
-0.26470000000000005,-249.2721310362195
-0.26569999999999994,-250.1209578161385
-0.26670000000000005,-251.111255726044
-0.26769999999999994,-251.81861137597656
-0.26870000000000005,-252.52596702590907
-0.26969999999999994,-253.51626493581452
-0.27070000000000005,-254.64803397570657
-0.27169999999999994,-255.49686075562562
-0.27270000000000005,-256.20421640555816
-0.27369999999999994,-256.77010092550415
-0.27470000000000006,-257.4774565754367
-0.27569999999999995,-258.32628335535566
-0.27670000000000006,-259.0336390052882
-0.27769999999999995,-259.8824657852072
-0.27870000000000006,-260.58982143513975
-0.27969999999999995,-261.2971770850723
-0.28070000000000006,-262.0045327350048
-0.28169999999999995,-262.8533595149238
-0.28270000000000006,-263.56071516485633
-0.28369999999999995,-264.40954194477536
-0.28470000000000006,-265.11689759470784
-0.28569999999999995,-265.6827821146539
-0.28670000000000007,-266.3901377645864
-0.28769999999999996,-266.9560222845325
-0.28870000000000007,-267.6633779344649
-0.28969999999999996,-268.512204714384
-0.29070000000000007,-269.361031494303
-0.29169999999999996,-270.0683871442355
-0.29270000000000007,-270.63427166418154
-0.29369999999999996,-271.20015618412754
-0.2947000000000001,-271.7660407040736
-0.29569999999999996,-272.47339635400607
-0.2967000000000001,-273.1807520039386
-0.29769999999999996,-274.0295787838576
-0.2987000000000001,-274.7369344337901
-0.29969999999999997,-275.30281895373616
-0.3007000000000001,-276.01017460366864
-0.30169999999999997,-276.7175302536012
-0.3027000000000001,-277.7078281635067
-0.30369999999999997,-278.4151838134392
-0.3047000000000001,-279.26401059335825
-0.30569999999999997,-279.97136624329073
-0.3067000000000001,-280.67872189322327
-0.3077,-281.24460641316927
-0.3087000000000001,-281.9519620631018
-0.3097,-282.8007888430208
-0.3107000000000001,-283.79108675292633
-0.3117,-284.63991353284536
-0.3127000000000001,-285.4887403127644
-0.3137,-286.196095962697
-0.3147000000000001,-286.76198048264297
-0.3157,-287.7522783925485
-0.3167000000000001,-288.45963404248096
-0.3177,-289.1669896924135
-0.3187000000000001,-289.73287421235955
-0.3197,-290.157287602319
-0.3207000000000001,-290.723172122265
-0.3217,-291.4305277721976
-0.3227000000000001,-292.1378834221301
-0.3237,-293.1281813320356
-0.3247000000000001,-293.8355369819681
-0.3257,-294.54289263190066
-0.3267000000000001,-295.10877715184665
-0.3277,-295.67466167179265
-0.3287000000000001,-296.3820173217252
-0.3297,-297.0893729716577
-0.3307000000000001,-298.07967088156323
-0.3317,-298.9284976614822
-0.3327000000000001,-299.49438218142825
-0.3337,-300.06026670137425
-0.3347000000000001,-300.76762235130684
-0.3357,-301.6164491312258
-0.3367000000000001,-302.4652759111449
-0.3377,-303.31410269106385
-0.3387000000000001,-304.0214583409964
-0.3397,-304.5873428609424
-0.3407000000000001,-305.0117562509019
-0.3417,-305.71911190083443
-0.3427000000000001,-306.56793868075346
-0.3437,-307.4167654606725
-0.3447000000000001,-308.124121110605
-0.3457,-308.8314767605375
-0.3467000000000001,-309.3973612804835
-0.3477,-310.10471693041603
-0.3487000000000001,-310.95354371033505
-0.3497,-311.80237049025413
-0.3507000000000001,-312.79266840015964
-0.3517,-313.5000240500921
-0.3527000000000001,-314.0659085700381
-0.3537,-314.77326421997066
-0.3547000000000001,-315.3391487399167
-0.3557,-316.1879755198357
-0.35670000000000013,-317.03680229975475
-0.3577,-317.8856290796738
-0.35870000000000013,-318.4515135996198
-0.3597,-319.01739811956577
-0.36070000000000013,-319.8662248994848
-0.3617,-320.71505167940376
-0.3626999999999999,-321.7053495893094
-0.3637,-322.83711862920137
-0.3646999999999999,-323.68594540912045
-0.3657,-324.3933010590529
-0.3666999999999999,-325.1006567089854
-0.3677,-325.80801235891795
-0.3686999999999999,-326.656839138837
-0.36970000000000003,-327.6471370487425
-0.3706999999999999,-328.4959638286615
-0.37170000000000003,-329.3447906085805
-0.3726999999999999,-330.05214625851306
-0.37370000000000003,-330.7595019084456
-0.3746999999999999,-331.6083286883646
-0.37570000000000003,-332.45715546828364
-0.3766999999999999,-333.44745337818915
-0.37770000000000004,-334.43775128809466
-0.3786999999999999,-335.00363580804066
-0.37970000000000004,-335.5695203279867
-0.3806999999999999,-336.1354048479327
-0.38170000000000004,-336.84276049786524
-0.38269999999999993,-337.69158727778427
-0.38370000000000004,-338.39894292771675
-0.38469999999999993,-339.1062985776493
-0.38570000000000004,-339.6721830975953
-0.38669999999999993,-338.96482744766274
-0.38570000000000004,-335.71099145797325
-0.38469999999999993,-332.59862659827013
-0.38370000000000004,-329.62773286855355
-0.38269999999999993,-326.656839138837
-0.38170000000000004,-323.68594540912045
-0.3806999999999999,-320.71505167940376
-0.37970000000000004,-317.60268681970075
-0.3786999999999999,-314.77326421997066
-0.37770000000000004,-312.0853127502271
-0.3766999999999999,-309.3973612804835
-0.37570000000000003,-306.99235207071297
-0.3746999999999999,-304.1629294709828
-0.37370000000000003,-301.33350687125284
-0.3726999999999999,-298.50408427152274
-0.37170000000000003,-295.8161328017792
-0.3706999999999999,-293.1281813320356
-0.36970000000000003,-290.5817009922785
-0.3686999999999999,-287.893749522535
-0.3677,-285.2057980527914
-0.3666999999999999,-282.51784658304786
-0.3657,-279.82989511330425
-0.3646999999999999,-277.1419436435607
-0.3637,-274.5954633038036
-0.3626999999999999,-272.1904540940331
-0.3617,-269.64397375427603
-0.36070000000000013,-266.9560222845325
-0.3597,-264.2680708147888
-0.35870000000000013,-261.7215904750318
-0.3577,-259.3165812652612
-0.35670000000000013,-256.77010092550415
-0.3557,-254.36509171573357
-0.3547000000000001,-251.96008250596302
-0.3537,-249.2721310362195
-0.3527000000000001,-246.7256506964624
-0.3517,-244.32064148669184
-0.3507000000000001,-241.9156322769213
-0.3497,-239.65209419713722
-0.3487000000000001,-237.38855611735315
-0.3477,-234.84207577759608
-0.3467000000000001,-232.43706656782552
-0.3457,-229.89058622806846
-0.3447000000000001,-227.62704814828442
-0.3437,-225.50498119848683
-0.3427000000000001,-223.2414431187028
-0.3417,-220.97790503891872
-0.3407000000000001,-218.57289582914817
-0.3397,-216.3093577493641
-0.3387000000000001,-213.90434853959354
-0.3377,-211.782281589796
-0.3367000000000001,-209.8016857699849
-0.3357,-207.8210899501739
-0.3347000000000001,-205.84049413036286
-0.3337,-203.29401379060576
-0.3327000000000001,-200.88900458083523
-0.3317,-198.48399537106465
-0.3307000000000001,-196.2204572912806
-0.3297,-194.09839034148303
-0.3287000000000001,-191.9763233916855
-0.3277,-189.57131418191491
-0.3267000000000001,-187.16630497214436
-0.3257,-184.9027668923603
-0.3247000000000001,-182.78069994256273
-0.3237,-180.8001041227517
-0.3227000000000001,-178.67803717295413
-0.3217,-176.55597022315658
-0.3207000000000001,-174.150961013386
-0.3197,-171.74595180361547
-0.3187000000000001,-169.48241372383137
-0.3177,-167.50181790402033
-0.3167000000000001,-165.5212220842093
-0.3157,-163.54062626439824
-0.3147000000000001,-161.41855931460069
-0.3137,-159.29649236480313
-0.3127000000000001,-157.03295428501906
-0.3117,-154.9108873352215
-0.3107000000000001,-152.93029151541046
-0.3097,-150.94969569559944
-0.3087000000000001,-149.1105710057749
-0.3077,-146.9885040559773
-0.3067000000000001,-144.86643710617977
-0.30569999999999997,-142.7443701563822
-0.3047000000000001,-140.74962722357247
-0.30369999999999997,-138.92464964674662
-0.3027000000000001,-137.04308361792607
-0.30169999999999997,-135.03419357211774
-0.3007000000000001,-132.99700930031207
-0.29969999999999997,-130.8042067855213
-0.2987000000000001,-128.8094638527116
-0.29769999999999996,-126.9278978238911
-0.2967000000000001,-125.14536158606113
-0.29569999999999996,-123.3062368962366
-0.2947000000000001,-121.33978818942418
-0.29369999999999996,-119.3450452566145
-0.29270000000000007,-117.29371387181018
-0.29169999999999996,-115.32726516499778
-0.29070000000000007,-113.53058181416918
-0.28969999999999996,-111.7904869153352
-0.28870000000000007,-109.9655093385093
-0.28769999999999996,-107.99906063169689
-0.28670000000000007,-105.99017058588855
-0.28569999999999995,-104.06616321807209
-0.28470000000000006,-102.24118564124619
-0.28369999999999995,-100.54353208140815
-0.28270000000000006,-98.7892900695755
-0.28169999999999995,-97.04919517074151
-0.28070000000000006,-95.12518780292505
-0.27969999999999995,-93.21532754810727
-0.27870000000000006,-91.33376151928677
-0.27769999999999995,-89.63610795944872
-0.27670000000000006,-87.98089573860662
-0.27569999999999995,-86.28324217876859
-0.27470000000000006,-84.48655882793999
-0.27369999999999994,-82.6615812511141
-0.27270000000000005,-80.7800152222936
-0.27169999999999994,-79.0399203234596
-0.27070000000000005,-77.38470810261751
-0.26969999999999994,-75.81437855976732
-0.26870000000000005,-74.14501922592657
-0.26769999999999994,-72.36248298809663
