Apr. 19, 2025   05:05:42
Cyclic Voltammetry
File: c:/users/guazh/data/banditlqround7_x0exp590_r20/2025-04-16-exp1124\exp1124-2025-04-19t05_00_46-arkoh\exp1124_cv_50mvs_efin_-1400mv.bin
Data Source:  Experiment
Instrument Model:  CHI760E
Header: CV ran at 50 mVs
Note: 

Init E (V) = -1
High E (V) = -1
Low E (V) = -1.4
Final E (V) = -1
Init P/N = N
Scan Rate (V/s) = 0.05
Segment = 7
Sample Interval (V) = 0.001
Quiet Time (sec) = 60
Sensitivity (A/V) = 0.001
Comp R (ohm) = 1.6

Results:

Channel 1:
Segment 1:

Segment 2:

Segment 3:

Segment 4:

Segment 5:

Segment 6:

Segment 7:

Potential/V, Current/A

-1.000, 4.670e-5
-1.001, 8.587e-5
-1.002, 9.139e-5
-1.003, 9.391e-5
-1.004, 9.955e-5
-1.005, 1.035e-4
-1.006, 1.030e-4
-1.007, 1.006e-4
-1.008, 9.987e-5
-1.009, 1.040e-4
-1.010, 1.076e-4
-1.011, 1.061e-4
-1.012, 1.041e-4
-1.013, 1.030e-4
-1.014, 1.067e-4
-1.015, 1.099e-4
-1.016, 1.082e-4
-1.017, 1.049e-4
-1.018, 1.048e-4
-1.019, 1.079e-4
-1.020, 1.112e-4
-1.021, 1.095e-4
-1.022, 1.061e-4
-1.023, 1.064e-4
-1.024, 1.093e-4
-1.025, 1.120e-4
-1.026, 1.105e-4
-1.027, 1.069e-4
-1.028, 1.066e-4
-1.029, 1.095e-4
-1.030, 1.126e-4
-1.031, 1.114e-4
-1.032, 1.075e-4
-1.033, 1.075e-4
-1.034, 1.108e-4
-1.035, 1.127e-4
-1.036, 1.118e-4
-1.037, 1.082e-4
-1.038, 1.079e-4
-1.039, 1.116e-4
-1.040, 1.131e-4
-1.041, 1.118e-4
-1.042, 1.087e-4
-1.043, 1.080e-4
-1.044, 1.121e-4
-1.045, 1.141e-4
-1.046, 1.125e-4
-1.047, 1.094e-4
-1.048, 1.087e-4
-1.049, 1.122e-4
-1.050, 1.148e-4
-1.051, 1.129e-4
-1.052, 1.097e-4
-1.053, 1.091e-4
-1.054, 1.124e-4
-1.055, 1.155e-4
-1.056, 1.135e-4
-1.057, 1.103e-4
-1.058, 1.098e-4
-1.059, 1.128e-4
-1.060, 1.159e-4
-1.061, 1.142e-4
-1.062, 1.107e-4
-1.063, 1.103e-4
-1.064, 1.133e-4
-1.065, 1.162e-4
-1.066, 1.146e-4
-1.067, 1.110e-4
-1.068, 1.111e-4
-1.069, 1.140e-4
-1.070, 1.166e-4
-1.071, 1.158e-4
-1.072, 1.114e-4
-1.073, 1.113e-4
-1.074, 1.149e-4
-1.075, 1.183e-4
-1.076, 1.165e-4
-1.077, 1.121e-4
-1.078, 1.119e-4
-1.079, 1.155e-4
-1.080, 1.173e-4
-1.081, 1.164e-4
-1.082, 1.133e-4
-1.083, 1.124e-4
-1.084, 1.164e-4
-1.085, 1.186e-4
-1.086, 1.170e-4
-1.087, 1.140e-4
-1.088, 1.133e-4
-1.089, 1.167e-4
-1.090, 1.197e-4
-1.091, 1.176e-4
-1.092, 1.150e-4
-1.093, 1.139e-4
-1.094, 1.174e-4
-1.095, 1.205e-4
-1.096, 1.181e-4
-1.097, 1.151e-4
-1.098, 1.153e-4
-1.099, 1.183e-4
-1.100, 1.214e-4
-1.101, 1.197e-4
-1.102, 1.161e-4
-1.103, 1.159e-4
-1.104, 1.189e-4
-1.105, 1.223e-4
-1.106, 1.207e-4
-1.107, 1.172e-4
-1.108, 1.170e-4
-1.109, 1.201e-4
-1.110, 1.231e-4
-1.111, 1.222e-4
-1.112, 1.179e-4
-1.113, 1.180e-4
-1.114, 1.215e-4
-1.115, 1.238e-4
-1.116, 1.224e-4
-1.117, 1.192e-4
-1.118, 1.192e-4
-1.119, 1.228e-4
-1.120, 1.253e-4
-1.121, 1.240e-4
-1.122, 1.209e-4
-1.123, 1.202e-4
-1.124, 1.239e-4
-1.125, 1.269e-4
-1.126, 1.253e-4
-1.127, 1.220e-4
-1.128, 1.213e-4
-1.129, 1.250e-4
-1.130, 1.280e-4
-1.131, 1.268e-4
-1.132, 1.236e-4
-1.133, 1.229e-4
-1.134, 1.263e-4
-1.135, 1.296e-4
-1.136, 1.278e-4
-1.137, 1.251e-4
-1.138, 1.248e-4
-1.139, 1.281e-4
-1.140, 1.313e-4
-1.141, 1.299e-4
-1.142, 1.264e-4
-1.143, 1.266e-4
-1.144, 1.296e-4
-1.145, 1.327e-4
-1.146, 1.315e-4
-1.147, 1.283e-4
-1.148, 1.286e-4
-1.149, 1.312e-4
-1.150, 1.355e-4
-1.151, 1.350e-4
-1.152, 1.300e-4
-1.153, 1.292e-4
-1.154, 1.344e-4
-1.155, 1.368e-4
-1.156, 1.354e-4
-1.157, 1.321e-4
-1.158, 1.324e-4
-1.159, 1.367e-4
-1.160, 1.390e-4
-1.161, 1.382e-4
-1.162, 1.352e-4
-1.163, 1.343e-4
-1.164, 1.386e-4
-1.165, 1.414e-4
-1.166, 1.402e-4
-1.167, 1.376e-4
-1.168, 1.371e-4
-1.169, 1.412e-4
-1.170, 1.443e-4
-1.171, 1.430e-4
-1.172, 1.407e-4
-1.173, 1.400e-4
-1.174, 1.438e-4
-1.175, 1.471e-4
-1.176, 1.459e-4
-1.177, 1.437e-4
-1.178, 1.437e-4
-1.179, 1.469e-4
-1.180, 1.507e-4
-1.181, 1.495e-4
-1.182, 1.463e-4
-1.183, 1.470e-4
-1.184, 1.502e-4
-1.185, 1.538e-4
-1.186, 1.530e-4
-1.187, 1.500e-4
-1.188, 1.506e-4
-1.189, 1.543e-4
-1.190, 1.579e-4
-1.191, 1.573e-4
-1.192, 1.542e-4
-1.193, 1.545e-4
-1.194, 1.587e-4
-1.195, 1.622e-4
-1.196, 1.613e-4
-1.197, 1.588e-4
-1.198, 1.587e-4
-1.199, 1.633e-4
-1.200, 1.664e-4
-1.201, 1.668e-4
-1.202, 1.638e-4
-1.203, 1.639e-4
-1.204, 1.684e-4
-1.205, 1.719e-4
-1.206, 1.715e-4
-1.207, 1.697e-4
-1.208, 1.696e-4
-1.209, 1.744e-4
-1.210, 1.785e-4
-1.211, 1.774e-4
-1.212, 1.756e-4
-1.213, 1.754e-4
-1.214, 1.804e-4
-1.215, 1.844e-4
-1.216, 1.840e-4
-1.217, 1.818e-4
-1.218, 1.826e-4
-1.219, 1.869e-4
-1.220, 1.916e-4
-1.221, 1.915e-4
-1.222, 1.894e-4
-1.223, 1.901e-4
-1.224, 1.946e-4
-1.225, 1.994e-4
-1.226, 1.997e-4
-1.227, 1.976e-4
-1.228, 1.997e-4
-1.229, 2.057e-4
-1.230, 2.087e-4
-1.231, 2.090e-4
-1.232, 2.076e-4
-1.233, 2.081e-4
-1.234, 2.135e-4
-1.235, 2.188e-4
-1.236, 2.194e-4
-1.237, 2.171e-4
-1.238, 2.187e-4
-1.239, 2.245e-4
-1.240, 2.295e-4
-1.241, 2.305e-4
-1.242, 2.299e-4
-1.243, 2.312e-4
-1.244, 2.367e-4
-1.245, 2.424e-4
-1.246, 2.443e-4
-1.247, 2.431e-4
-1.248, 2.444e-4
-1.249, 2.507e-4
-1.250, 2.569e-4
-1.251, 2.584e-4
-1.252, 2.582e-4
-1.253, 2.609e-4
-1.254, 2.664e-4
-1.255, 2.729e-4
-1.256, 2.747e-4
-1.257, 2.746e-4
-1.258, 2.776e-4
-1.259, 2.843e-4
-1.260, 2.918e-4
-1.261, 2.946e-4
-1.262, 2.944e-4
-1.263, 2.979e-4
-1.264, 3.046e-4
-1.265, 3.124e-4
-1.266, 3.157e-4
-1.267, 3.166e-4
-1.268, 3.207e-4
-1.269, 3.279e-4
-1.270, 3.357e-4
-1.271, 3.400e-4
-1.272, 3.416e-4
-1.273, 3.455e-4
-1.274, 3.541e-4
-1.275, 3.625e-4
-1.276, 3.678e-4
-1.277, 3.695e-4
-1.278, 3.746e-4
-1.279, 3.837e-4
-1.280, 3.937e-4
-1.281, 3.986e-4
-1.282, 4.011e-4
-1.283, 4.063e-4
-1.284, 4.175e-4
-1.285, 4.269e-4
-1.286, 4.331e-4
-1.287, 4.370e-4
-1.288, 4.437e-4
-1.289, 4.540e-4
-1.290, 4.652e-4
-1.291, 4.717e-4
-1.292, 4.772e-4
-1.293, 4.846e-4
-1.294, 4.965e-4
-1.295, 5.090e-4
-1.296, 5.167e-4
-1.297, 5.227e-4
-1.298, 5.312e-4
-1.299, 5.432e-4
-1.300, 5.576e-4
-1.301, 5.672e-4
-1.302, 5.733e-4
-1.303, 5.837e-4
-1.304, 5.978e-4
-1.305, 6.119e-4
-1.306, 6.217e-4
-1.307, 6.297e-4
-1.308, 6.410e-4
-1.309, 6.558e-4
-1.310, 6.719e-4
-1.311, 6.839e-4
-1.312, 6.938e-4
-1.313, 7.071e-4
-1.314, 7.220e-4
-1.315, 7.397e-4
-1.316, 7.541e-4
-1.317, 7.636e-4
-1.318, 7.767e-4
-1.319, 7.956e-4
-1.320, 8.141e-4
-1.321, 8.289e-4
-1.322, 8.403e-4
-1.323, 8.562e-4
-1.324, 8.769e-4
-1.325, 8.956e-4
-1.326, 9.149e-4
-1.327, 9.246e-4
-1.328, 9.413e-4
-1.329, 9.645e-4
-1.330, 9.835e-4
-1.331, 1.002e-3
-1.332, 1.020e-3
-1.333, 1.039e-3
-1.334, 1.063e-3
-1.335, 1.086e-3
-1.336, 1.104e-3
-1.337, 1.121e-3
-1.338, 1.141e-3
-1.339, 1.165e-3
-1.340, 1.191e-3
-1.341, 1.213e-3
-1.342, 1.232e-3
-1.343, 1.256e-3
-1.344, 1.281e-3
-1.345, 1.309e-3
-1.346, 1.332e-3
-1.347, 1.351e-3
-1.348, 1.375e-3
-1.349, 1.405e-3
-1.350, 1.433e-3
-1.351, 1.462e-3
-1.352, 1.484e-3
-1.353, 1.507e-3
-1.354, 1.537e-3
-1.355, 1.569e-3
-1.356, 1.595e-3
-1.357, 1.618e-3
-1.358, 1.646e-3
-1.359, 1.680e-3
-1.360, 1.711e-3
-1.361, 1.741e-3
-1.362, 1.768e-3
-1.363, 1.800e-3
-1.364, 1.834e-3
-1.365, 1.868e-3
-1.366, 1.898e-3
-1.367, 1.930e-3
-1.368, 1.961e-3
-1.369, 1.993e-3
-1.370, 2.030e-3
-1.371, 2.061e-3
-1.372, 2.094e-3
-1.373, 2.134e-3
-1.374, 2.171e-3
-1.375, 2.206e-3
-1.376, 2.238e-3
-1.377, 2.274e-3
-1.378, 2.310e-3
-1.379, 2.350e-3
-1.380, 2.391e-3
-1.381, 2.428e-3
-1.382, 2.464e-3
-1.383, 2.503e-3
-1.384, 2.545e-3
-1.385, 2.587e-3
-1.386, 2.627e-3
-1.387, 2.662e-3
-1.388, 2.703e-3
-1.389, 2.745e-3
-1.390, 2.795e-3
-1.391, 2.846e-3
-1.392, 2.885e-3
-1.393, 2.924e-3
-1.394, 2.970e-3
-1.395, 3.014e-3
-1.396, 3.052e-3
-1.397, 3.093e-3
-1.398, 3.137e-3
-1.399, 3.187e-3
-1.400, 3.132e-3
-1.399, 3.026e-3
-1.398, 2.950e-3
-1.397, 2.881e-3
-1.396, 2.818e-3
-1.395, 2.758e-3
-1.394, 2.699e-3
-1.393, 2.637e-3
-1.392, 2.581e-3
-1.391, 2.530e-3
-1.390, 2.475e-3
-1.389, 2.424e-3
-1.388, 2.365e-3
-1.387, 2.309e-3
-1.386, 2.264e-3
-1.385, 2.214e-3
-1.384, 2.172e-3
-1.383, 2.119e-3
-1.382, 2.069e-3
-1.381, 2.025e-3
-1.380, 1.983e-3
-1.379, 1.939e-3
-1.378, 1.890e-3
-1.377, 1.850e-3
-1.376, 1.812e-3
-1.375, 1.772e-3
-1.374, 1.729e-3
-1.373, 1.687e-3
-1.372, 1.647e-3
-1.371, 1.610e-3
-1.370, 1.577e-3
-1.369, 1.539e-3
-1.368, 1.501e-3
-1.367, 1.464e-3
-1.366, 1.431e-3
-1.365, 1.403e-3
-1.364, 1.369e-3
-1.363, 1.329e-3
-1.362, 1.297e-3
-1.361, 1.269e-3
-1.360, 1.240e-3
-1.359, 1.209e-3
-1.358, 1.175e-3
-1.357, 1.146e-3
-1.356, 1.119e-3
-1.355, 1.094e-3
-1.354, 1.070e-3
-1.353, 1.033e-3
-1.352, 1.007e-3
-1.351, 9.832e-4
-1.350, 9.606e-4
-1.349, 9.373e-4
-1.348, 9.097e-4
-1.347, 8.820e-4
-1.346, 8.613e-4
-1.345, 8.405e-4
-1.344, 8.186e-4
-1.343, 7.924e-4
-1.342, 7.691e-4
-1.341, 7.509e-4
-1.340, 7.328e-4
-1.339, 7.118e-4
-1.338, 6.894e-4
-1.337, 6.670e-4
-1.336, 6.501e-4
-1.335, 6.352e-4
-1.334, 6.159e-4
-1.333, 5.947e-4
-1.332, 5.750e-4
-1.331, 5.599e-4
-1.330, 5.462e-4
-1.329, 5.298e-4
-1.328, 5.104e-4
-1.327, 4.914e-4
-1.326, 4.780e-4
-1.325, 4.669e-4
-1.324, 4.509e-4
-1.323, 4.328e-4
-1.322, 4.177e-4
-1.321, 4.045e-4
-1.320, 3.944e-4
-1.319, 3.811e-4
-1.318, 3.646e-4
-1.317, 3.501e-4
-1.316, 3.388e-4
-1.315, 3.307e-4
-1.314, 3.190e-4
-1.313, 3.021e-4
-1.312, 2.899e-4
-1.311, 2.800e-4
-1.310, 2.728e-4
-1.309, 2.619e-4
-1.308, 2.477e-4
-1.307, 2.358e-4
-1.306, 2.279e-4
-1.305, 2.207e-4
-1.304, 2.114e-4
-1.303, 1.987e-4
-1.302, 1.873e-4
-1.301, 1.810e-4
-1.300, 1.751e-4
-1.299, 1.666e-4
-1.298, 1.549e-4
-1.297, 1.445e-4
-1.296, 1.390e-4
-1.295, 1.348e-4
-1.294, 1.263e-4
-1.293, 1.163e-4
-1.292, 1.071e-4
-1.291, 1.018e-4
-1.290, 9.862e-5
-1.289, 9.104e-5
-1.288, 8.186e-5
-1.287, 7.333e-5
-1.286, 6.860e-5
-1.285, 6.636e-5
-1.284, 6.037e-5
-1.283, 5.125e-5
-1.282, 4.353e-5
-1.281, 3.958e-5
-1.280, 3.750e-5
-1.279, 3.260e-5
-1.278, 2.365e-5
-1.277, 1.759e-5
-1.276, 1.432e-5
-1.275, 1.286e-5
-1.274, 8.704e-6
-1.273, 3.007e-7
-1.272, -5.628e-6
-1.271, -8.000e-6
-1.270, -9.286e-6
-1.269, -1.276e-5
-1.268, -2.026e-5
-1.267, -2.625e-5
-1.266, -2.790e-5
-1.265, -2.839e-5
-1.264, -3.144e-5
-1.263, -3.824e-5
-1.262, -4.400e-5
-1.261, -4.482e-5
-1.260, -4.486e-5
-1.259, -4.777e-5
-1.258, -5.378e-5
-1.257, -5.944e-5
-1.256, -5.992e-5
-1.255, -5.930e-5
-1.254, -6.196e-5
-1.253, -6.718e-5
-1.252, -7.195e-5
-1.251, -7.236e-5
-1.250, -7.151e-5
-1.249, -7.437e-5
-1.248, -7.933e-5
-1.247, -8.395e-5
-1.246, -8.414e-5
-1.245, -8.202e-5
-1.244, -8.401e-5
-1.243, -8.915e-5
-1.242, -9.306e-5
-1.241, -9.355e-5
-1.240, -9.117e-5
-1.239, -9.319e-5
-1.238, -9.842e-5
-1.237, -1.013e-4
-1.236, -1.013e-4
-1.235, -9.928e-5
-1.234, -1.006e-4
-1.233, -1.049e-4
-1.232, -1.083e-4
-1.231, -1.082e-4
-1.230, -1.062e-4
-1.229, -1.089e-4
-1.228, -1.125e-4
-1.227, -1.152e-4
-1.226, -1.139e-4
-1.225, -1.121e-4
-1.224, -1.126e-4
-1.223, -1.166e-4
-1.222, -1.202e-4
-1.221, -1.190e-4
-1.220, -1.165e-4
-1.219, -1.169e-4
-1.218, -1.209e-4
-1.217, -1.243e-4
-1.216, -1.228e-4
-1.215, -1.204e-4
-1.214, -1.209e-4
-1.213, -1.243e-4
-1.212, -1.275e-4
-1.211, -1.268e-4
-1.210, -1.236e-4
-1.209, -1.240e-4
-1.208, -1.274e-4
-1.207, -1.302e-4
-1.206, -1.294e-4
-1.205, -1.263e-4
-1.204, -1.266e-4
-1.203, -1.301e-4
-1.202, -1.326e-4
-1.201, -1.321e-4
-1.200, -1.282e-4
-1.199, -1.283e-4
-1.198, -1.320e-4
-1.197, -1.344e-4
-1.196, -1.333e-4
-1.195, -1.305e-4
-1.194, -1.301e-4
-1.193, -1.338e-4
-1.192, -1.359e-4
-1.191, -1.348e-4
-1.190, -1.320e-4
-1.189, -1.312e-4
-1.188, -1.347e-4
-1.187, -1.375e-4
-1.186, -1.359e-4
-1.185, -1.334e-4
-1.184, -1.320e-4
-1.183, -1.359e-4
-1.182, -1.385e-4
-1.181, -1.369e-4
-1.180, -1.336e-4
-1.179, -1.334e-4
-1.178, -1.369e-4
-1.177, -1.395e-4
-1.176, -1.375e-4
-1.175, -1.344e-4
-1.174, -1.344e-4
-1.173, -1.367e-4
-1.172, -1.395e-4
-1.171, -1.383e-4
-1.170, -1.344e-4
-1.169, -1.338e-4
-1.168, -1.364e-4
-1.167, -1.396e-4
-1.166, -1.387e-4
-1.165, -1.348e-4
-1.164, -1.341e-4
-1.163, -1.368e-4
-1.162, -1.392e-4
-1.161, -1.384e-4
-1.160, -1.346e-4
-1.159, -1.338e-4
-1.158, -1.369e-4
-1.157, -1.390e-4
-1.156, -1.384e-4
-1.155, -1.343e-4
-1.154, -1.338e-4
-1.153, -1.369e-4
-1.152, -1.394e-4
-1.151, -1.382e-4
-1.150, -1.351e-4
-1.149, -1.334e-4
-1.148, -1.366e-4
-1.147, -1.391e-4
-1.146, -1.377e-4
-1.145, -1.345e-4
-1.144, -1.332e-4
-1.143, -1.363e-4
-1.142, -1.396e-4
-1.141, -1.377e-4
-1.140, -1.342e-4
-1.139, -1.334e-4
-1.138, -1.360e-4
-1.137, -1.392e-4
-1.136, -1.375e-4
-1.135, -1.339e-4
-1.134, -1.335e-4
-1.133, -1.357e-4
-1.132, -1.390e-4
-1.131, -1.380e-4
-1.130, -1.343e-4
-1.129, -1.333e-4
-1.128, -1.359e-4
-1.127, -1.390e-4
-1.126, -1.384e-4
-1.125, -1.346e-4
-1.124, -1.336e-4
-1.123, -1.359e-4
-1.122, -1.383e-4
-1.121, -1.380e-4
-1.120, -1.343e-4
-1.119, -1.332e-4
-1.118, -1.360e-4
-1.117, -1.387e-4
-1.116, -1.379e-4
-1.115, -1.341e-4
-1.114, -1.331e-4
-1.113, -1.363e-4
-1.112, -1.386e-4
-1.111, -1.379e-4
-1.110, -1.346e-4
-1.109, -1.329e-4
-1.108, -1.360e-4
-1.107, -1.390e-4
-1.106, -1.377e-4
-1.105, -1.348e-4
-1.104, -1.332e-4
-1.103, -1.358e-4
-1.102, -1.391e-4
-1.101, -1.379e-4
-1.100, -1.348e-4
-1.099, -1.333e-4
-1.098, -1.360e-4
-1.097, -1.390e-4
-1.096, -1.379e-4
-1.095, -1.350e-4
-1.094, -1.338e-4
-1.093, -1.358e-4
-1.092, -1.389e-4
-1.091, -1.383e-4
-1.090, -1.345e-4
-1.089, -1.335e-4
-1.088, -1.362e-4
-1.087, -1.391e-4
-1.086, -1.388e-4
-1.085, -1.348e-4
-1.084, -1.337e-4
-1.083, -1.364e-4
-1.082, -1.393e-4
-1.081, -1.390e-4
-1.080, -1.351e-4
-1.079, -1.341e-4
-1.078, -1.370e-4
-1.077, -1.396e-4
-1.076, -1.396e-4
-1.075, -1.367e-4
-1.074, -1.345e-4
-1.073, -1.377e-4
-1.072, -1.399e-4
-1.071, -1.396e-4
-1.070, -1.365e-4
-1.069, -1.351e-4
-1.068, -1.381e-4
-1.067, -1.408e-4
-1.066, -1.407e-4
-1.065, -1.374e-4
-1.064, -1.356e-4
-1.063, -1.385e-4
-1.062, -1.420e-4
-1.061, -1.411e-4
-1.060, -1.380e-4
-1.059, -1.369e-4
-1.058, -1.392e-4
-1.057, -1.431e-4
-1.056, -1.422e-4
-1.055, -1.390e-4
-1.054, -1.379e-4
-1.053, -1.402e-4
-1.052, -1.437e-4
-1.051, -1.437e-4
-1.050, -1.402e-4
-1.049, -1.393e-4
-1.048, -1.412e-4
-1.047, -1.450e-4
-1.046, -1.453e-4
-1.045, -1.415e-4
-1.044, -1.403e-4
-1.043, -1.431e-4
-1.042, -1.462e-4
-1.041, -1.469e-4
-1.040, -1.428e-4
-1.039, -1.417e-4
-1.038, -1.449e-4
-1.037, -1.479e-4
-1.036, -1.484e-4
-1.035, -1.451e-4
-1.034, -1.432e-4
-1.033, -1.467e-4
-1.032, -1.497e-4
-1.031, -1.505e-4
-1.030, -1.476e-4
-1.029, -1.459e-4
-1.028, -1.487e-4
-1.027, -1.524e-4
-1.026, -1.522e-4
-1.025, -1.498e-4
-1.024, -1.487e-4
-1.023, -1.512e-4
-1.022, -1.555e-4
-1.021, -1.554e-4
-1.020, -1.526e-4
-1.019, -1.518e-4
-1.018, -1.543e-4
-1.017, -1.585e-4
-1.016, -1.585e-4
-1.015, -1.559e-4
-1.014, -1.554e-4
-1.013, -1.577e-4
-1.012, -1.618e-4
-1.011, -1.631e-4
-1.010, -1.601e-4
-1.009, -1.598e-4
-1.008, -1.621e-4
-1.007, -1.666e-4
-1.006, -1.675e-4
-1.005, -1.652e-4
-1.004, -1.647e-4
-1.003, -1.676e-4
-1.002, -1.722e-4
-1.001, -1.737e-4
-1.000, -7.637e-5
-1.001, 1.082e-5
-1.002, 3.216e-5
-1.003, 3.914e-5
-1.004, 4.620e-5
-1.005, 5.426e-5
-1.006, 6.074e-5
-1.007, 6.273e-5
-1.008, 6.201e-5
-1.009, 6.547e-5
-1.010, 7.095e-5
-1.011, 7.520e-5
-1.012, 7.575e-5
-1.013, 7.371e-5
-1.014, 7.542e-5
-1.015, 8.085e-5
-1.016, 8.386e-5
-1.017, 8.330e-5
-1.018, 8.131e-5
-1.019, 8.251e-5
-1.020, 8.738e-5
-1.021, 9.007e-5
-1.022, 8.925e-5
-1.023, 8.693e-5
-1.024, 8.766e-5
-1.025, 9.141e-5
-1.026, 9.435e-5
-1.027, 9.300e-5
-1.028, 9.059e-5
-1.029, 9.069e-5
-1.030, 9.460e-5
-1.031, 9.755e-5
-1.032, 9.552e-5
-1.033, 9.290e-5
-1.034, 9.344e-5
-1.035, 9.702e-5
-1.036, 9.995e-5
-1.037, 9.804e-5
-1.038, 9.530e-5
-1.039, 9.563e-5
-1.040, 9.863e-5
-1.041, 1.012e-4
-1.042, 9.986e-5
-1.043, 9.619e-5
-1.044, 9.709e-5
-1.045, 1.001e-4
-1.046, 1.029e-4
-1.047, 1.012e-4
-1.048, 9.815e-5
-1.049, 9.844e-5
-1.050, 1.015e-4
-1.051, 1.039e-4
-1.052, 1.024e-4
-1.053, 9.891e-5
-1.054, 9.906e-5
-1.055, 1.029e-4
-1.056, 1.046e-4
-1.057, 1.032e-4
-1.058, 1.003e-4
-1.059, 9.990e-5
-1.060, 1.036e-4
-1.061, 1.058e-4
-1.062, 1.043e-4
-1.063, 1.012e-4
-1.064, 1.006e-4
-1.065, 1.046e-4
-1.066, 1.066e-4
-1.067, 1.048e-4
-1.068, 1.020e-4
-1.069, 1.012e-4
-1.070, 1.047e-4
-1.071, 1.073e-4
-1.072, 1.054e-4
-1.073, 1.026e-4
-1.074, 1.024e-4
-1.075, 1.062e-4
-1.076, 1.084e-4
-1.077, 1.064e-4
-1.078, 1.028e-4
-1.079, 1.028e-4
-1.080, 1.056e-4
-1.081, 1.089e-4
-1.082, 1.071e-4
-1.083, 1.033e-4
-1.084, 1.034e-4
-1.085, 1.064e-4
-1.086, 1.090e-4
-1.087, 1.079e-4
-1.088, 1.042e-4
-1.089, 1.037e-4
-1.090, 1.073e-4
-1.091, 1.094e-4
-1.092, 1.082e-4
-1.093, 1.046e-4
-1.094, 1.045e-4
-1.095, 1.080e-4
-1.096, 1.102e-4
-1.097, 1.088e-4
-1.098, 1.055e-4
-1.099, 1.049e-4
-1.100, 1.084e-4
-1.101, 1.110e-4
-1.102, 1.090e-4
-1.103, 1.064e-4
-1.104, 1.054e-4
-1.105, 1.089e-4
-1.106, 1.111e-4
-1.107, 1.096e-4
-1.108, 1.069e-4
-1.109, 1.058e-4
-1.110, 1.091e-4
-1.111, 1.122e-4
-1.112, 1.105e-4
-1.113, 1.069e-4
-1.114, 1.067e-4
-1.115, 1.097e-4
-1.116, 1.130e-4
-1.117, 1.107e-4
-1.118, 1.076e-4
-1.119, 1.073e-4
-1.120, 1.102e-4
-1.121, 1.133e-4
-1.122, 1.115e-4
-1.123, 1.085e-4
-1.124, 1.079e-4
-1.125, 1.110e-4
-1.126, 1.134e-4
-1.127, 1.125e-4
-1.128, 1.088e-4
-1.129, 1.083e-4
-1.130, 1.115e-4
-1.131, 1.138e-4
-1.132, 1.134e-4
-1.133, 1.092e-4
-1.134, 1.091e-4
-1.135, 1.122e-4
-1.136, 1.148e-4
-1.137, 1.137e-4
-1.138, 1.105e-4
-1.139, 1.095e-4
-1.140, 1.132e-4
-1.141, 1.155e-4
-1.142, 1.142e-4
-1.143, 1.114e-4
-1.144, 1.106e-4
-1.145, 1.135e-4
-1.146, 1.166e-4
-1.147, 1.153e-4
-1.148, 1.122e-4
-1.149, 1.116e-4
-1.150, 1.141e-4
-1.151, 1.178e-4
-1.152, 1.159e-4
-1.153, 1.130e-4
-1.154, 1.123e-4
-1.155, 1.149e-4
-1.156, 1.187e-4
-1.157, 1.173e-4
-1.158, 1.136e-4
-1.159, 1.136e-4
-1.160, 1.162e-4
-1.161, 1.196e-4
-1.162, 1.185e-4
-1.163, 1.148e-4
-1.164, 1.147e-4
-1.165, 1.174e-4
-1.166, 1.204e-4
-1.167, 1.197e-4
-1.168, 1.163e-4
-1.169, 1.154e-4
-1.170, 1.186e-4
-1.171, 1.216e-4
-1.172, 1.211e-4
-1.173, 1.175e-4
-1.174, 1.168e-4
-1.175, 1.201e-4
-1.176, 1.231e-4
-1.177, 1.229e-4
-1.178, 1.201e-4
-1.179, 1.185e-4
-1.180, 1.220e-4
-1.181, 1.251e-4
-1.182, 1.238e-4
-1.183, 1.213e-4
-1.184, 1.202e-4
-1.185, 1.237e-4
-1.186, 1.265e-4
-1.187, 1.258e-4
-1.188, 1.231e-4
-1.189, 1.224e-4
-1.190, 1.254e-4
-1.191, 1.294e-4
-1.192, 1.279e-4
-1.193, 1.253e-4
-1.194, 1.246e-4
-1.195, 1.278e-4
-1.196, 1.316e-4
-1.197, 1.301e-4
-1.198, 1.277e-4
-1.199, 1.278e-4
-1.200, 1.305e-4
-1.201, 1.342e-4
-1.202, 1.336e-4
-1.203, 1.309e-4
-1.204, 1.306e-4
-1.205, 1.336e-4
-1.206, 1.369e-4
-1.207, 1.370e-4
-1.208, 1.340e-4
-1.209, 1.334e-4
-1.210, 1.372e-4
-1.211, 1.408e-4
-1.212, 1.407e-4
-1.213, 1.377e-4
-1.214, 1.375e-4
-1.215, 1.415e-4
-1.216, 1.449e-4
-1.217, 1.452e-4
-1.218, 1.426e-4
-1.219, 1.419e-4
-1.220, 1.463e-4
-1.221, 1.497e-4
-1.222, 1.494e-4
-1.223, 1.479e-4
-1.224, 1.472e-4
-1.225, 1.513e-4
-1.226, 1.557e-4
-1.227, 1.556e-4
-1.228, 1.540e-4
-1.229, 1.553e-4
-1.230, 1.578e-4
-1.231, 1.618e-4
-1.232, 1.619e-4
-1.233, 1.603e-4
-1.234, 1.606e-4
-1.235, 1.644e-4
-1.236, 1.696e-4
-1.237, 1.701e-4
-1.238, 1.678e-4
-1.239, 1.687e-4
-1.240, 1.728e-4
-1.241, 1.777e-4
-1.242, 1.783e-4
-1.243, 1.766e-4
-1.244, 1.778e-4
-1.245, 1.824e-4
-1.246, 1.874e-4
-1.247, 1.891e-4
-1.248, 1.866e-4
-1.249, 1.882e-4
-1.250, 1.926e-4
-1.251, 1.982e-4
-1.252, 2.001e-4
-1.253, 1.994e-4
-1.254, 2.002e-4
-1.255, 2.055e-4
-1.256, 2.111e-4
-1.257, 2.129e-4
-1.258, 2.124e-4
-1.259, 2.139e-4
-1.260, 2.198e-4
-1.261, 2.255e-4
-1.262, 2.279e-4
-1.263, 2.282e-4
-1.264, 2.293e-4
-1.265, 2.353e-4
-1.266, 2.424e-4
-1.267, 2.454e-4
-1.268, 2.455e-4
-1.269, 2.478e-4
-1.270, 2.544e-4
-1.271, 2.615e-4
-1.272, 2.647e-4
-1.273, 2.650e-4
-1.274, 2.684e-4
-1.275, 2.753e-4
-1.276, 2.831e-4
-1.277, 2.867e-4
-1.278, 2.879e-4
-1.279, 2.918e-4
-1.280, 2.996e-4
-1.281, 3.075e-4
-1.282, 3.120e-4
-1.283, 3.136e-4
-1.284, 3.184e-4
-1.285, 3.265e-4
-1.286, 3.353e-4
-1.287, 3.404e-4
-1.288, 3.428e-4
-1.289, 3.481e-4
-1.290, 3.572e-4
-1.291, 3.670e-4
-1.292, 3.730e-4
-1.293, 3.764e-4
-1.294, 3.814e-4
-1.295, 3.923e-4
-1.296, 4.017e-4
-1.297, 4.088e-4
-1.298, 4.146e-4
-1.299, 4.201e-4
-1.300, 4.309e-4
-1.301, 4.417e-4
-1.302, 4.503e-4
-1.303, 4.556e-4
-1.304, 4.622e-4
-1.305, 4.746e-4
-1.306, 4.880e-4
-1.307, 4.969e-4
-1.308, 5.038e-4
-1.309, 5.108e-4
-1.310, 5.233e-4
-1.311, 5.377e-4
-1.312, 5.476e-4
-1.313, 5.550e-4
-1.314, 5.661e-4
-1.315, 5.788e-4
-1.316, 5.946e-4
-1.317, 6.057e-4
-1.318, 6.143e-4
-1.319, 6.254e-4
-1.320, 6.404e-4
-1.321, 6.576e-4
-1.322, 6.687e-4
-1.323, 6.788e-4
-1.324, 6.902e-4
-1.325, 7.072e-4
-1.326, 7.265e-4
-1.327, 7.413e-4
-1.328, 7.509e-4
-1.329, 7.651e-4
-1.330, 7.840e-4
-1.331, 8.031e-4
-1.332, 8.202e-4
-1.333, 8.320e-4
-1.334, 8.482e-4
-1.335, 8.671e-4
-1.336, 8.875e-4
-1.337, 9.056e-4
-1.338, 9.213e-4
-1.339, 9.375e-4
-1.340, 9.599e-4
-1.341, 9.839e-4
-1.342, 1.004e-3
-1.343, 1.020e-3
-1.344, 1.040e-3
-1.345, 1.061e-3
-1.346, 1.085e-3
-1.347, 1.106e-3
-1.348, 1.126e-3
-1.349, 1.146e-3
-1.350, 1.173e-3
-1.351, 1.199e-3
-1.352, 1.220e-3
-1.353, 1.242e-3
-1.354, 1.266e-3
-1.355, 1.292e-3
-1.356, 1.320e-3
-1.357, 1.345e-3
-1.358, 1.370e-3
-1.359, 1.395e-3
-1.360, 1.424e-3
-1.361, 1.456e-3
-1.362, 1.481e-3
-1.363, 1.506e-3
-1.364, 1.531e-3
-1.365, 1.563e-3
-1.366, 1.599e-3
-1.367, 1.628e-3
-1.368, 1.653e-3
-1.369, 1.684e-3
-1.370, 1.716e-3
-1.371, 1.753e-3
-1.372, 1.787e-3
-1.373, 1.816e-3
-1.374, 1.849e-3
-1.375, 1.885e-3
-1.376, 1.920e-3
-1.377, 1.957e-3
-1.378, 1.984e-3
-1.379, 2.021e-3
-1.380, 2.064e-3
-1.381, 2.099e-3
-1.382, 2.138e-3
-1.383, 2.172e-3
-1.384, 2.207e-3
-1.385, 2.249e-3
-1.386, 2.288e-3
-1.387, 2.332e-3
-1.388, 2.371e-3
-1.389, 2.403e-3
-1.390, 2.444e-3
-1.391, 2.498e-3
-1.392, 2.532e-3
-1.393, 2.572e-3
-1.394, 2.616e-3
-1.395, 2.657e-3
-1.396, 2.707e-3
-1.397, 2.750e-3
-1.398, 2.792e-3
-1.399, 2.836e-3
-1.400, 2.777e-3
-1.399, 2.680e-3
-1.398, 2.615e-3
-1.397, 2.557e-3
-1.396, 2.494e-3
-1.395, 2.449e-3
-1.394, 2.393e-3
-1.393, 2.338e-3
-1.392, 2.282e-3
-1.391, 2.235e-3
-1.390, 2.188e-3
-1.389, 2.138e-3
-1.388, 2.089e-3
-1.387, 2.041e-3
-1.386, 1.994e-3
-1.385, 1.951e-3
-1.384, 1.915e-3
-1.383, 1.871e-3
-1.382, 1.823e-3
-1.381, 1.777e-3
-1.380, 1.740e-3
-1.379, 1.705e-3
-1.378, 1.667e-3
-1.377, 1.625e-3
-1.376, 1.587e-3
-1.375, 1.553e-3
-1.374, 1.521e-3
-1.373, 1.486e-3
-1.372, 1.448e-3
-1.371, 1.409e-3
-1.370, 1.379e-3
-1.369, 1.350e-3
-1.368, 1.318e-3
-1.367, 1.282e-3
-1.366, 1.245e-3
-1.365, 1.219e-3
-1.364, 1.191e-3
-1.363, 1.162e-3
-1.362, 1.132e-3
-1.361, 1.103e-3
-1.360, 1.076e-3
-1.359, 1.052e-3
-1.358, 1.024e-3
-1.357, 9.954e-4
-1.356, 9.684e-4
-1.355, 9.448e-4
-1.354, 9.242e-4
-1.353, 8.984e-4
-1.352, 8.731e-4
-1.351, 8.486e-4
-1.350, 8.273e-4
-1.349, 8.085e-4
-1.348, 7.852e-4
-1.347, 7.607e-4
-1.346, 7.383e-4
-1.345, 7.194e-4
-1.344, 7.040e-4
-1.343, 6.825e-4
-1.342, 6.610e-4
-1.341, 6.407e-4
-1.340, 6.246e-4
-1.339, 6.098e-4
-1.338, 5.912e-4
-1.337, 5.698e-4
-1.336, 5.512e-4
-1.335, 5.354e-4
-1.334, 5.239e-4
-1.333, 5.078e-4
-1.332, 4.888e-4
-1.331, 4.719e-4
-1.330, 4.583e-4
-1.329, 4.464e-4
-1.328, 4.317e-4
-1.327, 4.149e-4
-1.326, 3.992e-4
-1.325, 3.880e-4
-1.324, 3.778e-4
-1.323, 3.651e-4
-1.322, 3.492e-4
-1.321, 3.349e-4
-1.320, 3.254e-4
-1.319, 3.166e-4
-1.318, 3.041e-4
-1.317, 2.902e-4
-1.316, 2.768e-4
-1.315, 2.690e-4
-1.314, 2.622e-4
-1.313, 2.506e-4
-1.312, 2.380e-4
-1.311, 2.263e-4
-1.310, 2.184e-4
-1.309, 2.129e-4
-1.308, 2.030e-4
-1.307, 1.905e-4
-1.306, 1.803e-4
-1.305, 1.742e-4
-1.304, 1.697e-4
-1.303, 1.607e-4
-1.302, 1.489e-4
-1.301, 1.399e-4
-1.300, 1.348e-4
-1.299, 1.306e-4
-1.298, 1.227e-4
-1.297, 1.122e-4
-1.296, 1.042e-4
-1.295, 1.000e-4
-1.294, 9.669e-5
-1.293, 8.972e-5
-1.292, 7.989e-5
-1.291, 7.228e-5
-1.290, 6.888e-5
-1.289, 6.608e-5
-1.288, 6.056e-5
-1.287, 5.159e-5
-1.286, 4.482e-5
-1.285, 4.211e-5
-1.284, 3.988e-5
-1.283, 3.448e-5
-1.282, 2.667e-5
-1.281, 1.979e-5
-1.280, 1.720e-5
-1.279, 1.644e-5
-1.278, 1.157e-5
-1.277, 4.221e-6
-1.276, -1.464e-6
-1.275, -2.985e-6
-1.274, -3.605e-6
-1.273, -8.425e-6
-1.272, -1.475e-5
-1.271, -1.989e-5
-1.270, -2.170e-5
-1.269, -2.130e-5
-1.268, -2.518e-5
-1.267, -3.192e-5
-1.266, -3.630e-5
-1.265, -3.731e-5
-1.264, -3.665e-5
-1.263, -4.019e-5
-1.262, -4.679e-5
-1.261, -5.046e-5
-1.260, -5.102e-5
-1.259, -5.032e-5
-1.258, -5.307e-5
-1.257, -5.939e-5
-1.256, -6.234e-5
-1.255, -6.291e-5
-1.254, -6.220e-5
-1.253, -6.449e-5
-1.252, -7.031e-5
-1.251, -7.345e-5
-1.250, -7.280e-5
-1.249, -7.175e-5
-1.248, -7.387e-5
-1.247, -7.923e-5
-1.246, -8.270e-5
-1.245, -8.143e-5
-1.244, -8.005e-5
-1.243, -8.252e-5
-1.242, -8.730e-5
-1.241, -9.035e-5
-1.240, -8.897e-5
-1.239, -8.738e-5
-1.238, -8.948e-5
-1.237, -9.375e-5
-1.236, -9.673e-5
-1.235, -9.563e-5
-1.234, -9.355e-5
-1.233, -9.578e-5
-1.232, -9.965e-5
-1.231, -1.025e-4
-1.230, -1.011e-4
-1.229, -1.007e-4
-1.228, -1.008e-4
-1.227, -1.049e-4
-1.226, -1.070e-4
-1.225, -1.058e-4
-1.224, -1.034e-4
-1.223, -1.047e-4
-1.222, -1.089e-4
-1.221, -1.106e-4
-1.220, -1.088e-4
-1.219, -1.065e-4
-1.218, -1.079e-4
-1.217, -1.125e-4
-1.216, -1.140e-4
-1.215, -1.127e-4
-1.214, -1.102e-4
-1.213, -1.104e-4
-1.212, -1.151e-4
-1.211, -1.170e-4
-1.210, -1.147e-4
-1.209, -1.124e-4
-1.208, -1.132e-4
-1.207, -1.171e-4
-1.206, -1.191e-4
-1.205, -1.167e-4
-1.204, -1.142e-4
-1.203, -1.150e-4
-1.202, -1.192e-4
-1.201, -1.210e-4
-1.200, -1.181e-4
-1.199, -1.159e-4
-1.198, -1.170e-4
-1.197, -1.204e-4
-1.196, -1.221e-4
-1.195, -1.200e-4
-1.194, -1.171e-4
-1.193, -1.180e-4
-1.192, -1.214e-4
-1.191, -1.231e-4
-1.190, -1.214e-4
-1.189, -1.179e-4
-1.188, -1.189e-4
-1.187, -1.226e-4
-1.186, -1.240e-4
-1.185, -1.222e-4
-1.184, -1.190e-4
-1.183, -1.199e-4
-1.182, -1.236e-4
-1.181, -1.247e-4
-1.180, -1.227e-4
-1.179, -1.197e-4
-1.178, -1.213e-4
-1.177, -1.249e-4
-1.176, -1.258e-4
-1.175, -1.236e-4
-1.174, -1.205e-4
-1.173, -1.210e-4
-1.172, -1.252e-4
-1.171, -1.266e-4
-1.170, -1.242e-4
-1.169, -1.212e-4
-1.168, -1.214e-4
-1.167, -1.255e-4
-1.166, -1.271e-4
-1.165, -1.243e-4
-1.164, -1.216e-4
-1.163, -1.226e-4
-1.162, -1.259e-4
-1.161, -1.275e-4
-1.160, -1.245e-4
-1.159, -1.221e-4
-1.158, -1.230e-4
-1.157, -1.265e-4
-1.156, -1.280e-4
-1.155, -1.256e-4
-1.154, -1.223e-4
-1.153, -1.236e-4
-1.152, -1.267e-4
-1.151, -1.282e-4
-1.150, -1.265e-4
-1.149, -1.225e-4
-1.148, -1.237e-4
-1.147, -1.272e-4
-1.146, -1.285e-4
-1.145, -1.266e-4
-1.144, -1.228e-4
-1.143, -1.240e-4
-1.142, -1.279e-4
-1.141, -1.288e-4
-1.140, -1.265e-4
-1.139, -1.237e-4
-1.138, -1.244e-4
-1.137, -1.285e-4
-1.136, -1.292e-4
-1.135, -1.271e-4
-1.134, -1.249e-4
-1.133, -1.246e-4
-1.132, -1.284e-4
-1.131, -1.300e-4
-1.130, -1.270e-4
-1.129, -1.249e-4
-1.128, -1.250e-4
-1.127, -1.289e-4
-1.126, -1.307e-4
-1.125, -1.279e-4
-1.124, -1.252e-4
-1.123, -1.261e-4
-1.122, -1.293e-4
-1.121, -1.314e-4
-1.120, -1.279e-4
-1.119, -1.257e-4
-1.118, -1.267e-4
-1.117, -1.297e-4
-1.116, -1.313e-4
-1.115, -1.291e-4
-1.114, -1.263e-4
-1.113, -1.273e-4
-1.112, -1.303e-4
-1.111, -1.321e-4
-1.110, -1.300e-4
-1.109, -1.264e-4
-1.108, -1.275e-4
-1.107, -1.312e-4
-1.106, -1.322e-4
-1.105, -1.301e-4
-1.104, -1.270e-4
-1.103, -1.281e-4
-1.102, -1.320e-4
-1.101, -1.327e-4
-1.100, -1.309e-4
-1.099, -1.281e-4
-1.098, -1.286e-4
-1.097, -1.330e-4
-1.096, -1.334e-4
-1.095, -1.314e-4
-1.094, -1.289e-4
-1.093, -1.291e-4
-1.092, -1.330e-4
-1.091, -1.347e-4
-1.090, -1.319e-4
-1.089, -1.293e-4
-1.088, -1.303e-4
-1.087, -1.336e-4
-1.086, -1.350e-4
-1.085, -1.326e-4
-1.084, -1.301e-4
-1.083, -1.310e-4
-1.082, -1.345e-4
-1.081, -1.359e-4
-1.080, -1.332e-4
-1.079, -1.308e-4
-1.078, -1.323e-4
-1.077, -1.349e-4
-1.076, -1.368e-4
-1.075, -1.351e-4
-1.074, -1.318e-4
-1.073, -1.331e-4
-1.072, -1.363e-4
-1.071, -1.378e-4
-1.070, -1.355e-4
-1.069, -1.322e-4
-1.068, -1.338e-4
-1.067, -1.376e-4
-1.066, -1.384e-4
-1.065, -1.366e-4
-1.064, -1.331e-4
-1.063, -1.344e-4
-1.062, -1.386e-4
-1.061, -1.400e-4
-1.060, -1.381e-4
-1.059, -1.353e-4
-1.058, -1.359e-4
-1.057, -1.401e-4
-1.056, -1.411e-4
-1.055, -1.390e-4
-1.054, -1.365e-4
-1.053, -1.372e-4
-1.052, -1.415e-4
-1.051, -1.430e-4
-1.050, -1.405e-4
-1.049, -1.385e-4
-1.048, -1.390e-4
-1.047, -1.427e-4
-1.046, -1.446e-4
-1.045, -1.420e-4
-1.044, -1.396e-4
-1.043, -1.408e-4
-1.042, -1.446e-4
-1.041, -1.467e-4
-1.040, -1.433e-4
-1.039, -1.414e-4
-1.038, -1.433e-4
-1.037, -1.466e-4
-1.036, -1.484e-4
-1.035, -1.464e-4
-1.034, -1.440e-4
-1.033, -1.456e-4
-1.032, -1.491e-4
-1.031, -1.509e-4
-1.030, -1.489e-4
-1.029, -1.462e-4
-1.028, -1.482e-4
-1.027, -1.521e-4
-1.026, -1.536e-4
-1.025, -1.522e-4
-1.024, -1.499e-4
-1.023, -1.516e-4
-1.022, -1.557e-4
-1.021, -1.570e-4
-1.020, -1.550e-4
-1.019, -1.537e-4
-1.018, -1.549e-4
-1.017, -1.598e-4
-1.016, -1.612e-4
-1.015, -1.592e-4
-1.014, -1.576e-4
-1.013, -1.595e-4
-1.012, -1.644e-4
-1.011, -1.659e-4
-1.010, -1.641e-4
-1.009, -1.630e-4
-1.008, -1.650e-4
-1.007, -1.696e-4
-1.006, -1.720e-4
-1.005, -1.703e-4
-1.004, -1.686e-4
-1.003, -1.711e-4
-1.002, -1.759e-4
-1.001, -1.790e-4
-1.000, -8.270e-5
-1.001, 6.626e-6
-1.002, 3.019e-5
-1.003, 3.755e-5
-1.004, 4.414e-5
-1.005, 5.184e-5
-1.006, 5.925e-5
-1.007, 6.264e-5
-1.008, 6.223e-5
-1.009, 6.483e-5
-1.010, 6.985e-5
-1.011, 7.501e-5
-1.012, 7.663e-5
-1.013, 7.517e-5
-1.014, 7.596e-5
-1.015, 8.063e-5
-1.016, 8.466e-5
-1.017, 8.526e-5
-1.018, 8.316e-5
-1.019, 8.316e-5
-1.020, 8.767e-5
-1.021, 9.110e-5
-1.022, 9.105e-5
-1.023, 8.870e-5
-1.024, 8.882e-5
-1.025, 9.223e-5
-1.026, 9.570e-5
-1.027, 9.505e-5
-1.028, 9.257e-5
-1.029, 9.183e-5
-1.030, 9.525e-5
-1.031, 9.899e-5
-1.032, 9.804e-5
-1.033, 9.525e-5
-1.034, 9.482e-5
-1.035, 9.785e-5
-1.036, 1.014e-4
-1.037, 9.976e-5
-1.038, 9.721e-5
-1.039, 9.670e-5
-1.040, 9.949e-5
-1.041, 1.027e-4
-1.042, 1.020e-4
-1.043, 9.878e-5
-1.044, 9.849e-5
-1.045, 1.011e-4
-1.046, 1.039e-4
-1.047, 1.034e-4
-1.048, 1.004e-4
-1.049, 9.957e-5
-1.050, 1.026e-4
-1.051, 1.051e-4
-1.052, 1.048e-4
-1.053, 1.009e-4
-1.054, 1.003e-4
-1.055, 1.037e-4
-1.056, 1.059e-4
-1.057, 1.055e-4
-1.058, 1.025e-4
-1.059, 1.012e-4
-1.060, 1.047e-4
-1.061, 1.069e-4
-1.062, 1.062e-4
-1.063, 1.029e-4
-1.064, 1.016e-4
-1.065, 1.052e-4
-1.066, 1.081e-4
-1.067, 1.065e-4
-1.068, 1.039e-4
-1.069, 1.028e-4
-1.070, 1.056e-4
-1.071, 1.089e-4
-1.072, 1.069e-4
-1.073, 1.047e-4
-1.074, 1.035e-4
-1.075, 1.067e-4
-1.076, 1.100e-4
-1.077, 1.080e-4
-1.078, 1.044e-4
-1.079, 1.043e-4
-1.080, 1.063e-4
-1.081, 1.097e-4
-1.082, 1.086e-4
-1.083, 1.052e-4
-1.084, 1.046e-4
-1.085, 1.073e-4
-1.086, 1.100e-4
-1.087, 1.092e-4
-1.088, 1.057e-4
-1.089, 1.048e-4
-1.090, 1.079e-4
-1.091, 1.103e-4
-1.092, 1.097e-4
-1.093, 1.065e-4
-1.094, 1.050e-4
-1.095, 1.083e-4
-1.096, 1.107e-4
-1.097, 1.100e-4
-1.098, 1.069e-4
-1.099, 1.056e-4
-1.100, 1.087e-4
-1.101, 1.117e-4
-1.102, 1.102e-4
-1.103, 1.074e-4
-1.104, 1.058e-4
-1.105, 1.086e-4
-1.106, 1.119e-4
-1.107, 1.109e-4
-1.108, 1.076e-4
-1.109, 1.065e-4
-1.110, 1.095e-4
-1.111, 1.126e-4
-1.112, 1.109e-4
-1.113, 1.079e-4
-1.114, 1.068e-4
-1.115, 1.098e-4
-1.116, 1.129e-4
-1.117, 1.113e-4
-1.118, 1.083e-4
-1.119, 1.077e-4
-1.120, 1.102e-4
-1.121, 1.130e-4
-1.122, 1.120e-4
-1.123, 1.087e-4
-1.124, 1.081e-4
-1.125, 1.105e-4
-1.126, 1.137e-4
-1.127, 1.127e-4
-1.128, 1.091e-4
-1.129, 1.084e-4
-1.130, 1.112e-4
-1.131, 1.140e-4
-1.132, 1.132e-4
-1.133, 1.095e-4
-1.134, 1.089e-4
-1.135, 1.121e-4
-1.136, 1.144e-4
-1.137, 1.136e-4
-1.138, 1.104e-4
-1.139, 1.095e-4
-1.140, 1.125e-4
-1.141, 1.149e-4
-1.142, 1.136e-4
-1.143, 1.113e-4
-1.144, 1.099e-4
-1.145, 1.132e-4
-1.146, 1.159e-4
-1.147, 1.146e-4
-1.148, 1.117e-4
-1.149, 1.103e-4
-1.150, 1.134e-4
-1.151, 1.167e-4
-1.152, 1.153e-4
-1.153, 1.121e-4
-1.154, 1.111e-4
-1.155, 1.142e-4
-1.156, 1.170e-4
-1.157, 1.155e-4
-1.158, 1.127e-4
-1.159, 1.121e-4
-1.160, 1.147e-4
-1.161, 1.179e-4
-1.162, 1.168e-4
-1.163, 1.133e-4
-1.164, 1.131e-4
-1.165, 1.153e-4
-1.166, 1.186e-4
-1.167, 1.181e-4
-1.168, 1.140e-4
-1.169, 1.138e-4
-1.170, 1.169e-4
-1.171, 1.194e-4
-1.172, 1.185e-4
-1.173, 1.156e-4
-1.174, 1.148e-4
-1.175, 1.180e-4
-1.176, 1.205e-4
-1.177, 1.206e-4
-1.178, 1.172e-4
-1.179, 1.159e-4
-1.180, 1.189e-4
-1.181, 1.220e-4
-1.182, 1.206e-4
-1.183, 1.182e-4
-1.184, 1.169e-4
-1.185, 1.204e-4
-1.186, 1.234e-4
-1.187, 1.223e-4
-1.188, 1.198e-4
-1.189, 1.185e-4
-1.190, 1.216e-4
-1.191, 1.251e-4
-1.192, 1.241e-4
-1.193, 1.212e-4
-1.194, 1.204e-4
-1.195, 1.236e-4
-1.196, 1.271e-4
-1.197, 1.259e-4
-1.198, 1.232e-4
-1.199, 1.225e-4
-1.200, 1.254e-4
-1.201, 1.288e-4
-1.202, 1.287e-4
-1.203, 1.253e-4
-1.204, 1.253e-4
-1.205, 1.282e-4
-1.206, 1.314e-4
-1.207, 1.311e-4
-1.208, 1.277e-4
-1.209, 1.279e-4
-1.210, 1.309e-4
-1.211, 1.342e-4
-1.212, 1.341e-4
-1.213, 1.307e-4
-1.214, 1.309e-4
-1.215, 1.345e-4
-1.216, 1.376e-4
-1.217, 1.371e-4
-1.218, 1.349e-4
-1.219, 1.344e-4
-1.220, 1.382e-4
-1.221, 1.411e-4
-1.222, 1.414e-4
-1.223, 1.389e-4
-1.224, 1.386e-4
-1.225, 1.424e-4
-1.226, 1.463e-4
-1.227, 1.459e-4
-1.228, 1.443e-4
-1.229, 1.453e-4
-1.230, 1.479e-4
-1.231, 1.523e-4
-1.232, 1.512e-4
-1.233, 1.492e-4
-1.234, 1.494e-4
-1.235, 1.534e-4
-1.236, 1.578e-4
-1.237, 1.575e-4
-1.238, 1.556e-4
-1.239, 1.562e-4
-1.240, 1.602e-4
-1.241, 1.645e-4
-1.242, 1.653e-4
-1.243, 1.629e-4
-1.244, 1.640e-4
-1.245, 1.681e-4
-1.246, 1.728e-4
-1.247, 1.738e-4
-1.248, 1.717e-4
-1.249, 1.726e-4
-1.250, 1.775e-4
-1.251, 1.819e-4
-1.252, 1.833e-4
-1.253, 1.820e-4
-1.254, 1.832e-4
-1.255, 1.882e-4
-1.256, 1.929e-4
-1.257, 1.942e-4
-1.258, 1.932e-4
-1.259, 1.949e-4
-1.260, 2.003e-4
-1.261, 2.055e-4
-1.262, 2.073e-4
-1.263, 2.069e-4
-1.264, 2.082e-4
-1.265, 2.142e-4
-1.266, 2.200e-4
-1.267, 2.219e-4
-1.268, 2.221e-4
-1.269, 2.241e-4
-1.270, 2.299e-4
-1.271, 2.372e-4
-1.272, 2.383e-4
-1.273, 2.394e-4
-1.274, 2.421e-4
-1.275, 2.486e-4
-1.276, 2.557e-4
-1.277, 2.584e-4
-1.278, 2.593e-4
-1.279, 2.629e-4
-1.280, 2.703e-4
-1.281, 2.773e-4
-1.282, 2.805e-4
-1.283, 2.819e-4
-1.284, 2.854e-4
-1.285, 2.932e-4
-1.286, 3.013e-4
-1.287, 3.061e-4
-1.288, 3.082e-4
-1.289, 3.130e-4
-1.290, 3.206e-4
-1.291, 3.288e-4
-1.292, 3.340e-4
-1.293, 3.373e-4
-1.294, 3.423e-4
-1.295, 3.520e-4
-1.296, 3.611e-4
-1.297, 3.662e-4
-1.298, 3.699e-4
-1.299, 3.760e-4
-1.300, 3.870e-4
-1.301, 3.965e-4
-1.302, 4.032e-4
-1.303, 4.082e-4
-1.304, 4.145e-4
-1.305, 4.258e-4
-1.306, 4.372e-4
-1.307, 4.456e-4
-1.308, 4.494e-4
-1.309, 4.573e-4
-1.310, 4.702e-4
-1.311, 4.826e-4
-1.312, 4.908e-4
-1.313, 4.976e-4
-1.314, 5.067e-4
-1.315, 5.194e-4
-1.316, 5.334e-4
-1.317, 5.425e-4
-1.318, 5.512e-4
-1.319, 5.621e-4
-1.320, 5.755e-4
-1.321, 5.906e-4
-1.322, 6.023e-4
-1.323, 6.110e-4
-1.324, 6.214e-4
-1.325, 6.378e-4
-1.326, 6.532e-4
-1.327, 6.677e-4
-1.328, 6.760e-4
-1.329, 6.897e-4
-1.330, 7.080e-4
-1.331, 7.255e-4
-1.332, 7.389e-4
-1.333, 7.502e-4
-1.334, 7.652e-4
-1.335, 7.837e-4
-1.336, 8.020e-4
-1.337, 8.182e-4
-1.338, 8.318e-4
-1.339, 8.482e-4
-1.340, 8.685e-4
-1.341, 8.896e-4
-1.342, 9.061e-4
-1.343, 9.217e-4
-1.344, 9.395e-4
-1.345, 9.625e-4
-1.346, 9.852e-4
-1.347, 1.004e-3
-1.348, 1.023e-3
-1.349, 1.042e-3
-1.350, 1.068e-3
-1.351, 1.090e-3
-1.352, 1.110e-3
-1.353, 1.131e-3
-1.354, 1.154e-3
-1.355, 1.179e-3
-1.356, 1.205e-3
-1.357, 1.229e-3
-1.358, 1.251e-3
-1.359, 1.270e-3
-1.360, 1.299e-3
-1.361, 1.329e-3
-1.362, 1.355e-3
-1.363, 1.380e-3
-1.364, 1.405e-3
-1.365, 1.433e-3
-1.366, 1.463e-3
-1.367, 1.490e-3
-1.368, 1.517e-3
-1.369, 1.548e-3
-1.370, 1.580e-3
-1.371, 1.616e-3
-1.372, 1.644e-3
-1.373, 1.670e-3
-1.374, 1.703e-3
-1.375, 1.741e-3
-1.376, 1.772e-3
-1.377, 1.805e-3
-1.378, 1.841e-3
-1.379, 1.868e-3
-1.380, 1.911e-3
-1.381, 1.940e-3
-1.382, 1.979e-3
-1.383, 2.009e-3
-1.384, 2.047e-3
-1.385, 2.093e-3
-1.386, 2.129e-3
-1.387, 2.153e-3
-1.388, 2.194e-3
-1.389, 2.231e-3
-1.390, 2.275e-3
-1.391, 2.321e-3
-1.392, 2.356e-3
-1.393, 2.392e-3
-1.394, 2.432e-3
-1.395, 2.478e-3
-1.396, 2.526e-3
-1.397, 2.570e-3
-1.398, 2.609e-3
-1.399, 2.650e-3
-1.400, 2.592e-3
-1.399, 2.497e-3
-1.398, 2.435e-3
-1.397, 2.377e-3
-1.396, 2.322e-3
-1.395, 2.275e-3
-1.394, 2.228e-3
-1.393, 2.180e-3
-1.392, 2.129e-3
-1.391, 2.079e-3
-1.390, 2.037e-3
-1.389, 1.994e-3
-1.388, 1.945e-3
-1.387, 1.901e-3
-1.386, 1.856e-3
-1.385, 1.815e-3
-1.384, 1.776e-3
-1.383, 1.736e-3
-1.382, 1.694e-3
-1.381, 1.654e-3
-1.380, 1.617e-3
-1.379, 1.581e-3
-1.378, 1.542e-3
-1.377, 1.506e-3
-1.376, 1.471e-3
-1.375, 1.437e-3
-1.374, 1.405e-3
-1.373, 1.374e-3
-1.372, 1.337e-3
-1.371, 1.304e-3
-1.370, 1.275e-3
-1.369, 1.246e-3
-1.368, 1.215e-3
-1.367, 1.181e-3
-1.366, 1.152e-3
-1.365, 1.128e-3
-1.364, 1.103e-3
-1.363, 1.074e-3
-1.362, 1.042e-3
-1.361, 1.013e-3
-1.360, 9.915e-4
-1.359, 9.688e-4
-1.358, 9.455e-4
-1.357, 9.171e-4
-1.356, 8.899e-4
-1.355, 8.691e-4
-1.354, 8.494e-4
-1.353, 8.254e-4
-1.352, 7.993e-4
-1.351, 7.762e-4
-1.350, 7.576e-4
-1.349, 7.408e-4
-1.348, 7.202e-4
-1.347, 6.968e-4
-1.346, 6.760e-4
-1.345, 6.581e-4
-1.344, 6.431e-4
-1.343, 6.235e-4
-1.342, 6.016e-4
-1.341, 5.830e-4
-1.340, 5.681e-4
-1.339, 5.541e-4
-1.338, 5.369e-4
-1.337, 5.179e-4
-1.336, 5.013e-4
-1.335, 4.879e-4
-1.334, 4.760e-4
-1.333, 4.597e-4
-1.332, 4.427e-4
-1.331, 4.263e-4
-1.330, 4.149e-4
-1.329, 4.047e-4
-1.328, 3.911e-4
-1.327, 3.747e-4
-1.326, 3.591e-4
-1.325, 3.495e-4
-1.324, 3.403e-4
-1.323, 3.277e-4
-1.322, 3.131e-4
-1.321, 3.002e-4
-1.320, 2.916e-4
-1.319, 2.836e-4
-1.318, 2.720e-4
-1.317, 2.588e-4
-1.316, 2.470e-4
-1.315, 2.400e-4
-1.314, 2.329e-4
-1.313, 2.221e-4
-1.312, 2.103e-4
-1.311, 2.002e-4
-1.310, 1.930e-4
-1.309, 1.882e-4
-1.308, 1.787e-4
-1.307, 1.673e-4
-1.306, 1.576e-4
-1.305, 1.519e-4
-1.304, 1.481e-4
-1.303, 1.394e-4
-1.302, 1.291e-4
-1.301, 1.209e-4
-1.300, 1.157e-4
-1.299, 1.125e-4
-1.298, 1.053e-4
-1.297, 9.484e-5
-1.296, 8.794e-5
-1.295, 8.432e-5
-1.294, 8.085e-5
-1.293, 7.485e-5
-1.292, 6.511e-5
-1.291, 5.858e-5
-1.290, 5.585e-5
-1.289, 5.302e-5
-1.288, 4.805e-5
-1.287, 3.934e-5
-1.286, 3.261e-5
-1.285, 3.067e-5
-1.284, 2.925e-5
-1.283, 2.390e-5
-1.282, 1.622e-5
-1.281, 1.017e-5
-1.280, 7.876e-6
-1.279, 7.720e-6
-1.278, 3.235e-6
-1.277, -3.648e-6
-1.276, -9.310e-6
-1.275, -1.021e-5
-1.274, -1.035e-5
-1.273, -1.515e-5
-1.272, -2.095e-5
-1.271, -2.611e-5
-1.270, -2.726e-5
-1.269, -2.672e-5
-1.268, -3.030e-5
-1.267, -3.679e-5
-1.266, -4.084e-5
-1.265, -4.170e-5
-1.264, -4.072e-5
-1.263, -4.399e-5
-1.262, -5.021e-5
-1.261, -5.349e-5
-1.260, -5.404e-5
-1.259, -5.313e-5
-1.258, -5.546e-5
-1.257, -6.141e-5
-1.256, -6.457e-5
-1.255, -6.467e-5
-1.254, -6.408e-5
-1.253, -6.573e-5
-1.252, -7.082e-5
-1.251, -7.433e-5
-1.250, -7.380e-5
-1.249, -7.280e-5
-1.248, -7.407e-5
-1.247, -7.936e-5
-1.246, -8.271e-5
-1.245, -8.183e-5
-1.244, -8.045e-5
-1.243, -8.170e-5
-1.242, -8.669e-5
-1.241, -8.990e-5
-1.240, -8.822e-5
-1.239, -8.676e-5
-1.238, -8.845e-5
-1.237, -9.245e-5
-1.236, -9.531e-5
-1.235, -9.442e-5
-1.234, -9.220e-5
-1.233, -9.391e-5
-1.232, -9.753e-5
-1.231, -1.006e-4
-1.230, -9.955e-5
-1.229, -9.892e-5
-1.228, -9.872e-5
-1.227, -1.026e-4
-1.226, -1.047e-4
-1.225, -1.036e-4
-1.224, -1.004e-4
-1.223, -1.019e-4
-1.222, -1.064e-4
-1.221, -1.080e-4
-1.220, -1.067e-4
-1.219, -1.046e-4
-1.218, -1.055e-4
-1.217, -1.095e-4
-1.216, -1.113e-4
-1.215, -1.095e-4
-1.214, -1.073e-4
-1.213, -1.077e-4
-1.212, -1.121e-4
-1.211, -1.137e-4
-1.210, -1.118e-4
-1.209, -1.098e-4
-1.208, -1.102e-4
-1.207, -1.140e-4
-1.206, -1.162e-4
-1.205, -1.141e-4
-1.204, -1.116e-4
-1.203, -1.125e-4
-1.202, -1.157e-4
-1.201, -1.180e-4
-1.200, -1.157e-4
-1.199, -1.131e-4
-1.198, -1.142e-4
-1.197, -1.176e-4
-1.196, -1.192e-4
-1.195, -1.177e-4
-1.194, -1.143e-4
-1.193, -1.154e-4
-1.192, -1.187e-4
-1.191, -1.204e-4
-1.190, -1.191e-4
-1.189, -1.155e-4
-1.188, -1.164e-4
-1.187, -1.200e-4
-1.186, -1.215e-4
-1.185, -1.196e-4
-1.184, -1.167e-4
-1.183, -1.174e-4
-1.182, -1.210e-4
-1.181, -1.224e-4
-1.180, -1.208e-4
-1.179, -1.178e-4
-1.178, -1.190e-4
-1.177, -1.222e-4
-1.176, -1.233e-4
-1.175, -1.212e-4
-1.174, -1.185e-4
-1.173, -1.190e-4
-1.172, -1.225e-4
-1.171, -1.243e-4
-1.170, -1.217e-4
-1.169, -1.192e-4
-1.168, -1.193e-4
-1.167, -1.226e-4
-1.166, -1.247e-4
-1.165, -1.224e-4
-1.164, -1.197e-4
-1.163, -1.203e-4
-1.162, -1.232e-4
-1.161, -1.254e-4
-1.160, -1.231e-4
-1.159, -1.200e-4
-1.158, -1.207e-4
-1.157, -1.234e-4
-1.156, -1.256e-4
-1.155, -1.238e-4
-1.154, -1.205e-4
-1.153, -1.213e-4
-1.152, -1.242e-4
-1.151, -1.263e-4
-1.150, -1.246e-4
-1.149, -1.211e-4
-1.148, -1.217e-4
-1.147, -1.250e-4
-1.146, -1.269e-4
-1.145, -1.251e-4
-1.144, -1.217e-4
-1.143, -1.223e-4
-1.142, -1.260e-4
-1.141, -1.270e-4
-1.140, -1.255e-4
-1.139, -1.226e-4
-1.138, -1.226e-4
-1.137, -1.267e-4
-1.136, -1.279e-4
-1.135, -1.261e-4
-1.134, -1.229e-4
-1.133, -1.229e-4
-1.132, -1.264e-4
-1.131, -1.288e-4
-1.130, -1.263e-4
-1.129, -1.239e-4
-1.128, -1.235e-4
-1.127, -1.269e-4
-1.126, -1.290e-4
-1.125, -1.268e-4
-1.124, -1.244e-4
-1.123, -1.245e-4
-1.122, -1.279e-4
-1.121, -1.300e-4
-1.120, -1.279e-4
-1.119, -1.246e-4
-1.118, -1.254e-4
-1.117, -1.282e-4
-1.116, -1.303e-4
-1.115, -1.282e-4
-1.114, -1.250e-4
-1.113, -1.260e-4
-1.112, -1.284e-4
-1.111, -1.308e-4
-1.110, -1.295e-4
-1.109, -1.254e-4
-1.108, -1.260e-4
-1.107, -1.293e-4
-1.106, -1.313e-4
-1.105, -1.295e-4
-1.104, -1.262e-4
-1.103, -1.266e-4
-1.102, -1.303e-4
-1.101, -1.320e-4
-1.100, -1.305e-4
-1.099, -1.273e-4
-1.098, -1.273e-4
-1.097, -1.310e-4
-1.096, -1.324e-4
-1.095, -1.309e-4
-1.094, -1.279e-4
-1.093, -1.279e-4
-1.092, -1.312e-4
-1.091, -1.335e-4
-1.090, -1.314e-4
-1.089, -1.293e-4
-1.088, -1.290e-4
-1.087, -1.321e-4
-1.086, -1.347e-4
-1.085, -1.321e-4
-1.084, -1.295e-4
-1.083, -1.296e-4
-1.082, -1.330e-4
-1.081, -1.354e-4
-1.080, -1.329e-4
-1.079, -1.302e-4
-1.078, -1.308e-4
-1.077, -1.338e-4
-1.076, -1.364e-4
-1.075, -1.353e-4
-1.074, -1.316e-4
-1.073, -1.317e-4
-1.072, -1.344e-4
-1.071, -1.370e-4
-1.070, -1.358e-4
-1.069, -1.320e-4
-1.068, -1.323e-4
-1.067, -1.359e-4
-1.066, -1.382e-4
-1.065, -1.369e-4
-1.064, -1.332e-4
-1.063, -1.338e-4
-1.062, -1.372e-4
-1.061, -1.392e-4
-1.060, -1.379e-4
-1.059, -1.348e-4
-1.058, -1.342e-4
-1.057, -1.388e-4
-1.056, -1.404e-4
-1.055, -1.395e-4
-1.054, -1.362e-4
-1.053, -1.362e-4
-1.052, -1.401e-4
-1.051, -1.420e-4
-1.050, -1.405e-4
-1.049, -1.380e-4
-1.048, -1.380e-4
-1.047, -1.418e-4
-1.046, -1.449e-4
-1.045, -1.424e-4
-1.044, -1.397e-4
-1.043, -1.403e-4
-1.042, -1.436e-4
-1.041, -1.464e-4
-1.040, -1.445e-4
-1.039, -1.419e-4
-1.038, -1.424e-4
-1.037, -1.456e-4
-1.036, -1.485e-4
-1.035, -1.470e-4
-1.034, -1.443e-4
-1.033, -1.451e-4
-1.032, -1.480e-4
-1.031, -1.508e-4
-1.030, -1.503e-4
-1.029, -1.472e-4
-1.028, -1.476e-4
-1.027, -1.515e-4
-1.026, -1.543e-4
-1.025, -1.535e-4
-1.024, -1.508e-4
-1.023, -1.515e-4
-1.022, -1.553e-4
-1.021, -1.579e-4
-1.020, -1.569e-4
-1.019, -1.541e-4
-1.018, -1.552e-4
-1.017, -1.597e-4
-1.016, -1.619e-4
-1.015, -1.614e-4
-1.014, -1.593e-4
-1.013, -1.598e-4
-1.012, -1.642e-4
-1.011, -1.673e-4
-1.010, -1.667e-4
-1.009, -1.648e-4
-1.008, -1.655e-4
-1.007, -1.698e-4
-1.006, -1.734e-4
-1.005, -1.722e-4
-1.004, -1.710e-4
-1.003, -1.723e-4
-1.002, -1.766e-4
-1.001, -1.806e-4
