Apr. 19, 2025   12:19:47
Cyclic Voltammetry
File: c:/users/guazh/data/banditlqround7_x0exp590_r20/2025-04-16-exp1127\exp1127-2025-04-19t12_14_53-arkoh\exp1127_cv_50mvs_efin_-1400mv.bin
Data Source:  Experiment
Instrument Model:  CHI760E
Header: CV ran at 50 mVs
Note: 

Init E (V) = -1
High E (V) = -1
Low E (V) = -1.4
Final E (V) = -1
Init P/N = N
Scan Rate (V/s) = 0.05
Segment = 7
Sample Interval (V) = 0.001
Quiet Time (sec) = 60
Sensitivity (A/V) = 0.001
Comp R (ohm) = 1.4

Results:

Channel 1:
Segment 1:

Segment 2:

Segment 3:

Segment 4:

Segment 5:

Segment 6:

Segment 7:

Potential/V, Current/A

-1.000, 1.858e-5
-1.001, 2.312e-5
-1.002, 2.347e-5
-1.003, 2.233e-5
-1.004, 2.253e-5
-1.005, 2.429e-5
-1.006, 2.579e-5
-1.007, 2.534e-5
-1.008, 2.376e-5
-1.009, 2.368e-5
-1.010, 2.541e-5
-1.011, 2.682e-5
-1.012, 2.613e-5
-1.013, 2.478e-5
-1.014, 2.450e-5
-1.015, 2.619e-5
-1.016, 2.758e-5
-1.017, 2.694e-5
-1.018, 2.556e-5
-1.019, 2.530e-5
-1.020, 2.686e-5
-1.021, 2.831e-5
-1.022, 2.777e-5
-1.023, 2.622e-5
-1.024, 2.612e-5
-1.025, 2.766e-5
-1.026, 2.922e-5
-1.027, 2.837e-5
-1.028, 2.696e-5
-1.029, 2.691e-5
-1.030, 2.844e-5
-1.031, 2.994e-5
-1.032, 2.924e-5
-1.033, 2.766e-5
-1.034, 2.780e-5
-1.035, 2.918e-5
-1.036, 3.064e-5
-1.037, 3.001e-5
-1.038, 2.854e-5
-1.039, 2.866e-5
-1.040, 3.022e-5
-1.041, 3.150e-5
-1.042, 3.095e-5
-1.043, 2.951e-5
-1.044, 2.967e-5
-1.045, 3.117e-5
-1.046, 3.259e-5
-1.047, 3.206e-5
-1.048, 3.053e-5
-1.049, 3.053e-5
-1.050, 3.233e-5
-1.051, 3.378e-5
-1.052, 3.299e-5
-1.053, 3.167e-5
-1.054, 3.168e-5
-1.055, 3.345e-5
-1.056, 3.484e-5
-1.057, 3.410e-5
-1.058, 3.292e-5
-1.059, 3.286e-5
-1.060, 3.467e-5
-1.061, 3.611e-5
-1.062, 3.553e-5
-1.063, 3.416e-5
-1.064, 3.422e-5
-1.065, 3.593e-5
-1.066, 3.747e-5
-1.067, 3.697e-5
-1.068, 3.564e-5
-1.069, 3.579e-5
-1.070, 3.750e-5
-1.071, 3.913e-5
-1.072, 3.849e-5
-1.073, 3.720e-5
-1.074, 3.750e-5
-1.075, 3.918e-5
-1.076, 4.082e-5
-1.077, 4.037e-5
-1.078, 3.896e-5
-1.079, 3.921e-5
-1.080, 4.097e-5
-1.081, 4.257e-5
-1.082, 4.218e-5
-1.083, 4.083e-5
-1.084, 4.110e-5
-1.085, 4.303e-5
-1.086, 4.474e-5
-1.087, 4.418e-5
-1.088, 4.286e-5
-1.089, 4.330e-5
-1.090, 4.530e-5
-1.091, 4.688e-5
-1.092, 4.643e-5
-1.093, 4.528e-5
-1.094, 4.551e-5
-1.095, 4.762e-5
-1.096, 4.929e-5
-1.097, 4.884e-5
-1.098, 4.794e-5
-1.099, 4.803e-5
-1.100, 5.012e-5
-1.101, 5.195e-5
-1.102, 5.155e-5
-1.103, 5.054e-5
-1.104, 5.087e-5
-1.105, 5.296e-5
-1.106, 5.494e-5
-1.107, 5.441e-5
-1.108, 5.350e-5
-1.109, 5.398e-5
-1.110, 5.604e-5
-1.111, 5.798e-5
-1.112, 5.765e-5
-1.113, 5.678e-5
-1.114, 5.708e-5
-1.115, 5.930e-5
-1.116, 6.127e-5
-1.117, 6.109e-5
-1.118, 6.018e-5
-1.119, 6.074e-5
-1.120, 6.283e-5
-1.121, 6.505e-5
-1.122, 6.478e-5
-1.123, 6.388e-5
-1.124, 6.454e-5
-1.125, 6.691e-5
-1.126, 6.896e-5
-1.127, 6.883e-5
-1.128, 6.791e-5
-1.129, 6.863e-5
-1.130, 7.117e-5
-1.131, 7.328e-5
-1.132, 7.319e-5
-1.133, 7.246e-5
-1.134, 7.322e-5
-1.135, 7.567e-5
-1.136, 7.789e-5
-1.137, 7.800e-5
-1.138, 7.734e-5
-1.139, 7.808e-5
-1.140, 8.062e-5
-1.141, 8.301e-5
-1.142, 8.293e-5
-1.143, 8.238e-5
-1.144, 8.311e-5
-1.145, 8.569e-5
-1.146, 8.826e-5
-1.147, 8.824e-5
-1.148, 8.779e-5
-1.149, 8.863e-5
-1.150, 9.128e-5
-1.151, 9.387e-5
-1.152, 9.394e-5
-1.153, 9.341e-5
-1.154, 9.452e-5
-1.155, 9.720e-5
-1.156, 9.976e-5
-1.157, 9.990e-5
-1.158, 9.960e-5
-1.159, 1.006e-4
-1.160, 1.035e-4
-1.161, 1.060e-4
-1.162, 1.064e-4
-1.163, 1.058e-4
-1.164, 1.070e-4
-1.165, 1.100e-4
-1.166, 1.126e-4
-1.167, 1.129e-4
-1.168, 1.125e-4
-1.169, 1.138e-4
-1.170, 1.168e-4
-1.171, 1.194e-4
-1.172, 1.198e-4
-1.173, 1.194e-4
-1.174, 1.207e-4
-1.175, 1.238e-4
-1.176, 1.263e-4
-1.177, 1.268e-4
-1.178, 1.268e-4
-1.179, 1.278e-4
-1.180, 1.310e-4
-1.181, 1.337e-4
-1.182, 1.342e-4
-1.183, 1.341e-4
-1.184, 1.353e-4
-1.185, 1.385e-4
-1.186, 1.413e-4
-1.187, 1.416e-4
-1.188, 1.415e-4
-1.189, 1.428e-4
-1.190, 1.459e-4
-1.191, 1.490e-4
-1.192, 1.494e-4
-1.193, 1.493e-4
-1.194, 1.508e-4
-1.195, 1.538e-4
-1.196, 1.568e-4
-1.197, 1.574e-4
-1.198, 1.571e-4
-1.199, 1.587e-4
-1.200, 1.617e-4
-1.201, 1.647e-4
-1.202, 1.652e-4
-1.203, 1.652e-4
-1.204, 1.666e-4
-1.205, 1.699e-4
-1.206, 1.728e-4
-1.207, 1.735e-4
-1.208, 1.732e-4
-1.209, 1.749e-4
-1.210, 1.782e-4
-1.211, 1.809e-4
-1.212, 1.814e-4
-1.213, 1.812e-4
-1.214, 1.826e-4
-1.215, 1.857e-4
-1.216, 1.885e-4
-1.217, 1.891e-4
-1.218, 1.890e-4
-1.219, 1.902e-4
-1.220, 1.936e-4
-1.221, 1.963e-4
-1.222, 1.966e-4
-1.223, 1.967e-4
-1.224, 1.978e-4
-1.225, 2.010e-4
-1.226, 2.038e-4
-1.227, 2.039e-4
-1.228, 2.041e-4
-1.229, 2.054e-4
-1.230, 2.083e-4
-1.231, 2.110e-4
-1.232, 2.114e-4
-1.233, 2.109e-4
-1.234, 2.122e-4
-1.235, 2.151e-4
-1.236, 2.178e-4
-1.237, 2.180e-4
-1.238, 2.176e-4
-1.239, 2.188e-4
-1.240, 2.217e-4
-1.241, 2.241e-4
-1.242, 2.246e-4
-1.243, 2.240e-4
-1.244, 2.252e-4
-1.245, 2.280e-4
-1.246, 2.304e-4
-1.247, 2.307e-4
-1.248, 2.302e-4
-1.249, 2.312e-4
-1.250, 2.339e-4
-1.251, 2.364e-4
-1.252, 2.365e-4
-1.253, 2.361e-4
-1.254, 2.371e-4
-1.255, 2.400e-4
-1.256, 2.423e-4
-1.257, 2.423e-4
-1.258, 2.418e-4
-1.259, 2.427e-4
-1.260, 2.455e-4
-1.261, 2.479e-4
-1.262, 2.479e-4
-1.263, 2.477e-4
-1.264, 2.486e-4
-1.265, 2.516e-4
-1.266, 2.539e-4
-1.267, 2.539e-4
-1.268, 2.535e-4
-1.269, 2.547e-4
-1.270, 2.575e-4
-1.271, 2.599e-4
-1.272, 2.600e-4
-1.273, 2.598e-4
-1.274, 2.610e-4
-1.275, 2.642e-4
-1.276, 2.666e-4
-1.277, 2.666e-4
-1.278, 2.665e-4
-1.279, 2.681e-4
-1.280, 2.713e-4
-1.281, 2.737e-4
-1.282, 2.743e-4
-1.283, 2.740e-4
-1.284, 2.758e-4
-1.285, 2.790e-4
-1.286, 2.819e-4
-1.287, 2.826e-4
-1.288, 2.826e-4
-1.289, 2.842e-4
-1.290, 2.880e-4
-1.291, 2.909e-4
-1.292, 2.918e-4
-1.293, 2.920e-4
-1.294, 2.941e-4
-1.295, 2.980e-4
-1.296, 3.013e-4
-1.297, 3.024e-4
-1.298, 3.030e-4
-1.299, 3.050e-4
-1.300, 3.093e-4
-1.301, 3.130e-4
-1.302, 3.143e-4
-1.303, 3.151e-4
-1.304, 3.178e-4
-1.305, 3.222e-4
-1.306, 3.262e-4
-1.307, 3.278e-4
-1.308, 3.292e-4
-1.309, 3.322e-4
-1.310, 3.370e-4
-1.311, 3.416e-4
-1.312, 3.436e-4
-1.313, 3.451e-4
-1.314, 3.483e-4
-1.315, 3.538e-4
-1.316, 3.584e-4
-1.317, 3.609e-4
-1.318, 3.629e-4
-1.319, 3.669e-4
-1.320, 3.724e-4
-1.321, 3.776e-4
-1.322, 3.805e-4
-1.323, 3.829e-4
-1.324, 3.874e-4
-1.325, 3.935e-4
-1.326, 3.992e-4
-1.327, 4.028e-4
-1.328, 4.057e-4
-1.329, 4.103e-4
-1.330, 4.173e-4
-1.331, 4.234e-4
-1.332, 4.273e-4
-1.333, 4.308e-4
-1.334, 4.363e-4
-1.335, 4.436e-4
-1.336, 4.505e-4
-1.337, 4.552e-4
-1.338, 4.590e-4
-1.339, 4.648e-4
-1.340, 4.730e-4
-1.341, 4.805e-4
-1.342, 4.855e-4
-1.343, 4.905e-4
-1.344, 4.969e-4
-1.345, 5.054e-4
-1.346, 5.136e-4
-1.347, 5.193e-4
-1.348, 5.248e-4
-1.349, 5.320e-4
-1.350, 5.413e-4
-1.351, 5.502e-4
-1.352, 5.568e-4
-1.353, 5.629e-4
-1.354, 5.708e-4
-1.355, 5.807e-4
-1.356, 5.904e-4
-1.357, 5.978e-4
-1.358, 6.046e-4
-1.359, 6.134e-4
-1.360, 6.244e-4
-1.361, 6.347e-4
-1.362, 6.431e-4
-1.363, 6.507e-4
-1.364, 6.606e-4
-1.365, 6.725e-4
-1.366, 6.835e-4
-1.367, 6.929e-4
-1.368, 7.020e-4
-1.369, 7.130e-4
-1.370, 7.257e-4
-1.371, 7.382e-4
-1.372, 7.484e-4
-1.373, 7.582e-4
-1.374, 7.699e-4
-1.375, 7.840e-4
-1.376, 7.979e-4
-1.377, 8.089e-4
-1.378, 8.201e-4
-1.379, 8.331e-4
-1.380, 8.483e-4
-1.381, 8.631e-4
-1.382, 8.761e-4
-1.383, 8.888e-4
-1.384, 9.025e-4
-1.385, 9.189e-4
-1.386, 9.352e-4
-1.387, 9.495e-4
-1.388, 9.634e-4
-1.389, 9.786e-4
-1.390, 9.962e-4
-1.391, 1.013e-3
-1.392, 1.028e-3
-1.393, 1.044e-3
-1.394, 1.061e-3
-1.395, 1.081e-3
-1.396, 1.100e-3
-1.397, 1.117e-3
-1.398, 1.133e-3
-1.399, 1.151e-3
-1.400, 1.135e-3
-1.399, 1.107e-3
-1.398, 1.081e-3
-1.397, 1.057e-3
-1.396, 1.034e-3
-1.395, 1.014e-3
-1.394, 9.938e-4
-1.393, 9.715e-4
-1.392, 9.494e-4
-1.391, 9.295e-4
-1.390, 9.113e-4
-1.389, 8.935e-4
-1.388, 8.736e-4
-1.387, 8.534e-4
-1.386, 8.356e-4
-1.385, 8.196e-4
-1.384, 8.034e-4
-1.383, 7.852e-4
-1.382, 7.665e-4
-1.381, 7.500e-4
-1.380, 7.357e-4
-1.379, 7.212e-4
-1.378, 7.048e-4
-1.377, 6.877e-4
-1.376, 6.732e-4
-1.375, 6.605e-4
-1.374, 6.474e-4
-1.373, 6.323e-4
-1.372, 6.166e-4
-1.371, 6.030e-4
-1.370, 5.920e-4
-1.369, 5.800e-4
-1.368, 5.663e-4
-1.367, 5.522e-4
-1.366, 5.400e-4
-1.365, 5.302e-4
-1.364, 5.195e-4
-1.363, 5.067e-4
-1.362, 4.939e-4
-1.361, 4.828e-4
-1.360, 4.740e-4
-1.359, 4.642e-4
-1.358, 4.527e-4
-1.357, 4.409e-4
-1.356, 4.309e-4
-1.355, 4.230e-4
-1.354, 4.147e-4
-1.353, 4.040e-4
-1.352, 3.932e-4
-1.351, 3.841e-4
-1.350, 3.770e-4
-1.349, 3.695e-4
-1.348, 3.596e-4
-1.347, 3.495e-4
-1.346, 3.417e-4
-1.345, 3.356e-4
-1.344, 3.288e-4
-1.343, 3.199e-4
-1.342, 3.105e-4
-1.341, 3.034e-4
-1.340, 2.982e-4
-1.339, 2.920e-4
-1.338, 2.841e-4
-1.337, 2.755e-4
-1.336, 2.691e-4
-1.335, 2.645e-4
-1.334, 2.591e-4
-1.333, 2.518e-4
-1.332, 2.439e-4
-1.331, 2.380e-4
-1.330, 2.343e-4
-1.329, 2.295e-4
-1.328, 2.226e-4
-1.327, 2.154e-4
-1.326, 2.104e-4
-1.325, 2.070e-4
-1.324, 2.028e-4
-1.323, 1.963e-4
-1.322, 1.899e-4
-1.321, 1.852e-4
-1.320, 1.825e-4
-1.319, 1.788e-4
-1.318, 1.730e-4
-1.317, 1.670e-4
-1.316, 1.629e-4
-1.315, 1.605e-4
-1.314, 1.574e-4
-1.313, 1.519e-4
-1.312, 1.463e-4
-1.311, 1.425e-4
-1.310, 1.408e-4
-1.309, 1.380e-4
-1.308, 1.331e-4
-1.307, 1.278e-4
-1.306, 1.247e-4
-1.305, 1.232e-4
-1.304, 1.208e-4
-1.303, 1.163e-4
-1.302, 1.113e-4
-1.301, 1.087e-4
-1.300, 1.074e-4
-1.299, 1.053e-4
-1.298, 1.012e-4
-1.297, 9.654e-5
-1.296, 9.394e-5
-1.295, 9.341e-5
-1.294, 9.157e-5
-1.293, 8.759e-5
-1.292, 8.325e-5
-1.291, 8.091e-5
-1.290, 8.069e-5
-1.289, 7.896e-5
-1.288, 7.544e-5
-1.287, 7.142e-5
-1.286, 6.933e-5
-1.285, 6.937e-5
-1.284, 6.789e-5
-1.283, 6.447e-5
-1.282, 6.077e-5
-1.281, 5.898e-5
-1.280, 5.894e-5
-1.279, 5.790e-5
-1.278, 5.452e-5
-1.277, 5.126e-5
-1.276, 4.960e-5
-1.275, 4.987e-5
-1.274, 4.906e-5
-1.273, 4.587e-5
-1.272, 4.270e-5
-1.271, 4.137e-5
-1.270, 4.173e-5
-1.269, 4.107e-5
-1.268, 3.814e-5
-1.267, 3.482e-5
-1.266, 3.403e-5
-1.265, 3.448e-5
-1.264, 3.398e-5
-1.263, 3.129e-5
-1.262, 2.817e-5
-1.261, 2.729e-5
-1.260, 2.790e-5
-1.259, 2.752e-5
-1.258, 2.514e-5
-1.257, 2.208e-5
-1.256, 2.147e-5
-1.255, 2.217e-5
-1.254, 2.187e-5
-1.253, 1.942e-5
-1.252, 1.672e-5
-1.251, 1.588e-5
-1.250, 1.696e-5
-1.249, 1.671e-5
-1.248, 1.445e-5
-1.247, 1.190e-5
-1.246, 1.106e-5
-1.245, 1.232e-5
-1.244, 1.220e-5
-1.243, 9.889e-6
-1.242, 7.491e-6
-1.241, 6.787e-6
-1.240, 8.088e-6
-1.239, 8.164e-6
-1.238, 5.861e-6
-1.237, 3.545e-6
-1.236, 3.117e-6
-1.235, 4.268e-6
-1.234, 4.481e-6
-1.233, 2.181e-6
-1.232, -1.204e-8
-1.231, -4.195e-7
-1.230, 8.868e-7
-1.229, 7.437e-7
-1.228, -1.048e-6
-1.227, -3.272e-6
-1.226, -3.534e-6
-1.225, -2.187e-6
-1.224, -1.859e-6
-1.223, -3.932e-6
-1.222, -6.189e-6
-1.221, -6.156e-6
-1.220, -4.876e-6
-1.219, -4.680e-6
-1.218, -6.582e-6
-1.217, -8.679e-6
-1.216, -8.687e-6
-1.215, -7.304e-6
-1.214, -7.150e-6
-1.213, -8.781e-6
-1.212, -1.095e-5
-1.211, -1.112e-5
-1.210, -9.469e-6
-1.209, -9.175e-6
-1.208, -1.103e-5
-1.207, -1.287e-5
-1.206, -1.314e-5
-1.205, -1.128e-5
-1.204, -1.101e-5
-1.203, -1.301e-5
-1.202, -1.484e-5
-1.201, -1.485e-5
-1.200, -1.312e-5
-1.199, -1.267e-5
-1.198, -1.455e-5
-1.197, -1.646e-5
-1.196, -1.652e-5
-1.195, -1.492e-5
-1.194, -1.444e-5
-1.193, -1.616e-5
-1.192, -1.788e-5
-1.191, -1.785e-5
-1.190, -1.636e-5
-1.189, -1.569e-5
-1.188, -1.744e-5
-1.187, -1.952e-5
-1.186, -1.903e-5
-1.185, -1.752e-5
-1.184, -1.689e-5
-1.183, -1.862e-5
-1.182, -2.055e-5
-1.181, -2.017e-5
-1.180, -1.836e-5
-1.179, -1.809e-5
-1.178, -1.989e-5
-1.177, -2.166e-5
-1.176, -2.130e-5
-1.175, -1.957e-5
-1.174, -1.907e-5
-1.173, -2.066e-5
-1.172, -2.253e-5
-1.171, -2.229e-5
-1.170, -2.031e-5
-1.169, -1.989e-5
-1.168, -2.154e-5
-1.167, -2.320e-5
-1.166, -2.311e-5
-1.165, -2.110e-5
-1.164, -2.049e-5
-1.163, -2.229e-5
-1.162, -2.402e-5
-1.161, -2.358e-5
-1.160, -2.172e-5
-1.159, -2.114e-5
-1.158, -2.313e-5
-1.157, -2.473e-5
-1.156, -2.423e-5
-1.155, -2.251e-5
-1.154, -2.188e-5
-1.153, -2.380e-5
-1.152, -2.553e-5
-1.151, -2.494e-5
-1.150, -2.315e-5
-1.149, -2.259e-5
-1.148, -2.419e-5
-1.147, -2.580e-5
-1.146, -2.516e-5
-1.145, -2.348e-5
-1.144, -2.270e-5
-1.143, -2.450e-5
-1.142, -2.621e-5
-1.141, -2.562e-5
-1.140, -2.355e-5
-1.139, -2.311e-5
-1.138, -2.479e-5
-1.137, -2.638e-5
-1.136, -2.575e-5
-1.135, -2.383e-5
-1.134, -2.346e-5
-1.133, -2.481e-5
-1.132, -2.661e-5
-1.131, -2.600e-5
-1.130, -2.401e-5
-1.129, -2.332e-5
-1.128, -2.512e-5
-1.127, -2.653e-5
-1.126, -2.619e-5
-1.125, -2.410e-5
-1.124, -2.345e-5
-1.123, -2.519e-5
-1.122, -2.677e-5
-1.121, -2.619e-5
-1.120, -2.405e-5
-1.119, -2.355e-5
-1.118, -2.539e-5
-1.117, -2.675e-5
-1.116, -2.609e-5
-1.115, -2.419e-5
-1.114, -2.353e-5
-1.113, -2.538e-5
-1.112, -2.675e-5
-1.111, -2.597e-5
-1.110, -2.415e-5
-1.109, -2.345e-5
-1.108, -2.526e-5
-1.107, -2.690e-5
-1.106, -2.602e-5
-1.105, -2.420e-5
-1.104, -2.353e-5
-1.103, -2.541e-5
-1.102, -2.703e-5
-1.101, -2.623e-5
-1.100, -2.423e-5
-1.099, -2.387e-5
-1.098, -2.543e-5
-1.097, -2.712e-5
-1.096, -2.612e-5
-1.095, -2.416e-5
-1.094, -2.390e-5
-1.093, -2.546e-5
-1.092, -2.704e-5
-1.091, -2.640e-5
-1.090, -2.436e-5
-1.089, -2.400e-5
-1.088, -2.549e-5
-1.087, -2.707e-5
-1.086, -2.661e-5
-1.085, -2.449e-5
-1.084, -2.413e-5
-1.083, -2.575e-5
-1.082, -2.725e-5
-1.081, -2.662e-5
-1.080, -2.452e-5
-1.079, -2.412e-5
-1.078, -2.601e-5
-1.077, -2.734e-5
-1.076, -2.669e-5
-1.075, -2.485e-5
-1.074, -2.431e-5
-1.073, -2.596e-5
-1.072, -2.738e-5
-1.071, -2.668e-5
-1.070, -2.482e-5
-1.069, -2.435e-5
-1.068, -2.596e-5
-1.067, -2.766e-5
-1.066, -2.671e-5
-1.065, -2.497e-5
-1.064, -2.451e-5
-1.063, -2.621e-5
-1.062, -2.785e-5
-1.061, -2.690e-5
-1.060, -2.494e-5
-1.059, -2.484e-5
-1.058, -2.643e-5
-1.057, -2.817e-5
-1.056, -2.720e-5
-1.055, -2.539e-5
-1.054, -2.501e-5
-1.053, -2.669e-5
-1.052, -2.825e-5
-1.051, -2.754e-5
-1.050, -2.551e-5
-1.049, -2.527e-5
-1.048, -2.693e-5
-1.047, -2.850e-5
-1.046, -2.798e-5
-1.045, -2.575e-5
-1.044, -2.544e-5
-1.043, -2.730e-5
-1.042, -2.886e-5
-1.041, -2.814e-5
-1.040, -2.605e-5
-1.039, -2.586e-5
-1.038, -2.766e-5
-1.037, -2.918e-5
-1.036, -2.835e-5
-1.035, -2.667e-5
-1.034, -2.614e-5
-1.033, -2.805e-5
-1.032, -2.954e-5
-1.031, -2.877e-5
-1.030, -2.694e-5
-1.029, -2.650e-5
-1.028, -2.845e-5
-1.027, -3.018e-5
-1.026, -2.925e-5
-1.025, -2.733e-5
-1.024, -2.709e-5
-1.023, -2.902e-5
-1.022, -3.049e-5
-1.021, -2.962e-5
-1.020, -2.778e-5
-1.019, -2.767e-5
-1.018, -2.936e-5
-1.017, -3.103e-5
-1.016, -3.013e-5
-1.015, -2.824e-5
-1.014, -2.803e-5
-1.013, -2.982e-5
-1.012, -3.148e-5
-1.011, -3.075e-5
-1.010, -2.875e-5
-1.009, -2.867e-5
-1.008, -3.035e-5
-1.007, -3.199e-5
-1.006, -3.140e-5
-1.005, -2.921e-5
-1.004, -2.904e-5
-1.003, -3.097e-5
-1.002, -3.260e-5
-1.001, -3.192e-5
-1.000, -6.521e-6
-1.001, 3.796e-6
-1.002, 5.930e-6
-1.003, 6.917e-6
-1.004, 9.737e-6
-1.005, 1.334e-5
-1.006, 1.479e-5
-1.007, 1.426e-5
-1.008, 1.368e-5
-1.009, 1.546e-5
-1.010, 1.836e-5
-1.011, 1.942e-5
-1.012, 1.832e-5
-1.013, 1.743e-5
-1.014, 1.898e-5
-1.015, 2.173e-5
-1.016, 2.235e-5
-1.017, 2.115e-5
-1.018, 2.019e-5
-1.019, 2.159e-5
-1.020, 2.416e-5
-1.021, 2.481e-5
-1.022, 2.327e-5
-1.023, 2.241e-5
-1.024, 2.390e-5
-1.025, 2.594e-5
-1.026, 2.675e-5
-1.027, 2.517e-5
-1.028, 2.406e-5
-1.029, 2.556e-5
-1.030, 2.761e-5
-1.031, 2.826e-5
-1.032, 2.661e-5
-1.033, 2.560e-5
-1.034, 2.707e-5
-1.035, 2.902e-5
-1.036, 2.964e-5
-1.037, 2.814e-5
-1.038, 2.682e-5
-1.039, 2.837e-5
-1.040, 3.028e-5
-1.041, 3.081e-5
-1.042, 2.937e-5
-1.043, 2.798e-5
-1.044, 2.945e-5
-1.045, 3.147e-5
-1.046, 3.193e-5
-1.047, 3.034e-5
-1.048, 2.906e-5
-1.049, 3.043e-5
-1.050, 3.252e-5
-1.051, 3.281e-5
-1.052, 3.135e-5
-1.053, 3.017e-5
-1.054, 3.139e-5
-1.055, 3.353e-5
-1.056, 3.376e-5
-1.057, 3.212e-5
-1.058, 3.104e-5
-1.059, 3.222e-5
-1.060, 3.428e-5
-1.061, 3.470e-5
-1.062, 3.297e-5
-1.063, 3.179e-5
-1.064, 3.306e-5
-1.065, 3.499e-5
-1.066, 3.549e-5
-1.067, 3.379e-5
-1.068, 3.263e-5
-1.069, 3.396e-5
-1.070, 3.585e-5
-1.071, 3.637e-5
-1.072, 3.453e-5
-1.073, 3.328e-5
-1.074, 3.474e-5
-1.075, 3.679e-5
-1.076, 3.692e-5
-1.077, 3.531e-5
-1.078, 3.411e-5
-1.079, 3.544e-5
-1.080, 3.737e-5
-1.081, 3.766e-5
-1.082, 3.614e-5
-1.083, 3.478e-5
-1.084, 3.611e-5
-1.085, 3.817e-5
-1.086, 3.833e-5
-1.087, 3.675e-5
-1.088, 3.553e-5
-1.089, 3.685e-5
-1.090, 3.898e-5
-1.091, 3.904e-5
-1.092, 3.733e-5
-1.093, 3.631e-5
-1.094, 3.760e-5
-1.095, 3.978e-5
-1.096, 3.976e-5
-1.097, 3.807e-5
-1.098, 3.700e-5
-1.099, 3.831e-5
-1.100, 4.040e-5
-1.101, 4.055e-5
-1.102, 3.889e-5
-1.103, 3.793e-5
-1.104, 3.885e-5
-1.105, 4.099e-5
-1.106, 4.133e-5
-1.107, 3.954e-5
-1.108, 3.845e-5
-1.109, 3.976e-5
-1.110, 4.173e-5
-1.111, 4.202e-5
-1.112, 4.036e-5
-1.113, 3.916e-5
-1.114, 4.052e-5
-1.115, 4.252e-5
-1.116, 4.281e-5
-1.117, 4.112e-5
-1.118, 4.004e-5
-1.119, 4.134e-5
-1.120, 4.339e-5
-1.121, 4.355e-5
-1.122, 4.195e-5
-1.123, 4.072e-5
-1.124, 4.226e-5
-1.125, 4.410e-5
-1.126, 4.440e-5
-1.127, 4.281e-5
-1.128, 4.158e-5
-1.129, 4.293e-5
-1.130, 4.517e-5
-1.131, 4.515e-5
-1.132, 4.353e-5
-1.133, 4.251e-5
-1.134, 4.381e-5
-1.135, 4.604e-5
-1.136, 4.591e-5
-1.137, 4.427e-5
-1.138, 4.345e-5
-1.139, 4.471e-5
-1.140, 4.682e-5
-1.141, 4.704e-5
-1.142, 4.512e-5
-1.143, 4.444e-5
-1.144, 4.562e-5
-1.145, 4.771e-5
-1.146, 4.793e-5
-1.147, 4.604e-5
-1.148, 4.521e-5
-1.149, 4.668e-5
-1.150, 4.863e-5
-1.151, 4.896e-5
-1.152, 4.685e-5
-1.153, 4.619e-5
-1.154, 4.759e-5
-1.155, 4.951e-5
-1.156, 4.983e-5
-1.157, 4.806e-5
-1.158, 4.717e-5
-1.159, 4.866e-5
-1.160, 5.061e-5
-1.161, 5.076e-5
-1.162, 4.917e-5
-1.163, 4.817e-5
-1.164, 4.966e-5
-1.165, 5.179e-5
-1.166, 5.184e-5
-1.167, 5.019e-5
-1.168, 4.926e-5
-1.169, 5.085e-5
-1.170, 5.296e-5
-1.171, 5.288e-5
-1.172, 5.138e-5
-1.173, 5.047e-5
-1.174, 5.201e-5
-1.175, 5.417e-5
-1.176, 5.412e-5
-1.177, 5.251e-5
-1.178, 5.178e-5
-1.179, 5.302e-5
-1.180, 5.516e-5
-1.181, 5.545e-5
-1.182, 5.371e-5
-1.183, 5.298e-5
-1.184, 5.430e-5
-1.185, 5.657e-5
-1.186, 5.667e-5
-1.187, 5.499e-5
-1.188, 5.434e-5
-1.189, 5.584e-5
-1.190, 5.787e-5
-1.191, 5.804e-5
-1.192, 5.639e-5
-1.193, 5.563e-5
-1.194, 5.739e-5
-1.195, 5.927e-5
-1.196, 5.945e-5
-1.197, 5.776e-5
-1.198, 5.707e-5
-1.199, 5.892e-5
-1.200, 6.079e-5
-1.201, 6.090e-5
-1.202, 5.924e-5
-1.203, 5.874e-5
-1.204, 6.049e-5
-1.205, 6.241e-5
-1.206, 6.245e-5
-1.207, 6.101e-5
-1.208, 6.038e-5
-1.209, 6.202e-5
-1.210, 6.423e-5
-1.211, 6.424e-5
-1.212, 6.264e-5
-1.213, 6.223e-5
-1.214, 6.378e-5
-1.215, 6.610e-5
-1.216, 6.600e-5
-1.217, 6.468e-5
-1.218, 6.417e-5
-1.219, 6.574e-5
-1.220, 6.791e-5
-1.221, 6.817e-5
-1.222, 6.668e-5
-1.223, 6.624e-5
-1.224, 6.783e-5
-1.225, 7.009e-5
-1.226, 7.039e-5
-1.227, 6.878e-5
-1.228, 6.864e-5
-1.229, 7.031e-5
-1.230, 7.248e-5
-1.231, 7.277e-5
-1.232, 7.113e-5
-1.233, 7.082e-5
-1.234, 7.269e-5
-1.235, 7.494e-5
-1.236, 7.513e-5
-1.237, 7.383e-5
-1.238, 7.330e-5
-1.239, 7.532e-5
-1.240, 7.772e-5
-1.241, 7.791e-5
-1.242, 7.665e-5
-1.243, 7.615e-5
-1.244, 7.816e-5
-1.245, 8.054e-5
-1.246, 8.094e-5
-1.247, 7.964e-5
-1.248, 7.928e-5
-1.249, 8.128e-5
-1.250, 8.402e-5
-1.251, 8.419e-5
-1.252, 8.299e-5
-1.253, 8.275e-5
-1.254, 8.478e-5
-1.255, 8.757e-5
-1.256, 8.780e-5
-1.257, 8.655e-5
-1.258, 8.664e-5
-1.259, 8.885e-5
-1.260, 9.146e-5
-1.261, 9.184e-5
-1.262, 9.055e-5
-1.263, 9.101e-5
-1.264, 9.298e-5
-1.265, 9.577e-5
-1.266, 9.647e-5
-1.267, 9.521e-5
-1.268, 9.554e-5
-1.269, 9.792e-5
-1.270, 1.006e-4
-1.271, 1.015e-4
-1.272, 1.003e-4
-1.273, 1.008e-4
-1.274, 1.034e-4
-1.275, 1.061e-4
-1.276, 1.069e-4
-1.277, 1.061e-4
-1.278, 1.066e-4
-1.279, 1.094e-4
-1.280, 1.124e-4
-1.281, 1.132e-4
-1.282, 1.126e-4
-1.283, 1.132e-4
-1.284, 1.161e-4
-1.285, 1.192e-4
-1.286, 1.201e-4
-1.287, 1.199e-4
-1.288, 1.207e-4
-1.289, 1.235e-4
-1.290, 1.270e-4
-1.291, 1.283e-4
-1.292, 1.278e-4
-1.293, 1.289e-4
-1.294, 1.321e-4
-1.295, 1.359e-4
-1.296, 1.372e-4
-1.297, 1.371e-4
-1.298, 1.385e-4
-1.299, 1.418e-4
-1.300, 1.456e-4
-1.301, 1.475e-4
-1.302, 1.476e-4
-1.303, 1.492e-4
-1.304, 1.528e-4
-1.305, 1.570e-4
-1.306, 1.592e-4
-1.307, 1.594e-4
-1.308, 1.613e-4
-1.309, 1.655e-4
-1.310, 1.698e-4
-1.311, 1.724e-4
-1.312, 1.731e-4
-1.313, 1.753e-4
-1.314, 1.797e-4
-1.315, 1.845e-4
-1.316, 1.874e-4
-1.317, 1.886e-4
-1.318, 1.910e-4
-1.319, 1.961e-4
-1.320, 2.014e-4
-1.321, 2.045e-4
-1.322, 2.061e-4
-1.323, 2.092e-4
-1.324, 2.146e-4
-1.325, 2.204e-4
-1.326, 2.240e-4
-1.327, 2.264e-4
-1.328, 2.297e-4
-1.329, 2.358e-4
-1.330, 2.423e-4
-1.331, 2.463e-4
-1.332, 2.493e-4
-1.333, 2.534e-4
-1.334, 2.599e-4
-1.335, 2.671e-4
-1.336, 2.716e-4
-1.337, 2.751e-4
-1.338, 2.801e-4
-1.339, 2.871e-4
-1.340, 2.950e-4
-1.341, 3.004e-4
-1.342, 3.047e-4
-1.343, 3.106e-4
-1.344, 3.183e-4
-1.345, 3.266e-4
-1.346, 3.330e-4
-1.347, 3.379e-4
-1.348, 3.441e-4
-1.349, 3.530e-4
-1.350, 3.622e-4
-1.351, 3.694e-4
-1.352, 3.751e-4
-1.353, 3.823e-4
-1.354, 3.920e-4
-1.355, 4.019e-4
-1.356, 4.102e-4
-1.357, 4.166e-4
-1.358, 4.247e-4
-1.359, 4.352e-4
-1.360, 4.461e-4
-1.361, 4.552e-4
-1.362, 4.626e-4
-1.363, 4.716e-4
-1.364, 4.831e-4
-1.365, 4.950e-4
-1.366, 5.048e-4
-1.367, 5.133e-4
-1.368, 5.234e-4
-1.369, 5.356e-4
-1.370, 5.489e-4
-1.371, 5.594e-4
-1.372, 5.692e-4
-1.373, 5.802e-4
-1.374, 5.935e-4
-1.375, 6.073e-4
-1.376, 6.192e-4
-1.377, 6.297e-4
-1.378, 6.423e-4
-1.379, 6.568e-4
-1.380, 6.719e-4
-1.381, 6.849e-4
-1.382, 6.970e-4
-1.383, 7.108e-4
-1.384, 7.260e-4
-1.385, 7.424e-4
-1.386, 7.568e-4
-1.387, 7.695e-4
-1.388, 7.839e-4
-1.389, 8.012e-4
-1.390, 8.189e-4
-1.391, 8.345e-4
-1.392, 8.487e-4
-1.393, 8.649e-4
-1.394, 8.832e-4
-1.395, 9.022e-4
-1.396, 9.191e-4
-1.397, 9.348e-4
-1.398, 9.521e-4
-1.399, 9.723e-4
-1.400, 9.561e-4
-1.399, 9.280e-4
-1.398, 9.036e-4
-1.397, 8.829e-4
-1.396, 8.643e-4
-1.395, 8.461e-4
-1.394, 8.264e-4
-1.393, 8.057e-4
-1.392, 7.875e-4
-1.391, 7.712e-4
-1.390, 7.561e-4
-1.389, 7.387e-4
-1.388, 7.201e-4
-1.387, 7.033e-4
-1.386, 6.892e-4
-1.385, 6.756e-4
-1.384, 6.598e-4
-1.383, 6.428e-4
-1.382, 6.273e-4
-1.381, 6.148e-4
-1.380, 6.026e-4
-1.379, 5.881e-4
-1.378, 5.728e-4
-1.377, 5.589e-4
-1.376, 5.482e-4
-1.375, 5.372e-4
-1.374, 5.239e-4
-1.373, 5.102e-4
-1.372, 4.977e-4
-1.371, 4.876e-4
-1.370, 4.780e-4
-1.369, 4.659e-4
-1.368, 4.533e-4
-1.367, 4.421e-4
-1.366, 4.333e-4
-1.365, 4.249e-4
-1.364, 4.139e-4
-1.363, 4.022e-4
-1.362, 3.921e-4
-1.361, 3.842e-4
-1.360, 3.770e-4
-1.359, 3.670e-4
-1.358, 3.562e-4
-1.357, 3.471e-4
-1.356, 3.401e-4
-1.355, 3.336e-4
-1.354, 3.247e-4
-1.353, 3.147e-4
-1.352, 3.067e-4
-1.351, 3.008e-4
-1.350, 2.948e-4
-1.349, 2.867e-4
-1.348, 2.777e-4
-1.347, 2.703e-4
-1.346, 2.654e-4
-1.345, 2.602e-4
-1.344, 2.529e-4
-1.343, 2.444e-4
-1.342, 2.378e-4
-1.341, 2.337e-4
-1.340, 2.291e-4
-1.339, 2.222e-4
-1.338, 2.147e-4
-1.337, 2.087e-4
-1.336, 2.052e-4
-1.335, 2.013e-4
-1.334, 1.950e-4
-1.333, 1.879e-4
-1.332, 1.828e-4
-1.331, 1.794e-4
-1.330, 1.766e-4
-1.329, 1.707e-4
-1.328, 1.643e-4
-1.327, 1.595e-4
-1.326, 1.569e-4
-1.325, 1.542e-4
-1.324, 1.491e-4
-1.323, 1.428e-4
-1.322, 1.388e-4
-1.321, 1.364e-4
-1.320, 1.346e-4
-1.319, 1.297e-4
-1.318, 1.240e-4
-1.317, 1.203e-4
-1.316, 1.187e-4
-1.315, 1.167e-4
-1.314, 1.125e-4
-1.313, 1.072e-4
-1.312, 1.040e-4
-1.311, 1.029e-4
-1.310, 1.011e-4
-1.309, 9.718e-5
-1.308, 9.235e-5
-1.307, 8.926e-5
-1.306, 8.860e-5
-1.305, 8.720e-5
-1.304, 8.348e-5
-1.303, 7.894e-5
-1.302, 7.630e-5
-1.301, 7.586e-5
-1.300, 7.486e-5
-1.299, 7.120e-5
-1.298, 6.707e-5
-1.297, 6.479e-5
-1.296, 6.467e-5
-1.295, 6.399e-5
-1.294, 6.036e-5
-1.293, 5.660e-5
-1.292, 5.453e-5
-1.291, 5.449e-5
-1.290, 5.397e-5
-1.289, 5.090e-5
-1.288, 4.736e-5
-1.287, 4.557e-5
-1.286, 4.554e-5
-1.285, 4.548e-5
-1.284, 4.247e-5
-1.283, 3.894e-5
-1.282, 3.765e-5
-1.281, 3.786e-5
-1.280, 3.764e-5
-1.279, 3.506e-5
-1.278, 3.165e-5
-1.277, 3.048e-5
-1.276, 3.105e-5
-1.275, 3.082e-5
-1.274, 2.836e-5
-1.273, 2.519e-5
-1.272, 2.424e-5
-1.271, 2.500e-5
-1.270, 2.481e-5
-1.269, 2.261e-5
-1.268, 1.957e-5
-1.267, 1.859e-5
-1.266, 1.958e-5
-1.265, 1.956e-5
-1.264, 1.730e-5
-1.263, 1.464e-5
-1.262, 1.365e-5
-1.261, 1.490e-5
-1.260, 1.500e-5
-1.259, 1.276e-5
-1.258, 1.005e-5
-1.257, 9.345e-6
-1.256, 1.074e-5
-1.255, 1.083e-5
-1.254, 8.658e-6
-1.253, 6.435e-6
-1.252, 5.614e-6
-1.251, 6.859e-6
-1.250, 7.296e-6
-1.249, 5.340e-6
-1.248, 2.967e-6
-1.247, 2.336e-6
-1.246, 3.610e-6
-1.245, 4.375e-6
-1.244, 2.288e-6
-1.243, -1.867e-7
-1.242, -4.639e-7
-1.241, 7.782e-7
-1.240, 1.361e-6
-1.239, -3.998e-7
-1.238, -2.929e-6
-1.237, -2.984e-6
-1.236, -1.526e-6
-1.235, -9.937e-7
-1.234, -2.782e-6
-1.233, -5.140e-6
-1.232, -5.297e-6
-1.231, -3.592e-6
-1.230, -3.159e-6
-1.229, -5.199e-6
-1.228, -7.090e-6
-1.227, -7.268e-6
-1.226, -5.480e-6
-1.225, -5.140e-6
-1.224, -6.610e-6
-1.223, -8.766e-6
-1.222, -8.939e-6
-1.221, -7.247e-6
-1.220, -6.469e-6
-1.219, -8.298e-6
-1.218, -1.017e-5
-1.217, -1.051e-5
-1.216, -8.595e-6
-1.215, -7.866e-6
-1.214, -9.636e-6
-1.213, -1.157e-5
-1.212, -1.151e-5
-1.211, -9.765e-6
-1.210, -9.078e-6
-1.209, -1.090e-5
-1.208, -1.267e-5
-1.207, -1.253e-5
-1.206, -1.091e-5
-1.205, -1.005e-5
-1.204, -1.163e-5
-1.203, -1.377e-5
-1.202, -1.365e-5
-1.201, -1.185e-5
-1.200, -1.102e-5
-1.199, -1.260e-5
-1.198, -1.481e-5
-1.197, -1.435e-5
-1.196, -1.252e-5
-1.195, -1.206e-5
-1.194, -1.332e-5
-1.193, -1.542e-5
-1.192, -1.508e-5
-1.191, -1.315e-5
-1.190, -1.260e-5
-1.189, -1.412e-5
-1.188, -1.598e-5
-1.187, -1.586e-5
-1.186, -1.390e-5
-1.185, -1.335e-5
-1.184, -1.475e-5
-1.183, -1.668e-5
-1.182, -1.656e-5
-1.181, -1.441e-5
-1.180, -1.356e-5
-1.179, -1.539e-5
-1.178, -1.724e-5
-1.177, -1.704e-5
-1.176, -1.486e-5
-1.175, -1.426e-5
-1.174, -1.599e-5
-1.173, -1.770e-5
-1.172, -1.724e-5
-1.171, -1.560e-5
-1.170, -1.464e-5
-1.169, -1.656e-5
-1.168, -1.801e-5
-1.167, -1.771e-5
-1.166, -1.600e-5
-1.165, -1.512e-5
-1.164, -1.664e-5
-1.163, -1.856e-5
-1.162, -1.821e-5
-1.161, -1.625e-5
-1.160, -1.534e-5
-1.159, -1.703e-5
-1.158, -1.899e-5
-1.157, -1.851e-5
-1.156, -1.640e-5
-1.155, -1.581e-5
-1.154, -1.736e-5
-1.153, -1.922e-5
-1.152, -1.876e-5
-1.151, -1.662e-5
-1.150, -1.608e-5
-1.149, -1.775e-5
-1.148, -1.961e-5
-1.147, -1.907e-5
-1.146, -1.707e-5
-1.145, -1.643e-5
-1.144, -1.799e-5
-1.143, -1.975e-5
-1.142, -1.943e-5
-1.141, -1.728e-5
-1.140, -1.662e-5
-1.139, -1.849e-5
-1.138, -2.003e-5
-1.137, -1.973e-5
-1.136, -1.768e-5
-1.135, -1.699e-5
-1.134, -1.885e-5
-1.133, -2.042e-5
-1.132, -1.999e-5
-1.131, -1.802e-5
-1.130, -1.733e-5
-1.129, -1.916e-5
-1.128, -2.082e-5
-1.127, -2.027e-5
-1.126, -1.840e-5
-1.125, -1.762e-5
-1.124, -1.946e-5
-1.123, -2.119e-5
-1.122, -2.062e-5
-1.121, -1.869e-5
-1.120, -1.796e-5
-1.119, -1.974e-5
-1.118, -2.153e-5
-1.117, -2.070e-5
-1.116, -1.886e-5
-1.115, -1.844e-5
-1.114, -2.004e-5
-1.113, -2.188e-5
-1.112, -2.104e-5
-1.111, -1.914e-5
-1.110, -1.859e-5
-1.109, -2.034e-5
-1.108, -2.207e-5
-1.107, -2.153e-5
-1.106, -1.945e-5
-1.105, -1.909e-5
-1.104, -2.054e-5
-1.103, -2.252e-5
-1.102, -2.193e-5
-1.101, -1.980e-5
-1.100, -1.926e-5
-1.099, -2.114e-5
-1.098, -2.267e-5
-1.097, -2.213e-5
-1.096, -2.015e-5
-1.095, -1.957e-5
-1.094, -2.157e-5
-1.093, -2.317e-5
-1.092, -2.264e-5
-1.091, -2.063e-5
-1.090, -1.994e-5
-1.089, -2.195e-5
-1.088, -2.355e-5
-1.087, -2.289e-5
-1.086, -2.093e-5
-1.085, -2.041e-5
-1.084, -2.206e-5
-1.083, -2.407e-5
-1.082, -2.327e-5
-1.081, -2.136e-5
-1.080, -2.069e-5
-1.079, -2.256e-5
-1.078, -2.459e-5
-1.077, -2.359e-5
-1.076, -2.174e-5
-1.075, -2.128e-5
-1.074, -2.311e-5
-1.073, -2.481e-5
-1.072, -2.400e-5
-1.071, -2.204e-5
-1.070, -2.173e-5
-1.069, -2.349e-5
-1.068, -2.512e-5
-1.067, -2.476e-5
-1.066, -2.238e-5
-1.065, -2.213e-5
-1.064, -2.402e-5
-1.063, -2.565e-5
-1.062, -2.508e-5
-1.061, -2.275e-5
-1.060, -2.237e-5
-1.059, -2.457e-5
-1.058, -2.612e-5
-1.057, -2.539e-5
-1.056, -2.330e-5
-1.055, -2.299e-5
-1.054, -2.501e-5
-1.053, -2.646e-5
-1.052, -2.571e-5
-1.051, -2.379e-5
-1.050, -2.346e-5
-1.049, -2.550e-5
-1.048, -2.699e-5
-1.047, -2.637e-5
-1.046, -2.422e-5
-1.045, -2.393e-5
-1.044, -2.589e-5
-1.043, -2.768e-5
-1.042, -2.678e-5
-1.041, -2.487e-5
-1.040, -2.427e-5
-1.039, -2.632e-5
-1.038, -2.833e-5
-1.037, -2.724e-5
-1.036, -2.524e-5
-1.035, -2.500e-5
-1.034, -2.690e-5
-1.033, -2.868e-5
-1.032, -2.780e-5
-1.031, -2.582e-5
-1.030, -2.548e-5
-1.029, -2.732e-5
-1.028, -2.924e-5
-1.027, -2.851e-5
-1.026, -2.629e-5
-1.025, -2.615e-5
-1.024, -2.814e-5
-1.023, -2.976e-5
-1.022, -2.905e-5
-1.021, -2.690e-5
-1.020, -2.651e-5
-1.019, -2.882e-5
-1.018, -3.043e-5
-1.017, -2.961e-5
-1.016, -2.747e-5
-1.015, -2.724e-5
-1.014, -2.945e-5
-1.013, -3.099e-5
-1.012, -3.009e-5
-1.011, -2.838e-5
-1.010, -2.777e-5
-1.009, -3.002e-5
-1.008, -3.165e-5
-1.007, -3.075e-5
-1.006, -2.890e-5
-1.005, -2.856e-5
-1.004, -3.056e-5
-1.003, -3.250e-5
-1.002, -3.142e-5
-1.001, -2.958e-5
-1.000, -4.271e-6
-1.001, 4.093e-6
-1.002, 6.139e-6
-1.003, 9.402e-6
-1.004, 1.354e-5
-1.005, 1.532e-5
-1.006, 1.461e-5
-1.007, 1.394e-5
-1.008, 1.579e-5
-1.009, 1.865e-5
-1.010, 1.986e-5
-1.011, 1.841e-5
-1.012, 1.758e-5
-1.013, 1.920e-5
-1.014, 2.177e-5
-1.015, 2.277e-5
-1.016, 2.105e-5
-1.017, 2.006e-5
-1.018, 2.180e-5
-1.019, 2.406e-5
-1.020, 2.464e-5
-1.021, 2.314e-5
-1.022, 2.201e-5
-1.023, 2.364e-5
-1.024, 2.596e-5
-1.025, 2.644e-5
-1.026, 2.488e-5
-1.027, 2.368e-5
-1.028, 2.497e-5
-1.029, 2.749e-5
-1.030, 2.786e-5
-1.031, 2.625e-5
-1.032, 2.496e-5
-1.033, 2.631e-5
-1.034, 2.867e-5
-1.035, 2.892e-5
-1.036, 2.747e-5
-1.037, 2.608e-5
-1.038, 2.753e-5
-1.039, 2.985e-5
-1.040, 3.006e-5
-1.041, 2.832e-5
-1.042, 2.723e-5
-1.043, 2.830e-5
-1.044, 3.073e-5
-1.045, 3.116e-5
-1.046, 2.921e-5
-1.047, 2.810e-5
-1.048, 2.933e-5
-1.049, 3.155e-5
-1.050, 3.193e-5
-1.051, 3.005e-5
-1.052, 2.883e-5
-1.053, 3.028e-5
-1.054, 3.237e-5
-1.055, 3.285e-5
-1.056, 3.080e-5
-1.057, 2.957e-5
-1.058, 3.094e-5
-1.059, 3.303e-5
-1.060, 3.328e-5
-1.061, 3.151e-5
-1.062, 3.028e-5
-1.063, 3.178e-5
-1.064, 3.365e-5
-1.065, 3.395e-5
-1.066, 3.233e-5
-1.067, 3.100e-5
-1.068, 3.233e-5
-1.069, 3.433e-5
-1.070, 3.452e-5
-1.071, 3.287e-5
-1.072, 3.138e-5
-1.073, 3.293e-5
-1.074, 3.498e-5
-1.075, 3.518e-5
-1.076, 3.337e-5
-1.077, 3.221e-5
-1.078, 3.347e-5
-1.079, 3.556e-5
-1.080, 3.554e-5
-1.081, 3.388e-5
-1.082, 3.286e-5
-1.083, 3.387e-5
-1.084, 3.610e-5
-1.085, 3.621e-5
-1.086, 3.432e-5
-1.087, 3.338e-5
-1.088, 3.455e-5
-1.089, 3.649e-5
-1.090, 3.674e-5
-1.091, 3.485e-5
-1.092, 3.377e-5
-1.093, 3.516e-5
-1.094, 3.702e-5
-1.095, 3.726e-5
-1.096, 3.536e-5
-1.097, 3.421e-5
-1.098, 3.557e-5
-1.099, 3.760e-5
-1.100, 3.769e-5
-1.101, 3.592e-5
-1.102, 3.477e-5
-1.103, 3.618e-5
-1.104, 3.804e-5
-1.105, 3.816e-5
-1.106, 3.649e-5
-1.107, 3.517e-5
-1.108, 3.651e-5
-1.109, 3.867e-5
-1.110, 3.881e-5
-1.111, 3.685e-5
-1.112, 3.569e-5
-1.113, 3.692e-5
-1.114, 3.920e-5
-1.115, 3.910e-5
-1.116, 3.731e-5
-1.117, 3.629e-5
-1.118, 3.747e-5
-1.119, 3.968e-5
-1.120, 3.966e-5
-1.121, 3.764e-5
-1.122, 3.675e-5
-1.123, 3.807e-5
-1.124, 4.014e-5
-1.125, 4.014e-5
-1.126, 3.818e-5
-1.127, 3.723e-5
-1.128, 3.857e-5
-1.129, 4.044e-5
-1.130, 4.070e-5
-1.131, 3.852e-5
-1.132, 3.770e-5
-1.133, 3.900e-5
-1.134, 4.106e-5
-1.135, 4.112e-5
-1.136, 3.915e-5
-1.137, 3.805e-5
-1.138, 3.959e-5
-1.139, 4.142e-5
-1.140, 4.161e-5
-1.141, 3.970e-5
-1.142, 3.861e-5
-1.143, 4.017e-5
-1.144, 4.208e-5
-1.145, 4.204e-5
-1.146, 4.011e-5
-1.147, 3.911e-5
-1.148, 4.058e-5
-1.149, 4.256e-5
-1.150, 4.254e-5
-1.151, 4.061e-5
-1.152, 3.939e-5
-1.153, 4.096e-5
-1.154, 4.316e-5
-1.155, 4.301e-5
-1.156, 4.117e-5
-1.157, 4.019e-5
-1.158, 4.152e-5
-1.159, 4.367e-5
-1.160, 4.363e-5
-1.161, 4.152e-5
-1.162, 4.082e-5
-1.163, 4.205e-5
-1.164, 4.419e-5
-1.165, 4.414e-5
-1.166, 4.224e-5
-1.167, 4.146e-5
-1.168, 4.263e-5
-1.169, 4.472e-5
-1.170, 4.470e-5
-1.171, 4.293e-5
-1.172, 4.189e-5
-1.173, 4.346e-5
-1.174, 4.535e-5
-1.175, 4.545e-5
-1.176, 4.353e-5
-1.177, 4.266e-5
-1.178, 4.412e-5
-1.179, 4.601e-5
-1.180, 4.608e-5
-1.181, 4.424e-5
-1.182, 4.327e-5
-1.183, 4.478e-5
-1.184, 4.682e-5
-1.185, 4.679e-5
-1.186, 4.500e-5
-1.187, 4.397e-5
-1.188, 4.554e-5
-1.189, 4.762e-5
-1.190, 4.755e-5
-1.191, 4.588e-5
-1.192, 4.483e-5
-1.193, 4.635e-5
-1.194, 4.865e-5
-1.195, 4.840e-5
-1.196, 4.669e-5
-1.197, 4.576e-5
-1.198, 4.746e-5
-1.199, 4.957e-5
-1.200, 4.930e-5
-1.201, 4.758e-5
-1.202, 4.684e-5
-1.203, 4.837e-5
-1.204, 5.047e-5
-1.205, 5.038e-5
-1.206, 4.859e-5
-1.207, 4.802e-5
-1.208, 4.940e-5
-1.209, 5.156e-5
-1.210, 5.155e-5
-1.211, 4.985e-5
-1.212, 4.906e-5
-1.213, 5.072e-5
-1.214, 5.283e-5
-1.215, 5.303e-5
-1.216, 5.114e-5
-1.217, 5.031e-5
-1.218, 5.208e-5
-1.219, 5.420e-5
-1.220, 5.436e-5
-1.221, 5.261e-5
-1.222, 5.173e-5
-1.223, 5.364e-5
-1.224, 5.574e-5
-1.225, 5.583e-5
-1.226, 5.426e-5
-1.227, 5.346e-5
-1.228, 5.543e-5
-1.229, 5.762e-5
-1.230, 5.766e-5
-1.231, 5.595e-5
-1.232, 5.525e-5
-1.233, 5.702e-5
-1.234, 5.942e-5
-1.235, 5.940e-5
-1.236, 5.785e-5
-1.237, 5.730e-5
-1.238, 5.906e-5
-1.239, 6.164e-5
-1.240, 6.156e-5
-1.241, 5.990e-5
-1.242, 5.961e-5
-1.243, 6.144e-5
-1.244, 6.363e-5
-1.245, 6.402e-5
-1.246, 6.238e-5
-1.247, 6.203e-5
-1.248, 6.404e-5
-1.249, 6.633e-5
-1.250, 6.676e-5
-1.251, 6.507e-5
-1.252, 6.489e-5
-1.253, 6.682e-5
-1.254, 6.935e-5
-1.255, 6.977e-5
-1.256, 6.804e-5
-1.257, 6.790e-5
-1.258, 7.016e-5
-1.259, 7.254e-5
-1.260, 7.307e-5
-1.261, 7.156e-5
-1.262, 7.147e-5
-1.263, 7.378e-5
-1.264, 7.621e-5
-1.265, 7.673e-5
-1.266, 7.566e-5
-1.267, 7.549e-5
-1.268, 7.763e-5
-1.269, 8.053e-5
-1.270, 8.088e-5
-1.271, 7.992e-5
-1.272, 7.987e-5
-1.273, 8.211e-5
-1.274, 8.514e-5
-1.275, 8.574e-5
-1.276, 8.486e-5
-1.277, 8.488e-5
-1.278, 8.734e-5
-1.279, 9.048e-5
-1.280, 9.136e-5
-1.281, 9.018e-5
-1.282, 9.070e-5
-1.283, 9.310e-5
-1.284, 9.643e-5
-1.285, 9.707e-5
-1.286, 9.648e-5
-1.287, 9.700e-5
-1.288, 9.957e-5
-1.289, 1.030e-4
-1.290, 1.041e-4
-1.291, 1.036e-4
-1.292, 1.042e-4
-1.293, 1.071e-4
-1.294, 1.107e-4
-1.295, 1.121e-4
-1.296, 1.114e-4
-1.297, 1.123e-4
-1.298, 1.157e-4
-1.299, 1.192e-4
-1.300, 1.208e-4
-1.301, 1.205e-4
-1.302, 1.217e-4
-1.303, 1.253e-4
-1.304, 1.290e-4
-1.305, 1.309e-4
-1.306, 1.309e-4
-1.307, 1.323e-4
-1.308, 1.361e-4
-1.309, 1.404e-4
-1.310, 1.422e-4
-1.311, 1.429e-4
-1.312, 1.444e-4
-1.313, 1.485e-4
-1.314, 1.533e-4
-1.315, 1.555e-4
-1.316, 1.563e-4
-1.317, 1.586e-4
-1.318, 1.629e-4
-1.319, 1.679e-4
-1.320, 1.708e-4
-1.321, 1.719e-4
-1.322, 1.745e-4
-1.323, 1.795e-4
-1.324, 1.848e-4
-1.325, 1.881e-4
-1.326, 1.897e-4
-1.327, 1.928e-4
-1.328, 1.981e-4
-1.329, 2.040e-4
-1.330, 2.080e-4
-1.331, 2.101e-4
-1.332, 2.138e-4
-1.333, 2.199e-4
-1.334, 2.264e-4
-1.335, 2.309e-4
-1.336, 2.335e-4
-1.337, 2.377e-4
-1.338, 2.445e-4
-1.339, 2.517e-4
-1.340, 2.568e-4
-1.341, 2.601e-4
-1.342, 2.650e-4
-1.343, 2.726e-4
-1.344, 2.803e-4
-1.345, 2.863e-4
-1.346, 2.904e-4
-1.347, 2.960e-4
-1.348, 3.042e-4
-1.349, 3.130e-4
-1.350, 3.194e-4
-1.351, 3.248e-4
-1.352, 3.310e-4
-1.353, 3.401e-4
-1.354, 3.498e-4
-1.355, 3.572e-4
-1.356, 3.632e-4
-1.357, 3.706e-4
-1.358, 3.804e-4
-1.359, 3.910e-4
-1.360, 3.991e-4
-1.361, 4.061e-4
-1.362, 4.142e-4
-1.363, 4.250e-4
-1.364, 4.365e-4
-1.365, 4.459e-4
-1.366, 4.533e-4
-1.367, 4.624e-4
-1.368, 4.741e-4
-1.369, 4.867e-4
-1.370, 4.969e-4
-1.371, 5.057e-4
-1.372, 5.158e-4
-1.373, 5.287e-4
-1.374, 5.422e-4
-1.375, 5.538e-4
-1.376, 5.637e-4
-1.377, 5.747e-4
-1.378, 5.884e-4
-1.379, 6.027e-4
-1.380, 6.153e-4
-1.381, 6.263e-4
-1.382, 6.390e-4
-1.383, 6.541e-4
-1.384, 6.697e-4
-1.385, 6.837e-4
-1.386, 6.960e-4
-1.387, 7.094e-4
-1.388, 7.257e-4
-1.389, 7.425e-4
-1.390, 7.577e-4
-1.391, 7.712e-4
-1.392, 7.864e-4
-1.393, 8.036e-4
-1.394, 8.219e-4
-1.395, 8.383e-4
-1.396, 8.534e-4
-1.397, 8.703e-4
-1.398, 8.889e-4
-1.399, 9.084e-4
-1.400, 8.894e-4
-1.399, 8.612e-4
-1.398, 8.391e-4
-1.397, 8.205e-4
-1.396, 8.036e-4
-1.395, 7.846e-4
-1.394, 7.651e-4
-1.393, 7.467e-4
-1.392, 7.311e-4
-1.391, 7.162e-4
-1.390, 6.995e-4
-1.389, 6.818e-4
-1.388, 6.650e-4
-1.387, 6.510e-4
-1.386, 6.380e-4
-1.385, 6.230e-4
-1.384, 6.069e-4
-1.383, 5.916e-4
-1.382, 5.791e-4
-1.381, 5.676e-4
-1.380, 5.544e-4
-1.379, 5.393e-4
-1.378, 5.259e-4
-1.377, 5.148e-4
-1.376, 5.048e-4
-1.375, 4.927e-4
-1.374, 4.786e-4
-1.373, 4.666e-4
-1.372, 4.569e-4
-1.371, 4.479e-4
-1.370, 4.371e-4
-1.369, 4.245e-4
-1.368, 4.138e-4
-1.367, 4.053e-4
-1.366, 3.971e-4
-1.365, 3.875e-4
-1.364, 3.758e-4
-1.363, 3.656e-4
-1.362, 3.582e-4
-1.361, 3.514e-4
-1.360, 3.426e-4
-1.359, 3.318e-4
-1.358, 3.227e-4
-1.357, 3.163e-4
-1.356, 3.104e-4
-1.355, 3.021e-4
-1.354, 2.925e-4
-1.353, 2.842e-4
-1.352, 2.787e-4
-1.351, 2.736e-4
-1.350, 2.663e-4
-1.349, 2.575e-4
-1.348, 2.500e-4
-1.347, 2.451e-4
-1.346, 2.407e-4
-1.345, 2.339e-4
-1.344, 2.260e-4
-1.343, 2.192e-4
-1.342, 2.150e-4
-1.341, 2.115e-4
-1.340, 2.054e-4
-1.339, 1.978e-4
-1.338, 1.919e-4
-1.337, 1.883e-4
-1.336, 1.853e-4
-1.335, 1.798e-4
-1.334, 1.727e-4
-1.333, 1.675e-4
-1.332, 1.645e-4
-1.331, 1.618e-4
-1.330, 1.570e-4
-1.329, 1.507e-4
-1.328, 1.459e-4
-1.327, 1.432e-4
-1.326, 1.411e-4
-1.325, 1.367e-4
-1.324, 1.310e-4
-1.323, 1.263e-4
-1.322, 1.245e-4
-1.321, 1.227e-4
-1.320, 1.190e-4
-1.319, 1.133e-4
-1.318, 1.092e-4
-1.317, 1.078e-4
-1.316, 1.066e-4
-1.315, 1.028e-4
-1.314, 9.777e-5
-1.313, 9.413e-5
-1.312, 9.307e-5
-1.311, 9.206e-5
-1.310, 8.853e-5
-1.309, 8.398e-5
-1.308, 8.073e-5
-1.307, 7.979e-5
-1.306, 7.930e-5
-1.305, 7.592e-5
-1.304, 7.179e-5
-1.303, 6.877e-5
-1.302, 6.824e-5
-1.301, 6.784e-5
-1.300, 6.502e-5
-1.299, 6.074e-5
-1.298, 5.827e-5
-1.297, 5.775e-5
-1.296, 5.779e-5
-1.295, 5.527e-5
-1.294, 5.117e-5
-1.293, 4.895e-5
-1.292, 4.893e-5
-1.291, 4.880e-5
-1.290, 4.663e-5
-1.289, 4.279e-5
-1.288, 4.067e-5
-1.287, 4.087e-5
-1.286, 4.104e-5
-1.285, 3.890e-5
-1.284, 3.549e-5
-1.283, 3.340e-5
-1.282, 3.376e-5
-1.281, 3.423e-5
-1.280, 3.217e-5
-1.279, 2.880e-5
-1.278, 2.687e-5
-1.277, 2.766e-5
-1.276, 2.826e-5
-1.275, 2.605e-5
-1.274, 2.309e-5
-1.273, 2.126e-5
-1.272, 2.208e-5
-1.271, 2.298e-5
-1.270, 2.096e-5
-1.269, 1.802e-5
-1.268, 1.648e-5
-1.267, 1.705e-5
-1.266, 1.817e-5
-1.265, 1.626e-5
-1.264, 1.355e-5
-1.263, 1.204e-5
-1.262, 1.300e-5
-1.261, 1.396e-5
-1.260, 1.246e-5
-1.259, 9.503e-6
-1.258, 8.440e-6
-1.257, 9.238e-6
-1.256, 1.048e-5
-1.255, 8.990e-6
-1.254, 6.101e-6
-1.253, 5.055e-6
-1.252, 6.164e-6
-1.251, 7.259e-6
-1.250, 5.961e-6
-1.249, 3.102e-6
-1.248, 2.205e-6
-1.247, 3.391e-6
-1.246, 4.420e-6
-1.245, 3.228e-6
-1.244, 6.450e-7
-1.243, -4.185e-7
-1.242, 9.963e-7
-1.241, 1.946e-6
-1.240, 7.634e-7
-1.239, -1.634e-6
-1.238, -2.645e-6
-1.237, -1.242e-6
-1.236, -8.090e-9
-1.235, -1.280e-6
-1.234, -3.712e-6
-1.233, -4.484e-6
-1.232, -3.212e-6
-1.231, -1.716e-6
-1.230, -3.032e-6
-1.229, -5.789e-6
-1.228, -6.280e-6
-1.227, -4.896e-6
-1.226, -3.320e-6
-1.225, -4.647e-6
-1.224, -6.948e-6
-1.223, -7.647e-6
-1.222, -6.371e-6
-1.221, -4.837e-6
-1.220, -5.928e-6
-1.219, -8.387e-6
-1.218, -9.022e-6
-1.217, -7.529e-6
-1.216, -6.087e-6
-1.215, -7.040e-6
-1.214, -9.665e-6
-1.213, -1.002e-5
-1.212, -8.496e-6
-1.211, -7.173e-6
-1.210, -8.199e-6
-1.209, -1.048e-5
-1.208, -1.115e-5
-1.207, -9.433e-6
-1.206, -8.126e-6
-1.205, -9.084e-6
-1.204, -1.126e-5
-1.203, -1.206e-5
-1.202, -1.042e-5
-1.201, -8.870e-6
-1.200, -9.968e-6
-1.199, -1.211e-5
-1.198, -1.284e-5
-1.197, -1.112e-5
-1.196, -9.502e-6
-1.195, -1.076e-5
-1.194, -1.277e-5
-1.193, -1.345e-5
-1.192, -1.162e-5
-1.191, -1.015e-5
-1.190, -1.144e-5
-1.189, -1.333e-5
-1.188, -1.397e-5
-1.187, -1.253e-5
-1.186, -1.066e-5
-1.185, -1.179e-5
-1.184, -1.396e-5
-1.183, -1.457e-5
-1.182, -1.293e-5
-1.181, -1.119e-5
-1.180, -1.227e-5
-1.179, -1.473e-5
-1.178, -1.520e-5
-1.177, -1.342e-5
-1.176, -1.172e-5
-1.175, -1.281e-5
-1.174, -1.519e-5
-1.173, -1.541e-5
-1.172, -1.377e-5
-1.171, -1.230e-5
-1.170, -1.333e-5
-1.169, -1.574e-5
-1.168, -1.602e-5
-1.167, -1.419e-5
-1.166, -1.285e-5
-1.165, -1.382e-5
-1.164, -1.591e-5
-1.163, -1.655e-5
-1.162, -1.464e-5
-1.161, -1.330e-5
-1.160, -1.424e-5
-1.159, -1.630e-5
-1.158, -1.684e-5
-1.157, -1.507e-5
-1.156, -1.352e-5
-1.155, -1.476e-5
-1.154, -1.670e-5
-1.153, -1.736e-5
-1.152, -1.563e-5
-1.151, -1.387e-5
-1.150, -1.515e-5
-1.149, -1.707e-5
-1.148, -1.752e-5
-1.147, -1.597e-5
-1.146, -1.420e-5
-1.145, -1.543e-5
-1.144, -1.763e-5
-1.143, -1.786e-5
-1.142, -1.652e-5
-1.141, -1.461e-5
-1.140, -1.570e-5
-1.139, -1.804e-5
-1.138, -1.837e-5
-1.137, -1.677e-5
-1.136, -1.507e-5
-1.135, -1.617e-5
-1.134, -1.838e-5
-1.133, -1.872e-5
-1.132, -1.713e-5
-1.131, -1.548e-5
-1.130, -1.661e-5
-1.129, -1.882e-5
-1.128, -1.911e-5
-1.127, -1.725e-5
-1.126, -1.589e-5
-1.125, -1.700e-5
-1.124, -1.907e-5
-1.123, -1.959e-5
-1.122, -1.768e-5
-1.121, -1.625e-5
-1.120, -1.734e-5
-1.119, -1.948e-5
-1.118, -1.995e-5
-1.117, -1.815e-5
-1.116, -1.646e-5
-1.115, -1.783e-5
-1.114, -1.983e-5
-1.113, -2.036e-5
-1.112, -1.844e-5
-1.111, -1.693e-5
-1.110, -1.816e-5
-1.109, -2.024e-5
-1.108, -2.075e-5
-1.107, -1.911e-5
-1.106, -1.727e-5
-1.105, -1.849e-5
-1.104, -2.045e-5
-1.103, -2.104e-5
-1.102, -1.957e-5
-1.101, -1.762e-5
-1.100, -1.879e-5
-1.099, -2.115e-5
-1.098, -2.153e-5
-1.097, -1.983e-5
-1.096, -1.798e-5
-1.095, -1.934e-5
-1.094, -2.156e-5
-1.093, -2.180e-5
-1.092, -2.006e-5
-1.091, -1.854e-5
-1.090, -1.977e-5
-1.089, -2.187e-5
-1.088, -2.224e-5
-1.087, -2.046e-5
-1.086, -1.898e-5
-1.085, -2.007e-5
-1.084, -2.223e-5
-1.083, -2.275e-5
-1.082, -2.090e-5
-1.081, -1.929e-5
-1.080, -2.047e-5
-1.079, -2.265e-5
-1.078, -2.320e-5
-1.077, -2.118e-5
-1.076, -1.979e-5
-1.075, -2.109e-5
-1.074, -2.312e-5
-1.073, -2.359e-5
-1.072, -2.154e-5
-1.071, -2.011e-5
-1.070, -2.144e-5
-1.069, -2.358e-5
-1.068, -2.390e-5
-1.067, -2.212e-5
-1.066, -2.050e-5
-1.065, -2.199e-5
-1.064, -2.401e-5
-1.063, -2.427e-5
-1.062, -2.256e-5
-1.061, -2.102e-5
-1.060, -2.230e-5
-1.059, -2.465e-5
-1.058, -2.485e-5
-1.057, -2.310e-5
-1.056, -2.142e-5
-1.055, -2.270e-5
-1.054, -2.507e-5
-1.053, -2.525e-5
-1.052, -2.349e-5
-1.051, -2.201e-5
-1.050, -2.330e-5
-1.049, -2.544e-5
-1.048, -2.576e-5
-1.047, -2.391e-5
-1.046, -2.252e-5
-1.045, -2.366e-5
-1.044, -2.584e-5
-1.043, -2.641e-5
-1.042, -2.438e-5
-1.041, -2.302e-5
-1.040, -2.424e-5
-1.039, -2.646e-5
-1.038, -2.691e-5
-1.037, -2.487e-5
-1.036, -2.350e-5
-1.035, -2.493e-5
-1.034, -2.696e-5
-1.033, -2.745e-5
-1.032, -2.545e-5
-1.031, -2.381e-5
-1.030, -2.559e-5
-1.029, -2.756e-5
-1.028, -2.794e-5
-1.027, -2.610e-5
-1.026, -2.459e-5
-1.025, -2.605e-5
-1.024, -2.841e-5
-1.023, -2.850e-5
-1.022, -2.678e-5
-1.021, -2.513e-5
-1.020, -2.652e-5
-1.019, -2.888e-5
-1.018, -2.919e-5
-1.017, -2.735e-5
-1.016, -2.571e-5
-1.015, -2.727e-5
-1.014, -2.954e-5
-1.013, -2.979e-5
-1.012, -2.780e-5
-1.011, -2.659e-5
-1.010, -2.784e-5
-1.009, -3.033e-5
-1.008, -3.037e-5
-1.007, -2.864e-5
-1.006, -2.737e-5
-1.005, -2.855e-5
-1.004, -3.092e-5
-1.003, -3.129e-5
-1.002, -2.936e-5
-1.001, -2.793e-5
