Potential V vs RHE, Current mA cm-2
0.4132999999999999,-0.008716036318468491
0.4122999999999999,-0.01017318895732948
0.4112999999999999,-0.01060609061508818
0.4102999999999999,-0.010828200289166992
0.4092999999999999,-0.010961183151354303
0.4082999999999999,-0.011071530632743777
0.4072999999999999,-0.01120168407233136
0.4062999999999999,-0.011319105110220157
0.4052999999999999,-0.011433696725509227
0.4042999999999999,-0.011505847001802343
0.4032999999999999,-0.011596388524993706
0.4022999999999999,-0.011665709378687092
0.4012999999999999,-0.01177747157137643
0.4002999999999999,-0.011846792425069818
0.3992999999999999,-0.011934504525661449
0.3982999999999999,-0.012013728358453891
0.3972999999999999,-0.012061828542649302
0.3962999999999999,-0.012122661128543499
0.3952999999999999,-0.012187737848337292
0.3942999999999999,-0.012242911589032027
0.39329999999999987,-0.012313647154025277
0.39229999999999987,-0.012364576760820421
0.39129999999999987,-0.012436727037113538
0.39029999999999987,-0.012481997798709218
0.38929999999999987,-0.012532927405504359
0.38829999999999987,-0.012598004125298152
0.38729999999999987,-0.012633371907794776
0.38629999999999987,-0.012719669297086546
0.38529999999999986,-0.01277201361518155
0.38429999999999986,-0.012810210820277905
0.38329999999999986,-0.012873872828771834
0.38229999999999986,-0.012910655322568325
0.38129999999999986,-0.012974317331062251
0.38029999999999986,-0.013047882318655234
0.37929999999999986,-0.0130775912559524
0.37829999999999986,-0.013117203172348619
0.37729999999999986,-0.01317662104694295
0.37629999999999986,-0.013230380076337823
0.37529999999999986,-0.01329121266223202
0.37429999999999986,-0.01331384804302986
0.37329999999999985,-0.013390242453222572
0.37229999999999985,-0.013448245616517038
0.37129999999999985,-0.013496345800712453
0.37029999999999985,-0.01355010483010732
0.36929999999999985,-0.013585472612603948
0.36829999999999985,-0.013615181549901115
0.36729999999999985,-0.013660452311496792
0.36629999999999985,-0.013726943742590451
0.36529999999999985,-0.013758067391187482
0.36429999999999985,-0.013787776328484647
0.36329999999999985,-0.013814655843182085
0.36229999999999984,-0.013865585449977224
0.36129999999999984,-0.013944809282769666
0.36029999999999984,-0.013974518220066835
0.35929999999999984,-0.013998568312164537
0.35829999999999984,-0.014045253785060085
0.35729999999999984,-0.014101842237054685
0.35629999999999984,-0.014161260111649017
0.35529999999999984,-0.014203701450644968
0.35429999999999984,-0.014231995676642267
0.35329999999999984,-0.014288584128636872
0.35229999999999984,-0.014331025467632824
0.35129999999999983,-0.014387613919627423
0.35029999999999983,-0.014415908145624722
0.34929999999999983,-0.014458349484620674
0.34829999999999983,-0.014500790823616624
0.34729999999999983,-0.014543232162612576
0.34629999999999983,-0.01461396772760583
0.34529999999999983,-0.014628114840604478
0.34429999999999983,-0.014642261953603129
0.3432999999999998,-0.014727144631595034
0.3422999999999998,-0.014755438857592333
0.3412999999999998,-0.014812027309586936
0.3402999999999998,-0.014854468648582884
0.3392999999999998,-0.014868615761581536
0.3382999999999998,-0.014911057100577486
0.3372999999999998,-0.014953498439573438
0.3362999999999998,-0.01501008689156804
0.3352999999999998,-0.015066675343562642
0.3342999999999998,-0.015080822456561293
0.3332999999999998,-0.015109116682558592
0.3322999999999998,-0.015151558021554544
0.3312999999999998,-0.015208146473549147
0.3302999999999998,-0.015250587812545097
0.3292999999999998,-0.015264734925543746
0.3282999999999998,-0.015307176264539698
0.3272999999999998,-0.0153637647165343
0.3262999999999998,-0.015406206055530251
0.3252999999999999,-0.015448647394526203
0.3242999999999999,-0.015476941620523503
0.3232999999999999,-0.015491088733522153
0.3222999999999999,-0.015547677185516754
0.3212999999999999,-0.015604265637511355
0.3202999999999999,-0.015632559863508654
0.3192999999999999,-0.015660854089505957
0.3182999999999999,-0.015703295428501907
0.3172999999999999,-0.01573158965449921
0.3162999999999999,-0.01580232521949246
0.3152999999999999,-0.01583061944548976
0.3142999999999999,-0.01585891367148706
0.3132999999999999,-0.01588720789748436
0.3122999999999999,-0.015901355010483013
0.3112999999999999,-0.01597209057547626
0.3102999999999999,-0.016000384801473564
0.3092999999999999,-0.016028679027470863
0.3082999999999999,-0.016071120366466816
0.3072999999999999,-0.016099414592464115
0.3062999999999999,-0.016170150157457368
0.3052999999999999,-0.01618429727045602
0.3042999999999999,-0.016212591496453318
0.3032999999999999,-0.016269179948447923
0.3022999999999999,-0.01629747417444522
0.3012999999999999,-0.016339915513441175
0.3002999999999999,-0.016396503965435776
0.2992999999999999,-0.01638235685243712
0.2982999999999999,-0.016453092417430374
0.2972999999999999,-0.01648138664342768
0.2962999999999999,-0.01656626932141958
0.2952999999999999,-0.01659456354741688
0.2942999999999999,-0.01662285777341418
0.2932999999999999,-0.01665115199941148
0.2922999999999999,-0.01670774045140608
0.2912999999999999,-0.016750181790402035
0.2902999999999999,-0.016792623129397985
0.2892999999999999,-0.016806770242396636
0.2882999999999999,-0.016820917355395284
0.2872999999999999,-0.016891652920388536
0.2862999999999999,-0.01693409425938449
0.2852999999999999,-0.016948241372383138
0.2842999999999999,-0.01699068271137909
0.2832999999999999,-0.017047271163373692
0.2822999999999999,-0.01706141827637234
0.2812999999999999,-0.017132153841365592
0.2802999999999999,-0.017146300954364244
0.2792999999999999,-0.017188742293360197
0.2782999999999999,-0.017202889406358845
0.2772999999999999,-0.017259477858353446
0.2762999999999999,-0.0173302134233467
0.2752999999999999,-0.0173302134233467
0.2742999999999999,-0.017372654762342652
0.2732999999999999,-0.0173868018753413
0.2722999999999999,-0.0174150961013386
0.2712999999999999,-0.017499978779330502
0.2702999999999999,-0.0175282730053278
0.2692999999999999,-0.017556567231325104
0.26829999999999987,-0.017613155683319705
0.26729999999999987,-0.017613155683319705
0.26629999999999987,-0.01768389124831296
0.26529999999999987,-0.01771218547431026
0.26429999999999987,-0.01774047970030756
0.26329999999999987,-0.01776877392630486
0.26229999999999987,-0.017797068152302163
0.26129999999999987,-0.01785365660429676
0.26029999999999986,-0.017910245056291362
0.25929999999999986,-0.017910245056291362
0.25829999999999986,-0.017952686395287316
0.25729999999999986,-0.018009274847281917
0.25629999999999986,-0.01803756907327922
0.25529999999999986,-0.018065863299276518
0.25429999999999986,-0.018094157525273817
0.25329999999999986,-0.01813659886426977
0.25229999999999986,-0.01817904020326572
0.25129999999999986,-0.018249775768258973
0.25029999999999986,-0.018278069994256275
0.24929999999999986,-0.018306364220253574
0.24829999999999985,-0.018306364220253574
0.24729999999999985,-0.018377099785246823
0.24629999999999985,-0.018419541124242777
0.24529999999999985,-0.01847612957623738
0.24429999999999985,-0.01851857091523333
0.24329999999999985,-0.01853271802823198
0.24229999999999985,-0.01858930648022658
0.24129999999999985,-0.018645894932221182
0.24029999999999985,-0.018645894932221182
0.23929999999999985,-0.018702483384215783
0.23829999999999985,-0.018730777610213082
0.23729999999999984,-0.018759071836210388
0.23629999999999984,-0.01882980740120364
0.23529999999999984,-0.018843954514202284
0.23429999999999984,-0.018886395853198238
0.23329999999999984,-0.01892883719219419
0.23229999999999984,-0.018985425644188793
0.23129999999999984,-0.019056161209182042
0.23029999999999984,-0.019042014096183394
0.22929999999999984,-0.019084455435179344
0.22829999999999984,-0.019098602548177995
0.22729999999999984,-0.019141043887173945
0.22629999999999983,-0.019211779452167198
0.22529999999999983,-0.019254220791163148
0.22429999999999983,-0.0192683679041618
0.22329999999999983,-0.019310809243157753
0.22229999999999983,-0.019381544808151
0.22129999999999983,-0.019423986147146955
0.22029999999999983,-0.019452280373144254
0.21929999999999983,-0.019480574599141553
0.21829999999999983,-0.01950886882513886
0.21729999999999983,-0.019565457277133456
0.21629999999999983,-0.019607898616129407
0.21529999999999982,-0.01965033995512536
0.21429999999999982,-0.01967863418112266
0.21329999999999982,-0.01970692840711996
0.21229999999999982,-0.019777663972113214
0.21129999999999982,-0.019834252424107815
0.21029999999999982,-0.019848399537106463
0.20929999999999982,-0.019876693763103765
0.20829999999999982,-0.019890840876102416
0.20729999999999982,-0.019947429328097017
0.20629999999999982,-0.02000401778009162
0.20529999999999982,-0.02003231200608892
0.20429999999999982,-0.02007475334508487
0.20329999999999981,-0.02011719468408082
0.2022999999999998,-0.020173783136075422
0.2012999999999998,-0.020216224475071376
0.20029999999999992,-0.020258665814067326
0.19929999999999992,-0.020272812927065977
0.19829999999999992,-0.020301107153063276
0.19729999999999992,-0.020357695605057877
0.19629999999999992,-0.02041428405705248
0.19529999999999992,-0.02041428405705248
0.19429999999999992,-0.020513313848043033
0.19329999999999992,-0.020569902300037635
0.19229999999999992,-0.020569902300037635
0.19129999999999991,-0.020640637865030884
0.1902999999999999,-0.020668932091028186
0.1892999999999999,-0.02071137343002414
0.1882999999999999,-0.02073966765602144
0.1872999999999999,-0.020810403221014687
0.1862999999999999,-0.02086699167300929
0.1852999999999999,-0.02088113878600794
0.1842999999999999,-0.020923580125003893
0.1832999999999999,-0.020951874351001196
0.1822999999999999,-0.020994315689997142
0.1812999999999999,-0.021079198367989046
0.1802999999999999,-0.021107492593986348
0.1792999999999999,-0.021121639706984996
0.1782999999999999,-0.021164081045980946
0.1772999999999999,-0.02122066949797555
0.1762999999999999,-0.021277257949970152
0.1752999999999999,-0.021305552175967454
0.1742999999999999,-0.021333846401964753
0.1732999999999999,-0.021376287740960703
0.1722999999999999,-0.021432876192955305
0.1712999999999999,-0.021489464644949906
0.1702999999999999,-0.021517758870947205
0.1692999999999999,-0.021560200209943158
0.1682999999999999,-0.021602641548939108
0.1672999999999999,-0.02165923000093371
0.1662999999999999,-0.021729965565926962
0.1652999999999999,-0.021744112678925617
0.1642999999999999,-0.021786554017921567
0.1632999999999999,-0.021828995356917517
0.1622999999999999,-0.02189973092191077
0.1612999999999999,-0.021956319373905367
0.1602999999999999,-0.02197046648690402
0.1592999999999999,-0.022027054938898623
0.15829999999999989,-0.022069496277894573
0.15729999999999988,-0.022111937616890523
0.15629999999999988,-0.022196820294882423
0.15529999999999988,-0.022225114520879725
0.15429999999999988,-0.022253408746877028
0.15329999999999988,-0.022281702972874327
0.15229999999999988,-0.022338291424868928
0.15129999999999988,-0.02239487987686353
0.15029999999999988,-0.022437321215859483
0.14929999999999988,-0.022479762554855433
0.14829999999999988,-0.022522203893851383
0.14729999999999988,-0.022578792345845984
0.14629999999999987,-0.02264952791083924
0.14529999999999987,-0.02267782213683654
0.14429999999999987,-0.022691969249835187
0.14329999999999987,-0.02274855770182979
0.14229999999999987,-0.022833440379821688
0.14129999999999987,-0.022890028831816296
0.14029999999999987,-0.022918323057813595
0.13929999999999987,-0.022974911509808196
0.13829999999999987,-0.023017352848804146
0.13729999999999987,-0.0230880884137974
0.13629999999999987,-0.023116382639794698
0.13529999999999986,-0.023172971091789302
0.13429999999999986,-0.0232012653177866
0.13329999999999986,-0.0232295595437839
0.13229999999999986,-0.023300295108777156
0.13129999999999986,-0.023356883560771757
0.13029999999999986,-0.023399324899767704
0.12929999999999986,-0.023441766238763657
0.12829999999999986,-0.023484207577759608
0.12729999999999986,-0.02355494314275286
0.12629999999999986,-0.023611531594747465
0.12529999999999986,-0.023639825820744764
0.12429999999999986,-0.023696414272739365
0.12329999999999985,-0.023710561385738016
0.12229999999999985,-0.023795444063729916
0.12129999999999985,-0.023837885402725866
0.12029999999999985,-0.02388032674172182
0.11929999999999985,-0.02393691519371642
0.11829999999999985,-0.023965209419713723
0.11729999999999985,-0.024050092097705623
0.11629999999999985,-0.024120827662698876
0.11529999999999985,-0.024149121888696175
0.11429999999999985,-0.024191563227692125
0.11329999999999985,-0.02423400456668808
0.11229999999999984,-0.024304740131681327
0.11129999999999984,-0.02436132858367593
0.11029999999999984,-0.02438962280967323
0.10929999999999984,-0.024432064148669184
0.10829999999999984,-0.024488652600663786
0.10729999999999984,-0.02457353527865569
0.10629999999999984,-0.02461597661765164
0.10529999999999984,-0.02465841795664759
0.10429999999999984,-0.02468671218264489
0.10329999999999984,-0.02474330063463949
0.10229999999999984,-0.02482818331263139
0.10129999999999983,-0.024870624651627343
0.10029999999999983,-0.024927213103621948
0.09929999999999983,-0.024955507329619247
0.09829999999999983,-0.0250262428946125
0.09729999999999983,-0.02509697845960575
0.09629999999999983,-0.02515356691160035
0.09529999999999983,-0.025167714024599004
0.09429999999999983,-0.025238449589592253
0.09329999999999983,-0.025295038041586858
0.09229999999999983,-0.02537992071957876
0.09129999999999983,-0.02543650917157336
0.09029999999999982,-0.02547895051056931
0.08929999999999982,-0.02553553896256391
0.08829999999999982,-0.025577980301559864
0.08729999999999982,-0.025662862979551764
0.08629999999999982,-0.025705304318547718
0.08529999999999982,-0.025747745657543668
0.08429999999999982,-0.025818481222536924
0.08329999999999982,-0.025860922561532867
0.08229999999999982,-0.025931658126526123
0.08129999999999982,-0.02600239369151937
0.08029999999999982,-0.026030687917516674
0.07929999999999982,-0.026115570595508578
0.07829999999999981,-0.026158011934504528
0.07729999999999981,-0.026257041725495082
0.07629999999999981,-0.02632777729048833
0.07529999999999992,-0.026356071516485634
0.07429999999999992,-0.026412659968480235
0.07329999999999992,-0.026469248420474833
0.07229999999999992,-0.02655413109846674
0.07129999999999992,-0.02659657243746269
0.07029999999999992,-0.02665316088945729
0.06929999999999992,-0.026709749341451892
0.06829999999999992,-0.026794632019443793
0.06729999999999992,-0.026837073358439746
0.06629999999999991,-0.02692195603643165
0.06529999999999991,-0.02695025026242895
0.06429999999999991,-0.027006838714423546
0.06329999999999991,-0.02709172139241545
0.06229999999999991,-0.027134162731411407
0.06129999999999991,-0.027204898296404656
0.06029999999999991,-0.027261486748399254
0.05929999999999991,-0.02731807520039386
0.05829999999999991,-0.027374663652388463
0.05729999999999991,-0.027459546330380363
0.056299999999999906,-0.02750198766937631
0.055299999999999905,-0.027572723234369562
0.054299999999999904,-0.027615164573365516
0.0532999999999999,-0.02770004725135742
0.0522999999999999,-0.027770782816350672
0.0512999999999999,-0.02782737126834527
0.0502999999999999,-0.02788395972033987
0.0492999999999999,-0.027940548172334476
0.0482999999999999,-0.027997136624329073
0.0472999999999999,-0.02811031352831828
0.0462999999999999,-0.02815275486731423
0.045299999999999896,-0.028223490432307482
0.044299999999999895,-0.028265931771303435
0.043299999999999894,-0.028350814449295336
0.04229999999999989,-0.028435697127287232
0.04129999999999989,-0.02849228557928184
0.04029999999999989,-0.028577168257273744
0.03929999999999989,-0.028647903822266993
0.03829999999999989,-0.028704492274261594
0.03729999999999989,-0.02880352206525215
0.03629999999999989,-0.02888840474324405
0.03529999999999989,-0.028916698969241348
0.034299999999999886,-0.029001581647233248
0.033299999999999885,-0.0290723172122265
0.032299999999999884,-0.029143052777219756
0.031299999999999883,-0.02922793545521166
0.030299999999999883,-0.02927037679420761
0.02929999999999988,-0.029341112359200863
0.02829999999999988,-0.029440142150191414
0.02729999999999988,-0.02953917194118197
0.02629999999999988,-0.029609907506175218
0.025299999999999878,-0.02966649595816982
0.024299999999999877,-0.02972308441016442
0.023299999999999876,-0.02982211420115497
0.022299999999999875,-0.029878702653149573
0.021299999999999875,-0.029963585331141473
0.020299999999999874,-0.03002017378313608
0.019299999999999873,-0.03007676223513068
0.018299999999999872,-0.030175792026121234
0.01729999999999987,-0.030260674704113137
0.01629999999999987,-0.03033141026910639
0.01529999999999987,-0.030416292947098293
0.014299999999999868,-0.030487028512091542
0.013299999999999867,-0.03055776407708479
0.012299999999999978,-0.03065679386807535
0.011299999999999866,-0.030713382320069947
0.010299999999999976,-0.030769970772064545
0.009299999999999864,-0.030840706337057794
0.008299999999999974,-0.030911441902051046
0.007299999999999862,-0.03103876591903891
0.006299999999999972,-0.031095354371033508
0.00529999999999986,-0.031151942823028106
0.0042999999999999705,-0.03123682550102001
0.0032999999999998586,-0.03129341395301461
0.0022999999999999687,-0.03140659085700381
0.0012999999999998568,-0.03147732642199706
0.00029999999999996696,-0.031533914873991674
-0.000700000000000145,-0.03161879755198357
-0.0017000000000000348,-0.03170368022997547
-0.0027000000000001467,-0.031802710020966025
-0.0037000000000000366,-0.031873445585959274
-0.0047000000000001485,-0.03191588692495523
-0.005700000000000038,-0.03200076960294713
-0.00670000000000015,-0.032085652280939035
-0.00770000000000004,-0.032184682071929586
-0.008700000000000152,-0.032255417636922835
-0.009700000000000042,-0.032326153201916084
-0.010700000000000154,-0.03243933010590529
-0.011700000000000044,-0.032552507009894496
-0.012700000000000156,-0.032623242574887745
-0.013700000000000045,-0.03267983102688235
-0.014700000000000157,-0.03276471370487424
-0.015700000000000047,-0.03282130215686885
-0.01670000000000016,-0.03294862617385671
-0.01770000000000005,-0.033061803077845904
-0.01870000000000016,-0.03311839152984051
-0.01970000000000005,-0.03321742132083106
-0.020700000000000163,-0.033288156885824316
-0.021700000000000053,-0.03338718667681487
-0.022700000000000164,-0.03350036358080407
-0.023700000000000054,-0.03358524625879597
-0.024700000000000166,-0.03368427604978652
-0.025700000000000056,-0.03375501161477978
-0.026700000000000168,-0.03385404140577032
-0.027700000000000058,-0.03395307119676088
-0.02870000000000017,-0.034009659648755484
-0.02970000000000006,-0.034094542326747385
-0.03070000000000017,-0.034179425004739285
-0.03170000000000006,-0.034278454795729836
-0.03270000000000017,-0.034391631699719045
-0.03370000000000006,-0.03444822015171364
-0.034700000000000175,-0.03453310282970555
-0.035700000000000065,-0.034617985507697444
-0.03670000000000018,-0.034717015298688
-0.03770000000000007,-0.03481604508967855
-0.03870000000000018,-0.03488678065467181
-0.03970000000000007,-0.0349716633326637
-0.04070000000000018,-0.03507069312365426
-0.04170000000000007,-0.03516972291464481
-0.04270000000000018,-0.035282899818634014
-0.04370000000000007,-0.03535363538362727
-0.044700000000000184,-0.03541022383562187
-0.045700000000000074,-0.03549510651361377
-0.046700000000000186,-0.03562243053060162
-0.047700000000000076,-0.03570731320859352
-0.04870000000000019,-0.03579219588658543
-0.04970000000000008,-0.03587707856457733
-0.05070000000000019,-0.035961961242569236
-0.05170000000000008,-0.03608928525955708
-0.05270000000000019,-0.03617416793754899
-0.05370000000000008,-0.03625905061554088
-0.05470000000000019,-0.03634393329353279
-0.05570000000000008,-0.03642881597152469
-0.056700000000000195,-0.03652784576251525
-0.057700000000000085,-0.03664102266650445
-0.058700000000000196,-0.03672590534449635
-0.059700000000000086,-0.0368249351354869
-0.0607000000000002,-0.0369098178134788
-0.06170000000000009,-0.03703714183046666
-0.0627000000000002,-0.037150318734455866
-0.06370000000000009,-0.037206907186450464
-0.0647000000000002,-0.037305936977441015
