Potential V vs RHE, Current mA cm-2
0.013299999999999867,2.178655401792157
0.012299999999999978,1.8730777610213083
0.011299999999999866,1.655212220842093
0.010299999999999976,1.4812027309586933
0.009299999999999864,1.3063444142953748
0.008299999999999974,1.175483619057859
0.007299999999999862,1.0010497157844997
0.006299999999999972,0.870188920546984
0.00529999999999986,0.7829012333453113
0.0042999999999999705,0.6956135461436386
0.0032999999999998586,0.6084673300719523
0.0022999999999999687,0.4776065348344364
0.0012999999999998568,0.3903188476327636
0.00029999999999996696,0.3031726315610774
-0.000700000000000145,0.21588494435940458
-0.0017000000000000348,0.12863969849672777
-0.0027000000000001467,0.08502414912188871
-0.0037000000000000366,0.04140859974704963
-0.0047000000000001485,-0.08943804837746762
-0.005700000000000038,-0.1766974413531431
-0.00670000000000015,-0.2202705493889862
-0.00770000000000004,-0.30755823659065895
-0.008700000000000152,-0.3511313446265021
-0.009700000000000042,-0.3947044526623452
-0.010700000000000154,-0.48199213986401795
-0.011700000000000044,-0.5692798270656908
-0.012700000000000156,-0.6564260431373771
-0.013700000000000045,-0.7001406223032067
-0.014700000000000157,-0.7437137303390498
-0.015700000000000047,-0.7872868383748929
-0.01670000000000016,-0.8308599464107361
-0.01770000000000005,-0.8745745255765657
-0.01870000000000016,-0.9617207416482519
-0.01970000000000005,-1.0054353208140816
-0.020700000000000163,-1.0925815368857679
-0.021700000000000053,-1.1362961160515976
-0.022700000000000164,-1.1798692240874404
-0.023700000000000054,-1.2234423321232837
-0.024700000000000166,-1.2671569112891135
-0.025700000000000056,-1.3543031273607997
-0.026700000000000168,-1.3980177065266295
-0.027700000000000058,-1.4415908145624723
-0.02870000000000017,-1.4854468648582886
-0.02970000000000006,-1.4854468648582886
-0.03070000000000017,-1.5717442541500557
-0.03170000000000006,-1.6156003044458718
-0.03270000000000017,-1.7033124050375041
-0.03370000000000006,-1.7471684553333202
-0.034700000000000175,-1.7910245056291363
-0.035700000000000065,-1.7910245056291363
-0.03670000000000018,-1.8334658446250875
-0.03770000000000007,-1.8773218949209036
-0.03870000000000018,-1.9650339955125358
-0.03970000000000007,-2.008890045808352
-0.04070000000000018,-2.052746096104168
-0.04170000000000007,-2.095187435100119
-0.04270000000000018,-2.095187435100119
-0.04370000000000007,-2.1390434853959355
-0.044700000000000184,-2.1828995356917518
-0.045700000000000074,-2.2706116362833835
-0.046700000000000186,-2.3144676865791998
-0.047700000000000076,-2.3569090255751513
-0.04870000000000019,-2.4007650758709675
-0.04970000000000008,-2.4007650758709675
-0.05070000000000019,-2.4446211261667834
-0.05170000000000008,-2.532333226758415
-0.05270000000000019,-2.576189277054232
-0.05370000000000008,-2.618630616050183
-0.05470000000000019,-2.662486666345999
-0.05570000000000008,-2.662486666345999
-0.056700000000000195,-2.706342716641815
-0.057700000000000085,-2.7501987669376318
-0.058700000000000196,-2.8379108675292635
-0.059700000000000086,-2.8803522065252145
-0.0607000000000002,-2.924208256821031
-0.06170000000000009,-2.968064307116847
-0.0627000000000002,-2.968064307116847
-0.06370000000000009,-3.0119203574126634
-0.0647000000000002,-3.055776407708479
-0.06570000000000009,-3.1420737970002466
-0.0667000000000002,-3.1859298472960624
-0.0677000000000001,-3.1859298472960624
-0.0687000000000002,-3.2297858975918787
-0.0697000000000001,-3.273641947887695
-0.07070000000000021,-3.273641947887695
-0.0717000000000001,-3.361354048479327
-0.07270000000000021,-3.403795387475278
-0.0737000000000001,-3.447651437771094
-0.07470000000000021,-3.4915074880669104
-0.0757000000000001,-3.4915074880669104
-0.07670000000000021,-3.5353635383627267
-0.0777000000000001,-3.579219588658543
-0.07870000000000021,-3.623075638954359
-0.0797000000000001,-3.7093730282461257
-0.08070000000000022,-3.7532290785419424
-0.0817000000000001,-3.7532290785419424
-0.08270000000000022,-3.7532290785419424
-0.08370000000000011,-3.7970851288377587
-0.08470000000000022,-3.840941179133574
-0.08570000000000011,-3.927238568425342
-0.08670000000000022,-3.971094618721158
-0.08770000000000011,-4.014950669016974
-0.08870000000000022,-4.0588067193127895
-0.08970000000000011,-4.0588067193127895
-0.09070000000000022,-4.102662769608606
-0.09170000000000011,-4.146518819904423
-0.09270000000000023,-4.23281620919619
-0.09370000000000012,-4.276672259492005
-0.09470000000000023,-4.276672259492005
-0.09570000000000012,-4.3205283097878215
-0.09670000000000023,-4.3205283097878215
-0.09770000000000012,-4.406825699079589
-0.09870000000000023,-4.450681749375406
-0.09970000000000012,-4.494537799671222
-0.10070000000000023,-4.538393849967037
-0.10170000000000012,-4.538393849967037
-0.10270000000000024,-4.582249900262854
-0.10370000000000013,-4.582249900262854
-0.10470000000000024,-4.668547289554621
-0.10570000000000013,-4.712403339850438
-0.10670000000000024,-4.756259390146253
-0.10770000000000013,-4.800115440442069
-0.10870000000000024,-4.843971490737885
-0.10970000000000013,-4.843971490737885
-0.11070000000000024,-4.887827541033701
-0.11170000000000013,-4.974124930325469
-0.11270000000000002,-5.017980980621284
-0.11370000000000013,-5.0618370309171015
-0.11470000000000002,-5.0618370309171015
-0.11570000000000014,-5.0618370309171015
-0.11670000000000003,-5.105693081212917
-0.11770000000000014,-5.149549131508733
-0.11870000000000003,-5.235846520800501
-0.11970000000000014,-5.279702571096316
-0.12070000000000003,-5.323558621392133
-0.12170000000000014,-5.367414671687949
-0.12270000000000003,-5.367414671687949
-0.12370000000000014,-5.411270721983764
-0.12470000000000003,-5.453712060979717
-0.12570000000000014,-5.497568111275533
-0.12670000000000003,-5.585280211867165
-0.12770000000000015,-5.585280211867165
-0.12870000000000004,-5.629136262162981
-0.12970000000000015,-5.629136262162981
-0.13070000000000004,-5.672992312458796
-0.13170000000000015,-5.759289701750564
-0.13270000000000004,-5.80314575204638
-0.13370000000000015,-5.847001802342197
-0.13470000000000004,-5.847001802342197
-0.13570000000000015,-5.847001802342197
-0.13670000000000004,-5.890857852638012
-0.13770000000000016,-5.9347139029338285
-0.13870000000000005,-5.977155241929781
-0.13970000000000016,-6.064867342521412
-0.14070000000000005,-6.064867342521412
-0.14170000000000016,-6.108723392817228
-0.14270000000000005,-6.152579443113044
-0.14370000000000016,-6.152579443113044
-0.14470000000000005,-6.238876832404812
-0.14570000000000016,-6.282732882700628
-0.14670000000000005,-6.326588932996443
-0.14770000000000016,-6.326588932996443
-0.14870000000000005,-6.37044498329226
-0.14970000000000017,-6.37044498329226
-0.15070000000000006,-6.414301033588076
-0.15170000000000017,-6.458157083883892
-0.15270000000000006,-6.54445447317566
-0.15370000000000017,-6.588310523471475
-0.15470000000000006,-6.632166573767292
-0.15570000000000017,-6.632166573767292
-0.15670000000000006,-6.6760226240631075
-0.15770000000000017,-6.719878674358924
-0.15870000000000006,-6.762320013354876
-0.15970000000000018,-6.806176063650692
-0.16070000000000007,-6.850032113946507
-0.16170000000000018,-6.850032113946507
-0.16270000000000007,-6.893888164242324
-0.16370000000000018,-6.93774421453814
-0.16470000000000007,-6.981600264833956
-0.16570000000000018,-7.067897654125724
-0.16670000000000007,-7.111753704421539
-0.16770000000000018,-7.111753704421539
-0.16870000000000007,-7.111753704421539
-0.16970000000000018,-7.155609754717355
-0.17070000000000007,-7.199465805013171
-0.17170000000000019,-7.243321855308987
-0.17270000000000008,-7.28576319430494
-0.1737000000000002,-7.329619244600755
-0.17470000000000008,-7.37347529489657
-0.1757000000000002,-7.37347529489657
-0.17670000000000008,-7.4173313451923875
-0.1777000000000002,-7.461187395488204
-0.17870000000000008,-7.50504344578402
-0.1797000000000002,-7.5474847847799715
-0.18070000000000008,-7.591340835075788
-0.1817000000000002,-7.591340835075788
-0.18270000000000008,-7.635196885371603
-0.1837000000000002,-7.679052935667419
-0.1847000000000001,-7.722908985963235
-0.1857000000000002,-7.809206375255003
-0.1867000000000001,-7.853062425550818
-0.1877000000000002,-7.896918475846635
-0.1887000000000001,-7.940774526142452
-0.1897000000000002,-7.940774526142452
-0.1907000000000001,-7.984630576438266
-0.1917000000000001,-8.070927965730034
-0.19269999999999998,-8.11478401602585
-0.1937000000000001,-8.158640066321666
-0.19469999999999998,-8.158640066321666
-0.1957000000000001,-8.158640066321666
-0.19669999999999999,-8.158640066321666
-0.1977000000000001,-8.202496116617484
-0.1987,-8.288793505909249
-0.1997000000000001,-8.288793505909249
-0.2007,-8.332649556205066
-0.2017000000000001,-8.376505606500881
-0.2027,-8.4203616567967
-0.2037000000000001,-8.464217707092514
-0.2047,-8.508073757388331
-0.2057000000000001,-8.55051509638428
-0.2067,-8.594371146680096
-0.2077000000000001,-8.638227196975913
-0.2087,-8.638227196975913
-0.2097000000000001,-8.638227196975913
-0.2107,-8.638227196975913
-0.2117000000000001,-8.638227196975913
-0.2127,-8.68208324727173
-0.2137000000000001,-8.725939297567548
-0.2147,-8.769795347863363
-0.2157000000000001,-8.812236686859313
-0.2167,-8.85609273715513
-0.21770000000000012,-8.943804837746763
-0.2187,-9.031516938338395
-0.21970000000000012,-9.073958277334345
-0.2207,-9.11781432763016
-0.22170000000000012,-9.11781432763016
-0.2227,-9.161670377925978
-0.22370000000000012,-9.161670377925978
-0.2247,-9.205526428221793
-0.22570000000000012,-9.24938247851761
-0.2267,-9.293238528813426
-0.22770000000000012,-9.293238528813426
-0.22870000000000001,-9.335679867809377
-0.22970000000000013,-9.379535918105192
-0.23070000000000002,-9.423391968401008
-0.23170000000000013,-9.511104068992642
-0.23270000000000002,-9.59740145828441
-0.23370000000000013,-9.641257508580225
-0.23470000000000002,-9.641257508580225
-0.23570000000000013,-9.641257508580225
-0.23670000000000002,-9.641257508580225
-0.2376999999999999,-9.728969609171857
-0.23870000000000002,-9.772825659467674
-0.2396999999999999,-9.81668170976349
-0.24070000000000003,-9.85912304875944
-0.24169999999999991,-9.902979099055257
-0.24270000000000003,-9.902979099055257
-0.24369999999999992,-9.946835149351072
-0.24470000000000003,-9.99069119964689
-0.24569999999999992,-10.034547249942705
-0.24670000000000003,-10.078403300238522
-0.24769999999999992,-10.120844639234473
-0.24870000000000003,-10.120844639234473
-0.24969999999999992,-10.164700689530287
-0.25070000000000003,-10.164700689530287
-0.2516999999999999,-10.25241279012192
-0.25270000000000004,-10.296268840417738
-0.2536999999999999,-10.340124890713554
-0.25470000000000004,-10.340124890713554
-0.2556999999999999,-10.382566229709504
-0.25670000000000004,-10.382566229709504
-0.25769999999999993,-10.42642228000532
-0.25870000000000004,-10.514134380596953
-0.25969999999999993,-10.557990430892769
-0.26070000000000004,-10.601846481188586
-0.26169999999999993,-10.601846481188586
-0.26270000000000004,-10.601846481188586
-0.26369999999999993,-10.644287820184536
-0.26470000000000005,-10.688143870480351
-0.26569999999999994,-10.731999920776168
-0.26670000000000005,-10.819712021367803
-0.26769999999999994,-10.819712021367803
-0.26870000000000005,-10.863568071663616
-0.26969999999999994,-10.863568071663616
-0.27070000000000005,-10.863568071663616
-0.27169999999999994,-10.906009410659568
-0.27270000000000005,-10.949865460955383
-0.27369999999999994,-10.993721511251199
-0.27470000000000006,-11.037577561547016
-0.27569999999999995,-11.037577561547016
-0.27670000000000006,-11.081433611842833
-0.27769999999999995,-11.123874950838783
-0.27870000000000006,-11.1677310011346
-0.27969999999999995,-11.211587051430415
-0.28070000000000006,-11.255443101726232
-0.28169999999999995,-11.255443101726232
-0.28270000000000006,-11.299299152022046
-0.28369999999999995,-11.299299152022046
-0.28470000000000006,-11.343155202317865
-0.28569999999999995,-11.385596541313816
-0.28670000000000007,-11.473308641905447
-0.28769999999999996,-11.473308641905447
-0.28870000000000007,-11.517164692201263
-0.28969999999999996,-11.517164692201263
-0.29070000000000007,-11.56102074249708
-0.29169999999999996,-11.604876792792895
-0.29270000000000007,-11.647318131788847
-0.29369999999999996,-11.647318131788847
-0.2947000000000001,-11.691174182084664
-0.29569999999999996,-11.73503023238048
-0.2967000000000001,-11.778886282676295
-0.29769999999999996,-11.82274233297211
-0.2987000000000001,-11.909039722263879
-0.29969999999999997,-11.952895772559694
-0.3007000000000001,-11.996751822855511
-0.30169999999999997,-12.040607873151327
-0.3027000000000001,-12.040607873151327
-0.30369999999999997,-12.040607873151327
-0.3047000000000001,-12.084463923447142
-0.30569999999999997,-12.12831997374296
-0.3067000000000001,-12.170761312738911
-0.3077,-12.170761312738911
-0.3087000000000001,-12.214617363034726
-0.3097,-12.214617363034726
-0.3107000000000001,-12.258473413330542
-0.3117,-12.302329463626359
-0.3127000000000001,-12.302329463626359
-0.3137,-12.302329463626359
-0.3147000000000001,-12.302329463626359
-0.3157,-12.346185513922174
-0.3167000000000001,-12.346185513922174
-0.3177,-12.390041564217992
-0.3187000000000001,-12.476338953509758
-0.3197,-12.520195003805576
-0.3207000000000001,-12.56405105410139
-0.3217,-12.56405105410139
-0.3227000000000001,-12.56405105410139
-0.3237,-12.607907104397206
-0.3247000000000001,-12.651763154693022
-0.3257,-12.73806054398479
-0.3267000000000001,-12.781916594280606
-0.3277,-12.825772644576423
-0.3287000000000001,-12.825772644576423
-0.3297,-12.825772644576423
-0.3307000000000001,-12.825772644576423
-0.3317,-12.869628694872238
-0.3327000000000001,-12.913484745168056
-0.3337,-12.913484745168056
-0.3347000000000001,-12.955926084164007
-0.3357,-12.99978213445982
-0.3367000000000001,-12.99978213445982
-0.3377,-13.043638184755638
-0.3387000000000001,-13.13135028534727
-0.3397,-13.175206335643086
-0.3407000000000001,-13.217647674639037
-0.3417,-13.261503724934855
-0.3427000000000001,-13.261503724934855
-0.3437,-13.261503724934855
-0.3447000000000001,-13.30535977523067
-0.3457,-13.3930718758223
-0.3467000000000001,-13.3930718758223
-0.3477,-13.436927926118118
-0.3487000000000001,-13.47936926511407
-0.3497,-13.47936926511407
-0.3507000000000001,-13.523225315409885
-0.3517,-13.567081365705702
-0.3527000000000001,-13.610937416001518
-0.3537,-13.654793466297335
-0.3547000000000001,-13.698649516593148
-0.3557,-13.741090855589102
-0.35670000000000013,-13.741090855589102
-0.3577,-13.784946905884919
-0.35870000000000013,-13.872659006476551
-0.3597,-13.916515056772363
-0.36070000000000013,-13.960371107068182
-0.3617,-13.960371107068182
-0.3626999999999999,-13.960371107068182
-0.3637,-14.002812446064135
-0.3646999999999999,-14.046668496359947
-0.3657,-14.13438059695158
-0.3666999999999999,-14.175407224647667
-0.3677,-14.217848563643619
-0.3686999999999999,-14.26028990263957
-0.36970000000000003,-14.26028990263957
-0.3706999999999999,-14.30273124163552
-0.37170000000000003,-14.345172580631472
-0.3726999999999999,-14.444202371622024
-0.37370000000000003,-14.444202371622024
-0.3746999999999999,-14.486643710617974
-0.37570000000000003,-14.529085049613924
-0.3766999999999999,-14.57152638860988
-0.37770000000000004,-14.61396772760583
-0.3786999999999999,-14.65640906660178
-0.37970000000000004,-14.69885040559773
-0.3806999999999999,-14.69885040559773
-0.38170000000000004,-14.783733083589633
-0.38269999999999993,-14.826174422585586
-0.38370000000000004,-14.868615761581536
-0.38469999999999993,-14.967645552572087
-0.38570000000000004,-15.05252823056399
-0.38669999999999993,-15.137410908555893
-0.38770000000000004,-15.222293586547794
-0.38869999999999993,-15.264734925543747
-0.38970000000000005,-15.307176264539699
-0.39069999999999994,-15.3920589425316
-0.39170000000000005,-15.448647394526201
-0.39269999999999994,-15.533530072518102
-0.39370000000000005,-15.575971411514052
-0.39469999999999994,-15.575971411514052
-0.39570000000000005,-15.618412750510005
-0.39669999999999994,-15.660854089505953
-0.39770000000000005,-15.70329542850191
-0.39869999999999994,-15.78817810649381
-0.39970000000000006,-15.830619445489761
-0.40069999999999995,-15.91550212348166
-0.40170000000000006,-15.972090575476265
-0.40269999999999995,-16.014531914472215
-0.40370000000000006,-16.099414592464115
-0.40469999999999995,-16.184297270456018
-0.40570000000000006,-16.311621287443874
-0.40669999999999995,-16.396503965435777
-0.40770000000000006,-16.495533756426326
-0.40869999999999995,-16.53797509542228
-0.40970000000000006,-16.580416434418233
-0.41069999999999995,-16.665299112410132
-0.41170000000000007,-16.750181790402035
-0.41269999999999996,-16.835064468393938
-0.41370000000000007,-16.919947146385837
-0.41469999999999996,-17.018976937376394
-0.41570000000000007,-17.103859615368293
-0.41669999999999996,-17.188742293360193
-0.41770000000000007,-17.2736249713521
-0.41869999999999996,-17.358507649344002
-0.4197000000000001,-17.48583166633185
-0.42069999999999996,-17.584861457322408
-0.4217000000000001,-17.669744135314307
-0.42269999999999996,-17.797068152302163
-0.4237000000000001,-17.881950830294063
-0.42469999999999997,-18.009274847281915
-0.4257000000000001,-18.19318731626437
-0.42669999999999997,-18.27806999425627
-0.4277000000000001,-18.40539401124413
-0.42869999999999997,-18.49027668923603
-0.4297000000000001,-18.589306480226583
-0.43069999999999997,-18.674189158218486
-0.4317000000000001,-18.843954514202288
-0.4327,-19.01371987018609
-0.4337000000000001,-19.155191000172596
-0.4347,-19.28251501716045
-0.4357000000000001,-19.409839034148305
-0.4367,-19.537163051136158
-0.4377000000000001,-19.678634181122664
-0.4387,-19.848399537106463
-0.4397000000000001,-20.01816489309027
-0.4407,-20.159636023076775
-0.4417000000000001,-20.286960040064624
-0.4427,-20.414284057052477
-0.4437000000000001,-20.584049413036283
-0.4447,-20.76796188201874
-0.4457000000000001,-21.022609915994444
-0.4467,-21.248963723972853
-0.4477000000000001,-21.418729079956652
-0.4487,-21.54605309694451
-0.4497000000000001,-21.67337711393236
-0.4507,-21.772406904922917
-0.4517000000000001,-21.98461359990267
-0.4527,-22.196820294882425
-0.4537000000000001,-22.38073276386488
-0.4547,-22.550498119848687
-0.4557000000000001,-22.776851927827092
-0.4567,-22.946617283810895
-0.4577000000000001,-23.15882397879065
-0.4587,-23.427619125765005
-0.4597000000000001,-23.639825820744765
-0.4607,-23.908620967719123
-0.4617000000000001,-24.078386323702922
-0.4627,-24.290593018682678
-0.4637000000000001,-24.474505487665134
-0.4647,-24.729153521640843
-0.4657000000000001,-24.997948668615198
-0.4667,-25.252596702590903
-0.4677000000000001,-25.521391849565262
-0.4687,-25.77603988354097
-0.4697000000000001,-26.002393691519377
-0.4707,-26.257041725495082
-0.4717000000000001,-26.525836872469437
-0.4727,-26.822926245441096
-0.4737000000000001,-27.091721392415455
-0.4747,-27.34636942639116
-0.4757000000000001,-27.615164573365515
-0.4767,-27.912253946337174
-0.4777000000000001,-28.22349043230748
-0.4787,-28.577168257273744
-0.4797000000000001,-28.91669896924135
-0.4807,-29.22793545521166
-0.48170000000000013,-29.482583489187363
-0.4827,-29.751378636161718
-0.48370000000000013,-30.04846800913338
-0.4847,-30.359704495103685
-0.48570000000000013,-30.7558236590659
-0.4867,-31.137795710029454
-0.4876999999999999,-31.49147353499572
-0.4887,-31.84515135996197
-0.4896999999999999,-32.184682071929586
-0.4907,-32.58080123589179
-0.4916999999999999,-32.97692039985401
-0.4927,-33.41548090281216
-0.4936999999999999,-33.755011614779775
-0.49470000000000003,-34.15113077874198
-0.4956999999999999,-34.50480860370825
-0.49670000000000003,-34.90092776767045
-0.4976999999999999,-35.282899818634014
-0.49870000000000003,-35.721460321592176
-0.4996999999999999,-36.20246216354629
-0.5007,-36.64102266650445
-0.5016999999999999,-37.037141830466666
-0.5027,-37.41911388143023
-0.5036999999999999,-37.81523304539243
-0.5047,-38.211352209354644
-0.5056999999999999,-38.6499127123128
-0.5067,-39.046031876275016
