Sept. 6, 2024   06:52:03
Cyclic Voltammetry
File: c:/users/guazh/data/20240903_batch_252_500/2024-09-03-exp277\exp277-2024-09-06t06_27_05-h2koh\exp277_cv_50mvs_efin_-1900mv.bin
Data Source:  Experiment
Instrument Model:  CHI760E
Header: CV ran at 50 mVs
Note: 

Init E (V) = -1
High E (V) = -1
Low E (V) = -1.9
Final E (V) = -1
Init P/N = N
Scan Rate (V/s) = 0.05
Segment = 7
Sample Interval (V) = 0.001
Quiet Time (sec) = 60
Sensitivity (A/V) = 0.001
Comp R (ohm) = 2.1

Results:

Channel 1:
Segment 1:

Segment 2:

Segment 3:

Segment 4:

Segment 5:

Segment 6:

Segment 7:

Potential/V, Current/A

-1.000, 9.016e-7
-1.001, 1.024e-6
-1.002, 1.095e-6
-1.003, 1.096e-6
-1.004, 1.226e-6
-1.005, 1.189e-6
-1.006, 1.228e-6
-1.007, 1.258e-6
-1.008, 1.241e-6
-1.009, 1.298e-6
-1.010, 1.280e-6
-1.011, 1.310e-6
-1.012, 1.356e-6
-1.013, 1.358e-6
-1.014, 1.363e-6
-1.015, 1.406e-6
-1.016, 1.421e-6
-1.017, 1.388e-6
-1.018, 1.415e-6
-1.019, 1.466e-6
-1.020, 1.455e-6
-1.021, 1.476e-6
-1.022, 1.497e-6
-1.023, 1.493e-6
-1.024, 1.549e-6
-1.025, 1.522e-6
-1.026, 1.540e-6
-1.027, 1.546e-6
-1.028, 1.572e-6
-1.029, 1.583e-6
-1.030, 1.597e-6
-1.031, 1.591e-6
-1.032, 1.631e-6
-1.033, 1.633e-6
-1.034, 1.676e-6
-1.035, 1.637e-6
-1.036, 1.660e-6
-1.037, 1.715e-6
-1.038, 1.707e-6
-1.039, 1.721e-6
-1.040, 1.706e-6
-1.041, 1.740e-6
-1.042, 1.738e-6
-1.043, 1.759e-6
-1.044, 1.790e-6
-1.045, 1.765e-6
-1.046, 1.803e-6
-1.047, 1.828e-6
-1.048, 1.801e-6
-1.049, 1.833e-6
-1.050, 1.826e-6
-1.051, 1.842e-6
-1.052, 1.852e-6
-1.053, 1.875e-6
-1.054, 1.888e-6
-1.055, 1.937e-6
-1.056, 1.934e-6
-1.057, 1.933e-6
-1.058, 1.924e-6
-1.059, 1.929e-6
-1.060, 1.985e-6
-1.061, 1.981e-6
-1.062, 2.013e-6
-1.063, 2.006e-6
-1.064, 2.027e-6
-1.065, 2.037e-6
-1.066, 2.048e-6
-1.067, 2.104e-6
-1.068, 2.089e-6
-1.069, 2.090e-6
-1.070, 2.116e-6
-1.071, 2.147e-6
-1.072, 2.163e-6
-1.073, 2.163e-6
-1.074, 2.188e-6
-1.075, 2.191e-6
-1.076, 2.252e-6
-1.077, 2.241e-6
-1.078, 2.238e-6
-1.079, 2.296e-6
-1.080, 2.279e-6
-1.081, 2.309e-6
-1.082, 2.337e-6
-1.083, 2.341e-6
-1.084, 2.346e-6
-1.085, 2.339e-6
-1.086, 2.382e-6
-1.087, 2.380e-6
-1.088, 2.359e-6
-1.089, 2.464e-6
-1.090, 2.489e-6
-1.091, 2.502e-6
-1.092, 2.479e-6
-1.093, 2.475e-6
-1.094, 2.495e-6
-1.095, 2.546e-6
-1.096, 2.523e-6
-1.097, 2.575e-6
-1.098, 2.603e-6
-1.099, 2.623e-6
-1.100, 2.654e-6
-1.101, 2.645e-6
-1.102, 2.649e-6
-1.103, 2.674e-6
-1.104, 2.708e-6
-1.105, 2.745e-6
-1.106, 2.729e-6
-1.107, 2.745e-6
-1.108, 2.745e-6
-1.109, 2.765e-6
-1.110, 2.789e-6
-1.111, 2.793e-6
-1.112, 2.801e-6
-1.113, 2.795e-6
-1.114, 2.863e-6
-1.115, 2.845e-6
-1.116, 2.840e-6
-1.117, 2.902e-6
-1.118, 2.894e-6
-1.119, 2.935e-6
-1.120, 2.928e-6
-1.121, 2.942e-6
-1.122, 2.961e-6
-1.123, 2.958e-6
-1.124, 3.040e-6
-1.125, 3.051e-6
-1.126, 3.033e-6
-1.127, 3.057e-6
-1.128, 3.056e-6
-1.129, 3.060e-6
-1.130, 3.065e-6
-1.131, 3.091e-6
-1.132, 3.140e-6
-1.133, 3.155e-6
-1.134, 3.175e-6
-1.135, 3.168e-6
-1.136, 3.177e-6
-1.137, 3.215e-6
-1.138, 3.246e-6
-1.139, 3.257e-6
-1.140, 3.246e-6
-1.141, 3.298e-6
-1.142, 3.328e-6
-1.143, 3.323e-6
-1.144, 3.318e-6
-1.145, 3.346e-6
-1.146, 3.342e-6
-1.147, 3.354e-6
-1.148, 3.430e-6
-1.149, 3.385e-6
-1.150, 3.409e-6
-1.151, 3.459e-6
-1.152, 3.509e-6
-1.153, 3.491e-6
-1.154, 3.554e-6
-1.155, 3.546e-6
-1.156, 3.537e-6
-1.157, 3.567e-6
-1.158, 3.564e-6
-1.159, 3.581e-6
-1.160, 3.619e-6
-1.161, 3.649e-6
-1.162, 3.656e-6
-1.163, 3.652e-6
-1.164, 3.710e-6
-1.165, 3.700e-6
-1.166, 3.702e-6
-1.167, 3.716e-6
-1.168, 3.711e-6
-1.169, 3.794e-6
-1.170, 3.757e-6
-1.171, 3.773e-6
-1.172, 3.808e-6
-1.173, 3.841e-6
-1.174, 3.843e-6
-1.175, 3.880e-6
-1.176, 3.896e-6
-1.177, 3.925e-6
-1.178, 3.925e-6
-1.179, 3.948e-6
-1.180, 3.993e-6
-1.181, 4.020e-6
-1.182, 4.076e-6
-1.183, 4.042e-6
-1.184, 4.109e-6
-1.185, 4.117e-6
-1.186, 4.098e-6
-1.187, 4.127e-6
-1.188, 4.173e-6
-1.189, 4.205e-6
-1.190, 4.187e-6
-1.191, 4.196e-6
-1.192, 4.222e-6
-1.193, 4.239e-6
-1.194, 4.315e-6
-1.195, 4.310e-6
-1.196, 4.339e-6
-1.197, 4.302e-6
-1.198, 4.361e-6
-1.199, 4.371e-6
-1.200, 4.386e-6
-1.201, 4.427e-6
-1.202, 4.515e-6
-1.203, 4.499e-6
-1.204, 4.539e-6
-1.205, 4.524e-6
-1.206, 4.540e-6
-1.207, 4.550e-6
-1.208, 4.620e-6
-1.209, 4.673e-6
-1.210, 4.658e-6
-1.211, 4.659e-6
-1.212, 4.724e-6
-1.213, 4.665e-6
-1.214, 4.736e-6
-1.215, 4.750e-6
-1.216, 4.804e-6
-1.217, 4.875e-6
-1.218, 4.842e-6
-1.219, 4.919e-6
-1.220, 4.880e-6
-1.221, 4.889e-6
-1.222, 4.952e-6
-1.223, 4.952e-6
-1.224, 4.952e-6
-1.225, 5.017e-6
-1.226, 5.048e-6
-1.227, 5.084e-6
-1.228, 5.035e-6
-1.229, 5.158e-6
-1.230, 5.122e-6
-1.231, 5.175e-6
-1.232, 5.204e-6
-1.233, 5.260e-6
-1.234, 5.255e-6
-1.235, 5.368e-6
-1.236, 5.309e-6
-1.237, 5.343e-6
-1.238, 5.401e-6
-1.239, 5.429e-6
-1.240, 5.436e-6
-1.241, 5.530e-6
-1.242, 5.543e-6
-1.243, 5.580e-6
-1.244, 5.599e-6
-1.245, 5.615e-6
-1.246, 5.634e-6
-1.247, 5.658e-6
-1.248, 5.654e-6
-1.249, 5.825e-6
-1.250, 5.848e-6
-1.251, 5.861e-6
-1.252, 5.902e-6
-1.253, 5.910e-6
-1.254, 6.002e-6
-1.255, 6.046e-6
-1.256, 6.021e-6
-1.257, 6.076e-6
-1.258, 6.089e-6
-1.259, 6.202e-6
-1.260, 6.262e-6
-1.261, 6.285e-6
-1.262, 6.277e-6
-1.263, 6.357e-6
-1.264, 6.378e-6
-1.265, 6.334e-6
-1.266, 6.391e-6
-1.267, 6.505e-6
-1.268, 6.475e-6
-1.269, 6.513e-6
-1.270, 6.542e-6
-1.271, 6.608e-6
-1.272, 6.608e-6
-1.273, 6.733e-6
-1.274, 6.762e-6
-1.275, 6.784e-6
-1.276, 6.850e-6
-1.277, 6.908e-6
-1.278, 6.846e-6
-1.279, 6.924e-6
-1.280, 6.993e-6
-1.281, 7.048e-6
-1.282, 7.069e-6
-1.283, 7.130e-6
-1.284, 7.199e-6
-1.285, 7.219e-6
-1.286, 7.286e-6
-1.287, 7.378e-6
-1.288, 7.408e-6
-1.289, 7.442e-6
-1.290, 7.535e-6
-1.291, 7.572e-6
-1.292, 7.633e-6
-1.293, 7.639e-6
-1.294, 7.681e-6
-1.295, 7.676e-6
-1.296, 7.863e-6
-1.297, 7.842e-6
-1.298, 7.916e-6
-1.299, 8.005e-6
-1.300, 8.038e-6
-1.301, 8.074e-6
-1.302, 8.095e-6
-1.303, 8.142e-6
-1.304, 8.252e-6
-1.305, 8.294e-6
-1.306, 8.326e-6
-1.307, 8.436e-6
-1.308, 8.520e-6
-1.309, 8.560e-6
-1.310, 8.551e-6
-1.311, 8.736e-6
-1.312, 8.644e-6
-1.313, 8.728e-6
-1.314, 8.795e-6
-1.315, 8.828e-6
-1.316, 8.958e-6
-1.317, 8.992e-6
-1.318, 9.027e-6
-1.319, 9.060e-6
-1.320, 9.039e-6
-1.321, 9.167e-6
-1.322, 9.183e-6
-1.323, 9.238e-6
-1.324, 9.359e-6
-1.325, 9.334e-6
-1.326, 9.377e-6
-1.327, 9.425e-6
-1.328, 9.485e-6
-1.329, 9.590e-6
-1.330, 9.608e-6
-1.331, 9.624e-6
-1.332, 9.715e-6
-1.333, 9.847e-6
-1.334, 9.891e-6
-1.335, 9.969e-6
-1.336, 9.993e-6
-1.337, 1.005e-5
-1.338, 1.013e-5
-1.339, 1.015e-5
-1.340, 1.023e-5
-1.341, 1.032e-5
-1.342, 1.042e-5
-1.343, 1.051e-5
-1.344, 1.063e-5
-1.345, 1.064e-5
-1.346, 1.067e-5
-1.347, 1.071e-5
-1.348, 1.077e-5
-1.349, 1.083e-5
-1.350, 1.092e-5
-1.351, 1.107e-5
-1.352, 1.112e-5
-1.353, 1.117e-5
-1.354, 1.124e-5
-1.355, 1.125e-5
-1.356, 1.131e-5
-1.357, 1.134e-5
-1.358, 1.149e-5
-1.359, 1.154e-5
-1.360, 1.164e-5
-1.361, 1.170e-5
-1.362, 1.176e-5
-1.363, 1.183e-5
-1.364, 1.182e-5
-1.365, 1.193e-5
-1.366, 1.205e-5
-1.367, 1.211e-5
-1.368, 1.224e-5
-1.369, 1.233e-5
-1.370, 1.237e-5
-1.371, 1.241e-5
-1.372, 1.249e-5
-1.373, 1.258e-5
-1.374, 1.259e-5
-1.375, 1.259e-5
-1.376, 1.279e-5
-1.377, 1.287e-5
-1.378, 1.292e-5
-1.379, 1.300e-5
-1.380, 1.305e-5
-1.381, 1.315e-5
-1.382, 1.319e-5
-1.383, 1.330e-5
-1.384, 1.335e-5
-1.385, 1.354e-5
-1.386, 1.360e-5
-1.387, 1.373e-5
-1.388, 1.371e-5
-1.389, 1.381e-5
-1.390, 1.391e-5
-1.391, 1.396e-5
-1.392, 1.409e-5
-1.393, 1.416e-5
-1.394, 1.434e-5
-1.395, 1.441e-5
-1.396, 1.448e-5
-1.397, 1.459e-5
-1.398, 1.461e-5
-1.399, 1.480e-5
-1.400, 1.484e-5
-1.401, 1.489e-5
-1.402, 1.497e-5
-1.403, 1.524e-5
-1.404, 1.528e-5
-1.405, 1.530e-5
-1.406, 1.539e-5
-1.407, 1.545e-5
-1.408, 1.561e-5
-1.409, 1.573e-5
-1.410, 1.575e-5
-1.411, 1.584e-5
-1.412, 1.606e-5
-1.413, 1.618e-5
-1.414, 1.633e-5
-1.415, 1.638e-5
-1.416, 1.643e-5
-1.417, 1.656e-5
-1.418, 1.662e-5
-1.419, 1.671e-5
-1.420, 1.676e-5
-1.421, 1.699e-5
-1.422, 1.712e-5
-1.423, 1.717e-5
-1.424, 1.721e-5
-1.425, 1.732e-5
-1.426, 1.747e-5
-1.427, 1.757e-5
-1.428, 1.766e-5
-1.429, 1.773e-5
-1.430, 1.784e-5
-1.431, 1.800e-5
-1.432, 1.805e-5
-1.433, 1.827e-5
-1.434, 1.841e-5
-1.435, 1.853e-5
-1.436, 1.856e-5
-1.437, 1.870e-5
-1.438, 1.893e-5
-1.439, 1.912e-5
-1.440, 1.919e-5
-1.441, 1.942e-5
-1.442, 1.947e-5
-1.443, 1.962e-5
-1.444, 1.973e-5
-1.445, 1.979e-5
-1.446, 2.000e-5
-1.447, 2.019e-5
-1.448, 2.026e-5
-1.449, 2.036e-5
-1.450, 2.055e-5
-1.451, 2.083e-5
-1.452, 2.099e-5
-1.453, 2.110e-5
-1.454, 2.129e-5
-1.455, 2.144e-5
-1.456, 2.154e-5
-1.457, 2.179e-5
-1.458, 2.185e-5
-1.459, 2.200e-5
-1.460, 2.216e-5
-1.461, 2.239e-5
-1.462, 2.261e-5
-1.463, 2.281e-5
-1.464, 2.285e-5
-1.465, 2.294e-5
-1.466, 2.321e-5
-1.467, 2.337e-5
-1.468, 2.345e-5
-1.469, 2.374e-5
-1.470, 2.397e-5
-1.471, 2.399e-5
-1.472, 2.420e-5
-1.473, 2.439e-5
-1.474, 2.466e-5
-1.475, 2.478e-5
-1.476, 2.482e-5
-1.477, 2.501e-5
-1.478, 2.525e-5
-1.479, 2.548e-5
-1.480, 2.569e-5
-1.481, 2.582e-5
-1.482, 2.599e-5
-1.483, 2.620e-5
-1.484, 2.632e-5
-1.485, 2.656e-5
-1.486, 2.688e-5
-1.487, 2.714e-5
-1.488, 2.731e-5
-1.489, 2.762e-5
-1.490, 2.766e-5
-1.491, 2.788e-5
-1.492, 2.816e-5
-1.493, 2.834e-5
-1.494, 2.850e-5
-1.495, 2.879e-5
-1.496, 2.899e-5
-1.497, 2.929e-5
-1.498, 2.944e-5
-1.499, 2.968e-5
-1.500, 3.001e-5
-1.501, 3.025e-5
-1.502, 3.044e-5
-1.503, 3.063e-5
-1.504, 3.086e-5
-1.505, 3.113e-5
-1.506, 3.138e-5
-1.507, 3.166e-5
-1.508, 3.188e-5
-1.509, 3.208e-5
-1.510, 3.229e-5
-1.511, 3.252e-5
-1.512, 3.272e-5
-1.513, 3.304e-5
-1.514, 3.335e-5
-1.515, 3.361e-5
-1.516, 3.385e-5
-1.517, 3.407e-5
-1.518, 3.429e-5
-1.519, 3.459e-5
-1.520, 3.467e-5
-1.521, 3.497e-5
-1.522, 3.548e-5
-1.523, 3.577e-5
-1.524, 3.613e-5
-1.525, 3.627e-5
-1.526, 3.657e-5
-1.527, 3.680e-5
-1.528, 3.715e-5
-1.529, 3.755e-5
-1.530, 3.781e-5
-1.531, 3.840e-5
-1.532, 3.882e-5
-1.533, 3.908e-5
-1.534, 3.960e-5
-1.535, 3.991e-5
-1.536, 4.023e-5
-1.537, 4.060e-5
-1.538, 4.092e-5
-1.539, 4.139e-5
-1.540, 4.170e-5
-1.541, 4.218e-5
-1.542, 4.241e-5
-1.543, 4.279e-5
-1.544, 4.312e-5
-1.545, 4.334e-5
-1.546, 4.366e-5
-1.547, 4.396e-5
-1.548, 4.451e-5
-1.549, 4.514e-5
-1.550, 4.562e-5
-1.551, 4.595e-5
-1.552, 4.617e-5
-1.553, 4.656e-5
-1.554, 4.715e-5
-1.555, 4.762e-5
-1.556, 4.781e-5
-1.557, 4.827e-5
-1.558, 4.889e-5
-1.559, 4.946e-5
-1.560, 4.991e-5
-1.561, 5.040e-5
-1.562, 5.072e-5
-1.563, 5.118e-5
-1.564, 5.156e-5
-1.565, 5.187e-5
-1.566, 5.239e-5
-1.567, 5.298e-5
-1.568, 5.363e-5
-1.569, 5.428e-5
-1.570, 5.472e-5
-1.571, 5.526e-5
-1.572, 5.586e-5
-1.573, 5.633e-5
-1.574, 5.672e-5
-1.575, 5.724e-5
-1.576, 5.784e-5
-1.577, 5.843e-5
-1.578, 5.896e-5
-1.579, 5.958e-5
-1.580, 6.029e-5
-1.581, 6.096e-5
-1.582, 6.190e-5
-1.583, 6.209e-5
-1.584, 6.276e-5
-1.585, 6.348e-5
-1.586, 6.405e-5
-1.587, 6.481e-5
-1.588, 6.542e-5
-1.589, 6.611e-5
-1.590, 6.657e-5
-1.591, 6.715e-5
-1.592, 6.811e-5
-1.593, 6.891e-5
-1.594, 6.965e-5
-1.595, 7.033e-5
-1.596, 7.111e-5
-1.597, 7.208e-5
-1.598, 7.252e-5
-1.599, 7.328e-5
-1.600, 7.420e-5
-1.601, 7.508e-5
-1.602, 7.548e-5
-1.603, 7.616e-5
-1.604, 7.673e-5
-1.605, 7.772e-5
-1.606, 7.858e-5
-1.607, 7.941e-5
-1.608, 8.029e-5
-1.609, 8.112e-5
-1.610, 8.191e-5
-1.611, 8.246e-5
-1.612, 8.335e-5
-1.613, 8.482e-5
-1.614, 8.566e-5
-1.615, 8.626e-5
-1.616, 8.715e-5
-1.617, 8.800e-5
-1.618, 8.888e-5
-1.619, 8.986e-5
-1.620, 9.069e-5
-1.621, 9.187e-5
-1.622, 9.310e-5
-1.623, 9.393e-5
-1.624, 9.469e-5
-1.625, 9.589e-5
-1.626, 9.721e-5
-1.627, 9.816e-5
-1.628, 9.926e-5
-1.629, 1.004e-4
-1.630, 1.018e-4
-1.631, 1.029e-4
-1.632, 1.041e-4
-1.633, 1.054e-4
-1.634, 1.070e-4
-1.635, 1.083e-4
-1.636, 1.101e-4
-1.637, 1.112e-4
-1.638, 1.127e-4
-1.639, 1.144e-4
-1.640, 1.159e-4
-1.641, 1.173e-4
-1.642, 1.187e-4
-1.643, 1.201e-4
-1.644, 1.216e-4
-1.645, 1.233e-4
-1.646, 1.252e-4
-1.647, 1.264e-4
-1.648, 1.279e-4
-1.649, 1.297e-4
-1.650, 1.317e-4
-1.651, 1.343e-4
-1.652, 1.356e-4
-1.653, 1.373e-4
-1.654, 1.395e-4
-1.655, 1.418e-4
-1.656, 1.431e-4
-1.657, 1.453e-4
-1.658, 1.472e-4
-1.659, 1.493e-4
-1.660, 1.515e-4
-1.661, 1.537e-4
-1.662, 1.560e-4
-1.663, 1.582e-4
-1.664, 1.607e-4
-1.665, 1.630e-4
-1.666, 1.658e-4
-1.667, 1.680e-4
-1.668, 1.708e-4
-1.669, 1.735e-4
-1.670, 1.760e-4
-1.671, 1.777e-4
-1.672, 1.808e-4
-1.673, 1.838e-4
-1.674, 1.867e-4
-1.675, 1.895e-4
-1.676, 1.923e-4
-1.677, 1.955e-4
-1.678, 1.990e-4
-1.679, 2.022e-4
-1.680, 2.053e-4
-1.681, 2.085e-4
-1.682, 2.123e-4
-1.683, 2.155e-4
-1.684, 2.191e-4
-1.685, 2.232e-4
-1.686, 2.271e-4
-1.687, 2.310e-4
-1.688, 2.349e-4
-1.689, 2.387e-4
-1.690, 2.440e-4
-1.691, 2.485e-4
-1.692, 2.519e-4
-1.693, 2.571e-4
-1.694, 2.608e-4
-1.695, 2.655e-4
-1.696, 2.708e-4
-1.697, 2.750e-4
-1.698, 2.800e-4
-1.699, 2.850e-4
-1.700, 2.901e-4
-1.701, 2.944e-4
-1.702, 3.000e-4
-1.703, 3.065e-4
-1.704, 3.115e-4
-1.705, 3.177e-4
-1.706, 3.252e-4
-1.707, 3.307e-4
-1.708, 3.360e-4
-1.709, 3.432e-4
-1.710, 3.491e-4
-1.711, 3.554e-4
-1.712, 3.637e-4
-1.713, 3.688e-4
-1.714, 3.771e-4
-1.715, 3.847e-4
-1.716, 3.923e-4
-1.717, 3.991e-4
-1.718, 4.075e-4
-1.719, 4.143e-4
-1.720, 4.226e-4
-1.721, 4.305e-4
-1.722, 4.398e-4
-1.723, 4.495e-4
-1.724, 4.587e-4
-1.725, 4.683e-4
-1.726, 4.781e-4
-1.727, 4.863e-4
-1.728, 4.950e-4
-1.729, 5.042e-4
-1.730, 5.153e-4
-1.731, 5.273e-4
-1.732, 5.405e-4
-1.733, 5.506e-4
-1.734, 5.617e-4
-1.735, 5.724e-4
-1.736, 5.836e-4
-1.737, 5.966e-4
-1.738, 6.086e-4
-1.739, 6.207e-4
-1.740, 6.345e-4
-1.741, 6.461e-4
-1.742, 6.609e-4
-1.743, 6.754e-4
-1.744, 6.904e-4
-1.745, 7.052e-4
-1.746, 7.186e-4
-1.747, 7.315e-4
-1.748, 7.486e-4
-1.749, 7.638e-4
-1.750, 7.818e-4
-1.751, 7.971e-4
-1.752, 8.197e-4
-1.753, 8.307e-4
-1.754, 8.486e-4
-1.755, 8.691e-4
-1.756, 8.892e-4
-1.757, 9.041e-4
-1.758, 9.206e-4
-1.759, 9.407e-4
-1.760, 9.648e-4
-1.761, 9.852e-4
-1.762, 1.004e-3
-1.763, 1.024e-3
-1.764, 1.045e-3
-1.765, 1.065e-3
-1.766, 1.090e-3
-1.767, 1.112e-3
-1.768, 1.138e-3
-1.769, 1.159e-3
-1.770, 1.186e-3
-1.771, 1.211e-3
-1.772, 1.239e-3
-1.773, 1.265e-3
-1.774, 1.291e-3
-1.775, 1.319e-3
-1.776, 1.345e-3
-1.777, 1.368e-3
-1.778, 1.397e-3
-1.779, 1.424e-3
-1.780, 1.458e-3
-1.781, 1.492e-3
-1.782, 1.525e-3
-1.783, 1.556e-3
-1.784, 1.577e-3
-1.785, 1.609e-3
-1.786, 1.638e-3
-1.787, 1.670e-3
-1.788, 1.709e-3
-1.789, 1.742e-3
-1.790, 1.773e-3
-1.791, 1.807e-3
-1.792, 1.851e-3
-1.793, 1.875e-3
-1.794, 1.911e-3
-1.795, 1.948e-3
-1.796, 1.986e-3
-1.797, 2.031e-3
-1.798, 2.066e-3
-1.799, 2.099e-3
-1.800, 2.137e-3
-1.801, 2.165e-3
-1.802, 2.193e-3
-1.803, 2.239e-3
-1.804, 2.286e-3
-1.805, 2.333e-3
-1.806, 2.377e-3
-1.807, 2.415e-3
-1.808, 2.452e-3
-1.809, 2.498e-3
-1.810, 2.518e-3
-1.811, 2.546e-3
-1.812, 2.606e-3
-1.813, 2.657e-3
-1.814, 2.708e-3
-1.815, 2.759e-3
-1.816, 2.804e-3
-1.817, 2.852e-3
-1.818, 2.906e-3
-1.819, 2.957e-3
-1.820, 2.961e-3
-1.821, 3.017e-3
-1.822, 3.065e-3
-1.823, 3.118e-3
-1.824, 3.168e-3
-1.825, 3.214e-3
-1.826, 3.250e-3
-1.827, 3.278e-3
-1.828, 3.298e-3
-1.829, 3.355e-3
-1.830, 3.399e-3
-1.831, 3.462e-3
-1.832, 3.515e-3
-1.833, 3.578e-3
-1.834, 3.625e-3
-1.835, 3.671e-3
-1.836, 3.692e-3
-1.837, 3.719e-3
-1.838, 3.786e-3
-1.839, 3.832e-3
-1.840, 3.891e-3
-1.841, 3.948e-3
-1.842, 4.006e-3
-1.843, 4.061e-3
-1.844, 4.116e-3
-1.845, 4.132e-3
-1.846, 4.164e-3
-1.847, 4.231e-3
-1.848, 4.298e-3
-1.849, 4.376e-3
-1.850, 4.428e-3
-1.851, 4.474e-3
-1.852, 4.516e-3
-1.853, 4.564e-3
-1.854, 4.605e-3
-1.855, 4.664e-3
-1.856, 4.725e-3
-1.857, 4.789e-3
-1.858, 4.844e-3
-1.859, 4.884e-3
-1.860, 4.919e-3
-1.861, 4.946e-3
-1.862, 5.022e-3
-1.863, 5.095e-3
-1.864, 5.167e-3
-1.865, 5.235e-3
-1.866, 5.268e-3
-1.867, 5.251e-3
-1.868, 5.238e-3
-1.869, 5.250e-3
-1.870, 5.323e-3
-1.871, 5.469e-3
-1.872, 5.530e-3
-1.873, 5.617e-3
-1.874, 5.704e-3
-1.875, 5.759e-3
-1.876, 5.820e-3
-1.877, 5.912e-3
-1.878, 5.888e-3
-1.879, 5.932e-3
-1.880, 5.974e-3
-1.881, 6.068e-3
-1.882, 6.173e-3
-1.883, 6.234e-3
-1.884, 6.267e-3
-1.885, 6.320e-3
-1.886, 6.291e-3
-1.887, 6.313e-3
-1.888, 6.408e-3
-1.889, 6.509e-3
-1.890, 6.587e-3
-1.891, 6.678e-3
-1.892, 6.763e-3
-1.893, 6.850e-3
-1.894, 6.907e-3
-1.895, 6.956e-3
-1.896, 6.946e-3
-1.897, 6.825e-3
-1.898, 6.827e-3
-1.899, 6.912e-3
-1.900, 7.066e-3
-1.899, 7.133e-3
-1.898, 7.121e-3
-1.897, 7.100e-3
-1.896, 7.035e-3
-1.895, 6.963e-3
-1.894, 6.909e-3
-1.893, 6.793e-3
-1.892, 6.671e-3
-1.891, 6.652e-3
-1.890, 6.616e-3
-1.889, 6.616e-3
-1.888, 6.590e-3
-1.887, 6.522e-3
-1.886, 6.466e-3
-1.885, 6.429e-3
-1.884, 6.337e-3
-1.883, 6.194e-3
-1.882, 6.129e-3
-1.881, 6.118e-3
-1.880, 6.079e-3
-1.879, 6.011e-3
-1.878, 5.953e-3
-1.877, 5.896e-3
-1.876, 5.861e-3
-1.875, 5.731e-3
-1.874, 5.667e-3
-1.873, 5.637e-3
-1.872, 5.633e-3
-1.871, 5.579e-3
-1.870, 5.519e-3
-1.869, 5.468e-3
-1.868, 5.437e-3
-1.867, 5.288e-3
-1.866, 5.239e-3
-1.865, 5.194e-3
-1.864, 5.188e-3
-1.863, 5.152e-3
-1.862, 5.100e-3
-1.861, 5.045e-3
-1.860, 5.008e-3
-1.859, 4.913e-3
-1.858, 4.830e-3
-1.857, 4.782e-3
-1.856, 4.758e-3
-1.855, 4.717e-3
-1.854, 4.690e-3
-1.853, 4.635e-3
-1.852, 4.575e-3
-1.851, 4.517e-3
-1.850, 4.412e-3
-1.849, 4.353e-3
-1.848, 4.346e-3
-1.847, 4.294e-3
-1.846, 4.267e-3
-1.845, 4.232e-3
-1.844, 4.178e-3
-1.843, 4.129e-3
-1.842, 4.073e-3
-1.841, 3.982e-3
-1.840, 3.958e-3
-1.839, 3.905e-3
-1.838, 3.881e-3
-1.837, 3.850e-3
-1.836, 3.797e-3
-1.835, 3.749e-3
-1.834, 3.720e-3
-1.833, 3.669e-3
-1.832, 3.606e-3
-1.831, 3.568e-3
-1.830, 3.533e-3
-1.829, 3.500e-3
-1.828, 3.452e-3
-1.827, 3.407e-3
-1.826, 3.371e-3
-1.825, 3.334e-3
-1.824, 3.255e-3
-1.823, 3.218e-3
-1.822, 3.176e-3
-1.821, 3.140e-3
-1.820, 3.111e-3
-1.819, 3.085e-3
-1.818, 3.044e-3
-1.817, 3.004e-3
-1.816, 2.959e-3
-1.815, 2.890e-3
-1.814, 2.864e-3
-1.813, 2.851e-3
-1.812, 2.825e-3
-1.811, 2.774e-3
-1.810, 2.739e-3
-1.809, 2.703e-3
-1.808, 2.670e-3
-1.807, 2.610e-3
-1.806, 2.553e-3
-1.805, 2.514e-3
-1.804, 2.510e-3
-1.803, 2.491e-3
-1.802, 2.463e-3
-1.801, 2.435e-3
-1.800, 2.411e-3
-1.799, 2.372e-3
-1.798, 2.345e-3
-1.797, 2.297e-3
-1.796, 2.266e-3
-1.795, 2.242e-3
-1.794, 2.213e-3
-1.793, 2.176e-3
-1.792, 2.143e-3
-1.791, 2.111e-3
-1.790, 2.088e-3
-1.789, 2.060e-3
-1.788, 2.020e-3
-1.787, 2.001e-3
-1.786, 1.976e-3
-1.785, 1.944e-3
-1.784, 1.918e-3
-1.783, 1.893e-3
-1.782, 1.863e-3
-1.781, 1.842e-3
-1.780, 1.821e-3
-1.779, 1.800e-3
-1.778, 1.754e-3
-1.777, 1.730e-3
-1.776, 1.709e-3
-1.775, 1.683e-3
-1.774, 1.656e-3
-1.773, 1.629e-3
-1.772, 1.605e-3
-1.771, 1.583e-3
-1.770, 1.549e-3
-1.769, 1.532e-3
-1.768, 1.511e-3
-1.767, 1.485e-3
-1.766, 1.469e-3
-1.765, 1.447e-3
-1.764, 1.422e-3
-1.763, 1.398e-3
-1.762, 1.376e-3
-1.761, 1.349e-3
-1.760, 1.323e-3
-1.759, 1.307e-3
-1.758, 1.294e-3
-1.757, 1.271e-3
-1.756, 1.253e-3
-1.755, 1.235e-3
-1.754, 1.213e-3
-1.753, 1.194e-3
-1.752, 1.171e-3
-1.751, 1.151e-3
-1.750, 1.135e-3
-1.749, 1.119e-3
-1.748, 1.099e-3
-1.747, 1.076e-3
-1.746, 1.060e-3
-1.745, 1.041e-3
-1.744, 1.022e-3
-1.743, 1.007e-3
-1.742, 9.856e-4
-1.741, 9.724e-4
-1.740, 9.573e-4
-1.739, 9.432e-4
-1.738, 9.258e-4
-1.737, 9.081e-4
-1.736, 8.925e-4
-1.735, 8.759e-4
-1.734, 8.614e-4
-1.733, 8.456e-4
-1.732, 8.316e-4
-1.731, 8.221e-4
-1.730, 8.087e-4
-1.729, 7.960e-4
-1.728, 7.808e-4
-1.727, 7.634e-4
-1.726, 7.518e-4
-1.725, 7.384e-4
-1.724, 7.273e-4
-1.723, 7.158e-4
-1.722, 7.036e-4
-1.721, 6.959e-4
-1.720, 6.815e-4
-1.719, 6.655e-4
-1.718, 6.534e-4
-1.717, 6.441e-4
-1.716, 6.351e-4
-1.715, 6.248e-4
-1.714, 6.120e-4
-1.713, 6.036e-4
-1.712, 5.931e-4
-1.711, 5.799e-4
-1.710, 5.681e-4
-1.709, 5.592e-4
-1.708, 5.484e-4
-1.707, 5.391e-4
-1.706, 5.292e-4
-1.705, 5.217e-4
-1.704, 5.138e-4
-1.703, 5.041e-4
-1.702, 4.939e-4
-1.701, 4.836e-4
-1.700, 4.749e-4
-1.699, 4.677e-4
-1.698, 4.599e-4
-1.697, 4.506e-4
-1.696, 4.421e-4
-1.695, 4.352e-4
-1.694, 4.265e-4
-1.693, 4.177e-4
-1.692, 4.093e-4
-1.691, 4.026e-4
-1.690, 3.954e-4
-1.689, 3.886e-4
-1.688, 3.840e-4
-1.687, 3.778e-4
-1.686, 3.698e-4
-1.685, 3.622e-4
-1.684, 3.549e-4
-1.683, 3.483e-4
-1.682, 3.425e-4
-1.681, 3.368e-4
-1.680, 3.311e-4
-1.679, 3.268e-4
-1.678, 3.207e-4
-1.677, 3.137e-4
-1.676, 3.073e-4
-1.675, 3.018e-4
-1.674, 2.963e-4
-1.673, 2.919e-4
-1.672, 2.869e-4
-1.671, 2.824e-4
-1.670, 2.784e-4
-1.669, 2.723e-4
-1.668, 2.681e-4
-1.667, 2.632e-4
-1.666, 2.576e-4
-1.665, 2.530e-4
-1.664, 2.482e-4
-1.663, 2.437e-4
-1.662, 2.417e-4
-1.661, 2.387e-4
-1.660, 2.339e-4
-1.659, 2.291e-4
-1.658, 2.254e-4
-1.657, 2.215e-4
-1.656, 2.176e-4
-1.655, 2.140e-4
-1.654, 2.107e-4
-1.653, 2.072e-4
-1.652, 2.037e-4
-1.651, 2.008e-4
-1.650, 1.970e-4
-1.649, 1.936e-4
-1.648, 1.907e-4
-1.647, 1.870e-4
-1.646, 1.846e-4
-1.645, 1.811e-4
-1.644, 1.786e-4
-1.643, 1.762e-4
-1.642, 1.734e-4
-1.641, 1.693e-4
-1.640, 1.666e-4
-1.639, 1.645e-4
-1.638, 1.617e-4
-1.637, 1.589e-4
-1.636, 1.562e-4
-1.635, 1.541e-4
-1.634, 1.516e-4
-1.633, 1.489e-4
-1.632, 1.463e-4
-1.631, 1.436e-4
-1.630, 1.411e-4
-1.629, 1.393e-4
-1.628, 1.368e-4
-1.627, 1.346e-4
-1.626, 1.322e-4
-1.625, 1.303e-4
-1.624, 1.284e-4
-1.623, 1.260e-4
-1.622, 1.241e-4
-1.621, 1.217e-4
-1.620, 1.201e-4
-1.619, 1.182e-4
-1.618, 1.166e-4
-1.617, 1.148e-4
-1.616, 1.129e-4
-1.615, 1.110e-4
-1.614, 1.093e-4
-1.613, 1.076e-4
-1.612, 1.058e-4
-1.611, 1.039e-4
-1.610, 1.021e-4
-1.609, 1.011e-4
-1.608, 9.921e-5
-1.607, 9.761e-5
-1.606, 9.599e-5
-1.605, 9.436e-5
-1.604, 9.325e-5
-1.603, 9.167e-5
-1.602, 9.052e-5
-1.601, 8.916e-5
-1.600, 8.763e-5
-1.599, 8.648e-5
-1.598, 8.492e-5
-1.597, 8.343e-5
-1.596, 8.234e-5
-1.595, 8.099e-5
-1.594, 8.008e-5
-1.593, 7.912e-5
-1.592, 7.782e-5
-1.591, 7.670e-5
-1.590, 7.553e-5
-1.589, 7.408e-5
-1.588, 7.298e-5
-1.587, 7.209e-5
-1.586, 7.107e-5
-1.585, 7.013e-5
-1.584, 6.912e-5
-1.583, 6.779e-5
-1.582, 6.675e-5
-1.581, 6.585e-5
-1.580, 6.510e-5
-1.579, 6.407e-5
-1.578, 6.332e-5
-1.577, 6.233e-5
-1.576, 6.126e-5
-1.575, 6.045e-5
-1.574, 5.977e-5
-1.573, 5.892e-5
-1.572, 5.797e-5
-1.571, 5.720e-5
-1.570, 5.643e-5
-1.569, 5.567e-5
-1.568, 5.481e-5
-1.567, 5.407e-5
-1.566, 5.323e-5
-1.565, 5.253e-5
-1.564, 5.170e-5
-1.563, 5.119e-5
-1.562, 5.055e-5
-1.561, 4.974e-5
-1.560, 4.897e-5
-1.559, 4.823e-5
-1.558, 4.750e-5
-1.557, 4.692e-5
-1.556, 4.624e-5
-1.555, 4.564e-5
-1.554, 4.497e-5
-1.553, 4.446e-5
-1.552, 4.388e-5
-1.551, 4.323e-5
-1.550, 4.269e-5
-1.549, 4.211e-5
-1.548, 4.165e-5
-1.547, 4.116e-5
-1.546, 4.051e-5
-1.545, 3.996e-5
-1.544, 3.947e-5
-1.543, 3.893e-5
-1.542, 3.851e-5
-1.541, 3.790e-5
-1.540, 3.732e-5
-1.539, 3.677e-5
-1.538, 3.639e-5
-1.537, 3.587e-5
-1.536, 3.535e-5
-1.535, 3.495e-5
-1.534, 3.453e-5
-1.533, 3.399e-5
-1.532, 3.361e-5
-1.531, 3.315e-5
-1.530, 3.267e-5
-1.529, 3.226e-5
-1.528, 3.179e-5
-1.527, 3.136e-5
-1.526, 3.100e-5
-1.525, 3.053e-5
-1.524, 3.014e-5
-1.523, 2.964e-5
-1.522, 2.927e-5
-1.521, 2.883e-5
-1.520, 2.851e-5
-1.519, 2.811e-5
-1.518, 2.780e-5
-1.517, 2.745e-5
-1.516, 2.697e-5
-1.515, 2.663e-5
-1.514, 2.630e-5
-1.513, 2.601e-5
-1.512, 2.568e-5
-1.511, 2.528e-5
-1.510, 2.497e-5
-1.509, 2.460e-5
-1.508, 2.428e-5
-1.507, 2.402e-5
-1.506, 2.370e-5
-1.505, 2.339e-5
-1.504, 2.313e-5
-1.503, 2.277e-5
-1.502, 2.252e-5
-1.501, 2.215e-5
-1.500, 2.189e-5
-1.499, 2.161e-5
-1.498, 2.135e-5
-1.497, 2.109e-5
-1.496, 2.079e-5
-1.495, 2.057e-5
-1.494, 2.029e-5
-1.493, 2.015e-5
-1.492, 1.982e-5
-1.491, 1.960e-5
-1.490, 1.942e-5
-1.489, 1.907e-5
-1.488, 1.876e-5
-1.487, 1.856e-5
-1.486, 1.826e-5
-1.485, 1.800e-5
-1.484, 1.779e-5
-1.483, 1.755e-5
-1.482, 1.736e-5
-1.481, 1.710e-5
-1.480, 1.689e-5
-1.479, 1.668e-5
-1.478, 1.651e-5
-1.477, 1.634e-5
-1.476, 1.609e-5
-1.475, 1.589e-5
-1.474, 1.571e-5
-1.473, 1.545e-5
-1.472, 1.534e-5
-1.471, 1.515e-5
-1.470, 1.495e-5
-1.469, 1.473e-5
-1.468, 1.450e-5
-1.467, 1.432e-5
-1.466, 1.419e-5
-1.465, 1.402e-5
-1.464, 1.383e-5
-1.463, 1.363e-5
-1.462, 1.350e-5
-1.461, 1.332e-5
-1.460, 1.315e-5
-1.459, 1.288e-5
-1.458, 1.276e-5
-1.457, 1.262e-5
-1.456, 1.251e-5
-1.455, 1.231e-5
-1.454, 1.214e-5
-1.453, 1.196e-5
-1.452, 1.189e-5
-1.451, 1.170e-5
-1.450, 1.156e-5
-1.449, 1.135e-5
-1.448, 1.119e-5
-1.447, 1.105e-5
-1.446, 1.090e-5
-1.445, 1.073e-5
-1.444, 1.066e-5
-1.443, 1.048e-5
-1.442, 1.035e-5
-1.441, 1.019e-5
-1.440, 1.008e-5
-1.439, 9.924e-6
-1.438, 9.832e-6
-1.437, 9.723e-6
-1.436, 9.607e-6
-1.435, 9.476e-6
-1.434, 9.312e-6
-1.433, 9.233e-6
-1.432, 9.098e-6
-1.431, 8.993e-6
-1.430, 8.840e-6
-1.429, 8.757e-6
-1.428, 8.653e-6
-1.427, 8.531e-6
-1.426, 8.412e-6
-1.425, 8.296e-6
-1.424, 8.181e-6
-1.423, 8.063e-6
-1.422, 7.939e-6
-1.421, 7.834e-6
-1.420, 7.761e-6
-1.419, 7.664e-6
-1.418, 7.581e-6
-1.417, 7.447e-6
-1.416, 7.315e-6
-1.415, 7.225e-6
-1.414, 7.133e-6
-1.413, 7.084e-6
-1.412, 6.989e-6
-1.411, 6.892e-6
-1.410, 6.837e-6
-1.409, 6.734e-6
-1.408, 6.634e-6
-1.407, 6.519e-6
-1.406, 6.447e-6
-1.405, 6.412e-6
-1.404, 6.332e-6
-1.403, 6.273e-6
-1.402, 6.225e-6
-1.401, 6.106e-6
-1.400, 6.036e-6
-1.399, 5.989e-6
-1.398, 5.872e-6
-1.397, 5.787e-6
-1.396, 5.688e-6
-1.395, 5.681e-6
-1.394, 5.592e-6
-1.393, 5.555e-6
-1.392, 5.460e-6
-1.391, 5.403e-6
-1.390, 5.319e-6
-1.389, 5.243e-6
-1.388, 5.189e-6
-1.387, 5.114e-6
-1.386, 5.112e-6
-1.385, 5.021e-6
-1.384, 4.938e-6
-1.383, 4.869e-6
-1.382, 4.823e-6
-1.381, 4.752e-6
-1.380, 4.711e-6
-1.379, 4.624e-6
-1.378, 4.589e-6
-1.377, 4.513e-6
-1.376, 4.455e-6
-1.375, 4.415e-6
-1.374, 4.358e-6
-1.373, 4.337e-6
-1.372, 4.280e-6
-1.371, 4.239e-6
-1.370, 4.185e-6
-1.369, 4.083e-6
-1.368, 4.060e-6
-1.367, 4.027e-6
-1.366, 3.972e-6
-1.365, 3.932e-6
-1.364, 3.840e-6
-1.363, 3.831e-6
-1.362, 3.766e-6
-1.361, 3.702e-6
-1.360, 3.677e-6
-1.359, 3.616e-6
-1.358, 3.588e-6
-1.357, 3.541e-6
-1.356, 3.472e-6
-1.355, 3.454e-6
-1.354, 3.398e-6
-1.353, 3.376e-6
-1.352, 3.304e-6
-1.351, 3.283e-6
-1.350, 3.252e-6
-1.349, 3.185e-6
-1.348, 3.177e-6
-1.347, 3.103e-6
-1.346, 3.068e-6
-1.345, 3.031e-6
-1.344, 2.987e-6
-1.343, 2.913e-6
-1.342, 2.892e-6
-1.341, 2.889e-6
-1.340, 2.874e-6
-1.339, 2.805e-6
-1.338, 2.815e-6
-1.337, 2.742e-6
-1.336, 2.695e-6
-1.335, 2.670e-6
-1.334, 2.641e-6
-1.333, 2.623e-6
-1.332, 2.560e-6
-1.331, 2.547e-6
-1.330, 2.494e-6
-1.329, 2.515e-6
-1.328, 2.459e-6
-1.327, 2.393e-6
-1.326, 2.361e-6
-1.325, 2.346e-6
-1.324, 2.312e-6
-1.323, 2.317e-6
-1.322, 2.232e-6
-1.321, 2.197e-6
-1.320, 2.222e-6
-1.319, 2.137e-6
-1.318, 2.138e-6
-1.317, 2.135e-6
-1.316, 2.059e-6
-1.315, 2.028e-6
-1.314, 1.957e-6
-1.313, 1.960e-6
-1.312, 1.929e-6
-1.311, 1.907e-6
-1.310, 1.885e-6
-1.309, 1.861e-6
-1.308, 1.812e-6
-1.307, 1.778e-6
-1.306, 1.790e-6
-1.305, 1.764e-6
-1.304, 1.735e-6
-1.303, 1.737e-6
-1.302, 1.682e-6
-1.301, 1.663e-6
-1.300, 1.644e-6
-1.299, 1.602e-6
-1.298, 1.632e-6
-1.297, 1.596e-6
-1.296, 1.579e-6
-1.295, 1.499e-6
-1.294, 1.496e-6
-1.293, 1.481e-6
-1.292, 1.474e-6
-1.291, 1.453e-6
-1.290, 1.383e-6
-1.289, 1.388e-6
-1.288, 1.364e-6
-1.287, 1.316e-6
-1.286, 1.356e-6
-1.285, 1.289e-6
-1.284, 1.273e-6
-1.283, 1.280e-6
-1.282, 1.200e-6
-1.281, 1.238e-6
-1.280, 1.127e-6
-1.279, 1.167e-6
-1.278, 1.159e-6
-1.277, 1.114e-6
-1.276, 1.095e-6
-1.275, 1.080e-6
-1.274, 1.083e-6
-1.273, 1.066e-6
-1.272, 1.046e-6
-1.271, 1.020e-6
-1.270, 9.775e-7
-1.269, 1.000e-6
-1.268, 9.736e-7
-1.267, 9.588e-7
-1.266, 9.331e-7
-1.265, 9.124e-7
-1.264, 9.450e-7
-1.263, 9.252e-7
-1.262, 8.641e-7
-1.261, 8.927e-7
-1.260, 8.443e-7
-1.259, 8.769e-7
-1.258, 7.901e-7
-1.257, 8.147e-7
-1.256, 7.654e-7
-1.255, 7.654e-7
-1.254, 7.615e-7
-1.253, 7.447e-7
-1.252, 7.141e-7
-1.251, 7.023e-7
-1.250, 6.865e-7
-1.249, 6.658e-7
-1.248, 6.707e-7
-1.247, 6.135e-7
-1.246, 6.302e-7
-1.245, 5.947e-7
-1.244, 6.460e-7
-1.243, 5.779e-7
-1.242, 5.336e-7
-1.241, 5.562e-7
-1.240, 5.158e-7
-1.239, 5.592e-7
-1.238, 5.049e-7
-1.237, 5.128e-7
-1.236, 5.000e-7
-1.235, 4.783e-7
-1.234, 4.931e-7
-1.233, 4.596e-7
-1.232, 4.438e-7
-1.231, 4.497e-7
-1.230, 4.112e-7
-1.229, 4.023e-7
-1.228, 3.668e-7
-1.227, 3.856e-7
-1.226, 3.658e-7
-1.225, 3.412e-7
-1.224, 3.323e-7
-1.223, 3.283e-7
-1.222, 3.165e-7
-1.221, 3.362e-7
-1.220, 3.155e-7
-1.219, 3.431e-7
-1.218, 2.839e-7
-1.217, 2.899e-7
-1.216, 2.731e-7
-1.215, 2.435e-7
-1.214, 2.603e-7
-1.213, 2.326e-7
-1.212, 2.395e-7
-1.211, 2.317e-7
-1.210, 2.247e-7
-1.209, 2.228e-7
-1.208, 2.040e-7
-1.207, 1.991e-7
-1.206, 1.932e-7
-1.205, 1.764e-7
-1.204, 2.169e-7
-1.203, 1.675e-7
-1.202, 1.922e-7
-1.201, 1.429e-7
-1.200, 1.330e-7
-1.199, 1.458e-7
-1.198, 1.429e-7
-1.197, 1.281e-7
-1.196, 1.192e-7
-1.195, 7.478e-8
-1.194, 9.057e-8
-1.193, 9.945e-8
-1.192, 7.577e-8
-1.191, 5.998e-8
-1.190, 6.985e-8
-1.189, 4.420e-8
-1.188, 5.801e-8
-1.187, 1.263e-8
-1.186, 1.953e-8
-1.185, 5.722e-9
-1.184, 2.052e-8
-1.183, -2.171e-9
-1.182, 1.362e-8
-1.181, -2.486e-8
-1.180, -2.486e-8
-1.179, -1.894e-8
-1.178, -3.275e-8
-1.177, -5.446e-8
-1.176, -8.603e-8
-1.175, -7.419e-8
-1.174, -6.926e-8
-1.173, -1.067e-7
-1.172, -1.363e-7
-1.171, -1.196e-7
-1.170, -1.176e-7
-1.169, -1.215e-7
-1.168, -1.650e-7
-1.167, -1.196e-7
-1.166, -1.502e-7
-1.165, -1.679e-7
-1.164, -1.768e-7
-1.163, -1.965e-7
-1.162, -2.044e-7
-1.161, -1.788e-7
-1.160, -2.113e-7
-1.159, -2.005e-7
-1.158, -2.577e-7
-1.157, -2.084e-7
-1.156, -2.251e-7
-1.155, -2.439e-7
-1.154, -2.468e-7
-1.153, -2.666e-7
-1.152, -2.666e-7
-1.151, -2.991e-7
-1.150, -2.883e-7
-1.149, -2.577e-7
-1.148, -2.745e-7
-1.147, -2.794e-7
-1.146, -3.179e-7
-1.145, -3.179e-7
-1.144, -3.218e-7
-1.143, -3.455e-7
-1.142, -3.297e-7
-1.141, -3.435e-7
-1.140, -3.554e-7
-1.139, -3.465e-7
-1.138, -3.692e-7
-1.137, -3.485e-7
-1.136, -4.017e-7
-1.135, -3.820e-7
-1.134, -3.692e-7
-1.133, -3.978e-7
-1.132, -3.968e-7
-1.131, -3.879e-7
-1.130, -3.909e-7
-1.129, -4.422e-7
-1.128, -4.274e-7
-1.127, -4.116e-7
-1.126, -4.767e-7
-1.125, -4.294e-7
-1.124, -4.491e-7
-1.123, -4.846e-7
-1.122, -4.659e-7
-1.121, -4.876e-7
-1.120, -4.955e-7
-1.119, -4.728e-7
-1.118, -4.994e-7
-1.117, -4.639e-7
-1.116, -5.310e-7
-1.115, -5.182e-7
-1.114, -5.616e-7
-1.113, -5.261e-7
-1.112, -4.955e-7
-1.111, -5.596e-7
-1.110, -5.478e-7
-1.109, -5.280e-7
-1.108, -5.596e-7
-1.107, -5.724e-7
-1.106, -6.070e-7
-1.105, -5.704e-7
-1.104, -6.148e-7
-1.103, -6.030e-7
-1.102, -6.119e-7
-1.101, -6.504e-7
-1.100, -6.346e-7
-1.099, -6.494e-7
-1.098, -6.543e-7
-1.097, -6.681e-7
-1.096, -6.790e-7
-1.095, -6.237e-7
-1.094, -7.194e-7
-1.093, -7.017e-7
-1.092, -6.731e-7
-1.091, -7.017e-7
-1.090, -6.869e-7
-1.089, -7.105e-7
-1.088, -7.214e-7
-1.087, -7.845e-7
-1.086, -7.569e-7
-1.085, -7.520e-7
-1.084, -7.431e-7
-1.083, -7.865e-7
-1.082, -7.392e-7
-1.081, -7.836e-7
-1.080, -7.806e-7
-1.079, -8.141e-7
-1.078, -7.766e-7
-1.077, -8.003e-7
-1.076, -8.141e-7
-1.075, -8.191e-7
-1.074, -8.418e-7
-1.073, -8.733e-7
-1.072, -8.418e-7
-1.071, -8.654e-7
-1.070, -8.437e-7
-1.069, -8.871e-7
-1.068, -9.177e-7
-1.067, -8.812e-7
-1.066, -9.246e-7
-1.065, -8.852e-7
-1.064, -9.128e-7
-1.063, -9.315e-7
-1.062, -9.296e-7
-1.061, -9.562e-7
-1.060, -9.483e-7
-1.059, -9.750e-7
-1.058, -9.680e-7
-1.057, -9.384e-7
-1.056, -9.937e-7
-1.055, -9.927e-7
-1.054, -1.039e-6
-1.053, -9.898e-7
-1.052, -1.046e-6
-1.051, -1.047e-6
-1.050, -1.026e-6
-1.049, -1.063e-6
-1.048, -1.062e-6
-1.047, -1.077e-6
-1.046, -1.115e-6
-1.045, -1.060e-6
-1.044, -1.118e-6
-1.043, -1.112e-6
-1.042, -1.124e-6
-1.041, -1.174e-6
-1.040, -1.143e-6
-1.039, -1.159e-6
-1.038, -1.185e-6
-1.037, -1.186e-6
-1.036, -1.246e-6
-1.035, -1.203e-6
-1.034, -1.219e-6
-1.033, -1.226e-6
-1.032, -1.233e-6
-1.031, -1.272e-6
-1.030, -1.231e-6
-1.029, -1.239e-6
-1.028, -1.279e-6
-1.027, -1.268e-6
-1.026, -1.304e-6
-1.025, -1.300e-6
-1.024, -1.347e-6
-1.023, -1.315e-6
-1.022, -1.337e-6
-1.021, -1.350e-6
-1.020, -1.328e-6
-1.019, -1.354e-6
-1.018, -1.367e-6
-1.017, -1.401e-6
-1.016, -1.395e-6
-1.015, -1.391e-6
-1.014, -1.392e-6
-1.013, -1.412e-6
-1.012, -1.418e-6
-1.011, -1.439e-6
-1.010, -1.433e-6
-1.009, -1.458e-6
-1.008, -1.468e-6
-1.007, -1.469e-6
-1.006, -1.511e-6
-1.005, -1.492e-6
-1.004, -1.527e-6
-1.003, -1.498e-6
-1.002, -1.487e-6
-1.001, -1.566e-6
-1.000, -1.155e-6
-1.001, -9.138e-7
-1.002, -7.470e-7
-1.003, -6.178e-7
-1.004, -5.152e-7
-1.005, -4.333e-7
-1.006, -3.495e-7
-1.007, -2.626e-7
-1.008, -1.896e-7
-1.009, -1.650e-7
-1.010, -5.841e-8
-1.011, -2.980e-8
-1.012, 3.335e-8
-1.013, 7.380e-8
-1.014, 1.251e-7
-1.015, 1.784e-7
-1.016, 2.139e-7
-1.017, 2.889e-7
-1.018, 2.908e-7
-1.019, 3.392e-7
-1.020, 4.043e-7
-1.021, 4.161e-7
-1.022, 4.596e-7
-1.023, 4.783e-7
-1.024, 4.921e-7
-1.025, 5.592e-7
-1.026, 5.553e-7
-1.027, 6.342e-7
-1.028, 6.312e-7
-1.029, 6.648e-7
-1.030, 6.894e-7
-1.031, 6.954e-7
-1.032, 7.506e-7
-1.033, 7.427e-7
-1.034, 7.545e-7
-1.035, 8.394e-7
-1.036, 8.256e-7
-1.037, 8.749e-7
-1.038, 8.414e-7
-1.039, 9.006e-7
-1.040, 9.104e-7
-1.041, 9.459e-7
-1.042, 9.864e-7
-1.043, 9.558e-7
-1.044, 9.746e-7
-1.045, 1.033e-6
-1.046, 1.015e-6
-1.047, 1.069e-6
-1.048, 1.039e-6
-1.049, 1.057e-6
-1.050, 1.116e-6
-1.051, 1.108e-6
-1.052, 1.172e-6
-1.053, 1.144e-6
-1.054, 1.179e-6
-1.055, 1.179e-6
-1.056, 1.180e-6
-1.057, 1.213e-6
-1.058, 1.206e-6
-1.059, 1.218e-6
-1.060, 1.264e-6
-1.061, 1.268e-6
-1.062, 1.274e-6
-1.063, 1.273e-6
-1.064, 1.303e-6
-1.065, 1.312e-6
-1.066, 1.294e-6
-1.067, 1.342e-6
-1.068, 1.329e-6
-1.069, 1.358e-6
-1.070, 1.347e-6
-1.071, 1.367e-6
-1.072, 1.406e-6
-1.073, 1.356e-6
-1.074, 1.405e-6
-1.075, 1.413e-6
-1.076, 1.447e-6
-1.077, 1.464e-6
-1.078, 1.432e-6
-1.079, 1.473e-6
-1.080, 1.471e-6
-1.081, 1.485e-6
-1.082, 1.509e-6
-1.083, 1.475e-6
-1.084, 1.500e-6
-1.085, 1.519e-6
-1.086, 1.533e-6
-1.087, 1.554e-6
-1.088, 1.546e-6
-1.089, 1.550e-6
-1.090, 1.569e-6
-1.091, 1.580e-6
-1.092, 1.605e-6
-1.093, 1.563e-6
-1.094, 1.619e-6
-1.095, 1.625e-6
-1.096, 1.605e-6
-1.097, 1.642e-6
-1.098, 1.654e-6
-1.099, 1.654e-6
-1.100, 1.662e-6
-1.101, 1.649e-6
-1.102, 1.700e-6
-1.103, 1.648e-6
-1.104, 1.681e-6
-1.105, 1.680e-6
-1.106, 1.739e-6
-1.107, 1.712e-6
-1.108, 1.702e-6
-1.109, 1.747e-6
-1.110, 1.746e-6
-1.111, 1.754e-6
-1.112, 1.775e-6
-1.113, 1.724e-6
-1.114, 1.813e-6
-1.115, 1.797e-6
-1.116, 1.795e-6
-1.117, 1.822e-6
-1.118, 1.799e-6
-1.119, 1.844e-6
-1.120, 1.803e-6
-1.121, 1.848e-6
-1.122, 1.859e-6
-1.123, 1.852e-6
-1.124, 1.857e-6
-1.125, 1.856e-6
-1.126, 1.917e-6
-1.127, 1.868e-6
-1.128, 1.853e-6
-1.129, 1.887e-6
-1.130, 1.913e-6
-1.131, 1.897e-6
-1.132, 1.891e-6
-1.133, 1.935e-6
-1.134, 1.908e-6
-1.135, 1.950e-6
-1.136, 1.936e-6
-1.137, 1.948e-6
-1.138, 1.951e-6
-1.139, 1.952e-6
-1.140, 2.017e-6
-1.141, 1.937e-6
-1.142, 1.965e-6
-1.143, 1.992e-6
-1.144, 2.012e-6
-1.145, 1.987e-6
-1.146, 2.005e-6
-1.147, 2.003e-6
-1.148, 2.019e-6
-1.149, 2.054e-6
-1.150, 2.010e-6
-1.151, 2.042e-6
-1.152, 2.084e-6
-1.153, 2.061e-6
-1.154, 2.146e-6
-1.155, 2.042e-6
-1.156, 2.123e-6
-1.157, 2.128e-6
-1.158, 2.097e-6
-1.159, 2.138e-6
-1.160, 2.139e-6
-1.161, 2.166e-6
-1.162, 2.174e-6
-1.163, 2.199e-6
-1.164, 2.184e-6
-1.165, 2.203e-6
-1.166, 2.208e-6
-1.167, 2.262e-6
-1.168, 2.214e-6
-1.169, 2.225e-6
-1.170, 2.280e-6
-1.171, 2.269e-6
-1.172, 2.304e-6
-1.173, 2.316e-6
-1.174, 2.270e-6
-1.175, 2.315e-6
-1.176, 2.323e-6
-1.177, 2.347e-6
-1.178, 2.384e-6
-1.179, 2.355e-6
-1.180, 2.419e-6
-1.181, 2.400e-6
-1.182, 2.422e-6
-1.183, 2.433e-6
-1.184, 2.441e-6
-1.185, 2.428e-6
-1.186, 2.457e-6
-1.187, 2.471e-6
-1.188, 2.453e-6
-1.189, 2.467e-6
-1.190, 2.530e-6
-1.191, 2.513e-6
-1.192, 2.528e-6
-1.193, 2.492e-6
-1.194, 2.544e-6
-1.195, 2.574e-6
-1.196, 2.576e-6
-1.197, 2.599e-6
-1.198, 2.609e-6
-1.199, 2.627e-6
-1.200, 2.672e-6
-1.201, 2.639e-6
-1.202, 2.677e-6
-1.203, 2.683e-6
-1.204, 2.707e-6
-1.205, 2.732e-6
-1.206, 2.720e-6
-1.207, 2.753e-6
-1.208, 2.779e-6
-1.209, 2.770e-6
-1.210, 2.797e-6
-1.211, 2.803e-6
-1.212, 2.824e-6
-1.213, 2.809e-6
-1.214, 2.869e-6
-1.215, 2.904e-6
-1.216, 2.885e-6
-1.217, 2.933e-6
-1.218, 2.925e-6
-1.219, 2.944e-6
-1.220, 2.995e-6
-1.221, 2.947e-6
-1.222, 2.990e-6
-1.223, 3.000e-6
-1.224, 3.029e-6
-1.225, 3.054e-6
-1.226, 3.058e-6
-1.227, 3.085e-6
-1.228, 3.106e-6
-1.229, 3.161e-6
-1.230, 3.182e-6
-1.231, 3.179e-6
-1.232, 3.184e-6
-1.233, 3.226e-6
-1.234, 3.246e-6
-1.235, 3.331e-6
-1.236, 3.274e-6
-1.237, 3.344e-6
-1.238, 3.344e-6
-1.239, 3.351e-6
-1.240, 3.385e-6
-1.241, 3.427e-6
-1.242, 3.443e-6
-1.243, 3.513e-6
-1.244, 3.489e-6
-1.245, 3.532e-6
-1.246, 3.540e-6
-1.247, 3.616e-6
-1.248, 3.583e-6
-1.249, 3.607e-6
-1.250, 3.659e-6
-1.251, 3.678e-6
-1.252, 3.690e-6
-1.253, 3.732e-6
-1.254, 3.778e-6
-1.255, 3.802e-6
-1.256, 3.796e-6
-1.257, 3.855e-6
-1.258, 3.881e-6
-1.259, 3.905e-6
-1.260, 3.975e-6
-1.261, 3.981e-6
-1.262, 4.067e-6
-1.263, 4.034e-6
-1.264, 4.054e-6
-1.265, 4.077e-6
-1.266, 4.104e-6
-1.267, 4.166e-6
-1.268, 4.213e-6
-1.269, 4.222e-6
-1.270, 4.248e-6
-1.271, 4.289e-6
-1.272, 4.347e-6
-1.273, 4.358e-6
-1.274, 4.438e-6
-1.275, 4.437e-6
-1.276, 4.507e-6
-1.277, 4.536e-6
-1.278, 4.566e-6
-1.279, 4.622e-6
-1.280, 4.657e-6
-1.281, 4.702e-6
-1.282, 4.727e-6
-1.283, 4.763e-6
-1.284, 4.807e-6
-1.285, 4.819e-6
-1.286, 4.931e-6
-1.287, 4.966e-6
-1.288, 4.998e-6
-1.289, 5.052e-6
-1.290, 5.063e-6
-1.291, 5.118e-6
-1.292, 5.111e-6
-1.293, 5.172e-6
-1.294, 5.263e-6
-1.295, 5.274e-6
-1.296, 5.334e-6
-1.297, 5.360e-6
-1.298, 5.397e-6
-1.299, 5.447e-6
-1.300, 5.546e-6
-1.301, 5.576e-6
-1.302, 5.609e-6
-1.303, 5.671e-6
-1.304, 5.744e-6
-1.305, 5.776e-6
-1.306, 5.830e-6
-1.307, 5.859e-6
-1.308, 5.903e-6
-1.309, 5.926e-6
-1.310, 5.995e-6
-1.311, 6.040e-6
-1.312, 6.125e-6
-1.313, 6.185e-6
-1.314, 6.220e-6
-1.315, 6.203e-6
-1.316, 6.301e-6
-1.317, 6.334e-6
-1.318, 6.374e-6
-1.319, 6.463e-6
-1.320, 6.490e-6
-1.321, 6.565e-6
-1.322, 6.656e-6
-1.323, 6.667e-6
-1.324, 6.761e-6
-1.325, 6.772e-6
-1.326, 6.806e-6
-1.327, 6.891e-6
-1.328, 6.936e-6
-1.329, 7.029e-6
-1.330, 7.050e-6
-1.331, 7.176e-6
-1.332, 7.232e-6
-1.333, 7.226e-6
-1.334, 7.288e-6
-1.335, 7.347e-6
-1.336, 7.409e-6
-1.337, 7.517e-6
-1.338, 7.545e-6
-1.339, 7.672e-6
-1.340, 7.718e-6
-1.341, 7.796e-6
-1.342, 7.821e-6
-1.343, 7.876e-6
-1.344, 7.944e-6
-1.345, 8.019e-6
-1.346, 8.120e-6
-1.347, 8.201e-6
-1.348, 8.241e-6
-1.349, 8.302e-6
-1.350, 8.369e-6
-1.351, 8.415e-6
-1.352, 8.524e-6
-1.353, 8.560e-6
-1.354, 8.650e-6
-1.355, 8.720e-6
-1.356, 8.766e-6
-1.357, 8.835e-6
-1.358, 8.928e-6
-1.359, 9.005e-6
-1.360, 9.055e-6
-1.361, 9.119e-6
-1.362, 9.182e-6
-1.363, 9.257e-6
-1.364, 9.408e-6
-1.365, 9.447e-6
-1.366, 9.546e-6
-1.367, 9.598e-6
-1.368, 9.637e-6
-1.369, 9.720e-6
-1.370, 9.832e-6
-1.371, 9.851e-6
-1.372, 9.997e-6
-1.373, 1.006e-5
-1.374, 1.013e-5
-1.375, 1.018e-5
-1.376, 1.030e-5
-1.377, 1.034e-5
-1.378, 1.042e-5
-1.379, 1.053e-5
-1.380, 1.058e-5
-1.381, 1.071e-5
-1.382, 1.078e-5
-1.383, 1.089e-5
-1.384, 1.095e-5
-1.385, 1.102e-5
-1.386, 1.111e-5
-1.387, 1.123e-5
-1.388, 1.129e-5
-1.389, 1.139e-5
-1.390, 1.143e-5
-1.391, 1.155e-5
-1.392, 1.167e-5
-1.393, 1.177e-5
-1.394, 1.180e-5
-1.395, 1.194e-5
-1.396, 1.206e-5
-1.397, 1.211e-5
-1.398, 1.223e-5
-1.399, 1.231e-5
-1.400, 1.238e-5
-1.401, 1.249e-5
-1.402, 1.259e-5
-1.403, 1.265e-5
-1.404, 1.278e-5
-1.405, 1.288e-5
-1.406, 1.298e-5
-1.407, 1.306e-5
-1.408, 1.321e-5
-1.409, 1.330e-5
-1.410, 1.337e-5
-1.411, 1.349e-5
-1.412, 1.358e-5
-1.413, 1.366e-5
-1.414, 1.377e-5
-1.415, 1.387e-5
-1.416, 1.401e-5
-1.417, 1.409e-5
-1.418, 1.422e-5
-1.419, 1.432e-5
-1.420, 1.442e-5
-1.421, 1.458e-5
-1.422, 1.467e-5
-1.423, 1.477e-5
-1.424, 1.487e-5
-1.425, 1.499e-5
-1.426, 1.513e-5
-1.427, 1.521e-5
-1.428, 1.536e-5
-1.429, 1.544e-5
-1.430, 1.558e-5
-1.431, 1.567e-5
-1.432, 1.576e-5
-1.433, 1.583e-5
-1.434, 1.599e-5
-1.435, 1.619e-5
-1.436, 1.629e-5
-1.437, 1.642e-5
-1.438, 1.652e-5
-1.439, 1.662e-5
-1.440, 1.676e-5
-1.441, 1.691e-5
-1.442, 1.702e-5
-1.443, 1.719e-5
-1.444, 1.731e-5
-1.445, 1.742e-5
-1.446, 1.753e-5
-1.447, 1.771e-5
-1.448, 1.777e-5
-1.449, 1.788e-5
-1.450, 1.806e-5
-1.451, 1.826e-5
-1.452, 1.835e-5
-1.453, 1.850e-5
-1.454, 1.864e-5
-1.455, 1.879e-5
-1.456, 1.896e-5
-1.457, 1.910e-5
-1.458, 1.923e-5
-1.459, 1.943e-5
-1.460, 1.961e-5
-1.461, 1.970e-5
-1.462, 1.986e-5
-1.463, 1.998e-5
-1.464, 2.017e-5
-1.465, 2.040e-5
-1.466, 2.047e-5
-1.467, 2.068e-5
-1.468, 2.079e-5
-1.469, 2.095e-5
-1.470, 2.106e-5
-1.471, 2.128e-5
-1.472, 2.142e-5
-1.473, 2.161e-5
-1.474, 2.173e-5
-1.475, 2.188e-5
-1.476, 2.201e-5
-1.477, 2.221e-5
-1.478, 2.235e-5
-1.479, 2.261e-5
-1.480, 2.278e-5
-1.481, 2.293e-5
-1.482, 2.308e-5
-1.483, 2.325e-5
-1.484, 2.342e-5
-1.485, 2.364e-5
-1.486, 2.375e-5
-1.487, 2.398e-5
-1.488, 2.412e-5
-1.489, 2.433e-5
-1.490, 2.452e-5
-1.491, 2.470e-5
-1.492, 2.492e-5
-1.493, 2.505e-5
-1.494, 2.523e-5
-1.495, 2.542e-5
-1.496, 2.556e-5
-1.497, 2.579e-5
-1.498, 2.598e-5
-1.499, 2.618e-5
-1.500, 2.648e-5
-1.501, 2.657e-5
-1.502, 2.684e-5
-1.503, 2.700e-5
-1.504, 2.720e-5
-1.505, 2.743e-5
-1.506, 2.763e-5
-1.507, 2.790e-5
-1.508, 2.813e-5
-1.509, 2.835e-5
-1.510, 2.864e-5
-1.511, 2.874e-5
-1.512, 2.893e-5
-1.513, 2.918e-5
-1.514, 2.945e-5
-1.515, 2.971e-5
-1.516, 2.987e-5
-1.517, 3.017e-5
-1.518, 3.038e-5
-1.519, 3.065e-5
-1.520, 3.086e-5
-1.521, 3.104e-5
-1.522, 3.133e-5
-1.523, 3.152e-5
-1.524, 3.182e-5
-1.525, 3.205e-5
-1.526, 3.232e-5
-1.527, 3.262e-5
-1.528, 3.284e-5
-1.529, 3.306e-5
-1.530, 3.323e-5
-1.531, 3.342e-5
-1.532, 3.378e-5
-1.533, 3.387e-5
-1.534, 3.421e-5
-1.535, 3.453e-5
-1.536, 3.483e-5
-1.537, 3.517e-5
-1.538, 3.535e-5
-1.539, 3.567e-5
-1.540, 3.593e-5
-1.541, 3.615e-5
-1.542, 3.639e-5
-1.543, 3.670e-5
-1.544, 3.691e-5
-1.545, 3.718e-5
-1.546, 3.761e-5
-1.547, 3.802e-5
-1.548, 3.825e-5
-1.549, 3.861e-5
-1.550, 3.886e-5
-1.551, 3.914e-5
-1.552, 3.952e-5
-1.553, 3.981e-5
-1.554, 4.017e-5
-1.555, 4.058e-5
-1.556, 4.093e-5
-1.557, 4.117e-5
-1.558, 4.150e-5
-1.559, 4.183e-5
-1.560, 4.212e-5
-1.561, 4.253e-5
-1.562, 4.290e-5
-1.563, 4.328e-5
-1.564, 4.360e-5
-1.565, 4.397e-5
-1.566, 4.427e-5
-1.567, 4.474e-5
-1.568, 4.517e-5
-1.569, 4.559e-5
-1.570, 4.587e-5
-1.571, 4.633e-5
-1.572, 4.671e-5
-1.573, 4.714e-5
-1.574, 4.760e-5
-1.575, 4.795e-5
-1.576, 4.832e-5
-1.577, 4.872e-5
-1.578, 4.911e-5
-1.579, 4.955e-5
-1.580, 5.003e-5
-1.581, 5.044e-5
-1.582, 5.087e-5
-1.583, 5.156e-5
-1.584, 5.210e-5
-1.585, 5.248e-5
-1.586, 5.306e-5
-1.587, 5.350e-5
-1.588, 5.393e-5
-1.589, 5.445e-5
-1.590, 5.494e-5
-1.591, 5.544e-5
-1.592, 5.593e-5
-1.593, 5.651e-5
-1.594, 5.697e-5
-1.595, 5.753e-5
-1.596, 5.809e-5
-1.597, 5.865e-5
-1.598, 5.912e-5
-1.599, 5.967e-5
-1.600, 6.024e-5
-1.601, 6.065e-5
-1.602, 6.129e-5
-1.603, 6.201e-5
-1.604, 6.277e-5
-1.605, 6.335e-5
-1.606, 6.392e-5
-1.607, 6.467e-5
-1.608, 6.515e-5
-1.609, 6.586e-5
-1.610, 6.663e-5
-1.611, 6.747e-5
-1.612, 6.817e-5
-1.613, 6.873e-5
-1.614, 6.914e-5
-1.615, 6.985e-5
-1.616, 7.081e-5
-1.617, 7.160e-5
-1.618, 7.238e-5
-1.619, 7.333e-5
-1.620, 7.484e-5
-1.621, 7.578e-5
-1.622, 7.560e-5
-1.623, 7.640e-5
-1.624, 7.732e-5
-1.625, 7.821e-5
-1.626, 7.932e-5
-1.627, 7.998e-5
-1.628, 8.071e-5
-1.629, 8.147e-5
-1.630, 8.269e-5
-1.631, 8.368e-5
-1.632, 8.478e-5
-1.633, 8.596e-5
-1.634, 8.698e-5
-1.635, 8.783e-5
-1.636, 8.864e-5
-1.637, 8.985e-5
-1.638, 9.077e-5
-1.639, 9.151e-5
-1.640, 9.277e-5
-1.641, 9.398e-5
-1.642, 9.553e-5
-1.643, 9.684e-5
-1.644, 9.804e-5
-1.645, 9.900e-5
-1.646, 1.003e-4
-1.647, 1.014e-4
-1.648, 1.028e-4
-1.649, 1.040e-4
-1.650, 1.052e-4
-1.651, 1.068e-4
-1.652, 1.085e-4
-1.653, 1.101e-4
-1.654, 1.113e-4
-1.655, 1.129e-4
-1.656, 1.141e-4
-1.657, 1.154e-4
-1.658, 1.170e-4
-1.659, 1.189e-4
-1.660, 1.204e-4
-1.661, 1.218e-4
-1.662, 1.234e-4
-1.663, 1.248e-4
-1.664, 1.270e-4
-1.665, 1.292e-4
-1.666, 1.306e-4
-1.667, 1.326e-4
-1.668, 1.352e-4
-1.669, 1.368e-4
-1.670, 1.386e-4
-1.671, 1.415e-4
-1.672, 1.430e-4
-1.673, 1.444e-4
-1.674, 1.467e-4
-1.675, 1.490e-4
-1.676, 1.515e-4
-1.677, 1.544e-4
-1.678, 1.568e-4
-1.679, 1.588e-4
-1.680, 1.614e-4
-1.681, 1.634e-4
-1.682, 1.659e-4
-1.683, 1.690e-4
-1.684, 1.716e-4
-1.685, 1.743e-4
-1.686, 1.776e-4
-1.687, 1.806e-4
-1.688, 1.836e-4
-1.689, 1.868e-4
-1.690, 1.902e-4
-1.691, 1.948e-4
-1.692, 1.970e-4
-1.693, 2.002e-4
-1.694, 2.041e-4
-1.695, 2.074e-4
-1.696, 2.108e-4
-1.697, 2.155e-4
-1.698, 2.197e-4
-1.699, 2.230e-4
-1.700, 2.271e-4
-1.701, 2.315e-4
-1.702, 2.354e-4
-1.703, 2.399e-4
-1.704, 2.441e-4
-1.705, 2.492e-4
-1.706, 2.545e-4
-1.707, 2.611e-4
-1.708, 2.653e-4
-1.709, 2.696e-4
-1.710, 2.736e-4
-1.711, 2.797e-4
-1.712, 2.851e-4
-1.713, 2.915e-4
-1.714, 2.983e-4
-1.715, 3.040e-4
-1.716, 3.107e-4
-1.717, 3.164e-4
-1.718, 3.225e-4
-1.719, 3.287e-4
-1.720, 3.358e-4
-1.721, 3.420e-4
-1.722, 3.530e-4
-1.723, 3.596e-4
-1.724, 3.671e-4
-1.725, 3.744e-4
-1.726, 3.829e-4
-1.727, 3.908e-4
-1.728, 3.986e-4
-1.729, 4.063e-4
-1.730, 4.156e-4
-1.731, 4.265e-4
-1.732, 4.366e-4
-1.733, 4.468e-4
-1.734, 4.578e-4
-1.735, 4.662e-4
-1.736, 4.749e-4
-1.737, 4.862e-4
-1.738, 4.981e-4
-1.739, 5.081e-4
-1.740, 5.195e-4
-1.741, 5.332e-4
-1.742, 5.465e-4
-1.743, 5.581e-4
-1.744, 5.715e-4
-1.745, 5.832e-4
-1.746, 5.968e-4
-1.747, 6.105e-4
-1.748, 6.218e-4
-1.749, 6.388e-4
-1.750, 6.529e-4
-1.751, 6.661e-4
-1.752, 6.809e-4
-1.753, 6.983e-4
-1.754, 7.148e-4
-1.755, 7.299e-4
-1.756, 7.443e-4
-1.757, 7.637e-4
-1.758, 7.811e-4
-1.759, 7.979e-4
-1.760, 8.161e-4
-1.761, 8.307e-4
-1.762, 8.507e-4
-1.763, 8.697e-4
-1.764, 8.843e-4
-1.765, 9.010e-4
-1.766, 9.220e-4
-1.767, 9.436e-4
-1.768, 9.651e-4
-1.769, 9.857e-4
-1.770, 1.006e-3
-1.771, 1.025e-3
-1.772, 1.049e-3
-1.773, 1.071e-3
-1.774, 1.093e-3
-1.775, 1.117e-3
-1.776, 1.138e-3
-1.777, 1.162e-3
-1.778, 1.182e-3
-1.779, 1.205e-3
-1.780, 1.228e-3
-1.781, 1.250e-3
-1.782, 1.272e-3
-1.783, 1.305e-3
-1.784, 1.332e-3
-1.785, 1.356e-3
-1.786, 1.381e-3
-1.787, 1.405e-3
-1.788, 1.433e-3
-1.789, 1.459e-3
-1.790, 1.489e-3
-1.791, 1.518e-3
-1.792, 1.545e-3
-1.793, 1.578e-3
-1.794, 1.611e-3
-1.795, 1.636e-3
-1.796, 1.663e-3
-1.797, 1.699e-3
-1.798, 1.730e-3
-1.799, 1.755e-3
-1.800, 1.793e-3
-1.801, 1.827e-3
-1.802, 1.864e-3
-1.803, 1.896e-3
-1.804, 1.931e-3
-1.805, 1.960e-3
-1.806, 1.995e-3
-1.807, 2.022e-3
-1.808, 2.045e-3
-1.809, 2.091e-3
-1.810, 2.133e-3
-1.811, 2.174e-3
-1.812, 2.210e-3
-1.813, 2.245e-3
-1.814, 2.281e-3
-1.815, 2.317e-3
-1.816, 2.329e-3
-1.817, 2.368e-3
-1.818, 2.421e-3
-1.819, 2.477e-3
-1.820, 2.522e-3
-1.821, 2.561e-3
-1.822, 2.604e-3
-1.823, 2.650e-3
-1.824, 2.686e-3
-1.825, 2.723e-3
-1.826, 2.765e-3
-1.827, 2.811e-3
-1.828, 2.854e-3
-1.829, 2.905e-3
-1.830, 2.950e-3
-1.831, 2.993e-3
-1.832, 3.042e-3
-1.833, 3.089e-3
-1.834, 3.143e-3
-1.835, 3.194e-3
-1.836, 3.238e-3
-1.837, 3.272e-3
-1.838, 3.297e-3
-1.839, 3.343e-3
-1.840, 3.401e-3
-1.841, 3.450e-3
-1.842, 3.514e-3
-1.843, 3.560e-3
-1.844, 3.606e-3
-1.845, 3.654e-3
-1.846, 3.713e-3
-1.847, 3.741e-3
-1.848, 3.785e-3
-1.849, 3.852e-3
-1.850, 3.918e-3
-1.851, 3.954e-3
-1.852, 4.007e-3
-1.853, 4.086e-3
-1.854, 4.144e-3
-1.855, 4.140e-3
-1.856, 4.201e-3
-1.857, 4.282e-3
-1.858, 4.343e-3
-1.859, 4.390e-3
-1.860, 4.434e-3
-1.861, 4.499e-3
-1.862, 4.514e-3
-1.863, 4.547e-3
-1.864, 4.604e-3
-1.865, 4.675e-3
-1.866, 4.748e-3
-1.867, 4.816e-3
-1.868, 4.885e-3
-1.869, 4.938e-3
-1.870, 4.985e-3
-1.871, 5.019e-3
-1.872, 5.070e-3
-1.873, 5.120e-3
-1.874, 5.200e-3
-1.875, 5.265e-3
-1.876, 5.311e-3
-1.877, 5.350e-3
-1.878, 5.428e-3
-1.879, 5.431e-3
-1.880, 5.479e-3
-1.881, 5.526e-3
-1.882, 5.607e-3
-1.883, 5.691e-3
-1.884, 5.738e-3
-1.885, 5.781e-3
-1.886, 5.836e-3
-1.887, 5.904e-3
-1.888, 5.951e-3
-1.889, 6.016e-3
-1.890, 6.106e-3
-1.891, 6.146e-3
-1.892, 6.175e-3
-1.893, 6.227e-3
-1.894, 6.308e-3
-1.895, 6.280e-3
-1.896, 6.356e-3
-1.897, 6.449e-3
-1.898, 6.552e-3
-1.899, 6.618e-3
-1.900, 6.600e-3
-1.899, 6.547e-3
-1.898, 6.547e-3
-1.897, 6.434e-3
-1.896, 6.364e-3
-1.895, 6.325e-3
-1.894, 6.334e-3
-1.893, 6.308e-3
-1.892, 6.266e-3
-1.891, 6.184e-3
-1.890, 6.129e-3
-1.889, 6.064e-3
-1.888, 6.015e-3
-1.887, 5.982e-3
-1.886, 5.943e-3
-1.885, 5.902e-3
-1.884, 5.847e-3
-1.883, 5.782e-3
-1.882, 5.756e-3
-1.881, 5.600e-3
-1.880, 5.529e-3
-1.879, 5.521e-3
-1.878, 5.491e-3
-1.877, 5.458e-3
-1.876, 5.399e-3
-1.875, 5.334e-3
-1.874, 5.285e-3
-1.873, 5.255e-3
-1.872, 5.133e-3
-1.871, 5.090e-3
-1.870, 5.037e-3
-1.869, 5.016e-3
-1.868, 4.962e-3
-1.867, 4.920e-3
-1.866, 4.883e-3
-1.865, 4.841e-3
-1.864, 4.764e-3
-1.863, 4.688e-3
-1.862, 4.638e-3
-1.861, 4.602e-3
-1.860, 4.587e-3
-1.859, 4.515e-3
-1.858, 4.469e-3
-1.857, 4.437e-3
-1.856, 4.346e-3
-1.855, 4.279e-3
-1.854, 4.245e-3
-1.853, 4.218e-3
-1.852, 4.187e-3
-1.851, 4.151e-3
-1.850, 4.108e-3
-1.849, 4.069e-3
-1.848, 4.017e-3
-1.847, 3.966e-3
-1.846, 3.926e-3
-1.845, 3.873e-3
-1.844, 3.852e-3
-1.843, 3.802e-3
-1.842, 3.757e-3
-1.841, 3.729e-3
-1.840, 3.696e-3
-1.839, 3.637e-3
-1.838, 3.585e-3
-1.837, 3.556e-3
-1.836, 3.522e-3
-1.835, 3.497e-3
-1.834, 3.440e-3
-1.833, 3.403e-3
-1.832, 3.391e-3
-1.831, 3.321e-3
-1.830, 3.268e-3
-1.829, 3.243e-3
-1.828, 3.203e-3
-1.827, 3.150e-3
-1.826, 3.107e-3
-1.825, 3.073e-3
-1.824, 3.029e-3
-1.823, 3.002e-3
-1.822, 2.981e-3
-1.821, 2.935e-3
-1.820, 2.894e-3
-1.819, 2.861e-3
-1.818, 2.832e-3
-1.817, 2.784e-3
-1.816, 2.747e-3
-1.815, 2.721e-3
-1.814, 2.695e-3
-1.813, 2.658e-3
-1.812, 2.623e-3
-1.811, 2.586e-3
-1.810, 2.562e-3
-1.809, 2.525e-3
-1.808, 2.484e-3
-1.807, 2.447e-3
-1.806, 2.418e-3
-1.805, 2.393e-3
-1.804, 2.365e-3
-1.803, 2.331e-3
-1.802, 2.304e-3
-1.801, 2.274e-3
-1.800, 2.241e-3
-1.799, 2.220e-3
-1.798, 2.216e-3
-1.797, 2.186e-3
-1.796, 2.154e-3
-1.795, 2.124e-3
-1.794, 2.093e-3
-1.793, 2.052e-3
-1.792, 2.025e-3
-1.791, 2.001e-3
-1.790, 1.982e-3
-1.789, 1.956e-3
-1.788, 1.928e-3
-1.787, 1.899e-3
-1.786, 1.874e-3
-1.785, 1.848e-3
-1.784, 1.822e-3
-1.783, 1.798e-3
-1.782, 1.777e-3
-1.781, 1.748e-3
-1.780, 1.722e-3
-1.779, 1.699e-3
-1.778, 1.671e-3
-1.777, 1.647e-3
-1.776, 1.615e-3
-1.775, 1.584e-3
-1.774, 1.563e-3
-1.773, 1.547e-3
-1.772, 1.530e-3
-1.771, 1.513e-3
-1.770, 1.491e-3
-1.769, 1.468e-3
-1.768, 1.448e-3
-1.767, 1.429e-3
-1.766, 1.399e-3
-1.765, 1.376e-3
-1.764, 1.354e-3
-1.763, 1.333e-3
-1.762, 1.316e-3
-1.761, 1.295e-3
-1.760, 1.276e-3
-1.759, 1.257e-3
-1.758, 1.241e-3
-1.757, 1.217e-3
-1.756, 1.194e-3
-1.755, 1.180e-3
-1.754, 1.165e-3
-1.753, 1.148e-3
-1.752, 1.130e-3
-1.751, 1.111e-3
-1.750, 1.097e-3
-1.749, 1.083e-3
-1.748, 1.066e-3
-1.747, 1.047e-3
-1.746, 1.028e-3
-1.745, 1.013e-3
-1.744, 9.972e-4
-1.743, 9.809e-4
-1.742, 9.642e-4
-1.741, 9.511e-4
-1.740, 9.349e-4
-1.739, 9.158e-4
-1.738, 8.998e-4
-1.737, 8.861e-4
-1.736, 8.707e-4
-1.735, 8.579e-4
-1.734, 8.443e-4
-1.733, 8.311e-4
-1.732, 8.159e-4
-1.731, 8.005e-4
-1.730, 7.832e-4
-1.729, 7.678e-4
-1.728, 7.534e-4
-1.727, 7.432e-4
-1.726, 7.306e-4
-1.725, 7.159e-4
-1.724, 7.049e-4
-1.723, 6.936e-4
-1.722, 6.801e-4
-1.721, 6.692e-4
-1.720, 6.554e-4
-1.719, 6.425e-4
-1.718, 6.324e-4
-1.717, 6.206e-4
-1.716, 6.086e-4
-1.715, 6.003e-4
-1.714, 5.925e-4
-1.713, 5.827e-4
-1.712, 5.713e-4
-1.711, 5.595e-4
-1.710, 5.480e-4
-1.709, 5.361e-4
-1.708, 5.285e-4
-1.707, 5.187e-4
-1.706, 5.100e-4
-1.705, 5.009e-4
-1.704, 4.947e-4
-1.703, 4.857e-4
-1.702, 4.764e-4
-1.701, 4.664e-4
-1.700, 4.574e-4
-1.699, 4.488e-4
-1.698, 4.411e-4
-1.697, 4.342e-4
-1.696, 4.265e-4
-1.695, 4.190e-4
-1.694, 4.118e-4
-1.693, 4.042e-4
-1.692, 3.951e-4
-1.691, 3.859e-4
-1.690, 3.796e-4
-1.689, 3.727e-4
-1.688, 3.665e-4
-1.687, 3.613e-4
-1.686, 3.556e-4
-1.685, 3.490e-4
-1.684, 3.416e-4
-1.683, 3.351e-4
-1.682, 3.283e-4
-1.681, 3.213e-4
-1.680, 3.157e-4
-1.679, 3.097e-4
-1.678, 3.048e-4
-1.677, 3.000e-4
-1.676, 2.938e-4
-1.675, 2.895e-4
-1.674, 2.829e-4
-1.673, 2.772e-4
-1.672, 2.717e-4
-1.671, 2.666e-4
-1.670, 2.621e-4
-1.669, 2.578e-4
-1.668, 2.538e-4
-1.667, 2.485e-4
-1.666, 2.435e-4
-1.665, 2.388e-4
-1.664, 2.346e-4
-1.663, 2.302e-4
-1.662, 2.262e-4
-1.661, 2.201e-4
-1.660, 2.143e-4
-1.659, 2.099e-4
-1.658, 2.057e-4
-1.657, 2.017e-4
-1.656, 1.979e-4
-1.655, 1.939e-4
-1.654, 1.899e-4
-1.653, 1.863e-4
-1.652, 1.833e-4
-1.651, 1.797e-4
-1.650, 1.765e-4
-1.649, 1.737e-4
-1.648, 1.703e-4
-1.647, 1.673e-4
-1.646, 1.649e-4
-1.645, 1.620e-4
-1.644, 1.592e-4
-1.643, 1.560e-4
-1.642, 1.535e-4
-1.641, 1.510e-4
-1.640, 1.486e-4
-1.639, 1.461e-4
-1.638, 1.433e-4
-1.637, 1.406e-4
-1.636, 1.383e-4
-1.635, 1.357e-4
-1.634, 1.337e-4
-1.633, 1.318e-4
-1.632, 1.293e-4
-1.631, 1.270e-4
-1.630, 1.251e-4
-1.629, 1.235e-4
-1.628, 1.212e-4
-1.627, 1.191e-4
-1.626, 1.173e-4
-1.625, 1.152e-4
-1.624, 1.136e-4
-1.623, 1.115e-4
-1.622, 1.097e-4
-1.621, 1.079e-4
-1.620, 1.062e-4
-1.619, 1.044e-4
-1.618, 1.029e-4
-1.617, 1.011e-4
-1.616, 9.965e-5
-1.615, 9.787e-5
-1.614, 9.625e-5
-1.613, 9.458e-5
-1.612, 9.319e-5
-1.611, 9.167e-5
-1.610, 9.024e-5
-1.609, 8.880e-5
-1.608, 8.765e-5
-1.607, 8.631e-5
-1.606, 8.497e-5
-1.605, 8.346e-5
-1.604, 8.232e-5
-1.603, 8.089e-5
-1.602, 7.967e-5
-1.601, 7.850e-5
-1.600, 7.732e-5
-1.599, 7.610e-5
-1.598, 7.488e-5
-1.597, 7.365e-5
-1.596, 7.247e-5
-1.595, 7.161e-5
-1.594, 7.044e-5
-1.593, 6.927e-5
-1.592, 6.818e-5
-1.591, 6.723e-5
-1.590, 6.629e-5
-1.589, 6.531e-5
-1.588, 6.443e-5
-1.587, 6.342e-5
-1.586, 6.262e-5
-1.585, 6.176e-5
-1.584, 6.054e-5
-1.583, 5.952e-5
-1.582, 5.883e-5
-1.581, 5.807e-5
-1.580, 5.714e-5
-1.579, 5.627e-5
-1.578, 5.549e-5
-1.577, 5.475e-5
-1.576, 5.405e-5
-1.575, 5.291e-5
-1.574, 5.195e-5
-1.573, 5.137e-5
-1.572, 5.056e-5
-1.571, 4.991e-5
-1.570, 4.925e-5
-1.569, 4.856e-5
-1.568, 4.780e-5
-1.567, 4.708e-5
-1.566, 4.647e-5
-1.565, 4.577e-5
-1.564, 4.510e-5
-1.563, 4.460e-5
-1.562, 4.396e-5
-1.561, 4.341e-5
-1.560, 4.289e-5
-1.559, 4.231e-5
-1.558, 4.178e-5
-1.557, 4.107e-5
-1.556, 4.049e-5
-1.555, 3.998e-5
-1.554, 3.953e-5
-1.553, 3.894e-5
-1.552, 3.846e-5
-1.551, 3.793e-5
-1.550, 3.751e-5
-1.549, 3.692e-5
-1.548, 3.636e-5
-1.547, 3.583e-5
-1.546, 3.543e-5
-1.545, 3.499e-5
-1.544, 3.447e-5
-1.543, 3.398e-5
-1.542, 3.348e-5
-1.541, 3.314e-5
-1.540, 3.274e-5
-1.539, 3.221e-5
-1.538, 3.176e-5
-1.537, 3.133e-5
-1.536, 3.093e-5
-1.535, 3.046e-5
-1.534, 3.006e-5
-1.533, 2.967e-5
-1.532, 2.929e-5
-1.531, 2.886e-5
-1.530, 2.851e-5
-1.529, 2.807e-5
-1.528, 2.769e-5
-1.527, 2.736e-5
-1.526, 2.700e-5
-1.525, 2.656e-5
-1.524, 2.628e-5
-1.523, 2.586e-5
-1.522, 2.554e-5
-1.521, 2.534e-5
-1.520, 2.497e-5
-1.519, 2.470e-5
-1.518, 2.432e-5
-1.517, 2.402e-5
-1.516, 2.368e-5
-1.515, 2.340e-5
-1.514, 2.314e-5
-1.513, 2.273e-5
-1.512, 2.252e-5
-1.511, 2.219e-5
-1.510, 2.190e-5
-1.509, 2.168e-5
-1.508, 2.137e-5
-1.507, 2.108e-5
-1.506, 2.084e-5
-1.505, 2.053e-5
-1.504, 2.033e-5
-1.503, 2.002e-5
-1.502, 1.978e-5
-1.501, 1.952e-5
-1.500, 1.931e-5
-1.499, 1.910e-5
-1.498, 1.880e-5
-1.497, 1.858e-5
-1.496, 1.832e-5
-1.495, 1.808e-5
-1.494, 1.784e-5
-1.493, 1.762e-5
-1.492, 1.739e-5
-1.491, 1.716e-5
-1.490, 1.699e-5
-1.489, 1.673e-5
-1.488, 1.648e-5
-1.487, 1.632e-5
-1.486, 1.606e-5
-1.485, 1.589e-5
-1.484, 1.566e-5
-1.483, 1.551e-5
-1.482, 1.537e-5
-1.481, 1.512e-5
-1.480, 1.493e-5
-1.479, 1.474e-5
-1.478, 1.453e-5
-1.477, 1.437e-5
-1.476, 1.418e-5
-1.475, 1.401e-5
-1.474, 1.383e-5
-1.473, 1.364e-5
-1.472, 1.349e-5
-1.471, 1.324e-5
-1.470, 1.315e-5
-1.469, 1.297e-5
-1.468, 1.279e-5
-1.467, 1.263e-5
-1.466, 1.247e-5
-1.465, 1.229e-5
-1.464, 1.215e-5
-1.463, 1.200e-5
-1.462, 1.184e-5
-1.461, 1.167e-5
-1.460, 1.153e-5
-1.459, 1.138e-5
-1.458, 1.124e-5
-1.457, 1.110e-5
-1.456, 1.093e-5
-1.455, 1.082e-5
-1.454, 1.068e-5
-1.453, 1.052e-5
-1.452, 1.043e-5
-1.451, 1.031e-5
-1.450, 1.016e-5
-1.449, 1.005e-5
-1.448, 9.927e-6
-1.447, 9.783e-6
-1.446, 9.656e-6
-1.445, 9.560e-6
-1.444, 9.433e-6
-1.443, 9.341e-6
-1.442, 9.199e-6
-1.441, 9.089e-6
-1.440, 9.016e-6
-1.439, 8.883e-6
-1.438, 8.751e-6
-1.437, 8.679e-6
-1.436, 8.544e-6
-1.435, 8.486e-6
-1.434, 8.355e-6
-1.433, 8.252e-6
-1.432, 8.201e-6
-1.431, 8.049e-6
-1.430, 7.989e-6
-1.429, 7.885e-6
-1.428, 7.800e-6
-1.427, 7.679e-6
-1.426, 7.625e-6
-1.425, 7.543e-6
-1.424, 7.440e-6
-1.423, 7.375e-6
-1.422, 7.278e-6
-1.421, 7.181e-6
-1.420, 7.065e-6
-1.419, 7.005e-6
-1.418, 6.926e-6
-1.417, 6.832e-6
-1.416, 6.786e-6
-1.415, 6.665e-6
-1.414, 6.559e-6
-1.413, 6.523e-6
-1.412, 6.415e-6
-1.411, 6.346e-6
-1.410, 6.248e-6
-1.409, 6.187e-6
-1.408, 6.103e-6
-1.407, 6.000e-6
-1.406, 5.943e-6
-1.405, 5.866e-6
-1.404, 5.763e-6
-1.403, 5.717e-6
-1.402, 5.631e-6
-1.401, 5.565e-6
-1.400, 5.503e-6
-1.399, 5.435e-6
-1.398, 5.388e-6
-1.397, 5.305e-6
-1.396, 5.221e-6
-1.395, 5.155e-6
-1.394, 5.064e-6
-1.393, 5.042e-6
-1.392, 4.948e-6
-1.391, 4.913e-6
-1.390, 4.882e-6
-1.389, 4.815e-6
-1.388, 4.776e-6
-1.387, 4.701e-6
-1.386, 4.649e-6
-1.385, 4.577e-6
-1.384, 4.540e-6
-1.383, 4.502e-6
-1.382, 4.415e-6
-1.381, 4.414e-6
-1.380, 4.330e-6
-1.379, 4.292e-6
-1.378, 4.265e-6
-1.377, 4.198e-6
-1.376, 4.129e-6
-1.375, 4.080e-6
-1.374, 4.079e-6
-1.373, 4.010e-6
-1.372, 3.920e-6
-1.371, 3.888e-6
-1.370, 3.858e-6
-1.369, 3.812e-6
-1.368, 3.787e-6
-1.367, 3.690e-6
-1.366, 3.646e-6
-1.365, 3.621e-6
-1.364, 3.566e-6
-1.363, 3.507e-6
-1.362, 3.473e-6
-1.361, 3.459e-6
-1.360, 3.422e-6
-1.359, 3.338e-6
-1.358, 3.325e-6
-1.357, 3.208e-6
-1.356, 3.234e-6
-1.355, 3.162e-6
-1.354, 3.147e-6
-1.353, 3.094e-6
-1.352, 3.039e-6
-1.351, 3.018e-6
-1.350, 2.994e-6
-1.349, 2.949e-6
-1.348, 2.944e-6
-1.347, 2.878e-6
-1.346, 2.850e-6
-1.345, 2.850e-6
-1.344, 2.795e-6
-1.343, 2.750e-6
-1.342, 2.742e-6
-1.341, 2.724e-6
-1.340, 2.663e-6
-1.339, 2.652e-6
-1.338, 2.643e-6
-1.337, 2.616e-6
-1.336, 2.599e-6
-1.335, 2.566e-6
-1.334, 2.547e-6
-1.333, 2.498e-6
-1.332, 2.494e-6
-1.331, 2.418e-6
-1.330, 2.396e-6
-1.329, 2.375e-6
-1.328, 2.343e-6
-1.327, 2.310e-6
-1.326, 2.294e-6
-1.325, 2.251e-6
-1.324, 2.244e-6
-1.323, 2.207e-6
-1.322, 2.179e-6
-1.321, 2.150e-6
-1.320, 2.106e-6
-1.319, 2.092e-6
-1.318, 2.052e-6
-1.317, 2.025e-6
-1.316, 1.986e-6
-1.315, 1.952e-6
-1.314, 1.959e-6
-1.313, 1.909e-6
-1.312, 1.912e-6
-1.311, 1.892e-6
-1.310, 1.842e-6
-1.309, 1.856e-6
-1.308, 1.777e-6
-1.307, 1.805e-6
-1.306, 1.755e-6
-1.305, 1.729e-6
-1.304, 1.741e-6
-1.303, 1.698e-6
-1.302, 1.673e-6
-1.301, 1.643e-6
-1.300, 1.632e-6
-1.299, 1.603e-6
-1.298, 1.591e-6
-1.297, 1.550e-6
-1.296, 1.527e-6
-1.295, 1.519e-6
-1.294, 1.523e-6
-1.293, 1.453e-6
-1.292, 1.463e-6
-1.291, 1.457e-6
-1.290, 1.406e-6
-1.289, 1.398e-6
-1.288, 1.355e-6
-1.287, 1.323e-6
-1.286, 1.327e-6
-1.285, 1.345e-6
-1.284, 1.330e-6
-1.283, 1.300e-6
-1.282, 1.280e-6
-1.281, 1.253e-6
-1.280, 1.223e-6
-1.279, 1.248e-6
-1.278, 1.170e-6
-1.277, 1.175e-6
-1.276, 1.162e-6
-1.275, 1.136e-6
-1.274, 1.122e-6
-1.273, 1.124e-6
-1.272, 1.104e-6
-1.271, 1.100e-6
-1.270, 1.049e-6
-1.269, 1.088e-6
-1.268, 1.015e-6
-1.267, 1.026e-6
-1.266, 9.894e-7
-1.265, 1.006e-6
-1.264, 9.834e-7
-1.263, 9.686e-7
-1.262, 9.588e-7
-1.261, 9.321e-7
-1.260, 9.144e-7
-1.259, 9.134e-7
-1.258, 8.710e-7
-1.257, 8.917e-7
-1.256, 8.917e-7
-1.255, 8.512e-7
-1.254, 8.433e-7
-1.253, 8.236e-7
-1.252, 8.433e-7
-1.251, 8.019e-7
-1.250, 8.276e-7
-1.249, 7.980e-7
-1.248, 7.605e-7
-1.247, 7.861e-7
-1.246, 7.792e-7
-1.245, 7.901e-7
-1.244, 7.516e-7
-1.243, 7.052e-7
-1.242, 7.230e-7
-1.241, 7.013e-7
-1.240, 6.875e-7
-1.239, 6.904e-7
-1.238, 6.825e-7
-1.237, 6.776e-7
-1.236, 6.598e-7
-1.235, 6.243e-7
-1.234, 6.401e-7
-1.233, 6.362e-7
-1.232, 6.056e-7
-1.231, 6.036e-7
-1.230, 6.204e-7
-1.229, 5.553e-7
-1.228, 5.414e-7
-1.227, 5.424e-7
-1.226, 5.612e-7
-1.225, 5.395e-7
-1.224, 5.158e-7
-1.223, 4.931e-7
-1.222, 5.000e-7
-1.221, 5.020e-7
-1.220, 4.882e-7
-1.219, 4.586e-7
-1.218, 4.556e-7
-1.217, 4.477e-7
-1.216, 4.073e-7
-1.215, 4.536e-7
-1.214, 3.757e-7
-1.213, 4.250e-7
-1.212, 3.688e-7
-1.211, 4.033e-7
-1.210, 3.964e-7
-1.209, 3.767e-7
-1.208, 3.757e-7
-1.207, 3.471e-7
-1.206, 3.491e-7
-1.205, 3.402e-7
-1.204, 3.264e-7
-1.203, 3.244e-7
-1.202, 3.372e-7
-1.201, 3.017e-7
-1.200, 3.204e-7
-1.199, 3.076e-7
-1.198, 2.918e-7
-1.197, 2.830e-7
-1.196, 2.563e-7
-1.195, 2.751e-7
-1.194, 2.346e-7
-1.193, 2.455e-7
-1.192, 2.228e-7
-1.191, 2.040e-7
-1.190, 2.001e-7
-1.189, 1.951e-7
-1.188, 1.725e-7
-1.187, 1.715e-7
-1.186, 1.665e-7
-1.185, 1.665e-7
-1.184, 1.468e-7
-1.183, 1.369e-7
-1.182, 1.636e-7
-1.181, 1.369e-7
-1.180, 1.310e-7
-1.179, 9.649e-8
-1.178, 8.860e-8
-1.177, 7.972e-8
-1.176, 1.064e-7
-1.175, 9.353e-8
-1.174, 8.169e-8
-1.173, 8.761e-8
-1.172, 8.366e-8
-1.171, 2.545e-8
-1.170, 6.492e-8
-1.169, 3.039e-8
-1.168, 5.801e-8
-1.167, 1.657e-8
-1.166, 2.348e-8
-1.165, 1.066e-8
-1.164, -8.090e-9
-1.163, -1.993e-8
-1.162, -1.993e-8
-1.161, -1.401e-8
-1.160, -2.980e-8
-1.159, -3.670e-8
-1.158, -2.980e-8
-1.157, -5.051e-8
-1.156, -7.025e-8
-1.155, -2.782e-8
-1.154, -9.590e-8
-1.153, -5.939e-8
-1.152, -9.886e-8
-1.151, -7.617e-8
-1.150, -1.008e-7
-1.149, -1.077e-7
-1.148, -1.058e-7
-1.147, -1.146e-7
-1.146, -1.442e-7
-1.145, -1.235e-7
-1.144, -1.403e-7
-1.143, -1.433e-7
-1.142, -1.659e-7
-1.141, -1.156e-7
-1.140, -1.590e-7
-1.139, -1.659e-7
-1.138, -1.511e-7
-1.137, -1.867e-7
-1.136, -1.798e-7
-1.135, -1.748e-7
-1.134, -2.202e-7
-1.133, -2.044e-7
-1.132, -2.468e-7
-1.131, -2.488e-7
-1.130, -2.320e-7
-1.129, -2.557e-7
-1.128, -2.439e-7
-1.127, -2.459e-7
-1.126, -2.538e-7
-1.125, -2.755e-7
-1.124, -2.755e-7
-1.123, -2.686e-7
-1.122, -3.169e-7
-1.121, -3.070e-7
-1.120, -3.228e-7
-1.119, -2.903e-7
-1.118, -3.129e-7
-1.117, -3.228e-7
-1.116, -3.199e-7
-1.115, -3.327e-7
-1.114, -3.495e-7
-1.113, -3.643e-7
-1.112, -3.830e-7
-1.111, -3.583e-7
-1.110, -3.731e-7
-1.109, -3.810e-7
-1.108, -3.998e-7
-1.107, -4.234e-7
-1.106, -4.136e-7
-1.105, -4.086e-7
-1.104, -4.343e-7
-1.103, -4.402e-7
-1.102, -4.215e-7
-1.101, -4.225e-7
-1.100, -4.570e-7
-1.099, -4.491e-7
-1.098, -4.481e-7
-1.097, -4.629e-7
-1.096, -4.471e-7
-1.095, -4.570e-7
-1.094, -4.708e-7
-1.093, -5.053e-7
-1.092, -4.787e-7
-1.091, -4.846e-7
-1.090, -4.994e-7
-1.089, -4.846e-7
-1.088, -5.132e-7
-1.087, -5.201e-7
-1.086, -5.261e-7
-1.085, -5.478e-7
-1.084, -5.389e-7
-1.083, -5.724e-7
-1.082, -5.626e-7
-1.081, -5.862e-7
-1.080, -5.635e-7
-1.079, -6.129e-7
-1.078, -6.050e-7
-1.077, -6.168e-7
-1.076, -6.395e-7
-1.075, -6.484e-7
-1.074, -6.612e-7
-1.073, -6.859e-7
-1.072, -6.859e-7
-1.071, -6.859e-7
-1.070, -6.987e-7
-1.069, -7.096e-7
-1.068, -7.007e-7
-1.067, -7.184e-7
-1.066, -7.155e-7
-1.065, -7.323e-7
-1.064, -7.244e-7
-1.063, -7.668e-7
-1.062, -7.707e-7
-1.061, -7.569e-7
-1.060, -7.914e-7
-1.059, -7.727e-7
-1.058, -7.934e-7
-1.057, -7.826e-7
-1.056, -7.964e-7
-1.055, -8.141e-7
-1.054, -8.181e-7
-1.053, -8.408e-7
-1.052, -8.487e-7
-1.051, -8.497e-7
-1.050, -8.812e-7
-1.049, -8.862e-7
-1.048, -8.881e-7
-1.047, -9.089e-7
-1.046, -9.424e-7
-1.045, -9.355e-7
-1.044, -9.246e-7
-1.043, -9.720e-7
-1.042, -9.414e-7
-1.041, -9.690e-7
-1.040, -9.937e-7
-1.039, -9.631e-7
-1.038, -1.027e-6
-1.037, -1.015e-6
-1.036, -1.028e-6
-1.035, -1.048e-6
-1.034, -1.033e-6
-1.033, -1.091e-6
-1.032, -1.053e-6
-1.031, -1.099e-6
-1.030, -1.100e-6
-1.029, -1.091e-6
-1.028, -1.133e-6
-1.027, -1.111e-6
-1.026, -1.146e-6
-1.025, -1.130e-6
-1.024, -1.175e-6
-1.023, -1.206e-6
-1.022, -1.166e-6
-1.021, -1.215e-6
-1.020, -1.214e-6
-1.019, -1.228e-6
-1.018, -1.250e-6
-1.017, -1.234e-6
-1.016, -1.255e-6
-1.015, -1.247e-6
-1.014, -1.274e-6
-1.013, -1.321e-6
-1.012, -1.282e-6
-1.011, -1.312e-6
-1.010, -1.301e-6
-1.009, -1.327e-6
-1.008, -1.332e-6
-1.007, -1.316e-6
-1.006, -1.350e-6
-1.005, -1.345e-6
-1.004, -1.379e-6
-1.003, -1.382e-6
-1.002, -1.383e-6
-1.001, -1.411e-6
-1.000, -1.024e-6
-1.001, -7.806e-7
-1.002, -6.109e-7
-1.003, -4.530e-7
-1.004, -3.702e-7
-1.005, -2.439e-7
-1.006, -1.472e-7
-1.007, -8.603e-8
-1.008, -1.302e-8
-1.009, 3.729e-8
-1.010, 1.123e-7
-1.011, 1.813e-7
-1.012, 2.169e-7
-1.013, 2.741e-7
-1.014, 3.283e-7
-1.015, 3.619e-7
-1.016, 3.826e-7
-1.017, 4.053e-7
-1.018, 4.625e-7
-1.019, 5.237e-7
-1.020, 5.651e-7
-1.021, 5.701e-7
-1.022, 6.293e-7
-1.023, 6.588e-7
-1.024, 6.766e-7
-1.025, 7.467e-7
-1.026, 7.328e-7
-1.027, 7.634e-7
-1.028, 7.891e-7
-1.029, 8.236e-7
-1.030, 8.394e-7
-1.031, 8.601e-7
-1.032, 8.739e-7
-1.033, 9.025e-7
-1.034, 9.173e-7
-1.035, 9.489e-7
-1.036, 9.963e-7
-1.037, 1.018e-6
-1.038, 1.027e-6
-1.039, 1.066e-6
-1.040, 1.057e-6
-1.041, 1.074e-6
-1.042, 1.122e-6
-1.043, 1.136e-6
-1.044, 1.137e-6
-1.045, 1.184e-6
-1.046, 1.157e-6
-1.047, 1.227e-6
-1.048, 1.215e-6
-1.049, 1.259e-6
-1.050, 1.247e-6
-1.051, 1.257e-6
-1.052, 1.300e-6
-1.053, 1.301e-6
-1.054, 1.305e-6
-1.055, 1.337e-6
-1.056, 1.339e-6
-1.057, 1.331e-6
-1.058, 1.358e-6
-1.059, 1.381e-6
-1.060, 1.408e-6
-1.061, 1.430e-6
-1.062, 1.440e-6
-1.063, 1.430e-6
-1.064, 1.478e-6
-1.065, 1.492e-6
-1.066, 1.461e-6
-1.067, 1.505e-6
-1.068, 1.513e-6
-1.069, 1.516e-6
-1.070, 1.541e-6
-1.071, 1.536e-6
-1.072, 1.579e-6
-1.073, 1.513e-6
-1.074, 1.568e-6
-1.075, 1.599e-6
-1.076, 1.577e-6
-1.077, 1.625e-6
-1.078, 1.624e-6
-1.079, 1.633e-6
-1.080, 1.622e-6
-1.081, 1.633e-6
-1.082, 1.664e-6
-1.083, 1.638e-6
-1.084, 1.681e-6
-1.085, 1.663e-6
-1.086, 1.692e-6
-1.087, 1.704e-6
-1.088, 1.719e-6
-1.089, 1.739e-6
-1.090, 1.723e-6
-1.091, 1.719e-6
-1.092, 1.752e-6
-1.093, 1.715e-6
-1.094, 1.787e-6
-1.095, 1.764e-6
-1.096, 1.783e-6
-1.097, 1.792e-6
-1.098, 1.782e-6
-1.099, 1.804e-6
-1.100, 1.794e-6
-1.101, 1.792e-6
-1.102, 1.799e-6
-1.103, 1.819e-6
-1.104, 1.828e-6
-1.105, 1.810e-6
-1.106, 1.848e-6
-1.107, 1.842e-6
-1.108, 1.810e-6
-1.109, 1.852e-6
-1.110, 1.846e-6
-1.111, 1.874e-6
-1.112, 1.878e-6
-1.113, 1.859e-6
-1.114, 1.865e-6
-1.115, 1.911e-6
-1.116, 1.888e-6
-1.117, 1.872e-6
-1.118, 1.893e-6
-1.119, 1.890e-6
-1.120, 1.886e-6
-1.121, 1.885e-6
-1.122, 1.921e-6
-1.123, 1.917e-6
-1.124, 1.950e-6
-1.125, 1.918e-6
-1.126, 1.950e-6
-1.127, 1.948e-6
-1.128, 1.957e-6
-1.129, 1.962e-6
-1.130, 1.988e-6
-1.131, 1.972e-6
-1.132, 1.996e-6
-1.133, 1.995e-6
-1.134, 1.998e-6
-1.135, 2.000e-6
-1.136, 2.000e-6
-1.137, 2.016e-6
-1.138, 2.017e-6
-1.139, 2.030e-6
-1.140, 2.040e-6
-1.141, 2.053e-6
-1.142, 2.059e-6
-1.143, 2.082e-6
-1.144, 2.051e-6
-1.145, 2.076e-6
-1.146, 2.122e-6
-1.147, 2.086e-6
-1.148, 2.125e-6
-1.149, 2.121e-6
-1.150, 2.113e-6
-1.151, 2.141e-6
-1.152, 2.114e-6
-1.153, 2.164e-6
-1.154, 2.152e-6
-1.155, 2.173e-6
-1.156, 2.155e-6
-1.157, 2.173e-6
-1.158, 2.208e-6
-1.159, 2.167e-6
-1.160, 2.215e-6
-1.161, 2.236e-6
-1.162, 2.221e-6
-1.163, 2.247e-6
-1.164, 2.230e-6
-1.165, 2.292e-6
-1.166, 2.252e-6
-1.167, 2.277e-6
-1.168, 2.261e-6
-1.169, 2.305e-6
-1.170, 2.335e-6
-1.171, 2.330e-6
-1.172, 2.288e-6
-1.173, 2.334e-6
-1.174, 2.332e-6
-1.175, 2.384e-6
-1.176, 2.335e-6
-1.177, 2.342e-6
-1.178, 2.398e-6
-1.179, 2.389e-6
-1.180, 2.424e-6
-1.181, 2.380e-6
-1.182, 2.389e-6
-1.183, 2.445e-6
-1.184, 2.441e-6
-1.185, 2.451e-6
-1.186, 2.441e-6
-1.187, 2.447e-6
-1.188, 2.498e-6
-1.189, 2.492e-6
-1.190, 2.494e-6
-1.191, 2.519e-6
-1.192, 2.523e-6
-1.193, 2.549e-6
-1.194, 2.544e-6
-1.195, 2.557e-6
-1.196, 2.559e-6
-1.197, 2.589e-6
-1.198, 2.566e-6
-1.199, 2.619e-6
-1.200, 2.606e-6
-1.201, 2.629e-6
-1.202, 2.648e-6
-1.203, 2.669e-6
-1.204, 2.688e-6
-1.205, 2.694e-6
-1.206, 2.673e-6
-1.207, 2.707e-6
-1.208, 2.748e-6
-1.209, 2.725e-6
-1.210, 2.757e-6
-1.211, 2.758e-6
-1.212, 2.817e-6
-1.213, 2.792e-6
-1.214, 2.800e-6
-1.215, 2.865e-6
-1.216, 2.829e-6
-1.217, 2.900e-6
-1.218, 2.892e-6
-1.219, 2.898e-6
-1.220, 2.921e-6
-1.221, 2.929e-6
-1.222, 2.953e-6
-1.223, 2.980e-6
-1.224, 3.009e-6
-1.225, 2.999e-6
-1.226, 3.040e-6
-1.227, 3.064e-6
-1.228, 3.110e-6
-1.229, 3.102e-6
-1.230, 3.127e-6
-1.231, 3.138e-6
-1.232, 3.167e-6
-1.233, 3.159e-6
-1.234, 3.190e-6
-1.235, 3.248e-6
-1.236, 3.238e-6
-1.237, 3.270e-6
-1.238, 3.259e-6
-1.239, 3.342e-6
-1.240, 3.297e-6
-1.241, 3.371e-6
-1.242, 3.344e-6
-1.243, 3.352e-6
-1.244, 3.408e-6
-1.245, 3.458e-6
-1.246, 3.439e-6
-1.247, 3.452e-6
-1.248, 3.446e-6
-1.249, 3.505e-6
-1.250, 3.537e-6
-1.251, 3.554e-6
-1.252, 3.579e-6
-1.253, 3.576e-6
-1.254, 3.656e-6
-1.255, 3.644e-6
-1.256, 3.684e-6
-1.257, 3.685e-6
-1.258, 3.702e-6
-1.259, 3.761e-6
-1.260, 3.780e-6
-1.261, 3.827e-6
-1.262, 3.809e-6
-1.263, 3.840e-6
-1.264, 3.855e-6
-1.265, 3.888e-6
-1.266, 3.932e-6
-1.267, 3.958e-6
-1.268, 3.985e-6
-1.269, 4.036e-6
-1.270, 4.034e-6
-1.271, 4.078e-6
-1.272, 4.082e-6
-1.273, 4.124e-6
-1.274, 4.170e-6
-1.275, 4.180e-6
-1.276, 4.205e-6
-1.277, 4.255e-6
-1.278, 4.297e-6
-1.279, 4.301e-6
-1.280, 4.339e-6
-1.281, 4.385e-6
-1.282, 4.436e-6
-1.283, 4.461e-6
-1.284, 4.500e-6
-1.285, 4.504e-6
-1.286, 4.585e-6
-1.287, 4.624e-6
-1.288, 4.624e-6
-1.289, 4.689e-6
-1.290, 4.684e-6
-1.291, 4.705e-6
-1.292, 4.767e-6
-1.293, 4.804e-6
-1.294, 4.863e-6
-1.295, 4.873e-6
-1.296, 4.937e-6
-1.297, 4.991e-6
-1.298, 5.031e-6
-1.299, 5.059e-6
-1.300, 5.082e-6
-1.301, 5.161e-6
-1.302, 5.148e-6
-1.303, 5.231e-6
-1.304, 5.258e-6
-1.305, 5.302e-6
-1.306, 5.377e-6
-1.307, 5.382e-6
-1.308, 5.451e-6
-1.309, 5.509e-6
-1.310, 5.501e-6
-1.311, 5.584e-6
-1.312, 5.606e-6
-1.313, 5.660e-6
-1.314, 5.716e-6
-1.315, 5.776e-6
-1.316, 5.801e-6
-1.317, 5.833e-6
-1.318, 5.910e-6
-1.319, 5.964e-6
-1.320, 6.019e-6
-1.321, 6.053e-6
-1.322, 6.083e-6
-1.323, 6.182e-6
-1.324, 6.187e-6
-1.325, 6.272e-6
-1.326, 6.320e-6
-1.327, 6.346e-6
-1.328, 6.431e-6
-1.329, 6.459e-6
-1.330, 6.502e-6
-1.331, 6.522e-6
-1.332, 6.626e-6
-1.333, 6.661e-6
-1.334, 6.701e-6
-1.335, 6.792e-6
-1.336, 6.815e-6
-1.337, 6.860e-6
-1.338, 6.931e-6
-1.339, 6.971e-6
-1.340, 7.057e-6
-1.341, 7.079e-6
-1.342, 7.124e-6
-1.343, 7.218e-6
-1.344, 7.249e-6
-1.345, 7.326e-6
-1.346, 7.362e-6
-1.347, 7.411e-6
-1.348, 7.487e-6
-1.349, 7.517e-6
-1.350, 7.615e-6
-1.351, 7.688e-6
-1.352, 7.733e-6
-1.353, 7.783e-6
-1.354, 7.828e-6
-1.355, 7.909e-6
-1.356, 7.936e-6
-1.357, 8.071e-6
-1.358, 8.133e-6
-1.359, 8.179e-6
-1.360, 8.240e-6
-1.361, 8.268e-6
-1.362, 8.345e-6
-1.363, 8.426e-6
-1.364, 8.475e-6
-1.365, 8.586e-6
-1.366, 8.577e-6
-1.367, 8.690e-6
-1.368, 8.780e-6
-1.369, 8.855e-6
-1.370, 8.917e-6
-1.371, 8.948e-6
-1.372, 9.030e-6
-1.373, 9.125e-6
-1.374, 9.148e-6
-1.375, 9.197e-6
-1.376, 9.285e-6
-1.377, 9.370e-6
-1.378, 9.443e-6
-1.379, 9.515e-6
-1.380, 9.566e-6
-1.381, 9.602e-6
-1.382, 9.693e-6
-1.383, 9.750e-6
-1.384, 9.864e-6
-1.385, 9.931e-6
-1.386, 1.006e-5
-1.387, 1.011e-5
-1.388, 1.014e-5
-1.389, 1.026e-5
-1.390, 1.033e-5
-1.391, 1.039e-5
-1.392, 1.047e-5
-1.393, 1.053e-5
-1.394, 1.064e-5
-1.395, 1.075e-5
-1.396, 1.083e-5
-1.397, 1.086e-5
-1.398, 1.090e-5
-1.399, 1.104e-5
-1.400, 1.106e-5
-1.401, 1.118e-5
-1.402, 1.130e-5
-1.403, 1.135e-5
-1.404, 1.144e-5
-1.405, 1.157e-5
-1.406, 1.163e-5
-1.407, 1.172e-5
-1.408, 1.180e-5
-1.409, 1.192e-5
-1.410, 1.198e-5
-1.411, 1.207e-5
-1.412, 1.216e-5
-1.413, 1.227e-5
-1.414, 1.240e-5
-1.415, 1.247e-5
-1.416, 1.255e-5
-1.417, 1.265e-5
-1.418, 1.275e-5
-1.419, 1.285e-5
-1.420, 1.294e-5
-1.421, 1.304e-5
-1.422, 1.312e-5
-1.423, 1.327e-5
-1.424, 1.337e-5
-1.425, 1.343e-5
-1.426, 1.353e-5
-1.427, 1.363e-5
-1.428, 1.374e-5
-1.429, 1.386e-5
-1.430, 1.400e-5
-1.431, 1.411e-5
-1.432, 1.416e-5
-1.433, 1.432e-5
-1.434, 1.445e-5
-1.435, 1.454e-5
-1.436, 1.469e-5
-1.437, 1.478e-5
-1.438, 1.492e-5
-1.439, 1.501e-5
-1.440, 1.508e-5
-1.441, 1.526e-5
-1.442, 1.540e-5
-1.443, 1.548e-5
-1.444, 1.564e-5
-1.445, 1.572e-5
-1.446, 1.584e-5
-1.447, 1.597e-5
-1.448, 1.615e-5
-1.449, 1.623e-5
-1.450, 1.639e-5
-1.451, 1.648e-5
-1.452, 1.661e-5
-1.453, 1.670e-5
-1.454, 1.685e-5
-1.455, 1.698e-5
-1.456, 1.710e-5
-1.457, 1.728e-5
-1.458, 1.739e-5
-1.459, 1.756e-5
-1.460, 1.770e-5
-1.461, 1.782e-5
-1.462, 1.792e-5
-1.463, 1.810e-5
-1.464, 1.819e-5
-1.465, 1.837e-5
-1.466, 1.850e-5
-1.467, 1.866e-5
-1.468, 1.882e-5
-1.469, 1.895e-5
-1.470, 1.909e-5
-1.471, 1.922e-5
-1.472, 1.937e-5
-1.473, 1.960e-5
-1.474, 1.975e-5
-1.475, 1.987e-5
-1.476, 2.003e-5
-1.477, 2.021e-5
-1.478, 2.038e-5
-1.479, 2.054e-5
-1.480, 2.065e-5
-1.481, 2.082e-5
-1.482, 2.099e-5
-1.483, 2.119e-5
-1.484, 2.130e-5
-1.485, 2.155e-5
-1.486, 2.169e-5
-1.487, 2.188e-5
-1.488, 2.208e-5
-1.489, 2.220e-5
-1.490, 2.237e-5
-1.491, 2.251e-5
-1.492, 2.269e-5
-1.493, 2.291e-5
-1.494, 2.304e-5
-1.495, 2.327e-5
-1.496, 2.348e-5
-1.497, 2.365e-5
-1.498, 2.383e-5
-1.499, 2.393e-5
-1.500, 2.417e-5
-1.501, 2.432e-5
-1.502, 2.462e-5
-1.503, 2.474e-5
-1.504, 2.497e-5
-1.505, 2.519e-5
-1.506, 2.529e-5
-1.507, 2.549e-5
-1.508, 2.565e-5
-1.509, 2.592e-5
-1.510, 2.614e-5
-1.511, 2.632e-5
-1.512, 2.655e-5
-1.513, 2.674e-5
-1.514, 2.696e-5
-1.515, 2.714e-5
-1.516, 2.728e-5
-1.517, 2.753e-5
-1.518, 2.774e-5
-1.519, 2.793e-5
-1.520, 2.819e-5
-1.521, 2.838e-5
-1.522, 2.859e-5
-1.523, 2.879e-5
-1.524, 2.912e-5
-1.525, 2.932e-5
-1.526, 2.947e-5
-1.527, 2.972e-5
-1.528, 2.991e-5
-1.529, 3.016e-5
-1.530, 3.038e-5
-1.531, 3.063e-5
-1.532, 3.085e-5
-1.533, 3.102e-5
-1.534, 3.135e-5
-1.535, 3.153e-5
-1.536, 3.183e-5
-1.537, 3.211e-5
-1.538, 3.229e-5
-1.539, 3.252e-5
-1.540, 3.269e-5
-1.541, 3.301e-5
-1.542, 3.331e-5
-1.543, 3.355e-5
-1.544, 3.383e-5
-1.545, 3.410e-5
-1.546, 3.436e-5
-1.547, 3.464e-5
-1.548, 3.487e-5
-1.549, 3.519e-5
-1.550, 3.542e-5
-1.551, 3.571e-5
-1.552, 3.606e-5
-1.553, 3.634e-5
-1.554, 3.664e-5
-1.555, 3.696e-5
-1.556, 3.718e-5
-1.557, 3.745e-5
-1.558, 3.783e-5
-1.559, 3.822e-5
-1.560, 3.850e-5
-1.561, 3.877e-5
-1.562, 3.907e-5
-1.563, 3.943e-5
-1.564, 3.971e-5
-1.565, 4.003e-5
-1.566, 4.044e-5
-1.567, 4.075e-5
-1.568, 4.106e-5
-1.569, 4.142e-5
-1.570, 4.183e-5
-1.571, 4.227e-5
-1.572, 4.263e-5
-1.573, 4.302e-5
-1.574, 4.335e-5
-1.575, 4.372e-5
-1.576, 4.399e-5
-1.577, 4.444e-5
-1.578, 4.480e-5
-1.579, 4.516e-5
-1.580, 4.562e-5
-1.581, 4.610e-5
-1.582, 4.651e-5
-1.583, 4.699e-5
-1.584, 4.750e-5
-1.585, 4.801e-5
-1.586, 4.842e-5
-1.587, 4.850e-5
-1.588, 4.883e-5
-1.589, 4.920e-5
-1.590, 4.957e-5
-1.591, 5.010e-5
-1.592, 5.062e-5
-1.593, 5.117e-5
-1.594, 5.170e-5
-1.595, 5.219e-5
-1.596, 5.261e-5
-1.597, 5.304e-5
-1.598, 5.354e-5
-1.599, 5.403e-5
-1.600, 5.456e-5
-1.601, 5.518e-5
-1.602, 5.578e-5
-1.603, 5.644e-5
-1.604, 5.698e-5
-1.605, 5.739e-5
-1.606, 5.799e-5
-1.607, 5.862e-5
-1.608, 5.938e-5
-1.609, 5.998e-5
-1.610, 6.053e-5
-1.611, 6.112e-5
-1.612, 6.183e-5
-1.613, 6.240e-5
-1.614, 6.303e-5
-1.615, 6.379e-5
-1.616, 6.436e-5
-1.617, 6.501e-5
-1.618, 6.572e-5
-1.619, 6.672e-5
-1.620, 6.737e-5
-1.621, 6.800e-5
-1.622, 6.858e-5
-1.623, 6.937e-5
-1.624, 6.999e-5
-1.625, 7.088e-5
-1.626, 7.179e-5
-1.627, 7.250e-5
-1.628, 7.345e-5
-1.629, 7.440e-5
-1.630, 7.529e-5
-1.631, 7.602e-5
-1.632, 7.682e-5
-1.633, 7.770e-5
-1.634, 7.860e-5
-1.635, 7.972e-5
-1.636, 8.086e-5
-1.637, 8.216e-5
-1.638, 8.289e-5
-1.639, 8.354e-5
-1.640, 8.433e-5
-1.641, 8.553e-5
-1.642, 8.671e-5
-1.643, 8.795e-5
-1.644, 8.921e-5
-1.645, 9.007e-5
-1.646, 9.127e-5
-1.647, 9.246e-5
-1.648, 9.390e-5
-1.649, 9.518e-5
-1.650, 9.634e-5
-1.651, 9.748e-5
-1.652, 9.891e-5
-1.653, 9.992e-5
-1.654, 1.015e-4
-1.655, 1.031e-4
-1.656, 1.042e-4
-1.657, 1.055e-4
-1.658, 1.067e-4
-1.659, 1.084e-4
-1.660, 1.099e-4
-1.661, 1.111e-4
-1.662, 1.126e-4
-1.663, 1.145e-4
-1.664, 1.166e-4
-1.665, 1.178e-4
-1.666, 1.196e-4
-1.667, 1.214e-4
-1.668, 1.234e-4
-1.669, 1.247e-4
-1.670, 1.264e-4
-1.671, 1.285e-4
-1.672, 1.305e-4
-1.673, 1.322e-4
-1.674, 1.345e-4
-1.675, 1.366e-4
-1.676, 1.390e-4
-1.677, 1.408e-4
-1.678, 1.430e-4
-1.679, 1.459e-4
-1.680, 1.480e-4
-1.681, 1.502e-4
-1.682, 1.531e-4
-1.683, 1.560e-4
-1.684, 1.581e-4
-1.685, 1.610e-4
-1.686, 1.645e-4
-1.687, 1.665e-4
-1.688, 1.690e-4
-1.689, 1.724e-4
-1.690, 1.749e-4
-1.691, 1.784e-4
-1.692, 1.823e-4
-1.693, 1.849e-4
-1.694, 1.882e-4
-1.695, 1.925e-4
-1.696, 1.953e-4
-1.697, 1.986e-4
-1.698, 2.027e-4
-1.699, 2.067e-4
-1.700, 2.110e-4
-1.701, 2.133e-4
-1.702, 2.175e-4
-1.703, 2.223e-4
-1.704, 2.262e-4
-1.705, 2.308e-4
-1.706, 2.362e-4
-1.707, 2.404e-4
-1.708, 2.456e-4
-1.709, 2.506e-4
-1.710, 2.551e-4
-1.711, 2.617e-4
-1.712, 2.668e-4
-1.713, 2.724e-4
-1.714, 2.782e-4
-1.715, 2.838e-4
-1.716, 2.893e-4
-1.717, 2.957e-4
-1.718, 3.006e-4
-1.719, 3.080e-4
-1.720, 3.146e-4
-1.721, 3.220e-4
-1.722, 3.295e-4
-1.723, 3.365e-4
-1.724, 3.424e-4
-1.725, 3.516e-4
-1.726, 3.583e-4
-1.727, 3.680e-4
-1.728, 3.761e-4
-1.729, 3.837e-4
-1.730, 3.925e-4
-1.731, 4.007e-4
-1.732, 4.107e-4
-1.733, 4.190e-4
-1.734, 4.284e-4
-1.735, 4.392e-4
-1.736, 4.490e-4
-1.737, 4.590e-4
-1.738, 4.682e-4
-1.739, 4.798e-4
-1.740, 4.910e-4
-1.741, 5.016e-4
-1.742, 5.122e-4
-1.743, 5.239e-4
-1.744, 5.345e-4
-1.745, 5.470e-4
-1.746, 5.603e-4
-1.747, 5.722e-4
-1.748, 5.858e-4
-1.749, 5.996e-4
-1.750, 6.124e-4
-1.751, 6.211e-4
-1.752, 6.332e-4
-1.753, 6.475e-4
-1.754, 6.613e-4
-1.755, 6.760e-4
-1.756, 6.909e-4
-1.757, 7.060e-4
-1.758, 7.222e-4
-1.759, 7.380e-4
-1.760, 7.518e-4
-1.761, 7.676e-4
-1.762, 7.846e-4
-1.763, 8.009e-4
-1.764, 8.201e-4
-1.765, 8.369e-4
-1.766, 8.537e-4
-1.767, 8.717e-4
-1.768, 8.845e-4
-1.769, 9.011e-4
-1.770, 9.222e-4
-1.771, 9.458e-4
-1.772, 9.655e-4
-1.773, 9.850e-4
-1.774, 1.004e-3
-1.775, 1.024e-3
-1.776, 1.044e-3
-1.777, 1.064e-3
-1.778, 1.080e-3
-1.779, 1.105e-3
-1.780, 1.130e-3
-1.781, 1.153e-3
-1.782, 1.173e-3
-1.783, 1.196e-3
-1.784, 1.219e-3
-1.785, 1.245e-3
-1.786, 1.267e-3
-1.787, 1.283e-3
-1.788, 1.307e-3
-1.789, 1.332e-3
-1.790, 1.359e-3
-1.791, 1.381e-3
-1.792, 1.408e-3
-1.793, 1.433e-3
-1.794, 1.454e-3
-1.795, 1.475e-3
-1.796, 1.505e-3
-1.797, 1.539e-3
-1.798, 1.570e-3
-1.799, 1.601e-3
-1.800, 1.630e-3
-1.801, 1.658e-3
-1.802, 1.677e-3
-1.803, 1.706e-3
-1.804, 1.740e-3
-1.805, 1.775e-3
-1.806, 1.810e-3
-1.807, 1.839e-3
-1.808, 1.869e-3
-1.809, 1.898e-3
-1.810, 1.933e-3
-1.811, 1.965e-3
-1.812, 1.988e-3
-1.813, 2.023e-3
-1.814, 2.066e-3
-1.815, 2.103e-3
-1.816, 2.130e-3
-1.817, 2.162e-3
-1.818, 2.208e-3
-1.819, 2.228e-3
-1.820, 2.264e-3
-1.821, 2.306e-3
-1.822, 2.349e-3
-1.823, 2.392e-3
-1.824, 2.424e-3
-1.825, 2.461e-3
-1.826, 2.501e-3
-1.827, 2.554e-3
-1.828, 2.584e-3
-1.829, 2.626e-3
-1.830, 2.679e-3
-1.831, 2.722e-3
-1.832, 2.755e-3
-1.833, 2.787e-3
-1.834, 2.836e-3
-1.835, 2.865e-3
-1.836, 2.902e-3
-1.837, 2.943e-3
-1.838, 2.999e-3
-1.839, 3.050e-3
-1.840, 3.099e-3
-1.841, 3.139e-3
-1.842, 3.175e-3
-1.843, 3.219e-3
-1.844, 3.279e-3
-1.845, 3.324e-3
-1.846, 3.367e-3
-1.847, 3.410e-3
-1.848, 3.455e-3
-1.849, 3.500e-3
-1.850, 3.547e-3
-1.851, 3.600e-3
-1.852, 3.664e-3
-1.853, 3.714e-3
-1.854, 3.773e-3
-1.855, 3.828e-3
-1.856, 3.862e-3
-1.857, 3.872e-3
-1.858, 3.868e-3
-1.859, 3.902e-3
-1.860, 3.919e-3
-1.861, 3.986e-3
-1.862, 4.121e-3
-1.863, 4.154e-3
-1.864, 4.193e-3
-1.865, 4.258e-3
-1.866, 4.303e-3
-1.867, 4.357e-3
-1.868, 4.398e-3
-1.869, 4.422e-3
-1.870, 4.402e-3
-1.871, 4.417e-3
-1.872, 4.568e-3
-1.873, 4.627e-3
-1.874, 4.696e-3
-1.875, 4.788e-3
-1.876, 4.836e-3
-1.877, 4.867e-3
-1.878, 4.878e-3
-1.879, 4.892e-3
-1.880, 4.851e-3
-1.881, 4.891e-3
-1.882, 5.116e-3
-1.883, 5.224e-3
-1.884, 5.221e-3
-1.885, 5.279e-3
-1.886, 5.414e-3
-1.887, 5.469e-3
-1.888, 5.515e-3
-1.889, 5.612e-3
-1.890, 5.692e-3
-1.891, 5.708e-3
-1.892, 5.779e-3
-1.893, 5.870e-3
-1.894, 5.932e-3
-1.895, 5.978e-3
-1.896, 6.023e-3
-1.897, 6.111e-3
-1.898, 6.169e-3
-1.899, 6.136e-3
-1.900, 6.178e-3
-1.899, 6.174e-3
-1.898, 6.182e-3
-1.897, 6.160e-3
-1.896, 6.114e-3
-1.895, 6.059e-3
-1.894, 5.978e-3
-1.893, 5.854e-3
-1.892, 5.857e-3
-1.891, 5.819e-3
-1.890, 5.795e-3
-1.889, 5.742e-3
-1.888, 5.663e-3
-1.887, 5.618e-3
-1.886, 5.604e-3
-1.885, 5.485e-3
-1.884, 5.428e-3
-1.883, 5.394e-3
-1.882, 5.376e-3
-1.881, 5.344e-3
-1.880, 5.294e-3
-1.879, 5.251e-3
-1.878, 5.188e-3
-1.877, 5.085e-3
-1.876, 5.004e-3
-1.875, 4.975e-3
-1.874, 4.935e-3
-1.873, 4.886e-3
-1.872, 4.863e-3
-1.871, 4.836e-3
-1.870, 4.777e-3
-1.869, 4.724e-3
-1.868, 4.666e-3
-1.867, 4.567e-3
-1.866, 4.512e-3
-1.865, 4.494e-3
-1.864, 4.473e-3
-1.863, 4.426e-3
-1.862, 4.381e-3
-1.861, 4.359e-3
-1.860, 4.343e-3
-1.859, 4.300e-3
-1.858, 4.212e-3
-1.857, 4.123e-3
-1.856, 4.099e-3
-1.855, 4.071e-3
-1.854, 4.049e-3
-1.853, 4.009e-3
-1.852, 3.943e-3
-1.851, 3.884e-3
-1.850, 3.854e-3
-1.849, 3.846e-3
-1.848, 3.792e-3
-1.847, 3.744e-3
-1.846, 3.716e-3
-1.845, 3.704e-3
-1.844, 3.660e-3
-1.843, 3.614e-3
-1.842, 3.581e-3
-1.841, 3.541e-3
-1.840, 3.451e-3
-1.839, 3.421e-3
-1.838, 3.387e-3
-1.837, 3.356e-3
-1.836, 3.321e-3
-1.835, 3.292e-3
-1.834, 3.255e-3
-1.833, 3.216e-3
-1.832, 3.187e-3
-1.831, 3.129e-3
-1.830, 3.096e-3
-1.829, 3.065e-3
-1.828, 3.039e-3
-1.827, 2.991e-3
-1.826, 2.959e-3
-1.825, 2.934e-3
-1.824, 2.917e-3
-1.823, 2.848e-3
-1.822, 2.808e-3
-1.821, 2.782e-3
-1.820, 2.755e-3
-1.819, 2.727e-3
-1.818, 2.695e-3
-1.817, 2.666e-3
-1.816, 2.642e-3
-1.815, 2.613e-3
-1.814, 2.557e-3
-1.813, 2.523e-3
-1.812, 2.491e-3
-1.811, 2.469e-3
-1.810, 2.439e-3
-1.809, 2.402e-3
-1.808, 2.377e-3
-1.807, 2.356e-3
-1.806, 2.309e-3
-1.805, 2.274e-3
-1.804, 2.244e-3
-1.803, 2.218e-3
-1.802, 2.190e-3
-1.801, 2.166e-3
-1.800, 2.138e-3
-1.799, 2.108e-3
-1.798, 2.080e-3
-1.797, 2.030e-3
-1.796, 2.013e-3
-1.795, 1.989e-3
-1.794, 1.966e-3
-1.793, 1.940e-3
-1.792, 1.915e-3
-1.791, 1.886e-3
-1.790, 1.866e-3
-1.789, 1.843e-3
-1.788, 1.808e-3
-1.787, 1.782e-3
-1.786, 1.757e-3
-1.785, 1.736e-3
-1.784, 1.714e-3
-1.783, 1.689e-3
-1.782, 1.668e-3
-1.781, 1.641e-3
-1.780, 1.605e-3
-1.779, 1.589e-3
-1.778, 1.569e-3
-1.777, 1.543e-3
-1.776, 1.526e-3
-1.775, 1.503e-3
-1.774, 1.483e-3
-1.773, 1.465e-3
-1.772, 1.444e-3
-1.771, 1.415e-3
-1.770, 1.393e-3
-1.769, 1.375e-3
-1.768, 1.356e-3
-1.767, 1.336e-3
-1.766, 1.316e-3
-1.765, 1.295e-3
-1.764, 1.279e-3
-1.763, 1.256e-3
-1.762, 1.231e-3
-1.761, 1.214e-3
-1.760, 1.199e-3
-1.759, 1.181e-3
-1.758, 1.160e-3
-1.757, 1.141e-3
-1.756, 1.126e-3
-1.755, 1.108e-3
-1.754, 1.086e-3
-1.753, 1.070e-3
-1.752, 1.054e-3
-1.751, 1.038e-3
-1.750, 1.021e-3
-1.749, 1.005e-3
-1.748, 9.890e-4
-1.747, 9.733e-4
-1.746, 9.515e-4
-1.745, 9.376e-4
-1.744, 9.240e-4
-1.743, 9.113e-4
-1.742, 8.980e-4
-1.741, 8.841e-4
-1.740, 8.710e-4
-1.739, 8.544e-4
-1.738, 8.393e-4
-1.737, 8.274e-4
-1.736, 8.150e-4
-1.735, 7.978e-4
-1.734, 7.860e-4
-1.733, 7.753e-4
-1.732, 7.649e-4
-1.731, 7.512e-4
-1.730, 7.378e-4
-1.729, 7.256e-4
-1.728, 7.123e-4
-1.727, 6.994e-4
-1.726, 6.848e-4
-1.725, 6.728e-4
-1.724, 6.638e-4
-1.723, 6.535e-4
-1.722, 6.424e-4
-1.721, 6.297e-4
-1.720, 6.183e-4
-1.719, 6.082e-4
-1.718, 6.002e-4
-1.717, 5.863e-4
-1.716, 5.787e-4
-1.715, 5.715e-4
-1.714, 5.620e-4
-1.713, 5.503e-4
-1.712, 5.404e-4
-1.711, 5.311e-4
-1.710, 5.212e-4
-1.709, 5.132e-4
-1.708, 5.036e-4
-1.707, 4.950e-4
-1.706, 4.840e-4
-1.705, 4.745e-4
-1.704, 4.658e-4
-1.703, 4.571e-4
-1.702, 4.487e-4
-1.701, 4.401e-4
-1.700, 4.320e-4
-1.699, 4.232e-4
-1.698, 4.161e-4
-1.697, 4.083e-4
-1.696, 4.002e-4
-1.695, 3.922e-4
-1.694, 3.858e-4
-1.693, 3.780e-4
-1.692, 3.709e-4
-1.691, 3.645e-4
-1.690, 3.566e-4
-1.689, 3.512e-4
-1.688, 3.451e-4
-1.687, 3.388e-4
-1.686, 3.319e-4
-1.685, 3.259e-4
-1.684, 3.200e-4
-1.683, 3.142e-4
-1.682, 3.077e-4
-1.681, 3.017e-4
-1.680, 2.961e-4
-1.679, 2.910e-4
-1.678, 2.854e-4
-1.677, 2.800e-4
-1.676, 2.752e-4
-1.675, 2.706e-4
-1.674, 2.648e-4
-1.673, 2.598e-4
-1.672, 2.550e-4
-1.671, 2.504e-4
-1.670, 2.455e-4
-1.669, 2.414e-4
-1.668, 2.378e-4
-1.667, 2.333e-4
-1.666, 2.288e-4
-1.665, 2.248e-4
-1.664, 2.201e-4
-1.663, 2.165e-4
-1.662, 2.126e-4
-1.661, 2.082e-4
-1.660, 2.044e-4
-1.659, 2.003e-4
-1.658, 1.969e-4
-1.657, 1.934e-4
-1.656, 1.897e-4
-1.655, 1.861e-4
-1.654, 1.830e-4
-1.653, 1.797e-4
-1.652, 1.762e-4
-1.651, 1.730e-4
-1.650, 1.701e-4
-1.649, 1.668e-4
-1.648, 1.637e-4
-1.647, 1.607e-4
-1.646, 1.577e-4
-1.645, 1.552e-4
-1.644, 1.521e-4
-1.643, 1.495e-4
-1.642, 1.470e-4
-1.641, 1.447e-4
-1.640, 1.423e-4
-1.639, 1.397e-4
-1.638, 1.370e-4
-1.637, 1.343e-4
-1.636, 1.319e-4
-1.635, 1.294e-4
-1.634, 1.271e-4
-1.633, 1.252e-4
-1.632, 1.229e-4
-1.631, 1.210e-4
-1.630, 1.189e-4
-1.629, 1.168e-4
-1.628, 1.146e-4
-1.627, 1.128e-4
-1.626, 1.109e-4
-1.625, 1.087e-4
-1.624, 1.069e-4
-1.623, 1.051e-4
-1.622, 1.037e-4
-1.621, 1.019e-4
-1.620, 1.002e-4
-1.619, 9.863e-5
-1.618, 9.713e-5
-1.617, 9.506e-5
-1.616, 9.386e-5
-1.615, 9.207e-5
-1.614, 9.070e-5
-1.613, 8.912e-5
-1.612, 8.780e-5
-1.611, 8.611e-5
-1.610, 8.484e-5
-1.609, 8.350e-5
-1.608, 8.206e-5
-1.607, 8.097e-5
-1.606, 7.955e-5
-1.605, 7.815e-5
-1.604, 7.709e-5
-1.603, 7.602e-5
-1.602, 7.466e-5
-1.601, 7.353e-5
-1.600, 7.237e-5
-1.599, 7.117e-5
-1.598, 7.007e-5
-1.597, 6.893e-5
-1.596, 6.784e-5
-1.595, 6.682e-5
-1.594, 6.571e-5
-1.593, 6.479e-5
-1.592, 6.357e-5
-1.591, 6.262e-5
-1.590, 6.189e-5
-1.589, 6.088e-5
-1.588, 5.984e-5
-1.587, 5.898e-5
-1.586, 5.801e-5
-1.585, 5.727e-5
-1.584, 5.643e-5
-1.583, 5.557e-5
-1.582, 5.474e-5
-1.581, 5.395e-5
-1.580, 5.280e-5
-1.579, 5.224e-5
-1.578, 5.170e-5
-1.577, 5.089e-5
-1.576, 5.009e-5
-1.575, 4.931e-5
-1.574, 4.857e-5
-1.573, 4.787e-5
-1.572, 4.722e-5
-1.571, 4.643e-5
-1.570, 4.574e-5
-1.569, 4.504e-5
-1.568, 4.444e-5
-1.567, 4.394e-5
-1.566, 4.323e-5
-1.565, 4.265e-5
-1.564, 4.203e-5
-1.563, 4.132e-5
-1.562, 4.077e-5
-1.561, 4.024e-5
-1.560, 3.964e-5
-1.559, 3.906e-5
-1.558, 3.856e-5
-1.557, 3.789e-5
-1.556, 3.751e-5
-1.555, 3.695e-5
-1.554, 3.641e-5
-1.553, 3.584e-5
-1.552, 3.537e-5
-1.551, 3.490e-5
-1.550, 3.442e-5
-1.549, 3.396e-5
-1.548, 3.351e-5
-1.547, 3.301e-5
-1.546, 3.263e-5
-1.545, 3.212e-5
-1.544, 3.164e-5
-1.543, 3.123e-5
-1.542, 3.077e-5
-1.541, 3.046e-5
-1.540, 3.005e-5
-1.539, 2.965e-5
-1.538, 2.921e-5
-1.537, 2.878e-5
-1.536, 2.865e-5
-1.535, 2.822e-5
-1.534, 2.786e-5
-1.533, 2.747e-5
-1.532, 2.707e-5
-1.531, 2.674e-5
-1.530, 2.637e-5
-1.529, 2.600e-5
-1.528, 2.567e-5
-1.527, 2.531e-5
-1.526, 2.502e-5
-1.525, 2.466e-5
-1.524, 2.435e-5
-1.523, 2.404e-5
-1.522, 2.371e-5
-1.521, 2.337e-5
-1.520, 2.305e-5
-1.519, 2.277e-5
-1.518, 2.246e-5
-1.517, 2.220e-5
-1.516, 2.194e-5
-1.515, 2.168e-5
-1.514, 2.136e-5
-1.513, 2.107e-5
-1.512, 2.079e-5
-1.511, 2.051e-5
-1.510, 2.026e-5
-1.509, 2.005e-5
-1.508, 1.977e-5
-1.507, 1.953e-5
-1.506, 1.930e-5
-1.505, 1.902e-5
-1.504, 1.879e-5
-1.503, 1.854e-5
-1.502, 1.834e-5
-1.501, 1.806e-5
-1.500, 1.789e-5
-1.499, 1.761e-5
-1.498, 1.737e-5
-1.497, 1.712e-5
-1.496, 1.690e-5
-1.495, 1.677e-5
-1.494, 1.647e-5
-1.493, 1.631e-5
-1.492, 1.611e-5
-1.491, 1.590e-5
-1.490, 1.571e-5
-1.489, 1.549e-5
-1.488, 1.532e-5
-1.487, 1.511e-5
-1.486, 1.496e-5
-1.485, 1.472e-5
-1.484, 1.452e-5
-1.483, 1.440e-5
-1.482, 1.419e-5
-1.481, 1.399e-5
-1.480, 1.385e-5
-1.479, 1.370e-5
-1.478, 1.348e-5
-1.477, 1.334e-5
-1.476, 1.313e-5
-1.475, 1.299e-5
-1.474, 1.279e-5
-1.473, 1.263e-5
-1.472, 1.251e-5
-1.471, 1.228e-5
-1.470, 1.218e-5
-1.469, 1.199e-5
-1.468, 1.187e-5
-1.467, 1.174e-5
-1.466, 1.155e-5
-1.465, 1.139e-5
-1.464, 1.126e-5
-1.463, 1.111e-5
-1.462, 1.099e-5
-1.461, 1.083e-5
-1.460, 1.070e-5
-1.459, 1.057e-5
-1.458, 1.042e-5
-1.457, 1.030e-5
-1.456, 1.020e-5
-1.455, 1.005e-5
-1.454, 9.917e-6
-1.453, 9.783e-6
-1.452, 9.648e-6
-1.451, 9.572e-6
-1.450, 9.433e-6
-1.449, 9.305e-6
-1.448, 9.211e-6
-1.447, 9.065e-6
-1.446, 8.929e-6
-1.445, 8.871e-6
-1.444, 8.767e-6
-1.443, 8.677e-6
-1.442, 8.582e-6
-1.441, 8.411e-6
-1.440, 8.310e-6
-1.439, 8.231e-6
-1.438, 8.170e-6
-1.437, 8.034e-6
-1.436, 7.918e-6
-1.435, 7.828e-6
-1.434, 7.718e-6
-1.433, 7.603e-6
-1.432, 7.527e-6
-1.431, 7.446e-6
-1.430, 7.369e-6
-1.429, 7.250e-6
-1.428, 7.159e-6
-1.427, 7.100e-6
-1.426, 7.011e-6
-1.425, 6.916e-6
-1.424, 6.835e-6
-1.423, 6.761e-6
-1.422, 6.661e-6
-1.421, 6.578e-6
-1.420, 6.478e-6
-1.419, 6.416e-6
-1.418, 6.308e-6
-1.417, 6.265e-6
-1.416, 6.172e-6
-1.415, 6.105e-6
-1.414, 6.045e-6
-1.413, 5.964e-6
-1.412, 5.933e-6
-1.411, 5.841e-6
-1.410, 5.755e-6
-1.409, 5.715e-6
-1.408, 5.654e-6
-1.407, 5.594e-6
-1.406, 5.559e-6
-1.405, 5.480e-6
-1.404, 5.423e-6
-1.403, 5.344e-6
-1.402, 5.273e-6
-1.401, 5.215e-6
-1.400, 5.133e-6
-1.399, 5.088e-6
-1.398, 5.030e-6
-1.397, 4.998e-6
-1.396, 4.915e-6
-1.395, 4.853e-6
-1.394, 4.816e-6
-1.393, 4.739e-6
-1.392, 4.675e-6
-1.391, 4.651e-6
-1.390, 4.592e-6
-1.389, 4.549e-6
-1.388, 4.489e-6
-1.387, 4.447e-6
-1.386, 4.393e-6
-1.385, 4.357e-6
-1.384, 4.301e-6
-1.383, 4.235e-6
-1.382, 4.211e-6
-1.381, 4.155e-6
-1.380, 4.125e-6
-1.379, 4.079e-6
-1.378, 4.002e-6
-1.377, 3.979e-6
-1.376, 3.911e-6
-1.375, 3.854e-6
-1.374, 3.833e-6
-1.373, 3.764e-6
-1.372, 3.738e-6
-1.371, 3.716e-6
-1.370, 3.646e-6
-1.369, 3.626e-6
-1.368, 3.577e-6
-1.367, 3.547e-6
-1.366, 3.504e-6
-1.365, 3.460e-6
-1.364, 3.374e-6
-1.363, 3.367e-6
-1.362, 3.337e-6
-1.361, 3.311e-6
-1.360, 3.265e-6
-1.359, 3.223e-6
-1.358, 3.172e-6
-1.357, 3.169e-6
-1.356, 3.095e-6
-1.355, 3.080e-6
-1.354, 3.053e-6
-1.353, 2.999e-6
-1.352, 2.997e-6
-1.351, 2.942e-6
-1.350, 2.919e-6
-1.349, 2.876e-6
-1.348, 2.848e-6
-1.347, 2.816e-6
-1.346, 2.802e-6
-1.345, 2.772e-6
-1.344, 2.725e-6
-1.343, 2.664e-6
-1.342, 2.691e-6
-1.341, 2.621e-6
-1.340, 2.602e-6
-1.339, 2.568e-6
-1.338, 2.551e-6
-1.337, 2.534e-6
-1.336, 2.495e-6
-1.335, 2.491e-6
-1.334, 2.430e-6
-1.333, 2.433e-6
-1.332, 2.395e-6
-1.331, 2.378e-6
-1.330, 2.376e-6
-1.329, 2.350e-6
-1.328, 2.286e-6
-1.327, 2.286e-6
-1.326, 2.254e-6
-1.325, 2.245e-6
-1.324, 2.190e-6
-1.323, 2.195e-6
-1.322, 2.155e-6
-1.321, 2.144e-6
-1.320, 2.157e-6
-1.319, 2.141e-6
-1.318, 2.025e-6
-1.317, 2.046e-6
-1.316, 2.022e-6
-1.315, 2.029e-6
-1.314, 1.987e-6
-1.313, 1.961e-6
-1.312, 1.936e-6
-1.311, 1.919e-6
-1.310, 1.913e-6
-1.309, 1.842e-6
-1.308, 1.862e-6
-1.307, 1.823e-6
-1.306, 1.825e-6
-1.305, 1.810e-6
-1.304, 1.751e-6
-1.303, 1.759e-6
-1.302, 1.742e-6
-1.301, 1.692e-6
-1.300, 1.695e-6
-1.299, 1.648e-6
-1.298, 1.625e-6
-1.297, 1.631e-6
-1.296, 1.603e-6
-1.295, 1.606e-6
-1.294, 1.570e-6
-1.293, 1.558e-6
-1.292, 1.515e-6
-1.291, 1.503e-6
-1.290, 1.474e-6
-1.289, 1.467e-6
-1.288, 1.476e-6
-1.287, 1.442e-6
-1.286, 1.403e-6
-1.285, 1.420e-6
-1.284, 1.368e-6
-1.283, 1.393e-6
-1.282, 1.318e-6
-1.281, 1.342e-6
-1.280, 1.316e-6
-1.279, 1.266e-6
-1.278, 1.322e-6
-1.277, 1.265e-6
-1.276, 1.262e-6
-1.275, 1.259e-6
-1.274, 1.202e-6
-1.273, 1.222e-6
-1.272, 1.163e-6
-1.271, 1.185e-6
-1.270, 1.161e-6
-1.269, 1.153e-6
-1.268, 1.137e-6
-1.267, 1.083e-6
-1.266, 1.091e-6
-1.265, 1.075e-6
-1.264, 1.058e-6
-1.263, 1.039e-6
-1.262, 1.045e-6
-1.261, 1.017e-6
-1.260, 1.004e-6
-1.259, 9.371e-7
-1.258, 9.736e-7
-1.257, 9.361e-7
-1.256, 9.627e-7
-1.255, 9.469e-7
-1.254, 9.154e-7
-1.253, 9.233e-7
-1.252, 8.601e-7
-1.251, 8.276e-7
-1.250, 8.611e-7
-1.249, 8.384e-7
-1.248, 8.078e-7
-1.247, 7.970e-7
-1.246, 8.019e-7
-1.245, 8.118e-7
-1.244, 7.595e-7
-1.243, 7.772e-7
-1.242, 7.299e-7
-1.241, 7.605e-7
-1.240, 7.240e-7
-1.239, 7.052e-7
-1.238, 7.082e-7
-1.237, 7.250e-7
-1.236, 7.240e-7
-1.235, 7.032e-7
-1.234, 6.628e-7
-1.233, 6.677e-7
-1.232, 6.431e-7
-1.231, 6.559e-7
-1.230, 6.588e-7
-1.229, 6.243e-7
-1.228, 6.332e-7
-1.227, 6.263e-7
-1.226, 6.312e-7
-1.225, 6.016e-7
-1.224, 5.878e-7
-1.223, 5.898e-7
-1.222, 5.829e-7
-1.221, 6.016e-7
-1.220, 5.829e-7
-1.219, 5.888e-7
-1.218, 5.760e-7
-1.217, 5.503e-7
-1.216, 5.424e-7
-1.215, 5.158e-7
-1.214, 5.158e-7
-1.213, 5.089e-7
-1.212, 5.148e-7
-1.211, 5.049e-7
-1.210, 4.803e-7
-1.209, 4.813e-7
-1.208, 4.576e-7
-1.207, 4.457e-7
-1.206, 4.586e-7
-1.205, 4.181e-7
-1.204, 4.408e-7
-1.203, 4.566e-7
-1.202, 4.023e-7
-1.201, 4.112e-7
-1.200, 3.737e-7
-1.199, 3.688e-7
-1.198, 3.925e-7
-1.197, 3.708e-7
-1.196, 3.639e-7
-1.195, 3.214e-7
-1.194, 3.579e-7
-1.193, 3.362e-7
-1.192, 3.323e-7
-1.191, 3.303e-7
-1.190, 3.047e-7
-1.189, 3.214e-7
-1.188, 2.770e-7
-1.187, 2.849e-7
-1.186, 2.869e-7
-1.185, 2.908e-7
-1.184, 2.593e-7
-1.183, 2.504e-7
-1.182, 2.603e-7
-1.181, 2.573e-7
-1.180, 2.218e-7
-1.179, 2.090e-7
-1.178, 2.109e-7
-1.177, 2.040e-7
-1.176, 2.247e-7
-1.175, 2.030e-7
-1.174, 2.060e-7
-1.173, 1.744e-7
-1.172, 1.892e-7
-1.171, 1.379e-7
-1.170, 1.823e-7
-1.169, 1.498e-7
-1.168, 1.369e-7
-1.167, 1.557e-7
-1.166, 1.468e-7
-1.165, 1.508e-7
-1.164, 1.320e-7
-1.163, 1.034e-7
-1.162, 1.468e-7
-1.161, 1.261e-7
-1.160, 1.340e-7
-1.159, 1.231e-7
-1.158, 8.169e-8
-1.157, 1.192e-7
-1.156, 1.103e-7
-1.155, 7.676e-8
-1.154, 7.873e-8
-1.153, 6.590e-8
-1.152, 6.294e-8
-1.151, 7.380e-8
-1.150, 4.420e-8
-1.149, 5.604e-8
-1.148, 7.893e-10
-1.147, 4.617e-8
-1.146, -7.103e-9
-1.145, 8.682e-9
-1.144, 2.249e-8
-1.143, -1.894e-8
-1.142, -4.144e-9
-1.141, -1.105e-8
-1.140, 9.669e-9
-1.139, -3.374e-8
-1.138, -5.249e-8
-1.137, -1.894e-8
-1.136, -8.702e-8
-1.135, -4.459e-8
-1.134, -6.137e-8
-1.133, -6.531e-8
-1.132, -6.433e-8
-1.131, -9.590e-8
-1.130, -9.096e-8
-1.129, -1.067e-7
-1.128, -1.176e-7
-1.127, -1.137e-7
-1.126, -1.610e-7
-1.125, -1.206e-7
-1.124, -1.521e-7
-1.123, -1.699e-7
-1.122, -1.590e-7
-1.121, -1.650e-7
-1.120, -1.857e-7
-1.119, -1.561e-7
-1.118, -1.995e-7
-1.117, -2.251e-7
-1.116, -2.153e-7
-1.115, -2.054e-7
-1.114, -2.163e-7
-1.113, -2.468e-7
-1.112, -2.301e-7
-1.111, -2.626e-7
-1.110, -2.399e-7
-1.109, -2.863e-7
-1.108, -2.715e-7
-1.107, -2.715e-7
-1.106, -2.932e-7
-1.105, -2.873e-7
-1.104, -2.853e-7
-1.103, -3.110e-7
-1.102, -3.090e-7
-1.101, -3.564e-7
-1.100, -3.120e-7
-1.099, -3.455e-7
-1.098, -3.465e-7
-1.097, -3.465e-7
-1.096, -3.751e-7
-1.095, -3.396e-7
-1.094, -4.086e-7
-1.093, -3.830e-7
-1.092, -4.126e-7
-1.091, -3.899e-7
-1.090, -4.156e-7
-1.089, -4.106e-7
-1.088, -4.294e-7
-1.087, -4.343e-7
-1.086, -4.609e-7
-1.085, -4.304e-7
-1.084, -4.590e-7
-1.083, -4.580e-7
-1.082, -4.895e-7
-1.081, -4.994e-7
-1.080, -4.807e-7
-1.079, -5.132e-7
-1.078, -5.073e-7
-1.077, -5.418e-7
-1.076, -5.113e-7
-1.075, -5.606e-7
-1.074, -5.655e-7
-1.073, -5.566e-7
-1.072, -5.566e-7
-1.071, -5.862e-7
-1.070, -5.655e-7
-1.069, -6.168e-7
-1.068, -5.912e-7
-1.067, -6.296e-7
-1.066, -6.158e-7
-1.065, -6.484e-7
-1.064, -6.227e-7
-1.063, -6.395e-7
-1.062, -6.405e-7
-1.061, -6.356e-7
-1.060, -6.731e-7
-1.059, -7.036e-7
-1.058, -6.859e-7
-1.057, -7.244e-7
-1.056, -7.214e-7
-1.055, -7.224e-7
-1.054, -7.263e-7
-1.053, -7.401e-7
-1.052, -7.727e-7
-1.051, -7.609e-7
-1.050, -7.796e-7
-1.049, -8.171e-7
-1.048, -7.895e-7
-1.047, -8.427e-7
-1.046, -8.319e-7
-1.045, -8.605e-7
-1.044, -8.467e-7
-1.043, -8.408e-7
-1.042, -8.664e-7
-1.041, -8.931e-7
-1.040, -9.148e-7
-1.039, -9.089e-7
-1.038, -9.306e-7
-1.037, -9.187e-7
-1.036, -9.523e-7
-1.035, -9.335e-7
-1.034, -9.976e-7
-1.033, -1.007e-6
-1.032, -9.976e-7
-1.031, -9.710e-7
-1.030, -1.018e-6
-1.029, -9.996e-7
-1.028, -1.048e-6
-1.027, -1.058e-6
-1.026, -1.051e-6
-1.025, -1.082e-6
-1.024, -1.078e-6
-1.023, -1.106e-6
-1.022, -1.145e-6
-1.021, -1.126e-6
-1.020, -1.143e-6
-1.019, -1.154e-6
-1.018, -1.152e-6
-1.017, -1.181e-6
-1.016, -1.192e-6
-1.015, -1.204e-6
-1.014, -1.217e-6
-1.013, -1.214e-6
-1.012, -1.241e-6
-1.011, -1.260e-6
-1.010, -1.251e-6
-1.009, -1.277e-6
-1.008, -1.266e-6
-1.007, -1.271e-6
-1.006, -1.304e-6
-1.005, -1.320e-6
-1.004, -1.345e-6
-1.003, -1.360e-6
-1.002, -1.352e-6
-1.001, -1.338e-6
