Apr. 21, 2025   11:20:45
Cyclic Voltammetry
File: c:/users/guazh/data/banditlqround7_x0exp590_r20/2025-04-16-exp1146\exp1146-2025-04-21t11_09_47-h2koh\exp1146_cv_sr_500mvs_efin_-1500mv.bin
Data Source:  Experiment
Instrument Model:  CHI760E
Header: CV ran at 500 mVs
Note: 

Init E (V) = -1
High E (V) = -1
Low E (V) = -1.5
Final E (V) = -1
Init P/N = N
Scan Rate (V/s) = 0.5
Segment = 3
Sample Interval (V) = 0.001
Quiet Time (sec) = 2
Sensitivity (A/V) = 0.01
Comp R (ohm) = 1.4

Results:

Channel 1:
Segment 1:

Segment 2:

Segment 3:

Potential/V, Current/A

-1.000, 9.405e-6
-1.001, 5.873e-5
-1.002, 9.573e-5
-1.003, 1.235e-4
-1.004, 1.481e-4
-1.005, 1.636e-4
-1.006, 1.636e-4
-1.007, 1.605e-4
-1.008, 1.574e-4
-1.009, 1.605e-4
-1.010, 1.728e-4
-1.011, 1.913e-4
-1.012, 2.098e-4
-1.013, 2.221e-4
-1.014, 2.221e-4
-1.015, 2.191e-4
-1.016, 2.067e-4
-1.017, 2.067e-4
-1.018, 2.129e-4
-1.019, 2.283e-4
-1.020, 2.468e-4
-1.021, 2.591e-4
-1.022, 2.622e-4
-1.023, 2.561e-4
-1.024, 2.499e-4
-1.025, 2.406e-4
-1.026, 2.437e-4
-1.027, 2.561e-4
-1.028, 2.746e-4
-1.029, 2.869e-4
-1.030, 2.931e-4
-1.031, 2.900e-4
-1.032, 2.807e-4
-1.033, 2.715e-4
-1.034, 2.715e-4
-1.035, 2.807e-4
-1.036, 2.961e-4
-1.037, 3.085e-4
-1.038, 3.208e-4
-1.039, 3.177e-4
-1.040, 3.085e-4
-1.041, 2.992e-4
-1.042, 2.931e-4
-1.043, 2.992e-4
-1.044, 3.115e-4
-1.045, 3.300e-4
-1.046, 3.393e-4
-1.047, 3.424e-4
-1.048, 3.331e-4
-1.049, 3.239e-4
-1.050, 3.146e-4
-1.051, 3.177e-4
-1.052, 3.300e-4
-1.053, 3.455e-4
-1.054, 3.578e-4
-1.055, 3.640e-4
-1.056, 3.578e-4
-1.057, 3.485e-4
-1.058, 3.362e-4
-1.059, 3.331e-4
-1.060, 3.424e-4
-1.061, 3.547e-4
-1.062, 3.701e-4
-1.063, 3.794e-4
-1.064, 3.763e-4
-1.065, 3.670e-4
-1.066, 3.547e-4
-1.067, 3.485e-4
-1.068, 3.547e-4
-1.069, 3.670e-4
-1.070, 3.825e-4
-1.071, 3.917e-4
-1.072, 3.948e-4
-1.073, 3.855e-4
-1.074, 3.732e-4
-1.075, 3.640e-4
-1.076, 3.640e-4
-1.077, 3.763e-4
-1.078, 3.886e-4
-1.079, 4.010e-4
-1.080, 4.071e-4
-1.081, 4.010e-4
-1.082, 3.886e-4
-1.083, 3.794e-4
-1.084, 3.732e-4
-1.085, 3.825e-4
-1.086, 3.948e-4
-1.087, 4.102e-4
-1.088, 4.164e-4
-1.089, 4.133e-4
-1.090, 4.040e-4
-1.091, 3.886e-4
-1.092, 3.855e-4
-1.093, 3.855e-4
-1.094, 3.979e-4
-1.095, 4.133e-4
-1.096, 4.225e-4
-1.097, 4.256e-4
-1.098, 4.133e-4
-1.099, 4.010e-4
-1.100, 3.948e-4
-1.101, 3.917e-4
-1.102, 4.010e-4
-1.103, 4.164e-4
-1.104, 4.256e-4
-1.105, 4.318e-4
-1.106, 4.225e-4
-1.107, 4.133e-4
-1.108, 4.010e-4
-1.109, 3.948e-4
-1.110, 4.010e-4
-1.111, 4.133e-4
-1.112, 4.287e-4
-1.113, 4.349e-4
-1.114, 4.318e-4
-1.115, 4.195e-4
-1.116, 4.071e-4
-1.117, 4.010e-4
-1.118, 4.040e-4
-1.119, 4.133e-4
-1.120, 4.287e-4
-1.121, 4.380e-4
-1.122, 4.380e-4
-1.123, 4.287e-4
-1.124, 4.133e-4
-1.125, 4.040e-4
-1.126, 4.040e-4
-1.127, 4.133e-4
-1.128, 4.256e-4
-1.129, 4.380e-4
-1.130, 4.410e-4
-1.131, 4.318e-4
-1.132, 4.195e-4
-1.133, 4.071e-4
-1.134, 4.040e-4
-1.135, 4.102e-4
-1.136, 4.225e-4
-1.137, 4.349e-4
-1.138, 4.410e-4
-1.139, 4.349e-4
-1.140, 4.256e-4
-1.141, 4.102e-4
-1.142, 4.040e-4
-1.143, 4.071e-4
-1.144, 4.164e-4
-1.145, 4.318e-4
-1.146, 4.410e-4
-1.147, 4.380e-4
-1.148, 4.287e-4
-1.149, 4.133e-4
-1.150, 4.040e-4
-1.151, 4.040e-4
-1.152, 4.133e-4
-1.153, 4.256e-4
-1.154, 4.349e-4
-1.155, 4.380e-4
-1.156, 4.287e-4
-1.157, 4.164e-4
-1.158, 4.071e-4
-1.159, 4.010e-4
-1.160, 4.071e-4
-1.161, 4.195e-4
-1.162, 4.318e-4
-1.163, 4.380e-4
-1.164, 4.318e-4
-1.165, 4.195e-4
-1.166, 4.071e-4
-1.167, 4.010e-4
-1.168, 4.010e-4
-1.169, 4.133e-4
-1.170, 4.256e-4
-1.171, 4.349e-4
-1.172, 4.349e-4
-1.173, 4.256e-4
-1.174, 4.102e-4
-1.175, 4.010e-4
-1.176, 3.979e-4
-1.177, 4.102e-4
-1.178, 4.225e-4
-1.179, 4.318e-4
-1.180, 4.349e-4
-1.181, 4.256e-4
-1.182, 4.133e-4
-1.183, 4.010e-4
-1.184, 3.979e-4
-1.185, 4.040e-4
-1.186, 4.164e-4
-1.187, 4.256e-4
-1.188, 4.318e-4
-1.189, 4.256e-4
-1.190, 4.164e-4
-1.191, 4.010e-4
-1.192, 3.948e-4
-1.193, 3.979e-4
-1.194, 4.102e-4
-1.195, 4.225e-4
-1.196, 4.287e-4
-1.197, 4.287e-4
-1.198, 4.195e-4
-1.199, 4.040e-4
-1.200, 3.948e-4
-1.201, 3.948e-4
-1.202, 4.040e-4
-1.203, 4.164e-4
-1.204, 4.256e-4
-1.205, 4.287e-4
-1.206, 4.195e-4
-1.207, 4.071e-4
-1.208, 3.948e-4
-1.209, 3.917e-4
-1.210, 3.979e-4
-1.211, 4.102e-4
-1.212, 4.225e-4
-1.213, 4.287e-4
-1.214, 4.225e-4
-1.215, 4.133e-4
-1.216, 3.979e-4
-1.217, 3.917e-4
-1.218, 3.948e-4
-1.219, 4.040e-4
-1.220, 4.195e-4
-1.221, 4.256e-4
-1.222, 4.225e-4
-1.223, 4.164e-4
-1.224, 4.010e-4
-1.225, 3.917e-4
-1.226, 3.917e-4
-1.227, 4.010e-4
-1.228, 4.133e-4
-1.229, 4.256e-4
-1.230, 4.256e-4
-1.231, 4.195e-4
-1.232, 4.040e-4
-1.233, 3.948e-4
-1.234, 3.886e-4
-1.235, 3.979e-4
-1.236, 4.102e-4
-1.237, 4.195e-4
-1.238, 4.256e-4
-1.239, 4.195e-4
-1.240, 4.102e-4
-1.241, 3.979e-4
-1.242, 3.886e-4
-1.243, 3.948e-4
-1.244, 4.071e-4
-1.245, 4.164e-4
-1.246, 4.256e-4
-1.247, 4.225e-4
-1.248, 4.133e-4
-1.249, 4.040e-4
-1.250, 3.948e-4
-1.251, 3.917e-4
-1.252, 4.040e-4
-1.253, 4.164e-4
-1.254, 4.225e-4
-1.255, 4.256e-4
-1.256, 4.195e-4
-1.257, 4.102e-4
-1.258, 3.979e-4
-1.259, 3.917e-4
-1.260, 4.010e-4
-1.261, 4.133e-4
-1.262, 4.256e-4
-1.263, 4.287e-4
-1.264, 4.256e-4
-1.265, 4.133e-4
-1.266, 4.010e-4
-1.267, 3.979e-4
-1.268, 4.010e-4
-1.269, 4.102e-4
-1.270, 4.256e-4
-1.271, 4.318e-4
-1.272, 4.318e-4
-1.273, 4.225e-4
-1.274, 4.102e-4
-1.275, 4.010e-4
-1.276, 4.040e-4
-1.277, 4.102e-4
-1.278, 4.256e-4
-1.279, 4.349e-4
-1.280, 4.380e-4
-1.281, 4.318e-4
-1.282, 4.195e-4
-1.283, 4.102e-4
-1.284, 4.071e-4
-1.285, 4.133e-4
-1.286, 4.256e-4
-1.287, 4.410e-4
-1.288, 4.472e-4
-1.289, 4.410e-4
-1.290, 4.318e-4
-1.291, 4.195e-4
-1.292, 4.164e-4
-1.293, 4.195e-4
-1.294, 4.318e-4
-1.295, 4.472e-4
-1.296, 4.534e-4
-1.297, 4.534e-4
-1.298, 4.472e-4
-1.299, 4.318e-4
-1.300, 4.287e-4
-1.301, 4.287e-4
-1.302, 4.380e-4
-1.303, 4.534e-4
-1.304, 4.657e-4
-1.305, 4.688e-4
-1.306, 4.626e-4
-1.307, 4.534e-4
-1.308, 4.441e-4
-1.309, 4.441e-4
-1.310, 4.503e-4
-1.311, 4.626e-4
-1.312, 4.811e-4
-1.313, 4.873e-4
-1.314, 4.842e-4
-1.315, 4.750e-4
-1.316, 4.688e-4
-1.317, 4.626e-4
-1.318, 4.688e-4
-1.319, 4.842e-4
-1.320, 4.996e-4
-1.321, 5.089e-4
-1.322, 5.120e-4
-1.323, 5.058e-4
-1.324, 4.965e-4
-1.325, 4.904e-4
-1.326, 4.965e-4
-1.327, 5.089e-4
-1.328, 5.243e-4
-1.329, 5.397e-4
-1.330, 5.459e-4
-1.331, 5.397e-4
-1.332, 5.366e-4
-1.333, 5.274e-4
-1.334, 5.274e-4
-1.335, 5.397e-4
-1.336, 5.551e-4
-1.337, 5.736e-4
-1.338, 5.859e-4
-1.339, 5.859e-4
-1.340, 5.829e-4
-1.341, 5.736e-4
-1.342, 5.736e-4
-1.343, 5.829e-4
-1.344, 5.983e-4
-1.345, 6.199e-4
-1.346, 6.353e-4
-1.347, 6.414e-4
-1.348, 6.384e-4
-1.349, 6.353e-4
-1.350, 6.322e-4
-1.351, 6.414e-4
-1.352, 6.569e-4
-1.353, 6.784e-4
-1.354, 6.969e-4
-1.355, 7.093e-4
-1.356, 7.124e-4
-1.357, 7.093e-4
-1.358, 7.093e-4
-1.359, 7.154e-4
-1.360, 7.309e-4
-1.361, 7.524e-4
-1.362, 7.771e-4
-1.363, 7.925e-4
-1.364, 8.018e-4
-1.365, 8.048e-4
-1.366, 8.048e-4
-1.367, 8.110e-4
-1.368, 8.233e-4
-1.369, 8.511e-4
-1.370, 8.758e-4
-1.371, 8.973e-4
-1.372, 9.128e-4
-1.373, 9.220e-4
-1.374, 9.251e-4
-1.375, 9.313e-4
-1.376, 9.436e-4
-1.377, 9.713e-4
-1.378, 9.991e-4
-1.379, 1.027e-3
-1.380, 1.051e-3
-1.381, 1.064e-3
-1.382, 1.073e-3
-1.383, 1.082e-3
-1.384, 1.095e-3
-1.385, 1.122e-3
-1.386, 1.153e-3
-1.387, 1.187e-3
-1.388, 1.218e-3
-1.389, 1.236e-3
-1.390, 1.252e-3
-1.391, 1.264e-3
-1.392, 1.280e-3
-1.393, 1.307e-3
-1.394, 1.341e-3
-1.395, 1.384e-3
-1.396, 1.421e-3
-1.397, 1.449e-3
-1.398, 1.474e-3
-1.399, 1.489e-3
-1.400, 1.511e-3
-1.401, 1.539e-3
-1.402, 1.576e-3
-1.403, 1.622e-3
-1.404, 1.668e-3
-1.405, 1.708e-3
-1.406, 1.742e-3
-1.407, 1.767e-3
-1.408, 1.791e-3
-1.409, 1.822e-3
-1.410, 1.862e-3
-1.411, 1.912e-3
-1.412, 1.967e-3
-1.413, 2.017e-3
-1.414, 2.060e-3
-1.415, 2.094e-3
-1.416, 2.124e-3
-1.417, 2.161e-3
-1.418, 2.205e-3
-1.419, 2.257e-3
-1.420, 2.319e-3
-1.421, 2.380e-3
-1.422, 2.436e-3
-1.423, 2.482e-3
-1.424, 2.522e-3
-1.425, 2.562e-3
-1.426, 2.608e-3
-1.427, 2.667e-3
-1.428, 2.738e-3
-1.429, 2.809e-3
-1.430, 2.874e-3
-1.431, 2.932e-3
-1.432, 2.982e-3
-1.433, 3.031e-3
-1.434, 3.083e-3
-1.435, 3.145e-3
-1.436, 3.225e-3
-1.437, 3.302e-3
-1.438, 3.385e-3
-1.439, 3.456e-3
-1.440, 3.518e-3
-1.441, 3.573e-3
-1.442, 3.632e-3
-1.443, 3.697e-3
-1.444, 3.777e-3
-1.445, 3.866e-3
-1.446, 3.956e-3
-1.447, 4.042e-3
-1.448, 4.116e-3
-1.449, 4.181e-3
-1.450, 4.246e-3
-1.451, 4.317e-3
-1.452, 4.397e-3
-1.453, 4.492e-3
-1.454, 4.591e-3
-1.455, 4.690e-3
-1.456, 4.776e-3
-1.457, 4.853e-3
-1.458, 4.924e-3
-1.459, 4.998e-3
-1.460, 5.084e-3
-1.461, 5.180e-3
-1.462, 5.288e-3
-1.463, 5.396e-3
-1.464, 5.491e-3
-1.465, 5.581e-3
-1.466, 5.658e-3
-1.467, 5.735e-3
-1.468, 5.818e-3
-1.469, 5.920e-3
-1.470, 6.031e-3
-1.471, 6.148e-3
-1.472, 6.256e-3
-1.473, 6.358e-3
-1.474, 6.444e-3
-1.475, 6.527e-3
-1.476, 6.613e-3
-1.477, 6.715e-3
-1.478, 6.832e-3
-1.479, 6.953e-3
-1.480, 7.070e-3
-1.481, 7.181e-3
-1.482, 7.273e-3
-1.483, 7.360e-3
-1.484, 7.446e-3
-1.485, 7.545e-3
-1.486, 7.659e-3
-1.487, 7.785e-3
-1.488, 7.908e-3
-1.489, 8.022e-3
-1.490, 8.124e-3
-1.491, 8.210e-3
-1.492, 8.300e-3
-1.493, 8.395e-3
-1.494, 8.503e-3
-1.495, 8.630e-3
-1.496, 8.759e-3
-1.497, 8.883e-3
-1.498, 8.994e-3
-1.499, 9.089e-3
-1.500, 9.089e-3
-1.499, 8.975e-3
-1.498, 8.876e-3
-1.497, 8.790e-3
-1.496, 8.716e-3
-1.495, 8.630e-3
-1.494, 8.537e-3
-1.493, 8.426e-3
-1.492, 8.306e-3
-1.491, 8.192e-3
-1.490, 8.087e-3
-1.489, 7.998e-3
-1.488, 7.921e-3
-1.487, 7.841e-3
-1.486, 7.751e-3
-1.485, 7.649e-3
-1.484, 7.535e-3
-1.483, 7.424e-3
-1.482, 7.319e-3
-1.481, 7.227e-3
-1.480, 7.150e-3
-1.479, 7.073e-3
-1.478, 6.990e-3
-1.477, 6.897e-3
-1.476, 6.789e-3
-1.475, 6.681e-3
-1.474, 6.576e-3
-1.473, 6.490e-3
-1.472, 6.410e-3
-1.471, 6.339e-3
-1.470, 6.265e-3
-1.469, 6.182e-3
-1.468, 6.083e-3
-1.467, 5.981e-3
-1.466, 5.880e-3
-1.465, 5.790e-3
-1.464, 5.716e-3
-1.463, 5.648e-3
-1.462, 5.581e-3
-1.461, 5.504e-3
-1.460, 5.417e-3
-1.459, 5.319e-3
-1.458, 5.220e-3
-1.457, 5.130e-3
-1.456, 5.056e-3
-1.455, 4.992e-3
-1.454, 4.933e-3
-1.453, 4.865e-3
-1.452, 4.785e-3
-1.451, 4.696e-3
-1.450, 4.603e-3
-1.449, 4.517e-3
-1.448, 4.446e-3
-1.447, 4.381e-3
-1.446, 4.326e-3
-1.445, 4.264e-3
-1.444, 4.193e-3
-1.443, 4.113e-3
-1.442, 4.027e-3
-1.441, 3.943e-3
-1.440, 3.873e-3
-1.439, 3.814e-3
-1.438, 3.762e-3
-1.437, 3.706e-3
-1.436, 3.644e-3
-1.435, 3.573e-3
-1.434, 3.493e-3
-1.433, 3.413e-3
-1.432, 3.348e-3
-1.431, 3.293e-3
-1.430, 3.247e-3
-1.429, 3.197e-3
-1.428, 3.145e-3
-1.427, 3.080e-3
-1.426, 3.009e-3
-1.425, 2.938e-3
-1.424, 2.874e-3
-1.423, 2.821e-3
-1.422, 2.778e-3
-1.421, 2.735e-3
-1.420, 2.689e-3
-1.419, 2.633e-3
-1.418, 2.571e-3
-1.417, 2.504e-3
-1.416, 2.445e-3
-1.415, 2.393e-3
-1.414, 2.349e-3
-1.413, 2.316e-3
-1.412, 2.275e-3
-1.411, 2.229e-3
-1.410, 2.174e-3
-1.409, 2.115e-3
-1.408, 2.060e-3
-1.407, 2.013e-3
-1.406, 1.976e-3
-1.405, 1.946e-3
-1.404, 1.915e-3
-1.403, 1.875e-3
-1.402, 1.828e-3
-1.401, 1.776e-3
-1.400, 1.727e-3
-1.399, 1.684e-3
-1.398, 1.647e-3
-1.397, 1.622e-3
-1.396, 1.591e-3
-1.395, 1.563e-3
-1.394, 1.520e-3
-1.393, 1.477e-3
-1.392, 1.428e-3
-1.391, 1.388e-3
-1.390, 1.357e-3
-1.389, 1.332e-3
-1.388, 1.314e-3
-1.387, 1.289e-3
-1.386, 1.255e-3
-1.385, 1.215e-3
-1.384, 1.175e-3
-1.383, 1.138e-3
-1.382, 1.107e-3
-1.381, 1.088e-3
-1.380, 1.070e-3
-1.379, 1.051e-3
-1.378, 1.027e-3
-1.377, 9.929e-4
-1.376, 9.559e-4
-1.375, 9.189e-4
-1.374, 8.912e-4
-1.373, 8.727e-4
-1.372, 8.634e-4
-1.371, 8.480e-4
-1.370, 8.295e-4
-1.369, 7.987e-4
-1.368, 7.679e-4
-1.367, 7.339e-4
-1.366, 7.062e-4
-1.365, 6.908e-4
-1.364, 6.784e-4
-1.363, 6.723e-4
-1.362, 6.569e-4
-1.361, 6.353e-4
-1.360, 6.075e-4
-1.359, 5.767e-4
-1.358, 5.520e-4
-1.357, 5.366e-4
-1.356, 5.274e-4
-1.355, 5.212e-4
-1.354, 5.150e-4
-1.353, 4.965e-4
-1.352, 4.719e-4
-1.351, 4.441e-4
-1.350, 4.195e-4
-1.349, 4.040e-4
-1.348, 3.979e-4
-1.347, 3.948e-4
-1.346, 3.917e-4
-1.345, 3.794e-4
-1.344, 3.578e-4
-1.343, 3.362e-4
-1.342, 3.115e-4
-1.341, 2.961e-4
-1.340, 2.869e-4
-1.339, 2.869e-4
-1.338, 2.869e-4
-1.337, 2.807e-4
-1.336, 2.653e-4
-1.335, 2.437e-4
-1.334, 2.191e-4
-1.333, 2.036e-4
-1.332, 1.975e-4
-1.331, 1.975e-4
-1.330, 2.006e-4
-1.329, 1.944e-4
-1.328, 1.851e-4
-1.327, 1.666e-4
-1.326, 1.451e-4
-1.325, 1.296e-4
-1.324, 1.173e-4
-1.323, 1.204e-4
-1.322, 1.235e-4
-1.321, 1.235e-4
-1.320, 1.173e-4
-1.319, 1.019e-4
-1.318, 8.340e-5
-1.317, 6.490e-5
-1.316, 5.565e-5
-1.315, 5.565e-5
-1.314, 5.873e-5
-1.313, 6.182e-5
-1.312, 6.182e-5
-1.311, 4.949e-5
-1.310, 3.099e-5
-1.309, 1.249e-5
-1.308, 1.559e-7
-1.307, 1.559e-7
-1.306, 3.239e-6
-1.305, 9.405e-6
-1.304, 1.249e-5
-1.303, 3.239e-6
-1.302, -9.093e-6
-1.301, -2.759e-5
-1.300, -4.301e-5
-1.299, -4.609e-5
-1.298, -4.301e-5
-1.297, -3.684e-5
-1.296, -3.068e-5
-1.295, -3.376e-5
-1.294, -4.609e-5
-1.293, -6.151e-5
-1.292, -7.692e-5
-1.291, -8.309e-5
-1.290, -8.309e-5
-1.289, -7.692e-5
-1.288, -6.767e-5
-1.287, -6.767e-5
-1.286, -7.692e-5
-1.285, -8.925e-5
-1.284, -1.078e-4
-1.283, -1.170e-4
-1.282, -1.170e-4
-1.281, -1.108e-4
-1.280, -9.850e-5
-1.279, -9.542e-5
-1.278, -1.016e-4
-1.277, -1.139e-4
-1.276, -1.293e-4
-1.275, -1.417e-4
-1.274, -1.448e-4
-1.273, -1.386e-4
-1.272, -1.293e-4
-1.271, -1.201e-4
-1.270, -1.232e-4
-1.269, -1.324e-4
-1.268, -1.478e-4
-1.267, -1.602e-4
-1.266, -1.663e-4
-1.265, -1.632e-4
-1.264, -1.509e-4
-1.263, -1.448e-4
-1.262, -1.417e-4
-1.261, -1.478e-4
-1.260, -1.602e-4
-1.259, -1.756e-4
-1.258, -1.848e-4
-1.257, -1.817e-4
-1.256, -1.725e-4
-1.255, -1.632e-4
-1.254, -1.571e-4
-1.253, -1.602e-4
-1.252, -1.725e-4
-1.251, -1.879e-4
-1.250, -1.972e-4
-1.249, -2.002e-4
-1.248, -1.910e-4
-1.247, -1.817e-4
-1.246, -1.756e-4
-1.245, -1.725e-4
-1.244, -1.817e-4
-1.243, -1.972e-4
-1.242, -2.064e-4
-1.241, -2.126e-4
-1.240, -2.064e-4
-1.239, -1.972e-4
-1.238, -1.879e-4
-1.237, -1.817e-4
-1.236, -1.910e-4
-1.235, -2.033e-4
-1.234, -2.157e-4
-1.233, -2.218e-4
-1.232, -2.218e-4
-1.231, -2.126e-4
-1.230, -2.002e-4
-1.229, -1.972e-4
-1.228, -1.972e-4
-1.227, -2.095e-4
-1.226, -2.218e-4
-1.225, -2.311e-4
-1.224, -2.311e-4
-1.223, -2.249e-4
-1.222, -2.157e-4
-1.221, -2.064e-4
-1.220, -2.033e-4
-1.219, -2.126e-4
-1.218, -2.249e-4
-1.217, -2.372e-4
-1.216, -2.434e-4
-1.215, -2.372e-4
-1.214, -2.280e-4
-1.213, -2.157e-4
-1.212, -2.126e-4
-1.211, -2.157e-4
-1.210, -2.280e-4
-1.209, -2.434e-4
-1.208, -2.496e-4
-1.207, -2.465e-4
-1.206, -2.372e-4
-1.205, -2.249e-4
-1.204, -2.187e-4
-1.203, -2.218e-4
-1.202, -2.311e-4
-1.201, -2.434e-4
-1.200, -2.557e-4
-1.199, -2.557e-4
-1.198, -2.465e-4
-1.197, -2.372e-4
-1.196, -2.280e-4
-1.195, -2.249e-4
-1.194, -2.342e-4
-1.193, -2.465e-4
-1.192, -2.588e-4
-1.191, -2.619e-4
-1.190, -2.557e-4
-1.189, -2.465e-4
-1.188, -2.372e-4
-1.187, -2.311e-4
-1.186, -2.372e-4
-1.185, -2.496e-4
-1.184, -2.619e-4
-1.183, -2.681e-4
-1.182, -2.681e-4
-1.181, -2.557e-4
-1.180, -2.434e-4
-1.179, -2.372e-4
-1.178, -2.403e-4
-1.177, -2.527e-4
-1.176, -2.619e-4
-1.175, -2.742e-4
-1.174, -2.742e-4
-1.173, -2.650e-4
-1.172, -2.527e-4
-1.171, -2.465e-4
-1.170, -2.434e-4
-1.169, -2.527e-4
-1.168, -2.650e-4
-1.167, -2.773e-4
-1.166, -2.804e-4
-1.165, -2.742e-4
-1.164, -2.650e-4
-1.163, -2.527e-4
-1.162, -2.496e-4
-1.161, -2.557e-4
-1.160, -2.681e-4
-1.159, -2.804e-4
-1.158, -2.866e-4
-1.157, -2.835e-4
-1.156, -2.742e-4
-1.155, -2.619e-4
-1.154, -2.557e-4
-1.153, -2.588e-4
-1.152, -2.681e-4
-1.151, -2.804e-4
-1.150, -2.897e-4
-1.149, -2.897e-4
-1.148, -2.835e-4
-1.147, -2.712e-4
-1.146, -2.619e-4
-1.145, -2.619e-4
-1.144, -2.712e-4
-1.143, -2.835e-4
-1.142, -2.958e-4
-1.141, -2.989e-4
-1.140, -2.927e-4
-1.139, -2.835e-4
-1.138, -2.712e-4
-1.137, -2.681e-4
-1.136, -2.742e-4
-1.135, -2.866e-4
-1.134, -2.989e-4
-1.133, -3.051e-4
-1.132, -3.051e-4
-1.131, -2.927e-4
-1.130, -2.804e-4
-1.129, -2.742e-4
-1.128, -2.773e-4
-1.127, -2.866e-4
-1.126, -3.020e-4
-1.125, -3.112e-4
-1.124, -3.143e-4
-1.123, -3.051e-4
-1.122, -2.927e-4
-1.121, -2.835e-4
-1.120, -2.835e-4
-1.119, -2.897e-4
-1.118, -3.051e-4
-1.117, -3.174e-4
-1.116, -3.236e-4
-1.115, -3.174e-4
-1.114, -3.051e-4
-1.113, -2.958e-4
-1.112, -2.897e-4
-1.111, -2.958e-4
-1.110, -3.082e-4
-1.109, -3.236e-4
-1.108, -3.297e-4
-1.107, -3.267e-4
-1.106, -3.174e-4
-1.105, -3.051e-4
-1.104, -2.989e-4
-1.103, -3.020e-4
-1.102, -3.143e-4
-1.101, -3.267e-4
-1.100, -3.390e-4
-1.099, -3.390e-4
-1.098, -3.328e-4
-1.097, -3.205e-4
-1.096, -3.112e-4
-1.095, -3.112e-4
-1.094, -3.205e-4
-1.093, -3.328e-4
-1.092, -3.452e-4
-1.091, -3.513e-4
-1.090, -3.452e-4
-1.089, -3.359e-4
-1.088, -3.267e-4
-1.087, -3.205e-4
-1.086, -3.267e-4
-1.085, -3.390e-4
-1.084, -3.544e-4
-1.083, -3.637e-4
-1.082, -3.606e-4
-1.081, -3.544e-4
-1.080, -3.421e-4
-1.079, -3.359e-4
-1.078, -3.390e-4
-1.077, -3.482e-4
-1.076, -3.637e-4
-1.075, -3.760e-4
-1.074, -3.760e-4
-1.073, -3.698e-4
-1.072, -3.575e-4
-1.071, -3.513e-4
-1.070, -3.482e-4
-1.069, -3.575e-4
-1.068, -3.729e-4
-1.067, -3.852e-4
-1.066, -3.914e-4
-1.065, -3.883e-4
-1.064, -3.791e-4
-1.063, -3.667e-4
-1.062, -3.637e-4
-1.061, -3.698e-4
-1.060, -3.821e-4
-1.059, -3.976e-4
-1.058, -4.099e-4
-1.057, -4.068e-4
-1.056, -3.976e-4
-1.055, -3.883e-4
-1.054, -3.821e-4
-1.053, -3.821e-4
-1.052, -3.945e-4
-1.051, -4.099e-4
-1.050, -4.222e-4
-1.049, -4.284e-4
-1.048, -4.222e-4
-1.047, -4.099e-4
-1.046, -4.037e-4
-1.045, -4.006e-4
-1.044, -4.099e-4
-1.043, -4.253e-4
-1.042, -4.407e-4
-1.041, -4.500e-4
-1.040, -4.438e-4
-1.039, -4.376e-4
-1.038, -4.253e-4
-1.037, -4.222e-4
-1.036, -4.315e-4
-1.035, -4.438e-4
-1.034, -4.623e-4
-1.033, -4.716e-4
-1.032, -4.716e-4
-1.031, -4.654e-4
-1.030, -4.531e-4
-1.029, -4.469e-4
-1.028, -4.500e-4
-1.027, -4.623e-4
-1.026, -4.777e-4
-1.025, -4.931e-4
-1.024, -4.993e-4
-1.023, -4.931e-4
-1.022, -4.839e-4
-1.021, -4.746e-4
-1.020, -4.746e-4
-1.019, -4.839e-4
-1.018, -4.993e-4
-1.017, -5.178e-4
-1.016, -5.271e-4
-1.015, -5.271e-4
-1.014, -5.178e-4
-1.013, -5.086e-4
-1.012, -5.055e-4
-1.011, -5.116e-4
-1.010, -5.271e-4
-1.009, -5.456e-4
-1.008, -5.579e-4
-1.007, -5.610e-4
-1.006, -5.548e-4
-1.005, -5.456e-4
-1.004, -5.394e-4
-1.003, -5.425e-4
-1.002, -5.548e-4
-1.001, -5.733e-4
