Apr. 21, 2025   11:21:42
Cyclic Voltammetry
File: c:/users/guazh/data/banditlqround7_x0exp590_r20/2025-04-16-exp1146\exp1146-2025-04-21t11_09_47-h2koh\exp1146_cv_sr_800mvs_efin_-1500mv.bin
Data Source:  Experiment
Instrument Model:  CHI760E
Header: CV ran at 800 mVs
Note: 

Init E (V) = -1
High E (V) = -1
Low E (V) = -1.5
Final E (V) = -1
Init P/N = N
Scan Rate (V/s) = 0.8
Segment = 3
Sample Interval (V) = 0.001
Quiet Time (sec) = 2
Sensitivity (A/V) = 0.01
Comp R (ohm) = 1.4

Results:

Channel 1:
Segment 1:

Segment 2:

Segment 3:

Potential/V, Current/A

-1.000, 1.557e-5
-1.001, 8.957e-5
-1.002, 1.296e-4
-1.003, 1.605e-4
-1.004, 1.882e-4
-1.005, 2.098e-4
-1.006, 2.252e-4
-1.007, 2.345e-4
-1.008, 2.406e-4
-1.009, 2.437e-4
-1.010, 2.437e-4
-1.011, 2.437e-4
-1.012, 2.468e-4
-1.013, 2.499e-4
-1.014, 2.591e-4
-1.015, 2.715e-4
-1.016, 2.838e-4
-1.017, 3.023e-4
-1.018, 3.146e-4
-1.019, 3.208e-4
-1.020, 3.300e-4
-1.021, 3.300e-4
-1.022, 3.300e-4
-1.023, 3.270e-4
-1.024, 3.208e-4
-1.025, 3.208e-4
-1.026, 3.208e-4
-1.027, 3.270e-4
-1.028, 3.393e-4
-1.029, 3.485e-4
-1.030, 3.609e-4
-1.031, 3.732e-4
-1.032, 3.825e-4
-1.033, 3.917e-4
-1.034, 3.886e-4
-1.035, 3.886e-4
-1.036, 3.855e-4
-1.037, 3.794e-4
-1.038, 3.763e-4
-1.039, 3.763e-4
-1.040, 3.763e-4
-1.041, 3.855e-4
-1.042, 3.979e-4
-1.043, 4.071e-4
-1.044, 4.195e-4
-1.045, 4.287e-4
-1.046, 4.349e-4
-1.047, 4.380e-4
-1.048, 4.349e-4
-1.049, 4.318e-4
-1.050, 4.287e-4
-1.051, 4.225e-4
-1.052, 4.195e-4
-1.053, 4.195e-4
-1.054, 4.256e-4
-1.055, 4.349e-4
-1.056, 4.441e-4
-1.057, 4.565e-4
-1.058, 4.688e-4
-1.059, 4.719e-4
-1.060, 4.750e-4
-1.061, 4.750e-4
-1.062, 4.719e-4
-1.063, 4.688e-4
-1.064, 4.595e-4
-1.065, 4.595e-4
-1.066, 4.534e-4
-1.067, 4.595e-4
-1.068, 4.657e-4
-1.069, 4.780e-4
-1.070, 4.873e-4
-1.071, 4.965e-4
-1.072, 5.058e-4
-1.073, 5.089e-4
-1.074, 5.089e-4
-1.075, 5.058e-4
-1.076, 4.996e-4
-1.077, 4.935e-4
-1.078, 4.904e-4
-1.079, 4.873e-4
-1.080, 4.873e-4
-1.081, 4.935e-4
-1.082, 4.996e-4
-1.083, 5.120e-4
-1.084, 5.243e-4
-1.085, 5.305e-4
-1.086, 5.366e-4
-1.087, 5.366e-4
-1.088, 5.335e-4
-1.089, 5.274e-4
-1.090, 5.212e-4
-1.091, 5.150e-4
-1.092, 5.120e-4
-1.093, 5.089e-4
-1.094, 5.150e-4
-1.095, 5.212e-4
-1.096, 5.305e-4
-1.097, 5.397e-4
-1.098, 5.489e-4
-1.099, 5.551e-4
-1.100, 5.582e-4
-1.101, 5.551e-4
-1.102, 5.520e-4
-1.103, 5.459e-4
-1.104, 5.335e-4
-1.105, 5.335e-4
-1.106, 5.274e-4
-1.107, 5.305e-4
-1.108, 5.366e-4
-1.109, 5.459e-4
-1.110, 5.551e-4
-1.111, 5.644e-4
-1.112, 5.705e-4
-1.113, 5.736e-4
-1.114, 5.705e-4
-1.115, 5.674e-4
-1.116, 5.613e-4
-1.117, 5.520e-4
-1.118, 5.459e-4
-1.119, 5.428e-4
-1.120, 5.428e-4
-1.121, 5.489e-4
-1.122, 5.551e-4
-1.123, 5.613e-4
-1.124, 5.736e-4
-1.125, 5.798e-4
-1.126, 5.859e-4
-1.127, 5.859e-4
-1.128, 5.798e-4
-1.129, 5.736e-4
-1.130, 5.674e-4
-1.131, 5.582e-4
-1.132, 5.551e-4
-1.133, 5.520e-4
-1.134, 5.551e-4
-1.135, 5.613e-4
-1.136, 5.674e-4
-1.137, 5.798e-4
-1.138, 5.859e-4
-1.139, 5.921e-4
-1.140, 5.952e-4
-1.141, 5.890e-4
-1.142, 5.859e-4
-1.143, 5.798e-4
-1.144, 5.674e-4
-1.145, 5.613e-4
-1.146, 5.613e-4
-1.147, 5.613e-4
-1.148, 5.674e-4
-1.149, 5.736e-4
-1.150, 5.829e-4
-1.151, 5.921e-4
-1.152, 5.983e-4
-1.153, 5.983e-4
-1.154, 5.983e-4
-1.155, 5.890e-4
-1.156, 5.859e-4
-1.157, 5.767e-4
-1.158, 5.674e-4
-1.159, 5.644e-4
-1.160, 5.644e-4
-1.161, 5.674e-4
-1.162, 5.736e-4
-1.163, 5.829e-4
-1.164, 5.921e-4
-1.165, 5.983e-4
-1.166, 6.014e-4
-1.167, 6.014e-4
-1.168, 5.952e-4
-1.169, 5.890e-4
-1.170, 5.829e-4
-1.171, 5.736e-4
-1.172, 5.674e-4
-1.173, 5.674e-4
-1.174, 5.705e-4
-1.175, 5.736e-4
-1.176, 5.829e-4
-1.177, 5.921e-4
-1.178, 5.983e-4
-1.179, 6.014e-4
-1.180, 6.014e-4
-1.181, 5.983e-4
-1.182, 5.921e-4
-1.183, 5.859e-4
-1.184, 5.736e-4
-1.185, 5.705e-4
-1.186, 5.644e-4
-1.187, 5.674e-4
-1.188, 5.705e-4
-1.189, 5.798e-4
-1.190, 5.890e-4
-1.191, 5.952e-4
-1.192, 6.014e-4
-1.193, 6.044e-4
-1.194, 6.014e-4
-1.195, 5.983e-4
-1.196, 5.890e-4
-1.197, 5.798e-4
-1.198, 5.736e-4
-1.199, 5.674e-4
-1.200, 5.674e-4
-1.201, 5.736e-4
-1.202, 5.767e-4
-1.203, 5.859e-4
-1.204, 5.952e-4
-1.205, 5.983e-4
-1.206, 6.014e-4
-1.207, 6.014e-4
-1.208, 5.952e-4
-1.209, 5.890e-4
-1.210, 5.829e-4
-1.211, 5.736e-4
-1.212, 5.674e-4
-1.213, 5.674e-4
-1.214, 5.705e-4
-1.215, 5.736e-4
-1.216, 5.829e-4
-1.217, 5.921e-4
-1.218, 5.983e-4
-1.219, 6.014e-4
-1.220, 6.014e-4
-1.221, 5.983e-4
-1.222, 5.921e-4
-1.223, 5.859e-4
-1.224, 5.736e-4
-1.225, 5.705e-4
-1.226, 5.674e-4
-1.227, 5.705e-4
-1.228, 5.736e-4
-1.229, 5.829e-4
-1.230, 5.890e-4
-1.231, 5.952e-4
-1.232, 6.014e-4
-1.233, 6.044e-4
-1.234, 6.014e-4
-1.235, 5.921e-4
-1.236, 5.890e-4
-1.237, 5.798e-4
-1.238, 5.736e-4
-1.239, 5.674e-4
-1.240, 5.674e-4
-1.241, 5.736e-4
-1.242, 5.798e-4
-1.243, 5.859e-4
-1.244, 5.952e-4
-1.245, 6.014e-4
-1.246, 6.044e-4
-1.247, 6.044e-4
-1.248, 5.952e-4
-1.249, 5.921e-4
-1.250, 5.829e-4
-1.251, 5.767e-4
-1.252, 5.705e-4
-1.253, 5.674e-4
-1.254, 5.736e-4
-1.255, 5.767e-4
-1.256, 5.859e-4
-1.257, 5.952e-4
-1.258, 6.014e-4
-1.259, 6.044e-4
-1.260, 6.044e-4
-1.261, 6.014e-4
-1.262, 5.952e-4
-1.263, 5.890e-4
-1.264, 5.798e-4
-1.265, 5.767e-4
-1.266, 5.736e-4
-1.267, 5.736e-4
-1.268, 5.798e-4
-1.269, 5.890e-4
-1.270, 5.952e-4
-1.271, 6.044e-4
-1.272, 6.075e-4
-1.273, 6.106e-4
-1.274, 6.075e-4
-1.275, 6.044e-4
-1.276, 5.983e-4
-1.277, 5.890e-4
-1.278, 5.829e-4
-1.279, 5.798e-4
-1.280, 5.798e-4
-1.281, 5.859e-4
-1.282, 5.921e-4
-1.283, 5.983e-4
-1.284, 6.075e-4
-1.285, 6.137e-4
-1.286, 6.168e-4
-1.287, 6.168e-4
-1.288, 6.137e-4
-1.289, 6.075e-4
-1.290, 6.014e-4
-1.291, 5.952e-4
-1.292, 5.921e-4
-1.293, 5.890e-4
-1.294, 5.952e-4
-1.295, 6.014e-4
-1.296, 6.075e-4
-1.297, 6.199e-4
-1.298, 6.260e-4
-1.299, 6.291e-4
-1.300, 6.322e-4
-1.301, 6.291e-4
-1.302, 6.229e-4
-1.303, 6.199e-4
-1.304, 6.106e-4
-1.305, 6.075e-4
-1.306, 6.044e-4
-1.307, 6.075e-4
-1.308, 6.168e-4
-1.309, 6.229e-4
-1.310, 6.353e-4
-1.311, 6.414e-4
-1.312, 6.476e-4
-1.313, 6.538e-4
-1.314, 6.538e-4
-1.315, 6.476e-4
-1.316, 6.445e-4
-1.317, 6.384e-4
-1.318, 6.353e-4
-1.319, 6.322e-4
-1.320, 6.353e-4
-1.321, 6.414e-4
-1.322, 6.507e-4
-1.323, 6.599e-4
-1.324, 6.723e-4
-1.325, 6.784e-4
-1.326, 6.877e-4
-1.327, 6.877e-4
-1.328, 6.846e-4
-1.329, 6.846e-4
-1.330, 6.784e-4
-1.331, 6.754e-4
-1.332, 6.754e-4
-1.333, 6.754e-4
-1.334, 6.815e-4
-1.335, 6.908e-4
-1.336, 7.031e-4
-1.337, 7.154e-4
-1.338, 7.247e-4
-1.339, 7.339e-4
-1.340, 7.370e-4
-1.341, 7.401e-4
-1.342, 7.370e-4
-1.343, 7.370e-4
-1.344, 7.339e-4
-1.345, 7.339e-4
-1.346, 7.339e-4
-1.347, 7.401e-4
-1.348, 7.524e-4
-1.349, 7.648e-4
-1.350, 7.802e-4
-1.351, 7.925e-4
-1.352, 8.048e-4
-1.353, 8.141e-4
-1.354, 8.172e-4
-1.355, 8.203e-4
-1.356, 8.203e-4
-1.357, 8.203e-4
-1.358, 8.203e-4
-1.359, 8.264e-4
-1.360, 8.326e-4
-1.361, 8.449e-4
-1.362, 8.603e-4
-1.363, 8.758e-4
-1.364, 8.943e-4
-1.365, 9.066e-4
-1.366, 9.220e-4
-1.367, 9.313e-4
-1.368, 9.374e-4
-1.369, 9.405e-4
-1.370, 9.467e-4
-1.371, 9.467e-4
-1.372, 9.559e-4
-1.373, 9.652e-4
-1.374, 9.775e-4
-1.375, 9.960e-4
-1.376, 1.014e-3
-1.377, 1.036e-3
-1.378, 1.055e-3
-1.379, 1.073e-3
-1.380, 1.088e-3
-1.381, 1.101e-3
-1.382, 1.113e-3
-1.383, 1.122e-3
-1.384, 1.125e-3
-1.385, 1.138e-3
-1.386, 1.150e-3
-1.387, 1.169e-3
-1.388, 1.187e-3
-1.389, 1.212e-3
-1.390, 1.236e-3
-1.391, 1.264e-3
-1.392, 1.289e-3
-1.393, 1.310e-3
-1.394, 1.332e-3
-1.395, 1.347e-3
-1.396, 1.363e-3
-1.397, 1.375e-3
-1.398, 1.391e-3
-1.399, 1.409e-3
-1.400, 1.431e-3
-1.401, 1.458e-3
-1.402, 1.486e-3
-1.403, 1.520e-3
-1.404, 1.554e-3
-1.405, 1.588e-3
-1.406, 1.619e-3
-1.407, 1.647e-3
-1.408, 1.671e-3
-1.409, 1.696e-3
-1.410, 1.717e-3
-1.411, 1.739e-3
-1.412, 1.767e-3
-1.413, 1.791e-3
-1.414, 1.825e-3
-1.415, 1.862e-3
-1.416, 1.902e-3
-1.417, 1.949e-3
-1.418, 1.992e-3
-1.419, 2.032e-3
-1.420, 2.072e-3
-1.421, 2.109e-3
-1.422, 2.143e-3
-1.423, 2.177e-3
-1.424, 2.205e-3
-1.425, 2.242e-3
-1.426, 2.275e-3
-1.427, 2.319e-3
-1.428, 2.365e-3
-1.429, 2.414e-3
-1.430, 2.467e-3
-1.431, 2.525e-3
-1.432, 2.578e-3
-1.433, 2.630e-3
-1.434, 2.682e-3
-1.435, 2.729e-3
-1.436, 2.775e-3
-1.437, 2.818e-3
-1.438, 2.861e-3
-1.439, 2.908e-3
-1.440, 2.957e-3
-1.441, 3.012e-3
-1.442, 3.071e-3
-1.443, 3.136e-3
-1.444, 3.204e-3
-1.445, 3.271e-3
-1.446, 3.342e-3
-1.447, 3.404e-3
-1.448, 3.466e-3
-1.449, 3.527e-3
-1.450, 3.583e-3
-1.451, 3.638e-3
-1.452, 3.697e-3
-1.453, 3.755e-3
-1.454, 3.820e-3
-1.455, 3.894e-3
-1.456, 3.968e-3
-1.457, 4.051e-3
-1.458, 4.135e-3
-1.459, 4.215e-3
-1.460, 4.298e-3
-1.461, 4.372e-3
-1.462, 4.449e-3
-1.463, 4.520e-3
-1.464, 4.588e-3
-1.465, 4.659e-3
-1.466, 4.730e-3
-1.467, 4.807e-3
-1.468, 4.890e-3
-1.469, 4.976e-3
-1.470, 5.066e-3
-1.471, 5.161e-3
-1.472, 5.257e-3
-1.473, 5.352e-3
-1.474, 5.445e-3
-1.475, 5.534e-3
-1.476, 5.621e-3
-1.477, 5.701e-3
-1.478, 5.784e-3
-1.479, 5.867e-3
-1.480, 5.951e-3
-1.481, 6.046e-3
-1.482, 6.142e-3
-1.483, 6.247e-3
-1.484, 6.358e-3
-1.485, 6.469e-3
-1.486, 6.580e-3
-1.487, 6.687e-3
-1.488, 6.789e-3
-1.489, 6.888e-3
-1.490, 6.983e-3
-1.491, 7.073e-3
-1.492, 7.165e-3
-1.493, 7.258e-3
-1.494, 7.353e-3
-1.495, 7.458e-3
-1.496, 7.563e-3
-1.497, 7.677e-3
-1.498, 7.794e-3
-1.499, 7.914e-3
-1.500, 7.933e-3
-1.499, 7.837e-3
-1.498, 7.748e-3
-1.497, 7.656e-3
-1.496, 7.557e-3
-1.495, 7.458e-3
-1.494, 7.363e-3
-1.493, 7.270e-3
-1.492, 7.181e-3
-1.491, 7.101e-3
-1.490, 7.023e-3
-1.489, 6.953e-3
-1.488, 6.879e-3
-1.487, 6.801e-3
-1.486, 6.724e-3
-1.485, 6.638e-3
-1.484, 6.546e-3
-1.483, 6.453e-3
-1.482, 6.358e-3
-1.481, 6.259e-3
-1.480, 6.169e-3
-1.479, 6.080e-3
-1.478, 6.000e-3
-1.477, 5.923e-3
-1.476, 5.852e-3
-1.475, 5.781e-3
-1.474, 5.710e-3
-1.473, 5.633e-3
-1.472, 5.556e-3
-1.471, 5.470e-3
-1.470, 5.380e-3
-1.469, 5.294e-3
-1.468, 5.201e-3
-1.467, 5.115e-3
-1.466, 5.035e-3
-1.465, 4.958e-3
-1.464, 4.887e-3
-1.463, 4.819e-3
-1.462, 4.754e-3
-1.461, 4.690e-3
-1.460, 4.622e-3
-1.459, 4.551e-3
-1.458, 4.474e-3
-1.457, 4.397e-3
-1.456, 4.317e-3
-1.455, 4.236e-3
-1.454, 4.159e-3
-1.453, 4.085e-3
-1.452, 4.014e-3
-1.451, 3.950e-3
-1.450, 3.894e-3
-1.449, 3.836e-3
-1.448, 3.777e-3
-1.447, 3.718e-3
-1.446, 3.657e-3
-1.445, 3.592e-3
-1.444, 3.521e-3
-1.443, 3.453e-3
-1.442, 3.382e-3
-1.441, 3.314e-3
-1.440, 3.247e-3
-1.439, 3.185e-3
-1.438, 3.133e-3
-1.437, 3.080e-3
-1.436, 3.031e-3
-1.435, 2.982e-3
-1.434, 2.929e-3
-1.433, 2.880e-3
-1.432, 2.821e-3
-1.431, 2.763e-3
-1.430, 2.701e-3
-1.429, 2.642e-3
-1.428, 2.581e-3
-1.427, 2.525e-3
-1.426, 2.470e-3
-1.425, 2.423e-3
-1.424, 2.377e-3
-1.423, 2.337e-3
-1.422, 2.294e-3
-1.421, 2.257e-3
-1.420, 2.211e-3
-1.419, 2.164e-3
-1.418, 2.115e-3
-1.417, 2.066e-3
-1.416, 2.010e-3
-1.415, 1.961e-3
-1.414, 1.915e-3
-1.413, 1.869e-3
-1.412, 1.828e-3
-1.411, 1.795e-3
-1.410, 1.761e-3
-1.409, 1.730e-3
-1.408, 1.696e-3
-1.407, 1.662e-3
-1.406, 1.622e-3
-1.405, 1.582e-3
-1.404, 1.539e-3
-1.403, 1.495e-3
-1.402, 1.452e-3
-1.401, 1.412e-3
-1.400, 1.375e-3
-1.399, 1.341e-3
-1.398, 1.314e-3
-1.397, 1.289e-3
-1.396, 1.267e-3
-1.395, 1.240e-3
-1.394, 1.212e-3
-1.393, 1.184e-3
-1.392, 1.150e-3
-1.391, 1.116e-3
-1.390, 1.079e-3
-1.389, 1.045e-3
-1.388, 1.011e-3
-1.387, 9.806e-4
-1.386, 9.559e-4
-1.385, 9.313e-4
-1.384, 9.158e-4
-1.383, 8.943e-4
-1.382, 8.758e-4
-1.381, 8.573e-4
-1.380, 8.326e-4
-1.379, 8.079e-4
-1.378, 7.802e-4
-1.377, 7.524e-4
-1.376, 7.216e-4
-1.375, 6.939e-4
-1.374, 6.661e-4
-1.373, 6.445e-4
-1.372, 6.291e-4
-1.371, 6.168e-4
-1.370, 6.014e-4
-1.369, 5.921e-4
-1.368, 5.767e-4
-1.367, 5.582e-4
-1.366, 5.397e-4
-1.365, 5.150e-4
-1.364, 4.935e-4
-1.363, 4.688e-4
-1.362, 4.441e-4
-1.361, 4.225e-4
-1.360, 4.071e-4
-1.359, 3.948e-4
-1.358, 3.825e-4
-1.357, 3.763e-4
-1.356, 3.670e-4
-1.355, 3.578e-4
-1.354, 3.485e-4
-1.353, 3.331e-4
-1.352, 3.146e-4
-1.351, 2.931e-4
-1.350, 2.746e-4
-1.349, 2.530e-4
-1.348, 2.345e-4
-1.347, 2.221e-4
-1.346, 2.129e-4
-1.345, 2.036e-4
-1.344, 2.006e-4
-1.343, 1.975e-4
-1.342, 1.913e-4
-1.341, 1.851e-4
-1.340, 1.728e-4
-1.339, 1.605e-4
-1.338, 1.420e-4
-1.337, 1.266e-4
-1.336, 1.081e-4
-1.335, 9.265e-5
-1.334, 8.032e-5
-1.333, 7.107e-5
-1.332, 6.798e-5
-1.331, 6.490e-5
-1.330, 6.490e-5
-1.329, 6.182e-5
-1.328, 5.873e-5
-1.327, 4.949e-5
-1.326, 4.024e-5
-1.325, 2.790e-5
-1.324, 1.249e-5
-1.323, -6.010e-6
-1.322, -1.834e-5
-1.321, -3.068e-5
-1.320, -3.376e-5
-1.319, -3.684e-5
-1.318, -3.992e-5
-1.317, -3.992e-5
-1.316, -3.992e-5
-1.315, -3.992e-5
-1.314, -4.301e-5
-1.313, -4.917e-5
-1.312, -6.151e-5
-1.311, -7.384e-5
-1.310, -8.925e-5
-1.309, -1.016e-4
-1.308, -1.108e-4
-1.307, -1.170e-4
-1.306, -1.201e-4
-1.305, -1.201e-4
-1.304, -1.201e-4
-1.303, -1.170e-4
-1.302, -1.139e-4
-1.301, -1.170e-4
-1.300, -1.201e-4
-1.299, -1.293e-4
-1.298, -1.417e-4
-1.297, -1.509e-4
-1.296, -1.632e-4
-1.295, -1.725e-4
-1.294, -1.787e-4
-1.293, -1.817e-4
-1.292, -1.817e-4
-1.291, -1.787e-4
-1.290, -1.756e-4
-1.289, -1.725e-4
-1.288, -1.694e-4
-1.287, -1.725e-4
-1.286, -1.787e-4
-1.285, -1.879e-4
-1.284, -2.002e-4
-1.283, -2.095e-4
-1.282, -2.187e-4
-1.281, -2.280e-4
-1.280, -2.311e-4
-1.279, -2.280e-4
-1.278, -2.249e-4
-1.277, -2.218e-4
-1.276, -2.157e-4
-1.275, -2.157e-4
-1.274, -2.126e-4
-1.273, -2.187e-4
-1.272, -2.280e-4
-1.271, -2.342e-4
-1.270, -2.465e-4
-1.269, -2.557e-4
-1.268, -2.619e-4
-1.267, -2.681e-4
-1.266, -2.650e-4
-1.265, -2.650e-4
-1.264, -2.588e-4
-1.263, -2.527e-4
-1.262, -2.496e-4
-1.261, -2.465e-4
-1.260, -2.496e-4
-1.259, -2.557e-4
-1.258, -2.650e-4
-1.257, -2.742e-4
-1.256, -2.835e-4
-1.255, -2.897e-4
-1.254, -2.958e-4
-1.253, -2.958e-4
-1.252, -2.927e-4
-1.251, -2.866e-4
-1.250, -2.804e-4
-1.249, -2.773e-4
-1.248, -2.742e-4
-1.247, -2.742e-4
-1.246, -2.804e-4
-1.245, -2.866e-4
-1.244, -2.958e-4
-1.243, -3.051e-4
-1.242, -3.112e-4
-1.241, -3.174e-4
-1.240, -3.205e-4
-1.239, -3.174e-4
-1.238, -3.143e-4
-1.237, -3.051e-4
-1.236, -2.989e-4
-1.235, -2.958e-4
-1.234, -2.927e-4
-1.233, -2.958e-4
-1.232, -3.051e-4
-1.231, -3.112e-4
-1.230, -3.205e-4
-1.229, -3.328e-4
-1.228, -3.359e-4
-1.227, -3.390e-4
-1.226, -3.359e-4
-1.225, -3.328e-4
-1.224, -3.267e-4
-1.223, -3.205e-4
-1.222, -3.143e-4
-1.221, -3.112e-4
-1.220, -3.143e-4
-1.219, -3.174e-4
-1.218, -3.267e-4
-1.217, -3.328e-4
-1.216, -3.421e-4
-1.215, -3.482e-4
-1.214, -3.544e-4
-1.213, -3.513e-4
-1.212, -3.482e-4
-1.211, -3.421e-4
-1.210, -3.359e-4
-1.209, -3.297e-4
-1.208, -3.267e-4
-1.207, -3.267e-4
-1.206, -3.328e-4
-1.205, -3.359e-4
-1.204, -3.452e-4
-1.203, -3.544e-4
-1.202, -3.606e-4
-1.201, -3.637e-4
-1.200, -3.667e-4
-1.199, -3.637e-4
-1.198, -3.575e-4
-1.197, -3.513e-4
-1.196, -3.452e-4
-1.195, -3.390e-4
-1.194, -3.359e-4
-1.193, -3.421e-4
-1.192, -3.482e-4
-1.191, -3.544e-4
-1.190, -3.637e-4
-1.189, -3.698e-4
-1.188, -3.760e-4
-1.187, -3.791e-4
-1.186, -3.760e-4
-1.185, -3.729e-4
-1.184, -3.637e-4
-1.183, -3.575e-4
-1.182, -3.544e-4
-1.181, -3.513e-4
-1.180, -3.513e-4
-1.179, -3.544e-4
-1.178, -3.637e-4
-1.177, -3.729e-4
-1.176, -3.821e-4
-1.175, -3.852e-4
-1.174, -3.883e-4
-1.173, -3.883e-4
-1.172, -3.852e-4
-1.171, -3.791e-4
-1.170, -3.698e-4
-1.169, -3.667e-4
-1.168, -3.637e-4
-1.167, -3.606e-4
-1.166, -3.637e-4
-1.165, -3.698e-4
-1.164, -3.791e-4
-1.163, -3.883e-4
-1.162, -3.945e-4
-1.161, -4.006e-4
-1.160, -4.006e-4
-1.159, -3.976e-4
-1.158, -3.914e-4
-1.157, -3.852e-4
-1.156, -3.791e-4
-1.155, -3.760e-4
-1.154, -3.729e-4
-1.153, -3.760e-4
-1.152, -3.821e-4
-1.151, -3.883e-4
-1.150, -3.976e-4
-1.149, -4.037e-4
-1.148, -4.099e-4
-1.147, -4.130e-4
-1.146, -4.099e-4
-1.145, -4.068e-4
-1.144, -3.976e-4
-1.143, -3.914e-4
-1.142, -3.883e-4
-1.141, -3.852e-4
-1.140, -3.852e-4
-1.139, -3.914e-4
-1.138, -3.976e-4
-1.137, -4.068e-4
-1.136, -4.161e-4
-1.135, -4.222e-4
-1.134, -4.253e-4
-1.133, -4.253e-4
-1.132, -4.222e-4
-1.131, -4.161e-4
-1.130, -4.099e-4
-1.129, -4.037e-4
-1.128, -4.006e-4
-1.127, -4.006e-4
-1.126, -4.037e-4
-1.125, -4.099e-4
-1.124, -4.191e-4
-1.123, -4.284e-4
-1.122, -4.346e-4
-1.121, -4.407e-4
-1.120, -4.407e-4
-1.119, -4.376e-4
-1.118, -4.346e-4
-1.117, -4.284e-4
-1.116, -4.191e-4
-1.115, -4.161e-4
-1.114, -4.130e-4
-1.113, -4.161e-4
-1.112, -4.222e-4
-1.111, -4.315e-4
-1.110, -4.407e-4
-1.109, -4.469e-4
-1.108, -4.561e-4
-1.107, -4.592e-4
-1.106, -4.561e-4
-1.105, -4.531e-4
-1.104, -4.469e-4
-1.103, -4.407e-4
-1.102, -4.346e-4
-1.101, -4.315e-4
-1.100, -4.346e-4
-1.099, -4.376e-4
-1.098, -4.469e-4
-1.097, -4.561e-4
-1.096, -4.654e-4
-1.095, -4.746e-4
-1.094, -4.777e-4
-1.093, -4.777e-4
-1.092, -4.746e-4
-1.091, -4.685e-4
-1.090, -4.623e-4
-1.089, -4.561e-4
-1.088, -4.531e-4
-1.087, -4.561e-4
-1.086, -4.561e-4
-1.085, -4.654e-4
-1.084, -4.746e-4
-1.083, -4.839e-4
-1.082, -4.931e-4
-1.081, -4.993e-4
-1.080, -5.024e-4
-1.079, -4.993e-4
-1.078, -4.962e-4
-1.077, -4.901e-4
-1.076, -4.839e-4
-1.075, -4.808e-4
-1.074, -4.777e-4
-1.073, -4.808e-4
-1.072, -4.870e-4
-1.071, -4.962e-4
-1.070, -5.055e-4
-1.069, -5.178e-4
-1.068, -5.240e-4
-1.067, -5.301e-4
-1.066, -5.271e-4
-1.065, -5.271e-4
-1.064, -5.209e-4
-1.063, -5.147e-4
-1.062, -5.116e-4
-1.061, -5.055e-4
-1.060, -5.086e-4
-1.059, -5.147e-4
-1.058, -5.240e-4
-1.057, -5.332e-4
-1.056, -5.456e-4
-1.055, -5.517e-4
-1.054, -5.610e-4
-1.053, -5.610e-4
-1.052, -5.579e-4
-1.051, -5.548e-4
-1.050, -5.486e-4
-1.049, -5.425e-4
-1.048, -5.425e-4
-1.047, -5.425e-4
-1.046, -5.456e-4
-1.045, -5.548e-4
-1.044, -5.671e-4
-1.043, -5.764e-4
-1.042, -5.856e-4
-1.041, -5.949e-4
-1.040, -5.980e-4
-1.039, -5.980e-4
-1.038, -5.949e-4
-1.037, -5.887e-4
-1.036, -5.856e-4
-1.035, -5.826e-4
-1.034, -5.795e-4
-1.033, -5.826e-4
-1.032, -5.918e-4
-1.031, -6.011e-4
-1.030, -6.134e-4
-1.029, -6.257e-4
-1.028, -6.350e-4
-1.027, -6.411e-4
-1.026, -6.411e-4
-1.025, -6.411e-4
-1.024, -6.380e-4
-1.023, -6.319e-4
-1.022, -6.288e-4
-1.021, -6.257e-4
-1.020, -6.319e-4
-1.019, -6.380e-4
-1.018, -6.473e-4
-1.017, -6.596e-4
-1.016, -6.720e-4
-1.015, -6.843e-4
-1.014, -6.935e-4
-1.013, -6.966e-4
-1.012, -6.966e-4
-1.011, -6.935e-4
-1.010, -6.905e-4
-1.009, -6.843e-4
-1.008, -6.843e-4
-1.007, -6.843e-4
-1.006, -6.905e-4
-1.005, -7.028e-4
-1.004, -7.120e-4
-1.003, -7.275e-4
-1.002, -7.398e-4
-1.001, -7.490e-4
