Potential V vs RHE, Current mA cm-2
0.05339999999999995,0.4150762953804018
0.05239999999999995,0.3430674902172714
0.051399999999999946,0.2738881076538711
0.050399999999999945,0.22493909667854084
0.049399999999999944,0.18645894932221183
0.04839999999999994,0.15222293586547794
0.04739999999999994,0.12114172860744309
0.04639999999999994,0.09180061624824223
0.04539999999999994,0.06380347962391315
0.04439999999999994,0.03716446584745452
0.04339999999999994,0.01175766561317832
0.04239999999999994,-0.013183694603442278
0.04139999999999994,-0.037419113881430224
0.040399999999999936,-0.06110138104117093
0.039399999999999935,-0.08397726275998857
0.038399999999999934,-0.1064287310888467
0.03739999999999993,-0.1283001677847602
0.03639999999999993,-0.14882762874580185
0.03539999999999993,-0.1693409425938449
0.03439999999999993,-0.18928837192194192
0.03339999999999993,-0.2088113878600794
0.03239999999999993,-0.22833440379821693
0.03139999999999993,-0.24729153521640837
0.030399999999999927,-0.26554131098466743
0.029399999999999926,-0.2840740290128994
0.028399999999999925,-0.30175792026121234
0.027399999999999924,-0.3191588692495523
0.026399999999999924,-0.33655981823789227
0.025399999999999923,-0.35311194044631317
0.024399999999999922,-0.3698055337847206
0.02339999999999992,-0.386216184863155
0.02239999999999992,-0.4016365380316839
0.02139999999999992,-0.41748130459017235
0.020399999999999918,-0.43304312888868773
0.019399999999999917,-0.4480390686672571
0.018399999999999916,-0.463459421835786
0.017399999999999916,-0.47774800596442285
0.016399999999999915,-0.4921780612230462
0.015399999999999914,-0.5067495876116561
0.014399999999999913,-0.520472287220347
0.013399999999999912,-0.5346194002189975
0.012399999999999911,-0.5482006286977017
0.01139999999999991,-0.561781857176406
0.01039999999999991,-0.5752216145251239
0.009399999999999908,-0.5882369584838822
0.008399999999999908,-0.6012523024426406
0.007399999999999907,-0.6139847041414259
0.006399999999999906,-0.6264341635802383
0.005399999999999905,-0.6390250941490371
0.004399999999999904,-0.6514745535878493
0.003399999999999903,-0.6634995996367021
0.002399999999999902,-0.6758075879455281
0.0013999999999999013,-0.6875496917344079
0.00039999999999990044,-0.6994332666532742
-0.0006000000000001005,-0.711175370442154
-0.0016000000000001013,-0.7226345319710608
-0.0026000000000001022,-0.7340936934999676
-0.003600000000000103,-0.7452699127689013
-0.004600000000000104,-0.7563046609078485
-0.005600000000000105,-0.7676223513067688
-0.006600000000000106,-0.7782326860557566
-0.007600000000000107,-0.7892674341947039
-0.008600000000000108,-0.7998777689436917
-0.009600000000000108,-0.8104881036926795
-0.01060000000000011,-0.8210984384416673
-0.01160000000000011,-0.8317087731906551
-0.012600000000000111,-0.8427435213296024
-0.013600000000000112,-0.8532123849486036
-0.014600000000000113,-0.8626909506576994
-0.015600000000000114,-0.8728768720167276
-0.016600000000000115,-0.8826383799857964
-0.017600000000000116,-0.8923998879548651
-0.018600000000000116,-0.90272728044388
-0.019600000000000117,-0.9123473172829621
-0.020600000000000118,-0.9219673541220444
-0.02160000000000012,-0.9315873909611266
-0.02260000000000012,-0.9410659566702223
-0.02360000000000012,-0.9505445223793181
-0.024600000000000122,-0.9600230880884139
-0.025600000000000123,-0.9693601826675232
-0.026600000000000124,-0.978838748376619
-0.027600000000000124,-0.9880343718257415
-0.028600000000000125,-0.9969470530148913
-0.029600000000000126,-1.0060012053340277
-0.030600000000000127,-1.0151968287831503
-0.03160000000000013,-1.0243924522322732
-0.03260000000000013,-1.0334466045514092
-0.03360000000000013,-1.0419348723505995
-0.03460000000000002,-1.0505646112797762
-0.03560000000000002,-1.0593358213389397
-0.03660000000000002,-1.0678240891381299
-0.03760000000000002,-1.07631235693732
-0.03860000000000002,-1.0849420958664966
-0.039600000000000024,-1.0935718347956733
-0.040600000000000025,-1.101918631464877
-0.041600000000000026,-1.1101239570040942
-0.04260000000000003,-1.1186122248032844
-0.04360000000000003,-1.1269590214724883
-0.04460000000000003,-1.1350228758817187
-0.04560000000000003,-1.1433696725509228
-0.04660000000000003,-1.151292055830167
-0.04760000000000003,-1.1593559102393975
-0.04860000000000003,-1.1677027069086015
-0.04960000000000003,-1.1756250901878456
-0.050600000000000034,-1.1836889445970762
-0.051600000000000035,-1.1913283856163475
-0.052600000000000036,-1.199109297765605
-0.053600000000000037,-1.2068902099148628
-0.05460000000000004,-1.2145296509341341
-0.05560000000000004,-1.2227349764733513
-0.05660000000000004,-1.2303744174926226
-0.05760000000000004,-1.2377309162519208
-0.05860000000000004,-1.2453703572711918
-0.05960000000000004,-1.253009798290463
-0.06060000000000004,-1.2603662970497613
-0.061600000000000044,-1.268147209199019
-0.06260000000000004,-1.275220765698344
-0.06360000000000005,-1.2828602067176154
-0.06460000000000005,-1.2902167054769134
-0.06560000000000005,-1.2972902619762388
-0.06660000000000005,-1.3046467607355368
-0.06760000000000005,-1.3120032594948348
-0.06860000000000005,-1.3189353448641736
-0.06960000000000005,-1.326574785883445
-0.07060000000000005,-1.3337898135127566
-0.07160000000000005,-1.3410048411420683
-0.07260000000000005,-1.348502811031353
-0.07360000000000005,-1.3551519541407187
-0.07460000000000006,-1.3626499240300034
-0.07560000000000006,-1.3700064227893016
-0.07660000000000006,-1.3767970370286537
-0.07760000000000006,-1.3840120646579654
-0.07860000000000006,-1.3908026788973176
-0.07960000000000006,-1.3981591776566158
-0.08060000000000006,-1.405232734155941
-0.08160000000000006,-1.4120233483952929
-0.08260000000000006,-1.4189554337646317
-0.08360000000000006,-1.426028990263957
-0.08460000000000006,-1.433102546763282
-0.08560000000000006,-1.4401761032626073
-0.08660000000000007,-1.4472496597619326
-0.08760000000000007,-1.4543232162612578
-0.08860000000000007,-1.461396772760583
-0.08960000000000007,-1.4684703292599082
-0.09060000000000007,-1.4755438857592333
-0.09160000000000007,-1.4826174422585585
-0.09260000000000007,-1.4882762874580184
-0.09360000000000007,-1.4953498439573436
-0.09460000000000007,-1.502423400456669
-0.09560000000000007,-1.5094969569559942
-0.09660000000000007,-1.5165705134553193
-0.09760000000000008,-1.5236440699546445
-0.09860000000000008,-1.5307176264539697
-0.09960000000000008,-1.5377911829532949
-0.10060000000000008,-1.54486473945262
-0.10160000000000008,-1.5519382959519452
-0.10260000000000008,-1.5590118524512704
-0.10360000000000008,-1.5660854089505953
-0.10460000000000008,-1.5731589654499207
-0.10560000000000008,-1.580232521949246
-0.10660000000000008,-1.587306078448571
-0.10760000000000008,-1.5943796349478963
-0.10860000000000009,-1.6000384801473564
-0.10960000000000009,-1.6085267479465466
-0.11060000000000009,-1.6156003044458718
-0.11160000000000009,-1.6226738609451972
-0.11260000000000009,-1.6297474174445223
-0.11360000000000009,-1.6368209739438475
-0.11460000000000009,-1.643894530443173
-0.11560000000000009,-1.6523827982423631
-0.11660000000000009,-1.658041643441823
-0.1176000000000001,-1.6651151999411482
-0.1186000000000001,-1.6721887564404734
-0.1196000000000001,-1.6792623129397986
-0.1206000000000001,-1.6863358694391237
-0.1216000000000001,-1.693409425938449
-0.1226000000000001,-1.700482982437774
-0.1236000000000001,-1.7089712502369643
-0.1246000000000001,-1.7146300954364246
-0.1256000000000001,-1.7231183632356148
-0.1266000000000001,-1.7301919197349398
-0.1276000000000001,-1.7372654762342652
-0.1286000000000001,-1.7443390327335901
-0.1296000000000001,-1.7514125892329155
-0.1306000000000001,-1.7584861457322407
-0.1316000000000001,-1.7655597022315657
-0.1326000000000001,-1.772633258730891
-0.1336000000000001,-1.779706815230216
-0.1346000000000001,-1.7867803717295414
-0.1356000000000001,-1.7952686395287314
-0.1366000000000001,-1.8023421960280568
-0.1376000000000001,-1.8094157525273817
-0.1386000000000001,-1.8164893090267071
-0.1396000000000001,-1.823562865526032
-0.1406000000000001,-1.8306364220253575
-0.14160000000000011,-1.8391246898245475
-0.14260000000000012,-1.8461982463238729
-0.14360000000000012,-1.8532718028231983
-0.14460000000000012,-1.8603453593225232
-0.14560000000000012,-1.8674189158218486
-0.14660000000000012,-1.8744924723211736
-0.14760000000000012,-1.882980740120364
-0.14860000000000012,-1.890054296619689
-0.14960000000000012,-1.897127853119014
-0.15060000000000012,-1.9042014096183393
-0.15160000000000012,-1.9112749661176645
-0.15260000000000012,-1.9183485226169896
-0.15360000000000013,-1.92683679041618
-0.15460000000000013,-1.933910346915505
-0.15560000000000013,-1.9409839034148304
-0.15660000000000013,-1.9480574599141556
-0.15760000000000013,-1.9551310164134805
-0.15860000000000013,-1.9622045729128061
-0.15960000000000002,-1.9692781294121309
-0.16060000000000002,-1.9777663972113213
-0.16160000000000002,-1.9848399537106465
-0.16260000000000002,-1.9919135102099716
-0.16360000000000002,-1.9989870667092968
-0.16460000000000002,-2.0060606232086218
-0.16560000000000002,-2.014548891007812
-0.16660000000000003,-2.023037158807002
-0.16760000000000003,-2.0301107153063276
-0.16860000000000003,-2.0371842718056525
-0.16960000000000003,-2.044257828304978
-0.17060000000000003,-2.051331384804303
-0.17160000000000003,-2.0584049413036287
-0.17260000000000003,-2.0654784978029537
-0.17360000000000003,-2.072552054302279
-0.17460000000000003,-2.079625610801604
-0.17560000000000003,-2.0866991673009294
-0.17660000000000003,-2.0937727238002544
-0.17760000000000004,-2.1008462802995793
-0.17860000000000004,-2.1079198367989047
-0.17960000000000004,-2.1149933932982297
-0.18060000000000004,-2.122066949797555
-0.18160000000000004,-2.12914050629688
-0.18260000000000004,-2.136214062796206
-0.18360000000000004,-2.1432876192955304
-0.18460000000000004,-2.150361175794856
-0.18560000000000004,-2.1574347322941807
-0.18660000000000004,-2.1645082887935065
-0.18760000000000004,-2.171581845292831
-0.18860000000000005,-2.178655401792157
-0.18960000000000005,-2.1857289582914814
-0.19060000000000005,-2.192802514790807
-0.19160000000000005,-2.199876071290132
-0.19260000000000005,-2.205534916489592
-0.19360000000000005,-2.2126084729889177
-0.19460000000000005,-2.2196820294882422
-0.19560000000000005,-2.226755585987568
-0.19660000000000005,-2.2338291424868926
-0.19760000000000005,-2.2394879876863527
-0.19860000000000005,-2.2465615441856785
-0.19960000000000006,-2.253635100685003
-0.20060000000000006,-2.2592939458844636
-0.20160000000000006,-2.2663675023837886
-0.20260000000000006,-2.272026347583249
-0.20360000000000006,-2.279099904082574
-0.20460000000000006,-2.286173460581899
-0.20560000000000006,-2.2918323057813597
-0.20660000000000006,-2.2974911509808194
-0.20760000000000006,-2.3045647074801447
-0.20860000000000006,-2.310223552679605
-0.20960000000000006,-2.3158823978790646
-0.21060000000000006,-2.3229559543783904
-0.21160000000000007,-2.32861479957785
-0.21260000000000007,-2.3342736447773107
-0.21360000000000007,-2.3413472012766356
-0.21460000000000007,-2.347006046476096
-0.21560000000000007,-2.352664891675556
-0.21660000000000007,-2.358323736875016
-0.21760000000000007,-2.3653972933743415
-0.21860000000000007,-2.3710561385738016
-0.21960000000000007,-2.3767149837732613
-0.22060000000000007,-2.382373828972722
-0.22160000000000007,-2.388032674172182
-0.22260000000000008,-2.392276808071777
-0.22360000000000008,-2.3979356532712375
-0.22460000000000008,-2.4035944984706976
-0.22560000000000008,-2.4092533436701573
-0.22660000000000008,-2.4134974775697526
-0.22760000000000008,-2.4191563227692128
-0.22860000000000008,-2.4234004566688077
-0.22960000000000008,-2.4290593018682682
-0.23060000000000008,-2.4347181470677284
-0.23160000000000008,-2.438962280967323
-0.23260000000000008,-2.4446211261667834
-0.23360000000000009,-2.4488652600663787
-0.2346000000000001,-2.4531093939659736
-0.2356000000000001,-2.4587682391654337
-0.2366000000000001,-2.463012373065029
-0.2376000000000001,-2.467256506964624
-0.2386000000000001,-2.4715006408642193
-0.2396000000000001,-2.4771594860636794
-0.2406000000000001,-2.4814036199632743
-0.2416000000000001,-2.485647753862869
-0.2426000000000001,-2.4898918877624645
-0.2436000000000001,-2.49413602166206
-0.2446000000000001,-2.49696544426179
-0.2456000000000001,-2.5012095781613843
-0.2466000000000001,-2.50545371206098
-0.2476000000000001,-2.509697845960575
-0.2486000000000001,-2.5139419798601703
-0.2496000000000001,-2.5167714024599
-0.2506000000000001,-2.5210155363594953
-0.2516000000000001,-2.5238449589592253
-0.2526000000000001,-2.5280890928588207
-0.2536000000000001,-2.5309185154585507
-0.2546000000000001,-2.5351626493581456
-0.2556000000000001,-2.5379920719578757
-0.2566000000000001,-2.542236205857471
-0.2576000000000001,-2.545065628457201
-0.2586000000000001,-2.5478950510569307
-0.2596000000000001,-2.550724473656661
-0.2606000000000001,-2.554968607556256
-0.2616000000000001,-2.557798030155986
-0.2626000000000001,-2.5592127414558514
-0.2636000000000001,-2.5634568753554463
-0.2646000000000001,-2.5662862979551764
-0.2656000000000001,-2.5691157205549064
-0.2666000000000001,-2.5719451431546365
-0.2676000000000001,-2.5733598544545018
-0.2686000000000001,-2.576189277054232
-0.2696000000000001,-2.579018699653962
-0.2706000000000001,-2.581848122253692
-0.2716000000000001,-2.584677544853422
-0.2726000000000001,-2.586092256153287
-0.2736000000000001,-2.588921678753017
-0.2746000000000001,-2.591751101352747
-0.2756000000000001,-2.5931658126526123
-0.2766000000000001,-2.5945805239524775
-0.2776000000000001,-2.597409946552207
-0.2786000000000001,-2.5988246578520724
-0.2796000000000001,-2.6016540804518025
-0.2806000000000001,-2.6030687917516673
-0.28160000000000013,-2.6044835030515325
-0.28260000000000013,-2.6073129256512626
-0.28360000000000013,-2.6087276369511274
-0.2846,-2.610142348250993
-0.2856,-2.6129717708507227
-0.2866,-2.6143864821505876
-0.2876,-2.615801193450453
-0.2886,-2.6172159047503176
-0.2896,-2.618630616050183
-0.2906,-2.6200453273500477
-0.2916,-2.621460038649913
-0.2926,-2.6228747499497778
-0.2936,-2.624289461249643
-0.29460000000000003,-2.6257041725495083
-0.29560000000000003,-2.6257041725495083
-0.29660000000000003,-2.627118883849373
-0.29760000000000003,-2.6285335951492383
-0.29860000000000003,-2.6285335951492383
-0.29960000000000003,-2.629948306449103
-0.30060000000000003,-2.631363017748968
-0.30160000000000003,-2.631363017748968
-0.30260000000000004,-2.6327777290488332
-0.30360000000000004,-2.6327777290488332
-0.30460000000000004,-2.634192440348698
-0.30560000000000004,-2.634192440348698
-0.30660000000000004,-2.6356071516485633
-0.30760000000000004,-2.6356071516485633
-0.30860000000000004,-2.637021862948428
-0.30960000000000004,-2.637021862948428
-0.31060000000000004,-2.637021862948428
-0.31160000000000004,-2.637021862948428
-0.31260000000000004,-2.6384365742482934
-0.31360000000000005,-2.6384365742482934
-0.31460000000000005,-2.6384365742482934
-0.31560000000000005,-2.6384365742482934
-0.31660000000000005,-2.6384365742482934
-0.31760000000000005,-2.6384365742482934
-0.31860000000000005,-2.6384365742482934
-0.31960000000000005,-2.6384365742482934
-0.32060000000000005,-2.639851285548158
-0.32160000000000005,-2.6384365742482934
-0.32260000000000005,-2.6384365742482934
-0.32360000000000005,-2.637021862948428
-0.32460000000000006,-2.637021862948428
-0.32560000000000006,-2.637021862948428
-0.32660000000000006,-2.6356071516485633
-0.32760000000000006,-2.6356071516485633
-0.32860000000000006,-2.634192440348698
-0.32960000000000006,-2.634192440348698
-0.33060000000000006,-2.6327777290488332
-0.33160000000000006,-2.6327777290488332
-0.33260000000000006,-2.631363017748968
-0.33360000000000006,-2.631363017748968
-0.33460000000000006,-2.629948306449103
-0.33560000000000006,-2.6285335951492383
-0.33660000000000007,-2.627118883849373
-0.33760000000000007,-2.6257041725495083
-0.33860000000000007,-2.6257041725495083
-0.33960000000000007,-2.624289461249643
-0.34060000000000007,-2.6228747499497778
-0.34160000000000007,-2.621460038649913
-0.34260000000000007,-2.6200453273500477
-0.34360000000000007,-2.618630616050183
-0.3446000000000001,-2.6172159047503176
-0.3456000000000001,-2.615801193450453
-0.3466000000000001,-2.6143864821505876
-0.34759999999999996,-2.6129717708507227
-0.3486000000000001,-2.610142348250993
-0.34959999999999997,-2.6087276369511274
-0.3506000000000001,-2.6073129256512626
-0.35159999999999997,-2.6044835030515325
-0.3526000000000001,-2.6030687917516673
-0.35359999999999997,-2.6016540804518025
-0.3546000000000001,-2.600239369151937
-0.35559999999999997,-2.597409946552207
-0.3566000000000001,-2.5959952352523423
-0.3576,-2.5931658126526123
-0.3586000000000001,-2.591751101352747
-0.3596,-2.588921678753017
-0.3606000000000001,-2.587506967453152
-0.3616,-2.584677544853422
-0.3626000000000001,-2.583262833553557
-0.3636,-2.5804334109538267
-0.3646000000000001,-2.579018699653962
-0.3656,-2.576189277054232
-0.3666000000000001,-2.5733598544545018
-0.3676,-2.5719451431546365
-0.3686000000000001,-2.5691157205549064
-0.3696,-2.5662862979551764
-0.3706000000000001,-2.5648715866553116
-0.3716,-2.5634568753554463
-0.3726000000000001,-2.5606274527557162
-0.3736,-2.557798030155986
-0.3746000000000001,-2.554968607556256
-0.3756,-2.552139184956526
-0.3766000000000001,-2.550724473656661
-0.3776,-2.5478950510569307
-0.3786000000000001,-2.546480339757066
-0.3796,-2.543650917157336
-0.3806000000000001,-2.542236205857471
-0.3816,-2.539406783257741
-0.3826000000000001,-2.536577360658011
-0.3836,-2.5351626493581456
-0.3846000000000001,-2.532333226758415
-0.3856,-2.5309185154585507
-0.3866000000000001,-2.5280890928588207
-0.3876,-2.5266743815589554
-0.3886000000000001,-2.5238449589592253
-0.3896,-2.5224302476593605
-0.3906000000000001,-2.5210155363594953
-0.3916,-2.518186113759765
-0.3926000000000001,-2.5167714024599
-0.3936,-2.515356691160035
-0.3946000000000001,-2.5139419798601703
-0.3956,-2.512527268560305
-0.3966000000000001,-2.5111125572604402
-0.3976,-2.509697845960575
-0.3986000000000001,-2.50828313466071
-0.3996,-2.506868423360845
-0.4006000000000001,-2.506868423360845
-0.4016,-2.50545371206098
-0.4026000000000001,-2.504039000761115
-0.4036,-2.504039000761115
-0.4046000000000001,-2.50262428946125
-0.4056,-2.50262428946125
-0.40660000000000013,-2.50262428946125
-0.4076,-2.50262428946125
-0.40860000000000013,-2.5012095781613843
-0.4096,-2.5012095781613843
-0.41060000000000013,-2.50262428946125
-0.4116,-2.50262428946125
-0.41260000000000013,-2.50262428946125
-0.4136,-2.504039000761115
-0.41460000000000014,-2.504039000761115
-0.4156,-2.50545371206098
-0.41660000000000014,-2.506868423360845
-0.4176,-2.506868423360845
-0.41860000000000014,-2.509697845960575
-0.41960000000000003,-2.5111125572604402
-0.42060000000000014,-2.512527268560305
-0.42160000000000003,-2.515356691160035
-0.42260000000000014,-2.518186113759765
-0.42360000000000003,-2.5210155363594953
-0.42460000000000014,-2.5238449589592253
-0.42560000000000003,-2.5266743815589554
-0.42660000000000015,-2.5295038041586855
-0.42760000000000004,-2.532333226758415
-0.42860000000000015,-2.536577360658011
-0.42960000000000004,-2.5408214945576058
-0.43060000000000015,-2.543650917157336
-0.43160000000000004,-2.549309762356796
-0.43260000000000015,-2.5535538962563913
-0.43360000000000004,-2.557798030155986
-0.43460000000000015,-2.5634568753554463
-0.43560000000000004,-2.5691157205549064
-0.43660000000000015,-2.5747745657543666
-0.43760000000000004,-2.5804334109538267
-0.43860000000000016,-2.587506967453152
-0.43960000000000005,-2.5931658126526123
-0.44060000000000016,-2.600239369151937
-0.44160000000000005,-2.6073129256512626
-0.44260000000000016,-2.6143864821505876
-0.44360000000000005,-2.6228747499497778
-0.44460000000000016,-2.629948306449103
-0.44560000000000005,-2.6384365742482934
-0.44660000000000016,-2.6469248420474836
-0.44760000000000005,-2.655413109846674
-0.44860000000000017,-2.6653160889457292
-0.44960000000000006,-2.6752190680447843
-0.45060000000000017,-2.6851220471438397
-0.45160000000000006,-2.6950250262428948
