Dec. 21, 2024   16:13:12
Linear Sweep Voltammetry
File: c:/users/guazh/data/banditlqround7_x0exp667_r5/2024-12-16-exp722\regeneratedgce-2024-12-21t16_10_08-lsvinkoh\regeneratedgce_lsv_50mvs_efin_-1700mv.bin
Data Source:  Experiment
Instrument Model:  CHI760E
Header: LSV ran at 50 mVs with Efin at -1700mV
Note: 

Init E (V) = -0.6
Final E (V) = -1.7
Scan Rate (V/s) = 0.05
Sample Interval (V) = 0.001
Quiet Time (sec) = 2
Sensitivity (A/V) = 1e-4
Comp R (ohm) = 1.5

Results:

Channel 1:

Potential/V, Current/A

-0.600, 1.052e-6
-0.601, 1.156e-6
-0.602, 1.185e-6
-0.603, 1.201e-6
-0.604, 1.213e-6
-0.605, 1.223e-6
-0.606, 1.230e-6
-0.607, 1.237e-6
-0.608, 1.242e-6
-0.609, 1.252e-6
-0.610, 1.258e-6
-0.611, 1.262e-6
-0.612, 1.268e-6
-0.613, 1.272e-6
-0.614, 1.281e-6
-0.615, 1.286e-6
-0.616, 1.288e-6
-0.617, 1.291e-6
-0.618, 1.296e-6
-0.619, 1.304e-6
-0.620, 1.308e-6
-0.621, 1.310e-6
-0.622, 1.312e-6
-0.623, 1.316e-6
-0.624, 1.323e-6
-0.625, 1.327e-6
-0.626, 1.328e-6
-0.627, 1.332e-6
-0.628, 1.337e-6
-0.629, 1.341e-6
-0.630, 1.346e-6
-0.631, 1.347e-6
-0.632, 1.350e-6
-0.633, 1.353e-6
-0.634, 1.359e-6
-0.635, 1.362e-6
-0.636, 1.363e-6
-0.637, 1.365e-6
-0.638, 1.369e-6
-0.639, 1.375e-6
-0.640, 1.379e-6
-0.641, 1.379e-6
-0.642, 1.380e-6
-0.643, 1.385e-6
-0.644, 1.392e-6
-0.645, 1.394e-6
-0.646, 1.394e-6
-0.647, 1.397e-6
-0.648, 1.401e-6
-0.649, 1.407e-6
-0.650, 1.409e-6
-0.651, 1.409e-6
-0.652, 1.411e-6
-0.653, 1.415e-6
-0.654, 1.421e-6
-0.655, 1.423e-6
-0.656, 1.424e-6
-0.657, 1.427e-6
-0.658, 1.430e-6
-0.659, 1.435e-6
-0.660, 1.437e-6
-0.661, 1.438e-6
-0.662, 1.441e-6
-0.663, 1.445e-6
-0.664, 1.451e-6
-0.665, 1.455e-6
-0.666, 1.456e-6
-0.667, 1.458e-6
-0.668, 1.460e-6
-0.669, 1.465e-6
-0.670, 1.469e-6
-0.671, 1.469e-6
-0.672, 1.473e-6
-0.673, 1.477e-6
-0.674, 1.480e-6
-0.675, 1.483e-6
-0.676, 1.484e-6
-0.677, 1.485e-6
-0.678, 1.490e-6
-0.679, 1.497e-6
-0.680, 1.500e-6
-0.681, 1.501e-6
-0.682, 1.503e-6
-0.683, 1.507e-6
-0.684, 1.513e-6
-0.685, 1.515e-6
-0.686, 1.518e-6
-0.687, 1.520e-6
-0.688, 1.523e-6
-0.689, 1.529e-6
-0.690, 1.531e-6
-0.691, 1.532e-6
-0.692, 1.534e-6
-0.693, 1.537e-6
-0.694, 1.543e-6
-0.695, 1.548e-6
-0.696, 1.549e-6
-0.697, 1.552e-6
-0.698, 1.556e-6
-0.699, 1.562e-6
-0.700, 1.563e-6
-0.701, 1.564e-6
-0.702, 1.566e-6
-0.703, 1.570e-6
-0.704, 1.576e-6
-0.705, 1.581e-6
-0.706, 1.580e-6
-0.707, 1.583e-6
-0.708, 1.587e-6
-0.709, 1.591e-6
-0.710, 1.596e-6
-0.711, 1.595e-6
-0.712, 1.597e-6
-0.713, 1.601e-6
-0.714, 1.605e-6
-0.715, 1.608e-6
-0.716, 1.609e-6
-0.717, 1.610e-6
-0.718, 1.616e-6
-0.719, 1.620e-6
-0.720, 1.622e-6
-0.721, 1.622e-6
-0.722, 1.621e-6
-0.723, 1.626e-6
-0.724, 1.631e-6
-0.725, 1.632e-6
-0.726, 1.634e-6
-0.727, 1.635e-6
-0.728, 1.638e-6
-0.729, 1.644e-6
-0.730, 1.646e-6
-0.731, 1.646e-6
-0.732, 1.649e-6
-0.733, 1.652e-6
-0.734, 1.658e-6
-0.735, 1.661e-6
-0.736, 1.661e-6
-0.737, 1.664e-6
-0.738, 1.665e-6
-0.739, 1.671e-6
-0.740, 1.673e-6
-0.741, 1.673e-6
-0.742, 1.676e-6
-0.743, 1.680e-6
-0.744, 1.683e-6
-0.745, 1.686e-6
-0.746, 1.686e-6
-0.747, 1.687e-6
-0.748, 1.692e-6
-0.749, 1.698e-6
-0.750, 1.699e-6
-0.751, 1.700e-6
-0.752, 1.702e-6
-0.753, 1.706e-6
-0.754, 1.709e-6
-0.755, 1.713e-6
-0.756, 1.712e-6
-0.757, 1.713e-6
-0.758, 1.719e-6
-0.759, 1.724e-6
-0.760, 1.725e-6
-0.761, 1.725e-6
-0.762, 1.727e-6
-0.763, 1.732e-6
-0.764, 1.736e-6
-0.765, 1.738e-6
-0.766, 1.739e-6
-0.767, 1.740e-6
-0.768, 1.746e-6
-0.769, 1.751e-6
-0.770, 1.752e-6
-0.771, 1.755e-6
-0.772, 1.758e-6
-0.773, 1.759e-6
-0.774, 1.765e-6
-0.775, 1.766e-6
-0.776, 1.767e-6
-0.777, 1.769e-6
-0.778, 1.771e-6
-0.779, 1.777e-6
-0.780, 1.780e-6
-0.781, 1.782e-6
-0.782, 1.784e-6
-0.783, 1.787e-6
-0.784, 1.793e-6
-0.785, 1.795e-6
-0.786, 1.795e-6
-0.787, 1.798e-6
-0.788, 1.801e-6
-0.789, 1.808e-6
-0.790, 1.810e-6
-0.791, 1.810e-6
-0.792, 1.812e-6
-0.793, 1.818e-6
-0.794, 1.825e-6
-0.795, 1.826e-6
-0.796, 1.828e-6
-0.797, 1.828e-6
-0.798, 1.833e-6
-0.799, 1.838e-6
-0.800, 1.839e-6
-0.801, 1.842e-6
-0.802, 1.842e-6
-0.803, 1.847e-6
-0.804, 1.854e-6
-0.805, 1.856e-6
-0.806, 1.858e-6
-0.807, 1.860e-6
-0.808, 1.864e-6
-0.809, 1.870e-6
-0.810, 1.870e-6
-0.811, 1.873e-6
-0.812, 1.875e-6
-0.813, 1.881e-6
-0.814, 1.888e-6
-0.815, 1.891e-6
-0.816, 1.891e-6
-0.817, 1.893e-6
-0.818, 1.896e-6
-0.819, 1.906e-6
-0.820, 1.910e-6
-0.821, 1.908e-6
-0.822, 1.912e-6
-0.823, 1.915e-6
-0.824, 1.920e-6
-0.825, 1.925e-6
-0.826, 1.924e-6
-0.827, 1.927e-6
-0.828, 1.931e-6
-0.829, 1.936e-6
-0.830, 1.939e-6
-0.831, 1.940e-6
-0.832, 1.944e-6
-0.833, 1.951e-6
-0.834, 1.955e-6
-0.835, 1.958e-6
-0.836, 1.961e-6
-0.837, 1.964e-6
-0.838, 1.971e-6
-0.839, 1.978e-6
-0.840, 1.980e-6
-0.841, 1.983e-6
-0.842, 1.985e-6
-0.843, 1.991e-6
-0.844, 1.997e-6
-0.845, 2.000e-6
-0.846, 2.004e-6
-0.847, 2.006e-6
-0.848, 2.010e-6
-0.849, 2.017e-6
-0.850, 2.020e-6
-0.851, 2.024e-6
-0.852, 2.028e-6
-0.853, 2.031e-6
-0.854, 2.037e-6
-0.855, 2.040e-6
-0.856, 2.043e-6
-0.857, 2.045e-6
-0.858, 2.052e-6
-0.859, 2.059e-6
-0.860, 2.061e-6
-0.861, 2.061e-6
-0.862, 2.066e-6
-0.863, 2.072e-6
-0.864, 2.078e-6
-0.865, 2.082e-6
-0.866, 2.082e-6
-0.867, 2.084e-6
-0.868, 2.090e-6
-0.869, 2.095e-6
-0.870, 2.100e-6
-0.871, 2.104e-6
-0.872, 2.106e-6
-0.873, 2.111e-6
-0.874, 2.116e-6
-0.875, 2.120e-6
-0.876, 2.123e-6
-0.877, 2.126e-6
-0.878, 2.131e-6
-0.879, 2.138e-6
-0.880, 2.142e-6
-0.881, 2.143e-6
-0.882, 2.145e-6
-0.883, 2.152e-6
-0.884, 2.158e-6
-0.885, 2.159e-6
-0.886, 2.163e-6
-0.887, 2.166e-6
-0.888, 2.170e-6
-0.889, 2.178e-6
-0.890, 2.179e-6
-0.891, 2.183e-6
-0.892, 2.186e-6
-0.893, 2.192e-6
-0.894, 2.196e-6
-0.895, 2.198e-6
-0.896, 2.200e-6
-0.897, 2.204e-6
-0.898, 2.207e-6
-0.899, 2.214e-6
-0.900, 2.219e-6
-0.901, 2.220e-6
-0.902, 2.225e-6
-0.903, 2.229e-6
-0.904, 2.235e-6
-0.905, 2.238e-6
-0.906, 2.240e-6
-0.907, 2.244e-6
-0.908, 2.250e-6
-0.909, 2.255e-6
-0.910, 2.258e-6
-0.911, 2.257e-6
-0.912, 2.261e-6
-0.913, 2.267e-6
-0.914, 2.273e-6
-0.915, 2.280e-6
-0.916, 2.282e-6
-0.917, 2.284e-6
-0.918, 2.290e-6
-0.919, 2.295e-6
-0.920, 2.298e-6
-0.921, 2.300e-6
-0.922, 2.303e-6
-0.923, 2.308e-6
-0.924, 2.317e-6
-0.925, 2.320e-6
-0.926, 2.322e-6
-0.927, 2.325e-6
-0.928, 2.332e-6
-0.929, 2.340e-6
-0.930, 2.342e-6
-0.931, 2.343e-6
-0.932, 2.346e-6
-0.933, 2.351e-6
-0.934, 2.359e-6
-0.935, 2.361e-6
-0.936, 2.366e-6
-0.937, 2.368e-6
-0.938, 2.374e-6
-0.939, 2.381e-6
-0.940, 2.383e-6
-0.941, 2.384e-6
-0.942, 2.388e-6
-0.943, 2.394e-6
-0.944, 2.402e-6
-0.945, 2.406e-6
-0.946, 2.408e-6
-0.947, 2.412e-6
-0.948, 2.419e-6
-0.949, 2.426e-6
-0.950, 2.429e-6
-0.951, 2.431e-6
-0.952, 2.434e-6
-0.953, 2.441e-6
-0.954, 2.446e-6
-0.955, 2.451e-6
-0.956, 2.452e-6
-0.957, 2.455e-6
-0.958, 2.461e-6
-0.959, 2.466e-6
-0.960, 2.469e-6
-0.961, 2.472e-6
-0.962, 2.474e-6
-0.963, 2.480e-6
-0.964, 2.489e-6
-0.965, 2.493e-6
-0.966, 2.495e-6
-0.967, 2.499e-6
-0.968, 2.502e-6
-0.969, 2.511e-6
-0.970, 2.514e-6
-0.971, 2.517e-6
-0.972, 2.520e-6
-0.973, 2.527e-6
-0.974, 2.533e-6
-0.975, 2.536e-6
-0.976, 2.539e-6
-0.977, 2.543e-6
-0.978, 2.549e-6
-0.979, 2.557e-6
-0.980, 2.562e-6
-0.981, 2.562e-6
-0.982, 2.567e-6
-0.983, 2.572e-6
-0.984, 2.580e-6
-0.985, 2.585e-6
-0.986, 2.588e-6
-0.987, 2.593e-6
-0.988, 2.598e-6
-0.989, 2.605e-6
-0.990, 2.610e-6
-0.991, 2.612e-6
-0.992, 2.617e-6
-0.993, 2.625e-6
-0.994, 2.631e-6
-0.995, 2.636e-6
-0.996, 2.639e-6
-0.997, 2.642e-6
-0.998, 2.649e-6
-0.999, 2.656e-6
-1.000, 2.660e-6
-1.001, 2.663e-6
-1.002, 2.666e-6
-1.003, 2.673e-6
-1.004, 2.681e-6
-1.005, 2.685e-6
-1.006, 2.689e-6
-1.007, 2.693e-6
-1.008, 2.698e-6
-1.009, 2.707e-6
-1.010, 2.709e-6
-1.011, 2.713e-6
-1.012, 2.716e-6
-1.013, 2.724e-6
-1.014, 2.733e-6
-1.015, 2.737e-6
-1.016, 2.741e-6
-1.017, 2.746e-6
-1.018, 2.752e-6
-1.019, 2.760e-6
-1.020, 2.765e-6
-1.021, 2.768e-6
-1.022, 2.773e-6
-1.023, 2.780e-6
-1.024, 2.790e-6
-1.025, 2.794e-6
-1.026, 2.796e-6
-1.027, 2.803e-6
-1.028, 2.812e-6
-1.029, 2.819e-6
-1.030, 2.825e-6
-1.031, 2.827e-6
-1.032, 2.833e-6
-1.033, 2.842e-6
-1.034, 2.849e-6
-1.035, 2.855e-6
-1.036, 2.857e-6
-1.037, 2.862e-6
-1.038, 2.871e-6
-1.039, 2.878e-6
-1.040, 2.882e-6
-1.041, 2.887e-6
-1.042, 2.892e-6
-1.043, 2.900e-6
-1.044, 2.910e-6
-1.045, 2.914e-6
-1.046, 2.918e-6
-1.047, 2.925e-6
-1.048, 2.933e-6
-1.049, 2.942e-6
-1.050, 2.945e-6
-1.051, 2.947e-6
-1.052, 2.953e-6
-1.053, 2.960e-6
-1.054, 2.970e-6
-1.055, 2.975e-6
-1.056, 2.981e-6
-1.057, 2.987e-6
-1.058, 2.993e-6
-1.059, 3.002e-6
-1.060, 3.007e-6
-1.061, 3.009e-6
-1.062, 3.016e-6
-1.063, 3.024e-6
-1.064, 3.035e-6
-1.065, 3.041e-6
-1.066, 3.046e-6
-1.067, 3.051e-6
-1.068, 3.058e-6
-1.069, 3.066e-6
-1.070, 3.071e-6
-1.071, 3.075e-6
-1.072, 3.080e-6
-1.073, 3.090e-6
-1.074, 3.097e-6
-1.075, 3.105e-6
-1.076, 3.110e-6
-1.077, 3.114e-6
-1.078, 3.122e-6
-1.079, 3.129e-6
-1.080, 3.136e-6
-1.081, 3.140e-6
-1.082, 3.145e-6
-1.083, 3.153e-6
-1.084, 3.163e-6
-1.085, 3.166e-6
-1.086, 3.169e-6
-1.087, 3.175e-6
-1.088, 3.187e-6
-1.089, 3.197e-6
-1.090, 3.200e-6
-1.091, 3.204e-6
-1.092, 3.209e-6
-1.093, 3.217e-6
-1.094, 3.228e-6
-1.095, 3.233e-6
-1.096, 3.236e-6
-1.097, 3.241e-6
-1.098, 3.249e-6
-1.099, 3.259e-6
-1.100, 3.264e-6
-1.101, 3.267e-6
-1.102, 3.273e-6
-1.103, 3.281e-6
-1.104, 3.290e-6
-1.105, 3.296e-6
-1.106, 3.300e-6
-1.107, 3.307e-6
-1.108, 3.314e-6
-1.109, 3.323e-6
-1.110, 3.329e-6
-1.111, 3.334e-6
-1.112, 3.338e-6
-1.113, 3.349e-6
-1.114, 3.359e-6
-1.115, 3.365e-6
-1.116, 3.367e-6
-1.117, 3.372e-6
-1.118, 3.379e-6
-1.119, 3.389e-6
-1.120, 3.395e-6
-1.121, 3.401e-6
-1.122, 3.408e-6
-1.123, 3.419e-6
-1.124, 3.430e-6
-1.125, 3.432e-6
-1.126, 3.436e-6
-1.127, 3.440e-6
-1.128, 3.448e-6
-1.129, 3.458e-6
-1.130, 3.463e-6
-1.131, 3.468e-6
-1.132, 3.474e-6
-1.133, 3.483e-6
-1.134, 3.491e-6
-1.135, 3.495e-6
-1.136, 3.498e-6
-1.137, 3.502e-6
-1.138, 3.510e-6
-1.139, 3.522e-6
-1.140, 3.527e-6
-1.141, 3.531e-6
-1.142, 3.537e-6
-1.143, 3.544e-6
-1.144, 3.552e-6
-1.145, 3.557e-6
-1.146, 3.561e-6
-1.147, 3.566e-6
-1.148, 3.573e-6
-1.149, 3.581e-6
-1.150, 3.588e-6
-1.151, 3.591e-6
-1.152, 3.600e-6
-1.153, 3.609e-6
-1.154, 3.619e-6
-1.155, 3.623e-6
-1.156, 3.626e-6
-1.157, 3.631e-6
-1.158, 3.642e-6
-1.159, 3.650e-6
-1.160, 3.655e-6
-1.161, 3.660e-6
-1.162, 3.663e-6
-1.163, 3.671e-6
-1.164, 3.682e-6
-1.165, 3.687e-6
-1.166, 3.693e-6
-1.167, 3.698e-6
-1.168, 3.706e-6
-1.169, 3.716e-6
-1.170, 3.717e-6
-1.171, 3.724e-6
-1.172, 3.731e-6
-1.173, 3.739e-6
-1.174, 3.749e-6
-1.175, 3.754e-6
-1.176, 3.758e-6
-1.177, 3.764e-6
-1.178, 3.775e-6
-1.179, 3.784e-6
-1.180, 3.789e-6
-1.181, 3.792e-6
-1.182, 3.799e-6
-1.183, 3.808e-6
-1.184, 3.816e-6
-1.185, 3.821e-6
-1.186, 3.823e-6
-1.187, 3.829e-6
-1.188, 3.839e-6
-1.189, 3.848e-6
-1.190, 3.856e-6
-1.191, 3.860e-6
-1.192, 3.866e-6
-1.193, 3.876e-6
-1.194, 3.885e-6
-1.195, 3.891e-6
-1.196, 3.896e-6
-1.197, 3.899e-6
-1.198, 3.908e-6
-1.199, 3.918e-6
-1.200, 3.924e-6
-1.201, 3.929e-6
-1.202, 3.934e-6
-1.203, 3.942e-6
-1.204, 3.952e-6
-1.205, 3.955e-6
-1.206, 3.961e-6
-1.207, 3.968e-6
-1.208, 3.976e-6
-1.209, 3.985e-6
-1.210, 3.990e-6
-1.211, 3.993e-6
-1.212, 3.999e-6
-1.213, 4.008e-6
-1.214, 4.019e-6
-1.215, 4.024e-6
-1.216, 4.027e-6
-1.217, 4.031e-6
-1.218, 4.037e-6
-1.219, 4.048e-6
-1.220, 4.053e-6
-1.221, 4.056e-6
-1.222, 4.062e-6
-1.223, 4.070e-6
-1.224, 4.080e-6
-1.225, 4.084e-6
-1.226, 4.086e-6
-1.227, 4.091e-6
-1.228, 4.099e-6
-1.229, 4.118e-6
-1.230, 4.118e-6
-1.231, 4.121e-6
-1.232, 4.125e-6
-1.233, 4.134e-6
-1.234, 4.140e-6
-1.235, 4.146e-6
-1.236, 4.148e-6
-1.237, 4.153e-6
-1.238, 4.161e-6
-1.239, 4.168e-6
-1.240, 4.169e-6
-1.241, 4.173e-6
-1.242, 4.176e-6
-1.243, 4.186e-6
-1.244, 4.197e-6
-1.245, 4.198e-6
-1.246, 4.202e-6
-1.247, 4.206e-6
-1.248, 4.212e-6
-1.249, 4.222e-6
-1.250, 4.221e-6
-1.251, 4.225e-6
-1.252, 4.226e-6
-1.253, 4.231e-6
-1.254, 4.240e-6
-1.255, 4.243e-6
-1.256, 4.245e-6
-1.257, 4.248e-6
-1.258, 4.253e-6
-1.259, 4.262e-6
-1.260, 4.263e-6
-1.261, 4.265e-6
-1.262, 4.268e-6
-1.263, 4.273e-6
-1.264, 4.281e-6
-1.265, 4.284e-6
-1.266, 4.282e-6
-1.267, 4.289e-6
-1.268, 4.297e-6
-1.269, 4.302e-6
-1.270, 4.306e-6
-1.271, 4.306e-6
-1.272, 4.310e-6
-1.273, 4.318e-6
-1.274, 4.323e-6
-1.275, 4.325e-6
-1.276, 4.326e-6
-1.277, 4.328e-6
-1.278, 4.335e-6
-1.279, 4.340e-6
-1.280, 4.345e-6
-1.281, 4.345e-6
-1.282, 4.345e-6
-1.283, 4.351e-6
-1.284, 4.357e-6
-1.285, 4.357e-6
-1.286, 4.359e-6
-1.287, 4.360e-6
-1.288, 4.366e-6
-1.289, 4.372e-6
-1.290, 4.372e-6
-1.291, 4.374e-6
-1.292, 4.373e-6
-1.293, 4.379e-6
-1.294, 4.386e-6
-1.295, 4.387e-6
-1.296, 4.388e-6
-1.297, 4.389e-6
-1.298, 4.394e-6
-1.299, 4.401e-6
-1.300, 4.403e-6
-1.301, 4.401e-6
-1.302, 4.404e-6
-1.303, 4.409e-6
-1.304, 4.415e-6
-1.305, 4.415e-6
-1.306, 4.415e-6
-1.307, 4.419e-6
-1.308, 4.425e-6
-1.309, 4.430e-6
-1.310, 4.432e-6
-1.311, 4.430e-6
-1.312, 4.435e-6
-1.313, 4.441e-6
-1.314, 4.446e-6
-1.315, 4.447e-6
-1.316, 4.447e-6
-1.317, 4.448e-6
-1.318, 4.456e-6
-1.319, 4.459e-6
-1.320, 4.459e-6
-1.321, 4.461e-6
-1.322, 4.462e-6
-1.323, 4.470e-6
-1.324, 4.478e-6
-1.325, 4.479e-6
-1.326, 4.483e-6
-1.327, 4.482e-6
-1.328, 4.487e-6
-1.329, 4.493e-6
-1.330, 4.493e-6
-1.331, 4.495e-6
-1.332, 4.497e-6
-1.333, 4.504e-6
-1.334, 4.512e-6
-1.335, 4.510e-6
-1.336, 4.510e-6
-1.337, 4.513e-6
-1.338, 4.516e-6
-1.339, 4.525e-6
-1.340, 4.525e-6
-1.341, 4.526e-6
-1.342, 4.528e-6
-1.343, 4.534e-6
-1.344, 4.541e-6
-1.345, 4.544e-6
-1.346, 4.540e-6
-1.347, 4.545e-6
-1.348, 4.551e-6
-1.349, 4.558e-6
-1.350, 4.561e-6
-1.351, 4.562e-6
-1.352, 4.565e-6
-1.353, 4.575e-6
-1.354, 4.580e-6
-1.355, 4.582e-6
-1.356, 4.583e-6
-1.357, 4.588e-6
-1.358, 4.596e-6
-1.359, 4.602e-6
-1.360, 4.604e-6
-1.361, 4.606e-6
-1.362, 4.607e-6
-1.363, 4.615e-6
-1.364, 4.624e-6
-1.365, 4.627e-6
-1.366, 4.633e-6
-1.367, 4.637e-6
-1.368, 4.644e-6
-1.369, 4.652e-6
-1.370, 4.655e-6
-1.371, 4.657e-6
-1.372, 4.662e-6
-1.373, 4.672e-6
-1.374, 4.684e-6
-1.375, 4.690e-6
-1.376, 4.694e-6
-1.377, 4.700e-6
-1.378, 4.708e-6
-1.379, 4.718e-6
-1.380, 4.724e-6
-1.381, 4.729e-6
-1.382, 4.739e-6
-1.383, 4.751e-6
-1.384, 4.761e-6
-1.385, 4.768e-6
-1.386, 4.770e-6
-1.387, 4.777e-6
-1.388, 4.790e-6
-1.389, 4.801e-6
-1.390, 4.809e-6
-1.391, 4.814e-6
-1.392, 4.821e-6
-1.393, 4.834e-6
-1.394, 4.844e-6
-1.395, 4.852e-6
-1.396, 4.858e-6
-1.397, 4.866e-6
-1.398, 4.880e-6
-1.399, 4.890e-6
-1.400, 4.899e-6
-1.401, 4.904e-6
-1.402, 4.909e-6
-1.403, 4.923e-6
-1.404, 4.937e-6
-1.405, 4.946e-6
-1.406, 4.952e-6
-1.407, 4.959e-6
-1.408, 4.973e-6
-1.409, 4.985e-6
-1.410, 4.990e-6
-1.411, 4.998e-6
-1.412, 5.008e-6
-1.413, 5.021e-6
-1.414, 5.039e-6
-1.415, 5.047e-6
-1.416, 5.054e-6
-1.417, 5.062e-6
-1.418, 5.075e-6
-1.419, 5.093e-6
-1.420, 5.100e-6
-1.421, 5.107e-6
-1.422, 5.116e-6
-1.423, 5.129e-6
-1.424, 5.141e-6
-1.425, 5.153e-6
-1.426, 5.162e-6
-1.427, 5.171e-6
-1.428, 5.181e-6
-1.429, 5.194e-6
-1.430, 5.204e-6
-1.431, 5.210e-6
-1.432, 5.221e-6
-1.433, 5.237e-6
-1.434, 5.252e-6
-1.435, 5.255e-6
-1.436, 5.259e-6
-1.437, 5.264e-6
-1.438, 5.277e-6
-1.439, 5.288e-6
-1.440, 5.297e-6
-1.441, 5.303e-6
-1.442, 5.308e-6
-1.443, 5.322e-6
-1.444, 5.332e-6
-1.445, 5.336e-6
-1.446, 5.342e-6
-1.447, 5.346e-6
-1.448, 5.357e-6
-1.449, 5.370e-6
-1.450, 5.374e-6
-1.451, 5.378e-6
-1.452, 5.384e-6
-1.453, 5.392e-6
-1.454, 5.403e-6
-1.455, 5.403e-6
-1.456, 5.407e-6
-1.457, 5.415e-6
-1.458, 5.422e-6
-1.459, 5.434e-6
-1.460, 5.438e-6
-1.461, 5.437e-6
-1.462, 5.444e-6
-1.463, 5.451e-6
-1.464, 5.462e-6
-1.465, 5.468e-6
-1.466, 5.469e-6
-1.467, 5.475e-6
-1.468, 5.483e-6
-1.469, 5.490e-6
-1.470, 5.495e-6
-1.471, 5.497e-6
-1.472, 5.501e-6
-1.473, 5.508e-6
-1.474, 5.514e-6
-1.475, 5.520e-6
-1.476, 5.526e-6
-1.477, 5.531e-6
-1.478, 5.542e-6
-1.479, 5.549e-6
-1.480, 5.552e-6
-1.481, 5.553e-6
-1.482, 5.554e-6
-1.483, 5.563e-6
-1.484, 5.574e-6
-1.485, 5.580e-6
-1.486, 5.583e-6
-1.487, 5.586e-6
-1.488, 5.595e-6
-1.489, 5.606e-6
-1.490, 5.607e-6
-1.491, 5.610e-6
-1.492, 5.613e-6
-1.493, 5.619e-6
-1.494, 5.630e-6
-1.495, 5.631e-6
-1.496, 5.633e-6
-1.497, 5.639e-6
-1.498, 5.647e-6
-1.499, 5.656e-6
-1.500, 5.658e-6
-1.501, 5.658e-6
-1.502, 5.662e-6
-1.503, 5.671e-6
-1.504, 5.683e-6
-1.505, 5.688e-6
-1.506, 5.688e-6
-1.507, 5.691e-6
-1.508, 5.700e-6
-1.509, 5.709e-6
-1.510, 5.715e-6
-1.511, 5.716e-6
-1.512, 5.723e-6
-1.513, 5.735e-6
-1.514, 5.748e-6
-1.515, 5.754e-6
-1.516, 5.754e-6
-1.517, 5.756e-6
-1.518, 5.767e-6
-1.519, 5.778e-6
-1.520, 5.785e-6
-1.521, 5.792e-6
-1.522, 5.797e-6
-1.523, 5.810e-6
-1.524, 5.821e-6
-1.525, 5.826e-6
-1.526, 5.833e-6
-1.527, 5.839e-6
-1.528, 5.855e-6
-1.529, 5.868e-6
-1.530, 5.873e-6
-1.531, 5.879e-6
-1.532, 5.886e-6
-1.533, 5.899e-6
-1.534, 5.915e-6
-1.535, 5.922e-6
-1.536, 5.929e-6
-1.537, 5.937e-6
-1.538, 5.949e-6
-1.539, 5.965e-6
-1.540, 5.973e-6
-1.541, 5.980e-6
-1.542, 5.995e-6
-1.543, 6.009e-6
-1.544, 6.027e-6
-1.545, 6.040e-6
-1.546, 6.046e-6
-1.547, 6.056e-6
-1.548, 6.074e-6
-1.549, 6.092e-6
-1.550, 6.104e-6
-1.551, 6.113e-6
-1.552, 6.125e-6
-1.553, 6.144e-6
-1.554, 6.161e-6
-1.555, 6.175e-6
-1.556, 6.186e-6
-1.557, 6.196e-6
-1.558, 6.218e-6
-1.559, 6.236e-6
-1.560, 6.250e-6
-1.561, 6.267e-6
-1.562, 6.280e-6
-1.563, 6.302e-6
-1.564, 6.326e-6
-1.565, 6.339e-6
-1.566, 6.355e-6
-1.567, 6.371e-6
-1.568, 6.396e-6
-1.569, 6.422e-6
-1.570, 6.437e-6
-1.571, 6.454e-6
-1.572, 6.472e-6
-1.573, 6.495e-6
-1.574, 6.523e-6
-1.575, 6.540e-6
-1.576, 6.560e-6
-1.577, 6.582e-6
-1.578, 6.606e-6
-1.579, 6.635e-6
-1.580, 6.657e-6
-1.581, 6.676e-6
-1.582, 6.699e-6
-1.583, 6.727e-6
-1.584, 6.757e-6
-1.585, 6.780e-6
-1.586, 6.801e-6
-1.587, 6.827e-6
-1.588, 6.858e-6
-1.589, 6.885e-6
-1.590, 6.912e-6
-1.591, 6.935e-6
-1.592, 6.964e-6
-1.593, 6.996e-6
-1.594, 7.025e-6
-1.595, 7.054e-6
-1.596, 7.080e-6
-1.597, 7.107e-6
-1.598, 7.140e-6
-1.599, 7.175e-6
-1.600, 7.204e-6
-1.601, 7.232e-6
-1.602, 7.259e-6
-1.603, 7.296e-6
-1.604, 7.332e-6
-1.605, 7.364e-6
-1.606, 7.394e-6
-1.607, 7.423e-6
-1.608, 7.464e-6
-1.609, 7.504e-6
-1.610, 7.534e-6
-1.611, 7.568e-6
-1.612, 7.605e-6
-1.613, 7.648e-6
-1.614, 7.693e-6
-1.615, 7.727e-6
-1.616, 7.760e-6
-1.617, 7.791e-6
-1.618, 7.821e-6
-1.619, 7.864e-6
-1.620, 7.898e-6
-1.621, 7.934e-6
-1.622, 7.973e-6
-1.623, 8.017e-6
-1.624, 8.064e-6
-1.625, 8.107e-6
-1.626, 8.147e-6
-1.627, 8.194e-6
-1.628, 8.244e-6
-1.629, 8.292e-6
-1.630, 8.340e-6
-1.631, 8.378e-6
-1.632, 8.421e-6
-1.633, 8.470e-6
-1.634, 8.517e-6
-1.635, 8.557e-6
-1.636, 8.592e-6
-1.637, 8.631e-6
-1.638, 8.684e-6
-1.639, 8.741e-6
-1.640, 8.775e-6
-1.641, 8.821e-6
-1.642, 8.861e-6
-1.643, 8.912e-6
-1.644, 8.961e-6
-1.645, 9.004e-6
-1.646, 9.049e-6
-1.647, 9.094e-6
-1.648, 9.150e-6
-1.649, 9.210e-6
-1.650, 9.260e-6
-1.651, 9.312e-6
-1.652, 9.363e-6
-1.653, 9.416e-6
-1.654, 9.484e-6
-1.655, 9.540e-6
-1.656, 9.594e-6
-1.657, 9.652e-6
-1.658, 9.714e-6
-1.659, 9.783e-6
-1.660, 9.843e-6
-1.661, 9.900e-6
-1.662, 9.964e-6
-1.663, 1.003e-5
-1.664, 1.010e-5
-1.665, 1.016e-5
-1.666, 1.022e-5
-1.667, 1.028e-5
-1.668, 1.035e-5
-1.669, 1.043e-5
-1.670, 1.050e-5
-1.671, 1.057e-5
-1.672, 1.064e-5
-1.673, 1.071e-5
-1.674, 1.078e-5
-1.675, 1.084e-5
-1.676, 1.089e-5
-1.677, 1.095e-5
-1.678, 1.102e-5
-1.679, 1.109e-5
-1.680, 1.116e-5
-1.681, 1.124e-5
-1.682, 1.131e-5
-1.683, 1.139e-5
-1.684, 1.146e-5
-1.685, 1.152e-5
-1.686, 1.157e-5
-1.687, 1.163e-5
-1.688, 1.168e-5
-1.689, 1.175e-5
-1.690, 1.180e-5
-1.691, 1.187e-5
-1.692, 1.194e-5
-1.693, 1.201e-5
-1.694, 1.209e-5
-1.695, 1.215e-5
-1.696, 1.224e-5
-1.697, 1.232e-5
-1.698, 1.242e-5
-1.699, 1.252e-5
