Potential V vs RHE, Current mA cm-2
0.05339999999999995,-1.289792292086954
0.05239999999999995,-1.3095982502850645
0.051399999999999946,-1.3226135942438229
0.050399999999999945,-1.3295456796131615
0.049399999999999944,-1.334214226902716
0.04839999999999994,-1.3374680628924058
0.04739999999999994,-1.3398730721021763
0.04639999999999994,-1.3414292545320279
0.04539999999999994,-1.3424195524419331
0.04439999999999994,-1.3429854369618792
0.04339999999999994,-1.3429854369618792
0.04239999999999994,-1.3425610235719199
0.04139999999999994,-1.3424195524419331
0.040399999999999936,-1.3422780813119468
0.039399999999999935,-1.3417121967920007
0.038399999999999934,-1.3410048411420683
0.03739999999999993,-1.3397316009721898
0.03639999999999993,-1.3374680628924058
0.03539999999999993,-1.3376095340223921
0.03439999999999993,-1.3363362938525138
0.03339999999999993,-1.3349215825526486
0.03239999999999993,-1.3337898135127566
0.03139999999999993,-1.332516573342878
0.030399999999999927,-1.3309603909130265
0.029399999999999926,-1.3298286218731346
0.028399999999999925,-1.3289797950932156
0.027399999999999924,-1.3275650837933504
0.026399999999999924,-1.3260089013634988
0.025399999999999923,-1.3241697766736744
0.024399999999999922,-1.322896536503796
0.02339999999999992,-1.3214818252039309
0.02239999999999992,-1.319642700514106
0.02139999999999992,-1.3179450469542682
0.020399999999999918,-1.3161059222644436
0.019399999999999917,-1.3142667975746192
0.018399999999999916,-1.3127106151447676
0.017399999999999916,-1.3108714904549428
0.016399999999999915,-1.3090323657651184
0.015399999999999914,-1.3074761833352668
0.014399999999999913,-1.3057785297754287
0.013399999999999912,-1.3039394050856041
0.012399999999999911,-1.3021002803957797
0.01139999999999991,-1.3002611557059554
0.01039999999999991,-1.2985635021461173
0.009399999999999908,-1.2974317331062253
0.008399999999999908,-1.2971487908462522
0.007399999999999907,-1.2941778971165354
0.006399999999999906,-1.2913484745168053
0.005399999999999905,-1.289509349826981
0.004399999999999904,-1.2878116962671429
0.003399999999999903,-1.2859725715773183
0.002399999999999902,-1.2841334468874939
0.0013999999999999013,-1.282152851067683
0.00039999999999990044,-1.2804551975078446
-0.0006000000000001005,-1.27861607281802
-0.0016000000000001013,-1.2767769481281956
-0.0026000000000001022,-1.274937823438371
-0.003600000000000103,-1.2730986987485464
-0.004600000000000104,-1.2712595740587218
-0.005600000000000105,-1.2694204493688974
-0.006600000000000106,-1.2677227958090596
-0.007600000000000107,-1.2658836711192347
-0.008600000000000108,-1.2636201330394508
-0.009600000000000108,-1.2620639506095992
-0.01060000000000011,-1.2602248259197746
-0.01160000000000011,-1.2585271723599365
-0.012600000000000111,-1.2569709899300852
-0.013600000000000112,-1.2551318652402605
-0.014600000000000113,-1.253575682810409
-0.015600000000000114,-1.2523024426405305
-0.016600000000000115,-1.250746260210679
-0.017600000000000116,-1.2486241932608813
-0.018600000000000116,-1.2467850685710569
-0.019600000000000117,-1.2452288861412053
-0.020600000000000118,-1.2432482903213944
-0.02160000000000012,-1.241550636761556
-0.02260000000000012,-1.2402773965916778
-0.02360000000000012,-1.2381553296418801
-0.024600000000000122,-1.2370235606019881
-0.025600000000000123,-1.2350429647821768
-0.026600000000000124,-1.2337697246122985
-0.027600000000000124,-1.231930599922474
-0.028600000000000125,-1.2298085329726764
-0.029600000000000126,-1.2289597061927575
-0.030600000000000127,-1.2276864660228788
-0.03160000000000013,-1.2264132258530003
-0.03260000000000013,-1.2248570434231487
-0.03360000000000013,-1.2238667455132433
-0.03460000000000002,-1.2230179187333243
-0.03560000000000002,-1.2216032074334593
-0.03660000000000002,-1.2206129095235536
-0.03760000000000002,-1.2199055538736212
-0.03860000000000002,-1.2189152559637155
-0.039600000000000024,-1.2177834869238235
-0.040600000000000025,-1.2169346601439046
-0.041600000000000026,-1.2159443622339992
-0.04260000000000003,-1.2152370065840665
-0.04360000000000003,-1.2143881798041476
-0.04460000000000003,-1.2129734685042826
-0.04560000000000003,-1.2124075839843365
-0.04660000000000003,-1.2119831705943769
-0.04760000000000003,-1.211417286074431
-0.04860000000000003,-1.2109928726844712
-0.04960000000000003,-1.2105684592945118
-0.050600000000000034,-1.209719632514593
-0.051600000000000035,-1.2087293346046872
-0.052600000000000036,-1.2087293346046872
-0.053600000000000037,-1.2083049212147279
-0.05460000000000004,-1.2064657965249033
-0.05560000000000004,-1.2061828542649302
-0.05660000000000004,-1.2058999120049574
-0.05760000000000004,-1.2056169697449843
-0.05860000000000004,-1.2061828542649302
-0.05960000000000004,-1.20660726765489
-0.06060000000000004,-1.2073146233048224
-0.061600000000000044,-1.2080219789547548
-0.06260000000000004,-1.208587863474701
-0.06360000000000005,-1.208870805734674
-0.06460000000000005,-1.2095781613846064
-0.06560000000000005,-1.210285517034539
-0.06660000000000005,-1.2109928726844712
-0.06760000000000005,-1.2117002283344038
-0.06860000000000005,-1.215378477714053
-0.06960000000000005,-1.2182079003137831
-0.07060000000000005,-1.2180664291837966
-0.07160000000000005,-1.2182079003137831
-0.07260000000000005,-1.2189152559637155
-0.07360000000000005,-1.2196226116136482
-0.07460000000000006,-1.2210373229135134
-0.07560000000000006,-1.2224520342133782
-0.07660000000000006,-1.2235838032532702
-0.07760000000000006,-1.2252814568131083
-0.07860000000000006,-1.2266961681129733
-0.07960000000000006,-1.2283938216728114
-0.08060000000000006,-1.2298085329726764
-0.08160000000000006,-1.2312232442725415
-0.08260000000000006,-1.2332038400923524
-0.08360000000000006,-1.2350429647821768
-0.08460000000000006,-1.2371650317319747
-0.08560000000000006,-1.2394285698117586
-0.08660000000000007,-1.2414091656315698
-0.08760000000000007,-1.243389761451381
-0.08860000000000007,-1.2457947706611512
-0.08960000000000007,-1.2483412510009082
-0.09060000000000007,-1.2511706736006385
-0.09160000000000007,-1.253575682810409
-0.09260000000000007,-1.2558392208901932
-0.09360000000000007,-1.2581027589699771
-0.09460000000000007,-1.2605077681797476
-0.09560000000000007,-1.2631957196494912
-0.09660000000000007,-1.2657421999892482
-0.09760000000000008,-1.268430151458992
-0.09860000000000008,-1.2712595740587218
-0.09960000000000008,-1.2743719389184252
-0.10060000000000008,-1.277767246038101
-0.10160000000000008,-1.280596668637831
-0.10260000000000008,-1.2831431489775882
-0.10360000000000008,-1.2861140427073048
-0.10460000000000008,-1.2893678786969944
-0.10560000000000008,-1.292621714686684
-0.10660000000000008,-1.2954511372864141
-0.10760000000000008,-1.2987049732761036
-0.10860000000000009,-1.3016758670058202
-0.10960000000000009,-1.3045052896055502
-0.11060000000000009,-1.3074761833352668
-0.11160000000000009,-1.3107300193249565
-0.11260000000000009,-1.3139838553146461
-0.11360000000000009,-1.3169547490443627
-0.11460000000000009,-1.3204915272940252
-0.11560000000000009,-1.324311247803661
-0.11660000000000009,-1.3271406704033908
-0.1176000000000001,-1.330535977523067
-0.1186000000000001,-1.333931284642743
-0.1196000000000001,-1.3367607072424732
-0.1206000000000001,-1.3400145432321628
-0.1216000000000001,-1.3431269080918657
-0.1226000000000001,-1.346239272951569
-0.1236000000000001,-1.3494931089412585
-0.1246000000000001,-1.3527469449309482
-0.1256000000000001,-1.356142252050624
-0.1266000000000001,-1.3591131457803407
-0.1276000000000001,-1.3625084529000169
-0.1286000000000001,-1.3656208177597198
-0.1296000000000001,-1.36845024035945
-0.1306000000000001,-1.371562605219153
-0.1316000000000001,-1.3742505566888967
-0.1326000000000001,-1.3770799792886268
-0.1336000000000001,-1.3796264596283838
-0.1346000000000001,-1.382455882228114
-0.1356000000000001,-1.385002362567871
-0.1366000000000001,-1.3882561985575603
-0.1376000000000001,-1.3903782655073582
-0.1386000000000001,-1.3926418035871422
-0.1396000000000001,-1.3956126973168586
-0.1406000000000001,-1.3978762353966427
-0.14160000000000011,-1.4001397734764267
-0.14260000000000012,-1.4024033115562107
-0.14360000000000012,-1.4048083207659814
-0.14460000000000012,-1.4070718588457656
-0.14560000000000012,-1.409193925795563
-0.14660000000000012,-1.4120233483952929
-0.14760000000000012,-1.4138624730851177
-0.14860000000000012,-1.4161260111649017
-0.14960000000000012,-1.4175407224647667
-0.15060000000000012,-1.420370145064497
-0.15160000000000012,-1.421784856364362
-0.15260000000000012,-1.423199567664227
-0.15360000000000013,-1.4246142789640919
-0.15460000000000013,-1.426028990263957
-0.15560000000000013,-1.427443701563822
-0.15660000000000013,-1.4288584128636872
-0.15760000000000013,-1.4302731241635522
-0.15860000000000013,-1.431687835463417
-0.15960000000000002,-1.433102546763282
-0.16060000000000002,-1.4345172580631471
-0.16160000000000002,-1.4345172580631471
-0.16260000000000002,-1.4359319693630124
-0.16360000000000002,-1.4373466806628774
-0.16460000000000002,-1.4387613919627424
-0.16560000000000002,-1.4401761032626073
-0.16660000000000003,-1.4401761032626073
-0.16760000000000003,-1.4415908145624723
-0.16860000000000003,-1.4415908145624723
-0.16960000000000003,-1.4415908145624723
-0.17060000000000003,-1.4430055258623373
-0.17160000000000003,-1.4430055258623373
-0.17260000000000003,-1.4444202371622026
-0.17360000000000003,-1.4444202371622026
-0.17460000000000003,-1.4444202371622026
-0.17560000000000003,-1.4444202371622026
-0.17660000000000003,-1.4444202371622026
-0.17760000000000004,-1.4458349484620676
-0.17860000000000004,-1.4458349484620676
-0.17960000000000004,-1.4444202371622026
-0.18060000000000004,-1.4444202371622026
-0.18160000000000004,-1.4444202371622026
-0.18260000000000004,-1.4444202371622026
-0.18360000000000004,-1.4444202371622026
-0.18460000000000004,-1.4444202371622026
-0.18560000000000004,-1.4444202371622026
-0.18660000000000004,-1.4472496597619326
-0.18760000000000004,-1.4458349484620676
-0.18860000000000005,-1.4444202371622026
-0.18960000000000005,-1.4444202371622026
-0.19060000000000005,-1.4444202371622026
-0.19160000000000005,-1.4430055258623373
-0.19260000000000005,-1.4415908145624723
-0.19360000000000005,-1.4415908145624723
-0.19460000000000005,-1.4415908145624723
-0.19560000000000005,-1.4415908145624723
-0.19660000000000005,-1.4401761032626073
-0.19760000000000005,-1.4387613919627424
-0.19860000000000005,-1.4401761032626073
-0.19960000000000006,-1.4430055258623373
-0.20060000000000006,-1.4415908145624723
-0.20160000000000006,-1.4387613919627424
-0.20260000000000006,-1.4387613919627424
-0.20360000000000006,-1.4373466806628774
-0.20460000000000006,-1.4359319693630124
-0.20560000000000006,-1.4359319693630124
-0.20660000000000006,-1.4345172580631471
-0.20760000000000006,-1.4345172580631471
-0.20860000000000006,-1.4345172580631471
-0.20960000000000006,-1.433102546763282
-0.21060000000000006,-1.431687835463417
-0.21160000000000007,-1.431687835463417
-0.21260000000000007,-1.431687835463417
-0.21360000000000007,-1.4302731241635522
-0.21460000000000007,-1.4302731241635522
-0.21560000000000007,-1.4288584128636872
-0.21660000000000007,-1.4288584128636872
-0.21760000000000007,-1.4288584128636872
-0.21860000000000007,-1.4288584128636872
-0.21960000000000007,-1.427443701563822
-0.22060000000000007,-1.4288584128636872
-0.22160000000000007,-1.427443701563822
-0.22260000000000008,-1.427443701563822
-0.22360000000000008,-1.427443701563822
-0.22460000000000008,-1.427443701563822
-0.22560000000000008,-1.426028990263957
-0.22660000000000008,-1.426028990263957
-0.22760000000000008,-1.426028990263957
-0.22860000000000008,-1.426028990263957
-0.22960000000000008,-1.427443701563822
-0.23060000000000008,-1.426028990263957
-0.23160000000000008,-1.426028990263957
-0.23260000000000008,-1.426028990263957
-0.23360000000000009,-1.426028990263957
-0.2346000000000001,-1.427443701563822
-0.2356000000000001,-1.427443701563822
-0.2366000000000001,-1.427443701563822
-0.2376000000000001,-1.427443701563822
-0.2386000000000001,-1.4288584128636872
-0.2396000000000001,-1.4288584128636872
-0.2406000000000001,-1.4288584128636872
-0.2416000000000001,-1.4302731241635522
-0.2426000000000001,-1.4302731241635522
-0.2436000000000001,-1.4302731241635522
-0.2446000000000001,-1.4302731241635522
-0.2456000000000001,-1.431687835463417
-0.2466000000000001,-1.431687835463417
-0.2476000000000001,-1.433102546763282
-0.2486000000000001,-1.433102546763282
-0.2496000000000001,-1.4345172580631471
-0.2506000000000001,-1.4387613919627424
-0.2516000000000001,-1.4401761032626073
-0.2526000000000001,-1.4387613919627424
-0.2536000000000001,-1.4415908145624723
-0.2546000000000001,-1.4430055258623373
-0.2556000000000001,-1.4430055258623373
-0.2566000000000001,-1.4444202371622026
-0.2576000000000001,-1.4444202371622026
-0.2586000000000001,-1.4458349484620676
-0.2596000000000001,-1.4472496597619326
-0.2606000000000001,-1.4486643710617975
-0.2616000000000001,-1.4500790823616625
-0.2626000000000001,-1.4514937936615278
-0.2636000000000001,-1.4529085049613928
-0.2646000000000001,-1.4557379275611226
-0.2656000000000001,-1.4571526388609877
-0.2666000000000001,-1.4585673501608527
-0.2676000000000001,-1.461396772760583
-0.2686000000000001,-1.462811484060448
-0.2696000000000001,-1.4670556179600431
-0.2706000000000001,-1.4698850405597732
-0.2716000000000001,-1.472714463159503
-0.2726000000000001,-1.4741291744593683
-0.2736000000000001,-1.4769585970590984
-0.2746000000000001,-1.4783733083589634
-0.2756000000000001,-1.4812027309586933
-0.2766000000000001,-1.4840321535584236
-0.2776000000000001,-1.4868615761581534
-0.2786000000000001,-1.4896909987578837
-0.2796000000000001,-1.4925204213576138
-0.2806000000000001,-1.4967645552572086
-0.28160000000000013,-1.499593977856939
-0.28260000000000013,-1.502423400456669
-0.28360000000000013,-1.506667534356264
-0.2846,-1.5094969569559942
-0.2856,-1.5137410908555893
-0.2866,-1.5165705134553193
-0.2876,-1.5208146473549145
-0.2886,-1.5250587812545096
-0.2896,-1.5278882038542394
-0.2906,-1.5335470490536998
-0.2916,-1.5363764716534298
-0.2926,-1.540620605553025
-0.2936,-1.54486473945262
-0.29460000000000003,-1.55052358465208
-0.29560000000000003,-1.5547677185516753
-0.29660000000000003,-1.5590118524512704
-0.29760000000000003,-1.5632559863508655
-0.29860000000000003,-1.5675001202504606
-0.29960000000000003,-1.5731589654499207
-0.30060000000000003,-1.5774030993495158
-0.30160000000000003,-1.5816472332491107
-0.30260000000000004,-1.585891367148706
-0.30360000000000004,-1.5915502123481662
-0.30460000000000004,-1.5957943462477613
-0.30560000000000004,-1.6014531914472214
-0.30660000000000004,-1.6056973253468165
-0.30760000000000004,-1.6099414592464116
-0.30860000000000004,-1.614185593146007
-0.30960000000000004,-1.6198444383454669
-0.31060000000000004,-1.6240885722450622
-0.31160000000000004,-1.6297474174445223
-0.31260000000000004,-1.6339915513441174
-0.31360000000000005,-1.6396503965435776
-0.31460000000000005,-1.643894530443173
-0.31560000000000005,-1.6495533756426328
-0.31660000000000005,-1.653797509542228
-0.31760000000000005,-1.6594563547416883
-0.31860000000000005,-1.6637004886412832
-0.31960000000000005,-1.6693593338407433
-0.32060000000000005,-1.6736034677403384
-0.32160000000000005,-1.6792623129397986
-0.32260000000000005,-1.6835064468393939
-0.32360000000000005,-1.6877505807389888
-0.32460000000000006,-1.693409425938449
-0.32560000000000006,-1.6976535598380442
-0.32660000000000006,-1.7033124050375041
-0.32760000000000006,-1.7075565389370995
-0.32860000000000006,-1.7132153841365596
-0.32960000000000006,-1.7160448067362895
-0.33060000000000006,-1.7202889406358846
-0.33160000000000006,-1.7259477858353447
-0.33260000000000006,-1.7301919197349398
-0.33360000000000006,-1.734436053634535
-0.33460000000000006,-1.7400948988339953
-0.33560000000000006,-1.7443390327335901
-0.33660000000000007,-1.7485831666331852
-0.33760000000000007,-1.7528273005327806
-0.33860000000000007,-1.7570714344323757
-0.33960000000000007,-1.7613155683319706
-0.34060000000000007,-1.7655597022315657
-0.34160000000000007,-1.769803836131161
-0.34260000000000007,-1.774047970030756
-0.34360000000000007,-1.778292103930351
-0.3446000000000001,-1.7825362378299463
-0.3456000000000001,-1.7867803717295414
-0.3466000000000001,-1.7910245056291363
-0.34759999999999996,-1.7952686395287314
-0.3486000000000001,-1.7995127734283267
-0.34959999999999997,-1.8037569073279218
-0.3506000000000001,-1.8080010412275167
-0.35159999999999997,-1.8122451751271118
-0.3526000000000001,-1.8164893090267071
-0.35359999999999997,-1.8193187316264372
-0.3546000000000001,-1.823562865526032
-0.35559999999999997,-1.8278069994256272
-0.3566000000000001,-1.8320511333252225
-0.3576,-1.8348805559249526
-0.3586000000000001,-1.8391246898245475
-0.3596,-1.8419541124242775
-0.3606000000000001,-1.8447835350240078
-0.3616,-1.849027668923603
-0.3626000000000001,-1.8518570915233332
-0.3636,-1.8561012254229279
-0.3646000000000001,-1.8589306480226582
-0.3656,-1.8617600706223882
-0.3666000000000001,-1.8645894932221183
-0.3676,-1.8674189158218486
-0.3686000000000001,-1.8716630497214433
-0.3696,-1.8744924723211736
-0.3706000000000001,-1.8787366062207687
-0.3716,-1.8815660288204987
-0.3726000000000001,-1.884395451420229
-0.3736,-1.8872248740199586
-0.3746000000000001,-1.890054296619689
-0.3756,-1.892883719219419
-0.3766000000000001,-1.895713141819149
-0.3776,-1.8985425644188794
-0.3786000000000001,-1.9013719870186092
-0.3796,-1.9056161209182045
-0.3806000000000001,-1.9084455435179344
-0.3816,-1.9112749661176645
-0.3826000000000001,-1.9126896774175295
-0.3836,-1.9169338113171246
-0.3846000000000001,-1.9197632339168547
-0.3856,-1.922592656516585
-0.3866000000000001,-1.925422079116315
-0.3876,-1.9282515017160449
-0.3886000000000001,-1.9310809243157752
-0.3896,-1.933910346915505
-0.3906000000000001,-1.9367397695152353
-0.3916,-1.9409839034148304
-0.3926000000000001,-1.9438133260145605
-0.3936,-1.9480574599141556
-0.3946000000000001,-1.9508868825138854
-0.3956,-1.9537163051136157
-0.3966000000000001,-1.9565457277133458
-0.3976,-1.9607898616129409
-0.3986000000000001,-1.963619284212671
-0.3996,-1.967863418112266
-0.4006000000000001,-1.972107552011861
-0.4016,-1.9749369746115912
-0.4026000000000001,-1.9791811085111866
-0.4036,-1.9834252424107812
-0.4046000000000001,-1.9862546650105113
-0.4056,-1.9904987989101068
-0.40660000000000013,-1.9947429328097017
-0.4076,-2.0004017780091616
-0.40860000000000013,-2.004645911908757
-0.4096,-2.008890045808352
-0.41060000000000013,-2.013134179707947
-0.4116,-2.0187930249074073
-0.41260000000000013,-2.023037158807002
-0.4136,-2.0286960040064623
-0.41460000000000014,-2.0329401379060577
-0.4156,-2.038598983105518
-0.41660000000000014,-2.044257828304978
-0.4176,-2.049916673504438
-0.41860000000000014,-2.054160807404033
-0.41960000000000003,-2.0612343639033583
-0.42060000000000014,-2.0668932091028185
-0.42160000000000003,-2.072552054302279
-0.42260000000000014,-2.079625610801604
-0.42360000000000003,-2.085284456001064
-0.42460000000000014,-2.0909433012005243
-0.42560000000000003,-2.0980168576998492
-0.42660000000000015,-2.10367570289931
-0.42760000000000004,-2.110749259398635
-0.42860000000000015,-2.11782281589796
-0.42960000000000004,-2.124896372397285
-0.43060000000000015,-2.13196992889661
-0.43160000000000004,-2.1390434853959355
-0.43260000000000015,-2.1461170418952604
-0.43360000000000004,-2.1531905983945863
-0.43460000000000015,-2.161678866193776
-0.43560000000000004,-2.1673377113932366
-0.43660000000000015,-2.1758259791924264
-0.43760000000000004,-2.184314246991617
-0.43860000000000016,-2.1913878034909415
-0.43960000000000005,-2.199876071290132
-0.44060000000000016,-2.2097790503891876
-0.44160000000000005,-2.216852606888512
-0.44260000000000016,-2.2239261633878376
-0.44360000000000005,-2.2324144311870278
-0.44460000000000016,-2.2409026989862184
-0.44560000000000005,-2.249390966785408
-0.44660000000000016,-2.2592939458844636
-0.44760000000000005,-2.2677822136836534
-0.44860000000000017,-2.276270481482844
-0.44960000000000006,-2.284758749282034
-0.45060000000000017,-2.2932470170812245
