Potential V vs RHE, Current mA cm-2
0.013299999999999867,-0.5255652478998613
0.012299999999999978,-2.794054817233447
0.011299999999999866,-4.800115440442069
0.010299999999999976,-6.6760226240631075
0.009299999999999864,-8.4203616567967
0.008299999999999974,-9.946835149351072
0.007299999999999862,-11.517164692201263
0.006299999999999972,-12.869628694872238
0.00529999999999986,-14.217848563643619
0.0042999999999999705,-15.448647394526201
0.0032999999999998586,-16.70774045140608
0.0022999999999999687,-17.881950830294063
0.0012999999999998568,-18.97127853119014
0.00029999999999996696,-20.01816489309027
-0.000700000000000145,-21.065051254990397
-0.0017000000000000348,-22.027054938898623
-0.0027000000000001467,-22.904175944814945
-0.0037000000000000366,-23.724708498736668
-0.0047000000000001485,-24.516946826661083
-0.005700000000000038,-25.210155363594954
-0.00670000000000015,-25.86092256153287
-0.00770000000000004,-26.483395533473487
-0.008700000000000152,-27.091721392415455
-0.009700000000000042,-27.615164573365515
-0.010700000000000154,-28.18104909331153
-0.011700000000000044,-28.746933613257543
-0.012700000000000156,-29.27037679420761
-0.013700000000000045,-29.836261314153624
-0.014700000000000157,-30.317263156107735
-0.015700000000000047,-30.79826499806185
-0.01670000000000016,-31.23682550102001
-0.01770000000000005,-31.661238890979522
-0.01870000000000016,-32.01491671594578
-0.01970000000000005,-32.368594540912035
-0.020700000000000163,-32.66568391388369
-0.021700000000000053,-32.93447906085806
-0.022700000000000164,-33.18912709483376
-0.023700000000000054,-33.41548090281216
-0.024700000000000166,-33.670128936787876
-0.025700000000000056,-33.89648274476628
-0.026700000000000168,-34.193572117737936
-0.027700000000000058,-34.50480860370825
-0.02870000000000017,-34.75945663768395
-0.02970000000000006,-35.02825178465831
-0.03070000000000017,-35.282899818634014
-0.03170000000000006,-35.55169496560837
-0.03270000000000017,-35.763901660588125
-0.03370000000000006,-35.94781412957058
-0.034700000000000175,-36.11757948555439
-0.035700000000000065,-36.244903502542236
-0.03670000000000018,-36.37222751953009
-0.03770000000000007,-36.5136986495166
-0.03870000000000018,-36.5985813275085
-0.03970000000000007,-36.6834640055004
-0.04070000000000018,-36.768346683492304
-0.04170000000000007,-36.95225915247476
-0.04270000000000018,-37.122024508458566
-0.04370000000000007,-37.249348525446415
-0.044700000000000184,-37.41911388143023
-0.045700000000000074,-37.60302635041268
-0.046700000000000186,-37.73035036740053
-0.047700000000000076,-37.85767438438838
-0.04870000000000019,-37.94255706238028
-0.04970000000000008,-38.04158685337084
-0.05070000000000019,-38.12646953136274
-0.05170000000000008,-38.12646953136274
-0.05270000000000019,-38.16891087035869
-0.05370000000000008,-38.16891087035869
-0.05470000000000019,-38.211352209354644
-0.05570000000000008,-38.253793548350586
-0.056700000000000195,-38.38111756533845
-0.057700000000000085,-38.46600024333035
-0.058700000000000196,-38.5650300343209
-0.059700000000000086,-38.6499127123128
-0.0607000000000002,-38.777236729300654
-0.06170000000000009,-38.90456074628851
-0.0627000000000002,-38.98944342428042
-0.06370000000000009,-38.98944342428042
-0.0647000000000002,-39.08847321527096
-0.06570000000000009,-39.08847321527096
-0.0667000000000002,-39.046031876275016
-0.0677000000000001,-39.046031876275016
-0.0687000000000002,-38.98944342428042
-0.0697000000000001,-39.046031876275016
-0.07070000000000021,-39.046031876275016
-0.0717000000000001,-39.08847321527096
-0.07270000000000021,-39.173355893262865
-0.0737000000000001,-39.21579723225882
-0.07470000000000021,-39.30067991025072
-0.0757000000000001,-39.42800392723857
-0.07670000000000021,-39.47044526623452
-0.0777000000000001,-39.51288660523048
-0.07870000000000021,-39.56947505722508
-0.0797000000000001,-39.56947505722508
-0.08070000000000022,-39.56947505722508
-0.0817000000000001,-39.51288660523048
-0.08270000000000022,-39.47044526623452
-0.08370000000000011,-39.47044526623452
-0.08470000000000022,-39.42800392723857
-0.08570000000000011,-39.42800392723857
-0.08670000000000022,-39.51288660523048
-0.08770000000000011,-39.56947505722508
-0.08870000000000022,-39.61191639622103
-0.08970000000000011,-39.696799074212926
-0.09070000000000022,-39.78168175220483
-0.09170000000000011,-39.82412309120078
-0.09270000000000023,-39.82412309120078
-0.09370000000000012,-39.90900576919269
-0.09470000000000023,-39.90900576919269
-0.09570000000000012,-39.86656443019674
-0.09670000000000023,-39.86656443019674
-0.09770000000000012,-39.82412309120078
-0.09870000000000023,-39.78168175220483
-0.09970000000000012,-39.78168175220483
-0.10070000000000023,-39.739240413208876
-0.10170000000000012,-39.82412309120078
-0.10270000000000024,-39.86656443019674
-0.10370000000000013,-39.90900576919269
-0.10470000000000024,-39.95144710818864
-0.10570000000000013,-40.03632978618054
-0.10670000000000024,-40.092918238175145
-0.10770000000000013,-40.135359577171094
-0.10870000000000024,-40.135359577171094
-0.10970000000000013,-40.135359577171094
-0.11070000000000024,-40.092918238175145
-0.11170000000000013,-40.092918238175145
-0.11270000000000002,-40.03632978618054
-0.11370000000000013,-39.99388844718459
-0.11470000000000002,-39.99388844718459
-0.11570000000000014,-39.95144710818864
-0.11670000000000003,-39.99388844718459
-0.11770000000000014,-40.092918238175145
-0.11870000000000003,-40.135359577171094
-0.11970000000000014,-40.177800916167044
-0.12070000000000003,-40.30512493315489
-0.12170000000000014,-40.30512493315489
-0.12270000000000003,-40.34756627215084
-0.12370000000000014,-40.3900076111468
-0.12470000000000003,-40.3900076111468
-0.12570000000000014,-40.34756627215084
-0.12670000000000003,-40.34756627215084
-0.12770000000000015,-40.30512493315489
-0.12870000000000004,-40.30512493315489
-0.12970000000000015,-40.26268359415894
-0.13070000000000004,-40.26268359415894
-0.13170000000000015,-40.34756627215084
-0.13270000000000004,-40.43244895014274
-0.13370000000000015,-40.4748902891387
-0.13470000000000004,-40.51733162813464
-0.13570000000000015,-40.616361419125205
-0.13670000000000004,-40.701244097117105
-0.13770000000000016,-40.743685436113054
-0.13870000000000005,-40.78612677510901
-0.13970000000000016,-40.828568114104954
-0.14070000000000005,-40.78612677510901
-0.14170000000000016,-40.78612677510901
-0.14270000000000005,-40.78612677510901
-0.14370000000000016,-40.78612677510901
-0.14470000000000005,-40.78612677510901
-0.14570000000000016,-40.78612677510901
-0.14670000000000005,-40.828568114104954
-0.14770000000000016,-40.91345079209687
-0.14870000000000005,-40.99833347008877
-0.14970000000000017,-41.04077480908471
-0.15070000000000006,-41.22468727806717
-0.15170000000000017,-41.267128617063115
-0.15270000000000006,-41.30956995605907
-0.15370000000000017,-41.352011295055014
-0.15470000000000006,-41.39445263405098
-0.15570000000000017,-41.39445263405098
-0.15670000000000006,-41.39445263405098
-0.15770000000000017,-41.352011295055014
-0.15870000000000006,-41.39445263405098
-0.15970000000000018,-41.39445263405098
-0.16070000000000007,-41.39445263405098
-0.16170000000000018,-41.47933531204288
-0.16270000000000007,-41.56421799003478
-0.16370000000000018,-41.66324778102533
-0.16470000000000007,-41.79057179801318
-0.16570000000000018,-41.87545447600508
-0.16670000000000007,-41.96033715399699
-0.16770000000000018,-42.00277849299294
-0.16870000000000007,-42.087661170984845
-0.16970000000000018,-42.130102509980794
-0.17070000000000007,-42.130102509980794
-0.17170000000000019,-42.130102509980794
-0.17270000000000008,-42.130102509980794
-0.1737000000000002,-42.130102509980794
-0.17470000000000008,-42.186690961975394
-0.1757000000000002,-42.186690961975394
-0.17670000000000008,-42.2715736399673
-0.1777000000000002,-42.39889765695515
-0.17870000000000008,-42.483780334947056
-0.1797000000000002,-42.6111043519349
-0.18070000000000008,-42.752575481921404
-0.1817000000000002,-42.837458159913304
-0.18270000000000008,-42.87989949890926
-0.1837000000000002,-42.96478217690117
-0.1847000000000001,-43.007223515897124
-0.1857000000000002,-43.04966485489307
-0.1867000000000001,-43.04966485489307
-0.1877000000000002,-43.09210619388902
-0.1887000000000001,-43.09210619388902
-0.1897000000000002,-43.17698887188092
-0.1907000000000001,-43.23357732387552
-0.1917000000000001,-43.31846000186743
-0.19269999999999998,-43.44578401885527
-0.1937000000000001,-43.53066669684718
-0.19469999999999998,-43.657990713835034
-0.1957000000000001,-43.79946184382153
-0.19669999999999999,-43.88434452181344
-0.1977000000000001,-44.011668538801295
-0.1987,-44.096551216793195
-0.1997000000000001,-44.181433894785094
-0.2007,-44.223875233781044
-0.2017000000000001,-44.28046368577565
-0.2027,-44.3229050247716
-0.2037000000000001,-44.36534636376755
-0.2047,-44.4077877027635
-0.2057000000000001,-44.45022904175945
-0.2067,-44.619994397743255
-0.2077000000000001,-44.704877075735155
-0.2087,-44.88878954471762
-0.2097000000000001,-45.01611356170547
-0.2107,-45.18587891768927
-0.2117000000000001,-45.32735004767578
-0.2127,-45.45467406466363
-0.2137000000000001,-45.581998081651484
-0.2147,-45.666880759643384
-0.2157000000000001,-45.79420477663124
-0.2167,-45.85079322862584
-0.21770000000000012,-45.89323456762179
-0.2187,-45.97811724561369
-0.21970000000000012,-46.062999923605595
-0.2207,-46.10544126260155
-0.22170000000000012,-46.27520661858535
-0.2227,-46.45911908756781
-0.22370000000000012,-46.586443104555656
-0.2247,-46.75620846053947
-0.22570000000000012,-46.982562268517874
-0.2267,-47.10988628550572
-0.22770000000000012,-47.27965164148953
-0.22870000000000001,-47.36453431948143
-0.22970000000000013,-47.506005449467935
-0.23070000000000002,-47.590888127459834
-0.23170000000000013,-47.67577080545174
-0.23270000000000002,-47.80309482243959
-0.23370000000000013,-47.84553616143554
-0.23470000000000002,-47.987007291422046
-0.23570000000000013,-48.071889969413945
-0.23670000000000002,-48.2840966643937
-0.2376999999999999,-48.45386202037751
-0.23870000000000002,-48.63777448935996
-0.2396999999999999,-48.80753984534376
-0.24070000000000003,-49.076334992318124
-0.24169999999999991,-49.24610034830193
-0.24270000000000003,-49.41586570428573
-0.24369999999999992,-49.59977817326819
-0.24470000000000003,-49.72710219025603
-0.24569999999999992,-49.85442620724389
-0.24670000000000003,-49.98175022423175
-0.24769999999999992,-50.0807800152223
-0.24870000000000003,-50.2505453712061
-0.24969999999999992,-50.37786938819396
-0.25070000000000003,-50.547634744177756
-0.2516999999999999,-50.77398855215617
-0.25270000000000004,-50.98619524713592
-0.2536999999999999,-51.21254905511432
-0.25470000000000004,-51.46719708909004
-0.2556999999999999,-51.73599223606439
-0.25670000000000004,-51.990640270040096
-0.25769999999999993,-52.2169940780185
-0.25870000000000004,-52.42920077299826
-0.25969999999999993,-52.69799591997262
-0.26070000000000004,-52.82531993696047
-0.26169999999999993,-52.995085292944275
-0.26270000000000004,-53.16485064892808
-0.26369999999999993,-53.348763117910536
-0.26470000000000005,-53.56096981289029
-0.26569999999999994,-53.68829382987814
-0.26670000000000005,-53.999530315848446
-0.26769999999999994,-54.31076680181876
-0.26870000000000005,-54.52297349679851
-0.26969999999999994,-54.791768643772876
-0.27070000000000005,-55.088858016744524
-0.27169999999999994,-55.31521182472294
-0.27270000000000005,-55.56985985869864
-0.27369999999999994,-55.7820665536784
-0.27470000000000006,-55.96597902266086
-0.27569999999999995,-56.1781857176406
-0.27670000000000006,-56.36209818662306
-0.27769999999999995,-56.53186354260687
-0.27870000000000006,-56.74407023758662
-0.27969999999999995,-56.97042404556503
-0.28070000000000006,-57.182630740544774
-0.28169999999999995,-57.45142588751914
-0.28270000000000006,-57.7485152604908
-0.28369999999999995,-58.05975174646111
-0.28470000000000006,-58.31439978043681
-0.28569999999999995,-58.71051894439902
-0.28670000000000007,-59.02175543036933
-0.28769999999999996,-59.27640346434504
-0.28870000000000007,-59.587639950315335
-0.28969999999999996,-59.884729323287
-0.29070000000000007,-60.11108313126541
-0.29169999999999996,-60.36573116524111
-0.29270000000000007,-60.67696765121143
-0.29369999999999996,-60.889174346191176
-0.2947000000000001,-61.20041083216149
-0.29569999999999996,-61.49750020513315
-0.2967000000000001,-61.851178030099405
-0.29769999999999996,-62.24729719406162
-0.2987000000000001,-62.58682790602922
-0.29969999999999997,-62.98294706999144
-0.3007000000000001,-63.37906623395363
-0.30169999999999997,-63.77518539791585
-0.3027000000000001,-64.11471610988345
-0.30369999999999997,-64.51083527384567
-0.3047000000000001,-64.86451309881193
-0.30569999999999997,-65.20404381077954
-0.3067000000000001,-65.51528029674984
-0.3077,-65.86895812171612
-0.3087000000000001,-66.16604749468777
-0.3097,-66.51972531965401
-0.3107000000000001,-66.87340314462028
-0.3117,-67.2978165345798
-0.3127000000000001,-67.73637703753796
-0.3137,-68.17493754049613
-0.3147000000000001,-68.61349804345427
-0.3157,-69.13694122440434
-0.3167000000000001,-69.57550172736251
-0.3177,-70.01406223032066
-0.3187000000000001,-70.43847562028017
-0.3197,-70.87703612323833
-0.3207000000000001,-71.27315528720055
-0.3217,-71.66927445116276
-0.3227000000000001,-72.05124650212633
-0.3237,-72.48980700508447
-0.3247000000000001,-72.8859261690467
-0.3257,-73.32448667200485
-0.3267000000000001,-73.8479298529549
-0.3277,-74.37137303390499
-0.3287000000000001,-74.8523748758591
-0.3297,-75.4182593958051
-0.3307000000000001,-75.98414391575112
-0.3317,-76.50758709670117
-0.3327000000000001,-77.03103027765125
-0.3337,-77.51203211960537
-0.3347000000000001,-78.03547530055542
-0.3357,-78.51647714250953
-0.3367000000000001,-78.99747898446365
-0.3377,-79.47848082641775
-0.3387000000000001,-79.94533555537322
-0.3397,-80.46877873632329
-0.3407000000000001,-80.99222191727335
-0.3417,-81.57225355021802
-0.3427000000000001,-82.18057940915998
-0.3437,-82.746463929106
-0.3447000000000001,-83.43967246603985
-0.3457,-84.04799832498183
-0.3467000000000001,-84.61388284492786
-0.3477,-85.23635581686847
-0.3487000000000001,-85.84468167581042
-0.3497,-86.45300753475239
-0.3507000000000001,-87.01889205469841
-0.3517,-87.54233523564847
-0.3527000000000001,-88.15066109459043
-0.3537,-88.71654561453644
-0.3547000000000001,-89.28243013448247
-0.3557,-89.94734444541903
-0.35670000000000013,-90.59811164335694
-0.3577,-91.29132018029082
-0.35870000000000013,-91.98452871722468
-0.3597,-92.6918843671572
-0.36070000000000013,-93.46997558208298
-0.3617,-94.21977257101145
-0.3626999999999999,-94.91298110794531
-0.3637,-95.60618964487918
-0.3646999999999999,-96.31354529481169
-0.3657,-96.96431249274961
-0.3666999999999999,-97.6575210296835
-0.3677,-98.3082882276214
-0.3686999999999999,-98.97320253855796
-0.36970000000000003,-99.70885241448778
-0.3706999999999999,-100.40206095142165
-0.37170000000000003,-101.19429927934607
-0.3726999999999999,-101.92994915527588
-0.37370000000000003,-102.72218748320032
-0.3746999999999999,-103.50027869812607
-0.37570000000000003,-104.3773997040424
-0.3766999999999999,-105.16963803196683
-0.37770000000000004,-105.99017058588855
-0.3786999999999999,-106.78240891381296
-0.37970000000000004,-107.6029414677347
-0.3806999999999999,-108.35273845666316
-0.38170000000000004,-109.13082967158894
-0.38269999999999993,-109.92306799951335
-0.38370000000000004,-110.65871787544317
-0.38469999999999993,-111.49339754236355
-0.38570000000000004,-112.27148875728932
-0.38669999999999993,-111.5358388813595
-0.38570000000000004,-107.914177953705
-0.38469999999999993,-104.68863619001272
-0.38370000000000004,-101.76018379929208
-0.38269999999999993,-99.01564387755391
-0.38170000000000004,-96.44086931179956
-0.3806999999999999,-93.99341876303303
-0.37970000000000004,-91.64499800525708
-0.3786999999999999,-89.36731281247435
-0.37770000000000004,-87.14621607168625
-0.3766999999999999,-85.09488468688197
-0.37570000000000003,-83.08599464107361
-0.3746999999999999,-81.09125170826391
-0.37370000000000003,-79.20968567944341
-0.3726999999999999,-77.42714944161345
-0.37170000000000003,-75.6729074297808
-0.3706999999999999,-74.0176952089387
-0.36970000000000003,-72.36248298809663
-0.3686999999999999,-70.79215344524643
-0.3677,-69.26426524139221
-0.3666999999999999,-67.73637703753796
-0.3657,-66.25093017267966
-0.3646999999999999,-64.77963042082003
-0.3637,-63.29418355596174
-0.3626999999999999,-61.851178030099405
-0.3617,-60.36573116524111
-0.36070000000000013,-58.92272563937878
-0.3597,-57.493867226515086
-0.35870000000000013,-56.13574437864466
-0.3577,-54.791768643772876
-0.35670000000000013,-53.476087134898386
-0.3557,-52.2169940780185
-0.3547000000000001,-50.98619524713592
-0.3537,-49.72710219025603
-0.3527000000000001,-48.51045047237211
-0.3517,-47.32209298048547
-0.3507000000000001,-46.10544126260155
-0.3497,-44.93123088371356
-0.3487000000000001,-43.75702050482558
-0.3477,-42.483780334947056
-0.3467000000000001,-41.267128617063115
-0.3457,-40.092918238175145
-0.3447000000000001,-38.94700208528445
-0.3437,-37.77279170639648
-0.3427000000000001,-36.64102266650445
-0.3417,-35.594136304604326
-0.3407000000000001,-34.5472499427042
-0.3397,-33.50036358080407
-0.3387000000000001,-32.45347721890394
-0.3377,-31.49147353499572
-0.3367000000000001,-30.487028512091538
-0.3357,-29.482583489187363
-0.3347000000000001,-28.478138466283188
-0.3337,-27.487840556377662
-0.3327000000000001,-26.440954194477534
-0.3317,-25.39406783257741
-0.3307000000000001,-24.389622809673234
-0.3297,-23.342736447773106
-0.3287000000000001,-22.38073276386488
-0.3277,-21.376287740960702
-0.3267000000000001,-20.456725396048434
-0.3257,-19.636192842126707
-0.3247000000000001,-18.716630497214435
-0.3237,-17.881950830294063
-0.3227000000000001,-17.061418276372343
-0.3217,-16.184297270456018
-0.3207000000000001,-15.349617603535648
-0.3197,-14.486643710617974
-0.3187000000000001,-13.610937416001518
-0.3177,-12.694204493688973
-0.3167000000000001,-11.82274233297211
-0.3157,-10.949865460955383
-0.3147000000000001,-10.078403300238522
-0.3137,-9.205526428221793
-0.3127000000000001,-8.376505606500881
-0.3117,-7.635196885371603
-0.3107000000000001,-6.850032113946507
-0.3097,-6.152579443113044
-0.3087000000000001,-5.411270721983764
-0.3077,-4.756259390146253
-0.3067000000000001,-4.014950669016974
-0.30569999999999997,-3.273641947887695
-0.3047000000000001,-2.532333226758415
-0.30369999999999997,-1.8334658446250875
-0.3027000000000001,-1.0490084288499246
-0.30169999999999997,-0.30755823659065895
-0.3007000000000001,0.43403342679859325
-0.29969999999999997,1.219056727093702
-0.2987000000000001,1.9169338113171246
-0.29769999999999996,2.658242532446404
-0.2967000000000001,3.2693978139880997
-0.29569999999999996,3.922994434525747
-0.2947000000000001,4.578005766363259
-0.29369999999999996,5.145304997609139
-0.29270000000000007,5.7111895175551535
-0.29169999999999996,6.278488748801033
-0.29070000000000007,6.933500080638546
-0.28969999999999996,7.543240650880375
-0.28870000000000007,8.154395932422071
-0.28769999999999996,8.764136502663902
-0.28670000000000007,9.463003884797232
-0.28569999999999995,10.07274445503906
-0.28470000000000006,10.727755786876573
-0.28369999999999995,11.33891106841827
-0.28270000000000006,11.9486516386601
-0.28169999999999995,12.472094819610163
-0.28070000000000006,12.995538000560227
-0.27969999999999995,13.518981181510291
-0.27870000000000006,13.998568312164537
-0.27769999999999995,14.430055258623375
-0.27670000000000006,14.953498439573437
-0.27569999999999995,15.4769416205235
-0.27470000000000006,15.957943462477614
-0.27369999999999994,16.481386643427676
-0.27270000000000005,17.047271163373694
-0.27169999999999994,17.570714344323754
-0.27070000000000005,18.13659886426977
-0.26969999999999994,18.660042045219836
-0.26870000000000005,19.1834852261699
-0.26769999999999994,19.664487068124007
-0.26670000000000005,20.14548891007812
-0.26569999999999994,20.584049413036283
-0.26470000000000005,20.980168576998494
-0.26369999999999993,21.376287740960702
