Sept. 21, 2024   14:51:54
Cyclic Voltammetry
File: c:/users/guazh/data/20240903_batch_400_500/2024-09-20-exp409\exp409-2024-09-21t14_29_13-h2koh\exp409_cv_sr_100mvs_efin_-1800mv.bin
Data Source:  Experiment
Instrument Model:  CHI760E
Header: CV ran at 100 mVs
Note: 

Init E (V) = -1
High E (V) = -1
Low E (V) = -1.8
Final E (V) = -1
Init P/N = N
Scan Rate (V/s) = 0.1
Segment = 3
Sample Interval (V) = 0.001
Quiet Time (sec) = 2
Sensitivity (A/V) = 0.01
Comp R (ohm) = 3.2

Results:

Channel 1:
Segment 1:

Segment 2:

Segment 3:

Potential/V, Current/A

-1.000, -1.146e-6
-1.001, -1.048e-6
-1.002, -8.899e-7
-1.003, -9.392e-7
-1.004, -1.107e-6
-1.005, -8.603e-7
-1.006, -8.110e-7
-1.007, -9.195e-7
-1.008, -8.504e-7
-1.009, -7.321e-7
-1.010, -8.110e-7
-1.011, -7.025e-7
-1.012, -7.123e-7
-1.013, -6.827e-7
-1.014, -6.433e-7
-1.015, -6.334e-7
-1.016, -4.163e-7
-1.017, -6.433e-7
-1.018, -7.617e-7
-1.019, -6.334e-7
-1.020, -4.755e-7
-1.021, -3.867e-7
-1.022, -4.755e-7
-1.023, -5.249e-7
-1.024, -4.953e-7
-1.025, -3.473e-7
-1.026, -4.459e-7
-1.027, -2.980e-7
-1.028, -4.163e-7
-1.029, -3.966e-7
-1.030, -2.881e-7
-1.031, -2.486e-7
-1.032, -2.486e-7
-1.033, -1.697e-7
-1.034, -3.275e-7
-1.035, -1.796e-7
-1.036, -7.103e-8
-1.037, -2.486e-7
-1.038, -6.117e-8
-1.039, -1.894e-7
-1.040, -1.105e-7
-1.041, -9.077e-8
-1.042, -9.077e-8
-1.043, -4.144e-8
-1.044, -1.401e-7
-1.045, -1.598e-7
-1.046, 8.682e-8
-1.047, -1.973e-9
-1.048, -9.077e-8
-1.049, -1.006e-7
-1.050, 1.164e-7
-1.051, -2.171e-8
-1.052, -6.117e-8
-1.053, 7.695e-8
-1.054, 9.669e-8
-1.055, 1.460e-7
-1.056, 1.362e-7
-1.057, 7.695e-8
-1.058, 7.893e-9
-1.059, 4.736e-8
-1.060, 1.953e-7
-1.061, 9.669e-8
-1.062, 2.348e-7
-1.063, 1.263e-7
-1.064, 2.447e-7
-1.065, 2.447e-7
-1.066, 1.855e-7
-1.067, 2.151e-7
-1.068, 1.855e-7
-1.069, 2.348e-7
-1.070, 2.545e-7
-1.071, 3.433e-7
-1.072, 2.841e-7
-1.073, 3.039e-7
-1.074, 2.348e-7
-1.075, 3.039e-7
-1.076, 2.841e-7
-1.077, 3.532e-7
-1.078, 4.519e-7
-1.079, 4.124e-7
-1.080, 4.913e-7
-1.081, 4.223e-7
-1.082, 4.223e-7
-1.083, 4.519e-7
-1.084, 4.223e-7
-1.085, 3.729e-7
-1.086, 5.012e-7
-1.087, 3.137e-7
-1.088, 4.223e-7
-1.089, 4.124e-7
-1.090, 4.420e-7
-1.091, 5.308e-7
-1.092, 4.815e-7
-1.093, 5.703e-7
-1.094, 4.519e-7
-1.095, 5.111e-7
-1.096, 4.815e-7
-1.097, 4.716e-7
-1.098, 5.111e-7
-1.099, 4.617e-7
-1.100, 5.012e-7
-1.101, 6.985e-7
-1.102, 5.111e-7
-1.103, 5.900e-7
-1.104, 5.012e-7
-1.105, 6.294e-7
-1.106, 6.393e-7
-1.107, 5.111e-7
-1.108, 5.505e-7
-1.109, 6.393e-7
-1.110, 6.097e-7
-1.111, 6.492e-7
-1.112, 6.492e-7
-1.113, 6.393e-7
-1.114, 6.788e-7
-1.115, 6.689e-7
-1.116, 6.985e-7
-1.117, 7.478e-7
-1.118, 6.689e-7
-1.119, 7.281e-7
-1.120, 8.465e-7
-1.121, 7.676e-7
-1.122, 8.169e-7
-1.123, 8.070e-7
-1.124, 7.972e-7
-1.125, 6.985e-7
-1.126, 7.676e-7
-1.127, 8.366e-7
-1.128, 8.662e-7
-1.129, 8.860e-7
-1.130, 8.860e-7
-1.131, 9.254e-7
-1.132, 8.070e-7
-1.133, 8.860e-7
-1.134, 8.564e-7
-1.135, 9.156e-7
-1.136, 8.564e-7
-1.137, 9.846e-7
-1.138, 9.156e-7
-1.139, 9.748e-7
-1.140, 1.064e-6
-1.141, 1.034e-6
-1.142, 9.846e-7
-1.143, 9.649e-7
-1.144, 1.083e-6
-1.145, 9.057e-7
-1.146, 1.073e-6
-1.147, 8.465e-7
-1.148, 9.649e-7
-1.149, 1.014e-6
-1.150, 1.073e-6
-1.151, 1.004e-6
-1.152, 1.024e-6
-1.153, 1.123e-6
-1.154, 1.004e-6
-1.155, 1.073e-6
-1.156, 1.133e-6
-1.157, 1.103e-6
-1.158, 1.103e-6
-1.159, 1.093e-6
-1.160, 1.073e-6
-1.161, 1.113e-6
-1.162, 1.093e-6
-1.163, 1.073e-6
-1.164, 1.093e-6
-1.165, 1.290e-6
-1.166, 1.202e-6
-1.167, 1.064e-6
-1.168, 1.073e-6
-1.169, 1.241e-6
-1.170, 1.182e-6
-1.171, 1.103e-6
-1.172, 1.251e-6
-1.173, 1.152e-6
-1.174, 1.290e-6
-1.175, 1.300e-6
-1.176, 1.162e-6
-1.177, 1.350e-6
-1.178, 1.290e-6
-1.179, 1.290e-6
-1.180, 1.350e-6
-1.181, 1.152e-6
-1.182, 1.300e-6
-1.183, 1.300e-6
-1.184, 1.409e-6
-1.185, 1.350e-6
-1.186, 1.261e-6
-1.187, 1.350e-6
-1.188, 1.320e-6
-1.189, 1.310e-6
-1.190, 1.448e-6
-1.191, 1.458e-6
-1.192, 1.379e-6
-1.193, 1.300e-6
-1.194, 1.438e-6
-1.195, 1.360e-6
-1.196, 1.527e-6
-1.197, 1.517e-6
-1.198, 1.320e-6
-1.199, 1.547e-6
-1.200, 1.330e-6
-1.201, 1.488e-6
-1.202, 1.379e-6
-1.203, 1.557e-6
-1.204, 1.508e-6
-1.205, 1.498e-6
-1.206, 1.547e-6
-1.207, 1.547e-6
-1.208, 1.517e-6
-1.209, 1.419e-6
-1.210, 1.547e-6
-1.211, 1.586e-6
-1.212, 1.517e-6
-1.213, 1.557e-6
-1.214, 1.685e-6
-1.215, 1.586e-6
-1.216, 1.606e-6
-1.217, 1.557e-6
-1.218, 1.468e-6
-1.219, 1.636e-6
-1.220, 1.636e-6
-1.221, 1.616e-6
-1.222, 1.675e-6
-1.223, 1.695e-6
-1.224, 1.626e-6
-1.225, 1.744e-6
-1.226, 1.577e-6
-1.227, 1.656e-6
-1.228, 1.715e-6
-1.229, 1.715e-6
-1.230, 1.813e-6
-1.231, 1.823e-6
-1.232, 1.833e-6
-1.233, 1.823e-6
-1.234, 1.971e-6
-1.235, 1.823e-6
-1.236, 1.813e-6
-1.237, 1.912e-6
-1.238, 1.853e-6
-1.239, 1.961e-6
-1.240, 1.961e-6
-1.241, 1.833e-6
-1.242, 1.981e-6
-1.243, 1.951e-6
-1.244, 1.794e-6
-1.245, 2.021e-6
-1.246, 1.922e-6
-1.247, 2.070e-6
-1.248, 1.981e-6
-1.249, 2.070e-6
-1.250, 2.011e-6
-1.251, 2.040e-6
-1.252, 1.942e-6
-1.253, 1.971e-6
-1.254, 2.149e-6
-1.255, 2.090e-6
-1.256, 2.149e-6
-1.257, 2.188e-6
-1.258, 2.050e-6
-1.259, 1.863e-6
-1.260, 2.238e-6
-1.261, 2.139e-6
-1.262, 2.060e-6
-1.263, 2.198e-6
-1.264, 2.169e-6
-1.265, 2.188e-6
-1.266, 2.198e-6
-1.267, 2.159e-6
-1.268, 2.188e-6
-1.269, 2.257e-6
-1.270, 2.228e-6
-1.271, 2.287e-6
-1.272, 2.169e-6
-1.273, 2.238e-6
-1.274, 2.307e-6
-1.275, 2.415e-6
-1.276, 2.435e-6
-1.277, 2.307e-6
-1.278, 2.287e-6
-1.279, 2.386e-6
-1.280, 2.356e-6
-1.281, 2.465e-6
-1.282, 2.435e-6
-1.283, 2.366e-6
-1.284, 2.356e-6
-1.285, 2.425e-6
-1.286, 2.474e-6
-1.287, 2.494e-6
-1.288, 2.405e-6
-1.289, 2.494e-6
-1.290, 2.494e-6
-1.291, 2.593e-6
-1.292, 2.465e-6
-1.293, 2.524e-6
-1.294, 2.632e-6
-1.295, 2.524e-6
-1.296, 2.553e-6
-1.297, 2.494e-6
-1.298, 2.484e-6
-1.299, 2.741e-6
-1.300, 2.514e-6
-1.301, 2.632e-6
-1.302, 2.583e-6
-1.303, 2.593e-6
-1.304, 2.701e-6
-1.305, 2.751e-6
-1.306, 2.721e-6
-1.307, 2.741e-6
-1.308, 2.711e-6
-1.309, 2.760e-6
-1.310, 2.780e-6
-1.311, 2.731e-6
-1.312, 2.889e-6
-1.313, 2.849e-6
-1.314, 2.790e-6
-1.315, 2.810e-6
-1.316, 2.622e-6
-1.317, 2.652e-6
-1.318, 2.830e-6
-1.319, 3.027e-6
-1.320, 2.849e-6
-1.321, 2.968e-6
-1.322, 2.918e-6
-1.323, 2.958e-6
-1.324, 2.938e-6
-1.325, 2.889e-6
-1.326, 3.007e-6
-1.327, 2.948e-6
-1.328, 3.106e-6
-1.329, 2.948e-6
-1.330, 3.056e-6
-1.331, 3.086e-6
-1.332, 3.066e-6
-1.333, 3.165e-6
-1.334, 3.165e-6
-1.335, 3.066e-6
-1.336, 3.096e-6
-1.337, 3.056e-6
-1.338, 3.185e-6
-1.339, 3.165e-6
-1.340, 3.293e-6
-1.341, 3.303e-6
-1.342, 3.155e-6
-1.343, 3.244e-6
-1.344, 3.451e-6
-1.345, 3.352e-6
-1.346, 3.303e-6
-1.347, 3.323e-6
-1.348, 3.500e-6
-1.349, 3.333e-6
-1.350, 3.422e-6
-1.351, 3.412e-6
-1.352, 3.303e-6
-1.353, 3.372e-6
-1.354, 3.451e-6
-1.355, 3.481e-6
-1.356, 3.530e-6
-1.357, 3.500e-6
-1.358, 3.648e-6
-1.359, 3.619e-6
-1.360, 3.570e-6
-1.361, 3.629e-6
-1.362, 3.599e-6
-1.363, 3.589e-6
-1.364, 3.737e-6
-1.365, 3.826e-6
-1.366, 3.678e-6
-1.367, 3.777e-6
-1.368, 3.826e-6
-1.369, 3.816e-6
-1.370, 3.935e-6
-1.371, 3.767e-6
-1.372, 3.885e-6
-1.373, 3.836e-6
-1.374, 3.905e-6
-1.375, 3.994e-6
-1.376, 4.102e-6
-1.377, 4.092e-6
-1.378, 4.053e-6
-1.379, 4.083e-6
-1.380, 3.954e-6
-1.381, 4.102e-6
-1.382, 4.161e-6
-1.383, 4.152e-6
-1.384, 4.250e-6
-1.385, 4.290e-6
-1.386, 4.191e-6
-1.387, 4.290e-6
-1.388, 4.300e-6
-1.389, 4.497e-6
-1.390, 4.428e-6
-1.391, 4.418e-6
-1.392, 4.339e-6
-1.393, 4.398e-6
-1.394, 4.477e-6
-1.395, 4.536e-6
-1.396, 4.605e-6
-1.397, 4.605e-6
-1.398, 4.655e-6
-1.399, 4.694e-6
-1.400, 4.596e-6
-1.401, 4.586e-6
-1.402, 4.813e-6
-1.403, 4.744e-6
-1.404, 4.882e-6
-1.405, 4.773e-6
-1.406, 4.990e-6
-1.407, 4.822e-6
-1.408, 4.872e-6
-1.409, 5.059e-6
-1.410, 4.990e-6
-1.411, 5.040e-6
-1.412, 5.118e-6
-1.413, 5.069e-6
-1.414, 5.247e-6
-1.415, 5.197e-6
-1.416, 5.158e-6
-1.417, 5.326e-6
-1.418, 5.316e-6
-1.419, 5.444e-6
-1.420, 5.375e-6
-1.421, 5.395e-6
-1.422, 5.474e-6
-1.423, 5.513e-6
-1.424, 5.503e-6
-1.425, 5.474e-6
-1.426, 5.631e-6
-1.427, 5.533e-6
-1.428, 5.740e-6
-1.429, 5.908e-6
-1.430, 5.760e-6
-1.431, 5.681e-6
-1.432, 5.779e-6
-1.433, 5.918e-6
-1.434, 6.066e-6
-1.435, 6.085e-6
-1.436, 6.184e-6
-1.437, 6.194e-6
-1.438, 6.174e-6
-1.439, 6.283e-6
-1.440, 6.352e-6
-1.441, 6.411e-6
-1.442, 6.293e-6
-1.443, 6.460e-6
-1.444, 6.628e-6
-1.445, 6.510e-6
-1.446, 6.598e-6
-1.447, 6.697e-6
-1.448, 6.638e-6
-1.449, 6.756e-6
-1.450, 6.628e-6
-1.451, 6.756e-6
-1.452, 6.914e-6
-1.453, 6.855e-6
-1.454, 7.141e-6
-1.455, 6.954e-6
-1.456, 7.013e-6
-1.457, 7.102e-6
-1.458, 7.121e-6
-1.459, 7.161e-6
-1.460, 7.269e-6
-1.461, 7.437e-6
-1.462, 7.417e-6
-1.463, 7.447e-6
-1.464, 7.634e-6
-1.465, 7.526e-6
-1.466, 7.565e-6
-1.467, 7.536e-6
-1.468, 7.753e-6
-1.469, 7.920e-6
-1.470, 7.911e-6
-1.471, 7.871e-6
-1.472, 7.989e-6
-1.473, 8.118e-6
-1.474, 8.137e-6
-1.475, 8.206e-6
-1.476, 8.374e-6
-1.477, 8.295e-6
-1.478, 8.345e-6
-1.479, 8.581e-6
-1.480, 8.433e-6
-1.481, 8.552e-6
-1.482, 8.690e-6
-1.483, 8.710e-6
-1.484, 8.868e-6
-1.485, 8.828e-6
-1.486, 9.065e-6
-1.487, 9.094e-6
-1.488, 9.163e-6
-1.489, 9.420e-6
-1.490, 9.341e-6
-1.491, 9.351e-6
-1.492, 9.371e-6
-1.493, 9.351e-6
-1.494, 9.716e-6
-1.495, 9.755e-6
-1.496, 9.647e-6
-1.497, 9.884e-6
-1.498, 9.894e-6
-1.499, 1.010e-5
-1.500, 1.007e-5
-1.501, 1.024e-5
-1.502, 1.031e-5
-1.503, 1.044e-5
-1.504, 1.048e-5
-1.505, 1.040e-5
-1.506, 1.065e-5
-1.507, 1.080e-5
-1.508, 1.085e-5
-1.509, 1.110e-5
-1.510, 1.111e-5
-1.511, 1.127e-5
-1.512, 1.121e-5
-1.513, 1.146e-5
-1.514, 1.172e-5
-1.515, 1.157e-5
-1.516, 1.170e-5
-1.517, 1.184e-5
-1.518, 1.206e-5
-1.519, 1.215e-5
-1.520, 1.215e-5
-1.521, 1.231e-5
-1.522, 1.235e-5
-1.523, 1.249e-5
-1.524, 1.274e-5
-1.525, 1.281e-5
-1.526, 1.292e-5
-1.527, 1.307e-5
-1.528, 1.309e-5
-1.529, 1.356e-5
-1.530, 1.354e-5
-1.531, 1.360e-5
-1.532, 1.371e-5
-1.533, 1.394e-5
-1.534, 1.414e-5
-1.535, 1.411e-5
-1.536, 1.440e-5
-1.537, 1.456e-5
-1.538, 1.481e-5
-1.539, 1.492e-5
-1.540, 1.490e-5
-1.541, 1.521e-5
-1.542, 1.538e-5
-1.543, 1.561e-5
-1.544, 1.580e-5
-1.545, 1.584e-5
-1.546, 1.618e-5
-1.547, 1.630e-5
-1.548, 1.649e-5
-1.549, 1.684e-5
-1.550, 1.690e-5
-1.551, 1.714e-5
-1.552, 1.735e-5
-1.553, 1.763e-5
-1.554, 1.788e-5
-1.555, 1.811e-5
-1.556, 1.832e-5
-1.557, 1.847e-5
-1.558, 1.883e-5
-1.559, 1.905e-5
-1.560, 1.927e-5
-1.561, 1.953e-5
-1.562, 1.993e-5
-1.563, 2.014e-5
-1.564, 2.041e-5
-1.565, 2.066e-5
-1.566, 2.092e-5
-1.567, 2.129e-5
-1.568, 2.152e-5
-1.569, 2.196e-5
-1.570, 2.213e-5
-1.571, 2.245e-5
-1.572, 2.286e-5
-1.573, 2.311e-5
-1.574, 2.353e-5
-1.575, 2.395e-5
-1.576, 2.407e-5
-1.577, 2.462e-5
-1.578, 2.496e-5
-1.579, 2.528e-5
-1.580, 2.572e-5
-1.581, 2.624e-5
-1.582, 2.659e-5
-1.583, 2.689e-5
-1.584, 2.757e-5
-1.585, 2.777e-5
-1.586, 2.827e-5
-1.587, 2.870e-5
-1.588, 2.925e-5
-1.589, 2.975e-5
-1.590, 3.026e-5
-1.591, 3.087e-5
-1.592, 3.118e-5
-1.593, 3.187e-5
-1.594, 3.249e-5
-1.595, 3.286e-5
-1.596, 3.350e-5
-1.597, 3.415e-5
-1.598, 3.475e-5
-1.599, 3.547e-5
-1.600, 3.614e-5
-1.601, 3.665e-5
-1.602, 3.736e-5
-1.603, 3.813e-5
-1.604, 3.883e-5
-1.605, 3.955e-5
-1.606, 4.027e-5
-1.607, 4.104e-5
-1.608, 4.180e-5
-1.609, 4.274e-5
-1.610, 4.338e-5
-1.611, 4.437e-5
-1.612, 4.524e-5
-1.613, 4.630e-5
-1.614, 4.732e-5
-1.615, 4.833e-5
-1.616, 4.930e-5
-1.617, 5.019e-5
-1.618, 5.133e-5
-1.619, 5.236e-5
-1.620, 5.336e-5
-1.621, 5.429e-5
-1.622, 5.557e-5
-1.623, 5.665e-5
-1.624, 5.786e-5
-1.625, 5.912e-5
-1.626, 6.055e-5
-1.627, 6.160e-5
-1.628, 6.287e-5
-1.629, 6.426e-5
-1.630, 6.570e-5
-1.631, 6.715e-5
-1.632, 6.866e-5
-1.633, 7.008e-5
-1.634, 7.169e-5
-1.635, 7.330e-5
-1.636, 7.500e-5
-1.637, 7.646e-5
-1.638, 7.841e-5
-1.639, 8.038e-5
-1.640, 8.222e-5
-1.641, 8.397e-5
-1.642, 8.594e-5
-1.643, 8.792e-5
-1.644, 8.999e-5
-1.645, 9.207e-5
-1.646, 9.415e-5
-1.647, 9.638e-5
-1.648, 9.869e-5
-1.649, 1.012e-4
-1.650, 1.035e-4
-1.651, 1.061e-4
-1.652, 1.085e-4
-1.653, 1.111e-4
-1.654, 1.137e-4
-1.655, 1.166e-4
-1.656, 1.194e-4
-1.657, 1.226e-4
-1.658, 1.254e-4
-1.659, 1.288e-4
-1.660, 1.316e-4
-1.661, 1.350e-4
-1.662, 1.383e-4
-1.663, 1.419e-4
-1.664, 1.456e-4
-1.665, 1.492e-4
-1.666, 1.530e-4
-1.667, 1.568e-4
-1.668, 1.610e-4
-1.669, 1.650e-4
-1.670, 1.692e-4
-1.671, 1.734e-4
-1.672, 1.779e-4
-1.673, 1.824e-4
-1.674, 1.872e-4
-1.675, 1.918e-4
-1.676, 1.967e-4
-1.677, 2.018e-4
-1.678, 2.070e-4
-1.679, 2.123e-4
-1.680, 2.177e-4
-1.681, 2.233e-4
-1.682, 2.291e-4
-1.683, 2.352e-4
-1.684, 2.414e-4
-1.685, 2.477e-4
-1.686, 2.548e-4
-1.687, 2.609e-4
-1.688, 2.679e-4
-1.689, 2.751e-4
-1.690, 2.823e-4
-1.691, 2.899e-4
-1.692, 2.975e-4
-1.693, 3.054e-4
-1.694, 3.135e-4
-1.695, 3.219e-4
-1.696, 3.305e-4
-1.697, 3.392e-4
-1.698, 3.483e-4
-1.699, 3.575e-4
-1.700, 3.669e-4
-1.701, 3.768e-4
-1.702, 3.869e-4
-1.703, 3.973e-4
-1.704, 4.080e-4
-1.705, 4.185e-4
-1.706, 4.299e-4
-1.707, 4.409e-4
-1.708, 4.530e-4
-1.709, 4.653e-4
-1.710, 4.776e-4
-1.711, 4.902e-4
-1.712, 5.034e-4
-1.713, 5.167e-4
-1.714, 5.304e-4
-1.715, 5.446e-4
-1.716, 5.593e-4
-1.717, 5.740e-4
-1.718, 5.892e-4
-1.719, 6.045e-4
-1.720, 6.201e-4
-1.721, 6.364e-4
-1.722, 6.530e-4
-1.723, 6.706e-4
-1.724, 6.877e-4
-1.725, 7.061e-4
-1.726, 7.246e-4
-1.727, 7.436e-4
-1.728, 7.629e-4
-1.729, 7.835e-4
-1.730, 8.032e-4
-1.731, 8.236e-4
-1.732, 8.456e-4
-1.733, 8.666e-4
-1.734, 8.899e-4
-1.735, 9.118e-4
-1.736, 9.352e-4
-1.737, 9.583e-4
-1.738, 9.832e-4
-1.739, 1.007e-3
-1.740, 1.033e-3
-1.741, 1.058e-3
-1.742, 1.085e-3
-1.743, 1.112e-3
-1.744, 1.139e-3
-1.745, 1.168e-3
-1.746, 1.195e-3
-1.747, 1.224e-3
-1.748, 1.253e-3
-1.749, 1.283e-3
-1.750, 1.314e-3
-1.751, 1.346e-3
-1.752, 1.378e-3
-1.753, 1.411e-3
-1.754, 1.444e-3
-1.755, 1.476e-3
-1.756, 1.512e-3
-1.757, 1.545e-3
-1.758, 1.582e-3
-1.759, 1.618e-3
-1.760, 1.656e-3
-1.761, 1.694e-3
-1.762, 1.730e-3
-1.763, 1.770e-3
-1.764, 1.807e-3
-1.765, 1.849e-3
-1.766, 1.890e-3
-1.767, 1.931e-3
-1.768, 1.972e-3
-1.769, 2.016e-3
-1.770, 2.057e-3
-1.771, 2.100e-3
-1.772, 2.145e-3
-1.773, 2.187e-3
-1.774, 2.233e-3
-1.775, 2.278e-3
-1.776, 2.323e-3
-1.777, 2.374e-3
-1.778, 2.417e-3
-1.779, 2.469e-3
-1.780, 2.516e-3
-1.781, 2.566e-3
-1.782, 2.613e-3
-1.783, 2.663e-3
-1.784, 2.715e-3
-1.785, 2.763e-3
-1.786, 2.816e-3
-1.787, 2.863e-3
-1.788, 2.920e-3
-1.789, 2.970e-3
-1.790, 3.024e-3
-1.791, 3.076e-3
-1.792, 3.130e-3
-1.793, 3.188e-3
-1.794, 3.239e-3
-1.795, 3.299e-3
-1.796, 3.353e-3
-1.797, 3.411e-3
-1.798, 3.469e-3
-1.799, 3.521e-3
-1.800, 3.562e-3
-1.799, 3.551e-3
-1.798, 3.539e-3
-1.797, 3.526e-3
-1.796, 3.509e-3
-1.795, 3.494e-3
-1.794, 3.474e-3
-1.793, 3.455e-3
-1.792, 3.432e-3
-1.791, 3.415e-3
-1.790, 3.393e-3
-1.789, 3.370e-3
-1.788, 3.346e-3
-1.787, 3.322e-3
-1.786, 3.299e-3
-1.785, 3.274e-3
-1.784, 3.249e-3
-1.783, 3.226e-3
-1.782, 3.193e-3
-1.781, 3.174e-3
-1.780, 3.143e-3
-1.779, 3.116e-3
-1.778, 3.092e-3
-1.777, 3.060e-3
-1.776, 3.038e-3
-1.775, 3.005e-3
-1.774, 2.981e-3
-1.773, 2.953e-3
-1.772, 2.922e-3
-1.771, 2.901e-3
-1.770, 2.874e-3
-1.769, 2.849e-3
-1.768, 2.822e-3
-1.767, 2.795e-3
-1.766, 2.770e-3
-1.765, 2.742e-3
-1.764, 2.715e-3
-1.763, 2.687e-3
-1.762, 2.657e-3
-1.761, 2.630e-3
-1.760, 2.602e-3
-1.759, 2.577e-3
-1.758, 2.546e-3
-1.757, 2.522e-3
-1.756, 2.495e-3
-1.755, 2.467e-3
-1.754, 2.443e-3
-1.753, 2.414e-3
-1.752, 2.391e-3
-1.751, 2.360e-3
-1.750, 2.336e-3
-1.749, 2.310e-3
-1.748, 2.282e-3
-1.747, 2.255e-3
-1.746, 2.228e-3
-1.745, 2.202e-3
-1.744, 2.177e-3
-1.743, 2.151e-3
-1.742, 2.129e-3
-1.741, 2.102e-3
-1.740, 2.078e-3
-1.739, 2.053e-3
-1.738, 2.028e-3
-1.737, 2.006e-3
-1.736, 1.980e-3
-1.735, 1.957e-3
-1.734, 1.932e-3
-1.733, 1.910e-3
-1.732, 1.886e-3
-1.731, 1.864e-3
-1.730, 1.842e-3
-1.729, 1.819e-3
-1.728, 1.794e-3
-1.727, 1.774e-3
-1.726, 1.749e-3
-1.725, 1.726e-3
-1.724, 1.705e-3
-1.723, 1.681e-3
-1.722, 1.661e-3
-1.721, 1.637e-3
-1.720, 1.617e-3
-1.719, 1.595e-3
-1.718, 1.573e-3
-1.717, 1.552e-3
-1.716, 1.531e-3
-1.715, 1.510e-3
-1.714, 1.490e-3
-1.713, 1.469e-3
-1.712, 1.448e-3
-1.711, 1.429e-3
-1.710, 1.409e-3
-1.709, 1.389e-3
-1.708, 1.369e-3
-1.707, 1.350e-3
-1.706, 1.331e-3
-1.705, 1.311e-3
-1.704, 1.293e-3
-1.703, 1.275e-3
-1.702, 1.257e-3
-1.701, 1.238e-3
-1.700, 1.221e-3
-1.699, 1.203e-3
-1.698, 1.186e-3
-1.697, 1.168e-3
-1.696, 1.151e-3
-1.695, 1.135e-3
-1.694, 1.117e-3
-1.693, 1.100e-3
-1.692, 1.084e-3
-1.691, 1.068e-3
-1.690, 1.051e-3
-1.689, 1.035e-3
-1.688, 1.020e-3
-1.687, 1.005e-3
-1.686, 9.893e-4
-1.685, 9.735e-4
-1.684, 9.589e-4
-1.683, 9.439e-4
-1.682, 9.295e-4
-1.681, 9.150e-4
-1.680, 9.000e-4
-1.679, 8.853e-4
-1.678, 8.706e-4
-1.677, 8.554e-4
-1.676, 8.432e-4
-1.675, 8.279e-4
-1.674, 8.151e-4
-1.673, 8.010e-4
-1.672, 7.879e-4
-1.671, 7.748e-4
-1.670, 7.618e-4
-1.669, 7.496e-4
-1.668, 7.367e-4
-1.667, 7.246e-4
-1.666, 7.123e-4
-1.665, 7.007e-4
-1.664, 6.887e-4
-1.663, 6.773e-4
-1.662, 6.654e-4
-1.661, 6.537e-4
-1.660, 6.427e-4
-1.659, 6.313e-4
-1.658, 6.206e-4
-1.657, 6.098e-4
-1.656, 5.996e-4
-1.655, 5.891e-4
-1.654, 5.792e-4
-1.653, 5.690e-4
-1.652, 5.588e-4
-1.651, 5.491e-4
-1.650, 5.390e-4
-1.649, 5.296e-4
-1.648, 5.200e-4
-1.647, 5.104e-4
-1.646, 5.014e-4
-1.645, 4.922e-4
-1.644, 4.832e-4
-1.643, 4.742e-4
-1.642, 4.658e-4
-1.641, 4.571e-4
-1.640, 4.488e-4
-1.639, 4.402e-4
-1.638, 4.320e-4
-1.637, 4.240e-4
-1.636, 4.165e-4
-1.635, 4.087e-4
-1.634, 4.010e-4
-1.633, 3.937e-4
-1.632, 3.863e-4
-1.631, 3.788e-4
-1.630, 3.716e-4
-1.629, 3.644e-4
-1.628, 3.573e-4
-1.627, 3.507e-4
-1.626, 3.436e-4
-1.625, 3.373e-4
-1.624, 3.306e-4
-1.623, 3.241e-4
-1.622, 3.177e-4
-1.621, 3.112e-4
-1.620, 3.051e-4
-1.619, 2.992e-4
-1.618, 2.932e-4
-1.617, 2.875e-4
-1.616, 2.818e-4
-1.615, 2.762e-4
-1.614, 2.708e-4
-1.613, 2.649e-4
-1.612, 2.601e-4
-1.611, 2.547e-4
-1.610, 2.495e-4
-1.609, 2.446e-4
-1.608, 2.395e-4
-1.607, 2.349e-4
-1.606, 2.299e-4
-1.605, 2.252e-4
-1.604, 2.209e-4
-1.603, 2.161e-4
-1.602, 2.118e-4
-1.601, 2.075e-4
-1.600, 2.032e-4
-1.599, 1.990e-4
-1.598, 1.948e-4
-1.597, 1.909e-4
-1.596, 1.869e-4
-1.595, 1.828e-4
-1.594, 1.790e-4
-1.593, 1.753e-4
-1.592, 1.716e-4
-1.591, 1.677e-4
-1.590, 1.643e-4
-1.589, 1.610e-4
-1.588, 1.574e-4
-1.587, 1.540e-4
-1.586, 1.508e-4
-1.585, 1.474e-4
-1.584, 1.443e-4
-1.583, 1.412e-4
-1.582, 1.381e-4
-1.581, 1.352e-4
-1.580, 1.320e-4
-1.579, 1.293e-4
-1.578, 1.265e-4
-1.577, 1.236e-4
-1.576, 1.209e-4
-1.575, 1.184e-4
-1.574, 1.157e-4
-1.573, 1.133e-4
-1.572, 1.107e-4
-1.571, 1.082e-4
-1.570, 1.058e-4
-1.569, 1.035e-4
-1.568, 1.012e-4
-1.567, 9.886e-5
-1.566, 9.669e-5
-1.565, 9.459e-5
-1.564, 9.250e-5
-1.563, 9.038e-5
-1.562, 8.830e-5
-1.561, 8.632e-5
-1.560, 8.425e-5
-1.559, 8.243e-5
-1.558, 8.063e-5
-1.557, 7.885e-5
-1.556, 7.703e-5
-1.555, 7.525e-5
-1.554, 7.345e-5
-1.553, 7.186e-5
-1.552, 7.020e-5
-1.551, 6.862e-5
-1.550, 6.692e-5
-1.549, 6.540e-5
-1.548, 6.400e-5
-1.547, 6.245e-5
-1.546, 6.099e-5
-1.545, 5.948e-5
-1.544, 5.827e-5
-1.543, 5.708e-5
-1.542, 5.542e-5
-1.541, 5.414e-5
-1.540, 5.287e-5
-1.539, 5.177e-5
-1.538, 5.059e-5
-1.537, 4.935e-5
-1.536, 4.805e-5
-1.535, 4.696e-5
-1.534, 4.585e-5
-1.533, 4.482e-5
-1.532, 4.362e-5
-1.531, 4.273e-5
-1.530, 4.172e-5
-1.529, 4.054e-5
-1.528, 3.972e-5
-1.527, 3.877e-5
-1.526, 3.790e-5
-1.525, 3.701e-5
-1.524, 3.612e-5
-1.523, 3.513e-5
-1.522, 3.434e-5
-1.521, 3.351e-5
-1.520, 3.260e-5
-1.519, 3.183e-5
-1.518, 3.118e-5
-1.517, 3.040e-5
-1.516, 2.972e-5
-1.515, 2.887e-5
-1.514, 2.821e-5
-1.513, 2.751e-5
-1.512, 2.684e-5
-1.511, 2.616e-5
-1.510, 2.562e-5
-1.509, 2.499e-5
-1.508, 2.442e-5
-1.507, 2.374e-5
-1.506, 2.323e-5
-1.505, 2.265e-5
-1.504, 2.195e-5
-1.503, 2.157e-5
-1.502, 2.101e-5
-1.501, 2.050e-5
-1.500, 2.010e-5
-1.499, 1.943e-5
-1.498, 1.898e-5
-1.497, 1.855e-5
-1.496, 1.803e-5
-1.495, 1.753e-5
-1.494, 1.718e-5
-1.493, 1.690e-5
-1.492, 1.634e-5
-1.491, 1.584e-5
-1.490, 1.551e-5
-1.489, 1.519e-5
-1.488, 1.487e-5
-1.487, 1.452e-5
-1.486, 1.406e-5
-1.485, 1.362e-5
-1.484, 1.327e-5
-1.483, 1.310e-5
-1.482, 1.260e-5
-1.481, 1.247e-5
-1.480, 1.209e-5
-1.479, 1.161e-5
-1.478, 1.149e-5
-1.477, 1.129e-5
-1.476, 1.097e-5
-1.475, 1.067e-5
-1.474, 1.038e-5
-1.473, 1.015e-5
-1.472, 9.844e-6
-1.471, 9.499e-6
-1.470, 9.213e-6
-1.469, 9.114e-6
-1.468, 8.976e-6
-1.467, 8.729e-6
-1.466, 8.572e-6
-1.465, 8.246e-6
-1.464, 8.029e-6
-1.463, 7.901e-6
-1.462, 7.644e-6
-1.461, 7.417e-6
-1.460, 7.190e-6
-1.459, 6.983e-6
-1.458, 6.884e-6
-1.457, 6.658e-6
-1.456, 6.608e-6
-1.455, 6.223e-6
-1.454, 6.095e-6
-1.453, 6.046e-6
-1.452, 5.789e-6
-1.451, 5.760e-6
-1.450, 5.513e-6
-1.449, 5.326e-6
-1.448, 5.405e-6
-1.447, 5.059e-6
-1.446, 4.862e-6
-1.445, 4.793e-6
-1.444, 4.744e-6
-1.443, 4.694e-6
-1.442, 4.477e-6
-1.441, 4.359e-6
-1.440, 4.152e-6
-1.439, 4.181e-6
-1.438, 4.092e-6
-1.437, 3.856e-6
-1.436, 3.777e-6
-1.435, 3.619e-6
-1.434, 3.451e-6
-1.433, 3.323e-6
-1.432, 3.254e-6
-1.431, 3.244e-6
-1.430, 3.106e-6
-1.429, 3.017e-6
-1.428, 3.047e-6
-1.427, 2.760e-6
-1.426, 2.780e-6
-1.425, 2.682e-6
-1.424, 2.662e-6
-1.423, 2.445e-6
-1.422, 2.376e-6
-1.421, 2.277e-6
-1.420, 2.178e-6
-1.419, 2.090e-6
-1.418, 2.257e-6
-1.417, 1.942e-6
-1.416, 1.981e-6
-1.415, 1.971e-6
-1.414, 1.705e-6
-1.413, 1.803e-6
-1.412, 1.626e-6
-1.411, 1.685e-6
-1.410, 1.527e-6
-1.409, 1.517e-6
-1.408, 1.646e-6
-1.407, 1.281e-6
-1.406, 1.350e-6
-1.405, 1.162e-6
-1.404, 1.241e-6
-1.403, 1.310e-6
-1.402, 1.212e-6
-1.401, 1.064e-6
-1.400, 1.093e-6
-1.399, 9.057e-7
-1.398, 1.004e-6
-1.397, 7.873e-7
-1.396, 8.761e-7
-1.395, 7.084e-7
-1.394, 6.985e-7
-1.393, 8.465e-7
-1.392, 5.998e-7
-1.391, 6.492e-7
-1.390, 5.012e-7
-1.389, 5.209e-7
-1.388, 4.321e-7
-1.387, 6.097e-7
-1.386, 4.815e-7
-1.385, 2.841e-7
-1.384, 4.223e-7
-1.383, 1.657e-7
-1.382, 1.263e-7
-1.381, 3.749e-8
-1.380, 1.263e-7
-1.379, 4.736e-8
-1.378, 2.052e-7
-1.377, -6.117e-8
-1.376, -2.171e-8
-1.375, -8.090e-8
-1.374, -3.157e-8
-1.373, -6.117e-8
-1.372, -1.697e-7
-1.371, 2.762e-8
-1.370, -1.697e-7
-1.369, -1.993e-7
-1.368, -2.486e-7
-1.367, -3.966e-7
-1.366, -3.374e-7
-1.365, -2.585e-7
-1.364, -2.881e-7
-1.363, -2.782e-7
-1.362, -3.966e-7
-1.361, -2.782e-7
-1.360, -4.065e-7
-1.359, -4.163e-7
-1.358, -2.881e-7
-1.357, -4.755e-7
-1.356, -6.926e-7
-1.355, -5.545e-7
-1.354, -5.249e-7
-1.353, -5.347e-7
-1.352, -6.433e-7
-1.351, -5.347e-7
-1.350, -6.235e-7
-1.349, -7.321e-7
-1.348, -4.459e-7
-1.347, -7.518e-7
-1.346, -7.715e-7
-1.345, -6.531e-7
-1.344, -7.123e-7
-1.343, -5.939e-7
-1.342, -9.688e-7
-1.341, -8.504e-7
-1.340, -7.912e-7
-1.339, -9.392e-7
-1.338, -6.531e-7
-1.337, -7.617e-7
-1.336, -8.406e-7
-1.335, -8.110e-7
-1.334, -8.899e-7
-1.333, -8.110e-7
-1.332, -8.998e-7
-1.331, -9.984e-7
-1.330, -9.392e-7
-1.329, -1.028e-6
-1.328, -9.096e-7
-1.327, -1.008e-6
-1.326, -1.127e-6
-1.325, -1.087e-6
-1.324, -1.097e-6
-1.323, -1.018e-6
-1.322, -1.038e-6
-1.321, -1.117e-6
-1.320, -1.038e-6
-1.319, -1.018e-6
-1.318, -1.146e-6
-1.317, -1.324e-6
-1.316, -1.275e-6
-1.315, -1.097e-6
-1.314, -1.225e-6
-1.313, -1.117e-6
-1.312, -1.285e-6
-1.311, -1.275e-6
-1.310, -1.314e-6
-1.309, -1.245e-6
-1.308, -1.235e-6
-1.307, -1.304e-6
-1.306, -1.294e-6
-1.305, -1.403e-6
-1.304, -1.363e-6
-1.303, -1.215e-6
-1.302, -1.413e-6
-1.301, -1.502e-6
-1.300, -1.354e-6
-1.299, -1.433e-6
-1.298, -1.314e-6
-1.297, -1.442e-6
-1.296, -1.433e-6
-1.295, -1.423e-6
-1.294, -1.423e-6
-1.293, -1.344e-6
-1.292, -1.521e-6
-1.291, -1.442e-6
-1.290, -1.531e-6
-1.289, -1.452e-6
-1.288, -1.344e-6
-1.287, -1.571e-6
-1.286, -1.492e-6
-1.285, -1.511e-6
-1.284, -1.561e-6
-1.283, -1.433e-6
-1.282, -1.600e-6
-1.281, -1.511e-6
-1.280, -1.590e-6
-1.279, -1.590e-6
-1.278, -1.551e-6
-1.277, -1.620e-6
-1.276, -1.778e-6
-1.275, -1.669e-6
-1.274, -1.581e-6
-1.273, -1.581e-6
-1.272, -1.590e-6
-1.271, -1.571e-6
-1.270, -1.650e-6
-1.269, -1.669e-6
-1.268, -1.689e-6
-1.267, -1.798e-6
-1.266, -1.847e-6
-1.265, -1.729e-6
-1.264, -1.620e-6
-1.263, -1.679e-6
-1.262, -1.650e-6
-1.261, -1.768e-6
-1.260, -1.610e-6
-1.259, -1.640e-6
-1.258, -1.610e-6
-1.257, -1.768e-6
-1.256, -1.669e-6
-1.255, -1.778e-6
-1.254, -1.798e-6
-1.253, -1.699e-6
-1.252, -1.807e-6
-1.251, -1.867e-6
-1.250, -1.798e-6
-1.249, -1.817e-6
-1.248, -1.827e-6
-1.247, -1.916e-6
-1.246, -1.778e-6
-1.245, -1.827e-6
-1.244, -1.837e-6
-1.243, -1.778e-6
-1.242, -1.877e-6
-1.241, -1.975e-6
-1.240, -2.015e-6
-1.239, -1.906e-6
-1.238, -1.857e-6
-1.237, -1.965e-6
-1.236, -1.837e-6
-1.235, -1.926e-6
-1.234, -1.807e-6
-1.233, -1.886e-6
-1.232, -2.044e-6
-1.231, -1.886e-6
-1.230, -1.847e-6
-1.229, -1.965e-6
-1.228, -1.975e-6
-1.227, -2.064e-6
-1.226, -1.985e-6
-1.225, -1.916e-6
-1.224, -2.044e-6
-1.223, -1.995e-6
-1.222, -2.064e-6
-1.221, -1.946e-6
-1.220, -2.044e-6
-1.219, -2.034e-6
-1.218, -2.015e-6
-1.217, -2.005e-6
-1.216, -2.242e-6
-1.215, -2.064e-6
-1.214, -2.044e-6
-1.213, -1.946e-6
-1.212, -2.094e-6
-1.211, -2.084e-6
-1.210, -2.172e-6
-1.209, -2.123e-6
-1.208, -1.975e-6
-1.207, -2.113e-6
-1.206, -2.153e-6
-1.205, -2.172e-6
-1.204, -2.034e-6
-1.203, -2.005e-6
-1.202, -2.261e-6
-1.201, -2.113e-6
-1.200, -2.301e-6
-1.199, -2.064e-6
-1.198, -2.271e-6
-1.197, -2.360e-6
-1.196, -2.350e-6
-1.195, -2.281e-6
-1.194, -2.192e-6
-1.193, -2.222e-6
-1.192, -2.172e-6
-1.191, -2.251e-6
-1.190, -2.301e-6
-1.189, -2.311e-6
-1.188, -2.202e-6
-1.187, -2.251e-6
-1.186, -2.153e-6
-1.185, -2.261e-6
-1.184, -2.320e-6
-1.183, -2.301e-6
-1.182, -2.301e-6
-1.181, -2.380e-6
-1.180, -2.370e-6
-1.179, -2.399e-6
-1.178, -2.271e-6
-1.177, -2.370e-6
-1.176, -2.409e-6
-1.175, -2.468e-6
-1.174, -2.360e-6
-1.173, -2.360e-6
-1.172, -2.399e-6
-1.171, -2.449e-6
-1.170, -2.439e-6
-1.169, -2.301e-6
-1.168, -2.311e-6
-1.167, -2.370e-6
-1.166, -2.409e-6
-1.165, -2.518e-6
-1.164, -2.311e-6
-1.163, -2.439e-6
-1.162, -2.409e-6
-1.161, -2.518e-6
-1.160, -2.518e-6
-1.159, -2.459e-6
-1.158, -2.468e-6
-1.157, -2.567e-6
-1.156, -2.350e-6
-1.155, -2.488e-6
-1.154, -2.478e-6
-1.153, -2.439e-6
-1.152, -2.695e-6
-1.151, -2.636e-6
-1.150, -2.528e-6
-1.149, -2.478e-6
-1.148, -2.488e-6
-1.147, -2.518e-6
-1.146, -2.666e-6
-1.145, -2.616e-6
-1.144, -2.636e-6
-1.143, -2.508e-6
-1.142, -2.577e-6
-1.141, -2.557e-6
-1.140, -2.577e-6
-1.139, -2.656e-6
-1.138, -2.528e-6
-1.137, -2.814e-6
-1.136, -2.686e-6
-1.135, -2.676e-6
-1.134, -2.695e-6
-1.133, -2.626e-6
-1.132, -2.764e-6
-1.131, -2.695e-6
-1.130, -2.695e-6
-1.129, -2.715e-6
-1.128, -2.607e-6
-1.127, -2.764e-6
-1.126, -2.715e-6
-1.125, -2.794e-6
-1.124, -2.863e-6
-1.123, -2.774e-6
-1.122, -2.834e-6
-1.121, -2.745e-6
-1.120, -2.784e-6
-1.119, -2.873e-6
-1.118, -2.725e-6
-1.117, -2.873e-6
-1.116, -2.784e-6
-1.115, -2.774e-6
-1.114, -2.764e-6
-1.113, -2.814e-6
-1.112, -2.903e-6
-1.111, -2.962e-6
-1.110, -2.912e-6
-1.109, -2.814e-6
-1.108, -2.873e-6
-1.107, -2.932e-6
-1.106, -2.932e-6
-1.105, -2.903e-6
-1.104, -2.912e-6
-1.103, -2.972e-6
-1.102, -2.981e-6
-1.101, -2.952e-6
-1.100, -3.080e-6
-1.099, -2.942e-6
-1.098, -2.972e-6
-1.097, -3.051e-6
-1.096, -3.080e-6
-1.095, -3.208e-6
-1.094, -3.070e-6
-1.093, -3.031e-6
-1.092, -3.070e-6
-1.091, -3.070e-6
-1.090, -3.149e-6
-1.089, -3.001e-6
-1.088, -3.041e-6
-1.087, -3.189e-6
-1.086, -3.011e-6
-1.085, -3.100e-6
-1.084, -3.159e-6
-1.083, -3.169e-6
-1.082, -3.317e-6
-1.081, -3.120e-6
-1.080, -3.100e-6
-1.079, -3.149e-6
-1.078, -3.129e-6
-1.077, -3.189e-6
-1.076, -3.327e-6
-1.075, -3.356e-6
-1.074, -3.287e-6
-1.073, -3.228e-6
-1.072, -3.277e-6
-1.071, -3.366e-6
-1.070, -3.337e-6
-1.069, -3.396e-6
-1.068, -3.376e-6
-1.067, -3.337e-6
-1.066, -3.366e-6
-1.065, -3.317e-6
-1.064, -3.416e-6
-1.063, -3.465e-6
-1.062, -3.504e-6
-1.061, -3.465e-6
-1.060, -3.465e-6
-1.059, -3.416e-6
-1.058, -3.386e-6
-1.057, -3.485e-6
-1.056, -3.544e-6
-1.055, -3.633e-6
-1.054, -3.356e-6
-1.053, -3.643e-6
-1.052, -3.425e-6
-1.051, -3.455e-6
-1.050, -3.633e-6
-1.049, -3.573e-6
-1.048, -3.583e-6
-1.047, -3.731e-6
-1.046, -3.692e-6
-1.045, -3.573e-6
-1.044, -3.643e-6
-1.043, -3.613e-6
-1.042, -3.741e-6
-1.041, -3.672e-6
-1.040, -3.712e-6
-1.039, -3.702e-6
-1.038, -3.672e-6
-1.037, -3.682e-6
-1.036, -3.840e-6
-1.035, -3.869e-6
-1.034, -3.781e-6
-1.033, -3.790e-6
-1.032, -3.879e-6
-1.031, -3.810e-6
-1.030, -3.879e-6
-1.029, -3.820e-6
-1.028, -3.840e-6
-1.027, -3.919e-6
-1.026, -3.889e-6
-1.025, -3.948e-6
-1.024, -3.998e-6
-1.023, -3.958e-6
-1.022, -3.948e-6
-1.021, -4.037e-6
-1.020, -4.067e-6
-1.019, -3.978e-6
-1.018, -3.988e-6
-1.017, -4.156e-6
-1.016, -4.165e-6
-1.015, -4.116e-6
-1.014, -4.027e-6
-1.013, -3.948e-6
-1.012, -4.205e-6
-1.011, -4.284e-6
-1.010, -4.225e-6
-1.009, -4.156e-6
-1.008, -4.264e-6
-1.007, -4.136e-6
-1.006, -4.195e-6
-1.005, -4.304e-6
-1.004, -4.442e-6
-1.003, -4.254e-6
-1.002, -4.363e-6
-1.001, -4.294e-6
