Sept. 25, 2024   12:36:41
Chronoamperometry
File: c:/users/guazh/data/20240922_batch_417_500/2024-09-22-exp444\pre-regen-2024-09-25t12_12_45-lsvinphos\ca_2024-09-25t12_33_34.bin
Data Source:  Experiment
Instrument Model:  CHI760E
Header: CA
Note: 

Init E (V) = 1
High E (V) = 1
Low E (V) = -1.5
Init P/N = N
Step = 181
Pulse Width (sec) = 1
Sample Interval (s) = 0.1
Quiet Time (sec) = 2
Sensitivity (A/V) = 0.001

Results:

Channel 1:
Forward:
Slp = 6.975e-3
Int = -1.541e-3
Cor = 0.92851

Reverse:
Slp = -2.828e-3
Int = -5.867e-3
Cor = -0.95315

Time/sec, Current/A

1.000e-1, 1.011e-2
2.000e-1, 1.011e-2
3.000e-1, 1.011e-2
4.000e-1, 1.004e-2
5.000e-1, 8.919e-3
6.000e-1, 8.154e-3
7.000e-1, 7.414e-3
8.000e-1, 6.505e-3
9.000e-1, 5.394e-3
1.000e+0, 4.233e-3
1.100e+0, -8.650e-3
1.200e+0, -8.843e-3
1.300e+0, -8.313e-3
1.400e+0, -8.020e-3
1.500e+0, -7.755e-3
1.600e+0, -7.498e-3
1.700e+0, -7.234e-3
1.800e+0, -6.960e-3
1.900e+0, -6.671e-3
2.000e+0, -6.382e-3
2.100e+0, 8.443e-3
2.200e+0, 1.011e-2
2.300e+0, 9.906e-3
2.400e+0, 8.539e-3
2.500e+0, 7.711e-3
2.600e+0, 6.781e-3
2.700e+0, 5.481e-3
2.800e+0, 4.242e-3
2.900e+0, 3.147e-3
3.000e+0, 2.491e-3
3.100e+0, -8.727e-3
3.200e+0, -8.596e-3
3.300e+0, -7.889e-3
3.400e+0, -7.467e-3
3.500e+0, -7.078e-3
3.600e+0, -6.733e-3
3.700e+0, -6.413e-3
3.800e+0, -6.108e-3
3.900e+0, -5.799e-3
4.000e+0, -5.444e-3
4.100e+0, 8.548e-3
4.200e+0, 1.011e-2
4.300e+0, 9.957e-3
4.400e+0, 8.505e-3
4.500e+0, 7.447e-3
4.600e+0, 6.392e-3
4.700e+0, 5.200e-3
4.800e+0, 4.154e-3
4.900e+0, 3.189e-3
5.000e+0, 2.424e-3
5.100e+0, -8.753e-3
5.200e+0, -8.551e-3
5.300e+0, -7.740e-3
5.400e+0, -7.295e-3
5.500e+0, -6.926e-3
5.600e+0, -6.590e-3
5.700e+0, -6.268e-3
5.800e+0, -5.940e-3
5.900e+0, -5.589e-3
6.000e+0, -5.200e-3
6.100e+0, 8.574e-3
6.200e+0, 1.011e-2
6.300e+0, 1.005e-2
6.400e+0, 8.353e-3
6.500e+0, 7.100e-3
6.600e+0, 6.080e-3
6.700e+0, 4.957e-3
6.800e+0, 3.930e-3
6.900e+0, 2.992e-3
7.000e+0, 2.292e-3
7.100e+0, -8.757e-3
7.200e+0, -8.567e-3
7.300e+0, -7.750e-3
7.400e+0, -7.277e-3
7.500e+0, -6.904e-3
7.600e+0, -6.552e-3
7.700e+0, -6.206e-3
7.800e+0, -5.849e-3
7.900e+0, -5.458e-3
8.000e+0, -5.029e-3
8.100e+0, 8.595e-3
8.200e+0, 1.011e-2
8.300e+0, 1.009e-2
8.400e+0, 8.325e-3
8.500e+0, 6.778e-3
8.600e+0, 5.639e-3
8.700e+0, 4.485e-3
8.800e+0, 3.424e-3
8.900e+0, 2.587e-3
9.000e+0, 2.035e-3
9.100e+0, -8.769e-3
9.200e+0, -8.591e-3
9.300e+0, -7.794e-3
9.400e+0, -7.260e-3
9.500e+0, -6.858e-3
9.600e+0, -6.475e-3
9.700e+0, -6.094e-3
9.800e+0, -5.692e-3
9.900e+0, -5.255e-3
1.000e+1, -4.765e-3
1.010e+1, 8.629e-3
1.020e+1, 1.011e-2
1.030e+1, 1.010e-2
1.040e+1, 8.420e-3
1.050e+1, 6.681e-3
1.060e+1, 5.518e-3
1.070e+1, 4.378e-3
1.080e+1, 3.326e-3
1.090e+1, 2.529e-3
1.100e+1, 1.999e-3
1.110e+1, -8.786e-3
1.120e+1, -8.658e-3
1.130e+1, -7.880e-3
1.140e+1, -7.301e-3
1.150e+1, -6.858e-3
1.160e+1, -6.444e-3
1.170e+1, -6.030e-3
1.180e+1, -5.586e-3
1.190e+1, -5.104e-3
1.200e+1, -4.537e-3
1.210e+1, 8.661e-3
1.220e+1, 1.011e-2
1.230e+1, 1.011e-2
1.240e+1, 8.417e-3
1.250e+1, 6.526e-3
1.260e+1, 5.353e-3
1.270e+1, 4.255e-3
1.280e+1, 3.226e-3
1.290e+1, 2.477e-3
1.300e+1, 2.003e-3
1.310e+1, -8.798e-3
1.320e+1, -8.736e-3
1.330e+1, -7.959e-3
1.340e+1, -7.329e-3
1.350e+1, -6.822e-3
1.360e+1, -6.368e-3
1.370e+1, -5.911e-3
1.380e+1, -5.419e-3
1.390e+1, -4.863e-3
1.400e+1, -4.144e-3
1.410e+1, 8.722e-3
1.420e+1, 1.011e-2
1.430e+1, 1.009e-2
1.440e+1, 8.273e-3
1.450e+1, 6.370e-3
1.460e+1, 5.170e-3
1.470e+1, 4.069e-3
1.480e+1, 3.071e-3
1.490e+1, 2.382e-3
1.500e+1, 1.956e-3
1.510e+1, -8.804e-3
1.520e+1, -8.772e-3
1.530e+1, -7.978e-3
1.540e+1, -7.293e-3
1.550e+1, -6.725e-3
1.560e+1, -6.213e-3
1.570e+1, -5.694e-3
1.580e+1, -5.139e-3
1.590e+1, -4.484e-3
1.600e+1, -3.551e-3
1.610e+1, 8.805e-3
1.620e+1, 1.011e-2
1.630e+1, 1.004e-2
1.640e+1, 7.965e-3
1.650e+1, 6.139e-3
1.660e+1, 4.899e-3
1.670e+1, 3.747e-3
1.680e+1, 2.837e-3
1.690e+1, 2.271e-3
1.700e+1, 1.899e-3
1.710e+1, -8.805e-3
1.720e+1, -8.766e-3
1.730e+1, -7.941e-3
1.740e+1, -7.235e-3
1.750e+1, -6.607e-3
1.760e+1, -6.025e-3
1.770e+1, -5.425e-3
1.780e+1, -4.766e-3
1.790e+1, -3.982e-3
1.800e+1, -2.944e-3
1.810e+1, 8.866e-3
1.820e+1, 1.011e-2
1.830e+1, 9.898e-3
1.840e+1, 7.621e-3
1.850e+1, 5.885e-3
1.860e+1, 4.598e-3
1.870e+1, 3.439e-3
1.880e+1, 2.625e-3
1.890e+1, 2.132e-3
1.900e+1, 1.811e-3
1.910e+1, -8.791e-3
1.920e+1, -8.719e-3
1.930e+1, -7.870e-3
1.940e+1, -7.148e-3
1.950e+1, -6.455e-3
1.960e+1, -5.764e-3
1.970e+1, -5.071e-3
1.980e+1, -4.313e-3
1.990e+1, -3.429e-3
2.000e+1, -2.473e-3
2.010e+1, 8.904e-3
2.020e+1, 1.011e-2
2.030e+1, 9.640e-3
2.040e+1, 7.211e-3
2.050e+1, 5.564e-3
2.060e+1, 4.237e-3
2.070e+1, 3.106e-3
2.080e+1, 2.420e-3
2.090e+1, 2.005e-3
2.100e+1, 1.723e-3
2.110e+1, -8.770e-3
2.120e+1, -8.651e-3
2.130e+1, -7.792e-3
2.140e+1, -7.029e-3
2.150e+1, -6.254e-3
2.160e+1, -5.452e-3
2.170e+1, -4.654e-3
2.180e+1, -3.813e-3
2.190e+1, -2.931e-3
2.200e+1, -2.125e-3
2.210e+1, 8.932e-3
2.220e+1, 1.011e-2
2.230e+1, 9.319e-3
2.240e+1, 6.824e-3
2.250e+1, 5.193e-3
2.260e+1, 3.848e-3
2.270e+1, 2.847e-3
2.280e+1, 2.270e-3
2.290e+1, 1.891e-3
2.300e+1, 1.626e-3
2.310e+1, -8.751e-3
2.320e+1, -8.579e-3
2.330e+1, -7.710e-3
2.340e+1, -6.899e-3
2.350e+1, -6.005e-3
2.360e+1, -5.097e-3
2.370e+1, -4.197e-3
2.380e+1, -3.299e-3
2.390e+1, -2.480e-3
2.400e+1, -1.851e-3
2.410e+1, 8.954e-3
2.420e+1, 1.011e-2
2.430e+1, 8.895e-3
2.440e+1, 6.470e-3
2.450e+1, 4.845e-3
2.460e+1, 3.480e-3
2.470e+1, 2.609e-3
2.480e+1, 2.101e-3
2.490e+1, 1.778e-3
2.500e+1, 1.553e-3
2.510e+1, -8.723e-3
2.520e+1, -8.501e-3
2.530e+1, -7.612e-3
2.540e+1, -6.724e-3
2.550e+1, -5.732e-3
2.560e+1, -4.716e-3
2.570e+1, -3.732e-3
2.580e+1, -2.837e-3
2.590e+1, -2.124e-3
2.600e+1, -1.616e-3
2.610e+1, 8.973e-3
2.620e+1, 1.010e-2
2.630e+1, 8.428e-3
2.640e+1, 6.102e-3
2.650e+1, 4.491e-3
2.660e+1, 3.172e-3
2.670e+1, 2.413e-3
2.680e+1, 1.965e-3
2.690e+1, 1.676e-3
2.700e+1, 1.478e-3
2.710e+1, -8.690e-3
2.720e+1, -8.406e-3
2.730e+1, -7.470e-3
2.740e+1, -6.524e-3
2.750e+1, -5.465e-3
2.760e+1, -4.352e-3
2.770e+1, -3.303e-3
2.780e+1, -2.447e-3
2.790e+1, -1.834e-3
2.800e+1, -1.434e-3
2.810e+1, 8.988e-3
2.820e+1, 1.004e-2
2.830e+1, 7.998e-3
2.840e+1, 5.778e-3
2.850e+1, 4.196e-3
2.860e+1, 2.944e-3
2.870e+1, 2.272e-3
2.880e+1, 1.863e-3
2.890e+1, 1.595e-3
2.900e+1, 1.416e-3
2.910e+1, -8.672e-3
2.920e+1, -8.310e-3
2.930e+1, -7.334e-3
2.940e+1, -6.350e-3
2.950e+1, -5.212e-3
2.960e+1, -4.019e-3
2.970e+1, -2.944e-3
2.980e+1, -2.153e-3
2.990e+1, -1.643e-3
3.000e+1, -1.327e-3
3.010e+1, 8.997e-3
3.020e+1, 9.921e-3
3.030e+1, 7.617e-3
3.040e+1, 5.491e-3
3.050e+1, 3.893e-3
3.060e+1, 2.741e-3
3.070e+1, 2.143e-3
3.080e+1, 1.776e-3
3.090e+1, 1.523e-3
3.100e+1, 1.363e-3
3.110e+1, -8.636e-3
3.120e+1, -8.185e-3
3.130e+1, -7.176e-3
3.140e+1, -6.137e-3
3.150e+1, -4.920e-3
3.160e+1, -3.640e-3
3.170e+1, -2.590e-3
3.180e+1, -1.894e-3
3.190e+1, -1.471e-3
3.200e+1, -1.212e-3
3.210e+1, 9.005e-3
3.220e+1, 9.721e-3
3.230e+1, 7.263e-3
3.240e+1, 5.248e-3
3.250e+1, 3.626e-3
3.260e+1, 2.565e-3
3.270e+1, 2.023e-3
3.280e+1, 1.696e-3
3.290e+1, 1.466e-3
3.300e+1, 1.313e-3
3.310e+1, -8.610e-3
3.320e+1, -8.118e-3
3.330e+1, -7.073e-3
3.340e+1, -5.987e-3
3.350e+1, -4.705e-3
3.360e+1, -3.363e-3
3.370e+1, -2.330e-3
3.380e+1, -1.708e-3
3.390e+1, -1.344e-3
3.400e+1, -1.122e-3
3.410e+1, 8.991e-3
3.420e+1, 9.555e-3
3.430e+1, 7.031e-3
3.440e+1, 5.037e-3
3.450e+1, 3.419e-3
3.460e+1, 2.405e-3
3.470e+1, 1.892e-3
3.480e+1, 1.598e-3
3.490e+1, 1.405e-3
3.500e+1, 1.273e-3
3.510e+1, -8.587e-3
3.520e+1, -8.068e-3
3.530e+1, -7.008e-3
3.540e+1, -5.886e-3
3.550e+1, -4.542e-3
3.560e+1, -3.167e-3
3.570e+1, -2.176e-3
3.580e+1, -1.612e-3
3.590e+1, -1.285e-3
3.600e+1, -1.075e-3
3.610e+1, 8.968e-3
3.620e+1, 9.427e-3
3.630e+1, 6.871e-3
3.640e+1, 4.927e-3
3.650e+1, 3.312e-3
3.660e+1, 2.323e-3
3.670e+1, 1.830e-3
3.680e+1, 1.531e-3
3.690e+1, 1.341e-3
3.700e+1, 1.214e-3
3.710e+1, -8.584e-3
3.720e+1, -8.039e-3
3.730e+1, -6.945e-3
3.740e+1, -5.787e-3
3.750e+1, -4.387e-3
3.760e+1, -2.986e-3
3.770e+1, -2.038e-3
3.780e+1, -1.524e-3
3.790e+1, -1.219e-3
3.800e+1, -1.024e-3
3.810e+1, 8.948e-3
3.820e+1, 9.300e-3
3.830e+1, 6.732e-3
3.840e+1, 4.802e-3
3.850e+1, 3.198e-3
3.860e+1, 2.249e-3
3.870e+1, 1.783e-3
3.880e+1, 1.493e-3
3.890e+1, 1.306e-3
3.900e+1, 1.175e-3
3.910e+1, -8.570e-3
3.920e+1, -8.011e-3
3.930e+1, -6.884e-3
3.940e+1, -5.692e-3
3.950e+1, -4.222e-3
3.960e+1, -2.789e-3
3.970e+1, -1.889e-3
3.980e+1, -1.417e-3
3.990e+1, -1.147e-3
4.000e+1, -9.734e-4
4.010e+1, 8.923e-3
4.020e+1, 9.142e-3
4.030e+1, 6.592e-3
4.040e+1, 4.686e-3
4.050e+1, 3.108e-3
4.060e+1, 2.198e-3
4.070e+1, 1.738e-3
4.080e+1, 1.457e-3
4.090e+1, 1.260e-3
4.100e+1, 1.134e-3
4.110e+1, -8.555e-3
4.120e+1, -7.970e-3
4.130e+1, -6.803e-3
4.140e+1, -5.571e-3
4.150e+1, -4.030e-3
4.160e+1, -2.581e-3
4.170e+1, -1.731e-3
4.180e+1, -1.307e-3
4.190e+1, -1.071e-3
4.200e+1, -9.238e-4
4.210e+1, 8.892e-3
4.220e+1, 8.965e-3
4.230e+1, 6.445e-3
4.240e+1, 4.545e-3
4.250e+1, 2.959e-3
4.260e+1, 2.105e-3
4.270e+1, 1.666e-3
4.280e+1, 1.395e-3
4.290e+1, 1.218e-3
4.300e+1, 1.107e-3
4.310e+1, -8.543e-3
4.320e+1, -7.930e-3
4.330e+1, -6.736e-3
4.340e+1, -5.469e-3
4.350e+1, -3.922e-3
4.360e+1, -2.494e-3
4.370e+1, -1.681e-3
4.380e+1, -1.276e-3
4.390e+1, -1.042e-3
4.400e+1, -8.936e-4
4.410e+1, 8.854e-3
4.420e+1, 8.858e-3
4.430e+1, 6.358e-3
4.440e+1, 4.459e-3
4.450e+1, 2.903e-3
4.460e+1, 2.077e-3
4.470e+1, 1.631e-3
4.480e+1, 1.362e-3
4.490e+1, 1.194e-3
4.500e+1, 1.088e-3
4.510e+1, -8.535e-3
4.520e+1, -7.916e-3
4.530e+1, -6.687e-3
4.540e+1, -5.390e-3
4.550e+1, -3.864e-3
4.560e+1, -2.464e-3
4.570e+1, -1.660e-3
4.580e+1, -1.259e-3
4.590e+1, -1.032e-3
4.600e+1, -8.846e-4
4.610e+1, 8.803e-3
4.620e+1, 8.774e-3
4.630e+1, 6.302e-3
4.640e+1, 4.420e-3
4.650e+1, 2.915e-3
4.660e+1, 2.059e-3
4.670e+1, 1.611e-3
4.680e+1, 1.346e-3
4.690e+1, 1.182e-3
4.700e+1, 1.078e-3
4.710e+1, -8.536e-3
4.720e+1, -7.918e-3
4.730e+1, -6.663e-3
4.740e+1, -5.340e-3
4.750e+1, -3.839e-3
4.760e+1, -2.468e-3
4.770e+1, -1.662e-3
4.780e+1, -1.248e-3
4.790e+1, -1.015e-3
4.800e+1, -8.670e-4
4.810e+1, 8.747e-3
4.820e+1, 8.726e-3
4.830e+1, 6.257e-3
4.840e+1, 4.404e-3
4.850e+1, 2.940e-3
4.860e+1, 2.057e-3
4.870e+1, 1.587e-3
4.880e+1, 1.324e-3
4.890e+1, 1.170e-3
4.900e+1, 1.061e-3
4.910e+1, -8.540e-3
4.920e+1, -7.910e-3
4.930e+1, -6.641e-3
4.940e+1, -5.304e-3
4.950e+1, -3.818e-3
4.960e+1, -2.473e-3
4.970e+1, -1.662e-3
4.980e+1, -1.250e-3
4.990e+1, -1.013e-3
5.000e+1, -8.613e-4
5.010e+1, 8.723e-3
5.020e+1, 8.693e-3
5.030e+1, 6.217e-3
5.040e+1, 4.411e-3
5.050e+1, 2.955e-3
5.060e+1, 2.036e-3
5.070e+1, 1.585e-3
5.080e+1, 1.327e-3
5.090e+1, 1.168e-3
5.100e+1, 1.068e-3
5.110e+1, -8.532e-3
5.120e+1, -7.893e-3
5.130e+1, -6.594e-3
5.140e+1, -5.267e-3
5.150e+1, -3.819e-3
5.160e+1, -2.496e-3
5.170e+1, -1.672e-3
5.180e+1, -1.242e-3
5.190e+1, -1.002e-3
5.200e+1, -8.508e-4
5.210e+1, 8.671e-3
5.220e+1, 8.660e-3
5.230e+1, 6.194e-3
5.240e+1, 4.419e-3
5.250e+1, 2.953e-3
5.260e+1, 2.025e-3
5.270e+1, 1.581e-3
5.280e+1, 1.325e-3
5.290e+1, 1.166e-3
5.300e+1, 1.067e-3
5.310e+1, -8.522e-3
5.320e+1, -7.864e-3
5.330e+1, -6.532e-3
5.340e+1, -5.194e-3
5.350e+1, -3.772e-3
5.360e+1, -2.483e-3
5.370e+1, -1.670e-3
5.380e+1, -1.239e-3
5.390e+1, -9.958e-4
5.400e+1, -8.436e-4
5.410e+1, 8.584e-3
5.420e+1, 8.605e-3
5.430e+1, 6.163e-3
5.440e+1, 4.391e-3
5.450e+1, 2.937e-3
5.460e+1, 2.027e-3
5.470e+1, 1.584e-3
5.480e+1, 1.324e-3
5.490e+1, 1.162e-3
5.500e+1, 1.059e-3
5.510e+1, -8.512e-3
5.520e+1, -7.823e-3
5.530e+1, -6.464e-3
5.540e+1, -5.109e-3
5.550e+1, -3.716e-3
5.560e+1, -2.466e-3
5.570e+1, -1.662e-3
5.580e+1, -1.231e-3
5.590e+1, -9.863e-4
5.600e+1, -8.315e-4
5.610e+1, 8.481e-3
5.620e+1, 8.537e-3
5.630e+1, 6.115e-3
5.640e+1, 4.353e-3
5.650e+1, 2.936e-3
5.660e+1, 2.027e-3
5.670e+1, 1.587e-3
5.680e+1, 1.335e-3
5.690e+1, 1.168e-3
5.700e+1, 1.062e-3
5.710e+1, -8.496e-3
5.720e+1, -7.784e-3
5.730e+1, -6.395e-3
5.740e+1, -5.017e-3
5.750e+1, -3.647e-3
5.760e+1, -2.435e-3
5.770e+1, -1.656e-3
5.780e+1, -1.234e-3
5.790e+1, -9.882e-4
5.800e+1, -8.331e-4
5.810e+1, 8.346e-3
5.820e+1, 8.465e-3
5.830e+1, 6.060e-3
5.840e+1, 4.294e-3
5.850e+1, 2.937e-3
5.860e+1, 2.040e-3
5.870e+1, 1.596e-3
5.880e+1, 1.338e-3
5.890e+1, 1.169e-3
5.900e+1, 1.064e-3
5.910e+1, -8.478e-3
5.920e+1, -7.740e-3
5.930e+1, -6.311e-3
5.940e+1, -4.905e-3
5.950e+1, -3.553e-3
5.960e+1, -2.378e-3
5.970e+1, -1.636e-3
5.980e+1, -1.229e-3
5.990e+1, -9.852e-4
6.000e+1, -8.295e-4
6.010e+1, 8.190e-3
6.020e+1, 8.369e-3
6.030e+1, 5.981e-3
6.040e+1, 4.229e-3
6.050e+1, 2.936e-3
6.060e+1, 2.049e-3
6.070e+1, 1.605e-3
6.080e+1, 1.346e-3
6.090e+1, 1.177e-3
6.100e+1, 1.069e-3
6.110e+1, -8.463e-3
6.120e+1, -7.694e-3
6.130e+1, -6.230e-3
6.140e+1, -4.794e-3
6.150e+1, -3.448e-3
6.160e+1, -2.326e-3
6.170e+1, -1.613e-3
6.180e+1, -1.223e-3
6.190e+1, -9.893e-4
6.200e+1, -8.391e-4
6.210e+1, 8.030e-3
6.220e+1, 8.266e-3
6.230e+1, 5.891e-3
6.240e+1, 4.160e-3
6.250e+1, 2.913e-3
6.260e+1, 2.057e-3
6.270e+1, 1.612e-3
6.280e+1, 1.349e-3
6.290e+1, 1.181e-3
6.300e+1, 1.074e-3
6.310e+1, -8.444e-3
6.320e+1, -7.636e-3
6.330e+1, -6.138e-3
6.340e+1, -4.676e-3
6.350e+1, -3.330e-3
6.360e+1, -2.251e-3
6.370e+1, -1.580e-3
6.380e+1, -1.209e-3
6.390e+1, -9.851e-4
6.400e+1, -8.350e-4
6.410e+1, 7.886e-3
6.420e+1, 8.186e-3
6.430e+1, 5.810e-3
6.440e+1, 4.096e-3
6.450e+1, 2.877e-3
6.460e+1, 2.045e-3
6.470e+1, 1.610e-3
6.480e+1, 1.352e-3
6.490e+1, 1.185e-3
6.500e+1, 1.081e-3
6.510e+1, -8.423e-3
6.520e+1, -7.585e-3
6.530e+1, -6.045e-3
6.540e+1, -4.546e-3
6.550e+1, -3.186e-3
6.560e+1, -2.151e-3
6.570e+1, -1.530e-3
6.580e+1, -1.181e-3
6.590e+1, -9.654e-4
6.600e+1, -8.241e-4
6.610e+1, 7.719e-3
6.620e+1, 8.056e-3
6.630e+1, 5.709e-3
6.640e+1, 4.000e-3
6.650e+1, 2.800e-3
6.660e+1, 2.018e-3
6.670e+1, 1.596e-3
6.680e+1, 1.343e-3
6.690e+1, 1.186e-3
6.700e+1, 1.085e-3
6.710e+1, -8.396e-3
6.720e+1, -7.524e-3
6.730e+1, -5.943e-3
6.740e+1, -4.402e-3
6.750e+1, -3.038e-3
6.760e+1, -2.059e-3
6.770e+1, -1.475e-3
6.780e+1, -1.147e-3
6.790e+1, -9.496e-4
6.800e+1, -8.134e-4
6.810e+1, 7.551e-3
6.820e+1, 7.902e-3
6.830e+1, 5.592e-3
6.840e+1, 3.908e-3
6.850e+1, 2.741e-3
6.860e+1, 1.994e-3
6.870e+1, 1.590e-3
6.880e+1, 1.344e-3
6.890e+1, 1.189e-3
6.900e+1, 1.089e-3
6.910e+1, -8.374e-3
6.920e+1, -7.460e-3
6.930e+1, -5.839e-3
6.940e+1, -4.252e-3
6.950e+1, -2.888e-3
6.960e+1, -1.947e-3
6.970e+1, -1.414e-3
6.980e+1, -1.113e-3
6.990e+1, -9.264e-4
7.000e+1, -7.996e-4
7.010e+1, 7.374e-3
7.020e+1, 7.732e-3
7.030e+1, 5.465e-3
7.040e+1, 3.816e-3
7.050e+1, 2.691e-3
7.060e+1, 1.982e-3
7.070e+1, 1.587e-3
7.080e+1, 1.349e-3
7.090e+1, 1.195e-3
7.100e+1, 1.095e-3
7.110e+1, -8.355e-3
7.120e+1, -7.406e-3
7.130e+1, -5.743e-3
7.140e+1, -4.125e-3
7.150e+1, -2.750e-3
7.160e+1, -1.852e-3
7.170e+1, -1.365e-3
7.180e+1, -1.081e-3
7.190e+1, -9.035e-4
7.200e+1, -7.804e-4
7.210e+1, 7.192e-3
7.220e+1, 7.566e-3
7.230e+1, 5.361e-3
7.240e+1, 3.734e-3
7.250e+1, 2.627e-3
7.260e+1, 1.963e-3
7.270e+1, 1.588e-3
7.280e+1, 1.352e-3
7.290e+1, 1.205e-3
7.300e+1, 1.103e-3
7.310e+1, -8.338e-3
7.320e+1, -7.362e-3
7.330e+1, -5.659e-3
7.340e+1, -3.987e-3
7.350e+1, -2.615e-3
7.360e+1, -1.761e-3
7.370e+1, -1.307e-3
7.380e+1, -1.049e-3
7.390e+1, -8.819e-4
7.400e+1, -7.659e-4
7.410e+1, 7.026e-3
7.420e+1, 7.396e-3
7.430e+1, 5.252e-3
7.440e+1, 3.668e-3
7.450e+1, 2.595e-3
7.460e+1, 1.951e-3
7.470e+1, 1.584e-3
7.480e+1, 1.356e-3
7.490e+1, 1.213e-3
7.500e+1, 1.118e-3
7.510e+1, -8.326e-3
7.520e+1, -7.316e-3
7.530e+1, -5.580e-3
7.540e+1, -3.885e-3
7.550e+1, -2.508e-3
7.560e+1, -1.684e-3
7.570e+1, -1.252e-3
7.580e+1, -1.010e-3
7.590e+1, -8.527e-4
7.600e+1, -7.435e-4
7.610e+1, 6.878e-3
7.620e+1, 7.235e-3
7.630e+1, 5.153e-3
7.640e+1, 3.595e-3
7.650e+1, 2.548e-3
7.660e+1, 1.941e-3
7.670e+1, 1.590e-3
7.680e+1, 1.370e-3
7.690e+1, 1.223e-3
7.700e+1, 1.131e-3
7.710e+1, -8.317e-3
7.720e+1, -7.292e-3
7.730e+1, -5.523e-3
7.740e+1, -3.784e-3
7.750e+1, -2.419e-3
7.760e+1, -1.630e-3
7.770e+1, -1.226e-3
7.780e+1, -9.922e-4
7.790e+1, -8.422e-4
7.800e+1, -7.368e-4
7.810e+1, 6.766e-3
7.820e+1, 7.112e-3
7.830e+1, 5.068e-3
7.840e+1, 3.537e-3
7.850e+1, 2.517e-3
7.860e+1, 1.939e-3
7.870e+1, 1.600e-3
7.880e+1, 1.383e-3
7.890e+1, 1.241e-3
7.900e+1, 1.145e-3
7.910e+1, -8.310e-3
7.920e+1, -7.272e-3
7.930e+1, -5.478e-3
7.940e+1, -3.704e-3
7.950e+1, -2.334e-3
7.960e+1, -1.568e-3
7.970e+1, -1.182e-3
7.980e+1, -9.606e-4
7.990e+1, -8.125e-4
8.000e+1, -7.159e-4
8.010e+1, 6.623e-3
8.020e+1, 6.980e-3
8.030e+1, 4.993e-3
8.040e+1, 3.487e-3
8.050e+1, 2.516e-3
8.060e+1, 1.960e-3
8.070e+1, 1.618e-3
8.080e+1, 1.396e-3
8.090e+1, 1.253e-3
8.100e+1, 1.153e-3
8.110e+1, -8.310e-3
8.120e+1, -7.254e-3
8.130e+1, -5.444e-3
8.140e+1, -3.649e-3
8.150e+1, -2.272e-3
8.160e+1, -1.530e-3
8.170e+1, -1.156e-3
8.180e+1, -9.398e-4
8.190e+1, -7.999e-4
8.200e+1, -7.020e-4
8.210e+1, 6.525e-3
8.220e+1, 6.883e-3
8.230e+1, 4.937e-3
8.240e+1, 3.465e-3
8.250e+1, 2.513e-3
8.260e+1, 1.969e-3
8.270e+1, 1.630e-3
8.280e+1, 1.410e-3
8.290e+1, 1.264e-3
8.300e+1, 1.167e-3
8.310e+1, -8.306e-3
8.320e+1, -7.238e-3
8.330e+1, -5.412e-3
8.340e+1, -3.588e-3
8.350e+1, -2.204e-3
8.360e+1, -1.487e-3
8.370e+1, -1.128e-3
8.380e+1, -9.216e-4
8.390e+1, -7.882e-4
8.400e+1, -6.898e-4
8.410e+1, 6.424e-3
8.420e+1, 6.802e-3
8.430e+1, 4.900e-3
8.440e+1, 3.442e-3
8.450e+1, 2.497e-3
8.460e+1, 1.967e-3
8.470e+1, 1.638e-3
8.480e+1, 1.421e-3
8.490e+1, 1.273e-3
8.500e+1, 1.178e-3
8.510e+1, -8.308e-3
8.520e+1, -7.240e-3
8.530e+1, -5.397e-3
8.540e+1, -3.550e-3
8.550e+1, -2.146e-3
8.560e+1, -1.444e-3
8.570e+1, -1.100e-3
8.580e+1, -9.046e-4
8.590e+1, -7.724e-4
8.600e+1, -6.745e-4
8.610e+1, 6.342e-3
8.620e+1, 6.722e-3
8.630e+1, 4.851e-3
8.640e+1, 3.408e-3
8.650e+1, 2.482e-3
8.660e+1, 1.959e-3
8.670e+1, 1.635e-3
8.680e+1, 1.417e-3
8.690e+1, 1.269e-3
8.700e+1, 1.173e-3
8.710e+1, -8.300e-3
8.720e+1, -7.218e-3
8.730e+1, -5.363e-3
8.740e+1, -3.493e-3
8.750e+1, -2.096e-3
8.760e+1, -1.412e-3
8.770e+1, -1.081e-3
8.780e+1, -8.869e-4
8.790e+1, -7.599e-4
8.800e+1, -6.651e-4
8.810e+1, 6.281e-3
8.820e+1, 6.636e-3
8.830e+1, 4.784e-3
8.840e+1, 3.366e-3
8.850e+1, 2.474e-3
8.860e+1, 1.964e-3
8.870e+1, 1.641e-3
8.880e+1, 1.420e-3
8.890e+1, 1.269e-3
8.900e+1, 1.174e-3
8.910e+1, -8.291e-3
8.920e+1, -7.191e-3
8.930e+1, -5.314e-3
8.940e+1, -3.422e-3
8.950e+1, -2.036e-3
8.960e+1, -1.379e-3
8.970e+1, -1.055e-3
8.980e+1, -8.679e-4
8.990e+1, -7.470e-4
9.000e+1, -6.609e-4
9.010e+1, 6.206e-3
9.020e+1, 6.549e-3
9.030e+1, 4.719e-3
9.040e+1, 3.324e-3
9.050e+1, 2.453e-3
9.060e+1, 1.955e-3
9.070e+1, 1.640e-3
9.080e+1, 1.419e-3
9.090e+1, 1.269e-3
9.100e+1, 1.179e-3
9.110e+1, -8.279e-3
9.120e+1, -7.167e-3
9.130e+1, -5.272e-3
9.140e+1, -3.362e-3
9.150e+1, -1.991e-3
9.160e+1, -1.351e-3
9.170e+1, -1.042e-3
9.180e+1, -8.582e-4
9.190e+1, -7.358e-4
9.200e+1, -6.476e-4
9.210e+1, 6.147e-3
9.220e+1, 6.465e-3
9.230e+1, 4.661e-3
9.240e+1, 3.271e-3
9.250e+1, 2.429e-3
9.260e+1, 1.949e-3
9.270e+1, 1.641e-3
9.280e+1, 1.421e-3
9.290e+1, 1.273e-3
9.300e+1, 1.181e-3
9.310e+1, -8.269e-3
9.320e+1, -7.137e-3
9.330e+1, -5.227e-3
9.340e+1, -3.305e-3
9.350e+1, -1.949e-3
9.360e+1, -1.341e-3
9.370e+1, -1.031e-3
9.380e+1, -8.493e-4
9.390e+1, -7.318e-4
9.400e+1, -6.453e-4
9.410e+1, 6.090e-3
9.420e+1, 6.387e-3
9.430e+1, 4.599e-3
9.440e+1, 3.240e-3
9.450e+1, 2.433e-3
9.460e+1, 1.960e-3
9.470e+1, 1.647e-3
9.480e+1, 1.427e-3
9.490e+1, 1.277e-3
9.500e+1, 1.184e-3
9.510e+1, -8.256e-3
9.520e+1, -7.103e-3
9.530e+1, -5.182e-3
9.540e+1, -3.250e-3
9.550e+1, -1.908e-3
9.560e+1, -1.310e-3
9.570e+1, -1.021e-3
9.580e+1, -8.465e-4
9.590e+1, -7.277e-4
9.600e+1, -6.443e-4
9.610e+1, 6.022e-3
9.620e+1, 6.299e-3
9.630e+1, 4.543e-3
9.640e+1, 3.218e-3
9.650e+1, 2.420e-3
9.660e+1, 1.953e-3
9.670e+1, 1.642e-3
9.680e+1, 1.420e-3
9.690e+1, 1.275e-3
9.700e+1, 1.182e-3
9.710e+1, -8.240e-3
9.720e+1, -7.069e-3
9.730e+1, -5.147e-3
9.740e+1, -3.226e-3
9.750e+1, -1.891e-3
9.760e+1, -1.297e-3
9.770e+1, -1.012e-3
9.780e+1, -8.382e-4
9.790e+1, -7.235e-4
9.800e+1, -6.380e-4
9.810e+1, 5.987e-3
9.820e+1, 6.229e-3
9.830e+1, 4.488e-3
9.840e+1, 3.188e-3
9.850e+1, 2.408e-3
9.860e+1, 1.952e-3
9.870e+1, 1.644e-3
9.880e+1, 1.428e-3
9.890e+1, 1.283e-3
9.900e+1, 1.193e-3
9.910e+1, -8.231e-3
9.920e+1, -7.051e-3
9.930e+1, -5.120e-3
9.940e+1, -3.186e-3
9.950e+1, -1.868e-3
9.960e+1, -1.283e-3
9.970e+1, -9.962e-4
9.980e+1, -8.249e-4
9.990e+1, -7.110e-4
1.000e+2, -6.259e-4
1.001e+2, 5.955e-3
1.002e+2, 6.164e-3
1.003e+2, 4.422e-3
1.004e+2, 3.151e-3
1.005e+2, 2.406e-3
1.006e+2, 1.950e-3
1.007e+2, 1.642e-3
1.008e+2, 1.427e-3
1.009e+2, 1.283e-3
1.010e+2, 1.194e-3
1.011e+2, -8.216e-3
1.012e+2, -7.012e-3
1.013e+2, -5.077e-3
1.014e+2, -3.158e-3
1.015e+2, -1.842e-3
1.016e+2, -1.269e-3
1.017e+2, -9.867e-4
1.018e+2, -8.192e-4
1.019e+2, -7.043e-4
1.020e+2, -6.186e-4
1.021e+2, 5.895e-3
1.022e+2, 6.085e-3
1.023e+2, 4.360e-3
1.024e+2, 3.119e-3
1.025e+2, 2.399e-3
1.026e+2, 1.949e-3
1.027e+2, 1.646e-3
1.028e+2, 1.433e-3
1.029e+2, 1.291e-3
1.030e+2, 1.209e-3
1.031e+2, -8.197e-3
1.032e+2, -6.978e-3
1.033e+2, -5.030e-3
1.034e+2, -3.141e-3
1.035e+2, -1.838e-3
1.036e+2, -1.269e-3
1.037e+2, -9.897e-4
1.038e+2, -8.189e-4
1.039e+2, -7.035e-4
1.040e+2, -6.182e-4
1.041e+2, 5.852e-3
1.042e+2, 6.010e-3
1.043e+2, 4.306e-3
1.044e+2, 3.113e-3
1.045e+2, 2.386e-3
1.046e+2, 1.937e-3
1.047e+2, 1.640e-3
1.048e+2, 1.435e-3
1.049e+2, 1.299e-3
1.050e+2, 1.215e-3
1.051e+2, -8.180e-3
1.052e+2, -6.938e-3
1.053e+2, -4.987e-3
1.054e+2, -3.109e-3
1.055e+2, -1.834e-3
1.056e+2, -1.272e-3
1.057e+2, -9.814e-4
1.058e+2, -8.147e-4
1.059e+2, -7.038e-4
1.060e+2, -6.179e-4
1.061e+2, 5.804e-3
1.062e+2, 5.954e-3
1.063e+2, 4.273e-3
1.064e+2, 3.076e-3
1.065e+2, 2.369e-3
1.066e+2, 1.931e-3
1.067e+2, 1.632e-3
1.068e+2, 1.431e-3
1.069e+2, 1.299e-3
1.070e+2, 1.219e-3
1.071e+2, -8.155e-3
1.072e+2, -6.890e-3
1.073e+2, -4.929e-3
1.074e+2, -3.075e-3
1.075e+2, -1.831e-3
1.076e+2, -1.273e-3
1.077e+2, -9.901e-4
1.078e+2, -8.177e-4
1.079e+2, -7.043e-4
1.080e+2, -6.202e-4
1.081e+2, 5.764e-3
1.082e+2, 5.880e-3
1.083e+2, 4.219e-3
1.084e+2, 3.067e-3
1.085e+2, 2.361e-3
1.086e+2, 1.920e-3
1.087e+2, 1.628e-3
1.088e+2, 1.434e-3
1.089e+2, 1.307e-3
1.090e+2, 1.230e-3
1.091e+2, -8.132e-3
1.092e+2, -6.837e-3
1.093e+2, -4.858e-3
1.094e+2, -3.042e-3
1.095e+2, -1.834e-3
1.096e+2, -1.278e-3
1.097e+2, -9.921e-4
1.098e+2, -8.260e-4
1.099e+2, -7.138e-4
1.100e+2, -6.295e-4
1.101e+2, 5.723e-3
1.102e+2, 5.835e-3
1.103e+2, 4.188e-3
1.104e+2, 3.050e-3
1.105e+2, 2.347e-3
1.106e+2, 1.907e-3
1.107e+2, 1.620e-3
1.108e+2, 1.427e-3
1.109e+2, 1.305e-3
1.110e+2, 1.234e-3
1.111e+2, -8.100e-3
1.112e+2, -6.780e-3
1.113e+2, -4.797e-3
1.114e+2, -3.002e-3
1.115e+2, -1.842e-3
1.116e+2, -1.290e-3
1.117e+2, -1.005e-3
1.118e+2, -8.358e-4
1.119e+2, -7.200e-4
1.120e+2, -6.341e-4
1.121e+2, 5.689e-3
1.122e+2, 5.762e-3
1.123e+2, 4.150e-3
1.124e+2, 3.047e-3
1.125e+2, 2.350e-3
1.126e+2, 1.899e-3
1.127e+2, 1.612e-3
1.128e+2, 1.426e-3
1.129e+2, 1.308e-3
1.130e+2, 1.241e-3
1.131e+2, -8.077e-3
1.132e+2, -6.733e-3
1.133e+2, -4.725e-3
1.134e+2, -2.955e-3
1.135e+2, -1.835e-3
1.136e+2, -1.299e-3
1.137e+2, -1.014e-3
1.138e+2, -8.435e-4
1.139e+2, -7.254e-4
1.140e+2, -6.389e-4
1.141e+2, 5.643e-3
1.142e+2, 5.712e-3
1.143e+2, 4.125e-3
1.144e+2, 3.027e-3
1.145e+2, 2.323e-3
1.146e+2, 1.889e-3
1.147e+2, 1.609e-3
1.148e+2, 1.425e-3
1.149e+2, 1.315e-3
1.150e+2, 1.250e-3
1.151e+2, -8.055e-3
1.152e+2, -6.685e-3
1.153e+2, -4.665e-3
1.154e+2, -2.919e-3
1.155e+2, -1.830e-3
1.156e+2, -1.298e-3
1.157e+2, -1.024e-3
1.158e+2, -8.472e-4
1.159e+2, -7.308e-4
1.160e+2, -6.472e-4
1.161e+2, 5.578e-3
1.162e+2, 5.644e-3
1.163e+2, 4.074e-3
1.164e+2, 3.028e-3
1.165e+2, 2.343e-3
1.166e+2, 1.897e-3
1.167e+2, 1.620e-3
1.168e+2, 1.440e-3
1.169e+2, 1.333e-3
1.170e+2, 1.270e-3
1.171e+2, -8.037e-3
1.172e+2, -6.654e-3
1.173e+2, -4.611e-3
1.174e+2, -2.858e-3
1.175e+2, -1.802e-3
1.176e+2, -1.288e-3
1.177e+2, -1.013e-3
1.178e+2, -8.404e-4
1.179e+2, -7.218e-4
1.180e+2, -6.381e-4
1.181e+2, 5.513e-3
1.182e+2, 5.596e-3
1.183e+2, 4.071e-3
1.184e+2, 3.003e-3
1.185e+2, 2.315e-3
1.186e+2, 1.882e-3
1.187e+2, 1.608e-3
1.188e+2, 1.442e-3
1.189e+2, 1.337e-3
1.190e+2, 1.274e-3
1.191e+2, -8.019e-3
1.192e+2, -6.613e-3
1.193e+2, -4.569e-3
1.194e+2, -2.826e-3
1.195e+2, -1.791e-3
1.196e+2, -1.284e-3
1.197e+2, -1.012e-3
1.198e+2, -8.424e-4
1.199e+2, -7.269e-4
1.200e+2, -6.389e-4
1.201e+2, 5.446e-3
1.202e+2, 5.537e-3
1.203e+2, 4.051e-3
1.204e+2, 3.014e-3
1.205e+2, 2.313e-3
1.206e+2, 1.884e-3
1.207e+2, 1.612e-3
1.208e+2, 1.443e-3
1.209e+2, 1.338e-3
1.210e+2, 1.280e-3
1.211e+2, -8.005e-3
1.212e+2, -6.576e-3
1.213e+2, -4.526e-3
1.214e+2, -2.792e-3
1.215e+2, -1.767e-3
1.216e+2, -1.269e-3
1.217e+2, -9.972e-4
1.218e+2, -8.344e-4
1.219e+2, -7.222e-4
1.220e+2, -6.380e-4
1.221e+2, 5.379e-3
1.222e+2, 5.480e-3
1.223e+2, 4.016e-3
1.224e+2, 2.987e-3
1.225e+2, 2.293e-3
1.226e+2, 1.864e-3
1.227e+2, 1.604e-3
1.228e+2, 1.440e-3
1.229e+2, 1.341e-3
1.230e+2, 1.285e-3
1.231e+2, -7.987e-3
1.232e+2, -6.535e-3
1.233e+2, -4.471e-3
1.234e+2, -2.751e-3
1.235e+2, -1.763e-3
1.236e+2, -1.274e-3
1.237e+2, -1.007e-3
1.238e+2, -8.392e-4
1.239e+2, -7.239e-4
1.240e+2, -6.373e-4
1.241e+2, 5.331e-3
1.242e+2, 5.422e-3
1.243e+2, 3.986e-3
1.244e+2, 2.973e-3
1.245e+2, 2.289e-3
1.246e+2, 1.861e-3
1.247e+2, 1.604e-3
1.248e+2, 1.444e-3
1.249e+2, 1.345e-3
1.250e+2, 1.290e-3
1.251e+2, -7.972e-3
1.252e+2, -6.500e-3
1.253e+2, -4.422e-3
1.254e+2, -2.720e-3
1.255e+2, -1.740e-3
1.256e+2, -1.258e-3
1.257e+2, -9.922e-4
1.258e+2, -8.269e-4
1.259e+2, -7.139e-4
1.260e+2, -6.328e-4
1.261e+2, 5.268e-3
1.262e+2, 5.352e-3
1.263e+2, 3.966e-3
1.264e+2, 2.954e-3
1.265e+2, 2.276e-3
1.266e+2, 1.852e-3
1.267e+2, 1.594e-3
1.268e+2, 1.435e-3
1.269e+2, 1.341e-3
1.270e+2, 1.288e-3
1.271e+2, -7.950e-3
1.272e+2, -6.457e-3
1.273e+2, -4.368e-3
1.274e+2, -2.674e-3
1.275e+2, -1.724e-3
1.276e+2, -1.256e-3
1.277e+2, -9.945e-4
1.278e+2, -8.278e-4
1.279e+2, -7.141e-4
1.280e+2, -6.329e-4
1.281e+2, 5.204e-3
1.282e+2, 5.290e-3
1.283e+2, 3.937e-3
1.284e+2, 2.950e-3
1.285e+2, 2.263e-3
1.286e+2, 1.849e-3
1.287e+2, 1.597e-3
1.288e+2, 1.439e-3
1.289e+2, 1.345e-3
1.290e+2, 1.293e-3
1.291e+2, -7.934e-3
1.292e+2, -6.417e-3
1.293e+2, -4.321e-3
1.294e+2, -2.643e-3
1.295e+2, -1.706e-3
1.296e+2, -1.246e-3
1.297e+2, -9.917e-4
1.298e+2, -8.285e-4
1.299e+2, -7.122e-4
1.300e+2, -6.283e-4
1.301e+2, 5.144e-3
1.302e+2, 5.222e-3
1.303e+2, 3.911e-3
1.304e+2, 2.934e-3
1.305e+2, 2.261e-3
1.306e+2, 1.842e-3
1.307e+2, 1.596e-3
1.308e+2, 1.441e-3
1.309e+2, 1.348e-3
1.310e+2, 1.298e-3
1.311e+2, -7.911e-3
1.312e+2, -6.375e-3
1.313e+2, -4.263e-3
1.314e+2, -2.607e-3
1.315e+2, -1.694e-3
1.316e+2, -1.241e-3
1.317e+2, -9.867e-4
1.318e+2, -8.261e-4
1.319e+2, -7.114e-4
1.320e+2, -6.298e-4
1.321e+2, 5.097e-3
1.322e+2, 5.173e-3
1.323e+2, 3.892e-3
1.324e+2, 2.921e-3
1.325e+2, 2.250e-3
1.326e+2, 1.839e-3
1.327e+2, 1.594e-3
1.328e+2, 1.438e-3
1.329e+2, 1.347e-3
1.330e+2, 1.297e-3
1.331e+2, -7.893e-3
1.332e+2, -6.344e-3
1.333e+2, -4.226e-3
1.334e+2, -2.594e-3
1.335e+2, -1.698e-3
1.336e+2, -1.250e-3
1.337e+2, -9.976e-4
1.338e+2, -8.360e-4
1.339e+2, -7.187e-4
1.340e+2, -6.293e-4
1.341e+2, 5.067e-3
1.342e+2, 5.117e-3
1.343e+2, 3.877e-3
1.344e+2, 2.913e-3
1.345e+2, 2.235e-3
1.346e+2, 1.830e-3
1.347e+2, 1.591e-3
1.348e+2, 1.443e-3
1.349e+2, 1.352e-3
1.350e+2, 1.302e-3
1.351e+2, -7.875e-3
1.352e+2, -6.301e-3
1.353e+2, -4.172e-3
1.354e+2, -2.565e-3
1.355e+2, -1.691e-3
1.356e+2, -1.253e-3
1.357e+2, -9.980e-4
1.358e+2, -8.317e-4
1.359e+2, -7.169e-4
1.360e+2, -6.325e-4
1.361e+2, 5.015e-3
1.362e+2, 5.064e-3
1.363e+2, 3.868e-3
1.364e+2, 2.900e-3
1.365e+2, 2.235e-3
1.366e+2, 1.827e-3
1.367e+2, 1.587e-3
1.368e+2, 1.436e-3
1.369e+2, 1.346e-3
1.370e+2, 1.299e-3
1.371e+2, -7.852e-3
1.372e+2, -6.259e-3
1.373e+2, -4.129e-3
1.374e+2, -2.544e-3
1.375e+2, -1.686e-3
1.376e+2, -1.246e-3
1.377e+2, -1.001e-3
1.378e+2, -8.334e-4
1.379e+2, -7.134e-4
1.380e+2, -6.259e-4
1.381e+2, 4.968e-3
1.382e+2, 5.015e-3
1.383e+2, 3.842e-3
1.384e+2, 2.900e-3
1.385e+2, 2.228e-3
1.386e+2, 1.831e-3
1.387e+2, 1.592e-3
1.388e+2, 1.445e-3
1.389e+2, 1.356e-3
1.390e+2, 1.310e-3
1.391e+2, -7.843e-3
1.392e+2, -6.235e-3
1.393e+2, -4.079e-3
1.394e+2, -2.501e-3
1.395e+2, -1.662e-3
1.396e+2, -1.230e-3
1.397e+2, -9.802e-4
1.398e+2, -8.224e-4
1.399e+2, -7.101e-4
1.400e+2, -6.254e-4
1.401e+2, 4.909e-3
1.402e+2, 4.973e-3
1.403e+2, 3.813e-3
1.404e+2, 2.866e-3
1.405e+2, 2.210e-3
1.406e+2, 1.819e-3
1.407e+2, 1.587e-3
1.408e+2, 1.438e-3
1.409e+2, 1.352e-3
1.410e+2, 1.306e-3
1.411e+2, -7.833e-3
1.412e+2, -6.192e-3
1.413e+2, -4.028e-3
1.414e+2, -2.474e-3
1.415e+2, -1.649e-3
1.416e+2, -1.225e-3
1.417e+2, -9.774e-4
1.418e+2, -8.180e-4
1.419e+2, -7.027e-4
1.420e+2, -6.191e-4
1.421e+2, 4.850e-3
1.422e+2, 4.914e-3
1.423e+2, 3.783e-3
1.424e+2, 2.850e-3
1.425e+2, 2.197e-3
1.426e+2, 1.810e-3
1.427e+2, 1.576e-3
1.428e+2, 1.426e-3
1.429e+2, 1.341e-3
1.430e+2, 1.301e-3
1.431e+2, -7.808e-3
1.432e+2, -6.142e-3
1.433e+2, -3.968e-3
1.434e+2, -2.446e-3
1.435e+2, -1.638e-3
1.436e+2, -1.215e-3
1.437e+2, -9.715e-4
1.438e+2, -8.144e-4
1.439e+2, -6.987e-4
1.440e+2, -6.122e-4
1.441e+2, 4.801e-3
1.442e+2, 4.845e-3
1.443e+2, 3.748e-3
1.444e+2, 2.831e-3
1.445e+2, 2.186e-3
1.446e+2, 1.800e-3
1.447e+2, 1.566e-3
1.448e+2, 1.426e-3
1.449e+2, 1.344e-3
1.450e+2, 1.300e-3
1.451e+2, -7.787e-3
1.452e+2, -6.080e-3
1.453e+2, -3.905e-3
1.454e+2, -2.409e-3
1.455e+2, -1.622e-3
1.456e+2, -1.205e-3
1.457e+2, -9.596e-4
1.458e+2, -8.050e-4
1.459e+2, -6.941e-4
1.460e+2, -6.142e-4
1.461e+2, 4.726e-3
1.462e+2, 4.806e-3
1.463e+2, 3.714e-3
1.464e+2, 2.813e-3
1.465e+2, 2.182e-3
1.466e+2, 1.794e-3
1.467e+2, 1.559e-3
1.468e+2, 1.417e-3
1.469e+2, 1.342e-3
1.470e+2, 1.304e-3
1.471e+2, -7.773e-3
1.472e+2, -6.043e-3
1.473e+2, -3.857e-3
1.474e+2, -2.379e-3
1.475e+2, -1.613e-3
1.476e+2, -1.206e-3
1.477e+2, -9.657e-4
1.478e+2, -8.068e-4
1.479e+2, -7.006e-4
1.480e+2, -6.139e-4
1.481e+2, 4.678e-3
1.482e+2, 4.756e-3
1.483e+2, 3.688e-3
1.484e+2, 2.791e-3
1.485e+2, 2.164e-3
1.486e+2, 1.794e-3
1.487e+2, 1.563e-3
1.488e+2, 1.421e-3
1.489e+2, 1.344e-3
1.490e+2, 1.306e-3
1.491e+2, -7.750e-3
1.492e+2, -5.993e-3
1.493e+2, -3.798e-3
1.494e+2, -2.348e-3
1.495e+2, -1.584e-3
1.496e+2, -1.185e-3
1.497e+2, -9.499e-4
1.498e+2, -7.950e-4
1.499e+2, -6.850e-4
1.500e+2, -6.066e-4
1.501e+2, 4.605e-3
1.502e+2, 4.691e-3
1.503e+2, 3.637e-3
1.504e+2, 2.768e-3
1.505e+2, 2.158e-3
1.506e+2, 1.788e-3
1.507e+2, 1.557e-3
1.508e+2, 1.420e-3
1.509e+2, 1.342e-3
1.510e+2, 1.305e-3
1.511e+2, -7.733e-3
1.512e+2, -5.934e-3
1.513e+2, -3.735e-3
1.514e+2, -2.325e-3
1.515e+2, -1.582e-3
1.516e+2, -1.186e-3
1.517e+2, -9.469e-4
1.518e+2, -7.945e-4
1.519e+2, -6.835e-4
1.520e+2, -5.978e-4
1.521e+2, 4.539e-3
1.522e+2, 4.638e-3
1.523e+2, 3.615e-3
1.524e+2, 2.771e-3
1.525e+2, 2.149e-3
1.526e+2, 1.782e-3
1.527e+2, 1.556e-3
1.528e+2, 1.418e-3
1.529e+2, 1.341e-3
1.530e+2, 1.303e-3
1.531e+2, -7.715e-3
1.532e+2, -5.890e-3
1.533e+2, -3.701e-3
1.534e+2, -2.299e-3
1.535e+2, -1.561e-3
1.536e+2, -1.169e-3
1.537e+2, -9.330e-4
1.538e+2, -7.824e-4
1.539e+2, -6.750e-4
1.540e+2, -5.929e-4
1.541e+2, 4.468e-3
1.542e+2, 4.591e-3
1.543e+2, 3.585e-3
1.544e+2, 2.741e-3
1.545e+2, 2.136e-3
1.546e+2, 1.775e-3
1.547e+2, 1.551e-3
1.548e+2, 1.415e-3
1.549e+2, 1.338e-3
1.550e+2, 1.301e-3
1.551e+2, -7.691e-3
1.552e+2, -5.843e-3
1.553e+2, -3.652e-3
1.554e+2, -2.260e-3
1.555e+2, -1.540e-3
1.556e+2, -1.155e-3
1.557e+2, -9.245e-4
1.558e+2, -7.724e-4
1.559e+2, -6.601e-4
1.560e+2, -5.787e-4
1.561e+2, 4.388e-3
1.562e+2, 4.536e-3
1.563e+2, 3.552e-3
1.564e+2, 2.740e-3
1.565e+2, 2.138e-3
1.566e+2, 1.765e-3
1.567e+2, 1.543e-3
1.568e+2, 1.413e-3
1.569e+2, 1.339e-3
1.570e+2, 1.305e-3
1.571e+2, -7.673e-3
1.572e+2, -5.806e-3
1.573e+2, -3.624e-3
1.574e+2, -2.237e-3
1.575e+2, -1.518e-3
1.576e+2, -1.142e-3
1.577e+2, -9.116e-4
1.578e+2, -7.602e-4
1.579e+2, -6.539e-4
1.580e+2, -5.743e-4
1.581e+2, 4.338e-3
1.582e+2, 4.491e-3
1.583e+2, 3.509e-3
1.584e+2, 2.717e-3
1.585e+2, 2.141e-3
1.586e+2, 1.774e-3
1.587e+2, 1.549e-3
1.588e+2, 1.418e-3
1.589e+2, 1.347e-3
1.590e+2, 1.314e-3
1.591e+2, -7.652e-3
1.592e+2, -5.759e-3
1.593e+2, -3.599e-3
1.594e+2, -2.221e-3
1.595e+2, -1.503e-3
1.596e+2, -1.124e-3
1.597e+2, -8.989e-4
1.598e+2, -7.493e-4
1.599e+2, -6.444e-4
1.600e+2, -5.656e-4
1.601e+2, 4.279e-3
1.602e+2, 4.449e-3
1.603e+2, 3.479e-3
1.604e+2, 2.706e-3
1.605e+2, 2.127e-3
1.606e+2, 1.768e-3
1.607e+2, 1.552e-3
1.608e+2, 1.419e-3
1.609e+2, 1.346e-3
1.610e+2, 1.313e-3
1.611e+2, -7.638e-3
1.612e+2, -5.724e-3
1.613e+2, -3.557e-3
1.614e+2, -2.185e-3
1.615e+2, -1.478e-3
1.616e+2, -1.108e-3
1.617e+2, -8.898e-4
1.618e+2, -7.400e-4
1.619e+2, -6.357e-4
1.620e+2, -5.650e-4
1.621e+2, 4.235e-3
1.622e+2, 4.404e-3
1.623e+2, 3.448e-3
1.624e+2, 2.675e-3
1.625e+2, 2.107e-3
1.626e+2, 1.747e-3
1.627e+2, 1.538e-3
1.628e+2, 1.411e-3
1.629e+2, 1.340e-3
1.630e+2, 1.308e-3
1.631e+2, -7.613e-3
1.632e+2, -5.663e-3
1.633e+2, -3.525e-3
1.634e+2, -2.169e-3
1.635e+2, -1.462e-3
1.636e+2, -1.092e-3
1.637e+2, -8.736e-4
1.638e+2, -7.297e-4
1.639e+2, -6.305e-4
1.640e+2, -5.566e-4
1.641e+2, 4.177e-3
1.642e+2, 4.354e-3
1.643e+2, 3.425e-3
1.644e+2, 2.658e-3
1.645e+2, 2.088e-3
1.646e+2, 1.741e-3
1.647e+2, 1.528e-3
1.648e+2, 1.398e-3
1.649e+2, 1.328e-3
1.650e+2, 1.298e-3
1.651e+2, -7.593e-3
1.652e+2, -5.618e-3
1.653e+2, -3.472e-3
1.654e+2, -2.122e-3
1.655e+2, -1.427e-3
1.656e+2, -1.067e-3
1.657e+2, -8.578e-4
1.658e+2, -7.189e-4
1.659e+2, -6.214e-4
1.660e+2, -5.489e-4
1.661e+2, 4.158e-3
1.662e+2, 4.314e-3
1.663e+2, 3.365e-3
1.664e+2, 2.627e-3
1.665e+2, 2.072e-3
1.666e+2, 1.726e-3
1.667e+2, 1.517e-3
1.668e+2, 1.394e-3
1.669e+2, 1.326e-3
1.670e+2, 1.298e-3
1.671e+2, -7.575e-3
1.672e+2, -5.561e-3
1.673e+2, -3.427e-3
1.674e+2, -2.094e-3
1.675e+2, -1.417e-3
1.676e+2, -1.070e-3
1.677e+2, -8.612e-4
1.678e+2, -7.218e-4
1.679e+2, -6.226e-4
1.680e+2, -5.509e-4
1.681e+2, 4.127e-3
1.682e+2, 4.257e-3
1.683e+2, 3.344e-3
1.684e+2, 2.607e-3
1.685e+2, 2.054e-3
1.686e+2, 1.707e-3
1.687e+2, 1.502e-3
1.688e+2, 1.379e-3
1.689e+2, 1.314e-3
1.690e+2, 1.288e-3
1.691e+2, -7.546e-3
1.692e+2, -5.493e-3
1.693e+2, -3.361e-3
1.694e+2, -2.054e-3
1.695e+2, -1.399e-3
1.696e+2, -1.053e-3
1.697e+2, -8.506e-4
1.698e+2, -7.157e-4
1.699e+2, -6.157e-4
1.700e+2, -5.395e-4
1.701e+2, 4.078e-3
1.702e+2, 4.218e-3
1.703e+2, 3.298e-3
1.704e+2, 2.569e-3
1.705e+2, 2.034e-3
1.706e+2, 1.694e-3
1.707e+2, 1.492e-3
1.708e+2, 1.370e-3
1.709e+2, 1.304e-3
1.710e+2, 1.280e-3
1.711e+2, -7.516e-3
1.712e+2, -5.423e-3
1.713e+2, -3.273e-3
1.714e+2, -1.999e-3
1.715e+2, -1.367e-3
1.716e+2, -1.033e-3
1.717e+2, -8.437e-4
1.718e+2, -7.064e-4
1.719e+2, -6.105e-4
1.720e+2, -5.383e-4
1.721e+2, 4.015e-3
1.722e+2, 4.157e-3
1.723e+2, 3.247e-3
1.724e+2, 2.537e-3
1.725e+2, 2.012e-3
1.726e+2, 1.679e-3
1.727e+2, 1.475e-3
1.728e+2, 1.355e-3
1.729e+2, 1.294e-3
1.730e+2, 1.269e-3
1.731e+2, -7.493e-3
1.732e+2, -5.335e-3
1.733e+2, -3.182e-3
1.734e+2, -1.967e-3
1.735e+2, -1.363e-3
1.736e+2, -1.031e-3
1.737e+2, -8.284e-4
1.738e+2, -6.962e-4
1.739e+2, -6.054e-4
1.740e+2, -5.340e-4
1.741e+2, 3.963e-3
1.742e+2, 4.102e-3
1.743e+2, 3.225e-3
1.744e+2, 2.524e-3
1.745e+2, 1.989e-3
1.746e+2, 1.664e-3
1.747e+2, 1.462e-3
1.748e+2, 1.342e-3
1.749e+2, 1.282e-3
1.750e+2, 1.260e-3
1.751e+2, -7.454e-3
1.752e+2, -5.249e-3
1.753e+2, -3.098e-3
1.754e+2, -1.932e-3
1.755e+2, -1.344e-3
1.756e+2, -1.024e-3
1.757e+2, -8.249e-4
1.758e+2, -6.926e-4
1.759e+2, -5.977e-4
1.760e+2, -5.247e-4
1.761e+2, 3.905e-3
1.762e+2, 4.038e-3
1.763e+2, 3.181e-3
1.764e+2, 2.499e-3
1.765e+2, 1.977e-3
1.766e+2, 1.647e-3
1.767e+2, 1.451e-3
1.768e+2, 1.333e-3
1.769e+2, 1.269e-3
1.770e+2, 1.247e-3
1.771e+2, -7.421e-3
1.772e+2, -5.149e-3
1.773e+2, -3.009e-3
1.774e+2, -1.888e-3
1.775e+2, -1.327e-3
1.776e+2, -1.026e-3
1.777e+2, -8.349e-4
1.778e+2, -7.035e-4
1.779e+2, -6.077e-4
1.780e+2, -5.354e-4
1.781e+2, 3.875e-3
1.782e+2, 3.997e-3
1.783e+2, 3.163e-3
1.784e+2, 2.474e-3
1.785e+2, 1.964e-3
1.786e+2, 1.637e-3
1.787e+2, 1.438e-3
1.788e+2, 1.323e-3
1.789e+2, 1.264e-3
1.790e+2, 1.242e-3
1.791e+2, -7.390e-3
1.792e+2, -5.088e-3
1.793e+2, -2.957e-3
1.794e+2, -1.873e-3
1.795e+2, -1.327e-3
1.796e+2, -1.012e-3
1.797e+2, -8.164e-4
1.798e+2, -6.885e-4
1.799e+2, -5.965e-4
1.800e+2, -5.276e-4
1.801e+2, 3.859e-3
1.802e+2, 3.974e-3
1.803e+2, 3.120e-3
1.804e+2, 2.440e-3
1.805e+2, 1.935e-3
1.806e+2, 1.616e-3
1.807e+2, 1.423e-3
1.808e+2, 1.310e-3
1.809e+2, 1.255e-3
1.810e+2, 1.237e-3
