Potential V vs RHE, Current mA cm-2
0.05339999999999995,0.42441338995951106
0.05239999999999995,0.32736419478876944
0.051399999999999946,0.2082455033401334
0.050399999999999945,0.10733414632076034
0.049399999999999944,0.02434718147067728
0.04839999999999994,-0.045963970132615044
0.04739999999999994,-0.10541013895294389
0.04639999999999994,-0.15646706976507307
0.04539999999999994,-0.2010304757108217
0.04439999999999994,-0.24007650758709673
0.04339999999999994,-0.2751613478237496
0.04239999999999994,-0.30755823659065895
0.04139999999999994,-0.3362768759779193
0.040399999999999936,-0.36301491954536846
0.039399999999999935,-0.38763089616302
0.038399999999999934,-0.4116809882607257
0.03739999999999993,-0.4338919556686068
0.03639999999999993,-0.4541223272566768
0.03539999999999993,-0.47392828545478727
0.03439999999999993,-0.4928854168729787
0.03339999999999993,-0.5101448947313323
0.03239999999999993,-0.5274043725896858
0.03139999999999993,-0.5442394370580796
0.030399999999999927,-0.559801261356595
0.029399999999999926,-0.5756460279150835
0.028399999999999925,-0.5909249099536259
0.027399999999999924,-0.6060623208621817
0.026399999999999924,-0.6203509049908186
0.025399999999999923,-0.6339321334695229
0.024399999999999922,-0.6473718908182408
0.02339999999999992,-0.6615190038168911
0.02239999999999992,-0.6748172900356225
0.02139999999999992,-0.6876911628643944
0.020399999999999918,-0.7004235645631797
0.019399999999999917,-0.7130144951319785
0.018399999999999916,-0.7254639545707907
0.017399999999999916,-0.7372060583596707
0.016399999999999915,-0.74937257553851
0.015399999999999914,-0.7606902659374303
0.014399999999999913,-0.7721494274663371
0.013399999999999912,-0.7843159446451763
0.012399999999999911,-0.7956336350440966
0.01139999999999991,-0.8065269120530575
0.01039999999999991,-0.8174201890620182
0.009399999999999908,-0.8284549372009655
0.008399999999999908,-0.8392067430799398
0.007399999999999907,-0.8498170778289276
0.006399999999999906,-0.8601444703179423
0.005399999999999905,-0.8708962761969166
0.004399999999999904,-0.8810821975559447
0.003399999999999903,-0.8911266477849867
0.002399999999999902,-0.9017369825339743
0.0013999999999999013,-0.9114984905030432
0.00039999999999990044,-0.9215429407320849
-0.0006000000000001005,-0.9311629775711672
-0.0016000000000001013,-0.9409244855402358
-0.0026000000000001022,-0.9512518780292506
-0.003600000000000103,-0.9612963282582925
-0.004600000000000104,-0.9707748939673883
-0.005600000000000105,-0.98081934419643
-0.006600000000000106,-0.9902979099055255
-0.007600000000000107,-0.9994935333546484
-0.008600000000000108,-1.0093965124537037
-0.009600000000000108,-1.0188750781627993
-0.01060000000000011,-1.0283536438718952
-0.01160000000000011,-1.037549267321018
-0.012600000000000111,-1.0481596020700057
-0.013600000000000112,-1.0580625811690607
-0.014600000000000113,-1.066692320098238
-0.015600000000000114,-1.0756050012873875
-0.016600000000000115,-1.0843762113465507
-0.017600000000000116,-1.0934303636656868
-0.018600000000000116,-1.102767458244796
-0.019600000000000117,-1.1118216105639322
-0.020600000000000118,-1.1204513494931092
-0.02160000000000012,-1.1296469729422318
-0.02260000000000012,-1.138701125261368
-0.02360000000000012,-1.1478967487104907
-0.024600000000000122,-1.1568094298996403
-0.025600000000000123,-1.165439168828817
-0.026600000000000124,-1.174351850017967
-0.027600000000000124,-1.1826986466871707
-0.028600000000000125,-1.1910454433563744
-0.029600000000000126,-1.1996751822855511
-0.030600000000000127,-1.2078805078247683
-0.03160000000000013,-1.2163687756239585
-0.03260000000000013,-1.2248570434231487
-0.03360000000000013,-1.233345311222339
-0.03460000000000002,-1.2421165212815022
-0.03560000000000002,-1.2504633179507059
-0.03660000000000002,-1.2585271723599365
-0.03760000000000002,-1.2668739690291404
-0.03860000000000002,-1.2755037079583171
-0.039600000000000024,-1.2837090334975343
-0.040600000000000025,-1.291489945646792
-0.041600000000000026,-1.2992708577960497
-0.04260000000000003,-1.3070517699453075
-0.04360000000000003,-1.3153985666145112
-0.04460000000000003,-1.3233209498937553
-0.04560000000000003,-1.3312433331729996
-0.04660000000000003,-1.3385998319322978
-0.04760000000000003,-1.346805157471515
-0.04860000000000003,-1.3547275407507593
-0.04960000000000003,-1.3619425683800708
-0.050600000000000034,-1.3697234805293286
-0.051600000000000035,-1.377221450418613
-0.052600000000000036,-1.3845779491779113
-0.053600000000000037,-1.3919344479372096
-0.05460000000000004,-1.3985835910465754
-0.05560000000000004,-1.405798618675887
-0.05660000000000004,-1.4130136463051988
-0.05760000000000004,-1.420370145064497
-0.05860000000000004,-1.427443701563822
-0.05960000000000004,-1.4345172580631471
-0.06060000000000004,-1.4415908145624723
-0.061600000000000044,-1.4486643710617975
-0.06260000000000004,-1.4543232162612578
-0.06360000000000005,-1.461396772760583
-0.06460000000000005,-1.4684703292599082
-0.06560000000000005,-1.4755438857592333
-0.06660000000000005,-1.4826174422585585
-0.06760000000000005,-1.4882762874580184
-0.06860000000000005,-1.4953498439573436
-0.06960000000000005,-1.502423400456669
-0.07060000000000005,-1.5080822456561291
-0.07160000000000005,-1.5151558021554543
-0.07260000000000005,-1.5208146473549145
-0.07360000000000005,-1.5278882038542394
-0.07460000000000006,-1.5349617603535646
-0.07560000000000006,-1.540620605553025
-0.07660000000000006,-1.54769416205235
-0.07760000000000006,-1.5547677185516753
-0.07860000000000006,-1.5604265637511354
-0.07960000000000006,-1.5675001202504606
-0.08060000000000006,-1.5731589654499207
-0.08160000000000006,-1.580232521949246
-0.08260000000000006,-1.587306078448571
-0.08360000000000006,-1.5929649236480312
-0.08460000000000006,-1.6000384801473564
-0.08560000000000006,-1.6071120366466816
-0.08660000000000007,-1.612770881846142
-0.08760000000000007,-1.6198444383454669
-0.08860000000000007,-1.626917994844792
-0.08960000000000007,-1.6339915513441174
-0.09060000000000007,-1.6424798191433077
-0.09160000000000007,-1.6495533756426328
-0.09260000000000007,-1.656626932141958
-0.09360000000000007,-1.6637004886412832
-0.09460000000000007,-1.6707740451406083
-0.09560000000000007,-1.6778476016399335
-0.09660000000000007,-1.6863358694391237
-0.09760000000000008,-1.694824137238314
-0.09860000000000008,-1.701897693737639
-0.09960000000000008,-1.7103859615368293
-0.10060000000000008,-1.7174595180361545
-0.10160000000000008,-1.72736249713521
-0.10260000000000008,-1.734436053634535
-0.10360000000000008,-1.7429243214337253
-0.10460000000000008,-1.7528273005327806
-0.10560000000000008,-1.7613155683319706
-0.10660000000000008,-1.769803836131161
-0.10760000000000008,-1.778292103930351
-0.10860000000000009,-1.7881950830294064
-0.10960000000000009,-1.7980980621284617
-0.11060000000000009,-1.8080010412275167
-0.11160000000000009,-1.8179040203265722
-0.11260000000000009,-1.8278069994256272
-0.11360000000000009,-1.8362952672248178
-0.11460000000000009,-1.847612957623738
-0.11560000000000009,-1.8589306480226582
-0.11660000000000009,-1.8702483384215782
-0.1176000000000001,-1.8801513175206337
-0.1186000000000001,-1.890054296619689
-0.1196000000000001,-1.9013719870186092
-0.1206000000000001,-1.9126896774175295
-0.1216000000000001,-1.922592656516585
-0.1226000000000001,-1.93532505821537
-0.1236000000000001,-1.9466427486142908
-0.1246000000000001,-1.9579604390132106
-0.1256000000000001,-1.9692781294121309
-0.1266000000000001,-1.9820105311109162
-0.1276000000000001,-1.993328221509837
-0.1286000000000001,-2.0060606232086218
-0.1296000000000001,-2.017378313607542
-0.1306000000000001,-2.0301107153063276
-0.1316000000000001,-2.042843117005113
-0.1326000000000001,-2.0555755187038987
-0.1336000000000001,-2.0683079204026833
-0.1346000000000001,-2.081040322101469
-0.1356000000000001,-2.095187435100119
-0.1366000000000001,-2.1079198367989047
-0.1376000000000001,-2.1206522384976902
-0.1386000000000001,-2.1347993514963406
-0.1396000000000001,-2.148946464494991
-0.1406000000000001,-2.161678866193776
-0.14160000000000011,-2.1758259791924264
-0.14260000000000012,-2.1885583808912115
-0.14360000000000012,-2.202705493889862
-0.14460000000000012,-2.216852606888512
-0.14560000000000012,-2.230999719887163
-0.14660000000000012,-2.2451468328858133
-0.14760000000000012,-2.260708657184329
-0.14860000000000012,-2.2748557701829792
-0.14960000000000012,-2.2890028831816296
-0.15060000000000012,-2.30314999618028
-0.15160000000000012,-2.3172971091789303
-0.15260000000000012,-2.3328589334774454
-0.15360000000000013,-2.348420757775961
-0.15460000000000013,-2.362567870774611
-0.15560000000000013,-2.3781296950731265
-0.15660000000000013,-2.392276808071777
-0.15760000000000013,-2.407838632370292
-0.15860000000000013,-2.4234004566688077
-0.15960000000000002,-2.438962280967323
-0.16060000000000002,-2.4531093939659736
-0.16160000000000002,-2.468671218264489
-0.16260000000000002,-2.4842330425630044
-0.16360000000000002,-2.49979486686152
-0.16460000000000002,-2.515356691160035
-0.16560000000000002,-2.5309185154585507
-0.16660000000000003,-2.550724473656661
-0.16760000000000003,-2.5662862979551764
-0.16860000000000003,-2.581848122253692
-0.16960000000000003,-2.597409946552207
-0.17060000000000003,-2.6129717708507227
-0.17160000000000003,-2.6285335951492383
-0.17260000000000003,-2.6440954194477535
-0.17360000000000003,-2.661071955046134
-0.17460000000000003,-2.6766337793446495
-0.17560000000000003,-2.69361031494303
-0.17660000000000003,-2.709172139241545
-0.17760000000000004,-2.7261486748399255
-0.17860000000000004,-2.741710499138441
-0.17960000000000004,-2.7586870347368215
-0.18060000000000004,-2.7742488590353367
-0.18160000000000004,-2.791225394633717
-0.18260000000000004,-2.8082019302320975
-0.18360000000000004,-2.8251784658304784
-0.18460000000000004,-2.842155001428859
-0.18560000000000004,-2.8577168257273744
-0.18660000000000004,-2.8761080726256196
-0.18760000000000004,-2.893084608224
-0.18860000000000005,-2.9100611438223805
-0.18960000000000005,-2.927037679420761
-0.19060000000000005,-2.9440142150191413
-0.19160000000000005,-2.9609907506175217
-0.19260000000000005,-2.977967286215902
-0.19360000000000005,-2.994943821814283
-0.19460000000000005,-3.0119203574126634
-0.19560000000000005,-3.028896893011044
-0.19660000000000005,-3.0458734286094242
-0.19760000000000005,-3.0642646755076695
-0.19860000000000005,-3.079826499806185
-0.19960000000000006,-3.0982177467044303
-0.20060000000000006,-3.1151942823028107
-0.20160000000000006,-3.1321708179011907
-0.20260000000000006,-3.150562064799437
-0.20360000000000006,-3.167538600397817
-0.20460000000000006,-3.1845151359961976
-0.20560000000000006,-3.201491671594578
-0.20660000000000006,-3.2184682071929585
-0.20760000000000006,-3.235444742791339
-0.20860000000000006,-3.2524212783897193
-0.20960000000000006,-3.2693978139880997
-0.21060000000000006,-3.28637434958648
-0.21160000000000007,-3.303350885184861
-0.21260000000000007,-3.3203274207832414
-0.21360000000000007,-3.3373039563816214
-0.21460000000000007,-3.352865780680137
-0.21560000000000007,-3.3698423162785174
-0.21660000000000007,-3.386818851876898
-0.21760000000000007,-3.403795387475278
-0.21860000000000007,-3.4207719230736586
-0.21960000000000007,-3.437748458672039
-0.22060000000000007,-3.453310282970554
-0.22160000000000007,-3.4702868185689346
-0.22260000000000008,-3.4858486428674507
-0.22360000000000008,-3.5014104671659654
-0.22460000000000008,-3.5169722914644814
-0.22560000000000008,-3.5311194044631313
-0.22660000000000008,-3.546681228761647
-0.22760000000000008,-3.562243053060162
-0.22860000000000008,-3.5778048773586777
-0.22960000000000008,-3.591951990357328
-0.23060000000000008,-3.606099103355979
-0.23160000000000008,-3.6216609276544935
-0.23260000000000008,-3.6358080406531443
-0.23360000000000009,-3.6499551536517942
-0.2346000000000001,-3.66268755535058
-0.2356000000000001,-3.67683466834923
-0.2366000000000001,-3.690981781347881
-0.2376000000000001,-3.7037141830466664
-0.2386000000000001,-3.716446584745451
-0.2396000000000001,-3.7291789864442366
-0.2406000000000001,-3.7419113881430217
-0.2416000000000001,-3.7532290785419424
-0.2426000000000001,-3.765961480240728
-0.2436000000000001,-3.7772791706396474
-0.2446000000000001,-3.7900115723384333
-0.2456000000000001,-3.801329262737354
-0.2466000000000001,-3.811232241836409
-0.2476000000000001,-3.822549932235329
-0.2486000000000001,-3.832452911334385
-0.2496000000000001,-3.84235589043344
-0.2506000000000001,-3.852258869532495
-0.2516000000000001,-3.8621618486315503
-0.2526000000000001,-3.87065011643074
-0.2536000000000001,-3.8805530955297955
-0.2546000000000001,-3.887626652029121
-0.2556000000000001,-3.896114919828311
-0.2566000000000001,-3.9046031876275014
-0.2576000000000001,-3.9116767441268263
-0.2586000000000001,-3.918750300626152
-0.2596000000000001,-3.9258238571254775
-0.2606000000000001,-3.931482702324937
-0.2616000000000001,-3.9385562588242617
-0.2626000000000001,-3.944215104023722
-0.2636000000000001,-3.9498739492231825
-0.2646000000000001,-3.9555327944226426
-0.2656000000000001,-3.9597769283222375
-0.2666000000000001,-3.9640210622218324
-0.2676000000000001,-3.9668504848215624
-0.2686000000000001,-3.971094618721158
-0.2696000000000001,-3.973924041320888
-0.2706000000000001,-3.9767534639206183
-0.2716000000000001,-3.979582886520348
-0.2726000000000001,-3.982412309120079
-0.2736000000000001,-3.9838270204199433
-0.2746000000000001,-3.9852417317198086
-0.2756000000000001,-3.986656443019674
-0.2766000000000001,-3.988071154319539
-0.2776000000000001,-3.988071154319539
-0.2786000000000001,-3.988071154319539
-0.2796000000000001,-3.988071154319539
-0.2806000000000001,-3.988071154319539
-0.28160000000000013,-3.986656443019674
-0.28260000000000013,-3.9852417317198086
-0.28360000000000013,-3.9838270204199433
-0.2846,-3.982412309120079
-0.2856,-3.979582886520348
-0.2866,-3.9767534639206183
-0.2876,-3.973924041320888
-0.2886,-3.971094618721158
-0.2896,-3.9668504848215624
-0.2906,-3.962606350921967
-0.2916,-3.958362217022373
-0.2926,-3.9541180831227782
-0.2936,-3.9498739492231825
-0.29460000000000003,-3.944215104023722
-0.29560000000000003,-3.9385562588242617
-0.29660000000000003,-3.932897413624801
-0.29760000000000003,-3.9258238571254775
-0.29860000000000003,-3.9201650119260174
-0.29960000000000003,-3.9130914554266916
-0.30060000000000003,-3.906017898927366
-0.30160000000000003,-3.9003590537279056
-0.30260000000000004,-3.8918707859287163
-0.30360000000000004,-3.884797229429391
-0.30460000000000004,-3.8763089616302007
-0.30560000000000004,-3.86782069383101
-0.30660000000000004,-3.8593324260318203
-0.30760000000000004,-3.85084415823263
-0.30860000000000004,-3.84235589043344
-0.30960000000000004,-3.832452911334385
-0.31060000000000004,-3.822549932235329
-0.31160000000000004,-3.8140616644361387
-0.31260000000000004,-3.8041586853370832
-0.31360000000000005,-3.794255706238028
-0.31460000000000005,-3.782938015839108
-0.31560000000000005,-3.7730350367400525
-0.31660000000000005,-3.7631320576409975
-0.31760000000000005,-3.7532290785419424
-0.31860000000000005,-3.7419113881430217
-0.31960000000000005,-3.7320084090439667
-0.32060000000000005,-3.7221054299449117
-0.32160000000000005,-3.7093730282461257
-0.32260000000000005,-3.698055337847206
-0.32360000000000005,-3.686737647448285
-0.32460000000000006,-3.674005245749501
-0.32560000000000006,-3.66268755535058
-0.32660000000000006,-3.6513698649516595
-0.32760000000000006,-3.6400521745527397
-0.32860000000000006,-3.627319772853954
-0.32960000000000006,-3.6145873711551686
-0.33060000000000006,-3.6032696807562488
-0.33160000000000006,-3.591951990357328
-0.33260000000000006,-3.579219588658543
-0.33360000000000006,-3.566487186959758
-0.33460000000000006,-3.553754785260972
-0.33560000000000006,-3.542437094862052
-0.33660000000000007,-3.5297046931632665
-0.33760000000000007,-3.5169722914644814
-0.33860000000000007,-3.505654601065561
-0.33960000000000007,-3.492922199366775
-0.34060000000000007,-3.4801897976679905
-0.34160000000000007,-3.4674573959692045
-0.34260000000000007,-3.45472499427042
-0.34360000000000007,-3.4434073038714996
-0.3446000000000001,-3.430674902172714
-0.3456000000000001,-3.4179425004739286
-0.3466000000000001,-3.405210098775143
-0.34759999999999996,-3.392477697076358
-0.3486000000000001,-3.381160006677438
-0.34959999999999997,-3.368427604978652
-0.3506000000000001,-3.355695203279867
-0.35159999999999997,-3.3443775128809468
-0.3526000000000001,-3.3316451111821612
-0.35359999999999997,-3.3189127094833766
-0.3546000000000001,-3.307595019084456
-0.35559999999999997,-3.2948626173856703
-0.3566000000000001,-3.28354492698675
-0.3576,-3.27222723658783
-0.3586000000000001,-3.2609095461889095
-0.3596,-3.2481771444901244
-0.3606000000000001,-3.2368594540912037
-0.3616,-3.225541763692284
-0.3626000000000001,-3.214224073293363
-0.3636,-3.202906382894443
-0.3646000000000001,-3.1915886924955226
-0.3656,-3.1802710020966023
-0.3666000000000001,-3.1703680229975473
-0.3676,-3.159050332598627
-0.3686000000000001,-3.1477326421997063
-0.3696,-3.1364149518007864
-0.3706000000000001,-3.1279266840015962
-0.3716,-3.1180237049025408
-0.3726000000000001,-3.1081207258034858
-0.3736,-3.0968030354045655
-0.3746000000000001,-3.08690005630551
-0.3756,-3.07841178850632
-0.3766000000000001,-3.069923520707129
-0.3776,-3.0586058303082093
-0.3786000000000001,-3.050117562509019
-0.3796,-3.0402145834099636
-0.3806000000000001,-3.031726315610774
-0.3816,-3.0232380478115832
-0.3826000000000001,-3.0147497800123935
-0.3836,-3.006261512213203
-0.3846000000000001,-2.997773244414013
-0.3856,-2.989284976614823
-0.3866000000000001,-2.9807967088156326
-0.3876,-2.972308441016442
-0.3886000000000001,-2.965234884517117
-0.3896,-2.9581613280177916
-0.3906000000000001,-2.9510877715184667
-0.3916,-2.9440142150191413
-0.3926000000000001,-2.9369406585198163
-0.3936,-2.9298671020204905
-0.3946000000000001,-2.922793545521166
-0.3956,-2.9171347003217054
-0.3966000000000001,-2.9114758551222453
-0.3976,-2.9058170099227856
-0.3986000000000001,-2.900158164723325
-0.3996,-2.8944993195238653
-0.4006000000000001,-2.888840474324405
-0.4016,-2.8831816291249446
-0.4026000000000001,-2.8789374952253497
-0.4036,-2.874693361325755
-0.4046000000000001,-2.870449227426159
-0.4056,-2.867619804826429
-0.40660000000000013,-2.863375670926834
-0.4076,-2.859131537027239
-0.40860000000000013,-2.856302114427509
-0.4096,-2.852057980527914
-0.41060000000000013,-2.8506432692280486
-0.4116,-2.8478138466283185
-0.41260000000000013,-2.844984424028589
-0.4136,-2.843569712728724
-0.41460000000000014,-2.840740290128994
-0.4156,-2.8393255788291283
-0.41660000000000014,-2.8379108675292635
-0.4176,-2.836496156229398
-0.41860000000000014,-2.836496156229398
-0.41960000000000003,-2.836496156229398
-0.42060000000000014,-2.8350814449295334
-0.42160000000000003,-2.836496156229398
-0.42260000000000014,-2.836496156229398
-0.42360000000000003,-2.836496156229398
-0.42460000000000014,-2.8379108675292635
-0.42560000000000003,-2.8379108675292635
-0.42660000000000015,-2.8393255788291283
-0.42760000000000004,-2.840740290128994
-0.42860000000000015,-2.842155001428859
-0.42960000000000004,-2.844984424028589
-0.43060000000000015,-2.8478138466283185
-0.43160000000000004,-2.8506432692280486
-0.43260000000000015,-2.8534726918277786
-0.43360000000000004,-2.856302114427509
-0.43460000000000015,-2.859131537027239
-0.43560000000000004,-2.863375670926834
-0.43660000000000015,-2.866205093526564
-0.43760000000000004,-2.8718639387260247
-0.43860000000000016,-2.8761080726256196
-0.43960000000000005,-2.8803522065252145
-0.44060000000000016,-2.8860110517246746
-0.44160000000000005,-2.8916698969241352
-0.44260000000000016,-2.8987434534234597
-0.44360000000000005,-2.9058170099227856
-0.44460000000000016,-2.9114758551222453
-0.44560000000000005,-2.9171347003217054
-0.44660000000000016,-2.924208256821031
-0.44760000000000005,-2.932696524620221
-0.44860000000000017,-2.9397700811195464
-0.44960000000000006,-2.9482583489187366
-0.45060000000000017,-2.956746616717927
-0.45160000000000006,-2.963820173217252
-0.45260000000000017,-2.973723152316307
