July 15, 2024   17:01:20
Linear Sweep Voltammetry
File: c:/users/guazh/data/20240709_batch67/2024-07-10-exp53\pre-regen-2024-07-15t16_58_14-lsvinphos\pre-regen_lsv_50mvs_efin_-1900mv.bin
Data Source:  Experiment
Instrument Model:  CHI760E
Header: LSV ran at 50 mVs with Efin at -1900mV
Note: 

Init E (V) = -0.6
Final E (V) = -1.9
Scan Rate (V/s) = 0.05
Sample Interval (V) = 0.001
Quiet Time (sec) = 2
Sensitivity (A/V) = 1e-4
Comp R (ohm) = 10.2

Results:

Channel 1:
Ep = -1.824V
ip = 6.022e-4A
Ah = 7.537e-4C

Potential/V, Current/A

-0.600, 9.759e-6
-0.601, 1.030e-5
-0.602, 1.052e-5
-0.603, 1.064e-5
-0.604, 1.074e-5
-0.605, 1.083e-5
-0.606, 1.092e-5
-0.607, 1.101e-5
-0.608, 1.108e-5
-0.609, 1.114e-5
-0.610, 1.121e-5
-0.611, 1.129e-5
-0.612, 1.135e-5
-0.613, 1.141e-5
-0.614, 1.147e-5
-0.615, 1.152e-5
-0.616, 1.158e-5
-0.617, 1.164e-5
-0.618, 1.169e-5
-0.619, 1.174e-5
-0.620, 1.178e-5
-0.621, 1.184e-5
-0.622, 1.190e-5
-0.623, 1.194e-5
-0.624, 1.198e-5
-0.625, 1.202e-5
-0.626, 1.206e-5
-0.627, 1.210e-5
-0.628, 1.214e-5
-0.629, 1.217e-5
-0.630, 1.221e-5
-0.631, 1.226e-5
-0.632, 1.230e-5
-0.633, 1.234e-5
-0.634, 1.237e-5
-0.635, 1.240e-5
-0.636, 1.245e-5
-0.637, 1.249e-5
-0.638, 1.253e-5
-0.639, 1.255e-5
-0.640, 1.258e-5
-0.641, 1.262e-5
-0.642, 1.266e-5
-0.643, 1.269e-5
-0.644, 1.272e-5
-0.645, 1.275e-5
-0.646, 1.279e-5
-0.647, 1.283e-5
-0.648, 1.285e-5
-0.649, 1.288e-5
-0.650, 1.290e-5
-0.651, 1.294e-5
-0.652, 1.298e-5
-0.653, 1.301e-5
-0.654, 1.304e-5
-0.655, 1.306e-5
-0.656, 1.310e-5
-0.657, 1.313e-5
-0.658, 1.316e-5
-0.659, 1.318e-5
-0.660, 1.321e-5
-0.661, 1.324e-5
-0.662, 1.328e-5
-0.663, 1.330e-5
-0.664, 1.332e-5
-0.665, 1.335e-5
-0.666, 1.339e-5
-0.667, 1.343e-5
-0.668, 1.345e-5
-0.669, 1.348e-5
-0.670, 1.350e-5
-0.671, 1.353e-5
-0.672, 1.357e-5
-0.673, 1.360e-5
-0.674, 1.361e-5
-0.675, 1.364e-5
-0.676, 1.367e-5
-0.677, 1.371e-5
-0.678, 1.374e-5
-0.679, 1.376e-5
-0.680, 1.378e-5
-0.681, 1.382e-5
-0.682, 1.385e-5
-0.683, 1.388e-5
-0.684, 1.390e-5
-0.685, 1.393e-5
-0.686, 1.396e-5
-0.687, 1.399e-5
-0.688, 1.402e-5
-0.689, 1.404e-5
-0.690, 1.407e-5
-0.691, 1.410e-5
-0.692, 1.414e-5
-0.693, 1.416e-5
-0.694, 1.419e-5
-0.695, 1.421e-5
-0.696, 1.425e-5
-0.697, 1.429e-5
-0.698, 1.431e-5
-0.699, 1.434e-5
-0.700, 1.436e-5
-0.701, 1.440e-5
-0.702, 1.444e-5
-0.703, 1.446e-5
-0.704, 1.449e-5
-0.705, 1.452e-5
-0.706, 1.455e-5
-0.707, 1.459e-5
-0.708, 1.462e-5
-0.709, 1.465e-5
-0.710, 1.468e-5
-0.711, 1.471e-5
-0.712, 1.475e-5
-0.713, 1.478e-5
-0.714, 1.480e-5
-0.715, 1.483e-5
-0.716, 1.487e-5
-0.717, 1.491e-5
-0.718, 1.494e-5
-0.719, 1.497e-5
-0.720, 1.500e-5
-0.721, 1.504e-5
-0.722, 1.508e-5
-0.723, 1.511e-5
-0.724, 1.514e-5
-0.725, 1.517e-5
-0.726, 1.521e-5
-0.727, 1.525e-5
-0.728, 1.528e-5
-0.729, 1.531e-5
-0.730, 1.534e-5
-0.731, 1.538e-5
-0.732, 1.542e-5
-0.733, 1.546e-5
-0.734, 1.549e-5
-0.735, 1.552e-5
-0.736, 1.556e-5
-0.737, 1.560e-5
-0.738, 1.564e-5
-0.739, 1.567e-5
-0.740, 1.571e-5
-0.741, 1.575e-5
-0.742, 1.579e-5
-0.743, 1.583e-5
-0.744, 1.586e-5
-0.745, 1.589e-5
-0.746, 1.593e-5
-0.747, 1.598e-5
-0.748, 1.602e-5
-0.749, 1.605e-5
-0.750, 1.608e-5
-0.751, 1.613e-5
-0.752, 1.617e-5
-0.753, 1.621e-5
-0.754, 1.624e-5
-0.755, 1.628e-5
-0.756, 1.632e-5
-0.757, 1.637e-5
-0.758, 1.641e-5
-0.759, 1.644e-5
-0.760, 1.647e-5
-0.761, 1.652e-5
-0.762, 1.656e-5
-0.763, 1.661e-5
-0.764, 1.664e-5
-0.765, 1.667e-5
-0.766, 1.672e-5
-0.767, 1.676e-5
-0.768, 1.681e-5
-0.769, 1.684e-5
-0.770, 1.687e-5
-0.771, 1.691e-5
-0.772, 1.696e-5
-0.773, 1.699e-5
-0.774, 1.703e-5
-0.775, 1.706e-5
-0.776, 1.711e-5
-0.777, 1.716e-5
-0.778, 1.720e-5
-0.779, 1.723e-5
-0.780, 1.726e-5
-0.781, 1.731e-5
-0.782, 1.735e-5
-0.783, 1.739e-5
-0.784, 1.742e-5
-0.785, 1.746e-5
-0.786, 1.750e-5
-0.787, 1.755e-5
-0.788, 1.758e-5
-0.789, 1.762e-5
-0.790, 1.765e-5
-0.791, 1.769e-5
-0.792, 1.774e-5
-0.793, 1.777e-5
-0.794, 1.781e-5
-0.795, 1.785e-5
-0.796, 1.788e-5
-0.797, 1.792e-5
-0.798, 1.796e-5
-0.799, 1.798e-5
-0.800, 1.801e-5
-0.801, 1.805e-5
-0.802, 1.809e-5
-0.803, 1.813e-5
-0.804, 1.815e-5
-0.805, 1.818e-5
-0.806, 1.822e-5
-0.807, 1.825e-5
-0.808, 1.828e-5
-0.809, 1.831e-5
-0.810, 1.833e-5
-0.811, 1.837e-5
-0.812, 1.841e-5
-0.813, 1.844e-5
-0.814, 1.846e-5
-0.815, 1.849e-5
-0.816, 1.852e-5
-0.817, 1.855e-5
-0.818, 1.858e-5
-0.819, 1.862e-5
-0.820, 1.865e-5
-0.821, 1.867e-5
-0.822, 1.870e-5
-0.823, 1.872e-5
-0.824, 1.874e-5
-0.825, 1.876e-5
-0.826, 1.878e-5
-0.827, 1.881e-5
-0.828, 1.883e-5
-0.829, 1.885e-5
-0.830, 1.887e-5
-0.831, 1.889e-5
-0.832, 1.892e-5
-0.833, 1.893e-5
-0.834, 1.894e-5
-0.835, 1.895e-5
-0.836, 1.897e-5
-0.837, 1.899e-5
-0.838, 1.901e-5
-0.839, 1.902e-5
-0.840, 1.903e-5
-0.841, 1.905e-5
-0.842, 1.906e-5
-0.843, 1.907e-5
-0.844, 1.908e-5
-0.845, 1.909e-5
-0.846, 1.910e-5
-0.847, 1.911e-5
-0.848, 1.912e-5
-0.849, 1.912e-5
-0.850, 1.912e-5
-0.851, 1.913e-5
-0.852, 1.914e-5
-0.853, 1.914e-5
-0.854, 1.914e-5
-0.855, 1.914e-5
-0.856, 1.915e-5
-0.857, 1.915e-5
-0.858, 1.915e-5
-0.859, 1.914e-5
-0.860, 1.913e-5
-0.861, 1.913e-5
-0.862, 1.914e-5
-0.863, 1.913e-5
-0.864, 1.912e-5
-0.865, 1.911e-5
-0.866, 1.911e-5
-0.867, 1.911e-5
-0.868, 1.910e-5
-0.869, 1.908e-5
-0.870, 1.907e-5
-0.871, 1.907e-5
-0.872, 1.906e-5
-0.873, 1.905e-5
-0.874, 1.903e-5
-0.875, 1.902e-5
-0.876, 1.900e-5
-0.877, 1.899e-5
-0.878, 1.898e-5
-0.879, 1.896e-5
-0.880, 1.894e-5
-0.881, 1.892e-5
-0.882, 1.890e-5
-0.883, 1.889e-5
-0.884, 1.886e-5
-0.885, 1.884e-5
-0.886, 1.882e-5
-0.887, 1.880e-5
-0.888, 1.878e-5
-0.889, 1.876e-5
-0.890, 1.873e-5
-0.891, 1.871e-5
-0.892, 1.868e-5
-0.893, 1.866e-5
-0.894, 1.863e-5
-0.895, 1.859e-5
-0.896, 1.857e-5
-0.897, 1.855e-5
-0.898, 1.852e-5
-0.899, 1.849e-5
-0.900, 1.846e-5
-0.901, 1.842e-5
-0.902, 1.840e-5
-0.903, 1.836e-5
-0.904, 1.833e-5
-0.905, 1.829e-5
-0.906, 1.826e-5
-0.907, 1.823e-5
-0.908, 1.820e-5
-0.909, 1.816e-5
-0.910, 1.812e-5
-0.911, 1.809e-5
-0.912, 1.805e-5
-0.913, 1.802e-5
-0.914, 1.798e-5
-0.915, 1.794e-5
-0.916, 1.790e-5
-0.917, 1.787e-5
-0.918, 1.783e-5
-0.919, 1.779e-5
-0.920, 1.775e-5
-0.921, 1.772e-5
-0.922, 1.768e-5
-0.923, 1.764e-5
-0.924, 1.760e-5
-0.925, 1.755e-5
-0.926, 1.751e-5
-0.927, 1.747e-5
-0.928, 1.743e-5
-0.929, 1.739e-5
-0.930, 1.734e-5
-0.931, 1.731e-5
-0.932, 1.728e-5
-0.933, 1.723e-5
-0.934, 1.719e-5
-0.935, 1.715e-5
-0.936, 1.711e-5
-0.937, 1.707e-5
-0.938, 1.703e-5
-0.939, 1.698e-5
-0.940, 1.693e-5
-0.941, 1.689e-5
-0.942, 1.686e-5
-0.943, 1.682e-5
-0.944, 1.678e-5
-0.945, 1.674e-5
-0.946, 1.670e-5
-0.947, 1.666e-5
-0.948, 1.662e-5
-0.949, 1.658e-5
-0.950, 1.653e-5
-0.951, 1.649e-5
-0.952, 1.646e-5
-0.953, 1.642e-5
-0.954, 1.638e-5
-0.955, 1.634e-5
-0.956, 1.630e-5
-0.957, 1.626e-5
-0.958, 1.622e-5
-0.959, 1.618e-5
-0.960, 1.614e-5
-0.961, 1.611e-5
-0.962, 1.607e-5
-0.963, 1.604e-5
-0.964, 1.600e-5
-0.965, 1.596e-5
-0.966, 1.593e-5
-0.967, 1.590e-5
-0.968, 1.586e-5
-0.969, 1.582e-5
-0.970, 1.579e-5
-0.971, 1.576e-5
-0.972, 1.573e-5
-0.973, 1.570e-5
-0.974, 1.566e-5
-0.975, 1.563e-5
-0.976, 1.560e-5
-0.977, 1.557e-5
-0.978, 1.554e-5
-0.979, 1.551e-5
-0.980, 1.548e-5
-0.981, 1.546e-5
-0.982, 1.543e-5
-0.983, 1.540e-5
-0.984, 1.537e-5
-0.985, 1.533e-5
-0.986, 1.531e-5
-0.987, 1.529e-5
-0.988, 1.526e-5
-0.989, 1.523e-5
-0.990, 1.520e-5
-0.991, 1.518e-5
-0.992, 1.516e-5
-0.993, 1.513e-5
-0.994, 1.511e-5
-0.995, 1.508e-5
-0.996, 1.505e-5
-0.997, 1.503e-5
-0.998, 1.501e-5
-0.999, 1.499e-5
-1.000, 1.497e-5
-1.001, 1.495e-5
-1.002, 1.493e-5
-1.003, 1.491e-5
-1.004, 1.489e-5
-1.005, 1.487e-5
-1.006, 1.486e-5
-1.007, 1.485e-5
-1.008, 1.483e-5
-1.009, 1.481e-5
-1.010, 1.479e-5
-1.011, 1.478e-5
-1.012, 1.477e-5
-1.013, 1.476e-5
-1.014, 1.474e-5
-1.015, 1.473e-5
-1.016, 1.470e-5
-1.017, 1.469e-5
-1.018, 1.467e-5
-1.019, 1.466e-5
-1.020, 1.465e-5
-1.021, 1.464e-5
-1.022, 1.464e-5
-1.023, 1.463e-5
-1.024, 1.462e-5
-1.025, 1.461e-5
-1.026, 1.460e-5
-1.027, 1.460e-5
-1.028, 1.460e-5
-1.029, 1.459e-5
-1.030, 1.458e-5
-1.031, 1.458e-5
-1.032, 1.458e-5
-1.033, 1.457e-5
-1.034, 1.456e-5
-1.035, 1.456e-5
-1.036, 1.456e-5
-1.037, 1.456e-5
-1.038, 1.455e-5
-1.039, 1.454e-5
-1.040, 1.454e-5
-1.041, 1.454e-5
-1.042, 1.454e-5
-1.043, 1.454e-5
-1.044, 1.453e-5
-1.045, 1.452e-5
-1.046, 1.452e-5
-1.047, 1.453e-5
-1.048, 1.453e-5
-1.049, 1.453e-5
-1.050, 1.453e-5
-1.051, 1.453e-5
-1.052, 1.453e-5
-1.053, 1.454e-5
-1.054, 1.454e-5
-1.055, 1.455e-5
-1.056, 1.455e-5
-1.057, 1.455e-5
-1.058, 1.455e-5
-1.059, 1.456e-5
-1.060, 1.456e-5
-1.061, 1.457e-5
-1.062, 1.458e-5
-1.063, 1.459e-5
-1.064, 1.460e-5
-1.065, 1.461e-5
-1.066, 1.461e-5
-1.067, 1.462e-5
-1.068, 1.463e-5
-1.069, 1.464e-5
-1.070, 1.465e-5
-1.071, 1.466e-5
-1.072, 1.467e-5
-1.073, 1.468e-5
-1.074, 1.469e-5
-1.075, 1.470e-5
-1.076, 1.472e-5
-1.077, 1.473e-5
-1.078, 1.475e-5
-1.079, 1.476e-5
-1.080, 1.477e-5
-1.081, 1.479e-5
-1.082, 1.480e-5
-1.083, 1.482e-5
-1.084, 1.484e-5
-1.085, 1.486e-5
-1.086, 1.487e-5
-1.087, 1.489e-5
-1.088, 1.491e-5
-1.089, 1.493e-5
-1.090, 1.495e-5
-1.091, 1.496e-5
-1.092, 1.498e-5
-1.093, 1.501e-5
-1.094, 1.503e-5
-1.095, 1.505e-5
-1.096, 1.507e-5
-1.097, 1.510e-5
-1.098, 1.512e-5
-1.099, 1.514e-5
-1.100, 1.516e-5
-1.101, 1.519e-5
-1.102, 1.522e-5
-1.103, 1.525e-5
-1.104, 1.527e-5
-1.105, 1.529e-5
-1.106, 1.532e-5
-1.107, 1.535e-5
-1.108, 1.538e-5
-1.109, 1.541e-5
-1.110, 1.544e-5
-1.111, 1.547e-5
-1.112, 1.550e-5
-1.113, 1.553e-5
-1.114, 1.557e-5
-1.115, 1.561e-5
-1.116, 1.565e-5
-1.117, 1.568e-5
-1.118, 1.572e-5
-1.119, 1.576e-5
-1.120, 1.580e-5
-1.121, 1.584e-5
-1.122, 1.588e-5
-1.123, 1.592e-5
-1.124, 1.597e-5
-1.125, 1.601e-5
-1.126, 1.605e-5
-1.127, 1.610e-5
-1.128, 1.615e-5
-1.129, 1.620e-5
-1.130, 1.625e-5
-1.131, 1.630e-5
-1.132, 1.636e-5
-1.133, 1.641e-5
-1.134, 1.647e-5
-1.135, 1.652e-5
-1.136, 1.658e-5
-1.137, 1.665e-5
-1.138, 1.671e-5
-1.139, 1.677e-5
-1.140, 1.684e-5
-1.141, 1.691e-5
-1.142, 1.698e-5
-1.143, 1.705e-5
-1.144, 1.712e-5
-1.145, 1.719e-5
-1.146, 1.727e-5
-1.147, 1.736e-5
-1.148, 1.743e-5
-1.149, 1.751e-5
-1.150, 1.760e-5
-1.151, 1.769e-5
-1.152, 1.778e-5
-1.153, 1.787e-5
-1.154, 1.796e-5
-1.155, 1.806e-5
-1.156, 1.816e-5
-1.157, 1.826e-5
-1.158, 1.835e-5
-1.159, 1.845e-5
-1.160, 1.856e-5
-1.161, 1.868e-5
-1.162, 1.879e-5
-1.163, 1.891e-5
-1.164, 1.902e-5
-1.165, 1.914e-5
-1.166, 1.926e-5
-1.167, 1.938e-5
-1.168, 1.950e-5
-1.169, 1.963e-5
-1.170, 1.976e-5
-1.171, 1.989e-5
-1.172, 2.002e-5
-1.173, 2.015e-5
-1.174, 2.029e-5
-1.175, 2.043e-5
-1.176, 2.058e-5
-1.177, 2.072e-5
-1.178, 2.087e-5
-1.179, 2.101e-5
-1.180, 2.116e-5
-1.181, 2.131e-5
-1.182, 2.147e-5
-1.183, 2.162e-5
-1.184, 2.177e-5
-1.185, 2.192e-5
-1.186, 2.207e-5
-1.187, 2.224e-5
-1.188, 2.240e-5
-1.189, 2.256e-5
-1.190, 2.272e-5
-1.191, 2.288e-5
-1.192, 2.305e-5
-1.193, 2.321e-5
-1.194, 2.337e-5
-1.195, 2.353e-5
-1.196, 2.370e-5
-1.197, 2.388e-5
-1.198, 2.405e-5
-1.199, 2.421e-5
-1.200, 2.437e-5
-1.201, 2.453e-5
-1.202, 2.471e-5
-1.203, 2.488e-5
-1.204, 2.504e-5
-1.205, 2.520e-5
-1.206, 2.537e-5
-1.207, 2.554e-5
-1.208, 2.570e-5
-1.209, 2.587e-5
-1.210, 2.602e-5
-1.211, 2.619e-5
-1.212, 2.635e-5
-1.213, 2.651e-5
-1.214, 2.667e-5
-1.215, 2.682e-5
-1.216, 2.698e-5
-1.217, 2.715e-5
-1.218, 2.731e-5
-1.219, 2.747e-5
-1.220, 2.763e-5
-1.221, 2.779e-5
-1.222, 2.794e-5
-1.223, 2.810e-5
-1.224, 2.825e-5
-1.225, 2.840e-5
-1.226, 2.856e-5
-1.227, 2.873e-5
-1.228, 2.889e-5
-1.229, 2.905e-5
-1.230, 2.921e-5
-1.231, 2.936e-5
-1.232, 2.953e-5
-1.233, 2.968e-5
-1.234, 2.984e-5
-1.235, 2.999e-5
-1.236, 3.015e-5
-1.237, 3.031e-5
-1.238, 3.046e-5
-1.239, 3.060e-5
-1.240, 3.075e-5
-1.241, 3.091e-5
-1.242, 3.108e-5
-1.243, 3.124e-5
-1.244, 3.139e-5
-1.245, 3.155e-5
-1.246, 3.172e-5
-1.247, 3.189e-5
-1.248, 3.206e-5
-1.249, 3.223e-5
-1.250, 3.239e-5
-1.251, 3.256e-5
-1.252, 3.273e-5
-1.253, 3.289e-5
-1.254, 3.306e-5
-1.255, 3.322e-5
-1.256, 3.338e-5
-1.257, 3.355e-5
-1.258, 3.370e-5
-1.259, 3.385e-5
-1.260, 3.400e-5
-1.261, 3.416e-5
-1.262, 3.432e-5
-1.263, 3.447e-5
-1.264, 3.463e-5
-1.265, 3.479e-5
-1.266, 3.496e-5
-1.267, 3.512e-5
-1.268, 3.528e-5
-1.269, 3.545e-5
-1.270, 3.561e-5
-1.271, 3.577e-5
-1.272, 3.594e-5
-1.273, 3.614e-5
-1.274, 3.629e-5
-1.275, 3.644e-5
-1.276, 3.661e-5
-1.277, 3.679e-5
-1.278, 3.696e-5
-1.279, 3.714e-5
-1.280, 3.732e-5
-1.281, 3.750e-5
-1.282, 3.766e-5
-1.283, 3.782e-5
-1.284, 3.799e-5
-1.285, 3.816e-5
-1.286, 3.834e-5
-1.287, 3.852e-5
-1.288, 3.871e-5
-1.289, 3.889e-5
-1.290, 3.906e-5
-1.291, 3.925e-5
-1.292, 3.944e-5
-1.293, 3.961e-5
-1.294, 3.980e-5
-1.295, 4.000e-5
-1.296, 4.019e-5
-1.297, 4.038e-5
-1.298, 4.059e-5
-1.299, 4.079e-5
-1.300, 4.096e-5
-1.301, 4.116e-5
-1.302, 4.136e-5
-1.303, 4.156e-5
-1.304, 4.174e-5
-1.305, 4.193e-5
-1.306, 4.216e-5
-1.307, 4.238e-5
-1.308, 4.258e-5
-1.309, 4.277e-5
-1.310, 4.296e-5
-1.311, 4.315e-5
-1.312, 4.337e-5
-1.313, 4.358e-5
-1.314, 4.377e-5
-1.315, 4.398e-5
-1.316, 4.417e-5
-1.317, 4.439e-5
-1.318, 4.460e-5
-1.319, 4.482e-5
-1.320, 4.504e-5
-1.321, 4.526e-5
-1.322, 4.549e-5
-1.323, 4.570e-5
-1.324, 4.593e-5
-1.325, 4.618e-5
-1.326, 4.643e-5
-1.327, 4.667e-5
-1.328, 4.691e-5
-1.329, 4.713e-5
-1.330, 4.735e-5
-1.331, 4.758e-5
-1.332, 4.781e-5
-1.333, 4.804e-5
-1.334, 4.828e-5
-1.335, 4.852e-5
-1.336, 4.877e-5
-1.337, 4.902e-5
-1.338, 4.929e-5
-1.339, 4.956e-5
-1.340, 4.983e-5
-1.341, 5.012e-5
-1.342, 5.043e-5
-1.343, 5.074e-5
-1.344, 5.103e-5
-1.345, 5.132e-5
-1.346, 5.160e-5
-1.347, 5.190e-5
-1.348, 5.218e-5
-1.349, 5.249e-5
-1.350, 5.282e-5
-1.351, 5.314e-5
-1.352, 5.348e-5
-1.353, 5.381e-5
-1.354, 5.414e-5
-1.355, 5.449e-5
-1.356, 5.486e-5
-1.357, 5.522e-5
-1.358, 5.557e-5
-1.359, 5.593e-5
-1.360, 5.632e-5
-1.361, 5.668e-5
-1.362, 5.706e-5
-1.363, 5.744e-5
-1.364, 5.780e-5
-1.365, 5.816e-5
-1.366, 5.857e-5
-1.367, 5.900e-5
-1.368, 5.942e-5
-1.369, 5.982e-5
-1.370, 6.025e-5
-1.371, 6.068e-5
-1.372, 6.113e-5
-1.373, 6.158e-5
-1.374, 6.202e-5
-1.375, 6.247e-5
-1.376, 6.294e-5
-1.377, 6.342e-5
-1.378, 6.391e-5
-1.379, 6.437e-5
-1.380, 6.484e-5
-1.381, 6.532e-5
-1.382, 6.580e-5
-1.383, 6.629e-5
-1.384, 6.680e-5
-1.385, 6.731e-5
-1.386, 6.782e-5
-1.387, 6.836e-5
-1.388, 6.891e-5
-1.389, 6.947e-5
-1.390, 7.003e-5
-1.391, 7.056e-5
-1.392, 7.111e-5
-1.393, 7.167e-5
-1.394, 7.220e-5
-1.395, 7.275e-5
-1.396, 7.331e-5
-1.397, 7.386e-5
-1.398, 7.441e-5
-1.399, 7.496e-5
-1.400, 7.554e-5
-1.401, 7.613e-5
-1.402, 7.671e-5
-1.403, 7.728e-5
-1.404, 7.787e-5
-1.405, 7.848e-5
-1.406, 7.905e-5
-1.407, 7.963e-5
-1.408, 8.022e-5
-1.409, 8.078e-5
-1.410, 8.134e-5
-1.411, 8.190e-5
-1.412, 8.243e-5
-1.413, 8.296e-5
-1.414, 8.350e-5
-1.415, 8.403e-5
-1.416, 8.456e-5
-1.417, 8.506e-5
-1.418, 8.555e-5
-1.419, 8.601e-5
-1.420, 8.650e-5
-1.421, 8.699e-5
-1.422, 8.749e-5
-1.423, 8.794e-5
-1.424, 8.840e-5
-1.425, 8.886e-5
-1.426, 8.931e-5
-1.427, 8.974e-5
-1.428, 9.015e-5
-1.429, 9.057e-5
-1.430, 9.099e-5
-1.431, 9.142e-5
-1.432, 9.185e-5
-1.433, 9.225e-5
-1.434, 9.268e-5
-1.435, 9.309e-5
-1.436, 9.348e-5
-1.437, 9.389e-5
-1.438, 9.433e-5
-1.439, 9.476e-5
-1.440, 9.520e-5
-1.441, 9.565e-5
-1.442, 9.610e-5
-1.443, 9.657e-5
-1.444, 9.699e-5
-1.445, 9.742e-5
-1.446, 9.786e-5
-1.447, 9.831e-5
-1.448, 9.874e-5
-1.449, 9.916e-5
-1.450, 9.961e-5
-1.451, 1.000e-4
-1.452, 1.004e-4
-1.453, 1.008e-4
-1.454, 1.013e-4
-1.455, 1.017e-4
-1.456, 1.021e-4
-1.457, 1.025e-4
-1.458, 1.030e-4
-1.459, 1.034e-4
-1.460, 1.038e-4
-1.461, 1.042e-4
-1.462, 1.046e-4
-1.463, 1.050e-4
-1.464, 1.054e-4
-1.465, 1.058e-4
-1.466, 1.061e-4
-1.467, 1.065e-4
-1.468, 1.069e-4
-1.469, 1.073e-4
-1.470, 1.077e-4
-1.471, 1.081e-4
-1.472, 1.085e-4
-1.473, 1.090e-4
-1.474, 1.094e-4
-1.475, 1.097e-4
-1.476, 1.102e-4
-1.477, 1.106e-4
-1.478, 1.110e-4
-1.479, 1.114e-4
-1.480, 1.118e-4
-1.481, 1.122e-4
-1.482, 1.125e-4
-1.483, 1.129e-4
-1.484, 1.134e-4
-1.485, 1.138e-4
-1.486, 1.142e-4
-1.487, 1.146e-4
-1.488, 1.150e-4
-1.489, 1.154e-4
-1.490, 1.158e-4
-1.491, 1.162e-4
-1.492, 1.167e-4
-1.493, 1.171e-4
-1.494, 1.175e-4
-1.495, 1.179e-4
-1.496, 1.183e-4
-1.497, 1.188e-4
-1.498, 1.192e-4
-1.499, 1.197e-4
-1.500, 1.201e-4
-1.501, 1.205e-4
-1.502, 1.210e-4
-1.503, 1.215e-4
-1.504, 1.220e-4
-1.505, 1.224e-4
-1.506, 1.228e-4
-1.507, 1.233e-4
-1.508, 1.237e-4
-1.509, 1.242e-4
-1.510, 1.247e-4
-1.511, 1.252e-4
-1.512, 1.256e-4
-1.513, 1.261e-4
-1.514, 1.266e-4
-1.515, 1.271e-4
-1.516, 1.275e-4
-1.517, 1.281e-4
-1.518, 1.286e-4
-1.519, 1.291e-4
-1.520, 1.296e-4
-1.521, 1.300e-4
-1.522, 1.305e-4
-1.523, 1.311e-4
-1.524, 1.316e-4
-1.525, 1.321e-4
-1.526, 1.326e-4
-1.527, 1.332e-4
-1.528, 1.338e-4
-1.529, 1.343e-4
-1.530, 1.349e-4
-1.531, 1.354e-4
-1.532, 1.360e-4
-1.533, 1.365e-4
-1.534, 1.371e-4
-1.535, 1.377e-4
-1.536, 1.383e-4
-1.537, 1.388e-4
-1.538, 1.394e-4
-1.539, 1.399e-4
-1.540, 1.405e-4
-1.541, 1.411e-4
-1.542, 1.417e-4
-1.543, 1.423e-4
-1.544, 1.429e-4
-1.545, 1.435e-4
-1.546, 1.442e-4
-1.547, 1.448e-4
-1.548, 1.454e-4
-1.549, 1.461e-4
-1.550, 1.467e-4
-1.551, 1.474e-4
-1.552, 1.481e-4
-1.553, 1.487e-4
-1.554, 1.494e-4
-1.555, 1.501e-4
-1.556, 1.508e-4
-1.557, 1.516e-4
-1.558, 1.523e-4
-1.559, 1.530e-4
-1.560, 1.537e-4
-1.561, 1.544e-4
-1.562, 1.551e-4
-1.563, 1.559e-4
-1.564, 1.567e-4
-1.565, 1.574e-4
-1.566, 1.582e-4
-1.567, 1.589e-4
-1.568, 1.597e-4
-1.569, 1.605e-4
-1.570, 1.613e-4
-1.571, 1.621e-4
-1.572, 1.628e-4
-1.573, 1.636e-4
-1.574, 1.644e-4
-1.575, 1.652e-4
-1.576, 1.661e-4
-1.577, 1.669e-4
-1.578, 1.678e-4
-1.579, 1.686e-4
-1.580, 1.695e-4
-1.581, 1.704e-4
-1.582, 1.712e-4
-1.583, 1.721e-4
-1.584, 1.730e-4
-1.585, 1.739e-4
-1.586, 1.749e-4
-1.587, 1.758e-4
-1.588, 1.767e-4
-1.589, 1.777e-4
-1.590, 1.787e-4
-1.591, 1.796e-4
-1.592, 1.806e-4
-1.593, 1.815e-4
-1.594, 1.825e-4
-1.595, 1.835e-4
-1.596, 1.844e-4
-1.597, 1.854e-4
-1.598, 1.864e-4
-1.599, 1.875e-4
-1.600, 1.885e-4
-1.601, 1.896e-4
-1.602, 1.907e-4
-1.603, 1.918e-4
-1.604, 1.929e-4
-1.605, 1.940e-4
-1.606, 1.950e-4
-1.607, 1.961e-4
-1.608, 1.973e-4
-1.609, 1.984e-4
-1.610, 1.995e-4
-1.611, 2.007e-4
-1.612, 2.018e-4
-1.613, 2.030e-4
-1.614, 2.042e-4
-1.615, 2.054e-4
-1.616, 2.066e-4
-1.617, 2.078e-4
-1.618, 2.089e-4
-1.619, 2.101e-4
-1.620, 2.113e-4
-1.621, 2.126e-4
-1.622, 2.139e-4
-1.623, 2.151e-4
-1.624, 2.164e-4
-1.625, 2.178e-4
-1.626, 2.190e-4
-1.627, 2.203e-4
-1.628, 2.216e-4
-1.629, 2.229e-4
-1.630, 2.243e-4
-1.631, 2.257e-4
-1.632, 2.271e-4
-1.633, 2.285e-4
-1.634, 2.299e-4
-1.635, 2.313e-4
-1.636, 2.327e-4
-1.637, 2.341e-4
-1.638, 2.355e-4
-1.639, 2.370e-4
-1.640, 2.385e-4
-1.641, 2.400e-4
-1.642, 2.416e-4
-1.643, 2.431e-4
-1.644, 2.447e-4
-1.645, 2.462e-4
-1.646, 2.478e-4
-1.647, 2.493e-4
-1.648, 2.509e-4
-1.649, 2.526e-4
-1.650, 2.542e-4
-1.651, 2.559e-4
-1.652, 2.576e-4
-1.653, 2.593e-4
-1.654, 2.610e-4
-1.655, 2.627e-4
-1.656, 2.644e-4
-1.657, 2.661e-4
-1.658, 2.678e-4
-1.659, 2.695e-4
-1.660, 2.713e-4
-1.661, 2.731e-4
-1.662, 2.749e-4
-1.663, 2.767e-4
-1.664, 2.786e-4
-1.665, 2.805e-4
-1.666, 2.824e-4
-1.667, 2.844e-4
-1.668, 2.864e-4
-1.669, 2.883e-4
-1.670, 2.903e-4
-1.671, 2.923e-4
-1.672, 2.943e-4
-1.673, 2.963e-4
-1.674, 2.984e-4
-1.675, 3.003e-4
-1.676, 3.024e-4
-1.677, 3.045e-4
-1.678, 3.066e-4
-1.679, 3.087e-4
-1.680, 3.109e-4
-1.681, 3.131e-4
-1.682, 3.154e-4
-1.683, 3.176e-4
-1.684, 3.198e-4
-1.685, 3.220e-4
-1.686, 3.243e-4
-1.687, 3.266e-4
-1.688, 3.289e-4
-1.689, 3.313e-4
-1.690, 3.337e-4
-1.691, 3.362e-4
-1.692, 3.386e-4
-1.693, 3.411e-4
-1.694, 3.436e-4
-1.695, 3.461e-4
-1.696, 3.486e-4
-1.697, 3.511e-4
-1.698, 3.537e-4
-1.699, 3.563e-4
-1.700, 3.590e-4
-1.701, 3.616e-4
-1.702, 3.643e-4
-1.703, 3.670e-4
-1.704, 3.698e-4
-1.705, 3.726e-4
-1.706, 3.753e-4
-1.707, 3.782e-4
-1.708, 3.811e-4
-1.709, 3.839e-4
-1.710, 3.868e-4
-1.711, 3.898e-4
-1.712, 3.928e-4
-1.713, 3.958e-4
-1.714, 3.989e-4
-1.715, 4.020e-4
-1.716, 4.052e-4
-1.717, 4.083e-4
-1.718, 4.116e-4
-1.719, 4.149e-4
-1.720, 4.182e-4
-1.721, 4.215e-4
-1.722, 4.249e-4
-1.723, 4.283e-4
-1.724, 4.318e-4
-1.725, 4.353e-4
-1.726, 4.388e-4
-1.727, 4.424e-4
-1.728, 4.461e-4
-1.729, 4.497e-4
-1.730, 4.534e-4
-1.731, 4.572e-4
-1.732, 4.611e-4
-1.733, 4.650e-4
-1.734, 4.689e-4
-1.735, 4.729e-4
-1.736, 4.768e-4
-1.737, 4.809e-4
-1.738, 4.850e-4
-1.739, 4.892e-4
-1.740, 4.934e-4
-1.741, 4.978e-4
-1.742, 5.021e-4
-1.743, 5.064e-4
-1.744, 5.108e-4
-1.745, 5.149e-4
-1.746, 5.192e-4
-1.747, 5.237e-4
-1.748, 5.283e-4
-1.749, 5.329e-4
-1.750, 5.375e-4
-1.751, 5.420e-4
-1.752, 5.468e-4
-1.753, 5.517e-4
-1.754, 5.566e-4
-1.755, 5.615e-4
-1.756, 5.664e-4
-1.757, 5.715e-4
-1.758, 5.765e-4
-1.759, 5.817e-4
-1.760, 5.869e-4
-1.761, 5.922e-4
-1.762, 5.976e-4
-1.763, 6.030e-4
-1.764, 6.085e-4
-1.765, 6.140e-4
-1.766, 6.195e-4
-1.767, 6.250e-4
-1.768, 6.307e-4
-1.769, 6.365e-4
-1.770, 6.424e-4
-1.771, 6.483e-4
-1.772, 6.542e-4
-1.773, 6.601e-4
-1.774, 6.660e-4
-1.775, 6.722e-4
-1.776, 6.783e-4
-1.777, 6.846e-4
-1.778, 6.909e-4
-1.779, 6.973e-4
-1.780, 7.037e-4
-1.781, 7.101e-4
-1.782, 7.166e-4
-1.783, 7.230e-4
-1.784, 7.296e-4
-1.785, 7.363e-4
-1.786, 7.429e-4
-1.787, 7.496e-4
-1.788, 7.563e-4
-1.789, 7.630e-4
-1.790, 7.698e-4
-1.791, 7.766e-4
-1.792, 7.837e-4
-1.793, 7.907e-4
-1.794, 7.975e-4
-1.795, 8.044e-4
-1.796, 8.116e-4
-1.797, 8.187e-4
-1.798, 8.258e-4
-1.799, 8.329e-4
-1.800, 8.402e-4
-1.801, 8.474e-4
-1.802, 8.547e-4
-1.803, 8.620e-4
-1.804, 8.692e-4
-1.805, 8.766e-4
-1.806, 8.840e-4
-1.807, 8.915e-4
-1.808, 8.989e-4
-1.809, 9.064e-4
-1.810, 9.139e-4
-1.811, 9.214e-4
-1.812, 9.288e-4
-1.813, 9.363e-4
-1.814, 9.441e-4
-1.815, 9.517e-4
-1.816, 9.595e-4
-1.817, 9.672e-4
-1.818, 9.750e-4
-1.819, 9.827e-4
-1.820, 9.902e-4
-1.821, 9.980e-4
-1.822, 1.006e-3
-1.823, 1.011e-3
-1.824, 1.011e-3
-1.825, 1.011e-3
-1.826, 1.011e-3
-1.827, 1.011e-3
-1.828, 1.011e-3
-1.829, 1.011e-3
-1.830, 1.011e-3
-1.831, 1.011e-3
-1.832, 1.011e-3
-1.833, 1.011e-3
-1.834, 1.011e-3
-1.835, 1.011e-3
-1.836, 1.011e-3
-1.837, 1.011e-3
-1.838, 1.011e-3
-1.839, 1.011e-3
-1.840, 1.011e-3
-1.841, 1.011e-3
-1.842, 1.011e-3
-1.843, 1.011e-3
-1.844, 1.011e-3
-1.845, 1.011e-3
-1.846, 1.011e-3
-1.847, 1.011e-3
-1.848, 1.011e-3
-1.849, 1.011e-3
-1.850, 1.011e-3
-1.851, 1.011e-3
-1.852, 1.011e-3
-1.853, 1.011e-3
-1.854, 1.011e-3
-1.855, 1.011e-3
-1.856, 1.011e-3
-1.857, 1.011e-3
-1.858, 1.011e-3
-1.859, 1.011e-3
-1.860, 1.011e-3
-1.861, 1.011e-3
-1.862, 1.011e-3
-1.863, 1.011e-3
-1.864, 1.011e-3
-1.865, 1.011e-3
-1.866, 1.011e-3
-1.867, 1.011e-3
-1.868, 1.011e-3
-1.869, 1.011e-3
-1.870, 1.011e-3
-1.871, 1.011e-3
-1.872, 1.011e-3
-1.873, 1.011e-3
-1.874, 1.011e-3
-1.875, 1.011e-3
-1.876, 1.011e-3
-1.877, 1.011e-3
-1.878, 1.011e-3
-1.879, 1.011e-3
-1.880, 1.011e-3
-1.881, 1.011e-3
-1.882, 1.011e-3
-1.883, 1.011e-3
-1.884, 1.011e-3
-1.885, 1.011e-3
-1.886, 1.011e-3
-1.887, 1.011e-3
-1.888, 1.011e-3
-1.889, 1.011e-3
-1.890, 1.011e-3
-1.891, 1.011e-3
-1.892, 1.011e-3
-1.893, 1.011e-3
-1.894, 1.011e-3
-1.895, 1.011e-3
-1.896, 1.011e-3
-1.897, 1.011e-3
-1.898, 1.011e-3
-1.899, 1.011e-3
