Potential V vs RHE, Current mA cm-2
0.013299999999999867,-3.129341395301461
0.012299999999999978,-3.6527845762515243
0.011299999999999866,-4.146518819904423
0.010299999999999976,-4.61195883756002
0.009299999999999864,-5.060422319617237
0.008299999999999974,-5.483420998276882
0.007299999999999862,-5.880954873538958
0.006299999999999972,-6.264341635802381
0.00529999999999986,-6.627922439867697
0.0042999999999999705,-6.9915032439330105
0.0032999999999998586,-7.340936934999675
0.0022999999999999687,-7.674808801767824
0.0012999999999998568,-8.004436534636376
0.00029999999999996696,-8.31425830930682
-0.000700000000000145,-8.635397774376184
-0.0017000000000000348,-8.94663426034649
-0.0027000000000001467,-9.236650076818824
-0.0037000000000000366,-9.537983583690076
-0.0047000000000001485,-9.829414111462276
-0.005700000000000038,-10.177433091229075
-0.00670000000000015,-10.44905766080316
-0.00770000000000004,-10.734829343375898
-0.008700000000000152,-11.006453912949986
-0.009700000000000042,-11.273834348624478
-0.010700000000000154,-11.538385361699238
-0.011700000000000044,-11.81142464257319
-0.012700000000000156,-12.073146233048224
-0.013700000000000045,-12.329208978323795
-0.014700000000000157,-12.585271723599366
-0.015700000000000047,-12.846993314074398
-0.01670000000000016,-13.12286201754808
-0.01770000000000005,-13.398730721021762
-0.01870000000000016,-13.657622888897064
-0.01970000000000005,-13.916515056772363
-0.020700000000000163,-14.189554337646317
-0.021700000000000053,-14.472496597619326
-0.022700000000000164,-14.769585970590983
-0.023700000000000054,-15.02423400456669
-0.024700000000000166,-15.307176264539699
-0.025700000000000056,-15.561824298515406
-0.026700000000000168,-15.830619445489761
-0.027700000000000058,-16.127708818461418
-0.02870000000000017,-16.382356852437127
-0.02970000000000006,-16.637004886412832
-0.03070000000000017,-16.90580003338719
-0.03170000000000006,-17.188742293360193
-0.03270000000000017,-17.45753744033455
-0.03370000000000006,-17.75462681330621
-0.034700000000000175,-18.03756907327922
-0.035700000000000065,-18.377099785246827
-0.03670000000000018,-18.645894932221182
-0.03770000000000007,-18.92883719219419
-0.03870000000000018,-19.169338113171246
-0.03970000000000007,-19.466427486142905
-0.04070000000000018,-19.77766397211321
-0.04170000000000007,-20.10304757108217
-0.04270000000000018,-20.42843117005113
-0.04370000000000007,-20.76796188201874
-0.044700000000000184,-21.065051254990397
-0.045700000000000074,-21.362140627962056
-0.046700000000000186,-21.71581845292831
-0.047700000000000076,-22.055349164895922
-0.04870000000000019,-22.38073276386488
-0.04970000000000008,-22.706116362833843
-0.05070000000000019,-23.031499961802798
-0.05170000000000008,-23.371030673770406
-0.05270000000000019,-23.724708498736668
-0.05370000000000008,-24.092533436701576
-0.05470000000000019,-24.432064148669184
-0.05570000000000008,-24.785741973635442
-0.056700000000000195,-25.153566911600354
-0.057700000000000085,-25.57798030155986
-0.058700000000000196,-25.931658126526123
-0.059700000000000086,-26.29948306449103
-0.0607000000000002,-26.65316088945729
-0.06170000000000009,-27.06342716641815
-0.0627000000000002,-27.487840556377662
-0.06370000000000009,-27.898106833338524
-0.0647000000000002,-28.237637545306132
-0.06570000000000009,-28.591315370272387
-0.0667000000000002,-29.015728760231898
-0.0677000000000001,-29.482583489187363
-0.0687000000000002,-29.878702653149578
-0.0697000000000001,-30.288968930110435
-0.07070000000000021,-30.71338232006995
-0.0717000000000001,-31.12364859703081
-0.07270000000000021,-31.57635621298762
-0.0737000000000001,-32.02906382894443
-0.07470000000000021,-32.439330105905285
-0.0757000000000001,-32.8637434958648
-0.07670000000000021,-33.302303998822964
-0.0777000000000001,-33.726717388782475
-0.07870000000000021,-34.207719230736586
-0.0797000000000001,-34.6604268466934
-0.08070000000000022,-35.098987349651566
-0.0817000000000001,-35.56584207860703
-0.08270000000000022,-35.99025546856653
-0.08370000000000011,-36.44296308452335
-0.08470000000000022,-36.9381120394761
-0.08570000000000011,-37.41911388143023
-0.08670000000000022,-38.01329262737354
-0.08770000000000011,-38.522588695324956
-0.08870000000000022,-38.97529631128177
-0.08970000000000011,-39.41385681423992
-0.09070000000000022,-39.80997597820213
-0.09170000000000011,-40.37586049814815
-0.09270000000000023,-40.98418635709011
-0.09370000000000012,-41.47933531204288
-0.09470000000000023,-41.94619004099834
-0.09570000000000012,-42.483780334947056
-0.09670000000000023,-43.04966485489307
-0.09770000000000012,-43.58725514884178
-0.09870000000000023,-44.096551216793195
-0.09970000000000012,-44.591700171745956
-0.10070000000000023,-45.157584691691966
-0.10170000000000012,-45.681027872642034
-0.10270000000000024,-46.24691239258805
-0.10370000000000013,-46.86938536452866
-0.10470000000000024,-47.449416997473335
-0.10570000000000013,-48.001154404420696
-0.10670000000000024,-48.48215624637481
-0.10770000000000013,-49.019746540323524
-0.10870000000000024,-49.52904260827494
-0.10970000000000013,-50.024191563227696
-0.11070000000000024,-50.67495876116561
-0.11170000000000013,-51.38231441109813
-0.11270000000000002,-51.976493157041446
-0.11370000000000013,-52.485789224992864
-0.11470000000000002,-53.051673744938874
-0.11570000000000014,-53.70244094287679
-0.11670000000000003,-54.2966196888201
-0.11770000000000014,-54.919092660760725
-0.11870000000000003,-55.49912429370539
-0.11970000000000014,-56.14989149164331
-0.12070000000000003,-56.72992312458797
-0.12170000000000014,-57.45142588751914
-0.12270000000000003,-58.05975174646111
-0.12370000000000014,-58.66807760540307
-0.12470000000000003,-59.304697690342344
-0.12570000000000014,-59.89887643628565
-0.12670000000000003,-60.521349408226264
-0.12770000000000015,-61.28529351015339
-0.12870000000000004,-61.95020782108996
-0.12970000000000015,-62.58682790602922
-0.13070000000000004,-63.26588932996445
-0.13170000000000015,-63.944950753899654
-0.13270000000000004,-64.68060062982947
-0.13370000000000015,-65.4162505057593
-0.13470000000000004,-66.15190038168912
-0.13570000000000015,-66.77437335362974
-0.13670000000000004,-67.4675818905636
-0.13770000000000016,-68.17493754049613
-0.13870000000000005,-68.96717586842054
-0.13970000000000016,-69.67453151835305
-0.14070000000000005,-70.32529871629096
-0.14170000000000016,-70.96191880123024
-0.14270000000000005,-71.6551273381641
-0.14370000000000016,-72.37663010109527
-0.14470000000000005,-73.12642709002374
-0.14570000000000016,-73.79134140096032
-0.14670000000000005,-74.48454993789417
-0.14770000000000016,-75.12117002283344
-0.14870000000000005,-75.81437855976732
-0.14970000000000017,-76.53588132269847
-0.15070000000000006,-77.34226676362155
-0.15170000000000017,-78.03547530055542
-0.15270000000000006,-78.72868383748929
-0.15370000000000017,-79.49262793941642
-0.15470000000000006,-80.27071915434219
-0.15570000000000017,-80.93563346527876
-0.15670000000000006,-81.57225355021802
-0.15770000000000017,-82.20887363515729
-0.15870000000000006,-82.93037639808846
-0.15970000000000018,-83.75090895201016
-0.16070000000000007,-84.64217707092514
-0.16170000000000018,-85.53344518984011
-0.16270000000000007,-86.28324217876859
-0.16370000000000018,-86.91986226370786
-0.16470000000000007,-87.61307080064172
-0.16570000000000018,-88.30627933757559
-0.16670000000000007,-88.87216385752161
-0.16770000000000018,-89.53707816845818
-0.16870000000000007,-90.21613959239339
-0.16970000000000018,-90.90934812932726
-0.17070000000000007,-91.67329223125436
-0.17170000000000019,-92.4655305591788
-0.17270000000000008,-93.28606311310051
-0.1737000000000002,-93.96512453703575
-0.17470000000000008,-94.55930328297906
-0.1757000000000002,-95.49301274088998
-0.17670000000000008,-96.41257508580226
-0.1777000000000002,-97.44531433470372
-0.17870000000000008,-98.13852287163759
-0.1797000000000002,-98.84587852157011
-0.18070000000000008,-99.66641107549184
-0.1817000000000002,-100.6425618723987
-0.18270000000000008,-101.46309442632044
-0.1837000000000002,-103.30221911614498
-0.1847000000000001,-104.67448907701407
-0.1857000000000002,-105.18378514496547
-0.1867000000000001,-105.97602347288989
-0.1877000000000002,-106.68337912282242
-0.1887000000000001,-107.27755786876574
-0.1897000000000002,-107.4331761117509
-0.1907000000000001,-108.2254144396753
-0.1917000000000001,-109.03179988059838
-0.19269999999999998,-109.72500841753224
-0.1937000000000001,-110.41821695446612
-0.19469999999999998,-111.08313126540267
-0.1957000000000001,-111.12557260439863
-0.19669999999999999,-111.90366381932441
-0.1977000000000001,-112.54028390426367
-0.1987,-113.27593378019348
-0.1997000000000001,-114.0964663341152
-0.2007,-115.15749980901398
-0.2017000000000001,-116.03462081493029
-0.2027,-116.84100625585339
-0.2037000000000001,-117.64739169677647
-0.2047,-118.45377713769953
-0.2057000000000001,-119.3167510306172
-0.2067,-119.92507688955916
-0.2077000000000001,-120.85878634747009
-0.2087,-121.79249580538101
-0.2097000000000001,-122.48570434231489
-0.2107,-123.05158886226087
-0.2117000000000001,-123.6740618342015
-0.2127,-124.59362417911379
-0.2137000000000001,-125.3858625070382
-0.2147,-125.96589413998288
-0.2157000000000001,-126.60251422492213
-0.2167,-127.43719389184253
-0.21770000000000012,-128.2294322197669
-0.2187,-128.8377580787089
-0.21970000000000012,-129.41778971165354
-0.2207,-129.84220310161308
-0.22170000000000012,-130.8607952375159
-0.2227,-132.41697766736743
-0.22370000000000012,-132.89797950932152
-0.2247,-132.99700930031207
-0.22570000000000012,-133.36483423827698
-0.2267,-134.12877834020412
-0.22770000000000012,-134.9068695551299
-0.22870000000000001,-135.68496077005568
-0.22970000000000013,-136.09522704701655
-0.23070000000000002,-136.63281734096523
-0.23170000000000013,-137.34017299089777
-0.23270000000000002,-138.11826420582355
-0.23370000000000013,-138.6700016127709
-0.23470000000000002,-139.3207688107088
-0.23570000000000013,-139.97153600864672
-0.23670000000000002,-140.67889165857926
-0.2376999999999999,-141.61260111649017
-0.23870000000000002,-142.6028990263957
-0.2396999999999999,-142.8858412863687
-0.24070000000000003,-143.0273124163552
-0.24169999999999991,-143.0273124163552
-0.24270000000000003,-143.0273124163552
-0.24369999999999992,-143.0273124163552
-0.24470000000000003,-143.0273124163552
-0.24569999999999992,-143.0273124163552
-0.24670000000000003,-143.0273124163552
-0.24769999999999992,-143.0273124163552
-0.24870000000000003,-143.0273124163552
-0.24969999999999992,-143.0273124163552
-0.25070000000000003,-143.0273124163552
-0.2516999999999999,-143.0273124163552
-0.25270000000000004,-143.0273124163552
-0.2536999999999999,-143.0273124163552
-0.25470000000000004,-143.0273124163552
-0.2556999999999999,-143.0273124163552
-0.25670000000000004,-143.0273124163552
-0.25769999999999993,-143.0273124163552
-0.25870000000000004,-143.0273124163552
-0.25969999999999993,-143.0273124163552
-0.26070000000000004,-143.0273124163552
-0.26169999999999993,-143.0273124163552
-0.26270000000000004,-143.0273124163552
-0.26369999999999993,-143.0273124163552
-0.26470000000000005,-143.0273124163552
-0.26569999999999994,-143.0273124163552
-0.26670000000000005,-143.0273124163552
-0.26769999999999994,-143.0273124163552
-0.26870000000000005,-143.0273124163552
-0.26969999999999994,-143.0273124163552
-0.27070000000000005,-143.0273124163552
-0.27169999999999994,-143.0273124163552
-0.27270000000000005,-143.0273124163552
-0.27369999999999994,-143.0273124163552
-0.27470000000000006,-143.0273124163552
-0.27569999999999995,-143.0273124163552
-0.27670000000000006,-143.0273124163552
-0.27769999999999995,-143.0273124163552
-0.27870000000000006,-143.0273124163552
-0.27969999999999995,-143.0273124163552
-0.28070000000000006,-143.0273124163552
-0.28169999999999995,-143.0273124163552
-0.28270000000000006,-143.0273124163552
-0.28369999999999995,-143.0273124163552
-0.28470000000000006,-143.0273124163552
-0.28569999999999995,-143.0273124163552
-0.28670000000000007,-143.0273124163552
-0.28769999999999996,-143.0273124163552
-0.28870000000000007,-143.0273124163552
-0.28969999999999996,-143.0273124163552
-0.29070000000000007,-143.0273124163552
-0.29169999999999996,-143.0273124163552
-0.29270000000000007,-143.0273124163552
-0.29369999999999996,-143.0273124163552
-0.2947000000000001,-143.0273124163552
-0.29569999999999996,-143.0273124163552
-0.2967000000000001,-143.0273124163552
-0.29769999999999996,-143.0273124163552
-0.2987000000000001,-143.0273124163552
-0.29969999999999997,-143.0273124163552
-0.3007000000000001,-143.0273124163552
-0.30169999999999997,-143.0273124163552
-0.3027000000000001,-143.0273124163552
-0.30369999999999997,-143.0273124163552
-0.3047000000000001,-143.0273124163552
-0.30569999999999997,-143.0273124163552
-0.3067000000000001,-143.0273124163552
-0.3077,-143.0273124163552
-0.3087000000000001,-143.0273124163552
-0.3097,-143.0273124163552
-0.3107000000000001,-143.0273124163552
-0.3117,-143.0273124163552
-0.3127000000000001,-143.0273124163552
-0.3137,-143.0273124163552
-0.3147000000000001,-143.0273124163552
-0.3157,-143.0273124163552
-0.3167000000000001,-143.0273124163552
-0.3177,-143.0273124163552
-0.3187000000000001,-143.0273124163552
-0.3197,-143.0273124163552
-0.3207000000000001,-143.0273124163552
-0.3217,-143.0273124163552
-0.3227000000000001,-143.0273124163552
-0.3237,-143.0273124163552
-0.3247000000000001,-143.0273124163552
-0.3257,-143.0273124163552
-0.3267000000000001,-143.0273124163552
-0.3277,-143.0273124163552
-0.3287000000000001,-143.0273124163552
-0.3297,-143.0273124163552
-0.3307000000000001,-143.0273124163552
-0.3317,-143.0273124163552
-0.3327000000000001,-143.0273124163552
-0.3337,-143.0273124163552
-0.3347000000000001,-143.0273124163552
-0.3357,-143.0273124163552
-0.3367000000000001,-143.0273124163552
-0.3377,-143.0273124163552
-0.3387000000000001,-143.0273124163552
-0.3397,-143.0273124163552
-0.3407000000000001,-143.0273124163552
-0.3417,-143.0273124163552
-0.3427000000000001,-143.0273124163552
-0.3437,-143.0273124163552
-0.3447000000000001,-143.0273124163552
-0.3457,-143.0273124163552
-0.3467000000000001,-143.0273124163552
-0.3477,-143.0273124163552
-0.3487000000000001,-143.0273124163552
-0.3497,-143.0273124163552
-0.3507000000000001,-143.0273124163552
-0.3517,-143.0273124163552
-0.3527000000000001,-143.0273124163552
-0.3537,-143.0273124163552
-0.3547000000000001,-143.0273124163552
-0.3557,-143.0273124163552
-0.35670000000000013,-143.0273124163552
-0.3577,-143.0273124163552
-0.35870000000000013,-143.0273124163552
-0.3597,-143.0273124163552
-0.36070000000000013,-143.0273124163552
-0.3617,-143.0273124163552
-0.3626999999999999,-143.0273124163552
-0.3637,-143.0273124163552
-0.3646999999999999,-143.0273124163552
-0.3657,-143.0273124163552
-0.3666999999999999,-143.0273124163552
-0.3677,-143.0273124163552
-0.3686999999999999,-143.0273124163552
-0.36970000000000003,-143.0273124163552
-0.3706999999999999,-143.0273124163552
-0.37170000000000003,-143.0273124163552
-0.3726999999999999,-143.0273124163552
-0.37370000000000003,-143.0273124163552
-0.3746999999999999,-143.0273124163552
-0.37570000000000003,-143.0273124163552
-0.3766999999999999,-143.0273124163552
-0.37770000000000004,-143.0273124163552
-0.3786999999999999,-143.0273124163552
-0.37970000000000004,-143.0273124163552
-0.3806999999999999,-143.0273124163552
-0.38170000000000004,-143.0273124163552
-0.38269999999999993,-143.0273124163552
-0.38370000000000004,-143.0273124163552
-0.38469999999999993,-143.0273124163552
-0.38570000000000004,-143.0273124163552
-0.38669999999999993,-143.0273124163552
-0.38570000000000004,-143.0273124163552
-0.38469999999999993,-143.0273124163552
-0.38370000000000004,-143.0273124163552
-0.38269999999999993,-143.0273124163552
-0.38170000000000004,-143.0273124163552
-0.3806999999999999,-143.0273124163552
-0.37970000000000004,-143.0273124163552
-0.3786999999999999,-143.0273124163552
-0.37770000000000004,-143.0273124163552
-0.3766999999999999,-143.0273124163552
-0.37570000000000003,-143.0273124163552
-0.3746999999999999,-143.0273124163552
-0.37370000000000003,-143.0273124163552
-0.3726999999999999,-143.0273124163552
-0.37170000000000003,-143.0273124163552
-0.3706999999999999,-143.0273124163552
-0.36970000000000003,-143.0273124163552
-0.3686999999999999,-143.0273124163552
-0.3677,-143.0273124163552
-0.3666999999999999,-143.0273124163552
-0.3657,-143.0273124163552
-0.3646999999999999,-143.0273124163552
-0.3637,-143.0273124163552
-0.3626999999999999,-143.0273124163552
-0.3617,-143.0273124163552
-0.36070000000000013,-143.0273124163552
-0.3597,-143.0273124163552
-0.35870000000000013,-143.0273124163552
-0.3577,-143.0273124163552
-0.35670000000000013,-143.0273124163552
-0.3557,-143.0273124163552
-0.3547000000000001,-143.0273124163552
-0.3537,-143.0273124163552
-0.3527000000000001,-143.0273124163552
-0.3517,-143.0273124163552
-0.3507000000000001,-143.0273124163552
-0.3497,-143.0273124163552
-0.3487000000000001,-143.0273124163552
-0.3477,-142.6028990263957
-0.3467000000000001,-141.0325694835455
-0.3457,-139.716887974671
-0.3447000000000001,-138.11826420582355
-0.3437,-136.26499240300032
-0.3427000000000001,-134.32683792218523
-0.3417,-132.60089013634988
-0.3407000000000001,-130.90323657651186
-0.3397,-129.601702180636
-0.3387000000000001,-127.53622368283307
-0.3377,-126.121512382968
-0.3367000000000001,-124.73509530910029
-0.3357,-123.0232946362636
-0.3347000000000001,-121.89152559637157
-0.3337,-120.50510852250382
-0.3327000000000001,-119.00551454464687
-0.3317,-117.32200809780748
-0.3307000000000001,-115.65264876396675
-0.3297,-114.19549612510575
-0.3287000000000001,-112.68175503425017
-0.3277,-110.80018900542967
-0.3267000000000001,-109.03179988059838
-0.3257,-107.87173661470905
-0.3247000000000001,-106.35799552385346
-0.3237,-105.19793225796413
-0.3227000000000001,-103.74077961910314
-0.3217,-102.3826567712327
-0.3207000000000001,-101.19429927934607
-0.3197,-99.5107928325067
-0.3187000000000001,-98.08193441964299
-0.3177,-96.78040002376716
-0.3167000000000001,-95.39398294989942
-0.3157,-94.4036850399939
-0.3147000000000001,-94.4319792659912
-0.3137,-93.14459198311401
-0.3127000000000001,-91.95623449122738
-0.3117,-90.40005206137585
-0.3107000000000001,-89.23998879548651
-0.3097,-87.86771883461743
-0.3087000000000001,-86.42471330875509
-0.3077,-85.33538560785901
-0.3067000000000001,-84.98170778289276
-0.30569999999999997,-84.35923481095215
-0.3047000000000001,-82.61913991211814
-0.30369999999999997,-80.92148635228011
-0.3027000000000001,-80.15754225035298
-0.30169999999999997,-79.05406743645825
-0.3007000000000001,-77.2715311986283
-0.29969999999999997,-76.09732081974033
-0.2987000000000001,-75.00799311884425
-0.29769999999999996,-74.15916633892522
-0.2967000000000001,-73.38107512399945
-0.29569999999999996,-72.47565989208583
-0.2947000000000001,-71.28730240019921
-0.29369999999999996,-70.14138624730852
-0.29270000000000007,-69.20767678939758
-0.29169999999999996,-68.30226155748396
-0.29070000000000007,-67.51002322955955
-0.28969999999999996,-66.59046088464727
-0.28870000000000007,-65.57186874874445
-0.28769999999999996,-64.68060062982947
-0.28670000000000007,-63.4780960249442
-0.28569999999999995,-62.89806439199953
-0.28470000000000006,-62.24729719406162
-0.28369999999999995,-61.5682357701264
-0.28270000000000006,-61.29944062315204
-0.28169999999999995,-59.92717066228296
-0.28070000000000006,-58.66807760540307
-0.27969999999999995,-57.79095659948675
-0.27870000000000006,-57.14018940154883
-0.27769999999999995,-56.58845199460147
-0.27670000000000006,-55.90939057066625
-0.27569999999999995,-55.28691759872564
-0.27470000000000006,-54.11270721983765
-0.27369999999999994,-52.79702571096317
-0.27270000000000005,-51.60866821907654
-0.27169999999999994,-50.78813566515482
-0.27070000000000005,-49.939308885235796
-0.26969999999999994,-49.26024746130057
-0.26870000000000005,-48.48215624637481
-0.26769999999999994,-47.987007291422046
-0.26670000000000005,-47.633329466455784
-0.26569999999999994,-46.84109113853137
-0.26470000000000005,-46.2610595055867
