Aug. 28, 2024   08:06:39
Cyclic Voltammetry
File: c:/users/guazh/data/20240813_batch_181_500/2024-08-25-exp204\exp204-2024-08-28t07_59_44-h2koh\exp204_cv_sr_300mvs_efin_-1400mv.bin
Data Source:  Experiment
Instrument Model:  CHI760E
Header: CV ran at 300 mVs
Note: 

Init E (V) = -1
High E (V) = -1
Low E (V) = -1.4
Final E (V) = -1
Init P/N = N
Scan Rate (V/s) = 0.3
Segment = 3
Sample Interval (V) = 0.001
Quiet Time (sec) = 2
Sensitivity (A/V) = 0.01
Comp R (ohm) = 1.4

Results:

Channel 1:
Segment 1:

Segment 2:

Segment 3:

Potential/V, Current/A

-1.000, -1.170e-4
-1.001, -8.000e-5
-1.002, -6.151e-5
-1.003, -4.609e-5
-1.004, -3.376e-5
-1.005, -2.451e-5
-1.006, -1.218e-5
-1.007, -6.010e-6
-1.008, 3.239e-6
-1.009, 9.405e-6
-1.010, 1.865e-5
-1.011, 2.482e-5
-1.012, 3.099e-5
-1.013, 3.715e-5
-1.014, 4.332e-5
-1.015, 4.949e-5
-1.016, 5.565e-5
-1.017, 6.182e-5
-1.018, 6.490e-5
-1.019, 7.107e-5
-1.020, 7.723e-5
-1.021, 8.032e-5
-1.022, 8.340e-5
-1.023, 8.957e-5
-1.024, 9.573e-5
-1.025, 1.019e-4
-1.026, 1.050e-4
-1.027, 1.081e-4
-1.028, 1.111e-4
-1.029, 1.204e-4
-1.030, 1.235e-4
-1.031, 1.266e-4
-1.032, 1.296e-4
-1.033, 1.358e-4
-1.034, 1.389e-4
-1.035, 1.451e-4
-1.036, 1.481e-4
-1.037, 1.512e-4
-1.038, 1.543e-4
-1.039, 1.605e-4
-1.040, 1.636e-4
-1.041, 1.666e-4
-1.042, 1.697e-4
-1.043, 1.759e-4
-1.044, 1.790e-4
-1.045, 1.821e-4
-1.046, 1.882e-4
-1.047, 1.882e-4
-1.048, 1.913e-4
-1.049, 1.975e-4
-1.050, 2.006e-4
-1.051, 2.067e-4
-1.052, 2.098e-4
-1.053, 2.129e-4
-1.054, 2.191e-4
-1.055, 2.252e-4
-1.056, 2.314e-4
-1.057, 2.345e-4
-1.058, 2.406e-4
-1.059, 2.468e-4
-1.060, 2.530e-4
-1.061, 2.591e-4
-1.062, 2.622e-4
-1.063, 2.653e-4
-1.064, 2.715e-4
-1.065, 2.776e-4
-1.066, 2.807e-4
-1.067, 2.838e-4
-1.068, 2.869e-4
-1.069, 2.931e-4
-1.070, 2.992e-4
-1.071, 3.023e-4
-1.072, 3.023e-4
-1.073, 3.085e-4
-1.074, 3.115e-4
-1.075, 3.146e-4
-1.076, 3.208e-4
-1.077, 3.208e-4
-1.078, 3.239e-4
-1.079, 3.300e-4
-1.080, 3.362e-4
-1.081, 3.393e-4
-1.082, 3.424e-4
-1.083, 3.455e-4
-1.084, 3.516e-4
-1.085, 3.578e-4
-1.086, 3.609e-4
-1.087, 3.640e-4
-1.088, 3.701e-4
-1.089, 3.732e-4
-1.090, 3.763e-4
-1.091, 3.825e-4
-1.092, 3.855e-4
-1.093, 3.917e-4
-1.094, 3.948e-4
-1.095, 4.040e-4
-1.096, 4.071e-4
-1.097, 4.133e-4
-1.098, 4.195e-4
-1.099, 4.287e-4
-1.100, 4.380e-4
-1.101, 4.472e-4
-1.102, 4.534e-4
-1.103, 4.657e-4
-1.104, 4.750e-4
-1.105, 4.873e-4
-1.106, 4.965e-4
-1.107, 5.058e-4
-1.108, 5.181e-4
-1.109, 5.274e-4
-1.110, 5.397e-4
-1.111, 5.489e-4
-1.112, 5.582e-4
-1.113, 5.705e-4
-1.114, 5.829e-4
-1.115, 5.952e-4
-1.116, 6.075e-4
-1.117, 6.199e-4
-1.118, 6.353e-4
-1.119, 6.476e-4
-1.120, 6.630e-4
-1.121, 6.754e-4
-1.122, 6.908e-4
-1.123, 7.031e-4
-1.124, 7.185e-4
-1.125, 7.339e-4
-1.126, 7.463e-4
-1.127, 7.555e-4
-1.128, 7.709e-4
-1.129, 7.863e-4
-1.130, 7.987e-4
-1.131, 8.110e-4
-1.132, 8.203e-4
-1.133, 8.326e-4
-1.134, 8.449e-4
-1.135, 8.573e-4
-1.136, 8.727e-4
-1.137, 8.850e-4
-1.138, 8.973e-4
-1.139, 9.158e-4
-1.140, 9.313e-4
-1.141, 9.467e-4
-1.142, 9.621e-4
-1.143, 9.806e-4
-1.144, 1.002e-3
-1.145, 1.027e-3
-1.146, 1.051e-3
-1.147, 1.073e-3
-1.148, 1.098e-3
-1.149, 1.125e-3
-1.150, 1.150e-3
-1.151, 1.175e-3
-1.152, 1.196e-3
-1.153, 1.221e-3
-1.154, 1.246e-3
-1.155, 1.270e-3
-1.156, 1.295e-3
-1.157, 1.310e-3
-1.158, 1.332e-3
-1.159, 1.351e-3
-1.160, 1.372e-3
-1.161, 1.391e-3
-1.162, 1.406e-3
-1.163, 1.421e-3
-1.164, 1.440e-3
-1.165, 1.458e-3
-1.166, 1.474e-3
-1.167, 1.489e-3
-1.168, 1.502e-3
-1.169, 1.520e-3
-1.170, 1.532e-3
-1.171, 1.548e-3
-1.172, 1.557e-3
-1.173, 1.566e-3
-1.174, 1.579e-3
-1.175, 1.588e-3
-1.176, 1.597e-3
-1.177, 1.600e-3
-1.178, 1.610e-3
-1.179, 1.619e-3
-1.180, 1.628e-3
-1.181, 1.634e-3
-1.182, 1.637e-3
-1.183, 1.647e-3
-1.184, 1.656e-3
-1.185, 1.665e-3
-1.186, 1.677e-3
-1.187, 1.684e-3
-1.188, 1.693e-3
-1.189, 1.702e-3
-1.190, 1.714e-3
-1.191, 1.721e-3
-1.192, 1.730e-3
-1.193, 1.739e-3
-1.194, 1.751e-3
-1.195, 1.764e-3
-1.196, 1.773e-3
-1.197, 1.779e-3
-1.198, 1.782e-3
-1.199, 1.795e-3
-1.200, 1.798e-3
-1.201, 1.804e-3
-1.202, 1.807e-3
-1.203, 1.816e-3
-1.204, 1.825e-3
-1.205, 1.835e-3
-1.206, 1.847e-3
-1.207, 1.853e-3
-1.208, 1.859e-3
-1.209, 1.869e-3
-1.210, 1.878e-3
-1.211, 1.890e-3
-1.212, 1.899e-3
-1.213, 1.906e-3
-1.214, 1.912e-3
-1.215, 1.924e-3
-1.216, 1.930e-3
-1.217, 1.936e-3
-1.218, 1.943e-3
-1.219, 1.949e-3
-1.220, 1.958e-3
-1.221, 1.964e-3
-1.222, 1.964e-3
-1.223, 1.967e-3
-1.224, 1.970e-3
-1.225, 1.976e-3
-1.226, 1.976e-3
-1.227, 1.980e-3
-1.228, 1.980e-3
-1.229, 1.989e-3
-1.230, 1.992e-3
-1.231, 1.995e-3
-1.232, 1.992e-3
-1.233, 1.986e-3
-1.234, 1.995e-3
-1.235, 2.013e-3
-1.236, 2.017e-3
-1.237, 2.001e-3
-1.238, 2.004e-3
-1.239, 2.010e-3
-1.240, 2.010e-3
-1.241, 2.029e-3
-1.242, 2.057e-3
-1.243, 2.069e-3
-1.244, 2.063e-3
-1.245, 2.054e-3
-1.246, 2.047e-3
-1.247, 2.038e-3
-1.248, 2.038e-3
-1.249, 2.044e-3
-1.250, 2.054e-3
-1.251, 2.063e-3
-1.252, 2.069e-3
-1.253, 2.078e-3
-1.254, 2.091e-3
-1.255, 2.103e-3
-1.256, 2.109e-3
-1.257, 2.115e-3
-1.258, 2.118e-3
-1.259, 2.131e-3
-1.260, 2.146e-3
-1.261, 2.155e-3
-1.262, 2.164e-3
-1.263, 2.174e-3
-1.264, 2.186e-3
-1.265, 2.201e-3
-1.266, 2.217e-3
-1.267, 2.220e-3
-1.268, 2.220e-3
-1.269, 2.229e-3
-1.270, 2.235e-3
-1.271, 2.242e-3
-1.272, 2.242e-3
-1.273, 2.242e-3
-1.274, 2.248e-3
-1.275, 2.254e-3
-1.276, 2.257e-3
-1.277, 2.260e-3
-1.278, 2.263e-3
-1.279, 2.266e-3
-1.280, 2.275e-3
-1.281, 2.282e-3
-1.282, 2.279e-3
-1.283, 2.275e-3
-1.284, 2.279e-3
-1.285, 2.285e-3
-1.286, 2.285e-3
-1.287, 2.291e-3
-1.288, 2.300e-3
-1.289, 2.306e-3
-1.290, 2.309e-3
-1.291, 2.309e-3
-1.292, 2.306e-3
-1.293, 2.300e-3
-1.294, 2.303e-3
-1.295, 2.306e-3
-1.296, 2.303e-3
-1.297, 2.303e-3
-1.298, 2.312e-3
-1.299, 2.325e-3
-1.300, 2.331e-3
-1.301, 2.328e-3
-1.302, 2.328e-3
-1.303, 2.349e-3
-1.304, 2.383e-3
-1.305, 2.399e-3
-1.306, 2.414e-3
-1.307, 2.439e-3
-1.308, 2.451e-3
-1.309, 2.457e-3
-1.310, 2.448e-3
-1.311, 2.448e-3
-1.312, 2.454e-3
-1.313, 2.473e-3
-1.314, 2.488e-3
-1.315, 2.504e-3
-1.316, 2.510e-3
-1.317, 2.510e-3
-1.318, 2.507e-3
-1.319, 2.507e-3
-1.320, 2.516e-3
-1.321, 2.525e-3
-1.322, 2.534e-3
-1.323, 2.547e-3
-1.324, 2.562e-3
-1.325, 2.575e-3
-1.326, 2.584e-3
-1.327, 2.593e-3
-1.328, 2.602e-3
-1.329, 2.612e-3
-1.330, 2.624e-3
-1.331, 2.624e-3
-1.332, 2.618e-3
-1.333, 2.612e-3
-1.334, 2.612e-3
-1.335, 2.615e-3
-1.336, 2.602e-3
-1.337, 2.602e-3
-1.338, 2.599e-3
-1.339, 2.608e-3
-1.340, 2.621e-3
-1.341, 2.642e-3
-1.342, 2.655e-3
-1.343, 2.664e-3
-1.344, 2.673e-3
-1.345, 2.686e-3
-1.346, 2.698e-3
-1.347, 2.707e-3
-1.348, 2.719e-3
-1.349, 2.738e-3
-1.350, 2.753e-3
-1.351, 2.769e-3
-1.352, 2.790e-3
-1.353, 2.809e-3
-1.354, 2.827e-3
-1.355, 2.840e-3
-1.356, 2.843e-3
-1.357, 2.852e-3
-1.358, 2.858e-3
-1.359, 2.867e-3
-1.360, 2.871e-3
-1.361, 2.880e-3
-1.362, 2.886e-3
-1.363, 2.904e-3
-1.364, 2.926e-3
-1.365, 2.935e-3
-1.366, 2.945e-3
-1.367, 2.945e-3
-1.368, 2.951e-3
-1.369, 2.960e-3
-1.370, 2.960e-3
-1.371, 2.963e-3
-1.372, 3.006e-3
-1.373, 3.043e-3
-1.374, 3.083e-3
-1.375, 3.102e-3
-1.376, 3.089e-3
-1.377, 3.074e-3
-1.378, 3.077e-3
-1.379, 3.086e-3
-1.380, 3.117e-3
-1.381, 3.145e-3
-1.382, 3.163e-3
-1.383, 3.157e-3
-1.384, 3.176e-3
-1.385, 3.191e-3
-1.386, 3.213e-3
-1.387, 3.234e-3
-1.388, 3.253e-3
-1.389, 3.281e-3
-1.390, 3.302e-3
-1.391, 3.324e-3
-1.392, 3.336e-3
-1.393, 3.351e-3
-1.394, 3.364e-3
-1.395, 3.382e-3
-1.396, 3.395e-3
-1.397, 3.416e-3
-1.398, 3.441e-3
-1.399, 3.472e-3
-1.400, 3.441e-3
-1.399, 3.299e-3
-1.398, 3.167e-3
-1.397, 3.046e-3
-1.396, 2.945e-3
-1.395, 2.843e-3
-1.394, 2.750e-3
-1.393, 2.667e-3
-1.392, 2.596e-3
-1.391, 2.528e-3
-1.390, 2.460e-3
-1.389, 2.386e-3
-1.388, 2.312e-3
-1.387, 2.248e-3
-1.386, 2.183e-3
-1.385, 2.118e-3
-1.384, 2.054e-3
-1.383, 1.992e-3
-1.382, 1.933e-3
-1.381, 1.881e-3
-1.380, 1.835e-3
-1.379, 1.791e-3
-1.378, 1.745e-3
-1.377, 1.699e-3
-1.376, 1.650e-3
-1.375, 1.600e-3
-1.374, 1.548e-3
-1.373, 1.499e-3
-1.372, 1.455e-3
-1.371, 1.418e-3
-1.370, 1.381e-3
-1.369, 1.341e-3
-1.368, 1.295e-3
-1.367, 1.258e-3
-1.366, 1.227e-3
-1.365, 1.193e-3
-1.364, 1.159e-3
-1.363, 1.125e-3
-1.362, 1.085e-3
-1.361, 1.039e-3
-1.360, 9.960e-4
-1.359, 9.559e-4
-1.358, 9.189e-4
-1.357, 8.881e-4
-1.356, 8.573e-4
-1.355, 8.233e-4
-1.354, 7.894e-4
-1.353, 7.555e-4
-1.352, 7.247e-4
-1.351, 6.877e-4
-1.350, 6.569e-4
-1.349, 6.260e-4
-1.348, 5.921e-4
-1.347, 5.613e-4
-1.346, 5.335e-4
-1.345, 5.058e-4
-1.344, 4.780e-4
-1.343, 4.472e-4
-1.342, 4.195e-4
-1.341, 3.948e-4
-1.340, 3.701e-4
-1.339, 3.424e-4
-1.338, 3.146e-4
-1.337, 2.869e-4
-1.336, 2.653e-4
-1.335, 2.437e-4
-1.334, 2.221e-4
-1.333, 1.975e-4
-1.332, 1.790e-4
-1.331, 1.574e-4
-1.330, 1.420e-4
-1.329, 1.204e-4
-1.328, 1.050e-4
-1.327, 8.648e-5
-1.326, 7.107e-5
-1.325, 5.565e-5
-1.324, 4.332e-5
-1.323, 3.099e-5
-1.322, 1.557e-5
-1.321, 6.322e-6
-1.320, -2.927e-6
-1.319, -1.526e-5
-1.318, -2.759e-5
-1.317, -3.684e-5
-1.316, -4.609e-5
-1.315, -5.226e-5
-1.314, -6.151e-5
-1.313, -7.076e-5
-1.312, -8.000e-5
-1.311, -8.617e-5
-1.310, -9.234e-5
-1.309, -1.016e-4
-1.308, -1.078e-4
-1.307, -1.139e-4
-1.306, -1.201e-4
-1.305, -1.263e-4
-1.304, -1.324e-4
-1.303, -1.355e-4
-1.302, -1.417e-4
-1.301, -1.417e-4
-1.300, -1.448e-4
-1.299, -1.509e-4
-1.298, -1.540e-4
-1.297, -1.602e-4
-1.296, -1.632e-4
-1.295, -1.663e-4
-1.294, -1.725e-4
-1.293, -1.756e-4
-1.292, -1.787e-4
-1.291, -1.787e-4
-1.290, -1.817e-4
-1.289, -1.848e-4
-1.288, -1.848e-4
-1.287, -1.879e-4
-1.286, -1.879e-4
-1.285, -1.879e-4
-1.284, -1.910e-4
-1.283, -1.910e-4
-1.282, -1.910e-4
-1.281, -1.941e-4
-1.280, -1.941e-4
-1.279, -1.972e-4
-1.278, -1.972e-4
-1.277, -2.002e-4
-1.276, -2.002e-4
-1.275, -2.033e-4
-1.274, -2.033e-4
-1.273, -2.095e-4
-1.272, -2.126e-4
-1.271, -2.126e-4
-1.270, -2.157e-4
-1.269, -2.187e-4
-1.268, -2.218e-4
-1.267, -2.249e-4
-1.266, -2.311e-4
-1.265, -2.342e-4
-1.264, -2.403e-4
-1.263, -2.465e-4
-1.262, -2.557e-4
-1.261, -2.650e-4
-1.260, -2.773e-4
-1.259, -2.958e-4
-1.258, -3.143e-4
-1.257, -3.359e-4
-1.256, -3.575e-4
-1.255, -3.821e-4
-1.254, -4.099e-4
-1.253, -4.376e-4
-1.252, -4.685e-4
-1.251, -4.962e-4
-1.250, -5.209e-4
-1.249, -5.456e-4
-1.248, -5.733e-4
-1.247, -6.011e-4
-1.246, -6.257e-4
-1.245, -6.473e-4
-1.244, -6.750e-4
-1.243, -6.997e-4
-1.242, -7.244e-4
-1.241, -7.460e-4
-1.240, -7.645e-4
-1.239, -7.860e-4
-1.238, -8.076e-4
-1.237, -8.261e-4
-1.236, -8.446e-4
-1.235, -8.631e-4
-1.234, -8.816e-4
-1.233, -8.970e-4
-1.232, -9.155e-4
-1.231, -9.279e-4
-1.230, -9.402e-4
-1.229, -9.587e-4
-1.228, -9.741e-4
-1.227, -9.864e-4
-1.226, -9.988e-4
-1.225, -1.011e-3
-1.224, -1.023e-3
-1.223, -1.036e-3
-1.222, -1.048e-3
-1.221, -1.054e-3
-1.220, -1.064e-3
-1.219, -1.073e-3
-1.218, -1.082e-3
-1.217, -1.094e-3
-1.216, -1.101e-3
-1.215, -1.110e-3
-1.214, -1.116e-3
-1.213, -1.125e-3
-1.212, -1.134e-3
-1.211, -1.141e-3
-1.210, -1.144e-3
-1.209, -1.150e-3
-1.208, -1.156e-3
-1.207, -1.162e-3
-1.206, -1.168e-3
-1.205, -1.175e-3
-1.204, -1.181e-3
-1.203, -1.187e-3
-1.202, -1.193e-3
-1.201, -1.196e-3
-1.200, -1.199e-3
-1.199, -1.205e-3
-1.198, -1.212e-3
-1.197, -1.215e-3
-1.196, -1.215e-3
-1.195, -1.218e-3
-1.194, -1.221e-3
-1.193, -1.224e-3
-1.192, -1.224e-3
-1.191, -1.224e-3
-1.190, -1.227e-3
-1.189, -1.227e-3
-1.188, -1.227e-3
-1.187, -1.227e-3
-1.186, -1.224e-3
-1.185, -1.221e-3
-1.184, -1.221e-3
-1.183, -1.218e-3
-1.182, -1.218e-3
-1.181, -1.215e-3
-1.180, -1.212e-3
-1.179, -1.208e-3
-1.178, -1.205e-3
-1.177, -1.202e-3
-1.176, -1.196e-3
-1.175, -1.193e-3
-1.174, -1.187e-3
-1.173, -1.184e-3
-1.172, -1.178e-3
-1.171, -1.168e-3
-1.170, -1.165e-3
-1.169, -1.156e-3
-1.168, -1.147e-3
-1.167, -1.147e-3
-1.166, -1.141e-3
-1.165, -1.134e-3
-1.164, -1.122e-3
-1.163, -1.110e-3
-1.162, -1.104e-3
-1.161, -1.101e-3
-1.160, -1.101e-3
-1.159, -1.094e-3
-1.158, -1.091e-3
-1.157, -1.088e-3
-1.156, -1.085e-3
-1.155, -1.085e-3
-1.154, -1.085e-3
-1.153, -1.085e-3
-1.152, -1.085e-3
-1.151, -1.088e-3
-1.150, -1.088e-3
-1.149, -1.091e-3
-1.148, -1.094e-3
-1.147, -1.097e-3
-1.146, -1.097e-3
-1.145, -1.097e-3
-1.144, -1.097e-3
-1.143, -1.101e-3
-1.142, -1.101e-3
-1.141, -1.101e-3
-1.140, -1.097e-3
-1.139, -1.104e-3
-1.138, -1.107e-3
-1.137, -1.110e-3
-1.136, -1.110e-3
-1.135, -1.113e-3
-1.134, -1.116e-3
-1.133, -1.119e-3
-1.132, -1.122e-3
-1.131, -1.122e-3
-1.130, -1.125e-3
-1.129, -1.128e-3
-1.128, -1.128e-3
-1.127, -1.134e-3
-1.126, -1.134e-3
-1.125, -1.134e-3
-1.124, -1.138e-3
-1.123, -1.141e-3
-1.122, -1.138e-3
-1.121, -1.141e-3
-1.120, -1.141e-3
-1.119, -1.144e-3
-1.118, -1.141e-3
-1.117, -1.144e-3
-1.116, -1.144e-3
-1.115, -1.144e-3
-1.114, -1.144e-3
-1.113, -1.147e-3
-1.112, -1.150e-3
-1.111, -1.150e-3
-1.110, -1.147e-3
-1.109, -1.147e-3
-1.108, -1.147e-3
-1.107, -1.144e-3
-1.106, -1.141e-3
-1.105, -1.141e-3
-1.104, -1.144e-3
-1.103, -1.147e-3
-1.102, -1.150e-3
-1.101, -1.150e-3
-1.100, -1.150e-3
-1.099, -1.150e-3
-1.098, -1.153e-3
-1.097, -1.150e-3
-1.096, -1.150e-3
-1.095, -1.153e-3
-1.094, -1.156e-3
-1.093, -1.159e-3
-1.092, -1.165e-3
-1.091, -1.168e-3
-1.090, -1.168e-3
-1.089, -1.171e-3
-1.088, -1.171e-3
-1.087, -1.171e-3
-1.086, -1.171e-3
-1.085, -1.168e-3
-1.084, -1.171e-3
-1.083, -1.175e-3
-1.082, -1.178e-3
-1.081, -1.178e-3
-1.080, -1.175e-3
-1.079, -1.178e-3
-1.078, -1.184e-3
-1.077, -1.190e-3
-1.076, -1.193e-3
-1.075, -1.196e-3
-1.074, -1.199e-3
-1.073, -1.202e-3
-1.072, -1.205e-3
-1.071, -1.208e-3
-1.070, -1.212e-3
-1.069, -1.205e-3
-1.068, -1.212e-3
-1.067, -1.218e-3
-1.066, -1.224e-3
-1.065, -1.230e-3
-1.064, -1.236e-3
-1.063, -1.245e-3
-1.062, -1.255e-3
-1.061, -1.264e-3
-1.060, -1.270e-3
-1.059, -1.276e-3
-1.058, -1.286e-3
-1.057, -1.298e-3
-1.056, -1.307e-3
-1.055, -1.313e-3
-1.054, -1.326e-3
-1.053, -1.338e-3
-1.052, -1.353e-3
-1.051, -1.366e-3
-1.050, -1.378e-3
-1.049, -1.390e-3
-1.048, -1.403e-3
-1.047, -1.415e-3
-1.046, -1.430e-3
-1.045, -1.443e-3
-1.044, -1.458e-3
-1.043, -1.474e-3
-1.042, -1.489e-3
-1.041, -1.504e-3
-1.040, -1.517e-3
-1.039, -1.532e-3
-1.038, -1.551e-3
-1.037, -1.563e-3
-1.036, -1.581e-3
-1.035, -1.600e-3
-1.034, -1.612e-3
-1.033, -1.628e-3
-1.032, -1.640e-3
-1.031, -1.649e-3
-1.030, -1.662e-3
-1.029, -1.674e-3
-1.028, -1.689e-3
-1.027, -1.702e-3
-1.026, -1.711e-3
-1.025, -1.729e-3
-1.024, -1.748e-3
-1.023, -1.757e-3
-1.022, -1.770e-3
-1.021, -1.779e-3
-1.020, -1.791e-3
-1.019, -1.800e-3
-1.018, -1.813e-3
-1.017, -1.825e-3
-1.016, -1.834e-3
-1.015, -1.844e-3
-1.014, -1.853e-3
-1.013, -1.871e-3
-1.012, -1.881e-3
-1.011, -1.887e-3
-1.010, -1.896e-3
-1.009, -1.905e-3
-1.008, -1.914e-3
-1.007, -1.924e-3
-1.006, -1.930e-3
-1.005, -1.939e-3
-1.004, -1.948e-3
-1.003, -1.958e-3
-1.002, -1.964e-3
-1.001, -1.973e-3
