Aug. 28, 2024   08:06:14
Cyclic Voltammetry
File: c:/users/guazh/data/20240813_batch_181_500/2024-08-25-exp204\exp204-2024-08-28t07_59_44-h2koh\exp204_cv_sr_200mvs_efin_-1400mv.bin
Data Source:  Experiment
Instrument Model:  CHI760E
Header: CV ran at 200 mVs
Note: 

Init E (V) = -1
High E (V) = -1
Low E (V) = -1.4
Final E (V) = -1
Init P/N = N
Scan Rate (V/s) = 0.2
Segment = 3
Sample Interval (V) = 0.001
Quiet Time (sec) = 2
Sensitivity (A/V) = 0.01
Comp R (ohm) = 1.4

Results:

Channel 1:
Segment 1:

Segment 2:

Segment 3:

Potential/V, Current/A

-1.000, -1.187e-4
-1.001, -8.948e-5
-1.002, -7.091e-5
-1.003, -5.852e-5
-1.004, -4.848e-5
-1.005, -3.736e-5
-1.006, -2.899e-5
-1.007, -2.101e-5
-1.008, -1.321e-5
-1.009, -5.734e-6
-1.010, -9.096e-7
-1.011, 5.720e-6
-1.012, 1.270e-5
-1.013, 1.706e-5
-1.014, 2.292e-5
-1.015, 2.927e-5
-1.016, 3.410e-5
-1.017, 3.822e-5
-1.018, 4.411e-5
-1.019, 4.891e-5
-1.020, 5.235e-5
-1.021, 5.703e-5
-1.022, 6.260e-5
-1.023, 6.620e-5
-1.024, 7.041e-5
-1.025, 7.609e-5
-1.026, 7.962e-5
-1.027, 8.250e-5
-1.028, 8.752e-5
-1.029, 9.139e-5
-1.030, 9.346e-5
-1.031, 9.787e-5
-1.032, 1.022e-4
-1.033, 1.048e-4
-1.034, 1.078e-4
-1.035, 1.123e-4
-1.036, 1.149e-4
-1.037, 1.179e-4
-1.038, 1.218e-4
-1.039, 1.261e-4
-1.040, 1.278e-4
-1.041, 1.320e-4
-1.042, 1.371e-4
-1.043, 1.399e-4
-1.044, 1.437e-4
-1.045, 1.496e-4
-1.046, 1.537e-4
-1.047, 1.580e-4
-1.048, 1.634e-4
-1.049, 1.689e-4
-1.050, 1.727e-4
-1.051, 1.784e-4
-1.052, 1.841e-4
-1.053, 1.870e-4
-1.054, 1.904e-4
-1.055, 1.964e-4
-1.056, 1.992e-4
-1.057, 2.020e-4
-1.058, 2.058e-4
-1.059, 2.086e-4
-1.060, 2.101e-4
-1.061, 2.133e-4
-1.062, 2.176e-4
-1.063, 2.203e-4
-1.064, 2.228e-4
-1.065, 2.273e-4
-1.066, 2.301e-4
-1.067, 2.325e-4
-1.068, 2.370e-4
-1.069, 2.404e-4
-1.070, 2.421e-4
-1.071, 2.464e-4
-1.072, 2.510e-4
-1.073, 2.543e-4
-1.074, 2.580e-4
-1.075, 2.635e-4
-1.076, 2.677e-4
-1.077, 2.706e-4
-1.078, 2.756e-4
-1.079, 2.809e-4
-1.080, 2.842e-4
-1.081, 2.893e-4
-1.082, 2.958e-4
-1.083, 3.013e-4
-1.084, 3.083e-4
-1.085, 3.163e-4
-1.086, 3.238e-4
-1.087, 3.313e-4
-1.088, 3.411e-4
-1.089, 3.511e-4
-1.090, 3.600e-4
-1.091, 3.705e-4
-1.092, 3.821e-4
-1.093, 3.915e-4
-1.094, 4.013e-4
-1.095, 4.128e-4
-1.096, 4.231e-4
-1.097, 4.327e-4
-1.098, 4.442e-4
-1.099, 4.559e-4
-1.100, 4.659e-4
-1.101, 4.778e-4
-1.102, 4.911e-4
-1.103, 5.027e-4
-1.104, 5.153e-4
-1.105, 5.297e-4
-1.106, 5.427e-4
-1.107, 5.545e-4
-1.108, 5.680e-4
-1.109, 5.807e-4
-1.110, 5.911e-4
-1.111, 6.035e-4
-1.112, 6.151e-4
-1.113, 6.247e-4
-1.114, 6.354e-4
-1.115, 6.479e-4
-1.116, 6.581e-4
-1.117, 6.661e-4
-1.118, 6.763e-4
-1.119, 6.856e-4
-1.120, 6.913e-4
-1.121, 7.022e-4
-1.122, 7.157e-4
-1.123, 7.273e-4
-1.124, 7.398e-4
-1.125, 7.545e-4
-1.126, 7.693e-4
-1.127, 7.853e-4
-1.128, 8.019e-4
-1.129, 8.139e-4
-1.130, 8.309e-4
-1.131, 8.546e-4
-1.132, 8.731e-4
-1.133, 8.925e-4
-1.134, 9.091e-4
-1.135, 9.289e-4
-1.136, 9.469e-4
-1.137, 9.640e-4
-1.138, 9.815e-4
-1.139, 1.000e-3
-1.140, 1.017e-3
-1.141, 1.032e-3
-1.142, 1.049e-3
-1.143, 1.062e-3
-1.144, 1.077e-3
-1.145, 1.094e-3
-1.146, 1.109e-3
-1.147, 1.117e-3
-1.148, 1.129e-3
-1.149, 1.141e-3
-1.150, 1.150e-3
-1.151, 1.158e-3
-1.152, 1.168e-3
-1.153, 1.175e-3
-1.154, 1.183e-3
-1.155, 1.191e-3
-1.156, 1.200e-3
-1.157, 1.205e-3
-1.158, 1.211e-3
-1.159, 1.216e-3
-1.160, 1.219e-3
-1.161, 1.225e-3
-1.162, 1.233e-3
-1.163, 1.239e-3
-1.164, 1.243e-3
-1.165, 1.249e-3
-1.166, 1.256e-3
-1.167, 1.265e-3
-1.168, 1.274e-3
-1.169, 1.279e-3
-1.170, 1.281e-3
-1.171, 1.285e-3
-1.172, 1.294e-3
-1.173, 1.297e-3
-1.174, 1.299e-3
-1.175, 1.304e-3
-1.176, 1.308e-3
-1.177, 1.311e-3
-1.178, 1.318e-3
-1.179, 1.322e-3
-1.180, 1.325e-3
-1.181, 1.341e-3
-1.182, 1.352e-3
-1.183, 1.352e-3
-1.184, 1.346e-3
-1.185, 1.345e-3
-1.186, 1.359e-3
-1.187, 1.370e-3
-1.188, 1.377e-3
-1.189, 1.386e-3
-1.190, 1.394e-3
-1.191, 1.400e-3
-1.192, 1.407e-3
-1.193, 1.411e-3
-1.194, 1.420e-3
-1.195, 1.427e-3
-1.196, 1.431e-3
-1.197, 1.431e-3
-1.198, 1.430e-3
-1.199, 1.434e-3
-1.200, 1.435e-3
-1.201, 1.439e-3
-1.202, 1.445e-3
-1.203, 1.449e-3
-1.204, 1.451e-3
-1.205, 1.462e-3
-1.206, 1.470e-3
-1.207, 1.474e-3
-1.208, 1.474e-3
-1.209, 1.474e-3
-1.210, 1.466e-3
-1.211, 1.465e-3
-1.212, 1.468e-3
-1.213, 1.466e-3
-1.214, 1.467e-3
-1.215, 1.471e-3
-1.216, 1.472e-3
-1.217, 1.473e-3
-1.218, 1.478e-3
-1.219, 1.485e-3
-1.220, 1.487e-3
-1.221, 1.491e-3
-1.222, 1.497e-3
-1.223, 1.503e-3
-1.224, 1.508e-3
-1.225, 1.514e-3
-1.226, 1.517e-3
-1.227, 1.517e-3
-1.228, 1.526e-3
-1.229, 1.534e-3
-1.230, 1.537e-3
-1.231, 1.541e-3
-1.232, 1.543e-3
-1.233, 1.542e-3
-1.234, 1.543e-3
-1.235, 1.550e-3
-1.236, 1.557e-3
-1.237, 1.560e-3
-1.238, 1.562e-3
-1.239, 1.566e-3
-1.240, 1.568e-3
-1.241, 1.574e-3
-1.242, 1.579e-3
-1.243, 1.581e-3
-1.244, 1.583e-3
-1.245, 1.586e-3
-1.246, 1.590e-3
-1.247, 1.594e-3
-1.248, 1.599e-3
-1.249, 1.594e-3
-1.250, 1.597e-3
-1.251, 1.602e-3
-1.252, 1.611e-3
-1.253, 1.607e-3
-1.254, 1.600e-3
-1.255, 1.599e-3
-1.256, 1.597e-3
-1.257, 1.596e-3
-1.258, 1.599e-3
-1.259, 1.600e-3
-1.260, 1.611e-3
-1.261, 1.638e-3
-1.262, 1.641e-3
-1.263, 1.630e-3
-1.264, 1.627e-3
-1.265, 1.635e-3
-1.266, 1.643e-3
-1.267, 1.649e-3
-1.268, 1.655e-3
-1.269, 1.661e-3
-1.270, 1.665e-3
-1.271, 1.675e-3
-1.272, 1.685e-3
-1.273, 1.693e-3
-1.274, 1.708e-3
-1.275, 1.725e-3
-1.276, 1.732e-3
-1.277, 1.734e-3
-1.278, 1.744e-3
-1.279, 1.754e-3
-1.280, 1.762e-3
-1.281, 1.768e-3
-1.282, 1.773e-3
-1.283, 1.774e-3
-1.284, 1.778e-3
-1.285, 1.784e-3
-1.286, 1.788e-3
-1.287, 1.793e-3
-1.288, 1.800e-3
-1.289, 1.807e-3
-1.290, 1.808e-3
-1.291, 1.801e-3
-1.292, 1.795e-3
-1.293, 1.782e-3
-1.294, 1.780e-3
-1.295, 1.788e-3
-1.296, 1.799e-3
-1.297, 1.810e-3
-1.298, 1.820e-3
-1.299, 1.829e-3
-1.300, 1.832e-3
-1.301, 1.839e-3
-1.302, 1.848e-3
-1.303, 1.860e-3
-1.304, 1.879e-3
-1.305, 1.894e-3
-1.306, 1.904e-3
-1.307, 1.908e-3
-1.308, 1.919e-3
-1.309, 1.927e-3
-1.310, 1.931e-3
-1.311, 1.941e-3
-1.312, 1.954e-3
-1.313, 1.962e-3
-1.314, 1.967e-3
-1.315, 1.996e-3
-1.316, 2.018e-3
-1.317, 2.022e-3
-1.318, 2.038e-3
-1.319, 2.043e-3
-1.320, 2.051e-3
-1.321, 2.065e-3
-1.322, 2.067e-3
-1.323, 2.033e-3
-1.324, 2.015e-3
-1.325, 2.016e-3
-1.326, 2.017e-3
-1.327, 2.023e-3
-1.328, 2.040e-3
-1.329, 2.065e-3
-1.330, 2.084e-3
-1.331, 2.112e-3
-1.332, 2.131e-3
-1.333, 2.125e-3
-1.334, 2.136e-3
-1.335, 2.164e-3
-1.336, 2.181e-3
-1.337, 2.176e-3
-1.338, 2.180e-3
-1.339, 2.197e-3
-1.340, 2.208e-3
-1.341, 2.219e-3
-1.342, 2.235e-3
-1.343, 2.244e-3
-1.344, 2.256e-3
-1.345, 2.265e-3
-1.346, 2.269e-3
-1.347, 2.274e-3
-1.348, 2.273e-3
-1.349, 2.278e-3
-1.350, 2.282e-3
-1.351, 2.295e-3
-1.352, 2.327e-3
-1.353, 2.352e-3
-1.354, 2.371e-3
-1.355, 2.381e-3
-1.356, 2.397e-3
-1.357, 2.410e-3
-1.358, 2.429e-3
-1.359, 2.447e-3
-1.360, 2.464e-3
-1.361, 2.473e-3
-1.362, 2.490e-3
-1.363, 2.511e-3
-1.364, 2.523e-3
-1.365, 2.539e-3
-1.366, 2.555e-3
-1.367, 2.564e-3
-1.368, 2.580e-3
-1.369, 2.601e-3
-1.370, 2.621e-3
-1.371, 2.643e-3
-1.372, 2.666e-3
-1.373, 2.680e-3
-1.374, 2.696e-3
-1.375, 2.718e-3
-1.376, 2.736e-3
-1.377, 2.753e-3
-1.378, 2.770e-3
-1.379, 2.788e-3
-1.380, 2.803e-3
-1.381, 2.819e-3
-1.382, 2.840e-3
-1.383, 2.858e-3
-1.384, 2.876e-3
-1.385, 2.899e-3
-1.386, 2.919e-3
-1.387, 2.932e-3
-1.388, 2.954e-3
-1.389, 2.980e-3
-1.390, 3.003e-3
-1.391, 3.031e-3
-1.392, 3.059e-3
-1.393, 3.078e-3
-1.394, 3.096e-3
-1.395, 3.120e-3
-1.396, 3.143e-3
-1.397, 3.165e-3
-1.398, 3.202e-3
-1.399, 3.238e-3
-1.400, 3.175e-3
-1.399, 3.031e-3
-1.398, 2.911e-3
-1.397, 2.815e-3
-1.396, 2.733e-3
-1.395, 2.662e-3
-1.394, 2.596e-3
-1.393, 2.515e-3
-1.392, 2.431e-3
-1.391, 2.354e-3
-1.390, 2.285e-3
-1.389, 2.230e-3
-1.388, 2.185e-3
-1.387, 2.135e-3
-1.386, 2.088e-3
-1.385, 2.017e-3
-1.384, 1.942e-3
-1.383, 1.881e-3
-1.382, 1.864e-3
-1.381, 1.851e-3
-1.380, 1.801e-3
-1.379, 1.738e-3
-1.378, 1.682e-3
-1.377, 1.635e-3
-1.376, 1.593e-3
-1.375, 1.541e-3
-1.374, 1.483e-3
-1.373, 1.434e-3
-1.372, 1.395e-3
-1.371, 1.359e-3
-1.370, 1.321e-3
-1.369, 1.288e-3
-1.368, 1.257e-3
-1.367, 1.225e-3
-1.366, 1.194e-3
-1.365, 1.161e-3
-1.364, 1.130e-3
-1.363, 1.098e-3
-1.362, 1.066e-3
-1.361, 1.035e-3
-1.360, 1.001e-3
-1.359, 9.667e-4
-1.358, 9.354e-4
-1.357, 9.030e-4
-1.356, 8.688e-4
-1.355, 8.392e-4
-1.354, 8.081e-4
-1.353, 7.746e-4
-1.352, 7.443e-4
-1.351, 7.138e-4
-1.350, 6.819e-4
-1.349, 6.497e-4
-1.348, 6.215e-4
-1.347, 5.903e-4
-1.346, 5.603e-4
-1.345, 5.336e-4
-1.344, 5.065e-4
-1.343, 4.760e-4
-1.342, 4.476e-4
-1.341, 4.216e-4
-1.340, 3.942e-4
-1.339, 3.690e-4
-1.338, 3.465e-4
-1.337, 3.239e-4
-1.336, 3.032e-4
-1.335, 2.838e-4
-1.334, 2.646e-4
-1.333, 2.424e-4
-1.332, 2.187e-4
-1.331, 1.925e-4
-1.330, 1.746e-4
-1.329, 1.591e-4
-1.328, 1.429e-4
-1.327, 1.272e-4
-1.326, 1.132e-4
-1.325, 1.016e-4
-1.324, 8.771e-5
-1.323, 7.286e-5
-1.322, 6.041e-5
-1.321, 4.795e-5
-1.320, 3.476e-5
-1.319, 2.367e-5
-1.318, 1.349e-5
-1.317, 3.352e-6
-1.316, -7.382e-6
-1.315, -1.534e-5
-1.314, -2.406e-5
-1.313, -3.332e-5
-1.312, -3.911e-5
-1.311, -4.564e-5
-1.310, -5.434e-5
-1.309, -6.226e-5
-1.308, -6.966e-5
-1.307, -7.718e-5
-1.306, -8.281e-5
-1.305, -8.726e-5
-1.304, -9.125e-5
-1.303, -9.626e-5
-1.302, -9.914e-5
-1.301, -1.021e-4
-1.300, -1.078e-4
-1.299, -1.132e-4
-1.298, -1.172e-4
-1.297, -1.233e-4
-1.296, -1.269e-4
-1.295, -1.296e-4
-1.294, -1.325e-4
-1.293, -1.366e-4
-1.292, -1.387e-4
-1.291, -1.409e-4
-1.290, -1.444e-4
-1.289, -1.461e-4
-1.288, -1.466e-4
-1.287, -1.493e-4
-1.286, -1.507e-4
-1.285, -1.507e-4
-1.284, -1.521e-4
-1.283, -1.543e-4
-1.282, -1.549e-4
-1.281, -1.556e-4
-1.280, -1.582e-4
-1.279, -1.591e-4
-1.278, -1.595e-4
-1.277, -1.621e-4
-1.276, -1.642e-4
-1.275, -1.653e-4
-1.274, -1.676e-4
-1.273, -1.710e-4
-1.272, -1.729e-4
-1.271, -1.750e-4
-1.270, -1.792e-4
-1.269, -1.819e-4
-1.268, -1.843e-4
-1.267, -1.892e-4
-1.266, -1.944e-4
-1.265, -1.991e-4
-1.264, -2.070e-4
-1.263, -2.171e-4
-1.262, -2.291e-4
-1.261, -2.438e-4
-1.260, -2.638e-4
-1.259, -2.852e-4
-1.258, -3.073e-4
-1.257, -3.337e-4
-1.256, -3.594e-4
-1.255, -3.838e-4
-1.254, -4.089e-4
-1.253, -4.349e-4
-1.252, -4.586e-4
-1.251, -4.814e-4
-1.250, -5.054e-4
-1.249, -5.270e-4
-1.248, -5.459e-4
-1.247, -5.674e-4
-1.246, -5.886e-4
-1.245, -6.064e-4
-1.244, -6.260e-4
-1.243, -6.457e-4
-1.242, -6.621e-4
-1.241, -6.779e-4
-1.240, -6.945e-4
-1.239, -7.108e-4
-1.238, -7.249e-4
-1.237, -7.395e-4
-1.236, -7.543e-4
-1.235, -7.674e-4
-1.234, -7.826e-4
-1.233, -7.993e-4
-1.232, -8.079e-4
-1.231, -8.198e-4
-1.230, -8.318e-4
-1.229, -8.380e-4
-1.228, -8.531e-4
-1.227, -8.614e-4
-1.226, -8.733e-4
-1.225, -8.802e-4
-1.224, -8.901e-4
-1.223, -9.074e-4
-1.222, -9.177e-4
-1.221, -9.246e-4
-1.220, -9.369e-4
-1.219, -9.485e-4
-1.218, -9.561e-4
-1.217, -9.651e-4
-1.216, -9.734e-4
-1.215, -9.799e-4
-1.214, -9.858e-4
-1.213, -9.899e-4
-1.212, -9.914e-4
-1.211, -9.946e-4
-1.210, -9.998e-4
-1.209, -1.003e-3
-1.208, -1.002e-3
-1.207, -1.010e-3
-1.206, -1.017e-3
-1.205, -1.021e-3
-1.204, -1.025e-3
-1.203, -1.030e-3
-1.202, -1.033e-3
-1.201, -1.035e-3
-1.200, -1.040e-3
-1.199, -1.042e-3
-1.198, -1.042e-3
-1.197, -1.044e-3
-1.196, -1.046e-3
-1.195, -1.044e-3
-1.194, -1.046e-3
-1.193, -1.051e-3
-1.192, -1.053e-3
-1.191, -1.050e-3
-1.190, -1.049e-3
-1.189, -1.048e-3
-1.188, -1.045e-3
-1.187, -1.046e-3
-1.186, -1.045e-3
-1.185, -1.041e-3
-1.184, -1.038e-3
-1.183, -1.037e-3
-1.182, -1.034e-3
-1.181, -1.031e-3
-1.180, -1.030e-3
-1.179, -1.024e-3
-1.178, -1.018e-3
-1.177, -1.015e-3
-1.176, -1.009e-3
-1.175, -1.002e-3
-1.174, -9.953e-4
-1.173, -9.895e-4
-1.172, -9.818e-4
-1.171, -9.723e-4
-1.170, -9.668e-4
-1.169, -9.612e-4
-1.168, -9.557e-4
-1.167, -9.530e-4
-1.166, -9.474e-4
-1.165, -9.376e-4
-1.164, -9.354e-4
-1.163, -9.307e-4
-1.162, -9.291e-4
-1.161, -9.233e-4
-1.160, -9.201e-4
-1.159, -9.179e-4
-1.158, -9.160e-4
-1.157, -9.177e-4
-1.156, -9.180e-4
-1.155, -9.180e-4
-1.154, -9.207e-4
-1.153, -9.251e-4
-1.152, -9.259e-4
-1.151, -9.270e-4
-1.150, -9.312e-4
-1.149, -9.326e-4
-1.148, -9.338e-4
-1.147, -9.364e-4
-1.146, -9.414e-4
-1.145, -9.426e-4
-1.144, -9.430e-4
-1.143, -9.434e-4
-1.142, -9.414e-4
-1.141, -9.420e-4
-1.140, -9.458e-4
-1.139, -9.509e-4
-1.138, -9.557e-4
-1.137, -9.607e-4
-1.136, -9.619e-4
-1.135, -9.640e-4
-1.134, -9.664e-4
-1.133, -9.691e-4
-1.132, -9.684e-4
-1.131, -9.694e-4
-1.130, -9.722e-4
-1.129, -9.729e-4
-1.128, -9.708e-4
-1.127, -9.681e-4
-1.126, -9.700e-4
-1.125, -9.715e-4
-1.124, -9.765e-4
-1.123, -9.818e-4
-1.122, -9.819e-4
-1.121, -9.817e-4
-1.120, -9.846e-4
-1.119, -9.849e-4
-1.118, -9.854e-4
-1.117, -9.867e-4
-1.116, -9.879e-4
-1.115, -9.886e-4
-1.114, -9.920e-4
-1.113, -9.949e-4
-1.112, -9.939e-4
-1.111, -9.930e-4
-1.110, -9.942e-4
-1.109, -9.936e-4
-1.108, -9.933e-4
-1.107, -9.932e-4
-1.106, -9.935e-4
-1.105, -9.921e-4
-1.104, -9.912e-4
-1.103, -9.915e-4
-1.102, -9.916e-4
-1.101, -9.949e-4
-1.100, -9.990e-4
-1.099, -1.001e-3
-1.098, -1.002e-3
-1.097, -1.005e-3
-1.096, -1.003e-3
-1.095, -1.002e-3
-1.094, -1.002e-3
-1.093, -1.004e-3
-1.092, -1.004e-3
-1.091, -1.003e-3
-1.090, -1.005e-3
-1.089, -1.006e-3
-1.088, -1.005e-3
-1.087, -1.009e-3
-1.086, -1.009e-3
-1.085, -1.008e-3
-1.084, -1.009e-3
-1.083, -1.011e-3
-1.082, -1.013e-3
-1.081, -1.009e-3
-1.080, -1.011e-3
-1.079, -1.012e-3
-1.078, -1.009e-3
-1.077, -1.009e-3
-1.076, -1.014e-3
-1.075, -1.016e-3
-1.074, -1.016e-3
-1.073, -1.015e-3
-1.072, -1.017e-3
-1.071, -1.020e-3
-1.070, -1.025e-3
-1.069, -1.027e-3
-1.068, -1.029e-3
-1.067, -1.033e-3
-1.066, -1.035e-3
-1.065, -1.035e-3
-1.064, -1.041e-3
-1.063, -1.046e-3
-1.062, -1.050e-3
-1.061, -1.054e-3
-1.060, -1.058e-3
-1.059, -1.060e-3
-1.058, -1.066e-3
-1.057, -1.071e-3
-1.056, -1.075e-3
-1.055, -1.080e-3
-1.054, -1.090e-3
-1.053, -1.098e-3
-1.052, -1.101e-3
-1.051, -1.110e-3
-1.050, -1.118e-3
-1.049, -1.125e-3
-1.048, -1.128e-3
-1.047, -1.137e-3
-1.046, -1.148e-3
-1.045, -1.162e-3
-1.044, -1.168e-3
-1.043, -1.181e-3
-1.042, -1.190e-3
-1.041, -1.200e-3
-1.040, -1.212e-3
-1.039, -1.223e-3
-1.038, -1.232e-3
-1.037, -1.244e-3
-1.036, -1.254e-3
-1.035, -1.257e-3
-1.034, -1.260e-3
-1.033, -1.277e-3
-1.032, -1.287e-3
-1.031, -1.285e-3
-1.030, -1.294e-3
-1.029, -1.301e-3
-1.028, -1.311e-3
-1.027, -1.324e-3
-1.026, -1.334e-3
-1.025, -1.340e-3
-1.024, -1.349e-3
-1.023, -1.364e-3
-1.022, -1.376e-3
-1.021, -1.386e-3
-1.020, -1.395e-3
-1.019, -1.406e-3
-1.018, -1.415e-3
-1.017, -1.427e-3
-1.016, -1.439e-3
-1.015, -1.451e-3
-1.014, -1.462e-3
-1.013, -1.469e-3
-1.012, -1.479e-3
-1.011, -1.494e-3
-1.010, -1.507e-3
-1.009, -1.515e-3
-1.008, -1.523e-3
-1.007, -1.533e-3
-1.006, -1.542e-3
-1.005, -1.548e-3
-1.004, -1.553e-3
-1.003, -1.558e-3
-1.002, -1.564e-3
-1.001, -1.571e-3
