Potential V vs RHE, Current mA cm-2
0.4132999999999999,-0.000327788608178729
0.4122999999999999,-0.0021475317531951255
0.4112999999999999,-0.0030119203574126632
0.4102999999999999,-0.003543851806161917
0.4092999999999999,-0.003939970970124128
0.4082999999999999,-0.004300722351589711
0.4072999999999999,-0.0046317647957581295
0.4062999999999999,-0.004951489549527628
0.4052999999999999,-0.005197649315704145
0.4042999999999999,-0.005405611876784306
0.4032999999999999,-0.0055909390570666245
0.4022999999999999,-0.005815878153745166
0.4012999999999999,-0.006025255426125192
0.4002999999999999,-0.0061738001126110205
0.3992999999999999,-0.006305368263498468
0.3982999999999999,-0.006453912949984298
0.3972999999999999,-0.006591139946071206
0.3962999999999999,-0.00676373472465474
0.3952999999999999,-0.006845787980046912
0.3942999999999999,-0.0069448177710374655
0.39329999999999987,-0.007032529871629097
0.39229999999999987,-0.007155609754717356
0.39129999999999987,-0.007290007328204534
0.39029999999999987,-0.0073649870270973816
0.38929999999999987,-0.007418746056492252
0.38829999999999987,-0.007509287579683614
0.38729999999999987,-0.0076083173706741666
0.38629999999999987,-0.007755447345860131
0.38529999999999986,-0.007837500601252304
0.38429999999999986,-0.007867209538549469
0.38329999999999986,-0.007937945103542721
0.38229999999999986,-0.008018583647635028
0.38129999999999986,-0.00812610170642477
0.38029999999999986,-0.008198251982717888
0.37929999999999986,-0.008242108033013704
0.37829999999999986,-0.008284549372009654
0.37729999999999986,-0.008386408585599936
0.37629999999999986,-0.008489682510490084
0.37529999999999986,-0.008568906343282527
0.37429999999999986,-0.008594371146680099
0.37329999999999985,-0.008673594979472541
0.37229999999999985,-0.008755648234864712
0.37129999999999985,-0.008840530912856614
0.37029999999999985,-0.008894289942251485
0.36929999999999985,-0.008946634260346491
0.36829999999999985,-0.008984831465442846
0.36729999999999985,-0.009085275967733264
0.36629999999999985,-0.009192794026523008
0.36529999999999985,-0.009259285457616666
0.36429999999999985,-0.009297482662713021
0.36329999999999985,-0.009362559382506812
0.36229999999999984,-0.009451686194398309
0.36129999999999984,-0.009549301274088998
0.36029999999999984,-0.009607304437383465
0.35929999999999984,-0.009658234044178605
0.35829999999999984,-0.009713407784873344
0.35729999999999984,-0.009791216906365918
0.35629999999999984,-0.009905808521654985
0.35529999999999984,-0.009968055818849048
0.35429999999999984,-0.01003030311604311
0.35329999999999984,-0.010088306279337576
0.35229999999999984,-0.01017601837992921
0.35129999999999983,-0.010290609995218277
0.35029999999999983,-0.01036983382801072
0.34929999999999983,-0.01040661632180721
0.34829999999999983,-0.010495743133698707
0.34729999999999983,-0.01060609061508818
0.34629999999999983,-0.010723511652976978
0.34529999999999983,-0.010792832506670366
0.34429999999999983,-0.010850835669964832
0.3432999999999998,-0.010930059502757274
0.3422999999999998,-0.011031918716347558
0.3412999999999998,-0.0111677310011346
0.3402999999999998,-0.011263931369525422
0.3392999999999998,-0.011307787419821238
0.3382999999999998,-0.011415305478610981
0.3372999999999998,-0.011536970650399374
0.3362999999999998,-0.011662879956087363
0.3352999999999998,-0.011773227437476835
0.3342999999999998,-0.011839718868570492
0.3332999999999998,-0.01194016337086091
0.3322999999999998,-0.012070316810448494
0.3312999999999998,-0.012208958517835267
0.3302999999999998,-0.012310817731425549
0.3292999999999998,-0.012404188677216642
0.3282999999999998,-0.01253009798290463
0.3272999999999998,-0.012688545648489515
0.3262999999999998,-0.012848408025374264
0.3252999999999999,-0.012933290703366164
0.3242999999999999,-0.013035149916956448
0.3232999999999999,-0.013112959038449026
0.3222999999999999,-0.013247356611936205
0.3212999999999999,-0.013401560143621493
0.3202999999999999,-0.013528884160609347
0.3192999999999999,-0.013636402219399088
0.3182999999999999,-0.013739676144289234
0.3172999999999999,-0.01387548842907628
0.3162999999999999,-0.014043839073760219
0.3152999999999999,-0.014147112998650365
0.3142999999999999,-0.01424614278964092
0.3132999999999999,-0.014345172580631472
0.3122999999999999,-0.014486643710617976
0.3112999999999999,-0.014670556179600431
0.3102999999999999,-0.014769585970590984
0.3092999999999999,-0.014896909987578835
0.3082999999999999,-0.014981792665570736
0.3072999999999999,-0.015109116682558592
0.3062999999999999,-0.015278882038542396
0.3052999999999999,-0.015377911829532949
0.3042999999999999,-0.01543450028152755
0.3032999999999999,-0.015547677185516754
0.3022999999999999,-0.015660854089505957
0.3012999999999999,-0.01580232521949246
0.3002999999999999,-0.01588720789748436
0.2992999999999999,-0.015929649236480315
0.2982999999999999,-0.016042826140469518
0.2972999999999999,-0.016127708818461418
0.2962999999999999,-0.01625503283544927
0.2952999999999999,-0.016325768400442524
0.2942999999999999,-0.016368209739438477
0.2932999999999999,-0.016424798191433075
0.2922999999999999,-0.016537975095422278
0.2912999999999999,-0.01660871066041553
0.2902999999999999,-0.016679446225408782
0.2892999999999999,-0.01670774045140608
0.2882999999999999,-0.016750181790402035
0.2872999999999999,-0.016820917355395284
0.2862999999999999,-0.01687750580738989
0.2852999999999999,-0.01693409425938449
0.2842999999999999,-0.016948241372383138
0.2832999999999999,-0.01697653559838044
0.2822999999999999,-0.01703312405037504
0.2812999999999999,-0.017089712502369642
0.2802999999999999,-0.017103859615368294
0.2792999999999999,-0.017118006728366945
0.2782999999999999,-0.017103859615368294
0.2772999999999999,-0.017132153841365592
0.2762999999999999,-0.017217036519357496
0.2752999999999999,-0.017202889406358845
0.2742999999999999,-0.017217036519357496
0.2732999999999999,-0.017231183632356147
0.2722999999999999,-0.01728777208435075
0.2712999999999999,-0.01734436053634535
0.2702999999999999,-0.0173302134233467
0.2692999999999999,-0.01728777208435075
0.26829999999999987,-0.01728777208435075
0.26729999999999987,-0.017273624971352097
0.26629999999999987,-0.0173302134233467
0.26529999999999987,-0.0173302134233467
0.26429999999999987,-0.0173019191973494
0.26329999999999987,-0.01728777208435075
0.26229999999999987,-0.01728777208435075
0.26129999999999987,-0.01734436053634535
0.26029999999999986,-0.0173302134233467
0.25929999999999986,-0.01728777208435075
0.25829999999999986,-0.017273624971352097
0.25729999999999986,-0.01728777208435075
0.25629999999999986,-0.0173019191973494
0.25529999999999986,-0.01731606631034805
0.25429999999999986,-0.017259477858353446
0.25329999999999986,-0.017259477858353446
0.25229999999999986,-0.017273624971352097
0.25129999999999986,-0.01728777208435075
0.25029999999999986,-0.01728777208435075
0.24929999999999986,-0.017231183632356147
0.24829999999999985,-0.017217036519357496
0.24729999999999985,-0.017217036519357496
0.24629999999999985,-0.0172453307453548
0.24529999999999985,-0.017273624971352097
0.24429999999999985,-0.0172453307453548
0.24329999999999985,-0.017188742293360197
0.24229999999999985,-0.017217036519357496
0.24129999999999985,-0.017259477858353446
0.24029999999999985,-0.017259477858353446
0.23929999999999985,-0.017259477858353446
0.23829999999999985,-0.0172453307453548
0.23729999999999984,-0.017231183632356147
0.23629999999999984,-0.017273624971352097
0.23529999999999984,-0.017231183632356147
0.23429999999999984,-0.017202889406358845
0.23329999999999984,-0.017188742293360197
0.23229999999999984,-0.017217036519357496
0.23129999999999984,-0.0172453307453548
0.23029999999999984,-0.0172453307453548
0.22929999999999984,-0.017217036519357496
0.22829999999999984,-0.017217036519357496
0.22729999999999984,-0.017202889406358845
0.22629999999999983,-0.0172453307453548
0.22529999999999983,-0.017231183632356147
0.22429999999999983,-0.017188742293360197
0.22329999999999983,-0.017202889406358845
0.22229999999999983,-0.017217036519357496
0.22129999999999983,-0.017259477858353446
0.22029999999999983,-0.017259477858353446
0.21929999999999983,-0.0172453307453548
0.21829999999999983,-0.017217036519357496
0.21729999999999983,-0.017231183632356147
0.21629999999999983,-0.017259477858353446
0.21529999999999982,-0.01728777208435075
0.21429999999999982,-0.017273624971352097
0.21329999999999982,-0.01728777208435075
0.21229999999999982,-0.0173302134233467
0.21129999999999982,-0.017358507649344
0.21029999999999982,-0.017358507649344
0.20929999999999982,-0.01731606631034805
0.20829999999999982,-0.0173019191973494
0.20729999999999982,-0.01731606631034805
0.20629999999999982,-0.017372654762342652
0.20529999999999982,-0.017372654762342652
0.20429999999999982,-0.0174150961013386
0.20329999999999981,-0.017443390327335904
0.2022999999999998,-0.0175282730053278
0.2012999999999998,-0.017599008570321057
0.20029999999999992,-0.017599008570321057
0.19929999999999992,-0.017570714344323755
0.19829999999999992,-0.0175282730053278
0.19729999999999992,-0.017542420118326456
0.19629999999999992,-0.017570714344323755
0.19529999999999992,-0.017556567231325104
0.19429999999999992,-0.017613155683319705
0.19329999999999992,-0.017641449909317007
0.19229999999999992,-0.01765559702231566
0.19129999999999991,-0.01768389124831296
0.1902999999999999,-0.01766974413531431
0.1892999999999999,-0.017641449909317007
0.1882999999999999,-0.017627302796318356
0.1872999999999999,-0.017641449909317007
0.1862999999999999,-0.01766974413531431
0.1852999999999999,-0.01768389124831296
0.1842999999999999,-0.01768389124831296
0.1832999999999999,-0.01768389124831296
0.1822999999999999,-0.01772633258730891
0.1812999999999999,-0.01776877392630486
0.1802999999999999,-0.01776877392630486
0.1792999999999999,-0.017754626813306213
0.1782999999999999,-0.017754626813306213
0.1772999999999999,-0.01776877392630486
0.1762999999999999,-0.017825362378299462
0.1752999999999999,-0.017839509491298113
0.1742999999999999,-0.01785365660429676
0.1732999999999999,-0.01785365660429676
0.1722999999999999,-0.017881950830294063
0.1712999999999999,-0.017910245056291362
0.1702999999999999,-0.017924392169290013
0.1692999999999999,-0.017910245056291362
0.1682999999999999,-0.017924392169290013
0.1672999999999999,-0.017995127734283266
0.1662999999999999,-0.01803756907327922
0.1652999999999999,-0.018065863299276518
0.1642999999999999,-0.018065863299276518
0.1632999999999999,-0.018065863299276518
0.1622999999999999,-0.01812245175127112
0.1612999999999999,-0.01817904020326572
0.1602999999999999,-0.01817904020326572
0.1592999999999999,-0.018150745977268422
0.15829999999999989,-0.01816489309026707
0.15729999999999988,-0.01820733442926302
0.15629999999999988,-0.018306364220253574
0.15529999999999988,-0.018320511333252226
0.15429999999999988,-0.018362952672248176
0.15329999999999988,-0.018405394011244126
0.15229999999999988,-0.01847612957623738
0.15129999999999988,-0.01856101225422928
0.15029999999999988,-0.018575159367227933
0.14929999999999988,-0.018546865141230634
0.14829999999999988,-0.01853271802823198
0.14729999999999988,-0.01853271802823198
0.14629999999999987,-0.018603453593225232
0.14529999999999987,-0.018617600706223883
0.14429999999999987,-0.018603453593225232
0.14329999999999987,-0.018645894932221182
0.14229999999999987,-0.018716630497214438
0.14129999999999987,-0.018759071836210388
0.14029999999999987,-0.018773218949209036
0.13929999999999987,-0.018773218949209036
0.13829999999999987,-0.018759071836210388
0.13729999999999987,-0.018787366062207687
0.13629999999999987,-0.01885810162720094
0.13529999999999986,-0.01887224874019959
0.13429999999999986,-0.01887224874019959
0.13329999999999986,-0.018900542966196893
0.13229999999999986,-0.018942984305192843
0.13129999999999986,-0.019027866983184743
0.13029999999999986,-0.019027866983184743
0.12929999999999986,-0.019027866983184743
0.12829999999999986,-0.019027866983184743
0.12729999999999986,-0.019084455435179344
0.12629999999999986,-0.019169338113171244
0.12529999999999986,-0.019197632339168547
0.12429999999999986,-0.01922592656516585
0.12329999999999985,-0.019240073678164497
0.12229999999999985,-0.019310809243157753
0.12129999999999985,-0.019353250582153703
0.12029999999999985,-0.01933910346915505
0.11929999999999985,-0.019353250582153703
0.11829999999999985,-0.019353250582153703
0.11729999999999985,-0.019423986147146955
0.11629999999999985,-0.01950886882513886
0.11529999999999985,-0.01950886882513886
0.11429999999999985,-0.019523015938137503
0.11329999999999985,-0.019551310164134805
0.11229999999999984,-0.019579604390132108
0.11129999999999984,-0.01965033995512536
0.11029999999999984,-0.01965033995512536
0.10929999999999984,-0.01965033995512536
0.10829999999999984,-0.01967863418112266
0.10729999999999984,-0.019721075520118612
0.10629999999999984,-0.019791811085111865
0.10529999999999984,-0.019820105311109164
0.10429999999999984,-0.019820105311109164
0.10329999999999984,-0.019848399537106463
0.10229999999999984,-0.019876693763103765
0.10129999999999983,-0.019933282215098366
0.10029999999999983,-0.019961576441095665
0.09929999999999983,-0.01997572355409432
0.09829999999999983,-0.02004645911908757
0.09729999999999983,-0.020103047571082173
0.09629999999999983,-0.02015963602307677
0.09529999999999983,-0.020173783136075422
0.09429999999999983,-0.02015963602307677
0.09329999999999983,-0.020173783136075422
0.09229999999999983,-0.02020207736207272
0.09129999999999983,-0.020272812927065977
0.09029999999999982,-0.020286960040064625
0.08929999999999982,-0.020286960040064625
0.08829999999999982,-0.020315254266061927
0.08729999999999982,-0.02041428405705248
0.08629999999999982,-0.020470872509047083
0.08529999999999982,-0.02048501962204573
0.08429999999999982,-0.02048501962204573
0.08329999999999982,-0.020470872509047083
0.08229999999999982,-0.020513313848043033
0.08129999999999982,-0.020598196526034934
0.08029999999999982,-0.020612343639033585
0.07929999999999982,-0.020640637865030884
0.07829999999999981,-0.020668932091028186
0.07729999999999981,-0.020725520543022787
0.07629999999999981,-0.020810403221014687
0.07529999999999992,-0.020810403221014687
0.07429999999999992,-0.020810403221014687
0.07329999999999992,-0.020838697447011986
0.07229999999999992,-0.020909433012005242
0.07129999999999992,-0.020980168576998495
0.07029999999999992,-0.021008462802995797
0.06929999999999992,-0.021008462802995797
0.06829999999999992,-0.021036757028993096
0.06729999999999992,-0.021107492593986348
0.06629999999999991,-0.0212065223849769
0.06529999999999991,-0.0212631108369715
0.06429999999999991,-0.021333846401964753
0.06329999999999991,-0.021418729079956657
0.06229999999999991,-0.02150361175794856
0.06129999999999991,-0.02158849443594046
0.06029999999999991,-0.02161678866193776
0.05929999999999991,-0.021602641548939108
0.05829999999999991,-0.02157434732294181
0.05729999999999991,-0.02161678866193776
0.056299999999999906,-0.021687524226931015
0.055299999999999905,-0.021715818452928314
0.054299999999999904,-0.021715818452928314
0.0532999999999999,-0.021800701130920214
0.0522999999999999,-0.02185728958291482
0.0512999999999999,-0.02194217226090672
0.0502999999999999,-0.021956319373905367
0.0492999999999999,-0.021956319373905367
0.0482999999999999,-0.021956319373905367
0.0472999999999999,-0.022027054938898623
0.0462999999999999,-0.022097790503891875
0.045299999999999896,-0.022140231842887825
0.044299999999999895,-0.022196820294882423
0.043299999999999894,-0.022225114520879725
0.04229999999999989,-0.02230999719887163
0.04129999999999989,-0.02238073276386488
0.04029999999999989,-0.02242317410286083
0.03929999999999989,-0.022437321215859483
0.03829999999999989,-0.02245146832885813
0.03729999999999989,-0.022522203893851383
0.03629999999999989,-0.022592939458844635
0.03529999999999989,-0.022635380797840585
0.034299999999999886,-0.02264952791083924
0.033299999999999885,-0.022691969249835187
0.032299999999999884,-0.02279099904082574
0.031299999999999883,-0.02287588171881764
0.030299999999999883,-0.022890028831816296
0.02929999999999988,-0.022904175944814944
0.02829999999999988,-0.022932470170812246
0.02729999999999988,-0.0230032057358055
0.02629999999999988,-0.02310223552679605
0.025299999999999878,-0.023144676865792004
0.024299999999999877,-0.0232012653177866
0.023299999999999876,-0.023300295108777156
0.022299999999999875,-0.023427619125765006
0.021299999999999875,-0.02356909025575151
0.020299999999999874,-0.023583237368750162
0.019299999999999873,-0.02359738448174881
0.018299999999999872,-0.02359738448174881
0.01729999999999987,-0.023625678707746112
0.01629999999999987,-0.023710561385738016
0.01529999999999987,-0.023767149837732617
0.014299999999999868,-0.023809591176728567
0.013299999999999867,-0.02388032674172182
0.012299999999999978,-0.02397935653271237
0.011299999999999866,-0.024078386323702922
0.010299999999999976,-0.024092533436701577
0.009299999999999864,-0.024106680549700225
0.008299999999999974,-0.024163269001694826
0.007299999999999862,-0.02423400456668808
0.006299999999999972,-0.024318887244679982
0.00529999999999986,-0.02438962280967323
0.0042999999999999705,-0.024417917035670533
0.0032999999999998586,-0.024460358374666487
0.0022999999999999687,-0.024545241052658383
0.0012999999999998568,-0.024630123730650287
0.00029999999999996696,-0.02465841795664759
-0.000700000000000145,-0.02467256506964624
-0.0017000000000000348,-0.02471500640864219
-0.0027000000000001467,-0.02479988908663409
-0.0037000000000000366,-0.024913065990623297
-0.0047000000000001485,-0.024955507329619247
-0.005700000000000038,-0.024983801555616546
-0.00670000000000015,-0.0250262428946125
-0.00770000000000004,-0.02509697845960575
-0.008700000000000152,-0.025181861137597652
-0.009700000000000042,-0.025224302476593602
-0.010700000000000154,-0.025323332267584157
-0.011700000000000044,-0.02540821494557606
-0.012700000000000156,-0.02547895051056931
-0.013700000000000045,-0.025563833188561213
-0.014700000000000157,-0.025606274527557166
-0.015700000000000047,-0.025592127414558512
-0.01670000000000016,-0.025634568753554465
-0.01770000000000005,-0.025705304318547718
-0.01870000000000016,-0.02580433410953827
-0.01970000000000005,-0.025860922561532867
-0.020700000000000163,-0.02590336390052882
-0.021700000000000053,-0.02594580523952477
-0.022700000000000164,-0.026044835030515325
-0.023700000000000054,-0.02612971770850723
-0.024700000000000166,-0.026172159047503182
-0.025700000000000056,-0.02620045327350048
-0.026700000000000168,-0.026257041725495082
-0.027700000000000058,-0.02632777729048833
-0.02870000000000017,-0.026398512855481584
-0.02970000000000006,-0.02645510130747619
-0.03070000000000017,-0.026483395533473487
-0.03170000000000006,-0.02652583687246944
-0.03270000000000017,-0.02662486666345999
-0.03370000000000006,-0.026723896454450544
-0.034700000000000175,-0.02682292624544109
-0.035700000000000065,-0.026893661810434347
-0.03670000000000018,-0.026936103149430297
-0.03770000000000007,-0.027006838714423546
-0.03870000000000018,-0.02709172139241545
-0.03970000000000007,-0.027134162731411407
-0.04070000000000018,-0.027176604070407354
-0.04170000000000007,-0.02723319252240196
-0.04270000000000018,-0.027332222313392506
-0.04370000000000007,-0.02743125210438306
-0.044700000000000184,-0.027459546330380363
-0.045700000000000074,-0.027487840556377662
-0.046700000000000186,-0.027530281895373616
-0.047700000000000076,-0.027586870347368214
-0.04870000000000019,-0.02770004725135742
-0.04970000000000008,-0.02772834147735472
-0.05070000000000019,-0.027784929929349323
-0.05170000000000008,-0.027813224155346622
-0.05270000000000019,-0.027898106833338522
-0.05370000000000008,-0.027997136624329073
-0.05470000000000019,-0.02806787218932233
-0.05570000000000008,-0.02811031352831828
-0.056700000000000195,-0.02813860775431558
-0.057700000000000085,-0.02820934331930883
-0.058700000000000196,-0.028322520223298033
-0.059700000000000086,-0.028379108675292634
-0.0607000000000002,-0.028407402901289937
-0.06170000000000009,-0.02847813846628319
-0.0627000000000002,-0.028577168257273744
-0.06370000000000009,-0.028647903822266993
-0.0647000000000002,-0.028718639387260245
