Dec. 27, 2024   13:43:16
Linear Sweep Voltammetry
File: c:/users/guazh/data/banditlqround7_x0exp136_r20/2024-12-24-exp758\pre-regen-2024-12-27t13_40_12-lsvinphos\pre-regen_lsv_50mvs_efin_-1900mv.bin
Data Source:  Experiment
Instrument Model:  CHI760E
Header: LSV ran at 50 mVs with Efin at -1900mV
Note: 

Init E (V) = -0.6
Final E (V) = -1.9
Scan Rate (V/s) = 0.05
Sample Interval (V) = 0.001
Quiet Time (sec) = 2
Sensitivity (A/V) = 1e-4
Comp R (ohm) = 9.1

Results:

Channel 1:
Ep = -1.352V
ip = 3.609e-4A
Ah = 2.755e-4C

Potential/V, Current/A

-0.600, -1.203e-6
-0.601, 3.807e-7
-0.602, 1.312e-6
-0.603, 1.935e-6
-0.604, 2.471e-6
-0.605, 2.948e-6
-0.606, 3.371e-6
-0.607, 3.732e-6
-0.608, 4.084e-6
-0.609, 4.446e-6
-0.610, 4.783e-6
-0.611, 5.101e-6
-0.612, 5.382e-6
-0.613, 5.668e-6
-0.614, 5.974e-6
-0.615, 6.277e-6
-0.616, 6.544e-6
-0.617, 6.784e-6
-0.618, 7.029e-6
-0.619, 7.313e-6
-0.620, 7.582e-6
-0.621, 7.829e-6
-0.622, 8.066e-6
-0.623, 8.295e-6
-0.624, 8.558e-6
-0.625, 8.822e-6
-0.626, 9.054e-6
-0.627, 9.274e-6
-0.628, 9.501e-6
-0.629, 9.756e-6
-0.630, 1.002e-5
-0.631, 1.024e-5
-0.632, 1.046e-5
-0.633, 1.069e-5
-0.634, 1.093e-5
-0.635, 1.119e-5
-0.636, 1.143e-5
-0.637, 1.164e-5
-0.638, 1.187e-5
-0.639, 1.210e-5
-0.640, 1.236e-5
-0.641, 1.260e-5
-0.642, 1.281e-5
-0.643, 1.305e-5
-0.644, 1.329e-5
-0.645, 1.356e-5
-0.646, 1.381e-5
-0.647, 1.402e-5
-0.648, 1.425e-5
-0.649, 1.452e-5
-0.650, 1.478e-5
-0.651, 1.504e-5
-0.652, 1.526e-5
-0.653, 1.551e-5
-0.654, 1.578e-5
-0.655, 1.606e-5
-0.656, 1.632e-5
-0.657, 1.655e-5
-0.658, 1.680e-5
-0.659, 1.708e-5
-0.660, 1.737e-5
-0.661, 1.764e-5
-0.662, 1.789e-5
-0.663, 1.814e-5
-0.664, 1.843e-5
-0.665, 1.874e-5
-0.666, 1.904e-5
-0.667, 1.929e-5
-0.668, 1.955e-5
-0.669, 1.985e-5
-0.670, 2.016e-5
-0.671, 2.044e-5
-0.672, 2.071e-5
-0.673, 2.100e-5
-0.674, 2.130e-5
-0.675, 2.163e-5
-0.676, 2.192e-5
-0.677, 2.220e-5
-0.678, 2.251e-5
-0.679, 2.283e-5
-0.680, 2.316e-5
-0.681, 2.347e-5
-0.682, 2.377e-5
-0.683, 2.408e-5
-0.684, 2.442e-5
-0.685, 2.476e-5
-0.686, 2.510e-5
-0.687, 2.540e-5
-0.688, 2.572e-5
-0.689, 2.606e-5
-0.690, 2.642e-5
-0.691, 2.677e-5
-0.692, 2.709e-5
-0.693, 2.743e-5
-0.694, 2.779e-5
-0.695, 2.814e-5
-0.696, 2.850e-5
-0.697, 2.883e-5
-0.698, 2.917e-5
-0.699, 2.956e-5
-0.700, 2.994e-5
-0.701, 3.029e-5
-0.702, 3.065e-5
-0.703, 3.101e-5
-0.704, 3.140e-5
-0.705, 3.180e-5
-0.706, 3.217e-5
-0.707, 3.255e-5
-0.708, 3.292e-5
-0.709, 3.332e-5
-0.710, 3.373e-5
-0.711, 3.410e-5
-0.712, 3.449e-5
-0.713, 3.488e-5
-0.714, 3.529e-5
-0.715, 3.572e-5
-0.716, 3.612e-5
-0.717, 3.651e-5
-0.718, 3.692e-5
-0.719, 3.734e-5
-0.720, 3.777e-5
-0.721, 3.819e-5
-0.722, 3.858e-5
-0.723, 3.899e-5
-0.724, 3.943e-5
-0.725, 3.988e-5
-0.726, 4.032e-5
-0.727, 4.072e-5
-0.728, 4.115e-5
-0.729, 4.160e-5
-0.730, 4.206e-5
-0.731, 4.251e-5
-0.732, 4.292e-5
-0.733, 4.336e-5
-0.734, 4.382e-5
-0.735, 4.428e-5
-0.736, 4.473e-5
-0.737, 4.517e-5
-0.738, 4.561e-5
-0.739, 4.609e-5
-0.740, 4.657e-5
-0.741, 4.704e-5
-0.742, 4.750e-5
-0.743, 4.796e-5
-0.744, 4.844e-5
-0.745, 4.893e-5
-0.746, 4.940e-5
-0.747, 4.987e-5
-0.748, 5.033e-5
-0.749, 5.083e-5
-0.750, 5.135e-5
-0.751, 5.181e-5
-0.752, 5.229e-5
-0.753, 5.277e-5
-0.754, 5.327e-5
-0.755, 5.380e-5
-0.756, 5.429e-5
-0.757, 5.477e-5
-0.758, 5.527e-5
-0.759, 5.578e-5
-0.760, 5.632e-5
-0.761, 5.684e-5
-0.762, 5.732e-5
-0.763, 5.782e-5
-0.764, 5.834e-5
-0.765, 5.888e-5
-0.766, 5.940e-5
-0.767, 5.988e-5
-0.768, 6.042e-5
-0.769, 6.097e-5
-0.770, 6.152e-5
-0.771, 6.204e-5
-0.772, 6.254e-5
-0.773, 6.306e-5
-0.774, 6.361e-5
-0.775, 6.417e-5
-0.776, 6.471e-5
-0.777, 6.522e-5
-0.778, 6.573e-5
-0.779, 6.631e-5
-0.780, 6.687e-5
-0.781, 6.741e-5
-0.782, 6.794e-5
-0.783, 6.847e-5
-0.784, 6.905e-5
-0.785, 6.961e-5
-0.786, 7.016e-5
-0.787, 7.071e-5
-0.788, 7.124e-5
-0.789, 7.182e-5
-0.790, 7.242e-5
-0.791, 7.298e-5
-0.792, 7.353e-5
-0.793, 7.408e-5
-0.794, 7.467e-5
-0.795, 7.526e-5
-0.796, 7.583e-5
-0.797, 7.638e-5
-0.798, 7.694e-5
-0.799, 7.752e-5
-0.800, 7.813e-5
-0.801, 7.871e-5
-0.802, 7.928e-5
-0.803, 7.985e-5
-0.804, 8.043e-5
-0.805, 8.105e-5
-0.806, 8.165e-5
-0.807, 8.221e-5
-0.808, 8.279e-5
-0.809, 8.340e-5
-0.810, 8.402e-5
-0.811, 8.462e-5
-0.812, 8.519e-5
-0.813, 8.577e-5
-0.814, 8.638e-5
-0.815, 8.701e-5
-0.816, 8.762e-5
-0.817, 8.820e-5
-0.818, 8.880e-5
-0.819, 8.946e-5
-0.820, 9.019e-5
-0.821, 9.078e-5
-0.822, 9.135e-5
-0.823, 9.191e-5
-0.824, 9.254e-5
-0.825, 9.317e-5
-0.826, 9.378e-5
-0.827, 9.438e-5
-0.828, 9.499e-5
-0.829, 9.561e-5
-0.830, 9.626e-5
-0.831, 9.688e-5
-0.832, 9.748e-5
-0.833, 9.809e-5
-0.834, 9.873e-5
-0.835, 9.938e-5
-0.836, 1.000e-4
-0.837, 1.006e-4
-0.838, 1.012e-4
-0.839, 1.019e-4
-0.840, 1.025e-4
-0.841, 1.032e-4
-0.842, 1.038e-4
-0.843, 1.044e-4
-0.844, 1.050e-4
-0.845, 1.057e-4
-0.846, 1.064e-4
-0.847, 1.070e-4
-0.848, 1.076e-4
-0.849, 1.082e-4
-0.850, 1.089e-4
-0.851, 1.095e-4
-0.852, 1.101e-4
-0.853, 1.108e-4
-0.854, 1.114e-4
-0.855, 1.121e-4
-0.856, 1.128e-4
-0.857, 1.134e-4
-0.858, 1.140e-4
-0.859, 1.147e-4
-0.860, 1.153e-4
-0.861, 1.160e-4
-0.862, 1.166e-4
-0.863, 1.172e-4
-0.864, 1.179e-4
-0.865, 1.185e-4
-0.866, 1.192e-4
-0.867, 1.198e-4
-0.868, 1.204e-4
-0.869, 1.211e-4
-0.870, 1.218e-4
-0.871, 1.225e-4
-0.872, 1.231e-4
-0.873, 1.237e-4
-0.874, 1.243e-4
-0.875, 1.250e-4
-0.876, 1.256e-4
-0.877, 1.262e-4
-0.878, 1.269e-4
-0.879, 1.275e-4
-0.880, 1.282e-4
-0.881, 1.288e-4
-0.882, 1.294e-4
-0.883, 1.300e-4
-0.884, 1.306e-4
-0.885, 1.313e-4
-0.886, 1.319e-4
-0.887, 1.325e-4
-0.888, 1.331e-4
-0.889, 1.337e-4
-0.890, 1.344e-4
-0.891, 1.350e-4
-0.892, 1.356e-4
-0.893, 1.362e-4
-0.894, 1.368e-4
-0.895, 1.374e-4
-0.896, 1.380e-4
-0.897, 1.386e-4
-0.898, 1.391e-4
-0.899, 1.398e-4
-0.900, 1.404e-4
-0.901, 1.409e-4
-0.902, 1.415e-4
-0.903, 1.420e-4
-0.904, 1.426e-4
-0.905, 1.432e-4
-0.906, 1.438e-4
-0.907, 1.443e-4
-0.908, 1.448e-4
-0.909, 1.454e-4
-0.910, 1.459e-4
-0.911, 1.465e-4
-0.912, 1.470e-4
-0.913, 1.475e-4
-0.914, 1.480e-4
-0.915, 1.486e-4
-0.916, 1.491e-4
-0.917, 1.496e-4
-0.918, 1.500e-4
-0.919, 1.506e-4
-0.920, 1.511e-4
-0.921, 1.516e-4
-0.922, 1.520e-4
-0.923, 1.525e-4
-0.924, 1.529e-4
-0.925, 1.535e-4
-0.926, 1.539e-4
-0.927, 1.543e-4
-0.928, 1.548e-4
-0.929, 1.552e-4
-0.930, 1.557e-4
-0.931, 1.561e-4
-0.932, 1.565e-4
-0.933, 1.569e-4
-0.934, 1.574e-4
-0.935, 1.578e-4
-0.936, 1.583e-4
-0.937, 1.587e-4
-0.938, 1.590e-4
-0.939, 1.595e-4
-0.940, 1.599e-4
-0.941, 1.603e-4
-0.942, 1.606e-4
-0.943, 1.610e-4
-0.944, 1.614e-4
-0.945, 1.618e-4
-0.946, 1.622e-4
-0.947, 1.626e-4
-0.948, 1.629e-4
-0.949, 1.633e-4
-0.950, 1.637e-4
-0.951, 1.641e-4
-0.952, 1.644e-4
-0.953, 1.647e-4
-0.954, 1.651e-4
-0.955, 1.655e-4
-0.956, 1.659e-4
-0.957, 1.662e-4
-0.958, 1.666e-4
-0.959, 1.669e-4
-0.960, 1.673e-4
-0.961, 1.677e-4
-0.962, 1.680e-4
-0.963, 1.684e-4
-0.964, 1.687e-4
-0.965, 1.691e-4
-0.966, 1.695e-4
-0.967, 1.698e-4
-0.968, 1.701e-4
-0.969, 1.705e-4
-0.970, 1.709e-4
-0.971, 1.713e-4
-0.972, 1.716e-4
-0.973, 1.720e-4
-0.974, 1.724e-4
-0.975, 1.728e-4
-0.976, 1.731e-4
-0.977, 1.734e-4
-0.978, 1.738e-4
-0.979, 1.742e-4
-0.980, 1.745e-4
-0.981, 1.749e-4
-0.982, 1.753e-4
-0.983, 1.756e-4
-0.984, 1.760e-4
-0.985, 1.764e-4
-0.986, 1.768e-4
-0.987, 1.772e-4
-0.988, 1.775e-4
-0.989, 1.779e-4
-0.990, 1.784e-4
-0.991, 1.787e-4
-0.992, 1.791e-4
-0.993, 1.795e-4
-0.994, 1.799e-4
-0.995, 1.804e-4
-0.996, 1.808e-4
-0.997, 1.812e-4
-0.998, 1.816e-4
-0.999, 1.820e-4
-1.000, 1.825e-4
-1.001, 1.829e-4
-1.002, 1.833e-4
-1.003, 1.838e-4
-1.004, 1.842e-4
-1.005, 1.847e-4
-1.006, 1.852e-4
-1.007, 1.856e-4
-1.008, 1.861e-4
-1.009, 1.866e-4
-1.010, 1.871e-4
-1.011, 1.876e-4
-1.012, 1.880e-4
-1.013, 1.885e-4
-1.014, 1.891e-4
-1.015, 1.896e-4
-1.016, 1.901e-4
-1.017, 1.906e-4
-1.018, 1.911e-4
-1.019, 1.917e-4
-1.020, 1.923e-4
-1.021, 1.928e-4
-1.022, 1.934e-4
-1.023, 1.939e-4
-1.024, 1.945e-4
-1.025, 1.952e-4
-1.026, 1.958e-4
-1.027, 1.963e-4
-1.028, 1.969e-4
-1.029, 1.975e-4
-1.030, 1.982e-4
-1.031, 1.988e-4
-1.032, 1.994e-4
-1.033, 2.000e-4
-1.034, 2.007e-4
-1.035, 2.014e-4
-1.036, 2.020e-4
-1.037, 2.027e-4
-1.038, 2.034e-4
-1.039, 2.041e-4
-1.040, 2.048e-4
-1.041, 2.056e-4
-1.042, 2.062e-4
-1.043, 2.070e-4
-1.044, 2.077e-4
-1.045, 2.085e-4
-1.046, 2.093e-4
-1.047, 2.100e-4
-1.048, 2.108e-4
-1.049, 2.116e-4
-1.050, 2.125e-4
-1.051, 2.133e-4
-1.052, 2.141e-4
-1.053, 2.149e-4
-1.054, 2.158e-4
-1.055, 2.166e-4
-1.056, 2.175e-4
-1.057, 2.184e-4
-1.058, 2.192e-4
-1.059, 2.202e-4
-1.060, 2.211e-4
-1.061, 2.220e-4
-1.062, 2.230e-4
-1.063, 2.239e-4
-1.064, 2.249e-4
-1.065, 2.259e-4
-1.066, 2.269e-4
-1.067, 2.278e-4
-1.068, 2.288e-4
-1.069, 2.299e-4
-1.070, 2.309e-4
-1.071, 2.320e-4
-1.072, 2.330e-4
-1.073, 2.340e-4
-1.074, 2.351e-4
-1.075, 2.363e-4
-1.076, 2.375e-4
-1.077, 2.385e-4
-1.078, 2.396e-4
-1.079, 2.408e-4
-1.080, 2.420e-4
-1.081, 2.431e-4
-1.082, 2.442e-4
-1.083, 2.454e-4
-1.084, 2.466e-4
-1.085, 2.479e-4
-1.086, 2.491e-4
-1.087, 2.502e-4
-1.088, 2.515e-4
-1.089, 2.527e-4
-1.090, 2.540e-4
-1.091, 2.553e-4
-1.092, 2.565e-4
-1.093, 2.578e-4
-1.094, 2.591e-4
-1.095, 2.604e-4
-1.096, 2.618e-4
-1.097, 2.630e-4
-1.098, 2.643e-4
-1.099, 2.657e-4
-1.100, 2.671e-4
-1.101, 2.685e-4
-1.102, 2.698e-4
-1.103, 2.712e-4
-1.104, 2.726e-4
-1.105, 2.740e-4
-1.106, 2.754e-4
-1.107, 2.768e-4
-1.108, 2.782e-4
-1.109, 2.797e-4
-1.110, 2.811e-4
-1.111, 2.826e-4
-1.112, 2.840e-4
-1.113, 2.854e-4
-1.114, 2.869e-4
-1.115, 2.884e-4
-1.116, 2.899e-4
-1.117, 2.914e-4
-1.118, 2.929e-4
-1.119, 2.944e-4
-1.120, 2.960e-4
-1.121, 2.975e-4
-1.122, 2.990e-4
-1.123, 3.005e-4
-1.124, 3.021e-4
-1.125, 3.036e-4
-1.126, 3.052e-4
-1.127, 3.068e-4
-1.128, 3.083e-4
-1.129, 3.099e-4
-1.130, 3.115e-4
-1.131, 3.131e-4
-1.132, 3.147e-4
-1.133, 3.163e-4
-1.134, 3.179e-4
-1.135, 3.196e-4
-1.136, 3.212e-4
-1.137, 3.228e-4
-1.138, 3.244e-4
-1.139, 3.261e-4
-1.140, 3.277e-4
-1.141, 3.294e-4
-1.142, 3.310e-4
-1.143, 3.326e-4
-1.144, 3.343e-4
-1.145, 3.360e-4
-1.146, 3.377e-4
-1.147, 3.393e-4
-1.148, 3.410e-4
-1.149, 3.427e-4
-1.150, 3.444e-4
-1.151, 3.461e-4
-1.152, 3.478e-4
-1.153, 3.494e-4
-1.154, 3.512e-4
-1.155, 3.529e-4
-1.156, 3.546e-4
-1.157, 3.563e-4
-1.158, 3.580e-4
-1.159, 3.597e-4
-1.160, 3.615e-4
-1.161, 3.632e-4
-1.162, 3.649e-4
-1.163, 3.666e-4
-1.164, 3.683e-4
-1.165, 3.701e-4
-1.166, 3.718e-4
-1.167, 3.735e-4
-1.168, 3.752e-4
-1.169, 3.770e-4
-1.170, 3.787e-4
-1.171, 3.805e-4
-1.172, 3.822e-4
-1.173, 3.839e-4
-1.174, 3.857e-4
-1.175, 3.874e-4
-1.176, 3.892e-4
-1.177, 3.909e-4
-1.178, 3.927e-4
-1.179, 3.945e-4
-1.180, 3.963e-4
-1.181, 3.980e-4
-1.182, 3.997e-4
-1.183, 4.015e-4
-1.184, 4.033e-4
-1.185, 4.051e-4
-1.186, 4.069e-4
-1.187, 4.086e-4
-1.188, 4.104e-4
-1.189, 4.122e-4
-1.190, 4.140e-4
-1.191, 4.158e-4
-1.192, 4.176e-4
-1.193, 4.194e-4
-1.194, 4.213e-4
-1.195, 4.231e-4
-1.196, 4.249e-4
-1.197, 4.267e-4
-1.198, 4.286e-4
-1.199, 4.304e-4
-1.200, 4.323e-4
-1.201, 4.342e-4
-1.202, 4.360e-4
-1.203, 4.379e-4
-1.204, 4.398e-4
-1.205, 4.417e-4
-1.206, 4.436e-4
-1.207, 4.454e-4
-1.208, 4.473e-4
-1.209, 4.493e-4
-1.210, 4.512e-4
-1.211, 4.531e-4
-1.212, 4.550e-4
-1.213, 4.570e-4
-1.214, 4.590e-4
-1.215, 4.610e-4
-1.216, 4.629e-4
-1.217, 4.649e-4
-1.218, 4.669e-4
-1.219, 4.689e-4
-1.220, 4.709e-4
-1.221, 4.729e-4
-1.222, 4.749e-4
-1.223, 4.769e-4
-1.224, 4.789e-4
-1.225, 4.810e-4
-1.226, 4.831e-4
-1.227, 4.851e-4
-1.228, 4.871e-4
-1.229, 4.893e-4
-1.230, 4.915e-4
-1.231, 4.935e-4
-1.232, 4.956e-4
-1.233, 4.976e-4
-1.234, 4.997e-4
-1.235, 5.018e-4
-1.236, 5.039e-4
-1.237, 5.060e-4
-1.238, 5.081e-4
-1.239, 5.102e-4
-1.240, 5.124e-4
-1.241, 5.144e-4
-1.242, 5.165e-4
-1.243, 5.186e-4
-1.244, 5.207e-4
-1.245, 5.229e-4
-1.246, 5.249e-4
-1.247, 5.270e-4
-1.248, 5.291e-4
-1.249, 5.312e-4
-1.250, 5.334e-4
-1.251, 5.355e-4
-1.252, 5.376e-4
-1.253, 5.397e-4
-1.254, 5.418e-4
-1.255, 5.439e-4
-1.256, 5.461e-4
-1.257, 5.481e-4
-1.258, 5.502e-4
-1.259, 5.523e-4
-1.260, 5.544e-4
-1.261, 5.564e-4
-1.262, 5.585e-4
-1.263, 5.605e-4
-1.264, 5.626e-4
-1.265, 5.646e-4
-1.266, 5.667e-4
-1.267, 5.689e-4
-1.268, 5.708e-4
-1.269, 5.729e-4
-1.270, 5.749e-4
-1.271, 5.769e-4
-1.272, 5.789e-4
-1.273, 5.809e-4
-1.274, 5.830e-4
-1.275, 5.850e-4
-1.276, 5.869e-4
-1.277, 5.889e-4
-1.278, 5.910e-4
-1.279, 5.930e-4
-1.280, 5.951e-4
-1.281, 5.972e-4
-1.282, 5.991e-4
-1.283, 6.012e-4
-1.284, 6.033e-4
-1.285, 6.054e-4
-1.286, 6.075e-4
-1.287, 6.096e-4
-1.288, 6.117e-4
-1.289, 6.139e-4
-1.290, 6.162e-4
-1.291, 6.184e-4
-1.292, 6.206e-4
-1.293, 6.229e-4
-1.294, 6.253e-4
-1.295, 6.277e-4
-1.296, 6.302e-4
-1.297, 6.327e-4
-1.298, 6.353e-4
-1.299, 6.380e-4
-1.300, 6.408e-4
-1.301, 6.436e-4
-1.302, 6.465e-4
-1.303, 6.496e-4
-1.304, 6.528e-4
-1.305, 6.561e-4
-1.306, 6.595e-4
-1.307, 6.630e-4
-1.308, 6.667e-4
-1.309, 6.706e-4
-1.310, 6.746e-4
-1.311, 6.788e-4
-1.312, 6.831e-4
-1.313, 6.877e-4
-1.314, 6.925e-4
-1.315, 6.975e-4
-1.316, 7.026e-4
-1.317, 7.079e-4
-1.318, 7.135e-4
-1.319, 7.193e-4
-1.320, 7.254e-4
-1.321, 7.317e-4
-1.322, 7.381e-4
-1.323, 7.448e-4
-1.324, 7.518e-4
-1.325, 7.589e-4
-1.326, 7.662e-4
-1.327, 7.737e-4
-1.328, 7.815e-4
-1.329, 7.895e-4
-1.330, 7.977e-4
-1.331, 8.060e-4
-1.332, 8.145e-4
-1.333, 8.232e-4
-1.334, 8.321e-4
-1.335, 8.412e-4
-1.336, 8.504e-4
-1.337, 8.596e-4
-1.338, 8.691e-4
-1.339, 8.789e-4
-1.340, 8.887e-4
-1.341, 8.987e-4
-1.342, 9.087e-4
-1.343, 9.190e-4
-1.344, 9.295e-4
-1.345, 9.401e-4
-1.346, 9.508e-4
-1.347, 9.617e-4
-1.348, 9.728e-4
-1.349, 9.841e-4
-1.350, 9.956e-4
-1.351, 1.007e-3
-1.352, 1.011e-3
-1.353, 1.011e-3
-1.354, 1.011e-3
-1.355, 1.011e-3
-1.356, 1.011e-3
-1.357, 1.011e-3
-1.358, 1.011e-3
-1.359, 1.011e-3
-1.360, 1.011e-3
-1.361, 1.011e-3
-1.362, 1.011e-3
-1.363, 1.011e-3
-1.364, 1.011e-3
-1.365, 1.011e-3
-1.366, 1.011e-3
-1.367, 1.011e-3
-1.368, 1.011e-3
-1.369, 1.011e-3
-1.370, 1.011e-3
-1.371, 1.011e-3
-1.372, 1.011e-3
-1.373, 1.011e-3
-1.374, 1.011e-3
-1.375, 1.011e-3
-1.376, 1.011e-3
-1.377, 1.011e-3
-1.378, 1.011e-3
-1.379, 1.011e-3
-1.380, 1.011e-3
-1.381, 1.011e-3
-1.382, 1.011e-3
-1.383, 1.011e-3
-1.384, 1.011e-3
-1.385, 1.011e-3
-1.386, 1.011e-3
-1.387, 1.011e-3
-1.388, 1.011e-3
-1.389, 1.011e-3
-1.390, 1.011e-3
-1.391, 1.011e-3
-1.392, 1.011e-3
-1.393, 1.011e-3
-1.394, 1.011e-3
-1.395, 1.011e-3
-1.396, 1.011e-3
-1.397, 1.011e-3
-1.398, 1.011e-3
-1.399, 1.011e-3
-1.400, 1.011e-3
-1.401, 1.011e-3
-1.402, 1.011e-3
-1.403, 1.011e-3
-1.404, 1.011e-3
-1.405, 1.011e-3
-1.406, 1.011e-3
-1.407, 1.011e-3
-1.408, 1.011e-3
-1.409, 1.011e-3
-1.410, 1.011e-3
-1.411, 1.011e-3
-1.412, 1.011e-3
-1.413, 1.011e-3
-1.414, 1.011e-3
-1.415, 1.011e-3
-1.416, 1.011e-3
-1.417, 1.011e-3
-1.418, 1.011e-3
-1.419, 1.011e-3
-1.420, 1.011e-3
-1.421, 1.011e-3
-1.422, 1.011e-3
-1.423, 1.011e-3
-1.424, 1.011e-3
-1.425, 1.011e-3
-1.426, 1.011e-3
-1.427, 1.011e-3
-1.428, 1.011e-3
-1.429, 1.011e-3
-1.430, 1.011e-3
-1.431, 1.011e-3
-1.432, 1.011e-3
-1.433, 1.011e-3
-1.434, 1.011e-3
-1.435, 1.011e-3
-1.436, 1.011e-3
-1.437, 1.011e-3
-1.438, 1.011e-3
-1.439, 1.011e-3
-1.440, 1.011e-3
-1.441, 1.011e-3
-1.442, 1.011e-3
-1.443, 1.011e-3
-1.444, 1.011e-3
-1.445, 1.011e-3
-1.446, 1.011e-3
-1.447, 1.011e-3
-1.448, 1.011e-3
-1.449, 1.011e-3
-1.450, 1.011e-3
-1.451, 1.011e-3
-1.452, 1.011e-3
-1.453, 1.011e-3
-1.454, 1.011e-3
-1.455, 1.011e-3
-1.456, 1.011e-3
-1.457, 1.011e-3
-1.458, 1.011e-3
-1.459, 1.011e-3
-1.460, 1.011e-3
-1.461, 1.011e-3
-1.462, 1.011e-3
-1.463, 1.011e-3
-1.464, 1.011e-3
-1.465, 1.011e-3
-1.466, 1.011e-3
-1.467, 1.011e-3
-1.468, 1.011e-3
-1.469, 1.011e-3
-1.470, 1.011e-3
-1.471, 1.011e-3
-1.472, 1.011e-3
-1.473, 1.011e-3
-1.474, 1.011e-3
-1.475, 1.011e-3
-1.476, 1.011e-3
-1.477, 1.011e-3
-1.478, 1.011e-3
-1.479, 1.011e-3
-1.480, 1.011e-3
-1.481, 1.011e-3
-1.482, 1.011e-3
-1.483, 1.011e-3
-1.484, 1.011e-3
-1.485, 1.011e-3
-1.486, 1.011e-3
-1.487, 1.011e-3
-1.488, 1.011e-3
-1.489, 1.011e-3
-1.490, 1.011e-3
-1.491, 1.011e-3
-1.492, 1.011e-3
-1.493, 1.011e-3
-1.494, 1.011e-3
-1.495, 1.011e-3
-1.496, 1.011e-3
-1.497, 1.011e-3
-1.498, 1.011e-3
-1.499, 1.011e-3
-1.500, 1.011e-3
-1.501, 1.011e-3
-1.502, 1.011e-3
-1.503, 1.011e-3
-1.504, 1.011e-3
-1.505, 1.011e-3
-1.506, 1.011e-3
-1.507, 1.011e-3
-1.508, 1.011e-3
-1.509, 1.011e-3
-1.510, 1.011e-3
-1.511, 1.011e-3
-1.512, 1.011e-3
-1.513, 1.011e-3
-1.514, 1.011e-3
-1.515, 1.011e-3
-1.516, 1.011e-3
-1.517, 1.011e-3
-1.518, 1.011e-3
-1.519, 1.011e-3
-1.520, 1.011e-3
-1.521, 1.011e-3
-1.522, 1.011e-3
-1.523, 1.011e-3
-1.524, 1.011e-3
-1.525, 1.011e-3
-1.526, 1.011e-3
-1.527, 1.011e-3
-1.528, 1.011e-3
-1.529, 1.011e-3
-1.530, 1.011e-3
-1.531, 1.011e-3
-1.532, 1.011e-3
-1.533, 1.011e-3
-1.534, 1.011e-3
-1.535, 1.011e-3
-1.536, 1.011e-3
-1.537, 1.011e-3
-1.538, 1.011e-3
-1.539, 1.011e-3
-1.540, 1.011e-3
-1.541, 1.011e-3
-1.542, 1.011e-3
-1.543, 1.011e-3
-1.544, 1.011e-3
-1.545, 1.011e-3
-1.546, 1.011e-3
-1.547, 1.011e-3
-1.548, 1.011e-3
-1.549, 1.011e-3
-1.550, 1.011e-3
-1.551, 1.011e-3
-1.552, 1.011e-3
-1.553, 1.011e-3
-1.554, 1.011e-3
-1.555, 1.011e-3
-1.556, 1.011e-3
-1.557, 1.011e-3
-1.558, 1.011e-3
-1.559, 1.011e-3
-1.560, 1.011e-3
-1.561, 1.011e-3
-1.562, 1.011e-3
-1.563, 1.011e-3
-1.564, 1.011e-3
-1.565, 1.011e-3
-1.566, 1.011e-3
-1.567, 1.011e-3
-1.568, 1.011e-3
-1.569, 1.011e-3
-1.570, 1.011e-3
-1.571, 1.011e-3
-1.572, 1.011e-3
-1.573, 1.011e-3
-1.574, 1.011e-3
-1.575, 1.011e-3
-1.576, 1.011e-3
-1.577, 1.011e-3
-1.578, 1.011e-3
-1.579, 1.011e-3
-1.580, 1.011e-3
-1.581, 1.011e-3
-1.582, 1.011e-3
-1.583, 1.011e-3
-1.584, 1.011e-3
-1.585, 1.011e-3
-1.586, 1.011e-3
-1.587, 1.011e-3
-1.588, 1.011e-3
-1.589, 1.011e-3
-1.590, 1.011e-3
-1.591, 1.011e-3
-1.592, 1.011e-3
-1.593, 1.011e-3
-1.594, 1.011e-3
-1.595, 1.011e-3
-1.596, 1.011e-3
-1.597, 1.011e-3
-1.598, 1.011e-3
-1.599, 1.011e-3
-1.600, 1.011e-3
-1.601, 1.011e-3
-1.602, 1.011e-3
-1.603, 1.011e-3
-1.604, 1.011e-3
-1.605, 1.011e-3
-1.606, 1.011e-3
-1.607, 1.011e-3
-1.608, 1.011e-3
-1.609, 1.011e-3
-1.610, 1.011e-3
-1.611, 1.011e-3
-1.612, 1.011e-3
-1.613, 1.011e-3
-1.614, 1.011e-3
-1.615, 1.011e-3
-1.616, 1.011e-3
-1.617, 1.011e-3
-1.618, 1.011e-3
-1.619, 1.011e-3
-1.620, 1.011e-3
-1.621, 1.011e-3
-1.622, 1.011e-3
-1.623, 1.011e-3
-1.624, 1.011e-3
-1.625, 1.011e-3
-1.626, 1.011e-3
-1.627, 1.011e-3
-1.628, 1.011e-3
-1.629, 1.011e-3
-1.630, 1.011e-3
-1.631, 1.011e-3
-1.632, 1.011e-3
-1.633, 1.011e-3
-1.634, 1.011e-3
-1.635, 1.011e-3
-1.636, 1.011e-3
-1.637, 1.011e-3
-1.638, 1.011e-3
-1.639, 1.011e-3
-1.640, 1.011e-3
-1.641, 1.011e-3
-1.642, 1.011e-3
-1.643, 1.011e-3
-1.644, 1.011e-3
-1.645, 1.011e-3
-1.646, 1.011e-3
-1.647, 1.011e-3
-1.648, 1.011e-3
-1.649, 1.011e-3
-1.650, 1.011e-3
-1.651, 1.011e-3
-1.652, 1.011e-3
-1.653, 1.011e-3
-1.654, 1.011e-3
-1.655, 1.011e-3
-1.656, 1.011e-3
-1.657, 1.011e-3
-1.658, 1.011e-3
-1.659, 1.011e-3
-1.660, 1.011e-3
-1.661, 1.011e-3
-1.662, 1.011e-3
-1.663, 1.011e-3
-1.664, 1.011e-3
-1.665, 1.011e-3
-1.666, 1.011e-3
-1.667, 1.011e-3
-1.668, 1.011e-3
-1.669, 1.011e-3
-1.670, 1.011e-3
-1.671, 1.011e-3
-1.672, 1.011e-3
-1.673, 1.011e-3
-1.674, 1.011e-3
-1.675, 1.011e-3
-1.676, 1.011e-3
-1.677, 1.011e-3
-1.678, 1.011e-3
-1.679, 1.011e-3
-1.680, 1.011e-3
-1.681, 1.011e-3
-1.682, 1.011e-3
-1.683, 1.011e-3
-1.684, 1.011e-3
-1.685, 1.011e-3
-1.686, 1.011e-3
-1.687, 1.011e-3
-1.688, 1.011e-3
-1.689, 1.011e-3
-1.690, 1.011e-3
-1.691, 1.011e-3
-1.692, 1.011e-3
-1.693, 1.011e-3
-1.694, 1.011e-3
-1.695, 1.011e-3
-1.696, 1.011e-3
-1.697, 1.011e-3
-1.698, 1.011e-3
-1.699, 1.011e-3
-1.700, 1.011e-3
-1.701, 1.011e-3
-1.702, 1.011e-3
-1.703, 1.011e-3
-1.704, 1.011e-3
-1.705, 1.011e-3
-1.706, 1.011e-3
-1.707, 1.011e-3
-1.708, 1.011e-3
-1.709, 1.011e-3
-1.710, 1.011e-3
-1.711, 1.011e-3
-1.712, 1.011e-3
-1.713, 1.011e-3
-1.714, 1.011e-3
-1.715, 1.011e-3
-1.716, 1.011e-3
-1.717, 1.011e-3
-1.718, 1.011e-3
-1.719, 1.011e-3
-1.720, 1.011e-3
-1.721, 1.011e-3
-1.722, 1.011e-3
-1.723, 1.011e-3
-1.724, 1.011e-3
-1.725, 1.011e-3
-1.726, 1.011e-3
-1.727, 1.011e-3
-1.728, 1.011e-3
-1.729, 1.011e-3
-1.730, 1.011e-3
-1.731, 1.011e-3
-1.732, 1.011e-3
-1.733, 1.011e-3
-1.734, 1.011e-3
-1.735, 1.011e-3
-1.736, 1.011e-3
-1.737, 1.011e-3
-1.738, 1.011e-3
-1.739, 1.011e-3
-1.740, 1.011e-3
-1.741, 1.011e-3
-1.742, 1.011e-3
-1.743, 1.011e-3
-1.744, 1.011e-3
-1.745, 1.011e-3
-1.746, 1.011e-3
-1.747, 1.011e-3
-1.748, 1.011e-3
-1.749, 1.011e-3
-1.750, 1.011e-3
-1.751, 1.011e-3
-1.752, 1.011e-3
-1.753, 1.011e-3
-1.754, 1.011e-3
-1.755, 1.011e-3
-1.756, 1.011e-3
-1.757, 1.011e-3
-1.758, 1.011e-3
-1.759, 1.011e-3
-1.760, 1.011e-3
-1.761, 1.011e-3
-1.762, 1.011e-3
-1.763, 1.011e-3
-1.764, 1.011e-3
-1.765, 1.011e-3
-1.766, 1.011e-3
-1.767, 1.011e-3
-1.768, 1.011e-3
-1.769, 1.011e-3
-1.770, 1.011e-3
-1.771, 1.011e-3
-1.772, 1.011e-3
-1.773, 1.011e-3
-1.774, 1.011e-3
-1.775, 1.011e-3
-1.776, 1.011e-3
-1.777, 1.011e-3
-1.778, 1.011e-3
-1.779, 1.011e-3
-1.780, 1.011e-3
-1.781, 1.011e-3
-1.782, 1.011e-3
-1.783, 1.011e-3
-1.784, 1.011e-3
-1.785, 1.011e-3
-1.786, 1.011e-3
-1.787, 1.011e-3
-1.788, 1.011e-3
-1.789, 1.011e-3
-1.790, 1.011e-3
-1.791, 1.011e-3
-1.792, 1.011e-3
-1.793, 1.011e-3
-1.794, 1.011e-3
-1.795, 1.011e-3
-1.796, 1.011e-3
-1.797, 1.011e-3
-1.798, 1.011e-3
-1.799, 1.011e-3
-1.800, 1.011e-3
-1.801, 1.011e-3
-1.802, 1.011e-3
-1.803, 1.011e-3
-1.804, 1.011e-3
-1.805, 1.011e-3
-1.806, 1.011e-3
-1.807, 1.011e-3
-1.808, 1.011e-3
-1.809, 1.011e-3
-1.810, 1.011e-3
-1.811, 1.011e-3
-1.812, 1.011e-3
-1.813, 1.011e-3
-1.814, 1.011e-3
-1.815, 1.011e-3
-1.816, 1.011e-3
-1.817, 1.011e-3
-1.818, 1.011e-3
-1.819, 1.011e-3
-1.820, 1.011e-3
-1.821, 1.011e-3
-1.822, 1.011e-3
-1.823, 1.011e-3
-1.824, 1.011e-3
-1.825, 1.011e-3
-1.826, 1.011e-3
-1.827, 1.011e-3
-1.828, 1.011e-3
-1.829, 1.011e-3
-1.830, 1.011e-3
-1.831, 1.011e-3
-1.832, 1.011e-3
-1.833, 1.011e-3
-1.834, 1.011e-3
-1.835, 1.011e-3
-1.836, 1.011e-3
-1.837, 1.011e-3
-1.838, 1.011e-3
-1.839, 1.011e-3
-1.840, 1.011e-3
-1.841, 1.011e-3
-1.842, 1.011e-3
-1.843, 1.011e-3
-1.844, 1.011e-3
-1.845, 1.011e-3
-1.846, 1.011e-3
-1.847, 1.011e-3
-1.848, 1.011e-3
-1.849, 1.011e-3
-1.850, 1.011e-3
-1.851, 1.011e-3
-1.852, 1.011e-3
-1.853, 1.011e-3
-1.854, 1.011e-3
-1.855, 1.011e-3
-1.856, 1.011e-3
-1.857, 1.011e-3
-1.858, 1.011e-3
-1.859, 1.011e-3
-1.860, 1.011e-3
-1.861, 1.011e-3
-1.862, 1.011e-3
-1.863, 1.011e-3
-1.864, 1.011e-3
-1.865, 1.011e-3
-1.866, 1.011e-3
-1.867, 1.011e-3
-1.868, 1.011e-3
-1.869, 1.011e-3
-1.870, 1.011e-3
-1.871, 1.011e-3
-1.872, 1.011e-3
-1.873, 1.011e-3
-1.874, 1.011e-3
-1.875, 1.011e-3
-1.876, 1.011e-3
-1.877, 1.011e-3
-1.878, 1.011e-3
-1.879, 1.011e-3
-1.880, 1.011e-3
-1.881, 1.011e-3
-1.882, 1.011e-3
-1.883, 1.011e-3
-1.884, 1.011e-3
-1.885, 1.011e-3
-1.886, 1.011e-3
-1.887, 1.011e-3
-1.888, 1.011e-3
-1.889, 1.011e-3
-1.890, 1.011e-3
-1.891, 1.011e-3
-1.892, 1.011e-3
-1.893, 1.011e-3
-1.894, 1.011e-3
-1.895, 1.011e-3
-1.896, 1.011e-3
-1.897, 1.011e-3
-1.898, 1.011e-3
-1.899, 1.011e-3
