Potential V vs RHE, Current mA cm-2
0.013299999999999867,3.7051288943465317
0.012299999999999978,2.352664891675556
0.011299999999999866,1.0881959318561862
0.010299999999999976,-0.04582249900262853
0.009299999999999864,-1.1798692240874404
0.008299999999999974,-2.226755585987568
0.007299999999999862,-3.2297858975918787
0.006299999999999972,-4.1889601589003735
0.00529999999999986,-5.105693081212917
0.0042999999999999705,-5.977155241929781
0.0032999999999998586,-6.806176063650692
0.0022999999999999687,-7.591340835075788
0.0012999999999998568,-8.376505606500881
0.00029999999999996696,-9.031516938338395
-0.000700000000000145,-9.728969609171857
-0.0017000000000000348,-10.382566229709504
-0.0027000000000001467,-11.037577561547016
-0.0037000000000000366,-11.647318131788847
-0.0047000000000001485,-12.258473413330542
-0.005700000000000038,-12.869628694872238
-0.00670000000000015,-13.436927926118118
-0.00770000000000004,-14.002812446064135
-0.008700000000000152,-14.57152638860988
-0.009700000000000042,-15.094969569559943
-0.010700000000000154,-15.618412750510005
-0.011700000000000044,-16.099414592464115
-0.012700000000000156,-16.53797509542228
-0.013700000000000045,-16.962388485381787
-0.014700000000000157,-17.358507649344002
-0.015700000000000047,-17.797068152302163
-0.01670000000000016,-18.19318731626437
-0.01770000000000005,-18.631747819222536
-0.01870000000000016,-19.01371987018609
-0.01970000000000005,-19.409839034148305
-0.020700000000000163,-19.805958198110513
-0.021700000000000053,-20.202077362072725
-0.022700000000000164,-20.584049413036283
-0.023700000000000054,-20.93772723800254
-0.024700000000000166,-21.248963723972853
-0.025700000000000056,-21.54605309694451
-0.026700000000000168,-21.857289582914817
-0.027700000000000058,-22.111937616890522
-0.02870000000000017,-22.42317410286083
-0.02970000000000006,-22.67782213683654
-0.03070000000000017,-22.989058622806844
-0.03170000000000006,-23.24370665678255
-0.03270000000000017,-23.55494314275286
-0.03370000000000006,-23.823738289727217
-0.034700000000000175,-24.120827662698876
-0.035700000000000065,-24.389622809673234
-0.03670000000000018,-24.64427084364894
-0.03770000000000007,-24.9130659906233
-0.03870000000000018,-25.167714024599
-0.03970000000000007,-25.39406783257741
-0.04070000000000018,-25.60627452755716
-0.04170000000000007,-25.86092256153287
-0.04270000000000018,-26.087276369511276
-0.04370000000000007,-26.257041725495082
-0.044700000000000184,-26.525836872469437
-0.045700000000000074,-26.69560222845324
-0.046700000000000186,-26.9643973754276
-0.047700000000000076,-27.134162731411404
-0.04870000000000019,-27.303928087395207
-0.04970000000000008,-27.530281895373616
-0.05070000000000019,-27.700047251357418
-0.05170000000000008,-27.912253946337174
-0.05270000000000019,-28.09616641531963
-0.05370000000000008,-28.265931771303435
-0.05470000000000019,-28.393255788291288
-0.05570000000000008,-28.577168257273744
-0.056700000000000195,-28.746933613257543
-0.057700000000000085,-28.91669896924135
-0.058700000000000196,-29.100611438223805
-0.059700000000000086,-29.27037679420761
-0.0607000000000002,-29.482583489187363
-0.06170000000000009,-29.66649595816982
-0.0627000000000002,-29.836261314153624
-0.06370000000000009,-30.00602667013743
-0.0647000000000002,-30.147497800123933
-0.06570000000000009,-30.274821817111786
-0.0667000000000002,-30.444587173095588
-0.0677000000000001,-30.571911190083444
-0.0687000000000002,-30.7558236590659
-0.0697000000000001,-30.925589015049702
-0.07070000000000021,-31.095354371033505
-0.0717000000000001,-31.27926684001596
-0.07270000000000021,-31.449032195999767
-0.0737000000000001,-31.618797551983565
-0.07470000000000021,-31.84515135996197
-0.0757000000000001,-32.01491671594578
-0.07670000000000021,-32.14224073293363
-0.0777000000000001,-32.283711862920136
-0.07870000000000021,-32.45347721890394
-0.0797000000000001,-32.58080123589179
-0.08070000000000022,-32.70812525287965
-0.0817000000000001,-32.892037721862096
-0.08270000000000022,-33.06180307784591
-0.08370000000000011,-33.18912709483376
-0.08470000000000022,-33.373039563816214
-0.08570000000000011,-33.54280491980002
-0.08670000000000022,-33.755011614779775
-0.08770000000000011,-33.98136542275818
-0.08870000000000022,-34.193572117737936
-0.08970000000000011,-34.377484586720385
-0.09070000000000022,-34.50480860370825
-0.09170000000000011,-34.67457395969205
-0.09270000000000023,-34.85848642867451
-0.09370000000000012,-35.02825178465831
-0.09470000000000023,-35.198017140642115
-0.09570000000000012,-35.32534115762997
-0.09670000000000023,-35.50925362661242
-0.09770000000000012,-35.679018982596226
-0.09870000000000023,-35.848784338580025
-0.09970000000000012,-36.03269680756248
-0.10070000000000023,-36.244903502542236
-0.10170000000000012,-36.4288159715247
-0.10270000000000024,-36.64102266650445
-0.10370000000000013,-36.81078802248826
-0.10470000000000024,-36.99470049147071
-0.10570000000000013,-37.206907186450465
-0.10670000000000024,-37.376672542434264
-0.10770000000000013,-37.56058501141672
-0.10870000000000024,-37.73035036740053
-0.10970000000000013,-37.90011572338433
-0.11070000000000024,-38.12646953136274
-0.11170000000000013,-38.29623488734655
-0.11270000000000002,-38.5650300343209
-0.11370000000000013,-38.81967806829661
-0.11470000000000002,-39.046031876275016
-0.11570000000000014,-39.258238571254765
-0.11670000000000003,-39.47044526623452
-0.11770000000000014,-39.654357735216976
-0.11870000000000003,-39.86656443019674
-0.11970000000000014,-40.03632978618054
-0.12070000000000003,-40.220242255162994
-0.12170000000000014,-40.3900076111468
-0.12270000000000003,-40.616361419125205
-0.12370000000000014,-40.828568114104954
-0.12470000000000003,-41.04077480908471
-0.12570000000000014,-41.30956995605907
-0.12670000000000003,-41.52177665103883
-0.12770000000000015,-41.79057179801318
-0.12870000000000004,-42.04521983198889
-0.12970000000000015,-42.31401497896325
-0.13070000000000004,-42.526221673943
-0.13170000000000015,-42.752575481921404
-0.13270000000000004,-42.96478217690117
-0.13370000000000015,-43.17698887188092
-0.13470000000000004,-43.40334267985933
-0.13570000000000015,-43.61554937483908
-0.13670000000000004,-43.88434452181344
-0.13770000000000016,-44.138992555789144
-0.13870000000000005,-44.36534636376755
-0.13970000000000016,-44.66243573673921
-0.14070000000000005,-44.93123088371356
-0.14170000000000016,-45.22832025668522
-0.14270000000000005,-45.53955674265553
-0.14370000000000016,-45.79420477663124
-0.14470000000000005,-46.062999923605595
-0.14570000000000016,-46.3176479575813
-0.14670000000000005,-46.544001765559706
-0.14770000000000016,-46.79864979953541
-0.14870000000000005,-47.02500360751382
-0.14970000000000017,-47.23721030249357
-0.15070000000000006,-47.506005449467935
-0.15170000000000017,-47.76065348344364
-0.15270000000000006,-48.029448630417996
-0.15370000000000017,-48.32653800338966
-0.15470000000000006,-48.63777448935996
-0.15570000000000017,-48.89242252333566
-0.15670000000000006,-49.24610034830193
-0.15770000000000017,-49.458307043281685
-0.15870000000000006,-49.76954352925199
-0.15970000000000018,-50.0807800152223
-0.16070000000000007,-50.335428049198
-0.16170000000000018,-50.60422319617236
-0.16270000000000007,-50.85887123014807
-0.16370000000000018,-51.127666377122424
-0.16470000000000007,-51.46719708909004
-0.16570000000000018,-51.73599223606439
-0.16670000000000007,-52.033081609036046
-0.16770000000000018,-52.34431809500636
-0.16870000000000007,-52.64140746797801
-0.16970000000000018,-52.91020261495237
-0.17070000000000007,-53.22143910092268
-0.17170000000000019,-53.476087134898386
-0.17270000000000008,-53.7873236208687
-0.1737000000000002,-54.0419716548444
-0.17470000000000008,-54.31076680181876
-0.1757000000000002,-54.56541483579447
-0.17670000000000008,-54.876651321764776
-0.1777000000000002,-55.17374069473642
-0.17870000000000008,-55.442535841710786
-0.1797000000000002,-55.7820665536784
-0.18070000000000008,-56.05086170065276
-0.1817000000000002,-56.36209818662306
-0.18270000000000008,-56.65918755959472
-0.1837000000000002,-56.97042404556503
-0.1847000000000001,-57.30995475753264
-0.1857000000000002,-57.66363258249889
-0.1867000000000001,-57.93242772947325
-0.1877000000000002,-58.22951710244491
-0.1887000000000001,-58.498312249419264
-0.1897000000000002,-58.79540162239092
-0.1907000000000001,-59.10663810836124
-0.1917000000000001,-59.36128614233694
-0.19269999999999998,-59.67252262830725
-0.1937000000000001,-59.9696120012789
-0.19469999999999998,-60.28084848724921
-0.1957000000000001,-60.59208497321952
-0.19669999999999999,-60.84673300719523
-0.1977000000000001,-61.11552815416958
-0.1987,-61.37017618814529
-0.1997000000000001,-61.63897133511965
-0.2007,-61.89361936909536
-0.2017000000000001,-62.11997317707376
-0.2027,-62.37462121104946
-0.2037000000000001,-62.68585769701977
-0.2047,-62.98294706999144
-0.2057000000000001,-63.3366248949577
-0.2067,-63.6761556069253
-0.2077000000000001,-63.98739209289561
-0.2087,-64.34106991786187
-0.2097000000000001,-64.63815929083353
-0.2107,-64.90695443780788
-0.2117000000000001,-65.16160247178358
-0.2127,-65.43039761875795
-0.2137000000000001,-65.7274869917296
-0.2147,-66.03872347769992
-0.2157000000000001,-66.34995996367022
-0.2167,-66.64704933664189
-0.21770000000000012,-66.9582858226122
-0.2187,-67.2978165345798
-0.21970000000000012,-67.6090530205501
-0.2207,-67.96273084551636
-0.22170000000000012,-68.30226155748396
-0.2227,-68.57105670445833
-0.22370000000000012,-68.86814607742998
-0.2247,-69.22182390239624
-0.22570000000000012,-69.53306038836655
-0.2267,-69.87259110033416
-0.22770000000000012,-70.18382758630447
-0.22870000000000001,-70.48091695927613
-0.22970000000000013,-70.8345947842424
-0.23070000000000002,-71.1458312702127
-0.23170000000000013,-71.48536198218031
-0.23270000000000002,-71.8814811461425
-0.23370000000000013,-72.23515897110877
-0.23470000000000002,-72.63127813507097
-0.23570000000000013,-73.01325018603454
-0.23670000000000002,-73.3669280110008
-0.2376999999999999,-73.72060583596706
-0.23870000000000002,-74.06013654793468
-0.2396999999999999,-74.41381437290093
-0.24070000000000003,-74.76749219786718
-0.24169999999999991,-75.06458157083884
-0.24270000000000003,-75.46070073480107
-0.24369999999999992,-75.85681989876326
-0.24470000000000003,-76.19635061073087
-0.24569999999999992,-76.55002843569714
-0.24670000000000003,-76.9037062606634
-0.24769999999999992,-77.243236972631
-0.24870000000000003,-77.63935613659322
-0.24969999999999992,-77.99303396155948
-0.25070000000000003,-78.38915312552167
-0.2516999999999999,-78.72868383748929
-0.25270000000000004,-79.1248030014515
-0.2536999999999999,-79.56336350440966
-0.25470000000000004,-80.00192400736783
-0.2556999999999999,-80.38389605833139
-0.25670000000000004,-80.82245656128954
-0.25769999999999993,-81.26101706424771
-0.25870000000000004,-81.65713622820991
-0.25969999999999993,-82.13813807016405
-0.26070000000000004,-82.56255146012353
-0.26169999999999993,-83.04355330207765
-0.26270000000000004,-83.43967246603985
-0.26369999999999993,-83.87823296899803
-0.26470000000000005,-84.23191079396429
-0.26569999999999994,-84.61388284492786
-0.26670000000000005,-85.01000200889004
-0.26769999999999994,-85.44856251184822
-0.26870000000000005,-85.84468167581042
-0.26969999999999994,-86.18421238777805
-0.27070000000000005,-86.5378902127443
-0.27169999999999994,-86.89156803771054
-0.27270000000000005,-87.27354008867411
-0.27369999999999994,-87.66965925263632
-0.27470000000000006,-88.10821975559449
-0.27569999999999995,-88.5892215975486
-0.27670000000000006,-89.07022343950271
-0.27769999999999995,-89.50878394246087
-0.27870000000000006,-90.03222712341093
-0.27969999999999995,-90.55567030436099
-0.28070000000000006,-91.03667214631511
-0.28169999999999995,-91.51767398826922
-0.28270000000000006,-91.98452871722468
-0.28369999999999995,-92.4655305591788
-0.28470000000000006,-92.94653240113291
-0.28569999999999995,-93.42753424308701
-0.28670000000000007,-93.90853608504113
-0.28769999999999996,-94.34709658799929
-0.28870000000000007,-94.87053976894937
-0.28969999999999996,-95.35154161090348
-0.29070000000000007,-95.83254345285758
-0.29169999999999996,-96.31354529481169
-0.29270000000000007,-96.73795868477121
-0.29369999999999996,-97.21896052672531
-0.2947000000000001,-97.69996236867944
-0.29569999999999996,-98.18096421063355
-0.2967000000000001,-98.7044073915836
-0.29769999999999996,-99.22785057253368
-0.2987000000000001,-99.75129375348374
-0.29969999999999997,-100.31717827342976
-0.3007000000000001,-100.84062145437981
-0.30169999999999997,-101.40650597432582
-0.3027000000000001,-101.92994915527588
-0.30369999999999997,-102.45339233622596
-0.3047000000000001,-102.97683551717601
-0.30569999999999997,-103.45783735913014
-0.3067000000000001,-103.93883920108425
-0.3077,-104.46228238203432
-0.3087000000000001,-104.90084288499246
-0.3097,-105.38184472694657
-0.3107000000000001,-105.90528790789664
-0.3117,-106.38628974985076
-0.3127000000000001,-106.86729159180487
-0.3137,-107.39073477275493
-0.3147000000000001,-107.914177953705
-0.3157,-108.48006247365102
-0.3167000000000001,-109.04594699359701
-0.3177,-109.61183151354304
-0.3187000000000001,-110.17771603348905
-0.3197,-110.70115921443913
-0.3207000000000001,-111.18216105639323
-0.3217,-111.7056042373433
-0.3227000000000001,-112.22904741829338
-0.3237,-112.83737327723534
-0.3247000000000001,-113.40325779718134
-0.3257,-113.96914231712736
-0.3267000000000001,-114.4925854980774
-0.3277,-115.05847001802343
-0.3287000000000001,-115.62435453796945
-0.3297,-116.20438617091412
-0.3307000000000001,-116.77027069086012
-0.3317,-117.33615521080614
-0.3327000000000001,-117.85959839175621
-0.3337,-118.38304157270628
-0.3347000000000001,-118.94892609265229
-0.3357,-119.51481061259831
-0.3367000000000001,-120.08069513254432
-0.3377,-120.68902099148629
-0.3387000000000001,-121.29734685042824
-0.3397,-121.90567270937021
-0.3407000000000001,-122.52814568131083
-0.3417,-123.09403020125686
-0.3427000000000001,-123.70235606019881
-0.3437,-124.26824058014482
-0.3447000000000001,-124.7916837610949
-0.3457,-125.31512694204494
-0.3467000000000001,-125.83857012299501
-0.3477,-126.40445464294103
-0.3487000000000001,-126.9278978238911
-0.3497,-127.45134100484115
-0.3507000000000001,-127.93234284679528
-0.3517,-128.45578602774532
-0.3527000000000001,-128.9792292086954
-0.3537,-129.5451137286414
-0.3547000000000001,-130.06855690959148
-0.3557,-130.59200009054155
-0.35670000000000013,-131.1154432714916
-0.3577,-131.5964451134457
-0.35870000000000013,-132.07744695539984
-0.3597,-132.55844879735392
-0.36070000000000013,-133.08189197830401
-0.3617,-133.5628938202581
-0.3626999999999999,-133.9873072102176
-0.3637,-134.42586771317576
-0.3646999999999999,-134.9068695551299
-0.3657,-135.34543005808808
-0.3666999999999999,-135.82643190004217
-0.3677,-136.26499240300032
-0.3686999999999999,-136.70355290595847
-0.36970000000000003,-137.12796629591801
-0.3706999999999999,-137.52408545988024
-0.37170000000000003,-137.87776328484648
-0.3726999999999999,-138.23144110981272
-0.37370000000000003,-138.52853048278442
-0.3746999999999999,-138.8397669687547
-0.37570000000000003,-139.1792976807223
-0.3766999999999999,-139.53297550568857
-0.37770000000000004,-139.9290946696508
-0.3786999999999999,-140.325213833613
-0.37970000000000004,-140.74962722357247
-0.3806999999999999,-141.2306290655266
-0.38170000000000004,-141.61260111649017
-0.38269999999999993,-142.17848563643616
-0.38370000000000004,-142.6028990263957
-0.38469999999999993,-143.0273124163552
-0.38570000000000004,-143.3102546763282
-0.38669999999999993,-143.5931969363012
-0.38770000000000004,-143.87613919627424
-0.38869999999999993,-144.15908145624724
-0.38970000000000005,-144.15908145624724
-0.39069999999999994,-144.30055258623375
-0.39170000000000005,-144.30055258623375
-0.39269999999999994,-144.30055258623375
-0.39370000000000005,-144.44202371622026
-0.39469999999999994,-144.58349484620675
-0.39570000000000005,-144.86643710617977
-0.39669999999999994,-145.00790823616626
-0.39770000000000005,-145.00790823616626
-0.39869999999999994,-145.00790823616626
-0.39970000000000006,-145.00790823616626
-0.40069999999999995,-145.00790823616626
-0.40170000000000006,-145.00790823616626
-0.40269999999999995,-145.00790823616626
-0.40370000000000006,-145.00790823616626
-0.40469999999999995,-145.00790823616626
-0.40570000000000006,-145.00790823616626
-0.40669999999999995,-145.00790823616626
-0.40770000000000006,-145.00790823616626
-0.40869999999999995,-145.00790823616626
-0.40970000000000006,-145.00790823616626
-0.41069999999999995,-144.86643710617977
-0.41170000000000007,-144.72496597619326
-0.41269999999999996,-144.44202371622026
-0.41370000000000007,-144.30055258623375
-0.41469999999999996,-144.01761032626072
-0.41570000000000007,-143.87613919627424
-0.41669999999999996,-143.5931969363012
-0.41770000000000007,-143.3102546763282
-0.41869999999999996,-143.0273124163552
-0.4197000000000001,-142.7443701563822
-0.42069999999999996,-142.4614278964092
-0.4217000000000001,-142.03701450644968
-0.42269999999999996,-141.75407224647665
-0.4237000000000001,-141.3721001955131
-0.42469999999999997,-140.9759810315509
-0.4257000000000001,-140.66474454558062
-0.42669999999999997,-140.325213833613
-0.4277000000000001,-140.01397734764268
-0.42869999999999997,-139.70274086167237
-0.4297000000000001,-139.4056514887007
-0.43069999999999997,-139.1792976807223
-0.4317000000000001,-139.05197366373446
-0.4327,-138.92464964674662
-0.4337000000000001,-138.79732562975875
-0.4347,-138.65585449977226
-0.4357000000000001,-138.52853048278442
-0.4367,-138.40120646579655
-0.4377000000000001,-138.27388244880868
-0.4387,-138.08996997982624
-0.4397000000000001,-137.79288060685457
-0.4407,-137.39676144289237
-0.4417000000000001,-136.95820093993422
-0.4427,-136.47719909798008
-0.4437000000000001,-135.99619725602597
-0.4447,-135.5576367530678
-0.4457000000000001,-135.1332233631083
-0.4467,-134.77954553814206
-0.4477000000000001,-134.5107503911677
-0.4487,-134.38342637417986
-0.4497000000000001,-134.34098503518388
-0.4507,-134.38342637417986
-0.4517000000000001,-134.42586771317576
-0.4527,-134.46830905217172
-0.4537000000000001,-134.5107503911677
-0.4547,-134.5107503911677
-0.4557000000000001,-134.56733884316228
-0.4567,-134.5107503911677
-0.4577000000000001,-134.38342637417986
-0.4587,-134.17121967920008
-0.4597000000000001,-133.94486587122168
-0.4607,-133.77510051523788
-0.4617000000000001,-133.64777649825
-0.4627,-133.52045248126214
-0.4637000000000001,-133.4214226902716
-0.4647,-133.4214226902716
-0.4657000000000001,-133.37898135127566
-0.4667,-133.4214226902716
-0.4677000000000001,-133.52045248126214
-0.4687,-133.69021783724597
-0.4697000000000001,-133.8599831932298
-0.4707,-134.08633700120816
-0.4717000000000001,-134.256102357192
-0.4727,-134.46830905217172
-0.4737000000000001,-134.5107503911677
-0.4747,-134.42586771317576
-0.4757000000000001,-134.256102357192
-0.4767,-134.17121967920008
-0.4777000000000001,-134.256102357192
-0.4787,-134.46830905217172
-0.4797000000000001,-134.73710419914607
-0.4807,-135.03419357211774
-0.48170000000000013,-135.47275407507593
-0.4827,-136.13766838601245
-0.48370000000000013,-136.91575960093826
-0.4847,-137.79288060685457
-0.48570000000000013,-138.65585449977226
-0.4867,-138.3163237878046
-0.48570000000000013,-136.08107993401788
-0.4847,-133.94486587122168
-0.48370000000000013,-131.89353448641737
-0.4827,-129.8563502146117
-0.48170000000000013,-127.88990150779931
-0.4807,-125.83857012299501
-0.4797000000000001,-123.87212141618261
-0.4787,-121.90567270937021
-0.4777000000000001,-120.03825379354835
-0.4767,-118.24157044271978
-0.4757000000000001,-116.54391688288172
-0.4747,-114.84626332304367
-0.4737000000000001,-113.23349244119754
-0.4727,-111.7056042373433
-0.4717000000000001,-110.3050400504769
-0.4707,-108.96106431560513
-0.4697000000000001,-107.6029414677347
-0.4687,-106.2589657328629
-0.4677000000000001,-104.85840154599651
-0.4667,-103.54272003712204
-0.4657000000000001,-102.28362698024215
-0.4647,-101.02453392336226
