Potential V vs RHE, Current mA cm-2
0.013299999999999867,2.7035132940420854
0.012299999999999978,1.7174595180361545
0.011299999999999866,0.967662529107685
0.010299999999999976,0.47053297833511115
0.009299999999999864,-0.023837885402725866
0.008299999999999974,-0.3897529631128176
0.007299999999999862,-0.7166927445116276
0.006299999999999972,-1.038963978620883
0.00529999999999986,-1.2576783455800176
0.0042999999999999705,-1.5547677185516753
0.0032999999999998586,-1.7245330745354797
0.0022999999999999687,-1.93532505821537
0.0012999999999998568,-2.1800701130920217
0.00029999999999996696,-2.279099904082574
-0.000700000000000145,-2.49413602166206
-0.0017000000000000348,-2.659657243746269
-0.0027000000000001467,-2.8067872189322327
-0.0037000000000000366,-2.9539171941181968
-0.0047000000000001485,-3.044458717309559
-0.005700000000000038,-3.1915886924955226
-0.00670000000000015,-3.28637434958648
-0.00770000000000004,-3.439163169971904
-0.008700000000000152,-3.522631136663941
-0.009700000000000042,-3.559413630460432
-0.010700000000000154,-3.7206907186450464
-0.011700000000000044,-3.765961480240728
-0.012700000000000156,-3.849429446932765
-0.013700000000000045,-4.014950669016974
-0.014700000000000157,-4.05597729671306
-0.015700000000000047,-4.133786418205637
-0.01670000000000016,-4.269598702992681
-0.01770000000000005,-4.329016577587013
-0.01870000000000016,-4.3403342679859325
-0.01970000000000005,-4.3657990713835035
-0.020700000000000163,-4.454925883275001
-0.021700000000000053,-4.546882117766228
-0.022700000000000164,-4.593567590661774
-0.023700000000000054,-4.6742061347540815
-0.024700000000000166,-4.7138180511503025
-0.025700000000000056,-4.798700729142205
-0.026700000000000168,-4.835483222938696
-0.027700000000000058,-4.877924561934646
-0.02870000000000017,-4.9698807964258735
-0.02970000000000006,-4.976954352925199
-0.03070000000000017,-5.060422319617237
-0.03170000000000006,-5.073154721316022
-0.03270000000000017,-5.124084328111163
-0.03370000000000006,-5.208967006103065
-0.034700000000000175,-5.189161047904955
-0.035700000000000065,-5.259896612898206
-0.03670000000000018,-5.323558621392133
-0.03770000000000007,-5.374488228187275
-0.03870000000000018,-5.4225884123826855
-0.03970000000000007,-5.373073516887409
-0.04070000000000018,-5.484835709576747
-0.04170000000000007,-5.532935893772159
-0.04270000000000018,-5.538594738971618
-0.04370000000000007,-5.629136262162981
-0.044700000000000184,-5.648942220361092
-0.045700000000000074,-5.732410187053128
-0.046700000000000186,-5.756460279150835
-0.047700000000000076,-5.784754505148135
-0.04870000000000019,-5.852660647541658
-0.04970000000000008,-5.845587091042332
-0.05070000000000019,-5.929055057734368
-0.05170000000000008,-5.97149639673032
-0.05270000000000019,-5.970081685430455
-0.05370000000000008,-6.076185032920332
-0.05470000000000019,-6.169555978711425
-0.05570000000000008,-6.036573116524112
-0.056700000000000195,-6.012523024426406
-0.057700000000000085,-6.214826740307106
-0.058700000000000196,-6.247365100204002
-0.059700000000000086,-6.146920597913584
-0.0607000000000002,-6.343565468594824
-0.06170000000000009,-6.4595717951837575
-0.0627000000000002,-6.432692280486322
-0.06370000000000009,-6.436936414385917
-0.0647000000000002,-6.487866021181058
-0.06570000000000009,-6.629337151167562
-0.0667000000000002,-6.630751862467427
-0.0677000000000001,-6.633581285067157
-0.0687000000000002,-6.756661168155415
-0.0697000000000001,-6.646313686765942
-0.07070000000000021,-6.724122808258519
-0.0717000000000001,-6.804761352350826
-0.07270000000000021,-6.823152599249072
-0.0737000000000001,-6.922182390239625
-0.07470000000000021,-6.9250118128393545
-0.0757000000000001,-7.046676984627748
-0.07670000000000021,-7.094777168823159
-0.0777000000000001,-7.097606591422889
-0.07870000000000021,-7.165512733816411
-0.0797000000000001,-7.179659846815062
-0.08070000000000022,-7.237663010109527
-0.0817000000000001,-7.321130976801564
-0.08270000000000022,-7.391866541794816
-0.08370000000000011,-7.428649035591308
-0.08470000000000022,-7.459772684188338
-0.08570000000000011,-7.546070073480105
-0.08670000000000022,-7.540411228280647
-0.08770000000000011,-7.7130060068641795
-0.08870000000000022,-7.7837415718574325
-0.08970000000000011,-7.775253304058242
-0.09070000000000022,-7.87286838374893
-0.09170000000000011,-7.976142308639078
-0.09270000000000023,-7.889844919347309
-0.09370000000000012,-7.92096856794434
-0.09470000000000023,-8.116198727325715
-0.09570000000000012,-8.140248819423421
-0.09670000000000023,-8.12327228382504
-0.09770000000000012,-8.192593137518429
-0.09870000000000023,-8.382164451700342
-0.09970000000000012,-8.264743413811544
-0.10070000000000023,-8.455729439293325
-0.10170000000000012,-8.536367983385631
-0.10270000000000024,-8.49958548958914
-0.10370000000000013,-8.598615280579693
-0.10470000000000024,-8.747159967065523
-0.10570000000000013,-8.83628677895702
-0.10670000000000024,-8.83911620155675
-0.10770000000000013,-8.918340034349193
-0.10870000000000024,-9.054152319136236
-0.10970000000000013,-8.977757908943524
-0.11070000000000024,-9.09800836943205
-0.11170000000000013,-9.160255666626112
-0.11270000000000002,-9.263529591516258
-0.11370000000000013,-9.356900537307352
-0.11470000000000002,-9.368218227706274
-0.11570000000000014,-9.468662729996689
-0.11670000000000003,-9.48280984299534
-0.11770000000000014,-9.571936654886837
-0.11870000000000003,-9.673795868477121
-0.11970000000000014,-9.621451550382114
-0.12070000000000003,-9.767166814268213
-0.12170000000000014,-9.87892900695755
-0.12270000000000003,-9.918540923353772
-0.12370000000000014,-10.055767919440681
-0.12470000000000003,-10.108112237535686
-0.12570000000000014,-10.194409626827454
-0.12670000000000003,-10.18167722512867
-0.12770000000000015,-10.24392452232273
-0.12870000000000004,-10.41793401220613
-0.12970000000000015,-10.483010731999922
-0.13070000000000004,-10.549502163093578
-0.13170000000000015,-10.784344238871176
-0.13270000000000004,-10.673996757481701
-0.13370000000000015,-10.689558581780219
-0.13470000000000004,-10.930059502757274
-0.13570000000000015,-11.071530632743777
-0.13670000000000004,-11.051724674545666
-0.13770000000000016,-11.201684072331359
-0.13870000000000005,-11.457746817606932
-0.13970000000000016,-11.337496357118404
-0.14070000000000005,-11.58648554589465
-0.14170000000000016,-11.614779771891952
-0.14270000000000005,-11.633171018790197
-0.14370000000000016,-11.730786098480884
-0.14470000000000005,-11.8920631866655
-0.14570000000000016,-12.026460760152677
-0.14670000000000005,-12.008069513254432
-0.14770000000000016,-12.002410668054972
-0.14870000000000005,-12.150955354540802
-0.14970000000000017,-12.235838032532703
-0.15070000000000006,-12.476338953509758
-0.15170000000000017,-12.622054217395856
-0.15270000000000006,-12.644689598193699
-0.15370000000000017,-12.879531673971293
-0.15470000000000006,-13.042223473455774
-0.15570000000000017,-13.13135028534727
-0.15670000000000006,-13.173791624343222
-0.15770000000000017,-13.278480260533234
-0.15870000000000006,-13.48785753291326
-0.15970000000000018,-13.555763675306782
-0.16070000000000007,-13.668940579295983
-0.16170000000000018,-13.779288060685458
-0.16270000000000007,-13.88963554207493
-0.16370000000000018,-14.072133299757521
-0.16470000000000007,-14.203701450644967
-0.16570000000000018,-14.331025467632822
-0.16670000000000007,-14.430055258623375
-0.16770000000000018,-14.529085049613924
-0.16870000000000007,-14.65640906660178
-0.16970000000000018,-14.769585970590983
-0.17070000000000007,-14.925204213576137
-0.17170000000000019,-14.967645552572087
-0.17270000000000008,-15.151558021554543
-0.1737000000000002,-15.505235846520803
-0.17470000000000008,-15.590118524512702
-0.1757000000000002,-15.717442541500558
-0.17670000000000008,-16.099414592464115
-0.1777000000000002,-15.986237688474914
-0.17870000000000008,-16.000384801473565
-0.1797000000000002,-16.099414592464115
-0.18070000000000008,-16.438945304431726
-0.1817000000000002,-16.50968086942498
-0.18270000000000008,-16.59456354741688
-0.1837000000000002,-16.919947146385837
-0.1847000000000001,-17.018976937376394
-0.1857000000000002,-16.919947146385837
-0.1867000000000001,-17.4150961013386
-0.1877000000000002,-17.980980621284615
-0.1887000000000001,-17.74047970030756
-0.1897000000000002,-17.570714344323754
-0.1907000000000001,-18.02342196028057
-0.1917000000000001,-18.10830463827247
-0.19269999999999998,-17.980980621284615
-0.1937000000000001,-18.433688237241427
-0.19469999999999998,-18.730777610213085
-0.1957000000000001,-18.900542966196888
-0.19669999999999999,-19.042014096183394
-0.1977000000000001,-19.22592656516585
-0.1987,-19.2400736781645
-0.1997000000000001,-19.367397695152352
-0.2007,-19.93328221509837
-0.2017000000000001,-19.848399537106463
-0.2027,-19.961576441095666
-0.2037000000000001,-20.17378313607542
-0.2047,-20.286960040064624
-0.2057000000000001,-20.668932091028186
-0.2067,-20.612343639033586
-0.2077000000000001,-20.824550334013338
-0.2087,-21.2065223849769
-0.2097000000000001,-21.2631108369715
-0.2107,-21.51775887094721
-0.2117000000000001,-21.744112678925614
-0.2127,-21.91387803490942
-0.2137000000000001,-22.012907825899973
-0.2147,-22.140231842887825
-0.2157000000000001,-22.309997198871628
-0.2167,-22.522203893851387
-0.21770000000000012,-22.890028831816295
-0.2187,-22.974911509808198
-0.21970000000000012,-23.017352848804148
-0.2207,-23.371030673770406
-0.22170000000000012,-23.56909025575151
-0.2227,-23.597384481748815
-0.22370000000000012,-23.781296950731264
-0.2247,-24.092533436701576
-0.22570000000000012,-24.134974775697525
-0.2267,-24.191563227692125
-0.22770000000000012,-24.474505487665134
-0.22870000000000001,-24.74330063463949
-0.22970000000000013,-24.884771764625995
-0.23070000000000002,-25.196008250596304
-0.23170000000000013,-25.37992071957876
-0.23270000000000002,-25.507244736566612
-0.23370000000000013,-25.73359854454502
-0.23470000000000002,-25.90336390052882
-0.23570000000000013,-26.412659968480234
-0.23670000000000002,-26.044835030515326
-0.2376999999999999,-26.32777729048833
-0.23870000000000002,-26.723896454450543
-0.2396999999999999,-26.38436574248293
-0.24070000000000003,-26.723896454450543
-0.24169999999999991,-27.00683871442355
-0.24270000000000003,-26.907808923433
-0.24369999999999992,-27.1058685054141
-0.24470000000000003,-27.190751183406004
-0.24569999999999992,-27.601017460366865
-0.24670000000000003,-27.742488590353368
-0.24769999999999992,-27.855665494342567
-0.24870000000000003,-28.09616641531963
-0.24969999999999992,-28.308373110299385
-0.25070000000000003,-28.393255788291288
-0.2516999999999999,-28.421550014288584
-0.25270000000000004,-28.577168257273744
-0.2536999999999999,-28.690345161262943
-0.25470000000000004,-28.49228557928184
-0.2556999999999999,-28.506432692280487
-0.25670000000000004,-28.789374952253496
-0.25769999999999993,-28.9025518562427
-0.25870000000000004,-28.831816291249446
-0.25969999999999993,-28.93084608224
-0.26070000000000004,-29.199641229214354
-0.26169999999999993,-29.213788342213007
-0.26270000000000004,-29.114758551222454
-0.26369999999999993,-29.242082568210304
-0.26470000000000005,-29.482583489187363
-0.26569999999999994,-29.32696524620221
-0.26670000000000005,-29.581613280177915
-0.26769999999999994,-28.633756709268344
-0.26870000000000005,-28.97328742123595
-0.26969999999999994,-29.100611438223805
-0.27070000000000005,-28.775227839254843
-0.27169999999999994,-28.761080726256196
-0.27270000000000005,-29.044022986229205
-0.27369999999999994,-28.88840474324405
-0.27470000000000006,-28.364961562293985
-0.27569999999999995,-28.32252022329803
-0.27670000000000006,-28.49228557928184
-0.27769999999999995,-28.209343319308836
-0.27870000000000006,-27.841518381343924
-0.27969999999999995,-27.954695285333123
-0.28070000000000006,-28.09616641531963
-0.28169999999999995,-27.487840556377662
-0.28270000000000006,-27.190751183406004
-0.28369999999999995,-26.89366181043435
-0.28470000000000006,-26.412659968480234
-0.28569999999999995,-25.94580523952477
-0.28670000000000007,-26.073129256512626
-0.28769999999999996,-25.988246578520723
-0.28870000000000007,-25.351626493581456
-0.28969999999999996,-25.238449589592253
-0.29070000000000007,-25.252596702590903
-0.29169999999999996,-24.601829504652986
-0.29270000000000007,-24.092533436701576
-0.29369999999999996,-23.710561385738018
-0.2947000000000001,-23.371030673770406
-0.29569999999999996,-23.272000882779853
-0.2967000000000001,-22.87588171881764
-0.29769999999999996,-22.451468328858134
-0.2987000000000001,-22.055349164895922
-0.29969999999999997,-21.701671339929664
-0.3007000000000001,-21.277257949970153
-0.30169999999999997,-21.065051254990397
-0.3027000000000001,-20.683079204026836
-0.30369999999999997,-20.499166735044383
-0.3047000000000001,-20.03231200608892
-0.30569999999999997,-19.664487068124007
-0.3067000000000001,-19.466427486142905
-0.3077,-19.22592656516585
-0.3087000000000001,-18.900542966196888
-0.3097,-18.645894932221182
-0.3107000000000001,-18.47612957623738
-0.3117,-18.23562865526032
-0.3127000000000001,-17.910245056291366
-0.3137,-17.782921039303513
-0.3147000000000001,-17.499978779330505
-0.3157,-17.259477858353446
-0.3167000000000001,-16.97653559838044
-0.3177,-16.877505807389888
-0.3187000000000001,-17.00482982437774
-0.3197,-16.820917355395284
-0.3207000000000001,-16.679446225408782
-0.3217,-16.651151999411482
-0.3227000000000001,-16.580416434418233
-0.3237,-16.651151999411482
-0.3247000000000001,-16.651151999411482
-0.3257,-16.750181790402035
-0.3267000000000001,-16.764328903400685
-0.3277,-16.736034677403385
-0.3287000000000001,-17.018976937376394
-0.3297,-17.2736249713521
-0.3307000000000001,-17.103859615368293
-0.3317,-17.07556538937099
-0.3327000000000001,-17.089712502369647
-0.3337,-17.386801875341302
-0.3347000000000001,-18.009274847281915
-0.3357,-17.81121526530081
-0.3367000000000001,-17.669744135314307
-0.3377,-18.53271802823198
-0.3387000000000001,-18.829807401203638
-0.3397,-18.985425644188794
-0.3407000000000001,-18.97127853119014
-0.3417,-19.25422079116315
-0.3427000000000001,-19.452280373144255
-0.3437,-19.890840876102416
-0.3447000000000001,-20.42843117005113
-0.3457,-19.93328221509837
-0.3467000000000001,-20.357695605057877
-0.3477,-21.2631108369715
-0.3487000000000001,-21.376287740960702
-0.3497,-21.404581966958006
-0.3507000000000001,-22.097790503891872
-0.3517,-22.39487987686353
-0.3527000000000001,-22.451468328858134
-0.3537,-23.059794187800097
-0.3547000000000001,-23.44176623876366
-0.3557,-23.696414272739364
-0.35670000000000013,-24.035944984706973
-0.3577,-24.149121888696175
-0.35870000000000013,-24.74330063463949
-0.3597,-25.45065628457201
-0.36070000000000013,-25.634568753554465
-0.3617,-25.86092256153287
-0.3626999999999999,-26.412659968480234
-0.3637,-26.851220471438396
-0.3646999999999999,-27.091721392415455
-0.3657,-27.62931168636417
-0.3666999999999999,-27.926401059335824
-0.3677,-28.19519620631018
-0.3686999999999999,-28.8742576302454
-0.36970000000000003,-29.25622968120896
-0.3706999999999999,-29.62405461917387
-0.37170000000000003,-30.274821817111786
-0.3726999999999999,-30.769970772064546
-0.37370000000000003,-31.08120725803486
-0.3746999999999999,-31.590503325986273
-0.37570000000000003,-32.15638784593229
-0.3766999999999999,-32.49591855789989
-0.37770000000000004,-32.93447906085806
-0.3786999999999999,-33.726717388782475
-0.37970000000000004,-33.86818851876898
-0.3806999999999999,-34.51895571670689
-0.38170000000000004,-35.226311366639415
-0.38269999999999993,-35.49510651361377
-0.38370000000000004,-35.763901660588125
-0.38469999999999993,-36.6834640055004
-0.38570000000000004,-37.15031873445586
-0.38669999999999993,-37.27764275144372
-0.38770000000000004,-38.09817530536544
-0.38869999999999993,-39.08847321527096
-0.38970000000000005,-39.060178989273666
-0.39069999999999994,-39.80997597820213
-0.39170000000000005,-41.06906903508202
-0.39269999999999994,-40.559772967130606
-0.39370000000000005,-40.43244895014274
-0.39469999999999994,-42.115955396982145
-0.39570000000000005,-42.2715736399673
-0.39669999999999994,-42.34230920496055
-0.39770000000000005,-43.37504845386202
-0.39869999999999994,-44.43608192876081
-0.39970000000000006,-44.36534636376755
-0.40069999999999995,-44.775612640728404
-0.40170000000000006,-45.80835188962989
-0.40269999999999995,-46.289353731584
-0.40370000000000006,-46.72791423454216
-0.40469999999999995,-47.30794586748683
-0.40570000000000006,-48.086037082412595
-0.40669999999999995,-48.567038924366706
-0.40770000000000006,-49.27439457429922
-0.40869999999999995,-49.81198486824794
-0.40970000000000006,-50.34957516219666
-0.41069999999999995,-50.80228277815347
-0.41170000000000007,-51.453049976091386
-0.41269999999999996,-52.132111400026595
-0.41370000000000007,-52.64140746797801
-0.41469999999999996,-53.29217466591593
-0.41570000000000007,-53.7873236208687
-0.41669999999999996,-54.14100144583495
-0.41770000000000007,-56.30550973462846
-0.41869999999999996,-56.333803960625765
-0.4197000000000001,-55.51327140670405
-0.42069999999999996,-56.70162889859067
-0.4217000000000001,-57.53630856551105
-0.42269999999999996,-58.24366421544356
-0.4237000000000001,-58.880284300382826
-0.42469999999999997,-59.842287984291055
-0.4257000000000001,-60.224260035254616
-0.42669999999999997,-60.21011292225596
-0.4277000000000001,-61.14382238016689
-0.42869999999999997,-61.936060708091304
-0.4297000000000001,-62.75659326201302
-0.43069999999999997,-63.59127292893339
-0.4317000000000001,-63.98739209289561
-0.4327,-64.59571795183757
-0.4337000000000001,-65.09086690679034
-0.4347,-65.95384079970802
-0.4357000000000001,-67.21293385658788
-0.4367,-68.07590774950557
-0.4377000000000001,-68.06176063650692
-0.4387,-67.9485837325177
-0.4397000000000001,-68.62764515645293
-0.4407,-69.7735613093436
-0.4417000000000001,-70.41018139428287
-0.4427,-71.04680147922215
-0.4437000000000001,-71.6551273381641
-0.4447,-71.76830424215332
-0.4457000000000001,-73.2254568810143
-0.4467,-74.17331345192387
-0.4477000000000001,-74.72505085887124
-0.4487,-76.0407323677457
-0.4497000000000001,-76.57832266169444
-0.4507,-75.64461320378352
-0.4517000000000001,-76.77638224367554
-0.4527,-78.02132818755678
-0.4537000000000001,-78.24768199553519
-0.4547,-78.14865220454463
-0.4557000000000001,-80.32730760633679
-0.4567,-81.28931129024501
-0.4577000000000001,-81.33175262924095
-0.4587,-82.19472652215863
-0.4597000000000001,-82.746463929106
-0.4607,-83.28405422305471
-0.4617000000000001,-83.86408585599938
-0.4627,-84.55729439293323
-0.4637000000000001,-85.42026828585092
-0.4647,-85.44856251184822
-0.4657000000000001,-85.66076920682796
-0.4667,-86.79253824672
-0.4677000000000001,-87.75454193062824
-0.4687,-88.88631097052026
-0.4697000000000001,-89.04192921350541
-0.4707,-89.80587331543254
-0.4717000000000001,-90.14540402740013
-0.4727,-90.96593658132187
-0.4737000000000001,-91.65914511825574
-0.4747,-92.32405942919229
-0.4757000000000001,-93.28606311310051
-0.4767,-93.20118043510863
-0.4777000000000001,-97.11993073573475
-0.4787,-95.47886562789132
-0.4797000000000001,-100.1332658044473
-0.4807,-101.80262513828804
-0.48170000000000013,-94.47442060498715
-0.4827,-101.56212421731098
-0.48370000000000013,-101.37821174832852
-0.4847,-98.20925843663085
-0.48570000000000013,-101.01038681036361
-0.4867,-102.19874430225026
-0.48570000000000013,-99.24199768553233
-0.4847,-98.26584688862545
-0.48370000000000013,-98.54878914859844
-0.4827,-97.13407784873341
-0.48170000000000013,-96.0871914868333
-0.4807,-95.25251181991293
-0.4797000000000001,-94.5451561699804
-0.4787,-94.14903700601819
-0.4777000000000001,-92.29576520319499
-0.4767,-92.4655305591788
-0.4757000000000001,-90.42834628737315
-0.4747,-88.6741042755405
-0.4737000000000001,-89.73513775043928
-0.4727,-89.80587331543254
-0.4717000000000001,-87.0471862806957
-0.4707,-86.45300753475239
-0.4697000000000001,-85.67491631982661
-0.4687,-84.07629255097913
-0.4677000000000001,-82.18057940915998
-0.4667,-82.95867062408576
-0.4657000000000001,-82.67572836411274
-0.4647,-81.96837271418022
-0.4637000000000001,-82.88793505909248
