Potential V vs RHE, Current mA cm-2
0.4132999999999999,0.004446437615475811
0.4122999999999999,0.002530918515458551
0.4112999999999999,0.001967863418112266
0.4102999999999999,0.0017118006728366944
0.4092999999999999,0.0014896909987578836
0.4082999999999999,0.001309456779155078
0.4072999999999999,0.00107914177953705
0.4062999999999999,0.0008921169456948922
0.4052999999999999,0.0007595584968975381
0.4042999999999999,0.0006018181869625866
0.4032999999999999,0.0004818506687340315
0.4022999999999999,0.00030317263156107735
0.4012999999999999,0.00014826174422585584
0.4002999999999999,4.913292344431272e-05
0.3992999999999999,-6.112967526716824e-05
0.3982999999999999,-0.00019367397695152353
0.3972999999999999,-0.0003318912709483376
0.3962999999999999,-0.0004729379875448818
0.3952999999999999,-0.0005510300512974318
0.3942999999999999,-0.0006207753183807782
0.39329999999999987,-0.000733952222369981
0.39229999999999987,-0.0008762721791364037
0.39129999999999987,-0.0010157627133030962
0.39029999999999987,-0.0010661264355782915
0.38929999999999987,-0.0011470479219305716
0.38829999999999987,-0.0012531512694204494
0.38729999999999987,-0.0013605278570802057
0.38629999999999987,-0.0014911057100577487
0.38529999999999986,-0.0015689148315503256
0.38429999999999986,-0.0016071120366466815
0.38329999999999986,-0.00173302134233467
0.38229999999999986,-0.0018362952672248177
0.38129999999999986,-0.001955131016413481
0.38029999999999986,-0.002001816489309027
0.37929999999999986,-0.002045672539604843
0.37829999999999986,-0.0021404581966958007
0.37729999999999986,-0.002235243853786758
0.37629999999999986,-0.002351250180375691
0.37529999999999986,-0.002413497477569753
0.37429999999999986,-0.0024516946826661085
0.37329999999999985,-0.0025408214945576058
0.37229999999999985,-0.002679463201944379
0.37129999999999985,-0.0027586870347368216
0.37029999999999985,-0.002822349043230748
0.36929999999999985,-0.0028577168257273742
0.36829999999999985,-0.0029242082568210303
0.36729999999999985,-0.0030515322738088844
0.36629999999999985,-0.0031632944664982217
0.36529999999999985,-0.0031689533116976824
0.36429999999999985,-0.003242518299290664
0.36329999999999985,-0.0033005214625851306
0.36229999999999984,-0.0034349190360723086
0.36129999999999984,-0.0035226311366639415
0.36029999999999984,-0.0035707313208593527
0.35929999999999984,-0.0036131726598553036
0.35829999999999984,-0.003666931689250175
0.35729999999999984,-0.0037758644593397827
0.35629999999999984,-0.003901773765027772
0.35529999999999984,-0.0039003590537279066
0.35429999999999984,-0.003969679907421294
0.35329999999999984,-0.004034756627215085
0.35229999999999984,-0.004140859974704963
0.35129999999999983,-0.00424413389959511
0.35029999999999983,-0.00426393985779322
0.34929999999999983,-0.004295063506390251
0.34829999999999983,-0.004370043205283098
0.34729999999999983,-0.004517173180469063
0.34629999999999983,-0.004559614519465014
0.34529999999999983,-0.004583664611562719
0.34429999999999983,-0.0046105441262601545
0.3432999999999998,-0.004678450268653676
0.3422999999999998,-0.0047774800596442285
0.3412999999999998,-0.0048595333150364016
0.3402999999999998,-0.004913292344431272
0.3392999999999998,-0.004927439457429923
0.3382999999999998,-0.004978369064225064
0.3372999999999998,-0.005092960679514131
0.3362999999999998,-0.005170769801006709
0.3352999999999998,-0.005203308160903605
0.3342999999999998,-0.005241505365999961
0.3332999999999998,-0.0052910202614952365
0.3322999999999998,-0.005399953031584845
0.3312999999999998,-0.005469273885278231
0.3302999999999998,-0.005497568111275533
0.3292999999999998,-0.0055315211824722935
0.3282999999999998,-0.005571133098868514
0.3272999999999998,-0.005680065868958122
0.3262999999999998,-0.005756460279150835
0.3252999999999999,-0.005764948546950025
0.3242999999999999,-0.005810219308545706
0.3232999999999999,-0.005863978337940577
0.3222999999999999,-0.005975740530629915
0.3212999999999999,-0.006054964363422357
0.3202999999999999,-0.006064867342521413
0.3192999999999999,-0.006100235125018038
0.3182999999999999,-0.006137017618814529
0.3172999999999999,-0.006230388564605622
0.3162999999999999,-0.006315271242597524
0.3152999999999999,-0.00633366248949577
0.3142999999999999,-0.00637610382849172
0.3132999999999999,-0.006402983343189157
0.3122999999999999,-0.006493524866380518
0.3112999999999999,-0.0065727486991729615
0.3102999999999999,-0.006601042925170261
0.3092999999999999,-0.006625093017267966
0.3082999999999999,-0.006691584448361623
0.3072999999999999,-0.0067651494359546056
0.3062999999999999,-0.006835885000947857
0.3052999999999999,-0.006857105670445833
0.3042999999999999,-0.0068754969173440775
0.3032999999999999,-0.0069235971015394904
0.3022999999999999,-0.007021212181230177
0.3012999999999999,-0.00710609485922208
0.3002999999999999,-0.007130144951319785
0.2992999999999999,-0.0071457067756183
0.2982999999999999,-0.007185318692014522
0.2972999999999999,-0.0072786896378056135
0.2962999999999999,-0.007355084047998325
0.2952999999999999,-0.007370645872296841
0.2942999999999999,-0.007396110675694412
0.2932999999999999,-0.007442796148589959
0.2922999999999999,-0.007529093537881725
0.2912999999999999,-0.007601243814174842
0.2902999999999999,-0.007621049772372953
0.2892999999999999,-0.007650758709670118
0.2882999999999999,-0.00768188235826715
0.2872999999999999,-0.007797888684856083
0.2862999999999999,-0.007838915312552168
0.2852999999999999,-0.00786438011594974
0.2842999999999999,-0.007896918475846634
0.2832999999999999,-0.007926627413143799
0.2822999999999999,-0.008014339513735431
0.2812999999999999,-0.008089319212628279
0.2802999999999999,-0.00809497805782774
0.2792999999999999,-0.008127516417724636
0.2782999999999999,-0.008158640066321667
0.2772999999999999,-0.008244937455613433
0.2762999999999999,-0.008329820133605335
0.2752999999999999,-0.008326990711005604
0.2742999999999999,-0.008365187916101961
0.2732999999999999,-0.008407629255097913
0.2722999999999999,-0.008482608953990762
0.2712999999999999,-0.008566076920682796
0.2702999999999999,-0.008573150477182122
0.2692999999999999,-0.00858305345628118
0.26829999999999987,-0.00861417710487821
0.26729999999999987,-0.008697645071570247
0.26629999999999987,-0.008774039481762958
0.26529999999999987,-0.008788186594761608
0.26429999999999987,-0.008807992552959717
0.26329999999999987,-0.008867410427554049
0.26229999999999987,-0.008931072436047977
0.26129999999999987,-0.009025858093138934
0.26029999999999986,-0.009024443381839069
0.25929999999999986,-0.00902161395923934
0.25829999999999986,-0.009066884720835021
0.25729999999999986,-0.009158840955326247
0.25629999999999986,-0.009229576520319499
0.25529999999999986,-0.00924938247851761
0.25429999999999986,-0.009273432570615317
0.25329999999999986,-0.00927767670451491
0.25229999999999986,-0.009388024185904384
0.25129999999999986,-0.009455930328297906
0.25029999999999986,-0.009477150997795883
0.24929999999999986,-0.009495542244694125
0.24829999999999985,-0.009513933491592371
0.24729999999999985,-0.009612963282582924
0.24629999999999985,-0.009666722311977795
0.24529999999999985,-0.009720481341372666
0.24429999999999985,-0.009733213743071453
0.24329999999999985,-0.009747360856070102
0.24229999999999985,-0.009830828822762141
0.24129999999999985,-0.009915711500754043
0.24029999999999985,-0.009928443902452828
0.23929999999999985,-0.009956738128450129
0.23829999999999985,-0.00997654408664824
0.23729999999999984,-0.01004727965164149
0.23629999999999984,-0.010123674061834204
0.23529999999999984,-0.010144894731332177
0.23429999999999984,-0.010156212421731097
0.23329999999999984,-0.010208556739826105
0.23229999999999984,-0.010279292304819356
0.23129999999999984,-0.010357101426311934
0.23029999999999984,-0.01036983382801072
0.22929999999999984,-0.010374077961910316
0.22829999999999984,-0.010416519300906266
0.22729999999999984,-0.010477351886800462
0.22629999999999983,-0.010582040522990473
0.22529999999999983,-0.010591943502089531
0.22429999999999983,-0.010597602347288989
0.22329999999999983,-0.01062872599588602
0.22229999999999983,-0.010713608673877923
0.22129999999999983,-0.01078292952757131
0.22029999999999983,-0.010809809042268746
0.21929999999999983,-0.010815467887468205
0.21829999999999983,-0.010864982782963481
0.21729999999999983,-0.010942791904456059
0.21629999999999983,-0.010992306799951335
0.21529999999999982,-0.0110220157372485
0.21429999999999982,-0.011047480540646071
0.21329999999999982,-0.011085677745742428
0.21229999999999982,-0.01116490157853487
0.21129999999999982,-0.011235637143528121
0.21029999999999982,-0.011254028390426368
0.20929999999999982,-0.011275249059924341
0.20829999999999982,-0.011295055018122453
0.20729999999999982,-0.011402573076912195
0.20629999999999982,-0.011463405662806393
0.20529999999999982,-0.011488870466203964
0.20429999999999982,-0.01152989709390005
0.20329999999999981,-0.01152989709390005
0.2022999999999998,-0.011636000441389925
0.2012999999999998,-0.011710980140282774
0.20029999999999992,-0.011713809562882503
0.19929999999999992,-0.01173220080978075
0.19829999999999992,-0.011766153880977511
0.19729999999999992,-0.011849621847669549
0.19629999999999992,-0.011934504525661449
0.19529999999999992,-0.01194016337086091
0.19429999999999992,-0.012027875471452542
0.19329999999999992,-0.012061828542649302
0.19229999999999992,-0.01209153747994647
0.19129999999999991,-0.012183493714437697
0.1902999999999999,-0.012183493714437697
0.1892999999999999,-0.012201884961335941
0.1882999999999999,-0.012259888124630408
0.1872999999999999,-0.012322135421824471
0.1862999999999999,-0.012398529832017181
0.1852999999999999,-0.012416921078915425
0.1842999999999999,-0.012423994635414753
0.1832999999999999,-0.012477753664809623
0.1822999999999999,-0.012540000962003686
0.1812999999999999,-0.012633371907794776
0.1802999999999999,-0.012654592577292753
0.1792999999999999,-0.012668739690291404
0.1782999999999999,-0.01268430151458992
0.1772999999999999,-0.01277484303778128
0.1762999999999999,-0.012831431489775882
0.1752999999999999,-0.012879531673971295
0.1742999999999999,-0.012893678786969945
0.1732999999999999,-0.01292055830166738
0.1722999999999999,-0.013028076360457124
0.1712999999999999,-0.013098811925450374
0.1702999999999999,-0.013121447306248216
0.1692999999999999,-0.013148326820945652
0.1682999999999999,-0.013172376913043356
0.1672999999999999,-0.013271406704033909
0.1662999999999999,-0.013326580444728646
0.1652999999999999,-0.013347801114226622
0.1642999999999999,-0.013367607072424731
0.1632999999999999,-0.013402974854921357
0.1622999999999999,-0.01349068695551299
0.1612999999999999,-0.013568496077005568
0.1602999999999999,-0.013567081365705703
0.1592999999999999,-0.01360810799340179
0.15829999999999989,-0.013639231641998819
0.15729999999999988,-0.013719870186091125
0.15629999999999988,-0.013804752864083029
0.15529999999999988,-0.013824558822281138
0.15429999999999988,-0.013837291223979923
0.15329999999999988,-0.013874073717776415
0.15229999999999988,-0.013960371107068182
0.15129999999999988,-0.014039594939860626
0.15029999999999988,-0.014057986186758867
0.14929999999999988,-0.01407496272235725
0.14829999999999988,-0.014135795308251445
0.14729999999999988,-0.014175407224647668
0.14629999999999987,-0.01427443701563822
0.14529999999999987,-0.014288584128636872
0.14429999999999987,-0.01430273124163552
0.14329999999999987,-0.014373466806628774
0.14229999999999987,-0.014472496597619325
0.14129999999999987,-0.014529085049613928
0.14029999999999987,-0.014571526388609878
0.13929999999999987,-0.014571526388609878
0.13829999999999987,-0.01461396772760583
0.13729999999999987,-0.01469885040559773
0.13629999999999987,-0.014769585970590984
0.13529999999999986,-0.014812027309586936
0.13429999999999986,-0.014826174422585584
0.13329999999999986,-0.014854468648582884
0.13229999999999986,-0.014939351326574786
0.13129999999999986,-0.015024234004566688
0.13029999999999986,-0.015066675343562642
0.12929999999999986,-0.01509496956955994
0.12829999999999986,-0.015123263795557243
0.12729999999999986,-0.015208146473549147
0.12629999999999986,-0.015278882038542396
0.12529999999999986,-0.015293029151541045
0.12429999999999986,-0.015335470490536997
0.12329999999999985,-0.0153637647165343
0.12229999999999985,-0.01546279450752485
0.12129999999999985,-0.015533530072518101
0.12029999999999985,-0.015561824298515404
0.11929999999999985,-0.015575971411514053
0.11829999999999985,-0.015618412750510005
0.11729999999999985,-0.015703295428501907
0.11629999999999985,-0.01580232521949246
0.11529999999999985,-0.01580232521949246
0.11429999999999985,-0.01583061944548976
0.11329999999999985,-0.01588720789748436
0.11229999999999984,-0.015943796349478963
0.11129999999999984,-0.016042826140469518
0.11029999999999984,-0.016056973253468165
0.10929999999999984,-0.016071120366466816
0.10829999999999984,-0.01611356170546277
0.10729999999999984,-0.016212591496453318
0.10629999999999984,-0.01629747417444522
0.10529999999999984,-0.016311621287443873
0.10429999999999984,-0.016354062626439823
0.10329999999999984,-0.016410651078434424
0.10229999999999984,-0.016495533756426328
0.10129999999999983,-0.016552122208420932
0.10029999999999983,-0.01660871066041553
0.09929999999999983,-0.01660871066041553
0.09829999999999983,-0.016679446225408782
0.09729999999999983,-0.016764328903400686
0.09629999999999983,-0.01683506446839394
0.09529999999999983,-0.01687750580738989
0.09429999999999983,-0.01691994714638584
0.09329999999999983,-0.01693409425938449
0.09229999999999983,-0.017047271163373692
0.09129999999999983,-0.017118006728366945
0.09029999999999982,-0.017160448067362895
0.08929999999999982,-0.017188742293360197
0.08829999999999982,-0.017202889406358845
0.08729999999999982,-0.0173019191973494
0.08629999999999982,-0.017400948988339954
0.08529999999999982,-0.017429243214337253
0.08429999999999982,-0.01748583166633185
0.08329999999999982,-0.017499978779330502
0.08229999999999982,-0.017599008570321057
0.08129999999999982,-0.01771218547431026
0.08029999999999982,-0.01772633258730891
0.07929999999999982,-0.017754626813306213
0.07829999999999981,-0.017782921039303512
0.07729999999999981,-0.017881950830294063
0.07629999999999981,-0.018009274847281917
0.07529999999999992,-0.018009274847281917
0.07429999999999992,-0.018051716186277867
0.07329999999999992,-0.018094157525273817
0.07229999999999992,-0.01817904020326572
0.07129999999999992,-0.018292217107254923
0.07029999999999992,-0.018320511333252226
0.06929999999999992,-0.018334658446250877
0.06829999999999992,-0.018391246898245478
0.06729999999999992,-0.018461982463238727
0.06629999999999991,-0.01858930648022658
0.06529999999999991,-0.018617600706223883
0.06429999999999991,-0.018631747819222534
0.06329999999999991,-0.018716630497214438
0.06229999999999991,-0.018815660288204986
0.06129999999999991,-0.01891469007919554
0.06029999999999991,-0.01897127853119014
0.05929999999999991,-0.01897127853119014
0.05829999999999991,-0.019013719870186095
0.05729999999999991,-0.019112749661176646
0.056299999999999906,-0.019211779452167198
0.055299999999999905,-0.019254220791163148
0.054299999999999904,-0.0192683679041618
0.0532999999999999,-0.01933910346915505
0.0522999999999999,-0.019438133260145606
0.0512999999999999,-0.019537163051136158
0.0502999999999999,-0.019565457277133456
0.0492999999999999,-0.019607898616129407
0.0482999999999999,-0.01963619284212671
0.0472999999999999,-0.01973522263311726
0.0462999999999999,-0.019820105311109164
0.045299999999999896,-0.019876693763103765
0.044299999999999895,-0.019919135102099715
0.043299999999999894,-0.019961576441095665
0.04229999999999989,-0.02006060623208622
0.04129999999999989,-0.02015963602307677
0.04029999999999989,-0.020244518701068675
0.03929999999999989,-0.020286960040064625
0.03829999999999989,-0.020315254266061927
0.03729999999999989,-0.02041428405705248
0.03629999999999989,-0.02052746096104168
0.03529999999999989,-0.02055575518703898
0.034299999999999886,-0.020598196526034934
0.033299999999999885,-0.020668932091028186
0.032299999999999884,-0.02075381476902009
0.031299999999999883,-0.02086699167300929
0.030299999999999883,-0.020923580125003893
0.02929999999999988,-0.020937727238002544
0.02829999999999988,-0.021008462802995797
0.02729999999999988,-0.021093345480987697
0.02629999999999988,-0.02122066949797555
0.025299999999999878,-0.0212631108369715
0.024299999999999877,-0.021305552175967454
0.023299999999999876,-0.021376287740960703
0.022299999999999875,-0.021447023305953956
0.021299999999999875,-0.021560200209943158
0.020299999999999874,-0.02163093577493641
0.019299999999999873,-0.021645082887935062
0.018299999999999872,-0.021701671339929663
0.01729999999999987,-0.021814848243918866
0.01629999999999987,-0.021913878034909417
0.01529999999999987,-0.02198461359990267
0.014299999999999868,-0.02204120205189727
0.013299999999999867,-0.022097790503891875
0.012299999999999978,-0.022196820294882423
0.011299999999999866,-0.02230999719887163
0.010299999999999976,-0.02238073276386488
0.009299999999999864,-0.02240902698986218
0.008299999999999974,-0.022465615441856785
0.007299999999999862,-0.022564645232847336
0.006299999999999972,-0.02267782213683654
0.00529999999999986,-0.02274855770182979
0.0042999999999999705,-0.02280514615382439
0.0032999999999998586,-0.022847587492820343
0.0022999999999999687,-0.022960764396809545
0.0012999999999998568,-0.0230880884137974
0.00029999999999996696,-0.02313052975279335
-0.000700000000000145,-0.0232012653177866
-0.0017000000000000348,-0.02324370665678255
-0.0027000000000001467,-0.023342736447773106
-0.0037000000000000366,-0.02345591335176231
-0.0047000000000001485,-0.023512501803756906
-0.005700000000000038,-0.02356909025575151
-0.00670000000000015,-0.023625678707746112
-0.00770000000000004,-0.023710561385738016
-0.008700000000000152,-0.02385203251572452
-0.009700000000000042,-0.02390862096771912
-0.010700000000000154,-0.02397935653271237
-0.011700000000000044,-0.024050092097705623
-0.012700000000000156,-0.024120827662698876
-0.013700000000000045,-0.02426229879268538
-0.014700000000000157,-0.024318887244679982
-0.015700000000000047,-0.02436132858367593
-0.01670000000000016,-0.024432064148669184
-0.01770000000000005,-0.02453109393965974
-0.01870000000000016,-0.024644270843648942
-0.01970000000000005,-0.02474330063463949
-0.020700000000000163,-0.02475744774763814
-0.021700000000000053,-0.02482818331263139
-0.022700000000000164,-0.0249413602166206
-0.023700000000000054,-0.025040390007611147
-0.024700000000000166,-0.025139419798601705
-0.025700000000000056,-0.025167714024599004
-0.026700000000000168,-0.025238449589592253
-0.027700000000000058,-0.025337479380582808
-0.02870000000000017,-0.02545065628457201
-0.02970000000000006,-0.025521391849565263
-0.03070000000000017,-0.025577980301559864
-0.03170000000000006,-0.02562042164055581
-0.03270000000000017,-0.02573359854454502
-0.03370000000000006,-0.025846775448534223
-0.034700000000000175,-0.02591751101352747
-0.035700000000000065,-0.025974099465522073
-0.03670000000000018,-0.026044835030515325
-0.03770000000000007,-0.026158011934504528
-0.03870000000000018,-0.02627118883849373
-0.03970000000000007,-0.026341924403486983
-0.04070000000000018,-0.026412659968480235
-0.04170000000000007,-0.02645510130747619
-0.04270000000000018,-0.02655413109846674
-0.04370000000000007,-0.026709749341451892
-0.044700000000000184,-0.026752190680447843
-0.045700000000000074,-0.026808779132442447
-0.046700000000000186,-0.026879514697435696
-0.047700000000000076,-0.0269643973754276
-0.04870000000000019,-0.02709172139241545
-0.04970000000000008,-0.027148309844410055
-0.05070000000000019,-0.027204898296404656
-0.05170000000000008,-0.02727563386139791
-0.05270000000000019,-0.02736051653938981
-0.05370000000000008,-0.027487840556377662
-0.05470000000000019,-0.027544429008372267
-0.05570000000000008,-0.027601017460366868
-0.056700000000000195,-0.02768590013835877
-0.057700000000000085,-0.027770782816350672
-0.058700000000000196,-0.027898106833338522
-0.059700000000000086,-0.02796884239833177
-0.0607000000000002,-0.027997136624329073
-0.06170000000000009,-0.02811031352831828
-0.0627000000000002,-0.028251784658304784
