Potential V vs RHE, Current mA cm-2
0.013299999999999867,-7.679052935667419
0.012299999999999978,-9.728969609171857
0.011299999999999866,-11.343155202317865
0.010299999999999976,-12.781916594280606
0.009299999999999864,-14.002812446064135
0.008299999999999974,-15.094969569559943
0.007299999999999862,-16.099414592464115
0.006299999999999972,-16.919947146385837
0.00529999999999986,-17.627302796318357
0.0042999999999999705,-18.27806999425627
0.0032999999999998586,-18.80151317520634
0.0022999999999999687,-19.3249563561564
0.0012999999999998568,-19.763516859114564
0.00029999999999996696,-20.244518701068674
-0.000700000000000145,-20.626490752032236
-0.0017000000000000348,-21.107492593986347
-0.0027000000000001467,-21.54605309694451
-0.0037000000000000366,-21.94217226090672
-0.0047000000000001485,-22.38073276386488
-0.005700000000000038,-22.67782213683654
-0.00670000000000015,-23.031499961802798
-0.00770000000000004,-23.300295108777156
-0.008700000000000152,-23.55494314275286
-0.009700000000000042,-23.767149837732617
-0.010700000000000154,-23.993503645711023
-0.011700000000000044,-24.290593018682678
-0.012700000000000156,-24.516946826661083
-0.013700000000000045,-24.814036199632742
-0.014700000000000157,-25.12527268560305
-0.015700000000000047,-25.39406783257741
-0.01670000000000016,-25.648715866553115
-0.01770000000000005,-25.91751101352747
-0.01870000000000016,-26.087276369511276
-0.01970000000000005,-26.257041725495082
-0.020700000000000163,-26.440954194477534
-0.021700000000000053,-26.568278211465387
-0.022700000000000164,-26.780484906445146
-0.023700000000000054,-26.907808923433
-0.024700000000000166,-27.176604070407354
-0.025700000000000056,-27.38881076538711
-0.026700000000000168,-27.615164573365515
-0.027700000000000058,-27.869812607341224
-0.02870000000000017,-28.05372507632368
-0.02970000000000006,-28.22349043230748
-0.03070000000000017,-28.393255788291288
-0.03170000000000006,-28.53472691827779
-0.03270000000000017,-28.662050935265643
-0.03370000000000006,-28.746933613257543
-0.034700000000000175,-28.91669896924135
-0.035700000000000065,-29.100611438223805
-0.03670000000000018,-29.31281813320356
-0.03770000000000007,-29.482583489187363
-0.03870000000000018,-29.708937297165768
-0.03970000000000007,-29.921143992145527
-0.04070000000000018,-30.147497800123933
-0.04170000000000007,-30.274821817111786
-0.04270000000000018,-30.402145834099635
-0.04370000000000007,-30.571911190083444
-0.044700000000000184,-30.670940981073993
-0.045700000000000074,-30.79826499806185
-0.046700000000000186,-30.968030354045652
-0.047700000000000076,-31.137795710029454
-0.04870000000000019,-31.321708179011907
-0.04970000000000008,-31.49147353499572
-0.05070000000000019,-31.717827342974125
-0.05170000000000008,-31.887592698957924
-0.05270000000000019,-32.05735805494172
-0.05370000000000008,-32.184682071929586
-0.05470000000000019,-32.32615320191609
-0.05570000000000008,-32.45347721890394
-0.056700000000000195,-32.53835989689585
-0.057700000000000085,-32.66568391388369
-0.058700000000000196,-32.807155043870196
-0.059700000000000086,-33.01936173884996
-0.0607000000000002,-33.18912709483376
-0.06170000000000009,-33.41548090281216
-0.0627000000000002,-33.627687597791926
-0.06370000000000009,-33.81160006677438
-0.0647000000000002,-33.98136542275818
-0.06570000000000009,-34.10868943974604
-0.0667000000000002,-34.236013456733886
-0.0677000000000001,-34.377484586720385
-0.0687000000000002,-34.462367264712285
-0.0697000000000001,-34.58969128170015
-0.07070000000000021,-34.75945663768395
-0.0717000000000001,-34.94336910666641
-0.07270000000000021,-35.15557580164616
-0.0737000000000001,-35.32534115762997
-0.07470000000000021,-35.55169496560837
-0.0757000000000001,-35.679018982596226
-0.07670000000000021,-35.848784338580025
-0.0777000000000001,-35.94781412957058
-0.07870000000000021,-36.07513814655844
-0.0797000000000001,-36.16002082455034
-0.08070000000000022,-36.28734484153819
-0.0817000000000001,-36.4288159715247
-0.08270000000000022,-36.5985813275085
-0.08370000000000011,-36.768346683492304
-0.08470000000000022,-36.95225915247476
-0.08570000000000011,-37.164465847454515
-0.08670000000000022,-37.334231203438314
-0.08770000000000011,-37.51814367242077
-0.08870000000000022,-37.645467689408626
-0.08970000000000011,-37.73035036740053
-0.09070000000000022,-37.85767438438838
-0.09170000000000011,-37.94255706238028
-0.09270000000000023,-38.08402819236679
-0.09370000000000012,-38.211352209354644
-0.09470000000000023,-38.42355890433439
-0.09570000000000012,-38.5650300343209
-0.09670000000000023,-38.777236729300654
-0.09770000000000012,-38.94700208528445
-0.09870000000000023,-39.08847321527096
-0.09970000000000012,-39.30067991025072
-0.10070000000000023,-39.38556258824262
-0.10170000000000012,-39.47044526623452
-0.10270000000000024,-39.61191639622103
-0.10370000000000013,-39.696799074212926
-0.10470000000000024,-39.78168175220483
-0.10570000000000013,-39.95144710818864
-0.10670000000000024,-40.092918238175145
-0.10770000000000013,-40.30512493315489
-0.10870000000000024,-40.4748902891387
-0.10970000000000013,-40.65880275812115
-0.11070000000000024,-40.828568114104954
-0.11170000000000013,-40.95589213109281
-0.11270000000000002,-41.04077480908471
-0.11370000000000013,-41.182245939071215
-0.11470000000000002,-41.267128617063115
-0.11570000000000014,-41.39445263405098
-0.11670000000000003,-41.52177665103883
-0.11770000000000014,-41.66324778102533
-0.11870000000000003,-41.87545447600508
-0.11970000000000014,-42.00277849299294
-0.12070000000000003,-42.229132300971344
-0.12170000000000014,-42.39889765695515
-0.12270000000000003,-42.568663012938956
-0.12370000000000014,-42.71013414292546
-0.12470000000000003,-42.752575481921404
-0.12570000000000014,-42.79501682091736
-0.12670000000000003,-42.87989949890926
-0.12770000000000015,-43.007223515897124
-0.12870000000000004,-43.134547532884966
-0.12970000000000015,-43.36090134086337
-0.13070000000000004,-43.57310803584313
-0.13170000000000015,-43.79946184382153
-0.13270000000000004,-44.054109877797245
-0.13370000000000015,-44.223875233781044
-0.13470000000000004,-44.45022904175945
-0.13570000000000015,-44.577553058747306
-0.13670000000000004,-44.704877075735155
-0.13770000000000016,-44.84634820572166
-0.13870000000000005,-44.97367222270952
-0.13970000000000016,-45.143437578693316
-0.14070000000000005,-45.32735004767578
-0.14170000000000016,-45.53955674265553
-0.14270000000000005,-45.70932209863933
-0.14370000000000016,-45.93567590661774
-0.14470000000000005,-46.147882601597495
-0.14570000000000016,-46.3176479575813
-0.14670000000000005,-46.501560426563756
-0.14770000000000016,-46.628884443551605
-0.14870000000000005,-46.75620846053947
-0.14970000000000017,-46.88353247752732
-0.15070000000000006,-47.02500360751382
-0.15170000000000017,-47.15232762450167
-0.15270000000000006,-47.32209298048547
-0.15370000000000017,-47.54844678846388
-0.15470000000000006,-47.76065348344364
-0.15570000000000017,-47.987007291422046
-0.15670000000000006,-48.156772647405845
-0.15770000000000017,-48.36897934238561
-0.15870000000000006,-48.55289181136806
-0.15970000000000018,-48.68021582835591
-0.16070000000000007,-48.84998118433972
-0.16170000000000018,-49.03389365332217
-0.16270000000000007,-49.20365900930597
-0.16370000000000018,-49.41586570428573
-0.16470000000000007,-49.72710219025603
-0.16570000000000018,-49.98175022423175
-0.16670000000000007,-50.2505453712061
-0.16770000000000018,-50.547634744177756
-0.16870000000000007,-50.81642989115212
-0.16970000000000018,-51.071077925127824
-0.17070000000000007,-51.33987307210218
-0.17170000000000019,-51.55207976708194
-0.17270000000000008,-51.77843357506035
-0.1737000000000002,-51.990640270040096
-0.17470000000000008,-52.25943541701445
-0.1757000000000002,-52.55652478998611
-0.17670000000000008,-52.91020261495237
-0.1777000000000002,-53.16485064892808
-0.17870000000000008,-53.518528473894335
-0.1797000000000002,-53.872206298860604
-0.18070000000000008,-54.16929567183226
-0.1817000000000002,-54.52297349679851
-0.18270000000000008,-54.791768643772876
-0.1837000000000002,-55.046416677748574
-0.1847000000000001,-55.31521182472294
-0.1857000000000002,-55.612301197694585
-0.1867000000000001,-55.9235376836649
-0.1877000000000002,-56.22062705663656
-0.1887000000000001,-56.61674622059877
-0.1897000000000002,-57.012865384560975
-0.1907000000000001,-57.45142588751914
-0.1917000000000001,-57.79095659948675
-0.19269999999999998,-58.18707576344896
-0.1937000000000001,-58.54075358841522
-0.19469999999999998,-58.83784296138688
-0.1957000000000001,-59.19152078635314
-0.19669999999999999,-59.502757272323436
-0.1977000000000001,-59.842287984291055
-0.1987,-60.23840714825326
-0.1997000000000001,-60.63452631221547
-0.2007,-61.07308681517363
-0.2017000000000001,-61.49750020513315
-0.2027,-61.936060708091304
-0.2037000000000001,-62.33217987205352
-0.2047,-62.72829903601572
-0.2057000000000001,-63.11027108697928
-0.2067,-63.5063902509415
-0.2077000000000001,-63.860068075907755
-0.2087,-64.19959878787537
-0.2097000000000001,-64.59571795183757
-0.2107,-64.94939577680383
-0.2117000000000001,-65.4728389577539
-0.2127,-65.91139946071206
-0.2137000000000001,-66.39240130266617
-0.2147,-66.87340314462028
-0.2157000000000001,-67.34025787357575
-0.2167,-67.7788183765339
-0.21770000000000012,-68.21737887949207
-0.2187,-68.61349804345427
-0.21970000000000012,-69.0096172074165
-0.2207,-69.43403059737601
-0.22170000000000012,-69.8301497613382
-0.2227,-70.31115160329232
-0.22370000000000012,-70.79215344524643
-0.2247,-71.35803796519245
-0.22570000000000012,-71.8814811461425
-0.2267,-72.36248298809663
-0.22770000000000012,-72.84348483005074
-0.22870000000000001,-73.32448667200485
-0.22970000000000013,-73.76304717496302
-0.23070000000000002,-74.20160767792116
-0.23170000000000013,-74.62602106788069
-0.23270000000000002,-75.06458157083884
-0.23370000000000013,-75.54558341279296
-0.23470000000000002,-76.06902659374302
-0.23570000000000013,-76.5924697746931
-0.23670000000000002,-77.1583542946391
-0.2376999999999999,-77.68179747558916
-0.23870000000000002,-78.24768199553519
-0.2396999999999999,-78.77112517648524
-0.24070000000000003,-79.2945683574353
-0.24169999999999991,-79.7755701993894
-0.24270000000000003,-80.25657204134353
-0.24369999999999992,-80.7800152222936
-0.24470000000000003,-81.26101706424771
-0.24569999999999992,-81.78446024519776
-0.24670000000000003,-82.35034476514379
-0.24769999999999992,-82.87378794609386
-0.24870000000000003,-83.48211380503581
-0.24969999999999992,-84.04799832498183
-0.25070000000000003,-84.61388284492786
-0.2516999999999999,-85.13732602587791
-0.25270000000000004,-85.61832786783202
-0.2536999999999999,-86.14177104878208
-0.25470000000000004,-86.66521422973216
-0.2556999999999999,-87.14621607168625
-0.25670000000000004,-87.66965925263632
-0.25769999999999993,-88.23554377258235
-0.25870000000000004,-88.80142829252836
-0.25969999999999993,-89.36731281247435
-0.26070000000000004,-90.03222712341093
-0.26169999999999993,-90.59811164335694
-0.26270000000000004,-91.16399616330297
-0.26369999999999993,-91.68743934425302
-0.26470000000000005,-92.2108825252031
-0.26569999999999994,-92.73432570615316
-0.26670000000000005,-93.21532754810727
-0.26769999999999994,-93.78121206805329
-0.26870000000000005,-94.30465524900335
-0.26969999999999994,-94.87053976894937
-0.27070000000000005,-95.47886562789132
-0.27169999999999994,-96.0871914868333
-0.27270000000000005,-96.69551734577524
-0.27369999999999994,-97.26140186572127
-0.27470000000000006,-97.84143349866595
-0.27569999999999995,-98.364876679616
-0.27670000000000006,-98.88831986056607
-0.27769999999999995,-99.35517458952152
-0.27870000000000006,-99.87861777047159
-0.27969999999999995,-100.40206095142165
-0.28070000000000006,-100.92550413237171
-0.28169999999999995,-101.54797710431234
-0.28270000000000006,-102.11386162425833
-0.28369999999999995,-102.67974614420436
-0.28470000000000006,-103.24563066415038
-0.28569999999999995,-103.81151518409638
-0.28670000000000007,-104.33495836504645
-0.28769999999999996,-104.81596020700057
-0.28870000000000007,-105.33940338795064
-0.28969999999999996,-105.82040522990474
-0.29070000000000007,-106.30140707185885
-0.29169999999999996,-106.78240891381296
-0.29270000000000007,-107.34829343375898
-0.29369999999999996,-107.914177953705
-0.2947000000000001,-108.43762113465506
-0.29569999999999996,-109.00350565460108
-0.2967000000000001,-109.52694883555114
-0.29769999999999996,-110.09283335549715
-0.2987000000000001,-110.57383519745127
-0.29969999999999997,-111.05483703940537
-0.3007000000000001,-111.5358388813595
-0.30169999999999997,-111.96025227131899
-0.3027000000000001,-112.44125411327312
-0.30369999999999997,-112.92225595522721
-0.3047000000000001,-113.40325779718134
-0.30569999999999997,-113.92670097813141
-0.3067000000000001,-114.45014415908147
-0.3077,-115.01602867902749
-0.3087000000000001,-115.4970305209816
-0.3097,-115.97803236293572
-0.3107000000000001,-116.45903420488982
-0.3117,-116.89759470784797
-0.3127000000000001,-117.33615521080614
-0.3137,-117.71812726176971
-0.3147000000000001,-118.15668776472786
-0.3157,-118.63768960668197
-0.3167000000000001,-119.1186914486361
-0.3177,-119.64213462958614
-0.3187000000000001,-120.12313647154028
-0.3197,-120.64657965249035
-0.3207000000000001,-121.12758149444444
-0.3217,-121.60858333639854
-0.3227000000000001,-122.00470250036076
-0.3237,-122.42911589032028
-0.3247000000000001,-122.82523505428249
-0.3257,-123.2213542182447
-0.3267000000000001,-123.65991472120285
-0.3277,-124.09847522416102
-0.3287000000000001,-124.57947706611512
-0.3297,-125.00389045607463
-0.3307000000000001,-125.48489229802875
-0.3317,-125.96589413998288
-0.3327000000000001,-126.40445464294103
-0.3337,-126.84301514589919
-0.3347000000000001,-127.23913430986138
-0.3357,-127.57866502182902
-0.3367000000000001,-127.93234284679528
-0.3377,-128.37090334975343
-0.3387000000000001,-128.71043406172103
-0.3397,-129.1489945646792
-0.3407000000000001,-129.6299964066333
-0.3417,-130.11099824858744
-0.3427000000000001,-130.63444142953747
-0.3437,-131.07300193249566
-0.3447000000000001,-131.5115624354538
-0.3457,-131.89353448641737
-0.3467000000000001,-132.2896536503796
-0.3477,-132.6857728143418
-0.3487000000000001,-133.03945063930803
-0.3497,-133.46386402926754
-0.3507000000000001,-133.90242453222572
-0.3517,-134.34098503518388
-0.3527000000000001,-134.82198687713802
-0.3537,-135.26054738009617
-0.3547000000000001,-135.74154922205025
-0.3557,-136.1801097250084
-0.35670000000000013,-136.60452311496792
-0.3577,-137.00064227893017
-0.35870000000000013,-137.39676144289237
-0.3597,-137.75043926785864
-0.36070000000000013,-138.17485265781812
-0.3617,-138.52853048278442
-0.3626999999999999,-138.96709098574257
-0.3637,-139.44809282769666
-0.3646999999999999,-139.9290946696508
-0.3657,-140.41009651160488
-0.3666999999999999,-140.89109835355902
-0.3677,-141.3155117435185
-0.3686999999999999,-141.75407224647665
-0.36970000000000003,-142.17848563643616
-0.3706999999999999,-142.6028990263957
-0.37170000000000003,-143.0273124163552
-0.3726999999999999,-143.3102546763282
-0.37370000000000003,-143.73466806628772
-0.3746999999999999,-144.30055258623375
-0.37570000000000003,-144.72496597619326
-0.3766999999999999,-145.29085049613926
-0.37770000000000004,-145.7152638860988
-0.3786999999999999,-146.28114840604482
-0.37970000000000004,-146.7055617960043
-0.3806999999999999,-147.27144631595033
-0.38170000000000004,-147.6958597059098
-0.38269999999999993,-148.12027309586935
-0.38370000000000004,-148.54468648582886
-0.38469999999999993,-148.96909987578834
-0.38570000000000004,-149.53498439573437
-0.38669999999999993,-148.26174422585584
-0.38570000000000004,-144.44202371622026
-0.38469999999999993,-141.3721001955131
-0.38370000000000004,-138.52853048278442
-0.38269999999999993,-135.86887323903812
-0.38170000000000004,-133.3365400122797
-0.3806999999999999,-130.90323657651186
-0.37970000000000004,-128.54066870573723
-0.3786999999999999,-126.23468928695722
-0.37770000000000004,-123.95700409417452
-0.3766999999999999,-121.77834869238235
-0.37570000000000003,-119.64213462958614
-0.3746999999999999,-117.59080324478184
-0.37370000000000003,-115.5819131989735
-0.3726999999999999,-113.58717026616378
-0.37170000000000003,-111.66316289834735
-0.3706999999999999,-109.73915553053091
-0.36970000000000003,-107.78685393671715
-0.3686999999999999,-105.90528790789664
-0.3677,-104.02372187907615
-0.3666999999999999,-102.19874430225026
-0.3657,-100.35961961242569
-0.3646999999999999,-98.6195247135917
-0.3637,-96.92187115375367
-0.3626999999999999,-95.26665893291157
-0.3617,-93.65388805106544
-0.36070000000000013,-92.08355850821525
-0.3597,-90.51322896536506
-0.35870000000000013,-88.9004580835189
-0.3577,-87.33012854066871
-0.35670000000000013,-85.80224033681448
-0.3557,-84.18946945496833
-0.3547000000000001,-82.70402259011003
-0.3537,-81.26101706424771
-0.3527000000000001,-79.7755701993894
-0.3517,-78.38915312552167
-0.3507000000000001,-76.98858893865528
-0.3497,-75.6729074297808
-0.3487000000000001,-74.32893169490903
-0.3477,-73.01325018603454
-0.3467000000000001,-71.66927445116276
-0.3457,-70.31115160329232
-0.3447000000000001,-69.0096172074165
-0.3437,-67.693935698542
-0.3427000000000001,-66.39240130266617
-0.3417,-65.16160247178358
-0.3407000000000001,-63.944950753899654
-0.3397,-62.81318171400764
-0.3387000000000001,-61.6814126741156
-0.3377,-60.54964363422357
-0.3367000000000001,-59.44616882032884
-0.3357,-58.35684111943277
-0.3347000000000001,-57.182630740544774
-0.3337,-56.05086170065276
-0.3327000000000001,-54.919092660760725
-0.3317,-53.7873236208687
-0.3307000000000001,-52.74043725896857
-0.3297,-51.65110955807249
-0.3287000000000001,-50.68910587416426
-0.3277,-49.72710219025603
-0.3267000000000001,-48.76509850634781
-0.3257,-47.80309482243959
-0.3247000000000001,-46.88353247752732
-0.3237,-45.89323456762179
-0.3227000000000001,-44.93123088371356
-0.3217,-43.96922719980534
-0.3207000000000001,-42.96478217690117
-0.3197,-42.00277849299294
-0.3187000000000001,-41.083216148080666
-0.3177,-40.220242255162994
-0.3167000000000001,-39.38556258824262
-0.3157,-38.5650300343209
-0.3147000000000001,-37.77279170639648
-0.3137,-36.95225915247476
-0.3127000000000001,-36.16002082455034
-0.3117,-35.282899818634014
-0.3107000000000001,-34.50480860370825
-0.3097,-33.627687597791926
-0.3087000000000001,-32.807155043870196
-0.3077,-31.972475376949827
-0.3067000000000001,-31.23682550102001
-0.30569999999999997,-30.487028512091538
-0.3047000000000001,-29.793819975157668
-0.30369999999999997,-29.100611438223805
-0.3027000000000001,-28.393255788291288
-0.30169999999999997,-27.742488590353368
-0.3007000000000001,-27.049280053419505
-0.29969999999999997,-26.29948306449103
-0.2987000000000001,-25.60627452755716
-0.29769999999999996,-24.870624651627345
-0.2967000000000001,-24.120827662698876
-0.29569999999999996,-23.427619125765005
-0.2947000000000001,-22.72026347583249
-0.29369999999999996,-22.15437895588647
-0.29270000000000007,-21.503611757948562
-0.29169999999999996,-20.89528589900659
-0.29070000000000007,-20.329401379060574
-0.28969999999999996,-19.721075520118614
-0.28870000000000007,-19.112749661176647
-0.28769999999999996,-18.49027668923603
-0.28670000000000007,-17.839509491298113
-0.28569999999999995,-17.188742293360193
-0.28470000000000006,-16.580416434418233
-0.28369999999999995,-16.014531914472215
-0.28270000000000006,-15.448647394526201
-0.28169999999999995,-14.868615761581536
-0.28070000000000006,-14.345172580631472
-0.27969999999999995,-13.872659006476551
-0.27870000000000006,-13.349215825526485
-0.27769999999999995,-12.781916594280606
-0.27670000000000006,-12.258473413330542
-0.27569999999999995,-11.691174182084664
-0.27470000000000006,-11.123874950838783
-0.27369999999999994,-10.557990430892769
-0.27270000000000005,-10.034547249942705
-0.27169999999999994,-9.467248018696827
-0.27070000000000005,-8.987660888042578
-0.26969999999999994,-8.55051509638428
-0.26870000000000005,-8.11478401602585
-0.26769999999999994,-7.635196885371603
-0.26670000000000005,-7.155609754717355
