Potential V vs RHE, Current mA cm-2
0.05339999999999995,-0.04858118603736536
0.05239999999999995,-0.0503071338232007
0.051399999999999946,-0.051042783699130526
0.050399999999999945,-0.051651109558072485
0.049399999999999944,-0.0521604056260239
0.04839999999999994,-0.052613113241980716
0.04739999999999994,-0.05309411508393482
0.04639999999999994,-0.053631705377883546
0.04539999999999994,-0.05409856010683901
0.04439999999999994,-0.05456541483579446
0.04339999999999994,-0.05506056379074723
0.04239999999999994,-0.05555571274569999
0.04139999999999994,-0.05607915592665005
0.040399999999999936,-0.05658845199460146
0.039399999999999935,-0.057069453836555574
0.038399999999999934,-0.057522161452512384
0.03739999999999993,-0.0579182806164746
0.03639999999999993,-0.05825781132844222
0.03539999999999993,-0.05863978337940577
0.03439999999999993,-0.059050049656366635
0.03339999999999993,-0.05955934572431805
0.03239999999999993,-0.0599979062272762
0.03139999999999993,-0.06046476095623167
0.030399999999999927,-0.060903321459189835
0.029399999999999926,-0.06134188196214799
0.028399999999999925,-0.06186532514309807
0.027399999999999924,-0.06237462121104946
0.026399999999999924,-0.06284147594000493
0.025399999999999923,-0.0632800364429631
0.024399999999999922,-0.06366200849392664
0.02339999999999992,-0.06402983343189157
0.02239999999999992,-0.06441180548285513
0.02139999999999992,-0.06487866021181057
0.020399999999999918,-0.0653596620537647
0.019399999999999917,-0.06574163410472825
0.018399999999999916,-0.06612360615569181
0.017399999999999916,-0.06661875511064458
0.016399999999999915,-0.06707146272660139
0.015399999999999914,-0.06746758189056361
0.014399999999999913,-0.06784955394152717
0.013399999999999912,-0.06824567310548936
0.012399999999999911,-0.06865593938245024
0.01139999999999991,-0.06912279411140569
0.01039999999999991,-0.0695755017273625
0.009399999999999908,-0.07001406223032067
0.008399999999999908,-0.07035359294228827
0.007399999999999907,-0.07079215344524643
0.006399999999999906,-0.07107509570521944
0.005399999999999905,-0.07135803796519245
0.004399999999999904,-0.07176830424215332
0.003399999999999903,-0.07213612918011822
0.002399999999999902,-0.07250395411808314
0.0013999999999999013,-0.07294251462104129
0.00039999999999990044,-0.0733669280110008
-0.0006000000000001005,-0.07376304717496303
-0.0016000000000001013,-0.07414501922592658
-0.0026000000000001022,-0.07455528550288744
-0.003600000000000103,-0.07495140466684964
-0.004600000000000104,-0.07536167094381051
-0.005600000000000105,-0.07575779010777271
-0.006600000000000106,-0.07613976215873627
-0.007600000000000107,-0.07649343998370253
-0.008600000000000108,-0.0769037062606634
-0.009600000000000108,-0.07731397253762426
-0.01060000000000011,-0.07768179747558916
-0.01160000000000011,-0.07804962241355407
-0.012600000000000111,-0.07844574157751628
-0.013600000000000112,-0.07885600785447715
-0.014600000000000113,-0.07925212701843935
-0.015600000000000114,-0.07959165773040697
-0.016600000000000115,-0.07994533555537323
-0.017600000000000116,-0.08027071915434218
-0.018600000000000116,-0.08066683831830439
-0.019600000000000117,-0.08106295748226659
-0.020600000000000118,-0.08138834108123556
-0.02160000000000012,-0.08175616601920047
-0.02260000000000012,-0.08208154961816942
-0.02360000000000012,-0.08244937455613434
-0.024600000000000122,-0.0828313466070979
-0.025600000000000123,-0.08312843598006955
-0.026600000000000124,-0.08345381957903851
-0.027600000000000124,-0.08375090895201018
-0.028600000000000125,-0.08407629255097913
-0.029600000000000126,-0.08440167614994809
-0.030600000000000127,-0.0847412068619157
-0.03160000000000013,-0.08503829623488735
-0.03260000000000013,-0.08536367983385632
-0.03360000000000013,-0.08567491631982663
-0.03460000000000002,-0.08601444703179424
-0.03560000000000002,-0.08631153640476588
-0.03660000000000002,-0.08658033155174025
-0.03760000000000002,-0.0868774209247119
-0.03860000000000002,-0.08716036318468491
-0.039600000000000024,-0.08745745255765658
-0.040600000000000025,-0.08774039481762959
-0.041600000000000026,-0.08798089573860662
-0.04260000000000003,-0.08823554377258234
-0.04360000000000003,-0.08851848603255535
-0.04460000000000003,-0.08878728117952969
-0.04560000000000003,-0.08905607632650406
-0.04660000000000003,-0.08931072436047977
-0.04760000000000003,-0.08953707816845817
-0.04860000000000003,-0.08982002042843118
-0.04960000000000003,-0.09008881557540553
-0.050600000000000034,-0.09037175783537854
-0.051600000000000035,-0.09061225875635559
-0.052600000000000036,-0.09085275967733265
-0.053600000000000037,-0.09109326059830972
-0.05460000000000004,-0.09134790863228542
-0.05560000000000004,-0.09151767398826924
-0.05660000000000004,-0.09168743934425302
-0.05760000000000004,-0.09185720470023684
-0.05860000000000004,-0.09211185273421253
-0.05960000000000004,-0.09236650076818824
-0.06060000000000004,-0.09245138344618015
-0.061600000000000044,-0.09264944302816126
-0.06260000000000004,-0.09287579683613965
-0.06360000000000005,-0.09307385641812077
-0.06460000000000005,-0.09324362177410456
-0.06560000000000005,-0.09335679867809377
-0.06660000000000005,-0.09342753424308703
-0.06760000000000005,-0.09354071114707624
-0.06860000000000005,-0.09369632939006138
-0.06960000000000005,-0.09388024185904384
-0.07060000000000005,-0.09399341876303305
-0.07160000000000005,-0.09409244855402359
-0.07260000000000005,-0.09419147834501414
-0.07360000000000005,-0.09433294947500065
-0.07460000000000006,-0.09447442060498715
-0.07560000000000006,-0.09455930328297905
-0.07660000000000006,-0.09467248018696825
-0.07760000000000006,-0.09475736286496016
-0.07860000000000006,-0.09484224554295206
-0.07960000000000006,-0.09495542244694127
-0.08060000000000006,-0.09502615801193452
-0.08160000000000006,-0.0951110406899264
-0.08260000000000006,-0.09515348202892236
-0.08360000000000006,-0.09525251181991291
-0.08460000000000006,-0.09532324738490616
-0.08560000000000006,-0.09536568872390214
-0.08660000000000007,-0.09539398294989941
-0.08760000000000007,-0.09542227717589671
-0.08860000000000007,-0.09549301274088996
-0.08960000000000007,-0.09556374830588323
-0.09060000000000007,-0.09557789541888188
-0.09160000000000007,-0.09559204253188053
-0.09260000000000007,-0.09559204253188053
-0.09360000000000007,-0.09563448387087647
-0.09460000000000007,-0.09566277809687378
-0.09560000000000007,-0.09566277809687378
-0.09660000000000007,-0.09567692520987243
-0.09760000000000008,-0.09563448387087647
-0.09860000000000008,-0.09566277809687378
-0.09960000000000008,-0.09566277809687378
-0.10060000000000008,-0.09562033675787783
-0.10160000000000008,-0.09560618964487919
-0.10260000000000008,-0.09557789541888188
-0.10360000000000008,-0.09557789541888188
-0.10460000000000008,-0.09557789541888188
-0.10560000000000008,-0.09552130696688728
-0.10660000000000008,-0.09546471851489266
-0.10760000000000008,-0.09542227717589671
-0.10860000000000009,-0.09540813006289808
-0.10960000000000009,-0.09535154161090346
-0.11060000000000009,-0.09528080604591022
-0.11160000000000009,-0.09521007048091697
-0.11260000000000009,-0.09515348202892236
-0.11360000000000009,-0.0951110406899264
-0.11460000000000009,-0.0951110406899264
-0.11560000000000009,-0.09502615801193452
-0.11660000000000009,-0.09492712822094396
-0.1176000000000001,-0.09484224554295206
-0.1186000000000001,-0.09479980420395612
-0.1196000000000001,-0.0947432157519615
-0.1206000000000001,-0.0946583330739696
-0.1216000000000001,-0.09458759750897636
-0.1226000000000001,-0.0944602734919885
-0.1236000000000001,-0.0944036850399939
-0.1246000000000001,-0.09430465524900335
-0.1256000000000001,-0.0942056254580128
-0.1266000000000001,-0.09410659566702224
-0.1276000000000001,-0.09399341876303305
-0.1286000000000001,-0.0939226831980398
-0.1296000000000001,-0.09382365340704923
-0.1306000000000001,-0.09371047650306003
-0.1316000000000001,-0.09359729959907082
-0.1326000000000001,-0.09345582846908432
-0.1336000000000001,-0.09337094579109242
-0.1346000000000001,-0.09328606311310052
-0.1356000000000001,-0.09315873909611266
-0.1366000000000001,-0.09305970930512211
-0.1376000000000001,-0.09293238528813427
-0.1386000000000001,-0.0928050612711464
-0.1396000000000001,-0.0927484728191518
-0.1406000000000001,-0.09260700168916529
-0.14160000000000011,-0.09245138344618015
-0.14260000000000012,-0.09232405942919229
-0.14360000000000012,-0.09219673541220444
-0.14460000000000012,-0.09211185273421253
-0.14560000000000012,-0.09197038160422603
-0.14660000000000012,-0.09185720470023684
-0.14760000000000012,-0.09171573357025031
-0.14860000000000012,-0.09161670377925978
-0.14960000000000012,-0.09150352687527057
-0.15060000000000012,-0.09137620285828273
-0.15160000000000012,-0.09119229038930025
-0.15260000000000012,-0.09105081925931376
-0.15360000000000013,-0.09093764235532456
-0.15460000000000013,-0.0908103183383367
-0.15560000000000013,-0.09068299432134884
-0.15660000000000013,-0.09052737607836371
-0.15760000000000013,-0.09037175783537854
-0.15860000000000013,-0.09028687515738665
-0.15960000000000002,-0.09018784536639608
-0.16060000000000002,-0.09003222712341094
-0.16160000000000002,-0.08989075599342443
-0.16260000000000002,-0.08974928486343793
-0.16360000000000002,-0.08965025507244738
-0.16460000000000002,-0.08950878394246087
-0.16560000000000002,-0.08940975415147032
-0.16660000000000003,-0.08928243013448246
-0.16760000000000003,-0.0890985176655
-0.16860000000000003,-0.08899948787450947
-0.16960000000000003,-0.08887216385752161
-0.17060000000000003,-0.08873069272753512
-0.17160000000000003,-0.0885892215975486
-0.17260000000000003,-0.08846189758056075
-0.17360000000000003,-0.08833457356357288
-0.17460000000000003,-0.08824969088558099
-0.17560000000000003,-0.08806577841659853
-0.17660000000000003,-0.08795260151260934
-0.17760000000000004,-0.08781113038262284
-0.17860000000000004,-0.08772624770463092
-0.17960000000000004,-0.08761307080064172
-0.18060000000000004,-0.08747159967065522
-0.18160000000000004,-0.08733012854066871
-0.18260000000000004,-0.08721695163667952
-0.18360000000000004,-0.0871037747326903
-0.18460000000000004,-0.0870188920546984
-0.18560000000000004,-0.0868491266987146
-0.18660000000000004,-0.0867359497947254
-0.18760000000000004,-0.08660862577773754
-0.18860000000000005,-0.08649544887374834
-0.18960000000000005,-0.08638227196975913
-0.19060000000000005,-0.08625494795277128
-0.19160000000000005,-0.08614177104878207
-0.19260000000000005,-0.08601444703179424
-0.19360000000000005,-0.08587297590180773
-0.19460000000000005,-0.08581638744981313
-0.19560000000000005,-0.08567491631982663
-0.19660000000000005,-0.08551929807684147
-0.19760000000000005,-0.08540612117285226
-0.19860000000000005,-0.08533538560785901
-0.19960000000000006,-0.08522220870386982
-0.20060000000000006,-0.08509488468688196
-0.20160000000000006,-0.0849675606698941
-0.20260000000000006,-0.08484023665290626
-0.20360000000000006,-0.084769501087913
-0.20460000000000006,-0.08467047129692246
-0.20560000000000006,-0.08454314727993459
-0.20660000000000006,-0.08441582326294673
-0.20760000000000006,-0.08430264635895754
-0.20860000000000006,-0.08424605790696293
-0.20960000000000006,-0.08413288100297373
-0.21060000000000006,-0.08401970409898453
-0.21160000000000007,-0.08393482142099262
-0.21260000000000007,-0.08382164451700343
-0.21360000000000007,-0.08373676183901152
-0.21460000000000007,-0.08366602627401826
-0.21560000000000007,-0.08355284937002906
-0.21660000000000007,-0.08348211380503581
-0.21760000000000007,-0.08338308401404526
-0.21860000000000007,-0.08329820133605337
-0.21960000000000007,-0.08322746577106012
-0.22060000000000007,-0.08311428886707091
-0.22160000000000007,-0.08304355330207766
-0.22260000000000008,-0.08293037639808845
-0.22360000000000008,-0.0828313466070979
-0.22460000000000008,-0.08276061104210465
-0.22560000000000008,-0.08263328702511678
-0.22660000000000008,-0.08254840434712489
-0.22760000000000008,-0.08246352166913298
-0.22860000000000008,-0.08237863899114109
-0.22960000000000008,-0.08232205053914649
-0.23060000000000008,-0.08223716786115459
-0.23160000000000008,-0.08213813807016403
-0.23260000000000008,-0.08205325539217213
-0.23360000000000009,-0.08196837271418023
-0.2346000000000001,-0.08191178426218561
-0.2356000000000001,-0.08181275447119508
-0.2366000000000001,-0.08172787179320316
-0.2376000000000001,-0.08162884200221261
-0.2386000000000001,-0.08157225355021802
-0.2396000000000001,-0.08150151798522477
-0.2406000000000001,-0.08143078242023151
-0.2416000000000001,-0.08131760551624231
-0.2426000000000001,-0.08126101706424771
-0.2436000000000001,-0.0812327228382504
-0.2446000000000001,-0.0811478401602585
-0.2456000000000001,-0.08106295748226659
-0.2466000000000001,-0.081006369030272
-0.2476000000000001,-0.08090733923928145
-0.2486000000000001,-0.08087904501328413
-0.2496000000000001,-0.08082245656128956
-0.2506000000000001,-0.08072342677029899
-0.2516000000000001,-0.08068098543130305
-0.2526000000000001,-0.08062439697930844
-0.2536000000000001,-0.08056780852731382
-0.2546000000000001,-0.08051122007531925
-0.2556000000000001,-0.08045463162332463
-0.2566000000000001,-0.08038389605833138
-0.2576000000000001,-0.08031316049333813
-0.2586000000000001,-0.08028486626734083
-0.2596000000000001,-0.08024242492834488
-0.2606000000000001,-0.08015754225035297
-0.2616000000000001,-0.08012924802435568
-0.2626000000000001,-0.08004436534636378
-0.2636000000000001,-0.08001607112036647
-0.2646000000000001,-0.07998777689436919
-0.2656000000000001,-0.07991704132937592
-0.2666000000000001,-0.07986045287738132
-0.2676000000000001,-0.07981801153838537
-0.2686000000000001,-0.07977557019938941
-0.2696000000000001,-0.07974727597339212
-0.2706000000000001,-0.07970483463439616
-0.2716000000000001,-0.07963409906940291
-0.2726000000000001,-0.07960580484340561
-0.2736000000000001,-0.07956336350440966
-0.2746000000000001,-0.07953506927841236
-0.2756000000000001,-0.07949262793941642
-0.2766000000000001,-0.07942189237442315
-0.2776000000000001,-0.07937945103542722
-0.2786000000000001,-0.07936530392242855
-0.2796000000000001,-0.07933700969643126
-0.2806000000000001,-0.07930871547043396
-0.28160000000000013,-0.07926627413143801
-0.28260000000000013,-0.0792096856794434
-0.28360000000000013,-0.0792096856794434
-0.2846,-0.07919553856644475
-0.2856,-0.07913895011445016
-0.2866,-0.07909650877545421
-0.2876,-0.07903992032345959
-0.2886,-0.07905406743645825
-0.2896,-0.07903992032345959
-0.2906,-0.078983331871465
-0.2916,-0.07896918475846634
-0.2926,-0.07891259630647175
-0.2936,-0.0789267434194704
-0.29460000000000003,-0.07891259630647175
-0.29560000000000003,-0.07887015496747579
-0.29660000000000003,-0.07885600785447715
-0.29760000000000003,-0.07879941940248254
-0.29860000000000003,-0.07881356651548119
-0.29960000000000003,-0.07879941940248254
-0.30060000000000003,-0.0787569780634866
-0.30160000000000003,-0.0787286838374893
-0.30260000000000004,-0.07871453672449064
-0.30360000000000004,-0.07870038961149198
-0.30460000000000004,-0.07871453672449064
-0.30560000000000004,-0.07865794827249603
-0.30660000000000004,-0.07865794827249603
-0.30760000000000004,-0.07862965404649873
-0.30860000000000004,-0.07862965404649873
-0.30960000000000004,-0.07864380115949739
-0.31060000000000004,-0.07858721270750278
-0.31160000000000004,-0.07857306559450414
-0.31260000000000004,-0.07855891848150548
-0.31360000000000005,-0.07857306559450414
-0.31460000000000005,-0.07858721270750278
-0.31560000000000005,-0.07855891848150548
-0.31660000000000005,-0.07851647714250953
-0.31760000000000005,-0.07853062425550819
-0.31860000000000005,-0.07853062425550819
-0.31960000000000005,-0.07857306559450414
-0.32060000000000005,-0.07854477136850684
-0.32160000000000005,-0.07853062425550819
-0.32260000000000005,-0.07851647714250953
-0.32360000000000005,-0.07851647714250953
-0.32460000000000006,-0.07853062425550819
-0.32560000000000006,-0.07851647714250953
-0.32660000000000006,-0.07854477136850684
-0.32760000000000006,-0.07851647714250953
-0.32860000000000006,-0.07851647714250953
-0.32960000000000006,-0.07853062425550819
-0.33060000000000006,-0.07850233002951089
-0.33160000000000006,-0.07850233002951089
-0.33260000000000006,-0.07851647714250953
-0.33360000000000006,-0.07853062425550819
-0.33460000000000006,-0.07854477136850684
-0.33560000000000006,-0.07853062425550819
-0.33660000000000007,-0.07853062425550819
-0.33760000000000007,-0.07853062425550819
-0.33860000000000007,-0.07857306559450414
-0.33960000000000007,-0.07860135982050144
-0.34060000000000007,-0.07858721270750278
-0.34160000000000007,-0.07858721270750278
-0.34260000000000007,-0.07858721270750278
-0.34360000000000007,-0.0786155069335001
-0.3446000000000001,-0.07865794827249603
-0.3456000000000001,-0.07864380115949739
-0.3466000000000001,-0.07867209538549469
-0.34759999999999996,-0.07867209538549469
-0.3486000000000001,-0.07871453672449064
-0.34959999999999997,-0.0787569780634866
-0.3506000000000001,-0.07874283095048794
-0.35159999999999997,-0.0787569780634866
-0.3526000000000001,-0.0787852722894839
-0.35359999999999997,-0.07882771362847985
-0.3546000000000001,-0.0788984491934731
-0.35559999999999997,-0.07891259630647175
-0.3566000000000001,-0.0789267434194704
-0.3576,-0.07896918475846634
-0.3586000000000001,-0.07905406743645825
-0.3596,-0.07908236166245554
-0.3606000000000001,-0.07911065588845285
-0.3616,-0.0791530972274488
-0.3626000000000001,-0.0791813914534461
-0.3636,-0.07928042124443666
-0.3646000000000001,-0.0792945683574353
-0.3656,-0.07933700969643126
-0.3666000000000001,-0.07939359814842585
-0.3676,-0.0794643337134191
-0.3686000000000001,-0.079549216391411
-0.3696,-0.07961995195640426
-0.3706000000000001,-0.07969068752139752
-0.3716,-0.07976142308639078
-0.3726000000000001,-0.07980386442538671
-0.3736,-0.07991704132937592
-0.3746000000000001,-0.07998777689436919
-0.3756,-0.08003021823336513
-0.3766000000000001,-0.08011510091135703
-0.3776,-0.08018583647635028
-0.3786000000000001,-0.08029901338033948
-0.3796,-0.08038389605833138
-0.3806000000000001,-0.080440484510326
-0.3816,-0.08051122007531925
-0.3826000000000001,-0.0805819556403125
-0.3836,-0.08069513254430169
-0.3846000000000001,-0.08079416233529225
-0.3856,-0.08087904501328413
-0.3866000000000001,-0.08094978057827738
-0.3876,-0.08104881036926795
-0.3886000000000001,-0.0811478401602585
-0.3896,-0.08127516417724635
-0.3906000000000001,-0.0813458997422396
-0.3916,-0.08145907664622881
-0.3926000000000001,-0.08157225355021802
-0.3936,-0.08168543045420722
-0.3946000000000001,-0.08181275447119508
-0.3956,-0.08189763714918698
-0.3966000000000001,-0.08201081405317617
-0.3976,-0.08212399095716538
-0.3986000000000001,-0.08225131497415322
-0.3996,-0.08237863899114109
-0.4006000000000001,-0.08250596300812894
-0.4016,-0.0826049927991195
-0.4026000000000001,-0.08274646392910599
-0.4036,-0.08291622928508981
-0.4046000000000001,-0.08304355330207766
-0.4056,-0.08318502443206416
-0.40660000000000013,-0.08331234844905201
-0.4076,-0.08346796669203715
-0.40860000000000013,-0.08362358493502231
-0.4096,-0.08377920317800747
-0.41060000000000013,-0.08393482142099262
-0.4116,-0.08407629255097913
-0.41260000000000013,-0.08423191079396428
-0.4136,-0.08442997037594539
-0.41460000000000014,-0.08464217707092515
-0.4156,-0.0848260895399076
-0.41660000000000014,-0.08502414912188871
-0.4176,-0.0851939144778725
-0.41860000000000014,-0.0854202682858509
-0.41960000000000003,-0.08564662209382931
-0.42060000000000014,-0.08585882878880907
-0.42160000000000003,-0.08608518259678749
-0.42260000000000014,-0.08632568351776454
-0.42360000000000003,-0.08655203732574294
-0.42460000000000014,-0.08680668535971865
-0.42560000000000003,-0.0870188920546984
-0.42660000000000015,-0.08725939297567546
-0.42760000000000004,-0.08751404100965117
-0.42860000000000015,-0.08778283615662552
-0.42960000000000004,-0.08806577841659853
-0.43060000000000015,-0.0883062793375756
-0.43160000000000004,-0.08854678025855263
-0.43260000000000015,-0.08885801674452294
-0.43360000000000004,-0.08916925323049325
-0.43460000000000015,-0.08945219549046628
-0.43560000000000004,-0.08979172620243389
-0.43660000000000015,-0.09007466846240689
