Potential V vs RHE, Current mA cm-2
0.013299999999999867,9.898734965155663
0.012299999999999978,9.506859935093045
0.011299999999999866,9.287579683613965
0.010299999999999976,9.06971414343475
0.009299999999999864,8.89570465355135
0.008299999999999974,8.72169516366795
0.007299999999999862,8.546270962484687
0.006299999999999972,8.372261472601286
0.00529999999999986,8.198251982717888
0.0042999999999999705,8.022827781534623
0.0032999999999998586,7.892674341947039
0.0022999999999999687,7.761106191059591
0.0012999999999998568,7.630952751472008
0.00029999999999996696,7.49938460058456
-0.000700000000000145,7.32537511070116
-0.0017000000000000348,7.237663010109527
-0.0027000000000001467,7.063653520226129
-0.0037000000000000366,6.933500080638546
-0.0047000000000001485,6.845787980046913
-0.005700000000000038,6.714219829159464
-0.00670000000000015,6.5840663895718805
-0.00770000000000004,6.452498238684432
-0.008700000000000152,6.322344799096849
-0.009700000000000042,6.1907766482094
-0.010700000000000154,6.060623208621817
-0.011700000000000044,5.9729111080301855
-0.012700000000000156,5.8427576684426015
-0.013700000000000045,5.7111895175551535
-0.014700000000000157,5.581036077967569
-0.015700000000000047,5.493323977375938
-0.01670000000000016,5.405611876784305
-0.01770000000000005,5.319314487492538
-0.01870000000000016,5.18774633660509
-0.01970000000000005,5.057592897017507
-0.020700000000000163,4.9698807964258735
-0.021700000000000053,4.839727356838291
-0.022700000000000164,4.752015256246658
-0.023700000000000054,4.664303155655026
-0.024700000000000166,4.578005766363259
-0.025700000000000056,4.44643761547581
-0.026700000000000168,4.316284175888227
-0.027700000000000058,4.184716025000778
-0.02870000000000017,4.098418635709011
-0.02970000000000006,3.9668504848215624
-0.03070000000000017,3.8791383842299307
-0.03170000000000006,3.7928409949381634
-0.03270000000000017,3.661272844050715
-0.03370000000000006,3.5311194044631313
-0.034700000000000175,3.3995512535756833
-0.035700000000000065,3.313253864283916
-0.03670000000000018,3.225541763692284
-0.03770000000000007,3.1378296631006513
-0.03870000000000018,3.0515322738088844
-0.03970000000000007,2.919964122921436
-0.04070000000000018,2.8322520223298033
-0.04170000000000007,2.70209858274222
-0.04270000000000018,2.6143864821505876
-0.04370000000000007,2.5280890928588207
-0.044700000000000184,2.4842330425630044
-0.045700000000000074,2.396520941971372
-0.046700000000000186,2.2663675023837886
-0.047700000000000076,2.178655401792157
-0.04870000000000019,2.048501962204573
-0.04970000000000008,1.9607898616129409
-0.05070000000000019,1.8730777610213083
-0.05170000000000008,1.7867803717295414
-0.05270000000000019,1.6990682711379093
-0.05370000000000008,1.5675001202504606
-0.05470000000000019,1.4373466806628774
-0.05570000000000008,1.349917522331218
-0.056700000000000195,1.2626298351295453
-0.057700000000000085,1.175483619057859
-0.058700000000000196,1.0881959318561862
-0.059700000000000086,0.9573351366186703
-0.0607000000000002,0.8264743413811545
-0.06170000000000009,0.7393281253094681
-0.0627000000000002,0.6520404381077953
-0.06370000000000009,0.5647527509061226
-0.0647000000000002,0.4776065348344364
-0.06570000000000009,0.3467457395969205
-0.0667000000000002,0.2594580523952477
-0.0677000000000001,0.12863969849672777
-0.0687000000000002,0.04140859974704963
-0.0697000000000001,-0.04582249900262853
-0.07070000000000021,-0.1330535977523067
-0.0717000000000001,-0.2202705493889862
-0.07270000000000021,-0.30755823659065895
-0.0737000000000001,-0.48199213986401795
-0.07470000000000021,-0.5692798270656908
-0.0757000000000001,-0.6564260431373771
-0.07670000000000021,-0.7437137303390498
-0.0777000000000001,-0.8308599464107361
-0.07870000000000021,-0.9181476336124089
-0.0797000000000001,-1.0490084288499246
-0.08070000000000022,-1.1798692240874404
-0.0817000000000001,-1.3107300193249565
-0.08270000000000022,-1.3543031273607997
-0.08370000000000011,-1.4854468648582886
-0.08470000000000022,-1.5293029151541047
-0.08570000000000011,-1.6594563547416883
-0.08670000000000022,-1.7471684553333202
-0.08770000000000011,-1.8773218949209036
-0.08870000000000022,-2.008890045808352
-0.08970000000000011,-2.095187435100119
-0.09070000000000022,-2.1828995356917518
-0.09170000000000011,-2.2706116362833835
-0.09270000000000023,-2.4007650758709675
-0.09370000000000012,-2.532333226758415
-0.09470000000000023,-2.618630616050183
-0.09570000000000012,-2.7501987669376318
-0.09670000000000023,-2.794054817233447
-0.09770000000000012,-2.924208256821031
-0.09870000000000023,-3.0119203574126634
-0.09970000000000012,-3.1420737970002466
-0.10070000000000023,-3.273641947887695
-0.10170000000000012,-3.361354048479327
-0.10270000000000024,-3.4915074880669104
-0.10370000000000013,-3.5353635383627267
-0.10470000000000024,-3.6655169779503103
-0.10570000000000013,-3.7532290785419424
-0.10670000000000024,-3.884797229429391
-0.10770000000000013,-4.014950669016974
-0.10870000000000024,-4.146518819904423
-0.10970000000000013,-4.23281620919619
-0.11070000000000024,-4.3205283097878215
-0.11170000000000013,-4.406825699079589
-0.11270000000000002,-4.538393849967037
-0.11370000000000013,-4.668547289554621
-0.11470000000000002,-4.800115440442069
-0.11570000000000014,-4.9302688800296535
-0.11670000000000003,-5.017980980621284
-0.11770000000000014,-5.105693081212917
-0.11870000000000003,-5.191990470504685
-0.11970000000000014,-5.323558621392133
-0.12070000000000003,-5.453712060979717
-0.12170000000000014,-5.585280211867165
-0.12270000000000003,-5.672992312458796
-0.12370000000000014,-5.80314575204638
-0.12470000000000003,-5.890857852638012
-0.12570000000000014,-5.977155241929781
-0.12670000000000003,-6.152579443113044
-0.12770000000000015,-6.282732882700628
-0.12870000000000004,-6.414301033588076
-0.12970000000000015,-6.500598422879844
-0.13070000000000004,-6.632166573767292
-0.13170000000000015,-6.719878674358924
-0.13270000000000004,-6.850032113946507
-0.13370000000000015,-7.024041603829907
-0.13470000000000004,-7.155609754717355
-0.13570000000000015,-7.28576319430494
-0.13670000000000004,-7.37347529489657
-0.13770000000000016,-7.461187395488204
-0.13870000000000005,-7.591340835075788
-0.13970000000000016,-7.722908985963235
-0.14070000000000005,-7.853062425550818
-0.14170000000000016,-7.984630576438266
-0.14270000000000005,-8.070927965730034
-0.14370000000000016,-8.202496116617484
-0.14470000000000005,-8.246352166913299
-0.14570000000000016,-8.332649556205066
-0.14670000000000005,-8.464217707092514
-0.14770000000000016,-8.594371146680096
-0.14870000000000005,-8.725939297567548
-0.14970000000000017,-8.899948787450944
-0.15070000000000006,-9.031516938338395
-0.15170000000000017,-9.161670377925978
-0.15270000000000006,-9.335679867809377
-0.15370000000000017,-9.511104068992642
-0.15470000000000006,-9.685113558876042
-0.15570000000000017,-9.85912304875944
-0.15670000000000006,-10.034547249942705
-0.15770000000000017,-10.164700689530287
-0.15870000000000006,-10.296268840417738
-0.15970000000000018,-10.42642228000532
-0.16070000000000007,-10.601846481188586
-0.16170000000000018,-10.731999920776168
-0.16270000000000007,-10.863568071663616
-0.16370000000000018,-10.993721511251199
-0.16470000000000007,-11.081433611842833
-0.16570000000000018,-11.211587051430415
-0.16670000000000007,-11.385596541313816
-0.16770000000000018,-11.517164692201263
-0.16870000000000007,-11.647318131788847
-0.16970000000000018,-11.73503023238048
-0.17070000000000007,-11.82274233297211
-0.17170000000000019,-11.909039722263879
-0.17270000000000008,-12.040607873151327
-0.1737000000000002,-12.214617363034726
-0.17470000000000008,-12.390041564217992
-0.1757000000000002,-12.520195003805576
-0.17670000000000008,-12.694204493688973
-0.1777000000000002,-12.825772644576423
-0.17870000000000008,-12.99978213445982
-0.1797000000000002,-13.175206335643086
-0.18070000000000008,-13.349215825526485
-0.1817000000000002,-13.47936926511407
-0.18270000000000008,-13.610937416001518
-0.1837000000000002,-13.741090855589102
-0.1847000000000001,-13.872659006476551
-0.1857000000000002,-14.046668496359947
-0.1867000000000001,-14.217848563643619
-0.1877000000000002,-14.401761032626075
-0.1887000000000001,-14.57152638860988
-0.1897000000000002,-14.69885040559773
-0.1907000000000001,-14.826174422585586
-0.1917000000000001,-14.967645552572087
-0.19269999999999998,-15.137410908555893
-0.1937000000000001,-15.264734925543747
-0.19469999999999998,-15.491088733522153
-0.1957000000000001,-15.660854089505953
-0.19669999999999999,-15.830619445489761
-0.1977000000000001,-15.972090575476265
-0.1987,-16.099414592464115
-0.1997000000000001,-16.269179948447924
-0.2007,-16.438945304431726
-0.2017000000000001,-16.622857773414182
-0.2027,-16.750181790402035
-0.2037000000000001,-16.877505807389888
-0.2047,-17.018976937376394
-0.2057000000000001,-17.231183632356142
-0.2067,-17.4433903273359
-0.2077000000000001,-17.669744135314307
-0.2087,-17.881950830294063
-0.2097000000000001,-18.06586329927652
-0.2107,-18.19318731626437
-0.2117000000000001,-18.362952672248177
-0.2127,-18.49027668923603
-0.2137000000000001,-18.716630497214435
-0.2147,-18.88639585319824
-0.2157000000000001,-19.01371987018609
-0.2167,-19.155191000172596
-0.21770000000000012,-19.28251501716045
-0.2187,-19.409839034148305
-0.21970000000000012,-19.579604390132108
-0.2207,-19.763516859114564
-0.22170000000000012,-19.890840876102416
-0.2227,-20.06060623208622
-0.22370000000000012,-20.202077362072725
-0.2247,-20.371842718056527
-0.22570000000000012,-20.584049413036283
-0.2267,-20.85284456001064
-0.22770000000000012,-21.107492593986347
-0.22870000000000001,-21.291405062968803
-0.22970000000000013,-21.461170418952605
-0.23070000000000002,-21.63093577493641
-0.23170000000000013,-21.814848243918867
-0.23270000000000002,-22.027054938898623
-0.23370000000000013,-22.295850085872978
-0.23470000000000002,-22.550498119848687
-0.23570000000000013,-22.819293266823045
-0.23670000000000002,-23.031499961802798
-0.2376999999999999,-23.2012653177866
-0.23870000000000002,-23.427619125765005
-0.2396999999999999,-23.682267159740714
-0.24070000000000003,-23.908620967719123
-0.24169999999999991,-24.120827662698876
-0.24270000000000003,-24.290593018682678
-0.24369999999999992,-24.432064148669184
-0.24470000000000003,-24.601829504652986
-0.24569999999999992,-24.771594860636792
-0.24670000000000003,-25.04039000761115
-0.24769999999999992,-25.295038041586857
-0.24870000000000003,-25.521391849565262
-0.24969999999999992,-25.73359854454502
-0.25070000000000003,-25.959952352523427
-0.2516999999999999,-26.129717708507226
-0.25270000000000004,-26.34192440348698
-0.2536999999999999,-26.61071955046134
-0.25470000000000004,-26.86536758443705
-0.2556999999999999,-27.134162731411404
-0.25670000000000004,-27.38881076538711
-0.25769999999999993,-27.615164573365515
-0.25870000000000004,-27.827371268345274
-0.25969999999999993,-28.09616641531963
-0.26070000000000004,-28.350814449295335
-0.26169999999999993,-28.662050935265643
-0.26270000000000004,-28.91669896924135
-0.26369999999999993,-29.14305277721976
-0.26470000000000005,-29.35525947219951
-0.26569999999999994,-29.62405461917387
-0.26670000000000005,-29.878702653149578
-0.26769999999999994,-30.147497800123933
-0.26870000000000005,-30.402145834099635
-0.26969999999999994,-30.614352529079397
-0.27070000000000005,-30.79826499806185
-0.27169999999999994,-31.052913032037555
-0.27270000000000005,-31.321708179011907
-0.27369999999999994,-31.717827342974125
-0.27470000000000006,-32.09979939393769
-0.27569999999999995,-32.45347721890394
-0.27670000000000006,-32.764713704874254
-0.27769999999999995,-33.06180307784591
-0.27870000000000006,-33.41548090281216
-0.27969999999999995,-33.755011614779775
-0.28070000000000006,-34.193572117737936
-0.28169999999999995,-34.5472499427042
-0.28270000000000006,-34.8018979766799
-0.28369999999999995,-35.07069312365426
-0.28470000000000006,-35.32534115762997
-0.28569999999999995,-35.55169496560837
-0.28670000000000007,-35.90537279057463
-0.28769999999999996,-36.244903502542236
-0.28870000000000007,-36.5985813275085
-0.28969999999999996,-36.95225915247476
-0.29070000000000007,-37.249348525446415
-0.29169999999999996,-37.51814367242077
-0.29270000000000007,-37.85767438438838
-0.29369999999999996,-38.16891087035869
-0.2947000000000001,-38.46600024333035
-0.29569999999999996,-38.81967806829661
-0.2967000000000001,-39.173355893262865
-0.29769999999999996,-39.42800392723857
-0.2987000000000001,-39.739240413208876
-0.29969999999999997,-40.092918238175145
-0.3007000000000001,-40.51733162813464
-0.30169999999999997,-40.91345079209687
-0.3027000000000001,-41.30956995605907
-0.30369999999999997,-41.606659329030734
-0.3047000000000001,-41.96033715399699
-0.30569999999999997,-42.39889765695515
-0.3067000000000001,-42.87989949890926
-0.3077,-43.36090134086337
-0.3087000000000001,-43.84190318281749
-0.3097,-44.181433894785094
-0.3107000000000001,-44.4926703807554
-0.3117,-44.80390686672572
-0.3127000000000001,-45.22832025668522
-0.3137,-45.75176343763528
-0.3147000000000001,-46.2327652795894
-0.3157,-46.67132578254756
-0.3167000000000001,-47.067444946509774
-0.3177,-47.40697565847737
-0.3187000000000001,-47.80309482243959
-0.3197,-48.24165532539775
-0.3207000000000001,-48.76509850634781
-0.3217,-49.28854168729788
-0.3227000000000001,-49.81198486824794
-0.3237,-50.20810403221015
-0.3247000000000001,-50.60422319617236
-0.3257,-50.98619524713592
-0.3267000000000001,-51.509638428085985
-0.3277,-52.033081609036046
-0.3287000000000001,-52.59896612898206
-0.3297,-53.079967970936174
-0.3307000000000001,-53.56096981289029
-0.3317,-54.0419716548444
-0.3327000000000001,-54.56541483579447
-0.3337,-55.088858016744524
-0.3347000000000001,-55.65474253669055
-0.3357,-56.26306839563251
-0.3367000000000001,-56.786511576582576
-0.3377,-57.352396096528594
-0.3387000000000001,-57.87583927747865
-0.3397,-58.35684111943277
-0.3407000000000001,-58.92272563937878
-0.3417,-59.44616882032884
-0.3427000000000001,-60.06864179226946
-0.3437,-60.63452631221547
-0.3447000000000001,-61.15796949316553
-0.3457,-61.6814126741156
-0.3467000000000001,-62.16241451606972
-0.3477,-62.72829903601572
-0.3487000000000001,-63.3366248949577
-0.3497,-63.860068075907755
-0.3507000000000001,-64.38351125685783
-0.3517,-64.86451309881193
-0.3527000000000001,-65.43039761875795
-0.3537,-66.03872347769992
-0.3547000000000001,-66.60460799764593
-0.3557,-67.128051178596
-0.35670000000000013,-67.6090530205501
-0.3577,-68.13249620150016
-0.35870000000000013,-68.78326339943808
-0.3597,-69.43403059737601
-0.36070000000000013,-70.18382758630447
-0.3617,-70.87703612323833
-0.3626999999999999,-71.44292064318435
-0.3637,-71.92392248513846
-0.3646999999999999,-72.44736566608852
-0.3657,-73.09813286402644
-0.3666999999999999,-73.8479298529549
-0.3677,-74.54113838988879
-0.3686999999999999,-75.2484940398213
-0.36970000000000003,-75.77193722077136
-0.3706999999999999,-76.23879194972683
-0.37170000000000003,-76.71979379168094
-0.3726999999999999,-77.28567831162695
-0.37370000000000003,-77.95059262256353
-0.3746999999999999,-78.60135982050144
-0.37570000000000003,-79.20968567944341
-0.3766999999999999,-79.7755701993894
-0.37770000000000004,-80.21413070234757
-0.3786999999999999,-80.69513254430169
-0.37970000000000004,-81.26101706424771
-0.3806999999999999,-81.95422560118158
-0.38170000000000004,-82.61913991211814
-0.38269999999999993,-83.18502443206415
-0.38370000000000004,-83.66602627401826
-0.38469999999999993,-84.13288100297372
-0.38570000000000004,-84.7129126359184
-0.38669999999999993,-85.40612117285227
-0.38770000000000004,-86.14177104878208
-0.38869999999999993,-86.75009690772404
-0.38970000000000005,-87.27354008867411
-0.39069999999999994,-87.79698326962418
-0.39170000000000005,-88.4194562415648
-0.39269999999999994,-89.11266477849867
-0.39370000000000005,-89.80587331543254
-0.39469999999999994,-90.47078762636909
-0.39570000000000005,-91.07911348531105
-0.39669999999999994,-91.72988068324898
-0.39770000000000005,-92.42308922018285
-0.39869999999999994,-93.17288620911131
-0.39970000000000006,-94.03586010202899
-0.40069999999999995,-94.87053976894937
-0.40170000000000006,-95.64863098387512
-0.40269999999999995,-96.3984279728036
-0.40370000000000006,-97.09163650973747
-0.40469999999999995,-97.78484504667132
-0.40570000000000006,-98.6195247135917
-0.40669999999999995,-99.49664571950804
-0.40770000000000006,-100.31717827342976
-0.40869999999999995,-101.02453392336226
-0.40970000000000006,-101.6753011213002
-0.41069999999999995,-102.28362698024215
-0.41170000000000007,-102.93439417818009
-0.41269999999999996,-103.64174982811258
-0.41370000000000007,-104.33495836504645
-0.41469999999999996,-104.98572556298437
-0.41570000000000007,-105.63649276092228
-0.41669999999999996,-106.34384841085482
-0.41770000000000007,-107.03705694778867
-0.41869999999999996,-107.78685393671715
-0.4197000000000001,-108.48006247365102
-0.42069999999999996,-109.13082967158894
-0.4217000000000001,-109.8240382085228
-0.42269999999999996,-110.6162765364472
-0.4237000000000001,-111.3094850733811
-0.42469999999999997,-112.01684072331359
-0.4257000000000001,-112.66760792125153
-0.42669999999999997,-113.36081645818538
-0.4277000000000001,-114.1530547861098
-0.42869999999999997,-115.01602867902749
-0.4297000000000001,-115.72338432896
-0.43069999999999997,-116.37415152689792
-0.4317000000000001,-116.94003604684394
-0.4327,-117.59080324478184
-0.4337000000000001,-118.29815889471436
-0.4347,-119.07625010964013
-0.4357000000000001,-119.81189998556997
-0.4367,-120.33534316652002
-0.4377000000000001,-120.85878634747009
-0.4387,-121.43881798041474
-0.4397000000000001,-122.0471438393567
-0.4407,-122.65546969829869
-0.4417000000000001,-123.2213542182447
-0.4427,-123.6174733822069
-0.4437000000000001,-123.99944543317046
-0.4447,-124.43800593612862
-0.4457000000000001,-124.91900777808273
-0.4467,-125.48489229802875
-0.4477000000000001,-126.00833547897882
-0.4487,-126.48933732093293
-0.4497000000000001,-127.012780501883
-0.4507,-127.53622368283307
-0.4517000000000001,-128.144549541775
-0.4527,-128.8094638527116
-0.4537000000000001,-129.3753483726576
-0.4547,-129.9412328926036
-0.4557000000000001,-130.37979339556176
-0.4567,-130.84664812451723
-0.4577000000000001,-131.37009130546733
-0.4587,-131.89353448641737
-0.4597000000000001,-132.516007458358
-0.4607,-133.03945063930803
-0.4617000000000001,-133.52045248126214
-0.4627,-133.8599831932298
-0.4637000000000001,-134.21366101819604
-0.4647,-134.6097801821582
-0.4657000000000001,-134.9068695551299
-0.4667,-135.1332233631083
-0.4677000000000001,-135.43031273607997
-0.4687,-135.65666654405837
-0.4697000000000001,-135.86887323903812
-0.4707,-136.1801097250084
-0.4717000000000001,-136.43475775898415
-0.4727,-136.66111156696255
-0.4737000000000001,-136.83087692294635
-0.4747,-136.91575960093826
-0.4757000000000001,-137.1845547479126
-0.4767,-137.43920278188833
-0.4777000000000001,-137.9626459628384
-0.4787,-138.57097182178035
-0.4797000000000001,-139.22173901971826
-0.4807,-139.8866533306548
-0.48170000000000013,-140.45253785060083
-0.4827,-140.93353969255494
-0.48370000000000013,-141.41454153450906
-0.4847,-141.89554337646317
-0.48570000000000013,-142.31995676642268
-0.4867,-142.7443701563822
-0.4876999999999999,-143.16878354634173
-0.4887,-143.4517258063147
-0.4896999999999999,-143.5931969363012
-0.4907,-143.73466806628772
-0.4916999999999999,-143.73466806628772
-0.4927,-143.87613919627424
-0.4936999999999999,-144.15908145624724
-0.49470000000000003,-144.15908145624724
-0.4956999999999999,-144.15908145624724
-0.49670000000000003,-144.01761032626072
-0.4976999999999999,-144.01761032626072
-0.49870000000000003,-144.01761032626072
-0.4996999999999999,-144.01761032626072
-0.5007,-144.01761032626072
-0.5016999999999999,-144.15908145624724
-0.5027,-144.15908145624724
-0.5036999999999999,-144.30055258623375
-0.5047,-144.44202371622026
-0.5056999999999999,-144.30055258623375
-0.5067,-144.15908145624724
-0.5076999999999999,-144.15908145624724
-0.5087,-144.15908145624724
-0.5096999999999999,-144.44202371622026
