Sept. 23, 2024   18:59:10
Cyclic Voltammetry
File: c:/users/guazh/data/20240922_batch_417_500/2024-09-22-exp428\exp428-2024-09-23t18_38_29-arkoh\exp428_cv_sr_500mvs_efin_-1900mv.bin
Data Source:  Experiment
Instrument Model:  CHI760E
Header: CV ran at 500 mVs
Note: 

Init E (V) = -1
High E (V) = -1
Low E (V) = -1.9
Final E (V) = -1
Init P/N = N
Scan Rate (V/s) = 0.5
Segment = 3
Sample Interval (V) = 0.001
Quiet Time (sec) = 2
Sensitivity (A/V) = 0.01
Comp R (ohm) = 2.2

Results:

Channel 1:
Segment 1:

Segment 2:

Segment 3:

Potential/V, Current/A

-1.000, 3.239e-6
-1.001, 3.239e-6
-1.002, 3.239e-6
-1.003, 3.239e-6
-1.004, 3.239e-6
-1.005, 3.239e-6
-1.006, 3.239e-6
-1.007, 3.239e-6
-1.008, 3.239e-6
-1.009, 3.239e-6
-1.010, 3.239e-6
-1.011, 3.239e-6
-1.012, 3.239e-6
-1.013, 3.239e-6
-1.014, 3.239e-6
-1.015, 3.239e-6
-1.016, 3.239e-6
-1.017, 3.239e-6
-1.018, 3.239e-6
-1.019, 3.239e-6
-1.020, 3.239e-6
-1.021, 3.239e-6
-1.022, 3.239e-6
-1.023, 3.239e-6
-1.024, 3.239e-6
-1.025, 3.239e-6
-1.026, 3.239e-6
-1.027, 3.239e-6
-1.028, 3.239e-6
-1.029, 3.239e-6
-1.030, 3.239e-6
-1.031, 3.239e-6
-1.032, 3.239e-6
-1.033, 3.239e-6
-1.034, 3.239e-6
-1.035, 3.239e-6
-1.036, 3.239e-6
-1.037, 3.239e-6
-1.038, 3.239e-6
-1.039, 3.239e-6
-1.040, 3.239e-6
-1.041, 3.239e-6
-1.042, 3.239e-6
-1.043, 3.239e-6
-1.044, 3.239e-6
-1.045, 3.239e-6
-1.046, 3.239e-6
-1.047, 3.239e-6
-1.048, 6.322e-6
-1.049, 3.239e-6
-1.050, 3.239e-6
-1.051, 3.239e-6
-1.052, 3.239e-6
-1.053, 3.239e-6
-1.054, 3.239e-6
-1.055, 3.239e-6
-1.056, 3.239e-6
-1.057, 6.322e-6
-1.058, 3.239e-6
-1.059, 3.239e-6
-1.060, 3.239e-6
-1.061, 6.322e-6
-1.062, 6.322e-6
-1.063, 3.239e-6
-1.064, 6.322e-6
-1.065, 6.322e-6
-1.066, 6.322e-6
-1.067, 3.239e-6
-1.068, 6.322e-6
-1.069, 3.239e-6
-1.070, 3.239e-6
-1.071, 6.322e-6
-1.072, 3.239e-6
-1.073, 3.239e-6
-1.074, 3.239e-6
-1.075, 6.322e-6
-1.076, 3.239e-6
-1.077, 3.239e-6
-1.078, 6.322e-6
-1.079, 3.239e-6
-1.080, 6.322e-6
-1.081, 6.322e-6
-1.082, 6.322e-6
-1.083, 3.239e-6
-1.084, 6.322e-6
-1.085, 3.239e-6
-1.086, 6.322e-6
-1.087, 3.239e-6
-1.088, 3.239e-6
-1.089, 6.322e-6
-1.090, 6.322e-6
-1.091, 6.322e-6
-1.092, 3.239e-6
-1.093, 3.239e-6
-1.094, 6.322e-6
-1.095, 6.322e-6
-1.096, 3.239e-6
-1.097, 6.322e-6
-1.098, 6.322e-6
-1.099, 6.322e-6
-1.100, 6.322e-6
-1.101, 6.322e-6
-1.102, 6.322e-6
-1.103, 6.322e-6
-1.104, 6.322e-6
-1.105, 6.322e-6
-1.106, 6.322e-6
-1.107, 6.322e-6
-1.108, 6.322e-6
-1.109, 6.322e-6
-1.110, 6.322e-6
-1.111, 6.322e-6
-1.112, 6.322e-6
-1.113, 6.322e-6
-1.114, 6.322e-6
-1.115, 6.322e-6
-1.116, 6.322e-6
-1.117, 6.322e-6
-1.118, 6.322e-6
-1.119, 6.322e-6
-1.120, 6.322e-6
-1.121, 6.322e-6
-1.122, 6.322e-6
-1.123, 6.322e-6
-1.124, 6.322e-6
-1.125, 6.322e-6
-1.126, 6.322e-6
-1.127, 6.322e-6
-1.128, 6.322e-6
-1.129, 6.322e-6
-1.130, 6.322e-6
-1.131, 6.322e-6
-1.132, 6.322e-6
-1.133, 6.322e-6
-1.134, 6.322e-6
-1.135, 6.322e-6
-1.136, 6.322e-6
-1.137, 6.322e-6
-1.138, 6.322e-6
-1.139, 6.322e-6
-1.140, 6.322e-6
-1.141, 6.322e-6
-1.142, 6.322e-6
-1.143, 6.322e-6
-1.144, 6.322e-6
-1.145, 6.322e-6
-1.146, 6.322e-6
-1.147, 6.322e-6
-1.148, 6.322e-6
-1.149, 6.322e-6
-1.150, 6.322e-6
-1.151, 6.322e-6
-1.152, 6.322e-6
-1.153, 6.322e-6
-1.154, 6.322e-6
-1.155, 6.322e-6
-1.156, 6.322e-6
-1.157, 6.322e-6
-1.158, 6.322e-6
-1.159, 6.322e-6
-1.160, 6.322e-6
-1.161, 6.322e-6
-1.162, 6.322e-6
-1.163, 6.322e-6
-1.164, 6.322e-6
-1.165, 6.322e-6
-1.166, 6.322e-6
-1.167, 6.322e-6
-1.168, 6.322e-6
-1.169, 6.322e-6
-1.170, 6.322e-6
-1.171, 6.322e-6
-1.172, 6.322e-6
-1.173, 6.322e-6
-1.174, 6.322e-6
-1.175, 6.322e-6
-1.176, 6.322e-6
-1.177, 6.322e-6
-1.178, 6.322e-6
-1.179, 6.322e-6
-1.180, 6.322e-6
-1.181, 6.322e-6
-1.182, 6.322e-6
-1.183, 6.322e-6
-1.184, 6.322e-6
-1.185, 6.322e-6
-1.186, 6.322e-6
-1.187, 6.322e-6
-1.188, 6.322e-6
-1.189, 6.322e-6
-1.190, 6.322e-6
-1.191, 6.322e-6
-1.192, 6.322e-6
-1.193, 6.322e-6
-1.194, 6.322e-6
-1.195, 6.322e-6
-1.196, 6.322e-6
-1.197, 6.322e-6
-1.198, 6.322e-6
-1.199, 6.322e-6
-1.200, 6.322e-6
-1.201, 6.322e-6
-1.202, 6.322e-6
-1.203, 6.322e-6
-1.204, 6.322e-6
-1.205, 6.322e-6
-1.206, 6.322e-6
-1.207, 6.322e-6
-1.208, 6.322e-6
-1.209, 9.405e-6
-1.210, 6.322e-6
-1.211, 9.405e-6
-1.212, 9.405e-6
-1.213, 6.322e-6
-1.214, 6.322e-6
-1.215, 6.322e-6
-1.216, 9.405e-6
-1.217, 6.322e-6
-1.218, 6.322e-6
-1.219, 6.322e-6
-1.220, 9.405e-6
-1.221, 9.405e-6
-1.222, 6.322e-6
-1.223, 9.405e-6
-1.224, 9.405e-6
-1.225, 9.405e-6
-1.226, 6.322e-6
-1.227, 6.322e-6
-1.228, 9.405e-6
-1.229, 6.322e-6
-1.230, 6.322e-6
-1.231, 6.322e-6
-1.232, 6.322e-6
-1.233, 9.405e-6
-1.234, 9.405e-6
-1.235, 9.405e-6
-1.236, 6.322e-6
-1.237, 9.405e-6
-1.238, 9.405e-6
-1.239, 9.405e-6
-1.240, 9.405e-6
-1.241, 9.405e-6
-1.242, 9.405e-6
-1.243, 9.405e-6
-1.244, 9.405e-6
-1.245, 9.405e-6
-1.246, 9.405e-6
-1.247, 6.322e-6
-1.248, 9.405e-6
-1.249, 9.405e-6
-1.250, 9.405e-6
-1.251, 6.322e-6
-1.252, 9.405e-6
-1.253, 9.405e-6
-1.254, 9.405e-6
-1.255, 9.405e-6
-1.256, 6.322e-6
-1.257, 9.405e-6
-1.258, 9.405e-6
-1.259, 9.405e-6
-1.260, 9.405e-6
-1.261, 9.405e-6
-1.262, 9.405e-6
-1.263, 9.405e-6
-1.264, 9.405e-6
-1.265, 9.405e-6
-1.266, 9.405e-6
-1.267, 9.405e-6
-1.268, 9.405e-6
-1.269, 9.405e-6
-1.270, 9.405e-6
-1.271, 9.405e-6
-1.272, 9.405e-6
-1.273, 9.405e-6
-1.274, 9.405e-6
-1.275, 9.405e-6
-1.276, 9.405e-6
-1.277, 9.405e-6
-1.278, 9.405e-6
-1.279, 9.405e-6
-1.280, 9.405e-6
-1.281, 9.405e-6
-1.282, 9.405e-6
-1.283, 9.405e-6
-1.284, 9.405e-6
-1.285, 9.405e-6
-1.286, 9.405e-6
-1.287, 9.405e-6
-1.288, 9.405e-6
-1.289, 9.405e-6
-1.290, 9.405e-6
-1.291, 9.405e-6
-1.292, 9.405e-6
-1.293, 9.405e-6
-1.294, 9.405e-6
-1.295, 9.405e-6
-1.296, 9.405e-6
-1.297, 9.405e-6
-1.298, 9.405e-6
-1.299, 9.405e-6
-1.300, 9.405e-6
-1.301, 9.405e-6
-1.302, 9.405e-6
-1.303, 9.405e-6
-1.304, 9.405e-6
-1.305, 9.405e-6
-1.306, 9.405e-6
-1.307, 9.405e-6
-1.308, 9.405e-6
-1.309, 9.405e-6
-1.310, 9.405e-6
-1.311, 9.405e-6
-1.312, 9.405e-6
-1.313, 9.405e-6
-1.314, 9.405e-6
-1.315, 9.405e-6
-1.316, 9.405e-6
-1.317, 9.405e-6
-1.318, 9.405e-6
-1.319, 9.405e-6
-1.320, 9.405e-6
-1.321, 9.405e-6
-1.322, 9.405e-6
-1.323, 9.405e-6
-1.324, 9.405e-6
-1.325, 9.405e-6
-1.326, 9.405e-6
-1.327, 9.405e-6
-1.328, 1.249e-5
-1.329, 9.405e-6
-1.330, 9.405e-6
-1.331, 9.405e-6
-1.332, 1.249e-5
-1.333, 9.405e-6
-1.334, 9.405e-6
-1.335, 9.405e-6
-1.336, 9.405e-6
-1.337, 9.405e-6
-1.338, 9.405e-6
-1.339, 1.249e-5
-1.340, 1.249e-5
-1.341, 1.249e-5
-1.342, 9.405e-6
-1.343, 9.405e-6
-1.344, 1.249e-5
-1.345, 1.249e-5
-1.346, 9.405e-6
-1.347, 9.405e-6
-1.348, 9.405e-6
-1.349, 9.405e-6
-1.350, 1.249e-5
-1.351, 1.249e-5
-1.352, 9.405e-6
-1.353, 1.249e-5
-1.354, 1.249e-5
-1.355, 1.249e-5
-1.356, 9.405e-6
-1.357, 1.249e-5
-1.358, 1.249e-5
-1.359, 1.249e-5
-1.360, 1.249e-5
-1.361, 1.249e-5
-1.362, 1.249e-5
-1.363, 9.405e-6
-1.364, 1.249e-5
-1.365, 1.249e-5
-1.366, 1.249e-5
-1.367, 1.249e-5
-1.368, 1.249e-5
-1.369, 1.249e-5
-1.370, 1.249e-5
-1.371, 9.405e-6
-1.372, 9.405e-6
-1.373, 1.249e-5
-1.374, 1.249e-5
-1.375, 1.249e-5
-1.376, 1.249e-5
-1.377, 1.249e-5
-1.378, 1.249e-5
-1.379, 1.249e-5
-1.380, 1.249e-5
-1.381, 1.249e-5
-1.382, 1.249e-5
-1.383, 1.249e-5
-1.384, 1.249e-5
-1.385, 1.249e-5
-1.386, 1.249e-5
-1.387, 1.249e-5
-1.388, 1.249e-5
-1.389, 1.249e-5
-1.390, 1.249e-5
-1.391, 1.249e-5
-1.392, 1.249e-5
-1.393, 1.249e-5
-1.394, 1.249e-5
-1.395, 1.249e-5
-1.396, 1.249e-5
-1.397, 1.249e-5
-1.398, 1.249e-5
-1.399, 1.249e-5
-1.400, 1.249e-5
-1.401, 1.249e-5
-1.402, 1.249e-5
-1.403, 1.249e-5
-1.404, 1.249e-5
-1.405, 1.249e-5
-1.406, 1.249e-5
-1.407, 1.249e-5
-1.408, 1.249e-5
-1.409, 1.249e-5
-1.410, 1.249e-5
-1.411, 1.249e-5
-1.412, 1.249e-5
-1.413, 1.249e-5
-1.414, 1.249e-5
-1.415, 1.249e-5
-1.416, 1.249e-5
-1.417, 1.249e-5
-1.418, 1.249e-5
-1.419, 1.249e-5
-1.420, 1.249e-5
-1.421, 1.249e-5
-1.422, 1.249e-5
-1.423, 1.557e-5
-1.424, 1.557e-5
-1.425, 1.249e-5
-1.426, 1.249e-5
-1.427, 1.249e-5
-1.428, 1.557e-5
-1.429, 1.249e-5
-1.430, 1.557e-5
-1.431, 1.249e-5
-1.432, 1.557e-5
-1.433, 1.557e-5
-1.434, 1.557e-5
-1.435, 1.557e-5
-1.436, 1.249e-5
-1.437, 1.557e-5
-1.438, 1.557e-5
-1.439, 1.557e-5
-1.440, 1.557e-5
-1.441, 1.249e-5
-1.442, 1.557e-5
-1.443, 1.557e-5
-1.444, 1.557e-5
-1.445, 1.557e-5
-1.446, 1.557e-5
-1.447, 1.557e-5
-1.448, 1.557e-5
-1.449, 1.557e-5
-1.450, 1.557e-5
-1.451, 1.557e-5
-1.452, 1.557e-5
-1.453, 1.557e-5
-1.454, 1.557e-5
-1.455, 1.557e-5
-1.456, 1.557e-5
-1.457, 1.557e-5
-1.458, 1.557e-5
-1.459, 1.557e-5
-1.460, 1.557e-5
-1.461, 1.557e-5
-1.462, 1.557e-5
-1.463, 1.557e-5
-1.464, 1.557e-5
-1.465, 1.557e-5
-1.466, 1.557e-5
-1.467, 1.557e-5
-1.468, 1.557e-5
-1.469, 1.557e-5
-1.470, 1.557e-5
-1.471, 1.557e-5
-1.472, 1.557e-5
-1.473, 1.557e-5
-1.474, 1.557e-5
-1.475, 1.557e-5
-1.476, 1.865e-5
-1.477, 1.557e-5
-1.478, 1.557e-5
-1.479, 1.557e-5
-1.480, 1.557e-5
-1.481, 1.557e-5
-1.482, 1.865e-5
-1.483, 1.865e-5
-1.484, 1.557e-5
-1.485, 1.865e-5
-1.486, 1.865e-5
-1.487, 1.865e-5
-1.488, 1.557e-5
-1.489, 1.865e-5
-1.490, 1.865e-5
-1.491, 1.865e-5
-1.492, 1.865e-5
-1.493, 1.865e-5
-1.494, 1.865e-5
-1.495, 1.865e-5
-1.496, 1.865e-5
-1.497, 1.865e-5
-1.498, 1.865e-5
-1.499, 1.865e-5
-1.500, 1.865e-5
-1.501, 1.865e-5
-1.502, 1.865e-5
-1.503, 1.865e-5
-1.504, 1.865e-5
-1.505, 1.865e-5
-1.506, 1.865e-5
-1.507, 1.865e-5
-1.508, 1.865e-5
-1.509, 1.865e-5
-1.510, 1.865e-5
-1.511, 1.865e-5
-1.512, 2.174e-5
-1.513, 1.865e-5
-1.514, 1.865e-5
-1.515, 1.865e-5
-1.516, 2.174e-5
-1.517, 2.174e-5
-1.518, 1.865e-5
-1.519, 2.174e-5
-1.520, 2.174e-5
-1.521, 2.174e-5
-1.522, 2.174e-5
-1.523, 2.174e-5
-1.524, 2.174e-5
-1.525, 2.174e-5
-1.526, 2.174e-5
-1.527, 2.174e-5
-1.528, 2.174e-5
-1.529, 2.174e-5
-1.530, 2.174e-5
-1.531, 2.174e-5
-1.532, 2.174e-5
-1.533, 2.174e-5
-1.534, 2.174e-5
-1.535, 2.174e-5
-1.536, 2.174e-5
-1.537, 2.482e-5
-1.538, 2.174e-5
-1.539, 2.174e-5
-1.540, 2.482e-5
-1.541, 2.482e-5
-1.542, 2.482e-5
-1.543, 2.174e-5
-1.544, 2.482e-5
-1.545, 2.482e-5
-1.546, 2.482e-5
-1.547, 2.482e-5
-1.548, 2.482e-5
-1.549, 2.482e-5
-1.550, 2.482e-5
-1.551, 2.482e-5
-1.552, 2.482e-5
-1.553, 2.482e-5
-1.554, 2.482e-5
-1.555, 2.482e-5
-1.556, 2.482e-5
-1.557, 2.482e-5
-1.558, 2.482e-5
-1.559, 2.482e-5
-1.560, 2.790e-5
-1.561, 2.482e-5
-1.562, 2.790e-5
-1.563, 2.790e-5
-1.564, 2.790e-5
-1.565, 2.790e-5
-1.566, 2.790e-5
-1.567, 2.790e-5
-1.568, 2.790e-5
-1.569, 2.790e-5
-1.570, 2.790e-5
-1.571, 2.790e-5
-1.572, 2.790e-5
-1.573, 2.790e-5
-1.574, 3.099e-5
-1.575, 2.790e-5
-1.576, 3.099e-5
-1.577, 3.099e-5
-1.578, 3.099e-5
-1.579, 3.099e-5
-1.580, 3.099e-5
-1.581, 3.099e-5
-1.582, 3.099e-5
-1.583, 3.407e-5
-1.584, 3.099e-5
-1.585, 3.407e-5
-1.586, 3.407e-5
-1.587, 3.407e-5
-1.588, 3.407e-5
-1.589, 3.407e-5
-1.590, 3.407e-5
-1.591, 3.407e-5
-1.592, 3.407e-5
-1.593, 3.407e-5
-1.594, 3.715e-5
-1.595, 3.715e-5
-1.596, 3.715e-5
-1.597, 3.715e-5
-1.598, 3.715e-5
-1.599, 3.715e-5
-1.600, 3.715e-5
-1.601, 3.715e-5
-1.602, 3.715e-5
-1.603, 3.715e-5
-1.604, 4.024e-5
-1.605, 4.024e-5
-1.606, 4.024e-5
-1.607, 4.024e-5
-1.608, 4.024e-5
-1.609, 4.024e-5
-1.610, 4.332e-5
-1.611, 4.332e-5
-1.612, 4.332e-5
-1.613, 4.332e-5
-1.614, 4.640e-5
-1.615, 4.332e-5
-1.616, 4.332e-5
-1.617, 4.640e-5
-1.618, 4.640e-5
-1.619, 4.640e-5
-1.620, 4.640e-5
-1.621, 4.949e-5
-1.622, 4.949e-5
-1.623, 4.949e-5
-1.624, 4.949e-5
-1.625, 4.949e-5
-1.626, 4.949e-5
-1.627, 5.257e-5
-1.628, 5.257e-5
-1.629, 5.257e-5
-1.630, 5.257e-5
-1.631, 5.257e-5
-1.632, 5.565e-5
-1.633, 5.565e-5
-1.634, 5.565e-5
-1.635, 5.565e-5
-1.636, 5.565e-5
-1.637, 5.873e-5
-1.638, 5.873e-5
-1.639, 6.182e-5
-1.640, 6.182e-5
-1.641, 6.182e-5
-1.642, 6.182e-5
-1.643, 6.490e-5
-1.644, 6.490e-5
-1.645, 6.490e-5
-1.646, 6.490e-5
-1.647, 6.798e-5
-1.648, 6.798e-5
-1.649, 7.107e-5
-1.650, 7.107e-5
-1.651, 7.107e-5
-1.652, 7.107e-5
-1.653, 7.723e-5
-1.654, 7.415e-5
-1.655, 7.415e-5
-1.656, 7.723e-5
-1.657, 7.723e-5
-1.658, 8.032e-5
-1.659, 8.032e-5
-1.660, 8.340e-5
-1.661, 8.340e-5
-1.662, 8.648e-5
-1.663, 8.648e-5
-1.664, 8.648e-5
-1.665, 8.957e-5
-1.666, 8.957e-5
-1.667, 9.265e-5
-1.668, 9.265e-5
-1.669, 9.573e-5
-1.670, 9.882e-5
-1.671, 9.882e-5
-1.672, 9.882e-5
-1.673, 1.019e-4
-1.674, 1.050e-4
-1.675, 1.050e-4
-1.676, 1.081e-4
-1.677, 1.111e-4
-1.678, 1.111e-4
-1.679, 1.142e-4
-1.680, 1.173e-4
-1.681, 1.173e-4
-1.682, 1.204e-4
-1.683, 1.235e-4
-1.684, 1.235e-4
-1.685, 1.266e-4
-1.686, 1.296e-4
-1.687, 1.327e-4
-1.688, 1.327e-4
-1.689, 1.358e-4
-1.690, 1.389e-4
-1.691, 1.420e-4
-1.692, 1.451e-4
-1.693, 1.481e-4
-1.694, 1.512e-4
-1.695, 1.543e-4
-1.696, 1.543e-4
-1.697, 1.605e-4
-1.698, 1.636e-4
-1.699, 1.666e-4
-1.700, 1.697e-4
-1.701, 1.728e-4
-1.702, 1.759e-4
-1.703, 1.790e-4
-1.704, 1.821e-4
-1.705, 1.851e-4
-1.706, 1.913e-4
-1.707, 1.944e-4
-1.708, 1.975e-4
-1.709, 2.006e-4
-1.710, 2.067e-4
-1.711, 2.098e-4
-1.712, 2.160e-4
-1.713, 2.191e-4
-1.714, 2.221e-4
-1.715, 2.283e-4
-1.716, 2.314e-4
-1.717, 2.376e-4
-1.718, 2.406e-4
-1.719, 2.468e-4
-1.720, 2.530e-4
-1.721, 2.591e-4
-1.722, 2.653e-4
-1.723, 2.684e-4
-1.724, 2.746e-4
-1.725, 2.807e-4
-1.726, 2.869e-4
-1.727, 2.931e-4
-1.728, 2.992e-4
-1.729, 3.054e-4
-1.730, 3.115e-4
-1.731, 3.177e-4
-1.732, 3.239e-4
-1.733, 3.331e-4
-1.734, 3.393e-4
-1.735, 3.455e-4
-1.736, 3.547e-4
-1.737, 3.609e-4
-1.738, 3.701e-4
-1.739, 3.763e-4
-1.740, 3.855e-4
-1.741, 3.917e-4
-1.742, 4.010e-4
-1.743, 4.102e-4
-1.744, 4.195e-4
-1.745, 4.287e-4
-1.746, 4.380e-4
-1.747, 4.472e-4
-1.748, 4.565e-4
-1.749, 4.657e-4
-1.750, 4.750e-4
-1.751, 4.873e-4
-1.752, 4.965e-4
-1.753, 5.089e-4
-1.754, 5.181e-4
-1.755, 5.274e-4
-1.756, 5.428e-4
-1.757, 5.520e-4
-1.758, 5.644e-4
-1.759, 5.767e-4
-1.760, 5.890e-4
-1.761, 6.014e-4
-1.762, 6.137e-4
-1.763, 6.260e-4
-1.764, 6.384e-4
-1.765, 6.538e-4
-1.766, 6.661e-4
-1.767, 6.815e-4
-1.768, 6.939e-4
-1.769, 7.093e-4
-1.770, 7.247e-4
-1.771, 7.401e-4
-1.772, 7.555e-4
-1.773, 7.709e-4
-1.774, 7.863e-4
-1.775, 8.018e-4
-1.776, 8.203e-4
-1.777, 8.357e-4
-1.778, 8.542e-4
-1.779, 8.727e-4
-1.780, 8.912e-4
-1.781, 9.097e-4
-1.782, 9.282e-4
-1.783, 9.467e-4
-1.784, 9.652e-4
-1.785, 9.837e-4
-1.786, 1.005e-3
-1.787, 1.027e-3
-1.788, 1.045e-3
-1.789, 1.067e-3
-1.790, 1.088e-3
-1.791, 1.110e-3
-1.792, 1.132e-3
-1.793, 1.153e-3
-1.794, 1.178e-3
-1.795, 1.199e-3
-1.796, 1.224e-3
-1.797, 1.246e-3
-1.798, 1.270e-3
-1.799, 1.295e-3
-1.800, 1.320e-3
-1.801, 1.344e-3
-1.802, 1.369e-3
-1.803, 1.394e-3
-1.804, 1.421e-3
-1.805, 1.449e-3
-1.806, 1.477e-3
-1.807, 1.505e-3
-1.808, 1.532e-3
-1.809, 1.557e-3
-1.810, 1.588e-3
-1.811, 1.616e-3
-1.812, 1.643e-3
-1.813, 1.674e-3
-1.814, 1.702e-3
-1.815, 1.736e-3
-1.816, 1.767e-3
-1.817, 1.801e-3
-1.818, 1.832e-3
-1.819, 1.865e-3
-1.820, 1.896e-3
-1.821, 1.927e-3
-1.822, 1.961e-3
-1.823, 1.992e-3
-1.824, 2.026e-3
-1.825, 2.060e-3
-1.826, 2.094e-3
-1.827, 2.131e-3
-1.828, 2.168e-3
-1.829, 2.205e-3
-1.830, 2.242e-3
-1.831, 2.279e-3
-1.832, 2.316e-3
-1.833, 2.353e-3
-1.834, 2.390e-3
-1.835, 2.430e-3
-1.836, 2.467e-3
-1.837, 2.504e-3
-1.838, 2.544e-3
-1.839, 2.584e-3
-1.840, 2.624e-3
-1.841, 2.667e-3
-1.842, 2.707e-3
-1.843, 2.750e-3
-1.844, 2.790e-3
-1.845, 2.834e-3
-1.846, 2.877e-3
-1.847, 2.920e-3
-1.848, 2.960e-3
-1.849, 3.003e-3
-1.850, 3.046e-3
-1.851, 3.089e-3
-1.852, 3.136e-3
-1.853, 3.179e-3
-1.854, 3.225e-3
-1.855, 3.268e-3
-1.856, 3.318e-3
-1.857, 3.364e-3
-1.858, 3.410e-3
-1.859, 3.456e-3
-1.860, 3.503e-3
-1.861, 3.549e-3
-1.862, 3.595e-3
-1.863, 3.641e-3
-1.864, 3.688e-3
-1.865, 3.737e-3
-1.866, 3.786e-3
-1.867, 3.836e-3
-1.868, 3.891e-3
-1.869, 3.943e-3
-1.870, 3.996e-3
-1.871, 4.045e-3
-1.872, 4.098e-3
-1.873, 4.150e-3
-1.874, 4.196e-3
-1.875, 4.246e-3
-1.876, 4.292e-3
-1.877, 4.344e-3
-1.878, 4.397e-3
-1.879, 4.452e-3
-1.880, 4.505e-3
-1.881, 4.563e-3
-1.882, 4.622e-3
-1.883, 4.680e-3
-1.884, 4.733e-3
-1.885, 4.785e-3
-1.886, 4.834e-3
-1.887, 4.884e-3
-1.888, 4.936e-3
-1.889, 4.992e-3
-1.890, 5.047e-3
-1.891, 5.103e-3
-1.892, 5.158e-3
-1.893, 5.217e-3
-1.894, 5.278e-3
-1.895, 5.343e-3
-1.896, 5.402e-3
-1.897, 5.457e-3
-1.898, 5.507e-3
-1.899, 5.559e-3
-1.900, 5.581e-3
-1.899, 5.550e-3
-1.898, 5.522e-3
-1.897, 5.491e-3
-1.896, 5.463e-3
-1.895, 5.433e-3
-1.894, 5.402e-3
-1.893, 5.371e-3
-1.892, 5.343e-3
-1.891, 5.312e-3
-1.890, 5.278e-3
-1.889, 5.248e-3
-1.888, 5.214e-3
-1.887, 5.177e-3
-1.886, 5.140e-3
-1.885, 5.106e-3
-1.884, 5.075e-3
-1.883, 5.044e-3
-1.882, 5.016e-3
-1.881, 4.982e-3
-1.880, 4.952e-3
-1.879, 4.915e-3
-1.878, 4.875e-3
-1.877, 4.834e-3
-1.876, 4.794e-3
-1.875, 4.754e-3
-1.874, 4.717e-3
-1.873, 4.683e-3
-1.872, 4.653e-3
-1.871, 4.622e-3
-1.870, 4.588e-3
-1.869, 4.557e-3
-1.868, 4.523e-3
-1.867, 4.486e-3
-1.866, 4.449e-3
-1.865, 4.409e-3
-1.864, 4.369e-3
-1.863, 4.329e-3
-1.862, 4.292e-3
-1.861, 4.252e-3
-1.860, 4.218e-3
-1.859, 4.187e-3
-1.858, 4.153e-3
-1.857, 4.122e-3
-1.856, 4.085e-3
-1.855, 4.051e-3
-1.854, 4.017e-3
-1.853, 3.977e-3
-1.852, 3.937e-3
-1.851, 3.900e-3
-1.850, 3.863e-3
-1.849, 3.826e-3
-1.848, 3.792e-3
-1.847, 3.758e-3
-1.846, 3.725e-3
-1.845, 3.691e-3
-1.844, 3.657e-3
-1.843, 3.623e-3
-1.842, 3.586e-3
-1.841, 3.552e-3
-1.840, 3.515e-3
-1.839, 3.478e-3
-1.838, 3.444e-3
-1.837, 3.410e-3
-1.836, 3.376e-3
-1.835, 3.345e-3
-1.834, 3.308e-3
-1.833, 3.274e-3
-1.832, 3.244e-3
-1.831, 3.210e-3
-1.830, 3.179e-3
-1.829, 3.142e-3
-1.828, 3.111e-3
-1.827, 3.077e-3
-1.826, 3.046e-3
-1.825, 3.012e-3
-1.824, 2.982e-3
-1.823, 2.948e-3
-1.822, 2.917e-3
-1.821, 2.889e-3
-1.820, 2.858e-3
-1.819, 2.827e-3
-1.818, 2.797e-3
-1.817, 2.766e-3
-1.816, 2.735e-3
-1.815, 2.701e-3
-1.814, 2.670e-3
-1.813, 2.639e-3
-1.812, 2.608e-3
-1.811, 2.578e-3
-1.810, 2.550e-3
-1.809, 2.522e-3
-1.808, 2.494e-3
-1.807, 2.470e-3
-1.806, 2.439e-3
-1.805, 2.411e-3
-1.804, 2.380e-3
-1.803, 2.349e-3
-1.802, 2.319e-3
-1.801, 2.291e-3
-1.800, 2.260e-3
-1.799, 2.235e-3
-1.798, 2.211e-3
-1.797, 2.183e-3
-1.796, 2.161e-3
-1.795, 2.137e-3
-1.794, 2.109e-3
-1.793, 2.081e-3
-1.792, 2.057e-3
-1.791, 2.026e-3
-1.790, 2.001e-3
-1.789, 1.973e-3
-1.788, 1.949e-3
-1.787, 1.924e-3
-1.786, 1.899e-3
-1.785, 1.878e-3
-1.784, 1.856e-3
-1.783, 1.832e-3
-1.782, 1.807e-3
-1.781, 1.785e-3
-1.780, 1.761e-3
-1.779, 1.736e-3
-1.778, 1.714e-3
-1.777, 1.690e-3
-1.776, 1.668e-3
-1.775, 1.643e-3
-1.774, 1.622e-3
-1.773, 1.600e-3
-1.772, 1.582e-3
-1.771, 1.560e-3
-1.770, 1.539e-3
-1.769, 1.517e-3
-1.768, 1.495e-3
-1.767, 1.474e-3
-1.766, 1.452e-3
-1.765, 1.431e-3
-1.764, 1.412e-3
-1.763, 1.394e-3
-1.762, 1.372e-3
-1.761, 1.354e-3
-1.760, 1.335e-3
-1.759, 1.314e-3
-1.758, 1.298e-3
-1.757, 1.280e-3
-1.756, 1.258e-3
-1.755, 1.243e-3
-1.754, 1.224e-3
-1.753, 1.206e-3
-1.752, 1.190e-3
-1.751, 1.172e-3
-1.750, 1.156e-3
-1.749, 1.138e-3
-1.748, 1.122e-3
-1.747, 1.104e-3
-1.746, 1.088e-3
-1.745, 1.070e-3
-1.744, 1.055e-3
-1.743, 1.039e-3
-1.742, 1.024e-3
-1.741, 1.008e-3
-1.740, 9.929e-4
-1.739, 9.775e-4
-1.738, 9.621e-4
-1.737, 9.467e-4
-1.736, 9.313e-4
-1.735, 9.158e-4
-1.734, 9.035e-4
-1.733, 8.881e-4
-1.732, 8.758e-4
-1.731, 8.603e-4
-1.730, 8.480e-4
-1.729, 8.326e-4
-1.728, 8.203e-4
-1.727, 8.079e-4
-1.726, 7.956e-4
-1.725, 7.833e-4
-1.724, 7.679e-4
-1.723, 7.555e-4
-1.722, 7.432e-4
-1.721, 7.309e-4
-1.720, 7.185e-4
-1.719, 7.093e-4
-1.718, 6.969e-4
-1.717, 6.846e-4
-1.716, 6.723e-4
-1.715, 6.630e-4
-1.714, 6.507e-4
-1.713, 6.414e-4
-1.712, 6.322e-4
-1.711, 6.199e-4
-1.710, 6.106e-4
-1.709, 5.983e-4
-1.708, 5.890e-4
-1.707, 5.798e-4
-1.706, 5.674e-4
-1.705, 5.613e-4
-1.704, 5.489e-4
-1.703, 5.397e-4
-1.702, 5.305e-4
-1.701, 5.243e-4
-1.700, 5.120e-4
-1.699, 5.027e-4
-1.698, 4.965e-4
-1.697, 4.873e-4
-1.696, 4.780e-4
-1.695, 4.688e-4
-1.694, 4.626e-4
-1.693, 4.534e-4
-1.692, 4.472e-4
-1.691, 4.380e-4
-1.690, 4.287e-4
-1.689, 4.225e-4
-1.688, 4.164e-4
-1.687, 4.102e-4
-1.686, 4.010e-4
-1.685, 3.948e-4
-1.684, 3.855e-4
-1.683, 3.794e-4
-1.682, 3.732e-4
-1.681, 3.670e-4
-1.680, 3.609e-4
-1.679, 3.516e-4
-1.678, 3.485e-4
-1.677, 3.393e-4
-1.676, 3.331e-4
-1.675, 3.300e-4
-1.674, 3.239e-4
-1.673, 3.177e-4
-1.672, 3.115e-4
-1.671, 3.054e-4
-1.670, 2.992e-4
-1.669, 2.961e-4
-1.668, 2.900e-4
-1.667, 2.838e-4
-1.666, 2.776e-4
-1.665, 2.715e-4
-1.664, 2.684e-4
-1.663, 2.622e-4
-1.662, 2.561e-4
-1.661, 2.530e-4
-1.660, 2.499e-4
-1.659, 2.437e-4
-1.658, 2.406e-4
-1.657, 2.345e-4
-1.656, 2.314e-4
-1.655, 2.283e-4
-1.654, 2.221e-4
-1.653, 2.191e-4
-1.652, 2.129e-4
-1.651, 2.098e-4
-1.650, 2.067e-4
-1.649, 2.006e-4
-1.648, 1.975e-4
-1.647, 1.944e-4
-1.646, 1.913e-4
-1.645, 1.882e-4
-1.644, 1.821e-4
-1.643, 1.790e-4
-1.642, 1.790e-4
-1.641, 1.728e-4
-1.640, 1.697e-4
-1.639, 1.666e-4
-1.638, 1.636e-4
-1.637, 1.605e-4
-1.636, 1.574e-4
-1.635, 1.543e-4
-1.634, 1.512e-4
-1.633, 1.481e-4
-1.632, 1.451e-4
-1.631, 1.420e-4
-1.630, 1.389e-4
-1.629, 1.358e-4
-1.628, 1.358e-4
-1.627, 1.327e-4
-1.626, 1.296e-4
-1.625, 1.266e-4
-1.624, 1.235e-4
-1.623, 1.204e-4
-1.622, 1.204e-4
-1.621, 1.173e-4
-1.620, 1.142e-4
-1.619, 1.142e-4
-1.618, 1.111e-4
-1.617, 1.081e-4
-1.616, 1.050e-4
-1.615, 1.050e-4
-1.614, 1.019e-4
-1.613, 9.882e-5
-1.612, 9.882e-5
-1.611, 9.573e-5
-1.610, 9.573e-5
-1.609, 9.265e-5
-1.608, 8.957e-5
-1.607, 8.957e-5
-1.606, 8.648e-5
-1.605, 8.648e-5
-1.604, 8.340e-5
-1.603, 8.340e-5
-1.602, 8.032e-5
-1.601, 8.032e-5
-1.600, 7.723e-5
-1.599, 7.723e-5
-1.598, 7.415e-5
-1.597, 7.415e-5
-1.596, 7.107e-5
-1.595, 6.798e-5
-1.594, 6.798e-5
-1.593, 6.798e-5
-1.592, 6.490e-5
-1.591, 6.490e-5
-1.590, 6.182e-5
-1.589, 6.182e-5
-1.588, 6.182e-5
-1.587, 5.873e-5
-1.586, 5.873e-5
-1.585, 5.873e-5
-1.584, 5.565e-5
-1.583, 5.565e-5
-1.582, 5.257e-5
-1.581, 5.257e-5
-1.580, 5.257e-5
-1.579, 4.949e-5
-1.578, 4.949e-5
-1.577, 4.949e-5
-1.576, 4.640e-5
-1.575, 4.640e-5
-1.574, 4.640e-5
-1.573, 4.640e-5
-1.572, 4.332e-5
-1.571, 4.332e-5
-1.570, 4.024e-5
-1.569, 4.024e-5
-1.568, 4.024e-5
-1.567, 4.024e-5
-1.566, 3.715e-5
-1.565, 3.715e-5
-1.564, 3.715e-5
-1.563, 3.715e-5
-1.562, 3.407e-5
-1.561, 3.407e-5
-1.560, 3.407e-5
-1.559, 3.407e-5
-1.558, 3.407e-5
-1.557, 3.099e-5
-1.556, 3.099e-5
-1.555, 3.099e-5
-1.554, 3.099e-5
-1.553, 2.790e-5
-1.552, 2.790e-5
-1.551, 2.790e-5
-1.550, 2.790e-5
-1.549, 2.790e-5
-1.548, 2.482e-5
-1.547, 2.482e-5
-1.546, 2.482e-5
-1.545, 2.482e-5
-1.544, 2.482e-5
-1.543, 2.174e-5
-1.542, 2.482e-5
-1.541, 2.174e-5
-1.540, 2.174e-5
-1.539, 2.174e-5
-1.538, 2.174e-5
-1.537, 2.174e-5
-1.536, 1.865e-5
-1.535, 1.865e-5
-1.534, 1.865e-5
-1.533, 1.865e-5
-1.532, 1.865e-5
-1.531, 1.865e-5
-1.530, 1.865e-5
-1.529, 1.557e-5
-1.528, 1.557e-5
-1.527, 1.557e-5
-1.526, 1.557e-5
-1.525, 1.557e-5
-1.524, 1.557e-5
-1.523, 1.557e-5
-1.522, 1.557e-5
-1.521, 1.557e-5
-1.520, 1.249e-5
-1.519, 1.249e-5
-1.518, 1.249e-5
-1.517, 1.249e-5
-1.516, 1.249e-5
-1.515, 1.249e-5
-1.514, 1.249e-5
-1.513, 1.249e-5
-1.512, 1.249e-5
-1.511, 1.249e-5
-1.510, 9.405e-6
-1.509, 9.405e-6
-1.508, 1.249e-5
-1.507, 9.405e-6
-1.506, 1.249e-5
-1.505, 9.405e-6
-1.504, 9.405e-6
-1.503, 9.405e-6
-1.502, 9.405e-6
-1.501, 9.405e-6
-1.500, 6.322e-6
-1.499, 9.405e-6
-1.498, 9.405e-6
-1.497, 9.405e-6
-1.496, 6.322e-6
-1.495, 6.322e-6
-1.494, 6.322e-6
-1.493, 6.322e-6
-1.492, 6.322e-6
-1.491, 6.322e-6
-1.490, 6.322e-6
-1.489, 6.322e-6
-1.488, 6.322e-6
-1.487, 6.322e-6
-1.486, 6.322e-6
-1.485, 6.322e-6
-1.484, 6.322e-6
-1.483, 6.322e-6
-1.482, 6.322e-6
-1.481, 6.322e-6
-1.480, 6.322e-6
-1.479, 6.322e-6
-1.478, 3.239e-6
-1.477, 3.239e-6
-1.476, 6.322e-6
-1.475, 3.239e-6
-1.474, 6.322e-6
-1.473, 3.239e-6
-1.472, 3.239e-6
-1.471, 3.239e-6
-1.470, 3.239e-6
-1.469, 3.239e-6
-1.468, 3.239e-6
-1.467, 3.239e-6
-1.466, 3.239e-6
-1.465, 3.239e-6
-1.464, 3.239e-6
-1.463, 3.239e-6
-1.462, 3.239e-6
-1.461, 3.239e-6
-1.460, 3.239e-6
-1.459, 3.239e-6
-1.458, 3.239e-6
-1.457, 3.239e-6
-1.456, 3.239e-6
-1.455, 3.239e-6
-1.454, 3.239e-6
-1.453, 1.559e-7
-1.452, 1.559e-7
-1.451, 3.239e-6
-1.450, 1.559e-7
-1.449, 3.239e-6
-1.448, 1.559e-7
-1.447, 3.239e-6
-1.446, 1.559e-7
-1.445, 1.559e-7
-1.444, 1.559e-7
-1.443, 1.559e-7
-1.442, 1.559e-7
-1.441, 1.559e-7
-1.440, 1.559e-7
-1.439, 1.559e-7
-1.438, 1.559e-7
-1.437, 1.559e-7
-1.436, 1.559e-7
-1.435, 1.559e-7
-1.434, 1.559e-7
-1.433, 1.559e-7
-1.432, 1.559e-7
-1.431, 1.559e-7
-1.430, 1.559e-7
-1.429, 1.559e-7
-1.428, 1.559e-7
-1.427, 1.559e-7
-1.426, 1.559e-7
-1.425, 1.559e-7
-1.424, 1.559e-7
-1.423, 1.559e-7
-1.422, 1.559e-7
-1.421, 1.559e-7
-1.420, 1.559e-7
-1.419, 1.559e-7
-1.418, 1.559e-7
-1.417, 1.559e-7
-1.416, 1.559e-7
-1.415, 1.559e-7
-1.414, 1.559e-7
-1.413, 1.559e-7
-1.412, 1.559e-7
-1.411, 1.559e-7
-1.410, 1.559e-7
-1.409, -2.927e-6
-1.408, 1.559e-7
-1.407, 1.559e-7
-1.406, 1.559e-7
-1.405, 1.559e-7
-1.404, 1.559e-7
-1.403, -2.927e-6
-1.402, 1.559e-7
-1.401, 1.559e-7
-1.400, 1.559e-7
-1.399, -2.927e-6
-1.398, -2.927e-6
-1.397, -2.927e-6
-1.396, -2.927e-6
-1.395, -2.927e-6
-1.394, -2.927e-6
-1.393, -2.927e-6
-1.392, 1.559e-7
-1.391, -2.927e-6
-1.390, -2.927e-6
-1.389, -2.927e-6
-1.388, 1.559e-7
-1.387, 1.559e-7
-1.386, -2.927e-6
-1.385, -2.927e-6
-1.384, -2.927e-6
-1.383, 1.559e-7
-1.382, -2.927e-6
-1.381, -2.927e-6
-1.380, -2.927e-6
-1.379, -2.927e-6
-1.378, -2.927e-6
-1.377, -2.927e-6
-1.376, -2.927e-6
-1.375, -2.927e-6
-1.374, 1.559e-7
-1.373, -2.927e-6
-1.372, -2.927e-6
-1.371, -2.927e-6
-1.370, -2.927e-6
-1.369, -2.927e-6
-1.368, -2.927e-6
-1.367, -2.927e-6
-1.366, -2.927e-6
-1.365, -2.927e-6
-1.364, -2.927e-6
-1.363, -2.927e-6
-1.362, -2.927e-6
-1.361, -2.927e-6
-1.360, -2.927e-6
-1.359, -2.927e-6
-1.358, -2.927e-6
-1.357, -2.927e-6
-1.356, -2.927e-6
-1.355, -2.927e-6
-1.354, -2.927e-6
-1.353, -2.927e-6
-1.352, -2.927e-6
-1.351, -2.927e-6
-1.350, -2.927e-6
-1.349, -2.927e-6
-1.348, -2.927e-6
-1.347, -2.927e-6
-1.346, -2.927e-6
-1.345, -2.927e-6
-1.344, -2.927e-6
-1.343, -2.927e-6
-1.342, -2.927e-6
-1.341, -2.927e-6
-1.340, -2.927e-6
-1.339, -2.927e-6
-1.338, -2.927e-6
-1.337, -2.927e-6
-1.336, -2.927e-6
-1.335, -2.927e-6
-1.334, -2.927e-6
-1.333, -2.927e-6
-1.332, -2.927e-6
-1.331, -2.927e-6
-1.330, -2.927e-6
-1.329, -2.927e-6
-1.328, -2.927e-6
-1.327, -2.927e-6
-1.326, -2.927e-6
-1.325, -2.927e-6
-1.324, -2.927e-6
-1.323, -2.927e-6
-1.322, -2.927e-6
-1.321, -2.927e-6
-1.320, -2.927e-6
-1.319, -2.927e-6
-1.318, -2.927e-6
-1.317, -2.927e-6
-1.316, -2.927e-6
-1.315, -2.927e-6
-1.314, -2.927e-6
-1.313, -2.927e-6
-1.312, -2.927e-6
-1.311, -2.927e-6
-1.310, -2.927e-6
-1.309, -2.927e-6
-1.308, -2.927e-6
-1.307, -2.927e-6
-1.306, -2.927e-6
-1.305, -2.927e-6
-1.304, -2.927e-6
-1.303, -2.927e-6
-1.302, -2.927e-6
-1.301, -2.927e-6
-1.300, -2.927e-6
-1.299, -2.927e-6
-1.298, -2.927e-6
-1.297, -2.927e-6
-1.296, -2.927e-6
-1.295, -2.927e-6
-1.294, -2.927e-6
-1.293, -2.927e-6
-1.292, -2.927e-6
-1.291, -2.927e-6
-1.290, -2.927e-6
-1.289, -2.927e-6
-1.288, -2.927e-6
-1.287, -2.927e-6
-1.286, -2.927e-6
-1.285, -2.927e-6
-1.284, -2.927e-6
-1.283, -2.927e-6
-1.282, -2.927e-6
-1.281, -2.927e-6
-1.280, -2.927e-6
-1.279, -2.927e-6
-1.278, -2.927e-6
-1.277, -2.927e-6
-1.276, -2.927e-6
-1.275, -2.927e-6
-1.274, -2.927e-6
-1.273, -2.927e-6
-1.272, -2.927e-6
-1.271, -2.927e-6
-1.270, -2.927e-6
-1.269, -2.927e-6
-1.268, -2.927e-6
-1.267, -2.927e-6
-1.266, -2.927e-6
-1.265, -2.927e-6
-1.264, -2.927e-6
-1.263, -2.927e-6
-1.262, -2.927e-6
-1.261, -2.927e-6
-1.260, -2.927e-6
-1.259, -2.927e-6
-1.258, -2.927e-6
-1.257, -2.927e-6
-1.256, -2.927e-6
-1.255, -2.927e-6
-1.254, -2.927e-6
-1.253, -2.927e-6
-1.252, -2.927e-6
-1.251, -2.927e-6
-1.250, -6.010e-6
-1.249, -2.927e-6
-1.248, -2.927e-6
-1.247, -2.927e-6
-1.246, -2.927e-6
-1.245, -2.927e-6
-1.244, -2.927e-6
-1.243, -2.927e-6
-1.242, -2.927e-6
-1.241, -2.927e-6
-1.240, -2.927e-6
-1.239, -2.927e-6
-1.238, -2.927e-6
-1.237, -2.927e-6
-1.236, -2.927e-6
-1.235, -2.927e-6
-1.234, -2.927e-6
-1.233, -2.927e-6
-1.232, -2.927e-6
-1.231, -2.927e-6
-1.230, -2.927e-6
-1.229, -2.927e-6
-1.228, -2.927e-6
-1.227, -2.927e-6
-1.226, -2.927e-6
-1.225, -2.927e-6
-1.224, -2.927e-6
-1.223, -6.010e-6
-1.222, -2.927e-6
-1.221, -2.927e-6
-1.220, -2.927e-6
-1.219, -6.010e-6
-1.218, -6.010e-6
-1.217, -2.927e-6
-1.216, -2.927e-6
-1.215, -6.010e-6
-1.214, -6.010e-6
-1.213, -2.927e-6
-1.212, -2.927e-6
-1.211, -2.927e-6
-1.210, -2.927e-6
-1.209, -2.927e-6
-1.208, -6.010e-6
-1.207, -2.927e-6
-1.206, -2.927e-6
-1.205, -6.010e-6
-1.204, -2.927e-6
-1.203, -6.010e-6
-1.202, -2.927e-6
-1.201, -2.927e-6
-1.200, -2.927e-6
-1.199, -2.927e-6
-1.198, -6.010e-6
-1.197, -2.927e-6
-1.196, -2.927e-6
-1.195, -2.927e-6
-1.194, -6.010e-6
-1.193, -6.010e-6
-1.192, -2.927e-6
-1.191, -2.927e-6
-1.190, -6.010e-6
-1.189, -6.010e-6
-1.188, -2.927e-6
-1.187, -6.010e-6
-1.186, -6.010e-6
-1.185, -6.010e-6
-1.184, -6.010e-6
-1.183, -6.010e-6
-1.182, -2.927e-6
-1.181, -2.927e-6
-1.180, -2.927e-6
-1.179, -2.927e-6
-1.178, -2.927e-6
-1.177, -2.927e-6
-1.176, -2.927e-6
-1.175, -2.927e-6
-1.174, -6.010e-6
-1.173, -6.010e-6
-1.172, -2.927e-6
-1.171, -6.010e-6
-1.170, -2.927e-6
-1.169, -6.010e-6
-1.168, -6.010e-6
-1.167, -6.010e-6
-1.166, -6.010e-6
-1.165, -6.010e-6
-1.164, -6.010e-6
-1.163, -2.927e-6
-1.162, -6.010e-6
-1.161, -6.010e-6
-1.160, -6.010e-6
-1.159, -2.927e-6
-1.158, -6.010e-6
-1.157, -6.010e-6
-1.156, -2.927e-6
-1.155, -2.927e-6
-1.154, -2.927e-6
-1.153, -6.010e-6
-1.152, -2.927e-6
-1.151, -2.927e-6
-1.150, -6.010e-6
-1.149, -6.010e-6
-1.148, -6.010e-6
-1.147, -6.010e-6
-1.146, -6.010e-6
-1.145, -6.010e-6
-1.144, -6.010e-6
-1.143, -2.927e-6
-1.142, -2.927e-6
-1.141, -6.010e-6
-1.140, -6.010e-6
-1.139, -6.010e-6
-1.138, -2.927e-6
-1.137, -6.010e-6
-1.136, -6.010e-6
-1.135, -6.010e-6
-1.134, -6.010e-6
-1.133, -6.010e-6
-1.132, -2.927e-6
-1.131, -6.010e-6
-1.130, -6.010e-6
-1.129, -6.010e-6
-1.128, -6.010e-6
-1.127, -6.010e-6
-1.126, -6.010e-6
-1.125, -6.010e-6
-1.124, -6.010e-6
-1.123, -6.010e-6
-1.122, -2.927e-6
-1.121, -6.010e-6
-1.120, -6.010e-6
-1.119, -6.010e-6
-1.118, -6.010e-6
-1.117, -6.010e-6
-1.116, -6.010e-6
-1.115, -6.010e-6
-1.114, -6.010e-6
-1.113, -6.010e-6
-1.112, -6.010e-6
-1.111, -6.010e-6
-1.110, -6.010e-6
-1.109, -6.010e-6
-1.108, -6.010e-6
-1.107, -6.010e-6
-1.106, -6.010e-6
-1.105, -6.010e-6
-1.104, -6.010e-6
-1.103, -6.010e-6
-1.102, -6.010e-6
-1.101, -6.010e-6
-1.100, -6.010e-6
-1.099, -6.010e-6
-1.098, -6.010e-6
-1.097, -6.010e-6
-1.096, -6.010e-6
-1.095, -6.010e-6
-1.094, -6.010e-6
-1.093, -6.010e-6
-1.092, -6.010e-6
-1.091, -6.010e-6
-1.090, -6.010e-6
-1.089, -6.010e-6
-1.088, -6.010e-6
-1.087, -6.010e-6
-1.086, -6.010e-6
-1.085, -6.010e-6
-1.084, -6.010e-6
-1.083, -6.010e-6
-1.082, -6.010e-6
-1.081, -6.010e-6
-1.080, -6.010e-6
-1.079, -6.010e-6
-1.078, -6.010e-6
-1.077, -6.010e-6
-1.076, -6.010e-6
-1.075, -6.010e-6
-1.074, -6.010e-6
-1.073, -6.010e-6
-1.072, -6.010e-6
-1.071, -6.010e-6
-1.070, -6.010e-6
-1.069, -6.010e-6
-1.068, -6.010e-6
-1.067, -6.010e-6
-1.066, -6.010e-6
-1.065, -6.010e-6
-1.064, -6.010e-6
-1.063, -6.010e-6
-1.062, -6.010e-6
-1.061, -6.010e-6
-1.060, -6.010e-6
-1.059, -6.010e-6
-1.058, -6.010e-6
-1.057, -6.010e-6
-1.056, -6.010e-6
-1.055, -6.010e-6
-1.054, -6.010e-6
-1.053, -6.010e-6
-1.052, -6.010e-6
-1.051, -6.010e-6
-1.050, -6.010e-6
-1.049, -6.010e-6
-1.048, -6.010e-6
-1.047, -6.010e-6
-1.046, -6.010e-6
-1.045, -6.010e-6
-1.044, -6.010e-6
-1.043, -6.010e-6
-1.042, -6.010e-6
-1.041, -6.010e-6
-1.040, -6.010e-6
-1.039, -6.010e-6
-1.038, -6.010e-6
-1.037, -6.010e-6
-1.036, -6.010e-6
-1.035, -6.010e-6
-1.034, -6.010e-6
-1.033, -6.010e-6
-1.032, -6.010e-6
-1.031, -6.010e-6
-1.030, -6.010e-6
-1.029, -6.010e-6
-1.028, -6.010e-6
-1.027, -6.010e-6
-1.026, -6.010e-6
-1.025, -6.010e-6
-1.024, -6.010e-6
-1.023, -6.010e-6
-1.022, -6.010e-6
-1.021, -9.093e-6
-1.020, -6.010e-6
-1.019, -9.093e-6
-1.018, -9.093e-6
-1.017, -9.093e-6
-1.016, -9.093e-6
-1.015, -6.010e-6
-1.014, -6.010e-6
-1.013, -6.010e-6
-1.012, -6.010e-6
-1.011, -9.093e-6
-1.010, -9.093e-6
-1.009, -9.093e-6
-1.008, -9.093e-6
-1.007, -9.093e-6
-1.006, -6.010e-6
-1.005, -9.093e-6
-1.004, -6.010e-6
-1.003, -9.093e-6
-1.002, -9.093e-6
-1.001, -9.093e-6
