Potential V vs RHE, Current mA cm-2
0.013299999999999867,7.107509570521944
0.012299999999999978,4.752015256246658
0.011299999999999866,2.70209858274222
0.010299999999999976,0.7829012333453113
0.009299999999999864,-0.9617207416482519
0.008299999999999974,-2.662486666345999
0.007299999999999862,-4.23281620919619
0.006299999999999972,-5.80314575204638
0.00529999999999986,-7.329619244600755
0.0042999999999999705,-8.812236686859313
0.0032999999999998586,-10.25241279012192
0.0022999999999999687,-11.56102074249708
0.0012999999999998568,-12.913484745168056
0.00029999999999996696,-14.090524546655764
-0.000700000000000145,-15.307176264539699
-0.0017000000000000348,-16.495533756426326
-0.0027000000000001467,-17.627302796318357
-0.0037000000000000366,-18.80151317520634
-0.0047000000000001485,-19.93328221509837
-0.005700000000000038,-20.980168576998494
-0.00670000000000015,-22.027054938898623
-0.00770000000000004,-23.031499961802798
-0.008700000000000152,-24.035944984706973
-0.009700000000000042,-25.0828313466071
-0.010700000000000154,-26.129717708507226
-0.011700000000000044,-27.134162731411404
-0.012700000000000156,-28.09616641531963
-0.013700000000000045,-28.959140308237306
-0.014700000000000157,-29.836261314153624
-0.015700000000000047,-30.71338232006995
-0.01670000000000016,-31.57635621298762
-0.01770000000000005,-32.45347721890394
-0.01870000000000016,-33.373039563816214
-0.01970000000000005,-34.278454795729836
-0.020700000000000163,-35.11313446265021
-0.021700000000000053,-36.03269680756248
-0.022700000000000164,-36.89567070048016
-0.023700000000000054,-37.687909028404576
-0.024700000000000166,-38.522588695324956
-0.025700000000000056,-39.258238571254765
-0.026700000000000168,-40.03632978618054
-0.027700000000000058,-40.91345079209687
-0.02870000000000017,-41.74813045901723
-0.02970000000000006,-42.568663012938956
-0.03070000000000017,-43.36090134086337
-0.03170000000000006,-44.138992555789144
-0.03270000000000017,-44.93123088371356
-0.03370000000000006,-45.666880759643384
-0.034700000000000175,-46.41667774857186
-0.035700000000000065,-47.19476896349763
-0.03670000000000018,-47.93041883942744
-0.03770000000000007,-48.68021582835591
-0.03870000000000018,-49.41586570428573
-0.03970000000000007,-50.1656626932142
-0.04070000000000018,-50.85887123014807
-0.04170000000000007,-51.55207976708194
-0.04270000000000018,-52.30187675601041
-0.04370000000000007,-53.079967970936174
-0.044700000000000184,-53.872206298860604
-0.045700000000000074,-54.65029751378637
-0.046700000000000186,-55.442535841710786
-0.047700000000000076,-56.13574437864466
-0.04870000000000019,-56.82895291557852
-0.04970000000000008,-57.53630856551105
-0.05070000000000019,-58.22951710244491
-0.05170000000000008,-58.92272563937878
-0.05270000000000019,-59.67252262830725
-0.05370000000000008,-60.40817250423707
-0.05470000000000019,-61.20041083216149
-0.05570000000000008,-61.89361936909536
-0.056700000000000195,-62.544386567033264
-0.057700000000000085,-63.20930087796983
-0.058700000000000196,-63.860068075907755
-0.059700000000000086,-64.55327661284163
-0.0607000000000002,-65.3030736017701
-0.06170000000000009,-66.08116481669586
-0.0627000000000002,-66.81681469262568
-0.06370000000000009,-67.56661168155415
-0.0647000000000002,-68.25982021848802
-0.06570000000000009,-68.96717586842054
-0.0667000000000002,-69.57550172736251
-0.0677000000000001,-70.26871026429637
-0.0687000000000002,-70.96191880123024
-0.0697000000000001,-71.66927445116276
-0.07070000000000021,-72.40492432709259
-0.0717000000000001,-73.15472131602105
-0.07270000000000021,-73.89037119195086
-0.0737000000000001,-74.58357972888473
-0.07470000000000021,-75.2484940398213
-0.0757000000000001,-75.94170257675518
-0.07670000000000021,-76.63491111368903
-0.0777000000000001,-77.38470810261751
-0.07870000000000021,-78.07791663955136
-0.0797000000000001,-78.85600785447714
-0.08070000000000022,-79.60580484340561
-0.0817000000000001,-80.25657204134353
-0.08270000000000022,-80.86489790028548
-0.08370000000000011,-81.51566509822342
-0.08470000000000022,-82.22302074815593
-0.08570000000000011,-82.9162292850898
-0.08670000000000022,-83.60943782202366
-0.08770000000000011,-84.31679347195619
-0.08870000000000022,-85.01000200889004
-0.08970000000000011,-85.66076920682796
-0.09070000000000022,-86.28324217876859
-0.09170000000000011,-86.89156803771054
-0.09270000000000023,-87.54233523564847
-0.09370000000000012,-88.23554377258235
-0.09470000000000023,-89.02778210050676
-0.09570000000000012,-89.76343197643658
-0.09670000000000023,-90.59811164335694
-0.09770000000000012,-91.29132018029082
-0.09870000000000023,-91.94208737822873
-0.09970000000000012,-92.64944302816124
-0.10070000000000023,-93.25776888710321
-0.10170000000000012,-93.95097742403709
-0.10270000000000024,-94.601744621975
-0.10370000000000013,-95.30910027190752
-0.10470000000000024,-96.04475014783733
-0.10570000000000013,-96.73795868477121
-0.10670000000000024,-97.40287299570777
-0.10770000000000013,-98.05364019364569
-0.10870000000000024,-98.6195247135917
-0.10970000000000013,-99.22785057253368
-0.11070000000000024,-99.87861777047159
-0.11170000000000013,-100.58597342040412
-0.11270000000000002,-101.3640646353299
-0.11370000000000013,-102.11386162425833
-0.11470000000000002,-102.76462882219626
-0.11570000000000014,-103.37295468113824
-0.11670000000000003,-103.93883920108425
-0.11770000000000014,-104.5471650600262
-0.11870000000000003,-105.16963803196683
-0.11970000000000014,-105.7779638909088
-0.12070000000000003,-106.47117242784265
-0.12170000000000014,-107.07949828678463
-0.12270000000000003,-107.68782414572658
-0.12370000000000014,-108.2537086656726
-0.12470000000000003,-108.87618163761321
-0.12570000000000014,-109.39962481856328
-0.12670000000000003,-110.00795067750525
-0.12770000000000015,-110.6162765364472
-0.12870000000000004,-111.22460239538917
-0.12970000000000015,-111.8753695933271
-0.13070000000000004,-112.54028390426367
-0.13170000000000015,-113.14860976320564
-0.13270000000000004,-113.67205294415571
-0.13370000000000015,-114.23793746410173
-0.13470000000000004,-114.84626332304367
-0.13570000000000015,-115.4121478429897
-0.13670000000000004,-116.02047370193165
-0.13770000000000016,-116.62879956087362
-0.13870000000000005,-117.19468408081964
-0.13970000000000016,-117.77471571376431
-0.14070000000000005,-118.3406002337103
-0.14170000000000016,-118.82160207566443
-0.14270000000000005,-119.38748659561045
-0.14370000000000016,-119.86848843756455
-0.14470000000000005,-120.39193161851462
-0.14570000000000016,-120.95781613846064
-0.14670000000000005,-121.52370065840667
-0.14770000000000016,-122.08958517835266
-0.14870000000000005,-122.57058702030677
-0.14970000000000017,-123.05158886226087
-0.15070000000000006,-123.4760022522204
-0.15170000000000017,-123.91456275517855
-0.15270000000000006,-124.39556459713268
-0.15370000000000017,-124.91900777808273
-0.15470000000000006,-125.48489229802875
-0.15570000000000017,-126.05077681797478
-0.15670000000000006,-126.5317786599289
-0.15770000000000017,-127.05522184087894
-0.15870000000000006,-127.45134100484115
-0.15970000000000018,-127.88990150779931
-0.16070000000000007,-128.37090334975343
-0.16170000000000018,-128.89434653070347
-0.16270000000000007,-129.41778971165354
-0.16370000000000018,-130.02611557059552
-0.16470000000000007,-130.59200009054155
-0.16570000000000018,-131.03056059349967
-0.16670000000000007,-131.46912109645783
-0.16770000000000018,-131.89353448641737
-0.16870000000000007,-132.2896536503796
-0.16970000000000018,-132.7706554923337
-0.17070000000000007,-133.20921599529186
-0.17170000000000019,-133.64777649825
-0.17270000000000008,-134.08633700120816
-0.1737000000000002,-134.5107503911677
-0.17470000000000008,-134.94931089412586
-0.1757000000000002,-135.387871397084
-0.17670000000000008,-135.82643190004217
-0.1777000000000002,-136.30743374199628
-0.17870000000000008,-136.74599424495443
-0.1797000000000002,-137.22699608690854
-0.18070000000000008,-137.65140947686808
-0.1817000000000002,-138.04752864083028
-0.18270000000000008,-138.40120646579655
-0.1837000000000002,-138.6982958387682
-0.1847000000000001,-139.09441500273041
-0.1857000000000002,-139.53297550568857
-0.1867000000000001,-139.97153600864672
-0.1877000000000002,-140.41009651160488
-0.1887000000000001,-140.84865701456303
-0.1897000000000002,-141.2306290655266
-0.1907000000000001,-141.61260111649017
-0.1917000000000001,-142.03701450644968
-0.19269999999999998,-142.31995676642268
-0.1937000000000001,-142.7443701563822
-0.19469999999999998,-143.16878354634173
-0.1957000000000001,-143.73466806628772
-0.19669999999999999,-144.15908145624724
-0.1977000000000001,-144.58349484620675
-0.1987,-145.00790823616626
-0.1997000000000001,-145.29085049613926
-0.2007,-145.7152638860988
-0.2017000000000001,-146.1396772760583
-0.2027,-146.5640906660178
-0.2037000000000001,-146.9885040559773
-0.2047,-147.4129174459368
-0.2057000000000001,-147.83733083589632
-0.2067,-148.12027309586935
-0.2077000000000001,-148.40321535584232
-0.2087,-148.68615761581535
-0.2097000000000001,-149.1105710057749
-0.2107,-149.53498439573437
-0.2117000000000001,-149.8179266557074
-0.2127,-150.24234004566688
-0.2137000000000001,-150.5252823056399
-0.2147,-150.94969569559944
-0.2157000000000001,-151.23263795557244
-0.2167,-151.37410908555893
-0.21770000000000012,-151.65705134553193
-0.2187,-151.93999360550492
-0.21970000000000012,-152.0814647354914
-0.2207,-152.36440699546444
-0.22170000000000012,-152.64734925543743
-0.2227,-153.07176264539694
-0.22370000000000012,-153.35470490536997
-0.2247,-153.63764716534297
-0.22570000000000012,-153.77911829532948
-0.2267,-153.920589425316
-0.22770000000000012,-154.3450028152755
-0.22870000000000001,-154.76941620523502
-0.22970000000000013,-155.19382959519453
-0.23070000000000002,-155.47677185516753
-0.23170000000000013,-155.75971411514055
-0.23270000000000002,-155.90118524512707
-0.23370000000000013,-155.75971411514055
-0.23470000000000002,-155.90118524512707
-0.23570000000000013,-156.18412750510007
-0.23670000000000002,-156.75001202504606
-0.2376999999999999,-157.45736767497857
-0.23870000000000002,-158.02325219492457
-0.2396999999999999,-158.4476655848841
-0.24070000000000003,-158.5891367148706
-0.24169999999999991,-158.73060784485713
-0.24270000000000003,-158.87207897484362
-0.24369999999999992,-159.01355010483013
-0.24470000000000003,-158.87207897484362
-0.24569999999999992,-159.15502123481662
-0.24670000000000003,-159.43796349478964
-0.24769999999999992,-159.57943462477613
-0.24870000000000003,-159.86237688474912
-0.24969999999999992,-160.14531914472215
-0.25070000000000003,-160.28679027470866
-0.2516999999999999,-160.42826140469515
-0.25270000000000004,-160.28679027470866
-0.2536999999999999,-160.28679027470866
-0.25470000000000004,-160.5697325346817
-0.2556999999999999,-160.8526747946547
-0.25670000000000004,-161.1356170546277
-0.25769999999999993,-161.41855931460069
-0.25870000000000004,-161.70150157457368
-0.25969999999999993,-161.9844438345467
-0.26070000000000004,-162.2673860945197
-0.26169999999999993,-162.5503283544927
-0.26270000000000004,-162.8332706144657
-0.26369999999999993,-163.11621287443873
-0.26470000000000005,-163.54062626439824
-0.26569999999999994,-163.82356852437124
-0.26670000000000005,-164.10651078434424
-0.26769999999999994,-164.38945304431726
-0.26870000000000005,-164.81386643427678
-0.26969999999999994,-164.9553375642633
-0.27070000000000005,-165.09680869424977
-0.27169999999999994,-165.2382798242363
-0.27270000000000005,-165.3797509542228
-0.27369999999999994,-165.3797509542228
-0.27470000000000006,-165.3797509542228
-0.27569999999999995,-165.3797509542228
-0.27670000000000006,-165.3797509542228
-0.27769999999999995,-165.3797509542228
-0.27870000000000006,-165.3797509542228
-0.27969999999999995,-165.5212220842093
-0.28070000000000006,-165.8041643441823
-0.28169999999999995,-165.8041643441823
-0.28270000000000006,-165.8041643441823
-0.28369999999999995,-165.8041643441823
-0.28470000000000006,-165.94563547416882
-0.28569999999999995,-165.94563547416882
-0.28670000000000007,-166.0871066041553
-0.28769999999999996,-166.22857773414182
-0.28870000000000007,-166.22857773414182
-0.28969999999999996,-166.22857773414182
-0.29070000000000007,-166.22857773414182
-0.29169999999999996,-166.3700488641283
-0.29270000000000007,-166.3700488641283
-0.29369999999999996,-166.3700488641283
-0.2947000000000001,-166.3700488641283
-0.29569999999999996,-166.3700488641283
-0.2967000000000001,-166.3700488641283
-0.29769999999999996,-166.0871066041553
-0.2987000000000001,-166.0871066041553
-0.29969999999999997,-165.94563547416882
-0.3007000000000001,-165.94563547416882
-0.30169999999999997,-165.8041643441823
-0.3027000000000001,-165.6626932141958
-0.30369999999999997,-165.6626932141958
-0.3047000000000001,-165.5212220842093
-0.30569999999999997,-165.3797509542228
-0.3067000000000001,-165.2382798242363
-0.3077,-165.09680869424977
-0.3087000000000001,-164.9553375642633
-0.3097,-164.81386643427678
-0.3107000000000001,-164.81386643427678
-0.3117,-164.67239530429026
-0.3127000000000001,-164.67239530429026
-0.3137,-164.67239530429026
-0.3147000000000001,-164.53092417430375
-0.3157,-164.38945304431726
-0.3167000000000001,-164.24798191433075
-0.3177,-164.10651078434424
-0.3187000000000001,-163.96503965435775
-0.3197,-163.96503965435775
-0.3207000000000001,-163.82356852437124
-0.3217,-163.68209739438475
-0.3227000000000001,-163.68209739438475
-0.3237,-163.54062626439824
-0.3247000000000001,-163.39915513441173
-0.3257,-163.25768400442522
-0.3267000000000001,-163.11621287443873
-0.3277,-162.97474174445222
-0.3287000000000001,-162.97474174445222
-0.3297,-162.8332706144657
-0.3307000000000001,-162.6917994844792
-0.3317,-162.5503283544927
-0.3327000000000001,-162.40885722450622
-0.3337,-162.2673860945197
-0.3347000000000001,-161.9844438345467
-0.3357,-161.84297270456022
-0.3367000000000001,-161.84297270456022
-0.3377,-161.84297270456022
-0.3387000000000001,-161.70150157457368
-0.3397,-161.5600304445872
-0.3407000000000001,-161.5600304445872
-0.3417,-161.2770881846142
-0.3427000000000001,-161.2770881846142
-0.3437,-161.2770881846142
-0.3447000000000001,-161.2770881846142
-0.3457,-161.2770881846142
-0.3467000000000001,-161.2770881846142
-0.3477,-161.1356170546277
-0.3487000000000001,-161.1356170546277
-0.3497,-160.99414592464117
-0.3507000000000001,-160.8526747946547
-0.3517,-160.71120366466818
-0.3527000000000001,-160.71120366466818
-0.3537,-160.71120366466818
-0.3547000000000001,-160.5697325346817
-0.3557,-160.42826140469515
-0.35670000000000013,-160.28679027470866
-0.3577,-160.14531914472215
-0.35870000000000013,-159.86237688474912
-0.3597,-159.57943462477613
-0.36070000000000013,-159.57943462477613
-0.3617,-159.43796349478964
-0.3626999999999999,-159.29649236480313
-0.3637,-159.15502123481662
-0.3646999999999999,-159.01355010483013
-0.3657,-158.87207897484362
-0.3666999999999999,-158.73060784485713
-0.3677,-158.5891367148706
-0.3686999999999999,-158.4476655848841
-0.36970000000000003,-158.4476655848841
-0.3706999999999999,-158.3061944548976
-0.37170000000000003,-158.3061944548976
-0.3726999999999999,-158.1647233249111
-0.37370000000000003,-158.02325219492457
-0.3746999999999999,-157.88178106493808
-0.37570000000000003,-157.7403099349516
-0.3766999999999999,-157.59883880496508
-0.37770000000000004,-157.59883880496508
-0.3786999999999999,-157.59883880496508
-0.37970000000000004,-157.59883880496508
-0.3806999999999999,-157.59883880496508
-0.38170000000000004,-157.59883880496508
-0.38269999999999993,-157.45736767497857
-0.38370000000000004,-157.17442541500557
-0.38469999999999993,-157.03295428501906
-0.38570000000000004,-156.75001202504606
-0.38669999999999993,-154.9108873352215
-0.38570000000000004,-150.1008689156804
-0.38469999999999993,-145.85673501608528
-0.38370000000000004,-141.89554337646317
-0.38269999999999993,-138.08996997982624
-0.38170000000000004,-134.34098503518388
-0.3806999999999999,-130.76176544652535
-0.37970000000000004,-127.32401698785328
-0.3786999999999999,-124.05603388516508
-0.37770000000000004,-120.9153747994647
-0.3766999999999999,-117.98692240874406
-0.37570000000000003,-115.15749980901398
-0.3746999999999999,-112.27148875728932
-0.37370000000000003,-109.52694883555114
-0.3726999999999999,-106.86729159180487
-0.37170000000000003,-104.2076343480586
-0.3706999999999999,-101.54797710431234
-0.36970000000000003,-98.93076119956201
-0.3686999999999999,-96.44086931179956
-0.3677,-93.95097742403709
-0.3666999999999999,-91.51767398826922
-0.3657,-89.07022343950271
-0.3646999999999999,-86.7076555687281
-0.3637,-84.48655882793999
-0.3626999999999999,-82.35034476514379
-0.3617,-80.21413070234757
-0.36070000000000013,-78.12035797854733
-0.3597,-76.06902659374302
-0.35870000000000013,-74.0176952089387
-0.3577,-72.00880516313036
-0.35670000000000013,-70.05650356931662
-0.3557,-68.0900548625042
-0.3547000000000001,-66.25093017267966
-0.3537,-64.46839393484973
-0.3527000000000001,-62.72829903601572
-0.3517,-61.01649836317903
-0.3507000000000001,-59.27640346434504
-0.3497,-57.57874990450699
-0.3487000000000001,-55.838655005673
-0.3477,-54.16929567183226
-0.3467000000000001,-52.59896612898206
-0.3457,-51.028636586131874
-0.3447000000000001,-49.50074838227763
-0.3437,-48.029448630417996
-0.3427000000000001,-46.501560426563756
-0.3417,-44.93123088371356
-0.3407000000000001,-43.40334267985933
-0.3397,-41.87545447600508
-0.3387000000000001,-40.43244895014274
-0.3377,-39.08847321527096
-0.3367000000000001,-37.73035036740053
-0.3357,-36.47125731052064
-0.3347000000000001,-35.15557580164616
-0.3337,-33.81160006677438
-0.3327000000000001,-32.49591855789989
-0.3317,-31.19438416202406
-0.3307000000000001,-29.921143992145527
-0.3297,-28.662050935265643
-0.3287000000000001,-27.487840556377662
-0.3277,-26.29948306449103
-0.3267000000000001,-25.167714024599
-0.3257,-23.993503645711023
-0.3247000000000001,-22.819293266823045
-0.3237,-21.63093577493641
-0.3227000000000001,-20.456725396048434
-0.3217,-19.3249563561564
-0.3207000000000001,-18.27806999425627
-0.3197,-17.231183632356142
-0.3187000000000001,-16.184297270456018
-0.3177,-15.179852247551842
-0.3167000000000001,-14.13438059695158
-0.3157,-13.043638184755638
-0.3147000000000001,-11.996751822855511
-0.3137,-10.949865460955383
-0.3127000000000001,-9.99069119964689
-0.3117,-9.073958277334345
-0.3107000000000001,-8.158640066321666
-0.3097,-7.243321855308987
-0.3087000000000001,-6.326588932996443
-0.3077,-5.367414671687949
-0.3067000000000001,-4.406825699079589
-0.30569999999999997,-3.447651437771094
-0.3047000000000001,-2.532333226758415
-0.30369999999999997,-1.7471684553333202
-0.3027000000000001,-0.8745745255765657
-0.30169999999999997,-0.04582249900262853
-0.3007000000000001,0.7829012333453113
-0.29969999999999997,1.655212220842093
-0.2987000000000001,2.4842330425630044
-0.29769999999999996,3.355695203279867
-0.2967000000000001,4.184716025000778
-0.29569999999999996,4.9698807964258735
-0.2947000000000001,5.7111895175551535
-0.29369999999999996,6.410056899688482
-0.29270000000000007,7.195221671113577
-0.29169999999999996,7.980386442538672
-0.29070000000000007,8.764136502663902
-0.28969999999999996,9.549301274088998
-0.28870000000000007,10.334466045514093
-0.28769999999999996,11.033333427647422
-0.28670000000000007,11.774642148776701
-0.28569999999999995,12.384382719018532
-0.28470000000000006,13.08325010115186
-0.28369999999999995,13.780702771985322
-0.28270000000000006,14.529085049613924
-0.28169999999999995,15.264734925543747
-0.28070000000000006,15.957943462477614
-0.27969999999999995,16.622857773414182
-0.27870000000000006,17.2736249713521
-0.27769999999999995,17.881950830294063
-0.27670000000000006,18.49027668923603
-0.27569999999999995,19.098602548177997
-0.27470000000000006,19.749369746115914
-0.27369999999999994,20.456725396048434
-0.27270000000000005,21.107492593986347
-0.27169999999999994,21.71581845292831
-0.27070000000000005,22.324144311870278
-0.26969999999999994,22.84758749282034
-0.26870000000000005,23.41347201276636
-0.26769999999999994,23.993503645711023
-0.26670000000000005,24.601829504652986
