Potential V vs RHE, Current mA cm-2
0.013299999999999867,6.845787980046913
0.012299999999999978,4.490293665771627
0.011299999999999866,2.352664891675556
0.010299999999999976,0.3467457395969205
0.009299999999999864,-1.5717442541500557
0.008299999999999974,-3.317497998183511
0.007299999999999862,-5.017980980621284
0.006299999999999972,-6.632166573767292
0.00529999999999986,-8.11478401602585
0.0042999999999999705,-9.685113558876042
0.0032999999999998586,-11.123874950838783
0.0022999999999999687,-12.56405105410139
0.0012999999999998568,-14.002812446064135
0.00029999999999996696,-15.3920589425316
-0.000700000000000145,-16.750181790402035
-0.0017000000000000348,-17.966833508285966
-0.0027000000000001467,-19.197632339168546
-0.0037000000000000366,-20.371842718056527
-0.0047000000000001485,-21.503611757948562
-0.005700000000000038,-22.67782213683654
-0.00670000000000015,-23.86617962872317
-0.00770000000000004,-24.997948668615198
-0.008700000000000152,-26.17215904750318
-0.009700000000000042,-27.261486748399253
-0.010700000000000154,-28.393255788291288
-0.011700000000000044,-29.482583489187363
-0.012700000000000156,-30.487028512091538
-0.013700000000000045,-31.449032195999767
-0.014700000000000157,-32.45347721890394
-0.015700000000000047,-33.41548090281216
-0.01670000000000016,-34.41992592571634
-0.01770000000000005,-35.42437094862052
-0.01870000000000016,-36.37222751953009
-0.01970000000000005,-37.376672542434264
-0.020700000000000163,-38.33867622634249
-0.021700000000000053,-39.258238571254765
-0.022700000000000164,-40.135359577171094
-0.023700000000000054,-40.99833347008877
-0.024700000000000166,-41.83301313700913
-0.025700000000000056,-42.71013414292546
-0.026700000000000168,-43.53066669684718
-0.027700000000000058,-44.4077877027635
-0.02870000000000017,-45.32735004767578
-0.02970000000000006,-46.19032394059345
-0.03070000000000017,-47.10988628550572
-0.03170000000000006,-47.93041883942744
-0.03270000000000017,-48.72265716735186
-0.03370000000000006,-49.557336834272235
-0.034700000000000175,-50.29298671020206
-0.035700000000000065,-51.127666377122424
-0.03670000000000018,-51.948198931044146
-0.03770000000000007,-52.78287859796452
-0.03870000000000018,-53.603411151886235
-0.03970000000000007,-54.480532157802564
-0.04070000000000018,-55.31521182472294
-0.04170000000000007,-56.093303039648696
-0.04270000000000018,-56.88554136757313
-0.04370000000000007,-57.66363258249889
-0.044700000000000184,-58.39928245842871
-0.045700000000000074,-59.23396212534908
-0.046700000000000186,-60.02620045327351
-0.047700000000000076,-60.80429166819927
-0.04870000000000019,-61.5965299961237
-0.04970000000000008,-62.41706255004542
-0.05070000000000019,-63.20930087796983
-0.05170000000000008,-63.98739209289561
-0.05270000000000019,-64.72304196882543
-0.05370000000000008,-65.4728389577539
-0.05470000000000019,-66.16604749468777
-0.05570000000000008,-66.91584448361623
-0.056700000000000195,-67.73637703753796
-0.057700000000000085,-68.52861536546239
-0.058700000000000196,-69.3491479193841
-0.059700000000000086,-70.22626892530042
-0.0607000000000002,-71.0043601402262
-0.06170000000000009,-71.75415712915466
-0.0627000000000002,-72.53224834408043
-0.06370000000000009,-73.23960399401295
-0.0647000000000002,-73.93281253094682
-0.06570000000000009,-74.66846240687663
-0.0667000000000002,-75.46070073480107
-0.0677000000000001,-76.29538040172143
-0.0687000000000002,-77.11591295564315
-0.0697000000000001,-77.95059262256353
-0.07070000000000021,-78.77112517648524
-0.0717000000000001,-79.56336350440966
-0.07270000000000021,-80.34145471933543
-0.0737000000000001,-81.09125170826391
-0.07470000000000021,-81.82690158419373
-0.0757000000000001,-82.61913991211814
-0.07670000000000021,-83.35478978804795
-0.0777000000000001,-84.09043966397778
-0.07870000000000021,-84.8826779919022
-0.0797000000000001,-85.70321054582392
-0.08070000000000022,-86.49544887374834
-0.0817000000000001,-87.23109874967815
-0.08270000000000022,-87.98089573860662
-0.08370000000000011,-88.71654561453644
-0.08470000000000022,-89.42390126446898
-0.08570000000000011,-90.20199247939475
-0.08670000000000022,-90.93764235532454
-0.08770000000000011,-91.72988068324898
-0.08870000000000022,-92.50797189817473
-0.08970000000000011,-93.34265156509512
-0.09070000000000022,-94.07830144102493
-0.09170000000000011,-94.87053976894937
-0.09270000000000023,-95.60618964487918
-0.09370000000000012,-96.3984279728036
-0.09470000000000023,-97.13407784873341
-0.09570000000000012,-97.88387483766188
-0.09670000000000023,-98.66196605258766
-0.09770000000000012,-99.45420438051207
-0.09870000000000023,-100.18985425644189
-0.09970000000000012,-100.98209258436633
-0.10070000000000023,-101.76018379929208
-0.10170000000000012,-102.45339233622596
-0.10270000000000024,-103.20318932515443
-0.10370000000000013,-103.89639786208829
-0.10470000000000024,-104.58960639902216
-0.10570000000000013,-105.33940338795064
-0.10670000000000024,-106.0326119248845
-0.10770000000000013,-106.82485025280893
-0.10870000000000024,-107.6029414677347
-0.10970000000000013,-108.48006247365102
-0.11070000000000024,-109.25815368857677
-0.11170000000000013,-110.00795067750525
-0.11270000000000002,-110.74360055343507
-0.11370000000000013,-111.4509562033676
-0.11470000000000002,-112.14416474030146
-0.11570000000000014,-112.87981461623129
-0.11670000000000003,-113.62961160515974
-0.11770000000000014,-114.36526148108955
-0.11870000000000003,-115.15749980901398
-0.11970000000000014,-115.8931496849438
-0.12070000000000003,-116.67124089986959
-0.12170000000000014,-117.33615521080614
-0.12270000000000003,-117.98692240874406
-0.12370000000000014,-118.68013094567793
-0.12470000000000003,-119.2884568046199
-0.12570000000000014,-119.95337111555646
-0.12670000000000003,-120.64657965249035
-0.12770000000000015,-121.33978818942418
-0.12870000000000004,-122.08958517835266
-0.12970000000000015,-122.82523505428249
-0.13070000000000004,-123.532590704215
-0.13170000000000015,-124.18335790215292
-0.13270000000000004,-124.87656643908679
-0.13370000000000015,-125.48489229802875
-0.13470000000000004,-126.14980660896532
-0.13570000000000015,-126.75813246790726
-0.13670000000000004,-127.4088996658452
-0.13770000000000016,-128.05966686378312
-0.13870000000000005,-128.752875400717
-0.13970000000000016,-129.4602310506495
-0.14070000000000005,-130.1534395875834
-0.14170000000000016,-130.76176544652535
-0.14270000000000005,-131.4266797574619
-0.14370000000000016,-132.03500561640385
-0.14470000000000005,-132.60089013634988
-0.14570000000000016,-133.1667746562959
-0.14670000000000005,-133.73265917624192
-0.14770000000000016,-134.29854369618792
-0.14870000000000005,-134.86442821613394
-0.14970000000000017,-135.51519541407185
-0.15070000000000006,-136.13766838601245
-0.15170000000000017,-136.74599424495443
-0.15270000000000006,-137.3543201038964
-0.15370000000000017,-137.92020462384244
-0.15470000000000006,-138.48608914378846
-0.15570000000000017,-139.13685634172634
-0.15670000000000006,-139.70274086167237
-0.15770000000000017,-140.36765517260895
-0.15870000000000006,-140.9759810315509
-0.15970000000000018,-141.47112998650366
-0.16070000000000007,-142.03701450644968
-0.16170000000000018,-142.6028990263957
-0.16270000000000007,-143.16878354634173
-0.16370000000000018,-143.87613919627424
-0.16470000000000007,-144.30055258623375
-0.16570000000000018,-144.86643710617977
-0.16670000000000007,-145.29085049613926
-0.16770000000000018,-145.85673501608528
-0.16870000000000007,-146.5640906660178
-0.16970000000000018,-147.1299751859638
-0.17070000000000007,-147.55438857592333
-0.17170000000000019,-148.12027309586935
-0.17270000000000008,-148.54468648582886
-0.1737000000000002,-149.1105710057749
-0.17470000000000008,-149.6764555257209
-0.1757000000000002,-149.95939778569388
-0.17670000000000008,-150.5252823056399
-0.1777000000000002,-151.09116682558593
-0.17870000000000008,-151.65705134553193
-0.1797000000000002,-152.22293586547795
-0.18070000000000008,-152.78882038542397
-0.1817000000000002,-153.35470490536997
-0.18270000000000008,-153.77911829532948
-0.1837000000000002,-154.3450028152755
-0.1847000000000001,-154.76941620523502
-0.1857000000000002,-155.33530072518104
-0.1867000000000001,-155.75971411514055
-0.1877000000000002,-156.18412750510007
-0.1887000000000001,-156.75001202504606
-0.1897000000000002,-157.31589654499206
-0.1907000000000001,-157.7403099349516
-0.1917000000000001,-158.1647233249111
-0.19269999999999998,-158.73060784485713
-0.1937000000000001,-159.15502123481662
-0.19469999999999998,-159.57943462477613
-0.1957000000000001,-160.00384801473567
-0.19669999999999999,-160.5697325346817
-0.1977000000000001,-161.2770881846142
-0.1987,-161.84297270456022
-0.1997000000000001,-162.40885722450622
-0.2007,-162.97474174445222
-0.2017000000000001,-163.54062626439824
-0.2027,-164.10651078434424
-0.2037000000000001,-164.67239530429026
-0.2047,-165.09680869424977
-0.2057000000000001,-165.3797509542228
-0.2067,-165.8041643441823
-0.2077000000000001,-166.0871066041553
-0.2087,-166.51151999411482
-0.2097000000000001,-166.93593338407433
-0.2107,-167.36034677403384
-0.2117000000000001,-168.06770242396635
-0.2127,-168.63358694391238
-0.2137000000000001,-169.19947146385837
-0.2147,-169.7653559838044
-0.2157000000000001,-170.33124050375042
-0.2167,-170.61418276372342
-0.21770000000000012,-171.18006728366944
-0.2187,-171.60448067362896
-0.21970000000000012,-171.74595180361547
-0.2207,-171.88742293360195
-0.22170000000000012,-171.74595180361547
-0.2227,-171.88742293360195
-0.22370000000000012,-171.88742293360195
-0.2247,-172.17036519357498
-0.22570000000000012,-172.45330745354798
-0.2267,-172.87772084350746
-0.22770000000000012,-173.44360536345349
-0.22870000000000001,-173.86801875341303
-0.22970000000000013,-174.2924321433725
-0.23070000000000002,-174.71684553333202
-0.23170000000000013,-174.99978779330505
-0.23270000000000002,-175.28273005327804
-0.23370000000000013,-175.70714344323756
-0.23470000000000002,-175.84861457322407
-0.23570000000000013,-176.27302796318358
-0.23670000000000002,-176.55597022315658
-0.2376999999999999,-176.98038361311612
-0.23870000000000002,-177.4047970030756
-0.2396999999999999,-177.82921039303508
-0.24070000000000003,-178.25362378299462
-0.24169999999999991,-178.53656604296762
-0.24270000000000003,-178.96097943292713
-0.24369999999999992,-179.24392169290016
-0.24470000000000003,-179.52686395287316
-0.24569999999999992,-179.80980621284618
-0.24670000000000003,-180.09274847281918
-0.24769999999999992,-180.37569073279218
-0.24870000000000003,-180.8001041227517
-0.24969999999999992,-181.08304638272472
-0.25070000000000003,-181.36598864269772
-0.2516999999999999,-181.5074597726842
-0.25270000000000004,-181.79040203265723
-0.2536999999999999,-181.93187316264374
-0.25470000000000004,-182.07334429263022
-0.2556999999999999,-182.35628655260325
-0.25670000000000004,-182.63922881257625
-0.25769999999999993,-182.92217107254925
-0.25870000000000004,-183.20511333252225
-0.25969999999999993,-183.48805559249527
-0.26070000000000004,-183.77099785246824
-0.26169999999999993,-184.05394011244127
-0.26270000000000004,-184.33688237241427
-0.26369999999999993,-184.6198246323873
-0.26470000000000005,-184.7612957623738
-0.26569999999999994,-185.0442380223468
-0.26670000000000005,-185.3271802823198
-0.26769999999999994,-185.6101225422928
-0.26870000000000005,-185.89306480226583
-0.26969999999999994,-186.17600706223882
-0.27070000000000005,-186.45894932221185
-0.27169999999999994,-186.60042045219836
-0.27270000000000005,-186.88336271217133
-0.27369999999999994,-187.16630497214436
-0.27470000000000006,-187.44924723211736
-0.27569999999999995,-187.44924723211736
-0.27670000000000006,-187.59071836210387
-0.27769999999999995,-187.44924723211736
-0.27870000000000006,-187.30777610213087
-0.27969999999999995,-187.16630497214436
-0.28070000000000006,-187.02483384215788
-0.28169999999999995,-187.02483384215788
-0.28270000000000006,-187.16630497214436
-0.28369999999999995,-187.44924723211736
-0.28470000000000006,-187.59071836210387
-0.28569999999999995,-187.87366062207687
-0.28670000000000007,-188.15660288204987
-0.28769999999999996,-188.29807401203638
-0.28870000000000007,-188.4395451420229
-0.28969999999999996,-188.58101627200938
-0.29070000000000007,-188.72248740199586
-0.29169999999999996,-188.8639585319824
-0.29270000000000007,-189.0054296619689
-0.29369999999999996,-189.1469007919554
-0.2947000000000001,-189.42984305192843
-0.29569999999999996,-189.57131418191491
-0.2967000000000001,-189.71278531190143
-0.29769999999999996,-189.99572757187443
-0.2987000000000001,-190.13719870186094
-0.29969999999999997,-190.27866983184742
-0.3007000000000001,-190.42014096183394
-0.30169999999999997,-190.56161209182042
-0.3027000000000001,-190.56161209182042
-0.30369999999999997,-190.42014096183394
-0.3047000000000001,-190.42014096183394
-0.30569999999999997,-190.27866983184742
-0.3067000000000001,-190.27866983184742
-0.3077,-190.42014096183394
-0.3087000000000001,-190.42014096183394
-0.3097,-190.56161209182042
-0.3107000000000001,-190.70308322180696
-0.3117,-190.70308322180696
-0.3127000000000001,-190.70308322180696
-0.3137,-190.56161209182042
-0.3147000000000001,-190.56161209182042
-0.3157,-190.56161209182042
-0.3167000000000001,-190.56161209182042
-0.3177,-190.56161209182042
-0.3187000000000001,-190.56161209182042
-0.3197,-190.42014096183394
-0.3207000000000001,-190.56161209182042
-0.3217,-190.56161209182042
-0.3227000000000001,-190.56161209182042
-0.3237,-190.42014096183394
-0.3247000000000001,-190.27866983184742
-0.3257,-190.27866983184742
-0.3267000000000001,-190.42014096183394
-0.3277,-190.27866983184742
-0.3287000000000001,-190.27866983184742
-0.3297,-190.27866983184742
-0.3307000000000001,-190.42014096183394
-0.3317,-190.56161209182042
-0.3327000000000001,-190.70308322180696
-0.3337,-190.84455435179345
-0.3347000000000001,-190.98602548177996
-0.3357,-191.12749661176645
-0.3367000000000001,-191.12749661176645
-0.3377,-191.12749661176645
-0.3387000000000001,-191.12749661176645
-0.3397,-191.12749661176645
-0.3407000000000001,-191.12749661176645
-0.3417,-190.98602548177996
-0.3427000000000001,-190.84455435179345
-0.3437,-190.70308322180696
-0.3447000000000001,-190.42014096183394
-0.3457,-190.27866983184742
-0.3467000000000001,-190.13719870186094
-0.3477,-189.8542564418879
-0.3487000000000001,-189.71278531190143
-0.3497,-189.57131418191491
-0.3507000000000001,-189.42984305192843
-0.3517,-189.42984305192843
-0.3527000000000001,-189.2883719219419
-0.3537,-189.1469007919554
-0.3547000000000001,-189.1469007919554
-0.3557,-189.0054296619689
-0.35670000000000013,-189.0054296619689
-0.3577,-188.8639585319824
-0.35870000000000013,-188.72248740199586
-0.3597,-188.72248740199586
-0.36070000000000013,-188.58101627200938
-0.3617,-188.58101627200938
-0.3626999999999999,-188.29807401203638
-0.3637,-188.15660288204987
-0.3646999999999999,-188.01513175206335
-0.3657,-187.87366062207687
-0.3666999999999999,-187.87366062207687
-0.3677,-187.87366062207687
-0.3686999999999999,-187.87366062207687
-0.36970000000000003,-187.73218949209036
-0.3706999999999999,-187.59071836210387
-0.37170000000000003,-187.59071836210387
-0.3726999999999999,-187.44924723211736
-0.37370000000000003,-187.44924723211736
-0.3746999999999999,-187.30777610213087
-0.37570000000000003,-187.16630497214436
-0.3766999999999999,-187.16630497214436
-0.37770000000000004,-187.02483384215788
-0.3786999999999999,-186.88336271217133
-0.37970000000000004,-186.88336271217133
-0.3806999999999999,-186.60042045219836
-0.38170000000000004,-186.45894932221185
-0.38269999999999993,-186.31747819222534
-0.38370000000000004,-186.17600706223882
-0.38469999999999993,-186.03453593225234
-0.38570000000000004,-186.03453593225234
-0.38669999999999993,-184.19541124242778
-0.38570000000000004,-179.24392169290016
-0.38469999999999993,-174.71684553333202
-0.38370000000000004,-170.47271163373694
-0.38269999999999993,-166.3700488641283
-0.38170000000000004,-162.40885722450622
-0.3806999999999999,-158.73060784485713
-0.37970000000000004,-155.05235846520802
-0.3786999999999999,-151.5155802155454
-0.37770000000000004,-148.12027309586935
-0.3766999999999999,-144.72496597619326
-0.37570000000000003,-141.47112998650366
-0.3746999999999999,-138.40120646579655
-0.37370000000000003,-135.387871397084
-0.3726999999999999,-132.33209498937555
-0.37170000000000003,-129.33290703366166
-0.3706999999999999,-126.40445464294103
-0.36970000000000003,-123.57503204321095
-0.3686999999999999,-120.73146233048222
-0.3677,-117.98692240874406
-0.3666999999999999,-115.28482382600184
-0.3657,-112.66760792125153
-0.3646999999999999,-110.1352746944931
-0.3637,-107.68782414572658
-0.3626999999999999,-105.29696204895468
-0.3617,-102.89195283918411
-0.36070000000000013,-100.5010907424122
-0.3597,-98.09608153264163
-0.35870000000000013,-95.74766077486568
-0.3577,-93.38509290409107
-0.35670000000000013,-91.07911348531105
-0.3557,-88.80142829252836
-0.3547000000000001,-86.6227728907362
-0.3537,-84.52900016693594
-0.3527000000000001,-82.47766878213164
-0.3517,-80.42633739732734
-0.3507000000000001,-78.33256467352709
-0.3497,-76.29538040172143
-0.3487000000000001,-74.28649035591307
-0.3477,-72.32004164910067
-0.3467000000000001,-70.39603428128423
-0.3457,-68.52861536546239
-0.3447000000000001,-66.68949067563783
-0.3437,-64.90695443780788
-0.3427000000000001,-63.11027108697928
-0.3417,-61.412617527141244
-0.3407000000000001,-59.67252262830725
-0.3397,-57.974869068469204
-0.3387000000000001,-56.26306839563251
-0.3377,-54.60785617479041
-0.3367000000000001,-52.995085292944275
-0.3357,-51.38231441109813
-0.3347000000000001,-49.81198486824794
-0.3337,-48.32653800338966
-0.3327000000000001,-46.79864979953541
-0.3317,-45.27076159568118
-0.3307000000000001,-43.75702050482558
-0.3297,-42.2715736399673
-0.3287000000000001,-40.743685436113054
-0.3277,-39.30067991025072
-0.3267000000000001,-37.85767438438838
-0.3257,-36.47125731052064
-0.3247000000000001,-35.11313446265021
-0.3237,-33.81160006677438
-0.3227000000000001,-32.49591855789989
-0.3217,-31.137795710029454
-0.3207000000000001,-29.793819975157668
-0.3197,-28.435697127287238
-0.3187000000000001,-27.091721392415455
-0.3177,-25.81848122253692
-0.3167000000000001,-24.559388165657033
-0.3157,-23.342736447773106
-0.3147000000000001,-22.15437895588647
-0.3137,-21.022609915994444
-0.3127000000000001,-19.848399537106463
-0.3117,-18.674189158218486
-0.3107000000000001,-17.48583166633185
-0.3097,-16.354062626439823
-0.3087000000000001,-15.179852247551842
-0.3077,-14.002812446064135
-0.3067000000000001,-12.913484745168056
-0.30569999999999997,-11.82274233297211
-0.3047000000000001,-10.775855971071984
-0.30369999999999997,-9.772825659467674
-0.3027000000000001,-8.68208324727173
-0.30169999999999997,-7.679052935667419
-0.3007000000000001,-6.588310523471475
-0.29969999999999997,-5.5414241615713475
-0.2987000000000001,-4.494537799671222
-0.29769999999999996,-3.4915074880669104
-0.2967000000000001,-2.4884771764625997
-0.29569999999999996,-1.5293029151541047
-0.2947000000000001,-0.6128529351015338
-0.29369999999999996,0.3031726315610774
-0.29270000000000007,1.2626298351295453
-0.29169999999999996,2.178655401792157
-0.29070000000000007,3.0939736128048354
-0.28969999999999996,4.054562585413195
-0.28870000000000007,5.01373684672169
-0.28769999999999996,5.929055057734368
-0.28670000000000007,6.845787980046913
-0.28569999999999995,7.7186648520636405
-0.28470000000000006,8.546270962484687
-0.28369999999999995,9.331435733909782
-0.28270000000000006,10.160456555630693
-0.28169999999999995,10.989477377351605
-0.28070000000000006,11.818498199072517
-0.27969999999999995,12.646104309493563
-0.27870000000000006,13.518981181510291
-0.27769999999999995,14.345172580631472
-0.27670000000000006,15.137410908555893
-0.27569999999999995,15.91550212348166
-0.27470000000000006,16.622857773414182
-0.27369999999999994,17.40094898833995
-0.27270000000000005,18.13659886426977
-0.27169999999999994,18.88639585319824
-0.27070000000000005,19.664487068124007
-0.26969999999999994,20.456725396048434
-0.26870000000000005,21.2348166109742
