July 15, 2024   00:52:13
Cyclic Voltammetry
File: c:/users/guazh/data/20240709_batch67/2024-07-10-exp47\exp47-2024-07-15t00_39_15-arkoh\exp47_cv_50mvs_efin_-1800mv.bin
Data Source:  Experiment
Instrument Model:  CHI760E
Header: CV ran at 50 mVs
Note: 

Init E (V) = -1
High E (V) = -1
Low E (V) = -1.8
Final E (V) = -1
Init P/N = N
Scan Rate (V/s) = 0.05
Segment = 7
Sample Interval (V) = 0.001
Quiet Time (sec) = 60
Sensitivity (A/V) = 0.001
Comp R (ohm) = 1.7

Results:

Channel 1:
Segment 1:

Segment 2:
Ep = -1.024V
ip = -1.533e-6A
Ah = -2.378e-6C

Segment 3:

Segment 4:
Ep = -1.023V
ip = -1.667e-6A
Ah = -2.689e-6C

Segment 5:

Segment 6:

Segment 7:

Potential/V, Current/A

-1.000, -7.103e-9
-1.001, 5.111e-8
-1.002, 8.958e-8
-1.003, 1.379e-7
-1.004, 1.626e-7
-1.005, 1.616e-7
-1.006, 1.991e-7
-1.007, 2.021e-7
-1.008, 2.366e-7
-1.009, 2.632e-7
-1.010, 2.553e-7
-1.011, 2.553e-7
-1.012, 2.800e-7
-1.013, 2.682e-7
-1.014, 2.997e-7
-1.015, 2.780e-7
-1.016, 3.135e-7
-1.017, 3.274e-7
-1.018, 3.500e-7
-1.019, 3.431e-7
-1.020, 3.570e-7
-1.021, 3.540e-7
-1.022, 3.777e-7
-1.023, 3.856e-7
-1.024, 4.201e-7
-1.025, 3.974e-7
-1.026, 3.984e-7
-1.027, 4.250e-7
-1.028, 4.191e-7
-1.029, 4.467e-7
-1.030, 4.379e-7
-1.031, 4.300e-7
-1.032, 4.665e-7
-1.033, 4.822e-7
-1.034, 4.674e-7
-1.035, 4.793e-7
-1.036, 4.645e-7
-1.037, 4.911e-7
-1.038, 5.069e-7
-1.039, 5.069e-7
-1.040, 4.892e-7
-1.041, 5.049e-7
-1.042, 5.237e-7
-1.043, 5.375e-7
-1.044, 5.602e-7
-1.045, 5.049e-7
-1.046, 5.296e-7
-1.047, 5.631e-7
-1.048, 5.523e-7
-1.049, 5.444e-7
-1.050, 5.819e-7
-1.051, 5.523e-7
-1.052, 5.779e-7
-1.053, 6.066e-7
-1.054, 5.957e-7
-1.055, 5.997e-7
-1.056, 6.214e-7
-1.057, 6.263e-7
-1.058, 6.273e-7
-1.059, 6.362e-7
-1.060, 6.006e-7
-1.061, 6.253e-7
-1.062, 6.046e-7
-1.063, 6.352e-7
-1.064, 6.569e-7
-1.065, 6.362e-7
-1.066, 6.628e-7
-1.067, 6.776e-7
-1.068, 6.963e-7
-1.069, 6.658e-7
-1.070, 6.717e-7
-1.071, 6.865e-7
-1.072, 6.845e-7
-1.073, 6.963e-7
-1.074, 6.963e-7
-1.075, 6.727e-7
-1.076, 6.944e-7
-1.077, 7.348e-7
-1.078, 7.289e-7
-1.079, 7.309e-7
-1.080, 7.151e-7
-1.081, 7.072e-7
-1.082, 7.615e-7
-1.083, 7.506e-7
-1.084, 7.328e-7
-1.085, 7.526e-7
-1.086, 7.309e-7
-1.087, 7.684e-7
-1.088, 7.743e-7
-1.089, 7.733e-7
-1.090, 7.634e-7
-1.091, 7.565e-7
-1.092, 7.940e-7
-1.093, 8.059e-7
-1.094, 8.236e-7
-1.095, 7.812e-7
-1.096, 7.920e-7
-1.097, 8.256e-7
-1.098, 8.088e-7
-1.099, 8.216e-7
-1.100, 8.128e-7
-1.101, 8.206e-7
-1.102, 8.443e-7
-1.103, 8.404e-7
-1.104, 8.433e-7
-1.105, 8.364e-7
-1.106, 8.305e-7
-1.107, 8.660e-7
-1.108, 8.779e-7
-1.109, 8.601e-7
-1.110, 8.749e-7
-1.111, 8.532e-7
-1.112, 8.927e-7
-1.113, 9.045e-7
-1.114, 9.045e-7
-1.115, 8.858e-7
-1.116, 9.045e-7
-1.117, 9.282e-7
-1.118, 9.144e-7
-1.119, 9.282e-7
-1.120, 9.311e-7
-1.121, 9.134e-7
-1.122, 9.440e-7
-1.123, 9.469e-7
-1.124, 9.114e-7
-1.125, 9.351e-7
-1.126, 9.607e-7
-1.127, 9.578e-7
-1.128, 9.913e-7
-1.129, 9.627e-7
-1.130, 9.696e-7
-1.131, 9.815e-7
-1.132, 9.963e-7
-1.133, 1.010e-6
-1.134, 1.019e-6
-1.135, 9.903e-7
-1.136, 1.017e-6
-1.137, 1.029e-6
-1.138, 1.004e-6
-1.139, 1.031e-6
-1.140, 1.013e-6
-1.141, 1.023e-6
-1.142, 1.046e-6
-1.143, 1.044e-6
-1.144, 1.053e-6
-1.145, 1.022e-6
-1.146, 1.041e-6
-1.147, 1.069e-6
-1.148, 1.076e-6
-1.149, 1.087e-6
-1.150, 1.084e-6
-1.151, 1.099e-6
-1.152, 1.129e-6
-1.153, 1.076e-6
-1.154, 1.108e-6
-1.155, 1.102e-6
-1.156, 1.120e-6
-1.157, 1.143e-6
-1.158, 1.125e-6
-1.159, 1.113e-6
-1.160, 1.142e-6
-1.161, 1.145e-6
-1.162, 1.141e-6
-1.163, 1.157e-6
-1.164, 1.146e-6
-1.165, 1.172e-6
-1.166, 1.166e-6
-1.167, 1.159e-6
-1.168, 1.185e-6
-1.169, 1.151e-6
-1.170, 1.176e-6
-1.171, 1.184e-6
-1.172, 1.230e-6
-1.173, 1.228e-6
-1.174, 1.239e-6
-1.175, 1.240e-6
-1.176, 1.201e-6
-1.177, 1.253e-6
-1.178, 1.235e-6
-1.179, 1.223e-6
-1.180, 1.256e-6
-1.181, 1.248e-6
-1.182, 1.268e-6
-1.183, 1.297e-6
-1.184, 1.266e-6
-1.185, 1.256e-6
-1.186, 1.278e-6
-1.187, 1.268e-6
-1.188, 1.314e-6
-1.189, 1.276e-6
-1.190, 1.277e-6
-1.191, 1.313e-6
-1.192, 1.324e-6
-1.193, 1.347e-6
-1.194, 1.340e-6
-1.195, 1.313e-6
-1.196, 1.319e-6
-1.197, 1.342e-6
-1.198, 1.330e-6
-1.199, 1.350e-6
-1.200, 1.327e-6
-1.201, 1.346e-6
-1.202, 1.374e-6
-1.203, 1.401e-6
-1.204, 1.401e-6
-1.205, 1.363e-6
-1.206, 1.409e-6
-1.207, 1.392e-6
-1.208, 1.407e-6
-1.209, 1.415e-6
-1.210, 1.403e-6
-1.211, 1.410e-6
-1.212, 1.421e-6
-1.213, 1.447e-6
-1.214, 1.450e-6
-1.215, 1.439e-6
-1.216, 1.443e-6
-1.217, 1.469e-6
-1.218, 1.470e-6
-1.219, 1.495e-6
-1.220, 1.507e-6
-1.221, 1.472e-6
-1.222, 1.492e-6
-1.223, 1.528e-6
-1.224, 1.483e-6
-1.225, 1.485e-6
-1.226, 1.517e-6
-1.227, 1.509e-6
-1.228, 1.527e-6
-1.229, 1.524e-6
-1.230, 1.522e-6
-1.231, 1.537e-6
-1.232, 1.568e-6
-1.233, 1.559e-6
-1.234, 1.563e-6
-1.235, 1.576e-6
-1.236, 1.569e-6
-1.237, 1.588e-6
-1.238, 1.602e-6
-1.239, 1.603e-6
-1.240, 1.582e-6
-1.241, 1.603e-6
-1.242, 1.612e-6
-1.243, 1.663e-6
-1.244, 1.624e-6
-1.245, 1.629e-6
-1.246, 1.632e-6
-1.247, 1.635e-6
-1.248, 1.650e-6
-1.249, 1.670e-6
-1.250, 1.627e-6
-1.251, 1.664e-6
-1.252, 1.676e-6
-1.253, 1.678e-6
-1.254, 1.695e-6
-1.255, 1.694e-6
-1.256, 1.684e-6
-1.257, 1.708e-6
-1.258, 1.719e-6
-1.259, 1.721e-6
-1.260, 1.730e-6
-1.261, 1.713e-6
-1.262, 1.734e-6
-1.263, 1.773e-6
-1.264, 1.762e-6
-1.265, 1.751e-6
-1.266, 1.746e-6
-1.267, 1.770e-6
-1.268, 1.800e-6
-1.269, 1.785e-6
-1.270, 1.766e-6
-1.271, 1.803e-6
-1.272, 1.844e-6
-1.273, 1.805e-6
-1.274, 1.824e-6
-1.275, 1.817e-6
-1.276, 1.843e-6
-1.277, 1.841e-6
-1.278, 1.867e-6
-1.279, 1.829e-6
-1.280, 1.862e-6
-1.281, 1.877e-6
-1.282, 1.881e-6
-1.283, 1.881e-6
-1.284, 1.879e-6
-1.285, 1.888e-6
-1.286, 1.897e-6
-1.287, 1.915e-6
-1.288, 1.920e-6
-1.289, 1.949e-6
-1.290, 1.936e-6
-1.291, 1.888e-6
-1.292, 1.959e-6
-1.293, 1.970e-6
-1.294, 1.957e-6
-1.295, 1.980e-6
-1.296, 1.960e-6
-1.297, 1.990e-6
-1.298, 2.020e-6
-1.299, 1.995e-6
-1.300, 1.994e-6
-1.301, 2.014e-6
-1.302, 2.015e-6
-1.303, 2.024e-6
-1.304, 2.035e-6
-1.305, 2.018e-6
-1.306, 2.042e-6
-1.307, 2.061e-6
-1.308, 2.072e-6
-1.309, 2.079e-6
-1.310, 2.069e-6
-1.311, 2.067e-6
-1.312, 2.110e-6
-1.313, 2.106e-6
-1.314, 2.105e-6
-1.315, 2.116e-6
-1.316, 2.118e-6
-1.317, 2.122e-6
-1.318, 2.147e-6
-1.319, 2.148e-6
-1.320, 2.121e-6
-1.321, 2.183e-6
-1.322, 2.140e-6
-1.323, 2.175e-6
-1.324, 2.182e-6
-1.325, 2.156e-6
-1.326, 2.184e-6
-1.327, 2.226e-6
-1.328, 2.213e-6
-1.329, 2.210e-6
-1.330, 2.197e-6
-1.331, 2.200e-6
-1.332, 2.232e-6
-1.333, 2.252e-6
-1.334, 2.225e-6
-1.335, 2.252e-6
-1.336, 2.267e-6
-1.337, 2.288e-6
-1.338, 2.288e-6
-1.339, 2.291e-6
-1.340, 2.241e-6
-1.341, 2.304e-6
-1.342, 2.305e-6
-1.343, 2.292e-6
-1.344, 2.320e-6
-1.345, 2.321e-6
-1.346, 2.290e-6
-1.347, 2.335e-6
-1.348, 2.356e-6
-1.349, 2.318e-6
-1.350, 2.344e-6
-1.351, 2.339e-6
-1.352, 2.357e-6
-1.353, 2.375e-6
-1.354, 2.379e-6
-1.355, 2.353e-6
-1.356, 2.386e-6
-1.357, 2.411e-6
-1.358, 2.422e-6
-1.359, 2.420e-6
-1.360, 2.432e-6
-1.361, 2.433e-6
-1.362, 2.456e-6
-1.363, 2.431e-6
-1.364, 2.441e-6
-1.365, 2.456e-6
-1.366, 2.441e-6
-1.367, 2.469e-6
-1.368, 2.531e-6
-1.369, 2.471e-6
-1.370, 2.489e-6
-1.371, 2.471e-6
-1.372, 2.479e-6
-1.373, 2.548e-6
-1.374, 2.514e-6
-1.375, 2.508e-6
-1.376, 2.538e-6
-1.377, 2.545e-6
-1.378, 2.525e-6
-1.379, 2.539e-6
-1.380, 2.550e-6
-1.381, 2.560e-6
-1.382, 2.596e-6
-1.383, 2.616e-6
-1.384, 2.578e-6
-1.385, 2.601e-6
-1.386, 2.593e-6
-1.387, 2.619e-6
-1.388, 2.653e-6
-1.389, 2.633e-6
-1.390, 2.608e-6
-1.391, 2.634e-6
-1.392, 2.666e-6
-1.393, 2.661e-6
-1.394, 2.700e-6
-1.395, 2.656e-6
-1.396, 2.690e-6
-1.397, 2.690e-6
-1.398, 2.725e-6
-1.399, 2.703e-6
-1.400, 2.710e-6
-1.401, 2.710e-6
-1.402, 2.726e-6
-1.403, 2.776e-6
-1.404, 2.748e-6
-1.405, 2.746e-6
-1.406, 2.767e-6
-1.407, 2.756e-6
-1.408, 2.805e-6
-1.409, 2.818e-6
-1.410, 2.766e-6
-1.411, 2.785e-6
-1.412, 2.839e-6
-1.413, 2.849e-6
-1.414, 2.835e-6
-1.415, 2.845e-6
-1.416, 2.819e-6
-1.417, 2.871e-6
-1.418, 2.899e-6
-1.419, 2.884e-6
-1.420, 2.901e-6
-1.421, 2.881e-6
-1.422, 2.906e-6
-1.423, 2.940e-6
-1.424, 2.940e-6
-1.425, 2.926e-6
-1.426, 2.954e-6
-1.427, 2.968e-6
-1.428, 2.966e-6
-1.429, 2.981e-6
-1.430, 2.985e-6
-1.431, 2.984e-6
-1.432, 3.004e-6
-1.433, 3.045e-6
-1.434, 3.050e-6
-1.435, 3.040e-6
-1.436, 3.069e-6
-1.437, 3.056e-6
-1.438, 3.123e-6
-1.439, 3.093e-6
-1.440, 3.113e-6
-1.441, 3.130e-6
-1.442, 3.136e-6
-1.443, 3.132e-6
-1.444, 3.162e-6
-1.445, 3.131e-6
-1.446, 3.164e-6
-1.447, 3.161e-6
-1.448, 3.178e-6
-1.449, 3.237e-6
-1.450, 3.196e-6
-1.451, 3.213e-6
-1.452, 3.240e-6
-1.453, 3.253e-6
-1.454, 3.268e-6
-1.455, 3.251e-6
-1.456, 3.292e-6
-1.457, 3.275e-6
-1.458, 3.331e-6
-1.459, 3.337e-6
-1.460, 3.313e-6
-1.461, 3.347e-6
-1.462, 3.371e-6
-1.463, 3.376e-6
-1.464, 3.390e-6
-1.465, 3.375e-6
-1.466, 3.383e-6
-1.467, 3.439e-6
-1.468, 3.465e-6
-1.469, 3.467e-6
-1.470, 3.445e-6
-1.471, 3.446e-6
-1.472, 3.472e-6
-1.473, 3.556e-6
-1.474, 3.551e-6
-1.475, 3.540e-6
-1.476, 3.525e-6
-1.477, 3.557e-6
-1.478, 3.580e-6
-1.479, 3.597e-6
-1.480, 3.574e-6
-1.481, 3.600e-6
-1.482, 3.625e-6
-1.483, 3.630e-6
-1.484, 3.659e-6
-1.485, 3.679e-6
-1.486, 3.664e-6
-1.487, 3.702e-6
-1.488, 3.743e-6
-1.489, 3.734e-6
-1.490, 3.728e-6
-1.491, 3.749e-6
-1.492, 3.794e-6
-1.493, 3.829e-6
-1.494, 3.824e-6
-1.495, 3.825e-6
-1.496, 3.830e-6
-1.497, 3.847e-6
-1.498, 3.913e-6
-1.499, 3.911e-6
-1.500, 3.914e-6
-1.501, 3.934e-6
-1.502, 3.954e-6
-1.503, 3.983e-6
-1.504, 3.993e-6
-1.505, 3.995e-6
-1.506, 3.999e-6
-1.507, 4.054e-6
-1.508, 4.051e-6
-1.509, 4.088e-6
-1.510, 4.066e-6
-1.511, 4.080e-6
-1.512, 4.155e-6
-1.513, 4.197e-6
-1.514, 4.186e-6
-1.515, 4.189e-6
-1.516, 4.208e-6
-1.517, 4.234e-6
-1.518, 4.259e-6
-1.519, 4.295e-6
-1.520, 4.270e-6
-1.521, 4.278e-6
-1.522, 4.351e-6
-1.523, 4.343e-6
-1.524, 4.384e-6
-1.525, 4.391e-6
-1.526, 4.385e-6
-1.527, 4.443e-6
-1.528, 4.433e-6
-1.529, 4.491e-6
-1.530, 4.547e-6
-1.531, 4.499e-6
-1.532, 4.529e-6
-1.533, 4.594e-6
-1.534, 4.598e-6
-1.535, 4.647e-6
-1.536, 4.635e-6
-1.537, 4.675e-6
-1.538, 4.715e-6
-1.539, 4.750e-6
-1.540, 4.760e-6
-1.541, 4.737e-6
-1.542, 4.785e-6
-1.543, 4.836e-6
-1.544, 4.858e-6
-1.545, 4.882e-6
-1.546, 4.850e-6
-1.547, 4.919e-6
-1.548, 4.949e-6
-1.549, 4.983e-6
-1.550, 5.015e-6
-1.551, 4.992e-6
-1.552, 5.062e-6
-1.553, 5.129e-6
-1.554, 5.096e-6
-1.555, 5.138e-6
-1.556, 5.183e-6
-1.557, 5.169e-6
-1.558, 5.273e-6
-1.559, 5.291e-6
-1.560, 5.277e-6
-1.561, 5.310e-6
-1.562, 5.341e-6
-1.563, 5.431e-6
-1.564, 5.445e-6
-1.565, 5.466e-6
-1.566, 5.459e-6
-1.567, 5.542e-6
-1.568, 5.600e-6
-1.569, 5.619e-6
-1.570, 5.634e-6
-1.571, 5.624e-6
-1.572, 5.666e-6
-1.573, 5.777e-6
-1.574, 5.793e-6
-1.575, 5.788e-6
-1.576, 5.827e-6
-1.577, 5.868e-6
-1.578, 5.940e-6
-1.579, 5.986e-6
-1.580, 6.003e-6
-1.581, 6.005e-6
-1.582, 6.105e-6
-1.583, 6.169e-6
-1.584, 6.189e-6
-1.585, 6.217e-6
-1.586, 6.233e-6
-1.587, 6.286e-6
-1.588, 6.377e-6
-1.589, 6.421e-6
-1.590, 6.442e-6
-1.591, 6.463e-6
-1.592, 6.531e-6
-1.593, 6.611e-6
-1.594, 6.683e-6
-1.595, 6.711e-6
-1.596, 6.732e-6
-1.597, 6.794e-6
-1.598, 6.854e-6
-1.599, 6.927e-6
-1.600, 6.947e-6
-1.601, 6.953e-6
-1.602, 7.072e-6
-1.603, 7.134e-6
-1.604, 7.207e-6
-1.605, 7.254e-6
-1.606, 7.256e-6
-1.607, 7.382e-6
-1.608, 7.446e-6
-1.609, 7.494e-6
-1.610, 7.563e-6
-1.611, 7.593e-6
-1.612, 7.681e-6
-1.613, 7.794e-6
-1.614, 7.838e-6
-1.615, 7.896e-6
-1.616, 7.955e-6
-1.617, 8.029e-6
-1.618, 8.172e-6
-1.619, 8.225e-6
-1.620, 8.268e-6
-1.621, 8.371e-6
-1.622, 8.404e-6
-1.623, 8.557e-6
-1.624, 8.651e-6
-1.625, 8.700e-6
-1.626, 8.781e-6
-1.627, 8.887e-6
-1.628, 8.980e-6
-1.629, 9.088e-6
-1.630, 9.187e-6
-1.631, 9.231e-6
-1.632, 9.320e-6
-1.633, 9.488e-6
-1.634, 9.614e-6
-1.635, 9.671e-6
-1.636, 9.759e-6
-1.637, 9.890e-6
-1.638, 1.007e-5
-1.639, 1.018e-5
-1.640, 1.029e-5
-1.641, 1.041e-5
-1.642, 1.052e-5
-1.643, 1.069e-5
-1.644, 1.083e-5
-1.645, 1.092e-5
-1.646, 1.109e-5
-1.647, 1.124e-5
-1.648, 1.139e-5
-1.649, 1.158e-5
-1.650, 1.167e-5
-1.651, 1.182e-5
-1.652, 1.202e-5
-1.653, 1.219e-5
-1.654, 1.242e-5
-1.655, 1.256e-5
-1.656, 1.268e-5
-1.657, 1.292e-5
-1.658, 1.317e-5
-1.659, 1.332e-5
-1.660, 1.352e-5
-1.661, 1.369e-5
-1.662, 1.395e-5
-1.663, 1.421e-5
-1.664, 1.444e-5
-1.665, 1.464e-5
-1.666, 1.488e-5
-1.667, 1.511e-5
-1.668, 1.543e-5
-1.669, 1.569e-5
-1.670, 1.595e-5
-1.671, 1.619e-5
-1.672, 1.650e-5
-1.673, 1.684e-5
-1.674, 1.711e-5
-1.675, 1.746e-5
-1.676, 1.771e-5
-1.677, 1.813e-5
-1.678, 1.853e-5
-1.679, 1.883e-5
-1.680, 1.922e-5
-1.681, 1.956e-5
-1.682, 1.999e-5
-1.683, 2.047e-5
-1.684, 2.090e-5
-1.685, 2.130e-5
-1.686, 2.174e-5
-1.687, 2.224e-5
-1.688, 2.275e-5
-1.689, 2.330e-5
-1.690, 2.375e-5
-1.691, 2.428e-5
-1.692, 2.489e-5
-1.693, 2.549e-5
-1.694, 2.609e-5
-1.695, 2.669e-5
-1.696, 2.731e-5
-1.697, 2.799e-5
-1.698, 2.873e-5
-1.699, 2.944e-5
-1.700, 3.017e-5
-1.701, 3.091e-5
-1.702, 3.171e-5
-1.703, 3.261e-5
-1.704, 3.348e-5
-1.705, 3.433e-5
-1.706, 3.521e-5
-1.707, 3.616e-5
-1.708, 3.725e-5
-1.709, 3.831e-5
-1.710, 3.931e-5
-1.711, 4.041e-5
-1.712, 4.159e-5
-1.713, 4.280e-5
-1.714, 4.409e-5
-1.715, 4.537e-5
-1.716, 4.668e-5
-1.717, 4.813e-5
-1.718, 4.960e-5
-1.719, 5.113e-5
-1.720, 5.266e-5
-1.721, 5.430e-5
-1.722, 5.600e-5
-1.723, 5.781e-5
-1.724, 5.965e-5
-1.725, 6.155e-5
-1.726, 6.347e-5
-1.727, 6.556e-5
-1.728, 6.780e-5
-1.729, 7.007e-5
-1.730, 7.234e-5
-1.731, 7.473e-5
-1.732, 7.725e-5
-1.733, 7.992e-5
-1.734, 8.268e-5
-1.735, 8.546e-5
-1.736, 8.833e-5
-1.737, 9.140e-5
-1.738, 9.467e-5
-1.739, 9.804e-5
-1.740, 1.014e-4
-1.741, 1.050e-4
-1.742, 1.087e-4
-1.743, 1.127e-4
-1.744, 1.167e-4
-1.745, 1.209e-4
-1.746, 1.253e-4
-1.747, 1.298e-4
-1.748, 1.346e-4
-1.749, 1.395e-4
-1.750, 1.446e-4
-1.751, 1.499e-4
-1.752, 1.555e-4
-1.753, 1.613e-4
-1.754, 1.673e-4
-1.755, 1.735e-4
-1.756, 1.799e-4
-1.757, 1.866e-4
-1.758, 1.937e-4
-1.759, 2.010e-4
-1.760, 2.085e-4
-1.761, 2.162e-4
-1.762, 2.243e-4
-1.763, 2.329e-4
-1.764, 2.416e-4
-1.765, 2.507e-4
-1.766, 2.600e-4
-1.767, 2.698e-4
-1.768, 2.800e-4
-1.769, 2.905e-4
-1.770, 3.013e-4
-1.771, 3.125e-4
-1.772, 3.242e-4
-1.773, 3.363e-4
-1.774, 3.489e-4
-1.775, 3.618e-4
-1.776, 3.751e-4
-1.777, 3.890e-4
-1.778, 4.034e-4
-1.779, 4.183e-4
-1.780, 4.335e-4
-1.781, 4.491e-4
-1.782, 4.655e-4
-1.783, 4.825e-4
-1.784, 4.999e-4
-1.785, 5.178e-4
-1.786, 5.361e-4
-1.787, 5.551e-4
-1.788, 5.749e-4
-1.789, 5.951e-4
-1.790, 6.158e-4
-1.791, 6.370e-4
-1.792, 6.591e-4
-1.793, 6.818e-4
-1.794, 7.052e-4
-1.795, 7.290e-4
-1.796, 7.532e-4
-1.797, 7.780e-4
-1.798, 8.040e-4
-1.799, 8.308e-4
-1.800, 8.467e-4
-1.799, 8.482e-4
-1.798, 8.473e-4
-1.797, 8.452e-4
-1.796, 8.417e-4
-1.795, 8.372e-4
-1.794, 8.317e-4
-1.793, 8.256e-4
-1.792, 8.191e-4
-1.791, 8.120e-4
-1.790, 8.044e-4
-1.789, 7.964e-4
-1.788, 7.880e-4
-1.787, 7.796e-4
-1.786, 7.707e-4
-1.785, 7.615e-4
-1.784, 7.521e-4
-1.783, 7.427e-4
-1.782, 7.333e-4
-1.781, 7.238e-4
-1.780, 7.140e-4
-1.779, 7.039e-4
-1.778, 6.939e-4
-1.777, 6.839e-4
-1.776, 6.741e-4
-1.775, 6.641e-4
-1.774, 6.539e-4
-1.773, 6.437e-4
-1.772, 6.337e-4
-1.771, 6.239e-4
-1.770, 6.138e-4
-1.769, 6.037e-4
-1.768, 5.938e-4
-1.767, 5.839e-4
-1.766, 5.742e-4
-1.765, 5.644e-4
-1.764, 5.545e-4
-1.763, 5.448e-4
-1.762, 5.354e-4
-1.761, 5.261e-4
-1.760, 5.166e-4
-1.759, 5.072e-4
-1.758, 4.979e-4
-1.757, 4.888e-4
-1.756, 4.799e-4
-1.755, 4.708e-4
-1.754, 4.619e-4
-1.753, 4.531e-4
-1.752, 4.447e-4
-1.751, 4.362e-4
-1.750, 4.278e-4
-1.749, 4.194e-4
-1.748, 4.111e-4
-1.747, 4.030e-4
-1.746, 3.950e-4
-1.745, 3.870e-4
-1.744, 3.792e-4
-1.743, 3.715e-4
-1.742, 3.640e-4
-1.741, 3.567e-4
-1.740, 3.493e-4
-1.739, 3.420e-4
-1.738, 3.349e-4
-1.737, 3.280e-4
-1.736, 3.212e-4
-1.735, 3.144e-4
-1.734, 3.076e-4
-1.733, 3.011e-4
-1.732, 2.948e-4
-1.731, 2.885e-4
-1.730, 2.823e-4
-1.729, 2.761e-4
-1.728, 2.700e-4
-1.727, 2.641e-4
-1.726, 2.582e-4
-1.725, 2.525e-4
-1.724, 2.468e-4
-1.723, 2.414e-4
-1.722, 2.362e-4
-1.721, 2.310e-4
-1.720, 2.258e-4
-1.719, 2.207e-4
-1.718, 2.157e-4
-1.717, 2.109e-4
-1.716, 2.061e-4
-1.715, 2.014e-4
-1.714, 1.968e-4
-1.713, 1.923e-4
-1.712, 1.881e-4
-1.711, 1.838e-4
-1.710, 1.796e-4
-1.709, 1.753e-4
-1.708, 1.713e-4
-1.707, 1.674e-4
-1.706, 1.636e-4
-1.705, 1.597e-4
-1.704, 1.560e-4
-1.703, 1.523e-4
-1.702, 1.488e-4
-1.701, 1.454e-4
-1.700, 1.420e-4
-1.699, 1.386e-4
-1.698, 1.353e-4
-1.697, 1.322e-4
-1.696, 1.292e-4
-1.695, 1.260e-4
-1.694, 1.230e-4
-1.693, 1.201e-4
-1.692, 1.174e-4
-1.691, 1.146e-4
-1.690, 1.118e-4
-1.689, 1.091e-4
-1.688, 1.065e-4
-1.687, 1.041e-4
-1.686, 1.016e-4
-1.685, 9.914e-5
-1.684, 9.671e-5
-1.683, 9.438e-5
-1.682, 9.216e-5
-1.681, 8.993e-5
-1.680, 8.774e-5
-1.679, 8.558e-5
-1.678, 8.354e-5
-1.677, 8.160e-5
-1.676, 7.965e-5
-1.675, 7.773e-5
-1.674, 7.583e-5
-1.673, 7.397e-5
-1.672, 7.224e-5
-1.671, 7.049e-5
-1.670, 6.878e-5
-1.669, 6.709e-5
-1.668, 6.547e-5
-1.667, 6.396e-5
-1.666, 6.243e-5
-1.665, 6.093e-5
-1.664, 5.945e-5
-1.663, 5.796e-5
-1.662, 5.663e-5
-1.661, 5.529e-5
-1.660, 5.393e-5
-1.659, 5.264e-5
-1.658, 5.135e-5
-1.657, 5.014e-5
-1.656, 4.898e-5
-1.655, 4.780e-5
-1.654, 4.666e-5
-1.653, 4.553e-5
-1.652, 4.447e-5
-1.651, 4.342e-5
-1.650, 4.239e-5
-1.649, 4.135e-5
-1.648, 4.036e-5
-1.647, 3.949e-5
-1.646, 3.853e-5
-1.645, 3.758e-5
-1.644, 3.669e-5
-1.643, 3.579e-5
-1.642, 3.501e-5
-1.641, 3.422e-5
-1.640, 3.338e-5
-1.639, 3.255e-5
-1.638, 3.175e-5
-1.637, 3.105e-5
-1.636, 3.036e-5
-1.635, 2.962e-5
-1.634, 2.889e-5
-1.633, 2.823e-5
-1.632, 2.761e-5
-1.631, 2.701e-5
-1.630, 2.634e-5
-1.629, 2.570e-5
-1.628, 2.514e-5
-1.627, 2.457e-5
-1.626, 2.403e-5
-1.625, 2.349e-5
-1.624, 2.291e-5
-1.623, 2.239e-5
-1.622, 2.194e-5
-1.621, 2.142e-5
-1.620, 2.093e-5
-1.619, 2.042e-5
-1.618, 1.999e-5
-1.617, 1.955e-5
-1.616, 1.915e-5
-1.615, 1.868e-5
-1.614, 1.824e-5
-1.613, 1.783e-5
-1.612, 1.747e-5
-1.611, 1.711e-5
-1.610, 1.670e-5
-1.609, 1.628e-5
-1.608, 1.595e-5
-1.607, 1.563e-5
-1.606, 1.530e-5
-1.605, 1.495e-5
-1.604, 1.458e-5
-1.603, 1.429e-5
-1.602, 1.402e-5
-1.601, 1.371e-5
-1.600, 1.339e-5
-1.599, 1.308e-5
-1.598, 1.278e-5
-1.597, 1.257e-5
-1.596, 1.230e-5
-1.595, 1.202e-5
-1.594, 1.176e-5
-1.593, 1.151e-5
-1.592, 1.129e-5
-1.591, 1.107e-5
-1.590, 1.081e-5
-1.589, 1.057e-5
-1.588, 1.038e-5
-1.587, 1.015e-5
-1.586, 9.969e-6
-1.585, 9.735e-6
-1.584, 9.509e-6
-1.583, 9.308e-6
-1.582, 9.182e-6
-1.581, 8.987e-6
-1.580, 8.755e-6
-1.579, 8.603e-6
-1.578, 8.394e-6
-1.577, 8.241e-6
-1.576, 8.121e-6
-1.575, 7.899e-6
-1.574, 7.726e-6
-1.573, 7.591e-6
-1.572, 7.455e-6
-1.571, 7.329e-6
-1.570, 7.147e-6
-1.569, 6.987e-6
-1.568, 6.869e-6
-1.567, 6.745e-6
-1.566, 6.602e-6
-1.565, 6.495e-6
-1.564, 6.310e-6
-1.563, 6.205e-6
-1.562, 6.136e-6
-1.561, 5.981e-6
-1.560, 5.868e-6
-1.559, 5.757e-6
-1.558, 5.585e-6
-1.557, 5.562e-6
-1.556, 5.459e-6
-1.555, 5.336e-6
-1.554, 5.257e-6
-1.553, 5.112e-6
-1.552, 5.008e-6
-1.551, 4.939e-6
-1.550, 4.861e-6
-1.549, 4.708e-6
-1.548, 4.635e-6
-1.547, 4.591e-6
-1.546, 4.482e-6
-1.545, 4.412e-6
-1.544, 4.252e-6
-1.543, 4.223e-6
-1.542, 4.157e-6
-1.541, 4.070e-6
-1.540, 3.983e-6
-1.539, 3.918e-6
-1.538, 3.834e-6
-1.537, 3.762e-6
-1.536, 3.727e-6
-1.535, 3.617e-6
-1.534, 3.541e-6
-1.533, 3.480e-6
-1.532, 3.413e-6
-1.531, 3.388e-6
-1.530, 3.322e-6
-1.529, 3.206e-6
-1.528, 3.162e-6
-1.527, 3.142e-6
-1.526, 3.055e-6
-1.525, 3.015e-6
-1.524, 2.936e-6
-1.523, 2.871e-6
-1.522, 2.841e-6
-1.521, 2.801e-6
-1.520, 2.694e-6
-1.519, 2.653e-6
-1.518, 2.596e-6
-1.517, 2.576e-6
-1.516, 2.570e-6
-1.515, 2.464e-6
-1.514, 2.411e-6
-1.513, 2.377e-6
-1.512, 2.327e-6
-1.511, 2.299e-6
-1.510, 2.244e-6
-1.509, 2.160e-6
-1.508, 2.133e-6
-1.507, 2.120e-6
-1.506, 2.091e-6
-1.505, 2.042e-6
-1.504, 1.999e-6
-1.503, 1.923e-6
-1.502, 1.923e-6
-1.501, 1.903e-6
-1.500, 1.836e-6
-1.499, 1.789e-6
-1.498, 1.736e-6
-1.497, 1.717e-6
-1.496, 1.724e-6
-1.495, 1.666e-6
-1.494, 1.586e-6
-1.493, 1.594e-6
-1.492, 1.577e-6
-1.491, 1.546e-6
-1.490, 1.528e-6
-1.489, 1.442e-6
-1.488, 1.436e-6
-1.487, 1.429e-6
-1.486, 1.388e-6
-1.485, 1.350e-6
-1.484, 1.300e-6
-1.483, 1.273e-6
-1.482, 1.302e-6
-1.481, 1.261e-6
-1.480, 1.198e-6
-1.479, 1.164e-6
-1.478, 1.154e-6
-1.477, 1.126e-6
-1.476, 1.122e-6
-1.475, 1.100e-6
-1.474, 1.018e-6
-1.473, 1.036e-6
-1.472, 1.011e-6
-1.471, 1.007e-6
-1.470, 9.489e-7
-1.469, 9.262e-7
-1.468, 8.976e-7
-1.467, 8.858e-7
-1.466, 8.710e-7
-1.465, 8.325e-7
-1.464, 8.493e-7
-1.463, 7.782e-7
-1.462, 7.782e-7
-1.461, 7.950e-7
-1.460, 7.210e-7
-1.459, 7.279e-7
-1.458, 6.677e-7
-1.457, 6.638e-7
-1.456, 6.658e-7
-1.455, 6.371e-7
-1.454, 6.066e-7
-1.453, 5.809e-7
-1.452, 5.937e-7
-1.451, 5.789e-7
-1.450, 5.464e-7
-1.449, 5.414e-7
-1.448, 4.862e-7
-1.447, 4.990e-7
-1.446, 4.961e-7
-1.445, 4.448e-7
-1.444, 4.102e-7
-1.443, 4.221e-7
-1.442, 4.073e-7
-1.441, 4.161e-7
-1.440, 3.846e-7
-1.439, 3.510e-7
-1.438, 3.234e-7
-1.437, 3.688e-7
-1.436, 3.135e-7
-1.435, 3.135e-7
-1.434, 2.415e-7
-1.433, 2.622e-7
-1.432, 2.711e-7
-1.431, 2.632e-7
-1.430, 2.198e-7
-1.429, 2.119e-7
-1.428, 1.843e-7
-1.427, 1.803e-7
-1.426, 1.784e-7
-1.425, 1.498e-7
-1.424, 1.231e-7
-1.423, 1.300e-7
-1.422, 1.083e-7
-1.421, 1.034e-7
-1.420, 9.846e-8
-1.419, 7.182e-8
-1.418, 7.182e-8
-1.417, 7.577e-8
-1.416, 7.084e-8
-1.415, 4.617e-8
-1.414, 5.722e-9
-1.413, -8.090e-9
-1.412, 1.855e-8
-1.411, 4.736e-9
-1.410, -2.684e-8
-1.409, -2.684e-8
-1.408, -6.630e-8
-1.407, -4.361e-8
-1.406, -5.841e-8
-1.405, -6.235e-8
-1.404, -1.048e-7
-1.403, -9.688e-8
-1.402, -7.715e-8
-1.401, -1.087e-7
-1.400, -1.275e-7
-1.399, -1.373e-7
-1.398, -1.393e-7
-1.397, -1.255e-7
-1.396, -1.561e-7
-1.395, -2.044e-7
-1.394, -1.955e-7
-1.393, -1.916e-7
-1.392, -1.906e-7
-1.391, -1.719e-7
-1.390, -2.538e-7
-1.389, -2.399e-7
-1.388, -2.380e-7
-1.387, -2.340e-7
-1.386, -2.370e-7
-1.385, -2.380e-7
-1.384, -2.784e-7
-1.383, -2.903e-7
-1.382, -2.705e-7
-1.381, -2.962e-7
-1.380, -3.169e-7
-1.379, -3.149e-7
-1.378, -3.376e-7
-1.377, -3.248e-7
-1.376, -3.149e-7
-1.375, -3.652e-7
-1.374, -3.810e-7
-1.373, -3.613e-7
-1.372, -3.820e-7
-1.371, -3.652e-7
-1.370, -3.702e-7
-1.369, -4.136e-7
-1.368, -4.067e-7
-1.367, -3.781e-7
-1.366, -3.998e-7
-1.365, -3.938e-7
-1.364, -4.373e-7
-1.363, -4.728e-7
-1.362, -4.304e-7
-1.361, -4.392e-7
-1.360, -4.392e-7
-1.359, -4.807e-7
-1.358, -4.856e-7
-1.357, -4.639e-7
-1.356, -4.866e-7
-1.355, -4.905e-7
-1.354, -5.103e-7
-1.353, -5.113e-7
-1.352, -5.014e-7
-1.351, -5.468e-7
-1.350, -5.083e-7
-1.349, -5.409e-7
-1.348, -5.557e-7
-1.347, -5.310e-7
-1.346, -5.290e-7
-1.345, -5.527e-7
-1.344, -5.428e-7
-1.343, -6.148e-7
-1.342, -5.803e-7
-1.341, -5.665e-7
-1.340, -6.070e-7
-1.339, -5.902e-7
-1.338, -6.198e-7
-1.337, -6.139e-7
-1.336, -5.981e-7
-1.335, -6.040e-7
-1.334, -6.375e-7
-1.333, -6.247e-7
-1.332, -6.089e-7
-1.331, -6.444e-7
-1.330, -6.523e-7
-1.329, -6.504e-7
-1.328, -6.879e-7
-1.327, -6.740e-7
-1.326, -6.632e-7
-1.325, -6.908e-7
-1.324, -6.869e-7
-1.323, -6.987e-7
-1.322, -6.997e-7
-1.321, -6.563e-7
-1.320, -7.007e-7
-1.319, -7.046e-7
-1.318, -7.165e-7
-1.317, -7.253e-7
-1.316, -7.293e-7
-1.315, -7.273e-7
-1.314, -7.313e-7
-1.313, -7.530e-7
-1.312, -7.510e-7
-1.311, -7.411e-7
-1.310, -7.520e-7
-1.309, -7.470e-7
-1.308, -7.905e-7
-1.307, -7.747e-7
-1.306, -7.648e-7
-1.305, -7.954e-7
-1.304, -8.043e-7
-1.303, -8.299e-7
-1.302, -7.895e-7
-1.301, -7.697e-7
-1.300, -7.914e-7
-1.299, -8.191e-7
-1.298, -8.487e-7
-1.297, -8.003e-7
-1.296, -8.329e-7
-1.295, -8.427e-7
-1.294, -8.329e-7
-1.293, -8.723e-7
-1.292, -8.299e-7
-1.291, -8.112e-7
-1.290, -8.723e-7
-1.289, -8.368e-7
-1.288, -8.595e-7
-1.287, -8.546e-7
-1.286, -8.457e-7
-1.285, -8.536e-7
-1.284, -8.763e-7
-1.283, -8.970e-7
-1.282, -8.575e-7
-1.281, -8.990e-7
-1.280, -9.049e-7
-1.279, -8.911e-7
-1.278, -9.049e-7
-1.277, -8.941e-7
-1.276, -8.862e-7
-1.275, -8.950e-7
-1.274, -9.177e-7
-1.273, -9.177e-7
-1.272, -9.128e-7
-1.271, -9.128e-7
-1.270, -9.167e-7
-1.269, -9.296e-7
-1.268, -9.315e-7
-1.267, -9.128e-7
-1.266, -9.167e-7
-1.265, -9.355e-7
-1.264, -9.463e-7
-1.263, -9.473e-7
-1.262, -9.493e-7
-1.261, -9.227e-7
-1.260, -9.720e-7
-1.259, -9.868e-7
-1.258, -9.651e-7
-1.257, -9.572e-7
-1.256, -9.631e-7
-1.255, -9.345e-7
-1.254, -9.789e-7
-1.253, -9.611e-7
-1.252, -9.819e-7
-1.251, -9.799e-7
-1.250, -9.819e-7
-1.249, -9.868e-7
-1.248, -9.937e-7
-1.247, -1.001e-6
-1.246, -9.819e-7
-1.245, -9.947e-7
-1.244, -1.006e-6
-1.243, -1.002e-6
-1.242, -9.898e-7
-1.241, -1.019e-6
-1.240, -9.868e-7
-1.239, -1.031e-6
-1.238, -1.009e-6
-1.237, -9.878e-7
-1.236, -1.030e-6
-1.235, -1.022e-6
-1.234, -1.030e-6
-1.233, -1.060e-6
-1.232, -1.039e-6
-1.231, -1.030e-6
-1.230, -1.039e-6
-1.229, -1.054e-6
-1.228, -1.082e-6
-1.227, -1.072e-6
-1.226, -1.033e-6
-1.225, -1.056e-6
-1.224, -1.074e-6
-1.223, -1.061e-6
-1.222, -1.063e-6
-1.221, -1.090e-6
-1.220, -1.055e-6
-1.219, -1.072e-6
-1.218, -1.096e-6
-1.217, -1.091e-6
-1.216, -1.072e-6
-1.215, -1.113e-6
-1.214, -1.130e-6
-1.213, -1.098e-6
-1.212, -1.106e-6
-1.211, -1.103e-6
-1.210, -1.093e-6
-1.209, -1.127e-6
-1.208, -1.109e-6
-1.207, -1.129e-6
-1.206, -1.112e-6
-1.205, -1.124e-6
-1.204, -1.127e-6
-1.203, -1.155e-6
-1.202, -1.158e-6
-1.201, -1.134e-6
-1.200, -1.150e-6
-1.199, -1.144e-6
-1.198, -1.117e-6
-1.197, -1.160e-6
-1.196, -1.142e-6
-1.195, -1.144e-6
-1.194, -1.185e-6
-1.193, -1.169e-6
-1.192, -1.187e-6
-1.191, -1.165e-6
-1.190, -1.179e-6
-1.189, -1.180e-6
-1.188, -1.209e-6
-1.187, -1.177e-6
-1.186, -1.181e-6
-1.185, -1.225e-6
-1.184, -1.212e-6
-1.183, -1.211e-6
-1.182, -1.230e-6
-1.181, -1.217e-6
-1.180, -1.235e-6
-1.179, -1.259e-6
-1.178, -1.267e-6
-1.177, -1.225e-6
-1.176, -1.243e-6
-1.175, -1.250e-6
-1.174, -1.254e-6
-1.173, -1.284e-6
-1.172, -1.252e-6
-1.171, -1.265e-6
-1.170, -1.298e-6
-1.169, -1.285e-6
-1.168, -1.299e-6
-1.167, -1.319e-6
-1.166, -1.310e-6
-1.165, -1.309e-6
-1.164, -1.337e-6
-1.163, -1.353e-6
-1.162, -1.313e-6
-1.161, -1.345e-6
-1.160, -1.346e-6
-1.159, -1.355e-6
-1.158, -1.381e-6
-1.157, -1.381e-6
-1.156, -1.353e-6
-1.155, -1.398e-6
-1.154, -1.407e-6
-1.153, -1.390e-6
-1.152, -1.398e-6
-1.151, -1.393e-6
-1.150, -1.413e-6
-1.149, -1.447e-6
-1.148, -1.445e-6
-1.147, -1.436e-6
-1.146, -1.443e-6
-1.145, -1.470e-6
-1.144, -1.479e-6
-1.143, -1.472e-6
-1.142, -1.488e-6
-1.141, -1.497e-6
-1.140, -1.518e-6
-1.139, -1.547e-6
-1.138, -1.554e-6
-1.137, -1.552e-6
-1.136, -1.561e-6
-1.135, -1.574e-6
-1.134, -1.587e-6
-1.133, -1.627e-6
-1.132, -1.597e-6
-1.131, -1.624e-6
-1.130, -1.627e-6
-1.129, -1.652e-6
-1.128, -1.633e-6
-1.127, -1.680e-6
-1.126, -1.685e-6
-1.125, -1.689e-6
-1.124, -1.746e-6
-1.123, -1.738e-6
-1.122, -1.715e-6
-1.121, -1.756e-6
-1.120, -1.769e-6
-1.119, -1.786e-6
-1.118, -1.803e-6
-1.117, -1.797e-6
-1.116, -1.801e-6
-1.115, -1.825e-6
-1.114, -1.851e-6
-1.113, -1.868e-6
-1.112, -1.905e-6
-1.111, -1.872e-6
-1.110, -1.917e-6
-1.109, -1.919e-6
-1.108, -1.978e-6
-1.107, -1.945e-6
-1.106, -1.967e-6
-1.105, -1.996e-6
-1.104, -2.006e-6
-1.103, -2.027e-6
-1.102, -2.041e-6
-1.101, -2.050e-6
-1.100, -2.061e-6
-1.099, -2.109e-6
-1.098, -2.132e-6
-1.097, -2.141e-6
-1.096, -2.116e-6
-1.095, -2.153e-6
-1.094, -2.184e-6
-1.093, -2.209e-6
-1.092, -2.179e-6
-1.091, -2.242e-6
-1.090, -2.220e-6
-1.089, -2.286e-6
-1.088, -2.283e-6
-1.087, -2.284e-6
-1.086, -2.300e-6
-1.085, -2.340e-6
-1.084, -2.385e-6
-1.083, -2.361e-6
-1.082, -2.405e-6
-1.081, -2.394e-6
-1.080, -2.415e-6
-1.079, -2.441e-6
-1.078, -2.465e-6
-1.077, -2.437e-6
-1.076, -2.480e-6
-1.075, -2.517e-6
-1.074, -2.541e-6
-1.073, -2.531e-6
-1.072, -2.548e-6
-1.071, -2.570e-6
-1.070, -2.573e-6
-1.069, -2.621e-6
-1.068, -2.625e-6
-1.067, -2.613e-6
-1.066, -2.643e-6
-1.065, -2.658e-6
-1.064, -2.688e-6
-1.063, -2.728e-6
-1.062, -2.716e-6
-1.061, -2.721e-6
-1.060, -2.764e-6
-1.059, -2.774e-6
-1.058, -2.778e-6
-1.057, -2.806e-6
-1.056, -2.787e-6
-1.055, -2.817e-6
-1.054, -2.850e-6
-1.053, -2.884e-6
-1.052, -2.847e-6
-1.051, -2.900e-6
-1.050, -2.901e-6
-1.049, -2.935e-6
-1.048, -2.937e-6
-1.047, -2.928e-6
-1.046, -2.933e-6
-1.045, -2.977e-6
-1.044, -2.964e-6
-1.043, -2.984e-6
-1.042, -3.009e-6
-1.041, -2.979e-6
-1.040, -3.018e-6
-1.039, -3.038e-6
-1.038, -3.048e-6
-1.037, -3.038e-6
-1.036, -3.058e-6
-1.035, -3.035e-6
-1.034, -3.075e-6
-1.033, -3.083e-6
-1.032, -3.079e-6
-1.031, -3.050e-6
-1.030, -3.096e-6
-1.029, -3.088e-6
-1.028, -3.082e-6
-1.027, -3.110e-6
-1.026, -3.078e-6
-1.025, -3.087e-6
-1.024, -3.130e-6
-1.023, -3.111e-6
-1.022, -3.080e-6
-1.021, -3.098e-6
-1.020, -3.070e-6
-1.019, -3.067e-6
-1.018, -3.093e-6
-1.017, -3.072e-6
-1.016, -3.048e-6
-1.015, -3.055e-6
-1.014, -3.071e-6
-1.013, -3.076e-6
-1.012, -3.056e-6
-1.011, -3.017e-6
-1.010, -3.022e-6
-1.009, -3.034e-6
-1.008, -3.019e-6
-1.007, -2.983e-6
-1.006, -2.969e-6
-1.005, -2.972e-6
-1.004, -2.981e-6
-1.003, -2.997e-6
-1.002, -2.987e-6
-1.001, -2.942e-6
-1.000, -2.775e-6
-1.001, -2.525e-6
-1.002, -2.352e-6
-1.003, -2.174e-6
-1.004, -2.036e-6
-1.005, -1.925e-6
-1.006, -1.828e-6
-1.007, -1.725e-6
-1.008, -1.586e-6
-1.009, -1.532e-6
-1.010, -1.462e-6
-1.011, -1.381e-6
-1.012, -1.328e-6
-1.013, -1.256e-6
-1.014, -1.140e-6
-1.015, -1.117e-6
-1.016, -1.063e-6
-1.017, -9.799e-7
-1.018, -9.493e-7
-1.019, -8.921e-7
-1.020, -8.339e-7
-1.021, -8.092e-7
-1.022, -7.993e-7
-1.023, -7.165e-7
-1.024, -6.918e-7
-1.025, -6.721e-7
-1.026, -6.336e-7
-1.027, -5.951e-7
-1.028, -5.458e-7
-1.029, -4.915e-7
-1.030, -4.945e-7
-1.031, -4.570e-7
-1.032, -4.225e-7
-1.033, -4.017e-7
-1.034, -3.790e-7
-1.035, -3.425e-7
-1.036, -3.544e-7
-1.037, -3.218e-7
-1.038, -2.577e-7
-1.039, -2.804e-7
-1.040, -2.320e-7
-1.041, -2.222e-7
-1.042, -2.370e-7
-1.043, -1.857e-7
-1.044, -1.225e-7
-1.045, -1.492e-7
-1.046, -1.215e-7
-1.047, -1.038e-7
-1.048, -8.011e-8
-1.049, -8.208e-8
-1.050, -3.966e-8
-1.051, -5.150e-8
-1.052, -4.657e-8
-1.053, 3.749e-9
-1.054, -1.006e-8
-1.055, 3.039e-8
-1.056, 5.111e-8
-1.057, 3.335e-8
-1.058, 6.492e-8
-1.059, 6.985e-8
-1.060, 7.380e-8
-1.061, 1.014e-7
-1.062, 9.254e-8
-1.063, 1.133e-7
-1.064, 1.636e-7
-1.065, 1.468e-7
-1.066, 1.419e-7
-1.067, 1.586e-7
-1.068, 1.991e-7
-1.069, 2.099e-7
-1.070, 2.070e-7
-1.071, 2.277e-7
-1.072, 2.198e-7
-1.073, 2.386e-7
-1.074, 2.849e-7
-1.075, 2.445e-7
-1.076, 2.543e-7
-1.077, 2.790e-7
-1.078, 2.810e-7
-1.079, 3.155e-7
-1.080, 3.037e-7
-1.081, 2.810e-7
-1.082, 3.214e-7
-1.083, 3.471e-7
-1.084, 3.698e-7
-1.085, 3.570e-7
-1.086, 3.658e-7
-1.087, 3.510e-7
-1.088, 4.004e-7
-1.089, 4.053e-7
-1.090, 3.816e-7
-1.091, 3.856e-7
-1.092, 4.033e-7
-1.093, 4.063e-7
-1.094, 4.359e-7
-1.095, 4.448e-7
-1.096, 4.161e-7
-1.097, 4.349e-7
-1.098, 4.517e-7
-1.099, 4.724e-7
-1.100, 4.625e-7
-1.101, 4.694e-7
-1.102, 4.526e-7
-1.103, 5.099e-7
-1.104, 5.197e-7
-1.105, 5.000e-7
-1.106, 5.158e-7
-1.107, 5.099e-7
-1.108, 5.276e-7
-1.109, 5.414e-7
-1.110, 5.553e-7
-1.111, 5.257e-7
-1.112, 5.148e-7
-1.113, 5.562e-7
-1.114, 5.799e-7
-1.115, 5.799e-7
-1.116, 5.612e-7
-1.117, 5.523e-7
-1.118, 5.819e-7
-1.119, 6.105e-7
-1.120, 5.888e-7
-1.121, 6.233e-7
-1.122, 5.839e-7
-1.123, 6.322e-7
-1.124, 6.549e-7
-1.125, 6.125e-7
-1.126, 6.421e-7
-1.127, 6.381e-7
-1.128, 6.243e-7
-1.129, 6.924e-7
-1.130, 6.736e-7
-1.131, 6.618e-7
-1.132, 6.865e-7
-1.133, 6.875e-7
-1.134, 6.944e-7
-1.135, 6.727e-7
-1.136, 6.815e-7
-1.137, 6.875e-7
-1.138, 6.963e-7
-1.139, 7.467e-7
-1.140, 7.299e-7
-1.141, 7.151e-7
-1.142, 7.190e-7
-1.143, 7.092e-7
-1.144, 7.565e-7
-1.145, 7.348e-7
-1.146, 7.388e-7
-1.147, 7.259e-7
-1.148, 7.989e-7
-1.149, 7.595e-7
-1.150, 7.605e-7
-1.151, 7.802e-7
-1.152, 7.753e-7
-1.153, 8.019e-7
-1.154, 7.930e-7
-1.155, 7.881e-7
-1.156, 7.851e-7
-1.157, 7.999e-7
-1.158, 8.019e-7
-1.159, 8.384e-7
-1.160, 8.177e-7
-1.161, 8.197e-7
-1.162, 8.354e-7
-1.163, 8.453e-7
-1.164, 8.463e-7
-1.165, 8.562e-7
-1.166, 8.463e-7
-1.167, 8.108e-7
-1.168, 8.729e-7
-1.169, 8.591e-7
-1.170, 8.690e-7
-1.171, 8.996e-7
-1.172, 8.680e-7
-1.173, 8.917e-7
-1.174, 9.104e-7
-1.175, 8.996e-7
-1.176, 8.897e-7
-1.177, 8.976e-7
-1.178, 9.252e-7
-1.179, 9.213e-7
-1.180, 9.302e-7
-1.181, 9.193e-7
-1.182, 9.252e-7
-1.183, 9.519e-7
-1.184, 9.538e-7
-1.185, 9.440e-7
-1.186, 9.529e-7
-1.187, 9.282e-7
-1.188, 9.657e-7
-1.189, 9.696e-7
-1.190, 9.677e-7
-1.191, 9.933e-7
-1.192, 9.834e-7
-1.193, 9.775e-7
-1.194, 1.010e-6
-1.195, 1.013e-6
-1.196, 9.982e-7
-1.197, 9.943e-7
-1.198, 1.025e-6
-1.199, 1.027e-6
-1.200, 1.022e-6
-1.201, 1.027e-6
-1.202, 1.008e-6
-1.203, 1.034e-6
-1.204, 1.067e-6
-1.205, 1.042e-6
-1.206, 1.062e-6
-1.207, 1.064e-6
-1.208, 1.050e-6
-1.209, 1.091e-6
-1.210, 1.092e-6
-1.211, 1.047e-6
-1.212, 1.073e-6
-1.213, 1.117e-6
-1.214, 1.079e-6
-1.215, 1.136e-6
-1.216, 1.110e-6
-1.217, 1.090e-6
-1.218, 1.135e-6
-1.219, 1.129e-6
-1.220, 1.120e-6
-1.221, 1.130e-6
-1.222, 1.126e-6
-1.223, 1.132e-6
-1.224, 1.143e-6
-1.225, 1.144e-6
-1.226, 1.137e-6
-1.227, 1.154e-6
-1.228, 1.169e-6
-1.229, 1.190e-6
-1.230, 1.202e-6
-1.231, 1.212e-6
-1.232, 1.170e-6
-1.233, 1.200e-6
-1.234, 1.223e-6
-1.235, 1.182e-6
-1.236, 1.230e-6
-1.237, 1.208e-6
-1.238, 1.180e-6
-1.239, 1.269e-6
-1.240, 1.239e-6
-1.241, 1.244e-6
-1.242, 1.254e-6
-1.243, 1.228e-6
-1.244, 1.268e-6
-1.245, 1.279e-6
-1.246, 1.275e-6
-1.247, 1.261e-6
-1.248, 1.293e-6
-1.249, 1.287e-6
-1.250, 1.316e-6
-1.251, 1.286e-6
-1.252, 1.279e-6
-1.253, 1.328e-6
-1.254, 1.331e-6
-1.255, 1.317e-6
-1.256, 1.338e-6
-1.257, 1.336e-6
-1.258, 1.311e-6
-1.259, 1.374e-6
-1.260, 1.333e-6
-1.261, 1.347e-6
-1.262, 1.357e-6
-1.263, 1.337e-6
-1.264, 1.373e-6
-1.265, 1.387e-6
-1.266, 1.374e-6
-1.267, 1.377e-6
-1.268, 1.380e-6
-1.269, 1.413e-6
-1.270, 1.424e-6
-1.271, 1.417e-6
-1.272, 1.408e-6
-1.273, 1.422e-6
-1.274, 1.436e-6
-1.275, 1.443e-6
-1.276, 1.419e-6
-1.277, 1.436e-6
-1.278, 1.438e-6
-1.279, 1.456e-6
-1.280, 1.487e-6
-1.281, 1.462e-6
-1.282, 1.467e-6
-1.283, 1.514e-6
-1.284, 1.495e-6
-1.285, 1.515e-6
-1.286, 1.522e-6
-1.287, 1.495e-6
-1.288, 1.530e-6
-1.289, 1.553e-6
-1.290, 1.545e-6
-1.291, 1.540e-6
-1.292, 1.541e-6
-1.293, 1.540e-6
-1.294, 1.570e-6
-1.295, 1.579e-6
-1.296, 1.562e-6
-1.297, 1.575e-6
-1.298, 1.590e-6
-1.299, 1.589e-6
-1.300, 1.586e-6
-1.301, 1.602e-6
-1.302, 1.574e-6
-1.303, 1.635e-6
-1.304, 1.639e-6
-1.305, 1.625e-6
-1.306, 1.633e-6
-1.307, 1.654e-6
-1.308, 1.647e-6
-1.309, 1.655e-6
-1.310, 1.676e-6
-1.311, 1.659e-6
-1.312, 1.701e-6
-1.313, 1.697e-6
-1.314, 1.726e-6
-1.315, 1.729e-6
-1.316, 1.721e-6
-1.317, 1.701e-6
-1.318, 1.720e-6
-1.319, 1.773e-6
-1.320, 1.762e-6
-1.321, 1.754e-6
-1.322, 1.773e-6
-1.323, 1.762e-6
-1.324, 1.775e-6
-1.325, 1.790e-6
-1.326, 1.772e-6
-1.327, 1.796e-6
-1.328, 1.802e-6
-1.329, 1.806e-6
-1.330, 1.825e-6
-1.331, 1.819e-6
-1.332, 1.811e-6
-1.333, 1.853e-6
-1.334, 1.850e-6
-1.335, 1.870e-6
-1.336, 1.857e-6
-1.337, 1.872e-6
-1.338, 1.882e-6
-1.339, 1.912e-6
-1.340, 1.882e-6
-1.341, 1.877e-6
-1.342, 1.883e-6
-1.343, 1.917e-6
-1.344, 1.916e-6
-1.345, 1.921e-6
-1.346, 1.970e-6
-1.347, 1.936e-6
-1.348, 1.955e-6
-1.349, 1.944e-6
-1.350, 1.950e-6
-1.351, 1.962e-6
-1.352, 1.952e-6
-1.353, 2.012e-6
-1.354, 2.025e-6
-1.355, 2.016e-6
-1.356, 1.999e-6
-1.357, 2.014e-6
-1.358, 2.021e-6
-1.359, 2.036e-6
-1.360, 2.063e-6
-1.361, 2.025e-6
-1.362, 2.051e-6
-1.363, 2.071e-6
-1.364, 2.072e-6
-1.365, 2.050e-6
-1.366, 2.060e-6
-1.367, 2.103e-6
-1.368, 2.095e-6
-1.369, 2.131e-6
-1.370, 2.109e-6
-1.371, 2.137e-6
-1.372, 2.137e-6
-1.373, 2.136e-6
-1.374, 2.157e-6
-1.375, 2.172e-6
-1.376, 2.148e-6
-1.377, 2.179e-6
-1.378, 2.166e-6
-1.379, 2.189e-6
-1.380, 2.226e-6
-1.381, 2.187e-6
-1.382, 2.204e-6
-1.383, 2.243e-6
-1.384, 2.254e-6
-1.385, 2.264e-6
-1.386, 2.270e-6
-1.387, 2.250e-6
-1.388, 2.277e-6
-1.389, 2.298e-6
-1.390, 2.302e-6
-1.391, 2.302e-6
-1.392, 2.328e-6
-1.393, 2.304e-6
-1.394, 2.370e-6
-1.395, 2.351e-6
-1.396, 2.335e-6
-1.397, 2.333e-6
-1.398, 2.366e-6
-1.399, 2.390e-6
-1.400, 2.390e-6
-1.401, 2.401e-6
-1.402, 2.375e-6
-1.403, 2.410e-6
-1.404, 2.444e-6
-1.405, 2.431e-6
-1.406, 2.440e-6
-1.407, 2.427e-6
-1.408, 2.443e-6
-1.409, 2.493e-6
-1.410, 2.504e-6
-1.411, 2.462e-6
-1.412, 2.481e-6
-1.413, 2.493e-6
-1.414, 2.522e-6
-1.415, 2.541e-6
-1.416, 2.535e-6
-1.417, 2.518e-6
-1.418, 2.561e-6
-1.419, 2.581e-6
-1.420, 2.550e-6
-1.421, 2.581e-6
-1.422, 2.589e-6
-1.423, 2.605e-6
-1.424, 2.648e-6
-1.425, 2.642e-6
-1.426, 2.646e-6
-1.427, 2.632e-6
-1.428, 2.645e-6
-1.429, 2.701e-6
-1.430, 2.681e-6
-1.431, 2.700e-6
-1.432, 2.699e-6
-1.433, 2.693e-6
-1.434, 2.741e-6
-1.435, 2.754e-6
-1.436, 2.752e-6
-1.437, 2.755e-6
-1.438, 2.780e-6
-1.439, 2.785e-6
-1.440, 2.825e-6
-1.441, 2.819e-6
-1.442, 2.832e-6
-1.443, 2.834e-6
-1.444, 2.858e-6
-1.445, 2.861e-6
-1.446, 2.878e-6
-1.447, 2.893e-6
-1.448, 2.876e-6
-1.449, 2.940e-6
-1.450, 2.947e-6
-1.451, 2.941e-6
-1.452, 2.931e-6
-1.453, 2.955e-6
-1.454, 2.979e-6
-1.455, 3.014e-6
-1.456, 3.017e-6
-1.457, 3.010e-6
-1.458, 3.024e-6
-1.459, 3.082e-6
-1.460, 3.073e-6
-1.461, 3.076e-6
-1.462, 3.067e-6
-1.463, 3.094e-6
-1.464, 3.133e-6
-1.465, 3.146e-6
-1.466, 3.135e-6
-1.467, 3.125e-6
-1.468, 3.191e-6
-1.469, 3.196e-6
-1.470, 3.222e-6
-1.471, 3.228e-6
-1.472, 3.211e-6
-1.473, 3.260e-6
-1.474, 3.295e-6
-1.475, 3.301e-6
-1.476, 3.297e-6
-1.477, 3.290e-6
-1.478, 3.315e-6
-1.479, 3.389e-6
-1.480, 3.369e-6
-1.481, 3.399e-6
-1.482, 3.384e-6
-1.483, 3.411e-6
-1.484, 3.477e-6
-1.485, 3.472e-6
-1.486, 3.494e-6
-1.487, 3.511e-6
-1.488, 3.511e-6
-1.489, 3.559e-6
-1.490, 3.574e-6
-1.491, 3.542e-6
-1.492, 3.572e-6
-1.493, 3.641e-6
-1.494, 3.632e-6
-1.495, 3.656e-6
-1.496, 3.662e-6
-1.497, 3.668e-6
-1.498, 3.720e-6
-1.499, 3.741e-6
-1.500, 3.751e-6
-1.501, 3.754e-6
-1.502, 3.789e-6
-1.503, 3.824e-6
-1.504, 3.829e-6
-1.505, 3.881e-6
-1.506, 3.873e-6
-1.507, 3.857e-6
-1.508, 3.930e-6
-1.509, 3.943e-6
-1.510, 3.984e-6
-1.511, 4.002e-6
-1.512, 3.984e-6
-1.513, 4.038e-6
-1.514, 4.071e-6
-1.515, 4.074e-6
-1.516, 4.072e-6
-1.517, 4.115e-6
-1.518, 4.181e-6
-1.519, 4.179e-6
-1.520, 4.227e-6
-1.521, 4.227e-6
-1.522, 4.217e-6
-1.523, 4.274e-6
-1.524, 4.305e-6
-1.525, 4.326e-6
-1.526, 4.342e-6
-1.527, 4.346e-6
-1.528, 4.405e-6
-1.529, 4.476e-6
-1.530, 4.464e-6
-1.531, 4.465e-6
-1.532, 4.512e-6
-1.533, 4.524e-6
-1.534, 4.585e-6
-1.535, 4.596e-6
-1.536, 4.639e-6
-1.537, 4.658e-6
-1.538, 4.714e-6
-1.539, 4.743e-6
-1.540, 4.761e-6
-1.541, 4.818e-6
-1.542, 4.766e-6
-1.543, 4.849e-6
-1.544, 4.932e-6
-1.545, 4.927e-6
-1.546, 4.953e-6
-1.547, 5.000e-6
-1.548, 4.998e-6
-1.549, 5.106e-6
-1.550, 5.106e-6
-1.551, 5.104e-6
-1.552, 5.151e-6
-1.553, 5.220e-6
-1.554, 5.274e-6
-1.555, 5.311e-6
-1.556, 5.327e-6
-1.557, 5.340e-6
-1.558, 5.390e-6
-1.559, 5.504e-6
-1.560, 5.476e-6
-1.561, 5.487e-6
-1.562, 5.588e-6
-1.563, 5.586e-6
-1.564, 5.685e-6
-1.565, 5.724e-6
-1.566, 5.711e-6
-1.567, 5.752e-6
-1.568, 5.831e-6
-1.569, 5.869e-6
-1.570, 5.938e-6
-1.571, 5.968e-6
-1.572, 5.984e-6
-1.573, 6.082e-6
-1.574, 6.137e-6
-1.575, 6.183e-6
-1.576, 6.203e-6
-1.577, 6.271e-6
-1.578, 6.323e-6
-1.579, 6.421e-6
-1.580, 6.465e-6
-1.581, 6.496e-6
-1.582, 6.545e-6
-1.583, 6.607e-6
-1.584, 6.699e-6
-1.585, 6.708e-6
-1.586, 6.776e-6
-1.587, 6.811e-6
-1.588, 6.925e-6
-1.589, 7.019e-6
-1.590, 7.048e-6
-1.591, 7.076e-6
-1.592, 7.156e-6
-1.593, 7.210e-6
-1.594, 7.356e-6
-1.595, 7.403e-6
-1.596, 7.438e-6
-1.597, 7.510e-6
-1.598, 7.588e-6
-1.599, 7.704e-6
-1.600, 7.773e-6
-1.601, 7.855e-6
-1.602, 7.916e-6
-1.603, 8.008e-6
-1.604, 8.124e-6
-1.605, 8.198e-6
-1.606, 8.245e-6
-1.607, 8.367e-6
-1.608, 8.412e-6
-1.609, 8.550e-6
-1.610, 8.666e-6
-1.611, 8.713e-6
-1.612, 8.832e-6
-1.613, 8.939e-6
-1.614, 9.072e-6
-1.615, 9.198e-6
-1.616, 9.271e-6
-1.617, 9.355e-6
-1.618, 9.499e-6
-1.619, 9.628e-6
-1.620, 9.744e-6
-1.621, 9.854e-6
-1.622, 9.958e-6
-1.623, 1.011e-5
-1.624, 1.027e-5
-1.625, 1.041e-5
-1.626, 1.052e-5
-1.627, 1.061e-5
-1.628, 1.079e-5
-1.629, 1.097e-5
-1.630, 1.111e-5
-1.631, 1.124e-5
-1.632, 1.136e-5
-1.633, 1.157e-5
-1.634, 1.176e-5
-1.635, 1.190e-5
-1.636, 1.205e-5
-1.637, 1.226e-5
-1.638, 1.243e-5
-1.639, 1.270e-5
-1.640, 1.287e-5
-1.641, 1.301e-5
-1.642, 1.320e-5
-1.643, 1.343e-5
-1.644, 1.364e-5
-1.645, 1.390e-5
-1.646, 1.408e-5
-1.647, 1.429e-5
-1.648, 1.452e-5
-1.649, 1.482e-5
-1.650, 1.505e-5
-1.651, 1.530e-5
-1.652, 1.551e-5
-1.653, 1.580e-5
-1.654, 1.611e-5
-1.655, 1.640e-5
-1.656, 1.666e-5
-1.657, 1.694e-5
-1.658, 1.725e-5
-1.659, 1.759e-5
-1.660, 1.790e-5
-1.661, 1.821e-5
-1.662, 1.852e-5
-1.663, 1.888e-5
-1.664, 1.933e-5
-1.665, 1.965e-5
-1.666, 2.004e-5
-1.667, 2.041e-5
-1.668, 2.079e-5
-1.669, 2.128e-5
-1.670, 2.169e-5
-1.671, 2.209e-5
-1.672, 2.252e-5
-1.673, 2.302e-5
-1.674, 2.350e-5
-1.675, 2.400e-5
-1.676, 2.447e-5
-1.677, 2.497e-5
-1.678, 2.552e-5
-1.679, 2.618e-5
-1.680, 2.667e-5
-1.681, 2.722e-5
-1.682, 2.783e-5
-1.683, 2.844e-5
-1.684, 2.914e-5
-1.685, 2.981e-5
-1.686, 3.044e-5
-1.687, 3.111e-5
-1.688, 3.188e-5
-1.689, 3.265e-5
-1.690, 3.344e-5
-1.691, 3.421e-5
-1.692, 3.499e-5
-1.693, 3.586e-5
-1.694, 3.680e-5
-1.695, 3.768e-5
-1.696, 3.858e-5
-1.697, 3.952e-5
-1.698, 4.054e-5
-1.699, 4.161e-5
-1.700, 4.269e-5
-1.701, 4.375e-5
-1.702, 4.483e-5
-1.703, 4.607e-5
-1.704, 4.729e-5
-1.705, 4.856e-5
-1.706, 4.981e-5
-1.707, 5.111e-5
-1.708, 5.252e-5
-1.709, 5.401e-5
-1.710, 5.549e-5
-1.711, 5.693e-5
-1.712, 5.847e-5
-1.713, 6.017e-5
-1.714, 6.189e-5
-1.715, 6.365e-5
-1.716, 6.543e-5
-1.717, 6.722e-5
-1.718, 6.925e-5
-1.719, 7.126e-5
-1.720, 7.333e-5
-1.721, 7.548e-5
-1.722, 7.770e-5
-1.723, 7.997e-5
-1.724, 8.243e-5
-1.725, 8.490e-5
-1.726, 8.735e-5
-1.727, 9.000e-5
-1.728, 9.280e-5
-1.729, 9.560e-5
-1.730, 9.854e-5
-1.731, 1.016e-4
-1.732, 1.046e-4
-1.733, 1.079e-4
-1.734, 1.113e-4
-1.735, 1.148e-4
-1.736, 1.184e-4
-1.737, 1.220e-4
-1.738, 1.259e-4
-1.739, 1.300e-4
-1.740, 1.341e-4
-1.741, 1.383e-4
-1.742, 1.427e-4
-1.743, 1.474e-4
-1.744, 1.521e-4
-1.745, 1.571e-4
-1.746, 1.621e-4
-1.747, 1.673e-4
-1.748, 1.728e-4
-1.749, 1.786e-4
-1.750, 1.844e-4
-1.751, 1.904e-4
-1.752, 1.965e-4
-1.753, 2.030e-4
-1.754, 2.098e-4
-1.755, 2.168e-4
-1.756, 2.238e-4
-1.757, 2.311e-4
-1.758, 2.388e-4
-1.759, 2.468e-4
-1.760, 2.550e-4
-1.761, 2.633e-4
-1.762, 2.719e-4
-1.763, 2.809e-4
-1.764, 2.903e-4
-1.765, 2.999e-4
-1.766, 3.098e-4
-1.767, 3.200e-4
-1.768, 3.305e-4
-1.769, 3.415e-4
-1.770, 3.527e-4
-1.771, 3.642e-4
-1.772, 3.759e-4
-1.773, 3.885e-4
-1.774, 4.014e-4
-1.775, 4.145e-4
-1.776, 4.279e-4
-1.777, 4.417e-4
-1.778, 4.561e-4
-1.779, 4.710e-4
-1.780, 4.863e-4
-1.781, 5.019e-4
-1.782, 5.179e-4
-1.783, 5.345e-4
-1.784, 5.516e-4
-1.785, 5.691e-4
-1.786, 5.870e-4
-1.787, 6.055e-4
-1.788, 6.246e-4
-1.789, 6.444e-4
-1.790, 6.647e-4
-1.791, 6.852e-4
-1.792, 7.063e-4
-1.793, 7.280e-4
-1.794, 7.503e-4
-1.795, 7.731e-4
-1.796, 7.965e-4
-1.797, 8.203e-4
-1.798, 8.449e-4
-1.799, 8.702e-4
-1.800, 8.845e-4
-1.799, 8.837e-4
-1.798, 8.809e-4
-1.797, 8.768e-4
-1.796, 8.719e-4
-1.795, 8.659e-4
-1.794, 8.591e-4
-1.793, 8.515e-4
-1.792, 8.436e-4
-1.791, 8.355e-4
-1.790, 8.270e-4
-1.789, 8.179e-4
-1.788, 8.084e-4
-1.787, 7.990e-4
-1.786, 7.895e-4
-1.785, 7.797e-4
-1.784, 7.697e-4
-1.783, 7.595e-4
-1.782, 7.494e-4
-1.781, 7.394e-4
-1.780, 7.292e-4
-1.779, 7.187e-4
-1.778, 7.080e-4
-1.777, 6.975e-4
-1.776, 6.872e-4
-1.775, 6.769e-4
-1.774, 6.665e-4
-1.773, 6.561e-4
-1.772, 6.457e-4
-1.771, 6.356e-4
-1.770, 6.253e-4
-1.769, 6.149e-4
-1.768, 6.047e-4
-1.767, 5.947e-4
-1.766, 5.848e-4
-1.765, 5.750e-4
-1.764, 5.650e-4
-1.763, 5.550e-4
-1.762, 5.454e-4
-1.761, 5.359e-4
-1.760, 5.265e-4
-1.759, 5.169e-4
-1.758, 5.074e-4
-1.757, 4.982e-4
-1.756, 4.893e-4
-1.755, 4.802e-4
-1.754, 4.711e-4
-1.753, 4.620e-4
-1.752, 4.534e-4
-1.751, 4.450e-4
-1.750, 4.367e-4
-1.749, 4.284e-4
-1.748, 4.201e-4
-1.747, 4.120e-4
-1.746, 4.040e-4
-1.745, 3.961e-4
-1.744, 3.882e-4
-1.743, 3.805e-4
-1.742, 3.730e-4
-1.741, 3.657e-4
-1.740, 3.584e-4
-1.739, 3.512e-4
-1.738, 3.441e-4
-1.737, 3.371e-4
-1.736, 3.304e-4
-1.735, 3.236e-4
-1.734, 3.169e-4
-1.733, 3.103e-4
-1.732, 3.039e-4
-1.731, 2.977e-4
-1.730, 2.916e-4
-1.729, 2.854e-4
-1.728, 2.793e-4
-1.727, 2.735e-4
-1.726, 2.678e-4
-1.725, 2.621e-4
-1.724, 2.565e-4
-1.723, 2.510e-4
-1.722, 2.457e-4
-1.721, 2.404e-4
-1.720, 2.352e-4
-1.719, 2.300e-4
-1.718, 2.250e-4
-1.717, 2.202e-4
-1.716, 2.155e-4
-1.715, 2.108e-4
-1.714, 2.061e-4
-1.713, 2.016e-4
-1.712, 1.972e-4
-1.711, 1.929e-4
-1.710, 1.886e-4
-1.709, 1.844e-4
-1.708, 1.802e-4
-1.707, 1.763e-4
-1.706, 1.724e-4
-1.705, 1.685e-4
-1.704, 1.647e-4
-1.703, 1.610e-4
-1.702, 1.574e-4
-1.701, 1.539e-4
-1.700, 1.505e-4
-1.699, 1.470e-4
-1.698, 1.437e-4
-1.697, 1.404e-4
-1.696, 1.373e-4
-1.695, 1.341e-4
-1.694, 1.311e-4
-1.693, 1.280e-4
-1.692, 1.252e-4
-1.691, 1.224e-4
-1.690, 1.196e-4
-1.689, 1.168e-4
-1.688, 1.141e-4
-1.687, 1.115e-4
-1.686, 1.090e-4
-1.685, 1.065e-4
-1.684, 1.040e-4
-1.683, 1.016e-4
-1.682, 9.931e-5
-1.681, 9.705e-5
-1.680, 9.483e-5
-1.679, 9.262e-5
-1.678, 9.043e-5
-1.677, 8.837e-5
-1.676, 8.638e-5
-1.675, 8.438e-5
-1.674, 8.241e-5
-1.673, 8.052e-5
-1.672, 7.865e-5
-1.671, 7.690e-5
-1.670, 7.509e-5
-1.669, 7.331e-5
-1.668, 7.160e-5
-1.667, 6.998e-5
-1.666, 6.837e-5
-1.665, 6.677e-5
-1.664, 6.523e-5
-1.663, 6.370e-5
-1.662, 6.226e-5
-1.661, 6.089e-5
-1.660, 5.946e-5
-1.659, 5.801e-5
-1.658, 5.666e-5
-1.657, 5.541e-5
-1.656, 5.416e-5
-1.655, 5.292e-5
-1.654, 5.167e-5
-1.653, 5.044e-5
-1.652, 4.931e-5
-1.651, 4.821e-5
-1.650, 4.707e-5
-1.649, 4.598e-5
-1.648, 4.492e-5
-1.647, 4.392e-5
-1.646, 4.293e-5
-1.645, 4.197e-5
-1.644, 4.095e-5
-1.643, 4.002e-5
-1.642, 3.914e-5
-1.641, 3.829e-5
-1.640, 3.739e-5
-1.639, 3.651e-5
-1.638, 3.564e-5
-1.637, 3.486e-5
-1.636, 3.415e-5
-1.635, 3.333e-5
-1.634, 3.254e-5
-1.633, 3.184e-5
-1.632, 3.108e-5
-1.631, 3.042e-5
-1.630, 2.977e-5
-1.629, 2.904e-5
-1.628, 2.839e-5
-1.627, 2.781e-5
-1.626, 2.718e-5
-1.625, 2.656e-5
-1.624, 2.597e-5
-1.623, 2.534e-5
-1.622, 2.481e-5
-1.621, 2.429e-5
-1.620, 2.374e-5
-1.619, 2.320e-5
-1.618, 2.267e-5
-1.617, 2.222e-5
-1.616, 2.175e-5
-1.615, 2.128e-5
-1.614, 2.075e-5
-1.613, 2.029e-5
-1.612, 1.988e-5
-1.611, 1.948e-5
-1.610, 1.903e-5
-1.609, 1.861e-5
-1.608, 1.819e-5
-1.607, 1.783e-5
-1.606, 1.745e-5
-1.605, 1.705e-5
-1.604, 1.669e-5
-1.603, 1.631e-5
-1.602, 1.597e-5
-1.601, 1.566e-5
-1.600, 1.533e-5
-1.599, 1.495e-5
-1.598, 1.464e-5
-1.597, 1.438e-5
-1.596, 1.406e-5
-1.595, 1.376e-5
-1.594, 1.346e-5
-1.593, 1.314e-5
-1.592, 1.292e-5
-1.591, 1.266e-5
-1.590, 1.234e-5
-1.589, 1.209e-5
-1.588, 1.182e-5
-1.587, 1.156e-5
-1.586, 1.136e-5
-1.585, 1.114e-5
-1.584, 1.087e-5
-1.583, 1.063e-5
-1.582, 1.046e-5
-1.581, 1.026e-5
-1.580, 1.004e-5
-1.579, 9.821e-6
-1.578, 9.601e-6
-1.577, 9.427e-6
-1.576, 9.269e-6
-1.575, 9.020e-6
-1.574, 8.856e-6
-1.573, 8.676e-6
-1.572, 8.526e-6
-1.571, 8.360e-6
-1.570, 8.191e-6
-1.569, 7.973e-6
-1.568, 7.832e-6
-1.567, 7.687e-6
-1.566, 7.548e-6
-1.565, 7.398e-6
-1.564, 7.189e-6
-1.563, 7.094e-6
-1.562, 6.979e-6
-1.561, 6.813e-6
-1.560, 6.675e-6
-1.559, 6.564e-6
-1.558, 6.406e-6
-1.557, 6.292e-6
-1.556, 6.204e-6
-1.555, 6.042e-6
-1.554, 5.904e-6
-1.553, 5.806e-6
-1.552, 5.716e-6
-1.551, 5.620e-6
-1.550, 5.494e-6
-1.549, 5.366e-6
-1.548, 5.244e-6
-1.547, 5.166e-6
-1.546, 5.061e-6
-1.545, 4.983e-6
-1.544, 4.867e-6
-1.543, 4.740e-6
-1.542, 4.690e-6
-1.541, 4.637e-6
-1.540, 4.496e-6
-1.539, 4.397e-6
-1.538, 4.308e-6
-1.537, 4.219e-6
-1.536, 4.189e-6
-1.535, 4.085e-6
-1.534, 3.972e-6
-1.533, 3.893e-6
-1.532, 3.865e-6
-1.531, 3.805e-6
-1.530, 3.690e-6
-1.529, 3.630e-6
-1.528, 3.520e-6
-1.527, 3.513e-6
-1.526, 3.441e-6
-1.525, 3.359e-6
-1.524, 3.271e-6
-1.523, 3.246e-6
-1.522, 3.163e-6
-1.521, 3.115e-6
-1.520, 3.079e-6
-1.519, 2.951e-6
-1.518, 2.903e-6
-1.517, 2.905e-6
-1.516, 2.810e-6
-1.515, 2.758e-6
-1.514, 2.688e-6
-1.513, 2.635e-6
-1.512, 2.615e-6
-1.511, 2.591e-6
-1.510, 2.488e-6
-1.509, 2.424e-6
-1.508, 2.396e-6
-1.507, 2.345e-6
-1.506, 2.331e-6
-1.505, 2.252e-6
-1.504, 2.179e-6
-1.503, 2.143e-6
-1.502, 2.144e-6
-1.501, 2.099e-6
-1.500, 2.051e-6
-1.499, 1.970e-6
-1.498, 1.914e-6
-1.497, 1.936e-6
-1.496, 1.889e-6
-1.495, 1.829e-6
-1.494, 1.806e-6
-1.493, 1.759e-6
-1.492, 1.737e-6
-1.491, 1.703e-6
-1.490, 1.624e-6
-1.489, 1.592e-6
-1.488, 1.569e-6
-1.487, 1.560e-6
-1.486, 1.550e-6
-1.485, 1.488e-6
-1.484, 1.449e-6
-1.483, 1.412e-6
-1.482, 1.399e-6
-1.481, 1.355e-6
-1.480, 1.335e-6
-1.479, 1.296e-6
-1.478, 1.224e-6
-1.477, 1.248e-6
-1.476, 1.237e-6
-1.475, 1.144e-6
-1.474, 1.142e-6
-1.473, 1.134e-6
-1.472, 1.106e-6
-1.471, 1.088e-6
-1.470, 1.037e-6
-1.469, 1.000e-6
-1.468, 9.765e-7
-1.467, 1.004e-6
-1.466, 9.637e-7
-1.465, 9.361e-7
-1.464, 8.966e-7
-1.463, 8.581e-7
-1.462, 8.591e-7
-1.461, 8.779e-7
-1.460, 7.851e-7
-1.459, 7.782e-7
-1.458, 7.802e-7
-1.457, 7.674e-7
-1.456, 7.269e-7
-1.455, 7.161e-7
-1.454, 6.658e-7
-1.453, 6.362e-7
-1.452, 6.776e-7
-1.451, 6.391e-7
-1.450, 6.125e-7
-1.449, 5.799e-7
-1.448, 5.454e-7
-1.447, 5.799e-7
-1.446, 5.503e-7
-1.445, 5.089e-7
-1.444, 5.089e-7
-1.443, 4.852e-7
-1.442, 4.911e-7
-1.441, 4.980e-7
-1.440, 4.556e-7
-1.439, 3.954e-7
-1.438, 4.023e-7
-1.437, 4.053e-7
-1.436, 3.648e-7
-1.435, 3.500e-7
-1.434, 3.540e-7
-1.433, 3.155e-7
-1.432, 3.362e-7
-1.431, 3.135e-7
-1.430, 2.494e-7
-1.429, 2.613e-7
-1.428, 2.257e-7
-1.427, 2.188e-7
-1.426, 2.573e-7
-1.425, 1.882e-7
-1.424, 1.784e-7
-1.423, 1.754e-7
-1.422, 1.764e-7
-1.421, 1.547e-7
-1.420, 1.350e-7
-1.419, 1.152e-7
-1.418, 1.271e-7
-1.417, 1.389e-7
-1.416, 9.156e-8
-1.415, 6.788e-8
-1.414, 5.505e-8
-1.413, 5.801e-8
-1.412, 3.532e-8
-1.411, 5.111e-8
-1.410, 3.335e-8
-1.409, 1.362e-8
-1.408, 4.736e-9
-1.407, 2.762e-9
-1.406, -3.177e-8
-1.405, -3.275e-8
-1.404, -5.939e-8
-1.403, -7.123e-8
-1.402, -4.854e-8
-1.401, -5.643e-8
-1.400, -7.419e-8
-1.399, -8.899e-8
-1.398, -1.196e-7
-1.397, -8.603e-8
-1.396, -1.294e-7
-1.395, -1.373e-7
-1.394, -1.561e-7
-1.393, -1.403e-7
-1.392, -1.541e-7
-1.391, -1.817e-7
-1.390, -1.748e-7
-1.389, -1.886e-7
-1.388, -2.261e-7
-1.387, -2.054e-7
-1.386, -1.975e-7
-1.385, -2.350e-7
-1.384, -2.370e-7
-1.383, -2.646e-7
-1.382, -2.468e-7
-1.381, -2.656e-7
-1.380, -2.705e-7
-1.379, -2.991e-7
-1.378, -3.070e-7
-1.377, -2.725e-7
-1.376, -3.120e-7
-1.375, -3.297e-7
-1.374, -3.238e-7
-1.373, -3.771e-7
-1.372, -3.386e-7
-1.371, -3.199e-7
-1.370, -3.623e-7
-1.369, -3.495e-7
-1.368, -3.662e-7
-1.367, -3.790e-7
-1.366, -3.643e-7
-1.365, -4.077e-7
-1.364, -4.254e-7
-1.363, -4.264e-7
-1.362, -3.929e-7
-1.361, -4.136e-7
-1.360, -4.373e-7
-1.359, -4.461e-7
-1.358, -4.363e-7
-1.357, -4.422e-7
-1.356, -4.481e-7
-1.355, -4.876e-7
-1.354, -4.974e-7
-1.353, -4.659e-7
-1.352, -4.935e-7
-1.351, -4.886e-7
-1.350, -5.014e-7
-1.349, -5.152e-7
-1.348, -4.876e-7
-1.347, -4.817e-7
-1.346, -5.053e-7
-1.345, -5.616e-7
-1.344, -5.399e-7
-1.343, -5.774e-7
-1.342, -5.270e-7
-1.341, -5.399e-7
-1.340, -5.645e-7
-1.339, -5.823e-7
-1.338, -5.635e-7
-1.337, -5.852e-7
-1.336, -5.951e-7
-1.335, -5.872e-7
-1.334, -6.287e-7
-1.333, -6.109e-7
-1.332, -5.497e-7
-1.331, -6.109e-7
-1.330, -6.257e-7
-1.329, -6.415e-7
-1.328, -6.523e-7
-1.327, -6.168e-7
-1.326, -6.385e-7
-1.325, -6.711e-7
-1.324, -6.750e-7
-1.323, -6.661e-7
-1.322, -6.514e-7
-1.321, -6.731e-7
-1.320, -6.691e-7
-1.319, -6.898e-7
-1.318, -7.165e-7
-1.317, -6.750e-7
-1.316, -6.957e-7
-1.315, -7.332e-7
-1.314, -7.066e-7
-1.313, -7.323e-7
-1.312, -7.086e-7
-1.311, -7.263e-7
-1.310, -7.451e-7
-1.309, -7.549e-7
-1.308, -7.559e-7
-1.307, -7.421e-7
-1.306, -7.480e-7
-1.305, -7.470e-7
-1.304, -7.737e-7
-1.303, -7.628e-7
-1.302, -7.431e-7
-1.301, -7.747e-7
-1.300, -7.944e-7
-1.299, -8.062e-7
-1.298, -7.905e-7
-1.297, -7.885e-7
-1.296, -7.905e-7
-1.295, -8.201e-7
-1.294, -8.013e-7
-1.293, -7.954e-7
-1.292, -8.072e-7
-1.291, -8.072e-7
-1.290, -8.161e-7
-1.289, -8.388e-7
-1.288, -8.210e-7
-1.287, -8.191e-7
-1.286, -8.684e-7
-1.285, -8.299e-7
-1.284, -8.575e-7
-1.283, -8.556e-7
-1.282, -8.408e-7
-1.281, -8.378e-7
-1.280, -8.911e-7
-1.279, -8.891e-7
-1.278, -8.684e-7
-1.277, -8.871e-7
-1.276, -8.891e-7
-1.275, -8.970e-7
-1.274, -8.862e-7
-1.273, -9.029e-7
-1.272, -8.645e-7
-1.271, -9.010e-7
-1.270, -8.970e-7
-1.269, -9.010e-7
-1.268, -9.217e-7
-1.267, -8.990e-7
-1.266, -9.237e-7
-1.265, -9.365e-7
-1.264, -9.246e-7
-1.263, -9.019e-7
-1.262, -9.029e-7
-1.261, -9.306e-7
-1.260, -9.384e-7
-1.259, -9.592e-7
-1.258, -9.197e-7
-1.257, -9.325e-7
-1.256, -9.335e-7
-1.255, -9.700e-7
-1.254, -9.661e-7
-1.253, -9.680e-7
-1.252, -9.325e-7
-1.251, -9.503e-7
-1.250, -9.661e-7
-1.249, -9.809e-7
-1.248, -9.661e-7
-1.247, -9.690e-7
-1.246, -1.004e-6
-1.245, -9.996e-7
-1.244, -9.976e-7
-1.243, -1.003e-6
-1.242, -9.671e-7
-1.241, -9.799e-7
-1.240, -1.019e-6
-1.239, -1.004e-6
-1.238, -9.888e-7
-1.237, -1.003e-6
-1.236, -9.690e-7
-1.235, -1.019e-6
-1.234, -1.017e-6
-1.233, -1.014e-6
-1.232, -1.002e-6
-1.231, -1.011e-6
-1.230, -1.037e-6
-1.229, -1.038e-6
-1.228, -1.026e-6
-1.227, -1.044e-6
-1.226, -1.048e-6
-1.225, -1.059e-6
-1.224, -1.068e-6
-1.223, -1.031e-6
-1.222, -1.025e-6
-1.221, -1.053e-6
-1.220, -1.057e-6
-1.219, -1.093e-6
-1.218, -1.068e-6
-1.217, -1.047e-6
-1.216, -1.088e-6
-1.215, -1.075e-6
-1.214, -1.106e-6
-1.213, -1.094e-6
-1.212, -1.075e-6
-1.211, -1.098e-6
-1.210, -1.118e-6
-1.209, -1.127e-6
-1.208, -1.094e-6
-1.207, -1.088e-6
-1.206, -1.114e-6
-1.205, -1.085e-6
-1.204, -1.145e-6
-1.203, -1.127e-6
-1.202, -1.099e-6
-1.201, -1.136e-6
-1.200, -1.130e-6
-1.199, -1.136e-6
-1.198, -1.165e-6
-1.197, -1.124e-6
-1.196, -1.135e-6
-1.195, -1.173e-6
-1.194, -1.133e-6
-1.193, -1.170e-6
-1.192, -1.163e-6
-1.191, -1.164e-6
-1.190, -1.162e-6
-1.189, -1.205e-6
-1.188, -1.207e-6
-1.187, -1.164e-6
-1.186, -1.193e-6
-1.185, -1.194e-6
-1.184, -1.213e-6
-1.183, -1.206e-6
-1.182, -1.160e-6
-1.181, -1.185e-6
-1.180, -1.250e-6
-1.179, -1.254e-6
-1.178, -1.215e-6
-1.177, -1.243e-6
-1.176, -1.220e-6
-1.175, -1.237e-6
-1.174, -1.289e-6
-1.173, -1.237e-6
-1.172, -1.236e-6
-1.171, -1.286e-6
-1.170, -1.278e-6
-1.169, -1.283e-6
-1.168, -1.282e-6
-1.167, -1.273e-6
-1.166, -1.281e-6
-1.165, -1.311e-6
-1.164, -1.302e-6
-1.163, -1.317e-6
-1.162, -1.291e-6
-1.161, -1.325e-6
-1.160, -1.329e-6
-1.159, -1.357e-6
-1.158, -1.357e-6
-1.157, -1.336e-6
-1.156, -1.343e-6
-1.155, -1.392e-6
-1.154, -1.405e-6
-1.153, -1.397e-6
-1.152, -1.411e-6
-1.151, -1.409e-6
-1.150, -1.456e-6
-1.149, -1.458e-6
-1.148, -1.447e-6
-1.147, -1.438e-6
-1.146, -1.457e-6
-1.145, -1.468e-6
-1.144, -1.486e-6
-1.143, -1.485e-6
-1.142, -1.482e-6
-1.141, -1.524e-6
-1.140, -1.542e-6
-1.139, -1.557e-6
-1.138, -1.544e-6
-1.137, -1.539e-6
-1.136, -1.568e-6
-1.135, -1.590e-6
-1.134, -1.614e-6
-1.133, -1.596e-6
-1.132, -1.629e-6
-1.131, -1.617e-6
-1.130, -1.650e-6
-1.129, -1.688e-6
-1.128, -1.684e-6
-1.127, -1.684e-6
-1.126, -1.732e-6
-1.125, -1.729e-6
-1.124, -1.776e-6
-1.123, -1.769e-6
-1.122, -1.778e-6
-1.121, -1.791e-6
-1.120, -1.834e-6
-1.119, -1.833e-6
-1.118, -1.834e-6
-1.117, -1.844e-6
-1.116, -1.861e-6
-1.115, -1.911e-6
-1.114, -1.922e-6
-1.113, -1.941e-6
-1.112, -1.934e-6
-1.111, -1.973e-6
-1.110, -1.997e-6
-1.109, -1.994e-6
-1.108, -1.985e-6
-1.107, -2.041e-6
-1.106, -2.047e-6
-1.105, -2.089e-6
-1.104, -2.110e-6
-1.103, -2.122e-6
-1.102, -2.141e-6
-1.101, -2.159e-6
-1.100, -2.190e-6
-1.099, -2.199e-6
-1.098, -2.201e-6
-1.097, -2.214e-6
-1.096, -2.249e-6
-1.095, -2.266e-6
-1.094, -2.307e-6
-1.093, -2.302e-6
-1.092, -2.315e-6
-1.091, -2.341e-6
-1.090, -2.373e-6
-1.089, -2.393e-6
-1.088, -2.407e-6
-1.087, -2.422e-6
-1.086, -2.476e-6
-1.085, -2.470e-6
-1.084, -2.480e-6
-1.083, -2.511e-6
-1.082, -2.491e-6
-1.081, -2.542e-6
-1.080, -2.566e-6
-1.079, -2.603e-6
-1.078, -2.597e-6
-1.077, -2.608e-6
-1.076, -2.644e-6
-1.075, -2.652e-6
-1.074, -2.712e-6
-1.073, -2.713e-6
-1.072, -2.669e-6
-1.071, -2.722e-6
-1.070, -2.722e-6
-1.069, -2.749e-6
-1.068, -2.784e-6
-1.067, -2.759e-6
-1.066, -2.803e-6
-1.065, -2.845e-6
-1.064, -2.834e-6
-1.063, -2.853e-6
-1.062, -2.886e-6
-1.061, -2.903e-6
-1.060, -2.913e-6
-1.059, -2.931e-6
-1.058, -2.963e-6
-1.057, -2.925e-6
-1.056, -2.982e-6
-1.055, -3.025e-6
-1.054, -3.002e-6
-1.053, -3.039e-6
-1.052, -3.029e-6
-1.051, -3.036e-6
-1.050, -3.105e-6
-1.049, -3.083e-6
-1.048, -3.071e-6
-1.047, -3.111e-6
-1.046, -3.108e-6
-1.045, -3.141e-6
-1.044, -3.128e-6
-1.043, -3.136e-6
-1.042, -3.129e-6
-1.041, -3.187e-6
-1.040, -3.172e-6
-1.039, -3.163e-6
-1.038, -3.215e-6
-1.037, -3.192e-6
-1.036, -3.208e-6
-1.035, -3.221e-6
-1.034, -3.228e-6
-1.033, -3.215e-6
-1.032, -3.206e-6
-1.031, -3.208e-6
-1.030, -3.225e-6
-1.029, -3.259e-6
-1.028, -3.227e-6
-1.027, -3.208e-6
-1.026, -3.255e-6
-1.025, -3.253e-6
-1.024, -3.260e-6
-1.023, -3.265e-6
-1.022, -3.205e-6
-1.021, -3.241e-6
-1.020, -3.245e-6
-1.019, -3.254e-6
-1.018, -3.234e-6
-1.017, -3.233e-6
-1.016, -3.226e-6
-1.015, -3.227e-6
-1.014, -3.244e-6
-1.013, -3.206e-6
-1.012, -3.168e-6
-1.011, -3.210e-6
-1.010, -3.202e-6
-1.009, -3.187e-6
-1.008, -3.213e-6
-1.007, -3.173e-6
-1.006, -3.183e-6
-1.005, -3.224e-6
-1.004, -3.182e-6
-1.003, -3.185e-6
-1.002, -3.171e-6
-1.001, -3.168e-6
-1.000, -2.971e-6
-1.001, -2.718e-6
-1.002, -2.522e-6
-1.003, -2.347e-6
-1.004, -2.220e-6
-1.005, -2.079e-6
-1.006, -1.963e-6
-1.007, -1.846e-6
-1.008, -1.757e-6
-1.009, -1.664e-6
-1.010, -1.590e-6
-1.011, -1.483e-6
-1.012, -1.418e-6
-1.013, -1.325e-6
-1.014, -1.240e-6
-1.015, -1.218e-6
-1.016, -1.139e-6
-1.017, -1.071e-6
-1.018, -1.008e-6
-1.019, -9.838e-7
-1.020, -9.335e-7
-1.021, -8.793e-7
-1.022, -8.289e-7
-1.023, -7.845e-7
-1.024, -7.046e-7
-1.025, -7.105e-7
-1.026, -6.869e-7
-1.027, -6.070e-7
-1.028, -5.931e-7
-1.029, -5.576e-7
-1.030, -5.330e-7
-1.031, -5.409e-7
-1.032, -4.826e-7
-1.033, -4.027e-7
-1.034, -4.126e-7
-1.035, -3.899e-7
-1.036, -3.702e-7
-1.037, -3.386e-7
-1.038, -2.932e-7
-1.039, -2.883e-7
-1.040, -2.597e-7
-1.041, -2.370e-7
-1.042, -2.212e-7
-1.043, -1.847e-7
-1.044, -1.472e-7
-1.045, -1.452e-7
-1.046, -1.285e-7
-1.047, -9.392e-8
-1.048, -8.011e-8
-1.049, -8.800e-8
-1.050, -5.545e-8
-1.051, -4.361e-8
-1.052, -3.275e-8
-1.053, -2.171e-9
-1.054, 4.736e-9
-1.055, 1.460e-8
-1.056, 3.729e-8
-1.057, 5.703e-8
-1.058, 5.998e-8
-1.059, 6.689e-8
-1.060, 1.004e-7
-1.061, 1.054e-7
-1.062, 1.044e-7
-1.063, 1.616e-7
-1.064, 1.281e-7
-1.065, 1.488e-7
-1.066, 1.379e-7
-1.067, 1.744e-7
-1.068, 1.951e-7
-1.069, 1.853e-7
-1.070, 2.099e-7
-1.071, 2.159e-7
-1.072, 2.297e-7
-1.073, 2.484e-7
-1.074, 2.751e-7
-1.075, 2.672e-7
-1.076, 2.948e-7
-1.077, 3.126e-7
-1.078, 3.086e-7
-1.079, 3.195e-7
-1.080, 3.264e-7
-1.081, 3.333e-7
-1.082, 3.570e-7
-1.083, 3.481e-7
-1.084, 3.560e-7
-1.085, 3.560e-7
-1.086, 3.727e-7
-1.087, 3.895e-7
-1.088, 4.280e-7
-1.089, 4.013e-7
-1.090, 3.994e-7
-1.091, 4.083e-7
-1.092, 4.438e-7
-1.093, 4.408e-7
-1.094, 4.290e-7
-1.095, 4.744e-7
-1.096, 4.339e-7
-1.097, 4.655e-7
-1.098, 4.882e-7
-1.099, 4.625e-7
-1.100, 4.941e-7
-1.101, 5.059e-7
-1.102, 4.980e-7
-1.103, 5.266e-7
-1.104, 5.405e-7
-1.105, 5.040e-7
-1.106, 5.336e-7
-1.107, 5.592e-7
-1.108, 5.513e-7
-1.109, 5.503e-7
-1.110, 5.316e-7
-1.111, 5.375e-7
-1.112, 5.868e-7
-1.113, 5.898e-7
-1.114, 5.908e-7
-1.115, 5.720e-7
-1.116, 5.819e-7
-1.117, 6.095e-7
-1.118, 6.253e-7
-1.119, 6.135e-7
-1.120, 5.957e-7
-1.121, 6.283e-7
-1.122, 6.164e-7
-1.123, 6.302e-7
-1.124, 6.519e-7
-1.125, 6.529e-7
-1.126, 6.559e-7
-1.127, 6.766e-7
-1.128, 6.954e-7
-1.129, 6.510e-7
-1.130, 6.806e-7
-1.131, 6.944e-7
-1.132, 6.973e-7
-1.133, 7.289e-7
-1.134, 6.973e-7
-1.135, 6.914e-7
-1.136, 7.092e-7
-1.137, 7.496e-7
-1.138, 7.348e-7
-1.139, 7.644e-7
-1.140, 7.417e-7
-1.141, 7.427e-7
-1.142, 7.684e-7
-1.143, 7.733e-7
-1.144, 7.664e-7
-1.145, 7.664e-7
-1.146, 7.763e-7
-1.147, 7.536e-7
-1.148, 7.999e-7
-1.149, 8.019e-7
-1.150, 7.851e-7
-1.151, 7.871e-7
-1.152, 8.226e-7
-1.153, 8.414e-7
-1.154, 8.049e-7
-1.155, 8.394e-7
-1.156, 8.137e-7
-1.157, 8.502e-7
-1.158, 8.374e-7
-1.159, 8.354e-7
-1.160, 8.502e-7
-1.161, 8.433e-7
-1.162, 8.650e-7
-1.163, 8.739e-7
-1.164, 8.798e-7
-1.165, 8.710e-7
-1.166, 8.946e-7
-1.167, 8.986e-7
-1.168, 8.789e-7
-1.169, 8.887e-7
-1.170, 8.946e-7
-1.171, 8.828e-7
-1.172, 9.094e-7
-1.173, 9.341e-7
-1.174, 8.769e-7
-1.175, 9.223e-7
-1.176, 9.321e-7
-1.177, 9.341e-7
-1.178, 9.884e-7
-1.179, 9.361e-7
-1.180, 9.262e-7
-1.181, 9.627e-7
-1.182, 9.726e-7
-1.183, 9.815e-7
-1.184, 9.884e-7
-1.185, 9.598e-7
-1.186, 9.716e-7
-1.187, 1.008e-6
-1.188, 9.923e-7
-1.189, 9.726e-7
-1.190, 9.943e-7
-1.191, 9.874e-7
-1.192, 1.034e-6
-1.193, 1.021e-6
-1.194, 1.015e-6
-1.195, 1.001e-6
-1.196, 1.024e-6
-1.197, 1.009e-6
-1.198, 1.047e-6
-1.199, 1.045e-6
-1.200, 1.019e-6
-1.201, 1.025e-6
-1.202, 1.067e-6
-1.203, 1.052e-6
-1.204, 1.075e-6
-1.205, 1.065e-6
-1.206, 1.074e-6
-1.207, 1.105e-6
-1.208, 1.077e-6
-1.209, 1.092e-6
-1.210, 1.065e-6
-1.211, 1.100e-6
-1.212, 1.118e-6
-1.213, 1.118e-6
-1.214, 1.088e-6
-1.215, 1.105e-6
-1.216, 1.129e-6
-1.217, 1.157e-6
-1.218, 1.138e-6
-1.219, 1.141e-6
-1.220, 1.166e-6
-1.221, 1.124e-6
-1.222, 1.137e-6
-1.223, 1.176e-6
-1.224, 1.126e-6
-1.225, 1.185e-6
-1.226, 1.178e-6
-1.227, 1.197e-6
-1.228, 1.217e-6
-1.229, 1.180e-6
-1.230, 1.187e-6
-1.231, 1.196e-6
-1.232, 1.232e-6
-1.233, 1.208e-6
-1.234, 1.212e-6
-1.235, 1.234e-6
-1.236, 1.225e-6
-1.237, 1.230e-6
-1.238, 1.273e-6
-1.239, 1.251e-6
-1.240, 1.232e-6
-1.241, 1.267e-6
-1.242, 1.278e-6
-1.243, 1.257e-6
-1.244, 1.303e-6
-1.245, 1.261e-6
-1.246, 1.277e-6
-1.247, 1.302e-6
-1.248, 1.317e-6
-1.249, 1.308e-6
-1.250, 1.294e-6
-1.251, 1.288e-6
-1.252, 1.313e-6
-1.253, 1.342e-6
-1.254, 1.294e-6
-1.255, 1.332e-6
-1.256, 1.354e-6
-1.257, 1.331e-6
-1.258, 1.359e-6
-1.259, 1.358e-6
-1.260, 1.341e-6
-1.261, 1.383e-6
-1.262, 1.408e-6
-1.263, 1.391e-6
-1.264, 1.405e-6
-1.265, 1.386e-6
-1.266, 1.379e-6
-1.267, 1.412e-6
-1.268, 1.419e-6
-1.269, 1.408e-6
-1.270, 1.428e-6
-1.271, 1.404e-6
-1.272, 1.449e-6
-1.273, 1.444e-6
-1.274, 1.445e-6
-1.275, 1.455e-6
-1.276, 1.452e-6
-1.277, 1.483e-6
-1.278, 1.459e-6
-1.279, 1.466e-6
-1.280, 1.482e-6
-1.281, 1.477e-6
-1.282, 1.490e-6
-1.283, 1.505e-6
-1.284, 1.500e-6
-1.285, 1.508e-6
-1.286, 1.531e-6
-1.287, 1.557e-6
-1.288, 1.562e-6
-1.289, 1.511e-6
-1.290, 1.532e-6
-1.291, 1.564e-6
-1.292, 1.546e-6
-1.293, 1.570e-6
-1.294, 1.576e-6
-1.295, 1.565e-6
-1.296, 1.580e-6
-1.297, 1.618e-6
-1.298, 1.611e-6
-1.299, 1.606e-6
-1.300, 1.606e-6
-1.301, 1.599e-6
-1.302, 1.641e-6
-1.303, 1.653e-6
-1.304, 1.639e-6
-1.305, 1.637e-6
-1.306, 1.664e-6
-1.307, 1.671e-6
-1.308, 1.713e-6
-1.309, 1.664e-6
-1.310, 1.674e-6
-1.311, 1.676e-6
-1.312, 1.739e-6
-1.313, 1.707e-6
-1.314, 1.731e-6
-1.315, 1.723e-6
-1.316, 1.709e-6
-1.317, 1.733e-6
-1.318, 1.774e-6
-1.319, 1.740e-6
-1.320, 1.756e-6
-1.321, 1.735e-6
-1.322, 1.791e-6
-1.323, 1.778e-6
-1.324, 1.769e-6
-1.325, 1.788e-6
-1.326, 1.818e-6
-1.327, 1.847e-6
-1.328, 1.783e-6
-1.329, 1.819e-6
-1.330, 1.814e-6
-1.331, 1.829e-6
-1.332, 1.855e-6
-1.333, 1.843e-6
-1.334, 1.847e-6
-1.335, 1.873e-6
-1.336, 1.859e-6
-1.337, 1.903e-6
-1.338, 1.895e-6
-1.339, 1.868e-6
-1.340, 1.888e-6
-1.341, 1.896e-6
-1.342, 1.924e-6
-1.343, 1.933e-6
-1.344, 1.958e-6
-1.345, 1.953e-6
-1.346, 1.967e-6
-1.347, 1.984e-6
-1.348, 1.972e-6
-1.349, 1.963e-6
-1.350, 1.974e-6
-1.351, 1.970e-6
-1.352, 2.003e-6
-1.353, 2.027e-6
-1.354, 2.006e-6
-1.355, 1.997e-6
-1.356, 2.024e-6
-1.357, 2.046e-6
-1.358, 2.068e-6
-1.359, 2.026e-6
-1.360, 2.043e-6
-1.361, 2.065e-6
-1.362, 2.120e-6
-1.363, 2.110e-6
-1.364, 2.100e-6
-1.365, 2.102e-6
-1.366, 2.086e-6
-1.367, 2.115e-6
-1.368, 2.120e-6
-1.369, 2.118e-6
-1.370, 2.125e-6
-1.371, 2.159e-6
-1.372, 2.170e-6
-1.373, 2.158e-6
-1.374, 2.157e-6
-1.375, 2.128e-6
-1.376, 2.178e-6
-1.377, 2.204e-6
-1.378, 2.165e-6
-1.379, 2.222e-6
-1.380, 2.229e-6
-1.381, 2.203e-6
-1.382, 2.229e-6
-1.383, 2.246e-6
-1.384, 2.225e-6
-1.385, 2.228e-6
-1.386, 2.238e-6
-1.387, 2.264e-6
-1.388, 2.292e-6
-1.389, 2.289e-6
-1.390, 2.266e-6
-1.391, 2.295e-6
-1.392, 2.327e-6
-1.393, 2.327e-6
-1.394, 2.316e-6
-1.395, 2.333e-6
-1.396, 2.338e-6
-1.397, 2.362e-6
-1.398, 2.369e-6
-1.399, 2.366e-6
-1.400, 2.373e-6
-1.401, 2.402e-6
-1.402, 2.415e-6
-1.403, 2.402e-6
-1.404, 2.426e-6
-1.405, 2.403e-6
-1.406, 2.427e-6
-1.407, 2.465e-6
-1.408, 2.482e-6
-1.409, 2.477e-6
-1.410, 2.476e-6
-1.411, 2.495e-6
-1.412, 2.499e-6
-1.413, 2.524e-6
-1.414, 2.505e-6
-1.415, 2.501e-6
-1.416, 2.552e-6
-1.417, 2.558e-6
-1.418, 2.550e-6
-1.419, 2.563e-6
-1.420, 2.544e-6
-1.421, 2.598e-6
-1.422, 2.622e-6
-1.423, 2.613e-6
-1.424, 2.631e-6
-1.425, 2.631e-6
-1.426, 2.620e-6
-1.427, 2.672e-6
-1.428, 2.672e-6
-1.429, 2.671e-6
-1.430, 2.663e-6
-1.431, 2.727e-6
-1.432, 2.727e-6
-1.433, 2.746e-6
-1.434, 2.745e-6
-1.435, 2.725e-6
-1.436, 2.766e-6
-1.437, 2.782e-6
-1.438, 2.798e-6
-1.439, 2.796e-6
-1.440, 2.798e-6
-1.441, 2.812e-6
-1.442, 2.873e-6
-1.443, 2.844e-6
-1.444, 2.862e-6
-1.445, 2.856e-6
-1.446, 2.902e-6
-1.447, 2.888e-6
-1.448, 2.917e-6
-1.449, 2.938e-6
-1.450, 2.919e-6
-1.451, 2.950e-6
-1.452, 2.971e-6
-1.453, 2.964e-6
-1.454, 2.988e-6
-1.455, 2.984e-6
-1.456, 3.004e-6
-1.457, 3.049e-6
-1.458, 3.042e-6
-1.459, 3.045e-6
-1.460, 3.077e-6
-1.461, 3.071e-6
-1.462, 3.126e-6
-1.463, 3.145e-6
-1.464, 3.118e-6
-1.465, 3.129e-6
-1.466, 3.170e-6
-1.467, 3.187e-6
-1.468, 3.180e-6
-1.469, 3.190e-6
-1.470, 3.191e-6
-1.471, 3.242e-6
-1.472, 3.268e-6
-1.473, 3.306e-6
-1.474, 3.309e-6
-1.475, 3.320e-6
-1.476, 3.328e-6
-1.477, 3.358e-6
-1.478, 3.369e-6
-1.479, 3.360e-6
-1.480, 3.387e-6
-1.481, 3.419e-6
-1.482, 3.450e-6
-1.483, 3.459e-6
-1.484, 3.482e-6
-1.485, 3.470e-6
-1.486, 3.507e-6
-1.487, 3.569e-6
-1.488, 3.539e-6
-1.489, 3.561e-6
-1.490, 3.584e-6
-1.491, 3.584e-6
-1.492, 3.638e-6
-1.493, 3.639e-6
-1.494, 3.665e-6
-1.495, 3.675e-6
-1.496, 3.702e-6
-1.497, 3.723e-6
-1.498, 3.762e-6
-1.499, 3.756e-6
-1.500, 3.754e-6
-1.501, 3.809e-6
-1.502, 3.850e-6
-1.503, 3.855e-6
-1.504, 3.896e-6
-1.505, 3.883e-6
-1.506, 3.912e-6
-1.507, 3.957e-6
-1.508, 3.980e-6
-1.509, 3.966e-6
-1.510, 3.992e-6
-1.511, 4.010e-6
-1.512, 4.071e-6
-1.513, 4.091e-6
-1.514, 4.111e-6
-1.515, 4.127e-6
-1.516, 4.146e-6
-1.517, 4.214e-6
-1.518, 4.210e-6
-1.519, 4.275e-6
-1.520, 4.266e-6
-1.521, 4.275e-6
-1.522, 4.362e-6
-1.523, 4.344e-6
-1.524, 4.371e-6
-1.525, 4.380e-6
-1.526, 4.438e-6
-1.527, 4.477e-6
-1.528, 4.515e-6
-1.529, 4.501e-6
-1.530, 4.527e-6
-1.531, 4.570e-6
-1.532, 4.636e-6
-1.533, 4.648e-6
-1.534, 4.655e-6
-1.535, 4.677e-6
-1.536, 4.711e-6
-1.537, 4.792e-6
-1.538, 4.792e-6
-1.539, 4.806e-6
-1.540, 4.863e-6
-1.541, 4.874e-6
-1.542, 4.920e-6
-1.543, 4.985e-6
-1.544, 4.976e-6
-1.545, 5.033e-6
-1.546, 5.072e-6
-1.547, 5.131e-6
-1.548, 5.154e-6
-1.549, 5.212e-6
-1.550, 5.154e-6
-1.551, 5.242e-6
-1.552, 5.294e-6
-1.553, 5.365e-6
-1.554, 5.339e-6
-1.555, 5.395e-6
-1.556, 5.448e-6
-1.557, 5.512e-6
-1.558, 5.547e-6
-1.559, 5.591e-6
-1.560, 5.627e-6
-1.561, 5.674e-6
-1.562, 5.734e-6
-1.563, 5.744e-6
-1.564, 5.815e-6
-1.565, 5.837e-6
-1.566, 5.896e-6
-1.567, 5.993e-6
-1.568, 6.016e-6
-1.569, 6.052e-6
-1.570, 6.109e-6
-1.571, 6.129e-6
-1.572, 6.223e-6
-1.573, 6.290e-6
-1.574, 6.280e-6
-1.575, 6.366e-6
-1.576, 6.407e-6
-1.577, 6.479e-6
-1.578, 6.565e-6
-1.579, 6.599e-6
-1.580, 6.644e-6
-1.581, 6.730e-6
-1.582, 6.825e-6
-1.583, 6.842e-6
-1.584, 6.886e-6
-1.585, 6.964e-6
-1.586, 7.036e-6
-1.587, 7.144e-6
-1.588, 7.210e-6
-1.589, 7.252e-6
-1.590, 7.323e-6
-1.591, 7.413e-6
-1.592, 7.487e-6
-1.593, 7.584e-6
-1.594, 7.645e-6
-1.595, 7.696e-6
-1.596, 7.815e-6
-1.597, 7.936e-6
-1.598, 7.993e-6
-1.599, 8.045e-6
-1.600, 8.133e-6
-1.601, 8.248e-6
-1.602, 8.372e-6
-1.603, 8.449e-6
-1.604, 8.505e-6
-1.605, 8.608e-6
-1.606, 8.738e-6
-1.607, 8.843e-6
-1.608, 8.928e-6
-1.609, 9.072e-6
-1.610, 9.128e-6
-1.611, 9.269e-6
-1.612, 9.392e-6
-1.613, 9.494e-6
-1.614, 9.612e-6
-1.615, 9.731e-6
-1.616, 9.836e-6
-1.617, 9.989e-6
-1.618, 1.014e-5
-1.619, 1.024e-5
-1.620, 1.038e-5
-1.621, 1.053e-5
-1.622, 1.068e-5
-1.623, 1.081e-5
-1.624, 1.096e-5
-1.625, 1.107e-5
-1.626, 1.126e-5
-1.627, 1.146e-5
-1.628, 1.163e-5
-1.629, 1.175e-5
-1.630, 1.194e-5
-1.631, 1.213e-5
-1.632, 1.233e-5
-1.633, 1.250e-5
-1.634, 1.268e-5
-1.635, 1.283e-5
-1.636, 1.307e-5
-1.637, 1.329e-5
-1.638, 1.354e-5
-1.639, 1.375e-5
-1.640, 1.392e-5
-1.641, 1.415e-5
-1.642, 1.444e-5
-1.643, 1.464e-5
-1.644, 1.488e-5
-1.645, 1.510e-5
-1.646, 1.537e-5
-1.647, 1.570e-5
-1.648, 1.598e-5
-1.649, 1.621e-5
-1.650, 1.648e-5
-1.651, 1.678e-5
-1.652, 1.715e-5
-1.653, 1.741e-5
-1.654, 1.770e-5
-1.655, 1.803e-5
-1.656, 1.838e-5
-1.657, 1.875e-5
-1.658, 1.911e-5
-1.659, 1.940e-5
-1.660, 1.980e-5
-1.661, 2.023e-5
-1.662, 2.063e-5
-1.663, 2.104e-5
-1.664, 2.144e-5
-1.665, 2.182e-5
-1.666, 2.233e-5
-1.667, 2.277e-5
-1.668, 2.324e-5
-1.669, 2.371e-5
-1.670, 2.422e-5
-1.671, 2.470e-5
-1.672, 2.528e-5
-1.673, 2.582e-5
-1.674, 2.634e-5
-1.675, 2.688e-5
-1.676, 2.751e-5
-1.677, 2.814e-5
-1.678, 2.879e-5
-1.679, 2.943e-5
-1.680, 3.001e-5
-1.681, 3.074e-5
-1.682, 3.151e-5
-1.683, 3.220e-5
-1.684, 3.296e-5
-1.685, 3.368e-5
-1.686, 3.449e-5
-1.687, 3.538e-5
-1.688, 3.621e-5
-1.689, 3.705e-5
-1.690, 3.794e-5
-1.691, 3.888e-5
-1.692, 3.989e-5
-1.693, 4.084e-5
-1.694, 4.189e-5
-1.695, 4.288e-5
-1.696, 4.397e-5
-1.697, 4.518e-5
-1.698, 4.631e-5
-1.699, 4.747e-5
-1.700, 4.870e-5
-1.701, 4.995e-5
-1.702, 5.130e-5
-1.703, 5.269e-5
-1.704, 5.400e-5
-1.705, 5.544e-5
-1.706, 5.698e-5
-1.707, 5.856e-5
-1.708, 6.014e-5
-1.709, 6.177e-5
-1.710, 6.345e-5
-1.711, 6.521e-5
-1.712, 6.706e-5
-1.713, 6.895e-5
-1.714, 7.083e-5
-1.715, 7.282e-5
-1.716, 7.493e-5
-1.717, 7.709e-5
-1.718, 7.932e-5
-1.719, 8.158e-5
-1.720, 8.387e-5
-1.721, 8.636e-5
-1.722, 8.895e-5
-1.723, 9.152e-5
-1.724, 9.421e-5
-1.725, 9.694e-5
-1.726, 9.985e-5
-1.727, 1.029e-4
-1.728, 1.060e-4
-1.729, 1.091e-4
-1.730, 1.124e-4
-1.731, 1.158e-4
-1.732, 1.194e-4
-1.733, 1.230e-4
-1.734, 1.268e-4
-1.735, 1.306e-4
-1.736, 1.347e-4
-1.737, 1.389e-4
-1.738, 1.432e-4
-1.739, 1.476e-4
-1.740, 1.522e-4
-1.741, 1.570e-4
-1.742, 1.620e-4
-1.743, 1.671e-4
-1.744, 1.723e-4
-1.745, 1.776e-4
-1.746, 1.833e-4
-1.747, 1.892e-4
-1.748, 1.952e-4
-1.749, 2.013e-4
-1.750, 2.077e-4
-1.751, 2.143e-4
-1.752, 2.212e-4
-1.753, 2.283e-4
-1.754, 2.355e-4
-1.755, 2.430e-4
-1.756, 2.508e-4
-1.757, 2.589e-4
-1.758, 2.672e-4
-1.759, 2.757e-4
-1.760, 2.844e-4
-1.761, 2.935e-4
-1.762, 3.030e-4
-1.763, 3.127e-4
-1.764, 3.226e-4
-1.765, 3.328e-4
-1.766, 3.435e-4
-1.767, 3.545e-4
-1.768, 3.657e-4
-1.769, 3.773e-4
-1.770, 3.892e-4
-1.771, 4.015e-4
-1.772, 4.144e-4
-1.773, 4.275e-4
-1.774, 4.408e-4
-1.775, 4.545e-4
-1.776, 4.687e-4
-1.777, 4.835e-4
-1.778, 4.986e-4
-1.779, 5.141e-4
-1.780, 5.299e-4
-1.781, 5.463e-4
-1.782, 5.633e-4
-1.783, 5.807e-4
-1.784, 5.983e-4
-1.785, 6.165e-4
-1.786, 6.352e-4
-1.787, 6.545e-4
-1.788, 6.742e-4
-1.789, 6.943e-4
-1.790, 7.150e-4
-1.791, 7.365e-4
-1.792, 7.587e-4
-1.793, 7.812e-4
-1.794, 8.040e-4
-1.795, 8.272e-4
-1.796, 8.513e-4
-1.797, 8.759e-4
-1.798, 9.011e-4
-1.799, 9.268e-4
-1.800, 9.407e-4
-1.799, 9.392e-4
-1.798, 9.358e-4
-1.797, 9.311e-4
-1.796, 9.249e-4
-1.795, 9.179e-4
-1.794, 9.105e-4
-1.793, 9.025e-4
-1.792, 8.938e-4
-1.791, 8.845e-4
-1.790, 8.749e-4
-1.789, 8.653e-4
-1.788, 8.557e-4
-1.787, 8.456e-4
-1.786, 8.351e-4
-1.785, 8.241e-4
-1.784, 8.133e-4
-1.783, 8.027e-4
-1.782, 7.919e-4
-1.781, 7.809e-4
-1.780, 7.698e-4
-1.779, 7.590e-4
-1.778, 7.481e-4
-1.777, 7.370e-4
-1.776, 7.260e-4
-1.775, 7.148e-4
-1.774, 7.038e-4
-1.773, 6.930e-4
-1.772, 6.822e-4
-1.771, 6.712e-4
-1.770, 6.602e-4
-1.769, 6.494e-4
-1.768, 6.389e-4
-1.767, 6.283e-4
-1.766, 6.177e-4
-1.765, 6.071e-4
-1.764, 5.966e-4
-1.763, 5.864e-4
-1.762, 5.762e-4
-1.761, 5.660e-4
-1.760, 5.560e-4
-1.759, 5.463e-4
-1.758, 5.367e-4
-1.757, 5.271e-4
-1.756, 5.174e-4
-1.755, 5.079e-4
-1.754, 4.986e-4
-1.753, 4.895e-4
-1.752, 4.805e-4
-1.751, 4.714e-4
-1.750, 4.625e-4
-1.749, 4.539e-4
-1.748, 4.454e-4
-1.747, 4.369e-4
-1.746, 4.284e-4
-1.745, 4.201e-4
-1.744, 4.120e-4
-1.743, 4.041e-4
-1.742, 3.962e-4
-1.741, 3.883e-4
-1.740, 3.806e-4
-1.739, 3.730e-4
-1.738, 3.656e-4
-1.737, 3.583e-4
-1.736, 3.510e-4
-1.735, 3.438e-4
-1.734, 3.369e-4
-1.733, 3.301e-4
-1.732, 3.235e-4
-1.731, 3.167e-4
-1.730, 3.101e-4
-1.729, 3.037e-4
-1.728, 2.975e-4
-1.727, 2.913e-4
-1.726, 2.851e-4
-1.725, 2.792e-4
-1.724, 2.733e-4
-1.723, 2.677e-4
-1.722, 2.620e-4
-1.721, 2.564e-4
-1.720, 2.509e-4
-1.719, 2.456e-4
-1.718, 2.405e-4
-1.717, 2.353e-4
-1.716, 2.302e-4
-1.715, 2.251e-4
-1.714, 2.203e-4
-1.713, 2.156e-4
-1.712, 2.110e-4
-1.711, 2.063e-4
-1.710, 2.018e-4
-1.709, 1.974e-4
-1.708, 1.931e-4
-1.707, 1.889e-4
-1.706, 1.847e-4
-1.705, 1.806e-4
-1.704, 1.766e-4
-1.703, 1.728e-4
-1.702, 1.689e-4
-1.701, 1.651e-4
-1.700, 1.614e-4
-1.699, 1.578e-4
-1.698, 1.544e-4
-1.697, 1.509e-4
-1.696, 1.475e-4
-1.695, 1.441e-4
-1.694, 1.409e-4
-1.693, 1.379e-4
-1.692, 1.347e-4
-1.691, 1.317e-4
-1.690, 1.286e-4
-1.689, 1.258e-4
-1.688, 1.230e-4
-1.687, 1.202e-4
-1.686, 1.174e-4
-1.685, 1.147e-4
-1.684, 1.122e-4
-1.683, 1.097e-4
-1.682, 1.072e-4
-1.681, 1.047e-4
-1.680, 1.023e-4
-1.679, 9.995e-5
-1.678, 9.772e-5
-1.677, 9.551e-5
-1.676, 9.327e-5
-1.675, 9.110e-5
-1.674, 8.911e-5
-1.673, 8.708e-5
-1.672, 8.510e-5
-1.671, 8.312e-5
-1.670, 8.115e-5
-1.669, 7.932e-5
-1.668, 7.757e-5
-1.667, 7.578e-5
-1.666, 7.398e-5
-1.665, 7.229e-5
-1.664, 7.064e-5
-1.663, 6.906e-5
-1.662, 6.746e-5
-1.661, 6.587e-5
-1.660, 6.430e-5
-1.659, 6.283e-5
-1.658, 6.144e-5
-1.657, 6.001e-5
-1.656, 5.862e-5
-1.655, 5.728e-5
-1.654, 5.597e-5
-1.653, 5.478e-5
-1.652, 5.349e-5
-1.651, 5.225e-5
-1.650, 5.104e-5
-1.649, 4.990e-5
-1.648, 4.878e-5
-1.647, 4.769e-5
-1.646, 4.654e-5
-1.645, 4.548e-5
-1.644, 4.446e-5
-1.643, 4.354e-5
-1.642, 4.254e-5
-1.641, 4.154e-5
-1.640, 4.061e-5
-1.639, 3.968e-5
-1.638, 3.882e-5
-1.637, 3.790e-5
-1.636, 3.704e-5
-1.635, 3.621e-5
-1.634, 3.543e-5
-1.633, 3.465e-5
-1.632, 3.389e-5
-1.631, 3.309e-5
-1.630, 3.236e-5
-1.629, 3.167e-5
-1.628, 3.098e-5
-1.627, 3.028e-5
-1.626, 2.961e-5
-1.625, 2.894e-5
-1.624, 2.834e-5
-1.623, 2.775e-5
-1.622, 2.711e-5
-1.621, 2.648e-5
-1.620, 2.590e-5
-1.619, 2.535e-5
-1.618, 2.484e-5
-1.617, 2.430e-5
-1.616, 2.375e-5
-1.615, 2.321e-5
-1.614, 2.273e-5
-1.613, 2.227e-5
-1.612, 2.171e-5
-1.611, 2.126e-5
-1.610, 2.078e-5
-1.609, 2.035e-5
-1.608, 1.994e-5
-1.607, 1.949e-5
-1.606, 1.908e-5
-1.605, 1.866e-5
-1.604, 1.827e-5
-1.603, 1.790e-5
-1.602, 1.752e-5
-1.601, 1.712e-5
-1.600, 1.675e-5
-1.599, 1.642e-5
-1.598, 1.610e-5
-1.597, 1.575e-5
-1.596, 1.538e-5
-1.595, 1.504e-5
-1.594, 1.475e-5
-1.593, 1.449e-5
-1.592, 1.415e-5
-1.591, 1.382e-5
-1.590, 1.354e-5
-1.589, 1.329e-5
-1.588, 1.304e-5
-1.587, 1.274e-5
-1.586, 1.246e-5
-1.585, 1.218e-5
-1.584, 1.195e-5
-1.583, 1.174e-5
-1.582, 1.149e-5
-1.581, 1.124e-5
-1.580, 1.100e-5
-1.579, 1.079e-5
-1.578, 1.057e-5
-1.577, 1.036e-5
-1.576, 1.010e-5
-1.575, 9.921e-6
-1.574, 9.720e-6
-1.573, 9.537e-6
-1.572, 9.348e-6
-1.571, 9.106e-6
-1.570, 8.956e-6
-1.569, 8.739e-6
-1.568, 8.630e-6
-1.567, 8.422e-6
-1.566, 8.230e-6
-1.565, 8.033e-6
-1.564, 7.937e-6
-1.563, 7.784e-6
-1.562, 7.621e-6
-1.561, 7.436e-6
-1.560, 7.271e-6
-1.559, 7.140e-6
-1.558, 7.030e-6
-1.557, 6.860e-6
-1.556, 6.710e-6
-1.555, 6.570e-6
-1.554, 6.456e-6
-1.553, 6.361e-6
-1.552, 6.239e-6
-1.551, 6.063e-6
-1.550, 5.966e-6
-1.549, 5.858e-6
-1.548, 5.743e-6
-1.547, 5.650e-6
-1.546, 5.513e-6
-1.545, 5.373e-6
-1.544, 5.301e-6
-1.543, 5.201e-6
-1.542, 5.071e-6
-1.541, 4.968e-6
-1.540, 4.866e-6
-1.539, 4.780e-6
-1.538, 4.707e-6
-1.537, 4.616e-6
-1.536, 4.474e-6
-1.535, 4.404e-6
-1.534, 4.334e-6
-1.533, 4.258e-6
-1.532, 4.152e-6
-1.531, 4.065e-6
-1.530, 3.964e-6
-1.529, 3.905e-6
-1.528, 3.863e-6
-1.527, 3.776e-6
-1.526, 3.687e-6
-1.525, 3.590e-6
-1.524, 3.522e-6
-1.523, 3.477e-6
-1.522, 3.412e-6
-1.521, 3.312e-6
-1.520, 3.241e-6
-1.519, 3.211e-6
-1.518, 3.121e-6
-1.517, 3.098e-6
-1.516, 3.024e-6
-1.515, 2.915e-6
-1.514, 2.908e-6
-1.513, 2.878e-6
-1.512, 2.784e-6
-1.511, 2.697e-6
-1.510, 2.643e-6
-1.509, 2.624e-6
-1.508, 2.568e-6
-1.507, 2.540e-6
-1.506, 2.434e-6
-1.505, 2.384e-6
-1.504, 2.368e-6
-1.503, 2.305e-6
-1.502, 2.274e-6
-1.501, 2.220e-6
-1.500, 2.166e-6
-1.499, 2.135e-6
-1.498, 2.080e-6
-1.497, 2.067e-6
-1.496, 1.993e-6
-1.495, 1.969e-6
-1.494, 1.910e-6
-1.493, 1.884e-6
-1.492, 1.854e-6
-1.491, 1.793e-6
-1.490, 1.731e-6
-1.489, 1.729e-6
-1.488, 1.695e-6
-1.487, 1.631e-6
-1.486, 1.610e-6
-1.485, 1.566e-6
-1.484, 1.514e-6
-1.483, 1.535e-6
-1.482, 1.456e-6
-1.481, 1.410e-6
-1.480, 1.404e-6
-1.479, 1.383e-6
-1.478, 1.367e-6
-1.477, 1.338e-6
-1.476, 1.278e-6
-1.475, 1.240e-6
-1.474, 1.235e-6
-1.473, 1.215e-6
-1.472, 1.162e-6
-1.471, 1.095e-6
-1.470, 1.086e-6
-1.469, 1.079e-6
-1.468, 1.086e-6
-1.467, 1.037e-6
-1.466, 1.002e-6
-1.465, 9.765e-7
-1.464, 9.736e-7
-1.463, 9.361e-7
-1.462, 9.163e-7
-1.461, 9.075e-7
-1.460, 8.493e-7
-1.459, 8.246e-7
-1.458, 8.443e-7
-1.457, 7.812e-7
-1.456, 7.309e-7
-1.455, 7.161e-7
-1.454, 7.338e-7
-1.453, 7.496e-7
-1.452, 6.766e-7
-1.451, 6.243e-7
-1.450, 6.273e-7
-1.449, 6.342e-7
-1.448, 5.967e-7
-1.447, 5.927e-7
-1.446, 5.612e-7
-1.445, 5.266e-7
-1.444, 5.622e-7
-1.443, 5.375e-7
-1.442, 5.059e-7
-1.441, 4.556e-7
-1.440, 4.536e-7
-1.439, 4.576e-7
-1.438, 4.329e-7
-1.437, 4.369e-7
-1.436, 3.550e-7
-1.435, 3.935e-7
-1.434, 3.698e-7
-1.433, 3.481e-7
-1.432, 3.343e-7
-1.431, 3.135e-7
-1.430, 2.741e-7
-1.429, 2.760e-7
-1.428, 3.066e-7
-1.427, 2.425e-7
-1.426, 2.287e-7
-1.425, 2.257e-7
-1.424, 2.445e-7
-1.423, 2.109e-7
-1.422, 1.902e-7
-1.421, 1.419e-7
-1.420, 1.606e-7
-1.419, 1.547e-7
-1.418, 1.389e-7
-1.417, 1.241e-7
-1.416, 1.024e-7
-1.415, 6.886e-8
-1.414, 8.268e-8
-1.413, 9.353e-8
-1.412, 2.447e-8
-1.411, 8.070e-8
-1.410, 2.644e-8
-1.409, 2.841e-8
-1.408, 4.321e-8
-1.407, 1.362e-8
-1.406, -2.092e-8
-1.405, -1.894e-8
-1.404, -1.105e-8
-1.403, -5.446e-8
-1.402, -6.038e-8
-1.401, -7.123e-8
-1.400, -8.011e-8
-1.399, -7.321e-8
-1.398, -5.150e-8
-1.397, -1.245e-7
-1.396, -1.156e-7
-1.395, -1.521e-7
-1.394, -1.324e-7
-1.393, -1.551e-7
-1.392, -1.442e-7
-1.391, -1.798e-7
-1.390, -1.738e-7
-1.389, -1.511e-7
-1.388, -1.946e-7
-1.387, -1.906e-7
-1.386, -2.222e-7
-1.385, -2.261e-7
-1.384, -2.261e-7
-1.383, -2.064e-7
-1.382, -2.656e-7
-1.381, -2.577e-7
-1.380, -2.725e-7
-1.379, -2.843e-7
-1.378, -2.636e-7
-1.377, -2.853e-7
-1.376, -3.120e-7
-1.375, -3.218e-7
-1.374, -3.031e-7
-1.373, -3.248e-7
-1.372, -3.199e-7
-1.371, -3.159e-7
-1.370, -3.682e-7
-1.369, -3.435e-7
-1.368, -3.406e-7
-1.367, -3.652e-7
-1.366, -3.879e-7
-1.365, -3.919e-7
-1.364, -3.929e-7
-1.363, -3.948e-7
-1.362, -3.860e-7
-1.361, -4.373e-7
-1.360, -4.175e-7
-1.359, -4.116e-7
-1.358, -4.244e-7
-1.357, -4.382e-7
-1.356, -4.481e-7
-1.355, -4.777e-7
-1.354, -4.866e-7
-1.353, -4.481e-7
-1.352, -5.113e-7
-1.351, -5.152e-7
-1.350, -5.004e-7
-1.349, -4.935e-7
-1.348, -4.925e-7
-1.347, -5.083e-7
-1.346, -5.369e-7
-1.345, -5.231e-7
-1.344, -5.191e-7
-1.343, -5.369e-7
-1.342, -5.497e-7
-1.341, -5.497e-7
-1.340, -5.517e-7
-1.339, -5.596e-7
-1.338, -5.704e-7
-1.337, -5.941e-7
-1.336, -5.754e-7
-1.335, -5.862e-7
-1.334, -5.872e-7
-1.333, -5.793e-7
-1.332, -5.813e-7
-1.331, -6.385e-7
-1.330, -6.316e-7
-1.329, -6.119e-7
-1.328, -6.178e-7
-1.327, -6.287e-7
-1.326, -6.514e-7
-1.325, -6.346e-7
-1.324, -6.444e-7
-1.323, -6.435e-7
-1.322, -6.908e-7
-1.321, -6.780e-7
-1.320, -6.760e-7
-1.319, -6.701e-7
-1.318, -6.563e-7
-1.317, -6.879e-7
-1.316, -7.175e-7
-1.315, -6.888e-7
-1.314, -6.760e-7
-1.313, -6.928e-7
-1.312, -7.372e-7
-1.311, -7.184e-7
-1.310, -7.678e-7
-1.309, -7.155e-7
-1.308, -7.036e-7
-1.307, -7.490e-7
-1.306, -7.480e-7
-1.305, -7.638e-7
-1.304, -7.757e-7
-1.303, -7.549e-7
-1.302, -7.461e-7
-1.301, -7.747e-7
-1.300, -7.816e-7
-1.299, -7.905e-7
-1.298, -7.796e-7
-1.297, -7.964e-7
-1.296, -7.954e-7
-1.295, -8.358e-7
-1.294, -7.984e-7
-1.293, -7.796e-7
-1.292, -8.201e-7
-1.291, -8.062e-7
-1.290, -8.141e-7
-1.289, -8.240e-7
-1.288, -8.033e-7
-1.287, -8.309e-7
-1.286, -8.329e-7
-1.285, -8.516e-7
-1.284, -8.506e-7
-1.283, -8.398e-7
-1.282, -8.339e-7
-1.281, -8.654e-7
-1.280, -8.704e-7
-1.279, -8.615e-7
-1.278, -8.358e-7
-1.277, -8.704e-7
-1.276, -8.921e-7
-1.275, -8.812e-7
-1.274, -8.950e-7
-1.273, -8.654e-7
-1.272, -8.871e-7
-1.271, -9.118e-7
-1.270, -9.069e-7
-1.269, -8.842e-7
-1.268, -8.852e-7
-1.267, -9.098e-7
-1.266, -9.010e-7
-1.265, -9.118e-7
-1.264, -9.098e-7
-1.263, -8.931e-7
-1.262, -9.128e-7
-1.261, -9.276e-7
-1.260, -9.207e-7
-1.259, -9.276e-7
-1.258, -9.197e-7
-1.257, -9.237e-7
-1.256, -9.483e-7
-1.255, -9.493e-7
-1.254, -9.207e-7
-1.253, -9.325e-7
-1.252, -9.375e-7
-1.251, -9.296e-7
-1.250, -9.799e-7
-1.249, -9.454e-7
-1.248, -9.532e-7
-1.247, -9.986e-7
-1.246, -9.799e-7
-1.245, -9.898e-7
-1.244, -9.740e-7
-1.243, -9.680e-7
-1.242, -9.759e-7
-1.241, -1.004e-6
-1.240, -9.878e-7
-1.239, -9.592e-7
-1.238, -9.631e-7
-1.237, -1.008e-6
-1.236, -1.011e-6
-1.235, -1.010e-6
-1.234, -9.947e-7
-1.233, -9.690e-7
-1.232, -1.024e-6
-1.231, -1.015e-6
-1.230, -1.008e-6
-1.229, -1.039e-6
-1.228, -1.036e-6
-1.227, -1.022e-6
-1.226, -1.051e-6
-1.225, -1.068e-6
-1.224, -1.025e-6
-1.223, -1.046e-6
-1.222, -1.056e-6
-1.221, -1.043e-6
-1.220, -1.067e-6
-1.219, -1.055e-6
-1.218, -1.052e-6
-1.217, -1.088e-6
-1.216, -1.073e-6
-1.215, -1.068e-6
-1.214, -1.082e-6
-1.213, -1.083e-6
-1.212, -1.061e-6
-1.211, -1.091e-6
-1.210, -1.075e-6
-1.209, -1.071e-6
-1.208, -1.062e-6
-1.207, -1.085e-6
-1.206, -1.113e-6
-1.205, -1.096e-6
-1.204, -1.081e-6
-1.203, -1.106e-6
-1.202, -1.108e-6
-1.201, -1.144e-6
-1.200, -1.130e-6
-1.199, -1.109e-6
-1.198, -1.141e-6
-1.197, -1.136e-6
-1.196, -1.154e-6
-1.195, -1.143e-6
-1.194, -1.118e-6
-1.193, -1.142e-6
-1.192, -1.155e-6
-1.191, -1.161e-6
-1.190, -1.147e-6
-1.189, -1.135e-6
-1.188, -1.169e-6
-1.187, -1.184e-6
-1.186, -1.187e-6
-1.185, -1.178e-6
-1.184, -1.210e-6
-1.183, -1.184e-6
-1.182, -1.226e-6
-1.181, -1.210e-6
-1.180, -1.215e-6
-1.179, -1.187e-6
-1.178, -1.223e-6
-1.177, -1.213e-6
-1.176, -1.259e-6
-1.175, -1.232e-6
-1.174, -1.231e-6
-1.173, -1.246e-6
-1.172, -1.242e-6
-1.171, -1.257e-6
-1.170, -1.272e-6
-1.169, -1.240e-6
-1.168, -1.237e-6
-1.167, -1.300e-6
-1.166, -1.274e-6
-1.165, -1.294e-6
-1.164, -1.281e-6
-1.163, -1.309e-6
-1.162, -1.300e-6
-1.161, -1.326e-6
-1.160, -1.330e-6
-1.159, -1.336e-6
-1.158, -1.356e-6
-1.157, -1.368e-6
-1.156, -1.338e-6
-1.155, -1.353e-6
-1.154, -1.370e-6
-1.153, -1.372e-6
-1.152, -1.408e-6
-1.151, -1.427e-6
-1.150, -1.410e-6
-1.149, -1.396e-6
-1.148, -1.417e-6
-1.147, -1.434e-6
-1.146, -1.461e-6
-1.145, -1.465e-6
-1.144, -1.438e-6
-1.143, -1.466e-6
-1.142, -1.515e-6
-1.141, -1.516e-6
-1.140, -1.518e-6
-1.139, -1.514e-6
-1.138, -1.522e-6
-1.137, -1.547e-6
-1.136, -1.567e-6
-1.135, -1.583e-6
-1.134, -1.582e-6
-1.133, -1.608e-6
-1.132, -1.614e-6
-1.131, -1.624e-6
-1.130, -1.657e-6
-1.129, -1.640e-6
-1.128, -1.661e-6
-1.127, -1.708e-6
-1.126, -1.713e-6
-1.125, -1.732e-6
-1.124, -1.723e-6
-1.123, -1.750e-6
-1.122, -1.752e-6
-1.121, -1.783e-6
-1.120, -1.820e-6
-1.119, -1.789e-6
-1.118, -1.834e-6
-1.117, -1.852e-6
-1.116, -1.858e-6
-1.115, -1.883e-6
-1.114, -1.887e-6
-1.113, -1.902e-6
-1.112, -1.951e-6
-1.111, -1.957e-6
-1.110, -1.965e-6
-1.109, -1.967e-6
-1.108, -1.978e-6
-1.107, -2.017e-6
-1.106, -2.072e-6
-1.105, -2.039e-6
-1.104, -2.065e-6
-1.103, -2.080e-6
-1.102, -2.122e-6
-1.101, -2.157e-6
-1.100, -2.148e-6
-1.099, -2.173e-6
-1.098, -2.183e-6
-1.097, -2.212e-6
-1.096, -2.237e-6
-1.095, -2.241e-6
-1.094, -2.254e-6
-1.093, -2.268e-6
-1.092, -2.281e-6
-1.091, -2.331e-6
-1.090, -2.347e-6
-1.089, -2.349e-6
-1.088, -2.356e-6
-1.087, -2.397e-6
-1.086, -2.411e-6
-1.085, -2.423e-6
-1.084, -2.468e-6
-1.083, -2.470e-6
-1.082, -2.477e-6
-1.081, -2.541e-6
-1.080, -2.511e-6
-1.079, -2.510e-6
-1.078, -2.562e-6
-1.077, -2.564e-6
-1.076, -2.614e-6
-1.075, -2.634e-6
-1.074, -2.614e-6
-1.073, -2.639e-6
-1.072, -2.658e-6
-1.071, -2.652e-6
-1.070, -2.698e-6
-1.069, -2.691e-6
-1.068, -2.742e-6
-1.067, -2.743e-6
-1.066, -2.773e-6
-1.065, -2.786e-6
-1.064, -2.765e-6
-1.063, -2.821e-6
-1.062, -2.843e-6
-1.061, -2.835e-6
-1.060, -2.867e-6
-1.059, -2.863e-6
-1.058, -2.889e-6
-1.057, -2.930e-6
-1.056, -2.916e-6
-1.055, -2.930e-6
-1.054, -2.939e-6
-1.053, -2.950e-6
-1.052, -2.984e-6
-1.051, -2.999e-6
-1.050, -3.011e-6
-1.049, -2.989e-6
-1.048, -3.012e-6
-1.047, -3.019e-6
-1.046, -3.061e-6
-1.045, -3.056e-6
-1.044, -3.069e-6
-1.043, -3.055e-6
-1.042, -3.097e-6
-1.041, -3.097e-6
-1.040, -3.108e-6
-1.039, -3.118e-6
-1.038, -3.124e-6
-1.037, -3.122e-6
-1.036, -3.151e-6
-1.035, -3.139e-6
-1.034, -3.105e-6
-1.033, -3.137e-6
-1.032, -3.139e-6
-1.031, -3.181e-6
-1.030, -3.184e-6
-1.029, -3.162e-6
-1.028, -3.157e-6
-1.027, -3.177e-6
-1.026, -3.167e-6
-1.025, -3.147e-6
-1.024, -3.197e-6
-1.023, -3.192e-6
-1.022, -3.174e-6
-1.021, -3.210e-6
-1.020, -3.216e-6
-1.019, -3.170e-6
-1.018, -3.200e-6
-1.017, -3.200e-6
-1.016, -3.216e-6
-1.015, -3.215e-6
-1.014, -3.171e-6
-1.013, -3.186e-6
-1.012, -3.203e-6
-1.011, -3.211e-6
-1.010, -3.208e-6
-1.009, -3.215e-6
-1.008, -3.208e-6
-1.007, -3.206e-6
-1.006, -3.207e-6
-1.005, -3.234e-6
-1.004, -3.178e-6
-1.003, -3.198e-6
-1.002, -3.215e-6
-1.001, -3.193e-6
