Aug. 6, 2024   04:36:30
Cyclic Voltammetry
File: c:/users/guazh/data/20240802_batch_500/2024-08-02-exp32\exp32-2024-08-06t04_16_00-h2koh\exp32_cv_sr_900mvs_efin_-1700mv.bin
Data Source:  Experiment
Instrument Model:  CHI760E
Header: CV ran at 900 mVs
Note: 

Init E (V) = -1
High E (V) = -1
Low E (V) = -1.7
Final E (V) = -1
Init P/N = N
Scan Rate (V/s) = 0.9
Segment = 3
Sample Interval (V) = 0.001
Quiet Time (sec) = 2
Sensitivity (A/V) = 0.01
Comp R (ohm) = 2.3

Results:

Channel 1:
Segment 1:

Segment 2:

Segment 3:

Potential/V, Current/A

-1.000, 6.322e-6
-1.001, 2.790e-5
-1.002, 4.332e-5
-1.003, 5.565e-5
-1.004, 6.798e-5
-1.005, 7.723e-5
-1.006, 8.340e-5
-1.007, 9.265e-5
-1.008, 1.019e-4
-1.009, 1.081e-4
-1.010, 1.142e-4
-1.011, 1.204e-4
-1.012, 1.235e-4
-1.013, 1.296e-4
-1.014, 1.327e-4
-1.015, 1.358e-4
-1.016, 1.389e-4
-1.017, 1.420e-4
-1.018, 1.451e-4
-1.019, 1.481e-4
-1.020, 1.481e-4
-1.021, 1.512e-4
-1.022, 1.543e-4
-1.023, 1.574e-4
-1.024, 1.605e-4
-1.025, 1.636e-4
-1.026, 1.666e-4
-1.027, 1.697e-4
-1.028, 1.697e-4
-1.029, 1.728e-4
-1.030, 1.728e-4
-1.031, 1.759e-4
-1.032, 1.759e-4
-1.033, 1.759e-4
-1.034, 1.759e-4
-1.035, 1.790e-4
-1.036, 1.790e-4
-1.037, 1.790e-4
-1.038, 1.821e-4
-1.039, 1.851e-4
-1.040, 1.882e-4
-1.041, 1.882e-4
-1.042, 1.882e-4
-1.043, 1.913e-4
-1.044, 1.913e-4
-1.045, 1.913e-4
-1.046, 1.913e-4
-1.047, 1.913e-4
-1.048, 1.913e-4
-1.049, 1.913e-4
-1.050, 1.944e-4
-1.051, 1.913e-4
-1.052, 1.944e-4
-1.053, 1.944e-4
-1.054, 1.975e-4
-1.055, 1.975e-4
-1.056, 2.006e-4
-1.057, 2.006e-4
-1.058, 2.006e-4
-1.059, 2.006e-4
-1.060, 2.006e-4
-1.061, 2.006e-4
-1.062, 2.006e-4
-1.063, 2.006e-4
-1.064, 2.006e-4
-1.065, 2.006e-4
-1.066, 2.006e-4
-1.067, 2.036e-4
-1.068, 2.036e-4
-1.069, 2.036e-4
-1.070, 2.067e-4
-1.071, 2.067e-4
-1.072, 2.067e-4
-1.073, 2.067e-4
-1.074, 2.067e-4
-1.075, 2.098e-4
-1.076, 2.098e-4
-1.077, 2.098e-4
-1.078, 2.067e-4
-1.079, 2.067e-4
-1.080, 2.067e-4
-1.081, 2.067e-4
-1.082, 2.098e-4
-1.083, 2.098e-4
-1.084, 2.098e-4
-1.085, 2.129e-4
-1.086, 2.129e-4
-1.087, 2.129e-4
-1.088, 2.129e-4
-1.089, 2.129e-4
-1.090, 2.129e-4
-1.091, 2.129e-4
-1.092, 2.129e-4
-1.093, 2.160e-4
-1.094, 2.129e-4
-1.095, 2.129e-4
-1.096, 2.129e-4
-1.097, 2.129e-4
-1.098, 2.160e-4
-1.099, 2.160e-4
-1.100, 2.160e-4
-1.101, 2.160e-4
-1.102, 2.191e-4
-1.103, 2.191e-4
-1.104, 2.191e-4
-1.105, 2.191e-4
-1.106, 2.191e-4
-1.107, 2.191e-4
-1.108, 2.160e-4
-1.109, 2.191e-4
-1.110, 2.191e-4
-1.111, 2.191e-4
-1.112, 2.191e-4
-1.113, 2.191e-4
-1.114, 2.191e-4
-1.115, 2.191e-4
-1.116, 2.221e-4
-1.117, 2.221e-4
-1.118, 2.221e-4
-1.119, 2.221e-4
-1.120, 2.221e-4
-1.121, 2.221e-4
-1.122, 2.221e-4
-1.123, 2.221e-4
-1.124, 2.221e-4
-1.125, 2.221e-4
-1.126, 2.221e-4
-1.127, 2.252e-4
-1.128, 2.252e-4
-1.129, 2.252e-4
-1.130, 2.252e-4
-1.131, 2.283e-4
-1.132, 2.283e-4
-1.133, 2.283e-4
-1.134, 2.283e-4
-1.135, 2.283e-4
-1.136, 2.283e-4
-1.137, 2.283e-4
-1.138, 2.283e-4
-1.139, 2.283e-4
-1.140, 2.283e-4
-1.141, 2.252e-4
-1.142, 2.283e-4
-1.143, 2.283e-4
-1.144, 2.283e-4
-1.145, 2.314e-4
-1.146, 2.314e-4
-1.147, 2.314e-4
-1.148, 2.345e-4
-1.149, 2.345e-4
-1.150, 2.345e-4
-1.151, 2.314e-4
-1.152, 2.314e-4
-1.153, 2.345e-4
-1.154, 2.314e-4
-1.155, 2.345e-4
-1.156, 2.345e-4
-1.157, 2.345e-4
-1.158, 2.345e-4
-1.159, 2.345e-4
-1.160, 2.376e-4
-1.161, 2.376e-4
-1.162, 2.376e-4
-1.163, 2.376e-4
-1.164, 2.406e-4
-1.165, 2.376e-4
-1.166, 2.406e-4
-1.167, 2.376e-4
-1.168, 2.376e-4
-1.169, 2.376e-4
-1.170, 2.376e-4
-1.171, 2.376e-4
-1.172, 2.406e-4
-1.173, 2.406e-4
-1.174, 2.406e-4
-1.175, 2.437e-4
-1.176, 2.437e-4
-1.177, 2.437e-4
-1.178, 2.468e-4
-1.179, 2.468e-4
-1.180, 2.468e-4
-1.181, 2.468e-4
-1.182, 2.468e-4
-1.183, 2.468e-4
-1.184, 2.437e-4
-1.185, 2.468e-4
-1.186, 2.468e-4
-1.187, 2.468e-4
-1.188, 2.468e-4
-1.189, 2.499e-4
-1.190, 2.499e-4
-1.191, 2.499e-4
-1.192, 2.530e-4
-1.193, 2.530e-4
-1.194, 2.530e-4
-1.195, 2.530e-4
-1.196, 2.530e-4
-1.197, 2.530e-4
-1.198, 2.530e-4
-1.199, 2.530e-4
-1.200, 2.530e-4
-1.201, 2.530e-4
-1.202, 2.530e-4
-1.203, 2.561e-4
-1.204, 2.561e-4
-1.205, 2.561e-4
-1.206, 2.591e-4
-1.207, 2.591e-4
-1.208, 2.591e-4
-1.209, 2.591e-4
-1.210, 2.591e-4
-1.211, 2.591e-4
-1.212, 2.622e-4
-1.213, 2.591e-4
-1.214, 2.591e-4
-1.215, 2.622e-4
-1.216, 2.591e-4
-1.217, 2.622e-4
-1.218, 2.622e-4
-1.219, 2.653e-4
-1.220, 2.653e-4
-1.221, 2.653e-4
-1.222, 2.653e-4
-1.223, 2.653e-4
-1.224, 2.684e-4
-1.225, 2.684e-4
-1.226, 2.684e-4
-1.227, 2.684e-4
-1.228, 2.684e-4
-1.229, 2.684e-4
-1.230, 2.684e-4
-1.231, 2.684e-4
-1.232, 2.684e-4
-1.233, 2.715e-4
-1.234, 2.715e-4
-1.235, 2.746e-4
-1.236, 2.746e-4
-1.237, 2.746e-4
-1.238, 2.776e-4
-1.239, 2.746e-4
-1.240, 2.776e-4
-1.241, 2.776e-4
-1.242, 2.776e-4
-1.243, 2.776e-4
-1.244, 2.776e-4
-1.245, 2.776e-4
-1.246, 2.776e-4
-1.247, 2.776e-4
-1.248, 2.807e-4
-1.249, 2.807e-4
-1.250, 2.807e-4
-1.251, 2.838e-4
-1.252, 2.838e-4
-1.253, 2.838e-4
-1.254, 2.869e-4
-1.255, 2.869e-4
-1.256, 2.869e-4
-1.257, 2.869e-4
-1.258, 2.869e-4
-1.259, 2.838e-4
-1.260, 2.869e-4
-1.261, 2.869e-4
-1.262, 2.900e-4
-1.263, 2.900e-4
-1.264, 2.900e-4
-1.265, 2.931e-4
-1.266, 2.931e-4
-1.267, 2.931e-4
-1.268, 2.931e-4
-1.269, 2.961e-4
-1.270, 2.961e-4
-1.271, 2.961e-4
-1.272, 2.961e-4
-1.273, 2.961e-4
-1.274, 2.961e-4
-1.275, 2.961e-4
-1.276, 2.961e-4
-1.277, 2.992e-4
-1.278, 2.992e-4
-1.279, 2.992e-4
-1.280, 3.023e-4
-1.281, 3.054e-4
-1.282, 3.054e-4
-1.283, 3.054e-4
-1.284, 3.054e-4
-1.285, 3.054e-4
-1.286, 3.085e-4
-1.287, 3.054e-4
-1.288, 3.054e-4
-1.289, 3.085e-4
-1.290, 3.085e-4
-1.291, 3.085e-4
-1.292, 3.085e-4
-1.293, 3.115e-4
-1.294, 3.115e-4
-1.295, 3.146e-4
-1.296, 3.146e-4
-1.297, 3.177e-4
-1.298, 3.177e-4
-1.299, 3.177e-4
-1.300, 3.177e-4
-1.301, 3.177e-4
-1.302, 3.208e-4
-1.303, 3.177e-4
-1.304, 3.208e-4
-1.305, 3.208e-4
-1.306, 3.208e-4
-1.307, 3.208e-4
-1.308, 3.239e-4
-1.309, 3.239e-4
-1.310, 3.270e-4
-1.311, 3.300e-4
-1.312, 3.300e-4
-1.313, 3.300e-4
-1.314, 3.300e-4
-1.315, 3.331e-4
-1.316, 3.300e-4
-1.317, 3.331e-4
-1.318, 3.331e-4
-1.319, 3.331e-4
-1.320, 3.331e-4
-1.321, 3.331e-4
-1.322, 3.362e-4
-1.323, 3.393e-4
-1.324, 3.393e-4
-1.325, 3.424e-4
-1.326, 3.424e-4
-1.327, 3.424e-4
-1.328, 3.424e-4
-1.329, 3.455e-4
-1.330, 3.455e-4
-1.331, 3.485e-4
-1.332, 3.485e-4
-1.333, 3.485e-4
-1.334, 3.485e-4
-1.335, 3.485e-4
-1.336, 3.516e-4
-1.337, 3.516e-4
-1.338, 3.547e-4
-1.339, 3.547e-4
-1.340, 3.578e-4
-1.341, 3.578e-4
-1.342, 3.609e-4
-1.343, 3.640e-4
-1.344, 3.640e-4
-1.345, 3.640e-4
-1.346, 3.640e-4
-1.347, 3.670e-4
-1.348, 3.670e-4
-1.349, 3.670e-4
-1.350, 3.670e-4
-1.351, 3.701e-4
-1.352, 3.701e-4
-1.353, 3.732e-4
-1.354, 3.732e-4
-1.355, 3.763e-4
-1.356, 3.794e-4
-1.357, 3.794e-4
-1.358, 3.794e-4
-1.359, 3.855e-4
-1.360, 3.855e-4
-1.361, 3.855e-4
-1.362, 3.855e-4
-1.363, 3.886e-4
-1.364, 3.886e-4
-1.365, 3.886e-4
-1.366, 3.917e-4
-1.367, 3.917e-4
-1.368, 3.948e-4
-1.369, 3.948e-4
-1.370, 3.979e-4
-1.371, 4.010e-4
-1.372, 4.010e-4
-1.373, 4.040e-4
-1.374, 4.040e-4
-1.375, 4.071e-4
-1.376, 4.071e-4
-1.377, 4.071e-4
-1.378, 4.102e-4
-1.379, 4.102e-4
-1.380, 4.133e-4
-1.381, 4.133e-4
-1.382, 4.164e-4
-1.383, 4.195e-4
-1.384, 4.195e-4
-1.385, 4.225e-4
-1.386, 4.256e-4
-1.387, 4.256e-4
-1.388, 4.287e-4
-1.389, 4.318e-4
-1.390, 4.349e-4
-1.391, 4.349e-4
-1.392, 4.349e-4
-1.393, 4.349e-4
-1.394, 4.380e-4
-1.395, 4.380e-4
-1.396, 4.410e-4
-1.397, 4.410e-4
-1.398, 4.472e-4
-1.399, 4.472e-4
-1.400, 4.503e-4
-1.401, 4.534e-4
-1.402, 4.565e-4
-1.403, 4.595e-4
-1.404, 4.595e-4
-1.405, 4.626e-4
-1.406, 4.626e-4
-1.407, 4.657e-4
-1.408, 4.657e-4
-1.409, 4.688e-4
-1.410, 4.688e-4
-1.411, 4.719e-4
-1.412, 4.750e-4
-1.413, 4.750e-4
-1.414, 4.811e-4
-1.415, 4.842e-4
-1.416, 4.842e-4
-1.417, 4.904e-4
-1.418, 4.904e-4
-1.419, 4.935e-4
-1.420, 4.965e-4
-1.421, 4.965e-4
-1.422, 4.965e-4
-1.423, 4.996e-4
-1.424, 5.027e-4
-1.425, 5.027e-4
-1.426, 5.058e-4
-1.427, 5.089e-4
-1.428, 5.120e-4
-1.429, 5.150e-4
-1.430, 5.181e-4
-1.431, 5.212e-4
-1.432, 5.243e-4
-1.433, 5.274e-4
-1.434, 5.305e-4
-1.435, 5.335e-4
-1.436, 5.366e-4
-1.437, 5.397e-4
-1.438, 5.397e-4
-1.439, 5.428e-4
-1.440, 5.459e-4
-1.441, 5.489e-4
-1.442, 5.520e-4
-1.443, 5.551e-4
-1.444, 5.582e-4
-1.445, 5.613e-4
-1.446, 5.644e-4
-1.447, 5.674e-4
-1.448, 5.705e-4
-1.449, 5.736e-4
-1.450, 5.767e-4
-1.451, 5.798e-4
-1.452, 5.829e-4
-1.453, 5.859e-4
-1.454, 5.890e-4
-1.455, 5.921e-4
-1.456, 5.921e-4
-1.457, 5.952e-4
-1.458, 6.014e-4
-1.459, 6.044e-4
-1.460, 6.106e-4
-1.461, 6.137e-4
-1.462, 6.168e-4
-1.463, 6.199e-4
-1.464, 6.229e-4
-1.465, 6.260e-4
-1.466, 6.291e-4
-1.467, 6.322e-4
-1.468, 6.353e-4
-1.469, 6.384e-4
-1.470, 6.414e-4
-1.471, 6.445e-4
-1.472, 6.507e-4
-1.473, 6.538e-4
-1.474, 6.569e-4
-1.475, 6.630e-4
-1.476, 6.661e-4
-1.477, 6.723e-4
-1.478, 6.723e-4
-1.479, 6.784e-4
-1.480, 6.815e-4
-1.481, 6.846e-4
-1.482, 6.908e-4
-1.483, 6.939e-4
-1.484, 6.969e-4
-1.485, 7.031e-4
-1.486, 7.031e-4
-1.487, 7.093e-4
-1.488, 7.154e-4
-1.489, 7.185e-4
-1.490, 7.247e-4
-1.491, 7.278e-4
-1.492, 7.309e-4
-1.493, 7.370e-4
-1.494, 7.401e-4
-1.495, 7.463e-4
-1.496, 7.494e-4
-1.497, 7.555e-4
-1.498, 7.555e-4
-1.499, 7.617e-4
-1.500, 7.648e-4
-1.501, 7.679e-4
-1.502, 7.740e-4
-1.503, 7.802e-4
-1.504, 7.863e-4
-1.505, 7.925e-4
-1.506, 7.987e-4
-1.507, 8.018e-4
-1.508, 8.079e-4
-1.509, 8.110e-4
-1.510, 8.172e-4
-1.511, 8.203e-4
-1.512, 8.264e-4
-1.513, 8.295e-4
-1.514, 8.357e-4
-1.515, 8.418e-4
-1.516, 8.449e-4
-1.517, 8.511e-4
-1.518, 8.573e-4
-1.519, 8.603e-4
-1.520, 8.696e-4
-1.521, 8.727e-4
-1.522, 8.819e-4
-1.523, 8.850e-4
-1.524, 8.912e-4
-1.525, 8.973e-4
-1.526, 9.035e-4
-1.527, 9.066e-4
-1.528, 9.128e-4
-1.529, 9.189e-4
-1.530, 9.220e-4
-1.531, 9.282e-4
-1.532, 9.343e-4
-1.533, 9.405e-4
-1.534, 9.467e-4
-1.535, 9.528e-4
-1.536, 9.621e-4
-1.537, 9.652e-4
-1.538, 9.713e-4
-1.539, 9.775e-4
-1.540, 9.837e-4
-1.541, 9.898e-4
-1.542, 9.960e-4
-1.543, 1.002e-3
-1.544, 1.008e-3
-1.545, 1.014e-3
-1.546, 1.021e-3
-1.547, 1.024e-3
-1.548, 1.030e-3
-1.549, 1.039e-3
-1.550, 1.045e-3
-1.551, 1.055e-3
-1.552, 1.061e-3
-1.553, 1.070e-3
-1.554, 1.076e-3
-1.555, 1.082e-3
-1.556, 1.088e-3
-1.557, 1.095e-3
-1.558, 1.101e-3
-1.559, 1.107e-3
-1.560, 1.113e-3
-1.561, 1.122e-3
-1.562, 1.129e-3
-1.563, 1.135e-3
-1.564, 1.144e-3
-1.565, 1.150e-3
-1.566, 1.159e-3
-1.567, 1.166e-3
-1.568, 1.175e-3
-1.569, 1.181e-3
-1.570, 1.190e-3
-1.571, 1.196e-3
-1.572, 1.203e-3
-1.573, 1.212e-3
-1.574, 1.218e-3
-1.575, 1.224e-3
-1.576, 1.233e-3
-1.577, 1.240e-3
-1.578, 1.249e-3
-1.579, 1.258e-3
-1.580, 1.267e-3
-1.581, 1.273e-3
-1.582, 1.283e-3
-1.583, 1.292e-3
-1.584, 1.301e-3
-1.585, 1.307e-3
-1.586, 1.317e-3
-1.587, 1.326e-3
-1.588, 1.335e-3
-1.589, 1.341e-3
-1.590, 1.351e-3
-1.591, 1.357e-3
-1.592, 1.366e-3
-1.593, 1.375e-3
-1.594, 1.384e-3
-1.595, 1.397e-3
-1.596, 1.406e-3
-1.597, 1.415e-3
-1.598, 1.425e-3
-1.599, 1.434e-3
-1.600, 1.443e-3
-1.601, 1.449e-3
-1.602, 1.458e-3
-1.603, 1.468e-3
-1.604, 1.477e-3
-1.605, 1.486e-3
-1.606, 1.495e-3
-1.607, 1.505e-3
-1.608, 1.517e-3
-1.609, 1.529e-3
-1.610, 1.539e-3
-1.611, 1.551e-3
-1.612, 1.560e-3
-1.613, 1.573e-3
-1.614, 1.582e-3
-1.615, 1.591e-3
-1.616, 1.600e-3
-1.617, 1.613e-3
-1.618, 1.622e-3
-1.619, 1.634e-3
-1.620, 1.640e-3
-1.621, 1.653e-3
-1.622, 1.665e-3
-1.623, 1.677e-3
-1.624, 1.687e-3
-1.625, 1.699e-3
-1.626, 1.711e-3
-1.627, 1.721e-3
-1.628, 1.736e-3
-1.629, 1.745e-3
-1.630, 1.754e-3
-1.631, 1.767e-3
-1.632, 1.776e-3
-1.633, 1.788e-3
-1.634, 1.801e-3
-1.635, 1.810e-3
-1.636, 1.822e-3
-1.637, 1.835e-3
-1.638, 1.847e-3
-1.639, 1.862e-3
-1.640, 1.878e-3
-1.641, 1.890e-3
-1.642, 1.902e-3
-1.643, 1.915e-3
-1.644, 1.927e-3
-1.645, 1.939e-3
-1.646, 1.952e-3
-1.647, 1.964e-3
-1.648, 1.980e-3
-1.649, 1.989e-3
-1.650, 2.004e-3
-1.651, 2.017e-3
-1.652, 2.032e-3
-1.653, 2.047e-3
-1.654, 2.060e-3
-1.655, 2.075e-3
-1.656, 2.087e-3
-1.657, 2.103e-3
-1.658, 2.118e-3
-1.659, 2.134e-3
-1.660, 2.146e-3
-1.661, 2.161e-3
-1.662, 2.177e-3
-1.663, 2.189e-3
-1.664, 2.201e-3
-1.665, 2.220e-3
-1.666, 2.232e-3
-1.667, 2.248e-3
-1.668, 2.263e-3
-1.669, 2.279e-3
-1.670, 2.297e-3
-1.671, 2.312e-3
-1.672, 2.328e-3
-1.673, 2.343e-3
-1.674, 2.362e-3
-1.675, 2.377e-3
-1.676, 2.393e-3
-1.677, 2.408e-3
-1.678, 2.427e-3
-1.679, 2.442e-3
-1.680, 2.457e-3
-1.681, 2.476e-3
-1.682, 2.494e-3
-1.683, 2.510e-3
-1.684, 2.528e-3
-1.685, 2.550e-3
-1.686, 2.565e-3
-1.687, 2.584e-3
-1.688, 2.602e-3
-1.689, 2.621e-3
-1.690, 2.639e-3
-1.691, 2.658e-3
-1.692, 2.676e-3
-1.693, 2.692e-3
-1.694, 2.710e-3
-1.695, 2.729e-3
-1.696, 2.744e-3
-1.697, 2.766e-3
-1.698, 2.787e-3
-1.699, 2.806e-3
-1.700, 2.803e-3
-1.699, 2.772e-3
-1.698, 2.744e-3
-1.697, 2.723e-3
-1.696, 2.701e-3
-1.695, 2.679e-3
-1.694, 2.658e-3
-1.693, 2.639e-3
-1.692, 2.618e-3
-1.691, 2.599e-3
-1.690, 2.578e-3
-1.689, 2.559e-3
-1.688, 2.544e-3
-1.687, 2.525e-3
-1.686, 2.507e-3
-1.685, 2.491e-3
-1.684, 2.470e-3
-1.683, 2.454e-3
-1.682, 2.436e-3
-1.681, 2.417e-3
-1.680, 2.402e-3
-1.679, 2.380e-3
-1.678, 2.365e-3
-1.677, 2.346e-3
-1.676, 2.328e-3
-1.675, 2.306e-3
-1.674, 2.291e-3
-1.673, 2.272e-3
-1.672, 2.257e-3
-1.671, 2.242e-3
-1.670, 2.226e-3
-1.669, 2.211e-3
-1.668, 2.192e-3
-1.667, 2.177e-3
-1.666, 2.158e-3
-1.665, 2.143e-3
-1.664, 2.124e-3
-1.663, 2.109e-3
-1.662, 2.094e-3
-1.661, 2.075e-3
-1.660, 2.060e-3
-1.659, 2.041e-3
-1.658, 2.026e-3
-1.657, 2.010e-3
-1.656, 1.995e-3
-1.655, 1.980e-3
-1.654, 1.967e-3
-1.653, 1.952e-3
-1.652, 1.936e-3
-1.651, 1.921e-3
-1.650, 1.906e-3
-1.649, 1.890e-3
-1.648, 1.875e-3
-1.647, 1.856e-3
-1.646, 1.841e-3
-1.645, 1.825e-3
-1.644, 1.810e-3
-1.643, 1.798e-3
-1.642, 1.782e-3
-1.641, 1.770e-3
-1.640, 1.754e-3
-1.639, 1.742e-3
-1.638, 1.727e-3
-1.637, 1.714e-3
-1.636, 1.699e-3
-1.635, 1.684e-3
-1.634, 1.671e-3
-1.633, 1.653e-3
-1.632, 1.640e-3
-1.631, 1.625e-3
-1.630, 1.613e-3
-1.629, 1.597e-3
-1.628, 1.582e-3
-1.627, 1.569e-3
-1.626, 1.557e-3
-1.625, 1.545e-3
-1.624, 1.532e-3
-1.623, 1.520e-3
-1.622, 1.508e-3
-1.621, 1.495e-3
-1.620, 1.480e-3
-1.619, 1.468e-3
-1.618, 1.455e-3
-1.617, 1.440e-3
-1.616, 1.428e-3
-1.615, 1.415e-3
-1.614, 1.403e-3
-1.613, 1.391e-3
-1.612, 1.378e-3
-1.611, 1.369e-3
-1.610, 1.357e-3
-1.609, 1.344e-3
-1.608, 1.332e-3
-1.607, 1.320e-3
-1.606, 1.307e-3
-1.605, 1.295e-3
-1.604, 1.283e-3
-1.603, 1.270e-3
-1.602, 1.258e-3
-1.601, 1.246e-3
-1.600, 1.236e-3
-1.599, 1.221e-3
-1.598, 1.212e-3
-1.597, 1.203e-3
-1.596, 1.190e-3
-1.595, 1.181e-3
-1.594, 1.172e-3
-1.593, 1.162e-3
-1.592, 1.150e-3
-1.591, 1.138e-3
-1.590, 1.125e-3
-1.589, 1.116e-3
-1.588, 1.104e-3
-1.587, 1.092e-3
-1.586, 1.082e-3
-1.585, 1.070e-3
-1.584, 1.061e-3
-1.583, 1.048e-3
-1.582, 1.039e-3
-1.581, 1.030e-3
-1.580, 1.021e-3
-1.579, 1.011e-3
-1.578, 1.002e-3
-1.577, 9.929e-4
-1.576, 9.806e-4
-1.575, 9.713e-4
-1.574, 9.621e-4
-1.573, 9.498e-4
-1.572, 9.405e-4
-1.571, 9.313e-4
-1.570, 9.220e-4
-1.569, 9.128e-4
-1.568, 9.035e-4
-1.567, 8.912e-4
-1.566, 8.850e-4
-1.565, 8.758e-4
-1.564, 8.665e-4
-1.563, 8.573e-4
-1.562, 8.480e-4
-1.561, 8.388e-4
-1.560, 8.295e-4
-1.559, 8.203e-4
-1.558, 8.110e-4
-1.557, 8.018e-4
-1.556, 7.925e-4
-1.555, 7.833e-4
-1.554, 7.740e-4
-1.553, 7.648e-4
-1.552, 7.586e-4
-1.551, 7.494e-4
-1.550, 7.432e-4
-1.549, 7.370e-4
-1.548, 7.247e-4
-1.547, 7.185e-4
-1.546, 7.093e-4
-1.545, 7.031e-4
-1.544, 6.939e-4
-1.543, 6.846e-4
-1.542, 6.754e-4
-1.541, 6.692e-4
-1.540, 6.599e-4
-1.539, 6.507e-4
-1.538, 6.445e-4
-1.537, 6.384e-4
-1.536, 6.322e-4
-1.535, 6.229e-4
-1.534, 6.168e-4
-1.533, 6.075e-4
-1.532, 6.014e-4
-1.531, 5.952e-4
-1.530, 5.859e-4
-1.529, 5.767e-4
-1.528, 5.705e-4
-1.527, 5.613e-4
-1.526, 5.551e-4
-1.525, 5.489e-4
-1.524, 5.397e-4
-1.523, 5.335e-4
-1.522, 5.274e-4
-1.521, 5.212e-4
-1.520, 5.150e-4
-1.519, 5.089e-4
-1.518, 5.027e-4
-1.517, 4.965e-4
-1.516, 4.873e-4
-1.515, 4.811e-4
-1.514, 4.750e-4
-1.513, 4.688e-4
-1.512, 4.626e-4
-1.511, 4.534e-4
-1.510, 4.472e-4
-1.509, 4.410e-4
-1.508, 4.349e-4
-1.507, 4.287e-4
-1.506, 4.256e-4
-1.505, 4.195e-4
-1.504, 4.133e-4
-1.503, 4.071e-4
-1.502, 4.010e-4
-1.501, 3.979e-4
-1.500, 3.886e-4
-1.499, 3.825e-4
-1.498, 3.763e-4
-1.497, 3.701e-4
-1.496, 3.640e-4
-1.495, 3.578e-4
-1.494, 3.516e-4
-1.493, 3.455e-4
-1.492, 3.424e-4
-1.491, 3.362e-4
-1.490, 3.300e-4
-1.489, 3.270e-4
-1.488, 3.208e-4
-1.487, 3.177e-4
-1.486, 3.115e-4
-1.485, 3.054e-4
-1.484, 2.992e-4
-1.483, 2.931e-4
-1.482, 2.869e-4
-1.481, 2.807e-4
-1.480, 2.776e-4
-1.479, 2.715e-4
-1.478, 2.653e-4
-1.477, 2.622e-4
-1.476, 2.591e-4
-1.475, 2.530e-4
-1.474, 2.499e-4
-1.473, 2.437e-4
-1.472, 2.406e-4
-1.471, 2.345e-4
-1.470, 2.314e-4
-1.469, 2.252e-4
-1.468, 2.191e-4
-1.467, 2.129e-4
-1.466, 2.098e-4
-1.465, 2.036e-4
-1.464, 2.006e-4
-1.463, 1.944e-4
-1.462, 1.913e-4
-1.461, 1.882e-4
-1.460, 1.851e-4
-1.459, 1.790e-4
-1.458, 1.759e-4
-1.457, 1.697e-4
-1.456, 1.666e-4
-1.455, 1.636e-4
-1.454, 1.574e-4
-1.453, 1.512e-4
-1.452, 1.481e-4
-1.451, 1.420e-4
-1.450, 1.389e-4
-1.449, 1.358e-4
-1.448, 1.296e-4
-1.447, 1.266e-4
-1.446, 1.266e-4
-1.445, 1.204e-4
-1.444, 1.173e-4
-1.443, 1.142e-4
-1.442, 1.081e-4
-1.441, 1.050e-4
-1.440, 1.019e-4
-1.439, 9.882e-5
-1.438, 9.265e-5
-1.437, 8.957e-5
-1.436, 8.340e-5
-1.435, 8.032e-5
-1.434, 7.723e-5
-1.433, 7.415e-5
-1.432, 7.107e-5
-1.431, 6.798e-5
-1.430, 6.490e-5
-1.429, 6.182e-5
-1.428, 5.873e-5
-1.427, 5.565e-5
-1.426, 5.257e-5
-1.425, 4.640e-5
-1.424, 4.332e-5
-1.423, 4.024e-5
-1.422, 3.407e-5
-1.421, 3.099e-5
-1.420, 2.790e-5
-1.419, 2.482e-5
-1.418, 2.174e-5
-1.417, 1.865e-5
-1.416, 1.557e-5
-1.415, 1.557e-5
-1.414, 1.249e-5
-1.413, 9.405e-6
-1.412, 6.322e-6
-1.411, 3.239e-6
-1.410, -2.927e-6
-1.409, -6.010e-6
-1.408, -6.010e-6
-1.407, -1.218e-5
-1.406, -1.526e-5
-1.405, -1.834e-5
-1.404, -2.143e-5
-1.403, -2.451e-5
-1.402, -2.759e-5
-1.401, -2.759e-5
-1.400, -3.068e-5
-1.399, -3.376e-5
-1.398, -3.376e-5
-1.397, -3.992e-5
-1.396, -4.301e-5
-1.395, -4.301e-5
-1.394, -4.609e-5
-1.393, -4.917e-5
-1.392, -5.226e-5
-1.391, -5.534e-5
-1.390, -5.842e-5
-1.389, -6.151e-5
-1.388, -6.459e-5
-1.387, -6.767e-5
-1.386, -6.767e-5
-1.385, -7.076e-5
-1.384, -7.076e-5
-1.383, -7.384e-5
-1.382, -7.692e-5
-1.381, -8.000e-5
-1.380, -8.309e-5
-1.379, -8.617e-5
-1.378, -8.925e-5
-1.377, -9.234e-5
-1.376, -9.542e-5
-1.375, -9.542e-5
-1.374, -1.016e-4
-1.373, -1.016e-4
-1.372, -1.047e-4
-1.371, -1.047e-4
-1.370, -1.047e-4
-1.369, -1.078e-4
-1.368, -1.108e-4
-1.367, -1.108e-4
-1.366, -1.139e-4
-1.365, -1.170e-4
-1.364, -1.201e-4
-1.363, -1.201e-4
-1.362, -1.263e-4
-1.361, -1.263e-4
-1.360, -1.293e-4
-1.359, -1.324e-4
-1.358, -1.324e-4
-1.357, -1.355e-4
-1.356, -1.386e-4
-1.355, -1.386e-4
-1.354, -1.386e-4
-1.353, -1.417e-4
-1.352, -1.417e-4
-1.351, -1.448e-4
-1.350, -1.478e-4
-1.349, -1.478e-4
-1.348, -1.509e-4
-1.347, -1.540e-4
-1.346, -1.571e-4
-1.345, -1.571e-4
-1.344, -1.602e-4
-1.343, -1.632e-4
-1.342, -1.632e-4
-1.341, -1.663e-4
-1.340, -1.663e-4
-1.339, -1.663e-4
-1.338, -1.663e-4
-1.337, -1.694e-4
-1.336, -1.725e-4
-1.335, -1.756e-4
-1.334, -1.756e-4
-1.333, -1.787e-4
-1.332, -1.817e-4
-1.331, -1.817e-4
-1.330, -1.848e-4
-1.329, -1.848e-4
-1.328, -1.879e-4
-1.327, -1.879e-4
-1.326, -1.879e-4
-1.325, -1.910e-4
-1.324, -1.910e-4
-1.323, -1.910e-4
-1.322, -1.941e-4
-1.321, -1.972e-4
-1.320, -1.972e-4
-1.319, -2.002e-4
-1.318, -2.033e-4
-1.317, -2.033e-4
-1.316, -2.064e-4
-1.315, -2.064e-4
-1.314, -2.095e-4
-1.313, -2.095e-4
-1.312, -2.095e-4
-1.311, -2.126e-4
-1.310, -2.126e-4
-1.309, -2.126e-4
-1.308, -2.126e-4
-1.307, -2.157e-4
-1.306, -2.157e-4
-1.305, -2.187e-4
-1.304, -2.187e-4
-1.303, -2.218e-4
-1.302, -2.249e-4
-1.301, -2.249e-4
-1.300, -2.280e-4
-1.299, -2.280e-4
-1.298, -2.311e-4
-1.297, -2.311e-4
-1.296, -2.311e-4
-1.295, -2.311e-4
-1.294, -2.311e-4
-1.293, -2.342e-4
-1.292, -2.342e-4
-1.291, -2.372e-4
-1.290, -2.372e-4
-1.289, -2.372e-4
-1.288, -2.403e-4
-1.287, -2.403e-4
-1.286, -2.434e-4
-1.285, -2.434e-4
-1.284, -2.434e-4
-1.283, -2.465e-4
-1.282, -2.465e-4
-1.281, -2.465e-4
-1.280, -2.496e-4
-1.279, -2.496e-4
-1.278, -2.496e-4
-1.277, -2.496e-4
-1.276, -2.527e-4
-1.275, -2.527e-4
-1.274, -2.557e-4
-1.273, -2.557e-4
-1.272, -2.557e-4
-1.271, -2.588e-4
-1.270, -2.588e-4
-1.269, -2.619e-4
-1.268, -2.619e-4
-1.267, -2.619e-4
-1.266, -2.619e-4
-1.265, -2.619e-4
-1.264, -2.619e-4
-1.263, -2.619e-4
-1.262, -2.619e-4
-1.261, -2.650e-4
-1.260, -2.650e-4
-1.259, -2.681e-4
-1.258, -2.681e-4
-1.257, -2.712e-4
-1.256, -2.712e-4
-1.255, -2.712e-4
-1.254, -2.742e-4
-1.253, -2.742e-4
-1.252, -2.742e-4
-1.251, -2.742e-4
-1.250, -2.742e-4
-1.249, -2.742e-4
-1.248, -2.742e-4
-1.247, -2.742e-4
-1.246, -2.773e-4
-1.245, -2.773e-4
-1.244, -2.773e-4
-1.243, -2.773e-4
-1.242, -2.804e-4
-1.241, -2.835e-4
-1.240, -2.804e-4
-1.239, -2.835e-4
-1.238, -2.835e-4
-1.237, -2.835e-4
-1.236, -2.835e-4
-1.235, -2.835e-4
-1.234, -2.835e-4
-1.233, -2.835e-4
-1.232, -2.835e-4
-1.231, -2.835e-4
-1.230, -2.835e-4
-1.229, -2.866e-4
-1.228, -2.866e-4
-1.227, -2.897e-4
-1.226, -2.897e-4
-1.225, -2.897e-4
-1.224, -2.927e-4
-1.223, -2.897e-4
-1.222, -2.927e-4
-1.221, -2.897e-4
-1.220, -2.897e-4
-1.219, -2.897e-4
-1.218, -2.897e-4
-1.217, -2.927e-4
-1.216, -2.927e-4
-1.215, -2.927e-4
-1.214, -2.927e-4
-1.213, -2.927e-4
-1.212, -2.958e-4
-1.211, -2.958e-4
-1.210, -2.958e-4
-1.209, -2.958e-4
-1.208, -2.958e-4
-1.207, -2.958e-4
-1.206, -2.958e-4
-1.205, -2.958e-4
-1.204, -2.958e-4
-1.203, -2.958e-4
-1.202, -2.958e-4
-1.201, -2.958e-4
-1.200, -2.989e-4
-1.199, -2.989e-4
-1.198, -2.989e-4
-1.197, -2.989e-4
-1.196, -2.989e-4
-1.195, -3.020e-4
-1.194, -3.020e-4
-1.193, -3.020e-4
-1.192, -3.020e-4
-1.191, -2.989e-4
-1.190, -3.020e-4
-1.189, -3.020e-4
-1.188, -2.989e-4
-1.187, -3.020e-4
-1.186, -2.989e-4
-1.185, -3.020e-4
-1.184, -3.020e-4
-1.183, -3.020e-4
-1.182, -3.051e-4
-1.181, -3.051e-4
-1.180, -3.051e-4
-1.179, -3.051e-4
-1.178, -3.051e-4
-1.177, -3.051e-4
-1.176, -3.051e-4
-1.175, -3.051e-4
-1.174, -3.020e-4
-1.173, -3.051e-4
-1.172, -3.051e-4
-1.171, -3.051e-4
-1.170, -3.051e-4
-1.169, -3.051e-4
-1.168, -3.051e-4
-1.167, -3.082e-4
-1.166, -3.082e-4
-1.165, -3.082e-4
-1.164, -3.082e-4
-1.163, -3.082e-4
-1.162, -3.082e-4
-1.161, -3.082e-4
-1.160, -3.082e-4
-1.159, -3.082e-4
-1.158, -3.082e-4
-1.157, -3.082e-4
-1.156, -3.082e-4
-1.155, -3.082e-4
-1.154, -3.082e-4
-1.153, -3.082e-4
-1.152, -3.112e-4
-1.151, -3.112e-4
-1.150, -3.112e-4
-1.149, -3.112e-4
-1.148, -3.112e-4
-1.147, -3.112e-4
-1.146, -3.112e-4
-1.145, -3.112e-4
-1.144, -3.082e-4
-1.143, -3.082e-4
-1.142, -3.082e-4
-1.141, -3.112e-4
-1.140, -3.112e-4
-1.139, -3.112e-4
-1.138, -3.112e-4
-1.137, -3.112e-4
-1.136, -3.143e-4
-1.135, -3.143e-4
-1.134, -3.143e-4
-1.133, -3.143e-4
-1.132, -3.143e-4
-1.131, -3.112e-4
-1.130, -3.112e-4
-1.129, -3.112e-4
-1.128, -3.112e-4
-1.127, -3.112e-4
-1.126, -3.112e-4
-1.125, -3.112e-4
-1.124, -3.143e-4
-1.123, -3.143e-4
-1.122, -3.143e-4
-1.121, -3.143e-4
-1.120, -3.174e-4
-1.119, -3.143e-4
-1.118, -3.143e-4
-1.117, -3.143e-4
-1.116, -3.143e-4
-1.115, -3.112e-4
-1.114, -3.143e-4
-1.113, -3.143e-4
-1.112, -3.143e-4
-1.111, -3.143e-4
-1.110, -3.143e-4
-1.109, -3.143e-4
-1.108, -3.143e-4
-1.107, -3.143e-4
-1.106, -3.174e-4
-1.105, -3.143e-4
-1.104, -3.174e-4
-1.103, -3.174e-4
-1.102, -3.174e-4
-1.101, -3.143e-4
-1.100, -3.143e-4
-1.099, -3.143e-4
-1.098, -3.143e-4
-1.097, -3.143e-4
-1.096, -3.143e-4
-1.095, -3.143e-4
-1.094, -3.143e-4
-1.093, -3.174e-4
-1.092, -3.174e-4
-1.091, -3.174e-4
-1.090, -3.174e-4
-1.089, -3.174e-4
-1.088, -3.174e-4
-1.087, -3.174e-4
-1.086, -3.174e-4
-1.085, -3.174e-4
-1.084, -3.174e-4
-1.083, -3.174e-4
-1.082, -3.143e-4
-1.081, -3.174e-4
-1.080, -3.174e-4
-1.079, -3.174e-4
-1.078, -3.174e-4
-1.077, -3.205e-4
-1.076, -3.205e-4
-1.075, -3.205e-4
-1.074, -3.205e-4
-1.073, -3.205e-4
-1.072, -3.205e-4
-1.071, -3.205e-4
-1.070, -3.174e-4
-1.069, -3.174e-4
-1.068, -3.174e-4
-1.067, -3.205e-4
-1.066, -3.174e-4
-1.065, -3.205e-4
-1.064, -3.205e-4
-1.063, -3.205e-4
-1.062, -3.236e-4
-1.061, -3.236e-4
-1.060, -3.236e-4
-1.059, -3.236e-4
-1.058, -3.236e-4
-1.057, -3.236e-4
-1.056, -3.205e-4
-1.055, -3.205e-4
-1.054, -3.205e-4
-1.053, -3.205e-4
-1.052, -3.205e-4
-1.051, -3.205e-4
-1.050, -3.205e-4
-1.049, -3.205e-4
-1.048, -3.236e-4
-1.047, -3.236e-4
-1.046, -3.236e-4
-1.045, -3.236e-4
-1.044, -3.236e-4
-1.043, -3.236e-4
-1.042, -3.236e-4
-1.041, -3.236e-4
-1.040, -3.236e-4
-1.039, -3.236e-4
-1.038, -3.236e-4
-1.037, -3.236e-4
-1.036, -3.236e-4
-1.035, -3.236e-4
-1.034, -3.236e-4
-1.033, -3.267e-4
-1.032, -3.267e-4
-1.031, -3.297e-4
-1.030, -3.297e-4
-1.029, -3.297e-4
-1.028, -3.297e-4
-1.027, -3.297e-4
-1.026, -3.297e-4
-1.025, -3.267e-4
-1.024, -3.267e-4
-1.023, -3.267e-4
-1.022, -3.267e-4
-1.021, -3.297e-4
-1.020, -3.297e-4
-1.019, -3.328e-4
-1.018, -3.297e-4
-1.017, -3.328e-4
-1.016, -3.328e-4
-1.015, -3.328e-4
-1.014, -3.359e-4
-1.013, -3.328e-4
-1.012, -3.359e-4
-1.011, -3.328e-4
-1.010, -3.328e-4
-1.009, -3.328e-4
-1.008, -3.328e-4
-1.007, -3.328e-4
-1.006, -3.359e-4
-1.005, -3.359e-4
-1.004, -3.359e-4
-1.003, -3.390e-4
-1.002, -3.390e-4
-1.001, -3.421e-4
