Potential V vs RHE, Current mA cm-2
0.013299999999999867,-0.5255652478998613
0.012299999999999978,-2.1390434853959355
0.011299999999999866,-3.1859298472960624
0.010299999999999976,-3.927238568425342
0.009299999999999864,-4.450681749375406
0.008299999999999974,-4.843971490737885
0.007299999999999862,-5.149549131508733
0.006299999999999972,-5.367414671687949
0.00529999999999986,-5.497568111275533
0.0042999999999999705,-5.5414241615713475
0.0032999999999998586,-5.629136262162981
0.0022999999999999687,-5.672992312458796
0.0012999999999998568,-5.715433651454749
0.00029999999999996696,-5.759289701750564
-0.000700000000000145,-5.80314575204638
-0.0017000000000000348,-5.847001802342197
-0.0027000000000001467,-5.9347139029338285
-0.0037000000000000366,-5.977155241929781
-0.0047000000000001485,-6.021011292225596
-0.005700000000000038,-6.064867342521412
-0.00670000000000015,-6.064867342521412
-0.00770000000000004,-6.064867342521412
-0.008700000000000152,-6.064867342521412
-0.009700000000000042,-6.064867342521412
-0.010700000000000154,-6.064867342521412
-0.011700000000000044,-6.064867342521412
-0.012700000000000156,-6.064867342521412
-0.013700000000000045,-6.064867342521412
-0.014700000000000157,-6.108723392817228
-0.015700000000000047,-6.152579443113044
-0.01670000000000016,-6.196435493408861
-0.01770000000000005,-6.238876832404812
-0.01870000000000016,-6.238876832404812
-0.01970000000000005,-6.238876832404812
-0.020700000000000163,-6.238876832404812
-0.021700000000000053,-6.238876832404812
-0.022700000000000164,-6.238876832404812
-0.023700000000000054,-6.196435493408861
-0.024700000000000166,-6.196435493408861
-0.025700000000000056,-6.196435493408861
-0.026700000000000168,-6.196435493408861
-0.027700000000000058,-6.238876832404812
-0.02870000000000017,-6.238876832404812
-0.02970000000000006,-6.282732882700628
-0.03070000000000017,-6.326588932996443
-0.03170000000000006,-6.326588932996443
-0.03270000000000017,-6.37044498329226
-0.03370000000000006,-6.37044498329226
-0.034700000000000175,-6.326588932996443
-0.035700000000000065,-6.326588932996443
-0.03670000000000018,-6.326588932996443
-0.03770000000000007,-6.282732882700628
-0.03870000000000018,-6.282732882700628
-0.03970000000000007,-6.238876832404812
-0.04070000000000018,-6.282732882700628
-0.04170000000000007,-6.326588932996443
-0.04270000000000018,-6.326588932996443
-0.04370000000000007,-6.37044498329226
-0.044700000000000184,-6.414301033588076
-0.045700000000000074,-6.414301033588076
-0.046700000000000186,-6.414301033588076
-0.047700000000000076,-6.414301033588076
-0.04870000000000019,-6.414301033588076
-0.04970000000000008,-6.37044498329226
-0.05070000000000019,-6.326588932996443
-0.05170000000000008,-6.326588932996443
-0.05270000000000019,-6.282732882700628
-0.05370000000000008,-6.326588932996443
-0.05470000000000019,-6.37044498329226
-0.05570000000000008,-6.37044498329226
-0.056700000000000195,-6.414301033588076
-0.057700000000000085,-6.414301033588076
-0.058700000000000196,-6.458157083883892
-0.059700000000000086,-6.458157083883892
-0.0607000000000002,-6.458157083883892
-0.06170000000000009,-6.458157083883892
-0.0627000000000002,-6.414301033588076
-0.06370000000000009,-6.414301033588076
-0.0647000000000002,-6.37044498329226
-0.06570000000000009,-6.37044498329226
-0.0667000000000002,-6.326588932996443
-0.0677000000000001,-6.37044498329226
-0.0687000000000002,-6.414301033588076
-0.0697000000000001,-6.458157083883892
-0.07070000000000021,-6.458157083883892
-0.0717000000000001,-6.500598422879844
-0.07270000000000021,-6.500598422879844
-0.0737000000000001,-6.500598422879844
-0.07470000000000021,-6.500598422879844
-0.0757000000000001,-6.458157083883892
-0.07670000000000021,-6.414301033588076
-0.0777000000000001,-6.414301033588076
-0.07870000000000021,-6.37044498329226
-0.0797000000000001,-6.37044498329226
-0.08070000000000022,-6.414301033588076
-0.0817000000000001,-6.414301033588076
-0.08270000000000022,-6.458157083883892
-0.08370000000000011,-6.500598422879844
-0.08470000000000022,-6.500598422879844
-0.08570000000000011,-6.54445447317566
-0.08670000000000022,-6.54445447317566
-0.08770000000000011,-6.500598422879844
-0.08870000000000022,-6.500598422879844
-0.08970000000000011,-6.458157083883892
-0.09070000000000022,-6.458157083883892
-0.09170000000000011,-6.414301033588076
-0.09270000000000023,-6.414301033588076
-0.09370000000000012,-6.414301033588076
-0.09470000000000023,-6.414301033588076
-0.09570000000000012,-6.458157083883892
-0.09670000000000023,-6.500598422879844
-0.09770000000000012,-6.54445447317566
-0.09870000000000023,-6.54445447317566
-0.09970000000000012,-6.588310523471475
-0.10070000000000023,-6.54445447317566
-0.10170000000000012,-6.500598422879844
-0.10270000000000024,-6.500598422879844
-0.10370000000000013,-6.458157083883892
-0.10470000000000024,-6.458157083883892
-0.10570000000000013,-6.458157083883892
-0.10670000000000024,-6.458157083883892
-0.10770000000000013,-6.458157083883892
-0.10870000000000024,-6.500598422879844
-0.10970000000000013,-6.500598422879844
-0.11070000000000024,-6.54445447317566
-0.11170000000000013,-6.588310523471475
-0.11270000000000002,-6.632166573767292
-0.11370000000000013,-6.588310523471475
-0.11470000000000002,-6.54445447317566
-0.11570000000000014,-6.54445447317566
-0.11670000000000003,-6.500598422879844
-0.11770000000000014,-6.500598422879844
-0.11870000000000003,-6.500598422879844
-0.11970000000000014,-6.458157083883892
-0.12070000000000003,-6.500598422879844
-0.12170000000000014,-6.54445447317566
-0.12270000000000003,-6.54445447317566
-0.12370000000000014,-6.588310523471475
-0.12470000000000003,-6.632166573767292
-0.12570000000000014,-6.632166573767292
-0.12670000000000003,-6.632166573767292
-0.12770000000000015,-6.588310523471475
-0.12870000000000004,-6.588310523471475
-0.12970000000000015,-6.54445447317566
-0.13070000000000004,-6.54445447317566
-0.13170000000000015,-6.500598422879844
-0.13270000000000004,-6.500598422879844
-0.13370000000000015,-6.500598422879844
-0.13470000000000004,-6.54445447317566
-0.13570000000000015,-6.588310523471475
-0.13670000000000004,-6.588310523471475
-0.13770000000000016,-6.632166573767292
-0.13870000000000005,-6.6760226240631075
-0.13970000000000016,-6.6760226240631075
-0.14070000000000005,-6.6760226240631075
-0.14170000000000016,-6.632166573767292
-0.14270000000000005,-6.632166573767292
-0.14370000000000016,-6.588310523471475
-0.14470000000000005,-6.54445447317566
-0.14570000000000016,-6.54445447317566
-0.14670000000000005,-6.54445447317566
-0.14770000000000016,-6.588310523471475
-0.14870000000000005,-6.632166573767292
-0.14970000000000017,-6.6760226240631075
-0.15070000000000006,-6.6760226240631075
-0.15170000000000017,-6.719878674358924
-0.15270000000000006,-6.719878674358924
-0.15370000000000017,-6.719878674358924
-0.15470000000000006,-6.6760226240631075
-0.15570000000000017,-6.6760226240631075
-0.15670000000000006,-6.632166573767292
-0.15770000000000017,-6.632166573767292
-0.15870000000000006,-6.632166573767292
-0.15970000000000018,-6.632166573767292
-0.16070000000000007,-6.632166573767292
-0.16170000000000018,-6.6760226240631075
-0.16270000000000007,-6.6760226240631075
-0.16370000000000018,-6.762320013354876
-0.16470000000000007,-6.806176063650692
-0.16570000000000018,-6.806176063650692
-0.16670000000000007,-6.806176063650692
-0.16770000000000018,-6.762320013354876
-0.16870000000000007,-6.762320013354876
-0.16970000000000018,-6.719878674358924
-0.17070000000000007,-6.719878674358924
-0.17170000000000019,-6.6760226240631075
-0.17270000000000008,-6.6760226240631075
-0.1737000000000002,-6.6760226240631075
-0.17470000000000008,-6.719878674358924
-0.1757000000000002,-6.762320013354876
-0.17670000000000008,-6.806176063650692
-0.1777000000000002,-6.850032113946507
-0.17870000000000008,-6.893888164242324
-0.1797000000000002,-6.893888164242324
-0.18070000000000008,-6.893888164242324
-0.1817000000000002,-6.850032113946507
-0.18270000000000008,-6.850032113946507
-0.1837000000000002,-6.806176063650692
-0.1847000000000001,-6.806176063650692
-0.1857000000000002,-6.762320013354876
-0.1867000000000001,-6.762320013354876
-0.1877000000000002,-6.806176063650692
-0.1887000000000001,-6.850032113946507
-0.1897000000000002,-6.893888164242324
-0.1907000000000001,-6.893888164242324
-0.1917000000000001,-6.93774421453814
-0.19269999999999998,-6.981600264833956
-0.1937000000000001,-6.981600264833956
-0.19469999999999998,-6.981600264833956
-0.1957000000000001,-6.93774421453814
-0.19669999999999999,-6.893888164242324
-0.1977000000000001,-6.893888164242324
-0.1987,-6.893888164242324
-0.1997000000000001,-6.893888164242324
-0.2007,-6.893888164242324
-0.2017000000000001,-6.93774421453814
-0.2027,-6.981600264833956
-0.2037000000000001,-7.024041603829907
-0.2047,-7.024041603829907
-0.2057000000000001,-7.067897654125724
-0.2067,-7.111753704421539
-0.2077000000000001,-7.067897654125724
-0.2087,-7.067897654125724
-0.2097000000000001,-7.024041603829907
-0.2107,-7.024041603829907
-0.2117000000000001,-7.024041603829907
-0.2127,-7.024041603829907
-0.2137000000000001,-7.024041603829907
-0.2147,-7.067897654125724
-0.2157000000000001,-7.155609754717355
-0.2167,-7.199465805013171
-0.21770000000000012,-7.243321855308987
-0.2187,-7.243321855308987
-0.21970000000000012,-7.28576319430494
-0.2207,-7.243321855308987
-0.22170000000000012,-7.243321855308987
-0.2227,-7.199465805013171
-0.22370000000000012,-7.199465805013171
-0.2247,-7.155609754717355
-0.22570000000000012,-7.155609754717355
-0.2267,-7.199465805013171
-0.22770000000000012,-7.243321855308987
-0.22870000000000001,-7.28576319430494
-0.22970000000000013,-7.329619244600755
-0.23070000000000002,-7.37347529489657
-0.23170000000000013,-7.37347529489657
-0.23270000000000002,-7.4173313451923875
-0.23370000000000013,-7.4173313451923875
-0.23470000000000002,-7.4173313451923875
-0.23570000000000013,-7.4173313451923875
-0.23670000000000002,-7.37347529489657
-0.2376999999999999,-7.37347529489657
-0.23870000000000002,-7.37347529489657
-0.2396999999999999,-7.37347529489657
-0.24070000000000003,-7.4173313451923875
-0.24169999999999991,-7.461187395488204
-0.24270000000000003,-7.50504344578402
-0.24369999999999992,-7.5474847847799715
-0.24470000000000003,-7.635196885371603
-0.24569999999999992,-7.635196885371603
-0.24670000000000003,-7.679052935667419
-0.24769999999999992,-7.635196885371603
-0.24870000000000003,-7.635196885371603
-0.24969999999999992,-7.635196885371603
-0.25070000000000003,-7.591340835075788
-0.2516999999999999,-7.635196885371603
-0.25270000000000004,-7.635196885371603
-0.2536999999999999,-7.635196885371603
-0.25470000000000004,-7.722908985963235
-0.2556999999999999,-7.7653503249591855
-0.25670000000000004,-7.809206375255003
-0.25769999999999993,-7.853062425550818
-0.25870000000000004,-7.896918475846635
-0.25969999999999993,-7.940774526142452
-0.26070000000000004,-7.940774526142452
-0.26169999999999993,-7.940774526142452
-0.26270000000000004,-7.940774526142452
-0.26369999999999993,-7.896918475846635
-0.26470000000000005,-7.896918475846635
-0.26569999999999994,-7.940774526142452
-0.26670000000000005,-7.984630576438266
-0.26769999999999994,-8.027071915434218
-0.26870000000000005,-8.070927965730034
-0.26969999999999994,-8.158640066321666
-0.27070000000000005,-8.202496116617484
-0.27169999999999994,-8.246352166913299
-0.27270000000000005,-8.288793505909249
-0.27369999999999994,-8.332649556205066
-0.27470000000000006,-8.332649556205066
-0.27569999999999995,-8.332649556205066
-0.27670000000000006,-8.332649556205066
-0.27769999999999995,-8.332649556205066
-0.27870000000000006,-8.376505606500881
-0.27969999999999995,-8.376505606500881
-0.28070000000000006,-8.4203616567967
-0.28169999999999995,-8.464217707092514
-0.28270000000000006,-8.55051509638428
-0.28369999999999995,-8.638227196975913
-0.28470000000000006,-8.68208324727173
-0.28569999999999995,-8.725939297567548
-0.28670000000000007,-8.725939297567548
-0.28769999999999996,-8.725939297567548
-0.28870000000000007,-8.769795347863363
-0.28969999999999996,-8.769795347863363
-0.29070000000000007,-8.769795347863363
-0.29169999999999996,-8.812236686859313
-0.29270000000000007,-8.85609273715513
-0.29369999999999996,-8.899948787450944
-0.2947000000000001,-8.943804837746763
-0.29569999999999996,-9.031516938338395
-0.2967000000000001,-9.11781432763016
-0.29769999999999996,-9.205526428221793
-0.2987000000000001,-9.293238528813426
-0.29969999999999997,-9.335679867809377
-0.3007000000000001,-9.379535918105192
-0.30169999999999997,-9.379535918105192
-0.3027000000000001,-9.423391968401008
-0.30369999999999997,-9.423391968401008
-0.3047000000000001,-9.423391968401008
-0.30569999999999997,-9.511104068992642
-0.3067000000000001,-9.511104068992642
-0.3077,-9.59740145828441
-0.3087000000000001,-9.685113558876042
-0.3097,-9.772825659467674
-0.3107000000000001,-9.81668170976349
-0.3117,-9.902979099055257
-0.3127000000000001,-9.99069119964689
-0.3137,-10.034547249942705
-0.3147000000000001,-10.078403300238522
-0.3157,-10.120844639234473
-0.3167000000000001,-10.120844639234473
-0.3177,-10.164700689530287
-0.3187000000000001,-10.25241279012192
-0.3197,-10.296268840417738
-0.3207000000000001,-10.382566229709504
-0.3217,-10.470278330301136
-0.3227000000000001,-10.557990430892769
-0.3237,-10.644287820184536
-0.3247000000000001,-10.775855971071984
-0.3257,-10.863568071663616
-0.3267000000000001,-10.949865460955383
-0.3277,-10.993721511251199
-0.3287000000000001,-11.037577561547016
-0.3297,-11.081433611842833
-0.3307000000000001,-11.123874950838783
-0.3317,-11.211587051430415
-0.3327000000000001,-11.255443101726232
-0.3337,-11.343155202317865
-0.3347000000000001,-11.473308641905447
-0.3357,-11.56102074249708
-0.3367000000000001,-11.73503023238048
-0.3377,-11.82274233297211
-0.3387000000000001,-11.909039722263879
-0.3397,-12.040607873151327
-0.3407000000000001,-12.084463923447142
-0.3417,-12.170761312738911
-0.3427000000000001,-12.214617363034726
-0.3437,-12.302329463626359
-0.3447000000000001,-12.346185513922174
-0.3457,-12.476338953509758
-0.3467000000000001,-12.56405105410139
-0.3477,-12.694204493688973
-0.3487000000000001,-12.825772644576423
-0.3497,-12.955926084164007
-0.3507000000000001,-13.087494235051453
-0.3517,-13.217647674639037
-0.3527000000000001,-13.30535977523067
-0.3537,-13.436927926118118
-0.3547000000000001,-13.523225315409885
-0.3557,-13.610937416001518
-0.35670000000000013,-13.698649516593148
-0.3577,-13.784946905884919
-0.35870000000000013,-13.872659006476551
-0.3597,-14.002812446064135
-0.36070000000000013,-14.13438059695158
-0.3617,-14.30273124163552
-0.3626999999999999,-14.444202371622024
-0.3637,-14.61396772760583
-0.3646999999999999,-14.741291744593681
-0.3657,-14.868615761581536
-0.3666999999999999,-15.05252823056399
-0.3677,-15.137410908555893
-0.3686999999999999,-15.264734925543747
-0.36970000000000003,-15.3920589425316
-0.3706999999999999,-15.491088733522153
-0.37170000000000003,-15.618412750510005
-0.3726999999999999,-15.74573676749786
-0.37370000000000003,-15.91550212348166
-0.3746999999999999,-16.099414592464115
-0.37570000000000003,-16.269179948447924
-0.3766999999999999,-16.438945304431726
-0.37770000000000004,-16.665299112410132
-0.3786999999999999,-16.792623129397985
-0.37970000000000004,-16.962388485381787
-0.3806999999999999,-17.103859615368293
-0.38170000000000004,-17.231183632356142
-0.38269999999999993,-17.358507649344002
-0.38370000000000004,-17.542420118326454
-0.38469999999999993,-17.627302796318357
-0.38570000000000004,-17.839509491298113
-0.38669999999999993,-17.966833508285966
-0.38770000000000004,-18.19318731626437
-0.38869999999999993,-18.40539401124413
-0.38970000000000005,-18.631747819222536
-0.39069999999999994,-18.843954514202288
-0.39170000000000005,-19.01371987018609
-0.39269999999999994,-19.2400736781645
-0.39370000000000005,-19.409839034148305
-0.39469999999999994,-19.579604390132108
-0.39570000000000005,-19.763516859114564
-0.39669999999999994,-19.93328221509837
-0.39770000000000005,-20.10304757108217
-0.39869999999999994,-20.286960040064624
-0.39970000000000006,-20.456725396048434
-0.40069999999999995,-20.72552054302279
-0.40170000000000006,-20.89528589900659
-0.40269999999999995,-21.2065223849769
-0.40370000000000006,-21.418729079956652
-0.40469999999999995,-21.67337711393236
-0.40570000000000006,-21.899730921910766
-0.40669999999999995,-22.111937616890522
-0.40770000000000006,-22.33829142486893
-0.40869999999999995,-22.508056780852733
-0.40970000000000006,-22.72026347583249
-0.41069999999999995,-22.904175944814945
-0.41170000000000007,-23.1163826397947
-0.41269999999999996,-23.385177786769056
-0.41370000000000007,-23.597384481748815
-0.41469999999999996,-23.86617962872317
-0.41570000000000007,-24.120827662698876
-0.41669999999999996,-24.389622809673234
-0.41770000000000007,-24.686712182644893
-0.41869999999999996,-24.9130659906233
-0.4197000000000001,-25.167714024599
-0.42069999999999996,-25.43650917157336
-0.4217000000000001,-25.691157205549064
-0.42269999999999996,-25.91751101352747
-0.4237000000000001,-26.17215904750318
-0.42469999999999997,-26.483395533473487
-0.4257000000000001,-26.69560222845324
-0.42669999999999997,-27.00683871442355
-0.4277000000000001,-27.34636942639116
-0.42869999999999997,-27.65760591236147
-0.4297000000000001,-27.954695285333123
-0.43069999999999997,-28.308373110299385
-0.4317000000000001,-28.619609596269694
-0.4327,-28.8742576302454
-0.4337000000000001,-29.18549411621571
-0.4347,-29.440142150191413
-0.4357000000000001,-29.708937297165768
-0.4367,-29.96358533114148
-0.4377000000000001,-30.232380478115836
-0.4387,-30.529469851087494
-0.4397000000000001,-30.79826499806185
-0.4407,-31.095354371033505
-0.4417000000000001,-31.449032195999767
-0.4427,-31.76026868197007
-0.4437000000000001,-32.09979939393769
-0.4447,-32.45347721890394
-0.4457000000000001,-32.807155043870196
-0.4467,-33.14668575583781
-0.4477000000000001,-33.45792224180811
-0.4487,-33.755011614779775
-0.4497000000000001,-34.10868943974604
-0.4507,-34.41992592571634
-0.4517000000000001,-34.75945663768395
-0.4527,-35.07069312365426
-0.4537000000000001,-35.42437094862052
-0.4547,-35.806342999584075
-0.4557000000000001,-36.16002082455034
-0.4567,-36.5985813275085
-0.4577000000000001,-36.99470049147071
-0.4587,-37.334231203438314
-0.4597000000000001,-37.687909028404576
-0.4607,-38.04158685337084
-0.4617000000000001,-38.38111756533845
-0.4627,-38.692354051308754
-0.4637000000000001,-38.98944342428042
-0.4647,-39.34312124924667
-0.4657000000000001,-39.696799074212926
-0.4667,-40.03632978618054
-0.4677000000000001,-40.43244895014274
-0.4687,-40.87100945310091
-0.4697000000000001,-41.30956995605907
-0.4707,-41.74813045901723
-0.4717000000000001,-42.130102509980794
-0.4727,-42.568663012938956
-0.4737000000000001,-42.96478217690117
-0.4747,-43.36090134086337
-0.4757000000000001,-43.75702050482558
-0.4767,-44.138992555789144
-0.4777000000000001,-44.535111719751356
-0.4787,-44.97367222270952
-0.4797000000000001,-45.36979138667173
-0.4807,-45.79420477663124
-0.48170000000000013,-46.27520661858535
-0.4827,-46.713767121543505
-0.48370000000000013,-47.19476896349763
-0.4847,-47.67577080545174
-0.48570000000000013,-48.114331308409895
-0.4867,-48.59533315036401
-0.4876999999999999,-49.03389365332217
-0.4887,-49.50074838227763
-0.4896999999999999,-49.939308885235796
-0.4907,-50.37786938819396
-0.4916999999999999,-50.85887123014807
-0.4927,-51.33987307210218
-0.4936999999999999,-51.86331625305225
-0.49470000000000003,-52.386759434002315
-0.4956999999999999,-52.91020261495237
-0.49670000000000003,-53.433645795902436
-0.4976999999999999,-53.999530315848446
-0.49870000000000003,-54.480532157802564
-0.4996999999999999,-55.046416677748574
-0.5007,-55.527418519702685
-0.5016999999999999,-56.008420361656796
-0.5027,-56.53186354260687
-0.5036999999999999,-57.05530672355693
-0.5047,-57.53630856551105
-0.5056999999999999,-58.017310407465146
-0.5067,-58.54075358841522
-0.5076999999999999,-59.10663810836124
-0.5087,-59.67252262830725
-0.5096999999999999,-60.19596580925731
-0.5107,-60.71940899020737
-0.5116999999999999,-61.28529351015339
