Potential V vs RHE, Current mA cm-2
0.013299999999999867,-0.30755823659065895
0.012299999999999978,-1.2234423321232837
0.011299999999999866,-1.92117794521672
0.010299999999999976,-2.4884771764625997
0.009299999999999864,-2.968064307116847
0.008299999999999974,-3.273641947887695
0.007299999999999862,-3.5353635383627267
0.006299999999999972,-3.7532290785419424
0.00529999999999986,-3.927238568425342
0.0042999999999999705,-4.0588067193127895
0.0032999999999998586,-4.1889601589003735
0.0022999999999999687,-4.276672259492005
0.0012999999999998568,-4.364384360083638
0.00029999999999996696,-4.450681749375406
-0.000700000000000145,-4.494537799671222
-0.0017000000000000348,-4.582249900262854
-0.0027000000000001467,-4.626105950558669
-0.0037000000000000366,-4.668547289554621
-0.0047000000000001485,-4.712403339850438
-0.005700000000000038,-4.712403339850438
-0.00670000000000015,-4.712403339850438
-0.00770000000000004,-4.756259390146253
-0.008700000000000152,-4.800115440442069
-0.009700000000000042,-4.800115440442069
-0.010700000000000154,-4.843971490737885
-0.011700000000000044,-4.887827541033701
-0.012700000000000156,-4.887827541033701
-0.013700000000000045,-4.887827541033701
-0.014700000000000157,-4.887827541033701
-0.015700000000000047,-4.887827541033701
-0.01670000000000016,-4.887827541033701
-0.01770000000000005,-4.887827541033701
-0.01870000000000016,-4.887827541033701
-0.01970000000000005,-4.9302688800296535
-0.020700000000000163,-4.9302688800296535
-0.021700000000000053,-4.974124930325469
-0.022700000000000164,-4.974124930325469
-0.023700000000000054,-4.974124930325469
-0.024700000000000166,-4.974124930325469
-0.025700000000000056,-4.974124930325469
-0.026700000000000168,-4.974124930325469
-0.027700000000000058,-4.974124930325469
-0.02870000000000017,-4.974124930325469
-0.02970000000000006,-4.974124930325469
-0.03070000000000017,-5.017980980621284
-0.03170000000000006,-5.0618370309171015
-0.03270000000000017,-5.0618370309171015
-0.03370000000000006,-5.017980980621284
-0.034700000000000175,-5.017980980621284
-0.035700000000000065,-5.017980980621284
-0.03670000000000018,-5.017980980621284
-0.03770000000000007,-4.974124930325469
-0.03870000000000018,-5.017980980621284
-0.03970000000000007,-5.017980980621284
-0.04070000000000018,-5.0618370309171015
-0.04170000000000007,-5.0618370309171015
-0.04270000000000018,-5.0618370309171015
-0.04370000000000007,-5.0618370309171015
-0.044700000000000184,-5.0618370309171015
-0.045700000000000074,-5.017980980621284
-0.046700000000000186,-5.017980980621284
-0.047700000000000076,-5.017980980621284
-0.04870000000000019,-5.017980980621284
-0.04970000000000008,-5.017980980621284
-0.05070000000000019,-5.0618370309171015
-0.05170000000000008,-5.105693081212917
-0.05270000000000019,-5.0618370309171015
-0.05370000000000008,-5.0618370309171015
-0.05470000000000019,-5.0618370309171015
-0.05570000000000008,-5.0618370309171015
-0.056700000000000195,-5.0618370309171015
-0.057700000000000085,-5.0618370309171015
-0.058700000000000196,-5.0618370309171015
-0.059700000000000086,-5.0618370309171015
-0.0607000000000002,-5.105693081212917
-0.06170000000000009,-5.105693081212917
-0.0627000000000002,-5.149549131508733
-0.06370000000000009,-5.149549131508733
-0.0647000000000002,-5.149549131508733
-0.06570000000000009,-5.105693081212917
-0.0667000000000002,-5.0618370309171015
-0.0677000000000001,-5.105693081212917
-0.0687000000000002,-5.105693081212917
-0.0697000000000001,-5.105693081212917
-0.07070000000000021,-5.149549131508733
-0.0717000000000001,-5.149549131508733
-0.07270000000000021,-5.149549131508733
-0.0737000000000001,-5.149549131508733
-0.07470000000000021,-5.149549131508733
-0.0757000000000001,-5.149549131508733
-0.07670000000000021,-5.105693081212917
-0.0777000000000001,-5.105693081212917
-0.07870000000000021,-5.105693081212917
-0.0797000000000001,-5.149549131508733
-0.08070000000000022,-5.149549131508733
-0.0817000000000001,-5.191990470504685
-0.08270000000000022,-5.191990470504685
-0.08370000000000011,-5.191990470504685
-0.08470000000000022,-5.191990470504685
-0.08570000000000011,-5.191990470504685
-0.08670000000000022,-5.191990470504685
-0.08770000000000011,-5.191990470504685
-0.08870000000000022,-5.191990470504685
-0.08970000000000011,-5.191990470504685
-0.09070000000000022,-5.235846520800501
-0.09170000000000011,-5.279702571096316
-0.09270000000000023,-5.279702571096316
-0.09370000000000012,-5.235846520800501
-0.09470000000000023,-5.279702571096316
-0.09570000000000012,-5.235846520800501
-0.09670000000000023,-5.235846520800501
-0.09770000000000012,-5.279702571096316
-0.09870000000000023,-5.235846520800501
-0.09970000000000012,-5.279702571096316
-0.10070000000000023,-5.279702571096316
-0.10170000000000012,-5.323558621392133
-0.10270000000000024,-5.367414671687949
-0.10370000000000013,-5.323558621392133
-0.10470000000000024,-5.323558621392133
-0.10570000000000013,-5.323558621392133
-0.10670000000000024,-5.323558621392133
-0.10770000000000013,-5.323558621392133
-0.10870000000000024,-5.323558621392133
-0.10970000000000013,-5.367414671687949
-0.11070000000000024,-5.411270721983764
-0.11170000000000013,-5.411270721983764
-0.11270000000000002,-5.411270721983764
-0.11370000000000013,-5.453712060979717
-0.11470000000000002,-5.453712060979717
-0.11570000000000014,-5.453712060979717
-0.11670000000000003,-5.411270721983764
-0.11770000000000014,-5.453712060979717
-0.11870000000000003,-5.453712060979717
-0.11970000000000014,-5.453712060979717
-0.12070000000000003,-5.497568111275533
-0.12170000000000014,-5.497568111275533
-0.12270000000000003,-5.5414241615713475
-0.12370000000000014,-5.5414241615713475
-0.12470000000000003,-5.5414241615713475
-0.12570000000000014,-5.5414241615713475
-0.12670000000000003,-5.497568111275533
-0.12770000000000015,-5.5414241615713475
-0.12870000000000004,-5.5414241615713475
-0.12970000000000015,-5.5414241615713475
-0.13070000000000004,-5.585280211867165
-0.13170000000000015,-5.629136262162981
-0.13270000000000004,-5.629136262162981
-0.13370000000000015,-5.672992312458796
-0.13470000000000004,-5.672992312458796
-0.13570000000000015,-5.629136262162981
-0.13670000000000004,-5.629136262162981
-0.13770000000000016,-5.629136262162981
-0.13870000000000005,-5.672992312458796
-0.13970000000000016,-5.672992312458796
-0.14070000000000005,-5.759289701750564
-0.14170000000000016,-5.759289701750564
-0.14270000000000005,-5.759289701750564
-0.14370000000000016,-5.80314575204638
-0.14470000000000005,-5.80314575204638
-0.14570000000000016,-5.80314575204638
-0.14670000000000005,-5.759289701750564
-0.14770000000000016,-5.759289701750564
-0.14870000000000005,-5.80314575204638
-0.14970000000000017,-5.80314575204638
-0.15070000000000006,-5.847001802342197
-0.15170000000000017,-5.890857852638012
-0.15270000000000006,-5.890857852638012
-0.15370000000000017,-5.890857852638012
-0.15470000000000006,-5.9347139029338285
-0.15570000000000017,-5.9347139029338285
-0.15670000000000006,-5.890857852638012
-0.15770000000000017,-5.9347139029338285
-0.15870000000000006,-5.9347139029338285
-0.15970000000000018,-5.977155241929781
-0.16070000000000007,-6.021011292225596
-0.16170000000000018,-6.021011292225596
-0.16270000000000007,-6.021011292225596
-0.16370000000000018,-6.064867342521412
-0.16470000000000007,-6.108723392817228
-0.16570000000000018,-6.064867342521412
-0.16670000000000007,-6.064867342521412
-0.16770000000000018,-6.108723392817228
-0.16870000000000007,-6.108723392817228
-0.16970000000000018,-6.152579443113044
-0.17070000000000007,-6.196435493408861
-0.17170000000000019,-6.196435493408861
-0.17270000000000008,-6.238876832404812
-0.1737000000000002,-6.238876832404812
-0.17470000000000008,-6.282732882700628
-0.1757000000000002,-6.282732882700628
-0.17670000000000008,-6.282732882700628
-0.1777000000000002,-6.326588932996443
-0.17870000000000008,-6.282732882700628
-0.1797000000000002,-6.326588932996443
-0.18070000000000008,-6.37044498329226
-0.1817000000000002,-6.414301033588076
-0.18270000000000008,-6.458157083883892
-0.1837000000000002,-6.458157083883892
-0.1847000000000001,-6.458157083883892
-0.1857000000000002,-6.458157083883892
-0.1867000000000001,-6.458157083883892
-0.1877000000000002,-6.500598422879844
-0.1887000000000001,-6.54445447317566
-0.1897000000000002,-6.54445447317566
-0.1907000000000001,-6.632166573767292
-0.1917000000000001,-6.632166573767292
-0.19269999999999998,-6.6760226240631075
-0.1937000000000001,-6.6760226240631075
-0.19469999999999998,-6.719878674358924
-0.1957000000000001,-6.719878674358924
-0.19669999999999999,-6.719878674358924
-0.1977000000000001,-6.719878674358924
-0.1987,-6.762320013354876
-0.1997000000000001,-6.762320013354876
-0.2007,-6.850032113946507
-0.2017000000000001,-6.893888164242324
-0.2027,-6.893888164242324
-0.2037000000000001,-6.93774421453814
-0.2047,-6.93774421453814
-0.2057000000000001,-6.93774421453814
-0.2067,-6.981600264833956
-0.2077000000000001,-6.981600264833956
-0.2087,-7.024041603829907
-0.2097000000000001,-7.067897654125724
-0.2107,-7.111753704421539
-0.2117000000000001,-7.111753704421539
-0.2127,-7.155609754717355
-0.2137000000000001,-7.199465805013171
-0.2147,-7.199465805013171
-0.2157000000000001,-7.243321855308987
-0.2167,-7.28576319430494
-0.21770000000000012,-7.28576319430494
-0.2187,-7.329619244600755
-0.21970000000000012,-7.37347529489657
-0.2207,-7.4173313451923875
-0.22170000000000012,-7.461187395488204
-0.2227,-7.50504344578402
-0.22370000000000012,-7.50504344578402
-0.2247,-7.5474847847799715
-0.22570000000000012,-7.5474847847799715
-0.2267,-7.5474847847799715
-0.22770000000000012,-7.591340835075788
-0.22870000000000001,-7.635196885371603
-0.22970000000000013,-7.679052935667419
-0.23070000000000002,-7.7653503249591855
-0.23170000000000013,-7.7653503249591855
-0.23270000000000002,-7.809206375255003
-0.23370000000000013,-7.853062425550818
-0.23470000000000002,-7.853062425550818
-0.23570000000000013,-7.896918475846635
-0.23670000000000002,-7.896918475846635
-0.2376999999999999,-7.940774526142452
-0.23870000000000002,-7.984630576438266
-0.2396999999999999,-8.027071915434218
-0.24070000000000003,-8.070927965730034
-0.24169999999999991,-8.158640066321666
-0.24270000000000003,-8.202496116617484
-0.24369999999999992,-8.246352166913299
-0.24470000000000003,-8.246352166913299
-0.24569999999999992,-8.288793505909249
-0.24670000000000003,-8.288793505909249
-0.24769999999999992,-8.376505606500881
-0.24870000000000003,-8.376505606500881
-0.24969999999999992,-8.464217707092514
-0.25070000000000003,-8.508073757388331
-0.2516999999999999,-8.594371146680096
-0.25270000000000004,-8.638227196975913
-0.2536999999999999,-8.638227196975913
-0.25470000000000004,-8.68208324727173
-0.2556999999999999,-8.68208324727173
-0.25670000000000004,-8.725939297567548
-0.25769999999999993,-8.812236686859313
-0.25870000000000004,-8.85609273715513
-0.25969999999999993,-8.899948787450944
-0.26070000000000004,-8.987660888042578
-0.26169999999999993,-9.031516938338395
-0.26270000000000004,-9.11781432763016
-0.26369999999999993,-9.161670377925978
-0.26470000000000005,-9.205526428221793
-0.26569999999999994,-9.24938247851761
-0.26670000000000005,-9.293238528813426
-0.26769999999999994,-9.379535918105192
-0.26870000000000005,-9.423391968401008
-0.26969999999999994,-9.467248018696827
-0.27070000000000005,-9.55496011928846
-0.27169999999999994,-9.641257508580225
-0.27270000000000005,-9.728969609171857
-0.27369999999999994,-9.81668170976349
-0.27470000000000006,-9.85912304875944
-0.27569999999999995,-9.902979099055257
-0.27670000000000006,-9.946835149351072
-0.27769999999999995,-10.034547249942705
-0.27870000000000006,-10.078403300238522
-0.27969999999999995,-10.164700689530287
-0.28070000000000006,-10.296268840417738
-0.28169999999999995,-10.340124890713554
-0.28270000000000006,-10.42642228000532
-0.28369999999999995,-10.514134380596953
-0.28470000000000006,-10.601846481188586
-0.28569999999999995,-10.644287820184536
-0.28670000000000007,-10.688143870480351
-0.28769999999999996,-10.775855971071984
-0.28870000000000007,-10.863568071663616
-0.28969999999999996,-10.949865460955383
-0.29070000000000007,-11.081433611842833
-0.29169999999999996,-11.1677310011346
-0.29270000000000007,-11.255443101726232
-0.29369999999999996,-11.343155202317865
-0.2947000000000001,-11.42945259160963
-0.29569999999999996,-11.517164692201263
-0.2967000000000001,-11.604876792792895
-0.29769999999999996,-11.691174182084664
-0.2987000000000001,-11.778886282676295
-0.29969999999999997,-11.909039722263879
-0.3007000000000001,-11.996751822855511
-0.30169999999999997,-12.12831997374296
-0.3027000000000001,-12.258473413330542
-0.30369999999999997,-12.346185513922174
-0.3047000000000001,-12.476338953509758
-0.30569999999999997,-12.520195003805576
-0.3067000000000001,-12.607907104397206
-0.3077,-12.73806054398479
-0.3087000000000001,-12.869628694872238
-0.3097,-12.955926084164007
-0.3107000000000001,-13.087494235051453
-0.3117,-13.217647674639037
-0.3127000000000001,-13.349215825526485
-0.3137,-13.47936926511407
-0.3147000000000001,-13.610937416001518
-0.3157,-13.698649516593148
-0.3167000000000001,-13.784946905884919
-0.3177,-13.916515056772363
-0.3187000000000001,-14.046668496359947
-0.3197,-14.175407224647667
-0.3207000000000001,-14.345172580631472
-0.3217,-14.486643710617974
-0.3227000000000001,-14.61396772760583
-0.3237,-14.741291744593681
-0.3247000000000001,-14.868615761581536
-0.3257,-15.01008689156804
-0.3267000000000001,-15.137410908555893
-0.3277,-15.264734925543747
-0.3287000000000001,-15.448647394526201
-0.3297,-15.575971411514052
-0.3307000000000001,-15.74573676749786
-0.3317,-15.91550212348166
-0.3327000000000001,-16.099414592464115
-0.3337,-16.22673860945197
-0.3347000000000001,-16.396503965435777
-0.3357,-16.53797509542228
-0.3367000000000001,-16.665299112410132
-0.3377,-16.835064468393938
-0.3387000000000001,-17.018976937376394
-0.3397,-17.188742293360193
-0.3407000000000001,-17.358507649344002
-0.3417,-17.542420118326454
-0.3427000000000001,-17.71218547431026
-0.3437,-17.881950830294063
-0.3447000000000001,-18.06586329927652
-0.3457,-18.23562865526032
-0.3467000000000001,-18.40539401124413
-0.3477,-18.589306480226583
-0.3487000000000001,-18.80151317520634
-0.3497,-18.97127853119014
-0.3507000000000001,-19.2400736781645
-0.3517,-19.409839034148305
-0.3527000000000001,-19.636192842126707
-0.3537,-19.848399537106463
-0.3547000000000001,-20.01816489309027
-0.3557,-20.244518701068674
-0.35670000000000013,-20.414284057052477
-0.3577,-20.626490752032236
-0.35870000000000013,-20.85284456001064
-0.3597,-21.065051254990397
-0.36070000000000013,-21.333846401964752
-0.3617,-21.54605309694451
-0.3626999999999999,-21.814848243918867
-0.3637,-22.027054938898623
-0.3646999999999999,-22.196820294882425
-0.3657,-22.42317410286083
-0.3666999999999999,-22.63538079784059
-0.3677,-22.861734605818995
-0.3686999999999999,-23.1163826397947
-0.36970000000000003,-23.385177786769056
-0.3706999999999999,-23.639825820744765
-0.37170000000000003,-23.908620967719123
-0.3726999999999999,-24.120827662698876
-0.37370000000000003,-24.389622809673234
-0.3746999999999999,-24.64427084364894
-0.37570000000000003,-24.870624651627345
-0.3766999999999999,-25.0828313466071
-0.37770000000000004,-25.337479380582806
-0.3786999999999999,-25.60627452755716
-0.37970000000000004,-25.86092256153287
-0.3806999999999999,-26.129717708507226
-0.38170000000000004,-26.38436574248293
-0.38269999999999993,-26.65316088945729
-0.38370000000000004,-26.907808923433
-0.38469999999999993,-27.176604070407354
-0.38570000000000004,-27.43125210438306
-0.38669999999999993,-27.65760591236147
-0.38770000000000004,-27.954695285333123
-0.38869999999999993,-28.22349043230748
-0.38970000000000005,-28.53472691827779
-0.39069999999999994,-28.831816291249446
-0.39170000000000005,-29.100611438223805
-0.39269999999999994,-29.39770081119546
-0.39370000000000005,-29.708937297165768
-0.39469999999999994,-29.96358533114148
-0.39570000000000005,-30.232380478115836
-0.39669999999999994,-30.529469851087494
-0.39770000000000005,-30.79826499806185
-0.39869999999999994,-31.095354371033505
-0.39970000000000006,-31.40659085700382
-0.40069999999999995,-31.802710020966025
-0.40170000000000006,-32.14224073293363
-0.40269999999999995,-32.45347721890394
-0.40370000000000006,-32.764713704874254
-0.40469999999999995,-33.06180307784591
-0.40570000000000006,-33.41548090281216
-0.40669999999999995,-33.712570275783825
-0.40770000000000006,-33.98136542275818
-0.40869999999999995,-34.278454795729836
-0.40970000000000006,-34.67457395969205
-0.41069999999999995,-35.07069312365426
-0.41170000000000007,-35.42437094862052
-0.41269999999999996,-35.721460321592176
-0.41370000000000007,-36.07513814655844
-0.41469999999999996,-36.4288159715247
-0.41570000000000007,-36.725905344496354
-0.41669999999999996,-37.037141830466666
-0.41770000000000007,-37.376672542434264
-0.41869999999999996,-37.73035036740053
-0.4197000000000001,-38.12646953136274
-0.42069999999999996,-38.522588695324956
-0.4217000000000001,-38.86211940729255
-0.42269999999999996,-39.21579723225882
-0.4237000000000001,-39.61191639622103
-0.42469999999999997,-39.95144710818864
-0.4257000000000001,-40.30512493315489
-0.42669999999999997,-40.65880275812115
-0.4277000000000001,-41.04077480908471
-0.42869999999999997,-41.43689397304693
-0.4297000000000001,-41.83301313700913
-0.43069999999999997,-42.2715736399673
-0.4317000000000001,-42.6111043519349
-0.4327,-43.007223515897124
-0.4337000000000001,-43.44578401885527
-0.4347,-43.84190318281749
-0.4357000000000001,-44.28046368577565
-0.4367,-44.619994397743255
-0.4377000000000001,-45.01611356170547
-0.4387,-45.45467406466363
-0.4397000000000001,-45.89323456762179
-0.4407,-46.3176479575813
-0.4417000000000001,-46.79864979953541
-0.4427,-47.23721030249357
-0.4437000000000001,-47.633329466455784
-0.4447,-48.029448630417996
-0.4457000000000001,-48.41142068138156
-0.4467,-48.84998118433972
-0.4477000000000001,-49.28854168729788
-0.4487,-49.72710219025603
-0.4497000000000001,-50.1656626932142
-0.4507,-50.60422319617236
-0.4517000000000001,-51.028636586131874
-0.4527,-51.509638428085985
-0.4537000000000001,-51.948198931044146
-0.4547,-52.386759434002315
-0.4557000000000001,-52.82531993696047
-0.4567,-53.26388043991864
-0.4577000000000001,-53.68829382987814
-0.4587,-54.1268543328363
-0.4597000000000001,-54.60785617479041
-0.4607,-55.088858016744524
-0.4617000000000001,-55.612301197694585
-0.4627,-56.05086170065276
-0.4637000000000001,-56.53186354260687
-0.4647,-56.97042404556503
-0.4657000000000001,-57.45142588751914
-0.4667,-57.93242772947325
-0.4677000000000001,-58.498312249419264
-0.4687,-58.97931409137338
-0.4697000000000001,-59.403727481332886
-0.4707,-59.842287984291055
-0.4717000000000001,-60.40817250423707
-0.4727,-61.01649836317903
-0.4737000000000001,-61.53994154412909
-0.4747,-61.936060708091304
-0.4757000000000001,-62.33217987205352
-0.4767,-62.81318171400764
-0.4777000000000001,-63.3366248949577
-0.4787,-63.860068075907755
-0.4797000000000001,-64.38351125685783
-0.4807,-64.94939577680383
-0.48170000000000013,-65.43039761875795
-0.4827,-65.91139946071206
-0.48370000000000013,-66.39240130266617
-0.4847,-66.9582858226122
-0.48570000000000013,-67.52417034255821
-0.4867,-67.25537519558385
-0.48570000000000013,-65.82651678272015
-0.4847,-64.63815929083353
-0.48370000000000013,-63.633714267929356
-0.4827,-62.81318171400764
-0.48170000000000013,-61.97850204708726
-0.4807,-61.20041083216149
-0.4797000000000001,-60.40817250423707
-0.4787,-59.587639950315335
-0.4777000000000001,-58.79540162239092
-0.4767,-58.05975174646111
-0.4757000000000001,-57.352396096528594
-0.4747,-56.65918755959472
-0.4737000000000001,-55.96597902266086
-0.4727,-55.21618203373238
-0.4717000000000001,-54.52297349679851
-0.4707,-53.82976495986464
-0.4697000000000001,-53.22143910092268
-0.4687,-52.55652478998611
-0.4677000000000001,-51.86331625305225
-0.4667,-51.17010771611838
-0.4657000000000001,-50.50519340518181
-0.4647,-49.89686754623985
-0.4637000000000001,-49.24610034830193
-0.4627,-48.59533315036401
-0.4617000000000001,-47.987007291422046
