Potential V vs RHE, Current mA cm-2
0.013299999999999867,-0.3511313446265021
0.012299999999999978,-1.1362961160515976
0.011299999999999866,-1.7033124050375041
0.010299999999999976,-2.095187435100119
0.009299999999999864,-2.4007650758709675
0.008299999999999974,-2.618630616050183
0.007299999999999862,-2.794054817233447
0.006299999999999972,-2.8803522065252145
0.00529999999999986,-2.968064307116847
0.0042999999999999705,-3.0119203574126634
0.0032999999999998586,-3.055776407708479
0.0022999999999999687,-3.1420737970002466
0.0012999999999998568,-3.1859298472960624
0.00029999999999996696,-3.2297858975918787
-0.000700000000000145,-3.2297858975918787
-0.0017000000000000348,-3.2297858975918787
-0.0027000000000001467,-3.273641947887695
-0.0037000000000000366,-3.317497998183511
-0.0047000000000001485,-3.361354048479327
-0.005700000000000038,-3.361354048479327
-0.00670000000000015,-3.361354048479327
-0.00770000000000004,-3.361354048479327
-0.008700000000000152,-3.361354048479327
-0.009700000000000042,-3.361354048479327
-0.010700000000000154,-3.403795387475278
-0.011700000000000044,-3.447651437771094
-0.012700000000000156,-3.447651437771094
-0.013700000000000045,-3.447651437771094
-0.014700000000000157,-3.403795387475278
-0.015700000000000047,-3.403795387475278
-0.01670000000000016,-3.447651437771094
-0.01770000000000005,-3.4915074880669104
-0.01870000000000016,-3.4915074880669104
-0.01970000000000005,-3.447651437771094
-0.020700000000000163,-3.447651437771094
-0.021700000000000053,-3.447651437771094
-0.022700000000000164,-3.447651437771094
-0.023700000000000054,-3.4915074880669104
-0.024700000000000166,-3.4915074880669104
-0.025700000000000056,-3.5353635383627267
-0.026700000000000168,-3.4915074880669104
-0.027700000000000058,-3.4915074880669104
-0.02870000000000017,-3.447651437771094
-0.02970000000000006,-3.4915074880669104
-0.03070000000000017,-3.5353635383627267
-0.03170000000000006,-3.4915074880669104
-0.03270000000000017,-3.5353635383627267
-0.03370000000000006,-3.4915074880669104
-0.034700000000000175,-3.4915074880669104
-0.035700000000000065,-3.4915074880669104
-0.03670000000000018,-3.4915074880669104
-0.03770000000000007,-3.5353635383627267
-0.03870000000000018,-3.5353635383627267
-0.03970000000000007,-3.5353635383627267
-0.04070000000000018,-3.4915074880669104
-0.04170000000000007,-3.4915074880669104
-0.04270000000000018,-3.4915074880669104
-0.04370000000000007,-3.5353635383627267
-0.044700000000000184,-3.5353635383627267
-0.045700000000000074,-3.579219588658543
-0.046700000000000186,-3.5353635383627267
-0.047700000000000076,-3.4915074880669104
-0.04870000000000019,-3.5353635383627267
-0.04970000000000008,-3.5353635383627267
-0.05070000000000019,-3.5353635383627267
-0.05170000000000008,-3.5353635383627267
-0.05270000000000019,-3.579219588658543
-0.05370000000000008,-3.5353635383627267
-0.05470000000000019,-3.5353635383627267
-0.05570000000000008,-3.4915074880669104
-0.056700000000000195,-3.5353635383627267
-0.057700000000000085,-3.579219588658543
-0.058700000000000196,-3.579219588658543
-0.059700000000000086,-3.5353635383627267
-0.0607000000000002,-3.5353635383627267
-0.06170000000000009,-3.5353635383627267
-0.0627000000000002,-3.5353635383627267
-0.06370000000000009,-3.579219588658543
-0.0647000000000002,-3.579219588658543
-0.06570000000000009,-3.623075638954359
-0.0667000000000002,-3.579219588658543
-0.0677000000000001,-3.5353635383627267
-0.0687000000000002,-3.5353635383627267
-0.0697000000000001,-3.579219588658543
-0.07070000000000021,-3.579219588658543
-0.0717000000000001,-3.579219588658543
-0.07270000000000021,-3.623075638954359
-0.0737000000000001,-3.579219588658543
-0.07470000000000021,-3.579219588658543
-0.0757000000000001,-3.579219588658543
-0.07670000000000021,-3.579219588658543
-0.0777000000000001,-3.623075638954359
-0.07870000000000021,-3.623075638954359
-0.0797000000000001,-3.623075638954359
-0.08070000000000022,-3.623075638954359
-0.0817000000000001,-3.579219588658543
-0.08270000000000022,-3.579219588658543
-0.08370000000000011,-3.623075638954359
-0.08470000000000022,-3.6655169779503103
-0.08570000000000011,-3.6655169779503103
-0.08670000000000022,-3.6655169779503103
-0.08770000000000011,-3.623075638954359
-0.08870000000000022,-3.623075638954359
-0.08970000000000011,-3.6655169779503103
-0.09070000000000022,-3.6655169779503103
-0.09170000000000011,-3.6655169779503103
-0.09270000000000023,-3.7093730282461257
-0.09370000000000012,-3.6655169779503103
-0.09470000000000023,-3.6655169779503103
-0.09570000000000012,-3.623075638954359
-0.09670000000000023,-3.6655169779503103
-0.09770000000000012,-3.7093730282461257
-0.09870000000000023,-3.7093730282461257
-0.09970000000000012,-3.7093730282461257
-0.10070000000000023,-3.6655169779503103
-0.10170000000000012,-3.6655169779503103
-0.10270000000000024,-3.6655169779503103
-0.10370000000000013,-3.7093730282461257
-0.10470000000000024,-3.7532290785419424
-0.10570000000000013,-3.7532290785419424
-0.10670000000000024,-3.7532290785419424
-0.10770000000000013,-3.7093730282461257
-0.10870000000000024,-3.7093730282461257
-0.10970000000000013,-3.7532290785419424
-0.11070000000000024,-3.7532290785419424
-0.11170000000000013,-3.7532290785419424
-0.11270000000000002,-3.7970851288377587
-0.11370000000000013,-3.7532290785419424
-0.11470000000000002,-3.7532290785419424
-0.11570000000000014,-3.7532290785419424
-0.11670000000000003,-3.7532290785419424
-0.11770000000000014,-3.7970851288377587
-0.11870000000000003,-3.840941179133574
-0.11970000000000014,-3.7970851288377587
-0.12070000000000003,-3.7970851288377587
-0.12170000000000014,-3.7970851288377587
-0.12270000000000003,-3.7970851288377587
-0.12370000000000014,-3.840941179133574
-0.12470000000000003,-3.884797229429391
-0.12570000000000014,-3.884797229429391
-0.12670000000000003,-3.884797229429391
-0.12770000000000015,-3.840941179133574
-0.12870000000000004,-3.840941179133574
-0.12970000000000015,-3.884797229429391
-0.13070000000000004,-3.927238568425342
-0.13170000000000015,-3.927238568425342
-0.13270000000000004,-3.927238568425342
-0.13370000000000015,-3.927238568425342
-0.13470000000000004,-3.927238568425342
-0.13570000000000015,-3.927238568425342
-0.13670000000000004,-3.927238568425342
-0.13770000000000016,-3.971094618721158
-0.13870000000000005,-4.014950669016974
-0.13970000000000016,-4.014950669016974
-0.14070000000000005,-3.971094618721158
-0.14170000000000016,-3.971094618721158
-0.14270000000000005,-3.971094618721158
-0.14370000000000016,-4.014950669016974
-0.14470000000000005,-4.0588067193127895
-0.14570000000000016,-4.0588067193127895
-0.14670000000000005,-4.0588067193127895
-0.14770000000000016,-4.014950669016974
-0.14870000000000005,-4.014950669016974
-0.14970000000000017,-4.0588067193127895
-0.15070000000000006,-4.102662769608606
-0.15170000000000017,-4.102662769608606
-0.15270000000000006,-4.146518819904423
-0.15370000000000017,-4.102662769608606
-0.15470000000000006,-4.102662769608606
-0.15570000000000017,-4.102662769608606
-0.15670000000000006,-4.102662769608606
-0.15770000000000017,-4.1889601589003735
-0.15870000000000006,-4.1889601589003735
-0.15970000000000018,-4.146518819904423
-0.16070000000000007,-4.146518819904423
-0.16170000000000018,-4.1889601589003735
-0.16270000000000007,-4.1889601589003735
-0.16370000000000018,-4.1889601589003735
-0.16470000000000007,-4.276672259492005
-0.16570000000000018,-4.276672259492005
-0.16670000000000007,-4.276672259492005
-0.16770000000000018,-4.23281620919619
-0.16870000000000007,-4.23281620919619
-0.16970000000000018,-4.276672259492005
-0.17070000000000007,-4.3205283097878215
-0.17170000000000019,-4.3205283097878215
-0.17270000000000008,-4.364384360083638
-0.1737000000000002,-4.364384360083638
-0.17470000000000008,-4.364384360083638
-0.1757000000000002,-4.364384360083638
-0.17670000000000008,-4.364384360083638
-0.1777000000000002,-4.450681749375406
-0.17870000000000008,-4.450681749375406
-0.1797000000000002,-4.406825699079589
-0.18070000000000008,-4.406825699079589
-0.1817000000000002,-4.450681749375406
-0.18270000000000008,-4.406825699079589
-0.1837000000000002,-4.450681749375406
-0.1847000000000001,-4.538393849967037
-0.1857000000000002,-4.538393849967037
-0.1867000000000001,-4.538393849967037
-0.1877000000000002,-4.538393849967037
-0.1887000000000001,-4.538393849967037
-0.1897000000000002,-4.582249900262854
-0.1907000000000001,-4.582249900262854
-0.1917000000000001,-4.626105950558669
-0.19269999999999998,-4.626105950558669
-0.1937000000000001,-4.626105950558669
-0.19469999999999998,-4.626105950558669
-0.1957000000000001,-4.626105950558669
-0.19669999999999999,-4.668547289554621
-0.1977000000000001,-4.756259390146253
-0.1987,-4.756259390146253
-0.1997000000000001,-4.756259390146253
-0.2007,-4.756259390146253
-0.2017000000000001,-4.756259390146253
-0.2027,-4.756259390146253
-0.2037000000000001,-4.800115440442069
-0.2047,-4.843971490737885
-0.2057000000000001,-4.887827541033701
-0.2067,-4.887827541033701
-0.2077000000000001,-4.887827541033701
-0.2087,-4.887827541033701
-0.2097000000000001,-4.9302688800296535
-0.2107,-4.9302688800296535
-0.2117000000000001,-4.974124930325469
-0.2127,-5.017980980621284
-0.2137000000000001,-5.017980980621284
-0.2147,-5.017980980621284
-0.2157000000000001,-5.0618370309171015
-0.2167,-5.105693081212917
-0.21770000000000012,-5.105693081212917
-0.2187,-5.149549131508733
-0.21970000000000012,-5.149549131508733
-0.2207,-5.191990470504685
-0.22170000000000012,-5.191990470504685
-0.2227,-5.235846520800501
-0.22370000000000012,-5.235846520800501
-0.2247,-5.323558621392133
-0.22570000000000012,-5.323558621392133
-0.2267,-5.323558621392133
-0.22770000000000012,-5.367414671687949
-0.22870000000000001,-5.367414671687949
-0.22970000000000013,-5.411270721983764
-0.23070000000000002,-5.453712060979717
-0.23170000000000013,-5.497568111275533
-0.23270000000000002,-5.5414241615713475
-0.23370000000000013,-5.5414241615713475
-0.23470000000000002,-5.5414241615713475
-0.23570000000000013,-5.5414241615713475
-0.23670000000000002,-5.585280211867165
-0.2376999999999999,-5.672992312458796
-0.23870000000000002,-5.715433651454749
-0.2396999999999999,-5.715433651454749
-0.24070000000000003,-5.715433651454749
-0.24169999999999991,-5.759289701750564
-0.24270000000000003,-5.80314575204638
-0.24369999999999992,-5.847001802342197
-0.24470000000000003,-5.9347139029338285
-0.24569999999999992,-5.977155241929781
-0.24670000000000003,-5.977155241929781
-0.24769999999999992,-5.977155241929781
-0.24870000000000003,-6.021011292225596
-0.24969999999999992,-6.064867342521412
-0.25070000000000003,-6.108723392817228
-0.2516999999999999,-6.196435493408861
-0.25270000000000004,-6.238876832404812
-0.2536999999999999,-6.238876832404812
-0.25470000000000004,-6.238876832404812
-0.2556999999999999,-6.282732882700628
-0.25670000000000004,-6.37044498329226
-0.25769999999999993,-6.414301033588076
-0.25870000000000004,-6.458157083883892
-0.25969999999999993,-6.500598422879844
-0.26070000000000004,-6.54445447317566
-0.26169999999999993,-6.588310523471475
-0.26270000000000004,-6.632166573767292
-0.26369999999999993,-6.6760226240631075
-0.26470000000000005,-6.762320013354876
-0.26569999999999994,-6.806176063650692
-0.26670000000000005,-6.893888164242324
-0.26769999999999994,-6.893888164242324
-0.26870000000000005,-6.93774421453814
-0.26969999999999994,-7.024041603829907
-0.27070000000000005,-7.067897654125724
-0.27169999999999994,-7.155609754717355
-0.27270000000000005,-7.243321855308987
-0.27369999999999994,-7.28576319430494
-0.27470000000000006,-7.329619244600755
-0.27569999999999995,-7.37347529489657
-0.27670000000000006,-7.461187395488204
-0.27769999999999995,-7.5474847847799715
-0.27870000000000006,-7.635196885371603
-0.27969999999999995,-7.679052935667419
-0.28070000000000006,-7.722908985963235
-0.28169999999999995,-7.7653503249591855
-0.28270000000000006,-7.809206375255003
-0.28369999999999995,-7.940774526142452
-0.28470000000000006,-8.027071915434218
-0.28569999999999995,-8.11478401602585
-0.28670000000000007,-8.158640066321666
-0.28769999999999996,-8.202496116617484
-0.28870000000000007,-8.288793505909249
-0.28969999999999996,-8.376505606500881
-0.29070000000000007,-8.464217707092514
-0.29169999999999996,-8.55051509638428
-0.29270000000000007,-8.638227196975913
-0.29369999999999996,-8.725939297567548
-0.2947000000000001,-8.769795347863363
-0.29569999999999996,-8.85609273715513
-0.2967000000000001,-8.943804837746763
-0.29769999999999996,-9.073958277334345
-0.2987000000000001,-9.205526428221793
-0.29969999999999997,-9.24938247851761
-0.3007000000000001,-9.335679867809377
-0.30169999999999997,-9.423391968401008
-0.3027000000000001,-9.55496011928846
-0.30369999999999997,-9.641257508580225
-0.3047000000000001,-9.772825659467674
-0.30569999999999997,-9.902979099055257
-0.3067000000000001,-9.99069119964689
-0.3077,-10.078403300238522
-0.3087000000000001,-10.164700689530287
-0.3097,-10.296268840417738
-0.3107000000000001,-10.42642228000532
-0.3117,-10.557990430892769
-0.3127000000000001,-10.688143870480351
-0.3137,-10.775855971071984
-0.3147000000000001,-10.863568071663616
-0.3157,-10.993721511251199
-0.3167000000000001,-11.1677310011346
-0.3177,-11.255443101726232
-0.3187000000000001,-11.42945259160963
-0.3197,-11.517164692201263
-0.3207000000000001,-11.647318131788847
-0.3217,-11.778886282676295
-0.3227000000000001,-11.909039722263879
-0.3237,-12.084463923447142
-0.3247000000000001,-12.214617363034726
-0.3257,-12.390041564217992
-0.3267000000000001,-12.520195003805576
-0.3277,-12.651763154693022
-0.3287000000000001,-12.781916594280606
-0.3297,-12.955926084164007
-0.3307000000000001,-13.087494235051453
-0.3317,-13.261503724934855
-0.3327000000000001,-13.436927926118118
-0.3337,-13.567081365705702
-0.3347000000000001,-13.698649516593148
-0.3357,-13.828802956180734
-0.3367000000000001,-14.002812446064135
-0.3377,-14.217848563643619
-0.3387000000000001,-14.401761032626075
-0.3397,-14.57152638860988
-0.3407000000000001,-14.741291744593681
-0.3417,-14.868615761581536
-0.3427000000000001,-15.05252823056399
-0.3437,-15.222293586547794
-0.3447000000000001,-15.448647394526201
-0.3457,-15.618412750510005
-0.3467000000000001,-15.74573676749786
-0.3477,-15.91550212348166
-0.3487000000000001,-16.099414592464115
-0.3497,-16.311621287443874
-0.3507000000000001,-16.495533756426326
-0.3517,-16.70774045140608
-0.3527000000000001,-16.877505807389888
-0.3537,-17.103859615368293
-0.3547000000000001,-17.2736249713521
-0.3557,-17.4433903273359
-0.35670000000000013,-17.669744135314307
-0.3577,-17.924392169290012
-0.35870000000000013,-18.19318731626437
-0.3597,-18.320511333252224
-0.36070000000000013,-18.589306480226583
-0.3617,-18.759071836210385
-0.3626999999999999,-18.97127853119014
-0.3637,-19.2400736781645
-0.3646999999999999,-19.452280373144255
-0.3657,-19.763516859114564
-0.3666999999999999,-19.97572355409432
-0.3677,-20.159636023076775
-0.3686999999999999,-20.371842718056527
-0.36970000000000003,-20.683079204026836
-0.3706999999999999,-20.89528589900659
-0.37170000000000003,-21.149933932982297
-0.3726999999999999,-21.418729079956652
-0.37370000000000003,-21.63093577493641
-0.3746999999999999,-21.857289582914817
-0.37570000000000003,-22.069496277894572
-0.3766999999999999,-22.33829142486893
-0.37770000000000004,-22.592939458844636
-0.3786999999999999,-22.861734605818995
-0.37970000000000004,-23.1163826397947
-0.3806999999999999,-23.385177786769056
-0.38170000000000004,-23.597384481748815
-0.38269999999999993,-23.86617962872317
-0.38370000000000004,-24.16326900169483
-0.38469999999999993,-24.432064148669184
-0.38570000000000004,-24.729153521640843
-0.38669999999999993,-24.95550732961925
-0.38770000000000004,-25.210155363594954
-0.38869999999999993,-25.478950510569312
-0.38970000000000005,-25.77603988354097
-0.39069999999999994,-26.087276369511276
-0.39170000000000005,-26.38436574248293
-0.39269999999999994,-26.738043567449193
-0.39370000000000005,-27.00683871442355
-0.39469999999999994,-27.261486748399253
-0.39570000000000005,-27.615164573365515
-0.39669999999999994,-27.912253946337174
-0.39770000000000005,-28.22349043230748
-0.39869999999999994,-28.53472691827779
-0.39970000000000006,-28.831816291249446
-0.40069999999999995,-29.14305277721976
-0.40170000000000006,-29.39770081119546
-0.40269999999999995,-29.708937297165768
-0.40370000000000006,-30.04846800913338
-0.40469999999999995,-30.402145834099635
-0.40570000000000006,-30.71338232006995
-0.40669999999999995,-31.010471693041605
-0.40770000000000006,-31.321708179011907
-0.40869999999999995,-31.618797551983565
-0.40970000000000006,-31.930034037953877
-0.41069999999999995,-32.283711862920136
-0.41170000000000007,-32.62324257488775
-0.41269999999999996,-32.97692039985401
-0.41370000000000007,-33.288156885824314
-0.41469999999999996,-33.627687597791926
-0.41570000000000007,-33.98136542275818
-0.41669999999999996,-34.377484586720385
-0.41770000000000007,-34.75945663768395
-0.41869999999999996,-35.15557580164616
-0.4197000000000001,-35.50925362661242
-0.42069999999999996,-35.90537279057463
-0.4217000000000001,-36.244903502542236
-0.42269999999999996,-36.64102266650445
-0.4237000000000001,-37.037141830466666
-0.42469999999999997,-37.41911388143023
-0.4257000000000001,-37.85767438438838
-0.42669999999999997,-38.211352209354644
-0.4277000000000001,-38.5650300343209
-0.42869999999999997,-38.94700208528445
-0.4297000000000001,-39.34312124924667
-0.43069999999999997,-39.739240413208876
-0.4317000000000001,-40.135359577171094
-0.4327,-40.51733162813464
-0.4337000000000001,-40.87100945310091
-0.4347,-41.267128617063115
-0.4357000000000001,-41.66324778102533
-0.4367,-42.00277849299294
-0.4377000000000001,-42.39889765695515
-0.4387,-42.79501682091736
-0.4397000000000001,-43.09210619388902
-0.4407,-43.44578401885527
-0.4417000000000001,-43.84190318281749
-0.4427,-44.3229050247716
-0.4437000000000001,-44.74731841473111
-0.4447,-45.143437578693316
-0.4457000000000001,-45.53955674265553
-0.4467,-46.062999923605595
-0.4477000000000001,-46.544001765559706
-0.4487,-46.94012092952192
-0.4497000000000001,-47.27965164148953
-0.4507,-47.76065348344364
-0.4517000000000001,-48.2840966643937
-0.4527,-48.76509850634781
-0.4537000000000001,-49.076334992318124
-0.4547,-49.50074838227763
-0.4557000000000001,-49.98175022423175
-0.4567,-50.46275206618586
-0.4577000000000001,-50.90131256914402
-0.4587,-51.33987307210218
-0.4597000000000001,-51.82087491405629
-0.4607,-52.25943541701445
-0.4617000000000001,-52.69799591997262
-0.4627,-53.079967970936174
-0.4637000000000001,-53.56096981289029
-0.4647,-53.9570889768525
-0.4657000000000001,-54.39564947981066
-0.4667,-54.834209982768826
-0.4677000000000001,-55.25862337272834
-0.4687,-55.73962521468245
-0.4697000000000001,-56.1781857176406
-0.4707,-56.74407023758662
-0.4717000000000001,-57.26751341853669
-0.4727,-57.7485152604908
-0.4737000000000001,-58.18707576344896
-0.4747,-58.66807760540307
-0.4757000000000001,-59.14907944735718
-0.4767,-59.67252262830725
-0.4777000000000001,-60.19596580925731
-0.4787,-60.67696765121143
-0.4797000000000001,-61.15796949316553
-0.4807,-61.6814126741156
-0.48170000000000013,-62.16241451606972
-0.4827,-62.58682790602922
-0.48370000000000013,-63.15271242597524
-0.4847,-63.6761556069253
-0.48570000000000013,-64.19959878787537
-0.4867,-63.944950753899654
-0.48570000000000013,-62.58682790602922
-0.4847,-61.5965299961237
-0.48370000000000013,-60.71940899020737
-0.4827,-59.884729323287
-0.48170000000000013,-59.14907944735718
-0.4807,-58.39928245842871
-0.4797000000000001,-57.62119124350295
-0.4787,-56.82895291557852
-0.4777000000000001,-56.093303039648696
-0.4767,-55.400094502714836
-0.4757000000000001,-54.69273885278232
-0.4747,-53.999530315848446
-0.4737000000000001,-53.30632177891458
-0.4727,-52.59896612898206
-0.4717000000000001,-51.90575759204819
-0.4707,-51.17010771611838
-0.4697000000000001,-50.547634744177756
-0.4687,-49.939308885235796
-0.4677000000000001,-49.33098302629383
-0.4667,-48.68021582835591
-0.4657000000000001,-47.987007291422046
-0.4647,-47.40697565847737
-0.4637000000000001,-46.79864979953541
