Sept. 30, 2024   00:47:57
Cyclic Voltammetry
File: c:/users/guazh/data/20240922_batch_417_500/2024-09-22-exp486\exp486-2024-09-30t00_37_24-h2koh\exp486_cv_sr_300mvs_efin_-1500mv.bin
Data Source:  Experiment
Instrument Model:  CHI760E
Header: CV ran at 300 mVs
Note: 

Init E (V) = -1
High E (V) = -1
Low E (V) = -1.5
Final E (V) = -1
Init P/N = N
Scan Rate (V/s) = 0.3
Segment = 3
Sample Interval (V) = 0.001
Quiet Time (sec) = 2
Sensitivity (A/V) = 0.01
Comp R (ohm) = 2.4

Results:

Channel 1:
Segment 1:

Segment 2:

Segment 3:

Potential/V, Current/A

-1.000, 2.482e-5
-1.001, 7.723e-5
-1.002, 1.050e-4
-1.003, 1.266e-4
-1.004, 1.420e-4
-1.005, 1.543e-4
-1.006, 1.574e-4
-1.007, 1.605e-4
-1.008, 1.666e-4
-1.009, 1.697e-4
-1.010, 1.759e-4
-1.011, 1.759e-4
-1.012, 1.759e-4
-1.013, 1.759e-4
-1.014, 1.790e-4
-1.015, 1.821e-4
-1.016, 1.821e-4
-1.017, 1.821e-4
-1.018, 1.790e-4
-1.019, 1.851e-4
-1.020, 1.851e-4
-1.021, 1.851e-4
-1.022, 1.851e-4
-1.023, 1.851e-4
-1.024, 1.851e-4
-1.025, 1.913e-4
-1.026, 1.882e-4
-1.027, 1.851e-4
-1.028, 1.851e-4
-1.029, 1.882e-4
-1.030, 1.913e-4
-1.031, 1.913e-4
-1.032, 1.882e-4
-1.033, 1.882e-4
-1.034, 1.913e-4
-1.035, 1.944e-4
-1.036, 1.944e-4
-1.037, 1.913e-4
-1.038, 1.913e-4
-1.039, 1.913e-4
-1.040, 1.944e-4
-1.041, 1.944e-4
-1.042, 1.913e-4
-1.043, 1.913e-4
-1.044, 1.944e-4
-1.045, 1.944e-4
-1.046, 1.944e-4
-1.047, 1.913e-4
-1.048, 1.913e-4
-1.049, 1.944e-4
-1.050, 1.944e-4
-1.051, 1.944e-4
-1.052, 1.913e-4
-1.053, 1.913e-4
-1.054, 1.944e-4
-1.055, 1.944e-4
-1.056, 1.944e-4
-1.057, 1.913e-4
-1.058, 1.913e-4
-1.059, 1.944e-4
-1.060, 1.975e-4
-1.061, 1.944e-4
-1.062, 1.944e-4
-1.063, 1.913e-4
-1.064, 1.975e-4
-1.065, 1.975e-4
-1.066, 1.944e-4
-1.067, 1.913e-4
-1.068, 1.944e-4
-1.069, 1.944e-4
-1.070, 1.975e-4
-1.071, 1.944e-4
-1.072, 1.913e-4
-1.073, 1.944e-4
-1.074, 1.944e-4
-1.075, 1.975e-4
-1.076, 1.975e-4
-1.077, 1.944e-4
-1.078, 1.944e-4
-1.079, 1.975e-4
-1.080, 1.975e-4
-1.081, 1.975e-4
-1.082, 1.944e-4
-1.083, 1.944e-4
-1.084, 1.975e-4
-1.085, 2.006e-4
-1.086, 1.975e-4
-1.087, 1.944e-4
-1.088, 1.944e-4
-1.089, 1.975e-4
-1.090, 2.006e-4
-1.091, 1.975e-4
-1.092, 1.975e-4
-1.093, 1.975e-4
-1.094, 1.975e-4
-1.095, 2.006e-4
-1.096, 2.006e-4
-1.097, 1.975e-4
-1.098, 1.975e-4
-1.099, 2.006e-4
-1.100, 2.036e-4
-1.101, 2.006e-4
-1.102, 1.975e-4
-1.103, 1.975e-4
-1.104, 2.006e-4
-1.105, 2.036e-4
-1.106, 2.006e-4
-1.107, 2.006e-4
-1.108, 2.006e-4
-1.109, 2.006e-4
-1.110, 2.036e-4
-1.111, 2.036e-4
-1.112, 2.006e-4
-1.113, 2.006e-4
-1.114, 2.036e-4
-1.115, 2.067e-4
-1.116, 2.036e-4
-1.117, 2.006e-4
-1.118, 2.006e-4
-1.119, 2.067e-4
-1.120, 2.067e-4
-1.121, 2.067e-4
-1.122, 2.036e-4
-1.123, 2.036e-4
-1.124, 2.067e-4
-1.125, 2.098e-4
-1.126, 2.067e-4
-1.127, 2.067e-4
-1.128, 2.067e-4
-1.129, 2.098e-4
-1.130, 2.098e-4
-1.131, 2.098e-4
-1.132, 2.067e-4
-1.133, 2.067e-4
-1.134, 2.098e-4
-1.135, 2.129e-4
-1.136, 2.098e-4
-1.137, 2.098e-4
-1.138, 2.098e-4
-1.139, 2.129e-4
-1.140, 2.160e-4
-1.141, 2.129e-4
-1.142, 2.098e-4
-1.143, 2.129e-4
-1.144, 2.129e-4
-1.145, 2.160e-4
-1.146, 2.160e-4
-1.147, 2.129e-4
-1.148, 2.129e-4
-1.149, 2.160e-4
-1.150, 2.191e-4
-1.151, 2.191e-4
-1.152, 2.160e-4
-1.153, 2.160e-4
-1.154, 2.191e-4
-1.155, 2.191e-4
-1.156, 2.191e-4
-1.157, 2.160e-4
-1.158, 2.160e-4
-1.159, 2.191e-4
-1.160, 2.221e-4
-1.161, 2.221e-4
-1.162, 2.191e-4
-1.163, 2.191e-4
-1.164, 2.221e-4
-1.165, 2.283e-4
-1.166, 2.252e-4
-1.167, 2.221e-4
-1.168, 2.221e-4
-1.169, 2.283e-4
-1.170, 2.283e-4
-1.171, 2.283e-4
-1.172, 2.252e-4
-1.173, 2.252e-4
-1.174, 2.314e-4
-1.175, 2.314e-4
-1.176, 2.283e-4
-1.177, 2.283e-4
-1.178, 2.314e-4
-1.179, 2.345e-4
-1.180, 2.345e-4
-1.181, 2.345e-4
-1.182, 2.314e-4
-1.183, 2.345e-4
-1.184, 2.345e-4
-1.185, 2.376e-4
-1.186, 2.376e-4
-1.187, 2.345e-4
-1.188, 2.345e-4
-1.189, 2.376e-4
-1.190, 2.406e-4
-1.191, 2.406e-4
-1.192, 2.406e-4
-1.193, 2.406e-4
-1.194, 2.437e-4
-1.195, 2.468e-4
-1.196, 2.437e-4
-1.197, 2.406e-4
-1.198, 2.437e-4
-1.199, 2.468e-4
-1.200, 2.499e-4
-1.201, 2.468e-4
-1.202, 2.468e-4
-1.203, 2.468e-4
-1.204, 2.499e-4
-1.205, 2.530e-4
-1.206, 2.530e-4
-1.207, 2.499e-4
-1.208, 2.530e-4
-1.209, 2.561e-4
-1.210, 2.591e-4
-1.211, 2.591e-4
-1.212, 2.561e-4
-1.213, 2.561e-4
-1.214, 2.622e-4
-1.215, 2.622e-4
-1.216, 2.622e-4
-1.217, 2.622e-4
-1.218, 2.622e-4
-1.219, 2.653e-4
-1.220, 2.684e-4
-1.221, 2.684e-4
-1.222, 2.653e-4
-1.223, 2.684e-4
-1.224, 2.715e-4
-1.225, 2.746e-4
-1.226, 2.746e-4
-1.227, 2.715e-4
-1.228, 2.746e-4
-1.229, 2.807e-4
-1.230, 2.838e-4
-1.231, 2.838e-4
-1.232, 2.807e-4
-1.233, 2.807e-4
-1.234, 2.869e-4
-1.235, 2.900e-4
-1.236, 2.900e-4
-1.237, 2.900e-4
-1.238, 2.900e-4
-1.239, 2.931e-4
-1.240, 2.961e-4
-1.241, 2.961e-4
-1.242, 2.961e-4
-1.243, 2.961e-4
-1.244, 3.023e-4
-1.245, 3.054e-4
-1.246, 3.085e-4
-1.247, 3.054e-4
-1.248, 3.054e-4
-1.249, 3.115e-4
-1.250, 3.146e-4
-1.251, 3.146e-4
-1.252, 3.146e-4
-1.253, 3.177e-4
-1.254, 3.208e-4
-1.255, 3.270e-4
-1.256, 3.270e-4
-1.257, 3.270e-4
-1.258, 3.270e-4
-1.259, 3.331e-4
-1.260, 3.393e-4
-1.261, 3.393e-4
-1.262, 3.393e-4
-1.263, 3.393e-4
-1.264, 3.455e-4
-1.265, 3.485e-4
-1.266, 3.516e-4
-1.267, 3.516e-4
-1.268, 3.547e-4
-1.269, 3.578e-4
-1.270, 3.609e-4
-1.271, 3.640e-4
-1.272, 3.640e-4
-1.273, 3.670e-4
-1.274, 3.732e-4
-1.275, 3.794e-4
-1.276, 3.794e-4
-1.277, 3.825e-4
-1.278, 3.855e-4
-1.279, 3.917e-4
-1.280, 3.979e-4
-1.281, 4.010e-4
-1.282, 4.010e-4
-1.283, 4.040e-4
-1.284, 4.102e-4
-1.285, 4.164e-4
-1.286, 4.195e-4
-1.287, 4.195e-4
-1.288, 4.256e-4
-1.289, 4.318e-4
-1.290, 4.380e-4
-1.291, 4.380e-4
-1.292, 4.410e-4
-1.293, 4.472e-4
-1.294, 4.534e-4
-1.295, 4.595e-4
-1.296, 4.626e-4
-1.297, 4.657e-4
-1.298, 4.688e-4
-1.299, 4.780e-4
-1.300, 4.842e-4
-1.301, 4.873e-4
-1.302, 4.904e-4
-1.303, 4.965e-4
-1.304, 5.058e-4
-1.305, 5.120e-4
-1.306, 5.181e-4
-1.307, 5.212e-4
-1.308, 5.274e-4
-1.309, 5.366e-4
-1.310, 5.428e-4
-1.311, 5.489e-4
-1.312, 5.520e-4
-1.313, 5.582e-4
-1.314, 5.674e-4
-1.315, 5.767e-4
-1.316, 5.829e-4
-1.317, 5.859e-4
-1.318, 5.952e-4
-1.319, 6.044e-4
-1.320, 6.106e-4
-1.321, 6.168e-4
-1.322, 6.229e-4
-1.323, 6.322e-4
-1.324, 6.414e-4
-1.325, 6.476e-4
-1.326, 6.569e-4
-1.327, 6.630e-4
-1.328, 6.692e-4
-1.329, 6.815e-4
-1.330, 6.908e-4
-1.331, 6.969e-4
-1.332, 7.062e-4
-1.333, 7.154e-4
-1.334, 7.278e-4
-1.335, 7.370e-4
-1.336, 7.463e-4
-1.337, 7.524e-4
-1.338, 7.617e-4
-1.339, 7.771e-4
-1.340, 7.894e-4
-1.341, 7.956e-4
-1.342, 8.018e-4
-1.343, 8.141e-4
-1.344, 8.264e-4
-1.345, 8.388e-4
-1.346, 8.449e-4
-1.347, 8.542e-4
-1.348, 8.665e-4
-1.349, 8.819e-4
-1.350, 8.943e-4
-1.351, 9.035e-4
-1.352, 9.128e-4
-1.353, 9.251e-4
-1.354, 9.405e-4
-1.355, 9.528e-4
-1.356, 9.621e-4
-1.357, 9.744e-4
-1.358, 9.868e-4
-1.359, 1.002e-3
-1.360, 1.014e-3
-1.361, 1.027e-3
-1.362, 1.036e-3
-1.363, 1.051e-3
-1.364, 1.070e-3
-1.365, 1.082e-3
-1.366, 1.095e-3
-1.367, 1.107e-3
-1.368, 1.122e-3
-1.369, 1.138e-3
-1.370, 1.156e-3
-1.371, 1.169e-3
-1.372, 1.181e-3
-1.373, 1.196e-3
-1.374, 1.212e-3
-1.375, 1.227e-3
-1.376, 1.243e-3
-1.377, 1.255e-3
-1.378, 1.270e-3
-1.379, 1.289e-3
-1.380, 1.307e-3
-1.381, 1.320e-3
-1.382, 1.335e-3
-1.383, 1.354e-3
-1.384, 1.372e-3
-1.385, 1.391e-3
-1.386, 1.406e-3
-1.387, 1.421e-3
-1.388, 1.437e-3
-1.389, 1.458e-3
-1.390, 1.480e-3
-1.391, 1.495e-3
-1.392, 1.514e-3
-1.393, 1.532e-3
-1.394, 1.551e-3
-1.395, 1.573e-3
-1.396, 1.588e-3
-1.397, 1.606e-3
-1.398, 1.625e-3
-1.399, 1.647e-3
-1.400, 1.665e-3
-1.401, 1.687e-3
-1.402, 1.702e-3
-1.403, 1.721e-3
-1.404, 1.745e-3
-1.405, 1.767e-3
-1.406, 1.785e-3
-1.407, 1.804e-3
-1.408, 1.822e-3
-1.409, 1.844e-3
-1.410, 1.865e-3
-1.411, 1.890e-3
-1.412, 1.906e-3
-1.413, 1.927e-3
-1.414, 1.955e-3
-1.415, 1.980e-3
-1.416, 2.001e-3
-1.417, 2.023e-3
-1.418, 2.044e-3
-1.419, 2.069e-3
-1.420, 2.094e-3
-1.421, 2.115e-3
-1.422, 2.134e-3
-1.423, 2.158e-3
-1.424, 2.183e-3
-1.425, 2.208e-3
-1.426, 2.229e-3
-1.427, 2.251e-3
-1.428, 2.272e-3
-1.429, 2.303e-3
-1.430, 2.328e-3
-1.431, 2.346e-3
-1.432, 2.374e-3
-1.433, 2.399e-3
-1.434, 2.427e-3
-1.435, 2.451e-3
-1.436, 2.476e-3
-1.437, 2.497e-3
-1.438, 2.522e-3
-1.439, 2.550e-3
-1.440, 2.578e-3
-1.441, 2.605e-3
-1.442, 2.627e-3
-1.443, 2.655e-3
-1.444, 2.686e-3
-1.445, 2.716e-3
-1.446, 2.741e-3
-1.447, 2.769e-3
-1.448, 2.797e-3
-1.449, 2.824e-3
-1.450, 2.858e-3
-1.451, 2.886e-3
-1.452, 2.911e-3
-1.453, 2.935e-3
-1.454, 2.966e-3
-1.455, 3.000e-3
-1.456, 3.025e-3
-1.457, 3.052e-3
-1.458, 3.077e-3
-1.459, 3.111e-3
-1.460, 3.139e-3
-1.461, 3.163e-3
-1.462, 3.194e-3
-1.463, 3.222e-3
-1.464, 3.250e-3
-1.465, 3.284e-3
-1.466, 3.318e-3
-1.467, 3.345e-3
-1.468, 3.373e-3
-1.469, 3.410e-3
-1.470, 3.444e-3
-1.471, 3.475e-3
-1.472, 3.503e-3
-1.473, 3.536e-3
-1.474, 3.567e-3
-1.475, 3.604e-3
-1.476, 3.632e-3
-1.477, 3.666e-3
-1.478, 3.697e-3
-1.479, 3.731e-3
-1.480, 3.765e-3
-1.481, 3.795e-3
-1.482, 3.826e-3
-1.483, 3.857e-3
-1.484, 3.891e-3
-1.485, 3.928e-3
-1.486, 3.959e-3
-1.487, 3.990e-3
-1.488, 4.024e-3
-1.489, 4.058e-3
-1.490, 4.095e-3
-1.491, 4.125e-3
-1.492, 4.159e-3
-1.493, 4.196e-3
-1.494, 4.233e-3
-1.495, 4.273e-3
-1.496, 4.313e-3
-1.497, 4.347e-3
-1.498, 4.384e-3
-1.499, 4.428e-3
-1.500, 4.412e-3
-1.499, 4.323e-3
-1.498, 4.258e-3
-1.497, 4.196e-3
-1.496, 4.138e-3
-1.495, 4.088e-3
-1.494, 4.033e-3
-1.493, 3.980e-3
-1.492, 3.925e-3
-1.491, 3.879e-3
-1.490, 3.836e-3
-1.489, 3.783e-3
-1.488, 3.737e-3
-1.487, 3.691e-3
-1.486, 3.644e-3
-1.485, 3.595e-3
-1.484, 3.546e-3
-1.483, 3.499e-3
-1.482, 3.450e-3
-1.481, 3.407e-3
-1.480, 3.367e-3
-1.479, 3.318e-3
-1.478, 3.271e-3
-1.477, 3.228e-3
-1.476, 3.188e-3
-1.475, 3.145e-3
-1.474, 3.102e-3
-1.473, 3.059e-3
-1.472, 3.015e-3
-1.471, 2.975e-3
-1.470, 2.941e-3
-1.469, 2.901e-3
-1.468, 2.858e-3
-1.467, 2.821e-3
-1.466, 2.784e-3
-1.465, 2.750e-3
-1.464, 2.710e-3
-1.463, 2.673e-3
-1.462, 2.633e-3
-1.461, 2.599e-3
-1.460, 2.559e-3
-1.459, 2.519e-3
-1.458, 2.476e-3
-1.457, 2.445e-3
-1.456, 2.405e-3
-1.455, 2.368e-3
-1.454, 2.334e-3
-1.453, 2.297e-3
-1.452, 2.260e-3
-1.451, 2.232e-3
-1.450, 2.205e-3
-1.449, 2.168e-3
-1.448, 2.137e-3
-1.447, 2.103e-3
-1.446, 2.075e-3
-1.445, 2.050e-3
-1.444, 2.017e-3
-1.443, 1.983e-3
-1.442, 1.955e-3
-1.441, 1.930e-3
-1.440, 1.902e-3
-1.439, 1.875e-3
-1.438, 1.847e-3
-1.437, 1.816e-3
-1.436, 1.788e-3
-1.435, 1.767e-3
-1.434, 1.733e-3
-1.433, 1.702e-3
-1.432, 1.674e-3
-1.431, 1.650e-3
-1.430, 1.625e-3
-1.429, 1.597e-3
-1.428, 1.569e-3
-1.427, 1.542e-3
-1.426, 1.517e-3
-1.425, 1.495e-3
-1.424, 1.468e-3
-1.423, 1.443e-3
-1.422, 1.418e-3
-1.421, 1.394e-3
-1.420, 1.375e-3
-1.419, 1.347e-3
-1.418, 1.323e-3
-1.417, 1.301e-3
-1.416, 1.280e-3
-1.415, 1.258e-3
-1.414, 1.236e-3
-1.413, 1.215e-3
-1.412, 1.193e-3
-1.411, 1.175e-3
-1.410, 1.156e-3
-1.409, 1.135e-3
-1.408, 1.113e-3
-1.407, 1.092e-3
-1.406, 1.073e-3
-1.405, 1.055e-3
-1.404, 1.033e-3
-1.403, 1.011e-3
-1.402, 9.929e-4
-1.401, 9.744e-4
-1.400, 9.590e-4
-1.399, 9.374e-4
-1.398, 9.189e-4
-1.397, 9.004e-4
-1.396, 8.850e-4
-1.395, 8.696e-4
-1.394, 8.511e-4
-1.393, 8.295e-4
-1.392, 8.141e-4
-1.391, 7.987e-4
-1.390, 7.833e-4
-1.389, 7.648e-4
-1.388, 7.463e-4
-1.387, 7.309e-4
-1.386, 7.185e-4
-1.385, 7.062e-4
-1.384, 6.877e-4
-1.383, 6.692e-4
-1.382, 6.538e-4
-1.381, 6.414e-4
-1.380, 6.291e-4
-1.379, 6.137e-4
-1.378, 5.952e-4
-1.377, 5.829e-4
-1.376, 5.705e-4
-1.375, 5.613e-4
-1.374, 5.459e-4
-1.373, 5.305e-4
-1.372, 5.181e-4
-1.371, 5.089e-4
-1.370, 4.965e-4
-1.369, 4.842e-4
-1.368, 4.688e-4
-1.367, 4.565e-4
-1.366, 4.441e-4
-1.365, 4.380e-4
-1.364, 4.225e-4
-1.363, 4.102e-4
-1.362, 3.979e-4
-1.361, 3.886e-4
-1.360, 3.825e-4
-1.359, 3.670e-4
-1.358, 3.547e-4
-1.357, 3.424e-4
-1.356, 3.362e-4
-1.355, 3.270e-4
-1.354, 3.146e-4
-1.353, 3.054e-4
-1.352, 2.931e-4
-1.351, 2.869e-4
-1.350, 2.776e-4
-1.349, 2.684e-4
-1.348, 2.561e-4
-1.347, 2.468e-4
-1.346, 2.406e-4
-1.345, 2.345e-4
-1.344, 2.221e-4
-1.343, 2.129e-4
-1.342, 2.036e-4
-1.341, 1.975e-4
-1.340, 1.913e-4
-1.339, 1.821e-4
-1.338, 1.697e-4
-1.337, 1.636e-4
-1.336, 1.574e-4
-1.335, 1.512e-4
-1.334, 1.420e-4
-1.333, 1.327e-4
-1.332, 1.235e-4
-1.331, 1.204e-4
-1.330, 1.142e-4
-1.329, 1.081e-4
-1.328, 9.882e-5
-1.327, 8.957e-5
-1.326, 8.648e-5
-1.325, 8.340e-5
-1.324, 7.415e-5
-1.323, 6.490e-5
-1.322, 5.873e-5
-1.321, 5.257e-5
-1.320, 4.949e-5
-1.319, 4.332e-5
-1.318, 3.407e-5
-1.317, 2.790e-5
-1.316, 2.482e-5
-1.315, 2.174e-5
-1.314, 1.249e-5
-1.313, 6.322e-6
-1.312, 1.559e-7
-1.311, -6.010e-6
-1.310, -6.010e-6
-1.309, -1.218e-5
-1.308, -1.834e-5
-1.307, -2.451e-5
-1.306, -2.759e-5
-1.305, -3.068e-5
-1.304, -3.684e-5
-1.303, -4.301e-5
-1.302, -4.917e-5
-1.301, -5.226e-5
-1.300, -5.534e-5
-1.299, -5.842e-5
-1.298, -6.459e-5
-1.297, -7.076e-5
-1.296, -7.384e-5
-1.295, -7.384e-5
-1.294, -8.000e-5
-1.293, -8.617e-5
-1.292, -8.925e-5
-1.291, -9.234e-5
-1.290, -9.234e-5
-1.289, -9.850e-5
-1.288, -1.047e-4
-1.287, -1.108e-4
-1.286, -1.108e-4
-1.285, -1.108e-4
-1.284, -1.170e-4
-1.283, -1.201e-4
-1.282, -1.263e-4
-1.281, -1.263e-4
-1.280, -1.263e-4
-1.279, -1.324e-4
-1.278, -1.355e-4
-1.277, -1.417e-4
-1.276, -1.417e-4
-1.275, -1.417e-4
-1.274, -1.448e-4
-1.273, -1.509e-4
-1.272, -1.540e-4
-1.271, -1.540e-4
-1.270, -1.540e-4
-1.269, -1.602e-4
-1.268, -1.632e-4
-1.267, -1.632e-4
-1.266, -1.663e-4
-1.265, -1.663e-4
-1.264, -1.694e-4
-1.263, -1.756e-4
-1.262, -1.756e-4
-1.261, -1.787e-4
-1.260, -1.787e-4
-1.259, -1.817e-4
-1.258, -1.848e-4
-1.257, -1.879e-4
-1.256, -1.879e-4
-1.255, -1.879e-4
-1.254, -1.910e-4
-1.253, -1.941e-4
-1.252, -1.972e-4
-1.251, -1.972e-4
-1.250, -1.941e-4
-1.249, -1.972e-4
-1.248, -2.033e-4
-1.247, -2.064e-4
-1.246, -2.064e-4
-1.245, -2.033e-4
-1.244, -2.064e-4
-1.243, -2.095e-4
-1.242, -2.126e-4
-1.241, -2.126e-4
-1.240, -2.095e-4
-1.239, -2.126e-4
-1.238, -2.157e-4
-1.237, -2.187e-4
-1.236, -2.187e-4
-1.235, -2.157e-4
-1.234, -2.187e-4
-1.233, -2.218e-4
-1.232, -2.249e-4
-1.231, -2.249e-4
-1.230, -2.249e-4
-1.229, -2.249e-4
-1.228, -2.311e-4
-1.227, -2.311e-4
-1.226, -2.280e-4
-1.225, -2.280e-4
-1.224, -2.311e-4
-1.223, -2.342e-4
-1.222, -2.342e-4
-1.221, -2.342e-4
-1.220, -2.311e-4
-1.219, -2.342e-4
-1.218, -2.372e-4
-1.217, -2.372e-4
-1.216, -2.372e-4
-1.215, -2.342e-4
-1.214, -2.372e-4
-1.213, -2.403e-4
-1.212, -2.403e-4
-1.211, -2.403e-4
-1.210, -2.372e-4
-1.209, -2.403e-4
-1.208, -2.434e-4
-1.207, -2.434e-4
-1.206, -2.434e-4
-1.205, -2.403e-4
-1.204, -2.434e-4
-1.203, -2.465e-4
-1.202, -2.465e-4
-1.201, -2.465e-4
-1.200, -2.434e-4
-1.199, -2.465e-4
-1.198, -2.465e-4
-1.197, -2.496e-4
-1.196, -2.465e-4
-1.195, -2.465e-4
-1.194, -2.465e-4
-1.193, -2.496e-4
-1.192, -2.496e-4
-1.191, -2.496e-4
-1.190, -2.465e-4
-1.189, -2.496e-4
-1.188, -2.527e-4
-1.187, -2.527e-4
-1.186, -2.527e-4
-1.185, -2.496e-4
-1.184, -2.496e-4
-1.183, -2.527e-4
-1.182, -2.527e-4
-1.181, -2.527e-4
-1.180, -2.496e-4
-1.179, -2.496e-4
-1.178, -2.527e-4
-1.177, -2.527e-4
-1.176, -2.527e-4
-1.175, -2.496e-4
-1.174, -2.527e-4
-1.173, -2.527e-4
-1.172, -2.557e-4
-1.171, -2.527e-4
-1.170, -2.527e-4
-1.169, -2.527e-4
-1.168, -2.557e-4
-1.167, -2.557e-4
-1.166, -2.557e-4
-1.165, -2.496e-4
-1.164, -2.527e-4
-1.163, -2.557e-4
-1.162, -2.557e-4
-1.161, -2.527e-4
-1.160, -2.496e-4
-1.159, -2.527e-4
-1.158, -2.557e-4
-1.157, -2.557e-4
-1.156, -2.527e-4
-1.155, -2.527e-4
-1.154, -2.527e-4
-1.153, -2.527e-4
-1.152, -2.557e-4
-1.151, -2.557e-4
-1.150, -2.527e-4
-1.149, -2.527e-4
-1.148, -2.557e-4
-1.147, -2.557e-4
-1.146, -2.527e-4
-1.145, -2.527e-4
-1.144, -2.527e-4
-1.143, -2.557e-4
-1.142, -2.557e-4
-1.141, -2.527e-4
-1.140, -2.527e-4
-1.139, -2.527e-4
-1.138, -2.557e-4
-1.137, -2.557e-4
-1.136, -2.527e-4
-1.135, -2.527e-4
-1.134, -2.527e-4
-1.133, -2.527e-4
-1.132, -2.557e-4
-1.131, -2.527e-4
-1.130, -2.496e-4
-1.129, -2.527e-4
-1.128, -2.557e-4
-1.127, -2.557e-4
-1.126, -2.557e-4
-1.125, -2.527e-4
-1.124, -2.527e-4
-1.123, -2.557e-4
-1.122, -2.557e-4
-1.121, -2.527e-4
-1.120, -2.496e-4
-1.119, -2.527e-4
-1.118, -2.527e-4
-1.117, -2.557e-4
-1.116, -2.527e-4
-1.115, -2.496e-4
-1.114, -2.527e-4
-1.113, -2.557e-4
-1.112, -2.557e-4
-1.111, -2.527e-4
-1.110, -2.527e-4
-1.109, -2.527e-4
-1.108, -2.557e-4
-1.107, -2.557e-4
-1.106, -2.527e-4
-1.105, -2.496e-4
-1.104, -2.527e-4
-1.103, -2.557e-4
-1.102, -2.557e-4
-1.101, -2.557e-4
-1.100, -2.527e-4
-1.099, -2.557e-4
-1.098, -2.557e-4
-1.097, -2.557e-4
-1.096, -2.527e-4
-1.095, -2.527e-4
-1.094, -2.557e-4
-1.093, -2.557e-4
-1.092, -2.557e-4
-1.091, -2.557e-4
-1.090, -2.527e-4
-1.089, -2.557e-4
-1.088, -2.557e-4
-1.087, -2.588e-4
-1.086, -2.557e-4
-1.085, -2.527e-4
-1.084, -2.557e-4
-1.083, -2.588e-4
-1.082, -2.588e-4
-1.081, -2.557e-4
-1.080, -2.557e-4
-1.079, -2.557e-4
-1.078, -2.588e-4
-1.077, -2.588e-4
-1.076, -2.588e-4
-1.075, -2.557e-4
-1.074, -2.557e-4
-1.073, -2.588e-4
-1.072, -2.588e-4
-1.071, -2.588e-4
-1.070, -2.557e-4
-1.069, -2.588e-4
-1.068, -2.588e-4
-1.067, -2.619e-4
-1.066, -2.588e-4
-1.065, -2.588e-4
-1.064, -2.588e-4
-1.063, -2.619e-4
-1.062, -2.619e-4
-1.061, -2.619e-4
-1.060, -2.619e-4
-1.059, -2.588e-4
-1.058, -2.619e-4
-1.057, -2.650e-4
-1.056, -2.619e-4
-1.055, -2.619e-4
-1.054, -2.619e-4
-1.053, -2.650e-4
-1.052, -2.650e-4
-1.051, -2.650e-4
-1.050, -2.619e-4
-1.049, -2.619e-4
-1.048, -2.650e-4
-1.047, -2.650e-4
-1.046, -2.650e-4
-1.045, -2.650e-4
-1.044, -2.650e-4
-1.043, -2.681e-4
-1.042, -2.681e-4
-1.041, -2.681e-4
-1.040, -2.650e-4
-1.039, -2.681e-4
-1.038, -2.712e-4
-1.037, -2.712e-4
-1.036, -2.712e-4
-1.035, -2.681e-4
-1.034, -2.681e-4
-1.033, -2.712e-4
-1.032, -2.742e-4
-1.031, -2.742e-4
-1.030, -2.712e-4
-1.029, -2.742e-4
-1.028, -2.773e-4
-1.027, -2.773e-4
-1.026, -2.773e-4
-1.025, -2.742e-4
-1.024, -2.773e-4
-1.023, -2.804e-4
-1.022, -2.804e-4
-1.021, -2.773e-4
-1.020, -2.773e-4
-1.019, -2.804e-4
-1.018, -2.835e-4
-1.017, -2.835e-4
-1.016, -2.835e-4
-1.015, -2.835e-4
-1.014, -2.835e-4
-1.013, -2.866e-4
-1.012, -2.897e-4
-1.011, -2.866e-4
-1.010, -2.866e-4
-1.009, -2.897e-4
-1.008, -2.927e-4
-1.007, -2.927e-4
-1.006, -2.927e-4
-1.005, -2.927e-4
-1.004, -2.927e-4
-1.003, -2.958e-4
-1.002, -2.989e-4
-1.001, -2.989e-4
