Potential V vs RHE, Current mA cm-2
0.05339999999999995,-0.057352396096528584
0.05239999999999995,-0.05890857852638014
0.051399999999999946,-0.05955934572431805
0.050399999999999945,-0.06008278890526811
0.049399999999999944,-0.060606232086218174
0.04839999999999994,-0.06111552815416958
0.04739999999999994,-0.0615965299961237
0.04639999999999994,-0.06204923761208051
0.04539999999999994,-0.06254438656703327
0.04439999999999994,-0.06303953552198605
0.04339999999999994,-0.06350639025094149
0.04239999999999994,-0.06398739209289561
0.04139999999999994,-0.06442595259585376
0.040399999999999936,-0.06489280732480923
0.039399999999999935,-0.0653596620537647
0.038399999999999934,-0.0658406638957188
0.03739999999999993,-0.06626507728567832
0.03639999999999993,-0.06671778490163513
0.03539999999999993,-0.06714219829159464
0.03439999999999993,-0.0676090530205501
0.03339999999999993,-0.06806176063650692
0.03239999999999993,-0.06848617402646642
0.03139999999999993,-0.06889644030342729
0.030399999999999927,-0.0693208536933868
0.029399999999999926,-0.06975941419634496
0.028399999999999925,-0.07024041603829907
0.027399999999999924,-0.07063653520226129
0.026399999999999924,-0.07106094859222079
0.025399999999999923,-0.07151365620817761
0.024399999999999922,-0.07193806959813712
0.02339999999999992,-0.07237663010109527
0.02239999999999992,-0.0727727492650575
0.02139999999999992,-0.07315472131602105
0.020399999999999918,-0.07359328181897921
0.019399999999999917,-0.07400354809594006
0.018399999999999916,-0.07444210859889823
0.017399999999999916,-0.07482408064986179
0.016399999999999915,-0.07520605270082535
0.015399999999999914,-0.07563046609078486
0.014399999999999913,-0.07605487948074438
0.013399999999999912,-0.07645099864470659
0.012399999999999911,-0.07681882358267149
0.01139999999999991,-0.0771866485206364
0.01039999999999991,-0.07759691479759726
0.009399999999999908,-0.07800718107455813
0.008399999999999908,-0.07837500601252304
0.007399999999999907,-0.07877112517648524
0.006399999999999906,-0.0791248030014515
0.005399999999999905,-0.07949262793941642
0.004399999999999904,-0.07988874710337862
0.003399999999999903,-0.08024242492834488
0.002399999999999902,-0.08059610275331114
0.0013999999999999013,-0.0809214863522801
0.00039999999999990044,-0.08130345840324366
-0.0006000000000001005,-0.08169957756720586
-0.0016000000000001013,-0.08203910827917348
-0.0026000000000001022,-0.08239278610413973
-0.003600000000000103,-0.08271816970310869
-0.004600000000000104,-0.0830577004150763
-0.005600000000000105,-0.08336893690104662
-0.006600000000000106,-0.08370846761301422
-0.007600000000000107,-0.08399140987298723
-0.008600000000000108,-0.08427435213296022
-0.009600000000000108,-0.08459973573192921
-0.01060000000000011,-0.08492511933089815
-0.01160000000000011,-0.08526465004286575
-0.012600000000000111,-0.08557588652883606
-0.013600000000000112,-0.08583053456281178
-0.014600000000000113,-0.08614177104878207
-0.015600000000000114,-0.08645300753475238
-0.016600000000000115,-0.08677839113372135
-0.017600000000000116,-0.08704718628069572
-0.018600000000000116,-0.08728768720167276
-0.019600000000000117,-0.08755648234864712
-0.020600000000000118,-0.08779698326962418
-0.02160000000000012,-0.08807992552959719
-0.02260000000000012,-0.08832042645057424
-0.02360000000000012,-0.08857507448454995
-0.024600000000000122,-0.08885801674452294
-0.025600000000000123,-0.08908437055250136
-0.026600000000000124,-0.08932487147347841
-0.027600000000000124,-0.08956537239445547
-0.028600000000000125,-0.08980587331543252
-0.029600000000000126,-0.09004637423640958
-0.030600000000000127,-0.09025858093138935
-0.03160000000000013,-0.09051322896536505
-0.03260000000000013,-0.09071128854734616
-0.03360000000000013,-0.09088105390332996
-0.03460000000000002,-0.09110740771130836
-0.03560000000000002,-0.09131961440628812
-0.03660000000000002,-0.09151767398826924
-0.03760000000000002,-0.09172988068324898
-0.03860000000000002,-0.09187135181323548
-0.039600000000000024,-0.09206941139521659
-0.040600000000000025,-0.09228161809019635
-0.041600000000000026,-0.0924372363331815
-0.04260000000000003,-0.09260700168916529
-0.04360000000000003,-0.09276261993215046
-0.04460000000000003,-0.09290409106213696
-0.04560000000000003,-0.09310215064411806
-0.04660000000000003,-0.09325776888710322
-0.04760000000000003,-0.09339924001708971
-0.04860000000000003,-0.09349826980808028
-0.04960000000000003,-0.09363974093806678
-0.050600000000000034,-0.09379535918105193
-0.051600000000000035,-0.0939226831980398
-0.052600000000000036,-0.094035860102029
-0.053600000000000037,-0.09413488989301955
-0.05460000000000004,-0.09424806679700874
-0.05560000000000004,-0.09436124370099794
-0.05660000000000004,-0.09447442060498715
-0.05760000000000004,-0.09457345039597771
-0.05860000000000004,-0.0946300388479723
-0.05960000000000004,-0.09472906863896285
-0.06060000000000004,-0.0948280984299534
-0.061600000000000044,-0.09491298110794531
-0.06260000000000004,-0.0949695695599399
-0.06360000000000005,-0.09504030512493315
-0.06460000000000005,-0.09509689357692777
-0.06560000000000005,-0.09515348202892236
-0.06660000000000005,-0.09522421759391562
-0.06760000000000005,-0.09529495315890889
-0.06860000000000005,-0.09530910027190752
-0.06960000000000005,-0.09536568872390214
-0.07060000000000005,-0.09540813006289808
-0.07160000000000005,-0.09545057140189403
-0.07260000000000005,-0.09547886562789133
-0.07360000000000005,-0.09546471851489266
-0.07460000000000006,-0.09549301274088996
-0.07560000000000006,-0.09552130696688728
-0.07660000000000006,-0.09557789541888188
-0.07760000000000006,-0.09556374830588323
-0.07860000000000006,-0.09554960119288458
-0.07960000000000006,-0.09554960119288458
-0.08060000000000006,-0.09557789541888188
-0.08160000000000006,-0.09556374830588323
-0.08260000000000006,-0.09554960119288458
-0.08360000000000006,-0.09553545407988592
-0.08460000000000006,-0.09552130696688728
-0.08560000000000006,-0.09550715985388863
-0.08660000000000007,-0.09547886562789133
-0.08760000000000007,-0.09546471851489266
-0.08860000000000007,-0.09542227717589671
-0.08960000000000007,-0.09539398294989941
-0.09060000000000007,-0.09536568872390214
-0.09160000000000007,-0.09535154161090346
-0.09260000000000007,-0.09530910027190752
-0.09360000000000007,-0.09523836470691427
-0.09460000000000007,-0.09521007048091697
-0.09560000000000007,-0.09515348202892236
-0.09660000000000007,-0.09512518780292507
-0.09760000000000008,-0.09505445223793182
-0.09860000000000008,-0.0949695695599399
-0.09960000000000008,-0.09494127533394262
-0.10060000000000008,-0.09485639265595071
-0.10160000000000008,-0.09484224554295206
-0.10260000000000008,-0.09475736286496016
-0.10360000000000008,-0.09464418596097096
-0.10460000000000008,-0.09461589173497365
-0.10560000000000008,-0.09453100905698175
-0.10660000000000008,-0.09447442060498715
-0.10760000000000008,-0.0944036850399939
-0.10860000000000009,-0.09429050813600469
-0.10960000000000009,-0.0942056254580128
-0.11060000000000009,-0.09413488989301955
-0.11160000000000009,-0.09405000721502763
-0.11260000000000009,-0.09396512453703573
-0.11360000000000009,-0.09383780052004788
-0.11460000000000009,-0.09379535918105193
-0.11560000000000009,-0.09373877072905733
-0.11660000000000009,-0.09362559382506812
-0.1176000000000001,-0.09354071114707624
-0.1186000000000001,-0.09339924001708971
-0.1196000000000001,-0.09331435733909782
-0.1206000000000001,-0.09322947466110591
-0.1216000000000001,-0.09311629775711672
-0.1226000000000001,-0.09301726796612615
-0.1236000000000001,-0.09288994394913831
-0.1246000000000001,-0.0928050612711464
-0.1256000000000001,-0.09269188436715721
-0.1266000000000001,-0.09260700168916529
-0.1276000000000001,-0.09250797189817477
-0.1286000000000001,-0.0923523536551896
-0.1296000000000001,-0.09225332386419903
-0.1306000000000001,-0.09214014696020983
-0.1316000000000001,-0.09205526428221794
-0.1326000000000001,-0.09192794026523009
-0.1336000000000001,-0.09182891047423952
-0.1346000000000001,-0.09170158645725168
-0.1356000000000001,-0.09157426244026382
-0.1366000000000001,-0.09150352687527057
-0.1376000000000001,-0.09137620285828273
-0.1386000000000001,-0.09124887884129487
-0.1396000000000001,-0.09114984905030431
-0.1406000000000001,-0.09105081925931376
-0.14160000000000011,-0.09093764235532456
-0.14260000000000012,-0.09082446545133536
-0.14360000000000012,-0.09066884720835021
-0.14460000000000012,-0.09056981741735964
-0.14560000000000012,-0.09045664051337043
-0.14660000000000012,-0.09034346360938124
-0.14760000000000012,-0.09023028670539203
-0.14860000000000012,-0.09007466846240689
-0.14960000000000012,-0.08996149155841768
-0.15060000000000012,-0.08986246176742714
-0.15160000000000012,-0.08974928486343793
-0.15260000000000012,-0.08965025507244738
-0.15360000000000013,-0.08949463682946222
-0.15460000000000013,-0.08938145992547303
-0.15560000000000013,-0.08928243013448246
-0.15660000000000013,-0.08916925323049325
-0.15760000000000013,-0.08905607632650406
-0.15860000000000013,-0.0889004580835189
-0.15960000000000002,-0.08877313406653106
-0.16060000000000002,-0.0886741042755405
-0.16160000000000002,-0.08857507448454995
-0.16260000000000002,-0.08844775046756209
-0.16360000000000002,-0.08834872067657155
-0.16460000000000002,-0.08822139665958369
-0.16560000000000002,-0.08816480820758908
-0.16660000000000003,-0.08809407264259583
-0.16760000000000003,-0.08796674862560798
-0.16860000000000003,-0.08785357172161878
-0.16960000000000003,-0.08774039481762959
-0.17060000000000003,-0.08764136502663902
-0.17160000000000003,-0.08752818812264983
-0.17260000000000003,-0.0874150112186606
-0.17360000000000003,-0.08731598142767007
-0.17460000000000003,-0.08721695163667952
-0.17560000000000003,-0.08711792184568896
-0.17660000000000003,-0.08703303916769706
-0.17760000000000004,-0.08691986226370785
-0.17860000000000004,-0.08679253824672
-0.17960000000000004,-0.0867076555687281
-0.18060000000000004,-0.08658033155174025
-0.18160000000000004,-0.0864813017607497
-0.18260000000000004,-0.08638227196975913
-0.18360000000000004,-0.08625494795277128
-0.18460000000000004,-0.08617006527477938
-0.18560000000000004,-0.08605688837079019
-0.18660000000000004,-0.08595785857979962
-0.18760000000000004,-0.08587297590180773
-0.18860000000000005,-0.08574565188481988
-0.18960000000000005,-0.08563247498083068
-0.19060000000000005,-0.08554759230283876
-0.19160000000000005,-0.08546270962484687
-0.19260000000000005,-0.08536367983385632
-0.19360000000000005,-0.08520806159087116
-0.19460000000000005,-0.08512317891287925
-0.19560000000000005,-0.08502414912188871
-0.19660000000000005,-0.0849675606698941
-0.19760000000000005,-0.0848826779919022
-0.19860000000000005,-0.08475535397491435
-0.19960000000000006,-0.08464217707092515
-0.20060000000000006,-0.0845714415059319
-0.20160000000000006,-0.08450070594093864
-0.20260000000000006,-0.08441582326294673
-0.20360000000000006,-0.08434508769795349
-0.20460000000000006,-0.08427435213296022
-0.20560000000000006,-0.08421776368096563
-0.20660000000000006,-0.08414702811597238
-0.20760000000000006,-0.08406214543798048
-0.20860000000000006,-0.08394896853399128
-0.20960000000000006,-0.08387823296899803
-0.21060000000000006,-0.08382164451700343
-0.21160000000000007,-0.08375090895201018
-0.21260000000000007,-0.08365187916101963
-0.21360000000000007,-0.08353870225703043
-0.21460000000000007,-0.08346796669203715
-0.21560000000000007,-0.08338308401404526
-0.21660000000000007,-0.08336893690104662
-0.21760000000000007,-0.08332649556205066
-0.21860000000000007,-0.0831708773190655
-0.21960000000000007,-0.08310014175407225
-0.22060000000000007,-0.083029406189079
-0.22160000000000007,-0.08298696485008306
-0.22260000000000008,-0.0829445235110871
-0.22360000000000008,-0.08285964083309519
-0.22460000000000008,-0.08276061104210465
-0.22560000000000008,-0.08270402259011005
-0.22660000000000008,-0.08264743413811544
-0.22760000000000008,-0.08259084568612084
-0.22860000000000008,-0.08249181589513029
-0.22960000000000008,-0.0824352274431357
-0.23060000000000008,-0.08239278610413973
-0.23160000000000008,-0.08232205053914649
-0.23260000000000008,-0.08226546208715188
-0.23360000000000009,-0.08215228518316267
-0.2346000000000001,-0.08212399095716538
-0.2356000000000001,-0.08203910827917348
-0.2366000000000001,-0.08198251982717887
-0.2376000000000001,-0.08192593137518428
-0.2386000000000001,-0.08185519581019103
-0.2396000000000001,-0.08181275447119508
-0.2406000000000001,-0.08192593137518428
-0.2416000000000001,-0.08194007848818292
-0.2426000000000001,-0.08186934292318966
-0.2436000000000001,-0.08181275447119508
-0.2446000000000001,-0.08171372468020452
-0.2456000000000001,-0.08161469488921397
-0.2466000000000001,-0.08154395932422072
-0.2476000000000001,-0.08147322375922747
-0.2486000000000001,-0.0813741939682369
-0.2496000000000001,-0.08140248819423422
-0.2506000000000001,-0.0813458997422396
-0.2516000000000001,-0.08130345840324366
-0.2526000000000001,-0.08121857572525175
-0.2536000000000001,-0.0811195459342612
-0.2546000000000001,-0.08107710459526525
-0.2556000000000001,-0.0810346632562693
-0.2566000000000001,-0.0809780748042747
-0.2576000000000001,-0.0809214863522801
-0.2586000000000001,-0.08082245656128956
-0.2596000000000001,-0.08080830944829089
-0.2606000000000001,-0.08076586810929494
-0.2616000000000001,-0.08073757388329764
-0.2626000000000001,-0.08069513254430169
-0.2636000000000001,-0.08063854409230709
-0.2646000000000001,-0.08065269120530574
-0.2656000000000001,-0.08066683831830439
-0.2666000000000001,-0.0806102498663098
-0.2676000000000001,-0.08056780852731382
-0.2686000000000001,-0.08053951430131655
-0.2696000000000001,-0.08051122007531925
-0.2706000000000001,-0.08049707296232057
-0.2716000000000001,-0.08048292584932194
-0.2726000000000001,-0.08049707296232057
-0.2736000000000001,-0.0804121902843287
-0.2746000000000001,-0.08042633739732732
-0.2756000000000001,-0.0804121902843287
-0.2766000000000001,-0.08038389605833138
-0.2776000000000001,-0.08036974894533275
-0.2786000000000001,-0.08031316049333813
-0.2796000000000001,-0.08031316049333813
-0.2806000000000001,-0.08031316049333813
-0.28160000000000013,-0.08031316049333813
-0.28260000000000013,-0.08024242492834488
-0.28360000000000013,-0.08021413070234758
-0.2846,-0.08015754225035297
-0.2856,-0.08017168936335163
-0.2866,-0.08024242492834488
-0.2876,-0.08029901338033948
-0.2886,-0.08027071915434218
-0.2896,-0.08028486626734083
-0.2906,-0.08027071915434218
-0.2916,-0.08027071915434218
-0.2926,-0.08027071915434218
-0.2936,-0.08025657204134354
-0.29460000000000003,-0.08021413070234758
-0.29560000000000003,-0.08015754225035297
-0.29660000000000003,-0.08022827781534624
-0.29760000000000003,-0.08028486626734083
-0.29860000000000003,-0.08028486626734083
-0.29960000000000003,-0.08032730760633679
-0.30060000000000003,-0.08032730760633679
-0.30160000000000003,-0.08039804317133004
-0.30260000000000004,-0.0804121902843287
-0.30360000000000004,-0.08038389605833138
-0.30460000000000004,-0.0804121902843287
-0.30560000000000004,-0.080440484510326
-0.30660000000000004,-0.08048292584932194
-0.30760000000000004,-0.08051122007531925
-0.30860000000000004,-0.08051122007531925
-0.30960000000000004,-0.08053951430131655
-0.31060000000000004,-0.0805819556403125
-0.31160000000000004,-0.08066683831830439
-0.31260000000000004,-0.08069513254430169
-0.31360000000000005,-0.08068098543130305
-0.31460000000000005,-0.08072342677029899
-0.31560000000000005,-0.08080830944829089
-0.31660000000000005,-0.08082245656128956
-0.31760000000000005,-0.08087904501328413
-0.31860000000000005,-0.08087904501328413
-0.31960000000000005,-0.0809780748042747
-0.32060000000000005,-0.08102051614327066
-0.32160000000000005,-0.08106295748226659
-0.32260000000000005,-0.0811195459342612
-0.32360000000000005,-0.08116198727325716
-0.32460000000000006,-0.0812327228382504
-0.32560000000000006,-0.08131760551624231
-0.32660000000000006,-0.08145907664622881
-0.32760000000000006,-0.08151566509822342
-0.32860000000000006,-0.08151566509822342
-0.32960000000000006,-0.08160054777621531
-0.33060000000000006,-0.08165713622820991
-0.33160000000000006,-0.08169957756720586
-0.33260000000000006,-0.08175616601920047
-0.33360000000000006,-0.08184104869719236
-0.33460000000000006,-0.08192593137518428
-0.33560000000000006,-0.08196837271418023
-0.33660000000000007,-0.08206740250517078
-0.33760000000000007,-0.08218057940915997
-0.33860000000000007,-0.08223716786115459
-0.33960000000000007,-0.08232205053914649
-0.34060000000000007,-0.08237863899114109
-0.34160000000000007,-0.08246352166913298
-0.34260000000000007,-0.08254840434712489
-0.34360000000000007,-0.08259084568612084
-0.3446000000000001,-0.08271816970310869
-0.3456000000000001,-0.0828313466070979
-0.3466000000000001,-0.08291622928508981
-0.34759999999999996,-0.08301525907608036
-0.3486000000000001,-0.08308599464107361
-0.34959999999999997,-0.08321331865806145
-0.3506000000000001,-0.08325575999705741
-0.35159999999999997,-0.08335478978804794
-0.3526000000000001,-0.08346796669203715
-0.35359999999999997,-0.08352455514403176
-0.3546000000000001,-0.08368017338701693
-0.35559999999999997,-0.08379335029100612
-0.3566000000000001,-0.08387823296899803
-0.3576,-0.08400555698598587
-0.3586000000000001,-0.08411873388997508
-0.3596,-0.08420361656796697
-0.3606000000000001,-0.08430264635895754
-0.3616,-0.08442997037594539
-0.3626000000000001,-0.08454314727993459
-0.3636,-0.0846846184099211
-0.3646000000000001,-0.08484023665290626
-0.3656,-0.08498170778289275
-0.3666000000000001,-0.08513732602587791
-0.3676,-0.08529294426886307
-0.3686000000000001,-0.08544856251184822
-0.3696,-0.08559003364183472
-0.3706000000000001,-0.0857597989978185
-0.3716,-0.08592956435380232
-0.3726000000000001,-0.08608518259678749
-0.3736,-0.08625494795277128
-0.3746000000000001,-0.08645300753475238
-0.3756,-0.08658033155174025
-0.3766000000000001,-0.08666521422973215
-0.3776,-0.08683497958571595
-0.3786000000000001,-0.08697645071570247
-0.3796,-0.08721695163667952
-0.3806000000000001,-0.08735842276666603
-0.3816,-0.08755648234864712
-0.3826000000000001,-0.08774039481762959
-0.3836,-0.08788186594761609
-0.3846000000000001,-0.08809407264259583
-0.3856,-0.08826383799857963
-0.3866000000000001,-0.08849019180655805
-0.3876,-0.08865995716254185
-0.3886000000000001,-0.08882972251852565
-0.3896,-0.08907022343950272
-0.3906000000000001,-0.08923998879548652
-0.3916,-0.08942390126446896
-0.3926000000000001,-0.08963610795944872
-0.3936,-0.08977757908943522
-0.3946000000000001,-0.09003222712341094
-0.3956,-0.0902161395923934
-0.3966000000000001,-0.09042834628737315
-0.3976,-0.09068299432134884
-0.3986000000000001,-0.09093764235532456
-0.3996,-0.09119229038930025
-0.4006000000000001,-0.09140449708428001
-0.4016,-0.09161670377925978
-0.4026000000000001,-0.09187135181323548
-0.4036,-0.09202697005622064
-0.4046000000000001,-0.09216844118620715
-0.4056,-0.09247967767217745
-0.40660000000000013,-0.09273432570615316
-0.4076,-0.09296067951413156
-0.40860000000000013,-0.09318703332210997
-0.4096,-0.09345582846908432
-0.41060000000000013,-0.09371047650306003
-0.4116,-0.09397927165003438
-0.41260000000000013,-0.09421977257101144
-0.4136,-0.09443197926599119
-0.41460000000000014,-0.09471492152596421
-0.4156,-0.09492712822094396
-0.41660000000000014,-0.09516762914192102
-0.4176,-0.09549301274088996
-0.41860000000000014,-0.09581839633985893
-0.41960000000000003,-0.096058897260836
-0.42060000000000014,-0.0962286626168198
-0.42160000000000003,-0.09653989910279011
-0.42260000000000014,-0.09689357692775637
-0.42360000000000003,-0.09711993073573477
-0.42460000000000014,-0.09744531433470371
-0.42560000000000003,-0.0977706979336727
-0.42660000000000015,-0.09812437575863896
-0.42760000000000004,-0.0984214651316106
-0.42860000000000015,-0.0986761131655863
-0.42960000000000004,-0.09890246697356471
-0.43060000000000015,-0.09936932170252018
-0.43160000000000004,-0.09952493994550533
-0.43260000000000015,-0.09973714664048508
-0.43360000000000004,-0.10002008890045809
-0.43460000000000015,-0.10034547249942705
-0.43560000000000004,-0.10064256187239871
-0.43660000000000015,-0.10091135701937308
