Aug. 3, 2024   18:11:22
Chronoamperometry
File: c:/users/guazh/data/20240802_batch_500/2024-08-02-exp8\1acid_2ac-2024-08-03t18_04_04-lsvinphos\ca_2024-08-03t18_08_15.bin
Data Source:  Experiment
Instrument Model:  CHI760E
Header: CA
Note: 

Init E (V) = 1
High E (V) = 1
Low E (V) = -1.5
Init P/N = N
Step = 181
Pulse Width (sec) = 1
Sample Interval (s) = 0.1
Quiet Time (sec) = 2
Sensitivity (A/V) = 0.001

Results:

Channel 1:
Forward:
Slp = 4.193e-4
Int = -2.878e-4
Cor = 0.98569

Reverse:
Slp = -1.291e-4
Int = -4.524e-5
Cor = -0.98435

Time/sec, Current/A

1.000e-1, 1.506e-3
2.000e-1, 8.766e-4
3.000e-1, 5.089e-4
4.000e-1, 3.587e-4
5.000e-1, 2.812e-4
6.000e-1, 2.342e-4
7.000e-1, 2.049e-4
8.000e-1, 1.843e-4
9.000e-1, 1.665e-4
1.000e+0, 1.530e-4
1.100e+0, -2.421e-3
1.200e+0, -3.252e-4
1.300e+0, -1.758e-4
1.400e+0, -1.340e-4
1.500e+0, -1.160e-4
1.600e+0, -1.063e-4
1.700e+0, -9.974e-5
1.800e+0, -9.480e-5
1.900e+0, -9.074e-5
2.000e+0, -8.735e-5
2.100e+0, 1.667e-3
2.200e+0, 6.601e-4
2.300e+0, 3.095e-4
2.400e+0, 2.181e-4
2.500e+0, 1.768e-4
2.600e+0, 1.540e-4
2.700e+0, 1.390e-4
2.800e+0, 1.284e-4
2.900e+0, 1.203e-4
3.000e+0, 1.148e-4
3.100e+0, -1.468e-3
3.200e+0, -2.127e-4
3.300e+0, -1.501e-4
3.400e+0, -1.298e-4
3.500e+0, -1.132e-4
3.600e+0, -1.052e-4
3.700e+0, -9.925e-5
3.800e+0, -9.620e-5
3.900e+0, -9.234e-5
4.000e+0, -8.869e-5
4.100e+0, 1.382e-3
4.200e+0, 4.433e-4
4.300e+0, 2.403e-4
4.400e+0, 1.748e-4
4.500e+0, 1.425e-4
4.600e+0, 1.245e-4
4.700e+0, 1.134e-4
4.800e+0, 1.056e-4
4.900e+0, 9.953e-5
5.000e+0, 9.475e-5
5.100e+0, -1.256e-3
5.200e+0, -1.543e-4
5.300e+0, -1.050e-4
5.400e+0, -8.470e-5
5.500e+0, -7.532e-5
5.600e+0, -6.878e-5
5.700e+0, -6.519e-5
5.800e+0, -6.232e-5
5.900e+0, -5.970e-5
6.000e+0, -5.793e-5
6.100e+0, 1.070e-3
6.200e+0, 3.725e-4
6.300e+0, 2.200e-4
6.400e+0, 1.593e-4
6.500e+0, 1.287e-4
6.600e+0, 1.122e-4
6.700e+0, 1.015e-4
6.800e+0, 9.407e-5
6.900e+0, 8.873e-5
7.000e+0, 8.464e-5
7.100e+0, -1.155e-3
7.200e+0, -1.277e-4
7.300e+0, -8.575e-5
7.400e+0, -6.766e-5
7.500e+0, -5.709e-5
7.600e+0, -5.170e-5
7.700e+0, -4.704e-5
7.800e+0, -4.391e-5
7.900e+0, -4.107e-5
8.000e+0, -3.863e-5
8.100e+0, 9.160e-4
8.200e+0, 3.342e-4
8.300e+0, 2.073e-4
8.400e+0, 1.500e-4
8.500e+0, 1.206e-4
8.600e+0, 1.040e-4
8.700e+0, 9.379e-5
8.800e+0, 8.696e-5
8.900e+0, 8.205e-5
9.000e+0, 7.816e-5
9.100e+0, -1.041e-3
9.200e+0, -1.175e-4
9.300e+0, -8.220e-5
9.400e+0, -6.497e-5
9.500e+0, -5.469e-5
9.600e+0, -4.817e-5
9.700e+0, -4.307e-5
9.800e+0, -4.009e-5
9.900e+0, -3.744e-5
1.000e+1, -3.558e-5
1.010e+1, 8.692e-4
1.020e+1, 3.133e-4
1.030e+1, 1.953e-4
1.040e+1, 1.432e-4
1.050e+1, 1.145e-4
1.060e+1, 9.798e-5
1.070e+1, 8.831e-5
1.080e+1, 8.129e-5
1.090e+1, 7.670e-5
1.100e+1, 7.313e-5
1.110e+1, -9.879e-4
1.120e+1, -1.075e-4
1.130e+1, -7.573e-5
1.140e+1, -6.119e-5
1.150e+1, -5.210e-5
1.160e+1, -4.460e-5
1.170e+1, -3.954e-5
1.180e+1, -3.588e-5
1.190e+1, -3.288e-5
1.200e+1, -3.020e-5
1.210e+1, 8.246e-4
1.220e+1, 2.985e-4
1.230e+1, 1.865e-4
1.240e+1, 1.379e-4
1.250e+1, 1.104e-4
1.260e+1, 9.377e-5
1.270e+1, 8.363e-5
1.280e+1, 7.701e-5
1.290e+1, 7.250e-5
1.300e+1, 6.918e-5
1.310e+1, -9.438e-4
1.320e+1, -1.020e-4
1.330e+1, -7.079e-5
1.340e+1, -5.624e-5
1.350e+1, -4.737e-5
1.360e+1, -4.111e-5
1.370e+1, -3.637e-5
1.380e+1, -3.245e-5
1.390e+1, -2.943e-5
1.400e+1, -2.784e-5
1.410e+1, 7.887e-4
1.420e+1, 2.834e-4
1.430e+1, 1.792e-4
1.440e+1, 1.345e-4
1.450e+1, 1.078e-4
1.460e+1, 9.130e-5
1.470e+1, 8.090e-5
1.480e+1, 7.397e-5
1.490e+1, 6.942e-5
1.500e+1, 6.616e-5
1.510e+1, -9.183e-4
1.520e+1, -9.894e-5
1.530e+1, -6.900e-5
1.540e+1, -5.634e-5
1.550e+1, -4.753e-5
1.560e+1, -4.106e-5
1.570e+1, -3.427e-5
1.580e+1, -2.972e-5
1.590e+1, -2.720e-5
1.600e+1, -2.524e-5
1.610e+1, 7.680e-4
1.620e+1, 2.806e-4
1.630e+1, 1.744e-4
1.640e+1, 1.307e-4
1.650e+1, 1.055e-4
1.660e+1, 8.922e-5
1.670e+1, 7.884e-5
1.680e+1, 7.201e-5
1.690e+1, 6.744e-5
1.700e+1, 6.416e-5
1.710e+1, -8.929e-4
1.720e+1, -9.548e-5
1.730e+1, -6.650e-5
1.740e+1, -5.253e-5
1.750e+1, -4.405e-5
1.760e+1, -3.795e-5
1.770e+1, -3.349e-5
1.780e+1, -2.953e-5
1.790e+1, -2.715e-5
1.800e+1, -2.544e-5
1.810e+1, 7.537e-4
1.820e+1, 2.627e-4
1.830e+1, 1.691e-4
1.840e+1, 1.277e-4
1.850e+1, 1.033e-4
1.860e+1, 8.770e-5
1.870e+1, 7.721e-5
1.880e+1, 7.026e-5
1.890e+1, 6.585e-5
1.900e+1, 6.247e-5
1.910e+1, -8.762e-4
1.920e+1, -9.549e-5
1.930e+1, -6.486e-5
1.940e+1, -5.079e-5
1.950e+1, -4.277e-5
1.960e+1, -3.692e-5
1.970e+1, -3.244e-5
1.980e+1, -2.925e-5
1.990e+1, -2.660e-5
2.000e+1, -2.508e-5
2.010e+1, 7.414e-4
2.020e+1, 2.561e-4
2.030e+1, 1.641e-4
2.040e+1, 1.246e-4
2.050e+1, 1.015e-4
2.060e+1, 8.636e-5
2.070e+1, 7.592e-5
2.080e+1, 6.891e-5
2.090e+1, 6.407e-5
2.100e+1, 6.070e-5
2.110e+1, -8.617e-4
2.120e+1, -9.049e-5
2.130e+1, -6.309e-5
2.140e+1, -5.040e-5
2.150e+1, -4.279e-5
2.160e+1, -3.649e-5
2.170e+1, -3.199e-5
2.180e+1, -2.828e-5
2.190e+1, -2.566e-5
2.200e+1, -2.296e-5
2.210e+1, 7.274e-4
2.220e+1, 2.472e-4
2.230e+1, 1.601e-4
2.240e+1, 1.225e-4
2.250e+1, 1.001e-4
2.260e+1, 8.526e-5
2.270e+1, 7.506e-5
2.280e+1, 6.808e-5
2.290e+1, 6.343e-5
2.300e+1, 5.993e-5
2.310e+1, -8.483e-4
2.320e+1, -8.843e-5
2.330e+1, -6.173e-5
2.340e+1, -4.954e-5
2.350e+1, -4.171e-5
2.360e+1, -3.644e-5
2.370e+1, -3.230e-5
2.380e+1, -2.831e-5
2.390e+1, -2.476e-5
2.400e+1, -2.227e-5
2.410e+1, 7.148e-4
2.420e+1, 2.425e-4
2.430e+1, 1.571e-4
2.440e+1, 1.204e-4
2.450e+1, 9.886e-5
2.460e+1, 8.453e-5
2.470e+1, 7.444e-5
2.480e+1, 6.740e-5
2.490e+1, 6.248e-5
2.500e+1, 5.881e-5
2.510e+1, -8.358e-4
2.520e+1, -9.082e-5
2.530e+1, -6.390e-5
2.540e+1, -5.216e-5
2.550e+1, -4.413e-5
2.560e+1, -3.797e-5
2.570e+1, -3.298e-5
2.580e+1, -2.922e-5
2.590e+1, -2.659e-5
2.600e+1, -2.391e-5
2.610e+1, 7.197e-4
2.620e+1, 2.380e-4
2.630e+1, 1.546e-4
2.640e+1, 1.188e-4
2.650e+1, 9.774e-5
2.660e+1, 8.372e-5
2.670e+1, 7.381e-5
2.680e+1, 6.688e-5
2.690e+1, 6.180e-5
2.700e+1, 5.828e-5
2.710e+1, -8.304e-4
2.720e+1, -8.893e-5
2.730e+1, -6.097e-5
2.740e+1, -4.904e-5
2.750e+1, -4.087e-5
2.760e+1, -3.522e-5
2.770e+1, -3.111e-5
2.780e+1, -2.790e-5
2.790e+1, -2.512e-5
2.800e+1, -2.254e-5
2.810e+1, 7.040e-4
2.820e+1, 2.335e-4
2.830e+1, 1.515e-4
2.840e+1, 1.169e-4
2.850e+1, 9.650e-5
2.860e+1, 8.307e-5
2.870e+1, 7.343e-5
2.880e+1, 6.646e-5
2.890e+1, 6.131e-5
2.900e+1, 5.778e-5
2.910e+1, -8.164e-4
2.920e+1, -8.855e-5
2.930e+1, -6.110e-5
2.940e+1, -4.922e-5
2.950e+1, -4.139e-5
2.960e+1, -3.612e-5
2.970e+1, -3.201e-5
2.980e+1, -2.863e-5
2.990e+1, -2.611e-5
3.000e+1, -2.396e-5
3.010e+1, 7.006e-4
3.020e+1, 2.285e-4
3.030e+1, 1.496e-4
3.040e+1, 1.156e-4
3.050e+1, 9.554e-5
3.060e+1, 8.230e-5
3.070e+1, 7.287e-5
3.080e+1, 6.608e-5
3.090e+1, 6.120e-5
3.100e+1, 5.750e-5
3.110e+1, -8.119e-4
3.120e+1, -9.106e-5
3.130e+1, -6.191e-5
3.140e+1, -4.962e-5
3.150e+1, -4.251e-5
3.160e+1, -3.778e-5
3.170e+1, -3.342e-5
3.180e+1, -2.922e-5
3.190e+1, -2.566e-5
3.200e+1, -2.248e-5
3.210e+1, 6.975e-4
3.220e+1, 2.301e-4
3.230e+1, 1.482e-4
3.240e+1, 1.145e-4
3.250e+1, 9.474e-5
3.260e+1, 8.174e-5
3.270e+1, 7.247e-5
3.280e+1, 6.569e-5
3.290e+1, 6.075e-5
3.300e+1, 5.718e-5
3.310e+1, -8.004e-4
3.320e+1, -8.784e-5
3.330e+1, -5.986e-5
3.340e+1, -4.810e-5
3.350e+1, -4.041e-5
3.360e+1, -3.519e-5
3.370e+1, -3.063e-5
3.380e+1, -2.762e-5
3.390e+1, -2.538e-5
3.400e+1, -2.323e-5
3.410e+1, 6.858e-4
3.420e+1, 2.213e-4
3.430e+1, 1.446e-4
3.440e+1, 1.121e-4
3.450e+1, 9.308e-5
3.460e+1, 8.052e-5
3.470e+1, 7.179e-5
3.480e+1, 6.509e-5
3.490e+1, 6.020e-5
3.500e+1, 5.665e-5
3.510e+1, -7.963e-4
3.520e+1, -8.830e-5
3.530e+1, -6.006e-5
3.540e+1, -4.787e-5
3.550e+1, -4.149e-5
3.560e+1, -3.576e-5
3.570e+1, -3.151e-5
3.580e+1, -2.833e-5
3.590e+1, -2.583e-5
3.600e+1, -2.346e-5
3.610e+1, 6.812e-4
3.620e+1, 2.245e-4
3.630e+1, 1.443e-4
3.640e+1, 1.118e-4
3.650e+1, 9.286e-5
3.660e+1, 8.041e-5
3.670e+1, 7.160e-5
3.680e+1, 6.502e-5
3.690e+1, 6.007e-5
3.700e+1, 5.630e-5
3.710e+1, -7.908e-4
3.720e+1, -8.613e-5
3.730e+1, -5.788e-5
3.740e+1, -4.658e-5
3.750e+1, -3.891e-5
3.760e+1, -3.408e-5
3.770e+1, -3.023e-5
3.780e+1, -2.728e-5
3.790e+1, -2.455e-5
3.800e+1, -2.246e-5
3.810e+1, 6.716e-4
3.820e+1, 2.172e-4
3.830e+1, 1.417e-4
3.840e+1, 1.099e-4
3.850e+1, 9.138e-5
3.860e+1, 7.919e-5
3.870e+1, 7.063e-5
3.880e+1, 6.428e-5
3.890e+1, 5.949e-5
3.900e+1, 5.597e-5
3.910e+1, -7.814e-4
3.920e+1, -8.626e-5
3.930e+1, -5.815e-5
3.940e+1, -4.705e-5
3.950e+1, -3.936e-5
3.960e+1, -3.375e-5
3.970e+1, -2.949e-5
3.980e+1, -2.655e-5
3.990e+1, -2.424e-5
4.000e+1, -2.237e-5
4.010e+1, 6.637e-4
4.020e+1, 2.174e-4
4.030e+1, 1.401e-4
4.040e+1, 1.087e-4
4.050e+1, 9.066e-5
4.060e+1, 7.854e-5
4.070e+1, 7.012e-5
4.080e+1, 6.387e-5
4.090e+1, 5.919e-5
4.100e+1, 5.580e-5
4.110e+1, -7.783e-4
4.120e+1, -8.644e-5
4.130e+1, -5.771e-5
4.140e+1, -4.539e-5
4.150e+1, -3.798e-5
4.160e+1, -3.317e-5
4.170e+1, -2.972e-5
4.180e+1, -2.619e-5
4.190e+1, -2.355e-5
4.200e+1, -2.151e-5
4.210e+1, 6.566e-4
4.220e+1, 2.159e-4
4.230e+1, 1.383e-4
4.240e+1, 1.079e-4
4.250e+1, 8.995e-5
4.260e+1, 7.812e-5
4.270e+1, 6.991e-5
4.280e+1, 6.368e-5
4.290e+1, 5.904e-5
4.300e+1, 5.576e-5
4.310e+1, -7.687e-4
4.320e+1, -8.643e-5
4.330e+1, -5.836e-5
4.340e+1, -4.675e-5
4.350e+1, -3.928e-5
4.360e+1, -3.472e-5
4.370e+1, -3.039e-5
4.380e+1, -2.654e-5
4.390e+1, -2.343e-5
4.400e+1, -2.119e-5
4.410e+1, 6.609e-4
4.420e+1, 2.086e-4
4.430e+1, 1.365e-4
4.440e+1, 1.068e-4
4.450e+1, 8.917e-5
4.460e+1, 7.758e-5
4.470e+1, 6.971e-5
4.480e+1, 6.345e-5
4.490e+1, 5.881e-5
4.500e+1, 5.544e-5
4.510e+1, -7.841e-4
4.520e+1, -8.649e-5
4.530e+1, -5.783e-5
4.540e+1, -4.603e-5
4.550e+1, -3.789e-5
4.560e+1, -3.259e-5
4.570e+1, -2.871e-5
4.580e+1, -2.539e-5
4.590e+1, -2.288e-5
4.600e+1, -2.094e-5
4.610e+1, 6.641e-4
4.620e+1, 2.067e-4
4.630e+1, 1.358e-4
4.640e+1, 1.064e-4
4.650e+1, 8.882e-5
4.660e+1, 7.726e-5
4.670e+1, 6.909e-5
4.680e+1, 6.302e-5
4.690e+1, 5.844e-5
4.700e+1, 5.506e-5
4.710e+1, -7.854e-4
4.720e+1, -8.240e-5
4.730e+1, -5.456e-5
4.740e+1, -4.336e-5
4.750e+1, -3.638e-5
4.760e+1, -3.136e-5
4.770e+1, -2.744e-5
4.780e+1, -2.433e-5
4.790e+1, -2.162e-5
4.800e+1, -1.984e-5
4.810e+1, 6.519e-4
4.820e+1, 2.034e-4
4.830e+1, 1.343e-4
4.840e+1, 1.055e-4
4.850e+1, 8.833e-5
4.860e+1, 7.685e-5
4.870e+1, 6.878e-5
4.880e+1, 6.288e-5
4.890e+1, 5.841e-5
4.900e+1, 5.508e-5
4.910e+1, -7.765e-4
4.920e+1, -8.439e-5
4.930e+1, -5.549e-5
4.940e+1, -4.412e-5
4.950e+1, -3.691e-5
4.960e+1, -3.203e-5
4.970e+1, -2.787e-5
4.980e+1, -2.487e-5
4.990e+1, -2.249e-5
5.000e+1, -2.066e-5
5.010e+1, 6.463e-4
5.020e+1, 2.060e-4
5.030e+1, 1.341e-4
5.040e+1, 1.052e-4
5.050e+1, 8.802e-5
5.060e+1, 7.654e-5
5.070e+1, 6.857e-5
5.080e+1, 6.265e-5
5.090e+1, 5.829e-5
5.100e+1, 5.497e-5
5.110e+1, -7.571e-4
5.120e+1, -8.437e-5
5.130e+1, -5.659e-5
5.140e+1, -4.496e-5
5.150e+1, -3.830e-5
5.160e+1, -3.356e-5
5.170e+1, -2.933e-5
5.180e+1, -2.663e-5
5.190e+1, -2.352e-5
5.200e+1, -2.101e-5
5.210e+1, 6.451e-4
5.220e+1, 2.055e-4
5.230e+1, 1.329e-4
5.240e+1, 1.044e-4
5.250e+1, 8.742e-5
5.260e+1, 7.605e-5
5.270e+1, 6.810e-5
5.280e+1, 6.207e-5
5.290e+1, 5.776e-5
5.300e+1, 5.449e-5
5.310e+1, -7.542e-4
5.320e+1, -8.331e-5
5.330e+1, -5.560e-5
5.340e+1, -4.383e-5
5.350e+1, -3.686e-5
5.360e+1, -3.222e-5
5.370e+1, -2.869e-5
5.380e+1, -2.567e-5
5.390e+1, -2.313e-5
5.400e+1, -2.133e-5
5.410e+1, 6.409e-4
5.420e+1, 2.010e-4
5.430e+1, 1.311e-4
5.440e+1, 1.031e-4
5.450e+1, 8.667e-5
5.460e+1, 7.532e-5
5.470e+1, 6.757e-5
5.480e+1, 6.189e-5
5.490e+1, 5.763e-5
5.500e+1, 5.437e-5
5.510e+1, -7.522e-4
5.520e+1, -8.405e-5
5.530e+1, -5.560e-5
5.540e+1, -4.445e-5
5.550e+1, -3.754e-5
5.560e+1, -3.281e-5
5.570e+1, -2.891e-5
5.580e+1, -2.559e-5
5.590e+1, -2.318e-5
5.600e+1, -2.117e-5
5.610e+1, 6.386e-4
5.620e+1, 2.014e-4
5.630e+1, 1.305e-4
5.640e+1, 1.026e-4
5.650e+1, 8.641e-5
5.660e+1, 7.522e-5
5.670e+1, 6.747e-5
5.680e+1, 6.178e-5
5.690e+1, 5.784e-5
5.700e+1, 5.452e-5
5.710e+1, -7.499e-4
5.720e+1, -8.417e-5
5.730e+1, -5.637e-5
5.740e+1, -4.423e-5
5.750e+1, -3.724e-5
5.760e+1, -3.224e-5
5.770e+1, -2.831e-5
5.780e+1, -2.524e-5
5.790e+1, -2.346e-5
5.800e+1, -2.085e-5
5.810e+1, 6.350e-4
5.820e+1, 1.994e-4
5.830e+1, 1.302e-4
5.840e+1, 1.023e-4
5.850e+1, 8.580e-5
5.860e+1, 7.505e-5
5.870e+1, 6.747e-5
5.880e+1, 6.167e-5
5.890e+1, 5.744e-5
5.900e+1, 5.423e-5
5.910e+1, -7.409e-4
5.920e+1, -8.457e-5
5.930e+1, -5.610e-5
5.940e+1, -4.481e-5
5.950e+1, -3.813e-5
5.960e+1, -3.293e-5
5.970e+1, -2.854e-5
5.980e+1, -2.545e-5
5.990e+1, -2.296e-5
6.000e+1, -2.109e-5
6.010e+1, 6.315e-4
6.020e+1, 2.007e-4
6.030e+1, 1.294e-4
6.040e+1, 1.019e-4
6.050e+1, 8.561e-5
6.060e+1, 7.472e-5
6.070e+1, 6.692e-5
6.080e+1, 6.138e-5
6.090e+1, 5.722e-5
6.100e+1, 5.406e-5
6.110e+1, -7.350e-4
6.120e+1, -8.247e-5
6.130e+1, -5.495e-5
6.140e+1, -4.361e-5
6.150e+1, -3.644e-5
6.160e+1, -3.136e-5
6.170e+1, -2.788e-5
6.180e+1, -2.476e-5
6.190e+1, -2.242e-5
6.200e+1, -2.049e-5
6.210e+1, 6.222e-4
6.220e+1, 1.977e-4
6.230e+1, 1.281e-4
6.240e+1, 1.008e-4
6.250e+1, 8.489e-5
6.260e+1, 7.439e-5
6.270e+1, 6.668e-5
6.280e+1, 6.104e-5
6.290e+1, 5.698e-5
6.300e+1, 5.386e-5
6.310e+1, -7.302e-4
6.320e+1, -8.367e-5
6.330e+1, -5.668e-5
6.340e+1, -4.423e-5
6.350e+1, -3.759e-5
6.360e+1, -3.277e-5
6.370e+1, -2.901e-5
6.380e+1, -2.595e-5
6.390e+1, -2.343e-5
6.400e+1, -2.131e-5
6.410e+1, 6.255e-4
6.420e+1, 1.987e-4
6.430e+1, 1.285e-4
6.440e+1, 1.011e-4
6.450e+1, 8.487e-5
6.460e+1, 7.405e-5
6.470e+1, 6.641e-5
6.480e+1, 6.091e-5
6.490e+1, 5.687e-5
6.500e+1, 5.365e-5
6.510e+1, -7.312e-4
6.520e+1, -8.340e-5
6.530e+1, -5.555e-5
6.540e+1, -4.340e-5
6.550e+1, -3.670e-5
6.560e+1, -3.221e-5
6.570e+1, -2.882e-5
6.580e+1, -2.606e-5
6.590e+1, -2.315e-5
6.600e+1, -2.110e-5
6.610e+1, 6.200e-4
6.620e+1, 2.013e-4
6.630e+1, 1.276e-4
6.640e+1, 1.008e-4
6.650e+1, 8.428e-5
6.660e+1, 7.362e-5
6.670e+1, 6.605e-5
6.680e+1, 6.069e-5
6.690e+1, 5.657e-5
6.700e+1, 5.353e-5
6.710e+1, -7.293e-4
6.720e+1, -8.589e-5
6.730e+1, -5.616e-5
6.740e+1, -4.382e-5
6.750e+1, -3.713e-5
6.760e+1, -3.216e-5
6.770e+1, -2.837e-5
6.780e+1, -2.542e-5
6.790e+1, -2.310e-5
6.800e+1, -2.108e-5
6.810e+1, 6.200e-4
6.820e+1, 2.001e-4
6.830e+1, 1.272e-4
6.840e+1, 9.991e-5
6.850e+1, 8.411e-5
6.860e+1, 7.336e-5
6.870e+1, 6.582e-5
6.880e+1, 6.037e-5
6.890e+1, 5.641e-5
6.900e+1, 5.331e-5
6.910e+1, -7.226e-4
6.920e+1, -8.731e-5
6.930e+1, -5.796e-5
6.940e+1, -4.592e-5
6.950e+1, -3.876e-5
6.960e+1, -3.339e-5
6.970e+1, -2.883e-5
6.980e+1, -2.561e-5
6.990e+1, -2.286e-5
7.000e+1, -2.098e-5
7.010e+1, 6.192e-4
7.020e+1, 2.008e-4
7.030e+1, 1.275e-4
7.040e+1, 9.997e-5
7.050e+1, 8.418e-5
7.060e+1, 7.359e-5
7.070e+1, 6.602e-5
7.080e+1, 6.050e-5
7.090e+1, 5.649e-5
7.100e+1, 5.341e-5
7.110e+1, -7.260e-4
7.120e+1, -8.552e-5
7.130e+1, -5.660e-5
7.140e+1, -4.476e-5
7.150e+1, -3.712e-5
7.160e+1, -3.271e-5
7.170e+1, -2.897e-5
7.180e+1, -2.586e-5
7.190e+1, -2.345e-5
7.200e+1, -2.135e-5
7.210e+1, 6.143e-4
7.220e+1, 2.029e-4
7.230e+1, 1.270e-4
7.240e+1, 1.000e-4
7.250e+1, 8.397e-5
7.260e+1, 7.352e-5
7.270e+1, 6.602e-5
7.280e+1, 6.042e-5
7.290e+1, 5.640e-5
7.300e+1, 5.333e-5
7.310e+1, -7.133e-4
7.320e+1, -8.666e-5
7.330e+1, -5.654e-5
7.340e+1, -4.449e-5
7.350e+1, -3.766e-5
7.360e+1, -3.226e-5
7.370e+1, -2.843e-5
7.380e+1, -2.568e-5
7.390e+1, -2.323e-5
7.400e+1, -2.134e-5
7.410e+1, 6.027e-4
7.420e+1, 2.057e-4
7.430e+1, 1.262e-4
7.440e+1, 9.905e-5
7.450e+1, 8.348e-5
7.460e+1, 7.301e-5
7.470e+1, 6.567e-5
7.480e+1, 6.040e-5
7.490e+1, 5.630e-5
7.500e+1, 5.324e-5
7.510e+1, -7.150e-4
7.520e+1, -8.417e-5
7.530e+1, -5.609e-5
7.540e+1, -4.370e-5
7.550e+1, -3.659e-5
7.560e+1, -3.176e-5
7.570e+1, -2.797e-5
7.580e+1, -2.500e-5
7.590e+1, -2.271e-5
7.600e+1, -2.065e-5
7.610e+1, 5.979e-4
7.620e+1, 2.045e-4
7.630e+1, 1.254e-4
7.640e+1, 9.843e-5
7.650e+1, 8.301e-5
7.660e+1, 7.269e-5
7.670e+1, 6.536e-5
7.680e+1, 5.996e-5
7.690e+1, 5.597e-5
7.700e+1, 5.300e-5
7.710e+1, -7.164e-4
7.720e+1, -8.376e-5
7.730e+1, -5.580e-5
7.740e+1, -4.458e-5
7.750e+1, -3.737e-5
7.760e+1, -3.242e-5
7.770e+1, -2.887e-5
7.780e+1, -2.590e-5
7.790e+1, -2.347e-5
7.800e+1, -2.132e-5
7.810e+1, 6.022e-4
7.820e+1, 2.013e-4
7.830e+1, 1.249e-4
7.840e+1, 9.844e-5
7.850e+1, 8.292e-5
7.860e+1, 7.246e-5
7.870e+1, 6.514e-5
7.880e+1, 5.987e-5
7.890e+1, 5.591e-5
7.900e+1, 5.290e-5
7.910e+1, -7.070e-4
7.920e+1, -8.764e-5
7.930e+1, -5.759e-5
7.940e+1, -4.419e-5
7.950e+1, -3.676e-5
7.960e+1, -3.163e-5
7.970e+1, -2.804e-5
7.980e+1, -2.509e-5
7.990e+1, -2.312e-5
8.000e+1, -2.109e-5
8.010e+1, 6.027e-4
8.020e+1, 1.980e-4
8.030e+1, 1.243e-4
8.040e+1, 9.764e-5
8.050e+1, 8.232e-5
8.060e+1, 7.219e-5
8.070e+1, 6.471e-5
8.080e+1, 5.941e-5
8.090e+1, 5.552e-5
8.100e+1, 5.256e-5
8.110e+1, -7.045e-4
8.120e+1, -8.555e-5
8.130e+1, -5.712e-5
8.140e+1, -4.468e-5
8.150e+1, -3.721e-5
8.160e+1, -3.193e-5
8.170e+1, -2.779e-5
8.180e+1, -2.489e-5
8.190e+1, -2.252e-5
8.200e+1, -2.012e-5
8.210e+1, 5.941e-4
8.220e+1, 1.997e-4
8.230e+1, 1.240e-4
8.240e+1, 9.732e-5
8.250e+1, 8.204e-5
8.260e+1, 7.183e-5
8.270e+1, 6.463e-5
8.280e+1, 5.928e-5
8.290e+1, 5.542e-5
8.300e+1, 5.248e-5
8.310e+1, -7.049e-4
8.320e+1, -8.533e-5
8.330e+1, -5.686e-5
8.340e+1, -4.400e-5
8.350e+1, -3.669e-5
8.360e+1, -3.119e-5
8.370e+1, -2.731e-5
8.380e+1, -2.463e-5
8.390e+1, -2.211e-5
8.400e+1, -2.027e-5
8.410e+1, 5.876e-4
8.420e+1, 2.034e-4
8.430e+1, 1.235e-4
8.440e+1, 9.699e-5
8.450e+1, 8.171e-5
8.460e+1, 7.167e-5
8.470e+1, 6.452e-5
8.480e+1, 5.925e-5
8.490e+1, 5.541e-5
8.500e+1, 5.249e-5
8.510e+1, -6.939e-4
8.520e+1, -8.310e-5
8.530e+1, -5.516e-5
8.540e+1, -4.260e-5
8.550e+1, -3.557e-5
8.560e+1, -3.107e-5
8.570e+1, -2.760e-5
8.580e+1, -2.488e-5
8.590e+1, -2.239e-5
8.600e+1, -2.038e-5
8.610e+1, 5.766e-4
8.620e+1, 2.047e-4
8.630e+1, 1.216e-4
8.640e+1, 9.569e-5
8.650e+1, 8.087e-5
8.660e+1, 7.113e-5
8.670e+1, 6.408e-5
8.680e+1, 5.906e-5
8.690e+1, 5.525e-5
8.700e+1, 5.238e-5
8.710e+1, -6.915e-4
8.720e+1, -8.431e-5
8.730e+1, -5.538e-5
8.740e+1, -4.363e-5
8.750e+1, -3.692e-5
8.760e+1, -3.184e-5
8.770e+1, -2.845e-5
8.780e+1, -2.564e-5
8.790e+1, -2.315e-5
8.800e+1, -2.159e-5
8.810e+1, 5.877e-4
8.820e+1, 1.968e-4
8.830e+1, 1.213e-4
8.840e+1, 9.542e-5
8.850e+1, 8.066e-5
8.860e+1, 7.082e-5
8.870e+1, 6.374e-5
8.880e+1, 5.863e-5
8.890e+1, 5.481e-5
8.900e+1, 5.197e-5
8.910e+1, -6.891e-4
8.920e+1, -8.367e-5
8.930e+1, -5.524e-5
8.940e+1, -4.331e-5
8.950e+1, -3.604e-5
8.960e+1, -3.103e-5
8.970e+1, -2.748e-5
8.980e+1, -2.456e-5
8.990e+1, -2.217e-5
9.000e+1, -2.036e-5
9.010e+1, 5.776e-4
9.020e+1, 1.990e-4
9.030e+1, 1.205e-4
9.040e+1, 9.501e-5
9.050e+1, 8.059e-5
9.060e+1, 7.088e-5
9.070e+1, 6.374e-5
9.080e+1, 5.868e-5
9.090e+1, 5.493e-5
9.100e+1, 5.211e-5
9.110e+1, -6.866e-4
9.120e+1, -8.462e-5
9.130e+1, -5.581e-5
9.140e+1, -4.237e-5
9.150e+1, -3.538e-5
9.160e+1, -3.042e-5
9.170e+1, -2.691e-5
9.180e+1, -2.442e-5
9.190e+1, -2.230e-5
9.200e+1, -2.066e-5
9.210e+1, 5.705e-4
9.220e+1, 2.014e-4
9.230e+1, 1.207e-4
9.240e+1, 9.505e-5
9.250e+1, 8.020e-5
9.260e+1, 7.097e-5
9.270e+1, 6.373e-5
9.280e+1, 5.842e-5
9.290e+1, 5.467e-5
9.300e+1, 5.186e-5
9.310e+1, -6.846e-4
9.320e+1, -8.445e-5
9.330e+1, -5.609e-5
9.340e+1, -4.416e-5
9.350e+1, -3.712e-5
9.360e+1, -3.222e-5
9.370e+1, -2.752e-5
9.380e+1, -2.487e-5
9.390e+1, -2.244e-5
9.400e+1, -2.083e-5
9.410e+1, 5.725e-4
9.420e+1, 2.039e-4
9.430e+1, 1.207e-4
9.440e+1, 9.480e-5
9.450e+1, 8.005e-5
9.460e+1, 7.035e-5
9.470e+1, 6.338e-5
9.480e+1, 5.829e-5
9.490e+1, 5.450e-5
9.500e+1, 5.169e-5
9.510e+1, -6.833e-4
9.520e+1, -8.297e-5
9.530e+1, -5.519e-5
9.540e+1, -4.320e-5
9.550e+1, -3.607e-5
9.560e+1, -3.104e-5
9.570e+1, -2.733e-5
9.580e+1, -2.468e-5
9.590e+1, -2.256e-5
9.600e+1, -2.101e-5
9.610e+1, 5.635e-4
9.620e+1, 2.065e-4
9.630e+1, 1.202e-4
9.640e+1, 9.417e-5
9.650e+1, 7.959e-5
9.660e+1, 6.999e-5
9.670e+1, 6.316e-5
9.680e+1, 5.810e-5
9.690e+1, 5.435e-5
9.700e+1, 5.166e-5
9.710e+1, -6.809e-4
9.720e+1, -8.249e-5
9.730e+1, -5.488e-5
9.740e+1, -4.249e-5
9.750e+1, -3.549e-5
9.760e+1, -3.074e-5
9.770e+1, -2.766e-5
9.780e+1, -2.494e-5
9.790e+1, -2.270e-5
9.800e+1, -2.089e-5
9.810e+1, 5.675e-4
9.820e+1, 2.000e-4
9.830e+1, 1.203e-4
9.840e+1, 9.386e-5
9.850e+1, 7.929e-5
9.860e+1, 6.974e-5
9.870e+1, 6.289e-5
9.880e+1, 5.789e-5
9.890e+1, 5.418e-5
9.900e+1, 5.151e-5
9.910e+1, -6.799e-4
9.920e+1, -8.546e-5
9.930e+1, -5.598e-5
9.940e+1, -4.419e-5
9.950e+1, -3.724e-5
9.960e+1, -3.177e-5
9.970e+1, -2.709e-5
9.980e+1, -2.450e-5
9.990e+1, -2.241e-5
1.000e+2, -2.046e-5
1.001e+2, 5.830e-4
1.002e+2, 1.924e-4
1.003e+2, 1.184e-4
1.004e+2, 9.328e-5
1.005e+2, 7.905e-5
1.006e+2, 6.959e-5
1.007e+2, 6.270e-5
1.008e+2, 5.770e-5
1.009e+2, 5.399e-5
1.010e+2, 5.142e-5
1.011e+2, -6.806e-4
1.012e+2, -8.490e-5
1.013e+2, -5.591e-5
1.014e+2, -4.425e-5
1.015e+2, -3.723e-5
1.016e+2, -3.197e-5
1.017e+2, -2.759e-5
1.018e+2, -2.422e-5
1.019e+2, -2.260e-5
1.020e+2, -2.090e-5
1.021e+2, 5.798e-4
1.022e+2, 1.953e-4
1.023e+2, 1.185e-4
1.024e+2, 9.328e-5
1.025e+2, 7.910e-5
1.026e+2, 6.977e-5
1.027e+2, 6.269e-5
1.028e+2, 5.757e-5
1.029e+2, 5.383e-5
1.030e+2, 5.110e-5
1.031e+2, -6.812e-4
1.032e+2, -8.678e-5
1.033e+2, -5.777e-5
1.034e+2, -4.531e-5
1.035e+2, -3.738e-5
1.036e+2, -3.098e-5
1.037e+2, -2.672e-5
1.038e+2, -2.427e-5
1.039e+2, -2.249e-5
1.040e+2, -2.080e-5
1.041e+2, 5.843e-4
1.042e+2, 1.914e-4
1.043e+2, 1.178e-4
1.044e+2, 9.298e-5
1.045e+2, 7.886e-5
1.046e+2, 6.931e-5
1.047e+2, 6.247e-5
1.048e+2, 5.774e-5
1.049e+2, 5.407e-5
1.050e+2, 5.133e-5
1.051e+2, -6.859e-4
1.052e+2, -9.083e-5
1.053e+2, -5.522e-5
1.054e+2, -4.193e-5
1.055e+2, -3.488e-5
1.056e+2, -3.031e-5
1.057e+2, -2.714e-5
1.058e+2, -2.454e-5
1.059e+2, -2.260e-5
1.060e+2, -2.085e-5
1.061e+2, 5.746e-4
1.062e+2, 1.971e-4
1.063e+2, 1.181e-4
1.064e+2, 9.328e-5
1.065e+2, 7.941e-5
1.066e+2, 6.966e-5
1.067e+2, 6.286e-5
1.068e+2, 5.792e-5
1.069e+2, 5.410e-5
1.070e+2, 5.134e-5
1.071e+2, -6.845e-4
1.072e+2, -8.781e-5
1.073e+2, -5.572e-5
1.074e+2, -4.196e-5
1.075e+2, -3.481e-5
1.076e+2, -3.032e-5
1.077e+2, -2.645e-5
1.078e+2, -2.370e-5
1.079e+2, -2.180e-5
1.080e+2, -2.014e-5
1.081e+2, 5.704e-4
1.082e+2, 1.963e-4
1.083e+2, 1.180e-4
1.084e+2, 9.309e-5
1.085e+2, 7.906e-5
1.086e+2, 6.940e-5
1.087e+2, 6.247e-5
1.088e+2, 5.744e-5
1.089e+2, 5.369e-5
1.090e+2, 5.099e-5
1.091e+2, -6.884e-4
1.092e+2, -8.905e-5
1.093e+2, -5.667e-5
1.094e+2, -4.191e-5
1.095e+2, -3.494e-5
1.096e+2, -3.031e-5
1.097e+2, -2.697e-5
1.098e+2, -2.417e-5
1.099e+2, -2.180e-5
1.100e+2, -2.012e-5
1.101e+2, 5.627e-4
1.102e+2, 2.092e-4
1.103e+2, 1.197e-4
1.104e+2, 9.373e-5
1.105e+2, 7.914e-5
1.106e+2, 6.954e-5
1.107e+2, 6.276e-5
1.108e+2, 5.765e-5
1.109e+2, 5.448e-5
1.110e+2, 5.125e-5
1.111e+2, -6.827e-4
1.112e+2, -8.756e-5
1.113e+2, -5.877e-5
1.114e+2, -4.405e-5
1.115e+2, -3.632e-5
1.116e+2, -3.141e-5
1.117e+2, -2.774e-5
1.118e+2, -2.536e-5
1.119e+2, -2.328e-5
1.120e+2, -2.107e-5
1.121e+2, 5.674e-4
1.122e+2, 2.055e-4
1.123e+2, 1.206e-4
1.124e+2, 9.421e-5
1.125e+2, 7.948e-5
1.126e+2, 7.064e-5
1.127e+2, 6.306e-5
1.128e+2, 5.801e-5
1.129e+2, 5.423e-5
1.130e+2, 5.143e-5
1.131e+2, -6.887e-4
1.132e+2, -8.601e-5
1.133e+2, -5.664e-5
1.134e+2, -4.508e-5
1.135e+2, -3.720e-5
1.136e+2, -3.164e-5
1.137e+2, -2.819e-5
1.138e+2, -2.533e-5
1.139e+2, -2.300e-5
1.140e+2, -2.135e-5
1.141e+2, 5.704e-4
1.142e+2, 2.062e-4
1.143e+2, 1.217e-4
1.144e+2, 9.486e-5
1.145e+2, 7.982e-5
1.146e+2, 7.011e-5
1.147e+2, 6.307e-5
1.148e+2, 5.790e-5
1.149e+2, 5.407e-5
1.150e+2, 5.130e-5
1.151e+2, -6.755e-4
1.152e+2, -8.539e-5
1.153e+2, -5.692e-5
1.154e+2, -4.521e-5
1.155e+2, -3.800e-5
1.156e+2, -3.294e-5
1.157e+2, -2.898e-5
1.158e+2, -2.648e-5
1.159e+2, -2.339e-5
1.160e+2, -2.172e-5
1.161e+2, 5.732e-4
1.162e+2, 2.020e-4
1.163e+2, 1.205e-4
1.164e+2, 9.419e-5
1.165e+2, 7.945e-5
1.166e+2, 6.984e-5
1.167e+2, 6.292e-5
1.168e+2, 5.785e-5
1.169e+2, 5.407e-5
1.170e+2, 5.134e-5
1.171e+2, -6.799e-4
1.172e+2, -8.246e-5
1.173e+2, -5.443e-5
1.174e+2, -4.283e-5
1.175e+2, -3.590e-5
1.176e+2, -3.131e-5
1.177e+2, -2.784e-5
1.178e+2, -2.512e-5
1.179e+2, -2.314e-5
1.180e+2, -2.125e-5
1.181e+2, 5.671e-4
1.182e+2, 1.986e-4
1.183e+2, 1.196e-4
1.184e+2, 9.370e-5
1.185e+2, 7.926e-5
1.186e+2, 6.964e-5
1.187e+2, 6.282e-5
1.188e+2, 5.780e-5
1.189e+2, 5.411e-5
1.190e+2, 5.144e-5
1.191e+2, -6.752e-4
1.192e+2, -8.291e-5
1.193e+2, -5.492e-5
1.194e+2, -4.333e-5
1.195e+2, -3.690e-5
1.196e+2, -3.204e-5
1.197e+2, -2.793e-5
1.198e+2, -2.476e-5
1.199e+2, -2.269e-5
1.200e+2, -2.130e-5
1.201e+2, 5.669e-4
1.202e+2, 1.990e-4
1.203e+2, 1.191e-4
1.204e+2, 9.337e-5
1.205e+2, 7.894e-5
1.206e+2, 6.955e-5
1.207e+2, 6.271e-5
1.208e+2, 5.762e-5
1.209e+2, 5.388e-5
1.210e+2, 5.115e-5
1.211e+2, -6.712e-4
1.212e+2, -8.197e-5
1.213e+2, -5.493e-5
1.214e+2, -4.337e-5
1.215e+2, -3.642e-5
1.216e+2, -3.197e-5
1.217e+2, -2.802e-5
1.218e+2, -2.452e-5
1.219e+2, -2.258e-5
1.220e+2, -2.042e-5
1.221e+2, 5.522e-4
1.222e+2, 2.043e-4
1.223e+2, 1.204e-4
1.224e+2, 9.387e-5
1.225e+2, 7.929e-5
1.226e+2, 6.963e-5
1.227e+2, 6.273e-5
1.228e+2, 5.776e-5
1.229e+2, 5.396e-5
1.230e+2, 5.123e-5
1.231e+2, -6.628e-4
1.232e+2, -8.213e-5
1.233e+2, -5.468e-5
1.234e+2, -4.271e-5
1.235e+2, -3.538e-5
1.236e+2, -3.085e-5
1.237e+2, -2.762e-5
1.238e+2, -2.479e-5
1.239e+2, -2.251e-5
1.240e+2, -2.072e-5
1.241e+2, 5.390e-4
1.242e+2, 2.098e-4
1.243e+2, 1.202e-4
1.244e+2, 9.283e-5
1.245e+2, 7.828e-5
1.246e+2, 6.874e-5
1.247e+2, 6.196e-5
1.248e+2, 5.701e-5
1.249e+2, 5.344e-5
1.250e+2, 5.088e-5
1.251e+2, -6.710e-4
1.252e+2, -8.178e-5
1.253e+2, -5.470e-5
1.254e+2, -4.310e-5
1.255e+2, -3.661e-5
1.256e+2, -3.181e-5
1.257e+2, -2.812e-5
1.258e+2, -2.553e-5
1.259e+2, -2.374e-5
1.260e+2, -2.195e-5
1.261e+2, 5.548e-4
1.262e+2, 2.062e-4
1.263e+2, 1.206e-4
1.264e+2, 9.334e-5
1.265e+2, 7.858e-5
1.266e+2, 6.896e-5
1.267e+2, 6.208e-5
1.268e+2, 5.720e-5
1.269e+2, 5.378e-5
1.270e+2, 5.105e-5
1.271e+2, -6.681e-4
1.272e+2, -8.223e-5
1.273e+2, -5.449e-5
1.274e+2, -4.187e-5
1.275e+2, -3.505e-5
1.276e+2, -3.058e-5
1.277e+2, -2.723e-5
1.278e+2, -2.414e-5
1.279e+2, -2.200e-5
1.280e+2, -2.047e-5
1.281e+2, 5.584e-4
1.282e+2, 1.939e-4
1.283e+2, 1.179e-4
1.284e+2, 9.269e-5
1.285e+2, 7.823e-5
1.286e+2, 6.874e-5
1.287e+2, 6.197e-5
1.288e+2, 5.706e-5
1.289e+2, 5.348e-5
1.290e+2, 5.084e-5
1.291e+2, -6.710e-4
1.292e+2, -8.874e-5
1.293e+2, -5.257e-5
1.294e+2, -4.063e-5
1.295e+2, -3.452e-5
1.296e+2, -2.980e-5
1.297e+2, -2.665e-5
1.298e+2, -2.390e-5
1.299e+2, -2.200e-5
1.300e+2, -2.064e-5
1.301e+2, 5.579e-4
1.302e+2, 1.987e-4
1.303e+2, 1.179e-4
1.304e+2, 9.243e-5
1.305e+2, 7.814e-5
1.306e+2, 6.864e-5
1.307e+2, 6.173e-5
1.308e+2, 5.683e-5
1.309e+2, 5.325e-5
1.310e+2, 5.059e-5
1.311e+2, -6.682e-4
1.312e+2, -8.508e-5
1.313e+2, -5.939e-5
1.314e+2, -4.209e-5
1.315e+2, -3.510e-5
1.316e+2, -3.063e-5
1.317e+2, -2.726e-5
1.318e+2, -2.416e-5
1.319e+2, -2.170e-5
1.320e+2, -2.010e-5
1.321e+2, 5.599e-4
1.322e+2, 1.978e-4
1.323e+2, 1.191e-4
1.324e+2, 9.298e-5
1.325e+2, 7.842e-5
1.326e+2, 6.878e-5
1.327e+2, 6.195e-5
1.328e+2, 5.701e-5
1.329e+2, 5.344e-5
1.330e+2, 5.078e-5
1.331e+2, -6.675e-4
1.332e+2, -8.347e-5
1.333e+2, -5.586e-5
1.334e+2, -4.401e-5
1.335e+2, -3.689e-5
1.336e+2, -3.159e-5
1.337e+2, -2.756e-5
1.338e+2, -2.461e-5
1.339e+2, -2.251e-5
1.340e+2, -2.090e-5
1.341e+2, 5.697e-4
1.342e+2, 1.943e-4
1.343e+2, 1.183e-4
1.344e+2, 9.332e-5
1.345e+2, 7.877e-5
1.346e+2, 6.907e-5
1.347e+2, 6.221e-5
1.348e+2, 5.718e-5
1.349e+2, 5.356e-5
1.350e+2, 5.083e-5
1.351e+2, -6.642e-4
1.352e+2, -8.502e-5
1.353e+2, -5.712e-5
1.354e+2, -4.516e-5
1.355e+2, -3.623e-5
1.356e+2, -3.159e-5
1.357e+2, -2.828e-5
1.358e+2, -2.564e-5
1.359e+2, -2.394e-5
1.360e+2, -2.212e-5
1.361e+2, 5.720e-4
1.362e+2, 1.966e-4
1.363e+2, 1.183e-4
1.364e+2, 9.297e-5
1.365e+2, 7.842e-5
1.366e+2, 6.879e-5
1.367e+2, 6.185e-5
1.368e+2, 5.692e-5
1.369e+2, 5.335e-5
1.370e+2, 5.074e-5
1.371e+2, -6.761e-4
1.372e+2, -8.355e-5
1.373e+2, -5.574e-5
1.374e+2, -4.370e-5
1.375e+2, -3.624e-5
1.376e+2, -3.146e-5
1.377e+2, -2.788e-5
1.378e+2, -2.495e-5
1.379e+2, -2.300e-5
1.380e+2, -2.118e-5
1.381e+2, 5.647e-4
1.382e+2, 2.008e-4
1.383e+2, 1.197e-4
1.384e+2, 9.370e-5
1.385e+2, 7.897e-5
1.386e+2, 6.923e-5
1.387e+2, 6.224e-5
1.388e+2, 5.718e-5
1.389e+2, 5.353e-5
1.390e+2, 5.094e-5
1.391e+2, -6.759e-4
1.392e+2, -8.725e-5
1.393e+2, -5.663e-5
1.394e+2, -4.343e-5
1.395e+2, -3.665e-5
1.396e+2, -3.240e-5
1.397e+2, -2.860e-5
1.398e+2, -2.578e-5
1.399e+2, -2.353e-5
1.400e+2, -2.175e-5
1.401e+2, 5.678e-4
1.402e+2, 2.036e-4
1.403e+2, 1.207e-4
1.404e+2, 9.426e-5
1.405e+2, 7.937e-5
1.406e+2, 6.946e-5
1.407e+2, 6.241e-5
1.408e+2, 5.731e-5
1.409e+2, 5.359e-5
1.410e+2, 5.094e-5
1.411e+2, -6.737e-4
1.412e+2, -8.657e-5
1.413e+2, -5.743e-5
1.414e+2, -4.460e-5
1.415e+2, -3.780e-5
1.416e+2, -3.287e-5
1.417e+2, -2.899e-5
1.418e+2, -2.546e-5
1.419e+2, -2.295e-5
1.420e+2, -2.109e-5
1.421e+2, 5.694e-4
1.422e+2, 2.012e-4
1.423e+2, 1.212e-4
1.424e+2, 9.448e-5
1.425e+2, 7.947e-5
1.426e+2, 6.937e-5
1.427e+2, 6.238e-5
1.428e+2, 5.726e-5
1.429e+2, 5.352e-5
1.430e+2, 5.089e-5
1.431e+2, -6.767e-4
1.432e+2, -8.397e-5
1.433e+2, -5.668e-5
1.434e+2, -4.435e-5
1.435e+2, -3.694e-5
1.436e+2, -3.215e-5
1.437e+2, -2.865e-5
1.438e+2, -2.567e-5
1.439e+2, -2.321e-5
1.440e+2, -2.127e-5
1.441e+2, 5.695e-4
1.442e+2, 2.011e-4
1.443e+2, 1.213e-4
1.444e+2, 9.494e-5
1.445e+2, 8.003e-5
1.446e+2, 7.001e-5
1.447e+2, 6.272e-5
1.448e+2, 5.757e-5
1.449e+2, 5.386e-5
1.450e+2, 5.119e-5
1.451e+2, -6.692e-4
1.452e+2, -8.457e-5
1.453e+2, -5.667e-5
1.454e+2, -4.396e-5
1.455e+2, -3.712e-5
1.456e+2, -3.221e-5
1.457e+2, -2.828e-5
1.458e+2, -2.520e-5
1.459e+2, -2.300e-5
1.460e+2, -2.174e-5
1.461e+2, 5.655e-4
1.462e+2, 1.994e-4
1.463e+2, 1.227e-4
1.464e+2, 9.526e-5
1.465e+2, 8.010e-5
1.466e+2, 6.996e-5
1.467e+2, 6.284e-5
1.468e+2, 5.776e-5
1.469e+2, 5.403e-5
1.470e+2, 5.141e-5
1.471e+2, -6.777e-4
1.472e+2, -8.337e-5
1.473e+2, -5.536e-5
1.474e+2, -4.296e-5
1.475e+2, -3.568e-5
1.476e+2, -3.082e-5
1.477e+2, -2.700e-5
1.478e+2, -2.428e-5
1.479e+2, -2.225e-5
1.480e+2, -2.048e-5
1.481e+2, 5.676e-4
1.482e+2, 2.030e-4
1.483e+2, 1.205e-4
1.484e+2, 9.475e-5
1.485e+2, 7.983e-5
1.486e+2, 6.986e-5
1.487e+2, 6.284e-5
1.488e+2, 5.787e-5
1.489e+2, 5.423e-5
1.490e+2, 5.153e-5
1.491e+2, -6.630e-4
1.492e+2, -8.294e-5
1.493e+2, -5.504e-5
1.494e+2, -4.351e-5
1.495e+2, -3.686e-5
1.496e+2, -3.224e-5
1.497e+2, -2.847e-5
1.498e+2, -2.551e-5
1.499e+2, -2.307e-5
1.500e+2, -2.080e-5
1.501e+2, 5.562e-4
1.502e+2, 2.050e-4
1.503e+2, 1.211e-4
1.504e+2, 9.418e-5
1.505e+2, 7.944e-5
1.506e+2, 6.959e-5
1.507e+2, 6.288e-5
1.508e+2, 5.796e-5
1.509e+2, 5.393e-5
1.510e+2, 5.131e-5
1.511e+2, -6.731e-4
1.512e+2, -8.661e-5
1.513e+2, -5.674e-5
1.514e+2, -4.407e-5
1.515e+2, -3.608e-5
1.516e+2, -3.120e-5
1.517e+2, -2.733e-5
1.518e+2, -2.435e-5
1.519e+2, -2.227e-5
1.520e+2, -2.021e-5
1.521e+2, 5.537e-4
1.522e+2, 2.123e-4
1.523e+2, 1.234e-4
1.524e+2, 9.569e-5
1.525e+2, 8.117e-5
1.526e+2, 7.091e-5
1.527e+2, 6.359e-5
1.528e+2, 5.828e-5
1.529e+2, 5.445e-5
1.530e+2, 5.176e-5
1.531e+2, -6.712e-4
1.532e+2, -8.338e-5
1.533e+2, -5.473e-5
1.534e+2, -4.311e-5
1.535e+2, -3.589e-5
1.536e+2, -3.059e-5
1.537e+2, -2.703e-5
1.538e+2, -2.395e-5
1.539e+2, -2.158e-5
1.540e+2, -1.972e-5
1.541e+2, 5.579e-4
1.542e+2, 2.050e-4
1.543e+2, 1.208e-4
1.544e+2, 9.466e-5
1.545e+2, 7.972e-5
1.546e+2, 6.989e-5
1.547e+2, 6.285e-5
1.548e+2, 5.777e-5
1.549e+2, 5.414e-5
1.550e+2, 5.150e-5
1.551e+2, -6.715e-4
1.552e+2, -8.489e-5
1.553e+2, -5.587e-5
1.554e+2, -4.340e-5
1.555e+2, -3.574e-5
1.556e+2, -3.056e-5
1.557e+2, -2.693e-5
1.558e+2, -2.367e-5
1.559e+2, -2.142e-5
1.560e+2, -1.962e-5
1.561e+2, 5.639e-4
1.562e+2, 1.997e-4
1.563e+2, 1.206e-4
1.564e+2, 9.466e-5
1.565e+2, 7.984e-5
1.566e+2, 6.993e-5
1.567e+2, 6.282e-5
1.568e+2, 5.772e-5
1.569e+2, 5.414e-5
1.570e+2, 5.148e-5
1.571e+2, -6.728e-4
1.572e+2, -8.794e-5
1.573e+2, -5.722e-5
1.574e+2, -4.375e-5
1.575e+2, -3.680e-5
1.576e+2, -3.202e-5
1.577e+2, -2.827e-5
1.578e+2, -2.489e-5
1.579e+2, -2.206e-5
1.580e+2, -1.993e-5
1.581e+2, 5.608e-4
1.582e+2, 2.122e-4
1.583e+2, 1.224e-4
1.584e+2, 9.536e-5
1.585e+2, 8.027e-5
1.586e+2, 7.026e-5
1.587e+2, 6.302e-5
1.588e+2, 5.787e-5
1.589e+2, 5.431e-5
1.590e+2, 5.157e-5
1.591e+2, -6.755e-4
1.592e+2, -8.326e-5
1.593e+2, -5.495e-5
1.594e+2, -4.287e-5
1.595e+2, -3.600e-5
1.596e+2, -3.121e-5
1.597e+2, -2.702e-5
1.598e+2, -2.415e-5
1.599e+2, -2.159e-5
1.600e+2, -1.977e-5
1.601e+2, 5.644e-4
1.602e+2, 2.033e-4
1.603e+2, 1.206e-4
1.604e+2, 9.477e-5
1.605e+2, 7.988e-5
1.606e+2, 6.993e-5
1.607e+2, 6.281e-5
1.608e+2, 5.775e-5
1.609e+2, 5.409e-5
1.610e+2, 5.149e-5
1.611e+2, -6.744e-4
1.612e+2, -8.300e-5
1.613e+2, -5.457e-5
1.614e+2, -4.286e-5
1.615e+2, -3.610e-5
1.616e+2, -3.130e-5
1.617e+2, -2.771e-5
1.618e+2, -2.512e-5
1.619e+2, -2.379e-5
1.620e+2, -2.048e-5
1.621e+2, 5.716e-4
1.622e+2, 1.968e-4
1.623e+2, 1.202e-4
1.624e+2, 9.486e-5
1.625e+2, 8.000e-5
1.626e+2, 7.004e-5
1.627e+2, 6.282e-5
1.628e+2, 5.771e-5
1.629e+2, 5.407e-5
1.630e+2, 5.149e-5
1.631e+2, -6.758e-4
1.632e+2, -8.494e-5
1.633e+2, -5.704e-5
1.634e+2, -4.465e-5
1.635e+2, -3.755e-5
1.636e+2, -3.255e-5
1.637e+2, -2.782e-5
1.638e+2, -2.471e-5
1.639e+2, -2.226e-5
1.640e+2, -2.011e-5
1.641e+2, 5.723e-4
1.642e+2, 2.003e-4
1.643e+2, 1.218e-4
1.644e+2, 9.575e-5
1.645e+2, 8.072e-5
1.646e+2, 7.060e-5
1.647e+2, 6.371e-5
1.648e+2, 5.831e-5
1.649e+2, 5.456e-5
1.650e+2, 5.187e-5
1.651e+2, -6.762e-4
1.652e+2, -8.445e-5
1.653e+2, -5.581e-5
1.654e+2, -4.318e-5
1.655e+2, -3.630e-5
1.656e+2, -3.142e-5
1.657e+2, -2.771e-5
1.658e+2, -2.454e-5
1.659e+2, -2.194e-5
1.660e+2, -2.024e-5
1.661e+2, 5.659e-4
1.662e+2, 2.038e-4
1.663e+2, 1.212e-4
1.664e+2, 9.546e-5
1.665e+2, 8.212e-5
1.666e+2, 7.120e-5
1.667e+2, 6.366e-5
1.668e+2, 5.839e-5
1.669e+2, 5.471e-5
1.670e+2, 5.206e-5
1.671e+2, -6.812e-4
1.672e+2, -8.564e-5
1.673e+2, -5.685e-5
1.674e+2, -4.473e-5
1.675e+2, -3.768e-5
1.676e+2, -3.171e-5
1.677e+2, -2.650e-5
1.678e+2, -2.333e-5
1.679e+2, -2.109e-5
1.680e+2, -1.946e-5
1.681e+2, 5.695e-4
1.682e+2, 2.050e-4
1.683e+2, 1.220e-4
1.684e+2, 9.578e-5
1.685e+2, 8.097e-5
1.686e+2, 7.085e-5
1.687e+2, 6.344e-5
1.688e+2, 5.828e-5
1.689e+2, 5.463e-5
1.690e+2, 5.194e-5
1.691e+2, -6.882e-4
1.692e+2, -8.877e-5
1.693e+2, -5.884e-5
1.694e+2, -4.366e-5
1.695e+2, -3.561e-5
1.696e+2, -3.050e-5
1.697e+2, -2.700e-5
1.698e+2, -2.412e-5
1.699e+2, -2.191e-5
1.700e+2, -1.993e-5
1.701e+2, 5.670e-4
1.702e+2, 2.126e-4
1.703e+2, 1.242e-4
1.704e+2, 9.687e-5
1.705e+2, 8.168e-5
1.706e+2, 7.221e-5
1.707e+2, 6.414e-5
1.708e+2, 5.874e-5
1.709e+2, 5.498e-5
1.710e+2, 5.220e-5
1.711e+2, -6.880e-4
1.712e+2, -8.779e-5
1.713e+2, -5.766e-5
1.714e+2, -4.357e-5
1.715e+2, -3.543e-5
1.716e+2, -3.029e-5
1.717e+2, -2.682e-5
1.718e+2, -2.421e-5
1.719e+2, -2.182e-5
1.720e+2, -1.990e-5
1.721e+2, 5.719e-4
1.722e+2, 2.032e-4
1.723e+2, 1.235e-4
1.724e+2, 9.666e-5
1.725e+2, 8.156e-5
1.726e+2, 7.106e-5
1.727e+2, 6.372e-5
1.728e+2, 5.870e-5
1.729e+2, 5.494e-5
1.730e+2, 5.217e-5
1.731e+2, -6.847e-4
1.732e+2, -8.686e-5
1.733e+2, -5.737e-5
1.734e+2, -4.471e-5
1.735e+2, -3.561e-5
1.736e+2, -3.067e-5
1.737e+2, -2.709e-5
1.738e+2, -2.423e-5
1.739e+2, -2.223e-5
1.740e+2, -2.038e-5
1.741e+2, 5.722e-4
1.742e+2, 2.026e-4
1.743e+2, 1.235e-4
1.744e+2, 9.685e-5
1.745e+2, 8.164e-5
1.746e+2, 7.147e-5
1.747e+2, 6.404e-5
1.748e+2, 5.872e-5
1.749e+2, 5.499e-5
1.750e+2, 5.228e-5
1.751e+2, -6.864e-4
1.752e+2, -8.697e-5
1.753e+2, -5.771e-5
1.754e+2, -4.494e-5
1.755e+2, -3.770e-5
1.756e+2, -3.187e-5
1.757e+2, -2.766e-5
1.758e+2, -2.458e-5
1.759e+2, -2.224e-5
1.760e+2, -2.024e-5
1.761e+2, 5.740e-4
1.762e+2, 2.041e-4
1.763e+2, 1.234e-4
1.764e+2, 9.697e-5
1.765e+2, 8.170e-5
1.766e+2, 7.132e-5
1.767e+2, 6.395e-5
1.768e+2, 5.872e-5
1.769e+2, 5.497e-5
1.770e+2, 5.237e-5
1.771e+2, -6.899e-4
1.772e+2, -8.466e-5
1.773e+2, -5.489e-5
1.774e+2, -4.266e-5
1.775e+2, -3.572e-5
1.776e+2, -3.115e-5
1.777e+2, -2.737e-5
1.778e+2, -2.442e-5
1.779e+2, -2.212e-5
1.780e+2, -2.030e-5
1.781e+2, 5.692e-4
1.782e+2, 2.068e-4
1.783e+2, 1.238e-4
1.784e+2, 9.731e-5
1.785e+2, 8.199e-5
1.786e+2, 7.169e-5
1.787e+2, 6.429e-5
1.788e+2, 5.897e-5
1.789e+2, 5.523e-5
1.790e+2, 5.236e-5
1.791e+2, -6.887e-4
1.792e+2, -8.638e-5
1.793e+2, -5.714e-5
1.794e+2, -4.308e-5
1.795e+2, -3.436e-5
1.796e+2, -2.967e-5
1.797e+2, -2.602e-5
1.798e+2, -2.294e-5
1.799e+2, -2.087e-5
1.800e+2, -1.920e-5
1.801e+2, 5.579e-4
1.802e+2, 2.130e-4
1.803e+2, 1.245e-4
1.804e+2, 9.691e-5
1.805e+2, 8.160e-5
1.806e+2, 7.150e-5
1.807e+2, 6.415e-5
1.808e+2, 5.910e-5
1.809e+2, 5.538e-5
1.810e+2, 5.257e-5
