Potential V vs RHE, Current mA cm-2
0.013299999999999867,-0.1766974413531431
0.012299999999999978,-1.4415908145624723
0.011299999999999866,-2.4007650758709675
0.010299999999999976,-3.273641947887695
0.009299999999999864,-4.0588067193127895
0.008299999999999974,-4.756259390146253
0.007299999999999862,-5.453712060979717
0.006299999999999972,-6.064867342521412
0.00529999999999986,-6.632166573767292
0.0042999999999999705,-7.243321855308987
0.0032999999999998586,-7.679052935667419
0.0022999999999999687,-8.11478401602585
0.0012999999999998568,-8.464217707092514
0.00029999999999996696,-8.725939297567548
-0.000700000000000145,-9.031516938338395
-0.0017000000000000348,-9.24938247851761
-0.0027000000000001467,-9.467248018696827
-0.0037000000000000366,-9.685113558876042
-0.0047000000000001485,-9.902979099055257
-0.005700000000000038,-10.164700689530287
-0.00670000000000015,-10.42642228000532
-0.00770000000000004,-10.644287820184536
-0.008700000000000152,-10.906009410659568
-0.009700000000000042,-11.081433611842833
-0.010700000000000154,-11.255443101726232
-0.011700000000000044,-11.42945259160963
-0.012700000000000156,-11.517164692201263
-0.013700000000000045,-11.604876792792895
-0.014700000000000157,-11.647318131788847
-0.015700000000000047,-11.691174182084664
-0.01670000000000016,-11.778886282676295
-0.01770000000000005,-11.82274233297211
-0.01870000000000016,-11.952895772559694
-0.01970000000000005,-12.084463923447142
-0.020700000000000163,-12.214617363034726
-0.021700000000000053,-12.346185513922174
-0.022700000000000164,-12.476338953509758
-0.023700000000000054,-12.56405105410139
-0.024700000000000166,-12.651763154693022
-0.025700000000000056,-12.694204493688973
-0.026700000000000168,-12.651763154693022
-0.027700000000000058,-12.651763154693022
-0.02870000000000017,-12.651763154693022
-0.02970000000000006,-12.651763154693022
-0.03070000000000017,-12.651763154693022
-0.03170000000000006,-12.651763154693022
-0.03270000000000017,-12.73806054398479
-0.03370000000000006,-12.825772644576423
-0.034700000000000175,-12.913484745168056
-0.035700000000000065,-13.043638184755638
-0.03670000000000018,-13.087494235051453
-0.03770000000000007,-13.13135028534727
-0.03870000000000018,-13.13135028534727
-0.03970000000000007,-13.087494235051453
-0.04070000000000018,-13.087494235051453
-0.04170000000000007,-13.043638184755638
-0.04270000000000018,-12.99978213445982
-0.04370000000000007,-12.99978213445982
-0.044700000000000184,-12.99978213445982
-0.045700000000000074,-13.087494235051453
-0.046700000000000186,-13.13135028534727
-0.047700000000000076,-13.217647674639037
-0.04870000000000019,-13.349215825526485
-0.04970000000000008,-13.3930718758223
-0.05070000000000019,-13.436927926118118
-0.05170000000000008,-13.436927926118118
-0.05270000000000019,-13.3930718758223
-0.05370000000000008,-13.3930718758223
-0.05470000000000019,-13.30535977523067
-0.05570000000000008,-13.261503724934855
-0.056700000000000195,-13.261503724934855
-0.057700000000000085,-13.261503724934855
-0.058700000000000196,-13.30535977523067
-0.059700000000000086,-13.30535977523067
-0.0607000000000002,-13.3930718758223
-0.06170000000000009,-13.47936926511407
-0.0627000000000002,-13.567081365705702
-0.06370000000000009,-13.567081365705702
-0.0647000000000002,-13.610937416001518
-0.06570000000000009,-13.567081365705702
-0.0667000000000002,-13.47936926511407
-0.0677000000000001,-13.47936926511407
-0.0687000000000002,-13.3930718758223
-0.0697000000000001,-13.349215825526485
-0.07070000000000021,-13.30535977523067
-0.0717000000000001,-13.349215825526485
-0.07270000000000021,-13.3930718758223
-0.0737000000000001,-13.436927926118118
-0.07470000000000021,-13.523225315409885
-0.0757000000000001,-13.610937416001518
-0.07670000000000021,-13.610937416001518
-0.0777000000000001,-13.610937416001518
-0.07870000000000021,-13.610937416001518
-0.0797000000000001,-13.567081365705702
-0.08070000000000022,-13.567081365705702
-0.0817000000000001,-13.47936926511407
-0.08270000000000022,-13.3930718758223
-0.08370000000000011,-13.3930718758223
-0.08470000000000022,-13.3930718758223
-0.08570000000000011,-13.436927926118118
-0.08670000000000022,-13.523225315409885
-0.08770000000000011,-13.567081365705702
-0.08870000000000022,-13.610937416001518
-0.08970000000000011,-13.698649516593148
-0.09070000000000022,-13.698649516593148
-0.09170000000000011,-13.698649516593148
-0.09270000000000023,-13.698649516593148
-0.09370000000000012,-13.654793466297335
-0.09470000000000023,-13.610937416001518
-0.09570000000000012,-13.523225315409885
-0.09670000000000023,-13.47936926511407
-0.09770000000000012,-13.47936926511407
-0.09870000000000023,-13.523225315409885
-0.09970000000000012,-13.610937416001518
-0.10070000000000023,-13.654793466297335
-0.10170000000000012,-13.698649516593148
-0.10270000000000024,-13.784946905884919
-0.10370000000000013,-13.784946905884919
-0.10470000000000024,-13.828802956180734
-0.10570000000000013,-13.784946905884919
-0.10670000000000024,-13.741090855589102
-0.10770000000000013,-13.698649516593148
-0.10870000000000024,-13.610937416001518
-0.10970000000000013,-13.567081365705702
-0.11070000000000024,-13.567081365705702
-0.11170000000000013,-13.610937416001518
-0.11270000000000002,-13.654793466297335
-0.11370000000000013,-13.698649516593148
-0.11470000000000002,-13.741090855589102
-0.11570000000000014,-13.828802956180734
-0.11670000000000003,-13.872659006476551
-0.11770000000000014,-13.872659006476551
-0.11870000000000003,-13.872659006476551
-0.11970000000000014,-13.828802956180734
-0.12070000000000003,-13.784946905884919
-0.12170000000000014,-13.741090855589102
-0.12270000000000003,-13.698649516593148
-0.12370000000000014,-13.698649516593148
-0.12470000000000003,-13.654793466297335
-0.12570000000000014,-13.698649516593148
-0.12670000000000003,-13.784946905884919
-0.12770000000000015,-13.872659006476551
-0.12870000000000004,-13.960371107068182
-0.12970000000000015,-14.002812446064135
-0.13070000000000004,-14.002812446064135
-0.13170000000000015,-14.002812446064135
-0.13270000000000004,-14.002812446064135
-0.13370000000000015,-13.960371107068182
-0.13470000000000004,-13.916515056772363
-0.13570000000000015,-13.828802956180734
-0.13670000000000004,-13.828802956180734
-0.13770000000000016,-13.828802956180734
-0.13870000000000005,-13.872659006476551
-0.13970000000000016,-13.960371107068182
-0.14070000000000005,-14.002812446064135
-0.14170000000000016,-14.046668496359947
-0.14270000000000005,-14.13438059695158
-0.14370000000000016,-14.175407224647667
-0.14470000000000005,-14.175407224647667
-0.14570000000000016,-14.175407224647667
-0.14670000000000005,-14.090524546655764
-0.14770000000000016,-14.090524546655764
-0.14870000000000005,-14.002812446064135
-0.14970000000000017,-14.002812446064135
-0.15070000000000006,-13.960371107068182
-0.15170000000000017,-13.960371107068182
-0.15270000000000006,-14.046668496359947
-0.15370000000000017,-14.13438059695158
-0.15470000000000006,-14.175407224647667
-0.15570000000000017,-14.26028990263957
-0.15670000000000006,-14.30273124163552
-0.15770000000000017,-14.345172580631472
-0.15870000000000006,-14.345172580631472
-0.15970000000000018,-14.30273124163552
-0.16070000000000007,-14.217848563643619
-0.16170000000000018,-14.217848563643619
-0.16270000000000007,-14.175407224647667
-0.16370000000000018,-14.175407224647667
-0.16470000000000007,-14.175407224647667
-0.16570000000000018,-14.217848563643619
-0.16670000000000007,-14.30273124163552
-0.16770000000000018,-14.345172580631472
-0.16870000000000007,-14.444202371622024
-0.16970000000000018,-14.486643710617974
-0.17070000000000007,-14.529085049613924
-0.17170000000000019,-14.529085049613924
-0.17270000000000008,-14.529085049613924
-0.1737000000000002,-14.486643710617974
-0.17470000000000008,-14.486643710617974
-0.1757000000000002,-14.401761032626075
-0.17670000000000008,-14.401761032626075
-0.1777000000000002,-14.401761032626075
-0.17870000000000008,-14.401761032626075
-0.1797000000000002,-14.486643710617974
-0.18070000000000008,-14.57152638860988
-0.1817000000000002,-14.61396772760583
-0.18270000000000008,-14.69885040559773
-0.1837000000000002,-14.741291744593681
-0.1847000000000001,-14.783733083589633
-0.1857000000000002,-14.741291744593681
-0.1867000000000001,-14.69885040559773
-0.1877000000000002,-14.65640906660178
-0.1887000000000001,-14.61396772760583
-0.1897000000000002,-14.61396772760583
-0.1907000000000001,-14.57152638860988
-0.1917000000000001,-14.61396772760583
-0.19269999999999998,-14.65640906660178
-0.1937000000000001,-14.69885040559773
-0.19469999999999998,-14.826174422585586
-0.1957000000000001,-14.925204213576137
-0.19669999999999999,-14.967645552572087
-0.1977000000000001,-15.01008689156804
-0.1987,-15.01008689156804
-0.1997000000000001,-14.967645552572087
-0.2007,-14.967645552572087
-0.2017000000000001,-14.925204213576137
-0.2027,-14.826174422585586
-0.2037000000000001,-14.868615761581536
-0.2047,-14.868615761581536
-0.2057000000000001,-14.925204213576137
-0.2067,-15.01008689156804
-0.2077000000000001,-15.094969569559943
-0.2087,-15.222293586547794
-0.2097000000000001,-15.264734925543747
-0.2107,-15.307176264539699
-0.2117000000000001,-15.307176264539699
-0.2127,-15.307176264539699
-0.2137000000000001,-15.307176264539699
-0.2147,-15.264734925543747
-0.2157000000000001,-15.264734925543747
-0.2167,-15.264734925543747
-0.21770000000000012,-15.264734925543747
-0.2187,-15.307176264539699
-0.21970000000000012,-15.3920589425316
-0.2207,-15.491088733522153
-0.22170000000000012,-15.575971411514052
-0.2227,-15.70329542850191
-0.22370000000000012,-15.74573676749786
-0.2247,-15.78817810649381
-0.22570000000000012,-15.74573676749786
-0.2267,-15.74573676749786
-0.22770000000000012,-15.70329542850191
-0.22870000000000001,-15.660854089505953
-0.22970000000000013,-15.660854089505953
-0.23070000000000002,-15.660854089505953
-0.23170000000000013,-15.70329542850191
-0.23270000000000002,-15.74573676749786
-0.23370000000000013,-15.830619445489761
-0.23470000000000002,-15.91550212348166
-0.23570000000000013,-16.099414592464115
-0.23670000000000002,-16.099414592464115
-0.2376999999999999,-16.184297270456018
-0.23870000000000002,-16.184297270456018
-0.2396999999999999,-16.184297270456018
-0.24070000000000003,-16.184297270456018
-0.24169999999999991,-16.141855931460068
-0.24270000000000003,-16.099414592464115
-0.24369999999999992,-16.141855931460068
-0.24470000000000003,-16.141855931460068
-0.24569999999999992,-16.22673860945197
-0.24670000000000003,-16.354062626439823
-0.24769999999999992,-16.438945304431726
-0.24870000000000003,-16.53797509542228
-0.24969999999999992,-16.622857773414182
-0.25070000000000003,-16.70774045140608
-0.2516999999999999,-16.750181790402035
-0.25270000000000004,-16.750181790402035
-0.2536999999999999,-16.70774045140608
-0.25470000000000004,-16.70774045140608
-0.2556999999999999,-16.665299112410132
-0.25670000000000004,-16.70774045140608
-0.25769999999999993,-16.750181790402035
-0.25870000000000004,-16.792623129397985
-0.25969999999999993,-16.919947146385837
-0.26070000000000004,-17.018976937376394
-0.26169999999999993,-17.146300954364243
-0.26270000000000004,-17.231183632356142
-0.26369999999999993,-17.316066310348052
-0.26470000000000005,-17.358507649344002
-0.26569999999999994,-17.40094898833995
-0.26670000000000005,-17.358507649344002
-0.26769999999999994,-17.358507649344002
-0.26870000000000005,-17.358507649344002
-0.26969999999999994,-17.358507649344002
-0.27070000000000005,-17.40094898833995
-0.27169999999999994,-17.4433903273359
-0.27270000000000005,-17.542420118326454
-0.27369999999999994,-17.669744135314307
-0.27470000000000006,-17.797068152302163
-0.27569999999999995,-17.924392169290012
-0.27670000000000006,-17.966833508285966
-0.27769999999999995,-18.10830463827247
-0.27870000000000006,-18.15074597726842
-0.27969999999999995,-18.15074597726842
-0.28070000000000006,-18.19318731626437
-0.28169999999999995,-18.19318731626437
-0.28270000000000006,-18.23562865526032
-0.28369999999999995,-18.27806999425627
-0.28470000000000006,-18.320511333252224
-0.28569999999999995,-18.40539401124413
-0.28670000000000007,-18.589306480226583
-0.28769999999999996,-18.716630497214435
-0.28870000000000007,-18.843954514202288
-0.28969999999999996,-18.97127853119014
-0.29070000000000007,-19.112749661176647
-0.29169999999999996,-19.197632339168546
-0.29270000000000007,-19.2400736781645
-0.29369999999999996,-19.2400736781645
-0.2947000000000001,-19.28251501716045
-0.29569999999999996,-19.28251501716045
-0.2967000000000001,-19.367397695152352
-0.29769999999999996,-19.409839034148305
-0.2987000000000001,-19.537163051136158
-0.29969999999999997,-19.678634181122664
-0.3007000000000001,-19.848399537106463
-0.30169999999999997,-19.97572355409432
-0.3027000000000001,-20.159636023076775
-0.30369999999999997,-20.244518701068674
-0.3047000000000001,-20.329401379060574
-0.30569999999999997,-20.414284057052477
-0.3067000000000001,-20.456725396048434
-0.3077,-20.456725396048434
-0.3087000000000001,-20.499166735044383
-0.3097,-20.584049413036283
-0.3107000000000001,-20.683079204026836
-0.3117,-20.76796188201874
-0.3127000000000001,-20.89528589900659
-0.3137,-21.065051254990397
-0.3147000000000001,-21.248963723972853
-0.3157,-21.461170418952605
-0.3167000000000001,-21.54605309694451
-0.3177,-21.67337711393236
-0.3187000000000001,-21.772406904922917
-0.3197,-21.857289582914817
-0.3207000000000001,-21.94217226090672
-0.3217,-22.027054938898623
-0.3227000000000001,-22.069496277894572
-0.3237,-22.196820294882425
-0.3247000000000001,-22.295850085872978
-0.3257,-22.46561544185678
-0.3267000000000001,-22.63538079784059
-0.3277,-22.861734605818995
-0.3287000000000001,-23.073941300798747
-0.3297,-23.2012653177866
-0.3307000000000001,-23.342736447773106
-0.3317,-23.47006046476096
-0.3327000000000001,-23.55494314275286
-0.3337,-23.682267159740714
-0.3347000000000001,-23.767149837732617
-0.3357,-23.823738289727217
-0.3367000000000001,-23.993503645711023
-0.3377,-24.120827662698876
-0.3387000000000001,-24.290593018682678
-0.3397,-24.516946826661083
-0.3407000000000001,-24.686712182644893
-0.3417,-24.870624651627345
-0.3427000000000001,-25.12527268560305
-0.3437,-25.252596702590903
-0.3447000000000001,-25.43650917157336
-0.3457,-25.563833188561212
-0.3467000000000001,-25.648715866553115
-0.3477,-25.77603988354097
-0.3487000000000001,-25.86092256153287
-0.3497,-26.002393691519377
-0.3507000000000001,-26.17215904750318
-0.3517,-26.34192440348698
-0.3527000000000001,-26.568278211465387
-0.3537,-26.780484906445146
-0.3547000000000001,-27.049280053419505
-0.3557,-27.303928087395207
-0.35670000000000013,-27.572723234369565
-0.3577,-27.742488590353368
-0.35870000000000013,-27.912253946337174
-0.3597,-28.09616641531963
-0.36070000000000013,-28.265931771303435
-0.3617,-28.393255788291288
-0.3626999999999999,-28.478138466283188
-0.3637,-28.746933613257543
-0.3646999999999999,-28.8742576302454
-0.3657,-29.14305277721976
-0.3666999999999999,-29.35525947219951
-0.3677,-29.66649595816982
-0.3686999999999999,-29.836261314153624
-0.36970000000000003,-30.04846800913338
-0.3706999999999999,-30.274821817111786
-0.37170000000000003,-30.444587173095588
-0.3726999999999999,-30.614352529079397
-0.37370000000000003,-30.8407063370578
-0.3746999999999999,-31.010471693041605
-0.37570000000000003,-31.137795710029454
-0.3766999999999999,-31.321708179011907
-0.37770000000000004,-31.533914873991666
-0.3786999999999999,-31.802710020966025
-0.37970000000000004,-32.09979939393769
-0.3806999999999999,-32.41103587990799
-0.38170000000000004,-32.70812525287965
-0.38269999999999993,-33.06180307784591
-0.38370000000000004,-33.288156885824314
-0.38469999999999993,-33.58524625879597
-0.38570000000000004,-33.81160006677438
-0.38669999999999993,-34.02380676175414
-0.38770000000000004,-34.278454795729836
-0.38869999999999993,-34.50480860370825
-0.38970000000000005,-34.75945663768395
-0.39069999999999994,-35.02825178465831
-0.39170000000000005,-35.32534115762997
-0.39269999999999994,-35.636577643600276
-0.39370000000000005,-36.03269680756248
-0.39469999999999994,-36.329786180534136
-0.39570000000000005,-36.725905344496354
-0.39669999999999994,-37.07958316946261
-0.39770000000000005,-37.376672542434264
-0.39869999999999994,-37.687909028404576
-0.39970000000000006,-37.94255706238028
-0.40069999999999995,-38.211352209354644
-0.40170000000000006,-38.522588695324956
-0.40269999999999995,-38.734795390304704
-0.40370000000000006,-39.046031876275016
-0.40469999999999995,-39.30067991025072
-0.40570000000000006,-39.696799074212926
-0.40669999999999995,-40.092918238175145
-0.40770000000000006,-40.4748902891387
-0.40869999999999995,-41.083216148080666
-0.40970000000000006,-41.52177665103883
-0.41069999999999995,-41.91789581500104
-0.41170000000000007,-42.2715736399673
-0.41269999999999996,-42.568663012938956
-0.41370000000000007,-42.87989949890926
-0.41469999999999996,-43.17698887188092
-0.41570000000000007,-43.48822535785123
-0.41669999999999996,-43.84190318281749
-0.41770000000000007,-44.223875233781044
-0.41869999999999996,-44.66243573673921
-0.4197000000000001,-45.10099623969737
-0.42069999999999996,-45.581998081651484
-0.4217000000000001,-45.97811724561369
-0.42269999999999996,-46.37423640957591
-0.4237000000000001,-46.713767121543505
-0.42469999999999997,-47.10988628550572
-0.4257000000000001,-47.40697565847737
-0.42669999999999997,-47.76065348344364
-0.4277000000000001,-48.114331308409895
-0.42869999999999997,-48.41142068138156
-0.4297000000000001,-48.80753984534376
-0.43069999999999997,-49.20365900930597
-0.4317000000000001,-49.59977817326819
-0.4327,-50.0807800152223
-0.4337000000000001,-50.50519340518181
-0.4347,-50.98619524713592
-0.4357000000000001,-51.509638428085985
-0.4367,-51.990640270040096
-0.4377000000000001,-52.471642111994214
-0.4387,-52.82531993696047
-0.4397000000000001,-53.22143910092268
-0.4407,-53.603411151886235
-0.4417000000000001,-53.9570889768525
-0.4427,-54.35320814081471
-0.4437000000000001,-54.791768643772876
-0.4447,-55.21618203373238
-0.4457000000000001,-55.65474253669055
-0.4467,-56.13574437864466
-0.4477000000000001,-56.65918755959472
-0.4487,-57.22507207954074
-0.4497000000000001,-57.70607392149485
-0.4507,-58.18707576344896
-0.4517000000000001,-58.66807760540307
-0.4527,-59.06419676936528
-0.4537000000000001,-59.502757272323436
-0.4547,-59.884729323287
-0.4557000000000001,-60.23840714825326
-0.4567,-60.761850329203334
-0.4577000000000001,-61.20041083216149
-0.4587,-61.72385401311155
-0.4597000000000001,-62.24729719406162
-0.4607,-62.77074037501168
-0.4617000000000001,-63.29418355596174
-0.4627,-63.902509414903705
-0.4637000000000001,-64.38351125685783
-0.4647,-64.90695443780788
-0.4657000000000001,-65.38795627976201
-0.4667,-65.86895812171612
-0.4677000000000001,-66.34995996367022
-0.4687,-66.81681469262568
-0.4697000000000001,-67.2978165345798
-0.4707,-67.86370105452582
-0.4717000000000001,-68.38714423547587
-0.4727,-69.0096172074165
-0.4737000000000001,-69.57550172736251
-0.4747,-70.18382758630447
-0.4757000000000001,-70.79215344524643
-0.4767,-71.35803796519245
-0.4777000000000001,-71.8814811461425
-0.4787,-72.44736566608852
-0.4797000000000001,-72.92836750804264
-0.4807,-73.49425202798865
-0.48170000000000013,-74.0176952089387
-0.4827,-74.49869705089283
-0.48370000000000013,-75.06458157083884
-0.4847,-75.63046609078486
-0.48570000000000013,-76.29538040172143
-0.4867,-75.71534876877676
-0.48570000000000013,-73.72060583596706
-0.4847,-72.10783495412092
-0.48370000000000013,-70.62238808926263
-0.4827,-69.26426524139221
-0.48170000000000013,-67.96273084551636
-0.4807,-66.73193201463377
-0.4797000000000001,-65.5577216357458
-0.4787,-64.42595259585376
-0.4777000000000001,-63.3366248949577
-0.4767,-62.33217987205352
-0.4757000000000001,-61.37017618814529
-0.4747,-60.45061384323302
-0.4737000000000001,-59.6300812893113
-0.4727,-58.79540162239092
-0.4717000000000001,-58.017310407465146
-0.4707,-57.22507207954074
-0.4697000000000001,-56.44698086461496
-0.4687,-55.65474253669055
-0.4677000000000001,-54.791768643772876
-0.4667,-53.9570889768525
