Sept. 7, 2024   09:26:14
Cyclic Voltammetry
File: c:/users/guazh/data/20240903_batch_252_500/2024-09-03-exp287\exp287-2024-09-07t09_09_43-arkoh\exp287_cv_50mvs_efin_-1700mv.bin
Data Source:  Experiment
Instrument Model:  CHI760E
Header: CV ran at 50 mVs
Note: 

Init E (V) = -1
High E (V) = -1
Low E (V) = -1.7
Final E (V) = -1
Init P/N = N
Scan Rate (V/s) = 0.05
Segment = 7
Sample Interval (V) = 0.001
Quiet Time (sec) = 60
Sensitivity (A/V) = 0.001
Comp R (ohm) = 1.7

Results:

Channel 1:
Segment 1:

Segment 2:

Segment 3:

Segment 4:

Segment 5:

Segment 6:

Segment 7:

Potential/V, Current/A

-1.000, 5.592e-7
-1.001, 1.005e-6
-1.002, 1.221e-6
-1.003, 1.298e-6
-1.004, 1.402e-6
-1.005, 1.521e-6
-1.006, 1.579e-6
-1.007, 1.622e-6
-1.008, 1.739e-6
-1.009, 1.781e-6
-1.010, 1.807e-6
-1.011, 1.859e-6
-1.012, 1.913e-6
-1.013, 1.983e-6
-1.014, 1.989e-6
-1.015, 2.076e-6
-1.016, 2.058e-6
-1.017, 2.090e-6
-1.018, 2.163e-6
-1.019, 2.203e-6
-1.020, 2.197e-6
-1.021, 2.234e-6
-1.022, 2.243e-6
-1.023, 2.298e-6
-1.024, 2.335e-6
-1.025, 2.379e-6
-1.026, 2.424e-6
-1.027, 2.423e-6
-1.028, 2.491e-6
-1.029, 2.470e-6
-1.030, 2.514e-6
-1.031, 2.537e-6
-1.032, 2.545e-6
-1.033, 2.629e-6
-1.034, 2.622e-6
-1.035, 2.603e-6
-1.036, 2.638e-6
-1.037, 2.662e-6
-1.038, 2.697e-6
-1.039, 2.639e-6
-1.040, 2.666e-6
-1.041, 2.681e-6
-1.042, 2.756e-6
-1.043, 2.792e-6
-1.044, 2.800e-6
-1.045, 2.806e-6
-1.046, 2.834e-6
-1.047, 2.861e-6
-1.048, 2.856e-6
-1.049, 2.843e-6
-1.050, 2.894e-6
-1.051, 2.924e-6
-1.052, 2.880e-6
-1.053, 2.961e-6
-1.054, 3.010e-6
-1.055, 3.019e-6
-1.056, 3.038e-6
-1.057, 2.992e-6
-1.058, 3.044e-6
-1.059, 3.040e-6
-1.060, 3.127e-6
-1.061, 3.140e-6
-1.062, 3.137e-6
-1.063, 3.229e-6
-1.064, 3.213e-6
-1.065, 3.241e-6
-1.066, 3.286e-6
-1.067, 3.266e-6
-1.068, 3.293e-6
-1.069, 3.272e-6
-1.070, 3.313e-6
-1.071, 3.253e-6
-1.072, 3.268e-6
-1.073, 3.343e-6
-1.074, 3.328e-6
-1.075, 3.392e-6
-1.076, 3.365e-6
-1.077, 3.392e-6
-1.078, 3.431e-6
-1.079, 3.495e-6
-1.080, 3.487e-6
-1.081, 3.455e-6
-1.082, 3.494e-6
-1.083, 3.501e-6
-1.084, 3.517e-6
-1.085, 3.610e-6
-1.086, 3.586e-6
-1.087, 3.591e-6
-1.088, 3.658e-6
-1.089, 3.616e-6
-1.090, 3.630e-6
-1.091, 3.617e-6
-1.092, 3.666e-6
-1.093, 3.691e-6
-1.094, 3.707e-6
-1.095, 3.725e-6
-1.096, 3.743e-6
-1.097, 3.818e-6
-1.098, 3.849e-6
-1.099, 3.835e-6
-1.100, 3.867e-6
-1.101, 3.855e-6
-1.102, 3.868e-6
-1.103, 3.888e-6
-1.104, 3.902e-6
-1.105, 3.840e-6
-1.106, 3.892e-6
-1.107, 3.891e-6
-1.108, 3.970e-6
-1.109, 4.000e-6
-1.110, 3.963e-6
-1.111, 3.966e-6
-1.112, 3.970e-6
-1.113, 4.002e-6
-1.114, 4.019e-6
-1.115, 4.045e-6
-1.116, 4.151e-6
-1.117, 4.198e-6
-1.118, 4.167e-6
-1.119, 4.144e-6
-1.120, 4.137e-6
-1.121, 4.127e-6
-1.122, 4.158e-6
-1.123, 4.155e-6
-1.124, 4.287e-6
-1.125, 4.259e-6
-1.126, 4.240e-6
-1.127, 4.233e-6
-1.128, 4.190e-6
-1.129, 4.255e-6
-1.130, 4.248e-6
-1.131, 4.293e-6
-1.132, 4.312e-6
-1.133, 4.333e-6
-1.134, 4.341e-6
-1.135, 4.374e-6
-1.136, 4.335e-6
-1.137, 4.417e-6
-1.138, 4.419e-6
-1.139, 4.458e-6
-1.140, 4.342e-6
-1.141, 4.363e-6
-1.142, 4.381e-6
-1.143, 4.387e-6
-1.144, 4.429e-6
-1.145, 4.459e-6
-1.146, 4.442e-6
-1.147, 4.470e-6
-1.148, 4.489e-6
-1.149, 4.524e-6
-1.150, 4.542e-6
-1.151, 4.535e-6
-1.152, 4.576e-6
-1.153, 4.569e-6
-1.154, 4.608e-6
-1.155, 4.645e-6
-1.156, 4.621e-6
-1.157, 4.659e-6
-1.158, 4.665e-6
-1.159, 4.690e-6
-1.160, 4.699e-6
-1.161, 4.699e-6
-1.162, 4.758e-6
-1.163, 4.723e-6
-1.164, 4.748e-6
-1.165, 4.829e-6
-1.166, 4.781e-6
-1.167, 4.796e-6
-1.168, 4.819e-6
-1.169, 4.854e-6
-1.170, 4.889e-6
-1.171, 4.868e-6
-1.172, 4.904e-6
-1.173, 4.921e-6
-1.174, 4.932e-6
-1.175, 4.923e-6
-1.176, 4.921e-6
-1.177, 4.944e-6
-1.178, 4.994e-6
-1.179, 5.060e-6
-1.180, 5.069e-6
-1.181, 5.101e-6
-1.182, 5.115e-6
-1.183, 5.153e-6
-1.184, 5.111e-6
-1.185, 5.118e-6
-1.186, 5.100e-6
-1.187, 5.096e-6
-1.188, 5.122e-6
-1.189, 5.153e-6
-1.190, 5.166e-6
-1.191, 5.161e-6
-1.192, 5.203e-6
-1.193, 5.165e-6
-1.194, 5.166e-6
-1.195, 5.197e-6
-1.196, 5.196e-6
-1.197, 5.242e-6
-1.198, 5.238e-6
-1.199, 5.281e-6
-1.200, 5.275e-6
-1.201, 5.234e-6
-1.202, 5.266e-6
-1.203, 5.291e-6
-1.204, 5.316e-6
-1.205, 5.341e-6
-1.206, 5.358e-6
-1.207, 5.341e-6
-1.208, 5.365e-6
-1.209, 5.382e-6
-1.210, 5.431e-6
-1.211, 5.437e-6
-1.212, 5.462e-6
-1.213, 5.474e-6
-1.214, 5.497e-6
-1.215, 5.516e-6
-1.216, 5.520e-6
-1.217, 5.543e-6
-1.218, 5.579e-6
-1.219, 5.593e-6
-1.220, 5.576e-6
-1.221, 5.587e-6
-1.222, 5.634e-6
-1.223, 5.658e-6
-1.224, 5.648e-6
-1.225, 5.691e-6
-1.226, 5.724e-6
-1.227, 5.742e-6
-1.228, 5.756e-6
-1.229, 5.769e-6
-1.230, 5.809e-6
-1.231, 5.823e-6
-1.232, 5.791e-6
-1.233, 5.831e-6
-1.234, 5.859e-6
-1.235, 5.867e-6
-1.236, 5.845e-6
-1.237, 5.911e-6
-1.238, 5.958e-6
-1.239, 6.006e-6
-1.240, 5.960e-6
-1.241, 6.021e-6
-1.242, 6.080e-6
-1.243, 6.044e-6
-1.244, 6.119e-6
-1.245, 6.127e-6
-1.246, 6.130e-6
-1.247, 6.191e-6
-1.248, 6.226e-6
-1.249, 6.256e-6
-1.250, 6.284e-6
-1.251, 6.274e-6
-1.252, 6.316e-6
-1.253, 6.395e-6
-1.254, 6.412e-6
-1.255, 6.430e-6
-1.256, 6.471e-6
-1.257, 6.518e-6
-1.258, 6.588e-6
-1.259, 6.608e-6
-1.260, 6.604e-6
-1.261, 6.665e-6
-1.262, 6.747e-6
-1.263, 6.784e-6
-1.264, 6.807e-6
-1.265, 6.815e-6
-1.266, 6.899e-6
-1.267, 6.938e-6
-1.268, 6.969e-6
-1.269, 7.107e-6
-1.270, 7.111e-6
-1.271, 7.139e-6
-1.272, 7.159e-6
-1.273, 7.235e-6
-1.274, 7.300e-6
-1.275, 7.333e-6
-1.276, 7.402e-6
-1.277, 7.468e-6
-1.278, 7.564e-6
-1.279, 7.676e-6
-1.280, 7.750e-6
-1.281, 7.810e-6
-1.282, 7.925e-6
-1.283, 7.995e-6
-1.284, 8.076e-6
-1.285, 8.206e-6
-1.286, 8.262e-6
-1.287, 8.336e-6
-1.288, 8.430e-6
-1.289, 8.553e-6
-1.290, 8.666e-6
-1.291, 8.735e-6
-1.292, 8.773e-6
-1.293, 8.877e-6
-1.294, 9.016e-6
-1.295, 9.092e-6
-1.296, 9.164e-6
-1.297, 9.329e-6
-1.298, 9.433e-6
-1.299, 9.574e-6
-1.300, 9.664e-6
-1.301, 9.831e-6
-1.302, 9.973e-6
-1.303, 1.007e-5
-1.304, 1.021e-5
-1.305, 1.035e-5
-1.306, 1.052e-5
-1.307, 1.073e-5
-1.308, 1.101e-5
-1.309, 1.111e-5
-1.310, 1.120e-5
-1.311, 1.138e-5
-1.312, 1.154e-5
-1.313, 1.177e-5
-1.314, 1.193e-5
-1.315, 1.202e-5
-1.316, 1.229e-5
-1.317, 1.243e-5
-1.318, 1.262e-5
-1.319, 1.291e-5
-1.320, 1.309e-5
-1.321, 1.328e-5
-1.322, 1.350e-5
-1.323, 1.376e-5
-1.324, 1.404e-5
-1.325, 1.420e-5
-1.326, 1.448e-5
-1.327, 1.470e-5
-1.328, 1.495e-5
-1.329, 1.517e-5
-1.330, 1.541e-5
-1.331, 1.579e-5
-1.332, 1.602e-5
-1.333, 1.633e-5
-1.334, 1.657e-5
-1.335, 1.689e-5
-1.336, 1.713e-5
-1.337, 1.740e-5
-1.338, 1.773e-5
-1.339, 1.809e-5
-1.340, 1.837e-5
-1.341, 1.872e-5
-1.342, 1.904e-5
-1.343, 1.936e-5
-1.344, 1.972e-5
-1.345, 2.013e-5
-1.346, 2.046e-5
-1.347, 2.083e-5
-1.348, 2.126e-5
-1.349, 2.161e-5
-1.350, 2.192e-5
-1.351, 2.239e-5
-1.352, 2.277e-5
-1.353, 2.313e-5
-1.354, 2.365e-5
-1.355, 2.404e-5
-1.356, 2.448e-5
-1.357, 2.492e-5
-1.358, 2.534e-5
-1.359, 2.585e-5
-1.360, 2.634e-5
-1.361, 2.672e-5
-1.362, 2.713e-5
-1.363, 2.736e-5
-1.364, 2.789e-5
-1.365, 2.847e-5
-1.366, 2.891e-5
-1.367, 2.946e-5
-1.368, 3.006e-5
-1.369, 3.060e-5
-1.370, 3.112e-5
-1.371, 3.164e-5
-1.372, 3.222e-5
-1.373, 3.290e-5
-1.374, 3.348e-5
-1.375, 3.409e-5
-1.376, 3.469e-5
-1.377, 3.528e-5
-1.378, 3.598e-5
-1.379, 3.653e-5
-1.380, 3.720e-5
-1.381, 3.789e-5
-1.382, 3.863e-5
-1.383, 3.930e-5
-1.384, 3.994e-5
-1.385, 4.065e-5
-1.386, 4.136e-5
-1.387, 4.211e-5
-1.388, 4.281e-5
-1.389, 4.358e-5
-1.390, 4.440e-5
-1.391, 4.525e-5
-1.392, 4.609e-5
-1.393, 4.686e-5
-1.394, 4.772e-5
-1.395, 4.854e-5
-1.396, 4.941e-5
-1.397, 5.032e-5
-1.398, 5.106e-5
-1.399, 5.189e-5
-1.400, 5.285e-5
-1.401, 5.373e-5
-1.402, 5.438e-5
-1.403, 5.533e-5
-1.404, 5.622e-5
-1.405, 5.714e-5
-1.406, 5.814e-5
-1.407, 5.928e-5
-1.408, 6.015e-5
-1.409, 6.125e-5
-1.410, 6.244e-5
-1.411, 6.342e-5
-1.412, 6.436e-5
-1.413, 6.544e-5
-1.414, 6.663e-5
-1.415, 6.772e-5
-1.416, 6.878e-5
-1.417, 6.992e-5
-1.418, 7.103e-5
-1.419, 7.211e-5
-1.420, 7.324e-5
-1.421, 7.443e-5
-1.422, 7.571e-5
-1.423, 7.706e-5
-1.424, 7.819e-5
-1.425, 7.922e-5
-1.426, 8.060e-5
-1.427, 8.182e-5
-1.428, 8.308e-5
-1.429, 8.411e-5
-1.430, 8.559e-5
-1.431, 8.678e-5
-1.432, 8.699e-5
-1.433, 8.856e-5
-1.434, 8.989e-5
-1.435, 9.103e-5
-1.436, 9.263e-5
-1.437, 9.378e-5
-1.438, 9.516e-5
-1.439, 9.638e-5
-1.440, 9.782e-5
-1.441, 9.906e-5
-1.442, 1.005e-4
-1.443, 1.018e-4
-1.444, 1.034e-4
-1.445, 1.048e-4
-1.446, 1.065e-4
-1.447, 1.080e-4
-1.448, 1.095e-4
-1.449, 1.111e-4
-1.450, 1.126e-4
-1.451, 1.144e-4
-1.452, 1.159e-4
-1.453, 1.173e-4
-1.454, 1.190e-4
-1.455, 1.207e-4
-1.456, 1.223e-4
-1.457, 1.240e-4
-1.458, 1.256e-4
-1.459, 1.272e-4
-1.460, 1.290e-4
-1.461, 1.308e-4
-1.462, 1.327e-4
-1.463, 1.344e-4
-1.464, 1.362e-4
-1.465, 1.381e-4
-1.466, 1.399e-4
-1.467, 1.415e-4
-1.468, 1.435e-4
-1.469, 1.452e-4
-1.470, 1.469e-4
-1.471, 1.489e-4
-1.472, 1.509e-4
-1.473, 1.529e-4
-1.474, 1.548e-4
-1.475, 1.569e-4
-1.476, 1.590e-4
-1.477, 1.611e-4
-1.478, 1.631e-4
-1.479, 1.649e-4
-1.480, 1.664e-4
-1.481, 1.680e-4
-1.482, 1.696e-4
-1.483, 1.715e-4
-1.484, 1.732e-4
-1.485, 1.752e-4
-1.486, 1.771e-4
-1.487, 1.791e-4
-1.488, 1.812e-4
-1.489, 1.835e-4
-1.490, 1.856e-4
-1.491, 1.878e-4
-1.492, 1.897e-4
-1.493, 1.919e-4
-1.494, 1.941e-4
-1.495, 1.965e-4
-1.496, 1.987e-4
-1.497, 2.009e-4
-1.498, 2.035e-4
-1.499, 2.060e-4
-1.500, 2.086e-4
-1.501, 2.110e-4
-1.502, 2.135e-4
-1.503, 2.159e-4
-1.504, 2.183e-4
-1.505, 2.201e-4
-1.506, 2.224e-4
-1.507, 2.250e-4
-1.508, 2.278e-4
-1.509, 2.303e-4
-1.510, 2.329e-4
-1.511, 2.357e-4
-1.512, 2.384e-4
-1.513, 2.416e-4
-1.514, 2.446e-4
-1.515, 2.474e-4
-1.516, 2.502e-4
-1.517, 2.530e-4
-1.518, 2.560e-4
-1.519, 2.588e-4
-1.520, 2.615e-4
-1.521, 2.641e-4
-1.522, 2.666e-4
-1.523, 2.693e-4
-1.524, 2.720e-4
-1.525, 2.745e-4
-1.526, 2.770e-4
-1.527, 2.797e-4
-1.528, 2.830e-4
-1.529, 2.863e-4
-1.530, 2.898e-4
-1.531, 2.935e-4
-1.532, 2.968e-4
-1.533, 3.003e-4
-1.534, 3.040e-4
-1.535, 3.078e-4
-1.536, 3.112e-4
-1.537, 3.145e-4
-1.538, 3.179e-4
-1.539, 3.207e-4
-1.540, 3.240e-4
-1.541, 3.277e-4
-1.542, 3.313e-4
-1.543, 3.346e-4
-1.544, 3.381e-4
-1.545, 3.416e-4
-1.546, 3.453e-4
-1.547, 3.493e-4
-1.548, 3.535e-4
-1.549, 3.575e-4
-1.550, 3.619e-4
-1.551, 3.671e-4
-1.552, 3.719e-4
-1.553, 3.763e-4
-1.554, 3.811e-4
-1.555, 3.857e-4
-1.556, 3.894e-4
-1.557, 3.932e-4
-1.558, 3.977e-4
-1.559, 4.019e-4
-1.560, 4.065e-4
-1.561, 4.109e-4
-1.562, 4.199e-4
-1.563, 4.246e-4
-1.564, 4.290e-4
-1.565, 4.316e-4
-1.566, 4.384e-4
-1.567, 4.435e-4
-1.568, 4.495e-4
-1.569, 4.544e-4
-1.570, 4.598e-4
-1.571, 4.664e-4
-1.572, 4.718e-4
-1.573, 4.782e-4
-1.574, 4.842e-4
-1.575, 4.900e-4
-1.576, 4.950e-4
-1.577, 5.002e-4
-1.578, 5.076e-4
-1.579, 5.134e-4
-1.580, 5.188e-4
-1.581, 5.251e-4
-1.582, 5.317e-4
-1.583, 5.386e-4
-1.584, 5.457e-4
-1.585, 5.530e-4
-1.586, 5.604e-4
-1.587, 5.675e-4
-1.588, 5.742e-4
-1.589, 5.815e-4
-1.590, 5.911e-4
-1.591, 5.998e-4
-1.592, 6.081e-4
-1.593, 6.185e-4
-1.594, 6.296e-4
-1.595, 6.402e-4
-1.596, 6.500e-4
-1.597, 6.580e-4
-1.598, 6.670e-4
-1.599, 6.739e-4
-1.600, 6.803e-4
-1.601, 6.913e-4
-1.602, 7.039e-4
-1.603, 7.140e-4
-1.604, 7.231e-4
-1.605, 7.327e-4
-1.606, 7.430e-4
-1.607, 7.542e-4
-1.608, 7.644e-4
-1.609, 7.749e-4
-1.610, 7.879e-4
-1.611, 7.981e-4
-1.612, 8.092e-4
-1.613, 8.215e-4
-1.614, 8.338e-4
-1.615, 8.464e-4
-1.616, 8.615e-4
-1.617, 8.754e-4
-1.618, 8.884e-4
-1.619, 9.035e-4
-1.620, 9.172e-4
-1.621, 9.273e-4
-1.622, 9.312e-4
-1.623, 9.431e-4
-1.624, 9.584e-4
-1.625, 9.750e-4
-1.626, 9.944e-4
-1.627, 1.007e-3
-1.628, 1.026e-3
-1.629, 1.047e-3
-1.630, 1.068e-3
-1.631, 1.089e-3
-1.632, 1.107e-3
-1.633, 1.121e-3
-1.634, 1.128e-3
-1.635, 1.135e-3
-1.636, 1.152e-3
-1.637, 1.167e-3
-1.638, 1.180e-3
-1.639, 1.199e-3
-1.640, 1.220e-3
-1.641, 1.249e-3
-1.642, 1.267e-3
-1.643, 1.291e-3
-1.644, 1.310e-3
-1.645, 1.327e-3
-1.646, 1.345e-3
-1.647, 1.368e-3
-1.648, 1.382e-3
-1.649, 1.385e-3
-1.650, 1.396e-3
-1.651, 1.415e-3
-1.652, 1.442e-3
-1.653, 1.467e-3
-1.654, 1.484e-3
-1.655, 1.473e-3
-1.656, 1.497e-3
-1.657, 1.521e-3
-1.658, 1.537e-3
-1.659, 1.552e-3
-1.660, 1.575e-3
-1.661, 1.613e-3
-1.662, 1.650e-3
-1.663, 1.686e-3
-1.664, 1.713e-3
-1.665, 1.746e-3
-1.666, 1.758e-3
-1.667, 1.786e-3
-1.668, 1.811e-3
-1.669, 1.849e-3
-1.670, 1.877e-3
-1.671, 1.897e-3
-1.672, 1.931e-3
-1.673, 1.975e-3
-1.674, 2.004e-3
-1.675, 2.041e-3
-1.676, 2.061e-3
-1.677, 2.079e-3
-1.678, 2.103e-3
-1.679, 2.138e-3
-1.680, 2.207e-3
-1.681, 2.253e-3
-1.682, 2.291e-3
-1.683, 2.316e-3
-1.684, 2.331e-3
-1.685, 2.363e-3
-1.686, 2.378e-3
-1.687, 2.365e-3
-1.688, 2.398e-3
-1.689, 2.435e-3
-1.690, 2.484e-3
-1.691, 2.523e-3
-1.692, 2.559e-3
-1.693, 2.593e-3
-1.694, 2.642e-3
-1.695, 2.668e-3
-1.696, 2.700e-3
-1.697, 2.737e-3
-1.698, 2.775e-3
-1.699, 2.788e-3
-1.700, 2.740e-3
-1.699, 2.696e-3
-1.698, 2.693e-3
-1.697, 2.658e-3
-1.696, 2.634e-3
-1.695, 2.638e-3
-1.694, 2.650e-3
-1.693, 2.620e-3
-1.692, 2.574e-3
-1.691, 2.557e-3
-1.690, 2.519e-3
-1.689, 2.469e-3
-1.688, 2.448e-3
-1.687, 2.423e-3
-1.686, 2.404e-3
-1.685, 2.408e-3
-1.684, 2.410e-3
-1.683, 2.386e-3
-1.682, 2.356e-3
-1.681, 2.331e-3
-1.680, 2.311e-3
-1.679, 2.292e-3
-1.678, 2.251e-3
-1.677, 2.199e-3
-1.676, 2.197e-3
-1.675, 2.181e-3
-1.674, 2.148e-3
-1.673, 2.130e-3
-1.672, 2.131e-3
-1.671, 2.126e-3
-1.670, 2.101e-3
-1.669, 2.061e-3
-1.668, 2.039e-3
-1.667, 2.019e-3
-1.666, 1.988e-3
-1.665, 1.958e-3
-1.664, 1.923e-3
-1.663, 1.904e-3
-1.662, 1.884e-3
-1.661, 1.858e-3
-1.660, 1.892e-3
-1.659, 1.876e-3
-1.658, 1.851e-3
-1.657, 1.832e-3
-1.656, 1.803e-3
-1.655, 1.778e-3
-1.654, 1.766e-3
-1.653, 1.745e-3
-1.652, 1.706e-3
-1.651, 1.665e-3
-1.650, 1.644e-3
-1.649, 1.624e-3
-1.648, 1.604e-3
-1.647, 1.602e-3
-1.646, 1.589e-3
-1.645, 1.564e-3
-1.644, 1.542e-3
-1.643, 1.518e-3
-1.642, 1.497e-3
-1.641, 1.474e-3
-1.640, 1.456e-3
-1.639, 1.422e-3
-1.638, 1.393e-3
-1.637, 1.378e-3
-1.636, 1.387e-3
-1.635, 1.367e-3
-1.634, 1.348e-3
-1.633, 1.329e-3
-1.632, 1.312e-3
-1.631, 1.301e-3
-1.630, 1.288e-3
-1.629, 1.274e-3
-1.628, 1.271e-3
-1.627, 1.248e-3
-1.626, 1.226e-3
-1.625, 1.211e-3
-1.624, 1.188e-3
-1.623, 1.175e-3
-1.622, 1.172e-3
-1.621, 1.155e-3
-1.620, 1.134e-3
-1.619, 1.111e-3
-1.618, 1.092e-3
-1.617, 1.074e-3
-1.616, 1.058e-3
-1.615, 1.044e-3
-1.614, 1.030e-3
-1.613, 1.015e-3
-1.612, 9.977e-4
-1.611, 9.800e-4
-1.610, 9.647e-4
-1.609, 9.480e-4
-1.608, 9.323e-4
-1.607, 9.173e-4
-1.606, 9.066e-4
-1.605, 8.952e-4
-1.604, 8.828e-4
-1.603, 8.758e-4
-1.602, 8.618e-4
-1.601, 8.509e-4
-1.600, 8.368e-4
-1.599, 8.250e-4
-1.598, 8.113e-4
-1.597, 8.014e-4
-1.596, 7.894e-4
-1.595, 7.755e-4
-1.594, 7.615e-4
-1.593, 7.459e-4
-1.592, 7.305e-4
-1.591, 7.199e-4
-1.590, 7.053e-4
-1.589, 6.949e-4
-1.588, 6.803e-4
-1.587, 6.661e-4
-1.586, 6.564e-4
-1.585, 6.490e-4
-1.584, 6.405e-4
-1.583, 6.319e-4
-1.582, 6.207e-4
-1.581, 6.106e-4
-1.580, 6.009e-4
-1.579, 5.922e-4
-1.578, 5.816e-4
-1.577, 5.713e-4
-1.576, 5.595e-4
-1.575, 5.467e-4
-1.574, 5.377e-4
-1.573, 5.299e-4
-1.572, 5.222e-4
-1.571, 5.134e-4
-1.570, 5.048e-4
-1.569, 4.960e-4
-1.568, 4.886e-4
-1.567, 4.816e-4
-1.566, 4.716e-4
-1.565, 4.649e-4
-1.564, 4.575e-4
-1.563, 4.489e-4
-1.562, 4.379e-4
-1.561, 4.298e-4
-1.560, 4.225e-4
-1.559, 4.158e-4
-1.558, 4.088e-4
-1.557, 4.013e-4
-1.556, 3.937e-4
-1.555, 3.860e-4
-1.554, 3.782e-4
-1.553, 3.715e-4
-1.552, 3.650e-4
-1.551, 3.593e-4
-1.550, 3.533e-4
-1.549, 3.470e-4
-1.548, 3.406e-4
-1.547, 3.364e-4
-1.546, 3.295e-4
-1.545, 3.227e-4
-1.544, 3.157e-4
-1.543, 3.096e-4
-1.542, 3.030e-4
-1.541, 2.981e-4
-1.540, 2.904e-4
-1.539, 2.841e-4
-1.538, 2.790e-4
-1.537, 2.745e-4
-1.536, 2.686e-4
-1.535, 2.638e-4
-1.534, 2.590e-4
-1.533, 2.552e-4
-1.532, 2.503e-4
-1.531, 2.456e-4
-1.530, 2.403e-4
-1.529, 2.356e-4
-1.528, 2.307e-4
-1.527, 2.262e-4
-1.526, 2.218e-4
-1.525, 2.182e-4
-1.524, 2.122e-4
-1.523, 2.080e-4
-1.522, 2.053e-4
-1.521, 1.993e-4
-1.520, 1.950e-4
-1.519, 1.914e-4
-1.518, 1.886e-4
-1.517, 1.851e-4
-1.516, 1.814e-4
-1.515, 1.782e-4
-1.514, 1.742e-4
-1.513, 1.708e-4
-1.512, 1.670e-4
-1.511, 1.637e-4
-1.510, 1.602e-4
-1.509, 1.571e-4
-1.508, 1.542e-4
-1.507, 1.514e-4
-1.506, 1.487e-4
-1.505, 1.452e-4
-1.504, 1.425e-4
-1.503, 1.396e-4
-1.502, 1.368e-4
-1.501, 1.339e-4
-1.500, 1.313e-4
-1.499, 1.289e-4
-1.498, 1.261e-4
-1.497, 1.238e-4
-1.496, 1.213e-4
-1.495, 1.187e-4
-1.494, 1.165e-4
-1.493, 1.143e-4
-1.492, 1.117e-4
-1.491, 1.092e-4
-1.490, 1.071e-4
-1.489, 1.048e-4
-1.488, 1.027e-4
-1.487, 1.010e-4
-1.486, 9.860e-5
-1.485, 9.687e-5
-1.484, 9.467e-5
-1.483, 9.305e-5
-1.482, 9.124e-5
-1.481, 8.963e-5
-1.480, 8.751e-5
-1.479, 8.563e-5
-1.478, 8.400e-5
-1.477, 8.221e-5
-1.476, 8.053e-5
-1.475, 7.878e-5
-1.474, 7.718e-5
-1.473, 7.560e-5
-1.472, 7.426e-5
-1.471, 7.272e-5
-1.470, 7.130e-5
-1.469, 6.974e-5
-1.468, 6.809e-5
-1.467, 6.687e-5
-1.466, 6.560e-5
-1.465, 6.423e-5
-1.464, 6.298e-5
-1.463, 6.164e-5
-1.462, 6.049e-5
-1.461, 5.916e-5
-1.460, 5.785e-5
-1.459, 5.670e-5
-1.458, 5.552e-5
-1.457, 5.444e-5
-1.456, 5.328e-5
-1.455, 5.215e-5
-1.454, 5.101e-5
-1.453, 4.993e-5
-1.452, 4.890e-5
-1.451, 4.791e-5
-1.450, 4.708e-5
-1.449, 4.606e-5
-1.448, 4.514e-5
-1.447, 4.411e-5
-1.446, 4.325e-5
-1.445, 4.237e-5
-1.444, 4.150e-5
-1.443, 4.073e-5
-1.442, 3.993e-5
-1.441, 3.910e-5
-1.440, 3.812e-5
-1.439, 3.734e-5
-1.438, 3.633e-5
-1.437, 3.544e-5
-1.436, 3.487e-5
-1.435, 3.421e-5
-1.434, 3.347e-5
-1.433, 3.281e-5
-1.432, 3.222e-5
-1.431, 3.151e-5
-1.430, 3.078e-5
-1.429, 3.020e-5
-1.428, 2.960e-5
-1.427, 2.892e-5
-1.426, 2.839e-5
-1.425, 2.773e-5
-1.424, 2.713e-5
-1.423, 2.657e-5
-1.422, 2.601e-5
-1.421, 2.537e-5
-1.420, 2.493e-5
-1.419, 2.446e-5
-1.418, 2.398e-5
-1.417, 2.346e-5
-1.416, 2.295e-5
-1.415, 2.243e-5
-1.414, 2.194e-5
-1.413, 2.137e-5
-1.412, 2.089e-5
-1.411, 2.043e-5
-1.410, 2.004e-5
-1.409, 1.983e-5
-1.408, 1.945e-5
-1.407, 1.879e-5
-1.406, 1.847e-5
-1.405, 1.793e-5
-1.404, 1.757e-5
-1.403, 1.722e-5
-1.402, 1.682e-5
-1.401, 1.637e-5
-1.400, 1.601e-5
-1.399, 1.569e-5
-1.398, 1.540e-5
-1.397, 1.503e-5
-1.396, 1.475e-5
-1.395, 1.443e-5
-1.394, 1.413e-5
-1.393, 1.381e-5
-1.392, 1.345e-5
-1.391, 1.316e-5
-1.390, 1.280e-5
-1.389, 1.258e-5
-1.388, 1.229e-5
-1.387, 1.200e-5
-1.386, 1.175e-5
-1.385, 1.148e-5
-1.384, 1.128e-5
-1.383, 1.100e-5
-1.382, 1.074e-5
-1.381, 1.052e-5
-1.380, 1.029e-5
-1.379, 1.003e-5
-1.378, 9.817e-6
-1.377, 9.689e-6
-1.376, 9.407e-6
-1.375, 9.150e-6
-1.374, 8.924e-6
-1.373, 8.796e-6
-1.372, 8.519e-6
-1.371, 8.269e-6
-1.370, 8.090e-6
-1.369, 7.887e-6
-1.368, 7.722e-6
-1.367, 7.531e-6
-1.366, 7.366e-6
-1.365, 7.207e-6
-1.364, 7.014e-6
-1.363, 6.766e-6
-1.362, 6.602e-6
-1.361, 6.426e-6
-1.360, 6.272e-6
-1.359, 6.127e-6
-1.358, 5.988e-6
-1.357, 5.862e-6
-1.356, 5.777e-6
-1.355, 5.603e-6
-1.354, 5.437e-6
-1.353, 5.309e-6
-1.352, 5.176e-6
-1.351, 4.969e-6
-1.350, 4.831e-6
-1.349, 4.705e-6
-1.348, 4.601e-6
-1.347, 4.437e-6
-1.346, 4.330e-6
-1.345, 4.217e-6
-1.344, 4.102e-6
-1.343, 3.977e-6
-1.342, 3.913e-6
-1.341, 3.816e-6
-1.340, 3.725e-6
-1.339, 3.599e-6
-1.338, 3.486e-6
-1.337, 3.393e-6
-1.336, 3.262e-6
-1.335, 3.141e-6
-1.334, 3.023e-6
-1.333, 2.939e-6
-1.332, 2.876e-6
-1.331, 2.734e-6
-1.330, 2.646e-6
-1.329, 2.524e-6
-1.328, 2.465e-6
-1.327, 2.432e-6
-1.326, 2.289e-6
-1.325, 2.178e-6
-1.324, 2.121e-6
-1.323, 2.048e-6
-1.322, 1.965e-6
-1.321, 1.887e-6
-1.320, 1.799e-6
-1.319, 1.691e-6
-1.318, 1.632e-6
-1.317, 1.540e-6
-1.316, 1.456e-6
-1.315, 1.348e-6
-1.314, 1.277e-6
-1.313, 1.227e-6
-1.312, 1.155e-6
-1.311, 1.084e-6
-1.310, 9.864e-7
-1.309, 9.262e-7
-1.308, 9.035e-7
-1.307, 8.542e-7
-1.306, 7.970e-7
-1.305, 7.102e-7
-1.304, 6.598e-7
-1.303, 6.204e-7
-1.302, 5.434e-7
-1.301, 4.961e-7
-1.300, 4.004e-7
-1.299, 3.323e-7
-1.298, 2.682e-7
-1.297, 2.277e-7
-1.296, 1.902e-7
-1.295, 9.353e-8
-1.294, 7.380e-8
-1.293, 4.913e-8
-1.292, 1.263e-8
-1.291, -6.235e-8
-1.290, -9.590e-8
-1.289, -1.413e-7
-1.288, -1.610e-7
-1.287, -2.350e-7
-1.286, -3.218e-7
-1.285, -3.623e-7
-1.284, -3.889e-7
-1.283, -4.067e-7
-1.282, -4.540e-7
-1.281, -5.438e-7
-1.280, -5.586e-7
-1.279, -5.951e-7
-1.278, -6.494e-7
-1.277, -6.740e-7
-1.276, -7.096e-7
-1.275, -7.500e-7
-1.274, -7.727e-7
-1.273, -8.408e-7
-1.272, -8.427e-7
-1.271, -9.167e-7
-1.270, -9.473e-7
-1.269, -1.010e-6
-1.268, -1.002e-6
-1.267, -1.100e-6
-1.266, -1.111e-6
-1.265, -1.150e-6
-1.264, -1.170e-6
-1.263, -1.206e-6
-1.262, -1.217e-6
-1.261, -1.275e-6
-1.260, -1.284e-6
-1.259, -1.317e-6
-1.258, -1.358e-6
-1.257, -1.410e-6
-1.256, -1.441e-6
-1.255, -1.463e-6
-1.254, -1.483e-6
-1.253, -1.524e-6
-1.252, -1.527e-6
-1.251, -1.609e-6
-1.250, -1.590e-6
-1.249, -1.606e-6
-1.248, -1.617e-6
-1.247, -1.680e-6
-1.246, -1.751e-6
-1.245, -1.733e-6
-1.244, -1.781e-6
-1.243, -1.779e-6
-1.242, -1.826e-6
-1.241, -1.812e-6
-1.240, -1.876e-6
-1.239, -1.898e-6
-1.238, -1.935e-6
-1.237, -1.963e-6
-1.236, -2.019e-6
-1.235, -2.043e-6
-1.234, -2.056e-6
-1.233, -2.089e-6
-1.232, -2.095e-6
-1.231, -2.104e-6
-1.230, -2.137e-6
-1.229, -2.183e-6
-1.228, -2.199e-6
-1.227, -2.186e-6
-1.226, -2.220e-6
-1.225, -2.296e-6
-1.224, -2.270e-6
-1.223, -2.297e-6
-1.222, -2.349e-6
-1.221, -2.359e-6
-1.220, -2.352e-6
-1.219, -2.373e-6
-1.218, -2.376e-6
-1.217, -2.418e-6
-1.216, -2.448e-6
-1.215, -2.472e-6
-1.214, -2.482e-6
-1.213, -2.494e-6
-1.212, -2.517e-6
-1.211, -2.555e-6
-1.210, -2.555e-6
-1.209, -2.596e-6
-1.208, -2.619e-6
-1.207, -2.648e-6
-1.206, -2.652e-6
-1.205, -2.656e-6
-1.204, -2.663e-6
-1.203, -2.705e-6
-1.202, -2.702e-6
-1.201, -2.759e-6
-1.200, -2.758e-6
-1.199, -2.804e-6
-1.198, -2.812e-6
-1.197, -2.784e-6
-1.196, -2.855e-6
-1.195, -2.884e-6
-1.194, -2.885e-6
-1.193, -2.883e-6
-1.192, -2.910e-6
-1.191, -2.925e-6
-1.190, -2.956e-6
-1.189, -2.954e-6
-1.188, -2.991e-6
-1.187, -3.023e-6
-1.186, -3.063e-6
-1.185, -3.088e-6
-1.184, -3.094e-6
-1.183, -3.074e-6
-1.182, -3.103e-6
-1.181, -3.093e-6
-1.180, -3.180e-6
-1.179, -3.156e-6
-1.178, -3.195e-6
-1.177, -3.202e-6
-1.176, -3.250e-6
-1.175, -3.268e-6
-1.174, -3.274e-6
-1.173, -3.244e-6
-1.172, -3.286e-6
-1.171, -3.324e-6
-1.170, -3.303e-6
-1.169, -3.338e-6
-1.168, -3.337e-6
-1.167, -3.384e-6
-1.166, -3.403e-6
-1.165, -3.431e-6
-1.164, -3.422e-6
-1.163, -3.430e-6
-1.162, -3.446e-6
-1.161, -3.513e-6
-1.160, -3.512e-6
-1.159, -3.479e-6
-1.158, -3.551e-6
-1.157, -3.553e-6
-1.156, -3.568e-6
-1.155, -3.614e-6
-1.154, -3.592e-6
-1.153, -3.644e-6
-1.152, -3.631e-6
-1.151, -3.677e-6
-1.150, -3.756e-6
-1.149, -3.695e-6
-1.148, -3.736e-6
-1.147, -3.790e-6
-1.146, -3.814e-6
-1.145, -3.814e-6
-1.144, -3.812e-6
-1.143, -3.852e-6
-1.142, -3.877e-6
-1.141, -3.867e-6
-1.140, -3.931e-6
-1.139, -3.935e-6
-1.138, -3.950e-6
-1.137, -4.011e-6
-1.136, -4.033e-6
-1.135, -4.037e-6
-1.134, -4.056e-6
-1.133, -4.056e-6
-1.132, -4.110e-6
-1.131, -4.137e-6
-1.130, -4.183e-6
-1.129, -4.169e-6
-1.128, -4.169e-6
-1.127, -4.214e-6
-1.126, -4.269e-6
-1.125, -4.281e-6
-1.124, -4.273e-6
-1.123, -4.296e-6
-1.122, -4.322e-6
-1.121, -4.362e-6
-1.120, -4.412e-6
-1.119, -4.409e-6
-1.118, -4.475e-6
-1.117, -4.426e-6
-1.116, -4.462e-6
-1.115, -4.529e-6
-1.114, -4.535e-6
-1.113, -4.555e-6
-1.112, -4.613e-6
-1.111, -4.623e-6
-1.110, -4.688e-6
-1.109, -4.655e-6
-1.108, -4.706e-6
-1.107, -4.769e-6
-1.106, -4.794e-6
-1.105, -4.803e-6
-1.104, -4.807e-6
-1.103, -4.858e-6
-1.102, -4.907e-6
-1.101, -4.955e-6
-1.100, -5.005e-6
-1.099, -4.977e-6
-1.098, -5.056e-6
-1.097, -5.091e-6
-1.096, -5.093e-6
-1.095, -5.181e-6
-1.094, -5.212e-6
-1.093, -5.233e-6
-1.092, -5.254e-6
-1.091, -5.296e-6
-1.090, -5.375e-6
-1.089, -5.424e-6
-1.088, -5.543e-6
-1.087, -5.572e-6
-1.086, -5.630e-6
-1.085, -5.645e-6
-1.084, -5.657e-6
-1.083, -5.767e-6
-1.082, -5.943e-6
-1.081, -6.043e-6
-1.080, -6.027e-6
-1.079, -5.910e-6
-1.078, -5.899e-6
-1.077, -6.007e-6
-1.076, -6.045e-6
-1.075, -6.087e-6
-1.074, -6.088e-6
-1.073, -6.153e-6
-1.072, -6.142e-6
-1.071, -6.189e-6
-1.070, -6.238e-6
-1.069, -6.287e-6
-1.068, -6.320e-6
-1.067, -6.381e-6
-1.066, -6.449e-6
-1.065, -6.516e-6
-1.064, -6.561e-6
-1.063, -6.624e-6
-1.062, -6.709e-6
-1.061, -6.742e-6
-1.060, -6.797e-6
-1.059, -6.843e-6
-1.058, -6.900e-6
-1.057, -6.993e-6
-1.056, -7.084e-6
-1.055, -7.115e-6
-1.054, -7.166e-6
-1.053, -7.231e-6
-1.052, -7.323e-6
-1.051, -7.359e-6
-1.050, -7.519e-6
-1.049, -7.619e-6
-1.048, -7.672e-6
-1.047, -7.717e-6
-1.046, -7.823e-6
-1.045, -7.830e-6
-1.044, -7.944e-6
-1.043, -8.003e-6
-1.042, -8.105e-6
-1.041, -8.157e-6
-1.040, -8.265e-6
-1.039, -8.339e-6
-1.038, -8.394e-6
-1.037, -8.459e-6
-1.036, -8.555e-6
-1.035, -8.721e-6
-1.034, -8.792e-6
-1.033, -8.878e-6
-1.032, -8.976e-6
-1.031, -9.089e-6
-1.030, -9.197e-6
-1.029, -9.238e-6
-1.028, -9.390e-6
-1.027, -9.448e-6
-1.026, -9.584e-6
-1.025, -9.688e-6
-1.024, -9.785e-6
-1.023, -9.847e-6
-1.022, -1.004e-5
-1.021, -1.011e-5
-1.020, -1.019e-5
-1.019, -1.028e-5
-1.018, -1.044e-5
-1.017, -1.052e-5
-1.016, -1.065e-5
-1.015, -1.081e-5
-1.014, -1.090e-5
-1.013, -1.105e-5
-1.012, -1.115e-5
-1.011, -1.135e-5
-1.010, -1.151e-5
-1.009, -1.162e-5
-1.008, -1.181e-5
-1.007, -1.192e-5
-1.006, -1.210e-5
-1.005, -1.224e-5
-1.004, -1.235e-5
-1.003, -1.252e-5
-1.002, -1.264e-5
-1.001, -1.286e-5
-1.000, -1.006e-5
-1.001, -8.026e-6
-1.002, -6.890e-6
-1.003, -5.987e-6
-1.004, -5.271e-6
-1.005, -4.594e-6
-1.006, -3.986e-6
-1.007, -3.457e-6
-1.008, -2.948e-6
-1.009, -2.566e-6
-1.010, -2.188e-6
-1.011, -1.811e-6
-1.012, -1.437e-6
-1.013, -1.126e-6
-1.014, -8.704e-7
-1.015, -5.971e-7
-1.016, -3.445e-7
-1.017, -9.787e-8
-1.018, 1.360e-7
-1.019, 3.343e-7
-1.020, 4.911e-7
-1.021, 7.555e-7
-1.022, 8.927e-7
-1.023, 1.062e-6
-1.024, 1.179e-6
-1.025, 1.359e-6
-1.026, 1.490e-6
-1.027, 1.611e-6
-1.028, 1.768e-6
-1.029, 1.870e-6
-1.030, 1.959e-6
-1.031, 2.108e-6
-1.032, 2.188e-6
-1.033, 2.320e-6
-1.034, 2.359e-6
-1.035, 2.458e-6
-1.036, 2.542e-6
-1.037, 2.632e-6
-1.038, 2.725e-6
-1.039, 2.765e-6
-1.040, 2.865e-6
-1.041, 2.927e-6
-1.042, 2.984e-6
-1.043, 3.055e-6
-1.044, 3.100e-6
-1.045, 3.132e-6
-1.046, 3.212e-6
-1.047, 3.259e-6
-1.048, 3.294e-6
-1.049, 3.334e-6
-1.050, 3.380e-6
-1.051, 3.413e-6
-1.052, 3.489e-6
-1.053, 3.565e-6
-1.054, 3.572e-6
-1.055, 3.599e-6
-1.056, 3.639e-6
-1.057, 3.651e-6
-1.058, 3.857e-6
-1.059, 3.881e-6
-1.060, 3.962e-6
-1.061, 3.923e-6
-1.062, 3.821e-6
-1.063, 3.894e-6
-1.064, 3.899e-6
-1.065, 3.847e-6
-1.066, 3.899e-6
-1.067, 3.923e-6
-1.068, 3.936e-6
-1.069, 3.999e-6
-1.070, 4.011e-6
-1.071, 4.052e-6
-1.072, 4.032e-6
-1.073, 4.077e-6
-1.074, 4.086e-6
-1.075, 4.107e-6
-1.076, 4.134e-6
-1.077, 4.097e-6
-1.078, 4.103e-6
-1.079, 4.130e-6
-1.080, 4.144e-6
-1.081, 4.204e-6
-1.082, 4.201e-6
-1.083, 4.201e-6
-1.084, 4.214e-6
-1.085, 4.262e-6
-1.086, 4.252e-6
-1.087, 4.246e-6
-1.088, 4.273e-6
-1.089, 4.263e-6
-1.090, 4.264e-6
-1.091, 4.259e-6
-1.092, 4.282e-6
-1.093, 4.297e-6
-1.094, 4.297e-6
-1.095, 4.316e-6
-1.096, 4.319e-6
-1.097, 4.291e-6
-1.098, 4.300e-6
-1.099, 4.335e-6
-1.100, 4.330e-6
-1.101, 4.351e-6
-1.102, 4.371e-6
-1.103, 4.366e-6
-1.104, 4.318e-6
-1.105, 4.358e-6
-1.106, 4.386e-6
-1.107, 4.323e-6
-1.108, 4.347e-6
-1.109, 4.369e-6
-1.110, 4.343e-6
-1.111, 4.392e-6
-1.112, 4.392e-6
-1.113, 4.420e-6
-1.114, 4.351e-6
-1.115, 4.393e-6
-1.116, 4.392e-6
-1.117, 4.403e-6
-1.118, 4.351e-6
-1.119, 4.387e-6
-1.120, 4.398e-6
-1.121, 4.408e-6
-1.122, 4.431e-6
-1.123, 4.409e-6
-1.124, 4.415e-6
-1.125, 4.351e-6
-1.126, 4.407e-6
-1.127, 4.405e-6
-1.128, 4.417e-6
-1.129, 4.398e-6
-1.130, 4.421e-6
-1.131, 4.419e-6
-1.132, 4.426e-6
-1.133, 4.413e-6
-1.134, 4.433e-6
-1.135, 4.417e-6
-1.136, 4.448e-6
-1.137, 4.421e-6
-1.138, 4.448e-6
-1.139, 4.414e-6
-1.140, 4.407e-6
-1.141, 4.384e-6
-1.142, 4.416e-6
-1.143, 4.446e-6
-1.144, 4.373e-6
-1.145, 4.383e-6
-1.146, 4.448e-6
-1.147, 4.393e-6
-1.148, 4.409e-6
-1.149, 4.405e-6
-1.150, 4.383e-6
-1.151, 4.406e-6
-1.152, 4.399e-6
-1.153, 4.400e-6
-1.154, 4.407e-6
-1.155, 4.377e-6
-1.156, 4.414e-6
-1.157, 4.374e-6
-1.158, 4.397e-6
-1.159, 4.404e-6
-1.160, 4.380e-6
-1.161, 4.372e-6
-1.162, 4.396e-6
-1.163, 4.383e-6
-1.164, 4.381e-6
-1.165, 4.406e-6
-1.166, 4.407e-6
-1.167, 4.428e-6
-1.168, 4.535e-6
-1.169, 4.572e-6
-1.170, 4.400e-6
-1.171, 4.403e-6
-1.172, 4.414e-6
-1.173, 4.390e-6
-1.174, 4.390e-6
-1.175, 4.372e-6
-1.176, 4.382e-6
-1.177, 4.435e-6
-1.178, 4.445e-6
-1.179, 4.436e-6
-1.180, 4.424e-6
-1.181, 4.434e-6
-1.182, 4.403e-6
-1.183, 4.424e-6
-1.184, 4.421e-6
-1.185, 4.436e-6
-1.186, 4.433e-6
-1.187, 4.473e-6
-1.188, 4.485e-6
-1.189, 4.467e-6
-1.190, 4.459e-6
-1.191, 4.497e-6
-1.192, 4.431e-6
-1.193, 4.476e-6
-1.194, 4.454e-6
-1.195, 4.476e-6
-1.196, 4.441e-6
-1.197, 4.443e-6
-1.198, 4.468e-6
-1.199, 4.486e-6
-1.200, 4.404e-6
-1.201, 4.445e-6
-1.202, 4.407e-6
-1.203, 4.423e-6
-1.204, 4.429e-6
-1.205, 4.429e-6
-1.206, 4.415e-6
-1.207, 4.429e-6
-1.208, 4.422e-6
-1.209, 4.451e-6
-1.210, 4.434e-6
-1.211, 4.461e-6
-1.212, 4.450e-6
-1.213, 4.429e-6
-1.214, 4.441e-6
-1.215, 4.455e-6
-1.216, 4.475e-6
-1.217, 4.474e-6
-1.218, 4.449e-6
-1.219, 4.432e-6
-1.220, 4.434e-6
-1.221, 4.409e-6
-1.222, 4.431e-6
-1.223, 4.464e-6
-1.224, 4.439e-6
-1.225, 4.420e-6
-1.226, 4.416e-6
-1.227, 4.377e-6
-1.228, 4.430e-6
-1.229, 4.474e-6
-1.230, 4.496e-6
-1.231, 4.513e-6
-1.232, 4.466e-6
-1.233, 4.442e-6
-1.234, 4.478e-6
-1.235, 4.477e-6
-1.236, 4.498e-6
-1.237, 4.498e-6
-1.238, 4.479e-6
-1.239, 4.516e-6
-1.240, 4.536e-6
-1.241, 4.584e-6
-1.242, 4.580e-6
-1.243, 4.577e-6
-1.244, 4.562e-6
-1.245, 4.593e-6
-1.246, 4.593e-6
-1.247, 4.596e-6
-1.248, 4.622e-6
-1.249, 4.611e-6
-1.250, 4.670e-6
-1.251, 4.642e-6
-1.252, 4.672e-6
-1.253, 4.708e-6
-1.254, 4.712e-6
-1.255, 4.730e-6
-1.256, 4.723e-6
-1.257, 4.749e-6
-1.258, 4.795e-6
-1.259, 4.782e-6
-1.260, 4.821e-6
-1.261, 4.844e-6
-1.262, 4.844e-6
-1.263, 4.898e-6
-1.264, 4.877e-6
-1.265, 4.965e-6
-1.266, 4.971e-6
-1.267, 5.004e-6
-1.268, 5.066e-6
-1.269, 5.072e-6
-1.270, 5.056e-6
-1.271, 5.100e-6
-1.272, 5.127e-6
-1.273, 5.162e-6
-1.274, 5.226e-6
-1.275, 5.221e-6
-1.276, 5.265e-6
-1.277, 5.317e-6
-1.278, 5.340e-6
-1.279, 5.369e-6
-1.280, 5.394e-6
-1.281, 5.459e-6
-1.282, 5.444e-6
-1.283, 5.533e-6
-1.284, 5.606e-6
-1.285, 5.617e-6
-1.286, 5.690e-6
-1.287, 5.694e-6
-1.288, 5.738e-6
-1.289, 5.759e-6
-1.290, 5.863e-6
-1.291, 5.896e-6
-1.292, 5.942e-6
-1.293, 5.990e-6
-1.294, 6.025e-6
-1.295, 6.061e-6
-1.296, 6.139e-6
-1.297, 6.197e-6
-1.298, 6.282e-6
-1.299, 6.325e-6
-1.300, 6.398e-6
-1.301, 6.463e-6
-1.302, 6.500e-6
-1.303, 6.539e-6
-1.304, 6.621e-6
-1.305, 6.653e-6
-1.306, 6.707e-6
-1.307, 6.771e-6
-1.308, 6.855e-6
-1.309, 6.917e-6
-1.310, 6.996e-6
-1.311, 7.116e-6
-1.312, 7.250e-6
-1.313, 7.290e-6
-1.314, 7.354e-6
-1.315, 7.473e-6
-1.316, 7.494e-6
-1.317, 7.613e-6
-1.318, 7.667e-6
-1.319, 7.831e-6
-1.320, 7.919e-6
-1.321, 8.028e-6
-1.322, 8.138e-6
-1.323, 8.154e-6
-1.324, 8.329e-6
-1.325, 8.453e-6
-1.326, 8.564e-6
-1.327, 8.689e-6
-1.328, 8.790e-6
-1.329, 8.884e-6
-1.330, 9.013e-6
-1.331, 9.218e-6
-1.332, 9.284e-6
-1.333, 9.478e-6
-1.334, 9.572e-6
-1.335, 9.737e-6
-1.336, 9.861e-6
-1.337, 1.005e-5
-1.338, 1.039e-5
-1.339, 1.030e-5
-1.340, 1.046e-5
-1.341, 1.065e-5
-1.342, 1.073e-5
-1.343, 1.089e-5
-1.344, 1.113e-5
-1.345, 1.124e-5
-1.346, 1.146e-5
-1.347, 1.161e-5
-1.348, 1.178e-5
-1.349, 1.197e-5
-1.350, 1.216e-5
-1.351, 1.236e-5
-1.352, 1.261e-5
-1.353, 1.277e-5
-1.354, 1.303e-5
-1.355, 1.322e-5
-1.356, 1.345e-5
-1.357, 1.371e-5
-1.358, 1.393e-5
-1.359, 1.407e-5
-1.360, 1.426e-5
-1.361, 1.454e-5
-1.362, 1.490e-5
-1.363, 1.518e-5
-1.364, 1.540e-5
-1.365, 1.567e-5
-1.366, 1.593e-5
-1.367, 1.632e-5
-1.368, 1.678e-5
-1.369, 1.700e-5
-1.370, 1.729e-5
-1.371, 1.758e-5
-1.372, 1.792e-5
-1.373, 1.818e-5
-1.374, 1.844e-5
-1.375, 1.880e-5
-1.376, 1.929e-5
-1.377, 1.944e-5
-1.378, 1.984e-5
-1.379, 2.029e-5
-1.380, 2.061e-5
-1.381, 2.103e-5
-1.382, 2.147e-5
-1.383, 2.186e-5
-1.384, 2.221e-5
-1.385, 2.264e-5
-1.386, 2.315e-5
-1.387, 2.355e-5
-1.388, 2.394e-5
-1.389, 2.444e-5
-1.390, 2.502e-5
-1.391, 2.543e-5
-1.392, 2.590e-5
-1.393, 2.642e-5
-1.394, 2.675e-5
-1.395, 2.738e-5
-1.396, 2.789e-5
-1.397, 2.836e-5
-1.398, 2.895e-5
-1.399, 2.967e-5
-1.400, 3.035e-5
-1.401, 3.097e-5
-1.402, 3.151e-5
-1.403, 3.201e-5
-1.404, 3.267e-5
-1.405, 3.340e-5
-1.406, 3.403e-5
-1.407, 3.472e-5
-1.408, 3.539e-5
-1.409, 3.599e-5
-1.410, 3.674e-5
-1.411, 3.740e-5
-1.412, 3.821e-5
-1.413, 3.907e-5
-1.414, 3.983e-5
-1.415, 4.061e-5
-1.416, 4.156e-5
-1.417, 4.229e-5
-1.418, 4.322e-5
-1.419, 4.394e-5
-1.420, 4.500e-5
-1.421, 4.600e-5
-1.422, 4.699e-5
-1.423, 4.783e-5
-1.424, 4.876e-5
-1.425, 4.972e-5
-1.426, 5.084e-5
-1.427, 5.193e-5
-1.428, 5.304e-5
-1.429, 5.408e-5
-1.430, 5.525e-5
-1.431, 5.636e-5
-1.432, 5.743e-5
-1.433, 5.846e-5
-1.434, 5.972e-5
-1.435, 6.094e-5
-1.436, 6.224e-5
-1.437, 6.349e-5
-1.438, 6.480e-5
-1.439, 6.614e-5
-1.440, 6.747e-5
-1.441, 6.885e-5
-1.442, 7.010e-5
-1.443, 7.159e-5
-1.444, 7.307e-5
-1.445, 7.451e-5
-1.446, 7.595e-5
-1.447, 7.764e-5
-1.448, 7.926e-5
-1.449, 8.081e-5
-1.450, 8.260e-5
-1.451, 8.426e-5
-1.452, 8.615e-5
-1.453, 8.785e-5
-1.454, 8.963e-5
-1.455, 9.146e-5
-1.456, 9.328e-5
-1.457, 9.505e-5
-1.458, 9.696e-5
-1.459, 9.898e-5
-1.460, 1.011e-4
-1.461, 1.030e-4
-1.462, 1.052e-4
-1.463, 1.072e-4
-1.464, 1.094e-4
-1.465, 1.117e-4
-1.466, 1.141e-4
-1.467, 1.165e-4
-1.468, 1.188e-4
-1.469, 1.211e-4
-1.470, 1.234e-4
-1.471, 1.257e-4
-1.472, 1.281e-4
-1.473, 1.308e-4
-1.474, 1.326e-4
-1.475, 1.356e-4
-1.476, 1.385e-4
-1.477, 1.412e-4
-1.478, 1.442e-4
-1.479, 1.470e-4
-1.480, 1.501e-4
-1.481, 1.533e-4
-1.482, 1.564e-4
-1.483, 1.596e-4
-1.484, 1.630e-4
-1.485, 1.660e-4
-1.486, 1.685e-4
-1.487, 1.715e-4
-1.488, 1.749e-4
-1.489, 1.785e-4
-1.490, 1.818e-4
-1.491, 1.862e-4
-1.492, 1.900e-4
-1.493, 1.932e-4
-1.494, 1.969e-4
-1.495, 2.003e-4
-1.496, 2.038e-4
-1.497, 2.079e-4
-1.498, 2.115e-4
-1.499, 2.155e-4
-1.500, 2.194e-4
-1.501, 2.236e-4
-1.502, 2.279e-4
-1.503, 2.327e-4
-1.504, 2.370e-4
-1.505, 2.414e-4
-1.506, 2.456e-4
-1.507, 2.505e-4
-1.508, 2.552e-4
-1.509, 2.594e-4
-1.510, 2.645e-4
-1.511, 2.695e-4
-1.512, 2.738e-4
-1.513, 2.789e-4
-1.514, 2.838e-4
-1.515, 2.891e-4
-1.516, 2.947e-4
-1.517, 3.004e-4
-1.518, 3.056e-4
-1.519, 3.105e-4
-1.520, 3.153e-4
-1.521, 3.208e-4
-1.522, 3.264e-4
-1.523, 3.323e-4
-1.524, 3.384e-4
-1.525, 3.444e-4
-1.526, 3.500e-4
-1.527, 3.551e-4
-1.528, 3.603e-4
-1.529, 3.663e-4
-1.530, 3.722e-4
-1.531, 3.792e-4
-1.532, 3.856e-4
-1.533, 3.918e-4
-1.534, 3.978e-4
-1.535, 4.034e-4
-1.536, 4.094e-4
-1.537, 4.162e-4
-1.538, 4.229e-4
-1.539, 4.274e-4
-1.540, 4.328e-4
-1.541, 4.398e-4
-1.542, 4.468e-4
-1.543, 4.528e-4
-1.544, 4.601e-4
-1.545, 4.666e-4
-1.546, 4.733e-4
-1.547, 4.804e-4
-1.548, 4.883e-4
-1.549, 4.957e-4
-1.550, 4.990e-4
-1.551, 5.042e-4
-1.552, 5.120e-4
-1.553, 5.205e-4
-1.554, 5.296e-4
-1.555, 5.374e-4
-1.556, 5.448e-4
-1.557, 5.513e-4
-1.558, 5.566e-4
-1.559, 5.630e-4
-1.560, 5.700e-4
-1.561, 5.780e-4
-1.562, 5.887e-4
-1.563, 5.993e-4
-1.564, 6.069e-4
-1.565, 6.148e-4
-1.566, 6.214e-4
-1.567, 6.280e-4
-1.568, 6.341e-4
-1.569, 6.411e-4
-1.570, 6.521e-4
-1.571, 6.629e-4
-1.572, 6.729e-4
-1.573, 6.815e-4
-1.574, 6.887e-4
-1.575, 6.946e-4
-1.576, 7.017e-4
-1.577, 7.104e-4
-1.578, 7.202e-4
-1.579, 7.320e-4
-1.580, 7.424e-4
-1.581, 7.537e-4
-1.582, 7.628e-4
-1.583, 7.726e-4
-1.584, 7.821e-4
-1.585, 7.913e-4
-1.586, 8.021e-4
-1.587, 8.143e-4
-1.588, 8.270e-4
-1.589, 8.392e-4
-1.590, 8.480e-4
-1.591, 8.560e-4
-1.592, 8.601e-4
-1.593, 8.688e-4
-1.594, 8.812e-4
-1.595, 9.026e-4
-1.596, 9.132e-4
-1.597, 9.222e-4
-1.598, 9.330e-4
-1.599, 9.438e-4
-1.600, 9.534e-4
-1.601, 9.688e-4
-1.602, 9.843e-4
-1.603, 1.003e-3
-1.604, 1.019e-3
-1.605, 1.026e-3
-1.606, 1.025e-3
-1.607, 1.038e-3
-1.608, 1.056e-3
-1.609, 1.074e-3
-1.610, 1.092e-3
-1.611, 1.104e-3
-1.612, 1.113e-3
-1.613, 1.121e-3
-1.614, 1.129e-3
-1.615, 1.142e-3
-1.616, 1.155e-3
-1.617, 1.166e-3
-1.618, 1.181e-3
-1.619, 1.194e-3
-1.620, 1.213e-3
-1.621, 1.225e-3
-1.622, 1.253e-3
-1.623, 1.265e-3
-1.624, 1.271e-3
-1.625, 1.287e-3
-1.626, 1.304e-3
-1.627, 1.332e-3
-1.628, 1.357e-3
-1.629, 1.375e-3
-1.630, 1.380e-3
-1.631, 1.387e-3
-1.632, 1.407e-3
-1.633, 1.425e-3
-1.634, 1.439e-3
-1.635, 1.468e-3
-1.636, 1.490e-3
-1.637, 1.501e-3
-1.638, 1.510e-3
-1.639, 1.525e-3
-1.640, 1.532e-3
-1.641, 1.547e-3
-1.642, 1.563e-3
-1.643, 1.582e-3
-1.644, 1.598e-3
-1.645, 1.625e-3
-1.646, 1.647e-3
-1.647, 1.664e-3
-1.648, 1.678e-3
-1.649, 1.696e-3
-1.650, 1.713e-3
-1.651, 1.728e-3
-1.652, 1.751e-3
-1.653, 1.769e-3
-1.654, 1.797e-3
-1.655, 1.808e-3
-1.656, 1.799e-3
-1.657, 1.840e-3
-1.658, 1.880e-3
-1.659, 1.910e-3
-1.660, 1.922e-3
-1.661, 1.946e-3
-1.662, 1.980e-3
-1.663, 2.034e-3
-1.664, 2.063e-3
-1.665, 2.091e-3
-1.666, 2.111e-3
-1.667, 2.136e-3
-1.668, 2.159e-3
-1.669, 2.173e-3
-1.670, 2.155e-3
-1.671, 2.167e-3
-1.672, 2.186e-3
-1.673, 2.226e-3
-1.674, 2.255e-3
-1.675, 2.279e-3
-1.676, 2.288e-3
-1.677, 2.328e-3
-1.678, 2.351e-3
-1.679, 2.358e-3
-1.680, 2.367e-3
-1.681, 2.417e-3
-1.682, 2.474e-3
-1.683, 2.499e-3
-1.684, 2.527e-3
-1.685, 2.553e-3
-1.686, 2.578e-3
-1.687, 2.597e-3
-1.688, 2.607e-3
-1.689, 2.600e-3
-1.690, 2.634e-3
-1.691, 2.722e-3
-1.692, 2.729e-3
-1.693, 2.763e-3
-1.694, 2.769e-3
-1.695, 2.795e-3
-1.696, 2.838e-3
-1.697, 2.880e-3
-1.698, 2.920e-3
-1.699, 2.937e-3
-1.700, 2.946e-3
-1.699, 2.921e-3
-1.698, 2.903e-3
-1.697, 2.907e-3
-1.696, 2.868e-3
-1.695, 2.850e-3
-1.694, 2.823e-3
-1.693, 2.787e-3
-1.692, 2.771e-3
-1.691, 2.717e-3
-1.690, 2.650e-3
-1.689, 2.611e-3
-1.688, 2.659e-3
-1.687, 2.652e-3
-1.686, 2.606e-3
-1.685, 2.581e-3
-1.684, 2.563e-3
-1.683, 2.550e-3
-1.682, 2.498e-3
-1.681, 2.474e-3
-1.680, 2.456e-3
-1.679, 2.450e-3
-1.678, 2.427e-3
-1.677, 2.394e-3
-1.676, 2.369e-3
-1.675, 2.340e-3
-1.674, 2.323e-3
-1.673, 2.313e-3
-1.672, 2.299e-3
-1.671, 2.285e-3
-1.670, 2.249e-3
-1.669, 2.199e-3
-1.668, 2.178e-3
-1.667, 2.153e-3
-1.666, 2.093e-3
-1.665, 2.074e-3
-1.664, 2.061e-3
-1.663, 2.056e-3
-1.662, 2.044e-3
-1.661, 2.009e-3
-1.660, 1.965e-3
-1.659, 1.957e-3
-1.658, 1.943e-3
-1.657, 1.911e-3
-1.656, 1.881e-3
-1.655, 1.861e-3
-1.654, 1.842e-3
-1.653, 1.830e-3
-1.652, 1.854e-3
-1.651, 1.860e-3
-1.650, 1.838e-3
-1.649, 1.811e-3
-1.648, 1.785e-3
-1.647, 1.765e-3
-1.646, 1.751e-3
-1.645, 1.730e-3
-1.644, 1.706e-3
-1.643, 1.669e-3
-1.642, 1.623e-3
-1.641, 1.605e-3
-1.640, 1.599e-3
-1.639, 1.597e-3
-1.638, 1.579e-3
-1.637, 1.550e-3
-1.636, 1.524e-3
-1.635, 1.509e-3
-1.634, 1.474e-3
-1.633, 1.447e-3
-1.632, 1.428e-3
-1.631, 1.408e-3
-1.630, 1.396e-3
-1.629, 1.391e-3
-1.628, 1.378e-3
-1.627, 1.358e-3
-1.626, 1.340e-3
-1.625, 1.317e-3
-1.624, 1.292e-3
-1.623, 1.280e-3
-1.622, 1.267e-3
-1.621, 1.245e-3
-1.620, 1.219e-3
-1.619, 1.205e-3
-1.618, 1.187e-3
-1.617, 1.166e-3
-1.616, 1.154e-3
-1.615, 1.144e-3
-1.614, 1.135e-3
-1.613, 1.112e-3
-1.612, 1.097e-3
-1.611, 1.075e-3
-1.610, 1.076e-3
-1.609, 1.073e-3
-1.608, 1.066e-3
-1.607, 1.051e-3
-1.606, 1.038e-3
-1.605, 1.026e-3
-1.604, 1.014e-3
-1.603, 9.942e-4
-1.602, 9.765e-4
-1.601, 9.579e-4
-1.600, 9.435e-4
-1.599, 9.324e-4
-1.598, 9.174e-4
-1.597, 8.901e-4
-1.596, 8.726e-4
-1.595, 8.616e-4
-1.594, 8.462e-4
-1.593, 8.279e-4
-1.592, 7.957e-4
-1.591, 7.864e-4
-1.590, 7.741e-4
-1.589, 7.596e-4
-1.588, 7.409e-4
-1.587, 7.249e-4
-1.586, 7.128e-4
-1.585, 7.048e-4
-1.584, 7.002e-4
-1.583, 6.945e-4
-1.582, 6.858e-4
-1.581, 6.691e-4
-1.580, 6.560e-4
-1.579, 6.455e-4
-1.578, 6.354e-4
-1.577, 6.213e-4
-1.576, 6.146e-4
-1.575, 6.021e-4
-1.574, 5.973e-4
-1.573, 5.845e-4
-1.572, 5.765e-4
-1.571, 5.663e-4
-1.570, 5.590e-4
-1.569, 5.515e-4
-1.568, 5.414e-4
-1.567, 5.314e-4
-1.566, 5.243e-4
-1.565, 5.153e-4
-1.564, 5.055e-4
-1.563, 4.937e-4
-1.562, 4.827e-4
-1.561, 4.734e-4
-1.560, 4.687e-4
-1.559, 4.609e-4
-1.558, 4.532e-4
-1.557, 4.454e-4
-1.556, 4.387e-4
-1.555, 4.323e-4
-1.554, 4.247e-4
-1.553, 4.175e-4
-1.552, 4.089e-4
-1.551, 4.001e-4
-1.550, 3.924e-4
-1.549, 3.848e-4
-1.548, 3.753e-4
-1.547, 3.668e-4
-1.546, 3.616e-4
-1.545, 3.555e-4
-1.544, 3.508e-4
-1.543, 3.457e-4
-1.542, 3.389e-4
-1.541, 3.313e-4
-1.540, 3.195e-4
-1.539, 3.134e-4
-1.538, 3.119e-4
-1.537, 3.076e-4
-1.536, 3.028e-4
-1.535, 2.952e-4
-1.534, 2.891e-4
-1.533, 2.840e-4
-1.532, 2.791e-4
-1.531, 2.750e-4
-1.530, 2.702e-4
-1.529, 2.651e-4
-1.528, 2.593e-4
-1.527, 2.536e-4
-1.526, 2.487e-4
-1.525, 2.446e-4
-1.524, 2.403e-4
-1.523, 2.352e-4
-1.522, 2.294e-4
-1.521, 2.245e-4
-1.520, 2.211e-4
-1.519, 2.162e-4
-1.518, 2.119e-4
-1.517, 2.076e-4
-1.516, 2.074e-4
-1.515, 2.035e-4
-1.514, 1.978e-4
-1.513, 1.919e-4
-1.512, 1.878e-4
-1.511, 1.838e-4
-1.510, 1.801e-4
-1.509, 1.766e-4
-1.508, 1.730e-4
-1.507, 1.683e-4
-1.506, 1.653e-4
-1.505, 1.608e-4
-1.504, 1.574e-4
-1.503, 1.543e-4
-1.502, 1.515e-4
-1.501, 1.486e-4
-1.500, 1.454e-4
-1.499, 1.420e-4
-1.498, 1.385e-4
-1.497, 1.391e-4
-1.496, 1.350e-4
-1.495, 1.311e-4
-1.494, 1.286e-4
-1.493, 1.248e-4
-1.492, 1.221e-4
-1.491, 1.209e-4
-1.490, 1.185e-4
-1.489, 1.172e-4
-1.488, 1.126e-4
-1.487, 1.110e-4
-1.486, 1.105e-4
-1.485, 1.084e-4
-1.484, 1.034e-4
-1.483, 1.017e-4
-1.482, 1.005e-4
-1.481, 9.708e-5
-1.480, 9.505e-5
-1.479, 9.291e-5
-1.478, 9.135e-5
-1.477, 9.159e-5
-1.476, 8.924e-5
-1.475, 8.686e-5
-1.474, 8.549e-5
-1.473, 8.191e-5
-1.472, 8.011e-5
-1.471, 7.967e-5
-1.470, 7.670e-5
-1.469, 7.690e-5
-1.468, 7.516e-5
-1.467, 7.294e-5
-1.466, 7.129e-5
-1.465, 7.033e-5
-1.464, 6.902e-5
-1.463, 6.759e-5
-1.462, 6.540e-5
-1.461, 6.274e-5
-1.460, 6.142e-5
-1.459, 6.249e-5
-1.458, 5.981e-5
-1.457, 5.721e-5
-1.456, 5.600e-5
-1.455, 5.476e-5
-1.454, 5.356e-5
-1.453, 5.256e-5
-1.452, 5.133e-5
-1.451, 4.999e-5
-1.450, 4.887e-5
-1.449, 4.779e-5
-1.448, 4.795e-5
-1.447, 4.832e-5
-1.446, 4.648e-5
-1.445, 4.470e-5
-1.444, 4.348e-5
-1.443, 4.310e-5
-1.442, 4.344e-5
-1.441, 4.112e-5
-1.440, 3.921e-5
-1.439, 3.841e-5
-1.438, 3.946e-5
-1.437, 3.740e-5
-1.436, 3.595e-5
-1.435, 3.513e-5
-1.434, 3.445e-5
-1.433, 3.372e-5
-1.432, 3.467e-5
-1.431, 3.322e-5
-1.430, 3.363e-5
-1.429, 3.220e-5
-1.428, 3.038e-5
-1.427, 2.947e-5
-1.426, 2.885e-5
-1.425, 2.832e-5
-1.424, 2.796e-5
-1.423, 2.895e-5
-1.422, 2.764e-5
-1.421, 2.585e-5
-1.420, 2.528e-5
-1.419, 2.492e-5
-1.418, 2.665e-5
-1.417, 2.497e-5
-1.416, 2.351e-5
-1.415, 2.346e-5
-1.414, 2.324e-5
-1.413, 2.177e-5
-1.412, 2.124e-5
-1.411, 2.076e-5
-1.410, 2.027e-5
-1.409, 2.159e-5
-1.408, 2.084e-5
-1.407, 2.005e-5
-1.406, 1.965e-5
-1.405, 1.827e-5
-1.404, 1.818e-5
-1.403, 1.822e-5
-1.402, 1.803e-5
-1.401, 1.740e-5
-1.400, 1.615e-5
-1.399, 1.577e-5
-1.398, 1.546e-5
-1.397, 1.607e-5
-1.396, 1.654e-5
-1.395, 1.503e-5
-1.394, 1.491e-5
-1.393, 1.440e-5
-1.392, 1.389e-5
-1.391, 1.319e-5
-1.390, 1.284e-5
-1.389, 1.261e-5
-1.388, 1.272e-5
-1.387, 1.281e-5
-1.386, 1.253e-5
-1.385, 1.198e-5
-1.384, 1.151e-5
-1.383, 1.133e-5
-1.382, 1.160e-5
-1.381, 1.087e-5
-1.380, 1.019e-5
-1.379, 9.948e-6
-1.378, 9.810e-6
-1.377, 1.074e-5
-1.376, 1.027e-5
-1.375, 9.564e-6
-1.374, 9.113e-6
-1.373, 8.873e-6
-1.372, 8.638e-6
-1.371, 9.063e-6
-1.370, 8.208e-6
-1.369, 7.888e-6
-1.368, 7.750e-6
-1.367, 7.606e-6
-1.366, 7.342e-6
-1.365, 8.042e-6
-1.364, 7.783e-6
-1.363, 7.254e-6
-1.362, 7.043e-6
-1.361, 6.807e-6
-1.360, 6.683e-6
-1.359, 6.289e-6
-1.358, 6.418e-6
-1.357, 6.234e-6
-1.356, 5.903e-6
-1.355, 5.613e-6
-1.354, 5.904e-6
-1.353, 5.667e-6
-1.352, 5.470e-6
-1.351, 5.315e-6
-1.350, 5.112e-6
-1.349, 4.921e-6
-1.348, 4.692e-6
-1.347, 4.494e-6
-1.346, 4.504e-6
-1.345, 4.206e-6
-1.344, 4.089e-6
-1.343, 4.306e-6
-1.342, 4.487e-6
-1.341, 4.007e-6
-1.340, 3.903e-6
-1.339, 3.747e-6
-1.338, 3.674e-6
-1.337, 3.492e-6
-1.336, 3.210e-6
-1.335, 3.268e-6
-1.334, 3.143e-6
-1.333, 2.936e-6
-1.332, 2.792e-6
-1.331, 2.703e-6
-1.330, 2.662e-6
-1.329, 2.674e-6
-1.328, 3.039e-6
-1.327, 2.727e-6
-1.326, 2.354e-6
-1.325, 2.231e-6
-1.324, 2.213e-6
-1.323, 2.183e-6
-1.322, 2.121e-6
-1.321, 2.055e-6
-1.320, 1.858e-6
-1.319, 1.719e-6
-1.318, 1.646e-6
-1.317, 1.588e-6
-1.316, 1.874e-6
-1.315, 1.627e-6
-1.314, 1.463e-6
-1.313, 1.361e-6
-1.312, 1.284e-6
-1.311, 1.336e-6
-1.310, 1.099e-6
-1.309, 1.172e-6
-1.308, 1.059e-6
-1.307, 9.647e-7
-1.306, 8.473e-7
-1.305, 8.019e-7
-1.304, 7.664e-7
-1.303, 1.018e-6
-1.302, 8.285e-7
-1.301, 6.894e-7
-1.300, 6.460e-7
-1.299, 5.493e-7
-1.298, 5.217e-7
-1.297, 4.596e-7
-1.296, 3.787e-7
-1.295, 3.510e-7
-1.294, 2.573e-7
-1.293, 2.011e-7
-1.292, 1.488e-7
-1.291, 9.748e-8
-1.290, 6.196e-8
-1.289, 2.447e-8
-1.288, 1.646e-7
-1.287, -1.006e-8
-1.286, -1.433e-7
-1.285, -1.669e-7
-1.284, -2.163e-7
-1.283, -2.616e-7
-1.282, -2.676e-7
-1.281, -3.978e-7
-1.280, -3.948e-7
-1.279, -4.047e-7
-1.278, -4.017e-7
-1.277, -3.771e-7
-1.276, -5.557e-7
-1.275, -5.744e-7
-1.274, -6.237e-7
-1.273, -6.504e-7
-1.272, -6.780e-7
-1.271, -7.421e-7
-1.270, -7.559e-7
-1.269, -7.895e-7
-1.268, -8.181e-7
-1.267, -8.378e-7
-1.266, -8.891e-7
-1.265, -9.029e-7
-1.264, -9.414e-7
-1.263, -1.006e-6
-1.262, -1.033e-6
-1.261, -1.090e-6
-1.260, -1.113e-6
-1.259, -1.156e-6
-1.258, -1.275e-6
-1.257, -1.405e-6
-1.256, -1.388e-6
-1.255, -1.243e-6
-1.254, -1.285e-6
-1.253, -1.331e-6
-1.252, -1.327e-6
-1.251, -1.382e-6
-1.250, -1.383e-6
-1.249, -1.441e-6
-1.248, -1.432e-6
-1.247, -1.484e-6
-1.246, -1.550e-6
-1.245, -1.537e-6
-1.244, -1.531e-6
-1.243, -1.585e-6
-1.242, -1.576e-6
-1.241, -1.651e-6
-1.240, -1.610e-6
-1.239, -1.642e-6
-1.238, -1.688e-6
-1.237, -1.807e-6
-1.236, -1.749e-6
-1.235, -1.768e-6
-1.234, -1.761e-6
-1.233, -1.787e-6
-1.232, -1.799e-6
-1.231, -1.891e-6
-1.230, -1.929e-6
-1.229, -1.928e-6
-1.228, -1.920e-6
-1.227, -1.934e-6
-1.226, -1.965e-6
-1.225, -2.067e-6
-1.224, -2.065e-6
-1.223, -2.057e-6
-1.222, -2.079e-6
-1.221, -2.103e-6
-1.220, -2.094e-6
-1.219, -2.159e-6
-1.218, -2.159e-6
-1.217, -2.173e-6
-1.216, -2.191e-6
-1.215, -2.279e-6
-1.214, -2.242e-6
-1.213, -2.239e-6
-1.212, -2.280e-6
-1.211, -2.307e-6
-1.210, -2.320e-6
-1.209, -2.340e-6
-1.208, -2.345e-6
-1.207, -2.322e-6
-1.206, -2.374e-6
-1.205, -2.389e-6
-1.204, -2.405e-6
-1.203, -2.526e-6
-1.202, -2.535e-6
-1.201, -2.475e-6
-1.200, -2.517e-6
-1.199, -2.520e-6
-1.198, -2.576e-6
-1.197, -2.541e-6
-1.196, -2.581e-6
-1.195, -2.600e-6
-1.194, -2.606e-6
-1.193, -2.628e-6
-1.192, -2.783e-6
-1.191, -2.754e-6
-1.190, -2.710e-6
-1.189, -2.714e-6
-1.188, -2.696e-6
-1.187, -2.714e-6
-1.186, -2.750e-6
-1.185, -2.764e-6
-1.184, -2.771e-6
-1.183, -2.889e-6
-1.182, -2.906e-6
-1.181, -2.896e-6
-1.180, -2.896e-6
-1.179, -2.914e-6
-1.178, -2.932e-6
-1.177, -2.952e-6
-1.176, -2.994e-6
-1.175, -2.985e-6
-1.174, -2.988e-6
-1.173, -2.996e-6
-1.172, -2.985e-6
-1.171, -3.086e-6
-1.170, -3.079e-6
-1.169, -3.093e-6
-1.168, -3.094e-6
-1.167, -3.084e-6
-1.166, -3.421e-6
-1.165, -3.221e-6
-1.164, -3.180e-6
-1.163, -3.189e-6
-1.162, -3.216e-6
-1.161, -3.229e-6
-1.160, -3.208e-6
-1.159, -3.225e-6
-1.158, -3.272e-6
-1.157, -3.368e-6
-1.156, -3.282e-6
-1.155, -3.309e-6
-1.154, -3.353e-6
-1.153, -3.356e-6
-1.152, -3.442e-6
-1.151, -3.534e-6
-1.150, -3.467e-6
-1.149, -3.453e-6
-1.148, -3.446e-6
-1.147, -3.505e-6
-1.146, -3.544e-6
-1.145, -3.549e-6
-1.144, -3.594e-6
-1.143, -3.739e-6
-1.142, -3.691e-6
-1.141, -3.667e-6
-1.140, -3.629e-6
-1.139, -3.645e-6
-1.138, -3.702e-6
-1.137, -3.766e-6
-1.136, -3.703e-6
-1.135, -3.754e-6
-1.134, -3.797e-6
-1.133, -3.836e-6
-1.132, -3.969e-6
-1.131, -3.896e-6
-1.130, -3.948e-6
-1.129, -3.934e-6
-1.128, -3.917e-6
-1.127, -3.982e-6
-1.126, -3.983e-6
-1.125, -4.022e-6
-1.124, -4.017e-6
-1.123, -4.037e-6
-1.122, -4.182e-6
-1.121, -4.142e-6
-1.120, -4.153e-6
-1.119, -4.137e-6
-1.118, -4.136e-6
-1.117, -4.227e-6
-1.116, -4.291e-6
-1.115, -4.328e-6
-1.114, -4.246e-6
-1.113, -4.261e-6
-1.112, -4.310e-6
-1.111, -4.335e-6
-1.110, -4.370e-6
-1.109, -4.688e-6
-1.108, -4.541e-6
-1.107, -4.499e-6
-1.106, -4.529e-6
-1.105, -4.530e-6
-1.104, -4.608e-6
-1.103, -4.676e-6
-1.102, -4.700e-6
-1.101, -4.731e-6
-1.100, -4.758e-6
-1.099, -4.777e-6
-1.098, -4.787e-6
-1.097, -4.816e-6
-1.096, -4.890e-6
-1.095, -4.898e-6
-1.094, -4.950e-6
-1.093, -4.935e-6
-1.092, -4.990e-6
-1.091, -5.030e-6
-1.090, -5.068e-6
-1.089, -5.107e-6
-1.088, -5.172e-6
-1.087, -5.162e-6
-1.086, -5.259e-6
-1.085, -5.277e-6
-1.084, -5.317e-6
-1.083, -5.309e-6
-1.082, -5.346e-6
-1.081, -5.409e-6
-1.080, -5.458e-6
-1.079, -5.755e-6
-1.078, -5.633e-6
-1.077, -5.638e-6
-1.076, -5.773e-6
-1.075, -5.760e-6
-1.074, -5.705e-6
-1.073, -5.770e-6
-1.072, -5.804e-6
-1.071, -6.142e-6
-1.070, -6.045e-6
-1.069, -6.032e-6
-1.068, -6.091e-6
-1.067, -6.122e-6
-1.066, -6.139e-6
-1.065, -6.212e-6
-1.064, -6.236e-6
-1.063, -6.291e-6
-1.062, -6.339e-6
-1.061, -6.737e-6
-1.060, -6.716e-6
-1.059, -6.651e-6
-1.058, -6.622e-6
-1.057, -6.692e-6
-1.056, -6.839e-6
-1.055, -6.828e-6
-1.054, -6.859e-6
-1.053, -6.958e-6
-1.052, -7.109e-6
-1.051, -7.162e-6
-1.050, -7.203e-6
-1.049, -7.288e-6
-1.048, -7.349e-6
-1.047, -7.419e-6
-1.046, -7.457e-6
-1.045, -7.515e-6
-1.044, -7.595e-6
-1.043, -7.855e-6
-1.042, -7.808e-6
-1.041, -7.799e-6
-1.040, -7.938e-6
-1.039, -8.035e-6
-1.038, -8.103e-6
-1.037, -8.213e-6
-1.036, -8.223e-6
-1.035, -8.304e-6
-1.034, -8.493e-6
-1.033, -8.629e-6
-1.032, -8.553e-6
-1.031, -8.839e-6
-1.030, -8.837e-6
-1.029, -8.793e-6
-1.028, -8.858e-6
-1.027, -8.964e-6
-1.026, -9.087e-6
-1.025, -9.416e-6
-1.024, -9.626e-6
-1.023, -9.562e-6
-1.022, -9.488e-6
-1.021, -9.606e-6
-1.020, -9.720e-6
-1.019, -9.850e-6
-1.018, -9.935e-6
-1.017, -1.009e-5
-1.016, -1.018e-5
-1.015, -1.034e-5
-1.014, -1.080e-5
-1.013, -1.118e-5
-1.012, -1.087e-5
-1.011, -1.087e-5
-1.010, -1.097e-5
-1.009, -1.114e-5
-1.008, -1.140e-5
-1.007, -1.161e-5
-1.006, -1.156e-5
-1.005, -1.176e-5
-1.004, -1.234e-5
-1.003, -1.236e-5
-1.002, -1.242e-5
-1.001, -1.266e-5
-1.000, -9.773e-6
-1.001, -7.694e-6
-1.002, -6.569e-6
-1.003, -5.654e-6
-1.004, -4.920e-6
-1.005, -4.296e-6
-1.006, -3.757e-6
-1.007, -3.270e-6
-1.008, -2.810e-6
-1.009, -2.384e-6
-1.010, -2.012e-6
-1.011, -1.649e-6
-1.012, -1.265e-6
-1.013, -1.030e-6
-1.014, -7.628e-7
-1.015, -4.767e-7
-1.016, -2.547e-7
-1.017, -8.011e-8
-1.018, 1.695e-7
-1.019, 3.333e-7
-1.020, 5.829e-7
-1.021, 8.660e-7
-1.022, 8.828e-7
-1.023, 1.042e-6
-1.024, 1.295e-6
-1.025, 1.427e-6
-1.026, 1.506e-6
-1.027, 1.634e-6
-1.028, 1.714e-6
-1.029, 1.823e-6
-1.030, 1.925e-6
-1.031, 2.069e-6
-1.032, 2.284e-6
-1.033, 2.416e-6
-1.034, 2.402e-6
-1.035, 2.481e-6
-1.036, 2.541e-6
-1.037, 2.579e-6
-1.038, 2.660e-6
-1.039, 2.748e-6
-1.040, 2.808e-6
-1.041, 2.855e-6
-1.042, 2.897e-6
-1.043, 3.003e-6
-1.044, 3.109e-6
-1.045, 3.116e-6
-1.046, 3.144e-6
-1.047, 3.346e-6
-1.048, 3.447e-6
-1.049, 3.401e-6
-1.050, 3.330e-6
-1.051, 3.368e-6
-1.052, 3.438e-6
-1.053, 3.499e-6
-1.054, 3.662e-6
-1.055, 3.577e-6
-1.056, 3.669e-6
-1.057, 3.757e-6
-1.058, 3.664e-6
-1.059, 3.649e-6
-1.060, 3.719e-6
-1.061, 3.745e-6
-1.062, 3.776e-6
-1.063, 3.796e-6
-1.064, 3.815e-6
-1.065, 3.822e-6
-1.066, 3.886e-6
-1.067, 4.211e-6
-1.068, 3.980e-6
-1.069, 3.928e-6
-1.070, 4.031e-6
-1.071, 4.205e-6
-1.072, 4.002e-6
-1.073, 4.029e-6
-1.074, 4.055e-6
-1.075, 4.074e-6
-1.076, 4.118e-6
-1.077, 4.394e-6
-1.078, 4.446e-6
-1.079, 4.202e-6
-1.080, 4.192e-6
-1.081, 4.212e-6
-1.082, 4.270e-6
-1.083, 4.258e-6
-1.084, 4.288e-6
-1.085, 4.210e-6
-1.086, 4.228e-6
-1.087, 4.259e-6
-1.088, 4.334e-6
-1.089, 4.549e-6
-1.090, 4.381e-6
-1.091, 4.356e-6
-1.092, 4.359e-6
-1.093, 4.362e-6
-1.094, 4.340e-6
-1.095, 4.321e-6
-1.096, 4.315e-6
-1.097, 4.454e-6
-1.098, 4.322e-6
-1.099, 4.286e-6
-1.100, 4.318e-6
-1.101, 4.365e-6
-1.102, 4.604e-6
-1.103, 4.399e-6
-1.104, 4.369e-6
-1.105, 4.452e-6
-1.106, 4.384e-6
-1.107, 4.382e-6
-1.108, 4.411e-6
-1.109, 4.365e-6
-1.110, 4.402e-6
-1.111, 4.477e-6
-1.112, 4.583e-6
-1.113, 4.465e-6
-1.114, 4.436e-6
-1.115, 4.431e-6
-1.116, 4.453e-6
-1.117, 4.629e-6
-1.118, 4.433e-6
-1.119, 4.480e-6
-1.120, 4.454e-6
-1.121, 4.429e-6
-1.122, 4.450e-6
-1.123, 4.483e-6
-1.124, 4.435e-6
-1.125, 4.512e-6
-1.126, 4.575e-6
-1.127, 4.475e-6
-1.128, 4.426e-6
-1.129, 4.421e-6
-1.130, 4.415e-6
-1.131, 4.430e-6
-1.132, 4.437e-6
-1.133, 4.435e-6
-1.134, 4.440e-6
-1.135, 4.480e-6
-1.136, 4.560e-6
-1.137, 4.585e-6
-1.138, 4.564e-6
-1.139, 4.541e-6
-1.140, 4.428e-6
-1.141, 4.517e-6
-1.142, 4.566e-6
-1.143, 4.409e-6
-1.144, 4.445e-6
-1.145, 4.402e-6
-1.146, 4.626e-6
-1.147, 4.527e-6
-1.148, 4.497e-6
-1.149, 4.451e-6
-1.150, 4.485e-6
-1.151, 4.527e-6
-1.152, 4.475e-6
-1.153, 4.468e-6
-1.154, 4.428e-6
-1.155, 4.420e-6
-1.156, 4.537e-6
-1.157, 4.574e-6
-1.158, 4.453e-6
-1.159, 4.485e-6
-1.160, 4.442e-6
-1.161, 4.415e-6
-1.162, 4.438e-6
-1.163, 4.441e-6
-1.164, 4.498e-6
-1.165, 4.397e-6
-1.166, 4.416e-6
-1.167, 4.408e-6
-1.168, 4.402e-6
-1.169, 4.353e-6
-1.170, 4.542e-6
-1.171, 4.623e-6
-1.172, 4.547e-6
-1.173, 4.437e-6
-1.174, 4.426e-6
-1.175, 4.452e-6
-1.176, 4.376e-6
-1.177, 4.443e-6
-1.178, 4.563e-6
-1.179, 4.427e-6
-1.180, 4.387e-6
-1.181, 4.387e-6
-1.182, 4.401e-6
-1.183, 4.595e-6
-1.184, 4.518e-6
-1.185, 4.417e-6
-1.186, 4.429e-6
-1.187, 4.426e-6
-1.188, 4.388e-6
-1.189, 4.354e-6
-1.190, 4.338e-6
-1.191, 4.379e-6
-1.192, 4.535e-6
-1.193, 4.571e-6
-1.194, 4.429e-6
-1.195, 4.336e-6
-1.196, 4.389e-6
-1.197, 4.399e-6
-1.198, 4.484e-6
-1.199, 4.370e-6
-1.200, 4.356e-6
-1.201, 4.358e-6
-1.202, 4.375e-6
-1.203, 4.327e-6
-1.204, 4.445e-6
-1.205, 4.783e-6
-1.206, 4.451e-6
-1.207, 4.450e-6
-1.208, 4.424e-6
-1.209, 4.364e-6
-1.210, 4.370e-6
-1.211, 4.423e-6
-1.212, 4.466e-6
-1.213, 4.414e-6
-1.214, 4.330e-6
-1.215, 4.356e-6
-1.216, 4.397e-6
-1.217, 4.433e-6
-1.218, 4.633e-6
-1.219, 4.513e-6
-1.220, 4.463e-6
-1.221, 4.545e-6
-1.222, 4.625e-6
-1.223, 4.411e-6
-1.224, 4.329e-6
-1.225, 4.385e-6
-1.226, 4.383e-6
-1.227, 4.356e-6
-1.228, 4.620e-6
-1.229, 4.645e-6
-1.230, 4.483e-6
-1.231, 4.517e-6
-1.232, 4.618e-6
-1.233, 4.495e-6
-1.234, 4.425e-6
-1.235, 4.408e-6
-1.236, 4.585e-6
-1.237, 4.581e-6
-1.238, 4.470e-6
-1.239, 4.480e-6
-1.240, 4.679e-6
-1.241, 4.666e-6
-1.242, 4.552e-6
-1.243, 4.585e-6
-1.244, 4.580e-6
-1.245, 4.572e-6
-1.246, 4.576e-6
-1.247, 4.611e-6
-1.248, 4.682e-6
-1.249, 4.571e-6
-1.250, 4.632e-6
-1.251, 4.652e-6
-1.252, 4.633e-6
-1.253, 4.655e-6
-1.254, 4.880e-6
-1.255, 4.984e-6
-1.256, 4.860e-6
-1.257, 4.821e-6
-1.258, 4.693e-6
-1.259, 4.816e-6
-1.260, 4.907e-6
-1.261, 4.889e-6
-1.262, 4.987e-6
-1.263, 4.933e-6
-1.264, 4.919e-6
-1.265, 4.853e-6
-1.266, 4.875e-6
-1.267, 4.944e-6
-1.268, 4.997e-6
-1.269, 5.145e-6
-1.270, 5.153e-6
-1.271, 5.213e-6
-1.272, 5.172e-6
-1.273, 5.188e-6
-1.274, 5.193e-6
-1.275, 5.224e-6
-1.276, 5.223e-6
-1.277, 5.175e-6
-1.278, 5.231e-6
-1.279, 5.266e-6
-1.280, 5.298e-6
-1.281, 5.373e-6
-1.282, 5.428e-6
-1.283, 5.428e-6
-1.284, 5.451e-6
-1.285, 5.526e-6
-1.286, 5.571e-6
-1.287, 5.603e-6
-1.288, 5.657e-6
-1.289, 5.858e-6
-1.290, 5.733e-6
-1.291, 5.808e-6
-1.292, 5.831e-6
-1.293, 6.112e-6
-1.294, 6.166e-6
-1.295, 5.952e-6
-1.296, 6.015e-6
-1.297, 6.083e-6
-1.298, 6.199e-6
-1.299, 6.479e-6
-1.300, 6.214e-6
-1.301, 6.315e-6
-1.302, 6.370e-6
-1.303, 6.415e-6
-1.304, 6.457e-6
-1.305, 6.913e-6
-1.306, 7.178e-6
-1.307, 6.720e-6
-1.308, 6.674e-6
-1.309, 6.916e-6
-1.310, 6.891e-6
-1.311, 6.896e-6
-1.312, 6.973e-6
-1.313, 7.013e-6
-1.314, 7.335e-6
-1.315, 7.233e-6
-1.316, 7.638e-6
-1.317, 7.597e-6
-1.318, 7.484e-6
-1.319, 7.604e-6
-1.320, 7.713e-6
-1.321, 7.680e-6
-1.322, 7.757e-6
-1.323, 7.886e-6
-1.324, 7.985e-6
-1.325, 8.299e-6
-1.326, 8.807e-6
-1.327, 8.503e-6
-1.328, 8.256e-6
-1.329, 8.342e-6
-1.330, 8.526e-6
-1.331, 8.734e-6
-1.332, 8.762e-6
-1.333, 8.895e-6
-1.334, 9.015e-6
-1.335, 9.176e-6
-1.336, 9.302e-6
-1.337, 9.587e-6
-1.338, 1.047e-5
-1.339, 1.023e-5
-1.340, 1.008e-5
-1.341, 9.880e-6
-1.342, 1.002e-5
-1.343, 1.019e-5
-1.344, 1.036e-5
-1.345, 1.058e-5
-1.346, 1.075e-5
-1.347, 1.084e-5
-1.348, 1.129e-5
-1.349, 1.155e-5
-1.350, 1.176e-5
-1.351, 1.191e-5
-1.352, 1.220e-5
-1.353, 1.239e-5
-1.354, 1.268e-5
-1.355, 1.249e-5
-1.356, 1.259e-5
-1.357, 1.292e-5
-1.358, 1.308e-5
-1.359, 1.325e-5
-1.360, 1.342e-5
-1.361, 1.368e-5
-1.362, 1.392e-5
-1.363, 1.424e-5
-1.364, 1.454e-5
-1.365, 1.480e-5
-1.366, 1.504e-5
-1.367, 1.529e-5
-1.368, 1.558e-5
-1.369, 1.628e-5
-1.370, 1.670e-5
-1.371, 1.626e-5
-1.372, 1.659e-5
-1.373, 1.690e-5
-1.374, 1.740e-5
-1.375, 1.790e-5
-1.376, 1.786e-5
-1.377, 1.811e-5
-1.378, 1.844e-5
-1.379, 1.875e-5
-1.380, 1.920e-5
-1.381, 1.956e-5
-1.382, 1.999e-5
-1.383, 2.041e-5
-1.384, 2.069e-5
-1.385, 2.107e-5
-1.386, 2.291e-5
-1.387, 2.202e-5
-1.388, 2.236e-5
-1.389, 2.254e-5
-1.390, 2.302e-5
-1.391, 2.346e-5
-1.392, 2.387e-5
-1.393, 2.436e-5
-1.394, 2.560e-5
-1.395, 2.652e-5
-1.396, 2.620e-5
-1.397, 2.683e-5
-1.398, 2.693e-5
-1.399, 2.733e-5
-1.400, 2.793e-5
-1.401, 2.906e-5
-1.402, 3.009e-5
-1.403, 3.015e-5
-1.404, 3.064e-5
-1.405, 3.119e-5
-1.406, 3.168e-5
-1.407, 3.225e-5
-1.408, 3.284e-5
-1.409, 3.351e-5
-1.410, 3.422e-5
-1.411, 3.533e-5
-1.412, 3.612e-5
-1.413, 3.735e-5
-1.414, 3.797e-5
-1.415, 3.860e-5
-1.416, 3.864e-5
-1.417, 3.924e-5
-1.418, 4.044e-5
-1.419, 4.094e-5
-1.420, 4.175e-5
-1.421, 4.262e-5
-1.422, 4.346e-5
-1.423, 4.444e-5
-1.424, 4.536e-5
-1.425, 4.625e-5
-1.426, 4.705e-5
-1.427, 4.813e-5
-1.428, 4.929e-5
-1.429, 5.217e-5
-1.430, 5.220e-5
-1.431, 5.276e-5
-1.432, 5.355e-5
-1.433, 5.473e-5
-1.434, 5.573e-5
-1.435, 5.698e-5
-1.436, 5.822e-5
-1.437, 5.961e-5
-1.438, 6.087e-5
-1.439, 6.223e-5
-1.440, 6.355e-5
-1.441, 6.483e-5
-1.442, 6.619e-5
-1.443, 6.764e-5
-1.444, 7.008e-5
-1.445, 7.145e-5
-1.446, 7.311e-5
-1.447, 7.480e-5
-1.448, 7.536e-5
-1.449, 7.649e-5
-1.450, 7.847e-5
-1.451, 8.043e-5
-1.452, 8.203e-5
-1.453, 8.380e-5
-1.454, 8.545e-5
-1.455, 8.740e-5
-1.456, 8.933e-5
-1.457, 9.119e-5
-1.458, 9.397e-5
-1.459, 9.586e-5
-1.460, 9.786e-5
-1.461, 9.941e-5
-1.462, 1.021e-4
-1.463, 1.031e-4
-1.464, 1.053e-4
-1.465, 1.077e-4
-1.466, 1.098e-4
-1.467, 1.122e-4
-1.468, 1.149e-4
-1.469, 1.174e-4
-1.470, 1.200e-4
-1.471, 1.223e-4
-1.472, 1.258e-4
-1.473, 1.272e-4
-1.474, 1.298e-4
-1.475, 1.328e-4
-1.476, 1.365e-4
-1.477, 1.395e-4
-1.478, 1.426e-4
-1.479, 1.455e-4
-1.480, 1.483e-4
-1.481, 1.515e-4
-1.482, 1.557e-4
-1.483, 1.587e-4
-1.484, 1.617e-4
-1.485, 1.629e-4
-1.486, 1.653e-4
-1.487, 1.689e-4
-1.488, 1.727e-4
-1.489, 1.767e-4
-1.490, 1.808e-4
-1.491, 1.845e-4
-1.492, 1.889e-4
-1.493, 1.927e-4
-1.494, 1.956e-4
-1.495, 2.010e-4
-1.496, 2.037e-4
-1.497, 2.085e-4
-1.498, 2.124e-4
-1.499, 2.149e-4
-1.500, 2.188e-4
-1.501, 2.235e-4
-1.502, 2.291e-4
-1.503, 2.348e-4
-1.504, 2.393e-4
-1.505, 2.434e-4
-1.506, 2.474e-4
-1.507, 2.531e-4
-1.508, 2.579e-4
-1.509, 2.629e-4
-1.510, 2.682e-4
-1.511, 2.735e-4
-1.512, 2.770e-4
-1.513, 2.815e-4
-1.514, 2.871e-4
-1.515, 2.941e-4
-1.516, 2.992e-4
-1.517, 3.071e-4
-1.518, 3.118e-4
-1.519, 3.151e-4
-1.520, 3.192e-4
-1.521, 3.244e-4
-1.522, 3.304e-4
-1.523, 3.377e-4
-1.524, 3.463e-4
-1.525, 3.521e-4
-1.526, 3.568e-4
-1.527, 3.623e-4
-1.528, 3.684e-4
-1.529, 3.776e-4
-1.530, 3.857e-4
-1.531, 3.915e-4
-1.532, 3.937e-4
-1.533, 3.992e-4
-1.534, 4.078e-4
-1.535, 4.113e-4
-1.536, 4.217e-4
-1.537, 4.314e-4
-1.538, 4.396e-4
-1.539, 4.424e-4
-1.540, 4.445e-4
-1.541, 4.515e-4
-1.542, 4.680e-4
-1.543, 4.762e-4
-1.544, 4.826e-4
-1.545, 4.896e-4
-1.546, 5.006e-4
-1.547, 5.091e-4
-1.548, 5.153e-4
-1.549, 5.263e-4
-1.550, 5.369e-4
-1.551, 5.427e-4
-1.552, 5.477e-4
-1.553, 5.579e-4
-1.554, 5.629e-4
-1.555, 5.690e-4
-1.556, 5.804e-4
-1.557, 5.928e-4
-1.558, 6.045e-4
-1.559, 6.119e-4
-1.560, 6.207e-4
-1.561, 6.278e-4
-1.562, 6.363e-4
-1.563, 6.446e-4
-1.564, 6.481e-4
-1.565, 6.514e-4
-1.566, 6.619e-4
-1.567, 6.784e-4
-1.568, 6.872e-4
-1.569, 6.946e-4
-1.570, 7.030e-4
-1.571, 7.109e-4
-1.572, 7.198e-4
-1.573, 7.329e-4
-1.574, 7.421e-4
-1.575, 7.560e-4
-1.576, 7.658e-4
-1.577, 7.726e-4
-1.578, 7.804e-4
-1.579, 7.811e-4
-1.580, 7.938e-4
-1.581, 7.984e-4
-1.582, 8.102e-4
-1.583, 8.122e-4
-1.584, 8.216e-4
-1.585, 8.484e-4
-1.586, 8.756e-4
-1.587, 9.061e-4
-1.588, 9.181e-4
-1.589, 9.202e-4
-1.590, 9.198e-4
-1.591, 9.309e-4
-1.592, 9.429e-4
-1.593, 9.561e-4
-1.594, 9.658e-4
-1.595, 9.691e-4
-1.596, 9.743e-4
-1.597, 9.853e-4
-1.598, 1.002e-3
-1.599, 1.023e-3
-1.600, 1.036e-3
-1.601, 1.042e-3
-1.602, 1.051e-3
-1.603, 1.057e-3
-1.604, 1.070e-3
-1.605, 1.084e-3
-1.606, 1.096e-3
-1.607, 1.110e-3
-1.608, 1.125e-3
-1.609, 1.133e-3
-1.610, 1.144e-3
-1.611, 1.152e-3
-1.612, 1.163e-3
-1.613, 1.170e-3
-1.614, 1.167e-3
-1.615, 1.182e-3
-1.616, 1.198e-3
-1.617, 1.218e-3
-1.618, 1.235e-3
-1.619, 1.270e-3
-1.620, 1.282e-3
-1.621, 1.297e-3
-1.622, 1.309e-3
-1.623, 1.321e-3
-1.624, 1.338e-3
-1.625, 1.350e-3
-1.626, 1.351e-3
-1.627, 1.353e-3
-1.628, 1.351e-3
-1.629, 1.387e-3
-1.630, 1.412e-3
-1.631, 1.449e-3
-1.632, 1.470e-3
-1.633, 1.491e-3
-1.634, 1.505e-3
-1.635, 1.519e-3
-1.636, 1.539e-3
-1.637, 1.554e-3
-1.638, 1.570e-3
-1.639, 1.586e-3
-1.640, 1.614e-3
-1.641, 1.619e-3
-1.642, 1.619e-3
-1.643, 1.237e-3
-1.644, 1.621e-3
-1.645, 1.633e-3
-1.646, 1.624e-3
-1.647, 1.671e-3
-1.648, 1.735e-3
-1.649, 1.779e-3
-1.650, 1.816e-3
-1.651, 1.827e-3
-1.652, 1.829e-3
-1.653, 1.844e-3
-1.654, 1.845e-3
-1.655, 1.815e-3
-1.656, 1.777e-3
-1.657, 1.288e-3
-1.658, 5.395e-4
-1.659, 1.908e-3
-1.660, 1.906e-3
-1.661, 1.909e-3
-1.662, 1.928e-3
-1.663, 1.950e-3
-1.664, 1.991e-3
-1.665, 2.037e-3
-1.666, 2.043e-3
-1.667, 2.031e-3
-1.668, 2.066e-3
-1.669, 2.096e-3
-1.670, 2.130e-3
-1.671, 2.129e-3
-1.672, 1.900e-3
-1.673, 6.969e-4
-1.674, 2.948e-4
-1.675, 2.111e-3
-1.676, 2.270e-3
-1.677, 2.280e-3
-1.678, 2.291e-3
-1.679, 2.289e-3
-1.680, 2.346e-3
-1.681, 2.497e-3
-1.682, 2.621e-3
-1.683, 2.558e-3
-1.684, 2.451e-3
-1.685, 2.483e-3
-1.686, 2.506e-3
-1.687, 2.523e-3
-1.688, 2.566e-3
-1.689, 2.478e-3
-1.690, 2.341e-3
-1.691, 2.527e-3
-1.692, 2.585e-3
-1.693, 2.609e-3
-1.694, 2.623e-3
-1.695, 2.684e-3
-1.696, 2.716e-3
-1.697, 2.735e-3
-1.698, 2.758e-3
-1.699, 2.746e-3
-1.700, 2.760e-3
-1.699, 2.782e-3
-1.698, 2.761e-3
-1.697, 2.725e-3
-1.696, 2.678e-3
-1.695, 2.605e-3
-1.694, 2.612e-3
-1.693, 2.577e-3
-1.692, 2.587e-3
-1.691, 2.579e-3
-1.690, 2.553e-3
-1.689, 2.523e-3
-1.688, 2.500e-3
-1.687, 2.449e-3
-1.686, 2.421e-3
-1.685, 2.421e-3
-1.684, 2.434e-3
-1.683, 2.448e-3
-1.682, 2.422e-3
-1.681, 2.374e-3
-1.680, 2.318e-3
-1.679, 2.271e-3
-1.678, 2.244e-3
-1.677, 2.243e-3
-1.676, 2.243e-3
-1.675, 2.287e-3
-1.674, 2.275e-3
-1.673, 2.197e-3
-1.672, 2.136e-3
-1.671, 2.140e-3
-1.670, 2.134e-3
-1.669, 2.114e-3
-1.668, 2.094e-3
-1.667, 2.088e-3
-1.666, 2.110e-3
-1.665, 2.086e-3
-1.664, 2.060e-3
-1.663, 2.027e-3
-1.662, 1.997e-3
-1.661, 1.986e-3
-1.660, 1.983e-3
-1.659, 1.954e-3
-1.658, 1.900e-3
-1.657, 1.874e-3
-1.656, 1.864e-3
-1.655, 1.873e-3
-1.654, 1.852e-3
-1.653, 1.847e-3
-1.652, 1.807e-3
-1.651, 1.778e-3
-1.650, 1.751e-3
-1.649, 1.736e-3
-1.648, 1.733e-3
-1.647, 1.726e-3
-1.646, 1.726e-3
-1.645, 1.708e-3
-1.644, 1.667e-3
-1.643, 1.636e-3
-1.642, 1.613e-3
-1.641, 1.596e-3
-1.640, 1.588e-3
-1.639, 1.564e-3
-1.638, 1.513e-3
-1.637, 1.479e-3
-1.636, 1.462e-3
-1.635, 1.466e-3
-1.634, 1.458e-3
-1.633, 1.455e-3
-1.632, 1.452e-3
-1.631, 1.419e-3
-1.630, 1.383e-3
-1.629, 1.362e-3
-1.628, 1.342e-3
-1.627, 1.330e-3
-1.626, 1.322e-3
-1.625, 1.309e-3
-1.624, 1.292e-3
-1.623, 1.284e-3
-1.622, 1.271e-3
-1.621, 1.258e-3
-1.620, 1.247e-3
-1.619, 1.221e-3
-1.618, 1.198e-3
-1.617, 1.177e-3
-1.616, 1.171e-3
-1.615, 1.168e-3
-1.614, 1.145e-3
-1.613, 1.110e-3
-1.612, 1.103e-3
-1.611, 1.092e-3
-1.610, 1.088e-3
-1.609, 1.058e-3
-1.608, 1.055e-3
-1.607, 1.060e-3
-1.606, 1.051e-3
-1.605, 1.044e-3
-1.604, 1.038e-3
-1.603, 9.969e-4
-1.602, 9.750e-4
-1.601, 9.576e-4
-1.600, 9.509e-4
-1.599, 9.455e-4
-1.598, 9.364e-4
-1.597, 9.139e-4
-1.596, 8.888e-4
-1.595, 8.708e-4
-1.594, 8.692e-4
-1.593, 8.465e-4
-1.592, 8.504e-4
-1.591, 8.416e-4
-1.590, 8.287e-4
-1.589, 7.967e-4
-1.588, 7.961e-4
-1.587, 7.911e-4
-1.586, 7.927e-4
-1.585, 7.841e-4
-1.584, 7.606e-4
-1.583, 7.376e-4
-1.582, 7.260e-4
-1.581, 7.152e-4
-1.580, 7.105e-4
-1.579, 7.046e-4
-1.578, 6.932e-4
-1.577, 6.853e-4
-1.576, 6.702e-4
-1.575, 6.558e-4
-1.574, 6.427e-4
-1.573, 6.370e-4
-1.572, 6.237e-4
-1.571, 6.091e-4
-1.570, 5.977e-4
-1.569, 5.861e-4
-1.568, 5.793e-4
-1.567, 5.747e-4
-1.566, 5.714e-4
-1.565, 5.594e-4
-1.564, 5.499e-4
-1.563, 5.374e-4
-1.562, 5.260e-4
-1.561, 5.174e-4
-1.560, 5.112e-4
-1.559, 5.041e-4
-1.558, 4.951e-4
-1.557, 4.799e-4
-1.556, 4.665e-4
-1.555, 4.610e-4
-1.554, 4.580e-4
-1.553, 4.503e-4
-1.552, 4.431e-4
-1.551, 4.357e-4
-1.550, 4.269e-4
-1.549, 4.164e-4
-1.548, 4.052e-4
-1.547, 3.965e-4
-1.546, 3.903e-4
-1.545, 3.856e-4
-1.544, 3.806e-4
-1.543, 3.748e-4
-1.542, 3.689e-4
-1.541, 3.618e-4
-1.540, 3.549e-4
-1.539, 3.485e-4
-1.538, 3.420e-4
-1.537, 3.364e-4
-1.536, 3.306e-4
-1.535, 3.249e-4
-1.534, 3.187e-4
-1.533, 3.118e-4
-1.532, 3.062e-4
-1.531, 3.008e-4
-1.530, 2.948e-4
-1.529, 2.879e-4
-1.528, 2.816e-4
-1.527, 2.743e-4
-1.526, 2.673e-4
-1.525, 2.617e-4
-1.524, 2.598e-4
-1.523, 2.585e-4
-1.522, 2.541e-4
-1.521, 2.474e-4
-1.520, 2.394e-4
-1.519, 2.332e-4
-1.518, 2.293e-4
-1.517, 2.263e-4
-1.516, 2.234e-4
-1.515, 2.207e-4
-1.514, 2.164e-4
-1.513, 2.118e-4
-1.512, 2.063e-4
-1.511, 2.017e-4
-1.510, 1.976e-4
-1.509, 1.940e-4
-1.508, 1.906e-4
-1.507, 1.869e-4
-1.506, 1.827e-4
-1.505, 1.787e-4
-1.504, 1.750e-4
-1.503, 1.713e-4
-1.502, 1.676e-4
-1.501, 1.639e-4
-1.500, 1.587e-4
-1.499, 1.566e-4
-1.498, 1.541e-4
-1.497, 1.514e-4
-1.496, 1.488e-4
-1.495, 1.453e-4
-1.494, 1.420e-4
-1.493, 1.383e-4
-1.492, 1.350e-4
-1.491, 1.320e-4
-1.490, 1.296e-4
-1.489, 1.274e-4
-1.488, 1.245e-4
-1.487, 1.219e-4
-1.486, 1.196e-4
-1.485, 1.170e-4
-1.484, 1.146e-4
-1.483, 1.115e-4
-1.482, 1.091e-4
-1.481, 1.077e-4
-1.480, 1.054e-4
-1.479, 1.032e-4
-1.478, 1.009e-4
-1.477, 9.858e-5
-1.476, 9.623e-5
-1.475, 9.397e-5
-1.474, 9.216e-5
-1.473, 9.044e-5
-1.472, 8.860e-5
-1.471, 8.677e-5
-1.470, 8.461e-5
-1.469, 8.285e-5
-1.468, 8.121e-5
-1.467, 7.959e-5
-1.466, 7.785e-5
-1.465, 7.584e-5
-1.464, 7.431e-5
-1.463, 7.247e-5
-1.462, 7.080e-5
-1.461, 6.931e-5
-1.460, 6.793e-5
-1.459, 6.659e-5
-1.458, 6.525e-5
-1.457, 6.379e-5
-1.456, 6.240e-5
-1.455, 6.096e-5
-1.454, 5.965e-5
-1.453, 5.843e-5
-1.452, 5.720e-5
-1.451, 5.596e-5
-1.450, 5.473e-5
-1.449, 5.353e-5
-1.448, 5.238e-5
-1.447, 5.131e-5
-1.446, 5.006e-5
-1.445, 4.890e-5
-1.444, 4.791e-5
-1.443, 4.685e-5
-1.442, 4.589e-5
-1.441, 4.481e-5
-1.440, 4.388e-5
-1.439, 4.294e-5
-1.438, 4.214e-5
-1.437, 4.112e-5
-1.436, 4.013e-5
-1.435, 3.928e-5
-1.434, 3.839e-5
-1.433, 3.753e-5
-1.432, 3.676e-5
-1.431, 3.597e-5
-1.430, 3.515e-5
-1.429, 3.438e-5
-1.428, 3.362e-5
-1.427, 3.303e-5
-1.426, 3.223e-5
-1.425, 3.155e-5
-1.424, 3.093e-5
-1.423, 3.024e-5
-1.422, 2.948e-5
-1.421, 2.886e-5
-1.420, 2.827e-5
-1.419, 2.765e-5
-1.418, 2.704e-5
-1.417, 2.635e-5
-1.416, 2.577e-5
-1.415, 2.520e-5
-1.414, 2.464e-5
-1.413, 2.418e-5
-1.412, 2.372e-5
-1.411, 2.306e-5
-1.410, 2.261e-5
-1.409, 2.207e-5
-1.408, 2.162e-5
-1.407, 2.116e-5
-1.406, 2.066e-5
-1.405, 2.020e-5
-1.404, 1.975e-5
-1.403, 1.928e-5
-1.402, 1.890e-5
-1.401, 1.848e-5
-1.400, 1.807e-5
-1.399, 1.767e-5
-1.398, 1.724e-5
-1.397, 1.690e-5
-1.396, 1.646e-5
-1.395, 1.615e-5
-1.394, 1.574e-5
-1.393, 1.548e-5
-1.392, 1.514e-5
-1.391, 1.476e-5
-1.390, 1.443e-5
-1.389, 1.412e-5
-1.388, 1.383e-5
-1.387, 1.352e-5
-1.386, 1.317e-5
-1.385, 1.291e-5
-1.384, 1.263e-5
-1.383, 1.228e-5
-1.382, 1.200e-5
-1.381, 1.171e-5
-1.380, 1.145e-5
-1.379, 1.122e-5
-1.378, 1.096e-5
-1.377, 1.073e-5
-1.376, 1.046e-5
-1.375, 1.028e-5
-1.374, 9.973e-6
-1.373, 9.789e-6
-1.372, 9.609e-6
-1.371, 9.375e-6
-1.370, 9.160e-6
-1.369, 8.933e-6
-1.368, 8.745e-6
-1.367, 8.531e-6
-1.366, 8.329e-6
-1.365, 8.163e-6
-1.364, 7.929e-6
-1.363, 7.723e-6
-1.362, 7.561e-6
-1.361, 7.403e-6
-1.360, 7.221e-6
-1.359, 7.087e-6
-1.358, 6.913e-6
-1.357, 6.713e-6
-1.356, 6.546e-6
-1.355, 6.395e-6
-1.354, 6.239e-6
-1.353, 6.066e-6
-1.352, 5.888e-6
-1.351, 5.746e-6
-1.350, 5.583e-6
-1.349, 5.442e-6
-1.348, 5.340e-6
-1.347, 5.145e-6
-1.346, 5.016e-6
-1.345, 4.891e-6
-1.344, 4.772e-6
-1.343, 4.636e-6
-1.342, 4.535e-6
-1.341, 4.400e-6
-1.340, 4.261e-6
-1.339, 4.147e-6
-1.338, 4.069e-6
-1.337, 3.927e-6
-1.336, 3.835e-6
-1.335, 3.744e-6
-1.334, 3.613e-6
-1.333, 3.508e-6
-1.332, 3.445e-6
-1.331, 3.289e-6
-1.330, 3.222e-6
-1.329, 3.122e-6
-1.328, 3.048e-6
-1.327, 2.927e-6
-1.326, 2.851e-6
-1.325, 2.775e-6
-1.324, 2.686e-6
-1.323, 2.580e-6
-1.322, 2.502e-6
-1.321, 2.383e-6
-1.320, 2.336e-6
-1.319, 2.241e-6
-1.318, 2.146e-6
-1.317, 2.100e-6
-1.316, 1.992e-6
-1.315, 1.902e-6
-1.314, 1.831e-6
-1.313, 1.787e-6
-1.312, 1.692e-6
-1.311, 1.644e-6
-1.310, 1.552e-6
-1.309, 1.500e-6
-1.308, 1.425e-6
-1.307, 1.354e-6
-1.306, 1.258e-6
-1.305, 1.207e-6
-1.304, 1.177e-6
-1.303, 1.131e-6
-1.302, 1.051e-6
-1.301, 9.785e-7
-1.300, 8.887e-7
-1.299, 8.601e-7
-1.298, 8.049e-7
-1.297, 7.624e-7
-1.296, 6.983e-7
-1.295, 6.539e-7
-1.294, 5.789e-7
-1.293, 5.148e-7
-1.292, 4.734e-7
-1.291, 4.260e-7
-1.290, 3.570e-7
-1.289, 3.175e-7
-1.288, 2.928e-7
-1.287, 2.553e-7
-1.286, 1.547e-7
-1.285, 1.508e-7
-1.284, 1.123e-7
-1.283, 3.828e-8
-1.282, 4.736e-9
-1.281, -1.598e-8
-1.280, -1.245e-7
-1.279, -1.354e-7
-1.278, -1.886e-7
-1.277, -2.380e-7
-1.276, -2.607e-7
-1.275, -2.843e-7
-1.274, -3.425e-7
-1.273, -4.096e-7
-1.272, -4.106e-7
-1.271, -4.698e-7
-1.270, -5.103e-7
-1.269, -5.468e-7
-1.268, -5.576e-7
-1.267, -6.287e-7
-1.266, -6.435e-7
-1.265, -7.115e-7
-1.264, -7.253e-7
-1.263, -7.589e-7
-1.262, -8.260e-7
-1.261, -8.546e-7
-1.260, -8.871e-7
-1.259, -8.950e-7
-1.258, -9.197e-7
-1.257, -9.848e-7
-1.256, -9.967e-7
-1.255, -1.023e-6
-1.254, -1.071e-6
-1.253, -1.102e-6
-1.252, -1.096e-6
-1.251, -1.150e-6
-1.250, -1.185e-6
-1.249, -1.240e-6
-1.248, -1.246e-6
-1.247, -1.266e-6
-1.246, -1.313e-6
-1.245, -1.361e-6
-1.244, -1.366e-6
-1.243, -1.376e-6
-1.242, -1.368e-6
-1.241, -1.496e-6
-1.240, -1.452e-6
-1.239, -1.510e-6
-1.238, -1.559e-6
-1.237, -1.520e-6
-1.236, -1.551e-6
-1.235, -1.603e-6
-1.234, -1.602e-6
-1.233, -1.631e-6
-1.232, -1.644e-6
-1.231, -1.690e-6
-1.230, -1.721e-6
-1.229, -1.786e-6
-1.228, -1.797e-6
-1.227, -5.103e-7
-1.226, -1.819e-6
-1.225, -1.884e-6
-1.224, -1.870e-6
-1.223, -1.903e-6
-1.222, -1.922e-6
-1.221, -1.953e-6
-1.220, -1.955e-6
-1.219, -1.996e-6
-1.218, -2.020e-6
-1.217, -2.046e-6
-1.216, -2.061e-6
-1.215, -2.064e-6
-1.214, -2.116e-6
-1.213, -2.115e-6
-1.212, -2.112e-6
-1.211, -2.207e-6
-1.210, -2.220e-6
-1.209, -2.240e-6
-1.208, -2.234e-6
-1.207, -2.217e-6
-1.206, -2.255e-6
-1.205, -2.300e-6
-1.204, -2.343e-6
-1.203, -2.377e-6
-1.202, -2.374e-6
-1.201, -2.408e-6
-1.200, -2.417e-6
-1.199, -2.459e-6
-1.198, -2.438e-6
-1.197, -2.423e-6
-1.196, -2.468e-6
-1.195, -2.514e-6
-1.194, -2.533e-6
-1.193, -2.544e-6
-1.192, -2.544e-6
-1.191, -2.588e-6
-1.190, -2.638e-6
-1.189, -2.636e-6
-1.188, -2.642e-6
-1.187, -2.681e-6
-1.186, -2.725e-6
-1.185, -2.709e-6
-1.184, -2.735e-6
-1.183, -2.749e-6
-1.182, -2.772e-6
-1.181, -2.798e-6
-1.180, -2.822e-6
-1.179, -2.828e-6
-1.178, -2.856e-6
-1.177, -2.900e-6
-1.176, -2.947e-6
-1.175, -2.969e-6
-1.174, -2.982e-6
-1.173, -2.999e-6
-1.172, -2.982e-6
-1.171, -3.032e-6
-1.170, -3.025e-6
-1.169, -3.046e-6
-1.168, -3.087e-6
-1.167, -3.105e-6
-1.166, -3.110e-6
-1.165, -3.146e-6
-1.164, -3.163e-6
-1.163, -3.185e-6
-1.162, -3.178e-6
-1.161, -3.205e-6
-1.160, -3.251e-6
-1.159, -3.283e-6
-1.158, -3.318e-6
-1.157, -3.345e-6
-1.156, -3.341e-6
-1.155, -3.344e-6
-1.154, -3.386e-6
-1.153, -3.394e-6
-1.152, -3.408e-6
-1.151, -3.450e-6
-1.150, -3.469e-6
-1.149, -3.494e-6
-1.148, -3.523e-6
-1.147, -3.528e-6
-1.146, -3.534e-6
-1.145, -3.574e-6
-1.144, -3.573e-6
-1.143, -3.591e-6
-1.142, -3.630e-6
-1.141, -3.645e-6
-1.140, -3.666e-6
-1.139, -3.727e-6
-1.138, -3.724e-6
-1.137, -3.747e-6
-1.136, -3.739e-6
-1.135, -3.785e-6
-1.134, -3.825e-6
-1.133, -3.826e-6
-1.132, -3.867e-6
-1.131, -3.899e-6
-1.130, -3.937e-6
-1.129, -3.979e-6
-1.128, -3.967e-6
-1.127, -4.017e-6
-1.126, -4.049e-6
-1.125, -4.078e-6
-1.124, -4.105e-6
-1.123, -4.098e-6
-1.122, -4.163e-6
-1.121, -4.204e-6
-1.120, -4.222e-6
-1.119, -4.212e-6
-1.118, -4.211e-6
-1.117, -4.264e-6
-1.116, -4.310e-6
-1.115, -4.376e-6
-1.114, -4.387e-6
-1.113, -4.399e-6
-1.112, -4.451e-6
-1.111, -4.462e-6
-1.110, -4.507e-6
-1.109, -4.515e-6
-1.108, -4.550e-6
-1.107, -4.585e-6
-1.106, -4.604e-6
-1.105, -4.654e-6
-1.104, -4.713e-6
-1.103, -4.696e-6
-1.102, -4.777e-6
-1.101, -4.784e-6
-1.100, -4.849e-6
-1.099, -4.871e-6
-1.098, -4.850e-6
-1.097, -4.908e-6
-1.096, -4.955e-6
-1.095, -5.034e-6
-1.094, -5.084e-6
-1.093, -5.075e-6
-1.092, -5.126e-6
-1.091, -5.208e-6
-1.090, -5.166e-6
-1.089, -5.258e-6
-1.088, -5.270e-6
-1.087, -5.340e-6
-1.086, -5.414e-6
-1.085, -5.474e-6
-1.084, -5.501e-6
-1.083, -5.517e-6
-1.082, -5.581e-6
-1.081, -5.613e-6
-1.080, -5.593e-6
-1.079, -5.639e-6
-1.078, -5.656e-6
-1.077, -5.695e-6
-1.076, -5.766e-6
-1.075, -5.873e-6
-1.074, -5.882e-6
-1.073, -5.917e-6
-1.072, -5.989e-6
-1.071, -6.016e-6
-1.070, -6.079e-6
-1.069, -6.128e-6
-1.068, -6.170e-6
-1.067, -6.294e-6
-1.066, -6.321e-6
-1.065, -6.441e-6
-1.064, -6.399e-6
-1.063, -6.430e-6
-1.062, -6.549e-6
-1.061, -6.570e-6
-1.060, -6.649e-6
-1.059, -6.671e-6
-1.058, -6.721e-6
-1.057, -6.782e-6
-1.056, -6.852e-6
-1.055, -6.918e-6
-1.054, -6.968e-6
-1.053, -6.990e-6
-1.052, -7.113e-6
-1.051, -7.199e-6
-1.050, -7.250e-6
-1.049, -7.371e-6
-1.048, -7.448e-6
-1.047, -7.532e-6
-1.046, -7.593e-6
-1.045, -7.711e-6
-1.044, -7.772e-6
-1.043, -7.844e-6
-1.042, -7.939e-6
-1.041, -8.044e-6
-1.040, -8.064e-6
-1.039, -8.161e-6
-1.038, -8.231e-6
-1.037, -8.350e-6
-1.036, -8.408e-6
-1.035, -8.540e-6
-1.034, -8.617e-6
-1.033, -8.730e-6
-1.032, -8.767e-6
-1.031, -8.884e-6
-1.030, -9.023e-6
-1.029, -9.080e-6
-1.028, -9.157e-6
-1.027, -9.256e-6
-1.026, -9.351e-6
-1.025, -9.504e-6
-1.024, -9.589e-6
-1.023, -9.719e-6
-1.022, -9.835e-6
-1.021, -9.886e-6
-1.020, -1.006e-5
-1.019, -1.011e-5
-1.018, -1.022e-5
-1.017, -1.041e-5
-1.016, -1.057e-5
-1.015, -1.074e-5
-1.014, -1.087e-5
-1.013, -1.092e-5
-1.012, -1.103e-5
-1.011, -1.114e-5
-1.010, -1.131e-5
-1.009, -1.145e-5
-1.008, -1.162e-5
-1.007, -1.177e-5
-1.006, -1.197e-5
-1.005, -1.213e-5
-1.004, -1.225e-5
-1.003, -1.237e-5
-1.002, -1.247e-5
-1.001, -1.267e-5
