Sept. 7, 2024   09:22:10
Cyclic Voltammetry
File: c:/users/guazh/data/20240903_batch_252_500/2024-09-03-exp287\exp287-2024-09-07t09_09_43-arkoh\exp287_cv_50mvs_efin_-1600mv.bin
Data Source:  Experiment
Instrument Model:  CHI760E
Header: CV ran at 50 mVs
Note: 

Init E (V) = -1
High E (V) = -1
Low E (V) = -1.6
Final E (V) = -1
Init P/N = N
Scan Rate (V/s) = 0.05
Segment = 7
Sample Interval (V) = 0.001
Quiet Time (sec) = 60
Sensitivity (A/V) = 0.001
Comp R (ohm) = 1.7

Results:

Channel 1:
Segment 1:

Segment 2:

Segment 3:

Segment 4:

Segment 5:

Segment 6:

Segment 7:

Potential/V, Current/A

-1.000, 1.241e-6
-1.001, 1.922e-6
-1.002, 2.123e-6
-1.003, 2.279e-6
-1.004, 2.435e-6
-1.005, 2.573e-6
-1.006, 2.681e-6
-1.007, 2.755e-6
-1.008, 2.838e-6
-1.009, 2.927e-6
-1.010, 3.031e-6
-1.011, 3.060e-6
-1.012, 3.090e-6
-1.013, 3.137e-6
-1.014, 3.175e-6
-1.015, 3.279e-6
-1.016, 3.298e-6
-1.017, 3.341e-6
-1.018, 3.392e-6
-1.019, 3.443e-6
-1.020, 3.508e-6
-1.021, 3.540e-6
-1.022, 3.516e-6
-1.023, 3.582e-6
-1.024, 3.612e-6
-1.025, 3.656e-6
-1.026, 3.682e-6
-1.027, 3.656e-6
-1.028, 3.763e-6
-1.029, 3.752e-6
-1.030, 3.788e-6
-1.031, 3.870e-6
-1.032, 3.799e-6
-1.033, 3.851e-6
-1.034, 3.919e-6
-1.035, 3.916e-6
-1.036, 3.983e-6
-1.037, 3.953e-6
-1.038, 4.004e-6
-1.039, 4.070e-6
-1.040, 4.027e-6
-1.041, 4.044e-6
-1.042, 4.082e-6
-1.043, 4.079e-6
-1.044, 4.125e-6
-1.045, 4.150e-6
-1.046, 4.182e-6
-1.047, 4.205e-6
-1.048, 4.184e-6
-1.049, 4.248e-6
-1.050, 4.286e-6
-1.051, 4.291e-6
-1.052, 4.247e-6
-1.053, 4.336e-6
-1.054, 4.323e-6
-1.055, 4.368e-6
-1.056, 4.372e-6
-1.057, 4.350e-6
-1.058, 4.373e-6
-1.059, 4.413e-6
-1.060, 4.411e-6
-1.061, 4.509e-6
-1.062, 4.477e-6
-1.063, 4.532e-6
-1.064, 4.504e-6
-1.065, 4.528e-6
-1.066, 4.560e-6
-1.067, 4.545e-6
-1.068, 4.541e-6
-1.069, 4.626e-6
-1.070, 4.593e-6
-1.071, 4.668e-6
-1.072, 4.683e-6
-1.073, 4.671e-6
-1.074, 4.771e-6
-1.075, 4.751e-6
-1.076, 4.788e-6
-1.077, 4.827e-6
-1.078, 4.808e-6
-1.079, 4.837e-6
-1.080, 4.784e-6
-1.081, 4.839e-6
-1.082, 4.812e-6
-1.083, 4.856e-6
-1.084, 4.875e-6
-1.085, 4.926e-6
-1.086, 4.924e-6
-1.087, 4.942e-6
-1.088, 4.914e-6
-1.089, 4.951e-6
-1.090, 4.967e-6
-1.091, 4.988e-6
-1.092, 5.010e-6
-1.093, 5.017e-6
-1.094, 5.023e-6
-1.095, 5.071e-6
-1.096, 5.094e-6
-1.097, 5.080e-6
-1.098, 5.126e-6
-1.099, 5.102e-6
-1.100, 5.125e-6
-1.101, 5.177e-6
-1.102, 5.126e-6
-1.103, 5.202e-6
-1.104, 5.207e-6
-1.105, 5.210e-6
-1.106, 5.226e-6
-1.107, 5.221e-6
-1.108, 5.235e-6
-1.109, 5.278e-6
-1.110, 5.271e-6
-1.111, 5.331e-6
-1.112, 5.267e-6
-1.113, 5.330e-6
-1.114, 5.377e-6
-1.115, 5.368e-6
-1.116, 5.441e-6
-1.117, 5.406e-6
-1.118, 5.456e-6
-1.119, 5.448e-6
-1.120, 5.487e-6
-1.121, 5.482e-6
-1.122, 5.470e-6
-1.123, 5.520e-6
-1.124, 5.516e-6
-1.125, 5.563e-6
-1.126, 5.577e-6
-1.127, 5.593e-6
-1.128, 5.607e-6
-1.129, 5.613e-6
-1.130, 5.665e-6
-1.131, 5.700e-6
-1.132, 5.663e-6
-1.133, 5.694e-6
-1.134, 5.676e-6
-1.135, 5.735e-6
-1.136, 5.780e-6
-1.137, 5.733e-6
-1.138, 5.738e-6
-1.139, 5.801e-6
-1.140, 5.803e-6
-1.141, 5.845e-6
-1.142, 5.792e-6
-1.143, 5.852e-6
-1.144, 5.868e-6
-1.145, 5.871e-6
-1.146, 5.933e-6
-1.147, 5.958e-6
-1.148, 5.897e-6
-1.149, 5.921e-6
-1.150, 5.979e-6
-1.151, 6.002e-6
-1.152, 5.983e-6
-1.153, 6.034e-6
-1.154, 6.047e-6
-1.155, 6.077e-6
-1.156, 6.105e-6
-1.157, 6.116e-6
-1.158, 6.122e-6
-1.159, 6.137e-6
-1.160, 6.168e-6
-1.161, 6.166e-6
-1.162, 6.184e-6
-1.163, 6.196e-6
-1.164, 6.201e-6
-1.165, 6.242e-6
-1.166, 6.267e-6
-1.167, 6.256e-6
-1.168, 6.296e-6
-1.169, 6.353e-6
-1.170, 6.386e-6
-1.171, 6.401e-6
-1.172, 6.400e-6
-1.173, 6.418e-6
-1.174, 6.412e-6
-1.175, 6.477e-6
-1.176, 6.455e-6
-1.177, 6.487e-6
-1.178, 6.550e-6
-1.179, 6.543e-6
-1.180, 6.570e-6
-1.181, 6.613e-6
-1.182, 6.580e-6
-1.183, 6.632e-6
-1.184, 6.640e-6
-1.185, 6.672e-6
-1.186, 6.704e-6
-1.187, 6.670e-6
-1.188, 6.717e-6
-1.189, 6.730e-6
-1.190, 6.783e-6
-1.191, 6.826e-6
-1.192, 6.788e-6
-1.193, 6.824e-6
-1.194, 6.899e-6
-1.195, 6.931e-6
-1.196, 6.968e-6
-1.197, 6.984e-6
-1.198, 7.014e-6
-1.199, 7.087e-6
-1.200, 7.052e-6
-1.201, 7.116e-6
-1.202, 7.143e-6
-1.203, 7.184e-6
-1.204, 7.151e-6
-1.205, 7.256e-6
-1.206, 7.252e-6
-1.207, 7.249e-6
-1.208, 7.289e-6
-1.209, 7.266e-6
-1.210, 7.339e-6
-1.211, 7.382e-6
-1.212, 7.467e-6
-1.213, 7.455e-6
-1.214, 7.472e-6
-1.215, 7.511e-6
-1.216, 7.545e-6
-1.217, 7.552e-6
-1.218, 7.644e-6
-1.219, 7.643e-6
-1.220, 7.650e-6
-1.221, 7.755e-6
-1.222, 7.696e-6
-1.223, 7.776e-6
-1.224, 7.815e-6
-1.225, 7.843e-6
-1.226, 7.948e-6
-1.227, 7.914e-6
-1.228, 7.961e-6
-1.229, 8.069e-6
-1.230, 8.044e-6
-1.231, 8.158e-6
-1.232, 8.090e-6
-1.233, 8.165e-6
-1.234, 8.286e-6
-1.235, 8.261e-6
-1.236, 8.342e-6
-1.237, 8.387e-6
-1.238, 8.439e-6
-1.239, 8.539e-6
-1.240, 8.546e-6
-1.241, 8.606e-6
-1.242, 8.662e-6
-1.243, 8.672e-6
-1.244, 8.827e-6
-1.245, 8.885e-6
-1.246, 8.974e-6
-1.247, 9.046e-6
-1.248, 9.071e-6
-1.249, 9.094e-6
-1.250, 9.249e-6
-1.251, 9.286e-6
-1.252, 9.316e-6
-1.253, 9.380e-6
-1.254, 9.470e-6
-1.255, 9.526e-6
-1.256, 9.618e-6
-1.257, 9.688e-6
-1.258, 9.786e-6
-1.259, 9.864e-6
-1.260, 9.908e-6
-1.261, 1.003e-5
-1.262, 1.009e-5
-1.263, 1.022e-5
-1.264, 1.029e-5
-1.265, 1.038e-5
-1.266, 1.052e-5
-1.267, 1.064e-5
-1.268, 1.072e-5
-1.269, 1.086e-5
-1.270, 1.096e-5
-1.271, 1.111e-5
-1.272, 1.120e-5
-1.273, 1.135e-5
-1.274, 1.151e-5
-1.275, 1.157e-5
-1.276, 1.176e-5
-1.277, 1.187e-5
-1.278, 1.206e-5
-1.279, 1.223e-5
-1.280, 1.240e-5
-1.281, 1.262e-5
-1.282, 1.289e-5
-1.283, 1.306e-5
-1.284, 1.312e-5
-1.285, 1.334e-5
-1.286, 1.352e-5
-1.287, 1.373e-5
-1.288, 1.391e-5
-1.289, 1.417e-5
-1.290, 1.435e-5
-1.291, 1.455e-5
-1.292, 1.477e-5
-1.293, 1.501e-5
-1.294, 1.522e-5
-1.295, 1.554e-5
-1.296, 1.573e-5
-1.297, 1.601e-5
-1.298, 1.627e-5
-1.299, 1.658e-5
-1.300, 1.684e-5
-1.301, 1.714e-5
-1.302, 1.747e-5
-1.303, 1.778e-5
-1.304, 1.809e-5
-1.305, 1.840e-5
-1.306, 1.870e-5
-1.307, 1.906e-5
-1.308, 1.935e-5
-1.309, 1.977e-5
-1.310, 2.008e-5
-1.311, 2.045e-5
-1.312, 2.085e-5
-1.313, 2.119e-5
-1.314, 2.167e-5
-1.315, 2.208e-5
-1.316, 2.246e-5
-1.317, 2.292e-5
-1.318, 2.331e-5
-1.319, 2.382e-5
-1.320, 2.427e-5
-1.321, 2.473e-5
-1.322, 2.522e-5
-1.323, 2.571e-5
-1.324, 2.621e-5
-1.325, 2.676e-5
-1.326, 2.727e-5
-1.327, 2.781e-5
-1.328, 2.829e-5
-1.329, 2.886e-5
-1.330, 2.948e-5
-1.331, 3.004e-5
-1.332, 3.066e-5
-1.333, 3.119e-5
-1.334, 3.184e-5
-1.335, 3.248e-5
-1.336, 3.311e-5
-1.337, 3.381e-5
-1.338, 3.444e-5
-1.339, 3.514e-5
-1.340, 3.589e-5
-1.341, 3.655e-5
-1.342, 3.727e-5
-1.343, 3.792e-5
-1.344, 3.870e-5
-1.345, 3.951e-5
-1.346, 4.023e-5
-1.347, 4.100e-5
-1.348, 4.179e-5
-1.349, 4.257e-5
-1.350, 4.342e-5
-1.351, 4.427e-5
-1.352, 4.512e-5
-1.353, 4.593e-5
-1.354, 4.686e-5
-1.355, 4.772e-5
-1.356, 4.866e-5
-1.357, 4.962e-5
-1.358, 5.052e-5
-1.359, 5.151e-5
-1.360, 5.243e-5
-1.361, 5.346e-5
-1.362, 5.446e-5
-1.363, 5.544e-5
-1.364, 5.644e-5
-1.365, 5.754e-5
-1.366, 5.856e-5
-1.367, 5.971e-5
-1.368, 6.067e-5
-1.369, 6.188e-5
-1.370, 6.305e-5
-1.371, 6.415e-5
-1.372, 6.537e-5
-1.373, 6.643e-5
-1.374, 6.758e-5
-1.375, 6.890e-5
-1.376, 7.000e-5
-1.377, 7.105e-5
-1.378, 7.241e-5
-1.379, 7.363e-5
-1.380, 7.498e-5
-1.381, 7.621e-5
-1.382, 7.753e-5
-1.383, 7.884e-5
-1.384, 8.022e-5
-1.385, 8.158e-5
-1.386, 8.285e-5
-1.387, 8.411e-5
-1.388, 8.549e-5
-1.389, 8.695e-5
-1.390, 8.847e-5
-1.391, 8.994e-5
-1.392, 9.145e-5
-1.393, 9.278e-5
-1.394, 9.434e-5
-1.395, 9.586e-5
-1.396, 9.744e-5
-1.397, 9.893e-5
-1.398, 1.005e-4
-1.399, 1.021e-4
-1.400, 1.037e-4
-1.401, 1.053e-4
-1.402, 1.071e-4
-1.403, 1.087e-4
-1.404, 1.104e-4
-1.405, 1.122e-4
-1.406, 1.138e-4
-1.407, 1.154e-4
-1.408, 1.171e-4
-1.409, 1.188e-4
-1.410, 1.206e-4
-1.411, 1.224e-4
-1.412, 1.241e-4
-1.413, 1.260e-4
-1.414, 1.278e-4
-1.415, 1.298e-4
-1.416, 1.317e-4
-1.417, 1.337e-4
-1.418, 1.355e-4
-1.419, 1.375e-4
-1.420, 1.394e-4
-1.421, 1.414e-4
-1.422, 1.436e-4
-1.423, 1.455e-4
-1.424, 1.476e-4
-1.425, 1.497e-4
-1.426, 1.517e-4
-1.427, 1.538e-4
-1.428, 1.559e-4
-1.429, 1.580e-4
-1.430, 1.603e-4
-1.431, 1.623e-4
-1.432, 1.647e-4
-1.433, 1.668e-4
-1.434, 1.690e-4
-1.435, 1.712e-4
-1.436, 1.734e-4
-1.437, 1.759e-4
-1.438, 1.783e-4
-1.439, 1.806e-4
-1.440, 1.830e-4
-1.441, 1.853e-4
-1.442, 1.878e-4
-1.443, 1.903e-4
-1.444, 1.929e-4
-1.445, 1.952e-4
-1.446, 1.977e-4
-1.447, 2.005e-4
-1.448, 2.026e-4
-1.449, 2.052e-4
-1.450, 2.079e-4
-1.451, 2.106e-4
-1.452, 2.133e-4
-1.453, 2.159e-4
-1.454, 2.184e-4
-1.455, 2.214e-4
-1.456, 2.242e-4
-1.457, 2.269e-4
-1.458, 2.300e-4
-1.459, 2.329e-4
-1.460, 2.357e-4
-1.461, 2.384e-4
-1.462, 2.411e-4
-1.463, 2.440e-4
-1.464, 2.469e-4
-1.465, 2.503e-4
-1.466, 2.532e-4
-1.467, 2.562e-4
-1.468, 2.593e-4
-1.469, 2.623e-4
-1.470, 2.657e-4
-1.471, 2.689e-4
-1.472, 2.723e-4
-1.473, 2.756e-4
-1.474, 2.789e-4
-1.475, 2.819e-4
-1.476, 2.850e-4
-1.477, 2.883e-4
-1.478, 2.917e-4
-1.479, 2.951e-4
-1.480, 2.989e-4
-1.481, 3.022e-4
-1.482, 3.056e-4
-1.483, 3.093e-4
-1.484, 3.129e-4
-1.485, 3.169e-4
-1.486, 3.207e-4
-1.487, 3.244e-4
-1.488, 3.280e-4
-1.489, 3.318e-4
-1.490, 3.349e-4
-1.491, 3.387e-4
-1.492, 3.423e-4
-1.493, 3.465e-4
-1.494, 3.506e-4
-1.495, 3.548e-4
-1.496, 3.588e-4
-1.497, 3.631e-4
-1.498, 3.673e-4
-1.499, 3.714e-4
-1.500, 3.759e-4
-1.501, 3.800e-4
-1.502, 3.842e-4
-1.503, 3.881e-4
-1.504, 3.921e-4
-1.505, 3.965e-4
-1.506, 4.014e-4
-1.507, 4.061e-4
-1.508, 4.107e-4
-1.509, 4.154e-4
-1.510, 4.202e-4
-1.511, 4.251e-4
-1.512, 4.298e-4
-1.513, 4.347e-4
-1.514, 4.393e-4
-1.515, 4.442e-4
-1.516, 4.486e-4
-1.517, 4.527e-4
-1.518, 4.576e-4
-1.519, 4.623e-4
-1.520, 4.680e-4
-1.521, 4.731e-4
-1.522, 4.781e-4
-1.523, 4.833e-4
-1.524, 4.890e-4
-1.525, 4.947e-4
-1.526, 5.001e-4
-1.527, 5.054e-4
-1.528, 5.110e-4
-1.529, 5.167e-4
-1.530, 5.215e-4
-1.531, 5.268e-4
-1.532, 5.323e-4
-1.533, 5.389e-4
-1.534, 5.454e-4
-1.535, 5.515e-4
-1.536, 5.574e-4
-1.537, 5.632e-4
-1.538, 5.694e-4
-1.539, 5.760e-4
-1.540, 5.838e-4
-1.541, 5.912e-4
-1.542, 5.980e-4
-1.543, 6.045e-4
-1.544, 6.090e-4
-1.545, 6.129e-4
-1.546, 6.223e-4
-1.547, 6.295e-4
-1.548, 6.370e-4
-1.549, 6.441e-4
-1.550, 6.512e-4
-1.551, 6.588e-4
-1.552, 6.663e-4
-1.553, 6.740e-4
-1.554, 6.834e-4
-1.555, 6.916e-4
-1.556, 7.001e-4
-1.557, 7.072e-4
-1.558, 7.142e-4
-1.559, 7.204e-4
-1.560, 7.287e-4
-1.561, 7.374e-4
-1.562, 7.479e-4
-1.563, 7.573e-4
-1.564, 7.665e-4
-1.565, 7.756e-4
-1.566, 7.844e-4
-1.567, 7.934e-4
-1.568, 8.037e-4
-1.569, 8.151e-4
-1.570, 8.252e-4
-1.571, 8.360e-4
-1.572, 8.461e-4
-1.573, 8.502e-4
-1.574, 8.607e-4
-1.575, 8.711e-4
-1.576, 8.838e-4
-1.577, 8.946e-4
-1.578, 9.058e-4
-1.579, 9.177e-4
-1.580, 9.297e-4
-1.581, 9.437e-4
-1.582, 9.538e-4
-1.583, 9.663e-4
-1.584, 9.790e-4
-1.585, 9.912e-4
-1.586, 9.989e-4
-1.587, 1.011e-3
-1.588, 1.024e-3
-1.589, 1.037e-3
-1.590, 1.053e-3
-1.591, 1.068e-3
-1.592, 1.082e-3
-1.593, 1.096e-3
-1.594, 1.112e-3
-1.595, 1.127e-3
-1.596, 1.142e-3
-1.597, 1.159e-3
-1.598, 1.175e-3
-1.599, 1.193e-3
-1.600, 1.179e-3
-1.599, 1.153e-3
-1.598, 1.141e-3
-1.597, 1.124e-3
-1.596, 1.109e-3
-1.595, 1.094e-3
-1.594, 1.078e-3
-1.593, 1.062e-3
-1.592, 1.046e-3
-1.591, 1.030e-3
-1.590, 1.014e-3
-1.589, 9.993e-4
-1.588, 9.840e-4
-1.587, 9.685e-4
-1.586, 9.516e-4
-1.585, 9.349e-4
-1.584, 9.201e-4
-1.583, 9.057e-4
-1.582, 8.933e-4
-1.581, 8.813e-4
-1.580, 8.677e-4
-1.579, 8.541e-4
-1.578, 8.404e-4
-1.577, 8.275e-4
-1.576, 8.151e-4
-1.575, 8.023e-4
-1.574, 7.895e-4
-1.573, 7.775e-4
-1.572, 7.645e-4
-1.571, 7.503e-4
-1.570, 7.391e-4
-1.569, 7.287e-4
-1.568, 7.180e-4
-1.567, 7.072e-4
-1.566, 6.957e-4
-1.565, 6.848e-4
-1.564, 6.739e-4
-1.563, 6.634e-4
-1.562, 6.521e-4
-1.561, 6.418e-4
-1.560, 6.315e-4
-1.559, 6.205e-4
-1.558, 6.104e-4
-1.557, 6.004e-4
-1.556, 5.918e-4
-1.555, 5.830e-4
-1.554, 5.736e-4
-1.553, 5.643e-4
-1.552, 5.558e-4
-1.551, 5.475e-4
-1.550, 5.388e-4
-1.549, 5.303e-4
-1.548, 5.222e-4
-1.547, 5.135e-4
-1.546, 5.041e-4
-1.545, 4.955e-4
-1.544, 4.876e-4
-1.543, 4.791e-4
-1.542, 4.721e-4
-1.541, 4.649e-4
-1.540, 4.573e-4
-1.539, 4.503e-4
-1.538, 4.434e-4
-1.537, 4.364e-4
-1.536, 4.289e-4
-1.535, 4.220e-4
-1.534, 4.159e-4
-1.533, 4.098e-4
-1.532, 4.022e-4
-1.531, 3.936e-4
-1.530, 3.874e-4
-1.529, 3.827e-4
-1.528, 3.768e-4
-1.527, 3.708e-4
-1.526, 3.649e-4
-1.525, 3.591e-4
-1.524, 3.533e-4
-1.523, 3.477e-4
-1.522, 3.418e-4
-1.521, 3.368e-4
-1.520, 3.313e-4
-1.519, 3.260e-4
-1.518, 3.206e-4
-1.517, 3.149e-4
-1.516, 3.096e-4
-1.515, 3.043e-4
-1.514, 2.996e-4
-1.513, 2.945e-4
-1.512, 2.897e-4
-1.511, 2.852e-4
-1.510, 2.807e-4
-1.509, 2.760e-4
-1.508, 2.714e-4
-1.507, 2.672e-4
-1.506, 2.628e-4
-1.505, 2.584e-4
-1.504, 2.536e-4
-1.503, 2.493e-4
-1.502, 2.451e-4
-1.501, 2.409e-4
-1.500, 2.370e-4
-1.499, 2.331e-4
-1.498, 2.291e-4
-1.497, 2.252e-4
-1.496, 2.216e-4
-1.495, 2.179e-4
-1.494, 2.143e-4
-1.493, 2.108e-4
-1.492, 2.072e-4
-1.491, 2.035e-4
-1.490, 1.998e-4
-1.489, 1.966e-4
-1.488, 1.932e-4
-1.487, 1.899e-4
-1.486, 1.866e-4
-1.485, 1.835e-4
-1.484, 1.804e-4
-1.483, 1.773e-4
-1.482, 1.743e-4
-1.481, 1.713e-4
-1.480, 1.684e-4
-1.479, 1.655e-4
-1.478, 1.624e-4
-1.477, 1.599e-4
-1.476, 1.571e-4
-1.475, 1.544e-4
-1.474, 1.514e-4
-1.473, 1.489e-4
-1.472, 1.464e-4
-1.471, 1.439e-4
-1.470, 1.413e-4
-1.469, 1.389e-4
-1.468, 1.364e-4
-1.467, 1.340e-4
-1.466, 1.317e-4
-1.465, 1.294e-4
-1.464, 1.270e-4
-1.463, 1.244e-4
-1.462, 1.223e-4
-1.461, 1.201e-4
-1.460, 1.180e-4
-1.459, 1.157e-4
-1.458, 1.135e-4
-1.457, 1.113e-4
-1.456, 1.094e-4
-1.455, 1.074e-4
-1.454, 1.055e-4
-1.453, 1.037e-4
-1.452, 1.018e-4
-1.451, 9.986e-5
-1.450, 9.799e-5
-1.449, 9.605e-5
-1.448, 9.421e-5
-1.447, 9.266e-5
-1.446, 9.094e-5
-1.445, 8.929e-5
-1.444, 8.746e-5
-1.443, 8.579e-5
-1.442, 8.428e-5
-1.441, 8.273e-5
-1.440, 8.126e-5
-1.439, 7.966e-5
-1.438, 7.806e-5
-1.437, 7.660e-5
-1.436, 7.514e-5
-1.435, 7.367e-5
-1.434, 7.231e-5
-1.433, 7.090e-5
-1.432, 6.964e-5
-1.431, 6.824e-5
-1.430, 6.687e-5
-1.429, 6.563e-5
-1.428, 6.443e-5
-1.427, 6.316e-5
-1.426, 6.185e-5
-1.425, 6.069e-5
-1.424, 5.950e-5
-1.423, 5.832e-5
-1.422, 5.716e-5
-1.421, 5.608e-5
-1.420, 5.495e-5
-1.419, 5.388e-5
-1.418, 5.277e-5
-1.417, 5.175e-5
-1.416, 5.082e-5
-1.415, 4.983e-5
-1.414, 4.882e-5
-1.413, 4.788e-5
-1.412, 4.683e-5
-1.411, 4.594e-5
-1.410, 4.497e-5
-1.409, 4.404e-5
-1.408, 4.313e-5
-1.407, 4.224e-5
-1.406, 4.144e-5
-1.405, 4.067e-5
-1.404, 3.977e-5
-1.403, 3.892e-5
-1.402, 3.820e-5
-1.401, 3.745e-5
-1.400, 3.671e-5
-1.399, 3.589e-5
-1.398, 3.506e-5
-1.397, 3.444e-5
-1.396, 3.362e-5
-1.395, 3.298e-5
-1.394, 3.228e-5
-1.393, 3.159e-5
-1.392, 3.093e-5
-1.391, 3.029e-5
-1.390, 2.962e-5
-1.389, 2.903e-5
-1.388, 2.833e-5
-1.387, 2.777e-5
-1.386, 2.717e-5
-1.385, 2.657e-5
-1.384, 2.601e-5
-1.383, 2.545e-5
-1.382, 2.485e-5
-1.381, 2.425e-5
-1.380, 2.381e-5
-1.379, 2.324e-5
-1.378, 2.279e-5
-1.377, 2.222e-5
-1.376, 2.180e-5
-1.375, 2.128e-5
-1.374, 2.078e-5
-1.373, 2.033e-5
-1.372, 1.984e-5
-1.371, 1.941e-5
-1.370, 1.894e-5
-1.369, 1.850e-5
-1.368, 1.807e-5
-1.367, 1.765e-5
-1.366, 1.732e-5
-1.365, 1.703e-5
-1.364, 1.644e-5
-1.363, 1.605e-5
-1.362, 1.563e-5
-1.361, 1.527e-5
-1.360, 1.494e-5
-1.359, 1.459e-5
-1.358, 1.422e-5
-1.357, 1.391e-5
-1.356, 1.356e-5
-1.355, 1.318e-5
-1.354, 1.289e-5
-1.353, 1.253e-5
-1.352, 1.219e-5
-1.351, 1.188e-5
-1.350, 1.161e-5
-1.349, 1.133e-5
-1.348, 1.101e-5
-1.347, 1.071e-5
-1.346, 1.041e-5
-1.345, 1.018e-5
-1.344, 9.881e-6
-1.343, 9.602e-6
-1.342, 9.346e-6
-1.341, 9.095e-6
-1.340, 8.858e-6
-1.339, 8.595e-6
-1.338, 8.339e-6
-1.337, 8.097e-6
-1.336, 7.892e-6
-1.335, 7.646e-6
-1.334, 7.426e-6
-1.333, 7.185e-6
-1.332, 7.016e-6
-1.331, 6.728e-6
-1.330, 6.558e-6
-1.329, 6.354e-6
-1.328, 6.119e-6
-1.327, 5.934e-6
-1.326, 5.704e-6
-1.325, 5.584e-6
-1.324, 5.344e-6
-1.323, 5.143e-6
-1.322, 4.990e-6
-1.321, 4.804e-6
-1.320, 4.646e-6
-1.319, 4.427e-6
-1.318, 4.279e-6
-1.317, 4.127e-6
-1.316, 3.969e-6
-1.315, 3.833e-6
-1.314, 3.659e-6
-1.313, 3.461e-6
-1.312, 3.349e-6
-1.311, 3.163e-6
-1.310, 3.060e-6
-1.309, 2.933e-6
-1.308, 2.794e-6
-1.307, 2.628e-6
-1.306, 2.538e-6
-1.305, 2.405e-6
-1.304, 2.307e-6
-1.303, 2.158e-6
-1.302, 1.996e-6
-1.301, 1.917e-6
-1.300, 1.802e-6
-1.299, 1.672e-6
-1.298, 1.562e-6
-1.297, 1.420e-6
-1.296, 1.330e-6
-1.295, 1.244e-6
-1.294, 1.078e-6
-1.293, 9.834e-7
-1.292, 9.134e-7
-1.291, 7.802e-7
-1.290, 7.141e-7
-1.289, 6.342e-7
-1.288, 5.227e-7
-1.287, 4.142e-7
-1.286, 3.116e-7
-1.285, 2.603e-7
-1.284, 1.508e-7
-1.283, 4.321e-8
-1.282, -3.275e-8
-1.281, -1.225e-7
-1.280, -1.748e-7
-1.279, -2.676e-7
-1.278, -3.524e-7
-1.277, -3.564e-7
-1.276, -4.965e-7
-1.275, -5.468e-7
-1.274, -6.079e-7
-1.273, -7.392e-7
-1.272, -7.727e-7
-1.271, -8.289e-7
-1.270, -8.723e-7
-1.269, -9.720e-7
-1.268, -1.045e-6
-1.267, -1.110e-6
-1.266, -1.156e-6
-1.265, -1.245e-6
-1.264, -1.215e-6
-1.263, -1.327e-6
-1.262, -1.408e-6
-1.261, -1.404e-6
-1.260, -1.433e-6
-1.259, -1.561e-6
-1.258, -1.619e-6
-1.257, -1.655e-6
-1.256, -1.702e-6
-1.255, -1.752e-6
-1.254, -1.807e-6
-1.253, -1.826e-6
-1.252, -1.902e-6
-1.251, -1.971e-6
-1.250, -1.946e-6
-1.249, -2.054e-6
-1.248, -2.059e-6
-1.247, -2.071e-6
-1.246, -2.166e-6
-1.245, -2.156e-6
-1.244, -2.243e-6
-1.243, -2.312e-6
-1.242, -2.326e-6
-1.241, -2.363e-6
-1.240, -2.373e-6
-1.239, -2.415e-6
-1.238, -2.485e-6
-1.237, -2.490e-6
-1.236, -2.541e-6
-1.235, -2.565e-6
-1.234, -2.576e-6
-1.233, -2.654e-6
-1.232, -2.673e-6
-1.231, -2.701e-6
-1.230, -2.752e-6
-1.229, -2.809e-6
-1.228, -2.854e-6
-1.227, -2.844e-6
-1.226, -2.902e-6
-1.225, -2.898e-6
-1.224, -2.899e-6
-1.223, -2.961e-6
-1.222, -3.029e-6
-1.221, -3.021e-6
-1.220, -3.014e-6
-1.219, -3.097e-6
-1.218, -3.107e-6
-1.217, -3.138e-6
-1.216, -3.171e-6
-1.215, -3.183e-6
-1.214, -3.235e-6
-1.213, -3.274e-6
-1.212, -3.281e-6
-1.211, -3.342e-6
-1.210, -3.313e-6
-1.209, -3.365e-6
-1.208, -3.364e-6
-1.207, -3.393e-6
-1.206, -3.408e-6
-1.205, -3.421e-6
-1.204, -3.431e-6
-1.203, -3.548e-6
-1.202, -3.541e-6
-1.201, -3.577e-6
-1.200, -3.543e-6
-1.199, -3.553e-6
-1.198, -3.604e-6
-1.197, -3.670e-6
-1.196, -3.670e-6
-1.195, -3.667e-6
-1.194, -3.685e-6
-1.193, -3.730e-6
-1.192, -3.757e-6
-1.191, -3.772e-6
-1.190, -3.778e-6
-1.189, -3.811e-6
-1.188, -3.861e-6
-1.187, -3.900e-6
-1.186, -3.891e-6
-1.185, -3.948e-6
-1.184, -3.909e-6
-1.183, -3.940e-6
-1.182, -4.016e-6
-1.181, -4.003e-6
-1.180, -4.017e-6
-1.179, -4.041e-6
-1.178, -4.068e-6
-1.177, -4.117e-6
-1.176, -4.121e-6
-1.175, -4.155e-6
-1.174, -4.157e-6
-1.173, -4.219e-6
-1.172, -4.236e-6
-1.171, -4.274e-6
-1.170, -4.249e-6
-1.169, -4.272e-6
-1.168, -4.307e-6
-1.167, -4.319e-6
-1.166, -4.405e-6
-1.165, -4.333e-6
-1.164, -4.375e-6
-1.163, -4.444e-6
-1.162, -4.466e-6
-1.161, -4.493e-6
-1.160, -4.490e-6
-1.159, -4.513e-6
-1.158, -4.594e-6
-1.157, -4.595e-6
-1.156, -4.607e-6
-1.155, -4.659e-6
-1.154, -4.651e-6
-1.153, -4.756e-6
-1.152, -4.700e-6
-1.151, -4.741e-6
-1.150, -4.749e-6
-1.149, -4.803e-6
-1.148, -4.873e-6
-1.147, -4.899e-6
-1.146, -4.919e-6
-1.145, -4.916e-6
-1.144, -4.927e-6
-1.143, -4.970e-6
-1.142, -5.031e-6
-1.141, -5.018e-6
-1.140, -5.021e-6
-1.139, -5.119e-6
-1.138, -5.122e-6
-1.137, -5.161e-6
-1.136, -5.204e-6
-1.135, -5.166e-6
-1.134, -5.242e-6
-1.133, -5.304e-6
-1.132, -5.298e-6
-1.131, -5.358e-6
-1.130, -5.375e-6
-1.129, -5.394e-6
-1.128, -5.501e-6
-1.127, -5.511e-6
-1.126, -5.540e-6
-1.125, -5.528e-6
-1.124, -5.592e-6
-1.123, -5.671e-6
-1.122, -5.660e-6
-1.121, -5.707e-6
-1.120, -5.745e-6
-1.119, -5.771e-6
-1.118, -5.853e-6
-1.117, -5.873e-6
-1.116, -5.886e-6
-1.115, -5.959e-6
-1.114, -5.979e-6
-1.113, -6.021e-6
-1.112, -6.097e-6
-1.111, -6.099e-6
-1.110, -6.152e-6
-1.109, -6.168e-6
-1.108, -6.272e-6
-1.107, -6.287e-6
-1.106, -6.342e-6
-1.105, -6.411e-6
-1.104, -6.432e-6
-1.103, -6.512e-6
-1.102, -6.577e-6
-1.101, -6.578e-6
-1.100, -6.609e-6
-1.099, -6.664e-6
-1.098, -6.719e-6
-1.097, -6.812e-6
-1.096, -6.823e-6
-1.095, -6.841e-6
-1.094, -6.917e-6
-1.093, -7.001e-6
-1.092, -7.027e-6
-1.091, -7.085e-6
-1.090, -7.093e-6
-1.089, -7.194e-6
-1.088, -7.244e-6
-1.087, -7.318e-6
-1.086, -7.370e-6
-1.085, -7.424e-6
-1.084, -7.453e-6
-1.083, -7.620e-6
-1.082, -7.618e-6
-1.081, -7.678e-6
-1.080, -7.688e-6
-1.079, -7.799e-6
-1.078, -7.945e-6
-1.077, -7.975e-6
-1.076, -8.047e-6
-1.075, -8.120e-6
-1.074, -8.172e-6
-1.073, -8.250e-6
-1.072, -8.278e-6
-1.071, -8.322e-6
-1.070, -8.426e-6
-1.069, -8.491e-6
-1.068, -8.600e-6
-1.067, -8.667e-6
-1.066, -8.708e-6
-1.065, -8.796e-6
-1.064, -8.911e-6
-1.063, -9.035e-6
-1.062, -9.123e-6
-1.061, -9.145e-6
-1.060, -9.227e-6
-1.059, -9.335e-6
-1.058, -9.434e-6
-1.057, -9.537e-6
-1.056, -9.597e-6
-1.055, -9.720e-6
-1.054, -9.827e-6
-1.053, -9.884e-6
-1.052, -1.003e-5
-1.051, -1.012e-5
-1.050, -1.020e-5
-1.049, -1.037e-5
-1.048, -1.045e-5
-1.047, -1.056e-5
-1.046, -1.066e-5
-1.045, -1.074e-5
-1.044, -1.086e-5
-1.043, -1.101e-5
-1.042, -1.113e-5
-1.041, -1.126e-5
-1.040, -1.134e-5
-1.039, -1.145e-5
-1.038, -1.163e-5
-1.037, -1.175e-5
-1.036, -1.191e-5
-1.035, -1.201e-5
-1.034, -1.212e-5
-1.033, -1.234e-5
-1.032, -1.244e-5
-1.031, -1.261e-5
-1.030, -1.276e-5
-1.029, -1.290e-5
-1.028, -1.307e-5
-1.027, -1.331e-5
-1.026, -1.343e-5
-1.025, -1.361e-5
-1.024, -1.375e-5
-1.023, -1.397e-5
-1.022, -1.418e-5
-1.021, -1.434e-5
-1.020, -1.455e-5
-1.019, -1.474e-5
-1.018, -1.495e-5
-1.017, -1.516e-5
-1.016, -1.531e-5
-1.015, -1.553e-5
-1.014, -1.580e-5
-1.013, -1.599e-5
-1.012, -1.623e-5
-1.011, -1.642e-5
-1.010, -1.666e-5
-1.009, -1.690e-5
-1.008, -1.714e-5
-1.007, -1.741e-5
-1.006, -1.760e-5
-1.005, -1.781e-5
-1.004, -1.810e-5
-1.003, -1.838e-5
-1.002, -1.864e-5
-1.001, -1.889e-5
-1.000, -1.400e-5
-1.001, -1.083e-5
-1.002, -9.147e-6
-1.003, -7.874e-6
-1.004, -6.715e-6
-1.005, -5.789e-6
-1.006, -4.938e-6
-1.007, -4.193e-6
-1.008, -3.511e-6
-1.009, -2.861e-6
-1.010, -2.297e-6
-1.011, -1.776e-6
-1.012, -1.300e-6
-1.013, -8.970e-7
-1.014, -4.915e-7
-1.015, -7.715e-8
-1.016, 2.613e-7
-1.017, 6.302e-7
-1.018, 9.114e-7
-1.019, 1.221e-6
-1.020, 1.505e-6
-1.021, 1.744e-6
-1.022, 1.932e-6
-1.023, 2.176e-6
-1.024, 2.418e-6
-1.025, 2.591e-6
-1.026, 2.777e-6
-1.027, 2.878e-6
-1.028, 3.084e-6
-1.029, 3.285e-6
-1.030, 3.416e-6
-1.031, 3.563e-6
-1.032, 3.645e-6
-1.033, 3.763e-6
-1.034, 3.926e-6
-1.035, 4.026e-6
-1.036, 4.101e-6
-1.037, 4.191e-6
-1.038, 4.234e-6
-1.039, 4.386e-6
-1.040, 4.451e-6
-1.041, 4.581e-6
-1.042, 4.602e-6
-1.043, 4.634e-6
-1.044, 4.752e-6
-1.045, 4.838e-6
-1.046, 4.861e-6
-1.047, 4.936e-6
-1.048, 4.945e-6
-1.049, 5.034e-6
-1.050, 5.090e-6
-1.051, 5.100e-6
-1.052, 5.151e-6
-1.053, 5.189e-6
-1.054, 5.193e-6
-1.055, 5.274e-6
-1.056, 5.330e-6
-1.057, 5.288e-6
-1.058, 5.363e-6
-1.059, 5.418e-6
-1.060, 5.449e-6
-1.061, 5.422e-6
-1.062, 5.437e-6
-1.063, 5.485e-6
-1.064, 5.497e-6
-1.065, 5.537e-6
-1.066, 5.576e-6
-1.067, 5.538e-6
-1.068, 5.531e-6
-1.069, 5.596e-6
-1.070, 5.575e-6
-1.071, 5.629e-6
-1.072, 5.610e-6
-1.073, 5.605e-6
-1.074, 5.689e-6
-1.075, 5.732e-6
-1.076, 5.733e-6
-1.077, 5.741e-6
-1.078, 5.692e-6
-1.079, 5.748e-6
-1.080, 5.719e-6
-1.081, 5.695e-6
-1.082, 5.735e-6
-1.083, 5.714e-6
-1.084, 5.732e-6
-1.085, 5.761e-6
-1.086, 5.722e-6
-1.087, 5.747e-6
-1.088, 5.712e-6
-1.089, 5.751e-6
-1.090, 5.789e-6
-1.091, 5.762e-6
-1.092, 5.743e-6
-1.093, 5.799e-6
-1.094, 5.825e-6
-1.095, 5.837e-6
-1.096, 5.815e-6
-1.097, 5.772e-6
-1.098, 5.750e-6
-1.099, 5.767e-6
-1.100, 5.779e-6
-1.101, 5.828e-6
-1.102, 5.778e-6
-1.103, 5.817e-6
-1.104, 5.795e-6
-1.105, 5.838e-6
-1.106, 5.797e-6
-1.107, 5.797e-6
-1.108, 5.774e-6
-1.109, 5.836e-6
-1.110, 5.811e-6
-1.111, 5.852e-6
-1.112, 5.772e-6
-1.113, 5.785e-6
-1.114, 5.876e-6
-1.115, 5.836e-6
-1.116, 5.834e-6
-1.117, 5.767e-6
-1.118, 5.812e-6
-1.119, 5.869e-6
-1.120, 5.842e-6
-1.121, 5.827e-6
-1.122, 5.806e-6
-1.123, 5.763e-6
-1.124, 5.781e-6
-1.125, 5.824e-6
-1.126, 5.781e-6
-1.127, 5.815e-6
-1.128, 5.776e-6
-1.129, 5.801e-6
-1.130, 5.802e-6
-1.131, 5.804e-6
-1.132, 5.789e-6
-1.133, 5.796e-6
-1.134, 5.853e-6
-1.135, 5.858e-6
-1.136, 5.788e-6
-1.137, 5.799e-6
-1.138, 5.785e-6
-1.139, 5.791e-6
-1.140, 5.806e-6
-1.141, 5.789e-6
-1.142, 5.737e-6
-1.143, 5.804e-6
-1.144, 5.817e-6
-1.145, 5.819e-6
-1.146, 5.834e-6
-1.147, 5.777e-6
-1.148, 5.796e-6
-1.149, 5.798e-6
-1.150, 5.786e-6
-1.151, 5.845e-6
-1.152, 5.803e-6
-1.153, 5.781e-6
-1.154, 5.856e-6
-1.155, 5.790e-6
-1.156, 5.829e-6
-1.157, 5.795e-6
-1.158, 5.800e-6
-1.159, 5.829e-6
-1.160, 5.818e-6
-1.161, 5.796e-6
-1.162, 5.801e-6
-1.163, 5.772e-6
-1.164, 5.779e-6
-1.165, 5.827e-6
-1.166, 5.812e-6
-1.167, 5.804e-6
-1.168, 5.766e-6
-1.169, 5.814e-6
-1.170, 5.756e-6
-1.171, 5.795e-6
-1.172, 5.787e-6
-1.173, 5.754e-6
-1.174, 5.739e-6
-1.175, 5.795e-6
-1.176, 5.781e-6
-1.177, 5.755e-6
-1.178, 5.771e-6
-1.179, 5.790e-6
-1.180, 5.812e-6
-1.181, 5.811e-6
-1.182, 5.789e-6
-1.183, 5.801e-6
-1.184, 5.737e-6
-1.185, 5.787e-6
-1.186, 5.792e-6
-1.187, 5.769e-6
-1.188, 5.775e-6
-1.189, 5.789e-6
-1.190, 5.795e-6
-1.191, 5.803e-6
-1.192, 5.784e-6
-1.193, 5.768e-6
-1.194, 5.841e-6
-1.195, 5.787e-6
-1.196, 5.812e-6
-1.197, 5.761e-6
-1.198, 5.781e-6
-1.199, 5.861e-6
-1.200, 5.845e-6
-1.201, 5.841e-6
-1.202, 5.797e-6
-1.203, 5.817e-6
-1.204, 5.862e-6
-1.205, 5.881e-6
-1.206, 5.844e-6
-1.207, 5.838e-6
-1.208, 5.815e-6
-1.209, 5.864e-6
-1.210, 5.874e-6
-1.211, 5.830e-6
-1.212, 5.838e-6
-1.213, 5.838e-6
-1.214, 5.876e-6
-1.215, 5.908e-6
-1.216, 5.884e-6
-1.217, 5.902e-6
-1.218, 5.933e-6
-1.219, 5.937e-6
-1.220, 5.919e-6
-1.221, 5.937e-6
-1.222, 5.922e-6
-1.223, 5.923e-6
-1.224, 5.974e-6
-1.225, 5.984e-6
-1.226, 6.037e-6
-1.227, 5.951e-6
-1.228, 6.021e-6
-1.229, 6.122e-6
-1.230, 6.084e-6
-1.231, 6.094e-6
-1.232, 6.116e-6
-1.233, 6.087e-6
-1.234, 6.154e-6
-1.235, 6.165e-6
-1.236, 6.155e-6
-1.237, 6.180e-6
-1.238, 6.184e-6
-1.239, 6.212e-6
-1.240, 6.247e-6
-1.241, 6.235e-6
-1.242, 6.266e-6
-1.243, 6.283e-6
-1.244, 6.346e-6
-1.245, 6.381e-6
-1.246, 6.419e-6
-1.247, 6.431e-6
-1.248, 6.436e-6
-1.249, 6.504e-6
-1.250, 6.559e-6
-1.251, 6.589e-6
-1.252, 6.619e-6
-1.253, 6.607e-6
-1.254, 6.641e-6
-1.255, 6.721e-6
-1.256, 6.704e-6
-1.257, 6.752e-6
-1.258, 6.783e-6
-1.259, 6.878e-6
-1.260, 6.878e-6
-1.261, 6.936e-6
-1.262, 6.936e-6
-1.263, 7.021e-6
-1.264, 7.047e-6
-1.265, 7.138e-6
-1.266, 7.185e-6
-1.267, 7.214e-6
-1.268, 7.309e-6
-1.269, 7.328e-6
-1.270, 7.442e-6
-1.271, 7.508e-6
-1.272, 7.541e-6
-1.273, 7.623e-6
-1.274, 7.735e-6
-1.275, 7.790e-6
-1.276, 7.871e-6
-1.277, 7.926e-6
-1.278, 8.005e-6
-1.279, 8.116e-6
-1.280, 8.226e-6
-1.281, 8.300e-6
-1.282, 8.369e-6
-1.283, 8.440e-6
-1.284, 8.650e-6
-1.285, 8.720e-6
-1.286, 8.800e-6
-1.287, 8.910e-6
-1.288, 8.909e-6
-1.289, 9.061e-6
-1.290, 9.233e-6
-1.291, 9.308e-6
-1.292, 9.397e-6
-1.293, 9.482e-6
-1.294, 9.687e-6
-1.295, 9.814e-6
-1.296, 9.907e-6
-1.297, 1.002e-5
-1.298, 1.018e-5
-1.299, 1.037e-5
-1.300, 1.051e-5
-1.301, 1.063e-5
-1.302, 1.078e-5
-1.303, 1.096e-5
-1.304, 1.115e-5
-1.305, 1.128e-5
-1.306, 1.144e-5
-1.307, 1.160e-5
-1.308, 1.169e-5
-1.309, 1.197e-5
-1.310, 1.214e-5
-1.311, 1.238e-5
-1.312, 1.250e-5
-1.313, 1.272e-5
-1.314, 1.302e-5
-1.315, 1.320e-5
-1.316, 1.342e-5
-1.317, 1.362e-5
-1.318, 1.385e-5
-1.319, 1.414e-5
-1.320, 1.433e-5
-1.321, 1.461e-5
-1.322, 1.481e-5
-1.323, 1.510e-5
-1.324, 1.538e-5
-1.325, 1.566e-5
-1.326, 1.591e-5
-1.327, 1.617e-5
-1.328, 1.647e-5
-1.329, 1.677e-5
-1.330, 1.710e-5
-1.331, 1.743e-5
-1.332, 1.773e-5
-1.333, 1.808e-5
-1.334, 1.846e-5
-1.335, 1.880e-5
-1.336, 1.910e-5
-1.337, 1.944e-5
-1.338, 1.984e-5
-1.339, 2.026e-5
-1.340, 2.071e-5
-1.341, 2.116e-5
-1.342, 2.148e-5
-1.343, 2.190e-5
-1.344, 2.237e-5
-1.345, 2.275e-5
-1.346, 2.321e-5
-1.347, 2.367e-5
-1.348, 2.413e-5
-1.349, 2.468e-5
-1.350, 2.513e-5
-1.351, 2.563e-5
-1.352, 2.614e-5
-1.353, 2.667e-5
-1.354, 2.723e-5
-1.355, 2.774e-5
-1.356, 2.835e-5
-1.357, 2.888e-5
-1.358, 2.948e-5
-1.359, 3.012e-5
-1.360, 3.073e-5
-1.361, 3.140e-5
-1.362, 3.200e-5
-1.363, 3.265e-5
-1.364, 3.340e-5
-1.365, 3.405e-5
-1.366, 3.474e-5
-1.367, 3.548e-5
-1.368, 3.621e-5
-1.369, 3.695e-5
-1.370, 3.777e-5
-1.371, 3.857e-5
-1.372, 3.936e-5
-1.373, 4.018e-5
-1.374, 4.104e-5
-1.375, 4.191e-5
-1.376, 4.276e-5
-1.377, 4.365e-5
-1.378, 4.457e-5
-1.379, 4.551e-5
-1.380, 4.646e-5
-1.381, 4.740e-5
-1.382, 4.845e-5
-1.383, 4.947e-5
-1.384, 5.054e-5
-1.385, 5.160e-5
-1.386, 5.271e-5
-1.387, 5.379e-5
-1.388, 5.492e-5
-1.389, 5.606e-5
-1.390, 5.725e-5
-1.391, 5.844e-5
-1.392, 5.966e-5
-1.393, 6.094e-5
-1.394, 6.223e-5
-1.395, 6.345e-5
-1.396, 6.482e-5
-1.397, 6.616e-5
-1.398, 6.751e-5
-1.399, 6.900e-5
-1.400, 7.043e-5
-1.401, 7.196e-5
-1.402, 7.336e-5
-1.403, 7.487e-5
-1.404, 7.655e-5
-1.405, 7.815e-5
-1.406, 7.979e-5
-1.407, 8.144e-5
-1.408, 8.302e-5
-1.409, 8.480e-5
-1.410, 8.653e-5
-1.411, 8.827e-5
-1.412, 9.012e-5
-1.413, 9.191e-5
-1.414, 9.391e-5
-1.415, 9.580e-5
-1.416, 9.777e-5
-1.417, 9.980e-5
-1.418, 1.018e-4
-1.419, 1.038e-4
-1.420, 1.059e-4
-1.421, 1.082e-4
-1.422, 1.103e-4
-1.423, 1.125e-4
-1.424, 1.144e-4
-1.425, 1.166e-4
-1.426, 1.190e-4
-1.427, 1.215e-4
-1.428, 1.238e-4
-1.429, 1.263e-4
-1.430, 1.287e-4
-1.431, 1.313e-4
-1.432, 1.338e-4
-1.433, 1.364e-4
-1.434, 1.391e-4
-1.435, 1.418e-4
-1.436, 1.445e-4
-1.437, 1.470e-4
-1.438, 1.497e-4
-1.439, 1.525e-4
-1.440, 1.553e-4
-1.441, 1.584e-4
-1.442, 1.613e-4
-1.443, 1.642e-4
-1.444, 1.673e-4
-1.445, 1.702e-4
-1.446, 1.733e-4
-1.447, 1.765e-4
-1.448, 1.796e-4
-1.449, 1.828e-4
-1.450, 1.860e-4
-1.451, 1.891e-4
-1.452, 1.922e-4
-1.453, 1.955e-4
-1.454, 1.989e-4
-1.455, 2.024e-4
-1.456, 2.057e-4
-1.457, 2.092e-4
-1.458, 2.127e-4
-1.459, 2.162e-4
-1.460, 2.197e-4
-1.461, 2.233e-4
-1.462, 2.269e-4
-1.463, 2.304e-4
-1.464, 2.344e-4
-1.465, 2.377e-4
-1.466, 2.414e-4
-1.467, 2.451e-4
-1.468, 2.490e-4
-1.469, 2.529e-4
-1.470, 2.567e-4
-1.471, 2.607e-4
-1.472, 2.647e-4
-1.473, 2.685e-4
-1.474, 2.722e-4
-1.475, 2.758e-4
-1.476, 2.799e-4
-1.477, 2.840e-4
-1.478, 2.879e-4
-1.479, 2.917e-4
-1.480, 2.957e-4
-1.481, 2.999e-4
-1.482, 3.044e-4
-1.483, 3.087e-4
-1.484, 3.130e-4
-1.485, 3.172e-4
-1.486, 3.214e-4
-1.487, 3.258e-4
-1.488, 3.303e-4
-1.489, 3.351e-4
-1.490, 3.397e-4
-1.491, 3.438e-4
-1.492, 3.482e-4
-1.493, 3.522e-4
-1.494, 3.568e-4
-1.495, 3.610e-4
-1.496, 3.662e-4
-1.497, 3.709e-4
-1.498, 3.755e-4
-1.499, 3.803e-4
-1.500, 3.849e-4
-1.501, 3.897e-4
-1.502, 3.947e-4
-1.503, 3.997e-4
-1.504, 4.047e-4
-1.505, 4.097e-4
-1.506, 4.139e-4
-1.507, 4.183e-4
-1.508, 4.235e-4
-1.509, 4.283e-4
-1.510, 4.335e-4
-1.511, 4.393e-4
-1.512, 4.446e-4
-1.513, 4.498e-4
-1.514, 4.552e-4
-1.515, 4.608e-4
-1.516, 4.663e-4
-1.517, 4.718e-4
-1.518, 4.773e-4
-1.519, 4.829e-4
-1.520, 4.885e-4
-1.521, 4.931e-4
-1.522, 4.987e-4
-1.523, 5.041e-4
-1.524, 5.096e-4
-1.525, 5.168e-4
-1.526, 5.235e-4
-1.527, 5.298e-4
-1.528, 5.354e-4
-1.529, 5.417e-4
-1.530, 5.483e-4
-1.531, 5.544e-4
-1.532, 5.612e-4
-1.533, 5.674e-4
-1.534, 5.740e-4
-1.535, 5.797e-4
-1.536, 5.848e-4
-1.537, 5.914e-4
-1.538, 5.972e-4
-1.539, 6.049e-4
-1.540, 6.126e-4
-1.541, 6.198e-4
-1.542, 6.270e-4
-1.543, 6.348e-4
-1.544, 6.427e-4
-1.545, 6.507e-4
-1.546, 6.594e-4
-1.547, 6.672e-4
-1.548, 6.726e-4
-1.549, 6.802e-4
-1.550, 6.848e-4
-1.551, 6.912e-4
-1.552, 6.994e-4
-1.553, 7.071e-4
-1.554, 7.164e-4
-1.555, 7.253e-4
-1.556, 7.338e-4
-1.557, 7.426e-4
-1.558, 7.517e-4
-1.559, 7.609e-4
-1.560, 7.698e-4
-1.561, 7.792e-4
-1.562, 7.884e-4
-1.563, 7.976e-4
-1.564, 8.040e-4
-1.565, 8.121e-4
-1.566, 8.217e-4
-1.567, 8.306e-4
-1.568, 8.416e-4
-1.569, 8.521e-4
-1.570, 8.627e-4
-1.571, 8.732e-4
-1.572, 8.838e-4
-1.573, 8.946e-4
-1.574, 9.054e-4
-1.575, 9.173e-4
-1.576, 9.296e-4
-1.577, 9.428e-4
-1.578, 9.511e-4
-1.579, 9.560e-4
-1.580, 9.679e-4
-1.581, 9.787e-4
-1.582, 9.929e-4
-1.583, 1.006e-3
-1.584, 1.019e-3
-1.585, 1.032e-3
-1.586, 1.044e-3
-1.587, 1.058e-3
-1.588, 1.073e-3
-1.589, 1.087e-3
-1.590, 1.102e-3
-1.591, 1.114e-3
-1.592, 1.082e-3
-1.593, 1.087e-3
-1.594, 1.101e-3
-1.595, 1.115e-3
-1.596, 1.128e-3
-1.597, 1.142e-3
-1.598, 1.159e-3
-1.599, 1.184e-3
-1.600, 1.187e-3
-1.599, 1.171e-3
-1.598, 1.150e-3
-1.597, 1.125e-3
-1.596, 1.103e-3
-1.595, 1.084e-3
-1.594, 1.065e-3
-1.593, 1.047e-3
-1.592, 1.032e-3
-1.591, 1.018e-3
-1.590, 1.003e-3
-1.589, 9.871e-4
-1.588, 9.719e-4
-1.587, 9.572e-4
-1.586, 9.424e-4
-1.585, 9.262e-4
-1.584, 9.104e-4
-1.583, 8.959e-4
-1.582, 8.811e-4
-1.581, 8.655e-4
-1.580, 8.512e-4
-1.579, 8.395e-4
-1.578, 8.272e-4
-1.577, 8.148e-4
-1.576, 8.036e-4
-1.575, 7.906e-4
-1.574, 7.781e-4
-1.573, 7.654e-4
-1.572, 7.539e-4
-1.571, 7.453e-4
-1.570, 7.336e-4
-1.569, 7.187e-4
-1.568, 7.038e-4
-1.567, 6.930e-4
-1.566, 6.804e-4
-1.565, 6.711e-4
-1.564, 6.608e-4
-1.563, 6.493e-4
-1.562, 6.388e-4
-1.561, 6.283e-4
-1.560, 6.181e-4
-1.559, 6.084e-4
-1.558, 5.992e-4
-1.557, 5.884e-4
-1.556, 5.781e-4
-1.555, 5.673e-4
-1.554, 5.571e-4
-1.553, 5.461e-4
-1.552, 5.370e-4
-1.551, 5.287e-4
-1.550, 5.208e-4
-1.549, 5.123e-4
-1.548, 5.040e-4
-1.547, 4.960e-4
-1.546, 4.877e-4
-1.545, 4.794e-4
-1.544, 4.720e-4
-1.543, 4.654e-4
-1.542, 4.568e-4
-1.541, 4.479e-4
-1.540, 4.409e-4
-1.539, 4.335e-4
-1.538, 4.261e-4
-1.537, 4.195e-4
-1.536, 4.128e-4
-1.535, 4.059e-4
-1.534, 3.990e-4
-1.533, 3.925e-4
-1.532, 3.867e-4
-1.531, 3.794e-4
-1.530, 3.729e-4
-1.529, 3.667e-4
-1.528, 3.604e-4
-1.527, 3.537e-4
-1.526, 3.471e-4
-1.525, 3.412e-4
-1.524, 3.352e-4
-1.523, 3.295e-4
-1.522, 3.242e-4
-1.521, 3.186e-4
-1.520, 3.131e-4
-1.519, 3.080e-4
-1.518, 3.027e-4
-1.517, 2.971e-4
-1.516, 2.919e-4
-1.515, 2.868e-4
-1.514, 2.825e-4
-1.513, 2.767e-4
-1.512, 2.711e-4
-1.511, 2.667e-4
-1.510, 2.623e-4
-1.509, 2.577e-4
-1.508, 2.533e-4
-1.507, 2.489e-4
-1.506, 2.445e-4
-1.505, 2.401e-4
-1.504, 2.359e-4
-1.503, 2.317e-4
-1.502, 2.276e-4
-1.501, 2.236e-4
-1.500, 2.196e-4
-1.499, 2.157e-4
-1.498, 2.117e-4
-1.497, 2.080e-4
-1.496, 2.041e-4
-1.495, 2.007e-4
-1.494, 1.971e-4
-1.493, 1.934e-4
-1.492, 1.900e-4
-1.491, 1.866e-4
-1.490, 1.832e-4
-1.489, 1.798e-4
-1.488, 1.766e-4
-1.487, 1.733e-4
-1.486, 1.702e-4
-1.485, 1.670e-4
-1.484, 1.635e-4
-1.483, 1.605e-4
-1.482, 1.575e-4
-1.481, 1.547e-4
-1.480, 1.521e-4
-1.479, 1.488e-4
-1.478, 1.461e-4
-1.477, 1.434e-4
-1.476, 1.408e-4
-1.475, 1.382e-4
-1.474, 1.355e-4
-1.473, 1.329e-4
-1.472, 1.303e-4
-1.471, 1.278e-4
-1.470, 1.250e-4
-1.469, 1.229e-4
-1.468, 1.206e-4
-1.467, 1.183e-4
-1.466, 1.161e-4
-1.465, 1.138e-4
-1.464, 1.119e-4
-1.463, 1.095e-4
-1.462, 1.073e-4
-1.461, 1.053e-4
-1.460, 1.032e-4
-1.459, 1.011e-4
-1.458, 9.928e-5
-1.457, 9.739e-5
-1.456, 9.541e-5
-1.455, 9.348e-5
-1.454, 9.163e-5
-1.453, 8.980e-5
-1.452, 8.795e-5
-1.451, 8.629e-5
-1.450, 8.454e-5
-1.449, 8.293e-5
-1.448, 8.134e-5
-1.447, 7.969e-5
-1.446, 7.798e-5
-1.445, 7.660e-5
-1.444, 7.495e-5
-1.443, 7.329e-5
-1.442, 7.194e-5
-1.441, 7.045e-5
-1.440, 6.880e-5
-1.439, 6.745e-5
-1.438, 6.614e-5
-1.437, 6.484e-5
-1.436, 6.351e-5
-1.435, 6.213e-5
-1.434, 6.086e-5
-1.433, 5.964e-5
-1.432, 5.844e-5
-1.431, 5.727e-5
-1.430, 5.605e-5
-1.429, 5.487e-5
-1.428, 5.368e-5
-1.427, 5.256e-5
-1.426, 5.156e-5
-1.425, 5.043e-5
-1.424, 4.943e-5
-1.423, 4.835e-5
-1.422, 4.729e-5
-1.421, 4.644e-5
-1.420, 4.541e-5
-1.419, 4.449e-5
-1.418, 4.356e-5
-1.417, 4.261e-5
-1.416, 4.180e-5
-1.415, 4.079e-5
-1.414, 3.995e-5
-1.413, 3.912e-5
-1.412, 3.833e-5
-1.411, 3.750e-5
-1.410, 3.670e-5
-1.409, 3.592e-5
-1.408, 3.523e-5
-1.407, 3.445e-5
-1.406, 3.364e-5
-1.405, 3.295e-5
-1.404, 3.224e-5
-1.403, 3.156e-5
-1.402, 3.092e-5
-1.401, 3.024e-5
-1.400, 2.961e-5
-1.399, 2.891e-5
-1.398, 2.826e-5
-1.397, 2.769e-5
-1.396, 2.704e-5
-1.395, 2.644e-5
-1.394, 2.584e-5
-1.393, 2.524e-5
-1.392, 2.469e-5
-1.391, 2.416e-5
-1.390, 2.364e-5
-1.389, 2.311e-5
-1.388, 2.259e-5
-1.387, 2.204e-5
-1.386, 2.153e-5
-1.385, 2.103e-5
-1.384, 2.063e-5
-1.383, 2.023e-5
-1.382, 1.968e-5
-1.381, 1.932e-5
-1.380, 1.894e-5
-1.379, 1.839e-5
-1.378, 1.794e-5
-1.377, 1.749e-5
-1.376, 1.718e-5
-1.375, 1.677e-5
-1.374, 1.634e-5
-1.373, 1.602e-5
-1.372, 1.559e-5
-1.371, 1.520e-5
-1.370, 1.481e-5
-1.369, 1.446e-5
-1.368, 1.412e-5
-1.367, 1.372e-5
-1.366, 1.340e-5
-1.365, 1.317e-5
-1.364, 1.287e-5
-1.363, 1.251e-5
-1.362, 1.220e-5
-1.361, 1.181e-5
-1.360, 1.153e-5
-1.359, 1.121e-5
-1.358, 1.089e-5
-1.357, 1.058e-5
-1.356, 1.043e-5
-1.355, 1.012e-5
-1.354, 9.893e-6
-1.353, 9.578e-6
-1.352, 9.404e-6
-1.351, 9.115e-6
-1.350, 8.844e-6
-1.349, 8.568e-6
-1.348, 8.282e-6
-1.347, 8.028e-6
-1.346, 7.873e-6
-1.345, 7.613e-6
-1.344, 7.344e-6
-1.343, 7.127e-6
-1.342, 6.901e-6
-1.341, 6.780e-6
-1.340, 6.508e-6
-1.339, 6.297e-6
-1.338, 6.151e-6
-1.337, 5.916e-6
-1.336, 5.783e-6
-1.335, 5.596e-6
-1.334, 5.441e-6
-1.333, 5.222e-6
-1.332, 5.049e-6
-1.331, 4.886e-6
-1.330, 4.683e-6
-1.329, 4.502e-6
-1.328, 4.269e-6
-1.327, 4.199e-6
-1.326, 4.078e-6
-1.325, 3.916e-6
-1.324, 3.751e-6
-1.323, 3.604e-6
-1.322, 3.449e-6
-1.321, 3.321e-6
-1.320, 3.186e-6
-1.319, 3.062e-6
-1.318, 2.864e-6
-1.317, 2.755e-6
-1.316, 2.621e-6
-1.315, 2.501e-6
-1.314, 2.382e-6
-1.313, 2.198e-6
-1.312, 2.125e-6
-1.311, 2.023e-6
-1.310, 1.845e-6
-1.309, 1.798e-6
-1.308, 1.663e-6
-1.307, 1.631e-6
-1.306, 1.524e-6
-1.305, 1.331e-6
-1.304, 1.263e-6
-1.303, 1.164e-6
-1.302, 1.027e-6
-1.301, 1.029e-6
-1.300, 9.045e-7
-1.299, 7.624e-7
-1.298, 6.431e-7
-1.297, 6.056e-7
-1.296, 5.720e-7
-1.295, 4.635e-7
-1.294, 3.441e-7
-1.293, 2.583e-7
-1.292, 1.567e-7
-1.291, 1.034e-7
-1.290, 1.776e-9
-1.289, -8.504e-8
-1.288, -1.304e-7
-1.287, -2.005e-7
-1.286, -2.774e-7
-1.285, -3.475e-7
-1.284, -4.304e-7
-1.283, -5.142e-7
-1.282, -5.704e-7
-1.281, -6.079e-7
-1.280, -6.957e-7
-1.279, -7.638e-7
-1.278, -8.487e-7
-1.277, -8.871e-7
-1.276, -9.424e-7
-1.275, -1.025e-6
-1.274, -1.166e-6
-1.273, -1.211e-6
-1.272, -1.186e-6
-1.271, -1.216e-6
-1.270, -1.293e-6
-1.269, -1.321e-6
-1.268, -1.397e-6
-1.267, -1.470e-6
-1.266, -1.363e-6
-1.265, -1.492e-6
-1.264, -1.574e-6
-1.263, -1.645e-6
-1.262, -1.685e-6
-1.261, -1.709e-6
-1.260, -1.727e-6
-1.259, -1.819e-6
-1.258, -1.869e-6
-1.257, -1.908e-6
-1.256, -1.941e-6
-1.255, -2.018e-6
-1.254, -2.054e-6
-1.253, -1.980e-6
-1.252, -2.099e-6
-1.251, -2.137e-6
-1.250, -2.193e-6
-1.249, -2.221e-6
-1.248, -2.284e-6
-1.247, -2.317e-6
-1.246, -2.371e-6
-1.245, -2.368e-6
-1.244, -2.422e-6
-1.243, -2.479e-6
-1.242, -2.511e-6
-1.241, -2.561e-6
-1.240, -2.554e-6
-1.239, -2.585e-6
-1.238, -2.607e-6
-1.237, -2.641e-6
-1.236, -2.659e-6
-1.235, -2.726e-6
-1.234, -2.728e-6
-1.233, -2.797e-6
-1.232, -2.802e-6
-1.231, -2.812e-6
-1.230, -2.904e-6
-1.229, -2.934e-6
-1.228, -2.948e-6
-1.227, -2.994e-6
-1.226, -3.016e-6
-1.225, -3.014e-6
-1.224, -2.994e-6
-1.223, -3.077e-6
-1.222, -3.143e-6
-1.221, -3.126e-6
-1.220, -3.118e-6
-1.219, -3.235e-6
-1.218, -3.245e-6
-1.217, -3.270e-6
-1.216, -3.239e-6
-1.215, -3.319e-6
-1.214, -3.334e-6
-1.213, -3.324e-6
-1.212, -3.359e-6
-1.211, -3.371e-6
-1.210, -3.401e-6
-1.209, -3.432e-6
-1.208, -3.467e-6
-1.207, -3.511e-6
-1.206, -3.553e-6
-1.205, -3.550e-6
-1.204, -3.561e-6
-1.203, -3.586e-6
-1.202, -3.588e-6
-1.201, -3.649e-6
-1.200, -3.646e-6
-1.199, -3.693e-6
-1.198, -3.685e-6
-1.197, -3.698e-6
-1.196, -3.711e-6
-1.195, -3.758e-6
-1.194, -3.760e-6
-1.193, -3.807e-6
-1.192, -3.841e-6
-1.191, -3.869e-6
-1.190, -3.921e-6
-1.189, -3.876e-6
-1.188, -3.889e-6
-1.187, -3.950e-6
-1.186, -3.931e-6
-1.185, -3.976e-6
-1.184, -3.990e-6
-1.183, -3.997e-6
-1.182, -4.067e-6
-1.181, -4.054e-6
-1.180, -4.087e-6
-1.179, -4.135e-6
-1.178, -4.139e-6
-1.177, -4.200e-6
-1.176, -4.192e-6
-1.175, -4.212e-6
-1.174, -4.248e-6
-1.173, -4.232e-6
-1.172, -4.262e-6
-1.171, -4.326e-6
-1.170, -4.347e-6
-1.169, -4.416e-6
-1.168, -4.388e-6
-1.167, -4.412e-6
-1.166, -4.503e-6
-1.165, -4.497e-6
-1.164, -4.491e-6
-1.163, -4.546e-6
-1.162, -4.544e-6
-1.161, -4.582e-6
-1.160, -4.549e-6
-1.159, -4.587e-6
-1.158, -4.626e-6
-1.157, -4.675e-6
-1.156, -4.675e-6
-1.155, -4.725e-6
-1.154, -4.707e-6
-1.153, -4.770e-6
-1.152, -4.782e-6
-1.151, -4.830e-6
-1.150, -4.854e-6
-1.149, -4.846e-6
-1.148, -4.926e-6
-1.147, -4.928e-6
-1.146, -4.962e-6
-1.145, -4.998e-6
-1.144, -5.003e-6
-1.143, -5.052e-6
-1.142, -5.106e-6
-1.141, -5.117e-6
-1.140, -5.124e-6
-1.139, -5.175e-6
-1.138, -5.185e-6
-1.137, -5.186e-6
-1.136, -5.273e-6
-1.135, -5.272e-6
-1.134, -5.342e-6
-1.133, -5.353e-6
-1.132, -5.390e-6
-1.131, -5.415e-6
-1.130, -5.425e-6
-1.129, -5.504e-6
-1.128, -5.540e-6
-1.127, -5.564e-6
-1.126, -5.662e-6
-1.125, -5.714e-6
-1.124, -5.692e-6
-1.123, -5.765e-6
-1.122, -5.783e-6
-1.121, -5.840e-6
-1.120, -5.827e-6
-1.119, -5.866e-6
-1.118, -5.958e-6
-1.117, -5.951e-6
-1.116, -5.980e-6
-1.115, -6.026e-6
-1.114, -6.076e-6
-1.113, -6.105e-6
-1.112, -6.155e-6
-1.111, -6.192e-6
-1.110, -6.230e-6
-1.109, -6.268e-6
-1.108, -6.345e-6
-1.107, -6.400e-6
-1.106, -6.426e-6
-1.105, -6.430e-6
-1.104, -6.487e-6
-1.103, -6.561e-6
-1.102, -6.585e-6
-1.101, -6.631e-6
-1.100, -6.678e-6
-1.099, -6.721e-6
-1.098, -6.758e-6
-1.097, -6.838e-6
-1.096, -6.883e-6
-1.095, -6.903e-6
-1.094, -7.013e-6
-1.093, -7.030e-6
-1.092, -7.096e-6
-1.091, -7.117e-6
-1.090, -7.145e-6
-1.089, -7.241e-6
-1.088, -7.329e-6
-1.087, -7.365e-6
-1.086, -7.459e-6
-1.085, -7.475e-6
-1.084, -7.514e-6
-1.083, -7.619e-6
-1.082, -7.688e-6
-1.081, -7.809e-6
-1.080, -7.766e-6
-1.079, -7.849e-6
-1.078, -7.962e-6
-1.077, -7.980e-6
-1.076, -8.083e-6
-1.075, -8.129e-6
-1.074, -8.215e-6
-1.073, -8.321e-6
-1.072, -8.372e-6
-1.071, -8.437e-6
-1.070, -8.468e-6
-1.069, -8.545e-6
-1.068, -8.642e-6
-1.067, -8.740e-6
-1.066, -8.787e-6
-1.065, -8.856e-6
-1.064, -8.953e-6
-1.063, -9.030e-6
-1.062, -9.153e-6
-1.061, -9.189e-6
-1.060, -9.283e-6
-1.059, -9.372e-6
-1.058, -9.528e-6
-1.057, -9.609e-6
-1.056, -9.658e-6
-1.055, -9.701e-6
-1.054, -9.877e-6
-1.053, -9.993e-6
-1.052, -1.007e-5
-1.051, -1.021e-5
-1.050, -1.027e-5
-1.049, -1.040e-5
-1.048, -1.054e-5
-1.047, -1.067e-5
-1.046, -1.076e-5
-1.045, -1.085e-5
-1.044, -1.100e-5
-1.043, -1.121e-5
-1.042, -1.127e-5
-1.041, -1.139e-5
-1.040, -1.151e-5
-1.039, -1.171e-5
-1.038, -1.189e-5
-1.037, -1.203e-5
-1.036, -1.215e-5
-1.035, -1.225e-5
-1.034, -1.240e-5
-1.033, -1.258e-5
-1.032, -1.271e-5
-1.031, -1.285e-5
-1.030, -1.307e-5
-1.029, -1.318e-5
-1.028, -1.344e-5
-1.027, -1.354e-5
-1.026, -1.371e-5
-1.025, -1.392e-5
-1.024, -1.414e-5
-1.023, -1.438e-5
-1.022, -1.459e-5
-1.021, -1.474e-5
-1.020, -1.489e-5
-1.019, -1.517e-5
-1.018, -1.538e-5
-1.017, -1.560e-5
-1.016, -1.581e-5
-1.015, -1.599e-5
-1.014, -1.623e-5
-1.013, -1.646e-5
-1.012, -1.669e-5
-1.011, -1.698e-5
-1.010, -1.721e-5
-1.009, -1.748e-5
-1.008, -1.772e-5
-1.007, -1.795e-5
-1.006, -1.824e-5
-1.005, -1.847e-5
-1.004, -1.873e-5
-1.003, -1.927e-5
-1.002, -1.949e-5
-1.001, -1.988e-5
-1.000, -1.502e-5
-1.001, -1.150e-5
-1.002, -9.713e-6
-1.003, -8.300e-6
-1.004, -7.173e-6
-1.005, -6.080e-6
-1.006, -5.199e-6
-1.007, -4.408e-6
-1.008, -3.688e-6
-1.009, -3.028e-6
-1.010, -2.406e-6
-1.011, -1.864e-6
-1.012, -1.410e-6
-1.013, -8.990e-7
-1.014, -4.935e-7
-1.015, -2.585e-8
-1.016, 3.047e-7
-1.017, 5.927e-7
-1.018, 9.854e-7
-1.019, 1.249e-6
-1.020, 1.563e-6
-1.021, 1.817e-6
-1.022, 2.030e-6
-1.023, 2.292e-6
-1.024, 2.525e-6
-1.025, 2.733e-6
-1.026, 2.929e-6
-1.027, 3.055e-6
-1.028, 3.234e-6
-1.029, 3.416e-6
-1.030, 3.590e-6
-1.031, 3.776e-6
-1.032, 3.811e-6
-1.033, 3.985e-6
-1.034, 4.107e-6
-1.035, 4.188e-6
-1.036, 4.348e-6
-1.037, 4.435e-6
-1.038, 4.548e-6
-1.039, 4.637e-6
-1.040, 4.714e-6
-1.041, 4.782e-6
-1.042, 4.845e-6
-1.043, 4.912e-6
-1.044, 5.021e-6
-1.045, 5.086e-6
-1.046, 5.154e-6
-1.047, 5.178e-6
-1.048, 5.235e-6
-1.049, 5.316e-6
-1.050, 5.384e-6
-1.051, 5.389e-6
-1.052, 5.470e-6
-1.053, 5.527e-6
-1.054, 5.505e-6
-1.055, 5.591e-6
-1.056, 5.588e-6
-1.057, 5.611e-6
-1.058, 5.660e-6
-1.059, 5.666e-6
-1.060, 5.736e-6
-1.061, 5.761e-6
-1.062, 5.742e-6
-1.063, 5.791e-6
-1.064, 5.771e-6
-1.065, 5.872e-6
-1.066, 5.872e-6
-1.067, 5.837e-6
-1.068, 5.910e-6
-1.069, 5.906e-6
-1.070, 5.933e-6
-1.071, 5.982e-6
-1.072, 5.905e-6
-1.073, 5.959e-6
-1.074, 6.005e-6
-1.075, 6.012e-6
-1.076, 6.010e-6
-1.077, 5.991e-6
-1.078, 6.001e-6
-1.079, 6.048e-6
-1.080, 6.030e-6
-1.081, 6.034e-6
-1.082, 6.067e-6
-1.083, 6.042e-6
-1.084, 6.051e-6
-1.085, 6.073e-6
-1.086, 6.057e-6
-1.087, 6.052e-6
-1.088, 6.061e-6
-1.089, 6.100e-6
-1.090, 6.078e-6
-1.091, 6.061e-6
-1.092, 6.088e-6
-1.093, 6.044e-6
-1.094, 6.068e-6
-1.095, 6.096e-6
-1.096, 6.084e-6
-1.097, 6.080e-6
-1.098, 6.108e-6
-1.099, 6.074e-6
-1.100, 6.102e-6
-1.101, 6.106e-6
-1.102, 6.068e-6
-1.103, 6.088e-6
-1.104, 6.102e-6
-1.105, 6.071e-6
-1.106, 6.101e-6
-1.107, 6.083e-6
-1.108, 6.064e-6
-1.109, 6.060e-6
-1.110, 6.073e-6
-1.111, 6.121e-6
-1.112, 6.060e-6
-1.113, 6.069e-6
-1.114, 6.125e-6
-1.115, 6.095e-6
-1.116, 6.046e-6
-1.117, 6.060e-6
-1.118, 6.056e-6
-1.119, 6.077e-6
-1.120, 6.073e-6
-1.121, 6.088e-6
-1.122, 6.032e-6
-1.123, 6.040e-6
-1.124, 6.122e-6
-1.125, 6.057e-6
-1.126, 6.103e-6
-1.127, 6.077e-6
-1.128, 6.010e-6
-1.129, 6.061e-6
-1.130, 6.055e-6
-1.131, 6.022e-6
-1.132, 6.023e-6
-1.133, 6.017e-6
-1.134, 6.038e-6
-1.135, 6.029e-6
-1.136, 6.026e-6
-1.137, 5.989e-6
-1.138, 6.018e-6
-1.139, 6.019e-6
-1.140, 6.057e-6
-1.141, 6.061e-6
-1.142, 6.057e-6
-1.143, 6.078e-6
-1.144, 6.032e-6
-1.145, 6.021e-6
-1.146, 6.045e-6
-1.147, 5.988e-6
-1.148, 5.998e-6
-1.149, 6.016e-6
-1.150, 6.012e-6
-1.151, 6.008e-6
-1.152, 5.972e-6
-1.153, 5.994e-6
-1.154, 6.014e-6
-1.155, 5.979e-6
-1.156, 5.983e-6
-1.157, 5.944e-6
-1.158, 5.948e-6
-1.159, 5.973e-6
-1.160, 5.949e-6
-1.161, 5.973e-6
-1.162, 5.932e-6
-1.163, 5.928e-6
-1.164, 5.953e-6
-1.165, 5.961e-6
-1.166, 5.918e-6
-1.167, 5.940e-6
-1.168, 5.895e-6
-1.169, 5.939e-6
-1.170, 5.943e-6
-1.171, 5.917e-6
-1.172, 5.909e-6
-1.173, 5.910e-6
-1.174, 5.897e-6
-1.175, 5.967e-6
-1.176, 5.885e-6
-1.177, 5.908e-6
-1.178, 5.909e-6
-1.179, 5.876e-6
-1.180, 5.908e-6
-1.181, 5.921e-6
-1.182, 5.889e-6
-1.183, 5.915e-6
-1.184, 5.886e-6
-1.185, 5.889e-6
-1.186, 5.908e-6
-1.187, 5.848e-6
-1.188, 5.884e-6
-1.189, 5.890e-6
-1.190, 5.919e-6
-1.191, 5.909e-6
-1.192, 5.860e-6
-1.193, 5.843e-6
-1.194, 5.897e-6
-1.195, 5.855e-6
-1.196, 5.918e-6
-1.197, 5.878e-6
-1.198, 5.841e-6
-1.199, 5.854e-6
-1.200, 5.841e-6
-1.201, 5.858e-6
-1.202, 5.877e-6
-1.203, 5.889e-6
-1.204, 5.898e-6
-1.205, 5.900e-6
-1.206, 5.845e-6
-1.207, 5.870e-6
-1.208, 5.895e-6
-1.209, 5.910e-6
-1.210, 5.894e-6
-1.211, 5.901e-6
-1.212, 5.902e-6
-1.213, 5.885e-6
-1.214, 5.911e-6
-1.215, 5.939e-6
-1.216, 5.943e-6
-1.217, 5.905e-6
-1.218, 5.978e-6
-1.219, 5.934e-6
-1.220, 5.995e-6
-1.221, 5.955e-6
-1.222, 5.970e-6
-1.223, 6.029e-6
-1.224, 5.992e-6
-1.225, 5.952e-6
-1.226, 6.012e-6
-1.227, 5.976e-6
-1.228, 6.040e-6
-1.229, 6.085e-6
-1.230, 6.031e-6
-1.231, 6.073e-6
-1.232, 6.026e-6
-1.233, 6.043e-6
-1.234, 6.094e-6
-1.235, 6.080e-6
-1.236, 6.091e-6
-1.237, 6.105e-6
-1.238, 6.116e-6
-1.239, 6.159e-6
-1.240, 6.145e-6
-1.241, 6.155e-6
-1.242, 6.202e-6
-1.243, 6.193e-6
-1.244, 6.225e-6
-1.245, 6.265e-6
-1.246, 6.276e-6
-1.247, 6.266e-6
-1.248, 6.321e-6
-1.249, 6.310e-6
-1.250, 6.375e-6
-1.251, 6.395e-6
-1.252, 6.405e-6
-1.253, 6.484e-6
-1.254, 6.509e-6
-1.255, 6.564e-6
-1.256, 6.560e-6
-1.257, 6.548e-6
-1.258, 6.630e-6
-1.259, 6.633e-6
-1.260, 6.645e-6
-1.261, 6.715e-6
-1.262, 6.726e-6
-1.263, 6.789e-6
-1.264, 6.800e-6
-1.265, 6.865e-6
-1.266, 6.973e-6
-1.267, 6.960e-6
-1.268, 7.018e-6
-1.269, 7.048e-6
-1.270, 7.112e-6
-1.271, 7.161e-6
-1.272, 7.197e-6
-1.273, 7.272e-6
-1.274, 7.378e-6
-1.275, 7.389e-6
-1.276, 7.481e-6
-1.277, 7.523e-6
-1.278, 7.582e-6
-1.279, 7.709e-6
-1.280, 7.771e-6
-1.281, 7.852e-6
-1.282, 7.892e-6
-1.283, 7.942e-6
-1.284, 8.049e-6
-1.285, 8.118e-6
-1.286, 8.213e-6
-1.287, 8.273e-6
-1.288, 8.335e-6
-1.289, 8.477e-6
-1.290, 8.561e-6
-1.291, 8.651e-6
-1.292, 8.775e-6
-1.293, 8.879e-6
-1.294, 8.983e-6
-1.295, 9.108e-6
-1.296, 9.153e-6
-1.297, 9.243e-6
-1.298, 9.367e-6
-1.299, 9.560e-6
-1.300, 9.630e-6
-1.301, 9.765e-6
-1.302, 9.886e-6
-1.303, 1.001e-5
-1.304, 1.020e-5
-1.305, 1.040e-5
-1.306, 1.048e-5
-1.307, 1.062e-5
-1.308, 1.076e-5
-1.309, 1.091e-5
-1.310, 1.104e-5
-1.311, 1.123e-5
-1.312, 1.141e-5
-1.313, 1.153e-5
-1.314, 1.176e-5
-1.315, 1.189e-5
-1.316, 1.210e-5
-1.317, 1.224e-5
-1.318, 1.245e-5
-1.319, 1.269e-5
-1.320, 1.291e-5
-1.321, 1.306e-5
-1.322, 1.329e-5
-1.323, 1.350e-5
-1.324, 1.375e-5
-1.325, 1.400e-5
-1.326, 1.424e-5
-1.327, 1.450e-5
-1.328, 1.471e-5
-1.329, 1.499e-5
-1.330, 1.532e-5
-1.331, 1.558e-5
-1.332, 1.588e-5
-1.333, 1.611e-5
-1.334, 1.635e-5
-1.335, 1.665e-5
-1.336, 1.688e-5
-1.337, 1.716e-5
-1.338, 1.755e-5
-1.339, 1.782e-5
-1.340, 1.815e-5
-1.341, 1.846e-5
-1.342, 1.883e-5
-1.343, 1.923e-5
-1.344, 1.955e-5
-1.345, 2.000e-5
-1.346, 2.034e-5
-1.347, 2.070e-5
-1.348, 2.108e-5
-1.349, 2.148e-5
-1.350, 2.190e-5
-1.351, 2.233e-5
-1.352, 2.268e-5
-1.353, 2.323e-5
-1.354, 2.372e-5
-1.355, 2.415e-5
-1.356, 2.458e-5
-1.357, 2.514e-5
-1.358, 2.562e-5
-1.359, 2.613e-5
-1.360, 2.667e-5
-1.361, 2.709e-5
-1.362, 2.769e-5
-1.363, 2.829e-5
-1.364, 2.886e-5
-1.365, 2.944e-5
-1.366, 3.001e-5
-1.367, 3.065e-5
-1.368, 3.124e-5
-1.369, 3.189e-5
-1.370, 3.259e-5
-1.371, 3.320e-5
-1.372, 3.390e-5
-1.373, 3.460e-5
-1.374, 3.533e-5
-1.375, 3.607e-5
-1.376, 3.678e-5
-1.377, 3.755e-5
-1.378, 3.839e-5
-1.379, 3.911e-5
-1.380, 3.993e-5
-1.381, 4.070e-5
-1.382, 4.165e-5
-1.383, 4.248e-5
-1.384, 4.338e-5
-1.385, 4.432e-5
-1.386, 4.523e-5
-1.387, 4.618e-5
-1.388, 4.713e-5
-1.389, 4.811e-5
-1.390, 4.908e-5
-1.391, 5.018e-5
-1.392, 5.116e-5
-1.393, 5.226e-5
-1.394, 5.330e-5
-1.395, 5.454e-5
-1.396, 5.573e-5
-1.397, 5.680e-5
-1.398, 5.804e-5
-1.399, 5.924e-5
-1.400, 6.049e-5
-1.401, 6.161e-5
-1.402, 6.293e-5
-1.403, 6.418e-5
-1.404, 6.559e-5
-1.405, 6.690e-5
-1.406, 6.830e-5
-1.407, 6.977e-5
-1.408, 7.120e-5
-1.409, 7.262e-5
-1.410, 7.421e-5
-1.411, 7.565e-5
-1.412, 7.720e-5
-1.413, 7.883e-5
-1.414, 8.049e-5
-1.415, 8.218e-5
-1.416, 8.390e-5
-1.417, 8.558e-5
-1.418, 8.734e-5
-1.419, 8.908e-5
-1.420, 9.100e-5
-1.421, 9.285e-5
-1.422, 9.484e-5
-1.423, 9.675e-5
-1.424, 9.874e-5
-1.425, 1.008e-4
-1.426, 1.029e-4
-1.427, 1.050e-4
-1.428, 1.071e-4
-1.429, 1.093e-4
-1.430, 1.114e-4
-1.431, 1.137e-4
-1.432, 1.160e-4
-1.433, 1.183e-4
-1.434, 1.208e-4
-1.435, 1.232e-4
-1.436, 1.258e-4
-1.437, 1.283e-4
-1.438, 1.308e-4
-1.439, 1.333e-4
-1.440, 1.359e-4
-1.441, 1.386e-4
-1.442, 1.413e-4
-1.443, 1.440e-4
-1.444, 1.467e-4
-1.445, 1.497e-4
-1.446, 1.526e-4
-1.447, 1.555e-4
-1.448, 1.586e-4
-1.449, 1.616e-4
-1.450, 1.647e-4
-1.451, 1.679e-4
-1.452, 1.712e-4
-1.453, 1.745e-4
-1.454, 1.777e-4
-1.455, 1.812e-4
-1.456, 1.847e-4
-1.457, 1.879e-4
-1.458, 1.908e-4
-1.459, 1.941e-4
-1.460, 1.979e-4
-1.461, 2.011e-4
-1.462, 2.049e-4
-1.463, 2.089e-4
-1.464, 2.125e-4
-1.465, 2.162e-4
-1.466, 2.202e-4
-1.467, 2.242e-4
-1.468, 2.281e-4
-1.469, 2.319e-4
-1.470, 2.360e-4
-1.471, 2.402e-4
-1.472, 2.437e-4
-1.473, 2.471e-4
-1.474, 2.509e-4
-1.475, 2.551e-4
-1.476, 2.600e-4
-1.477, 2.643e-4
-1.478, 2.687e-4
-1.479, 2.731e-4
-1.480, 2.776e-4
-1.481, 2.822e-4
-1.482, 2.866e-4
-1.483, 2.909e-4
-1.484, 2.956e-4
-1.485, 3.004e-4
-1.486, 3.048e-4
-1.487, 3.093e-4
-1.488, 3.139e-4
-1.489, 3.184e-4
-1.490, 3.229e-4
-1.491, 3.279e-4
-1.492, 3.329e-4
-1.493, 3.380e-4
-1.494, 3.429e-4
-1.495, 3.480e-4
-1.496, 3.534e-4
-1.497, 3.581e-4
-1.498, 3.631e-4
-1.499, 3.683e-4
-1.500, 3.728e-4
-1.501, 3.782e-4
-1.502, 3.822e-4
-1.503, 3.867e-4
-1.504, 3.920e-4
-1.505, 3.971e-4
-1.506, 4.028e-4
-1.507, 4.082e-4
-1.508, 4.139e-4
-1.509, 4.196e-4
-1.510, 4.249e-4
-1.511, 4.303e-4
-1.512, 4.358e-4
-1.513, 4.420e-4
-1.514, 4.478e-4
-1.515, 4.536e-4
-1.516, 4.576e-4
-1.517, 4.600e-4
-1.518, 4.663e-4
-1.519, 4.718e-4
-1.520, 4.778e-4
-1.521, 4.836e-4
-1.522, 4.896e-4
-1.523, 4.962e-4
-1.524, 5.026e-4
-1.525, 5.089e-4
-1.526, 5.147e-4
-1.527, 5.211e-4
-1.528, 5.274e-4
-1.529, 5.333e-4
-1.530, 5.399e-4
-1.531, 5.442e-4
-1.532, 5.501e-4
-1.533, 5.567e-4
-1.534, 5.640e-4
-1.535, 5.710e-4
-1.536, 5.779e-4
-1.537, 5.852e-4
-1.538, 5.918e-4
-1.539, 5.988e-4
-1.540, 6.056e-4
-1.541, 6.126e-4
-1.542, 6.196e-4
-1.543, 6.262e-4
-1.544, 6.323e-4
-1.545, 6.384e-4
-1.546, 6.464e-4
-1.547, 6.537e-4
-1.548, 6.624e-4
-1.549, 6.686e-4
-1.550, 6.753e-4
-1.551, 6.836e-4
-1.552, 6.918e-4
-1.553, 7.006e-4
-1.554, 7.083e-4
-1.555, 7.169e-4
-1.556, 7.260e-4
-1.557, 7.346e-4
-1.558, 7.415e-4
-1.559, 7.487e-4
-1.560, 7.573e-4
-1.561, 7.654e-4
-1.562, 7.745e-4
-1.563, 7.851e-4
-1.564, 7.947e-4
-1.565, 8.039e-4
-1.566, 8.136e-4
-1.567, 8.242e-4
-1.568, 8.363e-4
-1.569, 8.480e-4
-1.570, 8.571e-4
-1.571, 8.687e-4
-1.572, 8.727e-4
-1.573, 8.758e-4
-1.574, 8.852e-4
-1.575, 8.966e-4
-1.576, 9.119e-4
-1.577, 9.226e-4
-1.578, 9.365e-4
-1.579, 9.486e-4
-1.580, 9.612e-4
-1.581, 9.736e-4
-1.582, 9.862e-4
-1.583, 9.965e-4
-1.584, 1.008e-3
-1.585, 1.023e-3
-1.586, 1.036e-3
-1.587, 1.048e-3
-1.588, 1.057e-3
-1.589, 1.067e-3
-1.590, 1.079e-3
-1.591, 1.092e-3
-1.592, 1.109e-3
-1.593, 1.124e-3
-1.594, 1.139e-3
-1.595, 1.154e-3
-1.596, 1.171e-3
-1.597, 1.188e-3
-1.598, 1.204e-3
-1.599, 1.220e-3
-1.600, 1.219e-3
-1.599, 1.203e-3
-1.598, 1.177e-3
-1.597, 1.154e-3
-1.596, 1.138e-3
-1.595, 1.122e-3
-1.594, 1.108e-3
-1.593, 1.091e-3
-1.592, 1.076e-3
-1.591, 1.057e-3
-1.590, 1.040e-3
-1.589, 1.024e-3
-1.588, 1.008e-3
-1.587, 9.912e-4
-1.586, 9.732e-4
-1.585, 9.557e-4
-1.584, 9.385e-4
-1.583, 9.230e-4
-1.582, 9.081e-4
-1.581, 8.958e-4
-1.580, 8.821e-4
-1.579, 8.665e-4
-1.578, 8.544e-4
-1.577, 8.420e-4
-1.576, 8.281e-4
-1.575, 8.145e-4
-1.574, 8.004e-4
-1.573, 7.879e-4
-1.572, 7.749e-4
-1.571, 7.600e-4
-1.570, 7.478e-4
-1.569, 7.352e-4
-1.568, 7.226e-4
-1.567, 7.119e-4
-1.566, 7.007e-4
-1.565, 6.890e-4
-1.564, 6.817e-4
-1.563, 6.712e-4
-1.562, 6.599e-4
-1.561, 6.486e-4
-1.560, 6.380e-4
-1.559, 6.271e-4
-1.558, 6.166e-4
-1.557, 6.041e-4
-1.556, 5.935e-4
-1.555, 5.835e-4
-1.554, 5.741e-4
-1.553, 5.654e-4
-1.552, 5.568e-4
-1.551, 5.475e-4
-1.550, 5.381e-4
-1.549, 5.296e-4
-1.548, 5.199e-4
-1.547, 5.106e-4
-1.546, 5.029e-4
-1.545, 4.940e-4
-1.544, 4.859e-4
-1.543, 4.764e-4
-1.542, 4.676e-4
-1.541, 4.607e-4
-1.540, 4.525e-4
-1.539, 4.457e-4
-1.538, 4.379e-4
-1.537, 4.299e-4
-1.536, 4.230e-4
-1.535, 4.161e-4
-1.534, 4.089e-4
-1.533, 4.018e-4
-1.532, 3.943e-4
-1.531, 3.868e-4
-1.530, 3.811e-4
-1.529, 3.734e-4
-1.528, 3.664e-4
-1.527, 3.596e-4
-1.526, 3.541e-4
-1.525, 3.481e-4
-1.524, 3.425e-4
-1.523, 3.365e-4
-1.522, 3.303e-4
-1.521, 3.244e-4
-1.520, 3.187e-4
-1.519, 3.135e-4
-1.518, 3.079e-4
-1.517, 3.020e-4
-1.516, 2.958e-4
-1.515, 2.896e-4
-1.514, 2.877e-4
-1.513, 2.814e-4
-1.512, 2.761e-4
-1.511, 2.711e-4
-1.510, 2.665e-4
-1.509, 2.608e-4
-1.508, 2.561e-4
-1.507, 2.514e-4
-1.506, 2.467e-4
-1.505, 2.419e-4
-1.504, 2.376e-4
-1.503, 2.337e-4
-1.502, 2.290e-4
-1.501, 2.244e-4
-1.500, 2.196e-4
-1.499, 2.154e-4
-1.498, 2.110e-4
-1.497, 2.076e-4
-1.496, 2.043e-4
-1.495, 2.003e-4
-1.494, 1.964e-4
-1.493, 1.923e-4
-1.492, 1.889e-4
-1.491, 1.860e-4
-1.490, 1.820e-4
-1.489, 1.785e-4
-1.488, 1.750e-4
-1.487, 1.718e-4
-1.486, 1.683e-4
-1.485, 1.653e-4
-1.484, 1.618e-4
-1.483, 1.588e-4
-1.482, 1.558e-4
-1.481, 1.530e-4
-1.480, 1.500e-4
-1.479, 1.471e-4
-1.478, 1.452e-4
-1.477, 1.414e-4
-1.476, 1.386e-4
-1.475, 1.356e-4
-1.474, 1.335e-4
-1.473, 1.307e-4
-1.472, 1.282e-4
-1.471, 1.252e-4
-1.470, 1.226e-4
-1.469, 1.202e-4
-1.468, 1.179e-4
-1.467, 1.158e-4
-1.466, 1.136e-4
-1.465, 1.111e-4
-1.464, 1.092e-4
-1.463, 1.071e-4
-1.462, 1.046e-4
-1.461, 1.023e-4
-1.460, 1.002e-4
-1.459, 9.826e-5
-1.458, 9.637e-5
-1.457, 9.454e-5
-1.456, 9.264e-5
-1.455, 9.074e-5
-1.454, 8.895e-5
-1.453, 8.708e-5
-1.452, 8.545e-5
-1.451, 8.401e-5
-1.450, 8.213e-5
-1.449, 8.041e-5
-1.448, 7.865e-5
-1.447, 7.699e-5
-1.446, 7.554e-5
-1.445, 7.413e-5
-1.444, 7.226e-5
-1.443, 7.073e-5
-1.442, 6.941e-5
-1.441, 6.792e-5
-1.440, 6.659e-5
-1.439, 6.525e-5
-1.438, 6.389e-5
-1.437, 6.324e-5
-1.436, 6.218e-5
-1.435, 5.991e-5
-1.434, 5.864e-5
-1.433, 5.736e-5
-1.432, 5.622e-5
-1.431, 5.496e-5
-1.430, 5.386e-5
-1.429, 5.270e-5
-1.428, 5.165e-5
-1.427, 5.054e-5
-1.426, 4.952e-5
-1.425, 4.844e-5
-1.424, 4.753e-5
-1.423, 4.694e-5
-1.422, 4.536e-5
-1.421, 4.437e-5
-1.420, 4.351e-5
-1.419, 4.267e-5
-1.418, 4.210e-5
-1.417, 4.138e-5
-1.416, 3.999e-5
-1.415, 3.901e-5
-1.414, 3.807e-5
-1.413, 3.732e-5
-1.412, 3.658e-5
-1.411, 3.635e-5
-1.410, 3.540e-5
-1.409, 3.418e-5
-1.408, 3.342e-5
-1.407, 3.272e-5
-1.406, 3.244e-5
-1.405, 3.137e-5
-1.404, 3.060e-5
-1.403, 2.988e-5
-1.402, 2.928e-5
-1.401, 2.857e-5
-1.400, 2.802e-5
-1.399, 2.736e-5
-1.398, 2.671e-5
-1.397, 2.631e-5
-1.396, 2.694e-5
-1.395, 2.509e-5
-1.394, 2.431e-5
-1.393, 2.390e-5
-1.392, 2.359e-5
-1.391, 2.355e-5
-1.390, 2.231e-5
-1.389, 2.172e-5
-1.388, 2.118e-5
-1.387, 2.067e-5
-1.386, 2.026e-5
-1.385, 1.976e-5
-1.384, 1.934e-5
-1.383, 1.892e-5
-1.382, 1.885e-5
-1.381, 1.878e-5
-1.380, 1.761e-5
-1.379, 1.714e-5
-1.378, 1.676e-5
-1.377, 1.638e-5
-1.376, 1.592e-5
-1.375, 1.536e-5
-1.374, 1.496e-5
-1.373, 1.463e-5
-1.372, 1.430e-5
-1.371, 1.391e-5
-1.370, 1.364e-5
-1.369, 1.324e-5
-1.368, 1.295e-5
-1.367, 1.278e-5
-1.366, 1.338e-5
-1.365, 1.239e-5
-1.364, 1.168e-5
-1.363, 1.140e-5
-1.362, 1.115e-5
-1.361, 1.098e-5
-1.360, 1.066e-5
-1.359, 1.032e-5
-1.358, 9.963e-6
-1.357, 9.738e-6
-1.356, 9.471e-6
-1.355, 9.197e-6
-1.354, 8.970e-6
-1.353, 9.404e-6
-1.352, 8.808e-6
-1.351, 8.196e-6
-1.350, 7.952e-6
-1.349, 7.740e-6
-1.348, 7.547e-6
-1.347, 7.308e-6
-1.346, 7.581e-6
-1.345, 7.053e-6
-1.344, 6.658e-6
-1.343, 6.448e-6
-1.342, 6.239e-6
-1.341, 6.419e-6
-1.340, 6.529e-6
-1.339, 5.677e-6
-1.338, 5.456e-6
-1.337, 5.270e-6
-1.336, 5.170e-6
-1.335, 5.046e-6
-1.334, 4.822e-6
-1.333, 4.621e-6
-1.332, 4.441e-6
-1.331, 4.263e-6
-1.330, 4.187e-6
-1.329, 4.041e-6
-1.328, 3.944e-6
-1.327, 4.256e-6
-1.326, 3.849e-6
-1.325, 3.437e-6
-1.324, 3.371e-6
-1.323, 3.384e-6
-1.322, 3.294e-6
-1.321, 3.008e-6
-1.320, 2.753e-6
-1.319, 2.588e-6
-1.318, 2.436e-6
-1.317, 2.352e-6
-1.316, 2.258e-6
-1.315, 2.123e-6
-1.314, 2.020e-6
-1.313, 2.058e-6
-1.312, 2.364e-6
-1.311, 1.746e-6
-1.310, 1.514e-6
-1.309, 1.490e-6
-1.308, 1.408e-6
-1.307, 1.425e-6
-1.306, 1.347e-6
-1.305, 1.152e-6
-1.304, 1.016e-6
-1.303, 8.749e-7
-1.302, 7.328e-7
-1.301, 7.111e-7
-1.300, 6.135e-7
-1.299, 4.961e-7
-1.298, 4.763e-7
-1.297, 5.365e-7
-1.296, 2.415e-7
-1.295, 2.267e-7
-1.294, 1.083e-7
-1.293, 3.631e-8
-1.292, -5.249e-8
-1.291, -9.195e-8
-1.290, -1.807e-7
-1.289, -3.317e-7
-1.288, -3.455e-7
-1.287, -4.452e-7
-1.286, -4.994e-7
-1.285, -5.172e-7
-1.284, -3.850e-7
-1.283, -6.089e-7
-1.282, -6.948e-7
-1.281, -7.806e-7
-1.280, -8.793e-7
-1.279, -9.375e-7
-1.278, -9.986e-7
-1.277, -1.025e-6
-1.276, -1.112e-6
-1.275, -1.172e-6
-1.274, -1.253e-6
-1.273, -1.281e-6
-1.272, -1.308e-6
-1.271, -1.338e-6
-1.270, -1.412e-6
-1.269, -1.490e-6
-1.268, -1.470e-6
-1.267, -1.594e-6
-1.266, -1.642e-6
-1.265, -1.666e-6
-1.264, -1.757e-6
-1.263, -1.733e-6
-1.262, -1.814e-6
-1.261, -1.854e-6
-1.260, -1.886e-6
-1.259, -1.975e-6
-1.258, -1.974e-6
-1.257, -2.014e-6
-1.256, -2.010e-6
-1.255, -2.114e-6
-1.254, -2.187e-6
-1.253, -2.195e-6
-1.252, -2.235e-6
-1.251, -2.265e-6
-1.250, -2.290e-6
-1.249, -2.355e-6
-1.248, -2.372e-6
-1.247, -2.401e-6
-1.246, -2.457e-6
-1.245, -2.460e-6
-1.244, -2.541e-6
-1.243, -2.552e-6
-1.242, -2.552e-6
-1.241, -2.611e-6
-1.240, -2.674e-6
-1.239, -2.693e-6
-1.238, -2.721e-6
-1.237, -2.746e-6
-1.236, -2.782e-6
-1.235, -2.802e-6
-1.234, -2.840e-6
-1.233, -2.848e-6
-1.232, -2.873e-6
-1.231, -2.893e-6
-1.230, -2.917e-6
-1.229, -3.096e-6
-1.228, -3.067e-6
-1.227, -3.068e-6
-1.226, -3.048e-6
-1.225, -3.088e-6
-1.224, -3.140e-6
-1.223, -3.124e-6
-1.222, -3.213e-6
-1.221, -3.214e-6
-1.220, -3.208e-6
-1.219, -3.258e-6
-1.218, -3.265e-6
-1.217, -3.292e-6
-1.216, -3.303e-6
-1.215, -3.311e-6
-1.214, -3.377e-6
-1.213, -3.494e-6
-1.212, -3.511e-6
-1.211, -3.473e-6
-1.210, -3.509e-6
-1.209, -3.501e-6
-1.208, -3.510e-6
-1.207, -3.531e-6
-1.206, -3.567e-6
-1.205, -3.533e-6
-1.204, -3.597e-6
-1.203, -3.621e-6
-1.202, -3.641e-6
-1.201, -3.680e-6
-1.200, -3.786e-6
-1.199, -3.795e-6
-1.198, -3.755e-6
-1.197, -3.713e-6
-1.196, -3.836e-6
-1.195, -3.882e-6
-1.194, -3.894e-6
-1.193, -3.895e-6
-1.192, -3.806e-6
-1.191, -3.851e-6
-1.190, -3.911e-6
-1.189, -3.898e-6
-1.188, -3.996e-6
-1.187, -4.078e-6
-1.186, -4.045e-6
-1.185, -4.005e-6
-1.184, -4.033e-6
-1.183, -4.109e-6
-1.182, -4.171e-6
-1.181, -4.156e-6
-1.180, -4.156e-6
-1.179, -4.194e-6
-1.178, -4.204e-6
-1.177, -4.207e-6
-1.176, -4.207e-6
-1.175, -4.237e-6
-1.174, -4.347e-6
-1.173, -4.427e-6
-1.172, -4.407e-6
-1.171, -4.379e-6
-1.170, -4.386e-6
-1.169, -4.459e-6
-1.168, -4.490e-6
-1.167, -4.462e-6
-1.166, -4.506e-6
-1.165, -4.468e-6
-1.164, -4.520e-6
-1.163, -4.569e-6
-1.162, -4.551e-6
-1.161, -4.730e-6
-1.160, -4.765e-6
-1.159, -4.762e-6
-1.158, -4.755e-6
-1.157, -4.805e-6
-1.156, -4.752e-6
-1.155, -4.806e-6
-1.154, -4.834e-6
-1.153, -4.959e-6
-1.152, -4.952e-6
-1.151, -4.938e-6
-1.150, -4.937e-6
-1.149, -4.949e-6
-1.148, -4.923e-6
-1.147, -4.964e-6
-1.146, -4.976e-6
-1.145, -5.006e-6
-1.144, -5.189e-6
-1.143, -5.272e-6
-1.142, -5.161e-6
-1.141, -5.136e-6
-1.140, -5.225e-6
-1.139, -5.301e-6
-1.138, -5.309e-6
-1.137, -5.293e-6
-1.136, -5.273e-6
-1.135, -5.319e-6
-1.134, -5.354e-6
-1.133, -5.381e-6
-1.132, -5.448e-6
-1.131, -5.638e-6
-1.130, -5.581e-6
-1.129, -5.566e-6
-1.128, -5.570e-6
-1.127, -5.571e-6
-1.126, -5.813e-6
-1.125, -5.790e-6
-1.124, -5.760e-6
-1.123, -5.790e-6
-1.122, -5.749e-6
-1.121, -5.769e-6
-1.120, -5.832e-6
-1.119, -5.884e-6
-1.118, -5.935e-6
-1.117, -6.167e-6
-1.116, -6.113e-6
-1.115, -6.076e-6
-1.114, -6.098e-6
-1.113, -6.246e-6
-1.112, -6.221e-6
-1.111, -6.282e-6
-1.110, -6.295e-6
-1.109, -6.345e-6
-1.108, -6.309e-6
-1.107, -6.435e-6
-1.106, -6.451e-6
-1.105, -6.547e-6
-1.104, -6.594e-6
-1.103, -6.775e-6
-1.102, -6.786e-6
-1.101, -6.741e-6
-1.100, -6.776e-6
-1.099, -6.845e-6
-1.098, -6.883e-6
-1.097, -6.913e-6
-1.096, -6.971e-6
-1.095, -6.986e-6
-1.094, -7.049e-6
-1.093, -7.089e-6
-1.092, -7.127e-6
-1.091, -7.187e-6
-1.090, -7.311e-6
-1.089, -7.536e-6
-1.088, -7.447e-6
-1.087, -7.478e-6
-1.086, -7.485e-6
-1.085, -7.612e-6
-1.084, -7.651e-6
-1.083, -7.635e-6
-1.082, -7.691e-6
-1.081, -7.769e-6
-1.080, -7.799e-6
-1.079, -7.834e-6
-1.078, -7.945e-6
-1.077, -7.943e-6
-1.076, -8.136e-6
-1.075, -8.427e-6
-1.074, -8.360e-6
-1.073, -8.362e-6
-1.072, -8.326e-6
-1.071, -8.553e-6
-1.070, -8.592e-6
-1.069, -8.674e-6
-1.068, -8.759e-6
-1.067, -8.801e-6
-1.066, -8.806e-6
-1.065, -8.916e-6
-1.064, -8.987e-6
-1.063, -9.069e-6
-1.062, -9.283e-6
-1.061, -9.534e-6
-1.060, -9.411e-6
-1.059, -9.521e-6
-1.058, -9.557e-6
-1.057, -9.642e-6
-1.056, -9.660e-6
-1.055, -9.775e-6
-1.054, -9.916e-6
-1.053, -9.948e-6
-1.052, -1.008e-5
-1.051, -1.024e-5
-1.050, -1.047e-5
-1.049, -1.057e-5
-1.048, -1.069e-5
-1.047, -1.081e-5
-1.046, -1.084e-5
-1.045, -1.090e-5
-1.044, -1.108e-5
-1.043, -1.127e-5
-1.042, -1.134e-5
-1.041, -1.151e-5
-1.040, -1.160e-5
-1.039, -1.169e-5
-1.038, -1.182e-5
-1.037, -1.197e-5
-1.036, -1.212e-5
-1.035, -1.247e-5
-1.034, -1.272e-5
-1.033, -1.268e-5
-1.032, -1.274e-5
-1.031, -1.297e-5
-1.030, -1.325e-5
-1.029, -1.331e-5
-1.028, -1.349e-5
-1.027, -1.369e-5
-1.026, -1.381e-5
-1.025, -1.397e-5
-1.024, -1.417e-5
-1.023, -1.432e-5
-1.022, -1.454e-5
-1.021, -1.487e-5
-1.020, -1.527e-5
-1.019, -1.533e-5
-1.018, -1.549e-5
-1.017, -1.568e-5
-1.016, -1.592e-5
-1.015, -1.613e-5
-1.014, -1.640e-5
-1.013, -1.648e-5
-1.012, -1.668e-5
-1.011, -1.695e-5
-1.010, -1.719e-5
-1.009, -1.759e-5
-1.008, -1.797e-5
-1.007, -1.819e-5
-1.006, -1.835e-5
-1.005, -1.858e-5
-1.004, -1.908e-5
-1.003, -1.910e-5
-1.002, -1.934e-5
-1.001, -1.985e-5
