July 11, 2024   12:06:53
Linear Sweep Voltammetry
File: c:/users/guazh/data/20240709_batch67/2024-07-10-exp10\regeneratedgce-2024-07-11t12_02_18-lsvinkoh\regeneratedgce_lsv_50mvs_efin_-1900mv.bin
Data Source:  Experiment
Instrument Model:  CHI760E
Header: LSV ran at 50 mVs with Efin at -1900mV
Note: 

Init E (V) = -0.6
Final E (V) = -1.9
Scan Rate (V/s) = 0.05
Sample Interval (V) = 0.001
Quiet Time (sec) = 2
Sensitivity (A/V) = 1e-4
Comp R (ohm) = 1.8

Results:

Channel 1:

Potential/V, Current/A

-0.600, 1.116e-6
-0.601, 1.213e-6
-0.602, 1.249e-6
-0.603, 1.264e-6
-0.604, 1.273e-6
-0.605, 1.282e-6
-0.606, 1.292e-6
-0.607, 1.301e-6
-0.608, 1.308e-6
-0.609, 1.309e-6
-0.610, 1.311e-6
-0.611, 1.318e-6
-0.612, 1.325e-6
-0.613, 1.327e-6
-0.614, 1.329e-6
-0.615, 1.331e-6
-0.616, 1.336e-6
-0.617, 1.342e-6
-0.618, 1.342e-6
-0.619, 1.342e-6
-0.620, 1.343e-6
-0.621, 1.348e-6
-0.622, 1.353e-6
-0.623, 1.353e-6
-0.624, 1.352e-6
-0.625, 1.353e-6
-0.626, 1.357e-6
-0.627, 1.362e-6
-0.628, 1.361e-6
-0.629, 1.359e-6
-0.630, 1.360e-6
-0.631, 1.365e-6
-0.632, 1.369e-6
-0.633, 1.369e-6
-0.634, 1.367e-6
-0.635, 1.368e-6
-0.636, 1.372e-6
-0.637, 1.375e-6
-0.638, 1.375e-6
-0.639, 1.373e-6
-0.640, 1.375e-6
-0.641, 1.380e-6
-0.642, 1.383e-6
-0.643, 1.383e-6
-0.644, 1.381e-6
-0.645, 1.382e-6
-0.646, 1.386e-6
-0.647, 1.390e-6
-0.648, 1.388e-6
-0.649, 1.387e-6
-0.650, 1.387e-6
-0.651, 1.391e-6
-0.652, 1.396e-6
-0.653, 1.394e-6
-0.654, 1.393e-6
-0.655, 1.393e-6
-0.656, 1.398e-6
-0.657, 1.401e-6
-0.658, 1.401e-6
-0.659, 1.400e-6
-0.660, 1.401e-6
-0.661, 1.405e-6
-0.662, 1.409e-6
-0.663, 1.407e-6
-0.664, 1.406e-6
-0.665, 1.407e-6
-0.666, 1.413e-6
-0.667, 1.417e-6
-0.668, 1.415e-6
-0.669, 1.414e-6
-0.670, 1.415e-6
-0.671, 1.418e-6
-0.672, 1.423e-6
-0.673, 1.422e-6
-0.674, 1.420e-6
-0.675, 1.420e-6
-0.676, 1.426e-6
-0.677, 1.429e-6
-0.678, 1.429e-6
-0.679, 1.429e-6
-0.680, 1.429e-6
-0.681, 1.434e-6
-0.682, 1.437e-6
-0.683, 1.437e-6
-0.684, 1.436e-6
-0.685, 1.435e-6
-0.686, 1.442e-6
-0.687, 1.445e-6
-0.688, 1.444e-6
-0.689, 1.444e-6
-0.690, 1.445e-6
-0.691, 1.450e-6
-0.692, 1.454e-6
-0.693, 1.453e-6
-0.694, 1.454e-6
-0.695, 1.454e-6
-0.696, 1.458e-6
-0.697, 1.461e-6
-0.698, 1.463e-6
-0.699, 1.462e-6
-0.700, 1.463e-6
-0.701, 1.468e-6
-0.702, 1.472e-6
-0.703, 1.471e-6
-0.704, 1.471e-6
-0.705, 1.472e-6
-0.706, 1.477e-6
-0.707, 1.482e-6
-0.708, 1.481e-6
-0.709, 1.479e-6
-0.710, 1.482e-6
-0.711, 1.487e-6
-0.712, 1.491e-6
-0.713, 1.491e-6
-0.714, 1.490e-6
-0.715, 1.492e-6
-0.716, 1.497e-6
-0.717, 1.502e-6
-0.718, 1.502e-6
-0.719, 1.501e-6
-0.720, 1.503e-6
-0.721, 1.508e-6
-0.722, 1.512e-6
-0.723, 1.512e-6
-0.724, 1.512e-6
-0.725, 1.513e-6
-0.726, 1.520e-6
-0.727, 1.523e-6
-0.728, 1.523e-6
-0.729, 1.524e-6
-0.730, 1.525e-6
-0.731, 1.531e-6
-0.732, 1.536e-6
-0.733, 1.534e-6
-0.734, 1.535e-6
-0.735, 1.537e-6
-0.736, 1.543e-6
-0.737, 1.546e-6
-0.738, 1.546e-6
-0.739, 1.547e-6
-0.740, 1.549e-6
-0.741, 1.554e-6
-0.742, 1.559e-6
-0.743, 1.558e-6
-0.744, 1.559e-6
-0.745, 1.562e-6
-0.746, 1.567e-6
-0.747, 1.571e-6
-0.748, 1.571e-6
-0.749, 1.570e-6
-0.750, 1.574e-6
-0.751, 1.578e-6
-0.752, 1.583e-6
-0.753, 1.583e-6
-0.754, 1.582e-6
-0.755, 1.586e-6
-0.756, 1.592e-6
-0.757, 1.595e-6
-0.758, 1.596e-6
-0.759, 1.596e-6
-0.760, 1.598e-6
-0.761, 1.605e-6
-0.762, 1.608e-6
-0.763, 1.609e-6
-0.764, 1.609e-6
-0.765, 1.611e-6
-0.766, 1.616e-6
-0.767, 1.621e-6
-0.768, 1.623e-6
-0.769, 1.623e-6
-0.770, 1.624e-6
-0.771, 1.631e-6
-0.772, 1.634e-6
-0.773, 1.633e-6
-0.774, 1.635e-6
-0.775, 1.636e-6
-0.776, 1.643e-6
-0.777, 1.647e-6
-0.778, 1.646e-6
-0.779, 1.646e-6
-0.780, 1.650e-6
-0.781, 1.656e-6
-0.782, 1.659e-6
-0.783, 1.658e-6
-0.784, 1.659e-6
-0.785, 1.664e-6
-0.786, 1.668e-6
-0.787, 1.672e-6
-0.788, 1.671e-6
-0.789, 1.672e-6
-0.790, 1.676e-6
-0.791, 1.680e-6
-0.792, 1.684e-6
-0.793, 1.685e-6
-0.794, 1.685e-6
-0.795, 1.688e-6
-0.796, 1.693e-6
-0.797, 1.698e-6
-0.798, 1.697e-6
-0.799, 1.698e-6
-0.800, 1.701e-6
-0.801, 1.707e-6
-0.802, 1.710e-6
-0.803, 1.710e-6
-0.804, 1.710e-6
-0.805, 1.713e-6
-0.806, 1.719e-6
-0.807, 1.723e-6
-0.808, 1.722e-6
-0.809, 1.724e-6
-0.810, 1.726e-6
-0.811, 1.733e-6
-0.812, 1.735e-6
-0.813, 1.734e-6
-0.814, 1.735e-6
-0.815, 1.738e-6
-0.816, 1.745e-6
-0.817, 1.748e-6
-0.818, 1.746e-6
-0.819, 1.751e-6
-0.820, 1.755e-6
-0.821, 1.758e-6
-0.822, 1.762e-6
-0.823, 1.761e-6
-0.824, 1.760e-6
-0.825, 1.764e-6
-0.826, 1.769e-6
-0.827, 1.773e-6
-0.828, 1.772e-6
-0.829, 1.772e-6
-0.830, 1.777e-6
-0.831, 1.781e-6
-0.832, 1.784e-6
-0.833, 1.784e-6
-0.834, 1.784e-6
-0.835, 1.788e-6
-0.836, 1.793e-6
-0.837, 1.796e-6
-0.838, 1.795e-6
-0.839, 1.796e-6
-0.840, 1.799e-6
-0.841, 1.804e-6
-0.842, 1.807e-6
-0.843, 1.806e-6
-0.844, 1.806e-6
-0.845, 1.812e-6
-0.846, 1.817e-6
-0.847, 1.818e-6
-0.848, 1.819e-6
-0.849, 1.819e-6
-0.850, 1.821e-6
-0.851, 1.828e-6
-0.852, 1.831e-6
-0.853, 1.829e-6
-0.854, 1.831e-6
-0.855, 1.834e-6
-0.856, 1.839e-6
-0.857, 1.842e-6
-0.858, 1.840e-6
-0.859, 1.841e-6
-0.860, 1.846e-6
-0.861, 1.850e-6
-0.862, 1.853e-6
-0.863, 1.852e-6
-0.864, 1.853e-6
-0.865, 1.856e-6
-0.866, 1.862e-6
-0.867, 1.864e-6
-0.868, 1.862e-6
-0.869, 1.863e-6
-0.870, 1.868e-6
-0.871, 1.875e-6
-0.872, 1.875e-6
-0.873, 1.875e-6
-0.874, 1.875e-6
-0.875, 1.877e-6
-0.876, 1.885e-6
-0.877, 1.886e-6
-0.878, 1.886e-6
-0.879, 1.885e-6
-0.880, 1.889e-6
-0.881, 1.896e-6
-0.882, 1.896e-6
-0.883, 1.896e-6
-0.884, 1.897e-6
-0.885, 1.900e-6
-0.886, 1.906e-6
-0.887, 1.907e-6
-0.888, 1.906e-6
-0.889, 1.908e-6
-0.890, 1.911e-6
-0.891, 1.917e-6
-0.892, 1.919e-6
-0.893, 1.917e-6
-0.894, 1.918e-6
-0.895, 1.923e-6
-0.896, 1.928e-6
-0.897, 1.930e-6
-0.898, 1.928e-6
-0.899, 1.929e-6
-0.900, 1.934e-6
-0.901, 1.938e-6
-0.902, 1.941e-6
-0.903, 1.939e-6
-0.904, 1.940e-6
-0.905, 1.944e-6
-0.906, 1.949e-6
-0.907, 1.951e-6
-0.908, 1.949e-6
-0.909, 1.952e-6
-0.910, 1.955e-6
-0.911, 1.960e-6
-0.912, 1.962e-6
-0.913, 1.962e-6
-0.914, 1.962e-6
-0.915, 1.966e-6
-0.916, 1.973e-6
-0.917, 1.973e-6
-0.918, 1.973e-6
-0.919, 1.973e-6
-0.920, 1.978e-6
-0.921, 1.984e-6
-0.922, 1.985e-6
-0.923, 1.985e-6
-0.924, 1.987e-6
-0.925, 1.990e-6
-0.926, 1.996e-6
-0.927, 1.997e-6
-0.928, 1.996e-6
-0.929, 1.998e-6
-0.930, 2.003e-6
-0.931, 2.008e-6
-0.932, 2.009e-6
-0.933, 2.008e-6
-0.934, 2.009e-6
-0.935, 2.014e-6
-0.936, 2.021e-6
-0.937, 2.023e-6
-0.938, 2.021e-6
-0.939, 2.023e-6
-0.940, 2.027e-6
-0.941, 2.033e-6
-0.942, 2.036e-6
-0.943, 2.033e-6
-0.944, 2.036e-6
-0.945, 2.040e-6
-0.946, 2.046e-6
-0.947, 2.048e-6
-0.948, 2.047e-6
-0.949, 2.048e-6
-0.950, 2.054e-6
-0.951, 2.060e-6
-0.952, 2.060e-6
-0.953, 2.061e-6
-0.954, 2.062e-6
-0.955, 2.067e-6
-0.956, 2.072e-6
-0.957, 2.073e-6
-0.958, 2.074e-6
-0.959, 2.075e-6
-0.960, 2.081e-6
-0.961, 2.087e-6
-0.962, 2.087e-6
-0.963, 2.088e-6
-0.964, 2.089e-6
-0.965, 2.094e-6
-0.966, 2.100e-6
-0.967, 2.101e-6
-0.968, 2.101e-6
-0.969, 2.103e-6
-0.970, 2.107e-6
-0.971, 2.114e-6
-0.972, 2.115e-6
-0.973, 2.117e-6
-0.974, 2.118e-6
-0.975, 2.124e-6
-0.976, 2.129e-6
-0.977, 2.130e-6
-0.978, 2.129e-6
-0.979, 2.131e-6
-0.980, 2.138e-6
-0.981, 2.143e-6
-0.982, 2.144e-6
-0.983, 2.143e-6
-0.984, 2.145e-6
-0.985, 2.150e-6
-0.986, 2.157e-6
-0.987, 2.157e-6
-0.988, 2.157e-6
-0.989, 2.159e-6
-0.990, 2.166e-6
-0.991, 2.169e-6
-0.992, 2.170e-6
-0.993, 2.172e-6
-0.994, 2.172e-6
-0.995, 2.177e-6
-0.996, 2.184e-6
-0.997, 2.185e-6
-0.998, 2.185e-6
-0.999, 2.186e-6
-1.000, 2.192e-6
-1.001, 2.198e-6
-1.002, 2.198e-6
-1.003, 2.198e-6
-1.004, 2.200e-6
-1.005, 2.204e-6
-1.006, 2.212e-6
-1.007, 2.212e-6
-1.008, 2.212e-6
-1.009, 2.213e-6
-1.010, 2.218e-6
-1.011, 2.224e-6
-1.012, 2.225e-6
-1.013, 2.224e-6
-1.014, 2.227e-6
-1.015, 2.232e-6
-1.016, 2.238e-6
-1.017, 2.239e-6
-1.018, 2.237e-6
-1.019, 2.239e-6
-1.020, 2.246e-6
-1.021, 2.251e-6
-1.022, 2.251e-6
-1.023, 2.251e-6
-1.024, 2.255e-6
-1.025, 2.262e-6
-1.026, 2.265e-6
-1.027, 2.266e-6
-1.028, 2.265e-6
-1.029, 2.268e-6
-1.030, 2.274e-6
-1.031, 2.280e-6
-1.032, 2.279e-6
-1.033, 2.280e-6
-1.034, 2.281e-6
-1.035, 2.287e-6
-1.036, 2.293e-6
-1.037, 2.294e-6
-1.038, 2.294e-6
-1.039, 2.294e-6
-1.040, 2.302e-6
-1.041, 2.309e-6
-1.042, 2.306e-6
-1.043, 2.308e-6
-1.044, 2.309e-6
-1.045, 2.316e-6
-1.046, 2.323e-6
-1.047, 2.322e-6
-1.048, 2.321e-6
-1.049, 2.325e-6
-1.050, 2.332e-6
-1.051, 2.337e-6
-1.052, 2.336e-6
-1.053, 2.337e-6
-1.054, 2.340e-6
-1.055, 2.345e-6
-1.056, 2.352e-6
-1.057, 2.354e-6
-1.058, 2.352e-6
-1.059, 2.354e-6
-1.060, 2.361e-6
-1.061, 2.367e-6
-1.062, 2.367e-6
-1.063, 2.367e-6
-1.064, 2.371e-6
-1.065, 2.377e-6
-1.066, 2.382e-6
-1.067, 2.382e-6
-1.068, 2.383e-6
-1.069, 2.385e-6
-1.070, 2.393e-6
-1.071, 2.397e-6
-1.072, 2.398e-6
-1.073, 2.399e-6
-1.074, 2.401e-6
-1.075, 2.409e-6
-1.076, 2.414e-6
-1.077, 2.415e-6
-1.078, 2.414e-6
-1.079, 2.417e-6
-1.080, 2.423e-6
-1.081, 2.430e-6
-1.082, 2.429e-6
-1.083, 2.430e-6
-1.084, 2.431e-6
-1.085, 2.439e-6
-1.086, 2.443e-6
-1.087, 2.443e-6
-1.088, 2.443e-6
-1.089, 2.448e-6
-1.090, 2.453e-6
-1.091, 2.458e-6
-1.092, 2.458e-6
-1.093, 2.459e-6
-1.094, 2.462e-6
-1.095, 2.468e-6
-1.096, 2.473e-6
-1.097, 2.474e-6
-1.098, 2.473e-6
-1.099, 2.477e-6
-1.100, 2.483e-6
-1.101, 2.488e-6
-1.102, 2.488e-6
-1.103, 2.489e-6
-1.104, 2.491e-6
-1.105, 2.499e-6
-1.106, 2.503e-6
-1.107, 2.504e-6
-1.108, 2.504e-6
-1.109, 2.507e-6
-1.110, 2.515e-6
-1.111, 2.518e-6
-1.112, 2.519e-6
-1.113, 2.520e-6
-1.114, 2.524e-6
-1.115, 2.531e-6
-1.116, 2.535e-6
-1.117, 2.534e-6
-1.118, 2.536e-6
-1.119, 2.539e-6
-1.120, 2.546e-6
-1.121, 2.551e-6
-1.122, 2.550e-6
-1.123, 2.552e-6
-1.124, 2.555e-6
-1.125, 2.562e-6
-1.126, 2.567e-6
-1.127, 2.567e-6
-1.128, 2.567e-6
-1.129, 2.573e-6
-1.130, 2.579e-6
-1.131, 2.585e-6
-1.132, 2.583e-6
-1.133, 2.583e-6
-1.134, 2.589e-6
-1.135, 2.595e-6
-1.136, 2.599e-6
-1.137, 2.599e-6
-1.138, 2.599e-6
-1.139, 2.604e-6
-1.140, 2.612e-6
-1.141, 2.614e-6
-1.142, 2.615e-6
-1.143, 2.615e-6
-1.144, 2.619e-6
-1.145, 2.627e-6
-1.146, 2.631e-6
-1.147, 2.631e-6
-1.148, 2.630e-6
-1.149, 2.635e-6
-1.150, 2.643e-6
-1.151, 2.647e-6
-1.152, 2.646e-6
-1.153, 2.648e-6
-1.154, 2.653e-6
-1.155, 2.660e-6
-1.156, 2.663e-6
-1.157, 2.662e-6
-1.158, 2.663e-6
-1.159, 2.666e-6
-1.160, 2.675e-6
-1.161, 2.679e-6
-1.162, 2.677e-6
-1.163, 2.679e-6
-1.164, 2.684e-6
-1.165, 2.691e-6
-1.166, 2.695e-6
-1.167, 2.692e-6
-1.168, 2.695e-6
-1.169, 2.699e-6
-1.170, 2.706e-6
-1.171, 2.710e-6
-1.172, 2.708e-6
-1.173, 2.709e-6
-1.174, 2.715e-6
-1.175, 2.722e-6
-1.176, 2.725e-6
-1.177, 2.725e-6
-1.178, 2.727e-6
-1.179, 2.731e-6
-1.180, 2.737e-6
-1.181, 2.741e-6
-1.182, 2.741e-6
-1.183, 2.740e-6
-1.184, 2.745e-6
-1.185, 2.755e-6
-1.186, 2.756e-6
-1.187, 2.755e-6
-1.188, 2.757e-6
-1.189, 2.762e-6
-1.190, 2.770e-6
-1.191, 2.772e-6
-1.192, 2.771e-6
-1.193, 2.772e-6
-1.194, 2.777e-6
-1.195, 2.786e-6
-1.196, 2.787e-6
-1.197, 2.786e-6
-1.198, 2.787e-6
-1.199, 2.792e-6
-1.200, 2.800e-6
-1.201, 2.804e-6
-1.202, 2.801e-6
-1.203, 2.803e-6
-1.204, 2.809e-6
-1.205, 2.815e-6
-1.206, 2.820e-6
-1.207, 2.816e-6
-1.208, 2.817e-6
-1.209, 2.824e-6
-1.210, 2.832e-6
-1.211, 2.834e-6
-1.212, 2.833e-6
-1.213, 2.832e-6
-1.214, 2.839e-6
-1.215, 2.846e-6
-1.216, 2.849e-6
-1.217, 2.848e-6
-1.218, 2.847e-6
-1.219, 2.854e-6
-1.220, 2.862e-6
-1.221, 2.863e-6
-1.222, 2.863e-6
-1.223, 2.863e-6
-1.224, 2.869e-6
-1.225, 2.877e-6
-1.226, 2.878e-6
-1.227, 2.877e-6
-1.228, 2.877e-6
-1.229, 2.891e-6
-1.230, 2.897e-6
-1.231, 2.896e-6
-1.232, 2.895e-6
-1.233, 2.896e-6
-1.234, 2.900e-6
-1.235, 2.910e-6
-1.236, 2.911e-6
-1.237, 2.908e-6
-1.238, 2.909e-6
-1.239, 2.915e-6
-1.240, 2.922e-6
-1.241, 2.925e-6
-1.242, 2.923e-6
-1.243, 2.923e-6
-1.244, 2.930e-6
-1.245, 2.938e-6
-1.246, 2.940e-6
-1.247, 2.936e-6
-1.248, 2.938e-6
-1.249, 2.945e-6
-1.250, 2.952e-6
-1.251, 2.953e-6
-1.252, 2.951e-6
-1.253, 2.952e-6
-1.254, 2.959e-6
-1.255, 2.968e-6
-1.256, 2.968e-6
-1.257, 2.967e-6
-1.258, 2.966e-6
-1.259, 2.974e-6
-1.260, 2.981e-6
-1.261, 2.982e-6
-1.262, 2.981e-6
-1.263, 2.981e-6
-1.264, 2.987e-6
-1.265, 2.994e-6
-1.266, 2.994e-6
-1.267, 2.996e-6
-1.268, 2.995e-6
-1.269, 3.001e-6
-1.270, 3.010e-6
-1.271, 3.010e-6
-1.272, 3.009e-6
-1.273, 3.009e-6
-1.274, 3.015e-6
-1.275, 3.023e-6
-1.276, 3.024e-6
-1.277, 3.021e-6
-1.278, 3.024e-6
-1.279, 3.029e-6
-1.280, 3.040e-6
-1.281, 3.041e-6
-1.282, 3.038e-6
-1.283, 3.038e-6
-1.284, 3.044e-6
-1.285, 3.052e-6
-1.286, 3.054e-6
-1.287, 3.051e-6
-1.288, 3.051e-6
-1.289, 3.060e-6
-1.290, 3.066e-6
-1.291, 3.067e-6
-1.292, 3.065e-6
-1.293, 3.067e-6
-1.294, 3.074e-6
-1.295, 3.080e-6
-1.296, 3.080e-6
-1.297, 3.080e-6
-1.298, 3.079e-6
-1.299, 3.087e-6
-1.300, 3.094e-6
-1.301, 3.096e-6
-1.302, 3.094e-6
-1.303, 3.095e-6
-1.304, 3.101e-6
-1.305, 3.110e-6
-1.306, 3.110e-6
-1.307, 3.107e-6
-1.308, 3.108e-6
-1.309, 3.116e-6
-1.310, 3.125e-6
-1.311, 3.124e-6
-1.312, 3.124e-6
-1.313, 3.125e-6
-1.314, 3.130e-6
-1.315, 3.138e-6
-1.316, 3.139e-6
-1.317, 3.135e-6
-1.318, 3.138e-6
-1.319, 3.146e-6
-1.320, 3.153e-6
-1.321, 3.154e-6
-1.322, 3.152e-6
-1.323, 3.154e-6
-1.324, 3.161e-6
-1.325, 3.168e-6
-1.326, 3.169e-6
-1.327, 3.167e-6
-1.328, 3.167e-6
-1.329, 3.177e-6
-1.330, 3.183e-6
-1.331, 3.183e-6
-1.332, 3.183e-6
-1.333, 3.183e-6
-1.334, 3.192e-6
-1.335, 3.198e-6
-1.336, 3.199e-6
-1.337, 3.197e-6
-1.338, 3.198e-6
-1.339, 3.207e-6
-1.340, 3.213e-6
-1.341, 3.213e-6
-1.342, 3.213e-6
-1.343, 3.212e-6
-1.344, 3.222e-6
-1.345, 3.230e-6
-1.346, 3.230e-6
-1.347, 3.228e-6
-1.348, 3.230e-6
-1.349, 3.237e-6
-1.350, 3.246e-6
-1.351, 3.245e-6
-1.352, 3.244e-6
-1.353, 3.246e-6
-1.354, 3.253e-6
-1.355, 3.261e-6
-1.356, 3.261e-6
-1.357, 3.261e-6
-1.358, 3.263e-6
-1.359, 3.271e-6
-1.360, 3.277e-6
-1.361, 3.279e-6
-1.362, 3.275e-6
-1.363, 3.280e-6
-1.364, 3.287e-6
-1.365, 3.295e-6
-1.366, 3.294e-6
-1.367, 3.293e-6
-1.368, 3.295e-6
-1.369, 3.305e-6
-1.370, 3.312e-6
-1.371, 3.313e-6
-1.372, 3.310e-6
-1.373, 3.313e-6
-1.374, 3.322e-6
-1.375, 3.329e-6
-1.376, 3.331e-6
-1.377, 3.328e-6
-1.378, 3.330e-6
-1.379, 3.340e-6
-1.380, 3.348e-6
-1.381, 3.347e-6
-1.382, 3.349e-6
-1.383, 3.353e-6
-1.384, 3.362e-6
-1.385, 3.368e-6
-1.386, 3.366e-6
-1.387, 3.365e-6
-1.388, 3.371e-6
-1.389, 3.379e-6
-1.390, 3.388e-6
-1.391, 3.386e-6
-1.392, 3.384e-6
-1.393, 3.389e-6
-1.394, 3.398e-6
-1.395, 3.406e-6
-1.396, 3.407e-6
-1.397, 3.404e-6
-1.398, 3.410e-6
-1.399, 3.419e-6
-1.400, 3.426e-6
-1.401, 3.425e-6
-1.402, 3.424e-6
-1.403, 3.428e-6
-1.404, 3.440e-6
-1.405, 3.446e-6
-1.406, 3.446e-6
-1.407, 3.446e-6
-1.408, 3.450e-6
-1.409, 3.461e-6
-1.410, 3.467e-6
-1.411, 3.469e-6
-1.412, 3.465e-6
-1.413, 3.471e-6
-1.414, 3.483e-6
-1.415, 3.489e-6
-1.416, 3.488e-6
-1.417, 3.490e-6
-1.418, 3.492e-6
-1.419, 3.502e-6
-1.420, 3.511e-6
-1.421, 3.512e-6
-1.422, 3.512e-6
-1.423, 3.515e-6
-1.424, 3.526e-6
-1.425, 3.535e-6
-1.426, 3.533e-6
-1.427, 3.535e-6
-1.428, 3.538e-6
-1.429, 3.551e-6
-1.430, 3.560e-6
-1.431, 3.557e-6
-1.432, 3.559e-6
-1.433, 3.566e-6
-1.434, 3.577e-6
-1.435, 3.586e-6
-1.436, 3.585e-6
-1.437, 3.583e-6
-1.438, 3.592e-6
-1.439, 3.602e-6
-1.440, 3.612e-6
-1.441, 3.611e-6
-1.442, 3.609e-6
-1.443, 3.616e-6
-1.444, 3.629e-6
-1.445, 3.637e-6
-1.446, 3.640e-6
-1.447, 3.638e-6
-1.448, 3.645e-6
-1.449, 3.660e-6
-1.450, 3.664e-6
-1.451, 3.666e-6
-1.452, 3.667e-6
-1.453, 3.674e-6
-1.454, 3.688e-6
-1.455, 3.694e-6
-1.456, 3.695e-6
-1.457, 3.696e-6
-1.458, 3.703e-6
-1.459, 3.719e-6
-1.460, 3.729e-6
-1.461, 3.726e-6
-1.462, 3.729e-6
-1.463, 3.736e-6
-1.464, 3.749e-6
-1.465, 3.758e-6
-1.466, 3.759e-6
-1.467, 3.761e-6
-1.468, 3.767e-6
-1.469, 3.782e-6
-1.470, 3.791e-6
-1.471, 3.791e-6
-1.472, 3.794e-6
-1.473, 3.803e-6
-1.474, 3.816e-6
-1.475, 3.826e-6
-1.476, 3.827e-6
-1.477, 3.828e-6
-1.478, 3.839e-6
-1.479, 3.852e-6
-1.480, 3.863e-6
-1.481, 3.864e-6
-1.482, 3.865e-6
-1.483, 3.875e-6
-1.484, 3.890e-6
-1.485, 3.905e-6
-1.486, 3.906e-6
-1.487, 3.905e-6
-1.488, 3.915e-6
-1.489, 3.931e-6
-1.490, 3.940e-6
-1.491, 3.943e-6
-1.492, 3.944e-6
-1.493, 3.953e-6
-1.494, 3.971e-6
-1.495, 3.979e-6
-1.496, 3.983e-6
-1.497, 3.987e-6
-1.498, 3.995e-6
-1.499, 4.014e-6
-1.500, 4.025e-6
-1.501, 4.024e-6
-1.502, 4.029e-6
-1.503, 4.040e-6
-1.504, 4.058e-6
-1.505, 4.070e-6
-1.506, 4.069e-6
-1.507, 4.074e-6
-1.508, 4.086e-6
-1.509, 4.104e-6
-1.510, 4.116e-6
-1.511, 4.116e-6
-1.512, 4.121e-6
-1.513, 4.135e-6
-1.514, 4.150e-6
-1.515, 4.164e-6
-1.516, 4.165e-6
-1.517, 4.170e-6
-1.518, 4.185e-6
-1.519, 4.201e-6
-1.520, 4.213e-6
-1.521, 4.217e-6
-1.522, 4.219e-6
-1.523, 4.235e-6
-1.524, 4.256e-6
-1.525, 4.265e-6
-1.526, 4.270e-6
-1.527, 4.274e-6
-1.528, 4.289e-6
-1.529, 4.311e-6
-1.530, 4.322e-6
-1.531, 4.324e-6
-1.532, 4.332e-6
-1.533, 4.346e-6
-1.534, 4.370e-6
-1.535, 4.381e-6
-1.536, 4.385e-6
-1.537, 4.395e-6
-1.538, 4.408e-6
-1.539, 4.431e-6
-1.540, 4.443e-6
-1.541, 4.449e-6
-1.542, 4.458e-6
-1.543, 4.474e-6
-1.544, 4.496e-6
-1.545, 4.512e-6
-1.546, 4.516e-6
-1.547, 4.526e-6
-1.548, 4.543e-6
-1.549, 4.568e-6
-1.550, 4.584e-6
-1.551, 4.586e-6
-1.552, 4.596e-6
-1.553, 4.616e-6
-1.554, 4.640e-6
-1.555, 4.657e-6
-1.556, 4.664e-6
-1.557, 4.672e-6
-1.558, 4.694e-6
-1.559, 4.720e-6
-1.560, 4.736e-6
-1.561, 4.744e-6
-1.562, 4.755e-6
-1.563, 4.776e-6
-1.564, 4.804e-6
-1.565, 4.817e-6
-1.566, 4.826e-6
-1.567, 4.836e-6
-1.568, 4.862e-6
-1.569, 4.889e-6
-1.570, 4.907e-6
-1.571, 4.915e-6
-1.572, 4.927e-6
-1.573, 4.952e-6
-1.574, 4.982e-6
-1.575, 4.997e-6
-1.576, 5.011e-6
-1.577, 5.026e-6
-1.578, 5.050e-6
-1.579, 5.082e-6
-1.580, 5.101e-6
-1.581, 5.113e-6
-1.582, 5.130e-6
-1.583, 5.154e-6
-1.584, 5.188e-6
-1.585, 5.208e-6
-1.586, 5.217e-6
-1.587, 5.240e-6
-1.588, 5.272e-6
-1.589, 5.302e-6
-1.590, 5.325e-6
-1.591, 5.335e-6
-1.592, 5.354e-6
-1.593, 5.386e-6
-1.594, 5.419e-6
-1.595, 5.444e-6
-1.596, 5.460e-6
-1.597, 5.478e-6
-1.598, 5.512e-6
-1.599, 5.550e-6
-1.600, 5.575e-6
-1.601, 5.594e-6
-1.602, 5.614e-6
-1.603, 5.649e-6
-1.604, 5.685e-6
-1.605, 5.712e-6
-1.606, 5.733e-6
-1.607, 5.758e-6
-1.608, 5.796e-6
-1.609, 5.838e-6
-1.610, 5.866e-6
-1.611, 5.887e-6
-1.612, 5.911e-6
-1.613, 5.951e-6
-1.614, 5.996e-6
-1.615, 6.024e-6
-1.616, 6.048e-6
-1.617, 6.077e-6
-1.618, 6.118e-6
-1.619, 6.167e-6
-1.620, 6.200e-6
-1.621, 6.221e-6
-1.622, 6.256e-6
-1.623, 6.300e-6
-1.624, 6.352e-6
-1.625, 6.388e-6
-1.626, 6.414e-6
-1.627, 6.451e-6
-1.628, 6.502e-6
-1.629, 6.552e-6
-1.630, 6.594e-6
-1.631, 6.623e-6
-1.632, 6.662e-6
-1.633, 6.719e-6
-1.634, 6.773e-6
-1.635, 6.816e-6
-1.636, 6.848e-6
-1.637, 6.892e-6
-1.638, 6.958e-6
-1.639, 7.025e-6
-1.640, 7.060e-6
-1.641, 7.100e-6
-1.642, 7.141e-6
-1.643, 7.206e-6
-1.644, 7.270e-6
-1.645, 7.317e-6
-1.646, 7.362e-6
-1.647, 7.412e-6
-1.648, 7.478e-6
-1.649, 7.549e-6
-1.650, 7.599e-6
-1.651, 7.653e-6
-1.652, 7.710e-6
-1.653, 7.781e-6
-1.654, 7.859e-6
-1.655, 7.917e-6
-1.656, 7.971e-6
-1.657, 8.036e-6
-1.658, 8.113e-6
-1.659, 8.201e-6
-1.660, 8.268e-6
-1.661, 8.327e-6
-1.662, 8.405e-6
-1.663, 8.488e-6
-1.664, 8.572e-6
-1.665, 8.646e-6
-1.666, 8.708e-6
-1.667, 8.786e-6
-1.668, 8.879e-6
-1.669, 8.973e-6
-1.670, 9.051e-6
-1.671, 9.125e-6
-1.672, 9.212e-6
-1.673, 9.317e-6
-1.674, 9.417e-6
-1.675, 9.504e-6
-1.676, 9.587e-6
-1.677, 9.683e-6
-1.678, 9.801e-6
-1.679, 9.907e-6
-1.680, 1.001e-5
-1.681, 1.010e-5
-1.682, 1.020e-5
-1.683, 1.032e-5
-1.684, 1.045e-5
-1.685, 1.055e-5
-1.686, 1.066e-5
-1.687, 1.078e-5
-1.688, 1.091e-5
-1.689, 1.105e-5
-1.690, 1.118e-5
-1.691, 1.129e-5
-1.692, 1.142e-5
-1.693, 1.156e-5
-1.694, 1.171e-5
-1.695, 1.185e-5
-1.696, 1.197e-5
-1.697, 1.211e-5
-1.698, 1.226e-5
-1.699, 1.243e-5
-1.700, 1.258e-5
-1.701, 1.272e-5
-1.702, 1.288e-5
-1.703, 1.306e-5
-1.704, 1.323e-5
-1.705, 1.340e-5
-1.706, 1.356e-5
-1.707, 1.374e-5
-1.708, 1.393e-5
-1.709, 1.413e-5
-1.710, 1.431e-5
-1.711, 1.449e-5
-1.712, 1.469e-5
-1.713, 1.490e-5
-1.714, 1.512e-5
-1.715, 1.532e-5
-1.716, 1.552e-5
-1.717, 1.574e-5
-1.718, 1.598e-5
-1.719, 1.622e-5
-1.720, 1.644e-5
-1.721, 1.667e-5
-1.722, 1.691e-5
-1.723, 1.717e-5
-1.724, 1.743e-5
-1.725, 1.767e-5
-1.726, 1.792e-5
-1.727, 1.818e-5
-1.728, 1.847e-5
-1.729, 1.875e-5
-1.730, 1.902e-5
-1.731, 1.930e-5
-1.732, 1.959e-5
-1.733, 1.990e-5
-1.734, 2.022e-5
-1.735, 2.052e-5
-1.736, 2.082e-5
-1.737, 2.115e-5
-1.738, 2.149e-5
-1.739, 2.183e-5
-1.740, 2.216e-5
-1.741, 2.249e-5
-1.742, 2.285e-5
-1.743, 2.321e-5
-1.744, 2.359e-5
-1.745, 2.396e-5
-1.746, 2.432e-5
-1.747, 2.471e-5
-1.748, 2.513e-5
-1.749, 2.554e-5
-1.750, 2.595e-5
-1.751, 2.635e-5
-1.752, 2.679e-5
-1.753, 2.725e-5
-1.754, 2.770e-5
-1.755, 2.814e-5
-1.756, 2.860e-5
-1.757, 2.908e-5
-1.758, 2.959e-5
-1.759, 3.009e-5
-1.760, 3.059e-5
-1.761, 3.110e-5
-1.762, 3.163e-5
-1.763, 3.220e-5
-1.764, 3.275e-5
-1.765, 3.331e-5
-1.766, 3.387e-5
-1.767, 3.445e-5
-1.768, 3.506e-5
-1.769, 3.568e-5
-1.770, 3.630e-5
-1.771, 3.692e-5
-1.772, 3.758e-5
-1.773, 3.825e-5
-1.774, 3.893e-5
-1.775, 3.961e-5
-1.776, 4.030e-5
-1.777, 4.103e-5
-1.778, 4.178e-5
-1.779, 4.254e-5
-1.780, 4.329e-5
-1.781, 4.404e-5
-1.782, 4.484e-5
-1.783, 4.567e-5
-1.784, 4.650e-5
-1.785, 4.735e-5
-1.786, 4.820e-5
-1.787, 4.909e-5
-1.788, 5.000e-5
-1.789, 5.092e-5
-1.790, 5.185e-5
-1.791, 5.279e-5
-1.792, 5.378e-5
-1.793, 5.481e-5
-1.794, 5.584e-5
-1.795, 5.687e-5
-1.796, 5.792e-5
-1.797, 5.902e-5
-1.798, 6.014e-5
-1.799, 6.128e-5
-1.800, 6.242e-5
-1.801, 6.360e-5
-1.802, 6.481e-5
-1.803, 6.607e-5
-1.804, 6.733e-5
-1.805, 6.861e-5
-1.806, 6.991e-5
-1.807, 7.125e-5
-1.808, 7.265e-5
-1.809, 7.406e-5
-1.810, 7.546e-5
-1.811, 7.690e-5
-1.812, 7.839e-5
-1.813, 7.994e-5
-1.814, 8.150e-5
-1.815, 8.305e-5
-1.816, 8.465e-5
-1.817, 8.631e-5
-1.818, 8.804e-5
-1.819, 8.977e-5
-1.820, 9.151e-5
-1.821, 9.329e-5
-1.822, 9.514e-5
-1.823, 9.691e-5
-1.824, 9.881e-5
-1.825, 1.007e-4
-1.826, 1.027e-4
-1.827, 1.047e-4
-1.828, 1.068e-4
-1.829, 1.090e-4
-1.830, 1.111e-4
-1.831, 1.133e-4
-1.832, 1.156e-4
-1.833, 1.180e-4
-1.834, 1.203e-4
-1.835, 1.227e-4
-1.836, 1.252e-4
-1.837, 1.277e-4
-1.838, 1.303e-4
-1.839, 1.328e-4
-1.840, 1.349e-4
-1.841, 1.373e-4
-1.842, 1.401e-4
-1.843, 1.430e-4
-1.844, 1.457e-4
-1.845, 1.476e-4
-1.846, 1.503e-4
-1.847, 1.533e-4
-1.848, 1.563e-4
-1.849, 1.594e-4
-1.850, 1.627e-4
-1.851, 1.659e-4
-1.852, 1.694e-4
-1.853, 1.728e-4
-1.854, 1.764e-4
-1.855, 1.798e-4
-1.856, 1.834e-4
-1.857, 1.868e-4
-1.858, 1.906e-4
-1.859, 1.942e-4
-1.860, 1.980e-4
-1.861, 2.019e-4
-1.862, 2.055e-4
-1.863, 2.089e-4
-1.864, 2.126e-4
-1.865, 2.166e-4
-1.866, 2.209e-4
-1.867, 2.250e-4
-1.868, 2.296e-4
-1.869, 2.342e-4
-1.870, 2.388e-4
-1.871, 2.437e-4
-1.872, 2.486e-4
-1.873, 2.537e-4
-1.874, 2.589e-4
-1.875, 2.641e-4
-1.876, 2.695e-4
-1.877, 2.750e-4
-1.878, 2.804e-4
-1.879, 2.860e-4
-1.880, 2.914e-4
-1.881, 2.972e-4
-1.882, 3.031e-4
-1.883, 3.094e-4
-1.884, 3.157e-4
-1.885, 3.220e-4
-1.886, 3.284e-4
-1.887, 3.349e-4
-1.888, 3.417e-4
-1.889, 3.484e-4
-1.890, 3.552e-4
-1.891, 3.623e-4
-1.892, 3.696e-4
-1.893, 3.767e-4
-1.894, 3.843e-4
-1.895, 3.919e-4
-1.896, 3.997e-4
-1.897, 4.077e-4
-1.898, 4.161e-4
-1.899, 4.244e-4
