July 13, 2024   06:39:02
Cyclic Voltammetry
File: c:/users/guazh/data/20240709_batch67/2024-07-10-exp29\exp29-2024-07-13t06_16_37-arkoh\exp29_cv_sr_200mvs_efin_-1800mv.bin
Data Source:  Experiment
Instrument Model:  CHI760E
Header: CV ran at 200 mVs
Note: 

Init E (V) = -1
High E (V) = -1
Low E (V) = -1.8
Final E (V) = -1
Init P/N = N
Scan Rate (V/s) = 0.2
Segment = 3
Sample Interval (V) = 0.001
Quiet Time (sec) = 2
Sensitivity (A/V) = 0.01
Comp R (ohm) = 1.6

Results:

Channel 1:
Segment 1:

Segment 2:

Segment 3:

Potential/V, Current/A

-1.000, 1.537e-6
-1.001, 3.698e-6
-1.002, 2.968e-6
-1.003, 3.135e-6
-1.004, 4.605e-6
-1.005, 4.221e-6
-1.006, 3.915e-6
-1.007, 4.803e-6
-1.008, 4.872e-6
-1.009, 4.586e-6
-1.010, 4.635e-6
-1.011, 5.829e-6
-1.012, 5.049e-6
-1.013, 5.069e-6
-1.014, 6.243e-6
-1.015, 5.572e-6
-1.016, 5.158e-6
-1.017, 5.987e-6
-1.018, 6.233e-6
-1.019, 5.493e-6
-1.020, 5.898e-6
-1.021, 6.835e-6
-1.022, 6.184e-6
-1.023, 5.809e-6
-1.024, 6.766e-6
-1.025, 6.490e-6
-1.026, 6.362e-6
-1.027, 7.013e-6
-1.028, 7.200e-6
-1.029, 6.371e-6
-1.030, 6.667e-6
-1.031, 7.763e-6
-1.032, 6.579e-6
-1.033, 6.579e-6
-1.034, 7.733e-6
-1.035, 7.141e-6
-1.036, 6.776e-6
-1.037, 7.703e-6
-1.038, 7.782e-6
-1.039, 7.111e-6
-1.040, 7.328e-6
-1.041, 8.078e-6
-1.042, 7.289e-6
-1.043, 7.092e-6
-1.044, 8.266e-6
-1.045, 7.684e-6
-1.046, 7.338e-6
-1.047, 7.950e-6
-1.048, 8.226e-6
-1.049, 7.536e-6
-1.050, 7.891e-6
-1.051, 8.502e-6
-1.052, 7.733e-6
-1.053, 7.782e-6
-1.054, 8.680e-6
-1.055, 8.285e-6
-1.056, 7.526e-6
-1.057, 8.532e-6
-1.058, 8.650e-6
-1.059, 7.812e-6
-1.060, 8.236e-6
-1.061, 9.025e-6
-1.062, 8.325e-6
-1.063, 8.108e-6
-1.064, 8.996e-6
-1.065, 8.463e-6
-1.066, 8.187e-6
-1.067, 8.946e-6
-1.068, 9.183e-6
-1.069, 8.256e-6
-1.070, 8.493e-6
-1.071, 9.469e-6
-1.072, 8.601e-6
-1.073, 8.216e-6
-1.074, 9.400e-6
-1.075, 8.779e-6
-1.076, 8.276e-6
-1.077, 9.282e-6
-1.078, 9.282e-6
-1.079, 8.680e-6
-1.080, 8.877e-6
-1.081, 9.746e-6
-1.082, 8.986e-6
-1.083, 8.572e-6
-1.084, 9.598e-6
-1.085, 8.986e-6
-1.086, 8.720e-6
-1.087, 9.538e-6
-1.088, 9.765e-6
-1.089, 8.858e-6
-1.090, 9.144e-6
-1.091, 1.000e-5
-1.092, 9.075e-6
-1.093, 8.858e-6
-1.094, 9.903e-6
-1.095, 9.548e-6
-1.096, 8.996e-6
-1.097, 9.706e-6
-1.098, 9.775e-6
-1.099, 9.134e-6
-1.100, 9.272e-6
-1.101, 1.020e-5
-1.102, 9.479e-6
-1.103, 9.104e-6
-1.104, 1.029e-5
-1.105, 9.400e-6
-1.106, 9.173e-6
-1.107, 9.815e-6
-1.108, 1.013e-5
-1.109, 9.538e-6
-1.110, 9.489e-6
-1.111, 1.047e-5
-1.112, 9.321e-6
-1.113, 9.302e-6
-1.114, 1.027e-5
-1.115, 9.864e-6
-1.116, 9.331e-6
-1.117, 1.013e-5
-1.118, 1.023e-5
-1.119, 9.311e-6
-1.120, 9.746e-6
-1.121, 1.045e-5
-1.122, 9.775e-6
-1.123, 9.607e-6
-1.124, 1.036e-5
-1.125, 9.953e-6
-1.126, 9.331e-6
-1.127, 1.027e-5
-1.128, 1.057e-5
-1.129, 9.548e-6
-1.130, 9.903e-6
-1.131, 1.066e-5
-1.132, 9.726e-6
-1.133, 9.371e-6
-1.134, 1.048e-5
-1.135, 9.963e-6
-1.136, 9.529e-6
-1.137, 1.030e-5
-1.138, 1.026e-5
-1.139, 9.282e-6
-1.140, 9.943e-6
-1.141, 1.058e-5
-1.142, 9.667e-6
-1.143, 9.637e-6
-1.144, 1.044e-5
-1.145, 9.834e-6
-1.146, 9.509e-6
-1.147, 1.017e-5
-1.148, 1.010e-5
-1.149, 9.519e-6
-1.150, 9.775e-6
-1.151, 1.062e-5
-1.152, 9.726e-6
-1.153, 9.598e-6
-1.154, 1.070e-5
-1.155, 9.913e-6
-1.156, 9.341e-6
-1.157, 1.013e-5
-1.158, 1.022e-5
-1.159, 9.598e-6
-1.160, 9.834e-6
-1.161, 1.056e-5
-1.162, 9.746e-6
-1.163, 9.321e-6
-1.164, 1.043e-5
-1.165, 9.913e-6
-1.166, 9.242e-6
-1.167, 1.027e-5
-1.168, 1.024e-5
-1.169, 9.410e-6
-1.170, 9.706e-6
-1.171, 1.035e-5
-1.172, 9.726e-6
-1.173, 9.381e-6
-1.174, 1.046e-5
-1.175, 9.903e-6
-1.176, 9.213e-6
-1.177, 1.022e-5
-1.178, 1.018e-5
-1.179, 9.450e-6
-1.180, 9.627e-6
-1.181, 1.053e-5
-1.182, 9.578e-6
-1.183, 9.529e-6
-1.184, 1.019e-5
-1.185, 9.755e-6
-1.186, 9.381e-6
-1.187, 1.009e-5
-1.188, 1.014e-5
-1.189, 9.568e-6
-1.190, 9.716e-6
-1.191, 1.050e-5
-1.192, 9.558e-6
-1.193, 9.311e-6
-1.194, 1.019e-5
-1.195, 9.864e-6
-1.196, 9.479e-6
-1.197, 1.018e-5
-1.198, 1.005e-5
-1.199, 9.538e-6
-1.200, 9.538e-6
-1.201, 1.023e-5
-1.202, 9.588e-6
-1.203, 9.321e-6
-1.204, 1.035e-5
-1.205, 9.755e-6
-1.206, 9.361e-6
-1.207, 1.024e-5
-1.208, 1.005e-5
-1.209, 9.420e-6
-1.210, 9.943e-6
-1.211, 1.057e-5
-1.212, 9.558e-6
-1.213, 9.351e-6
-1.214, 1.023e-5
-1.215, 9.509e-6
-1.216, 9.361e-6
-1.217, 1.015e-5
-1.218, 1.003e-5
-1.219, 9.489e-6
-1.220, 9.578e-6
-1.221, 1.040e-5
-1.222, 9.578e-6
-1.223, 9.716e-6
-1.224, 1.034e-5
-1.225, 9.973e-6
-1.226, 9.381e-6
-1.227, 1.011e-5
-1.228, 1.025e-5
-1.229, 9.825e-6
-1.230, 9.943e-6
-1.231, 1.060e-5
-1.232, 9.746e-6
-1.233, 9.598e-6
-1.234, 1.059e-5
-1.235, 9.943e-6
-1.236, 9.538e-6
-1.237, 1.016e-5
-1.238, 1.040e-5
-1.239, 9.726e-6
-1.240, 9.755e-6
-1.241, 1.048e-5
-1.242, 9.775e-6
-1.243, 9.627e-6
-1.244, 1.068e-5
-1.245, 1.001e-5
-1.246, 9.578e-6
-1.247, 1.036e-5
-1.248, 1.028e-5
-1.249, 9.677e-6
-1.250, 1.001e-5
-1.251, 1.080e-5
-1.252, 1.004e-5
-1.253, 9.884e-6
-1.254, 1.065e-5
-1.255, 1.021e-5
-1.256, 9.716e-6
-1.257, 1.061e-5
-1.258, 1.043e-5
-1.259, 9.864e-6
-1.260, 1.003e-5
-1.261, 1.090e-5
-1.262, 9.894e-6
-1.263, 9.973e-6
-1.264, 1.072e-5
-1.265, 1.027e-5
-1.266, 9.854e-6
-1.267, 1.066e-5
-1.268, 1.057e-5
-1.269, 1.022e-5
-1.270, 1.028e-5
-1.271, 1.101e-5
-1.272, 1.012e-5
-1.273, 1.007e-5
-1.274, 1.098e-5
-1.275, 1.019e-5
-1.276, 1.005e-5
-1.277, 1.089e-5
-1.278, 1.094e-5
-1.279, 1.007e-5
-1.280, 1.039e-5
-1.281, 1.121e-5
-1.282, 1.054e-5
-1.283, 1.033e-5
-1.284, 1.127e-5
-1.285, 1.058e-5
-1.286, 1.026e-5
-1.287, 1.120e-5
-1.288, 1.095e-5
-1.289, 1.039e-5
-1.290, 1.070e-5
-1.291, 1.141e-5
-1.292, 1.058e-5
-1.293, 1.044e-5
-1.294, 1.166e-5
-1.295, 1.085e-5
-1.296, 1.071e-5
-1.297, 1.148e-5
-1.298, 1.137e-5
-1.299, 1.078e-5
-1.300, 1.105e-5
-1.301, 1.158e-5
-1.302, 1.104e-5
-1.303, 1.079e-5
-1.304, 1.178e-5
-1.305, 1.118e-5
-1.306, 1.095e-5
-1.307, 1.170e-5
-1.308, 1.161e-5
-1.309, 1.132e-5
-1.310, 1.102e-5
-1.311, 1.216e-5
-1.312, 1.126e-5
-1.313, 1.127e-5
-1.314, 1.222e-5
-1.315, 1.148e-5
-1.316, 1.133e-5
-1.317, 1.193e-5
-1.318, 1.193e-5
-1.319, 1.166e-5
-1.320, 1.168e-5
-1.321, 1.234e-5
-1.322, 1.184e-5
-1.323, 1.157e-5
-1.324, 1.257e-5
-1.325, 1.210e-5
-1.326, 1.190e-5
-1.327, 1.263e-5
-1.328, 1.220e-5
-1.329, 1.187e-5
-1.330, 1.230e-5
-1.331, 1.296e-5
-1.332, 1.216e-5
-1.333, 1.225e-5
-1.334, 1.323e-5
-1.335, 1.268e-5
-1.336, 1.239e-5
-1.337, 1.311e-5
-1.338, 1.304e-5
-1.339, 1.252e-5
-1.340, 1.304e-5
-1.341, 1.350e-5
-1.342, 1.295e-5
-1.343, 1.283e-5
-1.344, 1.388e-5
-1.345, 1.321e-5
-1.346, 1.320e-5
-1.347, 1.374e-5
-1.348, 1.378e-5
-1.349, 1.329e-5
-1.350, 1.358e-5
-1.351, 1.415e-5
-1.352, 1.352e-5
-1.353, 1.339e-5
-1.354, 1.446e-5
-1.355, 1.397e-5
-1.356, 1.355e-5
-1.357, 1.458e-5
-1.358, 1.444e-5
-1.359, 1.420e-5
-1.360, 1.427e-5
-1.361, 1.524e-5
-1.362, 1.441e-5
-1.363, 1.433e-5
-1.364, 1.523e-5
-1.365, 1.481e-5
-1.366, 1.470e-5
-1.367, 1.545e-5
-1.368, 1.552e-5
-1.369, 1.500e-5
-1.370, 1.542e-5
-1.371, 1.588e-5
-1.372, 1.526e-5
-1.373, 1.539e-5
-1.374, 1.614e-5
-1.375, 1.586e-5
-1.376, 1.557e-5
-1.377, 1.651e-5
-1.378, 1.641e-5
-1.379, 1.595e-5
-1.380, 1.648e-5
-1.381, 1.711e-5
-1.382, 1.648e-5
-1.383, 1.659e-5
-1.384, 1.757e-5
-1.385, 1.693e-5
-1.386, 1.699e-5
-1.387, 1.766e-5
-1.388, 1.776e-5
-1.389, 1.727e-5
-1.390, 1.772e-5
-1.391, 1.824e-5
-1.392, 1.776e-5
-1.393, 1.786e-5
-1.394, 1.885e-5
-1.395, 1.836e-5
-1.396, 1.832e-5
-1.397, 1.915e-5
-1.398, 1.910e-5
-1.399, 1.879e-5
-1.400, 1.921e-5
-1.401, 1.996e-5
-1.402, 1.952e-5
-1.403, 1.958e-5
-1.404, 2.036e-5
-1.405, 2.016e-5
-1.406, 2.001e-5
-1.407, 2.088e-5
-1.408, 2.099e-5
-1.409, 2.055e-5
-1.410, 2.106e-5
-1.411, 2.193e-5
-1.412, 2.143e-5
-1.413, 2.149e-5
-1.414, 2.263e-5
-1.415, 2.260e-5
-1.416, 2.217e-5
-1.417, 2.327e-5
-1.418, 2.325e-5
-1.419, 2.311e-5
-1.420, 2.359e-5
-1.421, 2.461e-5
-1.422, 2.413e-5
-1.423, 2.423e-5
-1.424, 2.513e-5
-1.425, 2.485e-5
-1.426, 2.510e-5
-1.427, 2.605e-5
-1.428, 2.631e-5
-1.429, 2.620e-5
-1.430, 2.647e-5
-1.431, 2.748e-5
-1.432, 2.731e-5
-1.433, 2.760e-5
-1.434, 2.884e-5
-1.435, 2.869e-5
-1.436, 2.873e-5
-1.437, 2.984e-5
-1.438, 3.014e-5
-1.439, 3.013e-5
-1.440, 3.069e-5
-1.441, 3.187e-5
-1.442, 3.162e-5
-1.443, 3.187e-5
-1.444, 3.315e-5
-1.445, 3.339e-5
-1.446, 3.337e-5
-1.447, 3.473e-5
-1.448, 3.537e-5
-1.449, 3.513e-5
-1.450, 3.603e-5
-1.451, 3.725e-5
-1.452, 3.737e-5
-1.453, 3.778e-5
-1.454, 3.922e-5
-1.455, 3.945e-5
-1.456, 3.977e-5
-1.457, 4.122e-5
-1.458, 4.187e-5
-1.459, 4.210e-5
-1.460, 4.291e-5
-1.461, 4.446e-5
-1.462, 4.478e-5
-1.463, 4.545e-5
-1.464, 4.693e-5
-1.465, 4.760e-5
-1.466, 4.821e-5
-1.467, 4.977e-5
-1.468, 5.078e-5
-1.469, 5.139e-5
-1.470, 5.239e-5
-1.471, 5.405e-5
-1.472, 5.455e-5
-1.473, 5.544e-5
-1.474, 5.737e-5
-1.475, 5.829e-5
-1.476, 5.887e-5
-1.477, 6.075e-5
-1.478, 6.226e-5
-1.479, 6.289e-5
-1.480, 6.437e-5
-1.481, 6.648e-5
-1.482, 6.703e-5
-1.483, 6.827e-5
-1.484, 7.057e-5
-1.485, 7.180e-5
-1.486, 7.280e-5
-1.487, 7.495e-5
-1.488, 7.659e-5
-1.489, 7.773e-5
-1.490, 7.952e-5
-1.491, 8.193e-5
-1.492, 8.318e-5
-1.493, 8.422e-5
-1.494, 8.719e-5
-1.495, 8.868e-5
-1.496, 9.020e-5
-1.497, 9.267e-5
-1.498, 9.486e-5
-1.499, 9.605e-5
-1.500, 9.821e-5
-1.501, 1.011e-4
-1.502, 1.025e-4
-1.503, 1.045e-4
-1.504, 1.075e-4
-1.505, 1.094e-4
-1.506, 1.112e-4
-1.507, 1.141e-4
-1.508, 1.168e-4
-1.509, 1.187e-4
-1.510, 1.211e-4
-1.511, 1.243e-4
-1.512, 1.265e-4
-1.513, 1.284e-4
-1.514, 1.322e-4
-1.515, 1.347e-4
-1.516, 1.369e-4
-1.517, 1.404e-4
-1.518, 1.432e-4
-1.519, 1.455e-4
-1.520, 1.482e-4
-1.521, 1.523e-4
-1.522, 1.549e-4
-1.523, 1.573e-4
-1.524, 1.614e-4
-1.525, 1.644e-4
-1.526, 1.667e-4
-1.527, 1.710e-4
-1.528, 1.744e-4
-1.529, 1.772e-4
-1.530, 1.807e-4
-1.531, 1.851e-4
-1.532, 1.880e-4
-1.533, 1.908e-4
-1.534, 1.954e-4
-1.535, 1.988e-4
-1.536, 2.020e-4
-1.537, 2.064e-4
-1.538, 2.105e-4
-1.539, 2.136e-4
-1.540, 2.174e-4
-1.541, 2.224e-4
-1.542, 2.256e-4
-1.543, 2.294e-4
-1.544, 2.345e-4
-1.545, 2.389e-4
-1.546, 2.419e-4
-1.547, 2.470e-4
-1.548, 2.517e-4
-1.549, 2.555e-4
-1.550, 2.600e-4
-1.551, 2.658e-4
-1.552, 2.699e-4
-1.553, 2.735e-4
-1.554, 2.794e-4
-1.555, 2.846e-4
-1.556, 2.882e-4
-1.557, 2.937e-4
-1.558, 2.994e-4
-1.559, 3.035e-4
-1.560, 3.082e-4
-1.561, 3.148e-4
-1.562, 3.196e-4
-1.563, 3.238e-4
-1.564, 3.304e-4
-1.565, 3.358e-4
-1.566, 3.402e-4
-1.567, 3.464e-4
-1.568, 3.524e-4
-1.569, 3.574e-4
-1.570, 3.626e-4
-1.571, 3.698e-4
-1.572, 3.752e-4
-1.573, 3.798e-4
-1.574, 3.870e-4
-1.575, 3.933e-4
-1.576, 3.981e-4
-1.577, 4.046e-4
-1.578, 4.115e-4
-1.579, 4.171e-4
-1.580, 4.229e-4
-1.581, 4.308e-4
-1.582, 4.369e-4
-1.583, 4.424e-4
-1.584, 4.504e-4
-1.585, 4.577e-4
-1.586, 4.632e-4
-1.587, 4.708e-4
-1.588, 4.788e-4
-1.589, 4.847e-4
-1.590, 4.915e-4
-1.591, 5.004e-4
-1.592, 5.071e-4
-1.593, 5.135e-4
-1.594, 5.220e-4
-1.595, 5.303e-4
-1.596, 5.364e-4
-1.597, 5.447e-4
-1.598, 5.539e-4
-1.599, 5.611e-4
-1.600, 5.684e-4
-1.601, 5.782e-4
-1.602, 5.862e-4
-1.603, 5.929e-4
-1.604, 6.026e-4
-1.605, 6.117e-4
-1.606, 6.188e-4
-1.607, 6.280e-4
-1.608, 6.380e-4
-1.609, 6.460e-4
-1.610, 6.539e-4
-1.611, 6.654e-4
-1.612, 6.740e-4
-1.613, 6.820e-4
-1.614, 6.936e-4
-1.615, 7.042e-4
-1.616, 7.122e-4
-1.617, 7.227e-4
-1.618, 7.345e-4
-1.619, 7.435e-4
-1.620, 7.530e-4
-1.621, 7.657e-4
-1.622, 7.760e-4
-1.623, 7.857e-4
-1.624, 7.983e-4
-1.625, 8.108e-4
-1.626, 8.208e-4
-1.627, 8.327e-4
-1.628, 8.466e-4
-1.629, 8.574e-4
-1.630, 8.688e-4
-1.631, 8.836e-4
-1.632, 8.959e-4
-1.633, 9.069e-4
-1.634, 9.213e-4
-1.635, 9.357e-4
-1.636, 9.470e-4
-1.637, 9.612e-4
-1.638, 9.777e-4
-1.639, 9.910e-4
-1.640, 1.004e-3
-1.641, 1.021e-3
-1.642, 1.036e-3
-1.643, 1.048e-3
-1.644, 1.066e-3
-1.645, 1.083e-3
-1.646, 1.096e-3
-1.647, 1.112e-3
-1.648, 1.130e-3
-1.649, 1.145e-3
-1.650, 1.161e-3
-1.651, 1.181e-3
-1.652, 1.198e-3
-1.653, 1.212e-3
-1.654, 1.231e-3
-1.655, 1.251e-3
-1.656, 1.266e-3
-1.657, 1.286e-3
-1.658, 1.307e-3
-1.659, 1.325e-3
-1.660, 1.342e-3
-1.661, 1.365e-3
-1.662, 1.385e-3
-1.663, 1.403e-3
-1.664, 1.426e-3
-1.665, 1.449e-3
-1.666, 1.468e-3
-1.667, 1.491e-3
-1.668, 1.516e-3
-1.669, 1.537e-3
-1.670, 1.558e-3
-1.671, 1.585e-3
-1.672, 1.610e-3
-1.673, 1.632e-3
-1.674, 1.659e-3
-1.675, 1.686e-3
-1.676, 1.709e-3
-1.677, 1.736e-3
-1.678, 1.766e-3
-1.679, 1.791e-3
-1.680, 1.816e-3
-1.681, 1.847e-3
-1.682, 1.874e-3
-1.683, 1.898e-3
-1.684, 1.928e-3
-1.685, 1.959e-3
-1.686, 1.986e-3
-1.687, 2.015e-3
-1.688, 2.047e-3
-1.689, 2.076e-3
-1.690, 2.104e-3
-1.691, 2.139e-3
-1.692, 2.172e-3
-1.693, 2.199e-3
-1.694, 2.236e-3
-1.695, 2.273e-3
-1.696, 2.302e-3
-1.697, 2.337e-3
-1.698, 2.377e-3
-1.699, 2.412e-3
-1.700, 2.446e-3
-1.701, 2.489e-3
-1.702, 2.529e-3
-1.703, 2.565e-3
-1.704, 2.605e-3
-1.705, 2.649e-3
-1.706, 2.685e-3
-1.707, 2.726e-3
-1.708, 2.771e-3
-1.709, 2.809e-3
-1.710, 2.848e-3
-1.711, 2.894e-3
-1.712, 2.936e-3
-1.713, 2.976e-3
-1.714, 3.022e-3
-1.715, 3.071e-3
-1.716, 3.113e-3
-1.717, 3.160e-3
-1.718, 3.211e-3
-1.719, 3.259e-3
-1.720, 3.304e-3
-1.721, 3.359e-3
-1.722, 3.410e-3
-1.723, 3.458e-3
-1.724, 3.519e-3
-1.725, 3.575e-3
-1.726, 3.622e-3
-1.727, 3.673e-3
-1.728, 3.736e-3
-1.729, 3.796e-3
-1.730, 3.852e-3
-1.731, 3.915e-3
-1.732, 3.977e-3
-1.733, 4.034e-3
-1.734, 4.100e-3
-1.735, 4.170e-3
-1.736, 4.229e-3
-1.737, 4.299e-3
-1.738, 4.373e-3
-1.739, 4.436e-3
-1.740, 4.497e-3
-1.741, 4.574e-3
-1.742, 4.649e-3
-1.743, 4.729e-3
-1.744, 4.807e-3
-1.745, 4.887e-3
-1.746, 4.959e-3
-1.747, 5.042e-3
-1.748, 5.126e-3
-1.749, 5.198e-3
-1.750, 5.275e-3
-1.751, 5.365e-3
-1.752, 5.449e-3
-1.753, 5.539e-3
-1.754, 5.626e-3
-1.755, 5.715e-3
-1.756, 5.793e-3
-1.757, 5.875e-3
-1.758, 5.960e-3
-1.759, 6.049e-3
-1.760, 6.143e-3
-1.761, 6.264e-3
-1.762, 6.361e-3
-1.763, 6.434e-3
-1.764, 6.525e-3
-1.765, 6.625e-3
-1.766, 6.752e-3
-1.767, 6.862e-3
-1.768, 6.965e-3
-1.769, 7.053e-3
-1.770, 7.139e-3
-1.771, 7.246e-3
-1.772, 7.349e-3
-1.773, 7.434e-3
-1.774, 7.538e-3
-1.775, 7.637e-3
-1.776, 7.740e-3
-1.777, 7.843e-3
-1.778, 7.955e-3
-1.779, 8.067e-3
-1.780, 8.188e-3
-1.781, 8.299e-3
-1.782, 8.401e-3
-1.783, 8.500e-3
-1.784, 8.627e-3
-1.785, 8.743e-3
-1.786, 8.827e-3
-1.787, 8.930e-3
-1.788, 9.051e-3
-1.789, 9.168e-3
-1.790, 9.282e-3
-1.791, 9.403e-3
-1.792, 9.513e-3
-1.793, 9.617e-3
-1.794, 9.729e-3
-1.795, 9.845e-3
-1.796, 9.946e-3
-1.797, 1.008e-2
-1.798, 1.021e-2
-1.799, 1.031e-2
-1.800, 1.036e-2
-1.799, 1.034e-2
-1.798, 1.031e-2
-1.797, 1.026e-2
-1.796, 1.022e-2
-1.795, 1.018e-2
-1.794, 1.012e-2
-1.793, 1.006e-2
-1.792, 1.002e-2
-1.791, 9.949e-3
-1.790, 9.890e-3
-1.789, 9.824e-3
-1.788, 9.751e-3
-1.787, 9.716e-3
-1.786, 9.673e-3
-1.785, 9.648e-3
-1.784, 9.574e-3
-1.783, 9.492e-3
-1.782, 9.425e-3
-1.781, 9.346e-3
-1.780, 9.271e-3
-1.779, 9.211e-3
-1.778, 9.132e-3
-1.777, 9.092e-3
-1.776, 9.067e-3
-1.775, 9.029e-3
-1.774, 8.958e-3
-1.773, 8.879e-3
-1.772, 8.808e-3
-1.771, 8.733e-3
-1.770, 8.650e-3
-1.769, 8.582e-3
-1.768, 8.509e-3
-1.767, 8.417e-3
-1.766, 8.346e-3
-1.765, 8.276e-3
-1.764, 8.193e-3
-1.763, 8.123e-3
-1.762, 8.053e-3
-1.761, 7.969e-3
-1.760, 7.899e-3
-1.759, 7.836e-3
-1.758, 7.773e-3
-1.757, 7.691e-3
-1.756, 7.618e-3
-1.755, 7.544e-3
-1.754, 7.461e-3
-1.753, 7.387e-3
-1.752, 7.326e-3
-1.751, 7.244e-3
-1.750, 7.162e-3
-1.749, 7.088e-3
-1.748, 7.008e-3
-1.747, 6.931e-3
-1.746, 6.860e-3
-1.745, 6.788e-3
-1.744, 6.714e-3
-1.743, 6.642e-3
-1.742, 6.589e-3
-1.741, 6.536e-3
-1.740, 6.468e-3
-1.739, 6.402e-3
-1.738, 6.333e-3
-1.737, 6.262e-3
-1.736, 6.198e-3
-1.735, 6.129e-3
-1.734, 6.045e-3
-1.733, 5.974e-3
-1.732, 5.912e-3
-1.731, 5.839e-3
-1.730, 5.765e-3
-1.729, 5.700e-3
-1.728, 5.630e-3
-1.727, 5.555e-3
-1.726, 5.493e-3
-1.725, 5.428e-3
-1.724, 5.359e-3
-1.723, 5.296e-3
-1.722, 5.235e-3
-1.721, 5.169e-3
-1.720, 5.106e-3
-1.719, 5.049e-3
-1.718, 4.983e-3
-1.717, 4.913e-3
-1.716, 4.850e-3
-1.715, 4.785e-3
-1.714, 4.713e-3
-1.713, 4.652e-3
-1.712, 4.606e-3
-1.711, 4.539e-3
-1.710, 4.470e-3
-1.709, 4.416e-3
-1.708, 4.353e-3
-1.707, 4.285e-3
-1.706, 4.229e-3
-1.705, 4.171e-3
-1.704, 4.107e-3
-1.703, 4.050e-3
-1.702, 3.996e-3
-1.701, 3.934e-3
-1.700, 3.872e-3
-1.699, 3.821e-3
-1.698, 3.765e-3
-1.697, 3.709e-3
-1.696, 3.662e-3
-1.695, 3.617e-3
-1.694, 3.557e-3
-1.693, 3.505e-3
-1.692, 3.463e-3
-1.691, 3.408e-3
-1.690, 3.354e-3
-1.689, 3.308e-3
-1.688, 3.256e-3
-1.687, 3.199e-3
-1.686, 3.150e-3
-1.685, 3.102e-3
-1.684, 3.048e-3
-1.683, 3.000e-3
-1.682, 2.956e-3
-1.681, 2.908e-3
-1.680, 2.859e-3
-1.679, 2.824e-3
-1.678, 2.778e-3
-1.677, 2.730e-3
-1.676, 2.687e-3
-1.675, 2.644e-3
-1.674, 2.597e-3
-1.673, 2.555e-3
-1.672, 2.516e-3
-1.671, 2.473e-3
-1.670, 2.429e-3
-1.669, 2.394e-3
-1.668, 2.353e-3
-1.667, 2.316e-3
-1.666, 2.276e-3
-1.665, 2.238e-3
-1.664, 2.196e-3
-1.663, 2.162e-3
-1.662, 2.127e-3
-1.661, 2.088e-3
-1.660, 2.049e-3
-1.659, 2.017e-3
-1.658, 1.982e-3
-1.657, 1.944e-3
-1.656, 1.915e-3
-1.655, 1.881e-3
-1.654, 1.844e-3
-1.653, 1.813e-3
-1.652, 1.783e-3
-1.651, 1.750e-3
-1.650, 1.717e-3
-1.649, 1.689e-3
-1.648, 1.657e-3
-1.647, 1.623e-3
-1.646, 1.595e-3
-1.645, 1.568e-3
-1.644, 1.537e-3
-1.643, 1.512e-3
-1.642, 1.487e-3
-1.641, 1.458e-3
-1.640, 1.429e-3
-1.639, 1.405e-3
-1.638, 1.379e-3
-1.637, 1.352e-3
-1.636, 1.329e-3
-1.635, 1.306e-3
-1.634, 1.280e-3
-1.633, 1.256e-3
-1.632, 1.235e-3
-1.631, 1.211e-3
-1.630, 1.189e-3
-1.629, 1.170e-3
-1.628, 1.149e-3
-1.627, 1.126e-3
-1.626, 1.106e-3
-1.625, 1.086e-3
-1.624, 1.063e-3
-1.623, 1.042e-3
-1.622, 1.025e-3
-1.621, 1.004e-3
-1.620, 9.848e-4
-1.619, 9.687e-4
-1.618, 9.493e-4
-1.617, 9.291e-4
-1.616, 9.125e-4
-1.615, 8.949e-4
-1.614, 8.754e-4
-1.613, 8.585e-4
-1.612, 8.425e-4
-1.611, 8.245e-4
-1.610, 8.069e-4
-1.609, 7.929e-4
-1.608, 7.766e-4
-1.607, 7.598e-4
-1.606, 7.457e-4
-1.605, 7.320e-4
-1.604, 7.161e-4
-1.603, 7.025e-4
-1.602, 6.890e-4
-1.601, 6.745e-4
-1.600, 6.606e-4
-1.599, 6.493e-4
-1.598, 6.359e-4
-1.597, 6.221e-4
-1.596, 6.108e-4
-1.595, 5.988e-4
-1.594, 5.854e-4
-1.593, 5.744e-4
-1.592, 5.636e-4
-1.591, 5.512e-4
-1.590, 5.392e-4
-1.589, 5.297e-4
-1.588, 5.182e-4
-1.587, 5.062e-4
-1.586, 4.970e-4
-1.585, 4.868e-4
-1.584, 4.755e-4
-1.583, 4.662e-4
-1.582, 4.570e-4
-1.581, 4.467e-4
-1.580, 4.370e-4
-1.579, 4.295e-4
-1.578, 4.201e-4
-1.577, 4.104e-4
-1.576, 4.031e-4
-1.575, 3.948e-4
-1.574, 3.854e-4
-1.573, 3.777e-4
-1.572, 3.703e-4
-1.571, 3.619e-4
-1.570, 3.540e-4
-1.569, 3.472e-4
-1.568, 3.394e-4
-1.567, 3.314e-4
-1.566, 3.255e-4
-1.565, 3.182e-4
-1.564, 3.105e-4
-1.563, 3.044e-4
-1.562, 2.979e-4
-1.561, 2.907e-4
-1.560, 2.841e-4
-1.559, 2.791e-4
-1.558, 2.723e-4
-1.557, 2.657e-4
-1.556, 2.608e-4
-1.555, 2.550e-4
-1.554, 2.487e-4
-1.553, 2.438e-4
-1.552, 2.388e-4
-1.551, 2.327e-4
-1.550, 2.278e-4
-1.549, 2.235e-4
-1.548, 2.179e-4
-1.547, 2.126e-4
-1.546, 2.088e-4
-1.545, 2.039e-4
-1.544, 1.987e-4
-1.543, 1.950e-4
-1.542, 1.904e-4
-1.541, 1.856e-4
-1.540, 1.814e-4
-1.539, 1.780e-4
-1.538, 1.733e-4
-1.537, 1.689e-4
-1.536, 1.658e-4
-1.535, 1.617e-4
-1.534, 1.573e-4
-1.533, 1.545e-4
-1.532, 1.508e-4
-1.531, 1.467e-4
-1.530, 1.432e-4
-1.529, 1.406e-4
-1.528, 1.368e-4
-1.527, 1.332e-4
-1.526, 1.308e-4
-1.525, 1.275e-4
-1.524, 1.242e-4
-1.523, 1.216e-4
-1.522, 1.187e-4
-1.521, 1.153e-4
-1.520, 1.125e-4
-1.519, 1.106e-4
-1.518, 1.074e-4
-1.517, 1.046e-4
-1.516, 1.027e-4
-1.515, 9.974e-5
-1.514, 9.694e-5
-1.513, 9.516e-5
-1.512, 9.265e-5
-1.511, 8.989e-5
-1.510, 8.775e-5
-1.509, 8.615e-5
-1.508, 8.347e-5
-1.507, 8.101e-5
-1.506, 7.985e-5
-1.505, 7.734e-5
-1.504, 7.499e-5
-1.503, 7.374e-5
-1.502, 7.152e-5
-1.501, 6.943e-5
-1.500, 6.773e-5
-1.499, 6.647e-5
-1.498, 6.414e-5
-1.497, 6.231e-5
-1.496, 6.149e-5
-1.495, 5.951e-5
-1.494, 5.728e-5
-1.493, 5.647e-5
-1.492, 5.501e-5
-1.491, 5.312e-5
-1.490, 5.191e-5
-1.489, 5.094e-5
-1.488, 4.906e-5
-1.487, 4.767e-5
-1.486, 4.693e-5
-1.485, 4.510e-5
-1.484, 4.356e-5
-1.483, 4.299e-5
-1.482, 4.156e-5
-1.481, 3.993e-5
-1.480, 3.918e-5
-1.479, 3.838e-5
-1.478, 3.681e-5
-1.477, 3.563e-5
-1.476, 3.542e-5
-1.475, 3.383e-5
-1.474, 3.259e-5
-1.473, 3.229e-5
-1.472, 3.105e-5
-1.471, 2.965e-5
-1.470, 2.893e-5
-1.469, 2.870e-5
-1.468, 2.700e-5
-1.467, 2.631e-5
-1.466, 2.605e-5
-1.465, 2.485e-5
-1.464, 2.382e-5
-1.463, 2.394e-5
-1.462, 2.264e-5
-1.461, 2.184e-5
-1.460, 2.132e-5
-1.459, 2.080e-5
-1.458, 1.978e-5
-1.457, 1.902e-5
-1.456, 1.910e-5
-1.455, 1.806e-5
-1.454, 1.713e-5
-1.453, 1.725e-5
-1.452, 1.627e-5
-1.451, 1.555e-5
-1.450, 1.515e-5
-1.449, 1.506e-5
-1.448, 1.401e-5
-1.447, 1.348e-5
-1.446, 1.341e-5
-1.445, 1.283e-5
-1.444, 1.184e-5
-1.443, 1.216e-5
-1.442, 1.137e-5
-1.441, 1.066e-5
-1.440, 1.067e-5
-1.439, 1.052e-5
-1.438, 9.400e-6
-1.437, 9.381e-6
-1.436, 9.519e-6
-1.435, 8.404e-6
-1.434, 7.822e-6
-1.433, 8.443e-6
-1.432, 7.545e-6
-1.431, 6.865e-6
-1.430, 6.934e-6
-1.429, 6.993e-6
-1.428, 5.997e-6
-1.427, 5.730e-6
-1.426, 6.075e-6
-1.425, 5.099e-6
-1.424, 4.832e-6
-1.423, 5.326e-6
-1.422, 4.566e-6
-1.421, 4.191e-6
-1.420, 4.053e-6
-1.419, 4.211e-6
-1.418, 3.224e-6
-1.417, 3.017e-6
-1.416, 3.816e-6
-1.415, 3.017e-6
-1.414, 2.534e-6
-1.413, 2.968e-6
-1.412, 2.435e-6
-1.411, 1.616e-6
-1.410, 2.099e-6
-1.409, 1.991e-6
-1.408, 1.320e-6
-1.407, 1.340e-6
-1.406, 1.429e-6
-1.405, 7.972e-7
-1.404, 5.801e-7
-1.403, 1.133e-6
-1.402, 4.913e-7
-1.401, 5.722e-8
-1.400, 3.631e-7
-1.399, 4.124e-7
-1.398, -5.051e-7
-1.397, -3.867e-7
-1.396, 6.709e-8
-1.395, -5.643e-7
-1.394, -1.117e-6
-1.393, -3.374e-7
-1.392, -8.011e-7
-1.391, -1.354e-6
-1.390, -1.028e-6
-1.389, -8.800e-7
-1.388, -1.600e-6
-1.387, -1.659e-6
-1.386, -8.504e-7
-1.385, -1.748e-6
-1.384, -2.143e-6
-1.383, -1.255e-6
-1.382, -2.163e-6
-1.381, -2.261e-6
-1.380, -2.113e-6
-1.379, -1.896e-6
-1.378, -2.715e-6
-1.377, -2.547e-6
-1.376, -2.202e-6
-1.375, -2.735e-6
-1.374, -2.912e-6
-1.373, -2.399e-6
-1.372, -2.686e-6
-1.371, -3.041e-6
-1.370, -2.853e-6
-1.369, -2.794e-6
-1.368, -3.268e-6
-1.367, -3.347e-6
-1.366, -2.962e-6
-1.365, -3.524e-6
-1.364, -3.810e-6
-1.363, -3.100e-6
-1.362, -3.613e-6
-1.361, -3.879e-6
-1.360, -3.554e-6
-1.359, -3.149e-6
-1.358, -4.402e-6
-1.357, -3.800e-6
-1.356, -3.682e-6
-1.355, -4.195e-6
-1.354, -4.333e-6
-1.353, -3.544e-6
-1.352, -4.047e-6
-1.351, -4.274e-6
-1.350, -4.195e-6
-1.349, -3.869e-6
-1.348, -4.471e-6
-1.347, -4.550e-6
-1.346, -3.919e-6
-1.345, -4.560e-6
-1.344, -4.590e-6
-1.343, -4.126e-6
-1.342, -4.590e-6
-1.341, -4.708e-6
-1.340, -4.767e-6
-1.339, -4.185e-6
-1.338, -5.261e-6
-1.337, -4.787e-6
-1.336, -4.294e-6
-1.335, -4.945e-6
-1.334, -5.310e-6
-1.333, -4.530e-6
-1.332, -4.876e-6
-1.331, -5.330e-6
-1.330, -5.063e-6
-1.329, -4.866e-6
-1.328, -5.349e-6
-1.327, -5.517e-6
-1.326, -4.876e-6
-1.325, -5.231e-6
-1.324, -5.734e-6
-1.323, -4.994e-6
-1.322, -5.468e-6
-1.321, -5.714e-6
-1.320, -5.300e-6
-1.319, -5.093e-6
-1.318, -5.724e-6
-1.317, -5.665e-6
-1.316, -4.994e-6
-1.315, -5.547e-6
-1.314, -5.695e-6
-1.313, -5.172e-6
-1.312, -5.596e-6
-1.311, -5.764e-6
-1.310, -5.734e-6
-1.309, -5.122e-6
-1.308, -5.862e-6
-1.307, -5.852e-6
-1.306, -5.626e-6
-1.305, -6.060e-6
-1.304, -6.208e-6
-1.303, -5.290e-6
-1.302, -5.833e-6
-1.301, -6.267e-6
-1.300, -5.951e-6
-1.299, -5.843e-6
-1.298, -6.306e-6
-1.297, -6.198e-6
-1.296, -5.557e-6
-1.295, -6.129e-6
-1.294, -6.543e-6
-1.293, -5.872e-6
-1.292, -6.148e-6
-1.291, -6.346e-6
-1.290, -6.119e-6
-1.289, -6.030e-6
-1.288, -6.425e-6
-1.287, -6.543e-6
-1.286, -5.843e-6
-1.285, -6.484e-6
-1.284, -6.681e-6
-1.283, -5.922e-6
-1.282, -6.306e-6
-1.281, -6.770e-6
-1.280, -6.553e-6
-1.279, -6.188e-6
-1.278, -6.790e-6
-1.277, -6.800e-6
-1.276, -6.030e-6
-1.275, -6.514e-6
-1.274, -6.829e-6
-1.273, -6.089e-6
-1.272, -6.474e-6
-1.271, -6.829e-6
-1.270, -6.622e-6
-1.269, -6.277e-6
-1.268, -6.819e-6
-1.267, -6.849e-6
-1.266, -6.336e-6
-1.265, -6.869e-6
-1.264, -6.987e-6
-1.263, -6.227e-6
-1.262, -6.938e-6
-1.261, -6.938e-6
-1.260, -6.553e-6
-1.259, -6.326e-6
-1.258, -7.096e-6
-1.257, -7.017e-6
-1.256, -6.405e-6
-1.255, -6.849e-6
-1.254, -7.332e-6
-1.253, -6.198e-6
-1.252, -6.987e-6
-1.251, -7.372e-6
-1.250, -7.007e-6
-1.249, -6.602e-6
-1.248, -7.382e-6
-1.247, -7.105e-6
-1.246, -6.661e-6
-1.245, -7.145e-6
-1.244, -7.372e-6
-1.243, -6.425e-6
-1.242, -7.046e-6
-1.241, -7.441e-6
-1.240, -7.105e-6
-1.239, -6.681e-6
-1.238, -7.530e-6
-1.237, -7.411e-6
-1.236, -6.849e-6
-1.235, -7.530e-6
-1.234, -7.599e-6
-1.233, -6.849e-6
-1.232, -7.214e-6
-1.231, -7.747e-6
-1.230, -7.283e-6
-1.229, -7.096e-6
-1.228, -7.816e-6
-1.227, -7.688e-6
-1.226, -7.125e-6
-1.225, -7.609e-6
-1.224, -7.855e-6
-1.223, -7.204e-6
-1.222, -7.559e-6
-1.221, -8.033e-6
-1.220, -7.490e-6
-1.219, -7.313e-6
-1.218, -7.717e-6
-1.217, -7.984e-6
-1.216, -7.352e-6
-1.215, -7.993e-6
-1.214, -8.112e-6
-1.213, -7.352e-6
-1.212, -7.836e-6
-1.211, -8.151e-6
-1.210, -7.747e-6
-1.209, -7.609e-6
-1.208, -8.171e-6
-1.207, -8.092e-6
-1.206, -7.609e-6
-1.205, -8.003e-6
-1.204, -8.191e-6
-1.203, -7.816e-6
-1.202, -8.151e-6
-1.201, -8.654e-6
-1.200, -8.023e-6
-1.199, -7.865e-6
-1.198, -8.457e-6
-1.197, -8.467e-6
-1.196, -7.786e-6
-1.195, -8.358e-6
-1.194, -8.526e-6
-1.193, -7.924e-6
-1.192, -8.210e-6
-1.191, -8.832e-6
-1.190, -8.358e-6
-1.189, -8.250e-6
-1.188, -8.654e-6
-1.187, -8.595e-6
-1.186, -8.329e-6
-1.185, -8.783e-6
-1.184, -8.941e-6
-1.183, -8.122e-6
-1.182, -8.645e-6
-1.181, -8.891e-6
-1.180, -8.645e-6
-1.179, -8.289e-6
-1.178, -9.010e-6
-1.177, -9.000e-6
-1.176, -8.151e-6
-1.175, -9.049e-6
-1.174, -9.384e-6
-1.173, -8.368e-6
-1.172, -8.891e-6
-1.171, -9.187e-6
-1.170, -8.970e-6
-1.169, -8.723e-6
-1.168, -9.404e-6
-1.167, -9.355e-6
-1.166, -8.733e-6
-1.165, -9.069e-6
-1.164, -9.631e-6
-1.163, -8.871e-6
-1.162, -9.256e-6
-1.161, -9.799e-6
-1.160, -9.365e-6
-1.159, -9.010e-6
-1.158, -9.621e-6
-1.157, -9.740e-6
-1.156, -9.019e-6
-1.155, -9.552e-6
-1.154, -9.947e-6
-1.153, -9.148e-6
-1.152, -9.898e-6
-1.151, -9.898e-6
-1.150, -9.750e-6
-1.149, -9.365e-6
-1.148, -9.907e-6
-1.147, -1.008e-5
-1.146, -9.493e-6
-1.145, -1.016e-5
-1.144, -1.033e-5
-1.143, -9.720e-6
-1.142, -9.976e-6
-1.141, -1.043e-5
-1.140, -9.878e-6
-1.139, -9.828e-6
-1.138, -1.049e-5
-1.137, -1.055e-5
-1.136, -9.621e-6
-1.135, -1.060e-5
-1.134, -1.077e-5
-1.133, -9.996e-6
-1.132, -1.046e-5
-1.131, -1.095e-5
-1.130, -1.032e-5
-1.129, -1.023e-5
-1.128, -1.103e-5
-1.127, -1.073e-5
-1.126, -1.037e-5
-1.125, -1.107e-5
-1.124, -1.125e-5
-1.123, -1.031e-5
-1.122, -1.078e-5
-1.121, -1.125e-5
-1.120, -1.081e-5
-1.119, -1.081e-5
-1.118, -1.156e-5
-1.117, -1.138e-5
-1.116, -1.082e-5
-1.115, -1.142e-5
-1.114, -1.182e-5
-1.113, -1.082e-5
-1.112, -1.146e-5
-1.111, -1.212e-5
-1.110, -1.152e-5
-1.109, -1.107e-5
-1.108, -1.203e-5
-1.107, -1.197e-5
-1.106, -1.122e-5
-1.105, -1.186e-5
-1.104, -1.243e-5
-1.103, -1.147e-5
-1.102, -1.198e-5
-1.101, -1.248e-5
-1.100, -1.219e-5
-1.099, -1.175e-5
-1.098, -1.261e-5
-1.097, -1.277e-5
-1.096, -1.199e-5
-1.095, -1.253e-5
-1.094, -1.306e-5
-1.093, -1.225e-5
-1.092, -1.232e-5
-1.091, -1.305e-5
-1.090, -1.277e-5
-1.089, -1.247e-5
-1.088, -1.334e-5
-1.087, -1.328e-5
-1.086, -1.266e-5
-1.085, -1.311e-5
-1.084, -1.368e-5
-1.083, -1.263e-5
-1.082, -1.342e-5
-1.081, -1.391e-5
-1.080, -1.360e-5
-1.079, -1.315e-5
-1.078, -1.422e-5
-1.077, -1.419e-5
-1.076, -1.338e-5
-1.075, -1.429e-5
-1.074, -1.468e-5
-1.073, -1.342e-5
-1.072, -1.416e-5
-1.071, -1.479e-5
-1.070, -1.444e-5
-1.069, -1.403e-5
-1.068, -1.496e-5
-1.067, -1.509e-5
-1.066, -1.428e-5
-1.065, -1.492e-5
-1.064, -1.546e-5
-1.063, -1.464e-5
-1.062, -1.531e-5
-1.061, -1.575e-5
-1.060, -1.535e-5
-1.059, -1.499e-5
-1.058, -1.590e-5
-1.057, -1.600e-5
-1.056, -1.521e-5
-1.055, -1.609e-5
-1.054, -1.666e-5
-1.053, -1.567e-5
-1.052, -1.622e-5
-1.051, -1.696e-5
-1.050, -1.669e-5
-1.049, -1.613e-5
-1.048, -1.712e-5
-1.047, -1.735e-5
-1.046, -1.647e-5
-1.045, -1.731e-5
-1.044, -1.782e-5
-1.043, -1.692e-5
-1.042, -1.761e-5
-1.041, -1.827e-5
-1.040, -1.780e-5
-1.039, -1.736e-5
-1.038, -1.838e-5
-1.037, -1.854e-5
-1.036, -1.767e-5
-1.035, -1.859e-5
-1.034, -1.933e-5
-1.033, -1.838e-5
-1.032, -1.896e-5
-1.031, -1.948e-5
-1.030, -1.936e-5
-1.029, -1.879e-5
-1.028, -2.020e-5
-1.027, -2.028e-5
-1.026, -1.928e-5
-1.025, -2.018e-5
-1.024, -2.110e-5
-1.023, -2.011e-5
-1.022, -2.067e-5
-1.021, -2.147e-5
-1.020, -2.101e-5
-1.019, -2.091e-5
-1.018, -2.171e-5
-1.017, -2.204e-5
-1.016, -2.084e-5
-1.015, -2.201e-5
-1.014, -2.275e-5
-1.013, -2.176e-5
-1.012, -2.232e-5
-1.011, -2.339e-5
-1.010, -2.288e-5
-1.009, -2.253e-5
-1.008, -2.361e-5
-1.007, -2.386e-5
-1.006, -2.307e-5
-1.005, -2.391e-5
-1.004, -2.471e-5
-1.003, -2.373e-5
-1.002, -2.430e-5
-1.001, -2.532e-5
