Apr. 24, 2025   09:03:03
Cyclic Voltammetry
File: c:/users/guazh/data/banditlqround7_x0exp590_r20/2025-04-16-exp1174\exp1174-2025-04-24t08_42_11-h2koh\exp1174_cv_sr_900mvs_efin_-1800mv.bin
Data Source:  Experiment
Instrument Model:  CHI760E
Header: CV ran at 900 mVs
Note: 

Init E (V) = -1
High E (V) = -1
Low E (V) = -1.8
Final E (V) = -1
Init P/N = N
Scan Rate (V/s) = 0.9
Segment = 3
Sample Interval (V) = 0.001
Quiet Time (sec) = 2
Sensitivity (A/V) = 0.01
Comp R (ohm) = 1.5

Results:

Channel 1:
Segment 1:
Ep = -1.356V
ip = 5.836e-5A
Ah = 3.121e-6C

Segment 2:

Segment 3:

Potential/V, Current/A

-1.000, 4.024e-5
-1.001, 8.032e-5
-1.002, 9.882e-5
-1.003, 1.081e-4
-1.004, 1.111e-4
-1.005, 1.142e-4
-1.006, 1.204e-4
-1.007, 1.235e-4
-1.008, 1.266e-4
-1.009, 1.296e-4
-1.010, 1.296e-4
-1.011, 1.327e-4
-1.012, 1.327e-4
-1.013, 1.327e-4
-1.014, 1.358e-4
-1.015, 1.358e-4
-1.016, 1.358e-4
-1.017, 1.358e-4
-1.018, 1.389e-4
-1.019, 1.389e-4
-1.020, 1.389e-4
-1.021, 1.389e-4
-1.022, 1.420e-4
-1.023, 1.420e-4
-1.024, 1.451e-4
-1.025, 1.451e-4
-1.026, 1.481e-4
-1.027, 1.481e-4
-1.028, 1.481e-4
-1.029, 1.481e-4
-1.030, 1.481e-4
-1.031, 1.512e-4
-1.032, 1.481e-4
-1.033, 1.512e-4
-1.034, 1.512e-4
-1.035, 1.512e-4
-1.036, 1.512e-4
-1.037, 1.512e-4
-1.038, 1.543e-4
-1.039, 1.543e-4
-1.040, 1.574e-4
-1.041, 1.574e-4
-1.042, 1.574e-4
-1.043, 1.574e-4
-1.044, 1.574e-4
-1.045, 1.574e-4
-1.046, 1.574e-4
-1.047, 1.574e-4
-1.048, 1.574e-4
-1.049, 1.574e-4
-1.050, 1.605e-4
-1.051, 1.605e-4
-1.052, 1.605e-4
-1.053, 1.605e-4
-1.054, 1.636e-4
-1.055, 1.636e-4
-1.056, 1.666e-4
-1.057, 1.666e-4
-1.058, 1.636e-4
-1.059, 1.636e-4
-1.060, 1.666e-4
-1.061, 1.666e-4
-1.062, 1.666e-4
-1.063, 1.666e-4
-1.064, 1.666e-4
-1.065, 1.666e-4
-1.066, 1.666e-4
-1.067, 1.666e-4
-1.068, 1.697e-4
-1.069, 1.697e-4
-1.070, 1.697e-4
-1.071, 1.728e-4
-1.072, 1.728e-4
-1.073, 1.728e-4
-1.074, 1.728e-4
-1.075, 1.728e-4
-1.076, 1.728e-4
-1.077, 1.697e-4
-1.078, 1.728e-4
-1.079, 1.728e-4
-1.080, 1.697e-4
-1.081, 1.728e-4
-1.082, 1.728e-4
-1.083, 1.759e-4
-1.084, 1.759e-4
-1.085, 1.759e-4
-1.086, 1.759e-4
-1.087, 1.759e-4
-1.088, 1.759e-4
-1.089, 1.759e-4
-1.090, 1.759e-4
-1.091, 1.759e-4
-1.092, 1.759e-4
-1.093, 1.790e-4
-1.094, 1.759e-4
-1.095, 1.759e-4
-1.096, 1.759e-4
-1.097, 1.790e-4
-1.098, 1.790e-4
-1.099, 1.790e-4
-1.100, 1.790e-4
-1.101, 1.821e-4
-1.102, 1.821e-4
-1.103, 1.821e-4
-1.104, 1.821e-4
-1.105, 1.821e-4
-1.106, 1.821e-4
-1.107, 1.790e-4
-1.108, 1.821e-4
-1.109, 1.821e-4
-1.110, 1.821e-4
-1.111, 1.821e-4
-1.112, 1.821e-4
-1.113, 1.851e-4
-1.114, 1.851e-4
-1.115, 1.851e-4
-1.116, 1.851e-4
-1.117, 1.851e-4
-1.118, 1.851e-4
-1.119, 1.851e-4
-1.120, 1.851e-4
-1.121, 1.851e-4
-1.122, 1.851e-4
-1.123, 1.851e-4
-1.124, 1.851e-4
-1.125, 1.851e-4
-1.126, 1.851e-4
-1.127, 1.882e-4
-1.128, 1.882e-4
-1.129, 1.882e-4
-1.130, 1.882e-4
-1.131, 1.913e-4
-1.132, 1.882e-4
-1.133, 1.913e-4
-1.134, 1.913e-4
-1.135, 1.913e-4
-1.136, 1.913e-4
-1.137, 1.882e-4
-1.138, 1.882e-4
-1.139, 1.882e-4
-1.140, 1.882e-4
-1.141, 1.882e-4
-1.142, 1.913e-4
-1.143, 1.913e-4
-1.144, 1.944e-4
-1.145, 1.944e-4
-1.146, 1.944e-4
-1.147, 1.944e-4
-1.148, 1.944e-4
-1.149, 1.913e-4
-1.150, 1.944e-4
-1.151, 1.944e-4
-1.152, 1.913e-4
-1.153, 1.944e-4
-1.154, 1.913e-4
-1.155, 1.913e-4
-1.156, 1.913e-4
-1.157, 1.944e-4
-1.158, 1.944e-4
-1.159, 1.944e-4
-1.160, 1.944e-4
-1.161, 1.944e-4
-1.162, 1.944e-4
-1.163, 1.944e-4
-1.164, 1.944e-4
-1.165, 1.944e-4
-1.166, 1.944e-4
-1.167, 1.944e-4
-1.168, 1.944e-4
-1.169, 1.944e-4
-1.170, 1.944e-4
-1.171, 1.944e-4
-1.172, 1.944e-4
-1.173, 1.944e-4
-1.174, 1.975e-4
-1.175, 1.975e-4
-1.176, 1.975e-4
-1.177, 1.975e-4
-1.178, 1.975e-4
-1.179, 1.975e-4
-1.180, 1.975e-4
-1.181, 1.944e-4
-1.182, 1.944e-4
-1.183, 1.944e-4
-1.184, 1.944e-4
-1.185, 1.944e-4
-1.186, 1.944e-4
-1.187, 1.944e-4
-1.188, 1.975e-4
-1.189, 1.975e-4
-1.190, 1.975e-4
-1.191, 2.006e-4
-1.192, 1.975e-4
-1.193, 2.006e-4
-1.194, 1.975e-4
-1.195, 1.975e-4
-1.196, 1.975e-4
-1.197, 1.975e-4
-1.198, 1.975e-4
-1.199, 1.975e-4
-1.200, 1.975e-4
-1.201, 1.975e-4
-1.202, 1.975e-4
-1.203, 1.975e-4
-1.204, 2.006e-4
-1.205, 1.975e-4
-1.206, 2.006e-4
-1.207, 2.006e-4
-1.208, 2.006e-4
-1.209, 2.006e-4
-1.210, 2.006e-4
-1.211, 1.975e-4
-1.212, 2.006e-4
-1.213, 1.975e-4
-1.214, 1.975e-4
-1.215, 1.975e-4
-1.216, 2.006e-4
-1.217, 2.006e-4
-1.218, 2.006e-4
-1.219, 2.006e-4
-1.220, 2.036e-4
-1.221, 2.036e-4
-1.222, 2.006e-4
-1.223, 2.036e-4
-1.224, 2.006e-4
-1.225, 2.036e-4
-1.226, 2.006e-4
-1.227, 2.006e-4
-1.228, 2.006e-4
-1.229, 2.036e-4
-1.230, 2.036e-4
-1.231, 2.006e-4
-1.232, 2.036e-4
-1.233, 2.036e-4
-1.234, 2.036e-4
-1.235, 2.036e-4
-1.236, 2.067e-4
-1.237, 2.036e-4
-1.238, 2.036e-4
-1.239, 2.067e-4
-1.240, 2.036e-4
-1.241, 2.036e-4
-1.242, 2.036e-4
-1.243, 2.036e-4
-1.244, 2.036e-4
-1.245, 2.036e-4
-1.246, 2.036e-4
-1.247, 2.067e-4
-1.248, 2.067e-4
-1.249, 2.067e-4
-1.250, 2.067e-4
-1.251, 2.098e-4
-1.252, 2.067e-4
-1.253, 2.098e-4
-1.254, 2.098e-4
-1.255, 2.098e-4
-1.256, 2.067e-4
-1.257, 2.067e-4
-1.258, 2.067e-4
-1.259, 2.067e-4
-1.260, 2.098e-4
-1.261, 2.067e-4
-1.262, 2.098e-4
-1.263, 2.098e-4
-1.264, 2.098e-4
-1.265, 2.098e-4
-1.266, 2.129e-4
-1.267, 2.129e-4
-1.268, 2.129e-4
-1.269, 2.129e-4
-1.270, 2.129e-4
-1.271, 2.129e-4
-1.272, 2.129e-4
-1.273, 2.129e-4
-1.274, 2.129e-4
-1.275, 2.129e-4
-1.276, 2.129e-4
-1.277, 2.160e-4
-1.278, 2.160e-4
-1.279, 2.160e-4
-1.280, 2.160e-4
-1.281, 2.191e-4
-1.282, 2.191e-4
-1.283, 2.191e-4
-1.284, 2.191e-4
-1.285, 2.160e-4
-1.286, 2.191e-4
-1.287, 2.191e-4
-1.288, 2.160e-4
-1.289, 2.191e-4
-1.290, 2.191e-4
-1.291, 2.191e-4
-1.292, 2.221e-4
-1.293, 2.221e-4
-1.294, 2.221e-4
-1.295, 2.221e-4
-1.296, 2.252e-4
-1.297, 2.252e-4
-1.298, 2.252e-4
-1.299, 2.252e-4
-1.300, 2.252e-4
-1.301, 2.252e-4
-1.302, 2.252e-4
-1.303, 2.252e-4
-1.304, 2.252e-4
-1.305, 2.252e-4
-1.306, 2.252e-4
-1.307, 2.283e-4
-1.308, 2.283e-4
-1.309, 2.283e-4
-1.310, 2.314e-4
-1.311, 2.345e-4
-1.312, 2.314e-4
-1.313, 2.345e-4
-1.314, 2.345e-4
-1.315, 2.345e-4
-1.316, 2.345e-4
-1.317, 2.345e-4
-1.318, 2.345e-4
-1.319, 2.345e-4
-1.320, 2.345e-4
-1.321, 2.345e-4
-1.322, 2.376e-4
-1.323, 2.376e-4
-1.324, 2.406e-4
-1.325, 2.437e-4
-1.326, 2.437e-4
-1.327, 2.437e-4
-1.328, 2.437e-4
-1.329, 2.437e-4
-1.330, 2.468e-4
-1.331, 2.437e-4
-1.332, 2.468e-4
-1.333, 2.437e-4
-1.334, 2.468e-4
-1.335, 2.468e-4
-1.336, 2.468e-4
-1.337, 2.499e-4
-1.338, 2.530e-4
-1.339, 2.530e-4
-1.340, 2.530e-4
-1.341, 2.561e-4
-1.342, 2.561e-4
-1.343, 2.591e-4
-1.344, 2.561e-4
-1.345, 2.591e-4
-1.346, 2.591e-4
-1.347, 2.591e-4
-1.348, 2.591e-4
-1.349, 2.591e-4
-1.350, 2.591e-4
-1.351, 2.591e-4
-1.352, 2.622e-4
-1.353, 2.622e-4
-1.354, 2.653e-4
-1.355, 2.653e-4
-1.356, 2.684e-4
-1.357, 2.684e-4
-1.358, 2.653e-4
-1.359, 2.653e-4
-1.360, 2.653e-4
-1.361, 2.653e-4
-1.362, 2.653e-4
-1.363, 2.653e-4
-1.364, 2.653e-4
-1.365, 2.622e-4
-1.366, 2.653e-4
-1.367, 2.653e-4
-1.368, 2.653e-4
-1.369, 2.653e-4
-1.370, 2.653e-4
-1.371, 2.684e-4
-1.372, 2.684e-4
-1.373, 2.653e-4
-1.374, 2.653e-4
-1.375, 2.653e-4
-1.376, 2.622e-4
-1.377, 2.622e-4
-1.378, 2.622e-4
-1.379, 2.591e-4
-1.380, 2.591e-4
-1.381, 2.591e-4
-1.382, 2.622e-4
-1.383, 2.622e-4
-1.384, 2.622e-4
-1.385, 2.622e-4
-1.386, 2.622e-4
-1.387, 2.591e-4
-1.388, 2.591e-4
-1.389, 2.561e-4
-1.390, 2.561e-4
-1.391, 2.561e-4
-1.392, 2.561e-4
-1.393, 2.530e-4
-1.394, 2.530e-4
-1.395, 2.530e-4
-1.396, 2.530e-4
-1.397, 2.530e-4
-1.398, 2.530e-4
-1.399, 2.530e-4
-1.400, 2.530e-4
-1.401, 2.530e-4
-1.402, 2.530e-4
-1.403, 2.530e-4
-1.404, 2.499e-4
-1.405, 2.499e-4
-1.406, 2.499e-4
-1.407, 2.468e-4
-1.408, 2.468e-4
-1.409, 2.468e-4
-1.410, 2.468e-4
-1.411, 2.437e-4
-1.412, 2.468e-4
-1.413, 2.468e-4
-1.414, 2.468e-4
-1.415, 2.468e-4
-1.416, 2.468e-4
-1.417, 2.468e-4
-1.418, 2.468e-4
-1.419, 2.437e-4
-1.420, 2.437e-4
-1.421, 2.406e-4
-1.422, 2.406e-4
-1.423, 2.406e-4
-1.424, 2.406e-4
-1.425, 2.406e-4
-1.426, 2.406e-4
-1.427, 2.376e-4
-1.428, 2.406e-4
-1.429, 2.406e-4
-1.430, 2.406e-4
-1.431, 2.406e-4
-1.432, 2.376e-4
-1.433, 2.376e-4
-1.434, 2.376e-4
-1.435, 2.376e-4
-1.436, 2.345e-4
-1.437, 2.345e-4
-1.438, 2.345e-4
-1.439, 2.314e-4
-1.440, 2.314e-4
-1.441, 2.314e-4
-1.442, 2.314e-4
-1.443, 2.314e-4
-1.444, 2.314e-4
-1.445, 2.314e-4
-1.446, 2.314e-4
-1.447, 2.314e-4
-1.448, 2.314e-4
-1.449, 2.283e-4
-1.450, 2.283e-4
-1.451, 2.252e-4
-1.452, 2.252e-4
-1.453, 2.252e-4
-1.454, 2.252e-4
-1.455, 2.252e-4
-1.456, 2.252e-4
-1.457, 2.252e-4
-1.458, 2.252e-4
-1.459, 2.252e-4
-1.460, 2.252e-4
-1.461, 2.252e-4
-1.462, 2.252e-4
-1.463, 2.252e-4
-1.464, 2.252e-4
-1.465, 2.221e-4
-1.466, 2.221e-4
-1.467, 2.221e-4
-1.468, 2.221e-4
-1.469, 2.221e-4
-1.470, 2.221e-4
-1.471, 2.221e-4
-1.472, 2.221e-4
-1.473, 2.221e-4
-1.474, 2.221e-4
-1.475, 2.221e-4
-1.476, 2.252e-4
-1.477, 2.252e-4
-1.478, 2.221e-4
-1.479, 2.221e-4
-1.480, 2.221e-4
-1.481, 2.221e-4
-1.482, 2.221e-4
-1.483, 2.221e-4
-1.484, 2.252e-4
-1.485, 2.252e-4
-1.486, 2.221e-4
-1.487, 2.252e-4
-1.488, 2.252e-4
-1.489, 2.252e-4
-1.490, 2.283e-4
-1.491, 2.283e-4
-1.492, 2.283e-4
-1.493, 2.283e-4
-1.494, 2.283e-4
-1.495, 2.314e-4
-1.496, 2.283e-4
-1.497, 2.314e-4
-1.498, 2.314e-4
-1.499, 2.314e-4
-1.500, 2.345e-4
-1.501, 2.345e-4
-1.502, 2.376e-4
-1.503, 2.376e-4
-1.504, 2.406e-4
-1.505, 2.406e-4
-1.506, 2.406e-4
-1.507, 2.437e-4
-1.508, 2.437e-4
-1.509, 2.437e-4
-1.510, 2.468e-4
-1.511, 2.468e-4
-1.512, 2.468e-4
-1.513, 2.499e-4
-1.514, 2.499e-4
-1.515, 2.530e-4
-1.516, 2.530e-4
-1.517, 2.530e-4
-1.518, 2.561e-4
-1.519, 2.591e-4
-1.520, 2.622e-4
-1.521, 2.653e-4
-1.522, 2.653e-4
-1.523, 2.653e-4
-1.524, 2.715e-4
-1.525, 2.715e-4
-1.526, 2.746e-4
-1.527, 2.715e-4
-1.528, 2.776e-4
-1.529, 2.776e-4
-1.530, 2.807e-4
-1.531, 2.838e-4
-1.532, 2.838e-4
-1.533, 2.869e-4
-1.534, 2.900e-4
-1.535, 2.931e-4
-1.536, 2.961e-4
-1.537, 2.992e-4
-1.538, 3.023e-4
-1.539, 3.023e-4
-1.540, 3.085e-4
-1.541, 3.115e-4
-1.542, 3.115e-4
-1.543, 3.146e-4
-1.544, 3.177e-4
-1.545, 3.208e-4
-1.546, 3.239e-4
-1.547, 3.270e-4
-1.548, 3.331e-4
-1.549, 3.362e-4
-1.550, 3.393e-4
-1.551, 3.424e-4
-1.552, 3.455e-4
-1.553, 3.516e-4
-1.554, 3.547e-4
-1.555, 3.578e-4
-1.556, 3.609e-4
-1.557, 3.640e-4
-1.558, 3.670e-4
-1.559, 3.732e-4
-1.560, 3.763e-4
-1.561, 3.825e-4
-1.562, 3.855e-4
-1.563, 3.917e-4
-1.564, 3.948e-4
-1.565, 4.010e-4
-1.566, 4.040e-4
-1.567, 4.102e-4
-1.568, 4.133e-4
-1.569, 4.195e-4
-1.570, 4.225e-4
-1.571, 4.287e-4
-1.572, 4.318e-4
-1.573, 4.380e-4
-1.574, 4.441e-4
-1.575, 4.472e-4
-1.576, 4.534e-4
-1.577, 4.595e-4
-1.578, 4.657e-4
-1.579, 4.719e-4
-1.580, 4.780e-4
-1.581, 4.842e-4
-1.582, 4.904e-4
-1.583, 4.965e-4
-1.584, 5.027e-4
-1.585, 5.089e-4
-1.586, 5.150e-4
-1.587, 5.212e-4
-1.588, 5.274e-4
-1.589, 5.335e-4
-1.590, 5.397e-4
-1.591, 5.489e-4
-1.592, 5.551e-4
-1.593, 5.644e-4
-1.594, 5.705e-4
-1.595, 5.798e-4
-1.596, 5.890e-4
-1.597, 5.952e-4
-1.598, 6.014e-4
-1.599, 6.106e-4
-1.600, 6.168e-4
-1.601, 6.260e-4
-1.602, 6.322e-4
-1.603, 6.384e-4
-1.604, 6.476e-4
-1.605, 6.569e-4
-1.606, 6.661e-4
-1.607, 6.754e-4
-1.608, 6.846e-4
-1.609, 6.969e-4
-1.610, 7.062e-4
-1.611, 7.154e-4
-1.612, 7.216e-4
-1.613, 7.339e-4
-1.614, 7.432e-4
-1.615, 7.524e-4
-1.616, 7.648e-4
-1.617, 7.740e-4
-1.618, 7.833e-4
-1.619, 7.925e-4
-1.620, 8.048e-4
-1.621, 8.172e-4
-1.622, 8.295e-4
-1.623, 8.418e-4
-1.624, 8.542e-4
-1.625, 8.665e-4
-1.626, 8.788e-4
-1.627, 8.912e-4
-1.628, 9.035e-4
-1.629, 9.158e-4
-1.630, 9.313e-4
-1.631, 9.436e-4
-1.632, 9.559e-4
-1.633, 9.683e-4
-1.634, 9.837e-4
-1.635, 9.991e-4
-1.636, 1.011e-3
-1.637, 1.027e-3
-1.638, 1.045e-3
-1.639, 1.061e-3
-1.640, 1.076e-3
-1.641, 1.095e-3
-1.642, 1.110e-3
-1.643, 1.125e-3
-1.644, 1.141e-3
-1.645, 1.159e-3
-1.646, 1.178e-3
-1.647, 1.193e-3
-1.648, 1.209e-3
-1.649, 1.230e-3
-1.650, 1.249e-3
-1.651, 1.267e-3
-1.652, 1.289e-3
-1.653, 1.307e-3
-1.654, 1.329e-3
-1.655, 1.351e-3
-1.656, 1.372e-3
-1.657, 1.394e-3
-1.658, 1.415e-3
-1.659, 1.437e-3
-1.660, 1.462e-3
-1.661, 1.483e-3
-1.662, 1.505e-3
-1.663, 1.529e-3
-1.664, 1.554e-3
-1.665, 1.576e-3
-1.666, 1.600e-3
-1.667, 1.628e-3
-1.668, 1.656e-3
-1.669, 1.680e-3
-1.670, 1.708e-3
-1.671, 1.736e-3
-1.672, 1.764e-3
-1.673, 1.791e-3
-1.674, 1.822e-3
-1.675, 1.850e-3
-1.676, 1.881e-3
-1.677, 1.909e-3
-1.678, 1.936e-3
-1.679, 1.967e-3
-1.680, 1.998e-3
-1.681, 2.029e-3
-1.682, 2.060e-3
-1.683, 2.094e-3
-1.684, 2.128e-3
-1.685, 2.161e-3
-1.686, 2.195e-3
-1.687, 2.232e-3
-1.688, 2.266e-3
-1.689, 2.300e-3
-1.690, 2.337e-3
-1.691, 2.371e-3
-1.692, 2.408e-3
-1.693, 2.442e-3
-1.694, 2.482e-3
-1.695, 2.519e-3
-1.696, 2.556e-3
-1.697, 2.593e-3
-1.698, 2.633e-3
-1.699, 2.673e-3
-1.700, 2.713e-3
-1.701, 2.753e-3
-1.702, 2.793e-3
-1.703, 2.834e-3
-1.704, 2.877e-3
-1.705, 2.917e-3
-1.706, 2.960e-3
-1.707, 3.000e-3
-1.708, 3.040e-3
-1.709, 3.080e-3
-1.710, 3.123e-3
-1.711, 3.163e-3
-1.712, 3.210e-3
-1.713, 3.253e-3
-1.714, 3.296e-3
-1.715, 3.339e-3
-1.716, 3.385e-3
-1.717, 3.429e-3
-1.718, 3.475e-3
-1.719, 3.518e-3
-1.720, 3.561e-3
-1.721, 3.604e-3
-1.722, 3.647e-3
-1.723, 3.691e-3
-1.724, 3.737e-3
-1.725, 3.780e-3
-1.726, 3.823e-3
-1.727, 3.873e-3
-1.728, 3.916e-3
-1.729, 3.962e-3
-1.730, 4.008e-3
-1.731, 4.054e-3
-1.732, 4.101e-3
-1.733, 4.147e-3
-1.734, 4.193e-3
-1.735, 4.239e-3
-1.736, 4.286e-3
-1.737, 4.332e-3
-1.738, 4.375e-3
-1.739, 4.421e-3
-1.740, 4.468e-3
-1.741, 4.517e-3
-1.742, 4.563e-3
-1.743, 4.612e-3
-1.744, 4.659e-3
-1.745, 4.711e-3
-1.746, 4.757e-3
-1.747, 4.810e-3
-1.748, 4.859e-3
-1.749, 4.908e-3
-1.750, 4.958e-3
-1.751, 5.004e-3
-1.752, 5.053e-3
-1.753, 5.103e-3
-1.754, 5.155e-3
-1.755, 5.204e-3
-1.756, 5.257e-3
-1.757, 5.309e-3
-1.758, 5.359e-3
-1.759, 5.408e-3
-1.760, 5.460e-3
-1.761, 5.513e-3
-1.762, 5.565e-3
-1.763, 5.618e-3
-1.764, 5.667e-3
-1.765, 5.719e-3
-1.766, 5.769e-3
-1.767, 5.818e-3
-1.768, 5.867e-3
-1.769, 5.920e-3
-1.770, 5.966e-3
-1.771, 6.018e-3
-1.772, 6.071e-3
-1.773, 6.120e-3
-1.774, 6.173e-3
-1.775, 6.222e-3
-1.776, 6.274e-3
-1.777, 6.327e-3
-1.778, 6.379e-3
-1.779, 6.425e-3
-1.780, 6.478e-3
-1.781, 6.527e-3
-1.782, 6.576e-3
-1.783, 6.626e-3
-1.784, 6.672e-3
-1.785, 6.721e-3
-1.786, 6.768e-3
-1.787, 6.817e-3
-1.788, 6.866e-3
-1.789, 6.916e-3
-1.790, 6.965e-3
-1.791, 7.011e-3
-1.792, 7.060e-3
-1.793, 7.110e-3
-1.794, 7.153e-3
-1.795, 7.202e-3
-1.796, 7.245e-3
-1.797, 7.295e-3
-1.798, 7.344e-3
-1.799, 7.384e-3
-1.800, 7.363e-3
-1.799, 7.261e-3
-1.798, 7.184e-3
-1.797, 7.107e-3
-1.796, 7.036e-3
-1.795, 6.968e-3
-1.794, 6.903e-3
-1.793, 6.832e-3
-1.792, 6.764e-3
-1.791, 6.697e-3
-1.790, 6.629e-3
-1.789, 6.564e-3
-1.788, 6.499e-3
-1.787, 6.435e-3
-1.786, 6.370e-3
-1.785, 6.305e-3
-1.784, 6.243e-3
-1.783, 6.179e-3
-1.782, 6.117e-3
-1.781, 6.052e-3
-1.780, 5.978e-3
-1.779, 5.920e-3
-1.778, 5.858e-3
-1.777, 5.803e-3
-1.776, 5.741e-3
-1.775, 5.682e-3
-1.774, 5.627e-3
-1.773, 5.568e-3
-1.772, 5.510e-3
-1.771, 5.454e-3
-1.770, 5.399e-3
-1.769, 5.343e-3
-1.768, 5.291e-3
-1.767, 5.235e-3
-1.766, 5.183e-3
-1.765, 5.130e-3
-1.764, 5.078e-3
-1.763, 5.026e-3
-1.762, 4.976e-3
-1.761, 4.927e-3
-1.760, 4.871e-3
-1.759, 4.822e-3
-1.758, 4.767e-3
-1.757, 4.717e-3
-1.756, 4.668e-3
-1.755, 4.619e-3
-1.754, 4.569e-3
-1.753, 4.523e-3
-1.752, 4.477e-3
-1.751, 4.431e-3
-1.750, 4.384e-3
-1.749, 4.341e-3
-1.748, 4.295e-3
-1.747, 4.249e-3
-1.746, 4.202e-3
-1.745, 4.153e-3
-1.744, 4.110e-3
-1.743, 4.064e-3
-1.742, 4.017e-3
-1.741, 3.974e-3
-1.740, 3.928e-3
-1.739, 3.882e-3
-1.738, 3.839e-3
-1.737, 3.799e-3
-1.736, 3.758e-3
-1.735, 3.715e-3
-1.734, 3.675e-3
-1.733, 3.632e-3
-1.732, 3.592e-3
-1.731, 3.549e-3
-1.730, 3.496e-3
-1.729, 3.456e-3
-1.728, 3.416e-3
-1.727, 3.373e-3
-1.726, 3.333e-3
-1.725, 3.293e-3
-1.724, 3.256e-3
-1.723, 3.216e-3
-1.722, 3.173e-3
-1.721, 3.136e-3
-1.720, 3.099e-3
-1.719, 3.062e-3
-1.718, 3.025e-3
-1.717, 2.988e-3
-1.716, 2.948e-3
-1.715, 2.911e-3
-1.714, 2.874e-3
-1.713, 2.834e-3
-1.712, 2.797e-3
-1.711, 2.763e-3
-1.710, 2.726e-3
-1.709, 2.689e-3
-1.708, 2.652e-3
-1.707, 2.618e-3
-1.706, 2.584e-3
-1.705, 2.550e-3
-1.704, 2.516e-3
-1.703, 2.482e-3
-1.702, 2.445e-3
-1.701, 2.411e-3
-1.700, 2.374e-3
-1.699, 2.340e-3
-1.698, 2.306e-3
-1.697, 2.272e-3
-1.696, 2.238e-3
-1.695, 2.205e-3
-1.694, 2.174e-3
-1.693, 2.140e-3
-1.692, 2.109e-3
-1.691, 2.081e-3
-1.690, 2.050e-3
-1.689, 2.017e-3
-1.688, 1.989e-3
-1.687, 1.955e-3
-1.686, 1.924e-3
-1.685, 1.893e-3
-1.684, 1.859e-3
-1.683, 1.828e-3
-1.682, 1.798e-3
-1.681, 1.767e-3
-1.680, 1.736e-3
-1.679, 1.708e-3
-1.678, 1.677e-3
-1.677, 1.650e-3
-1.676, 1.622e-3
-1.675, 1.594e-3
-1.674, 1.566e-3
-1.673, 1.539e-3
-1.672, 1.511e-3
-1.671, 1.483e-3
-1.670, 1.455e-3
-1.669, 1.428e-3
-1.668, 1.400e-3
-1.667, 1.369e-3
-1.666, 1.341e-3
-1.665, 1.314e-3
-1.664, 1.289e-3
-1.663, 1.264e-3
-1.662, 1.236e-3
-1.661, 1.215e-3
-1.660, 1.190e-3
-1.659, 1.166e-3
-1.658, 1.144e-3
-1.657, 1.119e-3
-1.656, 1.095e-3
-1.655, 1.070e-3
-1.654, 1.045e-3
-1.653, 1.024e-3
-1.652, 9.991e-4
-1.651, 9.744e-4
-1.650, 9.528e-4
-1.649, 9.313e-4
-1.648, 9.097e-4
-1.647, 8.881e-4
-1.646, 8.665e-4
-1.645, 8.449e-4
-1.644, 8.233e-4
-1.643, 8.048e-4
-1.642, 7.833e-4
-1.641, 7.617e-4
-1.640, 7.401e-4
-1.639, 7.216e-4
-1.638, 7.000e-4
-1.637, 6.784e-4
-1.636, 6.599e-4
-1.635, 6.414e-4
-1.634, 6.229e-4
-1.633, 6.044e-4
-1.632, 5.890e-4
-1.631, 5.705e-4
-1.630, 5.551e-4
-1.629, 5.397e-4
-1.628, 5.212e-4
-1.627, 5.058e-4
-1.626, 4.904e-4
-1.625, 4.750e-4
-1.624, 4.565e-4
-1.623, 4.410e-4
-1.622, 4.256e-4
-1.621, 4.071e-4
-1.620, 3.948e-4
-1.619, 3.794e-4
-1.618, 3.670e-4
-1.617, 3.547e-4
-1.616, 3.393e-4
-1.615, 3.270e-4
-1.614, 3.146e-4
-1.613, 3.023e-4
-1.612, 2.900e-4
-1.611, 2.776e-4
-1.610, 2.653e-4
-1.609, 2.530e-4
-1.608, 2.406e-4
-1.607, 2.283e-4
-1.606, 2.160e-4
-1.605, 2.067e-4
-1.604, 1.944e-4
-1.603, 1.851e-4
-1.602, 1.759e-4
-1.601, 1.666e-4
-1.600, 1.574e-4
-1.599, 1.481e-4
-1.598, 1.389e-4
-1.597, 1.296e-4
-1.596, 1.204e-4
-1.595, 1.111e-4
-1.594, 1.050e-4
-1.593, 9.573e-5
-1.592, 8.648e-5
-1.591, 8.032e-5
-1.590, 7.107e-5
-1.589, 6.490e-5
-1.588, 5.873e-5
-1.587, 4.949e-5
-1.586, 4.332e-5
-1.585, 3.715e-5
-1.584, 3.099e-5
-1.583, 2.482e-5
-1.582, 1.865e-5
-1.581, 1.249e-5
-1.580, 6.322e-6
-1.579, 1.559e-7
-1.578, -6.010e-6
-1.577, -9.093e-6
-1.576, -1.526e-5
-1.575, -2.143e-5
-1.574, -2.759e-5
-1.573, -3.068e-5
-1.572, -3.376e-5
-1.571, -3.992e-5
-1.570, -4.301e-5
-1.569, -4.609e-5
-1.568, -4.917e-5
-1.567, -5.534e-5
-1.566, -6.151e-5
-1.565, -6.151e-5
-1.564, -6.767e-5
-1.563, -7.076e-5
-1.562, -7.384e-5
-1.561, -7.692e-5
-1.560, -8.309e-5
-1.559, -8.617e-5
-1.558, -8.925e-5
-1.557, -8.925e-5
-1.556, -9.234e-5
-1.555, -9.542e-5
-1.554, -9.850e-5
-1.553, -1.016e-4
-1.552, -1.047e-4
-1.551, -1.047e-4
-1.550, -1.108e-4
-1.549, -1.108e-4
-1.548, -1.139e-4
-1.547, -1.170e-4
-1.546, -1.201e-4
-1.545, -1.201e-4
-1.544, -1.232e-4
-1.543, -1.263e-4
-1.542, -1.263e-4
-1.541, -1.263e-4
-1.540, -1.293e-4
-1.539, -1.293e-4
-1.538, -1.324e-4
-1.537, -1.324e-4
-1.536, -1.355e-4
-1.535, -1.386e-4
-1.534, -1.417e-4
-1.533, -1.417e-4
-1.532, -1.448e-4
-1.531, -1.448e-4
-1.530, -1.478e-4
-1.529, -1.478e-4
-1.528, -1.478e-4
-1.527, -1.478e-4
-1.526, -1.478e-4
-1.525, -1.509e-4
-1.524, -1.509e-4
-1.523, -1.540e-4
-1.522, -1.540e-4
-1.521, -1.540e-4
-1.520, -1.540e-4
-1.519, -1.571e-4
-1.518, -1.602e-4
-1.517, -1.602e-4
-1.516, -1.602e-4
-1.515, -1.602e-4
-1.514, -1.632e-4
-1.513, -1.632e-4
-1.512, -1.632e-4
-1.511, -1.632e-4
-1.510, -1.632e-4
-1.509, -1.632e-4
-1.508, -1.632e-4
-1.507, -1.632e-4
-1.506, -1.632e-4
-1.505, -1.663e-4
-1.504, -1.663e-4
-1.503, -1.663e-4
-1.502, -1.694e-4
-1.501, -1.663e-4
-1.500, -1.694e-4
-1.499, -1.694e-4
-1.498, -1.694e-4
-1.497, -1.694e-4
-1.496, -1.694e-4
-1.495, -1.694e-4
-1.494, -1.694e-4
-1.493, -1.694e-4
-1.492, -1.694e-4
-1.491, -1.694e-4
-1.490, -1.694e-4
-1.489, -1.694e-4
-1.488, -1.725e-4
-1.487, -1.725e-4
-1.486, -1.725e-4
-1.485, -1.725e-4
-1.484, -1.694e-4
-1.483, -1.725e-4
-1.482, -1.725e-4
-1.481, -1.694e-4
-1.480, -1.694e-4
-1.479, -1.694e-4
-1.478, -1.694e-4
-1.477, -1.694e-4
-1.476, -1.725e-4
-1.475, -1.725e-4
-1.474, -1.725e-4
-1.473, -1.725e-4
-1.472, -1.725e-4
-1.471, -1.725e-4
-1.470, -1.725e-4
-1.469, -1.694e-4
-1.468, -1.725e-4
-1.467, -1.694e-4
-1.466, -1.694e-4
-1.465, -1.694e-4
-1.464, -1.694e-4
-1.463, -1.694e-4
-1.462, -1.725e-4
-1.461, -1.694e-4
-1.460, -1.725e-4
-1.459, -1.694e-4
-1.458, -1.725e-4
-1.457, -1.725e-4
-1.456, -1.694e-4
-1.455, -1.725e-4
-1.454, -1.694e-4
-1.453, -1.694e-4
-1.452, -1.694e-4
-1.451, -1.694e-4
-1.450, -1.663e-4
-1.449, -1.694e-4
-1.448, -1.694e-4
-1.447, -1.694e-4
-1.446, -1.694e-4
-1.445, -1.694e-4
-1.444, -1.694e-4
-1.443, -1.694e-4
-1.442, -1.694e-4
-1.441, -1.694e-4
-1.440, -1.694e-4
-1.439, -1.694e-4
-1.438, -1.694e-4
-1.437, -1.663e-4
-1.436, -1.663e-4
-1.435, -1.663e-4
-1.434, -1.663e-4
-1.433, -1.663e-4
-1.432, -1.663e-4
-1.431, -1.663e-4
-1.430, -1.694e-4
-1.429, -1.663e-4
-1.428, -1.663e-4
-1.427, -1.694e-4
-1.426, -1.694e-4
-1.425, -1.663e-4
-1.424, -1.663e-4
-1.423, -1.663e-4
-1.422, -1.663e-4
-1.421, -1.663e-4
-1.420, -1.632e-4
-1.419, -1.663e-4
-1.418, -1.663e-4
-1.417, -1.663e-4
-1.416, -1.663e-4
-1.415, -1.632e-4
-1.414, -1.663e-4
-1.413, -1.663e-4
-1.412, -1.663e-4
-1.411, -1.663e-4
-1.410, -1.663e-4
-1.409, -1.663e-4
-1.408, -1.632e-4
-1.407, -1.632e-4
-1.406, -1.632e-4
-1.405, -1.632e-4
-1.404, -1.632e-4
-1.403, -1.632e-4
-1.402, -1.602e-4
-1.401, -1.632e-4
-1.400, -1.632e-4
-1.399, -1.632e-4
-1.398, -1.632e-4
-1.397, -1.632e-4
-1.396, -1.632e-4
-1.395, -1.632e-4
-1.394, -1.632e-4
-1.393, -1.632e-4
-1.392, -1.602e-4
-1.391, -1.602e-4
-1.390, -1.602e-4
-1.389, -1.602e-4
-1.388, -1.602e-4
-1.387, -1.602e-4
-1.386, -1.602e-4
-1.385, -1.602e-4
-1.384, -1.602e-4
-1.383, -1.602e-4
-1.382, -1.602e-4
-1.381, -1.602e-4
-1.380, -1.602e-4
-1.379, -1.602e-4
-1.378, -1.571e-4
-1.377, -1.602e-4
-1.376, -1.571e-4
-1.375, -1.571e-4
-1.374, -1.571e-4
-1.373, -1.571e-4
-1.372, -1.571e-4
-1.371, -1.571e-4
-1.370, -1.571e-4
-1.369, -1.571e-4
-1.368, -1.571e-4
-1.367, -1.571e-4
-1.366, -1.571e-4
-1.365, -1.571e-4
-1.364, -1.571e-4
-1.363, -1.571e-4
-1.362, -1.571e-4
-1.361, -1.571e-4
-1.360, -1.540e-4
-1.359, -1.540e-4
-1.358, -1.540e-4
-1.357, -1.540e-4
-1.356, -1.571e-4
-1.355, -1.571e-4
-1.354, -1.571e-4
-1.353, -1.571e-4
-1.352, -1.571e-4
-1.351, -1.571e-4
-1.350, -1.571e-4
-1.349, -1.540e-4
-1.348, -1.540e-4
-1.347, -1.540e-4
-1.346, -1.540e-4
-1.345, -1.540e-4
-1.344, -1.540e-4
-1.343, -1.540e-4
-1.342, -1.540e-4
-1.341, -1.540e-4
-1.340, -1.540e-4
-1.339, -1.540e-4
-1.338, -1.540e-4
-1.337, -1.540e-4
-1.336, -1.540e-4
-1.335, -1.571e-4
-1.334, -1.540e-4
-1.333, -1.540e-4
-1.332, -1.540e-4
-1.331, -1.540e-4
-1.330, -1.509e-4
-1.329, -1.540e-4
-1.328, -1.509e-4
-1.327, -1.509e-4
-1.326, -1.540e-4
-1.325, -1.540e-4
-1.324, -1.540e-4
-1.323, -1.540e-4
-1.322, -1.540e-4
-1.321, -1.540e-4
-1.320, -1.540e-4
-1.319, -1.540e-4
-1.318, -1.540e-4
-1.317, -1.540e-4
-1.316, -1.509e-4
-1.315, -1.509e-4
-1.314, -1.540e-4
-1.313, -1.540e-4
-1.312, -1.509e-4
-1.311, -1.540e-4
-1.310, -1.540e-4
-1.309, -1.540e-4
-1.308, -1.540e-4
-1.307, -1.540e-4
-1.306, -1.540e-4
-1.305, -1.540e-4
-1.304, -1.540e-4
-1.303, -1.540e-4
-1.302, -1.540e-4
-1.301, -1.540e-4
-1.300, -1.509e-4
-1.299, -1.540e-4
-1.298, -1.540e-4
-1.297, -1.540e-4
-1.296, -1.540e-4
-1.295, -1.540e-4
-1.294, -1.571e-4
-1.293, -1.540e-4
-1.292, -1.571e-4
-1.291, -1.571e-4
-1.290, -1.571e-4
-1.289, -1.540e-4
-1.288, -1.540e-4
-1.287, -1.540e-4
-1.286, -1.540e-4
-1.285, -1.540e-4
-1.284, -1.571e-4
-1.283, -1.540e-4
-1.282, -1.571e-4
-1.281, -1.571e-4
-1.280, -1.571e-4
-1.279, -1.571e-4
-1.278, -1.602e-4
-1.277, -1.602e-4
-1.276, -1.602e-4
-1.275, -1.602e-4
-1.274, -1.602e-4
-1.273, -1.602e-4
-1.272, -1.602e-4
-1.271, -1.602e-4
-1.270, -1.602e-4
-1.269, -1.602e-4
-1.268, -1.632e-4
-1.267, -1.602e-4
-1.266, -1.632e-4
-1.265, -1.632e-4
-1.264, -1.632e-4
-1.263, -1.632e-4
-1.262, -1.663e-4
-1.261, -1.663e-4
-1.260, -1.663e-4
-1.259, -1.663e-4
-1.258, -1.663e-4
-1.257, -1.663e-4
-1.256, -1.632e-4
-1.255, -1.663e-4
-1.254, -1.663e-4
-1.253, -1.663e-4
-1.252, -1.663e-4
-1.251, -1.663e-4
-1.250, -1.694e-4
-1.249, -1.694e-4
-1.248, -1.694e-4
-1.247, -1.694e-4
-1.246, -1.725e-4
-1.245, -1.694e-4
-1.244, -1.725e-4
-1.243, -1.725e-4
-1.242, -1.725e-4
-1.241, -1.725e-4
-1.240, -1.694e-4
-1.239, -1.725e-4
-1.238, -1.725e-4
-1.237, -1.725e-4
-1.236, -1.756e-4
-1.235, -1.756e-4
-1.234, -1.756e-4
-1.233, -1.787e-4
-1.232, -1.787e-4
-1.231, -1.787e-4
-1.230, -1.756e-4
-1.229, -1.787e-4
-1.228, -1.787e-4
-1.227, -1.787e-4
-1.226, -1.756e-4
-1.225, -1.756e-4
-1.224, -1.787e-4
-1.223, -1.787e-4
-1.222, -1.787e-4
-1.221, -1.787e-4
-1.220, -1.817e-4
-1.219, -1.817e-4
-1.218, -1.817e-4
-1.217, -1.817e-4
-1.216, -1.817e-4
-1.215, -1.817e-4
-1.214, -1.817e-4
-1.213, -1.817e-4
-1.212, -1.817e-4
-1.211, -1.817e-4
-1.210, -1.817e-4
-1.209, -1.817e-4
-1.208, -1.817e-4
-1.207, -1.817e-4
-1.206, -1.817e-4
-1.205, -1.848e-4
-1.204, -1.848e-4
-1.203, -1.848e-4
-1.202, -1.848e-4
-1.201, -1.848e-4
-1.200, -1.848e-4
-1.199, -1.848e-4
-1.198, -1.848e-4
-1.197, -1.848e-4
-1.196, -1.848e-4
-1.195, -1.848e-4
-1.194, -1.848e-4
-1.193, -1.848e-4
-1.192, -1.848e-4
-1.191, -1.848e-4
-1.190, -1.879e-4
-1.189, -1.879e-4
-1.188, -1.879e-4
-1.187, -1.879e-4
-1.186, -1.879e-4
-1.185, -1.879e-4
-1.184, -1.879e-4
-1.183, -1.879e-4
-1.182, -1.879e-4
-1.181, -1.879e-4
-1.180, -1.879e-4
-1.179, -1.879e-4
-1.178, -1.879e-4
-1.177, -1.879e-4
-1.176, -1.879e-4
-1.175, -1.910e-4
-1.174, -1.910e-4
-1.173, -1.910e-4
-1.172, -1.910e-4
-1.171, -1.910e-4
-1.170, -1.910e-4
-1.169, -1.910e-4
-1.168, -1.910e-4
-1.167, -1.910e-4
-1.166, -1.910e-4
-1.165, -1.910e-4
-1.164, -1.910e-4
-1.163, -1.910e-4
-1.162, -1.910e-4
-1.161, -1.910e-4
-1.160, -1.910e-4
-1.159, -1.941e-4
-1.158, -1.941e-4
-1.157, -1.941e-4
-1.156, -1.941e-4
-1.155, -1.941e-4
-1.154, -1.941e-4
-1.153, -1.941e-4
-1.152, -1.910e-4
-1.151, -1.941e-4
-1.150, -1.941e-4
-1.149, -1.941e-4
-1.148, -1.941e-4
-1.147, -1.941e-4
-1.146, -1.941e-4
-1.145, -1.941e-4
-1.144, -1.972e-4
-1.143, -1.972e-4
-1.142, -1.972e-4
-1.141, -1.972e-4
-1.140, -1.972e-4
-1.139, -1.972e-4
-1.138, -1.972e-4
-1.137, -1.972e-4
-1.136, -1.972e-4
-1.135, -1.972e-4
-1.134, -1.972e-4
-1.133, -1.972e-4
-1.132, -1.972e-4
-1.131, -2.002e-4
-1.130, -2.002e-4
-1.129, -2.002e-4
-1.128, -2.002e-4
-1.127, -2.002e-4
-1.126, -2.033e-4
-1.125, -2.033e-4
-1.124, -2.033e-4
-1.123, -2.033e-4
-1.122, -2.033e-4
-1.121, -2.002e-4
-1.120, -2.002e-4
-1.119, -2.002e-4
-1.118, -2.033e-4
-1.117, -2.033e-4
-1.116, -2.033e-4
-1.115, -2.033e-4
-1.114, -2.064e-4
-1.113, -2.064e-4
-1.112, -2.064e-4
-1.111, -2.064e-4
-1.110, -2.064e-4
-1.109, -2.064e-4
-1.108, -2.064e-4
-1.107, -2.064e-4
-1.106, -2.064e-4
-1.105, -2.064e-4
-1.104, -2.064e-4
-1.103, -2.064e-4
-1.102, -2.064e-4
-1.101, -2.095e-4
-1.100, -2.095e-4
-1.099, -2.126e-4
-1.098, -2.126e-4
-1.097, -2.126e-4
-1.096, -2.126e-4
-1.095, -2.126e-4
-1.094, -2.126e-4
-1.093, -2.126e-4
-1.092, -2.126e-4
-1.091, -2.126e-4
-1.090, -2.126e-4
-1.089, -2.126e-4
-1.088, -2.126e-4
-1.087, -2.126e-4
-1.086, -2.157e-4
-1.085, -2.157e-4
-1.084, -2.157e-4
-1.083, -2.187e-4
-1.082, -2.187e-4
-1.081, -2.187e-4
-1.080, -2.187e-4
-1.079, -2.187e-4
-1.078, -2.187e-4
-1.077, -2.187e-4
-1.076, -2.187e-4
-1.075, -2.187e-4
-1.074, -2.187e-4
-1.073, -2.187e-4
-1.072, -2.187e-4
-1.071, -2.218e-4
-1.070, -2.218e-4
-1.069, -2.218e-4
-1.068, -2.249e-4
-1.067, -2.249e-4
-1.066, -2.249e-4
-1.065, -2.249e-4
-1.064, -2.249e-4
-1.063, -2.249e-4
-1.062, -2.249e-4
-1.061, -2.249e-4
-1.060, -2.249e-4
-1.059, -2.249e-4
-1.058, -2.249e-4
-1.057, -2.249e-4
-1.056, -2.280e-4
-1.055, -2.280e-4
-1.054, -2.280e-4
-1.053, -2.311e-4
-1.052, -2.311e-4
-1.051, -2.311e-4
-1.050, -2.311e-4
-1.049, -2.311e-4
-1.048, -2.311e-4
-1.047, -2.311e-4
-1.046, -2.311e-4
-1.045, -2.311e-4
-1.044, -2.311e-4
-1.043, -2.311e-4
-1.042, -2.311e-4
-1.041, -2.342e-4
-1.040, -2.342e-4
-1.039, -2.342e-4
-1.038, -2.372e-4
-1.037, -2.372e-4
-1.036, -2.372e-4
-1.035, -2.372e-4
-1.034, -2.372e-4
-1.033, -2.372e-4
-1.032, -2.342e-4
-1.031, -2.372e-4
-1.030, -2.372e-4
-1.029, -2.372e-4
-1.028, -2.372e-4
-1.027, -2.372e-4
-1.026, -2.372e-4
-1.025, -2.403e-4
-1.024, -2.403e-4
-1.023, -2.403e-4
-1.022, -2.403e-4
-1.021, -2.403e-4
-1.020, -2.434e-4
-1.019, -2.403e-4
-1.018, -2.403e-4
-1.017, -2.403e-4
-1.016, -2.403e-4
-1.015, -2.403e-4
-1.014, -2.403e-4
-1.013, -2.403e-4
-1.012, -2.403e-4
-1.011, -2.403e-4
-1.010, -2.434e-4
-1.009, -2.434e-4
-1.008, -2.434e-4
-1.007, -2.465e-4
-1.006, -2.434e-4
-1.005, -2.434e-4
-1.004, -2.465e-4
-1.003, -2.434e-4
-1.002, -2.434e-4
-1.001, -2.434e-4
