Potential V vs RHE, Current mA cm-2
0.013299999999999867,-0.11126704373438513
0.012299999999999978,-0.14684703292599083
0.011299999999999866,-0.1585891367148706
0.010299999999999976,-0.16764328903400685
0.009299999999999864,-0.17655597022315658
0.008299999999999974,-0.18263922881257624
0.007299999999999862,-0.18858101627200938
0.006299999999999972,-0.193532505821537
0.00529999999999986,-0.19876693763103764
0.0042999999999999705,-0.2037184271805653
0.0032999999999998586,-0.20951874351001196
0.0022999999999999687,-0.21319699288966104
0.0012999999999998568,-0.21800701130920216
0.00029999999999996696,-0.22210967407881074
-0.000700000000000145,-0.2267782213683654
-0.0017000000000000348,-0.2313052975279335
-0.0027000000000001467,-0.23484207577759608
-0.0037000000000000366,-0.23809591176728565
-0.0047000000000001485,-0.2423400456668808
-0.005700000000000038,-0.2460182950465299
-0.00670000000000015,-0.25026242894612494
-0.00770000000000004,-0.2535162649358146
-0.008700000000000152,-0.25691157205549064
-0.009700000000000042,-0.2607312925651262
-0.010700000000000154,-0.26455101307476186
-0.011700000000000044,-0.26766337793446493
-0.012700000000000156,-0.27148309844410057
-0.013700000000000045,-0.2737466365238846
-0.014700000000000157,-0.2775663570335202
-0.015700000000000047,-0.2813860775431558
-0.01670000000000016,-0.2849228557928184
-0.01770000000000005,-0.288742576302454
-0.01870000000000016,-0.29100611438223806
-0.01970000000000005,-0.2941184792419411
-0.020700000000000163,-0.2992114399214552
-0.021700000000000053,-0.3009090934812933
-0.022700000000000164,-0.30543616964086145
-0.023700000000000054,-0.3074167654606725
-0.024700000000000166,-0.31180237049025405
-0.025700000000000056,-0.3166123889097952
-0.026700000000000168,-0.3185929847296063
-0.027700000000000058,-0.3219882918492823
-0.02870000000000017,-0.326373896878864
-0.02970000000000006,-0.3293447906085805
-0.03070000000000017,-0.3347206935480677
-0.03170000000000006,-0.3382574717977303
-0.03270000000000017,-0.34066248100750085
-0.03370000000000006,-0.3458969128170015
-0.034700000000000175,-0.34915074880669106
-0.035700000000000065,-0.3545266517461782
-0.03670000000000018,-0.35990255468566534
-0.03770000000000007,-0.3614587371155169
-0.03870000000000018,-0.3669761111849905
-0.03970000000000007,-0.3715031873445586
-0.04070000000000018,-0.3764546768940863
-0.04170000000000007,-0.38197205096355985
-0.04270000000000018,-0.38494294469327645
-0.04370000000000007,-0.3904603187627501
-0.044700000000000184,-0.39668504848215624
-0.045700000000000074,-0.4010706535117379
-0.046700000000000186,-0.4077197966211036
-0.047700000000000076,-0.4112565748707662
-0.04870000000000019,-0.41719836233019936
-0.04970000000000008,-0.4231401497896325
-0.05070000000000019,-0.42978929289899814
-0.05170000000000008,-0.43247724436874174
-0.05270000000000019,-0.442097281207824
-0.05370000000000008,-0.4469072996273651
-0.05470000000000019,-0.4542637983866633
-0.05570000000000008,-0.4619032394059345
-0.056700000000000195,-0.4691182670352462
-0.057700000000000085,-0.4756259390146253
-0.058700000000000196,-0.48213361099400454
-0.059700000000000086,-0.4892071674933296
-0.0607000000000002,-0.4981198486824793
-0.06170000000000009,-0.5066081164816696
-0.0627000000000002,-0.5139646152409678
-0.06370000000000009,-0.5217455273902256
-0.0647000000000002,-0.5283946704995912
-0.06570000000000009,-0.540419716548444
-0.0667000000000002,-0.5472103307877962
-0.0677000000000001,-0.556405954236919
-0.0687000000000002,-0.5657430488160282
-0.0697000000000001,-0.5747972011351644
-0.07070000000000021,-0.5858319492741116
-0.0717000000000001,-0.5961593417631265
-0.07270000000000021,-0.6052134940822627
-0.0737000000000001,-0.616814126741156
-0.07470000000000021,-0.6277074037501167
-0.0757000000000001,-0.638176267369118
-0.07670000000000021,-0.6504842556779438
-0.0777000000000001,-0.6609531192969451
-0.07870000000000021,-0.673261107605771
-0.0797000000000001,-0.6859935093045563
-0.08070000000000022,-0.6983014976133821
-0.0817000000000001,-0.7130144951319785
-0.08270000000000022,-0.7241907144009123
-0.08370000000000011,-0.7374890006196436
-0.08470000000000022,-0.7527678826581861
-0.08570000000000011,-0.7663491111368903
-0.08670000000000022,-0.7819109354354057
-0.08770000000000011,-0.7954921639141102
-0.08870000000000022,-0.8099222191727334
-0.08970000000000011,-0.8281719949409925
-0.09070000000000022,-0.8421776368096564
-0.09170000000000011,-0.8592956435380232
-0.09270000000000023,-0.8762721791364039
-0.09370000000000012,-0.8915510611749462
-0.09470000000000023,-0.9100837792031781
-0.09570000000000012,-0.9279091415814775
-0.09670000000000023,-0.946866272999669
-0.09770000000000012,-0.9645501642479821
-0.09870000000000023,-0.9827999400162409
-0.09970000000000012,-1.0027473693443378
-0.10070000000000023,-1.0239680388423136
-0.10170000000000012,-1.0441984104303836
-0.10270000000000024,-1.0635799552385345
-0.10370000000000013,-1.0855079803864427
-0.10470000000000024,-1.1063042364944589
-0.10570000000000013,-1.1309202131121103
-0.10670000000000024,-1.15157499809014
-0.10770000000000013,-1.1742103788879805
-0.10870000000000024,-1.1989678266356187
-0.10970000000000013,-1.2207543806535404
-0.11070000000000024,-1.247350953091003
-0.11170000000000013,-1.2714010451887086
-0.11270000000000002,-1.2958755506763735
-0.11370000000000013,-1.3226135942438229
-0.11470000000000002,-1.3463807440815554
-0.11570000000000014,-1.3750993834688159
-0.11670000000000003,-1.4026862538161837
-0.11770000000000014,-1.4288584128636872
-0.11870000000000003,-1.4571526388609877
-0.11970000000000014,-1.4840321535584236
-0.12070000000000003,-1.5151558021554543
-0.12170000000000014,-1.54486473945262
-0.12270000000000003,-1.5731589654499207
-0.12370000000000014,-1.6028679027470865
-0.12470000000000003,-1.6339915513441174
-0.12570000000000014,-1.6665299112410132
-0.12670000000000003,-1.696238848538179
-0.12770000000000015,-1.7301919197349398
-0.12870000000000004,-1.7584861457322407
-0.12970000000000015,-1.7938539282288664
-0.13070000000000004,-1.8263922881257622
-0.13170000000000015,-1.8589306480226582
-0.13270000000000004,-1.894298430519284
-0.13370000000000015,-1.92400736781645
-0.13470000000000004,-1.9622045729128061
-0.13570000000000015,-1.9947429328097017
-0.13670000000000004,-2.0286960040064623
-0.13770000000000016,-2.0668932091028185
-0.13870000000000005,-2.0966021463999844
-0.13970000000000016,-2.1347993514963406
-0.14070000000000005,-2.1687524226931014
-0.14170000000000016,-2.205534916489592
-0.14270000000000005,-2.2409026989862184
-0.14370000000000016,-2.2748557701829792
-0.14470000000000005,-2.3130529752793345
-0.14570000000000016,-2.347006046476096
-0.14670000000000005,-2.385203251572452
-0.14770000000000016,-2.420571034069078
-0.14870000000000005,-2.4559388165657037
-0.14970000000000017,-2.4913065990623298
-0.15070000000000006,-2.5280890928588207
-0.15170000000000017,-2.5648715866553116
-0.15270000000000006,-2.5988246578520724
-0.15370000000000017,-2.6356071516485633
-0.15470000000000006,-2.669560222845324
-0.15570000000000017,-2.706342716641815
-0.15670000000000006,-2.741710499138441
-0.15770000000000017,-2.775663570335202
-0.15870000000000006,-2.811031352831828
-0.15970000000000018,-2.843569712728724
-0.16070000000000007,-2.8789374952253497
-0.16170000000000018,-2.91571998902184
-0.16270000000000007,-2.9468436376188714
-0.16370000000000018,-2.9836261314153627
-0.16470000000000007,-3.0147497800123935
-0.16570000000000018,-3.0487028512091543
-0.16670000000000007,-3.079826499806185
-0.16770000000000018,-3.1123648597030806
-0.16870000000000007,-3.1434885083001114
-0.16970000000000018,-3.1731974455972773
-0.17070000000000007,-3.207150516794038
-0.17170000000000019,-3.235444742791339
-0.17270000000000008,-3.2665683913883696
-0.1737000000000002,-3.2948626173856703
-0.17470000000000008,-3.323156843382971
-0.1757000000000002,-3.355695203279867
-0.17670000000000008,-3.379745295377573
-0.1777000000000002,-3.412283655274469
-0.17870000000000008,-3.434919036072309
-0.1797000000000002,-3.4617985507697444
-0.18070000000000008,-3.4900927767670455
-0.1817000000000002,-3.5141428688647514
-0.18270000000000008,-3.542437094862052
-0.1837000000000002,-3.562243053060162
-0.1847000000000001,-3.5877078564577327
-0.1857000000000002,-3.6131726598553033
-0.1867000000000001,-3.6329786180534143
-0.1877000000000002,-3.65985813275085
-0.1887000000000001,-3.67683466834923
-0.1897000000000002,-3.702299471746801
-0.1907000000000001,-3.7221054299449117
-0.1917000000000001,-3.7433260994428865
-0.19269999999999998,-3.764546768940863
-0.1937000000000001,-3.780108593239378
-0.19469999999999998,-3.801329262737354
-0.1957000000000001,-3.818305798335734
-0.19669999999999999,-3.838111756533844
-0.1977000000000001,-3.85367358083236
-0.1987,-3.87065011643074
-0.1997000000000001,-3.887626652029121
-0.2007,-3.9003590537279056
-0.2017000000000001,-3.9215797232258818
-0.2027,-3.931482702324937
-0.2037000000000001,-3.9470445266234524
-0.2047,-3.962606350921967
-0.2057000000000001,-3.9725093300210226
-0.2067,-3.9909005769192687
-0.2077000000000001,-3.999388844718459
-0.2087,-4.013535957717109
-0.2097000000000001,-4.024853648116029
-0.2107,-4.03617133851495
-0.2117000000000001,-4.048903740213735
-0.2127,-4.057392008012925
-0.2137000000000001,-4.070124409711711
-0.2147,-4.078612677510901
-0.2157000000000001,-4.094174501809416
-0.2167,-4.101248058308742
-0.21770000000000012,-4.109736326107932
-0.2187,-4.118224593907121
-0.21970000000000012,-4.1238834391065815
-0.2207,-4.136615840805367
-0.22170000000000012,-4.140859974704963
-0.2227,-4.149348242504152
-0.22370000000000012,-4.157836510303343
-0.2247,-4.160665932903073
-0.22570000000000012,-4.173398334601859
-0.2267,-4.173398334601859
-0.22770000000000012,-4.184716025000778
-0.22870000000000001,-4.187545447600509
-0.22970000000000013,-4.191789581500104
-0.23070000000000002,-4.201692560599159
-0.23170000000000013,-4.203107271899024
-0.23270000000000002,-4.213010250998079
-0.23370000000000013,-4.214424962297944
-0.23470000000000002,-4.220083807497405
-0.23570000000000013,-4.225742652696865
-0.23670000000000002,-4.229986786596459
-0.2376999999999999,-4.238475054395651
-0.23870000000000002,-4.238475054395651
-0.2396999999999999,-4.245548610894974
-0.24070000000000003,-4.24979274479457
-0.24169999999999991,-4.256866301293895
-0.24270000000000003,-4.262525146493355
-0.24369999999999992,-4.262525146493355
-0.24470000000000003,-4.272428125592412
-0.24569999999999992,-4.272428125592412
-0.24670000000000003,-4.282331104691466
-0.24769999999999992,-4.286575238591061
-0.24870000000000003,-4.289404661190791
-0.24969999999999992,-4.297892928989982
-0.25070000000000003,-4.297892928989982
-0.2516999999999999,-4.309210619388901
-0.25270000000000004,-4.310625330688767
-0.2536999999999999,-4.319113598487957
-0.25470000000000004,-4.324772443687417
-0.2556999999999999,-4.327601866287147
-0.25670000000000004,-4.338919556686067
-0.25769999999999993,-4.341748979285797
-0.25870000000000004,-4.350237247084988
-0.25969999999999993,-4.355896092284448
-0.26070000000000004,-4.364384360083638
-0.26169999999999993,-4.3728726278828285
-0.26270000000000004,-4.378531473082289
-0.26369999999999993,-4.389849163481209
-0.26470000000000005,-4.394093297380804
-0.26569999999999994,-4.406825699079589
-0.26670000000000005,-4.419558100778375
-0.26769999999999994,-4.426631657277699
-0.26870000000000005,-4.44077877027635
-0.26969999999999994,-4.44643761547581
-0.27070000000000005,-4.461999439774326
-0.27169999999999994,-4.470487707573516
-0.27270000000000005,-4.483220109272302
-0.27369999999999994,-4.4973672222709515
-0.27470000000000006,-4.5044407787702765
-0.27569999999999995,-4.524246736968387
-0.27670000000000006,-4.534149716067443
-0.27769999999999995,-4.551126251665823
-0.27870000000000006,-4.566688075964338
-0.27969999999999995,-4.578005766363259
-0.28070000000000006,-4.600641147161099
-0.28169999999999995,-4.613373548859885
-0.28270000000000006,-4.634594218357861
-0.28369999999999995,-4.650156042656376
-0.28470000000000006,-4.669962000854486
-0.28569999999999995,-4.692597381652327
-0.28670000000000007,-4.710988628550572
-0.28769999999999996,-4.736453431948143
-0.28870000000000007,-4.753429967546523
-0.28969999999999996,-4.7803094822439585
-0.29070000000000007,-4.804359574341665
-0.29169999999999996,-4.82840966643937
-0.29270000000000007,-4.8581186037365365
-0.29369999999999996,-4.877924561934646
-0.2947000000000001,-4.911877633131407
-0.29569999999999996,-4.937342436528978
-0.2967000000000001,-4.9698807964258735
-0.29769999999999996,-5.003833867622634
-0.2987000000000001,-5.03071338232007
-0.29969999999999997,-5.070325298716291
-0.3007000000000001,-5.102863658613187
-0.30169999999999997,-5.141060863709543
-0.3027000000000001,-5.180672780105764
-0.30369999999999997,-5.220284696501986
-0.3047000000000001,-5.2655554580976665
-0.30569999999999997,-5.307996797093617
-0.3067000000000001,-5.365999960388084
-0.3077,-5.414100144583495
-0.3087000000000001,-5.467859173978367
-0.3097,-5.523032914673103
-0.3107000000000001,-5.582450789267434
-0.3117,-5.647527509061226
-0.3127000000000001,-5.706945383655557
-0.3137,-5.781925082548405
-0.3147000000000001,-5.849831224941926
-0.3157,-5.926225635134639
-0.3167000000000001,-6.004034756627216
-0.3177,-6.076185032920332
-0.3187000000000001,-6.15965299961237
-0.3197,-6.227559142005892
-0.3207000000000001,-6.306782974798334
-0.3217,-6.378933251091451
-0.3227000000000001,-6.446839393484972
-0.3237,-6.516160247178359
-0.3247000000000001,-6.57274869917296
-0.3257,-6.640654841566483
-0.3267000000000001,-6.692999159661489
-0.3277,-6.74958761165609
-0.3287000000000001,-6.806176063650692
-0.3297,-6.855690959145968
-0.3307000000000001,-6.919352967639894
-0.3317,-6.970282574435036
-0.3327000000000001,-7.035359294228828
-0.3337,-7.093362457523294
-0.3347000000000001,-7.154195043417491
-0.3357,-7.223515897110879
-0.3367000000000001,-7.28293377170521
-0.3377,-7.357913470598056
-0.3387000000000001,-7.4173313451923875
-0.3397,-7.489481621485504
-0.3407000000000001,-7.564461320378352
-0.3417,-7.629538040172143
-0.3427000000000001,-7.7130060068641795
-0.3437,-7.778082726657972
-0.3447000000000001,-7.86155069335001
-0.3457,-7.937945103542721
-0.3467000000000001,-8.017168936335162
-0.3477,-8.10629574822666
-0.3487000000000001,-8.184104869719237
-0.3497,-8.278890526810194
-0.3507000000000001,-8.362358493502233
-0.3517,-8.458558861893053
-0.3527000000000001,-8.554759230283878
-0.3537,-8.64813017607497
-0.3547000000000001,-8.754233523564846
-0.3557,-8.85043389195567
-0.35670000000000013,-8.965025507244738
-0.3577,-9.068299432134886
-0.35870000000000013,-9.181476336124089
-0.3597,-9.298897374012885
-0.36070000000000013,-9.40924485540236
-0.3617,-9.543642428889537
-0.3626999999999999,-9.655404621578874
-0.3637,-9.788387483766188
-0.3646999999999999,-9.917126212053908
-0.3657,-10.04727965164149
-0.3666999999999999,-10.191580204227723
-0.3677,-10.317489509915713
-0.3686999999999999,-10.471693041601002
-0.36970000000000003,-10.607505326388045
-0.3706999999999999,-10.756050012873873
-0.37170000000000003,-10.910253544559163
-0.3726999999999999,-11.054554097145397
-0.37370000000000003,-11.220075319229606
-0.3746999999999999,-11.36437587181584
-0.37570000000000003,-11.536970650399374
-0.3766999999999999,-11.696833027284123
-0.37770000000000004,-11.862354249368334
-0.3786999999999999,-12.037778450551597
-0.37970000000000004,-12.197640827436347
-0.3806999999999999,-12.385797430318396
-0.38170000000000004,-12.549903941102741
-0.38269999999999993,-12.739475255284656
-0.38370000000000004,-12.923387724267112
-0.38469999999999993,-13.10022663675024
-0.38570000000000004,-13.30253035263094
-0.38669999999999993,-13.139838553146461
-0.38570000000000004,-12.841334468874939
-0.38469999999999993,-12.565465765401257
-0.38370000000000004,-12.302329463626359
-0.38269999999999993,-12.050510852250381
-0.38170000000000004,-11.783130416575892
-0.3806999999999999,-11.544044206898699
-0.37970000000000004,-11.283737327723532
-0.3786999999999999,-11.047480540646072
-0.37770000000000004,-10.80839433096888
-0.3766999999999999,-10.572137543891419
-0.37570000000000003,-10.350027869812608
-0.3746999999999999,-10.115185794035014
-0.37370000000000003,-9.902979099055257
-0.3726999999999999,-9.680869424976446
-0.37170000000000003,-9.47149215259642
-0.3706999999999999,-9.267773725415855
-0.36970000000000003,-9.0555670304361
-0.3686999999999999,-8.864581004954319
-0.3677,-8.663692000373485
-0.3666999999999999,-8.481194242690894
-0.3657,-8.29162292850898
-0.3646999999999999,-8.107710459526524
-0.3637,-7.933700969643125
-0.3626999999999999,-7.754032634560266
-0.3617,-7.589926123775921
-0.36070000000000013,-7.414501922592657
-0.3597,-7.254639545707908
-0.35870000000000013,-7.093362457523294
-0.3577,-6.940573637137869
-0.35670000000000013,-6.799102507151367
-0.3557,-6.639240130266617
-0.3547000000000001,-6.497769000280114
-0.3537,-6.343565468594824
-0.3527000000000001,-6.197850204708726
-0.3517,-6.063452631221548
-0.3507000000000001,-5.921981501235043
-0.3497,-5.7974869068469195
-0.3487000000000001,-5.667333467259336
-0.3477,-5.5414241615713475
-0.3467000000000001,-5.4169295671832245
-0.3457,-5.2910202614952375
-0.3447000000000001,-5.169355089706844
-0.3437,-5.046275206618586
-0.3427000000000001,-4.935927725229114
-0.3417,-4.819921398640179
-0.3407000000000001,-4.709573917250707
-0.3397,-4.600641147161099
-0.3387000000000001,-4.493123088371357
-0.3377,-4.3926785860809385
-0.3367000000000001,-4.286575238591061
-0.3357,-4.1889601589003735
-0.3347000000000001,-4.088515656609956
-0.3337,-3.992315288219133
-0.3327000000000001,-3.9003590537279056
-0.3317,-3.8055733966369485
-0.3307000000000001,-3.7178612960453163
-0.3297,-3.6244903502542236
-0.3287000000000001,-3.5381929609624567
-0.3277,-3.45472499427042
-0.3267000000000001,-3.3698423162785174
-0.3257,-3.2892037721862106
-0.3247000000000001,-3.208565228093903
-0.3237,-3.129341395301461
-0.3227000000000001,-3.0515322738088844
-0.3217,-2.976552574916037
-0.3207000000000001,-2.90157287602319
-0.3197,-2.8294225997300737
-0.3187000000000001,-2.7601017460366863
-0.3177,-2.6865367584437045
-0.3167000000000001,-2.621460038649913
-0.3157,-2.552139184956526
-0.3147000000000001,-2.4870624651627344
-0.3137,-2.4234004566688077
-0.3127000000000001,-2.358323736875016
-0.3117,-2.3003205735805494
-0.3107000000000001,-2.238073276386488
-0.3097,-2.177240690492291
-0.3087000000000001,-2.1206522384976902
-0.3077,-2.0612343639033583
-0.3067000000000001,-2.008890045808352
-0.30569999999999997,-1.9523015938137507
-0.3047000000000001,-1.8985425644188794
-0.30369999999999997,-1.847612957623738
-0.3027000000000001,-1.7952686395287314
-0.30169999999999997,-1.7485831666331852
-0.3007000000000001,-1.696238848538179
-0.29969999999999997,-1.6481386643427678
-0.2987000000000001,-1.6000384801473564
-0.29769999999999996,-1.5547677185516753
-0.2967000000000001,-1.5094969569559942
-0.29569999999999996,-1.4656409066601779
-0.2947000000000001,-1.420370145064497
-0.29369999999999996,-1.3766555658986672
-0.29270000000000007,-1.3360533515925408
-0.29169999999999996,-1.2943193682465222
-0.29070000000000007,-1.2548489229802875
-0.28969999999999996,-1.215661419974026
-0.28870000000000007,-1.1759080324478186
-0.28769999999999996,-1.1399743654312466
-0.28670000000000007,-1.1017771603348907
-0.28569999999999995,-1.0661264355782916
-0.28470000000000006,-1.0297683551717602
-0.28369999999999995,-0.9944005726751344
-0.28270000000000006,-0.9622866261681979
-0.28169999999999995,-0.9276261993215045
-0.28070000000000006,-0.8960781373345142
-0.27969999999999995,-0.8638227196975914
-0.27870000000000006,-0.8314258309306821
-0.27769999999999995,-0.8008680668535972
-0.27670000000000006,-0.7725738408562965
-0.27569999999999995,-0.7428649035591307
-0.27470000000000006,-0.7138633219118975
-0.27369999999999994,-0.6852861536546238
-0.27270000000000005,-0.6571333987873096
-0.27169999999999994,-0.6326588932996443
-0.27070000000000005,-0.6050720229522761
-0.26969999999999994,-0.5779095659948674
-0.26870000000000005,-0.553293589377216
