Potential V vs RHE, Current mA cm-2
0.013299999999999867,6.016767158326001
0.012299999999999978,4.44643761547581
0.011299999999999866,3.0076762235130676
0.010299999999999976,1.7867803717295414
0.009299999999999864,0.7393281253094681
0.008299999999999974,-0.26384365742482935
0.007299999999999862,-1.1798692240874404
0.006299999999999972,-2.052746096104168
0.00529999999999986,-2.924208256821031
0.0042999999999999705,-3.884797229429391
0.0032999999999998586,-4.800115440442069
0.0022999999999999687,-5.715433651454749
0.0012999999999998568,-6.6760226240631075
0.00029999999999996696,-7.461187395488204
-0.000700000000000145,-8.246352166913299
-0.0017000000000000348,-8.943804837746763
-0.0027000000000001467,-9.55496011928846
-0.0037000000000000366,-10.208556739826104
-0.0047000000000001485,-10.731999920776168
-0.005700000000000038,-11.343155202317865
-0.00670000000000015,-11.996751822855511
-0.00770000000000004,-12.651763154693022
-0.008700000000000152,-13.3930718758223
-0.009700000000000042,-14.090524546655764
-0.010700000000000154,-14.783733083589633
-0.011700000000000044,-15.491088733522153
-0.012700000000000156,-16.056973253468165
-0.013700000000000045,-16.580416434418233
-0.014700000000000157,-17.018976937376394
-0.015700000000000047,-17.4433903273359
-0.01670000000000016,-17.924392169290012
-0.01770000000000005,-18.362952672248177
-0.01870000000000016,-18.88639585319824
-0.01970000000000005,-19.49472171214021
-0.020700000000000163,-20.10304757108217
-0.021700000000000053,-20.810403221014692
-0.022700000000000164,-21.418729079956652
-0.023700000000000054,-21.98461359990267
-0.024700000000000166,-22.508056780852733
-0.025700000000000056,-22.946617283810895
-0.026700000000000168,-23.427619125765005
-0.027700000000000058,-23.767149837732617
-0.02870000000000017,-24.24815167968673
-0.02970000000000006,-24.686712182644893
-0.03070000000000017,-25.252596702590903
-0.03170000000000006,-25.81848122253692
-0.03270000000000017,-26.440954194477534
-0.03370000000000006,-27.134162731411404
-0.034700000000000175,-27.65760591236147
-0.035700000000000065,-28.22349043230748
-0.03670000000000018,-28.704492274261593
-0.03770000000000007,-29.100611438223805
-0.03870000000000018,-29.525024828183312
-0.03970000000000007,-29.878702653149578
-0.04070000000000018,-30.359704495103685
-0.04170000000000007,-30.79826499806185
-0.04270000000000018,-31.36414951800786
-0.04370000000000007,-31.930034037953877
-0.044700000000000184,-32.53835989689585
-0.045700000000000074,-33.14668575583781
-0.046700000000000186,-33.670128936787876
-0.047700000000000076,-34.193572117737936
-0.04870000000000019,-34.67457395969205
-0.04970000000000008,-35.11313446265021
-0.05070000000000019,-35.46681228761647
-0.05170000000000008,-35.90537279057463
-0.05270000000000019,-36.37222751953009
-0.05370000000000008,-36.89567070048016
-0.05470000000000019,-37.47570233342482
-0.05570000000000008,-38.08402819236679
-0.056700000000000195,-38.734795390304704
-0.057700000000000085,-39.34312124924667
-0.058700000000000196,-39.90900576919269
-0.059700000000000086,-40.43244895014274
-0.0607000000000002,-40.91345079209687
-0.06170000000000009,-41.39445263405098
-0.0627000000000002,-41.79057179801318
-0.06370000000000009,-42.2715736399673
-0.0647000000000002,-42.752575481921404
-0.06570000000000009,-43.31846000186743
-0.0667000000000002,-43.92678586080939
-0.0677000000000001,-44.619994397743255
-0.0687000000000002,-45.32735004767578
-0.0697000000000001,-45.93567590661774
-0.07070000000000021,-46.544001765559706
-0.0717000000000001,-47.067444946509774
-0.07270000000000021,-47.54844678846388
-0.0737000000000001,-47.987007291422046
-0.07470000000000021,-48.36897934238561
-0.0757000000000001,-48.84998118433972
-0.07670000000000021,-49.373424365289786
-0.0777000000000001,-49.98175022423175
-0.07870000000000021,-50.60422319617236
-0.0797000000000001,-51.29743173310623
-0.08070000000000022,-51.948198931044146
-0.0817000000000001,-52.59896612898206
-0.08270000000000022,-53.12240930993213
-0.08370000000000011,-53.68829382987814
-0.08470000000000022,-54.1268543328363
-0.08570000000000011,-54.56541483579447
-0.08670000000000022,-55.046416677748574
-0.08770000000000011,-55.56985985869864
-0.08870000000000022,-56.13574437864466
-0.08970000000000011,-56.82895291557852
-0.09070000000000022,-57.53630856551105
-0.09170000000000011,-58.27195844144086
-0.09270000000000023,-58.97931409137338
-0.09370000000000012,-59.587639950315335
-0.09470000000000023,-60.15352447026136
-0.09570000000000012,-60.63452631221547
-0.09670000000000023,-61.11552815416958
-0.09770000000000012,-61.53994154412909
-0.09870000000000023,-61.97850204708726
-0.09970000000000012,-62.501945228037314
-0.10070000000000023,-63.06782974798333
-0.10170000000000012,-63.6761556069253
-0.10270000000000024,-64.34106991786187
-0.10370000000000013,-65.0767197937917
-0.10470000000000024,-65.7274869917296
-0.10570000000000013,-66.39240130266617
-0.10670000000000024,-67.00072716160814
-0.10770000000000013,-67.6090530205501
-0.10870000000000024,-68.17493754049613
-0.10970000000000013,-68.65593938245023
-0.11070000000000024,-69.26426524139221
-0.11170000000000013,-69.8301497613382
-0.11270000000000002,-70.48091695927613
-0.11370000000000013,-71.18827260920865
-0.11470000000000002,-71.8814811461425
-0.11570000000000014,-72.57468968307639
-0.11670000000000003,-73.23960399401295
-0.11770000000000014,-73.76304717496302
-0.11870000000000003,-74.28649035591307
-0.11970000000000014,-74.76749219786718
-0.12070000000000003,-75.19190558782671
-0.12170000000000014,-75.6729074297808
-0.12270000000000003,-76.19635061073087
-0.12370000000000014,-76.81882358267148
-0.12470000000000003,-77.51203211960537
-0.12570000000000014,-78.20524065653922
-0.12670000000000003,-78.9550376454677
-0.12770000000000015,-79.60580484340561
-0.12870000000000004,-80.25657204134353
-0.12970000000000015,-80.82245656128954
-0.13070000000000004,-81.3458997422396
-0.13170000000000015,-81.82690158419373
-0.13270000000000004,-82.30790342614785
-0.13370000000000015,-82.8313466070979
-0.13470000000000004,-83.39723112704392
-0.13570000000000015,-84.00555698598588
-0.13670000000000004,-84.6563241839238
-0.13770000000000016,-85.40612117285227
-0.13870000000000005,-86.14177104878208
-0.13970000000000016,-86.84912669871461
-0.14070000000000005,-87.54233523564847
-0.14170000000000016,-88.10821975559449
-0.14270000000000005,-88.63166293654454
-0.14370000000000016,-89.11266477849867
-0.14470000000000005,-89.55122528145681
-0.14570000000000016,-90.03222712341093
-0.14670000000000005,-90.55567030436099
-0.14770000000000016,-91.16399616330297
-0.14870000000000005,-91.81476336124088
-0.14970000000000017,-92.56456035016936
-0.15070000000000006,-93.25776888710321
-0.15170000000000017,-93.95097742403709
-0.15270000000000006,-94.5168619439831
-0.15370000000000017,-95.04030512493317
-0.15470000000000006,-95.47886562789132
-0.15570000000000017,-95.87498479185354
-0.15670000000000006,-96.35598663380765
-0.15770000000000017,-96.92187115375367
-0.15870000000000006,-97.53019701269562
-0.15970000000000018,-98.2234055496295
-0.16070000000000007,-98.93076119956201
-0.16170000000000018,-99.70885241448778
-0.16270000000000007,-100.40206095142165
-0.16370000000000018,-101.15185794035013
-0.16470000000000007,-101.76018379929208
-0.16570000000000018,-102.36850965823406
-0.16670000000000007,-102.89195283918411
-0.16770000000000018,-103.33051334214227
-0.16870000000000007,-103.85395652309235
-0.16970000000000018,-104.3773997040424
-0.17070000000000007,-104.98572556298437
-0.17170000000000019,-105.63649276092228
-0.17270000000000008,-106.30140707185885
-0.1737000000000002,-106.99461560879273
-0.17470000000000008,-107.56050012873874
-0.1757000000000002,-108.0839433096888
-0.17670000000000008,-108.48006247365102
-0.1777000000000002,-108.83374029861727
-0.17870000000000008,-109.17327101058488
-0.1797000000000002,-109.4845074965552
-0.18070000000000008,-109.8240382085228
-0.1817000000000002,-110.26259871148096
-0.18270000000000008,-110.78604189243102
-0.1837000000000002,-111.394367751373
-0.1847000000000001,-112.05928206230955
-0.1857000000000002,-112.75249059924342
-0.1867000000000001,-113.44569913617728
-0.1877000000000002,-114.1530547861098
-0.1887000000000001,-114.80382198404773
-0.1897000000000002,-115.4970305209816
-0.1907000000000001,-116.10535637992358
-0.1917000000000001,-116.81271202985609
-0.19269999999999998,-117.46347922779398
-0.1937000000000001,-118.15668776472786
-0.19469999999999998,-118.82160207566443
-0.1957000000000001,-119.51481061259831
-0.19669999999999999,-120.20801914953216
-0.1977000000000001,-120.81634500847414
-0.1987,-121.38222952842017
-0.1997000000000001,-121.82079003137831
-0.2007,-122.17446785634456
-0.2017000000000001,-122.38667455132433
-0.2027,-122.57058702030677
-0.2037000000000001,-122.78279371528653
-0.2047,-123.00914752326493
-0.2057000000000001,-123.3062368962366
-0.2067,-123.70235606019881
-0.2077000000000001,-124.14091656315696
-0.2087,-124.70680108310299
-0.2097000000000001,-125.272685603049
-0.2107,-125.83857012299501
-0.2117000000000001,-126.36201330394509
-0.2127,-126.88545648489513
-0.2137000000000001,-127.4088996658452
-0.2147,-127.88990150779931
-0.2157000000000001,-128.54066870573723
-0.2167,-129.1489945646792
-0.21770000000000012,-129.8563502146117
-0.2187,-130.59200009054155
-0.21970000000000012,-131.32764996647134
-0.2207,-131.99256427740792
-0.22170000000000012,-132.60089013634988
-0.2227,-133.08189197830401
-0.22370000000000012,-133.52045248126214
-0.2247,-133.8599831932298
-0.22570000000000012,-134.17121967920008
-0.2267,-134.46830905217172
-0.22770000000000012,-134.82198687713802
-0.22870000000000001,-135.2181060411002
-0.22970000000000013,-135.65666654405837
-0.23070000000000002,-136.03863859502192
-0.23170000000000013,-136.47719909798008
-0.23270000000000002,-136.91575960093826
-0.23370000000000013,-137.31187876490046
-0.23470000000000002,-137.70799792886265
-0.23570000000000013,-138.04752864083028
-0.23670000000000002,-138.3587651268006
-0.2376999999999999,-138.61341316077628
-0.23870000000000002,-138.96709098574257
-0.2396999999999999,-139.36321014970477
-0.24070000000000003,-139.84421199165885
-0.24169999999999991,-140.45253785060083
-0.24270000000000003,-141.06086370954282
-0.24369999999999992,-141.75407224647665
-0.24470000000000003,-142.31995676642268
-0.24569999999999992,-142.8858412863687
-0.24670000000000003,-143.3102546763282
-0.24769999999999992,-143.5931969363012
-0.24870000000000003,-143.87613919627424
-0.24969999999999992,-144.01761032626072
-0.25070000000000003,-144.30055258623375
-0.2516999999999999,-144.72496597619326
-0.25270000000000004,-145.00790823616626
-0.2536999999999999,-145.43232162612577
-0.25470000000000004,-145.7152638860988
-0.2556999999999999,-146.1396772760583
-0.25670000000000004,-146.4226195360313
-0.25769999999999993,-146.5640906660178
-0.25870000000000004,-146.7055617960043
-0.25969999999999993,-146.9885040559773
-0.26070000000000004,-146.9885040559773
-0.26169999999999993,-147.27144631595033
-0.26270000000000004,-147.27144631595033
-0.26369999999999993,-147.55438857592333
-0.26470000000000005,-147.83733083589632
-0.26569999999999994,-148.26174422585584
-0.26670000000000005,-148.68615761581535
-0.26769999999999994,-149.25204213576137
-0.26870000000000005,-149.6764555257209
-0.26969999999999994,-150.1008689156804
-0.27070000000000005,-150.38381117565342
-0.27169999999999994,-150.66675343562642
-0.27270000000000005,-150.8082245656129
-0.27369999999999994,-150.94969569559944
-0.27470000000000006,-151.09116682558593
-0.27569999999999995,-151.37410908555893
-0.27670000000000006,-151.7985224755184
-0.27769999999999995,-152.22293586547795
-0.27870000000000006,-152.78882038542397
-0.27969999999999995,-153.21323377538346
-0.28070000000000006,-153.49617603535648
-0.28169999999999995,-153.63764716534297
-0.28270000000000006,-153.77911829532948
-0.28369999999999995,-153.77911829532948
-0.28470000000000006,-153.920589425316
-0.28569999999999995,-154.0620605553025
-0.28670000000000007,-154.203531685289
-0.28769999999999996,-154.486473945262
-0.28870000000000007,-154.76941620523502
-0.28969999999999996,-155.05235846520802
-0.29070000000000007,-155.19382959519453
-0.29169999999999996,-155.33530072518104
-0.29270000000000007,-155.47677185516753
-0.29369999999999996,-155.47677185516753
-0.2947000000000001,-155.47677185516753
-0.29569999999999996,-155.47677185516753
-0.2967000000000001,-155.61824298515404
-0.29769999999999996,-155.61824298515404
-0.2987000000000001,-155.75971411514055
-0.29969999999999997,-155.90118524512707
-0.3007000000000001,-156.04265637511355
-0.30169999999999997,-156.18412750510007
-0.3027000000000001,-156.32559863508658
-0.30369999999999997,-156.46706976507306
-0.3047000000000001,-156.60854089505958
-0.30569999999999997,-156.60854089505958
-0.3067000000000001,-156.60854089505958
-0.3077,-156.60854089505958
-0.3087000000000001,-156.46706976507306
-0.3097,-156.46706976507306
-0.3107000000000001,-156.46706976507306
-0.3117,-156.60854089505958
-0.3127000000000001,-156.60854089505958
-0.3137,-156.75001202504606
-0.3147000000000001,-156.89148315503257
-0.3157,-156.89148315503257
-0.3167000000000001,-156.75001202504606
-0.3177,-156.75001202504606
-0.3187000000000001,-156.60854089505958
-0.3197,-156.32559863508658
-0.3207000000000001,-156.18412750510007
-0.3217,-156.04265637511355
-0.3227000000000001,-156.04265637511355
-0.3237,-156.18412750510007
-0.3247000000000001,-156.18412750510007
-0.3257,-156.32559863508658
-0.3267000000000001,-156.32559863508658
-0.3277,-156.32559863508658
-0.3287000000000001,-156.18412750510007
-0.3297,-156.04265637511355
-0.3307000000000001,-155.75971411514055
-0.3317,-155.61824298515404
-0.3327000000000001,-155.47677185516753
-0.3337,-155.47677185516753
-0.3347000000000001,-155.47677185516753
-0.3357,-155.47677185516753
-0.3367000000000001,-155.47677185516753
-0.3377,-155.47677185516753
-0.3387000000000001,-155.33530072518104
-0.3397,-155.19382959519453
-0.3407000000000001,-155.05235846520802
-0.3417,-154.76941620523502
-0.3427000000000001,-154.486473945262
-0.3437,-154.203531685289
-0.3447000000000001,-153.920589425316
-0.3457,-153.77911829532948
-0.3467000000000001,-153.63764716534297
-0.3477,-153.49617603535648
-0.3487000000000001,-153.35470490536997
-0.3497,-153.21323377538346
-0.3507000000000001,-153.07176264539694
-0.3517,-152.64734925543743
-0.3527000000000001,-152.36440699546444
-0.3537,-151.93999360550492
-0.3547000000000001,-151.5155802155454
-0.3557,-151.23263795557244
-0.35670000000000013,-150.8082245656129
-0.3577,-150.66675343562642
-0.35870000000000013,-150.5252823056399
-0.3597,-150.24234004566688
-0.36070000000000013,-150.1008689156804
-0.3617,-149.95939778569388
-0.3626999999999999,-149.6764555257209
-0.3637,-149.39351326574788
-0.3646999999999999,-149.1105710057749
-0.3657,-148.68615761581535
-0.3666999999999999,-148.40321535584232
-0.3677,-147.97880196588284
-0.3686999999999999,-147.83733083589632
-0.36970000000000003,-147.6958597059098
-0.3706999999999999,-147.55438857592333
-0.37170000000000003,-147.55438857592333
-0.3726999999999999,-147.55438857592333
-0.37370000000000003,-147.4129174459368
-0.3746999999999999,-147.27144631595033
-0.37570000000000003,-146.9885040559773
-0.3766999999999999,-146.7055617960043
-0.37770000000000004,-146.28114840604482
-0.3786999999999999,-145.9982061460718
-0.37970000000000004,-145.7152638860988
-0.3806999999999999,-145.57379275611228
-0.38170000000000004,-145.43232162612577
-0.38269999999999993,-145.29085049613926
-0.38370000000000004,-145.29085049613926
-0.38469999999999993,-145.00790823616626
-0.38570000000000004,-144.86643710617977
-0.38669999999999993,-144.44202371622026
-0.38770000000000004,-144.15908145624724
-0.38869999999999993,-143.87613919627424
-0.38970000000000005,-143.4517258063147
-0.39069999999999994,-143.16878354634173
-0.39170000000000005,-142.8858412863687
-0.39269999999999994,-142.7443701563822
-0.39370000000000005,-142.4614278964092
-0.39469999999999994,-142.31995676642268
-0.39570000000000005,-142.17848563643616
-0.39669999999999994,-142.03701450644968
-0.39770000000000005,-141.89554337646317
-0.39869999999999994,-141.61260111649017
-0.39970000000000006,-141.3155117435185
-0.40069999999999995,-141.01842237054686
-0.40170000000000006,-140.79206856256846
-0.40269999999999995,-140.53742052859275
-0.40370000000000006,-140.36765517260895
-0.40469999999999995,-140.2686253816184
-0.40570000000000006,-140.18374270362645
-0.40669999999999995,-140.18374270362645
-0.40770000000000006,-140.18374270362645
-0.40869999999999995,-140.22618404262244
-0.40970000000000006,-140.14130136463055
-0.41069999999999995,-140.05641868663866
-0.41170000000000007,-139.9290946696508
-0.41269999999999996,-139.70274086167237
-0.41370000000000007,-139.61785818368048
-0.41469999999999996,-139.53297550568857
-0.41570000000000007,-139.53297550568857
-0.41669999999999996,-139.61785818368048
-0.41770000000000007,-139.70274086167237
-0.41869999999999996,-139.84421199165885
-0.4197000000000001,-139.80177065266292
-0.42069999999999996,-139.74518220066832
-0.4217000000000001,-139.53297550568857
-0.42269999999999996,-139.3207688107088
-0.4237000000000001,-139.0095323247385
-0.42469999999999997,-138.6982958387682
-0.4257000000000001,-138.52853048278442
-0.42669999999999997,-138.44364780479248
-0.4277000000000001,-138.44364780479248
-0.42869999999999997,-138.48608914378846
-0.4297000000000001,-138.52853048278442
-0.43069999999999997,-138.57097182178035
-0.4317000000000001,-138.52853048278442
-0.4327,-138.44364780479248
-0.4337000000000001,-138.3587651268006
-0.4347,-138.3163237878046
-0.4357000000000001,-138.27388244880868
-0.4367,-138.27388244880868
-0.4377000000000001,-138.27388244880868
-0.4387,-138.40120646579655
-0.4397000000000001,-138.57097182178035
-0.4407,-138.88220830775063
-0.4417000000000001,-139.3207688107088
-0.4427,-139.74518220066832
-0.4437000000000001,-140.325213833613
-0.4447,-140.70718588457655
-0.4457000000000001,-140.89109835355902
-0.4467,-140.93353969255494
-0.4477000000000001,-140.84865701456303
-0.4487,-140.89109835355902
-0.4497000000000001,-140.93353969255494
-0.4507,-141.10330504853877
-0.4517000000000001,-141.3721001955131
-0.4527,-141.61260111649017
-0.4537000000000001,-141.75407224647665
-0.4547,-141.75407224647665
-0.4557000000000001,-141.89554337646317
-0.4567,-141.75407224647665
-0.4577000000000001,-141.61260111649017
-0.4587,-141.61260111649017
-0.4597000000000001,-141.47112998650366
-0.4607,-141.47112998650366
-0.4617000000000001,-141.47112998650366
-0.4627,-141.61260111649017
-0.4637000000000001,-141.89554337646317
-0.4647,-142.03701450644968
-0.4657000000000001,-142.4614278964092
-0.4667,-142.7443701563822
-0.4677000000000001,-143.16878354634173
-0.4687,-143.3102546763282
-0.4697000000000001,-143.5931969363012
-0.4707,-143.5931969363012
-0.4717000000000001,-143.73466806628772
-0.4727,-143.73466806628772
-0.4737000000000001,-143.87613919627424
-0.4747,-144.15908145624724
-0.4757000000000001,-144.44202371622026
-0.4767,-144.86643710617977
-0.4777000000000001,-145.14937936615277
-0.4787,-145.43232162612577
-0.4797000000000001,-145.57379275611228
-0.4807,-145.7152638860988
-0.48170000000000013,-145.9982061460718
-0.4827,-146.1396772760583
-0.48370000000000013,-146.4226195360313
-0.4847,-146.7055617960043
-0.48570000000000013,-146.9885040559773
-0.4867,-145.9982061460718
-0.48570000000000013,-142.8858412863687
-0.4847,-140.0988600256346
-0.48370000000000013,-137.39676144289237
-0.4827,-134.86442821613394
-0.48170000000000013,-132.41697766736743
-0.4807,-129.98367423159957
-0.4797000000000001,-127.62110636082497
-0.4787,-125.272685603049
-0.4777000000000001,-123.00914752326493
-0.4767,-120.81634500847414
-0.4757000000000001,-118.82160207566443
-0.4747,-116.98247738583989
-0.4737000000000001,-115.2423824870059
-0.4727,-113.62961160515974
-0.4717000000000001,-112.01684072331359
-0.4707,-110.34748138947285
-0.4697000000000001,-108.69226916863077
-0.4687,-106.99461560879273
-0.4677000000000001,-105.33940338795064
-0.4667,-103.7266325061045
