Potential V vs RHE, Current mA cm-2
0.013299999999999867,6.14833530921345
0.012299999999999978,4.6218618166590755
0.011299999999999866,3.225541763692284
0.010299999999999976,2.30880884137974
0.009299999999999864,1.655212220842093
0.008299999999999974,0.9137620285828272
0.007299999999999862,-0.04582249900262853
0.006299999999999972,-0.9617207416482519
0.00529999999999986,-1.5717442541500557
0.0042999999999999705,-1.9650339955125358
0.0032999999999998586,-2.4446211261667834
0.0022999999999999687,-3.2297858975918787
0.0012999999999998568,-4.014950669016974
0.00029999999999996696,-4.450681749375406
-0.000700000000000145,-4.756259390146253
-0.0017000000000000348,-5.149549131508733
-0.0027000000000001467,-5.847001802342197
-0.0037000000000000366,-6.54445447317566
-0.0047000000000001485,-6.93774421453814
-0.005700000000000038,-7.111753704421539
-0.00670000000000015,-7.461187395488204
-0.00770000000000004,-8.11478401602585
-0.008700000000000152,-8.769795347863363
-0.009700000000000042,-9.11781432763016
-0.010700000000000154,-9.24938247851761
-0.011700000000000044,-9.55496011928846
-0.012700000000000156,-10.120844639234473
-0.013700000000000045,-10.731999920776168
-0.014700000000000157,-11.081433611842833
-0.015700000000000047,-11.1677310011346
-0.01670000000000016,-11.473308641905447
-0.01770000000000005,-12.084463923447142
-0.01870000000000016,-12.694204493688973
-0.01970000000000005,-12.955926084164007
-0.020700000000000163,-13.043638184755638
-0.021700000000000053,-13.349215825526485
-0.022700000000000164,-13.916515056772363
-0.023700000000000054,-14.486643710617974
-0.024700000000000166,-14.783733083589633
-0.025700000000000056,-14.925204213576137
-0.026700000000000168,-15.137410908555893
-0.027700000000000058,-15.660854089505953
-0.02870000000000017,-16.269179948447924
-0.02970000000000006,-16.53797509542228
-0.03070000000000017,-16.622857773414182
-0.03170000000000006,-16.835064468393938
-0.03270000000000017,-17.40094898833995
-0.03370000000000006,-18.009274847281915
-0.034700000000000175,-18.320511333252224
-0.035700000000000065,-18.49027668923603
-0.03670000000000018,-18.759071836210385
-0.03770000000000007,-19.3249563561564
-0.03870000000000018,-19.848399537106463
-0.03970000000000007,-20.10304757108217
-0.04070000000000018,-20.159636023076775
-0.04170000000000007,-20.371842718056527
-0.04270000000000018,-20.93772723800254
-0.04370000000000007,-21.54605309694451
-0.044700000000000184,-21.94217226090672
-0.045700000000000074,-22.196820294882425
-0.046700000000000186,-22.508056780852733
-0.047700000000000076,-23.1163826397947
-0.04870000000000019,-23.639825820744765
-0.04970000000000008,-23.86617962872317
-0.05070000000000019,-23.823738289727217
-0.05170000000000008,-23.993503645711023
-0.05270000000000019,-24.516946826661083
-0.05370000000000008,-25.252596702590903
-0.05470000000000019,-25.691157205549064
-0.05570000000000008,-25.91751101352747
-0.056700000000000195,-26.29948306449103
-0.057700000000000085,-26.907808923433
-0.058700000000000196,-27.487840556377662
-0.059700000000000086,-27.742488590353368
-0.0607000000000002,-27.700047251357418
-0.06170000000000009,-27.954695285333123
-0.0627000000000002,-28.53472691827779
-0.06370000000000009,-29.14305277721976
-0.0647000000000002,-29.581613280177915
-0.06570000000000009,-29.751378636161718
-0.0667000000000002,-30.04846800913338
-0.0677000000000001,-30.670940981073993
-0.0687000000000002,-31.27926684001596
-0.0697000000000001,-31.57635621298762
-0.07070000000000021,-31.717827342974125
-0.0717000000000001,-31.972475376949827
-0.07270000000000021,-32.58080123589179
-0.0737000000000001,-33.231568433829715
-0.07470000000000021,-33.58524625879597
-0.0757000000000001,-33.712570275783825
-0.07670000000000021,-34.06624810075008
-0.0777000000000001,-34.67457395969205
-0.07870000000000021,-35.46681228761647
-0.0797000000000001,-35.848784338580025
-0.08070000000000022,-36.07513814655844
-0.0817000000000001,-36.329786180534136
-0.08270000000000022,-36.81078802248826
-0.08370000000000011,-37.334231203438314
-0.08470000000000022,-37.56058501141672
-0.08570000000000011,-37.51814367242077
-0.08670000000000022,-37.687909028404576
-0.08770000000000011,-38.29623488734655
-0.08870000000000022,-39.046031876275016
-0.08970000000000011,-39.47044526623452
-0.09070000000000022,-39.82412309120078
-0.09170000000000011,-40.26268359415894
-0.09270000000000023,-40.87100945310091
-0.09370000000000012,-41.43689397304693
-0.09470000000000023,-41.66324778102533
-0.09570000000000012,-41.606659329030734
-0.09670000000000023,-41.79057179801318
-0.09770000000000012,-42.31401497896325
-0.09870000000000023,-43.007223515897124
-0.09970000000000012,-43.40334267985933
-0.10070000000000023,-43.61554937483908
-0.10170000000000012,-44.011668538801295
-0.10270000000000024,-44.704877075735155
-0.10370000000000013,-45.36979138667173
-0.10470000000000024,-45.666880759643384
-0.10570000000000013,-45.79420477663124
-0.10670000000000024,-45.97811724561369
-0.10770000000000013,-46.501560426563756
-0.10870000000000024,-47.02500360751382
-0.10970000000000013,-47.32209298048547
-0.11070000000000024,-47.46356411047198
-0.11170000000000013,-47.80309482243959
-0.11270000000000002,-48.55289181136806
-0.11370000000000013,-49.28854168729788
-0.11470000000000002,-49.642219512264134
-0.11570000000000014,-49.76954352925199
-0.11670000000000003,-50.024191563227696
-0.11770000000000014,-50.60422319617236
-0.11870000000000003,-51.25499039411028
-0.11970000000000014,-51.73599223606439
-0.12070000000000003,-51.990640270040096
-0.12170000000000014,-52.34431809500636
-0.12270000000000003,-52.91020261495237
-0.12370000000000014,-53.56096981289029
-0.12470000000000003,-53.7873236208687
-0.12570000000000014,-53.74488228187274
-0.12670000000000003,-53.872206298860604
-0.12770000000000015,-54.35320814081471
-0.12870000000000004,-54.919092660760725
-0.12970000000000015,-55.17374069473642
-0.13070000000000004,-55.21618203373238
-0.13170000000000015,-55.56985985869864
-0.13270000000000004,-56.1781857176406
-0.13370000000000015,-56.82895291557852
-0.13470000000000004,-57.182630740544774
-0.13570000000000015,-57.352396096528594
-0.13670000000000004,-57.66363258249889
-0.13770000000000016,-58.22951710244491
-0.13870000000000005,-58.79540162239092
-0.13970000000000016,-59.06419676936528
-0.14070000000000005,-59.10663810836124
-0.14170000000000016,-59.31884480334099
-0.14270000000000005,-59.92717066228296
-0.14370000000000016,-60.49305518222897
-0.14470000000000005,-60.84673300719523
-0.14570000000000016,-60.93161568518713
-0.14670000000000005,-61.15796949316553
-0.14770000000000016,-61.72385401311155
-0.14870000000000005,-62.28973853305756
-0.14970000000000017,-62.544386567033264
-0.15070000000000006,-62.64341635802381
-0.15170000000000017,-62.89806439199953
-0.15270000000000006,-63.46394891194555
-0.15370000000000017,-64.0722747708875
-0.15470000000000006,-64.29862857886593
-0.15570000000000017,-64.29862857886593
-0.15670000000000006,-64.46839393484973
-0.15770000000000017,-64.94939577680383
-0.15870000000000006,-65.51528029674984
-0.15970000000000018,-65.82651678272015
-0.16070000000000007,-65.86895812171612
-0.16170000000000018,-65.95384079970802
-0.16270000000000007,-66.39240130266617
-0.16370000000000018,-66.9582858226122
-0.16470000000000007,-67.34025787357575
-0.16570000000000018,-67.56661168155415
-0.16670000000000007,-67.96273084551636
-0.16770000000000018,-68.44373268747047
-0.16870000000000007,-68.91058741642594
-0.16970000000000018,-69.13694122440434
-0.17070000000000007,-69.0944998854084
-0.17170000000000019,-69.1793825634003
-0.17270000000000008,-69.57550172736251
-0.1737000000000002,-70.09894490831257
-0.17470000000000008,-70.31115160329232
-0.1757000000000002,-70.22626892530042
-0.17670000000000008,-70.26871026429637
-0.1777000000000002,-70.66482942825859
-0.17870000000000008,-71.2307139482046
-0.1797000000000002,-71.58439177317086
-0.18070000000000008,-71.75415712915466
-0.1817000000000002,-72.05124650212633
-0.18270000000000008,-72.67371947406694
-0.1837000000000002,-73.15472131602105
-0.1847000000000001,-73.2820453330089
-0.1857000000000002,-73.23960399401295
-0.1867000000000001,-73.32448667200485
-0.1877000000000002,-73.62157604497652
-0.1887000000000001,-73.97525386994278
-0.1897000000000002,-74.06013654793468
-0.1907000000000001,-74.0176952089387
-0.1917000000000001,-74.20160767792116
-0.19269999999999998,-74.66846240687663
-0.1937000000000001,-75.33337671781321
-0.19469999999999998,-75.63046609078486
-0.1957000000000001,-75.6729074297808
-0.19669999999999999,-75.85681989876326
-0.1977000000000001,-76.55002843569714
-0.1987,-77.243236972631
-0.1997000000000001,-77.46959078060941
-0.2007,-77.243236972631
-0.2017000000000001,-77.03103027765125
-0.2027,-76.9037062606634
-0.2037000000000001,-76.71979379168094
-0.2047,-76.33782174071737
-0.2057000000000001,-76.02658525474708
-0.2067,-76.33782174071737
-0.2077000000000001,-77.20079563363505
-0.2087,-78.24768199553519
-0.2097000000000001,-78.77112517648524
-0.2107,-78.85600785447714
-0.2117000000000001,-78.99747898446365
-0.2127,-79.47848082641775
-0.2137000000000001,-79.90289421637728
-0.2147,-79.94533555537322
-0.2157000000000001,-80.12924802435568
-0.2167,-80.38389605833139
-0.21770000000000012,-80.69513254430169
-0.2187,-80.86489790028548
-0.21970000000000012,-80.61024986630979
-0.2207,-80.12924802435568
-0.22170000000000012,-79.81801153838538
-0.2227,-79.86045287738132
-0.22370000000000012,-80.04436534636378
-0.2247,-80.17168936335163
-0.22570000000000012,-79.7755701993894
-0.2267,-79.64824618240156
-0.22770000000000012,-80.00192400736783
-0.22870000000000001,-80.29901338033947
-0.22970000000000013,-80.25657204134353
-0.23070000000000002,-80.56780852731384
-0.23170000000000013,-81.65713622820991
-0.23270000000000002,-82.47766878213164
-0.23370000000000013,-82.56255146012353
-0.23470000000000002,-82.03910827917348
-0.23570000000000013,-81.21857572525175
-0.23670000000000002,-80.08680668535972
-0.2376999999999999,-79.37945103542721
-0.23870000000000002,-79.7755701993894
-0.2396999999999999,-80.17168936335163
-0.24070000000000003,-80.42633739732734
-0.24169999999999991,-80.9497805782774
-0.24270000000000003,-81.47322375922747
-0.24369999999999992,-81.51566509822342
-0.24470000000000003,-81.09125170826391
-0.24569999999999992,-80.46877873632329
-0.24670000000000003,-80.08680668535972
-0.24769999999999992,-80.21413070234757
-0.24870000000000003,-80.73757388329766
-0.24969999999999992,-81.09125170826391
-0.25070000000000003,-81.04881036926795
-0.2516999999999999,-81.04881036926795
-0.25270000000000004,-81.30345840324367
-0.2536999999999999,-81.43078242023151
-0.25470000000000004,-81.13369304725985
-0.2556999999999999,-80.56780852731384
-0.25670000000000004,-80.12924802435568
-0.25769999999999993,-80.04436534636378
-0.25870000000000004,-80.00192400736783
-0.25969999999999993,-79.7755701993894
-0.26070000000000004,-79.37945103542721
-0.26169999999999993,-79.20968567944341
-0.26270000000000004,-79.33700969643127
-0.26369999999999993,-79.56336350440966
-0.26470000000000005,-79.47848082641775
-0.26569999999999994,-79.1248030014515
-0.26670000000000005,-78.91259630647174
-0.26769999999999994,-78.85600785447714
-0.26870000000000005,-78.77112517648524
-0.26969999999999994,-78.43159446451764
-0.27070000000000005,-77.90815128356756
-0.27169999999999994,-77.59691479759726
-0.27270000000000005,-77.59691479759726
-0.27369999999999994,-77.7242388145851
-0.27470000000000006,-77.51203211960537
-0.27569999999999995,-77.11591295564315
-0.27670000000000006,-76.86126492166746
-0.27769999999999995,-76.94614759965934
-0.27870000000000006,-77.03103027765125
-0.27969999999999995,-76.67735245268499
-0.28070000000000006,-76.06902659374302
-0.28169999999999995,-75.54558341279296
-0.28270000000000006,-75.19190558782671
-0.28369999999999995,-74.93725755385098
-0.28470000000000006,-74.58357972888473
-0.28569999999999995,-74.28649035591307
-0.28670000000000007,-74.20160767792116
-0.28769999999999996,-74.45625571189689
-0.28870000000000007,-74.58357972888473
-0.28969999999999996,-74.20160767792116
-0.29070000000000007,-73.40936934999675
-0.29169999999999996,-72.80104349105478
-0.29270000000000007,-72.63127813507097
-0.29369999999999996,-72.67371947406694
-0.2947000000000001,-72.53224834408043
-0.29569999999999996,-72.27760031010472
-0.2967000000000001,-72.05124650212633
-0.29769999999999996,-72.15027629311687
-0.2987000000000001,-72.23515897110877
-0.29969999999999997,-71.96636382413442
-0.3007000000000001,-71.2307139482046
-0.30169999999999997,-70.70727076725453
-0.3027000000000001,-70.66482942825859
-0.30369999999999997,-70.79215344524643
-0.3047000000000001,-70.57994675026669
-0.30569999999999997,-70.09894490831257
-0.3067000000000001,-69.74526708334632
-0.3077,-69.78770842234226
-0.3087000000000001,-69.78770842234226
-0.3097,-69.43403059737601
-0.3107000000000001,-68.96717586842054
-0.3117,-68.69838072144618
-0.3127000000000001,-68.69838072144618
-0.3137,-68.69838072144618
-0.3147000000000001,-68.34470289647993
-0.3157,-67.7788183765339
-0.3167000000000001,-67.43928766456631
-0.3177,-67.56661168155415
-0.3187000000000001,-67.7788183765339
-0.3197,-67.693935698542
-0.3207000000000001,-67.39684632557035
-0.3217,-67.17049251759194
-0.3227000000000001,-67.25537519558385
-0.3237,-67.48172900356225
-0.3247000000000001,-67.39684632557035
-0.3257,-67.00072716160814
-0.3267000000000001,-66.81681469262568
-0.3277,-66.9582858226122
-0.3287000000000001,-67.00072716160814
-0.3297,-66.73193201463377
-0.3307000000000001,-66.47728398065809
-0.3317,-66.39240130266617
-0.3327000000000001,-66.51972531965401
-0.3337,-66.60460799764593
-0.3347000000000001,-66.51972531965401
-0.3357,-66.12360615569182
-0.3367000000000001,-65.95384079970802
-0.3377,-66.16604749468777
-0.3387000000000001,-66.43484264166212
-0.3397,-66.47728398065809
-0.3407000000000001,-66.20848883368372
-0.3417,-66.16604749468777
-0.3427000000000001,-66.39240130266617
-0.3437,-66.64704933664189
-0.3447000000000001,-66.64704933664189
-0.3457,-66.43484264166212
-0.3467000000000001,-66.34995996367022
-0.3477,-66.56216665864997
-0.3487000000000001,-66.81681469262568
-0.3497,-66.77437335362974
-0.3507000000000001,-66.56216665864997
-0.3517,-66.56216665864997
-0.3527000000000001,-66.81681469262568
-0.3537,-67.17049251759194
-0.3547000000000001,-67.128051178596
-0.3557,-66.87340314462028
-0.35670000000000013,-66.77437335362974
-0.3577,-67.08560983960004
-0.35870000000000013,-67.52417034255821
-0.3597,-67.65149435954605
-0.36070000000000013,-67.52417034255821
-0.3617,-67.56661168155415
-0.3626999999999999,-67.9202895065204
-0.3637,-68.25982021848802
-0.3646999999999999,-68.30226155748396
-0.3657,-68.13249620150016
-0.3666999999999999,-68.17493754049613
-0.3677,-68.52861536546239
-0.3686999999999999,-68.96717586842054
-0.36970000000000003,-69.0944998854084
-0.3706999999999999,-68.96717586842054
-0.37170000000000003,-69.05205854641244
-0.3726999999999999,-69.43403059737601
-0.37370000000000003,-69.91503243933012
-0.3746999999999999,-70.05650356931662
-0.37570000000000003,-69.87259110033416
-0.3766999999999999,-69.87259110033416
-0.37770000000000004,-70.22626892530042
-0.3786999999999999,-70.66482942825859
-0.37970000000000004,-70.70727076725453
-0.3806999999999999,-70.57994675026669
-0.38170000000000004,-70.62238808926263
-0.38269999999999993,-70.91947746223428
-0.38370000000000004,-71.27315528720055
-0.38469999999999993,-71.35803796519245
-0.38570000000000004,-71.18827260920865
-0.38669999999999993,-71.2307139482046
-0.38770000000000004,-71.58439177317086
-0.38869999999999993,-72.00880516313036
-0.38970000000000005,-72.15027629311687
-0.39069999999999994,-72.00880516313036
-0.39170000000000005,-72.05124650212633
-0.39269999999999994,-72.40492432709259
-0.39370000000000005,-72.67371947406694
-0.39469999999999994,-72.71616081306288
-0.39570000000000005,-72.84348483005074
-0.39669999999999994,-73.09813286402644
-0.39770000000000005,-73.45181068899271
-0.39869999999999994,-73.72060583596706
-0.39970000000000006,-73.6781644969711
-0.40069999999999995,-73.49425202798865
-0.40170000000000006,-73.49425202798865
-0.40269999999999995,-73.76304717496302
-0.40370000000000006,-74.14501922592657
-0.40469999999999995,-74.32893169490903
-0.40570000000000006,-74.32893169490903
-0.40669999999999995,-74.54113838988879
-0.40770000000000006,-75.1070229098348
-0.40869999999999995,-75.5880247517889
-0.40970000000000006,-75.5880247517889
-0.41069999999999995,-75.29093537881725
-0.41170000000000007,-75.1070229098348
-0.41269999999999996,-75.19190558782671
-0.41370000000000007,-75.33337671781321
-0.41469999999999996,-75.2484940398213
-0.41570000000000007,-75.06458157083884
-0.41669999999999996,-75.14946424883075
-0.41770000000000007,-75.63046609078486
-0.41869999999999996,-76.19635061073087
-0.4197000000000001,-76.50758709670117
-0.42069999999999996,-76.42270441870929
-0.4217000000000001,-76.33782174071737
-0.42269999999999996,-76.50758709670117
-0.4237000000000001,-76.81882358267148
-0.42469999999999997,-76.81882358267148
-0.4257000000000001,-76.5924697746931
-0.42669999999999997,-76.55002843569714
-0.4277000000000001,-76.9037062606634
-0.42869999999999997,-77.1583542946391
-0.4297000000000001,-77.0734716166472
-0.43069999999999997,-76.7622351306769
-0.4317000000000001,-76.86126492166746
-0.4327,-77.38470810261751
-0.4337000000000001,-77.90815128356756
-0.4347,-77.95059262256353
-0.4357000000000001,-77.7242388145851
-0.4367,-77.63935613659322
-0.4377000000000001,-77.76668015358106
-0.4387,-77.76668015358106
-0.4397000000000001,-77.59691479759726
-0.4407,-77.28567831162695
-0.4417000000000001,-77.28567831162695
-0.4427,-77.59691479759726
-0.4437000000000001,-78.07791663955136
-0.4447,-78.24768199553519
-0.4457000000000001,-78.16279931754329
-0.4467,-78.16279931754329
-0.4477000000000001,-78.47403580351359
-0.4487,-78.64380115949739
-0.4497000000000001,-78.47403580351359
-0.4507,-78.16279931754329
-0.4517000000000001,-78.24768199553519
-0.4527,-78.68624249849334
-0.4537000000000001,-79.08236166245555
-0.4547,-79.16724434044745
-0.4557000000000001,-78.99747898446365
-0.4567,-78.99747898446365
-0.4577000000000001,-79.2945683574353
-0.4587,-79.69068752139752
-0.4597000000000001,-79.94533555537322
-0.4607,-80.08680668535972
-0.4617000000000001,-80.38389605833139
-0.4627,-80.7800152222936
-0.4637000000000001,-81.09125170826391
-0.4647,-81.09125170826391
-0.4657000000000001,-80.90733923928146
-0.4667,-80.99222191727335
-0.4677000000000001,-81.51566509822342
-0.4687,-82.18057940915998
-0.4697000000000001,-82.56255146012353
-0.4707,-82.70402259011003
-0.4717000000000001,-82.95867062408576
-0.4727,-83.43967246603985
-0.4737000000000001,-83.92067430799398
-0.4747,-84.00555698598588
-0.4757000000000001,-83.92067430799398
-0.4767,-84.18946945496833
-0.4777000000000001,-85.13732602587791
-0.4787,-86.45300753475239
-0.4797000000000001,-87.62721791364037
-0.4807,-88.5043389195567
-0.48170000000000013,-89.42390126446898
-0.4827,-90.47078762636909
-0.48370000000000013,-91.37620285828272
-0.4847,-91.81476336124088
-0.48570000000000013,-91.94208737822873
-0.4867,-91.12155482430701
-0.48570000000000013,-89.07022343950271
-0.4847,-87.93845439961068
-0.48370000000000013,-87.10377473269031
-0.4827,-86.28324217876859
-0.48170000000000013,-85.66076920682796
-0.4807,-85.23635581686847
-0.4797000000000001,-84.61388284492786
-0.4787,-83.66602627401826
-0.4777000000000001,-82.52011012112759
-0.4767,-81.51566509822342
-0.4757000000000001,-80.82245656128954
-0.4747,-80.34145471933543
-0.4737000000000001,-79.56336350440966
-0.4727,-78.77112517648524
-0.4717000000000001,-78.24768199553519
-0.4707,-78.07791663955136
-0.4697000000000001,-77.90815128356756
-0.4687,-77.51203211960537
-0.4677000000000001,-76.81882358267148
-0.4667,-76.23879194972683
-0.4657000000000001,-75.85681989876326
-0.4647,-75.33337671781321
-0.4637000000000001,-74.54113838988879
-0.4627,-73.57913470598055
-0.4617000000000001,-72.84348483005074
-0.4607,-72.57468968307639
-0.4597000000000001,-72.40492432709259
-0.4587,-72.00880516313036
