Potential V vs RHE, Current mA cm-2
0.013299999999999867,6.016767158326001
0.012299999999999978,4.578005766363259
0.011299999999999866,3.2693978139880997
0.010299999999999976,2.048501962204573
0.009299999999999864,0.8264743413811545
0.008299999999999974,-0.3947044526623452
0.007299999999999862,-1.5293029151541047
0.006299999999999972,-2.662486666345999
0.00529999999999986,-3.6655169779503103
0.0042999999999999705,-4.668547289554621
0.0032999999999998586,-5.585280211867165
0.0022999999999999687,-6.37044498329226
0.0012999999999998568,-7.155609754717355
0.00029999999999996696,-7.896918475846635
-0.000700000000000145,-8.55051509638428
-0.0017000000000000348,-9.24938247851761
-0.0027000000000001467,-9.946835149351072
-0.0037000000000000366,-10.688143870480351
-0.0047000000000001485,-11.473308641905447
-0.005700000000000038,-12.302329463626359
-0.00670000000000015,-13.087494235051453
-0.00770000000000004,-13.828802956180734
-0.008700000000000152,-14.529085049613924
-0.009700000000000042,-15.222293586547794
-0.010700000000000154,-15.830619445489761
-0.011700000000000044,-16.438945304431726
-0.012700000000000156,-16.962388485381787
-0.013700000000000045,-17.40094898833995
-0.014700000000000157,-17.924392169290012
-0.015700000000000047,-18.44783535024008
-0.01670000000000016,-19.056161209182044
-0.01770000000000005,-19.678634181122664
-0.01870000000000016,-20.286960040064624
-0.01970000000000005,-20.93772723800254
-0.020700000000000163,-21.63093577493641
-0.021700000000000053,-22.253408746877028
-0.022700000000000164,-22.861734605818995
-0.023700000000000054,-23.385177786769056
-0.024700000000000166,-23.823738289727217
-0.025700000000000056,-24.290593018682678
-0.026700000000000168,-24.729153521640843
-0.027700000000000058,-25.210155363594954
-0.02870000000000017,-25.691157205549064
-0.02970000000000006,-26.17215904750318
-0.03070000000000017,-26.738043567449193
-0.03170000000000006,-27.34636942639116
-0.03270000000000017,-28.011283737327723
-0.03370000000000006,-28.662050935265643
-0.034700000000000175,-29.27037679420761
-0.035700000000000065,-29.878702653149578
-0.03670000000000018,-30.444587173095588
-0.03770000000000007,-30.925589015049702
-0.03870000000000018,-31.449032195999767
-0.03970000000000007,-31.887592698957924
-0.04070000000000018,-32.32615320191609
-0.04170000000000007,-32.807155043870196
-0.04270000000000018,-33.231568433829715
-0.04370000000000007,-33.85404140577033
-0.044700000000000184,-34.41992592571634
-0.045700000000000074,-35.02825178465831
-0.046700000000000186,-35.636577643600276
-0.047700000000000076,-36.244903502542236
-0.04870000000000019,-36.81078802248826
-0.04970000000000008,-37.376672542434264
-0.05070000000000019,-37.90011572338433
-0.05170000000000008,-38.38111756533845
-0.05270000000000019,-38.777236729300654
-0.05370000000000008,-39.21579723225882
-0.05470000000000019,-39.61191639622103
-0.05570000000000008,-40.03632978618054
-0.056700000000000195,-40.616361419125205
-0.057700000000000085,-41.182245939071215
-0.058700000000000196,-41.79057179801318
-0.059700000000000086,-42.39889765695515
-0.0607000000000002,-43.09210619388902
-0.06170000000000009,-43.75702050482558
-0.0627000000000002,-44.36534636376755
-0.06370000000000009,-44.88878954471762
-0.0647000000000002,-45.412232725667685
-0.06570000000000009,-45.89323456762179
-0.0667000000000002,-46.37423640957591
-0.0677000000000001,-46.84109113853137
-0.0687000000000002,-47.36453431948143
-0.0697000000000001,-47.8879775004315
-0.07070000000000021,-48.51045047237211
-0.0717000000000001,-49.16121767031002
-0.07270000000000021,-49.81198486824794
-0.0737000000000001,-50.50519340518181
-0.07470000000000021,-51.17010771611838
-0.0757000000000001,-51.77843357506035
-0.07670000000000021,-52.34431809500636
-0.0777000000000001,-52.86776127595642
-0.07870000000000021,-53.39120445690648
-0.0797000000000001,-53.82976495986464
-0.08070000000000022,-54.26832546282281
-0.0817000000000001,-54.834209982768826
-0.08270000000000022,-55.25862337272834
-0.08370000000000011,-55.9235376836649
-0.08470000000000022,-56.53186354260687
-0.08570000000000011,-57.182630740544774
-0.08670000000000022,-57.93242772947325
-0.08770000000000011,-58.583194927411164
-0.08870000000000022,-59.23396212534908
-0.08970000000000011,-59.884729323287
-0.09070000000000022,-60.45061384323302
-0.09170000000000011,-60.974057024183075
-0.09270000000000023,-61.49750020513315
-0.09370000000000012,-61.936060708091304
-0.09470000000000023,-62.459503889041365
-0.09570000000000012,-63.02538840898739
-0.09670000000000023,-63.633714267929356
-0.09770000000000012,-64.34106991786187
-0.09870000000000023,-64.99183711579978
-0.09970000000000012,-65.68504565273366
-0.10070000000000023,-66.43484264166212
-0.10170000000000012,-67.08560983960004
-0.10270000000000024,-67.82125971552985
-0.10370000000000013,-68.38714423547587
-0.10470000000000024,-68.96717586842054
-0.10570000000000013,-69.57550172736251
-0.10670000000000024,-70.05650356931662
-0.10770000000000013,-70.57994675026669
-0.10870000000000024,-71.10338993121674
-0.10970000000000013,-71.6268331121668
-0.11070000000000024,-72.23515897110877
-0.11170000000000013,-72.97080884703858
-0.11270000000000002,-73.97525386994278
-0.11370000000000013,-75.14946424883075
-0.11470000000000002,-76.38026307971333
-0.11570000000000014,-77.51203211960537
-0.11670000000000003,-78.51647714250953
-0.11770000000000014,-79.33700969643127
-0.11870000000000003,-79.94533555537322
-0.11970000000000014,-80.42633739732734
-0.12070000000000003,-80.73757388329766
-0.12170000000000014,-81.04881036926795
-0.12270000000000003,-81.26101706424771
-0.12370000000000014,-81.57225355021802
-0.12470000000000003,-81.99666694017753
-0.12570000000000014,-82.39278610413973
-0.12670000000000003,-82.87378794609386
-0.12770000000000015,-83.26990711005605
-0.12870000000000004,-83.52455514403178
-0.12970000000000015,-83.79335029100612
-0.13070000000000004,-84.04799832498183
-0.13170000000000015,-84.44411748894404
-0.13270000000000004,-85.01000200889004
-0.13370000000000015,-85.70321054582392
-0.13470000000000004,-86.5378902127443
-0.13570000000000015,-87.41501121866061
-0.13670000000000004,-88.37701490256885
-0.13770000000000016,-89.23998879548651
-0.13870000000000005,-90.15955114039879
-0.13970000000000016,-91.12155482430701
-0.14070000000000005,-92.12599984721119
-0.14170000000000016,-93.03141507912481
-0.14270000000000005,-93.95097742403709
-0.14370000000000016,-94.70077441296557
-0.14470000000000005,-95.26665893291157
-0.14570000000000016,-95.83254345285758
-0.14670000000000005,-96.21451550382113
-0.14770000000000016,-96.5681933287874
-0.14870000000000005,-96.92187115375367
-0.14970000000000017,-97.31799031771587
-0.15070000000000006,-97.78484504667132
-0.15170000000000017,-98.26584688862545
-0.15270000000000006,-98.74684873057957
-0.15370000000000017,-99.31273325052557
-0.15470000000000006,-99.7937350924797
-0.15570000000000017,-100.35961961242569
-0.15670000000000006,-100.98209258436633
-0.15770000000000017,-101.63285978230424
-0.15870000000000006,-102.3260683192381
-0.15970000000000018,-103.01927685617197
-0.16070000000000007,-103.7266325061045
-0.16170000000000018,-104.46228238203432
-0.16270000000000007,-105.16963803196683
-0.16370000000000018,-105.94772924689259
-0.16470000000000007,-106.73996757481702
-0.16570000000000018,-107.4331761117509
-0.16670000000000007,-108.21126732667666
-0.16770000000000018,-108.91862297660917
-0.16870000000000007,-109.56939017454708
-0.16970000000000018,-110.1352746944931
-0.17070000000000007,-110.6162765364472
-0.17170000000000019,-111.01239570040943
-0.17270000000000008,-111.394367751373
-0.1737000000000002,-111.74804557633925
-0.17470000000000008,-112.22904741829338
-0.1757000000000002,-112.71004926024747
-0.17670000000000008,-113.31837511918944
-0.1777000000000002,-113.92670097813141
-0.17870000000000008,-114.53502683707337
-0.1797000000000002,-115.19994114800993
-0.18070000000000008,-115.8931496849438
-0.1817000000000002,-116.50147554388576
-0.18270000000000008,-117.10980140282774
-0.1837000000000002,-117.59080324478184
-0.1847000000000001,-118.11424642573192
-0.1857000000000002,-118.63768960668197
-0.1867000000000001,-119.20357412662798
-0.1877000000000002,-119.769458646574
-0.1887000000000001,-120.39193161851462
-0.1897000000000002,-121.00025747745659
-0.1907000000000001,-121.69346601439047
-0.1917000000000001,-122.42911589032028
-0.19269999999999998,-123.2213542182447
-0.1937000000000001,-124.09847522416102
-0.19469999999999998,-124.87656643908679
-0.1957000000000001,-125.71124610600715
-0.19669999999999999,-126.44689598193698
-0.1977000000000001,-127.09766317987489
-0.1987,-127.76257749081147
-0.1997000000000001,-128.32846201075745
-0.2007,-128.8094638527116
-0.2017000000000001,-129.33290703366166
-0.2027,-129.75732042362114
-0.2037000000000001,-130.32320494356716
-0.2047,-130.84664812451723
-0.2057000000000001,-131.32764996647134
-0.2067,-131.95012293841197
-0.2077000000000001,-132.41697766736743
-0.2087,-132.9404208483175
-0.2097000000000001,-133.4214226902716
-0.2107,-133.8599831932298
-0.2117000000000001,-134.256102357192
-0.2127,-134.6097801821582
-0.2137000000000001,-134.94931089412586
-0.2147,-135.43031273607997
-0.2157000000000001,-135.91131457803408
-0.2167,-136.51964043697603
-0.21770000000000012,-137.12796629591801
-0.2187,-137.75043926785864
-0.21970000000000012,-138.44364780479248
-0.2207,-139.13685634172634
-0.22170000000000012,-139.80177065266292
-0.2227,-140.45253785060083
-0.22370000000000012,-140.9759810315509
-0.2247,-141.456982873505
-0.22570000000000012,-141.89554337646317
-0.2267,-142.31995676642268
-0.22770000000000012,-142.7443701563822
-0.22870000000000001,-143.16878354634173
-0.22970000000000013,-143.5931969363012
-0.23070000000000002,-144.30055258623375
-0.23170000000000013,-144.86643710617977
-0.23270000000000002,-145.7152638860988
-0.23370000000000013,-146.5640906660178
-0.23470000000000002,-147.27144631595033
-0.23570000000000013,-147.97880196588284
-0.23670000000000002,-148.54468648582886
-0.2376999999999999,-148.96909987578834
-0.23870000000000002,-149.25204213576137
-0.2396999999999999,-149.6764555257209
-0.24070000000000003,-150.1008689156804
-0.24169999999999991,-150.5252823056399
-0.24270000000000003,-151.09116682558593
-0.24369999999999992,-151.7985224755184
-0.24470000000000003,-152.36440699546444
-0.24569999999999992,-152.93029151541046
-0.24670000000000003,-153.49617603535648
-0.24769999999999992,-153.920589425316
-0.24870000000000003,-154.203531685289
-0.24969999999999992,-154.486473945262
-0.25070000000000003,-154.76941620523502
-0.2516999999999999,-155.05235846520802
-0.25270000000000004,-155.33530072518104
-0.2536999999999999,-155.47677185516753
-0.25470000000000004,-155.90118524512707
-0.2556999999999999,-156.32559863508658
-0.25670000000000004,-156.75001202504606
-0.25769999999999993,-157.31589654499206
-0.25870000000000004,-157.88178106493808
-0.25969999999999993,-158.5891367148706
-0.26070000000000004,-159.43796349478964
-0.26169999999999993,-160.14531914472215
-0.26270000000000004,-160.71120366466818
-0.26369999999999993,-161.2770881846142
-0.26470000000000005,-161.70150157457368
-0.26569999999999994,-162.12591496453322
-0.26670000000000005,-162.40885722450622
-0.26769999999999994,-162.6917994844792
-0.26870000000000005,-162.97474174445222
-0.26969999999999994,-163.25768400442522
-0.27070000000000005,-163.68209739438475
-0.27169999999999994,-164.10651078434424
-0.27270000000000005,-164.38945304431726
-0.27369999999999994,-164.81386643427678
-0.27470000000000006,-165.09680869424977
-0.27569999999999995,-165.5212220842093
-0.27670000000000006,-165.8041643441823
-0.27769999999999995,-165.94563547416882
-0.27870000000000006,-166.22857773414182
-0.27969999999999995,-166.3700488641283
-0.28070000000000006,-166.51151999411482
-0.28169999999999995,-166.79446225408785
-0.28270000000000006,-166.93593338407433
-0.28369999999999995,-167.21887564404733
-0.28470000000000006,-167.50181790402033
-0.28569999999999995,-167.6432890340068
-0.28670000000000007,-168.06770242396635
-0.28769999999999996,-168.49211581392586
-0.28870000000000007,-168.77505807389886
-0.28969999999999996,-169.19947146385837
-0.29070000000000007,-169.48241372383137
-0.29169999999999996,-169.6238848538179
-0.29270000000000007,-169.9068271137909
-0.29369999999999996,-170.0482982437774
-0.2947000000000001,-170.33124050375042
-0.29569999999999996,-170.47271163373694
-0.2967000000000001,-170.75565389370993
-0.29769999999999996,-171.03859615368293
-0.2987000000000001,-171.18006728366944
-0.29969999999999997,-171.46300954364247
-0.3007000000000001,-171.74595180361547
-0.30169999999999997,-171.88742293360195
-0.3027000000000001,-172.0288940635885
-0.30369999999999997,-172.17036519357498
-0.3047000000000001,-172.17036519357498
-0.30569999999999997,-172.17036519357498
-0.3067000000000001,-172.31183632356147
-0.3077,-172.31183632356147
-0.3087000000000001,-172.45330745354798
-0.3097,-172.59477858353446
-0.3107000000000001,-172.73624971352098
-0.3117,-172.87772084350746
-0.3127000000000001,-173.16066310348046
-0.3137,-173.44360536345349
-0.3147000000000001,-173.58507649344
-0.3157,-173.72654762342648
-0.3167000000000001,-173.86801875341303
-0.3177,-174.0094898833995
-0.3187000000000001,-174.0094898833995
-0.3197,-174.0094898833995
-0.3207000000000001,-174.0094898833995
-0.3217,-174.0094898833995
-0.3227000000000001,-173.86801875341303
-0.3237,-173.86801875341303
-0.3247000000000001,-174.0094898833995
-0.3257,-174.150961013386
-0.3267000000000001,-174.2924321433725
-0.3277,-174.43390327335902
-0.3287000000000001,-174.57537440334553
-0.3297,-174.57537440334553
-0.3307000000000001,-174.57537440334553
-0.3317,-174.57537440334553
-0.3327000000000001,-174.43390327335902
-0.3337,-174.150961013386
-0.3347000000000001,-174.0094898833995
-0.3357,-173.86801875341303
-0.3367000000000001,-173.72654762342648
-0.3377,-173.58507649344
-0.3387000000000001,-173.58507649344
-0.3397,-173.58507649344
-0.3407000000000001,-173.44360536345349
-0.3417,-173.44360536345349
-0.3427000000000001,-173.302134233467
-0.3437,-173.16066310348046
-0.3447000000000001,-172.87772084350746
-0.3457,-172.73624971352098
-0.3467000000000001,-172.45330745354798
-0.3477,-172.31183632356147
-0.3487000000000001,-172.17036519357498
-0.3497,-172.0288940635885
-0.3507000000000001,-171.88742293360195
-0.3517,-171.88742293360195
-0.3527000000000001,-171.88742293360195
-0.3537,-171.88742293360195
-0.3547000000000001,-171.88742293360195
-0.3557,-171.74595180361547
-0.35670000000000013,-171.74595180361547
-0.3577,-171.46300954364247
-0.35870000000000013,-171.18006728366944
-0.3597,-170.89712502369645
-0.36070000000000013,-170.61418276372342
-0.3617,-170.33124050375042
-0.3626999999999999,-170.0482982437774
-0.3637,-169.7653559838044
-0.3646999999999999,-169.48241372383137
-0.3657,-169.3409425938449
-0.3666999999999999,-169.19947146385837
-0.3677,-169.0580003338719
-0.3686999999999999,-168.77505807389886
-0.36970000000000003,-168.63358694391238
-0.3706999999999999,-168.49211581392586
-0.37170000000000003,-168.20917355395284
-0.3726999999999999,-168.06770242396635
-0.37370000000000003,-167.78476016399335
-0.3746999999999999,-167.6432890340068
-0.37570000000000003,-167.36034677403384
-0.3766999999999999,-167.21887564404733
-0.37770000000000004,-167.07740451406085
-0.3786999999999999,-167.07740451406085
-0.37970000000000004,-166.93593338407433
-0.3806999999999999,-166.93593338407433
-0.38170000000000004,-166.79446225408785
-0.38269999999999993,-166.65299112410133
-0.38370000000000004,-166.3700488641283
-0.38469999999999993,-165.94563547416882
-0.38570000000000004,-165.6626932141958
-0.38669999999999993,-165.2382798242363
-0.38770000000000004,-164.81386643427678
-0.38869999999999993,-164.38945304431726
-0.38970000000000005,-163.96503965435775
-0.39069999999999994,-163.68209739438475
-0.39170000000000005,-163.54062626439824
-0.39269999999999994,-163.39915513441173
-0.39370000000000005,-163.25768400442522
-0.39469999999999994,-163.11621287443873
-0.39570000000000005,-162.97474174445222
-0.39669999999999994,-162.8332706144657
-0.39770000000000005,-162.40885722450622
-0.39869999999999994,-162.2673860945197
-0.39970000000000006,-161.84297270456022
-0.40069999999999995,-161.5600304445872
-0.40170000000000006,-161.2770881846142
-0.40269999999999995,-161.1356170546277
-0.40370000000000006,-160.99414592464117
-0.40469999999999995,-160.8526747946547
-0.40570000000000006,-160.71120366466818
-0.40669999999999995,-160.71120366466818
-0.40770000000000006,-160.71120366466818
-0.40869999999999995,-160.71120366466818
-0.40970000000000006,-160.71120366466818
-0.41069999999999995,-160.5697325346817
-0.41170000000000007,-160.42826140469515
-0.41269999999999996,-160.14531914472215
-0.41370000000000007,-159.86237688474912
-0.41469999999999996,-159.57943462477613
-0.41570000000000007,-159.29649236480313
-0.41669999999999996,-159.01355010483013
-0.41770000000000007,-158.87207897484362
-0.41869999999999996,-158.73060784485713
-0.4197000000000001,-158.5891367148706
-0.42069999999999996,-158.4476655848841
-0.4217000000000001,-158.3061944548976
-0.42269999999999996,-158.1647233249111
-0.4237000000000001,-157.88178106493808
-0.42469999999999997,-157.7403099349516
-0.4257000000000001,-157.45736767497857
-0.42669999999999997,-157.17442541500557
-0.4277000000000001,-157.03295428501906
-0.42869999999999997,-156.89148315503257
-0.4297000000000001,-156.89148315503257
-0.43069999999999997,-156.89148315503257
-0.4317000000000001,-157.03295428501906
-0.4327,-157.17442541500557
-0.4337000000000001,-157.17442541500557
-0.4347,-157.17442541500557
-0.4357000000000001,-157.17442541500557
-0.4367,-157.17442541500557
-0.4377000000000001,-157.17442541500557
-0.4387,-157.17442541500557
-0.4397000000000001,-157.17442541500557
-0.4407,-157.03295428501906
-0.4417000000000001,-156.89148315503257
-0.4427,-156.89148315503257
-0.4437000000000001,-156.89148315503257
-0.4447,-156.89148315503257
-0.4457000000000001,-156.89148315503257
-0.4467,-157.03295428501906
-0.4477000000000001,-157.03295428501906
-0.4487,-157.17442541500557
-0.4497000000000001,-157.17442541500557
-0.4507,-157.31589654499206
-0.4517000000000001,-157.31589654499206
-0.4527,-157.17442541500557
-0.4537000000000001,-157.03295428501906
-0.4547,-157.03295428501906
-0.4557000000000001,-157.03295428501906
-0.4567,-157.03295428501906
-0.4577000000000001,-157.03295428501906
-0.4587,-157.17442541500557
-0.4597000000000001,-157.45736767497857
-0.4607,-157.7403099349516
-0.4617000000000001,-157.88178106493808
-0.4627,-158.1647233249111
-0.4637000000000001,-158.1647233249111
-0.4647,-158.1647233249111
-0.4657000000000001,-158.1647233249111
-0.4667,-158.02325219492457
-0.4677000000000001,-158.02325219492457
-0.4687,-157.88178106493808
-0.4697000000000001,-157.88178106493808
-0.4707,-157.7403099349516
-0.4717000000000001,-157.7403099349516
-0.4727,-157.88178106493808
-0.4737000000000001,-158.02325219492457
-0.4747,-158.1647233249111
-0.4757000000000001,-158.3061944548976
-0.4767,-158.4476655848841
-0.4777000000000001,-158.5891367148706
-0.4787,-158.87207897484362
-0.4797000000000001,-159.15502123481662
-0.4807,-159.29649236480313
-0.48170000000000013,-159.72090575476264
-0.4827,-160.00384801473567
-0.48370000000000013,-160.42826140469515
-0.4847,-160.8526747946547
-0.48570000000000013,-161.2770881846142
-0.4867,-160.42826140469515
-0.48570000000000013,-157.31589654499206
-0.4847,-154.486473945262
-0.48370000000000013,-151.65705134553193
-0.4827,-149.1105710057749
-0.48170000000000013,-146.4226195360313
-0.4807,-143.87613919627424
-0.4797000000000001,-141.456982873505
-0.4787,-139.13685634172634
-0.4777000000000001,-136.95820093993422
-0.4767,-134.82198687713802
-0.4757000000000001,-132.7706554923337
-0.4747,-130.76176544652535
-0.4737000000000001,-128.85190519170752
-0.4727,-127.012780501883
-0.4717000000000001,-125.10292024706521
-0.4707,-123.2213542182447
-0.4697000000000001,-121.29734685042824
-0.4687,-119.38748659561045
-0.4677000000000001,-117.50592056678994
-0.4667,-115.62435453796945
