June 25, 2026   14:25:01
Linear Sweep Voltammetry
File: c:/users/guazh/data/20260623_doe_duplica2/2026-06-24-exp6\pre-regen-2026-06-25t14_21_57-lsvinphos\pre-regen_lsv_50mvs_efin_-1900mv.bin
Data Source:  Experiment
Instrument Model:  CHI760E
Header: LSV ran at 50 mVs with Efin at -1900mV
Note: 

Init E (V) = -0.6
Final E (V) = -1.9
Scan Rate (V/s) = 0.05
Sample Interval (V) = 0.001
Quiet Time (sec) = 2
Sensitivity (A/V) = 1e-4
Comp R (ohm) = 8.4

Results:

Channel 1:
Ep = -1.251V
ip = 5.662e-4A
Ah = 7.488e-4C

Potential/V, Current/A

-0.600, -8.005e-5
-0.601, -7.153e-5
-0.602, -6.096e-5
-0.603, -5.183e-5
-0.604, -4.412e-5
-0.605, -3.741e-5
-0.606, -3.152e-5
-0.607, -2.629e-5
-0.608, -2.150e-5
-0.609, -1.710e-5
-0.610, -1.299e-5
-0.611, -9.114e-6
-0.612, -5.457e-6
-0.613, -1.964e-6
-0.614, 1.397e-6
-0.615, 4.685e-6
-0.616, 7.864e-6
-0.617, 1.085e-5
-0.618, 1.371e-5
-0.619, 1.653e-5
-0.620, 1.927e-5
-0.621, 2.197e-5
-0.622, 2.461e-5
-0.623, 2.716e-5
-0.624, 2.967e-5
-0.625, 3.210e-5
-0.626, 3.448e-5
-0.627, 3.684e-5
-0.628, 3.910e-5
-0.629, 4.136e-5
-0.630, 4.356e-5
-0.631, 4.566e-5
-0.632, 4.779e-5
-0.633, 4.982e-5
-0.634, 5.185e-5
-0.635, 5.385e-5
-0.636, 5.580e-5
-0.637, 5.773e-5
-0.638, 5.958e-5
-0.639, 6.139e-5
-0.640, 6.324e-5
-0.641, 6.501e-5
-0.642, 6.674e-5
-0.643, 6.847e-5
-0.644, 7.009e-5
-0.645, 7.173e-5
-0.646, 7.335e-5
-0.647, 7.494e-5
-0.648, 7.648e-5
-0.649, 7.799e-5
-0.650, 7.950e-5
-0.651, 8.101e-5
-0.652, 8.245e-5
-0.653, 8.390e-5
-0.654, 8.530e-5
-0.655, 8.665e-5
-0.656, 8.800e-5
-0.657, 8.928e-5
-0.658, 9.058e-5
-0.659, 9.186e-5
-0.660, 9.309e-5
-0.661, 9.435e-5
-0.662, 9.557e-5
-0.663, 9.673e-5
-0.664, 9.791e-5
-0.665, 9.904e-5
-0.666, 1.002e-4
-0.667, 1.014e-4
-0.668, 1.024e-4
-0.669, 1.035e-4
-0.670, 1.045e-4
-0.671, 1.055e-4
-0.672, 1.065e-4
-0.673, 1.075e-4
-0.674, 1.084e-4
-0.675, 1.094e-4
-0.676, 1.103e-4
-0.677, 1.112e-4
-0.678, 1.122e-4
-0.679, 1.130e-4
-0.680, 1.139e-4
-0.681, 1.147e-4
-0.682, 1.156e-4
-0.683, 1.164e-4
-0.684, 1.172e-4
-0.685, 1.180e-4
-0.686, 1.188e-4
-0.687, 1.195e-4
-0.688, 1.203e-4
-0.689, 1.211e-4
-0.690, 1.218e-4
-0.691, 1.225e-4
-0.692, 1.233e-4
-0.693, 1.240e-4
-0.694, 1.246e-4
-0.695, 1.253e-4
-0.696, 1.260e-4
-0.697, 1.267e-4
-0.698, 1.274e-4
-0.699, 1.280e-4
-0.700, 1.287e-4
-0.701, 1.293e-4
-0.702, 1.300e-4
-0.703, 1.307e-4
-0.704, 1.314e-4
-0.705, 1.320e-4
-0.706, 1.326e-4
-0.707, 1.333e-4
-0.708, 1.339e-4
-0.709, 1.346e-4
-0.710, 1.352e-4
-0.711, 1.359e-4
-0.712, 1.365e-4
-0.713, 1.372e-4
-0.714, 1.378e-4
-0.715, 1.385e-4
-0.716, 1.392e-4
-0.717, 1.399e-4
-0.718, 1.406e-4
-0.719, 1.412e-4
-0.720, 1.419e-4
-0.721, 1.426e-4
-0.722, 1.433e-4
-0.723, 1.441e-4
-0.724, 1.448e-4
-0.725, 1.455e-4
-0.726, 1.463e-4
-0.727, 1.470e-4
-0.728, 1.478e-4
-0.729, 1.486e-4
-0.730, 1.494e-4
-0.731, 1.503e-4
-0.732, 1.510e-4
-0.733, 1.519e-4
-0.734, 1.528e-4
-0.735, 1.536e-4
-0.736, 1.545e-4
-0.737, 1.553e-4
-0.738, 1.562e-4
-0.739, 1.571e-4
-0.740, 1.580e-4
-0.741, 1.590e-4
-0.742, 1.599e-4
-0.743, 1.609e-4
-0.744, 1.618e-4
-0.745, 1.628e-4
-0.746, 1.638e-4
-0.747, 1.648e-4
-0.748, 1.658e-4
-0.749, 1.668e-4
-0.750, 1.678e-4
-0.751, 1.688e-4
-0.752, 1.699e-4
-0.753, 1.709e-4
-0.754, 1.719e-4
-0.755, 1.730e-4
-0.756, 1.741e-4
-0.757, 1.751e-4
-0.758, 1.762e-4
-0.759, 1.773e-4
-0.760, 1.784e-4
-0.761, 1.795e-4
-0.762, 1.805e-4
-0.763, 1.817e-4
-0.764, 1.828e-4
-0.765, 1.839e-4
-0.766, 1.850e-4
-0.767, 1.860e-4
-0.768, 1.872e-4
-0.769, 1.884e-4
-0.770, 1.894e-4
-0.771, 1.905e-4
-0.772, 1.915e-4
-0.773, 1.926e-4
-0.774, 1.937e-4
-0.775, 1.948e-4
-0.776, 1.959e-4
-0.777, 1.969e-4
-0.778, 1.980e-4
-0.779, 1.990e-4
-0.780, 2.000e-4
-0.781, 2.011e-4
-0.782, 2.021e-4
-0.783, 2.031e-4
-0.784, 2.041e-4
-0.785, 2.051e-4
-0.786, 2.061e-4
-0.787, 2.071e-4
-0.788, 2.081e-4
-0.789, 2.091e-4
-0.790, 2.100e-4
-0.791, 2.110e-4
-0.792, 2.119e-4
-0.793, 2.128e-4
-0.794, 2.137e-4
-0.795, 2.147e-4
-0.796, 2.155e-4
-0.797, 2.164e-4
-0.798, 2.172e-4
-0.799, 2.180e-4
-0.800, 2.189e-4
-0.801, 2.197e-4
-0.802, 2.204e-4
-0.803, 2.212e-4
-0.804, 2.220e-4
-0.805, 2.227e-4
-0.806, 2.235e-4
-0.807, 2.242e-4
-0.808, 2.249e-4
-0.809, 2.255e-4
-0.810, 2.262e-4
-0.811, 2.269e-4
-0.812, 2.275e-4
-0.813, 2.282e-4
-0.814, 2.288e-4
-0.815, 2.293e-4
-0.816, 2.299e-4
-0.817, 2.304e-4
-0.818, 2.309e-4
-0.819, 2.315e-4
-0.820, 2.323e-4
-0.821, 2.328e-4
-0.822, 2.333e-4
-0.823, 2.337e-4
-0.824, 2.341e-4
-0.825, 2.345e-4
-0.826, 2.349e-4
-0.827, 2.354e-4
-0.828, 2.357e-4
-0.829, 2.361e-4
-0.830, 2.365e-4
-0.831, 2.368e-4
-0.832, 2.372e-4
-0.833, 2.376e-4
-0.834, 2.379e-4
-0.835, 2.383e-4
-0.836, 2.386e-4
-0.837, 2.389e-4
-0.838, 2.393e-4
-0.839, 2.396e-4
-0.840, 2.399e-4
-0.841, 2.402e-4
-0.842, 2.405e-4
-0.843, 2.408e-4
-0.844, 2.411e-4
-0.845, 2.415e-4
-0.846, 2.418e-4
-0.847, 2.421e-4
-0.848, 2.425e-4
-0.849, 2.428e-4
-0.850, 2.431e-4
-0.851, 2.435e-4
-0.852, 2.438e-4
-0.853, 2.442e-4
-0.854, 2.445e-4
-0.855, 2.449e-4
-0.856, 2.453e-4
-0.857, 2.457e-4
-0.858, 2.461e-4
-0.859, 2.465e-4
-0.860, 2.469e-4
-0.861, 2.474e-4
-0.862, 2.478e-4
-0.863, 2.483e-4
-0.864, 2.487e-4
-0.865, 2.492e-4
-0.866, 2.497e-4
-0.867, 2.503e-4
-0.868, 2.508e-4
-0.869, 2.514e-4
-0.870, 2.519e-4
-0.871, 2.526e-4
-0.872, 2.532e-4
-0.873, 2.538e-4
-0.874, 2.544e-4
-0.875, 2.551e-4
-0.876, 2.557e-4
-0.877, 2.564e-4
-0.878, 2.571e-4
-0.879, 2.577e-4
-0.880, 2.584e-4
-0.881, 2.592e-4
-0.882, 2.599e-4
-0.883, 2.607e-4
-0.884, 2.614e-4
-0.885, 2.622e-4
-0.886, 2.630e-4
-0.887, 2.638e-4
-0.888, 2.646e-4
-0.889, 2.655e-4
-0.890, 2.663e-4
-0.891, 2.672e-4
-0.892, 2.681e-4
-0.893, 2.689e-4
-0.894, 2.698e-4
-0.895, 2.707e-4
-0.896, 2.716e-4
-0.897, 2.725e-4
-0.898, 2.734e-4
-0.899, 2.743e-4
-0.900, 2.752e-4
-0.901, 2.762e-4
-0.902, 2.772e-4
-0.903, 2.781e-4
-0.904, 2.790e-4
-0.905, 2.800e-4
-0.906, 2.810e-4
-0.907, 2.819e-4
-0.908, 2.829e-4
-0.909, 2.838e-4
-0.910, 2.848e-4
-0.911, 2.858e-4
-0.912, 2.868e-4
-0.913, 2.877e-4
-0.914, 2.887e-4
-0.915, 2.896e-4
-0.916, 2.906e-4
-0.917, 2.916e-4
-0.918, 2.925e-4
-0.919, 2.935e-4
-0.920, 2.944e-4
-0.921, 2.954e-4
-0.922, 2.963e-4
-0.923, 2.973e-4
-0.924, 2.982e-4
-0.925, 2.991e-4
-0.926, 3.000e-4
-0.927, 3.009e-4
-0.928, 3.018e-4
-0.929, 3.027e-4
-0.930, 3.036e-4
-0.931, 3.045e-4
-0.932, 3.053e-4
-0.933, 3.062e-4
-0.934, 3.071e-4
-0.935, 3.079e-4
-0.936, 3.088e-4
-0.937, 3.096e-4
-0.938, 3.104e-4
-0.939, 3.112e-4
-0.940, 3.120e-4
-0.941, 3.128e-4
-0.942, 3.135e-4
-0.943, 3.143e-4
-0.944, 3.151e-4
-0.945, 3.158e-4
-0.946, 3.165e-4
-0.947, 3.173e-4
-0.948, 3.180e-4
-0.949, 3.186e-4
-0.950, 3.193e-4
-0.951, 3.199e-4
-0.952, 3.206e-4
-0.953, 3.212e-4
-0.954, 3.218e-4
-0.955, 3.225e-4
-0.956, 3.231e-4
-0.957, 3.237e-4
-0.958, 3.242e-4
-0.959, 3.248e-4
-0.960, 3.253e-4
-0.961, 3.259e-4
-0.962, 3.264e-4
-0.963, 3.269e-4
-0.964, 3.274e-4
-0.965, 3.279e-4
-0.966, 3.284e-4
-0.967, 3.288e-4
-0.968, 3.293e-4
-0.969, 3.297e-4
-0.970, 3.302e-4
-0.971, 3.306e-4
-0.972, 3.310e-4
-0.973, 3.314e-4
-0.974, 3.319e-4
-0.975, 3.322e-4
-0.976, 3.326e-4
-0.977, 3.330e-4
-0.978, 3.333e-4
-0.979, 3.337e-4
-0.980, 3.340e-4
-0.981, 3.343e-4
-0.982, 3.346e-4
-0.983, 3.349e-4
-0.984, 3.352e-4
-0.985, 3.355e-4
-0.986, 3.358e-4
-0.987, 3.361e-4
-0.988, 3.364e-4
-0.989, 3.367e-4
-0.990, 3.369e-4
-0.991, 3.372e-4
-0.992, 3.375e-4
-0.993, 3.378e-4
-0.994, 3.381e-4
-0.995, 3.384e-4
-0.996, 3.386e-4
-0.997, 3.389e-4
-0.998, 3.392e-4
-0.999, 3.395e-4
-1.000, 3.398e-4
-1.001, 3.400e-4
-1.002, 3.403e-4
-1.003, 3.406e-4
-1.004, 3.409e-4
-1.005, 3.412e-4
-1.006, 3.415e-4
-1.007, 3.418e-4
-1.008, 3.421e-4
-1.009, 3.425e-4
-1.010, 3.428e-4
-1.011, 3.432e-4
-1.012, 3.435e-4
-1.013, 3.438e-4
-1.014, 3.442e-4
-1.015, 3.445e-4
-1.016, 3.449e-4
-1.017, 3.453e-4
-1.018, 3.457e-4
-1.019, 3.461e-4
-1.020, 3.465e-4
-1.021, 3.470e-4
-1.022, 3.474e-4
-1.023, 3.478e-4
-1.024, 3.483e-4
-1.025, 3.489e-4
-1.026, 3.493e-4
-1.027, 3.498e-4
-1.028, 3.502e-4
-1.029, 3.507e-4
-1.030, 3.513e-4
-1.031, 3.517e-4
-1.032, 3.523e-4
-1.033, 3.528e-4
-1.034, 3.533e-4
-1.035, 3.539e-4
-1.036, 3.544e-4
-1.037, 3.551e-4
-1.038, 3.557e-4
-1.039, 3.562e-4
-1.040, 3.569e-4
-1.041, 3.575e-4
-1.042, 3.581e-4
-1.043, 3.587e-4
-1.044, 3.593e-4
-1.045, 3.600e-4
-1.046, 3.607e-4
-1.047, 3.613e-4
-1.048, 3.620e-4
-1.049, 3.628e-4
-1.050, 3.635e-4
-1.051, 3.642e-4
-1.052, 3.649e-4
-1.053, 3.657e-4
-1.054, 3.665e-4
-1.055, 3.672e-4
-1.056, 3.680e-4
-1.057, 3.688e-4
-1.058, 3.696e-4
-1.059, 3.705e-4
-1.060, 3.713e-4
-1.061, 3.721e-4
-1.062, 3.730e-4
-1.063, 3.739e-4
-1.064, 3.748e-4
-1.065, 3.756e-4
-1.066, 3.765e-4
-1.067, 3.774e-4
-1.068, 3.784e-4
-1.069, 3.793e-4
-1.070, 3.803e-4
-1.071, 3.813e-4
-1.072, 3.823e-4
-1.073, 3.832e-4
-1.074, 3.843e-4
-1.075, 3.853e-4
-1.076, 3.865e-4
-1.077, 3.876e-4
-1.078, 3.886e-4
-1.079, 3.897e-4
-1.080, 3.908e-4
-1.081, 3.919e-4
-1.082, 3.930e-4
-1.083, 3.942e-4
-1.084, 3.954e-4
-1.085, 3.966e-4
-1.086, 3.978e-4
-1.087, 3.990e-4
-1.088, 4.003e-4
-1.089, 4.016e-4
-1.090, 4.029e-4
-1.091, 4.042e-4
-1.092, 4.055e-4
-1.093, 4.069e-4
-1.094, 4.083e-4
-1.095, 4.097e-4
-1.096, 4.111e-4
-1.097, 4.125e-4
-1.098, 4.140e-4
-1.099, 4.155e-4
-1.100, 4.170e-4
-1.101, 4.185e-4
-1.102, 4.201e-4
-1.103, 4.217e-4
-1.104, 4.233e-4
-1.105, 4.249e-4
-1.106, 4.266e-4
-1.107, 4.283e-4
-1.108, 4.300e-4
-1.109, 4.317e-4
-1.110, 4.335e-4
-1.111, 4.352e-4
-1.112, 4.371e-4
-1.113, 4.389e-4
-1.114, 4.408e-4
-1.115, 4.427e-4
-1.116, 4.446e-4
-1.117, 4.466e-4
-1.118, 4.486e-4
-1.119, 4.506e-4
-1.120, 4.527e-4
-1.121, 4.547e-4
-1.122, 4.569e-4
-1.123, 4.590e-4
-1.124, 4.611e-4
-1.125, 4.634e-4
-1.126, 4.656e-4
-1.127, 4.679e-4
-1.128, 4.702e-4
-1.129, 4.725e-4
-1.130, 4.749e-4
-1.131, 4.773e-4
-1.132, 4.797e-4
-1.133, 4.822e-4
-1.134, 4.847e-4
-1.135, 4.872e-4
-1.136, 4.898e-4
-1.137, 4.924e-4
-1.138, 4.951e-4
-1.139, 4.977e-4
-1.140, 5.004e-4
-1.141, 5.032e-4
-1.142, 5.060e-4
-1.143, 5.087e-4
-1.144, 5.116e-4
-1.145, 5.145e-4
-1.146, 5.174e-4
-1.147, 5.204e-4
-1.148, 5.234e-4
-1.149, 5.264e-4
-1.150, 5.295e-4
-1.151, 5.326e-4
-1.152, 5.357e-4
-1.153, 5.389e-4
-1.154, 5.421e-4
-1.155, 5.453e-4
-1.156, 5.486e-4
-1.157, 5.519e-4
-1.158, 5.553e-4
-1.159, 5.587e-4
-1.160, 5.622e-4
-1.161, 5.656e-4
-1.162, 5.691e-4
-1.163, 5.727e-4
-1.164, 5.762e-4
-1.165, 5.798e-4
-1.166, 5.835e-4
-1.167, 5.872e-4
-1.168, 5.909e-4
-1.169, 5.946e-4
-1.170, 5.984e-4
-1.171, 6.023e-4
-1.172, 6.061e-4
-1.173, 6.100e-4
-1.174, 6.140e-4
-1.175, 6.179e-4
-1.176, 6.220e-4
-1.177, 6.260e-4
-1.178, 6.302e-4
-1.179, 6.343e-4
-1.180, 6.384e-4
-1.181, 6.426e-4
-1.182, 6.468e-4
-1.183, 6.510e-4
-1.184, 6.553e-4
-1.185, 6.596e-4
-1.186, 6.640e-4
-1.187, 6.683e-4
-1.188, 6.728e-4
-1.189, 6.772e-4
-1.190, 6.817e-4
-1.191, 6.862e-4
-1.192, 6.908e-4
-1.193, 6.953e-4
-1.194, 7.000e-4
-1.195, 7.046e-4
-1.196, 7.093e-4
-1.197, 7.141e-4
-1.198, 7.188e-4
-1.199, 7.236e-4
-1.200, 7.284e-4
-1.201, 7.333e-4
-1.202, 7.382e-4
-1.203, 7.432e-4
-1.204, 7.481e-4
-1.205, 7.531e-4
-1.206, 7.581e-4
-1.207, 7.632e-4
-1.208, 7.683e-4
-1.209, 7.733e-4
-1.210, 7.785e-4
-1.211, 7.837e-4
-1.212, 7.889e-4
-1.213, 7.941e-4
-1.214, 7.994e-4
-1.215, 8.047e-4
-1.216, 8.100e-4
-1.217, 8.154e-4
-1.218, 8.208e-4
-1.219, 8.262e-4
-1.220, 8.316e-4
-1.221, 8.371e-4
-1.222, 8.427e-4
-1.223, 8.482e-4
-1.224, 8.538e-4
-1.225, 8.594e-4
-1.226, 8.650e-4
-1.227, 8.707e-4
-1.228, 8.764e-4
-1.229, 8.823e-4
-1.230, 8.882e-4
-1.231, 8.940e-4
-1.232, 8.997e-4
-1.233, 9.056e-4
-1.234, 9.114e-4
-1.235, 9.173e-4
-1.236, 9.233e-4
-1.237, 9.292e-4
-1.238, 9.352e-4
-1.239, 9.413e-4
-1.240, 9.473e-4
-1.241, 9.534e-4
-1.242, 9.595e-4
-1.243, 9.657e-4
-1.244, 9.718e-4
-1.245, 9.780e-4
-1.246, 9.842e-4
-1.247, 9.905e-4
-1.248, 9.968e-4
-1.249, 1.003e-3
-1.250, 1.009e-3
-1.251, 1.011e-3
-1.252, 1.011e-3
-1.253, 1.011e-3
-1.254, 1.011e-3
-1.255, 1.011e-3
-1.256, 1.011e-3
-1.257, 1.011e-3
-1.258, 1.011e-3
-1.259, 1.011e-3
-1.260, 1.011e-3
-1.261, 1.011e-3
-1.262, 1.011e-3
-1.263, 1.011e-3
-1.264, 1.011e-3
-1.265, 1.011e-3
-1.266, 1.011e-3
-1.267, 1.011e-3
-1.268, 1.011e-3
-1.269, 1.011e-3
-1.270, 1.011e-3
-1.271, 1.011e-3
-1.272, 1.011e-3
-1.273, 1.011e-3
-1.274, 1.011e-3
-1.275, 1.011e-3
-1.276, 1.011e-3
-1.277, 1.011e-3
-1.278, 1.011e-3
-1.279, 1.011e-3
-1.280, 1.011e-3
-1.281, 1.011e-3
-1.282, 1.011e-3
-1.283, 1.011e-3
-1.284, 1.011e-3
-1.285, 1.011e-3
-1.286, 1.011e-3
-1.287, 1.011e-3
-1.288, 1.011e-3
-1.289, 1.011e-3
-1.290, 1.011e-3
-1.291, 1.011e-3
-1.292, 1.011e-3
-1.293, 1.011e-3
-1.294, 1.011e-3
-1.295, 1.011e-3
-1.296, 1.011e-3
-1.297, 1.011e-3
-1.298, 1.011e-3
-1.299, 1.011e-3
-1.300, 1.011e-3
-1.301, 1.011e-3
-1.302, 1.011e-3
-1.303, 1.011e-3
-1.304, 1.011e-3
-1.305, 1.011e-3
-1.306, 1.011e-3
-1.307, 1.011e-3
-1.308, 1.011e-3
-1.309, 1.011e-3
-1.310, 1.011e-3
-1.311, 1.011e-3
-1.312, 1.011e-3
-1.313, 1.011e-3
-1.314, 1.011e-3
-1.315, 1.011e-3
-1.316, 1.011e-3
-1.317, 1.011e-3
-1.318, 1.011e-3
-1.319, 1.011e-3
-1.320, 1.011e-3
-1.321, 1.011e-3
-1.322, 1.011e-3
-1.323, 1.011e-3
-1.324, 1.011e-3
-1.325, 1.011e-3
-1.326, 1.011e-3
-1.327, 1.011e-3
-1.328, 1.011e-3
-1.329, 1.011e-3
-1.330, 1.011e-3
-1.331, 1.011e-3
-1.332, 1.011e-3
-1.333, 1.011e-3
-1.334, 1.011e-3
-1.335, 1.011e-3
-1.336, 1.011e-3
-1.337, 1.011e-3
-1.338, 1.011e-3
-1.339, 1.011e-3
-1.340, 1.011e-3
-1.341, 1.011e-3
-1.342, 1.011e-3
-1.343, 1.011e-3
-1.344, 1.011e-3
-1.345, 1.011e-3
-1.346, 1.011e-3
-1.347, 1.011e-3
-1.348, 1.011e-3
-1.349, 1.011e-3
-1.350, 1.011e-3
-1.351, 1.011e-3
-1.352, 1.011e-3
-1.353, 1.011e-3
-1.354, 1.011e-3
-1.355, 1.011e-3
-1.356, 1.011e-3
-1.357, 1.011e-3
-1.358, 1.011e-3
-1.359, 1.011e-3
-1.360, 1.011e-3
-1.361, 1.011e-3
-1.362, 1.011e-3
-1.363, 1.011e-3
-1.364, 1.011e-3
-1.365, 1.011e-3
-1.366, 1.011e-3
-1.367, 1.011e-3
-1.368, 1.011e-3
-1.369, 1.011e-3
-1.370, 1.011e-3
-1.371, 1.011e-3
-1.372, 1.011e-3
-1.373, 1.011e-3
-1.374, 1.011e-3
-1.375, 1.011e-3
-1.376, 1.011e-3
-1.377, 1.011e-3
-1.378, 1.011e-3
-1.379, 1.011e-3
-1.380, 1.011e-3
-1.381, 1.011e-3
-1.382, 1.011e-3
-1.383, 1.011e-3
-1.384, 1.011e-3
-1.385, 1.011e-3
-1.386, 1.011e-3
-1.387, 1.011e-3
-1.388, 1.011e-3
-1.389, 1.011e-3
-1.390, 1.011e-3
-1.391, 1.011e-3
-1.392, 1.011e-3
-1.393, 1.011e-3
-1.394, 1.011e-3
-1.395, 1.011e-3
-1.396, 1.011e-3
-1.397, 1.011e-3
-1.398, 1.011e-3
-1.399, 1.011e-3
-1.400, 1.011e-3
-1.401, 1.011e-3
-1.402, 1.011e-3
-1.403, 1.011e-3
-1.404, 1.011e-3
-1.405, 1.011e-3
-1.406, 1.011e-3
-1.407, 1.011e-3
-1.408, 1.011e-3
-1.409, 1.011e-3
-1.410, 1.011e-3
-1.411, 1.011e-3
-1.412, 1.011e-3
-1.413, 1.011e-3
-1.414, 1.011e-3
-1.415, 1.011e-3
-1.416, 1.011e-3
-1.417, 1.011e-3
-1.418, 1.011e-3
-1.419, 1.011e-3
-1.420, 1.011e-3
-1.421, 1.011e-3
-1.422, 1.011e-3
-1.423, 1.011e-3
-1.424, 1.011e-3
-1.425, 1.011e-3
-1.426, 1.011e-3
-1.427, 1.011e-3
-1.428, 1.011e-3
-1.429, 1.011e-3
-1.430, 1.011e-3
-1.431, 1.011e-3
-1.432, 1.011e-3
-1.433, 1.011e-3
-1.434, 1.011e-3
-1.435, 1.011e-3
-1.436, 1.011e-3
-1.437, 1.011e-3
-1.438, 1.011e-3
-1.439, 1.011e-3
-1.440, 1.011e-3
-1.441, 1.011e-3
-1.442, 1.011e-3
-1.443, 1.011e-3
-1.444, 1.011e-3
-1.445, 1.011e-3
-1.446, 1.011e-3
-1.447, 1.011e-3
-1.448, 1.011e-3
-1.449, 1.011e-3
-1.450, 1.011e-3
-1.451, 1.011e-3
-1.452, 1.011e-3
-1.453, 1.011e-3
-1.454, 1.011e-3
-1.455, 1.011e-3
-1.456, 1.011e-3
-1.457, 1.011e-3
-1.458, 1.011e-3
-1.459, 1.011e-3
-1.460, 1.011e-3
-1.461, 1.011e-3
-1.462, 1.011e-3
-1.463, 1.011e-3
-1.464, 1.011e-3
-1.465, 1.011e-3
-1.466, 1.011e-3
-1.467, 1.011e-3
-1.468, 1.011e-3
-1.469, 1.011e-3
-1.470, 1.011e-3
-1.471, 1.011e-3
-1.472, 1.011e-3
-1.473, 1.011e-3
-1.474, 1.011e-3
-1.475, 1.011e-3
-1.476, 1.011e-3
-1.477, 1.011e-3
-1.478, 1.011e-3
-1.479, 1.011e-3
-1.480, 1.011e-3
-1.481, 1.011e-3
-1.482, 1.011e-3
-1.483, 1.011e-3
-1.484, 1.011e-3
-1.485, 1.011e-3
-1.486, 1.011e-3
-1.487, 1.011e-3
-1.488, 1.011e-3
-1.489, 1.011e-3
-1.490, 1.011e-3
-1.491, 1.011e-3
-1.492, 1.011e-3
-1.493, 1.011e-3
-1.494, 1.011e-3
-1.495, 1.011e-3
-1.496, 1.011e-3
-1.497, 1.011e-3
-1.498, 1.011e-3
-1.499, 1.011e-3
-1.500, 1.011e-3
-1.501, 1.011e-3
-1.502, 1.011e-3
-1.503, 1.011e-3
-1.504, 1.011e-3
-1.505, 1.011e-3
-1.506, 1.011e-3
-1.507, 1.011e-3
-1.508, 1.011e-3
-1.509, 1.011e-3
-1.510, 1.011e-3
-1.511, 1.011e-3
-1.512, 1.011e-3
-1.513, 1.011e-3
-1.514, 1.011e-3
-1.515, 1.011e-3
-1.516, 1.011e-3
-1.517, 1.011e-3
-1.518, 1.011e-3
-1.519, 1.011e-3
-1.520, 1.011e-3
-1.521, 1.011e-3
-1.522, 1.011e-3
-1.523, 1.011e-3
-1.524, 1.011e-3
-1.525, 1.011e-3
-1.526, 1.011e-3
-1.527, 1.011e-3
-1.528, 1.011e-3
-1.529, 1.011e-3
-1.530, 1.011e-3
-1.531, 1.011e-3
-1.532, 1.011e-3
-1.533, 1.011e-3
-1.534, 1.011e-3
-1.535, 1.011e-3
-1.536, 1.011e-3
-1.537, 1.011e-3
-1.538, 1.011e-3
-1.539, 1.011e-3
-1.540, 1.011e-3
-1.541, 1.011e-3
-1.542, 1.011e-3
-1.543, 1.011e-3
-1.544, 1.011e-3
-1.545, 1.011e-3
-1.546, 1.011e-3
-1.547, 1.011e-3
-1.548, 1.011e-3
-1.549, 1.011e-3
-1.550, 1.011e-3
-1.551, 1.011e-3
-1.552, 1.011e-3
-1.553, 1.011e-3
-1.554, 1.011e-3
-1.555, 1.011e-3
-1.556, 1.011e-3
-1.557, 1.011e-3
-1.558, 1.011e-3
-1.559, 1.011e-3
-1.560, 1.011e-3
-1.561, 1.011e-3
-1.562, 1.011e-3
-1.563, 1.011e-3
-1.564, 1.011e-3
-1.565, 1.011e-3
-1.566, 1.011e-3
-1.567, 1.011e-3
-1.568, 1.011e-3
-1.569, 1.011e-3
-1.570, 1.011e-3
-1.571, 1.011e-3
-1.572, 1.011e-3
-1.573, 1.011e-3
-1.574, 1.011e-3
-1.575, 1.011e-3
-1.576, 1.011e-3
-1.577, 1.011e-3
-1.578, 1.011e-3
-1.579, 1.011e-3
-1.580, 1.011e-3
-1.581, 1.011e-3
-1.582, 1.011e-3
-1.583, 1.011e-3
-1.584, 1.011e-3
-1.585, 1.011e-3
-1.586, 1.011e-3
-1.587, 1.011e-3
-1.588, 1.011e-3
-1.589, 1.011e-3
-1.590, 1.011e-3
-1.591, 1.011e-3
-1.592, 1.011e-3
-1.593, 1.011e-3
-1.594, 1.011e-3
-1.595, 1.011e-3
-1.596, 1.011e-3
-1.597, 1.011e-3
-1.598, 1.011e-3
-1.599, 1.011e-3
-1.600, 1.011e-3
-1.601, 1.011e-3
-1.602, 1.011e-3
-1.603, 1.011e-3
-1.604, 1.011e-3
-1.605, 1.011e-3
-1.606, 1.011e-3
-1.607, 1.011e-3
-1.608, 1.011e-3
-1.609, 1.011e-3
-1.610, 1.011e-3
-1.611, 1.011e-3
-1.612, 1.011e-3
-1.613, 1.011e-3
-1.614, 1.011e-3
-1.615, 1.011e-3
-1.616, 1.011e-3
-1.617, 1.011e-3
-1.618, 1.011e-3
-1.619, 1.011e-3
-1.620, 1.011e-3
-1.621, 1.011e-3
-1.622, 1.011e-3
-1.623, 1.011e-3
-1.624, 1.011e-3
-1.625, 1.011e-3
-1.626, 1.011e-3
-1.627, 1.011e-3
-1.628, 1.011e-3
-1.629, 1.011e-3
-1.630, 1.011e-3
-1.631, 1.011e-3
-1.632, 1.011e-3
-1.633, 1.011e-3
-1.634, 1.011e-3
-1.635, 1.011e-3
-1.636, 1.011e-3
-1.637, 1.011e-3
-1.638, 1.011e-3
-1.639, 1.011e-3
-1.640, 1.011e-3
-1.641, 1.011e-3
-1.642, 1.011e-3
-1.643, 1.011e-3
-1.644, 1.011e-3
-1.645, 1.011e-3
-1.646, 1.011e-3
-1.647, 1.011e-3
-1.648, 1.011e-3
-1.649, 1.011e-3
-1.650, 1.011e-3
-1.651, 1.011e-3
-1.652, 1.011e-3
-1.653, 1.011e-3
-1.654, 1.011e-3
-1.655, 1.011e-3
-1.656, 1.011e-3
-1.657, 1.011e-3
-1.658, 1.011e-3
-1.659, 1.011e-3
-1.660, 1.011e-3
-1.661, 1.011e-3
-1.662, 1.011e-3
-1.663, 1.011e-3
-1.664, 1.011e-3
-1.665, 1.011e-3
-1.666, 1.011e-3
-1.667, 1.011e-3
-1.668, 1.011e-3
-1.669, 1.011e-3
-1.670, 1.011e-3
-1.671, 1.011e-3
-1.672, 1.011e-3
-1.673, 1.011e-3
-1.674, 1.011e-3
-1.675, 1.011e-3
-1.676, 1.011e-3
-1.677, 1.011e-3
-1.678, 1.011e-3
-1.679, 1.011e-3
-1.680, 1.011e-3
-1.681, 1.011e-3
-1.682, 1.011e-3
-1.683, 1.011e-3
-1.684, 1.011e-3
-1.685, 1.011e-3
-1.686, 1.011e-3
-1.687, 1.011e-3
-1.688, 1.011e-3
-1.689, 1.011e-3
-1.690, 1.011e-3
-1.691, 1.011e-3
-1.692, 1.011e-3
-1.693, 1.011e-3
-1.694, 1.011e-3
-1.695, 1.011e-3
-1.696, 1.011e-3
-1.697, 1.011e-3
-1.698, 1.011e-3
-1.699, 1.011e-3
-1.700, 1.011e-3
-1.701, 1.011e-3
-1.702, 1.011e-3
-1.703, 1.011e-3
-1.704, 1.011e-3
-1.705, 1.011e-3
-1.706, 1.011e-3
-1.707, 1.011e-3
-1.708, 1.011e-3
-1.709, 1.011e-3
-1.710, 1.011e-3
-1.711, 1.011e-3
-1.712, 1.011e-3
-1.713, 1.011e-3
-1.714, 1.011e-3
-1.715, 1.011e-3
-1.716, 1.011e-3
-1.717, 1.011e-3
-1.718, 1.011e-3
-1.719, 1.011e-3
-1.720, 1.011e-3
-1.721, 1.011e-3
-1.722, 1.011e-3
-1.723, 1.011e-3
-1.724, 1.011e-3
-1.725, 1.011e-3
-1.726, 1.011e-3
-1.727, 1.011e-3
-1.728, 1.011e-3
-1.729, 1.011e-3
-1.730, 1.011e-3
-1.731, 1.011e-3
-1.732, 1.011e-3
-1.733, 1.011e-3
-1.734, 1.011e-3
-1.735, 1.011e-3
-1.736, 1.011e-3
-1.737, 1.011e-3
-1.738, 1.011e-3
-1.739, 1.011e-3
-1.740, 1.011e-3
-1.741, 1.011e-3
-1.742, 1.011e-3
-1.743, 1.011e-3
-1.744, 1.011e-3
-1.745, 1.011e-3
-1.746, 1.011e-3
-1.747, 1.011e-3
-1.748, 1.011e-3
-1.749, 1.011e-3
-1.750, 1.011e-3
-1.751, 1.011e-3
-1.752, 1.011e-3
-1.753, 1.011e-3
-1.754, 1.011e-3
-1.755, 1.011e-3
-1.756, 1.011e-3
-1.757, 1.011e-3
-1.758, 1.011e-3
-1.759, 1.011e-3
-1.760, 1.011e-3
-1.761, 1.011e-3
-1.762, 1.011e-3
-1.763, 1.011e-3
-1.764, 1.011e-3
-1.765, 1.011e-3
-1.766, 1.011e-3
-1.767, 1.011e-3
-1.768, 1.011e-3
-1.769, 1.011e-3
-1.770, 1.011e-3
-1.771, 1.011e-3
-1.772, 1.011e-3
-1.773, 1.011e-3
-1.774, 1.011e-3
-1.775, 1.011e-3
-1.776, 1.011e-3
-1.777, 1.011e-3
-1.778, 1.011e-3
-1.779, 1.011e-3
-1.780, 1.011e-3
-1.781, 1.011e-3
-1.782, 1.011e-3
-1.783, 1.011e-3
-1.784, 1.011e-3
-1.785, 1.011e-3
-1.786, 1.011e-3
-1.787, 1.011e-3
-1.788, 1.011e-3
-1.789, 1.011e-3
-1.790, 1.011e-3
-1.791, 1.011e-3
-1.792, 1.011e-3
-1.793, 1.011e-3
-1.794, 1.011e-3
-1.795, 1.011e-3
-1.796, 1.011e-3
-1.797, 1.011e-3
-1.798, 1.011e-3
-1.799, 1.011e-3
-1.800, 1.011e-3
-1.801, 1.011e-3
-1.802, 1.011e-3
-1.803, 1.011e-3
-1.804, 1.011e-3
-1.805, 1.011e-3
-1.806, 1.011e-3
-1.807, 1.011e-3
-1.808, 1.011e-3
-1.809, 1.011e-3
-1.810, 1.011e-3
-1.811, 1.011e-3
-1.812, 1.011e-3
-1.813, 1.011e-3
-1.814, 1.011e-3
-1.815, 1.011e-3
-1.816, 1.011e-3
-1.817, 1.011e-3
-1.818, 1.011e-3
-1.819, 1.011e-3
-1.820, 1.011e-3
-1.821, 1.011e-3
-1.822, 1.011e-3
-1.823, 1.011e-3
-1.824, 1.011e-3
-1.825, 1.011e-3
-1.826, 1.011e-3
-1.827, 1.011e-3
-1.828, 1.011e-3
-1.829, 1.011e-3
-1.830, 1.011e-3
-1.831, 1.011e-3
-1.832, 1.011e-3
-1.833, 1.011e-3
-1.834, 1.011e-3
-1.835, 1.011e-3
-1.836, 1.011e-3
-1.837, 1.011e-3
-1.838, 1.011e-3
-1.839, 1.011e-3
-1.840, 1.011e-3
-1.841, 1.011e-3
-1.842, 1.011e-3
-1.843, 1.011e-3
-1.844, 1.011e-3
-1.845, 1.011e-3
-1.846, 1.011e-3
-1.847, 1.011e-3
-1.848, 1.011e-3
-1.849, 1.011e-3
-1.850, 1.011e-3
-1.851, 1.011e-3
-1.852, 1.011e-3
-1.853, 1.011e-3
-1.854, 1.011e-3
-1.855, 1.011e-3
-1.856, 1.011e-3
-1.857, 1.011e-3
-1.858, 1.011e-3
-1.859, 1.011e-3
-1.860, 1.011e-3
-1.861, 1.011e-3
-1.862, 1.011e-3
-1.863, 1.011e-3
-1.864, 1.011e-3
-1.865, 1.011e-3
-1.866, 1.011e-3
-1.867, 1.011e-3
-1.868, 1.011e-3
-1.869, 1.011e-3
-1.870, 1.011e-3
-1.871, 1.011e-3
-1.872, 1.011e-3
-1.873, 1.011e-3
-1.874, 1.011e-3
-1.875, 1.011e-3
-1.876, 1.011e-3
-1.877, 1.011e-3
-1.878, 1.011e-3
-1.879, 1.011e-3
-1.880, 1.011e-3
-1.881, 1.011e-3
-1.882, 1.011e-3
-1.883, 1.011e-3
-1.884, 1.011e-3
-1.885, 1.011e-3
-1.886, 1.011e-3
-1.887, 1.011e-3
-1.888, 1.011e-3
-1.889, 1.011e-3
-1.890, 1.011e-3
-1.891, 1.011e-3
-1.892, 1.011e-3
-1.893, 1.011e-3
-1.894, 1.011e-3
-1.895, 1.011e-3
-1.896, 1.011e-3
-1.897, 1.011e-3
-1.898, 1.011e-3
-1.899, 1.011e-3
