July 13, 2024   03:50:13
Cyclic Voltammetry
File: c:/users/guazh/data/20240709_batch67/2024-07-10-exp28\exp28-2024-07-13t03_28_14-h2koh\exp28_cv_sr_100mvs_efin_-1800mv.bin
Data Source:  Experiment
Instrument Model:  CHI760E
Header: CV ran at 100 mVs
Note: 

Init E (V) = -1
High E (V) = -1
Low E (V) = -1.8
Final E (V) = -1
Init P/N = N
Scan Rate (V/s) = 0.1
Segment = 3
Sample Interval (V) = 0.001
Quiet Time (sec) = 2
Sensitivity (A/V) = 0.01
Comp R (ohm) = 1.7

Results:

Channel 1:
Segment 1:

Segment 2:

Segment 3:

Potential/V, Current/A

-1.000, -2.922e-6
-1.001, -2.251e-6
-1.002, -1.886e-6
-1.003, -1.294e-6
-1.004, -1.354e-6
-1.005, -7.814e-7
-1.006, -7.419e-7
-1.007, -6.827e-7
-1.008, -1.006e-7
-1.009, -4.558e-7
-1.010, -6.117e-8
-1.011, 1.066e-7
-1.012, 1.066e-7
-1.013, 4.124e-7
-1.014, 5.604e-7
-1.015, 7.676e-7
-1.016, 8.070e-7
-1.017, 5.505e-7
-1.018, 1.123e-6
-1.019, 8.761e-7
-1.020, 1.083e-6
-1.021, 1.231e-6
-1.022, 1.123e-6
-1.023, 1.419e-6
-1.024, 1.330e-6
-1.025, 1.675e-6
-1.026, 1.626e-6
-1.027, 1.606e-6
-1.028, 2.021e-6
-1.029, 1.705e-6
-1.030, 2.109e-6
-1.031, 2.159e-6
-1.032, 1.951e-6
-1.033, 2.218e-6
-1.034, 2.159e-6
-1.035, 2.386e-6
-1.036, 2.297e-6
-1.037, 2.376e-6
-1.038, 2.751e-6
-1.039, 2.405e-6
-1.040, 2.731e-6
-1.041, 2.701e-6
-1.042, 2.583e-6
-1.043, 3.017e-6
-1.044, 2.859e-6
-1.045, 3.017e-6
-1.046, 2.987e-6
-1.047, 2.908e-6
-1.048, 3.165e-6
-1.049, 2.938e-6
-1.050, 3.362e-6
-1.051, 3.352e-6
-1.052, 3.047e-6
-1.053, 3.431e-6
-1.054, 3.264e-6
-1.055, 3.461e-6
-1.056, 3.530e-6
-1.057, 3.333e-6
-1.058, 3.629e-6
-1.059, 3.333e-6
-1.060, 3.806e-6
-1.061, 3.599e-6
-1.062, 3.560e-6
-1.063, 4.033e-6
-1.064, 3.796e-6
-1.065, 4.023e-6
-1.066, 3.737e-6
-1.067, 3.796e-6
-1.068, 3.964e-6
-1.069, 3.816e-6
-1.070, 4.053e-6
-1.071, 4.112e-6
-1.072, 4.033e-6
-1.073, 4.300e-6
-1.074, 4.240e-6
-1.075, 4.309e-6
-1.076, 4.428e-6
-1.077, 4.201e-6
-1.078, 4.438e-6
-1.079, 4.349e-6
-1.080, 4.497e-6
-1.081, 4.586e-6
-1.082, 4.309e-6
-1.083, 4.763e-6
-1.084, 4.398e-6
-1.085, 4.714e-6
-1.086, 4.566e-6
-1.087, 4.448e-6
-1.088, 4.911e-6
-1.089, 4.842e-6
-1.090, 4.921e-6
-1.091, 5.000e-6
-1.092, 4.803e-6
-1.093, 5.040e-6
-1.094, 4.911e-6
-1.095, 4.980e-6
-1.096, 5.079e-6
-1.097, 4.665e-6
-1.098, 5.217e-6
-1.099, 4.892e-6
-1.100, 5.049e-6
-1.101, 4.911e-6
-1.102, 5.069e-6
-1.103, 5.355e-6
-1.104, 5.138e-6
-1.105, 5.276e-6
-1.106, 5.405e-6
-1.107, 5.158e-6
-1.108, 5.553e-6
-1.109, 5.434e-6
-1.110, 5.602e-6
-1.111, 5.602e-6
-1.112, 5.474e-6
-1.113, 5.839e-6
-1.114, 5.720e-6
-1.115, 5.829e-6
-1.116, 6.026e-6
-1.117, 5.720e-6
-1.118, 6.125e-6
-1.119, 5.937e-6
-1.120, 6.105e-6
-1.121, 6.154e-6
-1.122, 5.888e-6
-1.123, 6.164e-6
-1.124, 6.026e-6
-1.125, 6.184e-6
-1.126, 6.174e-6
-1.127, 6.342e-6
-1.128, 6.569e-6
-1.129, 6.421e-6
-1.130, 6.460e-6
-1.131, 6.628e-6
-1.132, 6.411e-6
-1.133, 6.667e-6
-1.134, 6.352e-6
-1.135, 6.559e-6
-1.136, 6.677e-6
-1.137, 6.697e-6
-1.138, 7.032e-6
-1.139, 6.914e-6
-1.140, 7.082e-6
-1.141, 7.121e-6
-1.142, 6.855e-6
-1.143, 7.338e-6
-1.144, 7.131e-6
-1.145, 7.279e-6
-1.146, 7.427e-6
-1.147, 7.378e-6
-1.148, 7.378e-6
-1.149, 7.062e-6
-1.150, 7.437e-6
-1.151, 7.496e-6
-1.152, 7.358e-6
-1.153, 7.950e-6
-1.154, 7.664e-6
-1.155, 7.703e-6
-1.156, 7.782e-6
-1.157, 7.713e-6
-1.158, 7.989e-6
-1.159, 7.851e-6
-1.160, 8.098e-6
-1.161, 8.226e-6
-1.162, 7.960e-6
-1.163, 8.424e-6
-1.164, 8.266e-6
-1.165, 8.374e-6
-1.166, 8.581e-6
-1.167, 8.581e-6
-1.168, 8.838e-6
-1.169, 8.483e-6
-1.170, 8.749e-6
-1.171, 8.789e-6
-1.172, 8.769e-6
-1.173, 9.262e-6
-1.174, 9.065e-6
-1.175, 9.213e-6
-1.176, 9.282e-6
-1.177, 9.144e-6
-1.178, 9.538e-6
-1.179, 9.479e-6
-1.180, 9.696e-6
-1.181, 9.805e-6
-1.182, 9.311e-6
-1.183, 9.736e-6
-1.184, 9.746e-6
-1.185, 9.874e-6
-1.186, 1.027e-5
-1.187, 9.973e-6
-1.188, 1.038e-5
-1.189, 1.034e-5
-1.190, 1.047e-5
-1.191, 1.061e-5
-1.192, 1.064e-5
-1.193, 1.099e-5
-1.194, 1.091e-5
-1.195, 1.094e-5
-1.196, 1.126e-5
-1.197, 1.113e-5
-1.198, 1.162e-5
-1.199, 1.140e-5
-1.200, 1.160e-5
-1.201, 1.195e-5
-1.202, 1.187e-5
-1.203, 1.238e-5
-1.204, 1.244e-5
-1.205, 1.263e-5
-1.206, 1.260e-5
-1.207, 1.234e-5
-1.208, 1.285e-5
-1.209, 1.294e-5
-1.210, 1.320e-5
-1.211, 1.324e-5
-1.212, 1.317e-5
-1.213, 1.364e-5
-1.214, 1.358e-5
-1.215, 1.345e-5
-1.216, 1.379e-5
-1.217, 1.384e-5
-1.218, 1.431e-5
-1.219, 1.450e-5
-1.220, 1.445e-5
-1.221, 1.484e-5
-1.222, 1.490e-5
-1.223, 1.522e-5
-1.224, 1.514e-5
-1.225, 1.532e-5
-1.226, 1.552e-5
-1.227, 1.541e-5
-1.228, 1.583e-5
-1.229, 1.623e-5
-1.230, 1.629e-5
-1.231, 1.637e-5
-1.232, 1.609e-5
-1.233, 1.657e-5
-1.234, 1.644e-5
-1.235, 1.702e-5
-1.236, 1.716e-5
-1.237, 1.711e-5
-1.238, 1.776e-5
-1.239, 1.771e-5
-1.240, 1.781e-5
-1.241, 1.797e-5
-1.242, 1.781e-5
-1.243, 1.840e-5
-1.244, 1.869e-5
-1.245, 1.901e-5
-1.246, 1.923e-5
-1.247, 1.888e-5
-1.248, 1.941e-5
-1.249, 1.974e-5
-1.250, 2.017e-5
-1.251, 2.047e-5
-1.252, 2.022e-5
-1.253, 2.027e-5
-1.254, 2.053e-5
-1.255, 2.102e-5
-1.256, 2.122e-5
-1.257, 2.118e-5
-1.258, 2.186e-5
-1.259, 2.187e-5
-1.260, 2.209e-5
-1.261, 2.230e-5
-1.262, 2.220e-5
-1.263, 2.288e-5
-1.264, 2.280e-5
-1.265, 2.325e-5
-1.266, 2.346e-5
-1.267, 2.333e-5
-1.268, 2.413e-5
-1.269, 2.386e-5
-1.270, 2.397e-5
-1.271, 2.444e-5
-1.272, 2.449e-5
-1.273, 2.475e-5
-1.274, 2.471e-5
-1.275, 2.493e-5
-1.276, 2.625e-5
-1.277, 2.637e-5
-1.278, 2.663e-5
-1.279, 2.692e-5
-1.280, 2.623e-5
-1.281, 2.667e-5
-1.282, 2.727e-5
-1.283, 2.663e-5
-1.284, 2.686e-5
-1.285, 2.762e-5
-1.286, 2.776e-5
-1.287, 2.794e-5
-1.288, 2.789e-5
-1.289, 2.788e-5
-1.290, 2.833e-5
-1.291, 2.846e-5
-1.292, 2.843e-5
-1.293, 2.922e-5
-1.294, 2.932e-5
-1.295, 2.978e-5
-1.296, 2.955e-5
-1.297, 2.996e-5
-1.298, 3.052e-5
-1.299, 3.063e-5
-1.300, 3.062e-5
-1.301, 3.093e-5
-1.302, 3.098e-5
-1.303, 3.200e-5
-1.304, 3.191e-5
-1.305, 3.243e-5
-1.306, 3.227e-5
-1.307, 3.231e-5
-1.308, 3.344e-5
-1.309, 3.316e-5
-1.310, 3.284e-5
-1.311, 3.276e-5
-1.312, 3.357e-5
-1.313, 3.408e-5
-1.314, 3.399e-5
-1.315, 3.430e-5
-1.316, 3.481e-5
-1.317, 3.486e-5
-1.318, 3.513e-5
-1.319, 3.564e-5
-1.320, 3.489e-5
-1.321, 3.555e-5
-1.322, 3.560e-5
-1.323, 3.631e-5
-1.324, 3.654e-5
-1.325, 3.693e-5
-1.326, 3.719e-5
-1.327, 3.632e-5
-1.328, 3.721e-5
-1.329, 3.783e-5
-1.330, 3.827e-5
-1.331, 3.878e-5
-1.332, 3.904e-5
-1.333, 4.054e-5
-1.334, 4.099e-5
-1.335, 4.094e-5
-1.336, 4.113e-5
-1.337, 4.005e-5
-1.338, 4.049e-5
-1.339, 4.126e-5
-1.340, 4.209e-5
-1.341, 4.317e-5
-1.342, 4.311e-5
-1.343, 4.364e-5
-1.344, 4.395e-5
-1.345, 4.409e-5
-1.346, 4.432e-5
-1.347, 4.419e-5
-1.348, 4.541e-5
-1.349, 4.529e-5
-1.350, 4.566e-5
-1.351, 4.625e-5
-1.352, 4.621e-5
-1.353, 4.650e-5
-1.354, 4.656e-5
-1.355, 4.709e-5
-1.356, 4.774e-5
-1.357, 4.840e-5
-1.358, 4.887e-5
-1.359, 4.918e-5
-1.360, 4.948e-5
-1.361, 5.014e-5
-1.362, 5.062e-5
-1.363, 5.075e-5
-1.364, 5.118e-5
-1.365, 5.128e-5
-1.366, 5.157e-5
-1.367, 5.236e-5
-1.368, 5.292e-5
-1.369, 5.336e-5
-1.370, 5.377e-5
-1.371, 5.482e-5
-1.372, 5.526e-5
-1.373, 5.542e-5
-1.374, 5.525e-5
-1.375, 5.590e-5
-1.376, 5.622e-5
-1.377, 5.598e-5
-1.378, 5.653e-5
-1.379, 5.699e-5
-1.380, 5.718e-5
-1.381, 5.799e-5
-1.382, 5.811e-5
-1.383, 5.915e-5
-1.384, 5.784e-5
-1.385, 5.704e-5
-1.386, 5.839e-5
-1.387, 5.782e-5
-1.388, 5.926e-5
-1.389, 5.917e-5
-1.390, 5.948e-5
-1.391, 6.069e-5
-1.392, 6.133e-5
-1.393, 6.236e-5
-1.394, 6.296e-5
-1.395, 6.363e-5
-1.396, 6.992e-5
-1.397, 6.716e-5
-1.398, 6.800e-5
-1.399, 6.823e-5
-1.400, 6.909e-5
-1.401, 6.957e-5
-1.402, 6.984e-5
-1.403, 7.028e-5
-1.404, 7.094e-5
-1.405, 7.133e-5
-1.406, 7.138e-5
-1.407, 7.256e-5
-1.408, 7.394e-5
-1.409, 7.454e-5
-1.410, 7.500e-5
-1.411, 7.536e-5
-1.412, 7.478e-5
-1.413, 8.114e-5
-1.414, 7.722e-5
-1.415, 7.771e-5
-1.416, 7.915e-5
-1.417, 7.842e-5
-1.418, 7.950e-5
-1.419, 7.850e-5
-1.420, 7.825e-5
-1.421, 7.827e-5
-1.422, 7.886e-5
-1.423, 7.997e-5
-1.424, 8.080e-5
-1.425, 8.092e-5
-1.426, 8.184e-5
-1.427, 8.223e-5
-1.428, 8.107e-5
-1.429, 8.173e-5
-1.430, 8.299e-5
-1.431, 8.421e-5
-1.432, 8.459e-5
-1.433, 8.557e-5
-1.434, 8.660e-5
-1.435, 8.671e-5
-1.436, 8.734e-5
-1.437, 8.850e-5
-1.438, 8.947e-5
-1.439, 8.872e-5
-1.440, 8.919e-5
-1.441, 9.052e-5
-1.442, 9.102e-5
-1.443, 9.219e-5
-1.444, 9.312e-5
-1.445, 9.421e-5
-1.446, 9.553e-5
-1.447, 9.614e-5
-1.448, 9.727e-5
-1.449, 9.685e-5
-1.450, 9.765e-5
-1.451, 9.887e-5
-1.452, 1.002e-4
-1.453, 1.020e-4
-1.454, 1.027e-4
-1.455, 1.032e-4
-1.456, 1.044e-4
-1.457, 1.041e-4
-1.458, 1.046e-4
-1.459, 1.059e-4
-1.460, 1.069e-4
-1.461, 1.085e-4
-1.462, 1.082e-4
-1.463, 1.083e-4
-1.464, 1.089e-4
-1.465, 1.100e-4
-1.466, 1.106e-4
-1.467, 1.138e-4
-1.468, 1.126e-4
-1.469, 1.135e-4
-1.470, 1.135e-4
-1.471, 1.144e-4
-1.472, 1.135e-4
-1.473, 1.150e-4
-1.474, 1.163e-4
-1.475, 1.161e-4
-1.476, 1.174e-4
-1.477, 1.194e-4
-1.478, 1.215e-4
-1.479, 1.221e-4
-1.480, 1.244e-4
-1.481, 1.252e-4
-1.482, 1.260e-4
-1.483, 1.266e-4
-1.484, 1.272e-4
-1.485, 1.288e-4
-1.486, 1.304e-4
-1.487, 1.298e-4
-1.488, 1.329e-4
-1.489, 1.342e-4
-1.490, 1.351e-4
-1.491, 1.353e-4
-1.492, 1.366e-4
-1.493, 1.391e-4
-1.494, 1.402e-4
-1.495, 1.441e-4
-1.496, 1.441e-4
-1.497, 1.445e-4
-1.498, 1.458e-4
-1.499, 1.446e-4
-1.500, 1.480e-4
-1.501, 1.482e-4
-1.502, 1.499e-4
-1.503, 1.521e-4
-1.504, 1.554e-4
-1.505, 1.559e-4
-1.506, 1.556e-4
-1.507, 1.562e-4
-1.508, 1.585e-4
-1.509, 1.575e-4
-1.510, 1.606e-4
-1.511, 1.621e-4
-1.512, 1.619e-4
-1.513, 1.646e-4
-1.514, 1.677e-4
-1.515, 1.697e-4
-1.516, 1.713e-4
-1.517, 1.734e-4
-1.518, 1.712e-4
-1.519, 1.762e-4
-1.520, 1.783e-4
-1.521, 1.794e-4
-1.522, 1.790e-4
-1.523, 1.808e-4
-1.524, 1.844e-4
-1.525, 1.857e-4
-1.526, 1.851e-4
-1.527, 1.866e-4
-1.528, 1.848e-4
-1.529, 1.884e-4
-1.530, 1.905e-4
-1.531, 1.930e-4
-1.532, 1.944e-4
-1.533, 1.999e-4
-1.534, 2.011e-4
-1.535, 1.981e-4
-1.536, 2.038e-4
-1.537, 2.046e-4
-1.538, 2.075e-4
-1.539, 2.089e-4
-1.540, 2.094e-4
-1.541, 2.106e-4
-1.542, 2.104e-4
-1.543, 2.158e-4
-1.544, 2.166e-4
-1.545, 2.217e-4
-1.546, 2.236e-4
-1.547, 2.244e-4
-1.548, 2.261e-4
-1.549, 2.270e-4
-1.550, 2.322e-4
-1.551, 2.344e-4
-1.552, 2.377e-4
-1.553, 2.388e-4
-1.554, 2.396e-4
-1.555, 2.553e-4
-1.556, 2.543e-4
-1.557, 2.501e-4
-1.558, 2.524e-4
-1.559, 2.557e-4
-1.560, 2.559e-4
-1.561, 2.562e-4
-1.562, 2.632e-4
-1.563, 2.695e-4
-1.564, 2.651e-4
-1.565, 2.706e-4
-1.566, 2.697e-4
-1.567, 2.717e-4
-1.568, 2.734e-4
-1.569, 2.778e-4
-1.570, 2.850e-4
-1.571, 2.880e-4
-1.572, 2.857e-4
-1.573, 2.921e-4
-1.574, 2.906e-4
-1.575, 2.960e-4
-1.576, 2.978e-4
-1.577, 2.982e-4
-1.578, 3.028e-4
-1.579, 3.066e-4
-1.580, 3.158e-4
-1.581, 3.113e-4
-1.582, 3.161e-4
-1.583, 3.254e-4
-1.584, 3.271e-4
-1.585, 3.239e-4
-1.586, 3.309e-4
-1.587, 3.280e-4
-1.588, 3.299e-4
-1.589, 3.342e-4
-1.590, 3.354e-4
-1.591, 3.400e-4
-1.592, 3.414e-4
-1.593, 3.452e-4
-1.594, 3.462e-4
-1.595, 3.486e-4
-1.596, 3.508e-4
-1.597, 3.579e-4
-1.598, 3.632e-4
-1.599, 3.647e-4
-1.600, 3.694e-4
-1.601, 3.737e-4
-1.602, 3.789e-4
-1.603, 3.841e-4
-1.604, 3.873e-4
-1.605, 3.890e-4
-1.606, 3.953e-4
-1.607, 3.975e-4
-1.608, 4.017e-4
-1.609, 4.030e-4
-1.610, 4.121e-4
-1.611, 4.170e-4
-1.612, 4.227e-4
-1.613, 4.296e-4
-1.614, 4.360e-4
-1.615, 4.297e-4
-1.616, 4.338e-4
-1.617, 4.403e-4
-1.618, 4.467e-4
-1.619, 4.513e-4
-1.620, 4.596e-4
-1.621, 4.619e-4
-1.622, 4.633e-4
-1.623, 4.681e-4
-1.624, 4.752e-4
-1.625, 4.794e-4
-1.626, 4.827e-4
-1.627, 4.832e-4
-1.628, 4.959e-4
-1.629, 5.009e-4
-1.630, 5.058e-4
-1.631, 5.099e-4
-1.632, 5.230e-4
-1.633, 5.271e-4
-1.634, 5.329e-4
-1.635, 5.373e-4
-1.636, 5.435e-4
-1.637, 5.463e-4
-1.638, 5.555e-4
-1.639, 5.655e-4
-1.640, 5.698e-4
-1.641, 5.746e-4
-1.642, 5.766e-4
-1.643, 5.839e-4
-1.644, 5.892e-4
-1.645, 5.972e-4
-1.646, 6.037e-4
-1.647, 6.121e-4
-1.648, 6.196e-4
-1.649, 6.242e-4
-1.650, 6.324e-4
-1.651, 6.415e-4
-1.652, 6.516e-4
-1.653, 6.632e-4
-1.654, 6.692e-4
-1.655, 6.729e-4
-1.656, 6.793e-4
-1.657, 6.927e-4
-1.658, 7.036e-4
-1.659, 7.026e-4
-1.660, 7.153e-4
-1.661, 7.222e-4
-1.662, 7.309e-4
-1.663, 7.432e-4
-1.664, 7.500e-4
-1.665, 7.582e-4
-1.666, 7.734e-4
-1.667, 7.846e-4
-1.668, 7.928e-4
-1.669, 8.022e-4
-1.670, 8.204e-4
-1.671, 8.307e-4
-1.672, 8.426e-4
-1.673, 8.550e-4
-1.674, 8.669e-4
-1.675, 8.826e-4
-1.676, 8.961e-4
-1.677, 9.129e-4
-1.678, 9.233e-4
-1.679, 9.163e-4
-1.680, 9.335e-4
-1.681, 9.506e-4
-1.682, 9.626e-4
-1.683, 9.727e-4
-1.684, 9.819e-4
-1.685, 9.945e-4
-1.686, 1.011e-3
-1.687, 1.030e-3
-1.688, 1.040e-3
-1.689, 1.046e-3
-1.690, 1.065e-3
-1.691, 1.079e-3
-1.692, 1.091e-3
-1.693, 1.100e-3
-1.694, 1.118e-3
-1.695, 1.134e-3
-1.696, 1.134e-3
-1.697, 1.157e-3
-1.698, 1.175e-3
-1.699, 1.187e-3
-1.700, 1.203e-3
-1.701, 1.216e-3
-1.702, 1.236e-3
-1.703, 1.253e-3
-1.704, 1.258e-3
-1.705, 1.274e-3
-1.706, 1.292e-3
-1.707, 1.299e-3
-1.708, 1.324e-3
-1.709, 1.345e-3
-1.710, 1.348e-3
-1.711, 1.361e-3
-1.712, 1.378e-3
-1.713, 1.406e-3
-1.714, 1.417e-3
-1.715, 1.434e-3
-1.716, 1.447e-3
-1.717, 1.466e-3
-1.718, 1.485e-3
-1.719, 1.504e-3
-1.720, 1.527e-3
-1.721, 1.532e-3
-1.722, 1.544e-3
-1.723, 1.561e-3
-1.724, 1.583e-3
-1.725, 1.602e-3
-1.726, 1.620e-3
-1.727, 1.641e-3
-1.728, 1.651e-3
-1.729, 1.683e-3
-1.730, 1.700e-3
-1.731, 1.718e-3
-1.732, 1.720e-3
-1.733, 1.736e-3
-1.734, 1.752e-3
-1.735, 1.774e-3
-1.736, 1.798e-3
-1.737, 1.811e-3
-1.738, 1.835e-3
-1.739, 1.854e-3
-1.740, 1.867e-3
-1.741, 1.880e-3
-1.742, 1.908e-3
-1.743, 1.933e-3
-1.744, 1.959e-3
-1.745, 1.995e-3
-1.746, 1.988e-3
-1.747, 2.011e-3
-1.748, 2.025e-3
-1.749, 2.048e-3
-1.750, 2.057e-3
-1.751, 2.078e-3
-1.752, 2.106e-3
-1.753, 2.137e-3
-1.754, 2.153e-3
-1.755, 2.174e-3
-1.756, 2.211e-3
-1.757, 2.230e-3
-1.758, 2.261e-3
-1.759, 2.268e-3
-1.760, 2.295e-3
-1.761, 2.312e-3
-1.762, 2.320e-3
-1.763, 2.363e-3
-1.764, 2.374e-3
-1.765, 2.419e-3
-1.766, 2.429e-3
-1.767, 2.443e-3
-1.768, 2.485e-3
-1.769, 2.515e-3
-1.770, 2.522e-3
-1.771, 2.538e-3
-1.772, 2.559e-3
-1.773, 2.585e-3
-1.774, 2.609e-3
-1.775, 2.629e-3
-1.776, 2.651e-3
-1.777, 2.685e-3
-1.778, 2.725e-3
-1.779, 2.743e-3
-1.780, 2.773e-3
-1.781, 2.809e-3
-1.782, 2.829e-3
-1.783, 2.862e-3
-1.784, 2.897e-3
-1.785, 2.927e-3
-1.786, 2.948e-3
-1.787, 2.991e-3
-1.788, 3.017e-3
-1.789, 3.016e-3
-1.790, 3.044e-3
-1.791, 3.092e-3
-1.792, 3.121e-3
-1.793, 3.176e-3
-1.794, 3.200e-3
-1.795, 3.224e-3
-1.796, 3.262e-3
-1.797, 3.288e-3
-1.798, 3.332e-3
-1.799, 3.370e-3
-1.800, 3.372e-3
-1.799, 3.360e-3
-1.798, 3.327e-3
-1.797, 3.318e-3
-1.796, 3.290e-3
-1.795, 3.265e-3
-1.794, 3.243e-3
-1.793, 3.199e-3
-1.792, 3.194e-3
-1.791, 3.163e-3
-1.790, 3.152e-3
-1.789, 3.161e-3
-1.788, 3.118e-3
-1.787, 3.117e-3
-1.786, 3.082e-3
-1.785, 3.048e-3
-1.784, 3.026e-3
-1.783, 3.004e-3
-1.782, 2.973e-3
-1.781, 2.959e-3
-1.780, 2.933e-3
-1.779, 2.896e-3
-1.778, 2.867e-3
-1.777, 2.838e-3
-1.776, 2.812e-3
-1.775, 2.796e-3
-1.774, 2.764e-3
-1.773, 2.741e-3
-1.772, 2.740e-3
-1.771, 2.708e-3
-1.770, 2.689e-3
-1.769, 2.672e-3
-1.768, 2.645e-3
-1.767, 2.613e-3
-1.766, 2.592e-3
-1.765, 2.568e-3
-1.764, 2.542e-3
-1.763, 2.509e-3
-1.762, 2.492e-3
-1.761, 2.477e-3
-1.760, 2.447e-3
-1.759, 2.417e-3
-1.758, 2.407e-3
-1.757, 2.376e-3
-1.756, 2.355e-3
-1.755, 2.339e-3
-1.754, 2.323e-3
-1.753, 2.316e-3
-1.752, 2.298e-3
-1.751, 2.262e-3
-1.750, 2.237e-3
-1.749, 2.224e-3
-1.748, 2.198e-3
-1.747, 2.171e-3
-1.746, 2.158e-3
-1.745, 2.127e-3
-1.744, 2.109e-3
-1.743, 2.084e-3
-1.742, 2.071e-3
-1.741, 2.047e-3
-1.740, 2.017e-3
-1.739, 2.006e-3
-1.738, 1.979e-3
-1.737, 1.961e-3
-1.736, 1.929e-3
-1.735, 1.909e-3
-1.734, 1.880e-3
-1.733, 1.862e-3
-1.732, 1.844e-3
-1.731, 1.822e-3
-1.730, 1.818e-3
-1.729, 1.801e-3
-1.728, 1.784e-3
-1.727, 1.775e-3
-1.726, 1.752e-3
-1.725, 1.737e-3
-1.724, 1.715e-3
-1.723, 1.703e-3
-1.722, 1.675e-3
-1.721, 1.652e-3
-1.720, 1.629e-3
-1.719, 1.621e-3
-1.718, 1.592e-3
-1.717, 1.583e-3
-1.716, 1.562e-3
-1.715, 1.557e-3
-1.714, 1.526e-3
-1.713, 1.515e-3
-1.712, 1.492e-3
-1.711, 1.475e-3
-1.710, 1.458e-3
-1.709, 1.452e-3
-1.708, 1.432e-3
-1.707, 1.415e-3
-1.706, 1.391e-3
-1.705, 1.374e-3
-1.704, 1.359e-3
-1.703, 1.345e-3
-1.702, 1.333e-3
-1.701, 1.321e-3
-1.700, 1.300e-3
-1.699, 1.291e-3
-1.698, 1.275e-3
-1.697, 1.255e-3
-1.696, 1.233e-3
-1.695, 1.222e-3
-1.694, 1.208e-3
-1.693, 1.186e-3
-1.692, 1.180e-3
-1.691, 1.159e-3
-1.690, 1.148e-3
-1.689, 1.130e-3
-1.688, 1.125e-3
-1.687, 1.108e-3
-1.686, 1.090e-3
-1.685, 1.078e-3
-1.684, 1.066e-3
-1.683, 1.053e-3
-1.682, 1.048e-3
-1.681, 1.036e-3
-1.680, 1.012e-3
-1.679, 9.942e-4
-1.678, 9.815e-4
-1.677, 9.699e-4
-1.676, 9.611e-4
-1.675, 9.397e-4
-1.674, 9.353e-4
-1.673, 9.220e-4
-1.672, 9.094e-4
-1.671, 8.948e-4
-1.670, 8.844e-4
-1.669, 8.662e-4
-1.668, 8.435e-4
-1.667, 8.441e-4
-1.666, 8.314e-4
-1.665, 8.221e-4
-1.664, 8.058e-4
-1.663, 7.970e-4
-1.662, 7.927e-4
-1.661, 7.946e-4
-1.660, 7.844e-4
-1.659, 7.645e-4
-1.658, 7.551e-4
-1.657, 7.510e-4
-1.656, 7.485e-4
-1.655, 7.319e-4
-1.654, 7.136e-4
-1.653, 7.036e-4
-1.652, 6.895e-4
-1.651, 6.796e-4
-1.650, 6.765e-4
-1.649, 6.656e-4
-1.648, 6.549e-4
-1.647, 6.482e-4
-1.646, 6.421e-4
-1.645, 6.263e-4
-1.644, 6.207e-4
-1.643, 6.140e-4
-1.642, 5.972e-4
-1.641, 5.935e-4
-1.640, 5.867e-4
-1.639, 5.714e-4
-1.638, 5.719e-4
-1.637, 5.610e-4
-1.636, 5.537e-4
-1.635, 5.431e-4
-1.634, 5.405e-4
-1.633, 5.339e-4
-1.632, 5.260e-4
-1.631, 5.150e-4
-1.630, 4.975e-4
-1.629, 4.999e-4
-1.628, 4.867e-4
-1.627, 4.805e-4
-1.626, 4.761e-4
-1.625, 4.693e-4
-1.624, 4.600e-4
-1.623, 4.516e-4
-1.622, 4.442e-4
-1.621, 4.407e-4
-1.620, 4.331e-4
-1.619, 4.310e-4
-1.618, 4.253e-4
-1.617, 4.154e-4
-1.616, 4.124e-4
-1.615, 4.053e-4
-1.614, 4.037e-4
-1.613, 3.993e-4
-1.612, 3.798e-4
-1.611, 3.792e-4
-1.610, 3.800e-4
-1.609, 3.731e-4
-1.608, 3.695e-4
-1.607, 3.608e-4
-1.606, 3.597e-4
-1.605, 3.449e-4
-1.604, 3.324e-4
-1.603, 3.351e-4
-1.602, 3.314e-4
-1.601, 3.252e-4
-1.600, 3.231e-4
-1.599, 3.129e-4
-1.598, 3.116e-4
-1.597, 3.055e-4
-1.596, 2.990e-4
-1.595, 2.932e-4
-1.594, 2.925e-4
-1.593, 2.871e-4
-1.592, 2.773e-4
-1.591, 2.739e-4
-1.590, 2.720e-4
-1.589, 2.663e-4
-1.588, 2.600e-4
-1.587, 2.548e-4
-1.586, 2.570e-4
-1.585, 2.550e-4
-1.584, 2.503e-4
-1.583, 2.423e-4
-1.582, 2.400e-4
-1.581, 2.374e-4
-1.580, 2.345e-4
-1.579, 2.272e-4
-1.578, 2.200e-4
-1.577, 2.174e-4
-1.576, 2.159e-4
-1.575, 2.142e-4
-1.574, 2.130e-4
-1.573, 2.109e-4
-1.572, 2.085e-4
-1.571, 2.082e-4
-1.570, 2.020e-4
-1.569, 1.944e-4
-1.568, 1.963e-4
-1.567, 1.943e-4
-1.566, 1.889e-4
-1.565, 1.831e-4
-1.564, 1.785e-4
-1.563, 1.727e-4
-1.562, 1.751e-4
-1.561, 1.751e-4
-1.560, 1.715e-4
-1.559, 1.703e-4
-1.558, 1.636e-4
-1.557, 1.613e-4
-1.556, 1.585e-4
-1.555, 1.535e-4
-1.554, 1.525e-4
-1.553, 1.516e-4
-1.552, 1.498e-4
-1.551, 1.493e-4
-1.550, 1.401e-4
-1.549, 1.377e-4
-1.548, 1.391e-4
-1.547, 1.378e-4
-1.546, 1.317e-4
-1.545, 1.321e-4
-1.544, 1.290e-4
-1.543, 1.274e-4
-1.542, 1.278e-4
-1.541, 1.264e-4
-1.540, 1.256e-4
-1.539, 1.241e-4
-1.538, 1.220e-4
-1.537, 1.188e-4
-1.536, 1.171e-4
-1.535, 1.150e-4
-1.534, 1.115e-4
-1.533, 1.111e-4
-1.532, 1.101e-4
-1.531, 1.109e-4
-1.530, 1.083e-4
-1.529, 1.090e-4
-1.528, 1.057e-4
-1.527, 1.046e-4
-1.526, 1.030e-4
-1.525, 1.038e-4
-1.524, 1.013e-4
-1.523, 9.871e-5
-1.522, 9.975e-5
-1.521, 9.411e-5
-1.520, 9.347e-5
-1.519, 9.348e-5
-1.518, 9.092e-5
-1.517, 8.765e-5
-1.516, 9.057e-5
-1.515, 8.823e-5
-1.514, 8.717e-5
-1.513, 9.044e-5
-1.512, 8.660e-5
-1.511, 8.523e-5
-1.510, 8.451e-5
-1.509, 8.251e-5
-1.508, 7.965e-5
-1.507, 8.036e-5
-1.506, 8.098e-5
-1.505, 8.099e-5
-1.504, 7.695e-5
-1.503, 7.389e-5
-1.502, 7.142e-5
-1.501, 6.980e-5
-1.500, 6.809e-5
-1.499, 7.162e-5
-1.498, 6.999e-5
-1.497, 7.127e-5
-1.496, 7.111e-5
-1.495, 7.047e-5
-1.494, 6.866e-5
-1.493, 6.892e-5
-1.492, 6.715e-5
-1.491, 6.787e-5
-1.490, 6.408e-5
-1.489, 6.277e-5
-1.488, 6.194e-5
-1.487, 6.006e-5
-1.486, 5.959e-5
-1.485, 5.908e-5
-1.484, 5.791e-5
-1.483, 5.840e-5
-1.482, 5.860e-5
-1.481, 5.754e-5
-1.480, 5.658e-5
-1.479, 6.085e-5
-1.478, 5.785e-5
-1.477, 5.608e-5
-1.476, 5.517e-5
-1.475, 5.721e-5
-1.474, 5.572e-5
-1.473, 5.445e-5
-1.472, 5.448e-5
-1.471, 5.275e-5
-1.470, 4.993e-5
-1.469, 4.928e-5
-1.468, 4.893e-5
-1.467, 4.889e-5
-1.466, 4.859e-5
-1.465, 4.729e-5
-1.464, 4.527e-5
-1.463, 4.499e-5
-1.462, 4.543e-5
-1.461, 4.477e-5
-1.460, 4.366e-5
-1.459, 4.692e-5
-1.458, 4.669e-5
-1.457, 4.441e-5
-1.456, 4.442e-5
-1.455, 4.345e-5
-1.454, 4.349e-5
-1.453, 4.260e-5
-1.452, 4.206e-5
-1.451, 4.019e-5
-1.450, 4.066e-5
-1.449, 3.900e-5
-1.448, 3.766e-5
-1.447, 3.903e-5
-1.446, 3.849e-5
-1.445, 3.750e-5
-1.444, 3.759e-5
-1.443, 3.701e-5
-1.442, 3.628e-5
-1.441, 3.635e-5
-1.440, 3.628e-5
-1.439, 3.694e-5
-1.438, 3.702e-5
-1.437, 3.616e-5
-1.436, 3.411e-5
-1.435, 3.410e-5
-1.434, 3.500e-5
-1.433, 3.482e-5
-1.432, 3.480e-5
-1.431, 3.284e-5
-1.430, 3.210e-5
-1.429, 3.150e-5
-1.428, 3.076e-5
-1.427, 3.112e-5
-1.426, 3.101e-5
-1.425, 3.111e-5
-1.424, 3.061e-5
-1.423, 3.004e-5
-1.422, 2.879e-5
-1.421, 2.754e-5
-1.420, 2.733e-5
-1.419, 2.804e-5
-1.418, 2.806e-5
-1.417, 2.817e-5
-1.416, 2.784e-5
-1.415, 2.755e-5
-1.414, 2.777e-5
-1.413, 2.712e-5
-1.412, 2.766e-5
-1.411, 2.630e-5
-1.410, 2.505e-5
-1.409, 2.347e-5
-1.408, 2.130e-5
-1.407, 2.074e-5
-1.406, 1.991e-5
-1.405, 2.012e-5
-1.404, 2.067e-5
-1.403, 1.905e-5
-1.402, 2.010e-5
-1.401, 2.050e-5
-1.400, 2.059e-5
-1.399, 2.080e-5
-1.398, 2.057e-5
-1.397, 2.142e-5
-1.396, 2.069e-5
-1.395, 2.014e-5
-1.394, 1.996e-5
-1.393, 1.921e-5
-1.392, 2.033e-5
-1.391, 2.045e-5
-1.390, 1.957e-5
-1.389, 1.986e-5
-1.388, 1.784e-5
-1.387, 1.699e-5
-1.386, 1.691e-5
-1.385, 1.658e-5
-1.384, 1.669e-5
-1.383, 1.539e-5
-1.382, 1.546e-5
-1.381, 1.513e-5
-1.380, 1.424e-5
-1.379, 1.469e-5
-1.378, 1.429e-5
-1.377, 1.407e-5
-1.376, 1.425e-5
-1.375, 1.421e-5
-1.374, 1.423e-5
-1.373, 1.401e-5
-1.372, 1.419e-5
-1.371, 1.434e-5
-1.370, 1.402e-5
-1.369, 1.356e-5
-1.368, 1.317e-5
-1.367, 1.325e-5
-1.366, 1.299e-5
-1.365, 1.290e-5
-1.364, 1.266e-5
-1.363, 1.220e-5
-1.362, 1.195e-5
-1.361, 9.973e-6
-1.360, 9.647e-6
-1.359, 1.004e-5
-1.358, 9.341e-6
-1.357, 9.104e-6
-1.356, 8.572e-6
-1.355, 8.680e-6
-1.354, 8.798e-6
-1.353, 8.858e-6
-1.352, 8.473e-6
-1.351, 8.345e-6
-1.350, 7.930e-6
-1.349, 8.216e-6
-1.348, 8.216e-6
-1.347, 8.650e-6
-1.346, 8.769e-6
-1.345, 8.739e-6
-1.344, 8.937e-6
-1.343, 8.759e-6
-1.342, 8.621e-6
-1.341, 8.601e-6
-1.340, 8.039e-6
-1.339, 8.325e-6
-1.338, 7.812e-6
-1.337, 7.930e-6
-1.336, 7.911e-6
-1.335, 7.180e-6
-1.334, 7.161e-6
-1.333, 7.131e-6
-1.332, 7.447e-6
-1.331, 6.825e-6
-1.330, 5.316e-6
-1.329, 5.257e-6
-1.328, 5.059e-6
-1.327, 5.109e-6
-1.326, 5.089e-6
-1.325, 4.724e-6
-1.324, 4.901e-6
-1.323, 4.665e-6
-1.322, 4.842e-6
-1.321, 4.605e-6
-1.320, 4.221e-6
-1.319, 4.270e-6
-1.318, 4.102e-6
-1.317, 4.122e-6
-1.316, 4.191e-6
-1.315, 3.905e-6
-1.314, 4.112e-6
-1.313, 3.708e-6
-1.312, 3.708e-6
-1.311, 3.737e-6
-1.310, 3.382e-6
-1.309, 3.648e-6
-1.308, 3.185e-6
-1.307, 3.362e-6
-1.306, 3.264e-6
-1.305, 2.879e-6
-1.304, 3.027e-6
-1.303, 2.741e-6
-1.302, 2.928e-6
-1.301, 3.037e-6
-1.300, 2.701e-6
-1.299, 2.760e-6
-1.298, 2.386e-6
-1.297, 2.405e-6
-1.296, 2.376e-6
-1.295, 2.149e-6
-1.294, 2.277e-6
-1.293, 1.803e-6
-1.292, 1.784e-6
-1.291, 1.636e-6
-1.290, 1.429e-6
-1.289, 1.596e-6
-1.288, 1.310e-6
-1.287, 1.221e-6
-1.286, 9.353e-7
-1.285, 7.774e-7
-1.284, 8.268e-7
-1.283, 5.900e-7
-1.282, 4.815e-7
-1.281, 5.012e-7
-1.280, 7.893e-9
-1.279, 2.940e-7
-1.278, 3.749e-8
-1.277, 1.362e-7
-1.276, 7.893e-9
-1.275, -2.980e-7
-1.274, -1.993e-7
-1.273, -3.078e-7
-1.272, -3.867e-7
-1.271, -3.275e-7
-1.270, -5.841e-7
-1.269, -3.275e-7
-1.268, -6.630e-7
-1.267, -4.953e-7
-1.266, -6.137e-7
-1.265, -7.814e-7
-1.264, -5.051e-7
-1.263, -6.827e-7
-1.262, -8.307e-7
-1.261, -9.096e-7
-1.260, -1.107e-6
-1.259, -1.077e-6
-1.258, -1.324e-6
-1.257, -1.255e-6
-1.256, -1.235e-6
-1.255, -1.689e-6
-1.254, -1.551e-6
-1.253, -1.738e-6
-1.252, -1.650e-6
-1.251, -1.817e-6
-1.250, -2.034e-6
-1.249, -1.847e-6
-1.248, -1.965e-6
-1.247, -2.084e-6
-1.246, -2.153e-6
-1.245, -2.232e-6
-1.244, -2.054e-6
-1.243, -2.390e-6
-1.242, -2.301e-6
-1.241, -2.311e-6
-1.240, -2.459e-6
-1.239, -2.518e-6
-1.238, -2.616e-6
-1.237, -2.538e-6
-1.236, -2.686e-6
-1.235, -2.853e-6
-1.234, -2.705e-6
-1.233, -2.893e-6
-1.232, -2.893e-6
-1.231, -2.824e-6
-1.230, -3.277e-6
-1.229, -3.110e-6
-1.228, -3.504e-6
-1.227, -3.416e-6
-1.226, -3.514e-6
-1.225, -3.564e-6
-1.224, -3.544e-6
-1.223, -3.613e-6
-1.222, -3.623e-6
-1.221, -3.731e-6
-1.220, -3.781e-6
-1.219, -3.208e-6
-1.218, -3.741e-6
-1.217, -3.692e-6
-1.216, -3.613e-6
-1.215, -3.958e-6
-1.214, -3.702e-6
-1.213, -3.820e-6
-1.212, -3.810e-6
-1.211, -3.860e-6
-1.210, -4.146e-6
-1.209, -3.879e-6
-1.208, -3.909e-6
-1.207, -4.116e-6
-1.206, -3.790e-6
-1.205, -4.343e-6
-1.204, -4.077e-6
-1.203, -4.313e-6
-1.202, -4.234e-6
-1.201, -4.304e-6
-1.200, -4.422e-6
-1.199, -4.343e-6
-1.198, -4.471e-6
-1.197, -4.461e-6
-1.196, -4.481e-6
-1.195, -4.836e-6
-1.194, -4.461e-6
-1.193, -4.669e-6
-1.192, -4.777e-6
-1.191, -4.817e-6
-1.190, -5.014e-6
-1.189, -4.757e-6
-1.188, -5.241e-6
-1.187, -5.053e-6
-1.186, -4.965e-6
-1.185, -5.330e-6
-1.184, -4.984e-6
-1.183, -5.270e-6
-1.182, -5.280e-6
-1.181, -5.369e-6
-1.180, -5.754e-6
-1.179, -5.764e-6
-1.178, -5.852e-6
-1.177, -5.764e-6
-1.176, -5.635e-6
-1.175, -6.306e-6
-1.174, -5.882e-6
-1.173, -5.951e-6
-1.172, -6.119e-6
-1.171, -6.277e-6
-1.170, -6.652e-6
-1.169, -6.504e-6
-1.168, -6.809e-6
-1.167, -7.007e-6
-1.166, -6.908e-6
-1.165, -7.244e-6
-1.164, -6.760e-6
-1.163, -6.671e-6
-1.162, -6.681e-6
-1.161, -6.918e-6
-1.160, -7.145e-6
-1.159, -6.977e-6
-1.158, -7.273e-6
-1.157, -7.470e-6
-1.156, -7.451e-6
-1.155, -7.609e-6
-1.154, -7.342e-6
-1.153, -7.589e-6
-1.152, -7.757e-6
-1.151, -7.885e-6
-1.150, -8.033e-6
-1.149, -7.648e-6
-1.148, -7.737e-6
-1.147, -7.836e-6
-1.146, -7.816e-6
-1.145, -7.984e-6
-1.144, -7.638e-6
-1.143, -7.934e-6
-1.142, -7.944e-6
-1.141, -7.944e-6
-1.140, -8.181e-6
-1.139, -8.309e-6
-1.138, -8.418e-6
-1.137, -8.467e-6
-1.136, -8.585e-6
-1.135, -8.753e-6
-1.134, -8.645e-6
-1.133, -8.763e-6
-1.132, -8.891e-6
-1.131, -8.832e-6
-1.130, -9.098e-6
-1.129, -8.812e-6
-1.128, -9.296e-6
-1.127, -9.414e-6
-1.126, -9.602e-6
-1.125, -9.631e-6
-1.124, -9.404e-6
-1.123, -9.680e-6
-1.122, -9.592e-6
-1.121, -9.523e-6
-1.120, -9.631e-6
-1.119, -9.167e-6
-1.118, -9.661e-6
-1.117, -9.503e-6
-1.116, -1.015e-5
-1.115, -1.018e-5
-1.114, -9.957e-6
-1.113, -1.045e-5
-1.112, -1.043e-5
-1.111, -1.051e-5
-1.110, -1.104e-5
-1.109, -1.064e-5
-1.108, -1.102e-5
-1.107, -1.129e-5
-1.106, -1.130e-5
-1.105, -1.163e-5
-1.104, -1.137e-5
-1.103, -1.170e-5
-1.102, -1.149e-5
-1.101, -1.177e-5
-1.100, -1.213e-5
-1.099, -1.166e-5
-1.098, -1.243e-5
-1.097, -1.234e-5
-1.096, -1.271e-5
-1.095, -1.384e-5
-1.094, -1.298e-5
-1.093, -1.357e-5
-1.092, -1.323e-5
-1.091, -1.405e-5
-1.090, -1.414e-5
-1.089, -1.394e-5
-1.088, -1.435e-5
-1.087, -1.413e-5
-1.086, -1.397e-5
-1.085, -1.452e-5
-1.084, -1.442e-5
-1.083, -1.473e-5
-1.082, -1.478e-5
-1.081, -1.445e-5
-1.080, -1.506e-5
-1.079, -1.470e-5
-1.078, -1.530e-5
-1.077, -1.513e-5
-1.076, -1.529e-5
-1.075, -1.581e-5
-1.074, -1.557e-5
-1.073, -1.570e-5
-1.072, -1.579e-5
-1.071, -1.589e-5
-1.070, -1.620e-5
-1.069, -1.594e-5
-1.068, -1.637e-5
-1.067, -1.658e-5
-1.066, -1.639e-5
-1.065, -1.692e-5
-1.064, -1.671e-5
-1.063, -1.706e-5
-1.062, -1.698e-5
-1.061, -1.717e-5
-1.060, -1.753e-5
-1.059, -1.742e-5
-1.058, -1.789e-5
-1.057, -1.836e-5
-1.056, -1.824e-5
-1.055, -1.875e-5
-1.054, -1.855e-5
-1.053, -1.887e-5
-1.052, -1.872e-5
-1.051, -1.887e-5
-1.050, -1.947e-5
-1.049, -1.887e-5
-1.048, -1.945e-5
-1.047, -1.967e-5
-1.046, -1.998e-5
-1.045, -2.029e-5
-1.044, -2.026e-5
-1.043, -2.057e-5
-1.042, -2.055e-5
-1.041, -2.060e-5
-1.040, -2.105e-5
-1.039, -2.098e-5
-1.038, -2.127e-5
-1.037, -2.099e-5
-1.036, -2.136e-5
-1.035, -2.178e-5
-1.034, -2.192e-5
-1.033, -2.231e-5
-1.032, -2.247e-5
-1.031, -2.262e-5
-1.030, -2.283e-5
-1.029, -2.274e-5
-1.028, -2.327e-5
-1.027, -2.409e-5
-1.026, -2.430e-5
-1.025, -2.375e-5
-1.024, -2.298e-5
-1.023, -2.395e-5
-1.022, -2.401e-5
-1.021, -2.417e-5
-1.020, -2.441e-5
-1.019, -2.461e-5
-1.018, -2.507e-5
-1.017, -2.514e-5
-1.016, -2.531e-5
-1.015, -2.560e-5
-1.014, -2.534e-5
-1.013, -2.581e-5
-1.012, -2.583e-5
-1.011, -2.587e-5
-1.010, -2.657e-5
-1.009, -2.667e-5
-1.008, -2.691e-5
-1.007, -2.699e-5
-1.006, -2.725e-5
-1.005, -2.753e-5
-1.004, -2.732e-5
-1.003, -2.779e-5
-1.002, -2.805e-5
-1.001, -2.818e-5
