Potential V vs RHE, Current mA cm-2
0.013299999999999867,0.12340526668722714
0.012299999999999978,0.06298294706999143
0.011299999999999866,0.032693978139880994
0.010299999999999976,0.005470688596578096
0.009299999999999864,-0.022027054938898623
0.008299999999999974,-0.0403051249331549
0.007299999999999862,-0.05133987307210218
0.006299999999999972,-0.06809005486250422
0.00529999999999986,-0.08399140987298723
0.0042999999999999705,-0.10116600505334877
0.0032999999999998586,-0.11539800072999104
0.0022999999999999687,-0.12336282534823118
0.0012999999999998568,-0.13354874670725947
0.00029999999999996696,-0.14755438857592332
-0.000700000000000145,-0.16438945304431726
-0.0017000000000000348,-0.173019191973494
-0.0027000000000001467,-0.17867803717295414
-0.0037000000000000366,-0.1851857091523333
-0.0047000000000001485,-0.20018164893090268
-0.005700000000000038,-0.21333846401964754
-0.00670000000000015,-0.22239261633878374
-0.00770000000000004,-0.2245146832885813
-0.008700000000000152,-0.23144676865792
-0.009700000000000042,-0.24304740131681332
-0.010700000000000154,-0.2571945143154637
-0.011700000000000044,-0.2639851285548159
-0.012700000000000156,-0.268795146974357
-0.013700000000000045,-0.2728978097439656
-0.014700000000000157,-0.2840740290128994
-0.015700000000000047,-0.2952502482818331
-0.01670000000000016,-0.3027482181711178
-0.01770000000000005,-0.3067094098107399
-0.01870000000000016,-0.30854853450056446
-0.01970000000000005,-0.31930034037953875
-0.020700000000000163,-0.33274009772825663
-0.021700000000000053,-0.33655981823789227
-0.022700000000000164,-0.34108689439746037
-0.023700000000000054,-0.34448220151713643
-0.024700000000000166,-0.3545266517461782
-0.025700000000000056,-0.3669761111849905
-0.026700000000000168,-0.37065436056463963
-0.027700000000000058,-0.37263495638445066
-0.02870000000000017,-0.3795670417537893
-0.02970000000000006,-0.38437706017333045
-0.03070000000000017,-0.3989485865619403
-0.03170000000000006,-0.4017780091616704
-0.03270000000000017,-0.4031927204615355
-0.03370000000000006,-0.4077197966211036
-0.034700000000000175,-0.4150762953804018
-0.035700000000000065,-0.42568663012938956
-0.03670000000000018,-0.43261871549872827
-0.03770000000000007,-0.4320528309787822
-0.03870000000000018,-0.43516519583848523
-0.03970000000000007,-0.443511992507689
-0.04070000000000018,-0.45398085612669026
-0.04170000000000007,-0.4586494034162448
-0.04270000000000018,-0.4592152879361909
-0.04370000000000007,-0.45963970132615045
-0.044700000000000184,-0.47166474737500325
-0.045700000000000074,-0.4795871306542474
-0.046700000000000186,-0.4841142068138156
-0.047700000000000076,-0.48213361099400454
-0.04870000000000019,-0.4853874469836941
-0.04970000000000008,-0.4948660126927898
-0.05070000000000019,-0.502505453712061
-0.05170000000000008,-0.5080228277815346
-0.05270000000000019,-0.5077398855215616
-0.05370000000000008,-0.5075984143915752
-0.05470000000000019,-0.5155207976708194
-0.05570000000000008,-0.5274043725896858
-0.056700000000000195,-0.5286776127595643
-0.057700000000000085,-0.5293849684094968
-0.058700000000000196,-0.5283946704995912
-0.059700000000000086,-0.5367414671687949
-0.0607000000000002,-0.5465029751378637
-0.06170000000000009,-0.5507471090374588
-0.0627000000000002,-0.5508885801674454
-0.06370000000000009,-0.5503226956474992
-0.0647000000000002,-0.5588109634466895
-0.06570000000000009,-0.5680065868958123
-0.0667000000000002,-0.5678651157658258
-0.0677000000000001,-0.5691383559357043
-0.0687000000000002,-0.5692798270656908
-0.0697000000000001,-0.5747972011351644
-0.07070000000000021,-0.5855490070141387
-0.0717000000000001,-0.5886613718738418
-0.07270000000000021,-0.5854075358841522
-0.0737000000000001,-0.5872466605739768
-0.07470000000000021,-0.5936128614233693
-0.0757000000000001,-0.6023840714825326
-0.07670000000000021,-0.6043646673023436
-0.0777000000000001,-0.6025255426125191
-0.07870000000000021,-0.6050720229522761
-0.0797000000000001,-0.6094576279818578
-0.08070000000000022,-0.617380011261102
-0.0817000000000001,-0.6210582606407511
-0.08270000000000022,-0.61624824222121
-0.08370000000000011,-0.6163897133511964
-0.08470000000000022,-0.6267171058402112
-0.08570000000000011,-0.6312441819997794
-0.08670000000000022,-0.6361956715493069
-0.08770000000000011,-0.6322344799096848
-0.08870000000000022,-0.6325174221696578
-0.08970000000000011,-0.637893325109145
-0.09070000000000022,-0.6445424682185106
-0.09170000000000011,-0.6473718908182408
-0.09270000000000023,-0.6449668816084703
-0.09370000000000012,-0.6417130456187806
-0.09470000000000023,-0.6499183711579978
-0.09570000000000012,-0.65670898539735
-0.09670000000000023,-0.6564260431373771
-0.09770000000000012,-0.6543039761875794
-0.09870000000000023,-0.6509086690679033
-0.09970000000000012,-0.65670898539735
-0.10070000000000023,-0.6657631377164863
-0.10170000000000012,-0.6654801954565133
-0.10270000000000024,-0.6615190038168911
-0.10370000000000013,-0.6589725234771341
-0.10470000000000024,-0.6609531192969451
-0.10570000000000013,-0.6708560983960004
-0.10670000000000024,-0.6678852046662839
-0.10770000000000013,-0.6650557820665538
-0.10870000000000024,-0.6620848883368372
-0.10970000000000013,-0.6649143109365673
-0.11070000000000024,-0.6712805117859599
-0.11170000000000013,-0.6688755025761894
-0.11270000000000002,-0.6647728398065808
-0.11370000000000013,-0.6618019460768642
-0.11470000000000002,-0.6657631377164863
-0.11570000000000014,-0.6688755025761894
-0.11670000000000003,-0.6700072716160814
-0.11770000000000014,-0.6620848883368372
-0.11870000000000003,-0.658123696697215
-0.11970000000000014,-0.6615190038168911
-0.12070000000000003,-0.6653387243265267
-0.12170000000000014,-0.6644898975466078
-0.12270000000000003,-0.6582651678272016
-0.12370000000000014,-0.6530307360177009
-0.12470000000000003,-0.6561431008774039
-0.12570000000000014,-0.6603872347769991
-0.12670000000000003,-0.659255465737107
-0.12770000000000015,-0.6510501401978899
-0.12870000000000004,-0.6452498238684432
-0.12970000000000015,-0.6489280732480923
-0.13070000000000004,-0.6516160247178359
-0.13170000000000015,-0.6494939577680383
-0.13270000000000004,-0.6442595259585376
-0.13370000000000015,-0.6369030271992394
-0.13470000000000004,-0.640722747708875
-0.13570000000000015,-0.6445424682185106
-0.13670000000000004,-0.6386006807590775
-0.13770000000000016,-0.635912729289334
-0.13870000000000005,-0.6292635861799682
-0.13970000000000016,-0.6302538840898738
-0.14070000000000005,-0.6360542004193205
-0.14170000000000016,-0.6305368263498469
-0.14270000000000005,-0.6261512213202652
-0.14370000000000016,-0.6180873669110345
-0.14470000000000005,-0.621341202900724
-0.14570000000000016,-0.6271415192301707
-0.14670000000000005,-0.6217656162906836
-0.14770000000000016,-0.614267646401399
-0.14870000000000005,-0.6103064547617768
-0.14970000000000017,-0.6111552815416958
-0.15070000000000006,-0.615399415441291
-0.15170000000000017,-0.6132773484914934
-0.15270000000000006,-0.6057793786022087
-0.15370000000000017,-0.6016767158326001
-0.15470000000000006,-0.6001205334027485
-0.15570000000000017,-0.6056379074722221
-0.15670000000000006,-0.6052134940822627
-0.15770000000000017,-0.594886101593248
-0.15870000000000006,-0.5905004965636662
-0.15970000000000018,-0.5937543325533559
-0.16070000000000007,-0.596866697413059
-0.16170000000000018,-0.595734928373167
-0.16270000000000007,-0.5861148915340847
-0.16370000000000018,-0.5845587091042331
-0.16470000000000007,-0.5869637183140037
-0.16570000000000018,-0.5885199007438553
-0.16670000000000007,-0.5862563626640712
-0.16770000000000018,-0.579748690684692
-0.16870000000000007,-0.5745142588751914
-0.16970000000000018,-0.578333979384827
-0.17070000000000007,-0.578899863904773
-0.17170000000000019,-0.5793242772947326
-0.17270000000000008,-0.5728166053153534
-0.1737000000000002,-0.5660259910760012
-0.17470000000000008,-0.5688554136757313
-0.1757000000000002,-0.5733824898352994
-0.17670000000000008,-0.5699871827156233
-0.1777000000000002,-0.5674407023758662
-0.17870000000000008,-0.557820665536784
-0.1797000000000002,-0.562347741696352
-0.18070000000000008,-0.5660259910760012
-0.1817000000000002,-0.5641868663861767
-0.18270000000000008,-0.5579621366667705
-0.1837000000000002,-0.5549912429370539
-0.1847000000000001,-0.5549912429370539
-0.1857000000000002,-0.562347741696352
-0.1867000000000001,-0.5561230119769459
-0.1877000000000002,-0.5515959358173778
-0.1887000000000001,-0.5487665132176478
-0.1897000000000002,-0.5500397533875263
-0.1907000000000001,-0.5542838872871214
-0.1917000000000001,-0.5530106471172429
-0.19269999999999998,-0.5463615040078772
-0.1937000000000001,-0.5445223793180526
-0.19469999999999998,-0.5465029751378637
-0.1957000000000001,-0.5517374069473643
-0.19669999999999999,-0.5514544646873913
-0.1977000000000001,-0.5443809081880661
-0.1987,-0.540136774288471
-0.1997000000000001,-0.5426832546282281
-0.2007,-0.5477762153077422
-0.2017000000000001,-0.5477762153077422
-0.2027,-0.5419758989782956
-0.2037000000000001,-0.5377317650787005
-0.2047,-0.5426832546282281
-0.2057000000000001,-0.5469273885278232
-0.2067,-0.5474932730477692
-0.2077000000000001,-0.5412685433283632
-0.2087,-0.5380147073386735
-0.2097000000000001,-0.5431076680181876
-0.2107,-0.5476347441777557
-0.2117000000000001,-0.5453712060979717
-0.2127,-0.5436735525381337
-0.2137000000000001,-0.5371658805587545
-0.2147,-0.5483420998276882
-0.2157000000000001,-0.553293589377216
-0.2167,-0.5501812245175128
-0.21770000000000012,-0.5470688596578097
-0.2187,-0.5436735525381337
-0.21970000000000012,-0.5491909266076073
-0.2207,-0.5561230119769459
-0.22170000000000012,-0.5545668295470944
-0.2227,-0.5521618203373237
-0.22370000000000012,-0.5511715224274183
-0.2247,-0.553859473897162
-0.22570000000000012,-0.5640453952561902
-0.2267,-0.5613574437864466
-0.22770000000000012,-0.5606500881365141
-0.22870000000000001,-0.5609330303964871
-0.22970000000000013,-0.5658845199460147
-0.23070000000000002,-0.5747972011351644
-0.23170000000000013,-0.57578749904507
-0.23270000000000002,-0.5725336630553803
-0.23370000000000013,-0.5735239609652859
-0.23470000000000002,-0.5810219308545705
-0.23570000000000013,-0.5888028430038282
-0.23670000000000002,-0.5921981501235044
-0.2376999999999999,-0.5892272563937878
-0.23870000000000002,-0.5931884480334099
-0.2396999999999999,-0.5998375911427756
-0.24070000000000003,-0.6107308681517364
-0.24169999999999991,-0.616814126741156
-0.24270000000000003,-0.6155408865712775
-0.24369999999999992,-0.6186532514309806
-0.24470000000000003,-0.6286977016600223
-0.24569999999999992,-0.6394495075389965
-0.24670000000000003,-0.6477963042082002
-0.24769999999999992,-0.6479377753381867
-0.24870000000000003,-0.6560016297474174
-0.24969999999999992,-0.6668949067563783
-0.25070000000000003,-0.6814664331449882
-0.2516999999999999,-0.6878326339943809
-0.25270000000000004,-0.6967453151835306
-0.2536999999999999,-0.7022626892530042
-0.25470000000000004,-0.7203709938912767
-0.2556999999999999,-0.7367816449697111
-0.25670000000000004,-0.7496555177984829
-0.25769999999999993,-0.7587096701176191
-0.25870000000000004,-0.7701688316465259
-0.25969999999999993,-0.7911065588845285
-0.26070000000000004,-0.8152981221122206
-0.26169999999999993,-0.8298696485008306
-0.26270000000000004,-0.846280299579265
-0.26369999999999993,-0.867076555687281
-0.26470000000000005,-0.8932487147347841
-0.26569999999999994,-0.9209770562121388
-0.26670000000000005,-0.949129811079453
-0.26769999999999994,-0.9707748939673883
-0.26870000000000005,-1.000766773524527
-0.26969999999999994,-1.0328807200314631
-0.27070000000000005,-1.0737658765975628
-0.27169999999999994,-1.1101239570040942
-0.27270000000000005,-1.1473308641905449
-0.27369999999999994,-1.1907625010964016
-0.27470000000000006,-1.2395700409417452
-0.27569999999999995,-1.295734079546387
-0.27670000000000006,-1.3511907625010966
-0.27769999999999995,-1.4059400898058736
-0.27870000000000006,-1.4684703292599082
-0.27969999999999995,-1.540620605553025
-0.28070000000000006,-1.6184297270456018
-0.28169999999999995,-1.700482982437774
-0.28270000000000006,-1.781121526530081
-0.28369999999999995,-1.8730777610213083
-0.28470000000000006,-1.980595819811051
-0.28569999999999995,-2.0937727238002544
-0.28670000000000007,-2.2140231842887825
-0.28769999999999996,-2.3385177786769056
-0.28870000000000007,-2.475744774763814
-0.28969999999999996,-2.6327777290488332
-0.29070000000000007,-2.7997136624329078
-0.29169999999999996,-2.976552574916037
-0.29270000000000007,-3.1632944664982214
-0.29369999999999996,-3.3655981823789225
-0.2947000000000001,-3.5877078564577327
-0.29569999999999996,-3.833867622634249
-0.2967000000000001,-4.088515656609956
-0.29769999999999996,-4.361554937483908
-0.2987000000000001,-4.66005902175543
-0.29969999999999997,-4.985442620724389
-0.3007000000000001,-5.339120445690648
-0.30169999999999997,-5.709774806255288
-0.3027000000000001,-6.103064547617769
-0.30369999999999997,-6.5317220714768744
-0.3047000000000001,-6.988673821333281
-0.30569999999999997,-7.479578642386449
-0.3067000000000001,-7.981801153838537
-0.3077,-8.503829623488736
-0.3087000000000001,-9.048493473936775
-0.3097,-9.618622127782384
-0.3107000000000001,-10.214215585025565
-0.3117,-10.826785577867126
-0.3127000000000001,-11.456332106307068
-0.3137,-12.098611036445792
-0.3147000000000001,-12.753622368283306
-0.3157,-13.421366101819604
-0.3167000000000001,-14.087695124056035
-0.3177,-14.769585970590983
-0.3187000000000001,-15.462794507524851
-0.3197,-16.170150157457368
-0.3207000000000001,-16.891652920388537
-0.3217,-17.613155683319707
-0.3227000000000001,-18.377099785246827
-0.3237,-19.155191000172596
-0.3247000000000001,-19.961576441095666
-0.3257,-20.73966765602144
-0.3267000000000001,-21.560200209943158
-0.3277,-22.38073276386488
-0.3287000000000001,-23.229559543783903
-0.3297,-24.092533436701576
-0.3307000000000001,-24.969654442617898
-0.3317,-25.875069674531517
-0.3327000000000001,-26.808779132442442
-0.3337,-27.756635703352025
-0.3347000000000001,-28.718639387260247
-0.3357,-29.708937297165768
-0.3367000000000001,-30.642646755076694
-0.3377,-31.618797551983565
-0.3387000000000001,-32.62324257488775
-0.3397,-33.655981823789226
-0.3407000000000001,-34.731162411686654
-0.3417,-35.806342999584075
-0.3427000000000001,-36.9381120394761
-0.3437,-38.02743974037218
-0.3447000000000001,-39.08847321527096
-0.3457,-40.177800916167044
-0.3467000000000001,-41.30956995605907
-0.3477,-42.42719188295245
-0.3487000000000001,-43.58725514884178
-0.3497,-44.76146552772976
-0.3507000000000001,-45.963970132615046
-0.3517,-47.16647473750032
-0.3527000000000001,-48.36897934238561
-0.3537,-49.58563106026953
-0.3547000000000001,-50.81642989115212
-0.3557,-52.08967006103065
-0.35670000000000013,-53.37705734390783
-0.3577,-54.67859173978366
-0.35870000000000013,-55.96597902266086
-0.3597,-57.25336630553804
-0.36070000000000013,-58.55490070141387
-0.3617,-59.842287984291055
-0.3626999999999999,-61.17211660616418
-0.3637,-62.544386567033264
-0.3646999999999999,-63.944950753899654
-0.3657,-65.31722071476874
-0.3666999999999999,-66.74607912763243
-0.3677,-68.06176063650692
-0.3686999999999999,-69.39158925838004
-0.36970000000000003,-70.76385921924914
-0.3706999999999999,-72.16442340611552
-0.37170000000000003,-73.57913470598055
-0.3726999999999999,-75.0787286838375
-0.37370000000000003,-76.53588132269847
-0.3746999999999999,-77.97888684856083
-0.37570000000000003,-79.47848082641775
-0.3766999999999999,-81.02051614327065
-0.37770000000000004,-82.40693321713839
-0.3786999999999999,-83.73676183901152
-0.37970000000000004,-85.12317891287925
-0.3806999999999999,-86.60862577773754
-0.38170000000000004,-88.16480820758908
-0.38269999999999993,-89.67854929844468
-0.38370000000000004,-91.33376151928677
-0.38469999999999993,-92.7767670451491
-0.38570000000000004,-94.19147834501413
-0.38669999999999993,-94.34709658799929
-0.38570000000000004,-93.05970930512211
-0.38469999999999993,-91.89964603923279
-0.38370000000000004,-90.59811164335694
-0.38269999999999993,-89.32487147347842
-0.38170000000000004,-87.86771883461743
-0.3806999999999999,-86.5661844387416
-0.37970000000000004,-85.1939144778725
-0.3786999999999999,-83.80749740400476
-0.37770000000000004,-82.56255146012353
-0.3766999999999999,-81.30345840324367
-0.37570000000000003,-80.00192400736783
-0.3746999999999999,-78.74283095048794
-0.37370000000000003,-77.52617923260401
-0.3726999999999999,-76.29538040172143
-0.37170000000000003,-75.1070229098348
-0.3706999999999999,-73.86207696595356
-0.36970000000000003,-72.37663010109527
-0.3686999999999999,-71.01850725322484
-0.3677,-69.74526708334632
-0.3666999999999999,-68.42958557447183
-0.3657,-67.1563454045933
-0.3646999999999999,-65.8972523477134
-0.3637,-64.65230640383218
-0.3626999999999999,-63.421507572949594
-0.3617,-62.16241451606972
-0.36070000000000013,-60.93161568518713
-0.3597,-59.70081685430455
-0.35870000000000013,-58.51245936241792
-0.3577,-57.36654320952724
-0.35670000000000013,-56.19233283063926
-0.3557,-55.11715224274183
-0.3547000000000001,-54.14100144583495
-0.3537,-53.065820857937524
-0.3527000000000001,-51.976493157041446
-0.3517,-50.90131256914402
-0.3507000000000001,-49.84027909424525
-0.3497,-48.75095139334916
-0.3487000000000001,-47.67577080545174
-0.3477,-46.65717866954891
-0.3467000000000001,-45.681027872642034
-0.3457,-44.67658284973786
-0.3447000000000001,-43.71457916582963
-0.3437,-42.766722594920054
-0.3427000000000001,-41.81886602401048
-0.3417,-40.828568114104954
-0.3407000000000001,-39.88071154319538
-0.3397,-38.96114919828311
-0.3387000000000001,-38.05573396636949
-0.3377,-37.164465847454515
-0.3367000000000001,-36.30149195453684
-0.3357,-35.42437094862052
-0.3347000000000001,-34.5472499427042
-0.3337,-33.740864501781125
-0.3327000000000001,-32.92033194785941
-0.3317,-32.09979939393769
-0.3307000000000001,-31.30756106601326
-0.3297,-30.529469851087494
-0.3287000000000001,-29.751378636161718
-0.3277,-28.987434534234602
-0.3267000000000001,-28.22349043230748
-0.3257,-27.487840556377662
-0.3247000000000001,-26.766337793446493
-0.3237,-26.073129256512626
-0.3227000000000001,-25.42236205857471
-0.3217,-24.757447747638142
-0.3207000000000001,-24.106680549700226
-0.3197,-23.45591335176231
-0.3187000000000001,-22.833440379821692
-0.3177,-22.196820294882425
-0.3167000000000001,-21.560200209943158
-0.3157,-20.95187435100119
-0.3147000000000001,-20.371842718056527
-0.3137,-19.805958198110513
-0.3127000000000001,-19.25422079116315
-0.3117,-18.730777610213085
-0.3107000000000001,-18.207334429263025
-0.3097,-17.683891248312957
-0.3087000000000001,-17.188742293360193
-0.3077,-16.70774045140608
-0.3067000000000001,-16.22673860945197
-0.30569999999999997,-15.731589654499205
-0.3047000000000001,-15.264734925543747
-0.30369999999999997,-14.812027309586934
-0.3027000000000001,-14.373466806628771
-0.30169999999999997,-13.946223994069532
-0.3007000000000001,-13.517566470210424
-0.29969999999999997,-13.10022663675024
-0.2987000000000001,-12.69561920498884
-0.29769999999999996,-12.299500041026628
-0.2967000000000001,-11.918942701362935
-0.29569999999999996,-11.538385361699238
-0.2947000000000001,-11.15924273333541
-0.29369999999999996,-10.79990606316969
-0.29270000000000007,-10.450472372103025
-0.29169999999999996,-10.113771082735147
-0.29070000000000007,-9.779899215967
-0.28969999999999996,-9.450271483098444
-0.28870000000000007,-9.130546729328946
-0.28769999999999996,-8.824969088558099
-0.28670000000000007,-8.529294426886306
-0.28569999999999995,-8.240693321713838
-0.28470000000000006,-7.95775106174083
-0.28369999999999995,-7.688955914766475
-0.28270000000000006,-7.431478458191038
-0.28169999999999995,-7.178245135515196
-0.28070000000000006,-6.923597101539489
-0.27969999999999995,-6.678852046662837
-0.27870000000000006,-6.442595259585377
-0.27769999999999995,-6.214826740307106
-0.27670000000000006,-5.99696120012789
-0.27569999999999995,-5.781925082548405
-0.27470000000000006,-5.57537723276811
-0.27369999999999994,-5.373073516887409
-0.27270000000000005,-5.173599223606439
-0.27169999999999994,-4.9840279094245235
-0.27070000000000005,-4.793041883942744
