Apr. 5, 2025   06:13:23
Cyclic Voltammetry
File: c:/users/guazh/data/banditlqround7_x0exp994_r5/2025-03-28-exp987\exp987-2025-04-05t06_07_00-arkoh\exp987_cv_sr_200mvs_efin_-1400mv.bin
Data Source:  Experiment
Instrument Model:  CHI760E
Header: CV ran at 200 mVs
Note: 

Init E (V) = -1
High E (V) = -1
Low E (V) = -1.4
Final E (V) = -1
Init P/N = N
Scan Rate (V/s) = 0.2
Segment = 3
Sample Interval (V) = 0.001
Quiet Time (sec) = 2
Sensitivity (A/V) = 0.01
Comp R (ohm) = 1.7

Results:

Channel 1:
Segment 1:

Segment 2:

Segment 3:

Potential/V, Current/A

-1.000, 5.572e-6
-1.001, 2.296e-5
-1.002, 2.651e-5
-1.003, 2.977e-5
-1.004, 3.582e-5
-1.005, 3.720e-5
-1.006, 3.847e-5
-1.007, 4.249e-5
-1.008, 4.515e-5
-1.009, 4.548e-5
-1.010, 4.819e-5
-1.011, 5.174e-5
-1.012, 5.154e-5
-1.013, 5.300e-5
-1.014, 5.686e-5
-1.015, 5.780e-5
-1.016, 5.761e-5
-1.017, 6.150e-5
-1.018, 6.339e-5
-1.019, 6.237e-5
-1.020, 6.511e-5
-1.021, 6.856e-5
-1.022, 6.781e-5
-1.023, 6.926e-5
-1.024, 7.323e-5
-1.025, 7.356e-5
-1.026, 7.374e-5
-1.027, 7.699e-5
-1.028, 7.963e-5
-1.029, 7.842e-5
-1.030, 8.062e-5
-1.031, 8.463e-5
-1.032, 8.384e-5
-1.033, 8.516e-5
-1.034, 8.942e-5
-1.035, 8.972e-5
-1.036, 8.953e-5
-1.037, 9.379e-5
-1.038, 9.548e-5
-1.039, 9.519e-5
-1.040, 9.681e-5
-1.041, 1.011e-4
-1.042, 1.006e-4
-1.043, 1.016e-4
-1.044, 1.061e-4
-1.045, 1.063e-4
-1.046, 1.061e-4
-1.047, 1.101e-4
-1.048, 1.120e-4
-1.049, 1.112e-4
-1.050, 1.139e-4
-1.051, 1.176e-4
-1.052, 1.166e-4
-1.053, 1.174e-4
-1.054, 1.221e-4
-1.055, 1.226e-4
-1.056, 1.219e-4
-1.057, 1.261e-4
-1.058, 1.283e-4
-1.059, 1.271e-4
-1.060, 1.293e-4
-1.061, 1.334e-4
-1.062, 1.322e-4
-1.063, 1.333e-4
-1.064, 1.375e-4
-1.065, 1.378e-4
-1.066, 1.374e-4
-1.067, 1.406e-4
-1.068, 1.431e-4
-1.069, 1.413e-4
-1.070, 1.437e-4
-1.071, 1.479e-4
-1.072, 1.458e-4
-1.073, 1.462e-4
-1.074, 1.510e-4
-1.075, 1.518e-4
-1.076, 1.501e-4
-1.077, 1.538e-4
-1.078, 1.559e-4
-1.079, 1.540e-4
-1.080, 1.557e-4
-1.081, 1.599e-4
-1.082, 1.584e-4
-1.083, 1.580e-4
-1.084, 1.622e-4
-1.085, 1.621e-4
-1.086, 1.608e-4
-1.087, 1.647e-4
-1.088, 1.660e-4
-1.089, 1.641e-4
-1.090, 1.656e-4
-1.091, 1.695e-4
-1.092, 1.682e-4
-1.093, 1.675e-4
-1.094, 1.716e-4
-1.095, 1.714e-4
-1.096, 1.694e-4
-1.097, 1.731e-4
-1.098, 1.748e-4
-1.099, 1.723e-4
-1.100, 1.740e-4
-1.101, 1.772e-4
-1.102, 1.758e-4
-1.103, 1.758e-4
-1.104, 1.791e-4
-1.105, 1.786e-4
-1.106, 1.767e-4
-1.107, 1.799e-4
-1.108, 1.822e-4
-1.109, 1.791e-4
-1.110, 1.805e-4
-1.111, 1.841e-4
-1.112, 1.815e-4
-1.113, 1.813e-4
-1.114, 1.852e-4
-1.115, 1.849e-4
-1.116, 1.829e-4
-1.117, 1.854e-4
-1.118, 1.868e-4
-1.119, 1.840e-4
-1.120, 1.853e-4
-1.121, 1.889e-4
-1.122, 1.865e-4
-1.123, 1.854e-4
-1.124, 1.894e-4
-1.125, 1.887e-4
-1.126, 1.864e-4
-1.127, 1.894e-4
-1.128, 1.902e-4
-1.129, 1.873e-4
-1.130, 1.884e-4
-1.131, 1.912e-4
-1.132, 1.886e-4
-1.133, 1.877e-4
-1.134, 1.909e-4
-1.135, 1.897e-4
-1.136, 1.872e-4
-1.137, 1.898e-4
-1.138, 1.914e-4
-1.139, 1.876e-4
-1.140, 1.883e-4
-1.141, 1.908e-4
-1.142, 1.878e-4
-1.143, 1.869e-4
-1.144, 1.901e-4
-1.145, 1.889e-4
-1.146, 1.859e-4
-1.147, 1.879e-4
-1.148, 1.892e-4
-1.149, 1.852e-4
-1.150, 1.858e-4
-1.151, 1.886e-4
-1.152, 1.849e-4
-1.153, 1.837e-4
-1.154, 1.863e-4
-1.155, 1.852e-4
-1.156, 1.821e-4
-1.157, 1.839e-4
-1.158, 1.845e-4
-1.159, 1.809e-4
-1.160, 1.808e-4
-1.161, 1.835e-4
-1.162, 1.804e-4
-1.163, 1.781e-4
-1.164, 1.814e-4
-1.165, 1.790e-4
-1.166, 1.762e-4
-1.167, 1.786e-4
-1.168, 1.783e-4
-1.169, 1.744e-4
-1.170, 1.750e-4
-1.171, 1.773e-4
-1.172, 1.738e-4
-1.173, 1.715e-4
-1.174, 1.738e-4
-1.175, 1.727e-4
-1.176, 1.693e-4
-1.177, 1.723e-4
-1.178, 1.721e-4
-1.179, 1.676e-4
-1.180, 1.682e-4
-1.181, 1.703e-4
-1.182, 1.667e-4
-1.183, 1.655e-4
-1.184, 1.676e-4
-1.185, 1.663e-4
-1.186, 1.628e-4
-1.187, 1.650e-4
-1.188, 1.653e-4
-1.189, 1.611e-4
-1.190, 1.612e-4
-1.191, 1.638e-4
-1.192, 1.599e-4
-1.193, 1.587e-4
-1.194, 1.610e-4
-1.195, 1.594e-4
-1.196, 1.563e-4
-1.197, 1.582e-4
-1.198, 1.582e-4
-1.199, 1.547e-4
-1.200, 1.544e-4
-1.201, 1.573e-4
-1.202, 1.536e-4
-1.203, 1.520e-4
-1.204, 1.546e-4
-1.205, 1.529e-4
-1.206, 1.501e-4
-1.207, 1.522e-4
-1.208, 1.522e-4
-1.209, 1.484e-4
-1.210, 1.487e-4
-1.211, 1.511e-4
-1.212, 1.482e-4
-1.213, 1.461e-4
-1.214, 1.488e-4
-1.215, 1.475e-4
-1.216, 1.439e-4
-1.217, 1.463e-4
-1.218, 1.467e-4
-1.219, 1.426e-4
-1.220, 1.435e-4
-1.221, 1.455e-4
-1.222, 1.428e-4
-1.223, 1.416e-4
-1.224, 1.439e-4
-1.225, 1.422e-4
-1.226, 1.390e-4
-1.227, 1.415e-4
-1.228, 1.427e-4
-1.229, 1.394e-4
-1.230, 1.394e-4
-1.231, 1.420e-4
-1.232, 1.380e-4
-1.233, 1.370e-4
-1.234, 1.401e-4
-1.235, 1.381e-4
-1.236, 1.357e-4
-1.237, 1.379e-4
-1.238, 1.381e-4
-1.239, 1.347e-4
-1.240, 1.355e-4
-1.241, 1.378e-4
-1.242, 1.346e-4
-1.243, 1.336e-4
-1.244, 1.369e-4
-1.245, 1.351e-4
-1.246, 1.323e-4
-1.247, 1.352e-4
-1.248, 1.352e-4
-1.249, 1.321e-4
-1.250, 1.331e-4
-1.251, 1.350e-4
-1.252, 1.326e-4
-1.253, 1.312e-4
-1.254, 1.344e-4
-1.255, 1.336e-4
-1.256, 1.304e-4
-1.257, 1.333e-4
-1.258, 1.340e-4
-1.259, 1.308e-4
-1.260, 1.319e-4
-1.261, 1.340e-4
-1.262, 1.313e-4
-1.263, 1.311e-4
-1.264, 1.339e-4
-1.265, 1.327e-4
-1.266, 1.307e-4
-1.267, 1.334e-4
-1.268, 1.339e-4
-1.269, 1.313e-4
-1.270, 1.326e-4
-1.271, 1.356e-4
-1.272, 1.323e-4
-1.273, 1.322e-4
-1.274, 1.358e-4
-1.275, 1.344e-4
-1.276, 1.326e-4
-1.277, 1.356e-4
-1.278, 1.363e-4
-1.279, 1.340e-4
-1.280, 1.361e-4
-1.281, 1.386e-4
-1.282, 1.368e-4
-1.283, 1.365e-4
-1.284, 1.402e-4
-1.285, 1.395e-4
-1.286, 1.378e-4
-1.287, 1.417e-4
-1.288, 1.427e-4
-1.289, 1.410e-4
-1.290, 1.430e-4
-1.291, 1.461e-4
-1.292, 1.452e-4
-1.293, 1.455e-4
-1.294, 1.495e-4
-1.295, 1.500e-4
-1.296, 1.489e-4
-1.297, 1.533e-4
-1.298, 1.552e-4
-1.299, 1.544e-4
-1.300, 1.577e-4
-1.301, 1.617e-4
-1.302, 1.611e-4
-1.303, 1.627e-4
-1.304, 1.677e-4
-1.305, 1.694e-4
-1.306, 1.704e-4
-1.307, 1.753e-4
-1.308, 1.783e-4
-1.309, 1.786e-4
-1.310, 1.838e-4
-1.311, 1.903e-4
-1.312, 1.909e-4
-1.313, 1.946e-4
-1.314, 2.016e-4
-1.315, 2.053e-4
-1.316, 2.095e-4
-1.317, 2.170e-4
-1.318, 2.228e-4
-1.319, 2.270e-4
-1.320, 2.342e-4
-1.321, 2.441e-4
-1.322, 2.495e-4
-1.323, 2.577e-4
-1.324, 2.698e-4
-1.325, 2.786e-4
-1.326, 2.877e-4
-1.327, 3.022e-4
-1.328, 3.146e-4
-1.329, 3.264e-4
-1.330, 3.424e-4
-1.331, 3.605e-4
-1.332, 3.763e-4
-1.333, 3.941e-4
-1.334, 4.171e-4
-1.335, 4.387e-4
-1.336, 4.605e-4
-1.337, 4.890e-4
-1.338, 5.182e-4
-1.339, 5.463e-4
-1.340, 5.800e-4
-1.341, 6.178e-4
-1.342, 6.543e-4
-1.343, 6.961e-4
-1.344, 7.432e-4
-1.345, 7.901e-4
-1.346, 8.401e-4
-1.347, 8.968e-4
-1.348, 9.575e-4
-1.349, 1.018e-3
-1.350, 1.084e-3
-1.351, 1.157e-3
-1.352, 1.228e-3
-1.353, 1.304e-3
-1.354, 1.388e-3
-1.355, 1.474e-3
-1.356, 1.560e-3
-1.357, 1.654e-3
-1.358, 1.751e-3
-1.359, 1.847e-3
-1.360, 1.946e-3
-1.361, 2.050e-3
-1.362, 2.152e-3
-1.363, 2.252e-3
-1.364, 2.359e-3
-1.365, 2.462e-3
-1.366, 2.564e-3
-1.367, 2.669e-3
-1.368, 2.771e-3
-1.369, 2.866e-3
-1.370, 2.963e-3
-1.371, 3.068e-3
-1.372, 3.170e-3
-1.373, 3.270e-3
-1.374, 3.370e-3
-1.375, 3.469e-3
-1.376, 3.563e-3
-1.377, 3.661e-3
-1.378, 3.764e-3
-1.379, 3.864e-3
-1.380, 3.966e-3
-1.381, 4.069e-3
-1.382, 4.165e-3
-1.383, 4.260e-3
-1.384, 4.358e-3
-1.385, 4.455e-3
-1.386, 4.552e-3
-1.387, 4.656e-3
-1.388, 4.762e-3
-1.389, 4.857e-3
-1.390, 4.953e-3
-1.391, 5.054e-3
-1.392, 5.155e-3
-1.393, 5.259e-3
-1.394, 5.371e-3
-1.395, 5.475e-3
-1.396, 5.561e-3
-1.397, 5.654e-3
-1.398, 5.765e-3
-1.399, 5.883e-3
-1.400, 5.908e-3
-1.399, 5.833e-3
-1.398, 5.753e-3
-1.397, 5.671e-3
-1.396, 5.595e-3
-1.395, 5.525e-3
-1.394, 5.449e-3
-1.393, 5.358e-3
-1.392, 5.263e-3
-1.391, 5.184e-3
-1.390, 5.119e-3
-1.389, 5.047e-3
-1.388, 4.956e-3
-1.387, 4.866e-3
-1.386, 4.789e-3
-1.385, 4.708e-3
-1.384, 4.617e-3
-1.383, 4.532e-3
-1.382, 4.451e-3
-1.381, 4.368e-3
-1.380, 4.282e-3
-1.379, 4.203e-3
-1.378, 4.122e-3
-1.377, 4.041e-3
-1.376, 3.971e-3
-1.375, 3.904e-3
-1.374, 3.827e-3
-1.373, 3.750e-3
-1.372, 3.675e-3
-1.371, 3.603e-3
-1.370, 3.533e-3
-1.369, 3.467e-3
-1.368, 3.400e-3
-1.367, 3.331e-3
-1.366, 3.266e-3
-1.365, 3.198e-3
-1.364, 3.128e-3
-1.363, 3.065e-3
-1.362, 3.006e-3
-1.361, 2.941e-3
-1.360, 2.873e-3
-1.359, 2.808e-3
-1.358, 2.747e-3
-1.357, 2.687e-3
-1.356, 2.631e-3
-1.355, 2.575e-3
-1.354, 2.512e-3
-1.353, 2.452e-3
-1.352, 2.395e-3
-1.351, 2.334e-3
-1.350, 2.278e-3
-1.349, 2.226e-3
-1.348, 2.171e-3
-1.347, 2.118e-3
-1.346, 2.066e-3
-1.345, 2.012e-3
-1.344, 1.958e-3
-1.343, 1.910e-3
-1.342, 1.860e-3
-1.341, 1.809e-3
-1.340, 1.761e-3
-1.339, 1.715e-3
-1.338, 1.667e-3
-1.337, 1.620e-3
-1.336, 1.579e-3
-1.335, 1.534e-3
-1.334, 1.488e-3
-1.333, 1.448e-3
-1.332, 1.408e-3
-1.331, 1.366e-3
-1.330, 1.328e-3
-1.329, 1.292e-3
-1.328, 1.252e-3
-1.327, 1.214e-3
-1.326, 1.181e-3
-1.325, 1.147e-3
-1.324, 1.110e-3
-1.323, 1.078e-3
-1.322, 1.046e-3
-1.321, 1.011e-3
-1.320, 9.808e-4
-1.319, 9.521e-4
-1.318, 9.202e-4
-1.317, 8.905e-4
-1.316, 8.647e-4
-1.315, 8.367e-4
-1.314, 8.072e-4
-1.313, 7.828e-4
-1.312, 7.572e-4
-1.311, 7.300e-4
-1.310, 7.058e-4
-1.309, 6.847e-4
-1.308, 6.601e-4
-1.307, 6.370e-4
-1.306, 6.174e-4
-1.305, 5.956e-4
-1.304, 5.730e-4
-1.303, 5.545e-4
-1.302, 5.353e-4
-1.301, 5.150e-4
-1.300, 4.962e-4
-1.299, 4.801e-4
-1.298, 4.607e-4
-1.297, 4.430e-4
-1.296, 4.293e-4
-1.295, 4.127e-4
-1.294, 3.950e-4
-1.293, 3.823e-4
-1.292, 3.682e-4
-1.291, 3.513e-4
-1.290, 3.383e-4
-1.289, 3.265e-4
-1.288, 3.120e-4
-1.287, 2.988e-4
-1.286, 2.888e-4
-1.285, 2.760e-4
-1.284, 2.626e-4
-1.283, 2.536e-4
-1.282, 2.437e-4
-1.281, 2.304e-4
-1.280, 2.211e-4
-1.279, 2.133e-4
-1.278, 2.016e-4
-1.277, 1.923e-4
-1.276, 1.859e-4
-1.275, 1.760e-4
-1.274, 1.658e-4
-1.273, 1.598e-4
-1.272, 1.526e-4
-1.271, 1.425e-4
-1.270, 1.354e-4
-1.269, 1.305e-4
-1.268, 1.213e-4
-1.267, 1.140e-4
-1.266, 1.104e-4
-1.265, 1.026e-4
-1.264, 9.462e-5
-1.263, 9.127e-5
-1.262, 8.512e-5
-1.261, 7.750e-5
-1.260, 7.295e-5
-1.259, 6.960e-5
-1.258, 6.221e-5
-1.257, 5.647e-5
-1.256, 5.459e-5
-1.255, 4.887e-5
-1.254, 4.191e-5
-1.253, 4.033e-5
-1.252, 3.631e-5
-1.251, 2.925e-5
-1.250, 2.621e-5
-1.249, 2.440e-5
-1.248, 1.796e-5
-1.247, 1.364e-5
-1.246, 1.279e-5
-1.245, 8.236e-6
-1.244, 2.682e-6
-1.243, 2.080e-6
-1.242, -8.406e-7
-1.241, -6.819e-6
-1.240, -8.546e-6
-1.239, -9.562e-6
-1.238, -1.509e-5
-1.237, -1.784e-5
-1.236, -1.823e-5
-1.235, -2.200e-5
-1.234, -2.649e-5
-1.233, -2.669e-5
-1.232, -2.809e-5
-1.231, -3.348e-5
-1.230, -3.529e-5
-1.229, -3.614e-5
-1.228, -4.025e-5
-1.227, -4.291e-5
-1.226, -4.211e-5
-1.225, -4.557e-5
-1.224, -4.964e-5
-1.223, -4.904e-5
-1.222, -5.080e-5
-1.221, -5.514e-5
-1.220, -5.606e-5
-1.219, -5.563e-5
-1.218, -5.987e-5
-1.217, -6.294e-5
-1.216, -6.117e-5
-1.215, -6.402e-5
-1.214, -6.831e-5
-1.213, -6.721e-5
-1.212, -6.853e-5
-1.211, -7.267e-5
-1.210, -7.330e-5
-1.209, -7.263e-5
-1.208, -7.652e-5
-1.207, -7.888e-5
-1.206, -7.756e-5
-1.205, -7.972e-5
-1.204, -8.372e-5
-1.203, -8.275e-5
-1.202, -8.309e-5
-1.201, -8.759e-5
-1.200, -8.795e-5
-1.199, -8.686e-5
-1.198, -9.111e-5
-1.197, -9.288e-5
-1.196, -9.127e-5
-1.195, -9.370e-5
-1.194, -9.736e-5
-1.193, -9.616e-5
-1.192, -9.645e-5
-1.191, -1.008e-4
-1.190, -1.014e-4
-1.189, -9.996e-5
-1.188, -1.038e-4
-1.187, -1.059e-4
-1.186, -1.040e-4
-1.185, -1.063e-4
-1.184, -1.098e-4
-1.183, -1.081e-4
-1.182, -1.095e-4
-1.181, -1.132e-4
-1.180, -1.136e-4
-1.179, -1.119e-4
-1.178, -1.163e-4
-1.177, -1.186e-4
-1.176, -1.161e-4
-1.175, -1.182e-4
-1.174, -1.222e-4
-1.173, -1.204e-4
-1.172, -1.208e-4
-1.171, -1.251e-4
-1.170, -1.250e-4
-1.169, -1.238e-4
-1.168, -1.270e-4
-1.167, -1.294e-4
-1.166, -1.278e-4
-1.165, -1.293e-4
-1.164, -1.331e-4
-1.163, -1.316e-4
-1.162, -1.317e-4
-1.161, -1.359e-4
-1.160, -1.359e-4
-1.159, -1.343e-4
-1.158, -1.382e-4
-1.157, -1.402e-4
-1.156, -1.382e-4
-1.155, -1.403e-4
-1.154, -1.438e-4
-1.153, -1.423e-4
-1.152, -1.425e-4
-1.151, -1.464e-4
-1.150, -1.471e-4
-1.149, -1.452e-4
-1.148, -1.490e-4
-1.147, -1.504e-4
-1.146, -1.482e-4
-1.145, -1.511e-4
-1.144, -1.543e-4
-1.143, -1.524e-4
-1.142, -1.528e-4
-1.141, -1.565e-4
-1.140, -1.571e-4
-1.139, -1.556e-4
-1.138, -1.588e-4
-1.137, -1.607e-4
-1.136, -1.582e-4
-1.135, -1.606e-4
-1.134, -1.642e-4
-1.133, -1.624e-4
-1.132, -1.626e-4
-1.131, -1.661e-4
-1.130, -1.665e-4
-1.129, -1.649e-4
-1.128, -1.678e-4
-1.127, -1.702e-4
-1.126, -1.682e-4
-1.125, -1.697e-4
-1.124, -1.731e-4
-1.123, -1.712e-4
-1.122, -1.712e-4
-1.121, -1.753e-4
-1.120, -1.755e-4
-1.119, -1.739e-4
-1.118, -1.773e-4
-1.117, -1.787e-4
-1.116, -1.765e-4
-1.115, -1.783e-4
-1.114, -1.819e-4
-1.113, -1.805e-4
-1.112, -1.798e-4
-1.111, -1.838e-4
-1.110, -1.842e-4
-1.109, -1.819e-4
-1.108, -1.856e-4
-1.107, -1.877e-4
-1.106, -1.850e-4
-1.105, -1.866e-4
-1.104, -1.902e-4
-1.103, -1.885e-4
-1.102, -1.887e-4
-1.101, -1.921e-4
-1.100, -1.922e-4
-1.099, -1.906e-4
-1.098, -1.938e-4
-1.097, -1.958e-4
-1.096, -1.930e-4
-1.095, -1.948e-4
-1.094, -1.988e-4
-1.093, -1.969e-4
-1.092, -1.969e-4
-1.091, -2.003e-4
-1.090, -2.000e-4
-1.089, -1.983e-4
-1.088, -2.020e-4
-1.087, -2.043e-4
-1.086, -2.015e-4
-1.085, -2.030e-4
-1.084, -2.065e-4
-1.083, -2.053e-4
-1.082, -2.057e-4
-1.081, -2.095e-4
-1.080, -2.085e-4
-1.079, -2.066e-4
-1.078, -2.103e-4
-1.077, -2.118e-4
-1.076, -2.103e-4
-1.075, -2.126e-4
-1.074, -2.153e-4
-1.073, -2.139e-4
-1.072, -2.130e-4
-1.071, -2.173e-4
-1.070, -2.180e-4
-1.069, -2.162e-4
-1.068, -2.192e-4
-1.067, -2.208e-4
-1.066, -2.187e-4
-1.065, -2.207e-4
-1.064, -2.242e-4
-1.063, -2.227e-4
-1.062, -2.233e-4
-1.061, -2.267e-4
-1.060, -2.268e-4
-1.059, -2.249e-4
-1.058, -2.285e-4
-1.057, -2.308e-4
-1.056, -2.284e-4
-1.055, -2.306e-4
-1.054, -2.341e-4
-1.053, -2.324e-4
-1.052, -2.331e-4
-1.051, -2.365e-4
-1.050, -2.368e-4
-1.049, -2.359e-4
-1.048, -2.393e-4
-1.047, -2.416e-4
-1.046, -2.395e-4
-1.045, -2.411e-4
-1.044, -2.451e-4
-1.043, -2.438e-4
-1.042, -2.441e-4
-1.041, -2.484e-4
-1.040, -2.483e-4
-1.039, -2.474e-4
-1.038, -2.513e-4
-1.037, -2.532e-4
-1.036, -2.516e-4
-1.035, -2.542e-4
-1.034, -2.576e-4
-1.033, -2.568e-4
-1.032, -2.568e-4
-1.031, -2.612e-4
-1.030, -2.621e-4
-1.029, -2.608e-4
-1.028, -2.645e-4
-1.027, -2.672e-4
-1.026, -2.654e-4
-1.025, -2.678e-4
-1.024, -2.721e-4
-1.023, -2.712e-4
-1.022, -2.716e-4
-1.021, -2.763e-4
-1.020, -2.772e-4
-1.019, -2.764e-4
-1.018, -2.803e-4
-1.017, -2.833e-4
-1.016, -2.815e-4
-1.015, -2.841e-4
-1.014, -2.886e-4
-1.013, -2.880e-4
-1.012, -2.891e-4
-1.011, -2.937e-4
-1.010, -2.944e-4
-1.009, -2.940e-4
-1.008, -2.984e-4
-1.007, -3.010e-4
-1.006, -3.002e-4
-1.005, -3.033e-4
-1.004, -3.080e-4
-1.003, -3.073e-4
-1.002, -3.082e-4
-1.001, -3.137e-4
