Potential V vs RHE, Current mA cm-2
0.013299999999999867,-0.3511313446265021
0.012299999999999978,-1.3543031273607997
0.011299999999999866,-1.7910245056291363
0.010299999999999976,-2.052746096104168
0.009299999999999864,-2.226755585987568
0.008299999999999974,-2.3569090255751513
0.007299999999999862,-2.4446211261667834
0.006299999999999972,-2.532333226758415
0.00529999999999986,-2.618630616050183
0.0042999999999999705,-2.706342716641815
0.0032999999999998586,-2.794054817233447
0.0022999999999999687,-2.8379108675292635
0.0012999999999998568,-2.924208256821031
0.00029999999999996696,-3.0119203574126634
-0.000700000000000145,-3.055776407708479
-0.0017000000000000348,-3.1420737970002466
-0.0027000000000001467,-3.2297858975918787
-0.0037000000000000366,-3.317497998183511
-0.0047000000000001485,-3.361354048479327
-0.005700000000000038,-3.447651437771094
-0.00670000000000015,-3.4915074880669104
-0.00770000000000004,-3.5353635383627267
-0.008700000000000152,-3.623075638954359
-0.009700000000000042,-3.6655169779503103
-0.010700000000000154,-3.7532290785419424
-0.011700000000000044,-3.7970851288377587
-0.012700000000000156,-3.884797229429391
-0.013700000000000045,-3.971094618721158
-0.014700000000000157,-4.0588067193127895
-0.015700000000000047,-4.146518819904423
-0.01670000000000016,-4.23281620919619
-0.01770000000000005,-4.3205283097878215
-0.01870000000000016,-4.450681749375406
-0.01970000000000005,-4.538393849967037
-0.020700000000000163,-4.626105950558669
-0.021700000000000053,-4.668547289554621
-0.022700000000000164,-4.756259390146253
-0.023700000000000054,-4.843971490737885
-0.024700000000000166,-4.9302688800296535
-0.025700000000000056,-5.017980980621284
-0.026700000000000168,-5.0618370309171015
-0.027700000000000058,-5.191990470504685
-0.02870000000000017,-5.279702571096316
-0.02970000000000006,-5.411270721983764
-0.03070000000000017,-5.5414241615713475
-0.03170000000000006,-5.629136262162981
-0.03270000000000017,-5.715433651454749
-0.03370000000000006,-5.890857852638012
-0.034700000000000175,-5.977155241929781
-0.035700000000000065,-6.064867342521412
-0.03670000000000018,-6.196435493408861
-0.03770000000000007,-6.282732882700628
-0.03870000000000018,-6.37044498329226
-0.03970000000000007,-6.458157083883892
-0.04070000000000018,-6.54445447317566
-0.04170000000000007,-6.6760226240631075
-0.04270000000000018,-6.806176063650692
-0.04370000000000007,-6.893888164242324
-0.044700000000000184,-7.024041603829907
-0.045700000000000074,-7.199465805013171
-0.046700000000000186,-7.329619244600755
-0.047700000000000076,-7.461187395488204
-0.04870000000000019,-7.591340835075788
-0.04970000000000008,-7.679052935667419
-0.05070000000000019,-7.809206375255003
-0.05170000000000008,-7.896918475846635
-0.05270000000000019,-8.027071915434218
-0.05370000000000008,-8.11478401602585
-0.05470000000000019,-8.246352166913299
-0.05570000000000008,-8.332649556205066
-0.056700000000000195,-8.4203616567967
-0.057700000000000085,-8.55051509638428
-0.058700000000000196,-8.638227196975913
-0.059700000000000086,-8.812236686859313
-0.0607000000000002,-8.899948787450944
-0.06170000000000009,-9.031516938338395
-0.0627000000000002,-9.161670377925978
-0.06370000000000009,-9.293238528813426
-0.0647000000000002,-9.379535918105192
-0.06570000000000009,-9.511104068992642
-0.0667000000000002,-9.59740145828441
-0.0677000000000001,-9.685113558876042
-0.0687000000000002,-9.81668170976349
-0.0697000000000001,-9.85912304875944
-0.07070000000000021,-9.99069119964689
-0.0717000000000001,-10.078403300238522
-0.07270000000000021,-10.164700689530287
-0.0737000000000001,-10.25241279012192
-0.07470000000000021,-10.382566229709504
-0.0757000000000001,-10.470278330301136
-0.07670000000000021,-10.557990430892769
-0.0777000000000001,-10.688143870480351
-0.07870000000000021,-10.775855971071984
-0.0797000000000001,-10.863568071663616
-0.08070000000000022,-10.949865460955383
-0.0817000000000001,-11.037577561547016
-0.08270000000000022,-11.081433611842833
-0.08370000000000011,-11.1677310011346
-0.08470000000000022,-11.211587051430415
-0.08570000000000011,-11.255443101726232
-0.08670000000000022,-11.343155202317865
-0.08770000000000011,-11.385596541313816
-0.08870000000000022,-11.473308641905447
-0.08970000000000011,-11.56102074249708
-0.09070000000000022,-11.647318131788847
-0.09170000000000011,-11.73503023238048
-0.09270000000000023,-11.82274233297211
-0.09370000000000012,-11.909039722263879
-0.09470000000000023,-11.996751822855511
-0.09570000000000012,-12.084463923447142
-0.09670000000000023,-12.12831997374296
-0.09770000000000012,-12.170761312738911
-0.09870000000000023,-12.258473413330542
-0.09970000000000012,-12.302329463626359
-0.10070000000000023,-12.302329463626359
-0.10170000000000012,-12.346185513922174
-0.10270000000000024,-12.390041564217992
-0.10370000000000013,-12.432482903213943
-0.10470000000000024,-12.520195003805576
-0.10570000000000013,-12.56405105410139
-0.10670000000000024,-12.607907104397206
-0.10770000000000013,-12.651763154693022
-0.10870000000000024,-12.73806054398479
-0.10970000000000013,-12.781916594280606
-0.11070000000000024,-12.825772644576423
-0.11170000000000013,-12.869628694872238
-0.11270000000000002,-12.869628694872238
-0.11370000000000013,-12.913484745168056
-0.11470000000000002,-12.913484745168056
-0.11570000000000014,-12.955926084164007
-0.11670000000000003,-12.99978213445982
-0.11770000000000014,-12.99978213445982
-0.11870000000000003,-13.043638184755638
-0.11970000000000014,-13.087494235051453
-0.12070000000000003,-13.13135028534727
-0.12170000000000014,-13.217647674639037
-0.12270000000000003,-13.217647674639037
-0.12370000000000014,-13.30535977523067
-0.12470000000000003,-13.30535977523067
-0.12570000000000014,-13.349215825526485
-0.12670000000000003,-13.349215825526485
-0.12770000000000015,-13.349215825526485
-0.12870000000000004,-13.349215825526485
-0.12970000000000015,-13.349215825526485
-0.13070000000000004,-13.349215825526485
-0.13170000000000015,-13.349215825526485
-0.13270000000000004,-13.349215825526485
-0.13370000000000015,-13.349215825526485
-0.13470000000000004,-13.3930718758223
-0.13570000000000015,-13.3930718758223
-0.13670000000000004,-13.3930718758223
-0.13770000000000016,-13.436927926118118
-0.13870000000000005,-13.436927926118118
-0.13970000000000016,-13.436927926118118
-0.14070000000000005,-13.436927926118118
-0.14170000000000016,-13.436927926118118
-0.14270000000000005,-13.436927926118118
-0.14370000000000016,-13.3930718758223
-0.14470000000000005,-13.349215825526485
-0.14570000000000016,-13.30535977523067
-0.14670000000000005,-13.261503724934855
-0.14770000000000016,-13.261503724934855
-0.14870000000000005,-13.217647674639037
-0.14970000000000017,-13.217647674639037
-0.15070000000000006,-13.217647674639037
-0.15170000000000017,-13.217647674639037
-0.15270000000000006,-13.217647674639037
-0.15370000000000017,-13.217647674639037
-0.15470000000000006,-13.175206335643086
-0.15570000000000017,-13.13135028534727
-0.15670000000000006,-13.087494235051453
-0.15770000000000017,-13.043638184755638
-0.15870000000000006,-12.99978213445982
-0.15970000000000018,-12.913484745168056
-0.16070000000000007,-12.869628694872238
-0.16170000000000018,-12.825772644576423
-0.16270000000000007,-12.73806054398479
-0.16370000000000018,-12.694204493688973
-0.16470000000000007,-12.651763154693022
-0.16570000000000018,-12.607907104397206
-0.16670000000000007,-12.56405105410139
-0.16770000000000018,-12.520195003805576
-0.16870000000000007,-12.476338953509758
-0.16970000000000018,-12.432482903213943
-0.17070000000000007,-12.346185513922174
-0.17170000000000019,-12.302329463626359
-0.17270000000000008,-12.258473413330542
-0.1737000000000002,-12.170761312738911
-0.17470000000000008,-12.12831997374296
-0.1757000000000002,-12.040607873151327
-0.17670000000000008,-11.952895772559694
-0.1777000000000002,-11.909039722263879
-0.17870000000000008,-11.86659838326793
-0.1797000000000002,-11.82274233297211
-0.18070000000000008,-11.73503023238048
-0.1817000000000002,-11.691174182084664
-0.18270000000000008,-11.647318131788847
-0.1837000000000002,-11.604876792792895
-0.1847000000000001,-11.517164692201263
-0.1857000000000002,-11.473308641905447
-0.1867000000000001,-11.385596541313816
-0.1877000000000002,-11.343155202317865
-0.1887000000000001,-11.255443101726232
-0.1897000000000002,-11.123874950838783
-0.1907000000000001,-11.081433611842833
-0.1917000000000001,-10.993721511251199
-0.19269999999999998,-10.906009410659568
-0.1937000000000001,-10.863568071663616
-0.19469999999999998,-10.819712021367803
-0.1957000000000001,-10.775855971071984
-0.19669999999999999,-10.688143870480351
-0.1977000000000001,-10.644287820184536
-0.1987,-10.601846481188586
-0.1997000000000001,-10.557990430892769
-0.2007,-10.514134380596953
-0.2017000000000001,-10.42642228000532
-0.2027,-10.382566229709504
-0.2037000000000001,-10.296268840417738
-0.2047,-10.208556739826104
-0.2057000000000001,-10.120844639234473
-0.2067,-10.078403300238522
-0.2077000000000001,-10.034547249942705
-0.2087,-9.946835149351072
-0.2097000000000001,-9.946835149351072
-0.2107,-9.85912304875944
-0.2117000000000001,-9.81668170976349
-0.2127,-9.772825659467674
-0.2137000000000001,-9.772825659467674
-0.2147,-9.685113558876042
-0.2157000000000001,-9.685113558876042
-0.2167,-9.59740145828441
-0.21770000000000012,-9.55496011928846
-0.2187,-9.423391968401008
-0.21970000000000012,-9.379535918105192
-0.2207,-9.293238528813426
-0.22170000000000012,-9.24938247851761
-0.2227,-9.205526428221793
-0.22370000000000012,-9.11781432763016
-0.2247,-9.073958277334345
-0.22570000000000012,-9.073958277334345
-0.2267,-9.031516938338395
-0.22770000000000012,-9.031516938338395
-0.22870000000000001,-8.987660888042578
-0.22970000000000013,-8.943804837746763
-0.23070000000000002,-8.899948787450944
-0.23170000000000013,-8.812236686859313
-0.23270000000000002,-8.769795347863363
-0.23370000000000013,-8.725939297567548
-0.23470000000000002,-8.68208324727173
-0.23570000000000013,-8.594371146680096
-0.23670000000000002,-8.55051509638428
-0.2376999999999999,-8.55051509638428
-0.23870000000000002,-8.464217707092514
-0.2396999999999999,-8.464217707092514
-0.24070000000000003,-8.4203616567967
-0.24169999999999991,-8.4203616567967
-0.24270000000000003,-8.376505606500881
-0.24369999999999992,-8.376505606500881
-0.24470000000000003,-8.332649556205066
-0.24569999999999992,-8.288793505909249
-0.24670000000000003,-8.246352166913299
-0.24769999999999992,-8.202496116617484
-0.24870000000000003,-8.158640066321666
-0.24969999999999992,-8.11478401602585
-0.25070000000000003,-8.070927965730034
-0.2516999999999999,-8.027071915434218
-0.25270000000000004,-7.984630576438266
-0.2536999999999999,-7.940774526142452
-0.25470000000000004,-7.940774526142452
-0.2556999999999999,-7.940774526142452
-0.25670000000000004,-7.940774526142452
-0.25769999999999993,-7.896918475846635
-0.25870000000000004,-7.896918475846635
-0.25969999999999993,-7.853062425550818
-0.26070000000000004,-7.809206375255003
-0.26169999999999993,-7.7653503249591855
-0.26270000000000004,-7.7653503249591855
-0.26369999999999993,-7.679052935667419
-0.26470000000000005,-7.679052935667419
-0.26569999999999994,-7.635196885371603
-0.26670000000000005,-7.635196885371603
-0.26769999999999994,-7.591340835075788
-0.26870000000000005,-7.5474847847799715
-0.26969999999999994,-7.5474847847799715
-0.27070000000000005,-7.5474847847799715
-0.27169999999999994,-7.5474847847799715
-0.27270000000000005,-7.5474847847799715
-0.27369999999999994,-7.5474847847799715
-0.27470000000000006,-7.50504344578402
-0.27569999999999995,-7.50504344578402
-0.27670000000000006,-7.461187395488204
-0.27769999999999995,-7.4173313451923875
-0.27870000000000006,-7.37347529489657
-0.27969999999999995,-7.329619244600755
-0.28070000000000006,-7.28576319430494
-0.28169999999999995,-7.28576319430494
-0.28270000000000006,-7.28576319430494
-0.28369999999999995,-7.243321855308987
-0.28470000000000006,-7.243321855308987
-0.28569999999999995,-7.243321855308987
-0.28670000000000007,-7.28576319430494
-0.28769999999999996,-7.28576319430494
-0.28870000000000007,-7.28576319430494
-0.28969999999999996,-7.28576319430494
-0.29070000000000007,-7.28576319430494
-0.29169999999999996,-7.243321855308987
-0.29270000000000007,-7.28576319430494
-0.29369999999999996,-7.243321855308987
-0.2947000000000001,-7.243321855308987
-0.29569999999999996,-7.199465805013171
-0.2967000000000001,-7.199465805013171
-0.29769999999999996,-7.155609754717355
-0.2987000000000001,-7.155609754717355
-0.29969999999999997,-7.155609754717355
-0.3007000000000001,-7.155609754717355
-0.30169999999999997,-7.199465805013171
-0.3027000000000001,-7.199465805013171
-0.30369999999999997,-7.199465805013171
-0.3047000000000001,-7.199465805013171
-0.30569999999999997,-7.199465805013171
-0.3067000000000001,-7.199465805013171
-0.3077,-7.199465805013171
-0.3087000000000001,-7.155609754717355
-0.3097,-7.155609754717355
-0.3107000000000001,-7.155609754717355
-0.3117,-7.155609754717355
-0.3127000000000001,-7.199465805013171
-0.3137,-7.199465805013171
-0.3147000000000001,-7.243321855308987
-0.3157,-7.243321855308987
-0.3167000000000001,-7.28576319430494
-0.3177,-7.28576319430494
-0.3187000000000001,-7.37347529489657
-0.3197,-7.37347529489657
-0.3207000000000001,-7.37347529489657
-0.3217,-7.37347529489657
-0.3227000000000001,-7.37347529489657
-0.3237,-7.37347529489657
-0.3247000000000001,-7.4173313451923875
-0.3257,-7.4173313451923875
-0.3267000000000001,-7.4173313451923875
-0.3277,-7.461187395488204
-0.3287000000000001,-7.461187395488204
-0.3297,-7.50504344578402
-0.3307000000000001,-7.5474847847799715
-0.3317,-7.635196885371603
-0.3327000000000001,-7.679052935667419
-0.3337,-7.722908985963235
-0.3347000000000001,-7.7653503249591855
-0.3357,-7.809206375255003
-0.3367000000000001,-7.853062425550818
-0.3377,-7.896918475846635
-0.3387000000000001,-7.940774526142452
-0.3397,-7.984630576438266
-0.3407000000000001,-8.027071915434218
-0.3417,-8.070927965730034
-0.3427000000000001,-8.158640066321666
-0.3437,-8.246352166913299
-0.3447000000000001,-8.332649556205066
-0.3457,-8.4203616567967
-0.3467000000000001,-8.508073757388331
-0.3477,-8.594371146680096
-0.3487000000000001,-8.725939297567548
-0.3497,-8.812236686859313
-0.3507000000000001,-8.943804837746763
-0.3517,-9.031516938338395
-0.3527000000000001,-9.11781432763016
-0.3537,-9.24938247851761
-0.3547000000000001,-9.379535918105192
-0.3557,-9.511104068992642
-0.35670000000000013,-9.641257508580225
-0.3577,-9.81668170976349
-0.35870000000000013,-9.99069119964689
-0.3597,-10.164700689530287
-0.36070000000000013,-10.382566229709504
-0.3617,-10.601846481188586
-0.3626999999999999,-10.819712021367803
-0.3637,-11.037577561547016
-0.3646999999999999,-11.299299152022046
-0.3657,-11.56102074249708
-0.3666999999999999,-11.86659838326793
-0.3677,-12.12831997374296
-0.3686999999999999,-12.476338953509758
-0.36970000000000003,-12.825772644576423
-0.3706999999999999,-13.175206335643086
-0.37170000000000003,-13.610937416001518
-0.3726999999999999,-14.002812446064135
-0.37370000000000003,-14.486643710617974
-0.3746999999999999,-15.01008689156804
-0.37570000000000003,-15.533530072518102
-0.3766999999999999,-16.141855931460068
-0.37770000000000004,-16.750181790402035
-0.3786999999999999,-17.4433903273359
-0.37970000000000004,-18.15074597726842
-0.3806999999999999,-18.97127853119014
-0.38170000000000004,-19.805958198110513
-0.38269999999999993,-20.72552054302279
-0.38370000000000004,-21.729965565926964
-0.38469999999999993,-22.776851927827092
-0.38570000000000004,-23.908620967719123
-0.38669999999999993,-23.951062306715073
-0.38570000000000004,-22.946617283810895
-0.38469999999999993,-22.72026347583249
-0.38370000000000004,-22.776851927827092
-0.38269999999999993,-22.861734605818995
-0.38170000000000004,-22.904175944814945
-0.3806999999999999,-22.989058622806844
-0.37970000000000004,-23.031499961802798
-0.3786999999999999,-23.073941300798747
-0.37770000000000004,-23.073941300798747
-0.3766999999999999,-23.031499961802798
-0.37570000000000003,-22.989058622806844
-0.3746999999999999,-22.861734605818995
-0.37370000000000003,-22.819293266823045
-0.3726999999999999,-22.67782213683654
-0.37170000000000003,-22.550498119848687
-0.3706999999999999,-22.42317410286083
-0.36970000000000003,-22.196820294882425
-0.3686999999999999,-22.027054938898623
-0.3677,-21.899730921910766
-0.3666999999999999,-21.67337711393236
-0.3657,-21.503611757948562
-0.3646999999999999,-21.291405062968803
-0.3637,-21.022609915994444
-0.3626999999999999,-20.810403221014692
-0.3617,-20.499166735044383
-0.36070000000000013,-20.244518701068674
-0.3597,-19.93328221509837
-0.35870000000000013,-19.636192842126707
-0.3577,-19.28251501716045
-0.35670000000000013,-19.01371987018609
-0.3557,-18.674189158218486
-0.3547000000000001,-18.362952672248177
-0.3537,-18.009274847281915
-0.3527000000000001,-17.71218547431026
-0.3517,-17.358507649344002
-0.3507000000000001,-17.061418276372343
-0.3497,-16.750181790402035
-0.3487000000000001,-16.354062626439823
-0.3477,-16.014531914472215
-0.3467000000000001,-15.660854089505953
-0.3457,-15.264734925543747
-0.3447000000000001,-14.925204213576137
-0.3437,-14.57152638860988
-0.3427000000000001,-14.175407224647667
-0.3417,-13.828802956180734
-0.3407000000000001,-13.436927926118118
-0.3397,-13.087494235051453
-0.3387000000000001,-12.73806054398479
-0.3377,-12.390041564217992
-0.3367000000000001,-12.040607873151327
-0.3357,-11.691174182084664
-0.3347000000000001,-11.343155202317865
-0.3337,-10.993721511251199
-0.3327000000000001,-10.644287820184536
-0.3317,-10.296268840417738
-0.3307000000000001,-9.946835149351072
-0.3297,-9.59740145828441
-0.3287000000000001,-9.24938247851761
-0.3277,-8.943804837746763
-0.3267000000000001,-8.594371146680096
-0.3257,-8.288793505909249
-0.3247000000000001,-7.984630576438266
-0.3237,-7.679052935667419
-0.3227000000000001,-7.4173313451923875
-0.3217,-7.111753704421539
-0.3207000000000001,-6.850032113946507
-0.3197,-6.588310523471475
-0.3187000000000001,-6.282732882700628
-0.3177,-6.021011292225596
-0.3167000000000001,-5.715433651454749
-0.3157,-5.453712060979717
-0.3147000000000001,-5.191990470504685
-0.3137,-4.9302688800296535
-0.3127000000000001,-4.668547289554621
-0.3117,-4.450681749375406
-0.3107000000000001,-4.1889601589003735
-0.3097,-3.971094618721158
-0.3087000000000001,-3.7532290785419424
-0.3077,-3.5353635383627267
-0.3067000000000001,-3.361354048479327
-0.30569999999999997,-3.1420737970002466
-0.3047000000000001,-2.968064307116847
-0.30369999999999997,-2.7501987669376318
-0.3027000000000001,-2.532333226758415
-0.30169999999999997,-2.3569090255751513
-0.3007000000000001,-2.1828995356917518
-0.29969999999999997,-1.9650339955125358
-0.2987000000000001,-1.7910245056291363
-0.29769999999999996,-1.6156003044458718
-0.2967000000000001,-1.4415908145624723
-0.29569999999999996,-1.3107300193249565
-0.2947000000000001,-1.1362961160515976
-0.29369999999999996,-1.0054353208140816
-0.29270000000000007,-0.8745745255765657
-0.29169999999999996,-0.7001406223032067
-0.29070000000000007,-0.5692798270656908
-0.28969999999999996,-0.4384190318281749
-0.28870000000000007,-0.30755823659065895
-0.28769999999999996,-0.1766974413531431
-0.28670000000000007,-0.04582249900262853
-0.28569999999999995,0.08502414912188871
-0.28470000000000006,0.21588494435940458
-0.28369999999999995,0.3467457395969205
-0.28270000000000006,0.4776065348344364
-0.28169999999999995,0.6084673300719523
-0.28070000000000006,0.6956135461436386
-0.27969999999999995,0.7829012333453113
-0.27870000000000006,0.9137620285828272
-0.27769999999999995,1.0010497157844997
-0.27670000000000006,1.0446228238203432
-0.27569999999999995,1.175483619057859
-0.27470000000000006,1.219056727093702
-0.27369999999999994,1.349917522331218
-0.27270000000000005,1.4373466806628774
-0.27169999999999994,1.5250587812545096
-0.27070000000000005,1.655212220842093
-0.26969999999999994,1.7429243214337253
-0.26870000000000005,1.8292217107254924
-0.26769999999999994,1.9169338113171246
-0.26670000000000005,2.004645911908757
