Potential V vs RHE, Current mA cm-2
0.013299999999999867,-0.4621861816659074
0.012299999999999978,-0.924089421071842
0.011299999999999866,-1.1116801394339457
0.010299999999999976,-1.2395700409417452
0.009299999999999864,-1.3588302035203679
0.008299999999999974,-1.4684703292599082
0.007299999999999862,-1.5660854089505953
0.006299999999999972,-1.6495533756426328
0.00529999999999986,-1.7202889406358846
0.0042999999999999705,-1.8080010412275167
0.0032999999999998586,-1.9042014096183393
0.0022999999999999687,-1.9947429328097017
0.0012999999999998568,-2.079625610801604
0.00029999999999996696,-2.1602641548939108
-0.000700000000000145,-2.260708657184329
-0.0017000000000000348,-2.3781296950731265
-0.0027000000000001467,-2.4884771764625997
-0.0037000000000000366,-2.591751101352747
-0.0047000000000001485,-2.70209858274222
-0.005700000000000038,-2.822349043230748
-0.00670000000000015,-2.975137863616172
-0.00770000000000004,-3.1095354371033506
-0.008700000000000152,-3.2510065670898545
-0.009700000000000042,-3.3953071196760884
-0.010700000000000154,-3.556584207860702
-0.011700000000000044,-3.7291789864442366
-0.012700000000000156,-3.9046031876275014
-0.013700000000000045,-4.072953832311441
-0.014700000000000157,-4.2483780334947046
-0.015700000000000047,-4.43511992507689
-0.01670000000000016,-4.636008929657725
-0.01770000000000005,-4.849630335937346
-0.01870000000000016,-5.032128093619936
-0.01970000000000005,-5.23018767560104
-0.020700000000000163,-5.432491391481741
-0.021700000000000053,-5.646112797761361
-0.022700000000000164,-5.871051894439902
-0.023700000000000054,-6.067696765121143
-0.024700000000000166,-6.2756593262013025
-0.025700000000000056,-6.487866021181058
-0.026700000000000168,-6.684510891862298
-0.027700000000000058,-6.903791143341379
-0.02870000000000017,-7.099021302722755
-0.02970000000000006,-7.284348483005074
-0.03070000000000017,-7.479578642386449
-0.03170000000000006,-7.671979379168095
-0.03270000000000017,-7.864380115949738
-0.03370000000000006,-8.029901338033948
-0.034700000000000175,-8.191178426218563
-0.035700000000000065,-8.349626091803447
-0.03670000000000018,-8.534953272085767
-0.03770000000000007,-8.679253824672001
-0.03870000000000018,-8.820724954658504
-0.03970000000000007,-8.938145992547302
-0.04070000000000018,-9.093764235532456
-0.04170000000000007,-9.225332386419904
-0.04270000000000018,-9.359729959907083
-0.04370000000000007,-9.463003884797232
-0.044700000000000184,-9.564863098387514
-0.045700000000000074,-9.670966445877392
-0.046700000000000186,-9.795461040265515
-0.047700000000000076,-9.900149676455525
-0.04870000000000019,-9.98503235444743
-0.04970000000000008,-10.085476856737847
-0.05070000000000019,-10.154797710431232
-0.05170000000000008,-10.253827501421785
-0.05270000000000019,-10.334466045514093
-0.05370000000000008,-10.386810363609099
-0.05470000000000019,-10.45754592860235
-0.05570000000000008,-10.512719669297088
-0.056700000000000195,-10.570722832591555
-0.057700000000000085,-10.642873108884672
-0.058700000000000196,-10.706535117378598
-0.059700000000000086,-10.750391167674413
-0.0607000000000002,-10.792832506670365
-0.06170000000000009,-10.83668855696618
-0.0627000000000002,-10.872056339462807
-0.06370000000000009,-10.862153360363752
-0.0647000000000002,-10.860738649063887
-0.06570000000000009,-10.896106431560511
-0.0667000000000002,-10.921571234958083
-0.0677000000000001,-10.9654272852539
-0.0687000000000002,-10.947036038355654
-0.0697000000000001,-10.921571234958083
-0.07070000000000021,-10.886203452461459
-0.0717000000000001,-10.864982782963482
-0.07270000000000021,-10.853665092564562
-0.0737000000000001,-10.805564908369151
-0.07470000000000021,-10.756050012873873
-0.0757000000000001,-10.705120406078734
-0.07670000000000021,-10.666923200982376
-0.0777000000000001,-10.606090615088178
-0.07870000000000021,-10.533940338795064
-0.0797000000000001,-10.44622823820343
-0.08070000000000022,-10.355686715012068
-0.0817000000000001,-10.316074798615848
-0.08270000000000022,-10.208556739826104
-0.08370000000000011,-10.113771082735147
-0.08470000000000022,-10.003423601345673
-0.08570000000000011,-9.897320253855797
-0.08670000000000022,-9.806778730664435
-0.08770000000000011,-9.710578362273612
-0.08870000000000022,-9.594572035684678
-0.08970000000000011,-9.475736286496016
-0.09070000000000022,-9.363974093806679
-0.09170000000000011,-9.270603148015587
-0.09270000000000023,-9.157426244026382
-0.09370000000000012,-9.030102227038528
-0.09470000000000023,-8.90419292135054
-0.09570000000000012,-8.783942460862013
-0.09670000000000023,-8.699059782870112
-0.09770000000000012,-8.598615280579693
-0.09870000000000023,-8.472705974891705
-0.09970000000000012,-8.335478978804796
-0.10070000000000023,-8.218057940915998
-0.10170000000000012,-8.09780748042747
-0.10270000000000024,-7.9945335555373225
-0.10370000000000013,-7.858721270750279
-0.10470000000000024,-7.734226676362156
-0.10570000000000013,-7.622464483672818
-0.10670000000000024,-7.510702290983478
-0.10770000000000013,-7.430063746891172
-0.10870000000000024,-7.2928367508042635
-0.10970000000000013,-7.165512733816411
-0.11070000000000024,-7.063653520226129
-0.11170000000000013,-6.960379595335981
-0.11270000000000002,-6.872667494744348
-0.11370000000000013,-6.76373472465474
-0.11470000000000002,-6.654801954565133
-0.11570000000000014,-6.54728389577539
-0.11670000000000003,-6.460986506483622
-0.11770000000000014,-6.3803479623913155
-0.11870000000000003,-6.294050573099549
-0.11970000000000014,-6.192191359509266
-0.12070000000000003,-6.125699928415609
-0.12170000000000014,-6.066282053821277
-0.12270000000000003,-5.984228798429105
-0.12370000000000014,-5.923396212534908
-0.12470000000000003,-5.8427576684426015
-0.12570000000000014,-5.77768094864881
-0.12670000000000003,-5.736654320952724
-0.12770000000000015,-5.672992312458796
-0.12870000000000004,-5.613574437864465
-0.12970000000000015,-5.547083006770809
-0.13070000000000004,-5.491909266076072
-0.13170000000000015,-5.467859173978367
-0.13270000000000004,-5.440979659280932
-0.13370000000000015,-5.385805918586194
-0.13470000000000004,-5.337705734390783
-0.13570000000000015,-5.282531993696048
-0.13670000000000004,-5.249993633799152
-0.13770000000000016,-5.2188699852021205
-0.13870000000000005,-5.158037399307924
-0.13970000000000016,-5.102863658613187
-0.14070000000000005,-5.051934051818047
-0.14170000000000016,-5.006663290222365
-0.14270000000000005,-4.959977817326819
-0.14370000000000016,-4.877924561934646
-0.14470000000000005,-4.783138904843689
-0.14570000000000016,-4.698256226851787
-0.14670000000000005,-4.610544126260154
-0.14770000000000016,-4.5171731804690625
-0.14870000000000005,-4.405410987779724
-0.14970000000000017,-4.265354569093086
-0.15070000000000006,-4.147933531204288
-0.15170000000000017,-4.026268359415894
-0.15270000000000006,-3.9088473215270967
-0.15370000000000017,-3.7786938819395126
-0.15470000000000006,-3.6315639067535495
-0.15570000000000017,-3.502825178465831
-0.15670000000000006,-3.3981365422758185
-0.15770000000000017,-3.287789060886346
-0.15870000000000006,-3.1845151359961976
-0.15970000000000018,-3.069923520707129
-0.16070000000000007,-2.9850408427152275
-0.16170000000000018,-2.9369406585198163
-0.16270000000000007,-2.8831816291249446
-0.16370000000000018,-2.822349043230748
-0.16470000000000007,-2.767175302536012
-0.16570000000000018,-2.7134162731411404
-0.16670000000000007,-2.69926916014249
-0.16770000000000018,-2.6723896454450546
-0.16870000000000007,-2.6497542646472136
-0.16970000000000018,-2.621460038649913
-0.17070000000000007,-2.590336390052882
-0.17170000000000019,-2.591751101352747
-0.17270000000000008,-2.587506967453152
-0.1737000000000002,-2.5662862979551764
-0.17470000000000008,-2.5563833188561214
-0.1757000000000002,-2.543650917157336
-0.17670000000000008,-2.549309762356796
-0.1777000000000002,-2.5592127414558514
-0.17870000000000008,-2.549309762356796
-0.1797000000000002,-2.542236205857471
-0.18070000000000008,-2.543650917157336
-0.1817000000000002,-2.546480339757066
-0.18270000000000008,-2.5662862979551764
-0.1837000000000002,-2.5592127414558514
-0.1847000000000001,-2.549309762356796
-0.1857000000000002,-2.5592127414558514
-0.1867000000000001,-2.5677010092550416
-0.1877000000000002,-2.5931658126526123
-0.1887000000000001,-2.5945805239524775
-0.1897000000000002,-2.591751101352747
-0.1907000000000001,-2.6016540804518025
-0.1917000000000001,-2.6172159047503176
-0.19269999999999998,-2.639851285548158
-0.1937000000000001,-2.648339553347349
-0.19469999999999998,-2.641265996848024
-0.1957000000000001,-2.6511689759470785
-0.19669999999999999,-2.6822926245441097
-0.1977000000000001,-2.7077574279416803
-0.1987,-2.7233192522401954
-0.1997000000000001,-2.7176604070407357
-0.2007,-2.7360516539389814
-0.2017000000000001,-2.765760591236147
-0.2027,-2.7926401059335824
-0.2037000000000001,-2.813860775431558
-0.2047,-2.819519620631018
-0.2057000000000001,-2.833666733629668
-0.2067,-2.8732786500258896
-0.2077000000000001,-2.90157287602319
-0.2087,-2.9171347003217054
-0.2097000000000001,-2.927037679420761
-0.2107,-2.941184792419411
-0.2117000000000001,-2.9850408427152275
-0.2127,-3.0274821817111786
-0.2137000000000001,-3.043044006009694
-0.2147,-3.0685088094072643
-0.2157000000000001,-3.1081207258034858
-0.2167,-3.1279266840015962
-0.21770000000000012,-3.1816857133964676
-0.2187,-3.193003403795388
-0.21970000000000012,-3.207150516794038
-0.2207,-3.2425182992906643
-0.22170000000000012,-3.28071550438702
-0.2227,-3.3316451111821612
-0.22370000000000012,-3.355695203279867
-0.2247,-3.3655981823789225
-0.22570000000000012,-3.415113077874199
-0.2267,-3.453310282970554
-0.22770000000000012,-3.4971663332663705
-0.22870000000000001,-3.542437094862052
-0.22970000000000013,-3.5650724756598926
-0.23070000000000002,-3.6046843920561136
-0.23170000000000013,-3.644296308452334
-0.23270000000000002,-3.700884760446936
-0.23370000000000013,-3.7433260994428865
-0.23470000000000002,-3.7631320576409975
-0.23570000000000013,-3.7970851288377587
-0.23670000000000002,-3.855088292132225
-0.2376999999999999,-3.906017898927366
-0.23870000000000002,-3.9498739492231825
-0.2396999999999999,-3.9682651961214277
-0.24070000000000003,-4.01636538031684
-0.24169999999999991,-4.075783254911171
-0.24270000000000003,-4.121054016506851
-0.24369999999999992,-4.166324778102533
-0.24470000000000003,-4.1960337153996985
-0.24569999999999992,-4.238475054395651
-0.24670000000000003,-4.296478217690116
-0.24769999999999992,-4.350237247084988
-0.24870000000000003,-4.387019740881478
-0.24969999999999992,-4.422387523378105
-0.25070000000000003,-4.453511171975136
-0.2516999999999999,-4.510099623969737
-0.25270000000000004,-4.565273364664473
-0.2536999999999999,-4.6020558584609645
-0.25470000000000004,-4.640253063557321
-0.2556999999999999,-4.669962000854486
-0.25670000000000004,-4.723721030249357
-0.25769999999999993,-4.785968327443419
-0.25870000000000004,-4.804359574341665
-0.25969999999999993,-4.83406851163883
-0.26070000000000004,-4.866606871535726
-0.26169999999999993,-4.907633499231812
-0.26270000000000004,-4.964221951226414
-0.26369999999999993,-4.976954352925199
-0.26470000000000005,-4.99958973372304
-0.26569999999999994,-5.027883959720341
-0.26670000000000005,-5.071740010016156
-0.26769999999999994,-5.104278369913052
-0.26870000000000005,-5.129743173310623
-0.26969999999999994,-5.136816729809948
-0.27070000000000005,-5.156622688008059
-0.27169999999999994,-5.17642864620617
-0.27270000000000005,-5.2061375835033346
-0.27369999999999994,-5.22735825300131
-0.27470000000000006,-5.217455273902255
-0.27569999999999995,-5.228772964301175
-0.27670000000000006,-5.252823056398881
-0.27769999999999995,-5.276873148496587
-0.27870000000000006,-5.285361416295777
-0.27969999999999995,-5.276873148496587
-0.28070000000000006,-5.285361416295777
-0.28169999999999995,-5.307996797093617
-0.28270000000000006,-5.319314487492538
-0.28369999999999995,-5.323558621392133
-0.28470000000000006,-5.319314487492538
-0.28569999999999995,-5.3178997761926725
-0.28670000000000007,-5.347608713489839
-0.28769999999999996,-5.373073516887409
-0.28870000000000007,-5.3759029394871405
-0.28969999999999996,-5.371658805587544
-0.29070000000000007,-5.388635341185925
-0.29169999999999996,-5.414100144583495
-0.29270000000000007,-5.448053215780256
-0.29369999999999996,-5.456541483579446
-0.2947000000000001,-5.482006286977017
-0.29569999999999996,-5.498982822575398
-0.2967000000000001,-5.524447625972968
-0.29769999999999996,-5.585280211867165
-0.2987000000000001,-5.596597902266086
-0.29969999999999997,-5.617818571764061
-0.3007000000000001,-5.664504044659607
-0.30169999999999997,-5.6984571158563675
-0.3027000000000001,-5.752216145251239
-0.30369999999999997,-5.77768094864881
-0.3047000000000001,-5.7960721955470555
-0.30569999999999997,-5.83143997804368
-0.3067000000000001,-5.871051894439902
-0.3077,-5.923396212534908
-0.3087000000000001,-5.9601787063314
-0.3097,-5.970081685430455
-0.3107000000000001,-6.008278890526811
-0.3117,-6.045061384323302
-0.3127000000000001,-6.081843878119792
-0.3137,-6.108723392817228
-0.3147000000000001,-6.1186263719162834
-0.3157,-6.1511647318131795
-0.3167000000000001,-6.192191359509266
-0.3177,-6.221900296806432
-0.3187000000000001,-6.254438656703328
-0.3197,-6.262926924502518
-0.3207000000000001,-6.285562305300359
-0.3217,-6.322344799096849
-0.3227000000000001,-6.352053736394015
-0.3237,-6.371859694592125
-0.3247000000000001,-6.386006807590776
-0.3257,-6.400153920589426
-0.3267000000000001,-6.438351125685783
-0.3277,-6.473718908182407
-0.3287000000000001,-6.490695443780789
-0.3297,-6.503427845479574
-0.3307000000000001,-6.5246485149775495
-0.3317,-6.55011331837512
-0.3327000000000001,-6.591139946071206
-0.3337,-6.5967987912706665
-0.3347000000000001,-6.625093017267967
-0.3357,-6.632166573767292
-0.3367000000000001,-6.674607912763243
-0.3377,-6.7085609839600036
-0.3387000000000001,-6.724122808258519
-0.3397,-6.736855209957304
-0.3407000000000001,-6.766564147254471
-0.3417,-6.796273084551637
-0.3427000000000001,-6.835885000947857
-0.3437,-6.852861536546238
-0.3447000000000001,-6.867008649544887
-0.3457,-6.893888164242324
-0.3467000000000001,-6.927841235439085
-0.3477,-6.963209017935711
-0.3487000000000001,-6.987259110033416
-0.3497,-6.999991511732201
-0.3507000000000001,-7.028285737729503
-0.3517,-7.063653520226129
-0.3527000000000001,-7.106094859222079
-0.3537,-7.130144951319785
-0.3547000000000001,-7.137218507819109
-0.3557,-7.174001001615601
-0.35670000000000013,-7.213612918011822
-0.3577,-7.256054257007774
-0.35870000000000013,-7.280104349105479
-0.3597,-7.306983863802915
-0.36070000000000013,-7.3197162655017
-0.3617,-7.369231160996977
-0.3626999999999999,-7.411672499992927
-0.3637,-7.4427961485899585
-0.3646999999999999,-7.466846240687664
-0.3657,-7.497969889284694
-0.3666999999999999,-7.551728918679565
-0.3677,-7.589926123775921
-0.3686999999999999,-7.630952751472008
-0.36970000000000003,-7.6592469774693095
-0.3706999999999999,-7.693200048666069
-0.37170000000000003,-7.742714944161346
-0.3726999999999999,-7.7978886848560816
-0.37370000000000003,-7.837500601252304
-0.3746999999999999,-7.870038961149199
-0.37570000000000003,-7.916724434044746
-0.3766999999999999,-7.967654040839887
-0.37770000000000004,-8.029901338033948
-0.3786999999999999,-8.069513254430168
-0.37970000000000004,-8.110539882126256
-0.3806999999999999,-8.161469488921396
-0.38170000000000004,-8.219472652215863
-0.38269999999999993,-8.28030523811006
-0.38370000000000004,-8.325575999705741
-0.38469999999999993,-8.370846761301422
-0.38570000000000004,-8.428849924595887
-0.38669999999999993,-7.602658525474708
-0.38570000000000004,-7.070727076725453
-0.38469999999999993,-6.77222299245393
-0.38370000000000004,-6.502013134179709
-0.38269999999999993,-6.245950388904137
-0.38170000000000004,-6.016767158326001
-0.3806999999999999,-5.811634019845571
-0.37970000000000004,-5.585280211867165
-0.3786999999999999,-5.377317650787004
-0.37770000000000004,-5.17642864620617
-0.3766999999999999,-4.996760311123309
-0.37570000000000003,-4.836897934238561
-0.3746999999999999,-4.66005902175543
-0.37370000000000003,-4.4846348205721664
-0.3726999999999999,-4.329016577587013
-0.37170000000000003,-4.180471891101184
-0.3706999999999999,-4.051733162813465
-0.36970000000000003,-3.901773765027771
-0.3686999999999999,-3.7574732124415373
-0.3677,-3.630149195453684
-0.3666999999999999,-3.5169722914644814
-0.3657,-3.402380676175413
-0.3646999999999999,-3.2906184834860754
-0.3637,-3.161879755198357
-0.3626999999999999,-3.054361696408614
-0.3617,-2.9624054619173865
-0.36070000000000013,-2.864790382226699
-0.3597,-2.7742488590353367
-0.35870000000000013,-2.6681455115454593
-0.3577,-2.5747745657543666
-0.35670000000000013,-2.49696544426179
-0.3557,-2.4191563227692128
-0.3547000000000001,-2.3441766238763657
-0.3537,-2.2479762554855434
-0.3527000000000001,-2.1659230000933714
-0.3517,-2.1065051254990395
-0.3507000000000001,-2.0414284057052483
-0.3497,-1.9664487068124006
-0.3487000000000001,-1.890054296619689
-0.3477,-1.8207334429263025
-0.3467000000000001,-1.766974413531431
-0.3457,-1.7202889406358846
-0.3447000000000001,-1.6523827982423631
-0.3437,-1.5901355010483011
-0.3427000000000001,-1.5264734925543744
-0.3417,-1.4812027309586933
-0.3407000000000001,-1.4430055258623373
-0.3397,-1.383870593527979
-0.3387000000000001,-1.3264333147534584
-0.3377,-1.2769184192581822
-0.3367000000000001,-1.2289597061927575
-0.3357,-1.2026460760152677
-0.3347000000000001,-1.1514335269601534
-0.3337,-1.0947036038355653
-0.3327000000000001,-1.0553746296993174
-0.3317,-1.0149138865231773
-0.3307000000000001,-0.9917126212053906
-0.3297,-0.9518177625491967
-0.3287000000000001,-0.8977757908943523
-0.3277,-0.8641056619575644
-0.3267000000000001,-0.8335478978804797
-0.3257,-0.8049707296232058
-0.3247000000000001,-0.7754032634560265
-0.3237,-0.7267371947406693
-0.3227000000000001,-0.6957550172736251
-0.3217,-0.6736855209957305
-0.3207000000000001,-0.6503427845479574
-0.3197,-0.621341202900724
-0.3187000000000001,-0.5813048731145436
-0.3177,-0.5443809081880661
-0.3167000000000001,-0.5293849684094968
-0.3157,-0.5118425482911703
-0.3147000000000001,-0.48878275410337013
-0.3137,-0.4484634820572166
-0.3127000000000001,-0.41818866024010487
-0.3117,-0.4072953832311441
-0.3107000000000001,-0.39357268362245323
-0.3097,-0.3655613998851255
-0.3087000000000001,-0.3378330584077708
-0.3077,-0.30600205416080745
-0.3067000000000001,-0.2966649595816982
-0.30569999999999997,-0.28775227839254847
-0.3047000000000001,-0.2637021862948429
-0.30369999999999997,-0.23413472012766354
-0.3027000000000001,-0.20923580125003893
-0.30169999999999997,-0.19777663972113213
-0.3007000000000001,-0.19126896774175295
-0.29969999999999997,-0.17089712502369644
-0.2987000000000001,-0.14430055258623375
-0.29769999999999996,-0.12249985145531352
-0.2967000000000001,-0.11142266197737029
-0.29569999999999996,-0.10930059502757274
-0.2947000000000001,-0.09233820654219095
-0.29369999999999996,-0.06088917434619118
-0.29270000000000007,-0.04603470569760829
-0.29169999999999996,-0.03422186634373524
-0.29070000000000007,-0.036598581327508505
-0.28969999999999996,-0.022564645232847336
-0.28870000000000007,0.012299500041026628
-0.28769999999999996,0.021461170418952607
-0.28670000000000007,0.02802543085032638
-0.28569999999999995,0.034278454795729836
-0.28470000000000006,0.04527076159568117
-0.28369999999999995,0.07580023144676866
-0.28270000000000006,0.0846846184099211
-0.28169999999999995,0.09014540402740015
-0.28070000000000006,0.09537983583690077
-0.27969999999999995,0.10253827501421786
-0.27870000000000006,0.12818699088077098
-0.27769999999999995,0.14529085049613927
-0.27670000000000006,0.1437346680662877
-0.27569999999999995,0.1467055617960043
-0.27470000000000006,0.15476941620523502
-0.27369999999999994,0.17881950830294063
-0.27270000000000005,0.19636192842126707
-0.27169999999999994,0.192966621301591
-0.27070000000000005,0.19169338113171247
-0.26969999999999994,0.20555755187038985
-0.26870000000000005,0.22210967407881074
-0.26769999999999994,0.24007650758709673
-0.26670000000000005,0.2426229879268538
