Apr. 2, 2025   01:35:12
Cyclic Voltammetry
File: c:/users/guazh/data/banditlqround7_x0exp518_r20/2025-03-28-exp1015\exp1015-2025-04-02t01_25_16-arkoh\exp1015_cv_sr_200mvs_efin_-1500mv.bin
Data Source:  Experiment
Instrument Model:  CHI760E
Header: CV ran at 200 mVs
Note: 

Init E (V) = -1
High E (V) = -1
Low E (V) = -1.5
Final E (V) = -1
Init P/N = N
Scan Rate (V/s) = 0.2
Segment = 3
Sample Interval (V) = 0.001
Quiet Time (sec) = 2
Sensitivity (A/V) = 0.01
Comp R (ohm) = 1.6

Results:

Channel 1:
Segment 1:

Segment 2:

Segment 3:

Potential/V, Current/A

-1.000, -2.706e-5
-1.001, 8.142e-5
-1.002, 1.515e-4
-1.003, 1.990e-4
-1.004, 2.457e-4
-1.005, 2.857e-4
-1.006, 3.126e-4
-1.007, 3.411e-4
-1.008, 3.729e-4
-1.009, 3.942e-4
-1.010, 4.124e-4
-1.011, 4.380e-4
-1.012, 4.593e-4
-1.013, 4.718e-4
-1.014, 4.938e-4
-1.015, 5.158e-4
-1.016, 5.261e-4
-1.017, 5.427e-4
-1.018, 5.662e-4
-1.019, 5.803e-4
-1.020, 5.937e-4
-1.021, 6.147e-4
-1.022, 6.307e-4
-1.023, 6.411e-4
-1.024, 6.619e-4
-1.025, 6.827e-4
-1.026, 6.951e-4
-1.027, 7.098e-4
-1.028, 7.326e-4
-1.029, 7.455e-4
-1.030, 7.582e-4
-1.031, 7.813e-4
-1.032, 7.993e-4
-1.033, 8.113e-4
-1.034, 8.332e-4
-1.035, 8.554e-4
-1.036, 8.665e-4
-1.037, 8.827e-4
-1.038, 9.074e-4
-1.039, 9.223e-4
-1.040, 9.355e-4
-1.041, 9.583e-4
-1.042, 9.758e-4
-1.043, 9.877e-4
-1.044, 1.009e-3
-1.045, 1.030e-3
-1.046, 1.042e-3
-1.047, 1.059e-3
-1.048, 1.082e-3
-1.049, 1.096e-3
-1.050, 1.108e-3
-1.051, 1.130e-3
-1.052, 1.147e-3
-1.053, 1.157e-3
-1.054, 1.176e-3
-1.055, 1.196e-3
-1.056, 1.204e-3
-1.057, 1.218e-3
-1.058, 1.238e-3
-1.059, 1.248e-3
-1.060, 1.258e-3
-1.061, 1.275e-3
-1.062, 1.287e-3
-1.063, 1.294e-3
-1.064, 1.310e-3
-1.065, 1.326e-3
-1.066, 1.331e-3
-1.067, 1.341e-3
-1.068, 1.357e-3
-1.069, 1.364e-3
-1.070, 1.369e-3
-1.071, 1.383e-3
-1.072, 1.391e-3
-1.073, 1.393e-3
-1.074, 1.403e-3
-1.075, 1.415e-3
-1.076, 1.414e-3
-1.077, 1.415e-3
-1.078, 1.426e-3
-1.079, 1.427e-3
-1.080, 1.426e-3
-1.081, 1.434e-3
-1.082, 1.435e-3
-1.083, 1.429e-3
-1.084, 1.434e-3
-1.085, 1.437e-3
-1.086, 1.429e-3
-1.087, 1.424e-3
-1.088, 1.427e-3
-1.089, 1.419e-3
-1.090, 1.411e-3
-1.091, 1.413e-3
-1.092, 1.408e-3
-1.093, 1.397e-3
-1.094, 1.393e-3
-1.095, 1.390e-3
-1.096, 1.376e-3
-1.097, 1.367e-3
-1.098, 1.366e-3
-1.099, 1.354e-3
-1.100, 1.341e-3
-1.101, 1.335e-3
-1.102, 1.326e-3
-1.103, 1.309e-3
-1.104, 1.304e-3
-1.105, 1.299e-3
-1.106, 1.281e-3
-1.107, 1.267e-3
-1.108, 1.262e-3
-1.109, 1.245e-3
-1.110, 1.228e-3
-1.111, 1.221e-3
-1.112, 1.209e-3
-1.113, 1.190e-3
-1.114, 1.178e-3
-1.115, 1.167e-3
-1.116, 1.148e-3
-1.117, 1.131e-3
-1.118, 1.122e-3
-1.119, 1.105e-3
-1.120, 1.082e-3
-1.121, 1.073e-3
-1.122, 1.057e-3
-1.123, 1.034e-3
-1.124, 1.022e-3
-1.125, 1.009e-3
-1.126, 9.869e-4
-1.127, 9.702e-4
-1.128, 9.600e-4
-1.129, 9.405e-4
-1.130, 9.192e-4
-1.131, 9.090e-4
-1.132, 8.942e-4
-1.133, 8.712e-4
-1.134, 8.592e-4
-1.135, 8.488e-4
-1.136, 8.271e-4
-1.137, 8.117e-4
-1.138, 8.048e-4
-1.139, 7.862e-4
-1.140, 7.696e-4
-1.141, 7.613e-4
-1.142, 7.486e-4
-1.143, 7.297e-4
-1.144, 7.207e-4
-1.145, 7.134e-4
-1.146, 6.956e-4
-1.147, 6.835e-4
-1.148, 6.796e-4
-1.149, 6.655e-4
-1.150, 6.516e-4
-1.151, 6.486e-4
-1.152, 6.398e-4
-1.153, 6.241e-4
-1.154, 6.196e-4
-1.155, 6.158e-4
-1.156, 6.021e-4
-1.157, 5.936e-4
-1.158, 5.932e-4
-1.159, 5.832e-4
-1.160, 5.720e-4
-1.161, 5.718e-4
-1.162, 5.661e-4
-1.163, 5.536e-4
-1.164, 5.517e-4
-1.165, 5.497e-4
-1.166, 5.383e-4
-1.167, 5.323e-4
-1.168, 5.331e-4
-1.169, 5.247e-4
-1.170, 5.160e-4
-1.171, 5.166e-4
-1.172, 5.129e-4
-1.173, 5.021e-4
-1.174, 5.023e-4
-1.175, 5.015e-4
-1.176, 4.904e-4
-1.177, 4.870e-4
-1.178, 4.885e-4
-1.179, 4.806e-4
-1.180, 4.737e-4
-1.181, 4.760e-4
-1.182, 4.725e-4
-1.183, 4.638e-4
-1.184, 4.630e-4
-1.185, 4.643e-4
-1.186, 4.557e-4
-1.187, 4.517e-4
-1.188, 4.566e-4
-1.189, 4.495e-4
-1.190, 4.435e-4
-1.191, 4.458e-4
-1.192, 4.418e-4
-1.193, 4.328e-4
-1.194, 4.335e-4
-1.195, 4.343e-4
-1.196, 4.257e-4
-1.197, 4.230e-4
-1.198, 4.274e-4
-1.199, 4.226e-4
-1.200, 4.170e-4
-1.201, 4.216e-4
-1.202, 4.192e-4
-1.203, 4.110e-4
-1.204, 4.120e-4
-1.205, 4.130e-4
-1.206, 4.060e-4
-1.207, 4.035e-4
-1.208, 4.066e-4
-1.209, 4.020e-4
-1.210, 3.954e-4
-1.211, 3.992e-4
-1.212, 3.983e-4
-1.213, 3.897e-4
-1.214, 3.917e-4
-1.215, 3.935e-4
-1.216, 3.848e-4
-1.217, 3.832e-4
-1.218, 3.883e-4
-1.219, 3.824e-4
-1.220, 3.777e-4
-1.221, 3.809e-4
-1.222, 3.799e-4
-1.223, 3.719e-4
-1.224, 3.734e-4
-1.225, 3.754e-4
-1.226, 3.677e-4
-1.227, 3.660e-4
-1.228, 3.713e-4
-1.229, 3.680e-4
-1.230, 3.617e-4
-1.231, 3.646e-4
-1.232, 3.628e-4
-1.233, 3.554e-4
-1.234, 3.579e-4
-1.235, 3.593e-4
-1.236, 3.521e-4
-1.237, 3.503e-4
-1.238, 3.552e-4
-1.239, 3.497e-4
-1.240, 3.443e-4
-1.241, 3.501e-4
-1.242, 3.482e-4
-1.243, 3.401e-4
-1.244, 3.442e-4
-1.245, 3.455e-4
-1.246, 3.392e-4
-1.247, 3.388e-4
-1.248, 3.428e-4
-1.249, 3.375e-4
-1.250, 3.336e-4
-1.251, 3.373e-4
-1.252, 3.367e-4
-1.253, 3.300e-4
-1.254, 3.329e-4
-1.255, 3.355e-4
-1.256, 3.285e-4
-1.257, 3.274e-4
-1.258, 3.319e-4
-1.259, 3.273e-4
-1.260, 3.241e-4
-1.261, 3.289e-4
-1.262, 3.280e-4
-1.263, 3.218e-4
-1.264, 3.252e-4
-1.265, 3.274e-4
-1.266, 3.209e-4
-1.267, 3.207e-4
-1.268, 3.264e-4
-1.269, 3.212e-4
-1.270, 3.184e-4
-1.271, 3.237e-4
-1.272, 3.227e-4
-1.273, 3.171e-4
-1.274, 3.208e-4
-1.275, 3.230e-4
-1.276, 3.179e-4
-1.277, 3.174e-4
-1.278, 3.228e-4
-1.279, 3.192e-4
-1.280, 3.168e-4
-1.281, 3.222e-4
-1.282, 3.212e-4
-1.283, 3.156e-4
-1.284, 3.205e-4
-1.285, 3.228e-4
-1.286, 3.173e-4
-1.287, 3.184e-4
-1.288, 3.231e-4
-1.289, 3.193e-4
-1.290, 3.168e-4
-1.291, 3.227e-4
-1.292, 3.228e-4
-1.293, 3.176e-4
-1.294, 3.219e-4
-1.295, 3.255e-4
-1.296, 3.199e-4
-1.297, 3.213e-4
-1.298, 3.267e-4
-1.299, 3.233e-4
-1.300, 3.222e-4
-1.301, 3.277e-4
-1.302, 3.280e-4
-1.303, 3.240e-4
-1.304, 3.282e-4
-1.305, 3.314e-4
-1.306, 3.271e-4
-1.307, 3.289e-4
-1.308, 3.357e-4
-1.309, 3.324e-4
-1.310, 3.305e-4
-1.311, 3.375e-4
-1.312, 3.375e-4
-1.313, 3.337e-4
-1.314, 3.388e-4
-1.315, 3.424e-4
-1.316, 3.388e-4
-1.317, 3.404e-4
-1.318, 3.471e-4
-1.319, 3.452e-4
-1.320, 3.430e-4
-1.321, 3.505e-4
-1.322, 3.515e-4
-1.323, 3.484e-4
-1.324, 3.539e-4
-1.325, 3.574e-4
-1.326, 3.541e-4
-1.327, 3.568e-4
-1.328, 3.636e-4
-1.329, 3.621e-4
-1.330, 3.621e-4
-1.331, 3.692e-4
-1.332, 3.708e-4
-1.333, 3.674e-4
-1.334, 3.739e-4
-1.335, 3.795e-4
-1.336, 3.759e-4
-1.337, 3.793e-4
-1.338, 3.865e-4
-1.339, 3.851e-4
-1.340, 3.856e-4
-1.341, 3.937e-4
-1.342, 3.958e-4
-1.343, 3.937e-4
-1.344, 4.006e-4
-1.345, 4.065e-4
-1.346, 4.035e-4
-1.347, 4.079e-4
-1.348, 4.161e-4
-1.349, 4.145e-4
-1.350, 4.159e-4
-1.351, 4.247e-4
-1.352, 4.267e-4
-1.353, 4.266e-4
-1.354, 4.336e-4
-1.355, 4.395e-4
-1.356, 4.390e-4
-1.357, 4.434e-4
-1.358, 4.526e-4
-1.359, 4.522e-4
-1.360, 4.536e-4
-1.361, 4.638e-4
-1.362, 4.670e-4
-1.363, 4.668e-4
-1.364, 4.761e-4
-1.365, 4.826e-4
-1.366, 4.812e-4
-1.367, 4.875e-4
-1.368, 4.972e-4
-1.369, 4.977e-4
-1.370, 5.014e-4
-1.371, 5.113e-4
-1.372, 5.159e-4
-1.373, 5.166e-4
-1.374, 5.262e-4
-1.375, 5.337e-4
-1.376, 5.346e-4
-1.377, 5.410e-4
-1.378, 5.520e-4
-1.379, 5.539e-4
-1.380, 5.581e-4
-1.381, 5.690e-4
-1.382, 5.756e-4
-1.383, 5.779e-4
-1.384, 5.879e-4
-1.385, 5.966e-4
-1.386, 5.979e-4
-1.387, 6.060e-4
-1.388, 6.181e-4
-1.389, 6.203e-4
-1.390, 6.256e-4
-1.391, 6.391e-4
-1.392, 6.450e-4
-1.393, 6.487e-4
-1.394, 6.608e-4
-1.395, 6.709e-4
-1.396, 6.742e-4
-1.397, 6.829e-4
-1.398, 6.963e-4
-1.399, 7.016e-4
-1.400, 7.078e-4
-1.401, 7.215e-4
-1.402, 7.303e-4
-1.403, 7.347e-4
-1.404, 7.474e-4
-1.405, 7.583e-4
-1.406, 7.637e-4
-1.407, 7.752e-4
-1.408, 7.891e-4
-1.409, 7.956e-4
-1.410, 8.049e-4
-1.411, 8.209e-4
-1.412, 8.310e-4
-1.413, 8.366e-4
-1.414, 8.507e-4
-1.415, 8.641e-4
-1.416, 8.709e-4
-1.417, 8.843e-4
-1.418, 9.009e-4
-1.419, 9.082e-4
-1.420, 9.171e-4
-1.421, 9.340e-4
-1.422, 9.462e-4
-1.423, 9.539e-4
-1.424, 9.700e-4
-1.425, 9.860e-4
-1.426, 9.937e-4
-1.427, 1.006e-3
-1.428, 1.025e-3
-1.429, 1.034e-3
-1.430, 1.046e-3
-1.431, 1.066e-3
-1.432, 1.079e-3
-1.433, 1.089e-3
-1.434, 1.106e-3
-1.435, 1.122e-3
-1.436, 1.130e-3
-1.437, 1.145e-3
-1.438, 1.164e-3
-1.439, 1.176e-3
-1.440, 1.188e-3
-1.441, 1.208e-3
-1.442, 1.220e-3
-1.443, 1.229e-3
-1.444, 1.249e-3
-1.445, 1.266e-3
-1.446, 1.277e-3
-1.447, 1.293e-3
-1.448, 1.312e-3
-1.449, 1.324e-3
-1.450, 1.336e-3
-1.451, 1.357e-3
-1.452, 1.372e-3
-1.453, 1.385e-3
-1.454, 1.404e-3
-1.455, 1.423e-3
-1.456, 1.433e-3
-1.457, 1.449e-3
-1.458, 1.472e-3
-1.459, 1.484e-3
-1.460, 1.498e-3
-1.461, 1.520e-3
-1.462, 1.537e-3
-1.463, 1.548e-3
-1.464, 1.569e-3
-1.465, 1.590e-3
-1.466, 1.600e-3
-1.467, 1.619e-3
-1.468, 1.641e-3
-1.469, 1.654e-3
-1.470, 1.673e-3
-1.471, 1.695e-3
-1.472, 1.713e-3
-1.473, 1.728e-3
-1.474, 1.751e-3
-1.475, 1.774e-3
-1.476, 1.790e-3
-1.477, 1.809e-3
-1.478, 1.836e-3
-1.479, 1.855e-3
-1.480, 1.874e-3
-1.481, 1.904e-3
-1.482, 1.930e-3
-1.483, 1.951e-3
-1.484, 1.986e-3
-1.485, 2.019e-3
-1.486, 2.045e-3
-1.487, 2.080e-3
-1.488, 2.121e-3
-1.489, 2.159e-3
-1.490, 2.201e-3
-1.491, 2.252e-3
-1.492, 2.302e-3
-1.493, 2.352e-3
-1.494, 2.416e-3
-1.495, 2.483e-3
-1.496, 2.547e-3
-1.497, 2.621e-3
-1.498, 2.708e-3
-1.499, 2.791e-3
-1.500, 2.761e-3
-1.499, 2.693e-3
-1.498, 2.671e-3
-1.497, 2.659e-3
-1.496, 2.659e-3
-1.495, 2.657e-3
-1.494, 2.645e-3
-1.493, 2.641e-3
-1.492, 2.641e-3
-1.491, 2.632e-3
-1.490, 2.626e-3
-1.489, 2.625e-3
-1.488, 2.618e-3
-1.487, 2.605e-3
-1.486, 2.598e-3
-1.485, 2.591e-3
-1.484, 2.576e-3
-1.483, 2.567e-3
-1.482, 2.560e-3
-1.481, 2.543e-3
-1.480, 2.527e-3
-1.479, 2.518e-3
-1.478, 2.503e-3
-1.477, 2.479e-3
-1.476, 2.464e-3
-1.475, 2.449e-3
-1.474, 2.424e-3
-1.473, 2.405e-3
-1.472, 2.390e-3
-1.471, 2.365e-3
-1.470, 2.342e-3
-1.469, 2.326e-3
-1.468, 2.302e-3
-1.467, 2.275e-3
-1.466, 2.253e-3
-1.465, 2.229e-3
-1.464, 2.203e-3
-1.463, 2.175e-3
-1.462, 2.153e-3
-1.461, 2.123e-3
-1.460, 2.093e-3
-1.459, 2.071e-3
-1.458, 2.043e-3
-1.457, 2.008e-3
-1.456, 1.983e-3
-1.455, 1.955e-3
-1.454, 1.917e-3
-1.453, 1.890e-3
-1.452, 1.866e-3
-1.451, 1.830e-3
-1.450, 1.797e-3
-1.449, 1.771e-3
-1.448, 1.739e-3
-1.447, 1.703e-3
-1.446, 1.676e-3
-1.445, 1.647e-3
-1.444, 1.610e-3
-1.443, 1.577e-3
-1.442, 1.547e-3
-1.441, 1.513e-3
-1.440, 1.482e-3
-1.439, 1.454e-3
-1.438, 1.422e-3
-1.437, 1.386e-3
-1.436, 1.356e-3
-1.435, 1.327e-3
-1.434, 1.292e-3
-1.433, 1.263e-3
-1.432, 1.239e-3
-1.431, 1.205e-3
-1.430, 1.174e-3
-1.429, 1.150e-3
-1.428, 1.119e-3
-1.427, 1.086e-3
-1.426, 1.061e-3
-1.425, 1.035e-3
-1.424, 1.003e-3
-1.423, 9.751e-4
-1.422, 9.533e-4
-1.421, 9.225e-4
-1.420, 8.934e-4
-1.419, 8.730e-4
-1.418, 8.477e-4
-1.417, 8.167e-4
-1.416, 7.954e-4
-1.415, 7.729e-4
-1.414, 7.430e-4
-1.413, 7.201e-4
-1.412, 7.014e-4
-1.411, 6.742e-4
-1.410, 6.492e-4
-1.409, 6.321e-4
-1.408, 6.102e-4
-1.407, 5.842e-4
-1.406, 5.664e-4
-1.405, 5.484e-4
-1.404, 5.228e-4
-1.403, 5.040e-4
-1.402, 4.896e-4
-1.401, 4.661e-4
-1.400, 4.462e-4
-1.399, 4.332e-4
-1.398, 4.144e-4
-1.397, 3.936e-4
-1.396, 3.801e-4
-1.395, 3.660e-4
-1.394, 3.452e-4
-1.393, 3.298e-4
-1.392, 3.201e-4
-1.391, 3.005e-4
-1.390, 2.838e-4
-1.389, 2.746e-4
-1.388, 2.596e-4
-1.387, 2.417e-4
-1.386, 2.328e-4
-1.385, 2.217e-4
-1.384, 2.055e-4
-1.383, 1.925e-4
-1.382, 1.855e-4
-1.381, 1.705e-4
-1.380, 1.565e-4
-1.379, 1.511e-4
-1.378, 1.386e-4
-1.377, 1.226e-4
-1.376, 1.168e-4
-1.375, 1.081e-4
-1.374, 9.277e-5
-1.373, 8.421e-5
-1.372, 7.862e-5
-1.371, 6.630e-5
-1.370, 5.545e-5
-1.369, 5.164e-5
-1.368, 4.322e-5
-1.367, 3.015e-5
-1.366, 2.607e-5
-1.365, 2.098e-5
-1.364, 8.443e-6
-1.363, 2.553e-6
-1.362, 1.192e-6
-1.361, -9.750e-6
-1.360, -1.811e-5
-1.359, -1.858e-5
-1.358, -2.593e-5
-1.357, -3.569e-5
-1.356, -3.767e-5
-1.355, -4.100e-5
-1.354, -5.070e-5
-1.353, -5.588e-5
-1.352, -5.478e-5
-1.351, -6.417e-5
-1.350, -7.066e-5
-1.349, -6.939e-5
-1.348, -7.490e-5
-1.347, -8.358e-5
-1.346, -8.302e-5
-1.345, -8.479e-5
-1.344, -9.272e-5
-1.343, -9.559e-5
-1.342, -9.421e-5
-1.341, -1.014e-4
-1.340, -1.068e-4
-1.339, -1.045e-4
-1.338, -1.085e-4
-1.337, -1.172e-4
-1.336, -1.150e-4
-1.335, -1.160e-4
-1.334, -1.239e-4
-1.333, -1.251e-4
-1.332, -1.233e-4
-1.331, -1.296e-4
-1.330, -1.334e-4
-1.329, -1.307e-4
-1.328, -1.336e-4
-1.327, -1.401e-4
-1.326, -1.380e-4
-1.325, -1.376e-4
-1.324, -1.448e-4
-1.323, -1.451e-4
-1.322, -1.422e-4
-1.321, -1.478e-4
-1.320, -1.506e-4
-1.319, -1.472e-4
-1.318, -1.496e-4
-1.317, -1.545e-4
-1.316, -1.521e-4
-1.315, -1.511e-4
-1.314, -1.572e-4
-1.313, -1.577e-4
-1.312, -1.531e-4
-1.311, -1.588e-4
-1.310, -1.618e-4
-1.309, -1.571e-4
-1.308, -1.597e-4
-1.307, -1.650e-4
-1.306, -1.616e-4
-1.305, -1.608e-4
-1.304, -1.661e-4
-1.303, -1.655e-4
-1.302, -1.623e-4
-1.301, -1.666e-4
-1.300, -1.694e-4
-1.299, -1.649e-4
-1.298, -1.663e-4
-1.297, -1.718e-4
-1.296, -1.676e-4
-1.295, -1.659e-4
-1.294, -1.714e-4
-1.293, -1.701e-4
-1.292, -1.660e-4
-1.291, -1.704e-4
-1.290, -1.721e-4
-1.289, -1.682e-4
-1.288, -1.688e-4
-1.287, -1.732e-4
-1.286, -1.699e-4
-1.285, -1.678e-4
-1.284, -1.725e-4
-1.283, -1.721e-4
-1.282, -1.679e-4
-1.281, -1.721e-4
-1.280, -1.739e-4
-1.279, -1.685e-4
-1.278, -1.705e-4
-1.277, -1.740e-4
-1.276, -1.700e-4
-1.275, -1.687e-4
-1.274, -1.732e-4
-1.273, -1.728e-4
-1.272, -1.677e-4
-1.271, -1.720e-4
-1.270, -1.736e-4
-1.269, -1.688e-4
-1.268, -1.702e-4
-1.267, -1.744e-4
-1.266, -1.702e-4
-1.265, -1.695e-4
-1.264, -1.739e-4
-1.263, -1.729e-4
-1.262, -1.688e-4
-1.261, -1.726e-4
-1.260, -1.743e-4
-1.259, -1.699e-4
-1.258, -1.709e-4
-1.257, -1.763e-4
-1.256, -1.712e-4
-1.255, -1.709e-4
-1.254, -1.753e-4
-1.253, -1.739e-4
-1.252, -1.702e-4
-1.251, -1.745e-4
-1.250, -1.756e-4
-1.249, -1.716e-4
-1.248, -1.722e-4
-1.247, -1.768e-4
-1.246, -1.728e-4
-1.245, -1.713e-4
-1.244, -1.760e-4
-1.243, -1.747e-4
-1.242, -1.713e-4
-1.241, -1.759e-4
-1.240, -1.768e-4
-1.239, -1.725e-4
-1.238, -1.748e-4
-1.237, -1.785e-4
-1.236, -1.753e-4
-1.235, -1.739e-4
-1.234, -1.787e-4
-1.233, -1.780e-4
-1.232, -1.743e-4
-1.231, -1.783e-4
-1.230, -1.809e-4
-1.229, -1.779e-4
-1.228, -1.788e-4
-1.227, -1.831e-4
-1.226, -1.785e-4
-1.225, -1.786e-4
-1.224, -1.833e-4
-1.223, -1.825e-4
-1.222, -1.792e-4
-1.221, -1.834e-4
-1.220, -1.860e-4
-1.219, -1.817e-4
-1.218, -1.834e-4
-1.217, -1.890e-4
-1.216, -1.848e-4
-1.215, -1.844e-4
-1.214, -1.904e-4
-1.213, -1.893e-4
-1.212, -1.861e-4
-1.211, -1.908e-4
-1.210, -1.930e-4
-1.209, -1.895e-4
-1.208, -1.908e-4
-1.207, -1.959e-4
-1.206, -1.931e-4
-1.205, -1.919e-4
-1.204, -1.978e-4
-1.203, -1.976e-4
-1.202, -1.939e-4
-1.201, -1.991e-4
-1.200, -2.012e-4
-1.199, -1.972e-4
-1.198, -1.999e-4
-1.197, -2.043e-4
-1.196, -2.016e-4
-1.195, -2.013e-4
-1.194, -2.065e-4
-1.193, -2.066e-4
-1.192, -2.029e-4
-1.191, -2.084e-4
-1.190, -2.115e-4
-1.189, -2.070e-4
-1.188, -2.096e-4
-1.187, -2.158e-4
-1.186, -2.120e-4
-1.185, -2.119e-4
-1.184, -2.173e-4
-1.183, -2.176e-4
-1.182, -2.149e-4
-1.181, -2.195e-4
-1.180, -2.231e-4
-1.179, -2.191e-4
-1.178, -2.226e-4
-1.177, -2.284e-4
-1.176, -2.245e-4
-1.175, -2.246e-4
-1.174, -2.309e-4
-1.173, -2.312e-4
-1.172, -2.280e-4
-1.171, -2.337e-4
-1.170, -2.367e-4
-1.169, -2.339e-4
-1.168, -2.357e-4
-1.167, -2.419e-4
-1.166, -2.401e-4
-1.165, -2.397e-4
-1.164, -2.464e-4
-1.163, -2.471e-4
-1.162, -2.437e-4
-1.161, -2.500e-4
-1.160, -2.535e-4
-1.159, -2.505e-4
-1.158, -2.537e-4
-1.157, -2.592e-4
-1.156, -2.579e-4
-1.155, -2.574e-4
-1.154, -2.648e-4
-1.153, -2.659e-4
-1.152, -2.631e-4
-1.151, -2.696e-4
-1.150, -2.733e-4
-1.149, -2.701e-4
-1.148, -2.736e-4
-1.147, -2.800e-4
-1.146, -2.790e-4
-1.145, -2.799e-4
-1.144, -2.864e-4
-1.143, -2.876e-4
-1.142, -2.857e-4
-1.141, -2.916e-4
-1.140, -2.971e-4
-1.139, -2.943e-4
-1.138, -2.972e-4
-1.137, -3.051e-4
-1.136, -3.039e-4
-1.135, -3.045e-4
-1.134, -3.133e-4
-1.133, -3.149e-4
-1.132, -3.130e-4
-1.131, -3.199e-4
-1.130, -3.246e-4
-1.129, -3.229e-4
-1.128, -3.263e-4
-1.127, -3.341e-4
-1.126, -3.335e-4
-1.125, -3.340e-4
-1.124, -3.426e-4
-1.123, -3.457e-4
-1.122, -3.438e-4
-1.121, -3.512e-4
-1.120, -3.562e-4
-1.119, -3.543e-4
-1.118, -3.590e-4
-1.117, -3.673e-4
-1.116, -3.669e-4
-1.115, -3.681e-4
-1.114, -3.765e-4
-1.113, -3.797e-4
-1.112, -3.776e-4
-1.111, -3.854e-4
-1.110, -3.924e-4
-1.109, -3.907e-4
-1.108, -3.951e-4
-1.107, -4.047e-4
-1.106, -4.056e-4
-1.105, -4.069e-4
-1.104, -4.155e-4
-1.103, -4.201e-4
-1.102, -4.190e-4
-1.101, -4.275e-4
-1.100, -4.354e-4
-1.099, -4.339e-4
-1.098, -4.396e-4
-1.097, -4.502e-4
-1.096, -4.506e-4
-1.095, -4.531e-4
-1.094, -4.633e-4
-1.093, -4.680e-4
-1.092, -4.682e-4
-1.091, -4.771e-4
-1.090, -4.852e-4
-1.089, -4.863e-4
-1.088, -4.907e-4
-1.087, -5.019e-4
-1.086, -5.039e-4
-1.085, -5.056e-4
-1.084, -5.175e-4
-1.083, -5.229e-4
-1.082, -5.230e-4
-1.081, -5.332e-4
-1.080, -5.415e-4
-1.079, -5.419e-4
-1.078, -5.481e-4
-1.077, -5.606e-4
-1.076, -5.642e-4
-1.075, -5.665e-4
-1.074, -5.777e-4
-1.073, -5.842e-4
-1.072, -5.839e-4
-1.071, -5.951e-4
-1.070, -6.061e-4
-1.069, -6.065e-4
-1.068, -6.141e-4
-1.067, -6.257e-4
-1.066, -6.275e-4
-1.065, -6.310e-4
-1.064, -6.438e-4
-1.063, -6.517e-4
-1.062, -6.546e-4
-1.061, -6.656e-4
-1.060, -6.763e-4
-1.059, -6.782e-4
-1.058, -6.850e-4
-1.057, -7.003e-4
-1.056, -7.052e-4
-1.055, -7.101e-4
-1.054, -7.248e-4
-1.053, -7.332e-4
-1.052, -7.363e-4
-1.051, -7.483e-4
-1.050, -7.617e-4
-1.049, -7.659e-4
-1.048, -7.757e-4
-1.047, -7.925e-4
-1.046, -7.991e-4
-1.045, -8.055e-4
-1.044, -8.220e-4
-1.043, -8.318e-4
-1.042, -8.378e-4
-1.041, -8.533e-4
-1.040, -8.671e-4
-1.039, -8.726e-4
-1.038, -8.850e-4
-1.037, -9.024e-4
-1.036, -9.131e-4
-1.035, -9.211e-4
-1.034, -9.391e-4
-1.033, -9.544e-4
-1.032, -9.600e-4
-1.031, -9.772e-4
-1.030, -9.968e-4
-1.029, -1.005e-3
-1.028, -1.020e-3
-1.027, -1.042e-3
-1.026, -1.053e-3
-1.025, -1.065e-3
-1.024, -1.088e-3
-1.023, -1.104e-3
-1.022, -1.116e-3
-1.021, -1.137e-3
-1.020, -1.157e-3
-1.019, -1.169e-3
-1.018, -1.186e-3
-1.017, -1.212e-3
-1.016, -1.227e-3
-1.015, -1.243e-3
-1.014, -1.268e-3
-1.013, -1.289e-3
-1.012, -1.303e-3
-1.011, -1.328e-3
-1.010, -1.357e-3
-1.009, -1.372e-3
-1.008, -1.394e-3
-1.007, -1.423e-3
-1.006, -1.442e-3
-1.005, -1.461e-3
-1.004, -1.492e-3
-1.003, -1.518e-3
-1.002, -1.538e-3
-1.001, -1.569e-3
