Potential V vs RHE, Current mA cm-2
0.05339999999999995,-0.026879514697435696
0.05239999999999995,-0.02811031352831828
0.051399999999999946,-0.028676198048264292
0.050399999999999945,-0.029086464325225152
0.049399999999999944,-0.02946843637618871
0.04839999999999994,-0.02982211420115497
0.04739999999999994,-0.03018993913911988
0.04639999999999994,-0.030543616964086147
0.04539999999999994,-0.03085485345005645
0.04439999999999994,-0.031180237049025412
0.04339999999999994,-0.031505620647994365
0.04239999999999994,-0.03185929847296063
0.04139999999999994,-0.03219882918492823
0.040399999999999936,-0.03251006567089854
0.039399999999999935,-0.03287789060886345
0.038399999999999934,-0.03321742132083106
0.03739999999999993,-0.03358524625879597
0.03639999999999993,-0.03393892408376223
0.03539999999999993,-0.034278454795729836
0.03439999999999993,-0.034617985507697444
0.03339999999999993,-0.03494336910666641
0.03239999999999993,-0.035282899818634014
0.03139999999999993,-0.035650724756598924
0.030399999999999927,-0.03600440258156519
0.029399999999999926,-0.03634393329353279
0.028399999999999925,-0.03671175823149771
0.027399999999999924,-0.03709373028246127
0.026399999999999924,-0.037461555220426164
0.025399999999999923,-0.03782938015839108
0.024399999999999922,-0.03818305798335734
0.02339999999999992,-0.0385367358083236
0.02239999999999992,-0.03891870785928716
0.02139999999999992,-0.03930067991025072
0.020399999999999918,-0.03965435773521698
0.019399999999999917,-0.04005047689917919
0.018399999999999916,-0.040418301837144094
0.017399999999999916,-0.040800273888107655
0.016399999999999915,-0.04119639305206987
0.015399999999999914,-0.041578365103033435
0.014399999999999913,-0.04197448426699564
0.013399999999999912,-0.04237060343095785
0.012399999999999911,-0.04276672259492006
0.01139999999999991,-0.04317698887188092
0.01039999999999991,-0.04355896092284448
0.009399999999999908,-0.04395508008680669
0.008399999999999908,-0.0443511992507689
0.007399999999999907,-0.044775612640728414
0.006399999999999906,-0.04521417314368657
0.005399999999999905,-0.04558199808165148
0.004399999999999904,-0.04599226435861234
0.003399999999999903,-0.04638838352257455
0.002399999999999902,-0.04682694402553272
0.0013999999999999013,-0.047265504528490876
0.00039999999999990044,-0.04770406503144904
-0.0006000000000001005,-0.04812847842140855
-0.0016000000000001013,-0.04856703892436671
-0.0026000000000001022,-0.04899145231432622
-0.003600000000000103,-0.04944415993028303
-0.004600000000000104,-0.049854426207243896
-0.005600000000000105,-0.05029298671020205
-0.006600000000000106,-0.050731547213160214
-0.007600000000000107,-0.051184254829117024
-0.008600000000000108,-0.051651109558072485
-0.009600000000000108,-0.05208967006103065
-0.01060000000000011,-0.05252823056398881
-0.01160000000000011,-0.052980938179945626
-0.012600000000000111,-0.05347608713489838
-0.013600000000000112,-0.05394294186385385
-0.014600000000000113,-0.05440979659280931
-0.015600000000000114,-0.054876651321764766
-0.016600000000000115,-0.05531521182472293
-0.017600000000000116,-0.05578206655367839
-0.018600000000000116,-0.05627721550863116
-0.019600000000000117,-0.056729923124587966
-0.020600000000000118,-0.057196777853543435
-0.02160000000000012,-0.057649485469500245
-0.02260000000000012,-0.058144634424453
-0.02360000000000012,-0.05861148915340847
-0.024600000000000122,-0.05909249099536258
-0.025600000000000123,-0.05955934572431805
-0.026600000000000124,-0.060026200453273504
-0.027600000000000124,-0.060507202295227616
-0.028600000000000125,-0.06101649836317903
-0.029600000000000126,-0.06149750020513314
-0.030600000000000127,-0.0619926491600859
-0.03160000000000013,-0.06247365100204002
-0.03260000000000013,-0.0629970941829901
-0.03360000000000013,-0.06352053736394014
-0.03460000000000002,-0.0640156863188929
-0.03560000000000002,-0.06453912949984296
-0.03660000000000002,-0.06500598422879844
-0.03760000000000002,-0.06554357452274716
-0.03860000000000002,-0.06606701770369722
-0.039600000000000024,-0.06656216665864997
-0.040600000000000025,-0.06705731561360274
-0.041600000000000026,-0.0675524645685555
-0.04260000000000003,-0.06807590774950557
-0.04360000000000003,-0.06861349804345429
-0.04460000000000003,-0.06910864699840705
-0.04560000000000003,-0.06961794306635845
-0.04660000000000003,-0.0701130920213112
-0.04760000000000003,-0.07063653520226129
-0.04860000000000003,-0.07118827260920865
-0.04960000000000003,-0.07169756867716005
-0.050600000000000034,-0.07223515897110877
-0.051600000000000035,-0.07273030792606154
-0.052600000000000036,-0.0732537511070116
-0.053600000000000037,-0.0737913414009603
-0.05460000000000004,-0.07428649035591307
-0.05560000000000004,-0.07480993353686313
-0.05660000000000004,-0.0753333767178132
-0.05760000000000004,-0.07587096701176191
-0.05860000000000004,-0.07638026307971334
-0.05960000000000004,-0.0768754120346661
-0.06060000000000004,-0.07738470810261751
-0.061600000000000044,-0.07790815128356757
-0.06260000000000004,-0.07845988869051494
-0.06360000000000005,-0.078983331871465
-0.06460000000000005,-0.07952092216541372
-0.06560000000000005,-0.07998777689436919
-0.06660000000000005,-0.08048292584932194
-0.06760000000000005,-0.081006369030272
-0.06860000000000005,-0.08151566509822342
-0.06960000000000005,-0.08202496116617483
-0.07060000000000005,-0.08254840434712489
-0.07160000000000005,-0.08301525907608036
-0.07260000000000005,-0.08352455514403176
-0.07360000000000005,-0.08397726275998857
-0.07460000000000006,-0.08444411748894404
-0.07560000000000006,-0.0849392664438968
-0.07660000000000006,-0.08543441539884956
-0.07760000000000006,-0.08592956435380232
-0.07860000000000006,-0.08642471330875509
-0.07960000000000006,-0.08689156803771056
-0.08060000000000006,-0.08737256987966466
-0.08160000000000006,-0.08779698326962418
-0.08260000000000006,-0.08826383799857963
-0.08360000000000006,-0.08871654561453644
-0.08460000000000006,-0.08916925323049325
-0.08560000000000006,-0.08962196084645008
-0.08660000000000007,-0.09008881557540553
-0.08760000000000007,-0.090555670304361
-0.08860000000000007,-0.09103667214631511
-0.08960000000000007,-0.09144693842327598
-0.09060000000000007,-0.09188549892623413
-0.09160000000000007,-0.09229576520319499
-0.09260000000000007,-0.0927484728191518
-0.09360000000000007,-0.09317288620911131
-0.09460000000000007,-0.09359729959907082
-0.09560000000000007,-0.09400756587603168
-0.09660000000000007,-0.0944036850399939
-0.09760000000000008,-0.09479980420395612
-0.09860000000000008,-0.09521007048091697
-0.09960000000000008,-0.09557789541888188
-0.10060000000000008,-0.09597401458284409
-0.10160000000000008,-0.09637013374680631
-0.10260000000000008,-0.0967662529107685
-0.10360000000000008,-0.09711993073573477
-0.10460000000000008,-0.09745946144770237
-0.10560000000000008,-0.09781313927266864
-0.10660000000000008,-0.09813852287163759
-0.10760000000000008,-0.09850634780960252
-0.10860000000000009,-0.09883173140857146
-0.10960000000000009,-0.09915711500754042
-0.11060000000000009,-0.09946835149351073
-0.11160000000000009,-0.09977958797948104
-0.11260000000000009,-0.10011911869144864
-0.11360000000000009,-0.10041620806442031
-0.11460000000000009,-0.10074159166338927
-0.11560000000000009,-0.10103868103636092
-0.11660000000000009,-0.10129332907033663
-0.1176000000000001,-0.10157627133030964
-0.1186000000000001,-0.10184506647728399
-0.1196000000000001,-0.1020714202852624
-0.1206000000000001,-0.10234021543223674
-0.1216000000000001,-0.10258071635321381
-0.1226000000000001,-0.10282121727419087
-0.1236000000000001,-0.10304757108216928
-0.1246000000000001,-0.10325977777714902
-0.1256000000000001,-0.10347198447212877
-0.1266000000000001,-0.1036983382801072
-0.1276000000000001,-0.10391054497508695
-0.1286000000000001,-0.10410860455706805
-0.1296000000000001,-0.10427836991305185
-0.1306000000000001,-0.10444813526903567
-0.1316000000000001,-0.10461790062501947
-0.1326000000000001,-0.10478766598100327
-0.1336000000000001,-0.10497157844998573
-0.1346000000000001,-0.10511304957997222
-0.1356000000000001,-0.10525452070995873
-0.1366000000000001,-0.10539599183994523
-0.1376000000000001,-0.10552331585693309
-0.1386000000000001,-0.10567893409991824
-0.1396000000000001,-0.1057779638909088
-0.1406000000000001,-0.10590528790789665
-0.14160000000000011,-0.10601846481188584
-0.14260000000000012,-0.1061174946028764
-0.14360000000000012,-0.10620237728086832
-0.14460000000000012,-0.10627311284586156
-0.14560000000000012,-0.10635799552385346
-0.14660000000000012,-0.1064287310888467
-0.14760000000000012,-0.10649946665383996
-0.14860000000000012,-0.10655605510583457
-0.14960000000000012,-0.10659849644483052
-0.15060000000000012,-0.10665508489682511
-0.15160000000000012,-0.10666923200982377
-0.15260000000000012,-0.10672582046181836
-0.15360000000000013,-0.10676826180081432
-0.15460000000000013,-0.10678240891381298
-0.15560000000000013,-0.10681070313981027
-0.15660000000000013,-0.10679655602681161
-0.15760000000000013,-0.10682485025280893
-0.15860000000000013,-0.10683899736580757
-0.15960000000000002,-0.10681070313981027
-0.16060000000000002,-0.10682485025280893
-0.16160000000000002,-0.10679655602681161
-0.16260000000000002,-0.10679655602681161
-0.16360000000000002,-0.10676826180081432
-0.16460000000000002,-0.10672582046181836
-0.16560000000000002,-0.10673996757481702
-0.16660000000000003,-0.10672582046181836
-0.16760000000000003,-0.10668337912282241
-0.16860000000000003,-0.10665508489682511
-0.16960000000000003,-0.1065702022188332
-0.17060000000000003,-0.10651361376683861
-0.17160000000000003,-0.10644287820184536
-0.17260000000000003,-0.10641458397584806
-0.17360000000000003,-0.10632970129785616
-0.17460000000000003,-0.10625896573286289
-0.17560000000000003,-0.10618823016786964
-0.17660000000000003,-0.10610334748987776
-0.17760000000000004,-0.10604675903788315
-0.17860000000000004,-0.1059760234728899
-0.17960000000000004,-0.105891140794898
-0.18060000000000004,-0.10579211100390745
-0.18160000000000004,-0.10569308121291689
-0.18260000000000004,-0.10562234564792364
-0.18360000000000004,-0.10552331585693309
-0.18460000000000004,-0.10541013895294389
-0.18560000000000004,-0.10531110916195333
-0.18660000000000004,-0.10519793225796412
-0.18760000000000004,-0.10512719669297087
-0.18860000000000005,-0.10499987267598301
-0.18960000000000005,-0.10490084288499248
-0.19060000000000005,-0.10480181309400192
-0.19160000000000005,-0.10468863619001273
-0.19260000000000005,-0.10460375351202081
-0.19360000000000005,-0.10447642949503295
-0.19460000000000005,-0.10436325259104375
-0.19560000000000005,-0.10425007568705455
-0.19660000000000005,-0.10413689878306535
-0.19760000000000005,-0.1040378689920748
-0.19860000000000005,-0.10391054497508695
-0.19960000000000006,-0.10379736807109774
-0.20060000000000006,-0.10367004405410989
-0.20160000000000006,-0.10352857292412339
-0.20260000000000006,-0.10344369024613147
-0.20360000000000006,-0.10333051334214227
-0.20460000000000006,-0.10318904221215577
-0.20560000000000006,-0.10306171819516792
-0.20660000000000006,-0.10293439417818008
-0.20760000000000006,-0.10283536438718952
-0.20860000000000006,-0.1027221874832003
-0.20960000000000006,-0.10258071635321381
-0.21060000000000006,-0.10246753944922461
-0.21160000000000007,-0.10235436254523542
-0.21260000000000007,-0.1022411856412462
-0.21360000000000007,-0.10211386162425835
-0.21460000000000007,-0.10198653760727049
-0.21560000000000007,-0.10185921359028265
-0.21660000000000007,-0.1017601837992921
-0.21760000000000007,-0.10167530112130019
-0.21860000000000007,-0.10154797710431233
-0.21960000000000007,-0.10140650597432584
-0.22060000000000007,-0.10127918195733798
-0.22160000000000007,-0.10116600505334877
-0.22260000000000008,-0.10106697526235821
-0.22360000000000008,-0.10093965124537037
-0.22460000000000008,-0.10082647434138116
-0.22560000000000008,-0.10069915032439332
-0.22660000000000008,-0.10060012053340277
-0.22760000000000008,-0.10048694362941356
-0.22860000000000008,-0.100387913838423
-0.22960000000000008,-0.1002747369344338
-0.23060000000000008,-0.10016156003044459
-0.23160000000000008,-0.10003423601345675
-0.23260000000000008,-0.09994935333546484
-0.23360000000000009,-0.09983617643147565
-0.2346000000000001,-0.09970885241448779
-0.2356000000000001,-0.09962396973649587
-0.2366000000000001,-0.09951079283250668
-0.2376000000000001,-0.09944005726751343
-0.2386000000000001,-0.09934102747652288
-0.2396000000000001,-0.09922785057253368
-0.2406000000000001,-0.09912882078154311
-0.2416000000000001,-0.09905808521654987
-0.2426000000000001,-0.09898734965155662
-0.2436000000000001,-0.09890246697356471
-0.2446000000000001,-0.09878929006957551
-0.2456000000000001,-0.0987044073915836
-0.2466000000000001,-0.09861952471359171
-0.2476000000000001,-0.09854878914859845
-0.2486000000000001,-0.0984780535836052
-0.2496000000000001,-0.09837902379261465
-0.2506000000000001,-0.09832243534062005
-0.2516000000000001,-0.09823755266262815
-0.2526000000000001,-0.09818096421063353
-0.2536000000000001,-0.09811022864564029
-0.2546000000000001,-0.09803949308064704
-0.2556000000000001,-0.09798290462865245
-0.2566000000000001,-0.0979121690636592
-0.2576000000000001,-0.09786972772466324
-0.2586000000000001,-0.09782728638566728
-0.2596000000000001,-0.0977424037076754
-0.2606000000000001,-0.09769996236867944
-0.2616000000000001,-0.09765752102968349
-0.2626000000000001,-0.09761507969068753
-0.2636000000000001,-0.09755849123869292
-0.2646000000000001,-0.09754434412569428
-0.2656000000000001,-0.09748775567369967
-0.2666000000000001,-0.09744531433470371
-0.2676000000000001,-0.09744531433470371
-0.2686000000000001,-0.09740287299570777
-0.2696000000000001,-0.09738872588270912
-0.2706000000000001,-0.09736043165671183
-0.2716000000000001,-0.09733213743071452
-0.2726000000000001,-0.09734628454371318
-0.2736000000000001,-0.09733213743071452
-0.2746000000000001,-0.09731799031771587
-0.2756000000000001,-0.09731799031771587
-0.2766000000000001,-0.09730384320471722
-0.2776000000000001,-0.09731799031771587
-0.2786000000000001,-0.09731799031771587
-0.2796000000000001,-0.09730384320471722
-0.2806000000000001,-0.09733213743071452
-0.28160000000000013,-0.09733213743071452
-0.28260000000000013,-0.09736043165671183
-0.28360000000000013,-0.09740287299570777
-0.2846,-0.09743116722170508
-0.2856,-0.09744531433470371
-0.2866,-0.09748775567369967
-0.2876,-0.09754434412569428
-0.2886,-0.09758678546469024
-0.2896,-0.09761507969068753
-0.2906,-0.09768581525568078
-0.2916,-0.0977424037076754
-0.2926,-0.09781313927266864
-0.2936,-0.0978838748376619
-0.29460000000000003,-0.09795461040265514
-0.29560000000000003,-0.09802534596764839
-0.29660000000000003,-0.09812437575863896
-0.29760000000000003,-0.09820925843663084
-0.29860000000000003,-0.09829414111462276
-0.29960000000000003,-0.09840731801861195
-0.30060000000000003,-0.09850634780960252
-0.30160000000000003,-0.09861952471359171
-0.30260000000000004,-0.09876099584357821
-0.30360000000000004,-0.09887417274756742
-0.30460000000000004,-0.09900149676455527
-0.30560000000000004,-0.09911467366854448
-0.30660000000000004,-0.09927029191152963
-0.30760000000000004,-0.09945420438051207
-0.30860000000000004,-0.09959567551049858
-0.30960000000000004,-0.09973714664048508
-0.31060000000000004,-0.0999069119964689
-0.31160000000000004,-0.10010497157845
-0.31260000000000004,-0.10028888404743246
-0.31360000000000005,-0.10048694362941356
-0.31460000000000005,-0.10067085609839602
-0.31560000000000005,-0.10088306279337576
-0.31660000000000005,-0.10109526948835552
-0.31760000000000005,-0.10133577040933257
-0.31860000000000005,-0.10157627133030964
-0.31960000000000005,-0.10183091936428534
-0.32060000000000005,-0.10208556739826105
-0.32160000000000005,-0.10231192120623946
-0.32260000000000005,-0.10259486346621245
-0.32360000000000005,-0.10286365861318682
-0.32460000000000006,-0.10313245376016117
-0.32560000000000006,-0.10342954313313284
-0.32660000000000006,-0.10372663250610449
-0.32760000000000006,-0.10405201610507345
-0.32860000000000006,-0.10436325259104375
-0.32960000000000006,-0.10467448907701406
-0.33060000000000006,-0.10502816690198033
-0.33160000000000006,-0.10536769761394793
-0.33260000000000006,-0.10576381677791014
-0.33360000000000006,-0.1061174946028764
-0.33460000000000006,-0.10648531954084133
-0.33560000000000006,-0.10689558581780217
-0.33660000000000007,-0.10729170498176437
-0.33760000000000007,-0.10774441259772119
-0.33860000000000007,-0.10818297310067936
-0.33960000000000007,-0.10862153360363752
-0.34060000000000007,-0.10908838833259296
-0.34160000000000007,-0.10955524306154844
-0.34260000000000007,-0.11003624490350256
-0.34360000000000007,-0.11051724674545668
-0.3446000000000001,-0.11102654281340808
-0.3456000000000001,-0.11153583888135948
-0.3466000000000001,-0.11205928206230956
-0.34759999999999996,-0.11266760792125154
-0.3486000000000001,-0.1131910511022016
-0.34959999999999997,-0.1137569356221476
-0.3506000000000001,-0.11435111436809091
-0.35159999999999997,-0.11494529311403422
-0.3526000000000001,-0.11559606031197216
-0.35359999999999997,-0.11624682750991006
-0.3546000000000001,-0.11691174182084664
-0.35559999999999997,-0.11757665613178321
-0.3566000000000001,-0.11824157044271978
-0.3576,-0.11894892609265229
-0.3586000000000001,-0.1196562817425848
-0.3596,-0.12037778450551596
-0.3606000000000001,-0.12112758149444444
-0.3616,-0.12183493714437695
-0.3626000000000001,-0.12258473413330541
-0.3636,-0.12339111957422852
-0.3646000000000001,-0.12421165212815022
-0.3656,-0.12501803756907331
-0.3666000000000001,-0.12582442300999636
-0.3676,-0.12667324978991537
-0.3686000000000001,-0.1275503707958317
-0.3696,-0.1284416389147467
-0.3706000000000001,-0.12936120125965894
-0.3716,-0.13030905783056854
-0.3726000000000001,-0.1312569144014781
-0.3736,-0.13220477097238767
-0.3746000000000001,-0.1331384804302986
-0.3756,-0.13412877834020412
-0.3766000000000001,-0.1351615175891056
-0.3776,-0.13618010972500844
-0.3786000000000001,-0.13719870186091124
-0.3796,-0.13828802956180736
-0.3806000000000001,-0.13936321014970476
-0.3816,-0.1404383907376022
-0.3826000000000001,-0.14161260111649018
-0.3836,-0.1427443701563822
-0.3846000000000001,-0.14387613919627423
-0.3856,-0.14500790823616627
-0.3866000000000001,-0.14613967727605828
-0.3876,-0.14741291744593682
-0.3886000000000001,-0.14854468648582883
-0.3896,-0.1498179266557074
-0.3906000000000001,-0.1510911668255859
-0.3916,-0.15236440699546444
-0.3926000000000001,-0.15377911829532948
-0.3936,-0.155052358465208
-0.3946000000000001,-0.15632559863508652
-0.3956,-0.15774030993495158
-0.3966000000000001,-0.15915502123481662
-0.3976,-0.16056973253468165
-0.3986000000000001,-0.1619844438345467
-0.3996,-0.16339915513441172
-0.4006000000000001,-0.16481386643427676
-0.4016,-0.16637004886412832
-0.4026000000000001,-0.16778476016399335
-0.4036,-0.1693409425938449
-0.4046000000000001,-0.17061418276372342
-0.4056,-0.17217036519357498
-0.40660000000000013,-0.1737265476234265
-0.4076,-0.17528273005327805
-0.40860000000000013,-0.1769803836131161
-0.4096,-0.17853656604296764
-0.41060000000000013,-0.18009274847281917
-0.4116,-0.18179040203265723
-0.41260000000000013,-0.18348805559249526
-0.4136,-0.1851857091523333
-0.41460000000000014,-0.18688336271217135
-0.4156,-0.18858101627200938
-0.41660000000000014,-0.19042014096183393
-0.4176,-0.192117794521672
-0.41860000000000014,-0.19395691921149652
-0.41960000000000003,-0.19579604390132105
-0.42060000000000014,-0.1974936974611591
-0.42160000000000003,-0.19933282215098366
-0.42260000000000014,-0.2011719468408082
-0.42360000000000003,-0.20301107153063278
-0.42460000000000014,-0.20499166735044383
-0.42560000000000003,-0.20683079204026839
-0.42660000000000015,-0.2088113878600794
-0.42760000000000004,-0.21065051254990397
-0.42860000000000015,-0.21263110836971502
-0.42960000000000004,-0.21461170418952608
-0.43060000000000015,-0.21659230000933713
-0.43160000000000004,-0.21857289582914816
-0.43260000000000015,-0.22055349164895924
-0.43360000000000004,-0.22253408746877026
-0.43460000000000015,-0.2245146832885813
-0.43560000000000004,-0.22663675023837887
-0.43660000000000015,-0.22875881718817642
