Potential V vs RHE, Current mA cm-2
0.013299999999999867,-0.4384190318281749
0.012299999999999978,-1.5717442541500557
0.011299999999999866,-2.4007650758709675
0.010299999999999976,-3.055776407708479
0.009299999999999864,-3.623075638954359
0.008299999999999974,-4.0588067193127895
0.007299999999999862,-4.450681749375406
0.006299999999999972,-4.800115440442069
0.00529999999999986,-5.105693081212917
0.0042999999999999705,-5.411270721983764
0.0032999999999998586,-5.672992312458796
0.0022999999999999687,-5.890857852638012
0.0012999999999998568,-6.064867342521412
0.00029999999999996696,-6.238876832404812
-0.000700000000000145,-6.326588932996443
-0.0017000000000000348,-6.414301033588076
-0.0027000000000001467,-6.54445447317566
-0.0037000000000000366,-6.632166573767292
-0.0047000000000001485,-6.6760226240631075
-0.005700000000000038,-6.762320013354876
-0.00670000000000015,-6.806176063650692
-0.00770000000000004,-6.893888164242324
-0.008700000000000152,-6.981600264833956
-0.009700000000000042,-7.067897654125724
-0.010700000000000154,-7.199465805013171
-0.011700000000000044,-7.243321855308987
-0.012700000000000156,-7.329619244600755
-0.013700000000000045,-7.37347529489657
-0.014700000000000157,-7.461187395488204
-0.015700000000000047,-7.461187395488204
-0.01670000000000016,-7.50504344578402
-0.01770000000000005,-7.50504344578402
-0.01870000000000016,-7.5474847847799715
-0.01970000000000005,-7.5474847847799715
-0.020700000000000163,-7.5474847847799715
-0.021700000000000053,-7.591340835075788
-0.022700000000000164,-7.635196885371603
-0.023700000000000054,-7.679052935667419
-0.024700000000000166,-7.7653503249591855
-0.025700000000000056,-7.809206375255003
-0.026700000000000168,-7.853062425550818
-0.027700000000000058,-7.896918475846635
-0.02870000000000017,-7.940774526142452
-0.02970000000000006,-7.984630576438266
-0.03070000000000017,-7.984630576438266
-0.03170000000000006,-7.984630576438266
-0.03270000000000017,-7.984630576438266
-0.03370000000000006,-8.027071915434218
-0.034700000000000175,-7.984630576438266
-0.035700000000000065,-8.027071915434218
-0.03670000000000018,-8.027071915434218
-0.03770000000000007,-8.070927965730034
-0.03870000000000018,-8.11478401602585
-0.03970000000000007,-8.158640066321666
-0.04070000000000018,-8.202496116617484
-0.04170000000000007,-8.246352166913299
-0.04270000000000018,-8.288793505909249
-0.04370000000000007,-8.332649556205066
-0.044700000000000184,-8.332649556205066
-0.045700000000000074,-8.332649556205066
-0.046700000000000186,-8.332649556205066
-0.047700000000000076,-8.332649556205066
-0.04870000000000019,-8.376505606500881
-0.04970000000000008,-8.332649556205066
-0.05070000000000019,-8.332649556205066
-0.05170000000000008,-8.376505606500881
-0.05270000000000019,-8.376505606500881
-0.05370000000000008,-8.4203616567967
-0.05470000000000019,-8.464217707092514
-0.05570000000000008,-8.508073757388331
-0.056700000000000195,-8.55051509638428
-0.057700000000000085,-8.594371146680096
-0.058700000000000196,-8.638227196975913
-0.059700000000000086,-8.638227196975913
-0.0607000000000002,-8.638227196975913
-0.06170000000000009,-8.638227196975913
-0.0627000000000002,-8.638227196975913
-0.06370000000000009,-8.638227196975913
-0.0647000000000002,-8.594371146680096
-0.06570000000000009,-8.594371146680096
-0.0667000000000002,-8.594371146680096
-0.0677000000000001,-8.68208324727173
-0.0687000000000002,-8.68208324727173
-0.0697000000000001,-8.725939297567548
-0.07070000000000021,-8.769795347863363
-0.0717000000000001,-8.812236686859313
-0.07270000000000021,-8.85609273715513
-0.0737000000000001,-8.85609273715513
-0.07470000000000021,-8.899948787450944
-0.0757000000000001,-8.899948787450944
-0.07670000000000021,-8.85609273715513
-0.0777000000000001,-8.85609273715513
-0.07870000000000021,-8.85609273715513
-0.0797000000000001,-8.812236686859313
-0.08070000000000022,-8.812236686859313
-0.0817000000000001,-8.85609273715513
-0.08270000000000022,-8.85609273715513
-0.08370000000000011,-8.899948787450944
-0.08470000000000022,-8.899948787450944
-0.08570000000000011,-8.943804837746763
-0.08670000000000022,-8.987660888042578
-0.08770000000000011,-8.987660888042578
-0.08870000000000022,-9.031516938338395
-0.08970000000000011,-9.031516938338395
-0.09070000000000022,-9.031516938338395
-0.09170000000000011,-9.031516938338395
-0.09270000000000023,-8.987660888042578
-0.09370000000000012,-9.031516938338395
-0.09470000000000023,-8.943804837746763
-0.09570000000000012,-8.987660888042578
-0.09670000000000023,-8.943804837746763
-0.09770000000000012,-8.987660888042578
-0.09870000000000023,-8.987660888042578
-0.09970000000000012,-9.031516938338395
-0.10070000000000023,-9.073958277334345
-0.10170000000000012,-9.11781432763016
-0.10270000000000024,-9.11781432763016
-0.10370000000000013,-9.11781432763016
-0.10470000000000024,-9.161670377925978
-0.10570000000000013,-9.11781432763016
-0.10670000000000024,-9.11781432763016
-0.10770000000000013,-9.11781432763016
-0.10870000000000024,-9.073958277334345
-0.10970000000000013,-9.031516938338395
-0.11070000000000024,-9.031516938338395
-0.11170000000000013,-9.031516938338395
-0.11270000000000002,-9.031516938338395
-0.11370000000000013,-9.031516938338395
-0.11470000000000002,-9.073958277334345
-0.11570000000000014,-9.11781432763016
-0.11670000000000003,-9.11781432763016
-0.11770000000000014,-9.161670377925978
-0.11870000000000003,-9.161670377925978
-0.11970000000000014,-9.161670377925978
-0.12070000000000003,-9.161670377925978
-0.12170000000000014,-9.161670377925978
-0.12270000000000003,-9.11781432763016
-0.12370000000000014,-9.11781432763016
-0.12470000000000003,-9.073958277334345
-0.12570000000000014,-9.073958277334345
-0.12670000000000003,-9.031516938338395
-0.12770000000000015,-9.031516938338395
-0.12870000000000004,-9.073958277334345
-0.12970000000000015,-9.073958277334345
-0.13070000000000004,-9.11781432763016
-0.13170000000000015,-9.11781432763016
-0.13270000000000004,-9.161670377925978
-0.13370000000000015,-9.161670377925978
-0.13470000000000004,-9.205526428221793
-0.13570000000000015,-9.161670377925978
-0.13670000000000004,-9.11781432763016
-0.13770000000000016,-9.11781432763016
-0.13870000000000005,-9.073958277334345
-0.13970000000000016,-9.031516938338395
-0.14070000000000005,-9.031516938338395
-0.14170000000000016,-9.031516938338395
-0.14270000000000005,-9.031516938338395
-0.14370000000000016,-9.031516938338395
-0.14470000000000005,-9.073958277334345
-0.14570000000000016,-9.11781432763016
-0.14670000000000005,-9.161670377925978
-0.14770000000000016,-9.161670377925978
-0.14870000000000005,-9.161670377925978
-0.14970000000000017,-9.161670377925978
-0.15070000000000006,-9.161670377925978
-0.15170000000000017,-9.11781432763016
-0.15270000000000006,-9.11781432763016
-0.15370000000000017,-9.073958277334345
-0.15470000000000006,-9.031516938338395
-0.15570000000000017,-9.073958277334345
-0.15670000000000006,-9.031516938338395
-0.15770000000000017,-9.073958277334345
-0.15870000000000006,-9.073958277334345
-0.15970000000000018,-9.11781432763016
-0.16070000000000007,-9.161670377925978
-0.16170000000000018,-9.161670377925978
-0.16270000000000007,-9.161670377925978
-0.16370000000000018,-9.205526428221793
-0.16470000000000007,-9.205526428221793
-0.16570000000000018,-9.205526428221793
-0.16670000000000007,-9.161670377925978
-0.16770000000000018,-9.11781432763016
-0.16870000000000007,-9.11781432763016
-0.16970000000000018,-9.073958277334345
-0.17070000000000007,-9.073958277334345
-0.17170000000000019,-9.073958277334345
-0.17270000000000008,-9.11781432763016
-0.1737000000000002,-9.11781432763016
-0.17470000000000008,-9.161670377925978
-0.1757000000000002,-9.161670377925978
-0.17670000000000008,-9.205526428221793
-0.1777000000000002,-9.205526428221793
-0.17870000000000008,-9.205526428221793
-0.1797000000000002,-9.24938247851761
-0.18070000000000008,-9.205526428221793
-0.1817000000000002,-9.205526428221793
-0.18270000000000008,-9.161670377925978
-0.1837000000000002,-9.161670377925978
-0.1847000000000001,-9.11781432763016
-0.1857000000000002,-9.11781432763016
-0.1867000000000001,-9.11781432763016
-0.1877000000000002,-9.11781432763016
-0.1887000000000001,-9.161670377925978
-0.1897000000000002,-9.161670377925978
-0.1907000000000001,-9.205526428221793
-0.1917000000000001,-9.205526428221793
-0.19269999999999998,-9.24938247851761
-0.1937000000000001,-9.293238528813426
-0.19469999999999998,-9.293238528813426
-0.1957000000000001,-9.24938247851761
-0.19669999999999999,-9.24938247851761
-0.1977000000000001,-9.205526428221793
-0.1987,-9.205526428221793
-0.1997000000000001,-9.161670377925978
-0.2007,-9.205526428221793
-0.2017000000000001,-9.205526428221793
-0.2027,-9.205526428221793
-0.2037000000000001,-9.205526428221793
-0.2047,-9.24938247851761
-0.2057000000000001,-9.293238528813426
-0.2067,-9.293238528813426
-0.2077000000000001,-9.335679867809377
-0.2087,-9.335679867809377
-0.2097000000000001,-9.379535918105192
-0.2107,-9.335679867809377
-0.2117000000000001,-9.335679867809377
-0.2127,-9.293238528813426
-0.2137000000000001,-9.24938247851761
-0.2147,-9.24938247851761
-0.2157000000000001,-9.293238528813426
-0.2167,-9.24938247851761
-0.21770000000000012,-9.24938247851761
-0.2187,-9.293238528813426
-0.21970000000000012,-9.293238528813426
-0.2207,-9.335679867809377
-0.22170000000000012,-9.379535918105192
-0.2227,-9.423391968401008
-0.22370000000000012,-9.423391968401008
-0.2247,-9.423391968401008
-0.22570000000000012,-9.423391968401008
-0.2267,-9.423391968401008
-0.22770000000000012,-9.423391968401008
-0.22870000000000001,-9.379535918105192
-0.22970000000000013,-9.335679867809377
-0.23070000000000002,-9.379535918105192
-0.23170000000000013,-9.335679867809377
-0.23270000000000002,-9.379535918105192
-0.23370000000000013,-9.423391968401008
-0.23470000000000002,-9.423391968401008
-0.23570000000000013,-9.467248018696827
-0.23670000000000002,-9.511104068992642
-0.2376999999999999,-9.55496011928846
-0.23870000000000002,-9.55496011928846
-0.2396999999999999,-9.55496011928846
-0.24070000000000003,-9.55496011928846
-0.24169999999999991,-9.55496011928846
-0.24270000000000003,-9.55496011928846
-0.24369999999999992,-9.511104068992642
-0.24470000000000003,-9.511104068992642
-0.24569999999999992,-9.511104068992642
-0.24670000000000003,-9.511104068992642
-0.24769999999999992,-9.511104068992642
-0.24870000000000003,-9.55496011928846
-0.24969999999999992,-9.59740145828441
-0.25070000000000003,-9.641257508580225
-0.2516999999999999,-9.685113558876042
-0.25270000000000004,-9.728969609171857
-0.2536999999999999,-9.728969609171857
-0.25470000000000004,-9.772825659467674
-0.2556999999999999,-9.772825659467674
-0.25670000000000004,-9.772825659467674
-0.25769999999999993,-9.728969609171857
-0.25870000000000004,-9.728969609171857
-0.25969999999999993,-9.728969609171857
-0.26070000000000004,-9.728969609171857
-0.26169999999999993,-9.728969609171857
-0.26270000000000004,-9.772825659467674
-0.26369999999999993,-9.81668170976349
-0.26470000000000005,-9.85912304875944
-0.26569999999999994,-9.902979099055257
-0.26670000000000005,-9.946835149351072
-0.26769999999999994,-9.99069119964689
-0.26870000000000005,-10.034547249942705
-0.26969999999999994,-10.034547249942705
-0.27070000000000005,-10.034547249942705
-0.27169999999999994,-10.034547249942705
-0.27270000000000005,-10.078403300238522
-0.27369999999999994,-10.078403300238522
-0.27470000000000006,-10.034547249942705
-0.27569999999999995,-10.078403300238522
-0.27670000000000006,-10.078403300238522
-0.27769999999999995,-10.164700689530287
-0.27870000000000006,-10.208556739826104
-0.27969999999999995,-10.25241279012192
-0.28070000000000006,-10.296268840417738
-0.28169999999999995,-10.340124890713554
-0.28270000000000006,-10.382566229709504
-0.28369999999999995,-10.470278330301136
-0.28470000000000006,-10.470278330301136
-0.28569999999999995,-10.514134380596953
-0.28670000000000007,-10.557990430892769
-0.28769999999999996,-10.557990430892769
-0.28870000000000007,-10.557990430892769
-0.28969999999999996,-10.557990430892769
-0.29070000000000007,-10.601846481188586
-0.29169999999999996,-10.601846481188586
-0.29270000000000007,-10.688143870480351
-0.29369999999999996,-10.731999920776168
-0.2947000000000001,-10.819712021367803
-0.29569999999999996,-10.863568071663616
-0.2967000000000001,-10.949865460955383
-0.29769999999999996,-10.993721511251199
-0.2987000000000001,-11.037577561547016
-0.29969999999999997,-11.123874950838783
-0.3007000000000001,-11.1677310011346
-0.30169999999999997,-11.1677310011346
-0.3027000000000001,-11.211587051430415
-0.30369999999999997,-11.255443101726232
-0.3047000000000001,-11.299299152022046
-0.30569999999999997,-11.343155202317865
-0.3067000000000001,-11.385596541313816
-0.3077,-11.473308641905447
-0.3087000000000001,-11.517164692201263
-0.3097,-11.604876792792895
-0.3107000000000001,-11.691174182084664
-0.3117,-11.82274233297211
-0.3127000000000001,-11.909039722263879
-0.3137,-11.952895772559694
-0.3147000000000001,-12.040607873151327
-0.3157,-12.084463923447142
-0.3167000000000001,-12.12831997374296
-0.3177,-12.214617363034726
-0.3187000000000001,-12.302329463626359
-0.3197,-12.302329463626359
-0.3207000000000001,-12.390041564217992
-0.3217,-12.476338953509758
-0.3227000000000001,-12.56405105410139
-0.3237,-12.694204493688973
-0.3247000000000001,-12.781916594280606
-0.3257,-12.869628694872238
-0.3267000000000001,-12.99978213445982
-0.3277,-13.13135028534727
-0.3287000000000001,-13.217647674639037
-0.3297,-13.349215825526485
-0.3307000000000001,-13.3930718758223
-0.3317,-13.47936926511407
-0.3327000000000001,-13.567081365705702
-0.3337,-13.654793466297335
-0.3347000000000001,-13.698649516593148
-0.3357,-13.828802956180734
-0.3367000000000001,-13.916515056772363
-0.3377,-14.046668496359947
-0.3387000000000001,-14.175407224647667
-0.3397,-14.30273124163552
-0.3407000000000001,-14.486643710617974
-0.3417,-14.65640906660178
-0.3427000000000001,-14.783733083589633
-0.3437,-14.925204213576137
-0.3447000000000001,-15.094969569559943
-0.3457,-15.179852247551842
-0.3467000000000001,-15.307176264539699
-0.3477,-15.3920589425316
-0.3487000000000001,-15.533530072518102
-0.3497,-15.618412750510005
-0.3507000000000001,-15.78817810649381
-0.3517,-15.91550212348166
-0.3527000000000001,-16.099414592464115
-0.3537,-16.22673860945197
-0.3547000000000001,-16.396503965435777
-0.3557,-16.622857773414182
-0.35670000000000013,-16.750181790402035
-0.3577,-16.962388485381787
-0.35870000000000013,-17.103859615368293
-0.3597,-17.2736249713521
-0.36070000000000013,-17.4433903273359
-0.3617,-17.584861457322408
-0.3626999999999999,-17.75462681330621
-0.3637,-17.924392169290012
-0.3646999999999999,-18.06586329927652
-0.3657,-18.27806999425627
-0.3666999999999999,-18.44783535024008
-0.3677,-18.674189158218486
-0.3686999999999999,-18.88639585319824
-0.36970000000000003,-19.155191000172596
-0.3706999999999999,-19.367397695152352
-0.37170000000000003,-19.636192842126707
-0.3726999999999999,-19.848399537106463
-0.37370000000000003,-20.06060623208622
-0.3746999999999999,-20.329401379060574
-0.37570000000000003,-20.499166735044383
-0.3766999999999999,-20.72552054302279
-0.37770000000000004,-20.93772723800254
-0.3786999999999999,-21.107492593986347
-0.37970000000000004,-21.333846401964752
-0.3806999999999999,-21.54605309694451
-0.38170000000000004,-21.814848243918867
-0.38269999999999993,-22.069496277894572
-0.38370000000000004,-22.33829142486893
-0.38469999999999993,-22.592939458844636
-0.38570000000000004,-22.861734605818995
-0.38669999999999993,-23.15882397879065
-0.38770000000000004,-23.47006046476096
-0.38869999999999993,-23.724708498736668
-0.38970000000000005,-24.035944984706973
-0.39069999999999994,-24.290593018682678
-0.39170000000000005,-24.559388165657033
-0.39269999999999994,-24.814036199632742
-0.39370000000000005,-25.0828313466071
-0.39469999999999994,-25.337479380582806
-0.39570000000000005,-25.648715866553115
-0.39669999999999994,-25.91751101352747
-0.39770000000000005,-26.257041725495082
-0.39869999999999994,-26.568278211465387
-0.39970000000000006,-26.907808923433
-0.40069999999999995,-27.261486748399253
-0.40170000000000006,-27.615164573365515
-0.40269999999999995,-27.954695285333123
-0.40370000000000006,-28.308373110299385
-0.40469999999999995,-28.662050935265643
-0.40570000000000006,-28.959140308237306
-0.40669999999999995,-29.31281813320356
-0.40770000000000006,-29.62405461917387
-0.40869999999999995,-29.96358533114148
-0.40970000000000006,-30.317263156107735
-0.41069999999999995,-30.670940981073993
-0.41170000000000007,-31.010471693041605
-0.41269999999999996,-31.40659085700382
-0.41370000000000007,-31.802710020966025
-0.41469999999999996,-32.184682071929586
-0.41570000000000007,-32.58080123589179
-0.41669999999999996,-33.01936173884996
-0.41770000000000007,-33.45792224180811
-0.41869999999999996,-33.85404140577033
-0.4197000000000001,-34.278454795729836
-0.42069999999999996,-34.717015298688004
-0.4217000000000001,-35.07069312365426
-0.42269999999999996,-35.50925362661242
-0.4237000000000001,-35.90537279057463
-0.42469999999999997,-36.28734484153819
-0.4257000000000001,-36.725905344496354
-0.42669999999999997,-37.164465847454515
-0.4277000000000001,-37.60302635041268
-0.42869999999999997,-38.08402819236679
-0.4297000000000001,-38.5650300343209
-0.43069999999999997,-39.046031876275016
-0.4317000000000001,-39.56947505722508
-0.4327,-40.03632978618054
-0.4337000000000001,-40.559772967130606
-0.4347,-41.04077480908471
-0.4357000000000001,-41.52177665103883
-0.4367,-42.00277849299294
-0.4377000000000001,-42.483780334947056
-0.4387,-43.007223515897124
-0.4397000000000001,-43.48822535785123
-0.4407,-44.054109877797245
-0.4417000000000001,-44.577553058747306
-0.4427,-45.10099623969737
-0.4437000000000001,-45.666880759643384
-0.4447,-46.2327652795894
-0.4457000000000001,-46.79864979953541
-0.4467,-47.40697565847737
-0.4477000000000001,-47.987007291422046
-0.4487,-48.59533315036401
-0.4497000000000001,-49.20365900930597
-0.4507,-49.76954352925199
-0.4517000000000001,-50.335428049198
-0.4527,-50.943753908139975
-0.4537000000000001,-51.55207976708194
-0.4547,-52.11796428702795
-0.4557000000000001,-52.78287859796452
-0.4567,-53.39120445690648
-0.4577000000000001,-54.0419716548444
-0.4587,-54.69273885278232
-0.4597000000000001,-55.400094502714836
-0.4607,-56.093303039648696
-0.4617000000000001,-56.786511576582576
-0.4627,-57.493867226515086
-0.4637000000000001,-58.18707576344896
-0.4647,-58.92272563937878
-0.4657000000000001,-59.6300812893113
-0.4667,-60.32328982624517
-0.4677000000000001,-61.07308681517363
-0.4687,-61.7662953521075
-0.4697000000000001,-62.459503889041365
-0.4707,-63.20930087796983
-0.4717000000000001,-63.944950753899654
-0.4727,-64.72304196882543
-0.4737000000000001,-65.51528029674984
-0.4747,-66.29337151167562
-0.4757000000000001,-67.128051178596
-0.4767,-68.0051721845123
-0.4777000000000001,-68.82570473843404
-0.4787,-69.70282574435035
-0.4797000000000001,-70.57994675026669
-0.4807,-71.44292064318435
-0.48170000000000013,-72.27760031010472
-0.4827,-73.15472131602105
-0.48370000000000013,-74.0176952089387
-0.4847,-74.89481621485504
-0.48570000000000013,-75.77193722077136
-0.4867,-75.5880247517889
-0.48570000000000013,-74.0176952089387
-0.4847,-72.84348483005074
-0.48370000000000013,-71.8814811461425
-0.4827,-71.0043601402262
-0.48170000000000013,-70.14138624730852
-0.4807,-69.3491479193841
-0.4797000000000001,-68.57105670445833
-0.4787,-67.7788183765339
-0.4777000000000001,-67.00072716160814
-0.4767,-66.20848883368372
-0.4757000000000001,-65.4728389577539
-0.4747,-64.68060062982947
-0.4737000000000001,-63.902509414903705
-0.4727,-63.20930087796983
-0.4717000000000001,-62.459503889041365
-0.4707,-61.72385401311155
-0.4697000000000001,-61.07308681517363
-0.4687,-60.36573116524111
-0.4677000000000001,-59.67252262830725
-0.4667,-59.02175543036933
-0.4657000000000001,-58.31439978043681
-0.4647,-57.66363258249889
-0.4637000000000001,-56.97042404556503
-0.4627,-56.26306839563251
-0.4617000000000001,-55.527418519702685
-0.4607,-54.876651321764776
-0.4597000000000001,-54.1268543328363
