Dec. 12, 2024   18:35:49
Cyclic Voltammetry
File: c:/users/guazh/data/banditlqround7_x0exp59_r20/2024-12-09-exp640\exp640-2024-12-12t18_23_31-h2koh\exp640_cv_sr_800mvs_efin_-1500mv.bin
Data Source:  Experiment
Instrument Model:  CHI760E
Header: CV ran at 800 mVs
Note: 

Init E (V) = -1
High E (V) = -1
Low E (V) = -1.5
Final E (V) = -1
Init P/N = N
Scan Rate (V/s) = 0.8
Segment = 3
Sample Interval (V) = 0.001
Quiet Time (sec) = 2
Sensitivity (A/V) = 0.01
Comp R (ohm) = 1.2

Results:

Channel 1:
Segment 1:

Segment 2:

Segment 3:

Potential/V, Current/A

-1.000, 3.407e-5
-1.001, 1.081e-4
-1.002, 1.636e-4
-1.003, 2.067e-4
-1.004, 2.437e-4
-1.005, 2.715e-4
-1.006, 2.992e-4
-1.007, 3.239e-4
-1.008, 3.424e-4
-1.009, 3.609e-4
-1.010, 3.763e-4
-1.011, 3.886e-4
-1.012, 4.010e-4
-1.013, 4.102e-4
-1.014, 4.164e-4
-1.015, 4.225e-4
-1.016, 4.256e-4
-1.017, 4.318e-4
-1.018, 4.380e-4
-1.019, 4.410e-4
-1.020, 4.503e-4
-1.021, 4.565e-4
-1.022, 4.626e-4
-1.023, 4.688e-4
-1.024, 4.719e-4
-1.025, 4.780e-4
-1.026, 4.811e-4
-1.027, 4.811e-4
-1.028, 4.811e-4
-1.029, 4.842e-4
-1.030, 4.842e-4
-1.031, 4.842e-4
-1.032, 4.873e-4
-1.033, 4.935e-4
-1.034, 4.965e-4
-1.035, 4.996e-4
-1.036, 5.027e-4
-1.037, 5.089e-4
-1.038, 5.120e-4
-1.039, 5.150e-4
-1.040, 5.150e-4
-1.041, 5.150e-4
-1.042, 5.150e-4
-1.043, 5.120e-4
-1.044, 5.150e-4
-1.045, 5.150e-4
-1.046, 5.212e-4
-1.047, 5.212e-4
-1.048, 5.243e-4
-1.049, 5.274e-4
-1.050, 5.335e-4
-1.051, 5.335e-4
-1.052, 5.366e-4
-1.053, 5.366e-4
-1.054, 5.366e-4
-1.055, 5.366e-4
-1.056, 5.366e-4
-1.057, 5.366e-4
-1.058, 5.366e-4
-1.059, 5.366e-4
-1.060, 5.397e-4
-1.061, 5.428e-4
-1.062, 5.459e-4
-1.063, 5.520e-4
-1.064, 5.551e-4
-1.065, 5.551e-4
-1.066, 5.582e-4
-1.067, 5.551e-4
-1.068, 5.551e-4
-1.069, 5.551e-4
-1.070, 5.520e-4
-1.071, 5.551e-4
-1.072, 5.551e-4
-1.073, 5.582e-4
-1.074, 5.613e-4
-1.075, 5.644e-4
-1.076, 5.674e-4
-1.077, 5.705e-4
-1.078, 5.736e-4
-1.079, 5.705e-4
-1.080, 5.736e-4
-1.081, 5.705e-4
-1.082, 5.705e-4
-1.083, 5.674e-4
-1.084, 5.705e-4
-1.085, 5.705e-4
-1.086, 5.705e-4
-1.087, 5.736e-4
-1.088, 5.767e-4
-1.089, 5.798e-4
-1.090, 5.829e-4
-1.091, 5.829e-4
-1.092, 5.859e-4
-1.093, 5.859e-4
-1.094, 5.829e-4
-1.095, 5.829e-4
-1.096, 5.798e-4
-1.097, 5.798e-4
-1.098, 5.798e-4
-1.099, 5.798e-4
-1.100, 5.829e-4
-1.101, 5.829e-4
-1.102, 5.890e-4
-1.103, 5.921e-4
-1.104, 5.921e-4
-1.105, 5.921e-4
-1.106, 5.921e-4
-1.107, 5.890e-4
-1.108, 5.890e-4
-1.109, 5.859e-4
-1.110, 5.859e-4
-1.111, 5.859e-4
-1.112, 5.829e-4
-1.113, 5.859e-4
-1.114, 5.890e-4
-1.115, 5.921e-4
-1.116, 5.921e-4
-1.117, 5.952e-4
-1.118, 5.952e-4
-1.119, 5.952e-4
-1.120, 5.952e-4
-1.121, 5.952e-4
-1.122, 5.890e-4
-1.123, 5.890e-4
-1.124, 5.890e-4
-1.125, 5.859e-4
-1.126, 5.859e-4
-1.127, 5.890e-4
-1.128, 5.890e-4
-1.129, 5.921e-4
-1.130, 5.952e-4
-1.131, 5.952e-4
-1.132, 5.952e-4
-1.133, 5.952e-4
-1.134, 5.921e-4
-1.135, 5.921e-4
-1.136, 5.890e-4
-1.137, 5.890e-4
-1.138, 5.890e-4
-1.139, 5.890e-4
-1.140, 5.890e-4
-1.141, 5.921e-4
-1.142, 5.921e-4
-1.143, 5.952e-4
-1.144, 5.952e-4
-1.145, 5.952e-4
-1.146, 5.952e-4
-1.147, 5.952e-4
-1.148, 5.921e-4
-1.149, 5.890e-4
-1.150, 5.859e-4
-1.151, 5.859e-4
-1.152, 5.829e-4
-1.153, 5.859e-4
-1.154, 5.890e-4
-1.155, 5.921e-4
-1.156, 5.921e-4
-1.157, 5.952e-4
-1.158, 5.952e-4
-1.159, 5.952e-4
-1.160, 5.952e-4
-1.161, 5.921e-4
-1.162, 5.890e-4
-1.163, 5.890e-4
-1.164, 5.859e-4
-1.165, 5.859e-4
-1.166, 5.859e-4
-1.167, 5.859e-4
-1.168, 5.890e-4
-1.169, 5.921e-4
-1.170, 5.952e-4
-1.171, 5.952e-4
-1.172, 5.952e-4
-1.173, 5.921e-4
-1.174, 5.921e-4
-1.175, 5.890e-4
-1.176, 5.890e-4
-1.177, 5.859e-4
-1.178, 5.890e-4
-1.179, 5.859e-4
-1.180, 5.890e-4
-1.181, 5.921e-4
-1.182, 5.952e-4
-1.183, 5.952e-4
-1.184, 5.952e-4
-1.185, 5.983e-4
-1.186, 5.983e-4
-1.187, 5.983e-4
-1.188, 5.952e-4
-1.189, 5.921e-4
-1.190, 5.890e-4
-1.191, 5.890e-4
-1.192, 5.859e-4
-1.193, 5.890e-4
-1.194, 5.921e-4
-1.195, 5.921e-4
-1.196, 5.952e-4
-1.197, 5.983e-4
-1.198, 5.983e-4
-1.199, 5.983e-4
-1.200, 5.952e-4
-1.201, 5.952e-4
-1.202, 5.952e-4
-1.203, 5.921e-4
-1.204, 5.921e-4
-1.205, 5.890e-4
-1.206, 5.921e-4
-1.207, 5.921e-4
-1.208, 5.952e-4
-1.209, 5.983e-4
-1.210, 6.014e-4
-1.211, 6.014e-4
-1.212, 6.014e-4
-1.213, 6.014e-4
-1.214, 5.983e-4
-1.215, 5.952e-4
-1.216, 5.952e-4
-1.217, 5.921e-4
-1.218, 5.921e-4
-1.219, 5.921e-4
-1.220, 5.952e-4
-1.221, 5.952e-4
-1.222, 6.014e-4
-1.223, 6.014e-4
-1.224, 6.014e-4
-1.225, 6.044e-4
-1.226, 6.014e-4
-1.227, 6.014e-4
-1.228, 6.014e-4
-1.229, 6.014e-4
-1.230, 5.983e-4
-1.231, 5.983e-4
-1.232, 5.983e-4
-1.233, 6.014e-4
-1.234, 6.014e-4
-1.235, 6.044e-4
-1.236, 6.044e-4
-1.237, 6.075e-4
-1.238, 6.106e-4
-1.239, 6.075e-4
-1.240, 6.075e-4
-1.241, 6.075e-4
-1.242, 6.044e-4
-1.243, 6.014e-4
-1.244, 6.014e-4
-1.245, 6.014e-4
-1.246, 6.044e-4
-1.247, 6.075e-4
-1.248, 6.075e-4
-1.249, 6.106e-4
-1.250, 6.137e-4
-1.251, 6.168e-4
-1.252, 6.168e-4
-1.253, 6.137e-4
-1.254, 6.137e-4
-1.255, 6.137e-4
-1.256, 6.137e-4
-1.257, 6.106e-4
-1.258, 6.106e-4
-1.259, 6.137e-4
-1.260, 6.137e-4
-1.261, 6.168e-4
-1.262, 6.199e-4
-1.263, 6.229e-4
-1.264, 6.229e-4
-1.265, 6.260e-4
-1.266, 6.260e-4
-1.267, 6.260e-4
-1.268, 6.260e-4
-1.269, 6.229e-4
-1.270, 6.199e-4
-1.271, 6.229e-4
-1.272, 6.229e-4
-1.273, 6.260e-4
-1.274, 6.291e-4
-1.275, 6.322e-4
-1.276, 6.353e-4
-1.277, 6.384e-4
-1.278, 6.414e-4
-1.279, 6.414e-4
-1.280, 6.445e-4
-1.281, 6.445e-4
-1.282, 6.414e-4
-1.283, 6.414e-4
-1.284, 6.414e-4
-1.285, 6.445e-4
-1.286, 6.476e-4
-1.287, 6.476e-4
-1.288, 6.538e-4
-1.289, 6.569e-4
-1.290, 6.599e-4
-1.291, 6.630e-4
-1.292, 6.661e-4
-1.293, 6.661e-4
-1.294, 6.692e-4
-1.295, 6.661e-4
-1.296, 6.692e-4
-1.297, 6.692e-4
-1.298, 6.723e-4
-1.299, 6.723e-4
-1.300, 6.784e-4
-1.301, 6.815e-4
-1.302, 6.846e-4
-1.303, 6.939e-4
-1.304, 6.969e-4
-1.305, 7.000e-4
-1.306, 7.000e-4
-1.307, 7.031e-4
-1.308, 7.031e-4
-1.309, 7.062e-4
-1.310, 7.062e-4
-1.311, 7.093e-4
-1.312, 7.093e-4
-1.313, 7.154e-4
-1.314, 7.185e-4
-1.315, 7.278e-4
-1.316, 7.339e-4
-1.317, 7.401e-4
-1.318, 7.432e-4
-1.319, 7.463e-4
-1.320, 7.494e-4
-1.321, 7.524e-4
-1.322, 7.555e-4
-1.323, 7.555e-4
-1.324, 7.617e-4
-1.325, 7.648e-4
-1.326, 7.709e-4
-1.327, 7.771e-4
-1.328, 7.863e-4
-1.329, 7.925e-4
-1.330, 7.987e-4
-1.331, 8.048e-4
-1.332, 8.141e-4
-1.333, 8.172e-4
-1.334, 8.203e-4
-1.335, 8.264e-4
-1.336, 8.295e-4
-1.337, 8.326e-4
-1.338, 8.388e-4
-1.339, 8.449e-4
-1.340, 8.542e-4
-1.341, 8.603e-4
-1.342, 8.727e-4
-1.343, 8.819e-4
-1.344, 8.881e-4
-1.345, 8.973e-4
-1.346, 9.035e-4
-1.347, 9.097e-4
-1.348, 9.158e-4
-1.349, 9.220e-4
-1.350, 9.251e-4
-1.351, 9.343e-4
-1.352, 9.436e-4
-1.353, 9.528e-4
-1.354, 9.621e-4
-1.355, 9.744e-4
-1.356, 9.837e-4
-1.357, 9.960e-4
-1.358, 1.005e-3
-1.359, 1.018e-3
-1.360, 1.024e-3
-1.361, 1.033e-3
-1.362, 1.039e-3
-1.363, 1.048e-3
-1.364, 1.058e-3
-1.365, 1.070e-3
-1.366, 1.082e-3
-1.367, 1.095e-3
-1.368, 1.107e-3
-1.369, 1.122e-3
-1.370, 1.135e-3
-1.371, 1.147e-3
-1.372, 1.159e-3
-1.373, 1.172e-3
-1.374, 1.181e-3
-1.375, 1.193e-3
-1.376, 1.203e-3
-1.377, 1.215e-3
-1.378, 1.224e-3
-1.379, 1.240e-3
-1.380, 1.255e-3
-1.381, 1.270e-3
-1.382, 1.286e-3
-1.383, 1.304e-3
-1.384, 1.320e-3
-1.385, 1.335e-3
-1.386, 1.347e-3
-1.387, 1.363e-3
-1.388, 1.378e-3
-1.389, 1.394e-3
-1.390, 1.406e-3
-1.391, 1.425e-3
-1.392, 1.440e-3
-1.393, 1.462e-3
-1.394, 1.480e-3
-1.395, 1.499e-3
-1.396, 1.520e-3
-1.397, 1.539e-3
-1.398, 1.560e-3
-1.399, 1.579e-3
-1.400, 1.597e-3
-1.401, 1.613e-3
-1.402, 1.631e-3
-1.403, 1.650e-3
-1.404, 1.668e-3
-1.405, 1.687e-3
-1.406, 1.708e-3
-1.407, 1.730e-3
-1.408, 1.751e-3
-1.409, 1.776e-3
-1.410, 1.801e-3
-1.411, 1.822e-3
-1.412, 1.844e-3
-1.413, 1.865e-3
-1.414, 1.887e-3
-1.415, 1.909e-3
-1.416, 1.930e-3
-1.417, 1.955e-3
-1.418, 1.976e-3
-1.419, 2.001e-3
-1.420, 2.029e-3
-1.421, 2.057e-3
-1.422, 2.084e-3
-1.423, 2.112e-3
-1.424, 2.140e-3
-1.425, 2.168e-3
-1.426, 2.195e-3
-1.427, 2.220e-3
-1.428, 2.248e-3
-1.429, 2.272e-3
-1.430, 2.297e-3
-1.431, 2.328e-3
-1.432, 2.356e-3
-1.433, 2.390e-3
-1.434, 2.420e-3
-1.435, 2.451e-3
-1.436, 2.485e-3
-1.437, 2.519e-3
-1.438, 2.553e-3
-1.439, 2.584e-3
-1.440, 2.615e-3
-1.441, 2.649e-3
-1.442, 2.679e-3
-1.443, 2.710e-3
-1.444, 2.744e-3
-1.445, 2.778e-3
-1.446, 2.812e-3
-1.447, 2.849e-3
-1.448, 2.886e-3
-1.449, 2.926e-3
-1.450, 2.963e-3
-1.451, 3.000e-3
-1.452, 3.040e-3
-1.453, 3.077e-3
-1.454, 3.114e-3
-1.455, 3.151e-3
-1.456, 3.191e-3
-1.457, 3.228e-3
-1.458, 3.268e-3
-1.459, 3.311e-3
-1.460, 3.355e-3
-1.461, 3.395e-3
-1.462, 3.444e-3
-1.463, 3.490e-3
-1.464, 3.536e-3
-1.465, 3.586e-3
-1.466, 3.629e-3
-1.467, 3.675e-3
-1.468, 3.721e-3
-1.469, 3.765e-3
-1.470, 3.811e-3
-1.471, 3.857e-3
-1.472, 3.903e-3
-1.473, 3.956e-3
-1.474, 4.005e-3
-1.475, 4.061e-3
-1.476, 4.116e-3
-1.477, 4.169e-3
-1.478, 4.224e-3
-1.479, 4.280e-3
-1.480, 4.332e-3
-1.481, 4.384e-3
-1.482, 4.440e-3
-1.483, 4.495e-3
-1.484, 4.551e-3
-1.485, 4.609e-3
-1.486, 4.668e-3
-1.487, 4.727e-3
-1.488, 4.788e-3
-1.489, 4.850e-3
-1.490, 4.915e-3
-1.491, 4.979e-3
-1.492, 5.044e-3
-1.493, 5.106e-3
-1.494, 5.171e-3
-1.495, 5.232e-3
-1.496, 5.297e-3
-1.497, 5.359e-3
-1.498, 5.423e-3
-1.499, 5.488e-3
-1.500, 5.482e-3
-1.499, 5.380e-3
-1.498, 5.303e-3
-1.497, 5.238e-3
-1.496, 5.177e-3
-1.495, 5.118e-3
-1.494, 5.063e-3
-1.493, 5.010e-3
-1.492, 4.955e-3
-1.491, 4.902e-3
-1.490, 4.847e-3
-1.489, 4.794e-3
-1.488, 4.742e-3
-1.487, 4.696e-3
-1.486, 4.646e-3
-1.485, 4.600e-3
-1.484, 4.551e-3
-1.483, 4.501e-3
-1.482, 4.455e-3
-1.481, 4.406e-3
-1.480, 4.357e-3
-1.479, 4.304e-3
-1.478, 4.255e-3
-1.477, 4.206e-3
-1.476, 4.153e-3
-1.475, 4.104e-3
-1.474, 4.054e-3
-1.473, 4.008e-3
-1.472, 3.962e-3
-1.471, 3.913e-3
-1.470, 3.866e-3
-1.469, 3.820e-3
-1.468, 3.771e-3
-1.467, 3.725e-3
-1.466, 3.675e-3
-1.465, 3.626e-3
-1.464, 3.580e-3
-1.463, 3.530e-3
-1.462, 3.481e-3
-1.461, 3.435e-3
-1.460, 3.388e-3
-1.459, 3.342e-3
-1.458, 3.299e-3
-1.457, 3.256e-3
-1.456, 3.213e-3
-1.455, 3.163e-3
-1.454, 3.120e-3
-1.453, 3.074e-3
-1.452, 3.025e-3
-1.451, 2.982e-3
-1.450, 2.932e-3
-1.449, 2.886e-3
-1.448, 2.846e-3
-1.447, 2.803e-3
-1.446, 2.763e-3
-1.445, 2.723e-3
-1.444, 2.682e-3
-1.443, 2.645e-3
-1.442, 2.602e-3
-1.441, 2.562e-3
-1.440, 2.522e-3
-1.439, 2.476e-3
-1.438, 2.433e-3
-1.437, 2.390e-3
-1.436, 2.346e-3
-1.435, 2.306e-3
-1.434, 2.263e-3
-1.433, 2.223e-3
-1.432, 2.186e-3
-1.431, 2.146e-3
-1.430, 2.112e-3
-1.429, 2.072e-3
-1.428, 2.035e-3
-1.427, 1.998e-3
-1.426, 1.958e-3
-1.425, 1.921e-3
-1.424, 1.881e-3
-1.423, 1.844e-3
-1.422, 1.807e-3
-1.421, 1.770e-3
-1.420, 1.736e-3
-1.419, 1.705e-3
-1.418, 1.674e-3
-1.417, 1.640e-3
-1.416, 1.606e-3
-1.415, 1.573e-3
-1.414, 1.539e-3
-1.413, 1.505e-3
-1.412, 1.471e-3
-1.411, 1.437e-3
-1.410, 1.403e-3
-1.409, 1.369e-3
-1.408, 1.338e-3
-1.407, 1.307e-3
-1.406, 1.280e-3
-1.405, 1.252e-3
-1.404, 1.221e-3
-1.403, 1.196e-3
-1.402, 1.169e-3
-1.401, 1.138e-3
-1.400, 1.110e-3
-1.399, 1.079e-3
-1.398, 1.048e-3
-1.397, 1.021e-3
-1.396, 9.929e-4
-1.395, 9.652e-4
-1.394, 9.374e-4
-1.393, 9.128e-4
-1.392, 8.881e-4
-1.391, 8.665e-4
-1.390, 8.449e-4
-1.389, 8.203e-4
-1.388, 7.956e-4
-1.387, 7.679e-4
-1.386, 7.432e-4
-1.385, 7.185e-4
-1.384, 6.969e-4
-1.383, 6.692e-4
-1.382, 6.476e-4
-1.381, 6.229e-4
-1.380, 6.014e-4
-1.379, 5.829e-4
-1.378, 5.644e-4
-1.377, 5.459e-4
-1.376, 5.274e-4
-1.375, 5.058e-4
-1.374, 4.842e-4
-1.373, 4.657e-4
-1.372, 4.441e-4
-1.371, 4.256e-4
-1.370, 4.040e-4
-1.369, 3.855e-4
-1.368, 3.670e-4
-1.367, 3.485e-4
-1.366, 3.331e-4
-1.365, 3.208e-4
-1.364, 3.023e-4
-1.363, 2.869e-4
-1.362, 2.715e-4
-1.361, 2.561e-4
-1.360, 2.406e-4
-1.359, 2.221e-4
-1.358, 2.036e-4
-1.357, 1.882e-4
-1.356, 1.728e-4
-1.355, 1.574e-4
-1.354, 1.451e-4
-1.353, 1.296e-4
-1.352, 1.173e-4
-1.351, 1.081e-4
-1.350, 9.573e-5
-1.349, 8.340e-5
-1.348, 7.107e-5
-1.347, 5.873e-5
-1.346, 4.332e-5
-1.345, 3.099e-5
-1.344, 1.557e-5
-1.343, 3.239e-6
-1.342, -9.093e-6
-1.341, -2.143e-5
-1.340, -3.068e-5
-1.339, -3.992e-5
-1.338, -4.609e-5
-1.337, -5.534e-5
-1.336, -6.151e-5
-1.335, -7.384e-5
-1.334, -8.309e-5
-1.333, -9.542e-5
-1.332, -1.078e-4
-1.331, -1.201e-4
-1.330, -1.293e-4
-1.329, -1.386e-4
-1.328, -1.478e-4
-1.327, -1.540e-4
-1.326, -1.602e-4
-1.325, -1.663e-4
-1.324, -1.756e-4
-1.323, -1.817e-4
-1.322, -1.879e-4
-1.321, -1.941e-4
-1.320, -2.033e-4
-1.319, -2.126e-4
-1.318, -2.218e-4
-1.317, -2.311e-4
-1.316, -2.372e-4
-1.315, -2.465e-4
-1.314, -2.527e-4
-1.313, -2.557e-4
-1.312, -2.588e-4
-1.311, -2.650e-4
-1.310, -2.681e-4
-1.309, -2.742e-4
-1.308, -2.773e-4
-1.307, -2.835e-4
-1.306, -2.927e-4
-1.305, -3.020e-4
-1.304, -3.051e-4
-1.303, -3.143e-4
-1.302, -3.205e-4
-1.301, -3.267e-4
-1.300, -3.297e-4
-1.299, -3.297e-4
-1.298, -3.328e-4
-1.297, -3.359e-4
-1.296, -3.390e-4
-1.295, -3.421e-4
-1.294, -3.482e-4
-1.293, -3.544e-4
-1.292, -3.606e-4
-1.291, -3.637e-4
-1.290, -3.698e-4
-1.289, -3.760e-4
-1.288, -3.791e-4
-1.287, -3.821e-4
-1.286, -3.852e-4
-1.285, -3.852e-4
-1.284, -3.883e-4
-1.283, -3.883e-4
-1.282, -3.883e-4
-1.281, -3.914e-4
-1.280, -3.976e-4
-1.279, -4.037e-4
-1.278, -4.068e-4
-1.277, -4.130e-4
-1.276, -4.161e-4
-1.275, -4.191e-4
-1.274, -4.191e-4
-1.273, -4.222e-4
-1.272, -4.222e-4
-1.271, -4.222e-4
-1.270, -4.222e-4
-1.269, -4.222e-4
-1.268, -4.284e-4
-1.267, -4.315e-4
-1.266, -4.346e-4
-1.265, -4.407e-4
-1.264, -4.407e-4
-1.263, -4.469e-4
-1.262, -4.500e-4
-1.261, -4.531e-4
-1.260, -4.531e-4
-1.259, -4.531e-4
-1.258, -4.531e-4
-1.257, -4.500e-4
-1.256, -4.531e-4
-1.255, -4.531e-4
-1.254, -4.561e-4
-1.253, -4.592e-4
-1.252, -4.623e-4
-1.251, -4.654e-4
-1.250, -4.716e-4
-1.249, -4.716e-4
-1.248, -4.746e-4
-1.247, -4.716e-4
-1.246, -4.746e-4
-1.245, -4.716e-4
-1.244, -4.716e-4
-1.243, -4.716e-4
-1.242, -4.716e-4
-1.241, -4.746e-4
-1.240, -4.777e-4
-1.239, -4.808e-4
-1.238, -4.839e-4
-1.237, -4.870e-4
-1.236, -4.901e-4
-1.235, -4.901e-4
-1.234, -4.901e-4
-1.233, -4.901e-4
-1.232, -4.901e-4
-1.231, -4.901e-4
-1.230, -4.870e-4
-1.229, -4.901e-4
-1.228, -4.901e-4
-1.227, -4.931e-4
-1.226, -4.931e-4
-1.225, -4.962e-4
-1.224, -4.993e-4
-1.223, -5.024e-4
-1.222, -5.024e-4
-1.221, -5.055e-4
-1.220, -5.055e-4
-1.219, -5.024e-4
-1.218, -5.024e-4
-1.217, -4.993e-4
-1.216, -4.993e-4
-1.215, -5.024e-4
-1.214, -5.024e-4
-1.213, -5.024e-4
-1.212, -5.055e-4
-1.211, -5.086e-4
-1.210, -5.116e-4
-1.209, -5.116e-4
-1.208, -5.147e-4
-1.207, -5.147e-4
-1.206, -5.147e-4
-1.205, -5.116e-4
-1.204, -5.116e-4
-1.203, -5.086e-4
-1.202, -5.116e-4
-1.201, -5.116e-4
-1.200, -5.116e-4
-1.199, -5.147e-4
-1.198, -5.178e-4
-1.197, -5.178e-4
-1.196, -5.209e-4
-1.195, -5.209e-4
-1.194, -5.209e-4
-1.193, -5.209e-4
-1.192, -5.209e-4
-1.191, -5.178e-4
-1.190, -5.178e-4
-1.189, -5.147e-4
-1.188, -5.178e-4
-1.187, -5.178e-4
-1.186, -5.209e-4
-1.185, -5.240e-4
-1.184, -5.240e-4
-1.183, -5.271e-4
-1.182, -5.271e-4
-1.181, -5.301e-4
-1.180, -5.271e-4
-1.179, -5.271e-4
-1.178, -5.240e-4
-1.177, -5.240e-4
-1.176, -5.240e-4
-1.175, -5.240e-4
-1.174, -5.240e-4
-1.173, -5.240e-4
-1.172, -5.271e-4
-1.171, -5.301e-4
-1.170, -5.332e-4
-1.169, -5.332e-4
-1.168, -5.332e-4
-1.167, -5.332e-4
-1.166, -5.332e-4
-1.165, -5.301e-4
-1.164, -5.301e-4
-1.163, -5.271e-4
-1.162, -5.271e-4
-1.161, -5.271e-4
-1.160, -5.301e-4
-1.159, -5.332e-4
-1.158, -5.363e-4
-1.157, -5.394e-4
-1.156, -5.394e-4
-1.155, -5.394e-4
-1.154, -5.394e-4
-1.153, -5.394e-4
-1.152, -5.363e-4
-1.151, -5.363e-4
-1.150, -5.332e-4
-1.149, -5.332e-4
-1.148, -5.332e-4
-1.147, -5.332e-4
-1.146, -5.363e-4
-1.145, -5.394e-4
-1.144, -5.394e-4
-1.143, -5.425e-4
-1.142, -5.456e-4
-1.141, -5.456e-4
-1.140, -5.456e-4
-1.139, -5.425e-4
-1.138, -5.394e-4
-1.137, -5.394e-4
-1.136, -5.394e-4
-1.135, -5.394e-4
-1.134, -5.394e-4
-1.133, -5.425e-4
-1.132, -5.425e-4
-1.131, -5.456e-4
-1.130, -5.517e-4
-1.129, -5.517e-4
-1.128, -5.517e-4
-1.127, -5.517e-4
-1.126, -5.486e-4
-1.125, -5.486e-4
-1.124, -5.486e-4
-1.123, -5.456e-4
-1.122, -5.456e-4
-1.121, -5.456e-4
-1.120, -5.486e-4
-1.119, -5.517e-4
-1.118, -5.548e-4
-1.117, -5.548e-4
-1.116, -5.579e-4
-1.115, -5.579e-4
-1.114, -5.579e-4
-1.113, -5.579e-4
-1.112, -5.579e-4
-1.111, -5.579e-4
-1.110, -5.517e-4
-1.109, -5.517e-4
-1.108, -5.548e-4
-1.107, -5.579e-4
-1.106, -5.579e-4
-1.105, -5.610e-4
-1.104, -5.641e-4
-1.103, -5.671e-4
-1.102, -5.702e-4
-1.101, -5.702e-4
-1.100, -5.702e-4
-1.099, -5.702e-4
-1.098, -5.671e-4
-1.097, -5.671e-4
-1.096, -5.671e-4
-1.095, -5.671e-4
-1.094, -5.702e-4
-1.093, -5.702e-4
-1.092, -5.733e-4
-1.091, -5.764e-4
-1.090, -5.795e-4
-1.089, -5.826e-4
-1.088, -5.826e-4
-1.087, -5.826e-4
-1.086, -5.826e-4
-1.085, -5.826e-4
-1.084, -5.826e-4
-1.083, -5.795e-4
-1.082, -5.826e-4
-1.081, -5.826e-4
-1.080, -5.856e-4
-1.079, -5.887e-4
-1.078, -5.918e-4
-1.077, -5.949e-4
-1.076, -5.980e-4
-1.075, -6.011e-4
-1.074, -6.011e-4
-1.073, -6.041e-4
-1.072, -6.011e-4
-1.071, -6.011e-4
-1.070, -5.980e-4
-1.069, -5.980e-4
-1.068, -6.011e-4
-1.067, -6.041e-4
-1.066, -6.072e-4
-1.065, -6.103e-4
-1.064, -6.134e-4
-1.063, -6.165e-4
-1.062, -6.195e-4
-1.061, -6.195e-4
-1.060, -6.226e-4
-1.059, -6.195e-4
-1.058, -6.226e-4
-1.057, -6.195e-4
-1.056, -6.195e-4
-1.055, -6.226e-4
-1.054, -6.257e-4
-1.053, -6.257e-4
-1.052, -6.319e-4
-1.051, -6.350e-4
-1.050, -6.380e-4
-1.049, -6.411e-4
-1.048, -6.442e-4
-1.047, -6.442e-4
-1.046, -6.473e-4
-1.045, -6.442e-4
-1.044, -6.442e-4
-1.043, -6.442e-4
-1.042, -6.473e-4
-1.041, -6.473e-4
-1.040, -6.504e-4
-1.039, -6.565e-4
-1.038, -6.596e-4
-1.037, -6.627e-4
-1.036, -6.689e-4
-1.035, -6.720e-4
-1.034, -6.720e-4
-1.033, -6.720e-4
-1.032, -6.750e-4
-1.031, -6.750e-4
-1.030, -6.750e-4
-1.029, -6.781e-4
-1.028, -6.781e-4
-1.027, -6.812e-4
-1.026, -6.874e-4
-1.025, -6.935e-4
-1.024, -6.966e-4
-1.023, -7.028e-4
-1.022, -7.059e-4
-1.021, -7.090e-4
-1.020, -7.090e-4
-1.019, -7.120e-4
-1.018, -7.090e-4
-1.017, -7.120e-4
-1.016, -7.120e-4
-1.015, -7.151e-4
-1.014, -7.182e-4
-1.013, -7.244e-4
-1.012, -7.275e-4
-1.011, -7.305e-4
-1.010, -7.367e-4
-1.009, -7.429e-4
-1.008, -7.460e-4
-1.007, -7.490e-4
-1.006, -7.521e-4
-1.005, -7.521e-4
-1.004, -7.552e-4
-1.003, -7.552e-4
-1.002, -7.583e-4
-1.001, -7.614e-4
