Potential V vs RHE, Current mA cm-2
0.05339999999999995,-0.06282732882700628
0.05239999999999995,-0.06451083527384567
0.051399999999999946,-0.06541625050575929
0.050399999999999945,-0.06606701770369722
0.049399999999999944,-0.06660460799764592
0.04839999999999994,-0.06707146272660139
0.04739999999999994,-0.06753831745555686
0.04639999999999994,-0.06793443661951905
0.04539999999999994,-0.06837299712247723
0.04439999999999994,-0.06878326339943809
0.04339999999999994,-0.069151088337403
0.04239999999999994,-0.0695189132753679
0.04139999999999994,-0.06990088532633146
0.040399999999999936,-0.07026871026429637
0.039399999999999935,-0.07069312365425588
0.038399999999999934,-0.07099021302722754
0.03739999999999993,-0.0713438908521938
0.03639999999999993,-0.07176830424215332
0.03539999999999993,-0.07212198206711957
0.03439999999999993,-0.07243321855308989
0.03339999999999993,-0.07281519060405345
0.03239999999999993,-0.07316886842901969
0.03139999999999993,-0.07353669336698461
0.030399999999999927,-0.07386207696595355
0.029399999999999926,-0.07424404901691713
0.028399999999999925,-0.07461187395488203
0.027399999999999924,-0.07495140466684964
0.026399999999999924,-0.0753333767178132
0.025399999999999923,-0.07570120165577811
0.024399999999999922,-0.07605487948074438
0.02339999999999992,-0.07642270441870928
0.02239999999999992,-0.0767339409046796
0.02139999999999992,-0.07708761872964585
0.020399999999999918,-0.07748373789360806
0.019399999999999917,-0.07785156283157296
0.018399999999999916,-0.07820524065653922
0.017399999999999916,-0.07851647714250953
0.016399999999999915,-0.07887015496747579
0.015399999999999914,-0.07923797990544071
0.014399999999999913,-0.07963409906940291
0.013399999999999912,-0.08000192400736782
0.012399999999999911,-0.08039804317133004
0.01139999999999991,-0.0807800152222936
0.01039999999999991,-0.0811478401602585
0.009399999999999908,-0.08154395932422072
0.008399999999999908,-0.08189763714918698
0.007399999999999907,-0.08227960920015054
0.006399999999999906,-0.08270402259011005
0.005399999999999905,-0.08310014175407225
0.004399999999999904,-0.08346796669203715
0.003399999999999903,-0.08380749740400478
0.002399999999999902,-0.08416117522897103
0.0013999999999999013,-0.08451485305393729
0.00039999999999990044,-0.0848260895399076
-0.0006000000000001005,-0.08525050292986712
-0.0016000000000001013,-0.08564662209382931
-0.0026000000000001022,-0.08600029991879557
-0.003600000000000103,-0.08641056619575643
-0.004600000000000104,-0.08677839113372135
-0.005600000000000105,-0.08718865741068221
-0.006600000000000106,-0.08764136502663902
-0.007600000000000107,-0.08799504285160528
-0.008600000000000108,-0.08833457356357288
-0.009600000000000108,-0.0887023985015378
-0.01060000000000011,-0.08907022343950272
-0.01160000000000011,-0.08949463682946222
-0.012600000000000111,-0.08989075599342443
-0.013600000000000112,-0.09027272804438799
-0.014600000000000113,-0.09068299432134884
-0.015600000000000114,-0.09106496637231241
-0.016600000000000115,-0.09144693842327598
-0.017600000000000116,-0.09182891047423952
-0.018600000000000116,-0.09216844118620715
-0.019600000000000117,-0.09259285457616664
-0.020600000000000118,-0.09298897374012885
-0.02160000000000012,-0.09337094579109242
-0.02260000000000012,-0.09373877072905733
-0.02360000000000012,-0.09419147834501414
-0.024600000000000122,-0.09464418596097096
-0.025600000000000123,-0.09501201089893586
-0.026600000000000124,-0.09537983583690077
-0.027600000000000124,-0.09577595500086299
-0.028600000000000125,-0.09621451550382115
-0.029600000000000126,-0.09658234044178605
-0.030600000000000127,-0.09700675383174556
-0.03160000000000013,-0.09741702010870643
-0.03260000000000013,-0.09782728638566728
-0.03360000000000013,-0.09826584688862545
-0.03460000000000002,-0.09869026027858496
-0.03560000000000002,-0.09908637944254717
-0.03660000000000002,-0.09946835149351073
-0.03760000000000002,-0.09982202931847699
-0.03860000000000002,-0.10018985425644189
-0.039600000000000024,-0.10057182630740545
-0.040600000000000025,-0.10103868103636092
-0.041600000000000026,-0.10143480020032314
-0.04260000000000003,-0.10181677225128669
-0.04360000000000003,-0.1022128914152489
-0.04460000000000003,-0.10258071635321381
-0.04560000000000003,-0.10297683551717601
-0.04660000000000003,-0.10330221911614497
-0.04760000000000003,-0.10367004405410989
-0.04860000000000003,-0.10405201610507345
-0.04960000000000003,-0.104433988156037
-0.050600000000000034,-0.10483010731999923
-0.051600000000000035,-0.10519793225796412
-0.052600000000000036,-0.10553746296993173
-0.053600000000000037,-0.10596187635989125
-0.05460000000000004,-0.10632970129785616
-0.05560000000000004,-0.10672582046181836
-0.05660000000000004,-0.10707949828678462
-0.05760000000000004,-0.10740488188575359
-0.05860000000000004,-0.1078010010497158
-0.05960000000000004,-0.10816882598768068
-0.06060000000000004,-0.10849420958664967
-0.061600000000000044,-0.10883374029861728
-0.06260000000000004,-0.10922985946257947
-0.06360000000000005,-0.10958353728754573
-0.06460000000000005,-0.10986647954751874
-0.06560000000000005,-0.11017771603348907
-0.06660000000000005,-0.11053139385845531
-0.06760000000000005,-0.11084263034442562
-0.06860000000000005,-0.11126704373438513
-0.06960000000000005,-0.11159242733335409
-0.07060000000000005,-0.11196025227131902
-0.07160000000000005,-0.11225734164429065
-0.07260000000000005,-0.11255443101726233
-0.07360000000000005,-0.11285152039023398
-0.07460000000000006,-0.11314860976320563
-0.07560000000000006,-0.11348814047517325
-0.07660000000000006,-0.11382767118714086
-0.07760000000000006,-0.11415305478610982
-0.07860000000000006,-0.11443599704608282
-0.07960000000000006,-0.11470479219305717
-0.08060000000000006,-0.1150726171310221
-0.08160000000000006,-0.11531311805199915
-0.08260000000000006,-0.11565264876396675
-0.08360000000000006,-0.11600632658893299
-0.08460000000000006,-0.11633171018790198
-0.08560000000000006,-0.11662879956087362
-0.08660000000000007,-0.11691174182084664
-0.08760000000000007,-0.11719468408081965
-0.08860000000000007,-0.11747762634079266
-0.08960000000000007,-0.11774642148776701
-0.09060000000000007,-0.11798692240874405
-0.09160000000000007,-0.11821327621672245
-0.09260000000000007,-0.11848207136369682
-0.09360000000000007,-0.11865183671968062
-0.09460000000000007,-0.11883574918866308
-0.09560000000000007,-0.11909039722263878
-0.09660000000000007,-0.11930260391761856
-0.09760000000000008,-0.1195713990645929
-0.09860000000000008,-0.11984019421156727
-0.09960000000000008,-0.12006654801954567
-0.10060000000000008,-0.12029290182752407
-0.10160000000000008,-0.12050510852250383
-0.10260000000000008,-0.12071731521748358
-0.10360000000000008,-0.12087293346046873
-0.10460000000000008,-0.1210851401554485
-0.10560000000000008,-0.1212549055114323
-0.10660000000000008,-0.12149540643240934
-0.10760000000000008,-0.1216510246753945
-0.10860000000000009,-0.12176420157938371
-0.10960000000000009,-0.12191981982236885
-0.11060000000000009,-0.12206129095235536
-0.11160000000000009,-0.12220276208234186
-0.11260000000000009,-0.12240082166432298
-0.11360000000000009,-0.12254229279430948
-0.11460000000000009,-0.12271205815029328
-0.11560000000000009,-0.12285352928027979
-0.11660000000000009,-0.12296670618426901
-0.1176000000000001,-0.12307988308825818
-0.1186000000000001,-0.1231647657662501
-0.1196000000000001,-0.12329208978323794
-0.1206000000000001,-0.12343356091322445
-0.1216000000000001,-0.12353259070421502
-0.1226000000000001,-0.12363162049520555
-0.1236000000000001,-0.12371650317319745
-0.1246000000000001,-0.12373065028619613
-0.1256000000000001,-0.1238438271901853
-0.1266000000000001,-0.12392870986817722
-0.1276000000000001,-0.12399944543317046
-0.1286000000000001,-0.12411262233715968
-0.1296000000000001,-0.12418335790215292
-0.1306000000000001,-0.12426824058014481
-0.1316000000000001,-0.12432482903213941
-0.1326000000000001,-0.12439556459713268
-0.1336000000000001,-0.1244521530491273
-0.1346000000000001,-0.12450874150112187
-0.1356000000000001,-0.12456532995311646
-0.1366000000000001,-0.12455118284011783
-0.1376000000000001,-0.12456532995311646
-0.1386000000000001,-0.1245936241791138
-0.1396000000000001,-0.12460777129211242
-0.1406000000000001,-0.12460777129211242
-0.14160000000000011,-0.12465021263110838
-0.14260000000000012,-0.12467850685710569
-0.14360000000000012,-0.12469265397010434
-0.14460000000000012,-0.12472094819610165
-0.14560000000000012,-0.12474924242209892
-0.14660000000000012,-0.12470680108310296
-0.14760000000000012,-0.12469265397010434
-0.14860000000000012,-0.12465021263110838
-0.14960000000000012,-0.12467850685710569
-0.15060000000000012,-0.12472094819610165
-0.15160000000000012,-0.12465021263110838
-0.15260000000000012,-0.12466435974410703
-0.15360000000000013,-0.12462191840511107
-0.15460000000000013,-0.12456532995311646
-0.15560000000000013,-0.12453703572711919
-0.15660000000000013,-0.12453703572711919
-0.15760000000000013,-0.12446630016212593
-0.15860000000000013,-0.12443800593612864
-0.15960000000000002,-0.12435312325813672
-0.16060000000000002,-0.12429653480614214
-0.16160000000000002,-0.12423994635414752
-0.16260000000000002,-0.12419750501515157
-0.16360000000000002,-0.12418335790215292
-0.16460000000000002,-0.12409847522416102
-0.16560000000000002,-0.12407018099816372
-0.16660000000000003,-0.12405603388516506
-0.16760000000000003,-0.12397115120717317
-0.16860000000000003,-0.12394285698117587
-0.16960000000000003,-0.1239004156421799
-0.17060000000000003,-0.12381553296418803
-0.17160000000000003,-0.12368820894720017
-0.17260000000000003,-0.12361747338220691
-0.17360000000000003,-0.12356088493021229
-0.17460000000000003,-0.1234760022522204
-0.17560000000000003,-0.12340526668722714
-0.17660000000000003,-0.1233062368962366
-0.17760000000000004,-0.12320720710524605
-0.17860000000000004,-0.12312232442725414
-0.17960000000000004,-0.12303744174926225
-0.18060000000000004,-0.12296670618426901
-0.18160000000000004,-0.12289597061927575
-0.18260000000000004,-0.12281108794128386
-0.18360000000000004,-0.12282523505428247
-0.18460000000000004,-0.12269791103729463
-0.18560000000000004,-0.12257058702030678
-0.18660000000000004,-0.12248570434231489
-0.18760000000000004,-0.12233008609932973
-0.18860000000000005,-0.12224520342133782
-0.18960000000000005,-0.12218861496934323
-0.19060000000000005,-0.12217446785634459
-0.19160000000000005,-0.12214617363034727
-0.19260000000000005,-0.12201884961335942
-0.19360000000000005,-0.12186323137037425
-0.19460000000000005,-0.12177834869238235
-0.19560000000000005,-0.12173590735338641
-0.19660000000000005,-0.12163687756239586
-0.19760000000000005,-0.121509553545408
-0.19860000000000005,-0.1214529650934134
-0.19960000000000006,-0.12132564107642556
-0.20060000000000006,-0.121226611285435
-0.20160000000000006,-0.12114172860744309
-0.20260000000000006,-0.1210851401554485
-0.20360000000000006,-0.12097196325145929
-0.20460000000000006,-0.12080219789547549
-0.20560000000000006,-0.12074560944348088
-0.20660000000000006,-0.12060413831349438
-0.20760000000000006,-0.12049096140950517
-0.20860000000000006,-0.12039193161851462
-0.20960000000000006,-0.12032119605352137
-0.21060000000000006,-0.12023631337552945
-0.21160000000000007,-0.12012313647154027
-0.21260000000000007,-0.11998166534155377
-0.21360000000000007,-0.11992507688955915
-0.21460000000000007,-0.11978360575957266
-0.21560000000000007,-0.11972701730757807
-0.21660000000000007,-0.11961384040358886
-0.21760000000000007,-0.11951481061259829
-0.21860000000000007,-0.11945822216060371
-0.21960000000000007,-0.1194016337086091
-0.22060000000000007,-0.11927430969162124
-0.22160000000000007,-0.11917527990063068
-0.22260000000000008,-0.11907625010964012
-0.22360000000000008,-0.11896307320565094
-0.22460000000000008,-0.11887819052765905
-0.22560000000000008,-0.11879330784966712
-0.22660000000000008,-0.11870842517167522
-0.22760000000000008,-0.11859524826768601
-0.22860000000000008,-0.11851036558969412
-0.22960000000000008,-0.11839718868570492
-0.23060000000000008,-0.11834060023371032
-0.23160000000000008,-0.11826986466871706
-0.23260000000000008,-0.11821327621672245
-0.23360000000000009,-0.11815668776472787
-0.2346000000000001,-0.11800106952174272
-0.2356000000000001,-0.11783130416575889
-0.2366000000000001,-0.11776056860076566
-0.2376000000000001,-0.11771812726176971
-0.2386000000000001,-0.11764739169677645
-0.2396000000000001,-0.1176049503577805
-0.2406000000000001,-0.11752006767978859
-0.2416000000000001,-0.11742103788879804
-0.2426000000000001,-0.11733615521080615
-0.2436000000000001,-0.1172937138718102
-0.2446000000000001,-0.11716638985482233
-0.2456000000000001,-0.1170956542898291
-0.2466000000000001,-0.11701077161183718
-0.2476000000000001,-0.11689759470784798
-0.2486000000000001,-0.11674197646486283
-0.2496000000000001,-0.11668538801286822
-0.2506000000000001,-0.11661465244787497
-0.2516000000000001,-0.11654391688288172
-0.2526000000000001,-0.11644488709189117
-0.2536000000000001,-0.11638829863989655
-0.2546000000000001,-0.11631756307490332
-0.2556000000000001,-0.11623268039691143
-0.2566000000000001,-0.11614779771891949
-0.2576000000000001,-0.11610535637992356
-0.2586000000000001,-0.1159780323629357
-0.2596000000000001,-0.11587900257194515
-0.2606000000000001,-0.1158365612329492
-0.2616000000000001,-0.11576582566795594
-0.2626000000000001,-0.11570923721596137
-0.2636000000000001,-0.11565264876396675
-0.2646000000000001,-0.1156950901029627
-0.2656000000000001,-0.11559606031197216
-0.2666000000000001,-0.11545458918198566
-0.2676000000000001,-0.11532726516499778
-0.2686000000000001,-0.11528482382600183
-0.2696000000000001,-0.11522823537400724
-0.2706000000000001,-0.11518579403501128
-0.2716000000000001,-0.11515749980901398
-0.2726000000000001,-0.11508676424402071
-0.2736000000000001,-0.11503017579202615
-0.2746000000000001,-0.11501602867902748
-0.2756000000000001,-0.11493114600103559
-0.2766000000000001,-0.11487455754904098
-0.2776000000000001,-0.11476138064505177
-0.2786000000000001,-0.11470479219305717
-0.2796000000000001,-0.11464820374106259
-0.2806000000000001,-0.11463405662806392
-0.28160000000000013,-0.11457746817606933
-0.28260000000000013,-0.11456332106307067
-0.28360000000000013,-0.11452087972407471
-0.2846,-0.11443599704608282
-0.2856,-0.11440770282008553
-0.2866,-0.11435111436809091
-0.2876,-0.11433696725509226
-0.2886,-0.11435111436809091
-0.2896,-0.11428037880309765
-0.2906,-0.11420964323810441
-0.2916,-0.11413890767311115
-0.2926,-0.1140964663341152
-0.2936,-0.11418134901210711
-0.29460000000000003,-0.11419549612510577
-0.29560000000000003,-0.11412476056011249
-0.29660000000000003,-0.11406817210811791
-0.29760000000000003,-0.11399743654312465
-0.29860000000000003,-0.11396914231712736
-0.29960000000000003,-0.11391255386513276
-0.30060000000000003,-0.11388425963913544
-0.30160000000000003,-0.11385596541313814
-0.30260000000000004,-0.1138135240741422
-0.30360000000000004,-0.11379937696114355
-0.30460000000000004,-0.1137852298481449
-0.30560000000000004,-0.1137569356221476
-0.30660000000000004,-0.11374278850914893
-0.30760000000000004,-0.11372864139615031
-0.30860000000000004,-0.1136720529441557
-0.30960000000000004,-0.11368620005715435
-0.31060000000000004,-0.1136720529441557
-0.31160000000000004,-0.1136720529441557
-0.31260000000000004,-0.1136437587181584
-0.31360000000000005,-0.1135871702661638
-0.31460000000000005,-0.11360131737916243
-0.31560000000000005,-0.1136154644921611
-0.31660000000000005,-0.11360131737916243
-0.31760000000000005,-0.11355887604016648
-0.31860000000000005,-0.11355887604016648
-0.31960000000000005,-0.11354472892716785
-0.32060000000000005,-0.1135305818141692
-0.32160000000000005,-0.11348814047517325
-0.32260000000000005,-0.11348814047517325
-0.32360000000000005,-0.11347399336217459
-0.32460000000000006,-0.11340325779718134
-0.32560000000000006,-0.11347399336217459
-0.32660000000000006,-0.11345984624917593
-0.32760000000000006,-0.1134456991361773
-0.32860000000000006,-0.1134456991361773
-0.32960000000000006,-0.1133891106841827
-0.33060000000000006,-0.11340325779718134
-0.33160000000000006,-0.1133891106841827
-0.33260000000000006,-0.1133891106841827
-0.33360000000000006,-0.11340325779718134
-0.33460000000000006,-0.1133891106841827
-0.33560000000000006,-0.11336081645818537
-0.33660000000000007,-0.11337496357118404
-0.33760000000000007,-0.11340325779718134
-0.33860000000000007,-0.11341740491017999
-0.33960000000000007,-0.1133891106841827
-0.34060000000000007,-0.11340325779718134
-0.34160000000000007,-0.11341740491017999
-0.34260000000000007,-0.11341740491017999
-0.34360000000000007,-0.11331837511918944
-0.3446000000000001,-0.11327593378019349
-0.3456000000000001,-0.11329008089319213
-0.3466000000000001,-0.11337496357118404
-0.34759999999999996,-0.11337496357118404
-0.3486000000000001,-0.11336081645818537
-0.34959999999999997,-0.11347399336217459
-0.3506000000000001,-0.1134456991361773
-0.35159999999999997,-0.11340325779718134
-0.3526000000000001,-0.11337496357118404
-0.35359999999999997,-0.11337496357118404
-0.3546000000000001,-0.1133891106841827
-0.35559999999999997,-0.1134456991361773
-0.3566000000000001,-0.11345984624917593
-0.3576,-0.11345984624917593
-0.3586000000000001,-0.11343155202317864
-0.3596,-0.11341740491017999
-0.3606000000000001,-0.11348814047517325
-0.3616,-0.11348814047517325
-0.3626000000000001,-0.11348814047517325
-0.3636,-0.11345984624917593
-0.3646000000000001,-0.11348814047517325
-0.3656,-0.11355887604016648
-0.3666000000000001,-0.11360131737916243
-0.3676,-0.1136154644921611
-0.3686000000000001,-0.11365790583115705
-0.3696,-0.11362961160515975
-0.3706000000000001,-0.11371449428315164
-0.3716,-0.11374278850914893
-0.3726000000000001,-0.11371449428315164
-0.3736,-0.11377108273514626
-0.3746000000000001,-0.11382767118714086
-0.3756,-0.11385596541313814
-0.3766000000000001,-0.11387011252613681
-0.3776,-0.11392670097813141
-0.3786000000000001,-0.11396914231712736
-0.3796,-0.11403987788212061
-0.3806000000000001,-0.1140964663341152
-0.3816,-0.11408231922111656
-0.3826000000000001,-0.11412476056011249
-0.3836,-0.11422379035110306
-0.3846000000000001,-0.1142379374641017
-0.3856,-0.11419549612510577
-0.3866000000000001,-0.11425208457710037
-0.3876,-0.11430867302909498
-0.3886000000000001,-0.11433696725509226
-0.3896,-0.11440770282008553
-0.3906000000000001,-0.11440770282008553
-0.3916,-0.11449258549807742
-0.3926000000000001,-0.11454917395007203
-0.3936,-0.11456332106307067
-0.3946000000000001,-0.1146623508540612
-0.3956,-0.11471893930605583
-0.3966000000000001,-0.11473308641905447
-0.3976,-0.11481796909704638
-0.3986000000000001,-0.11487455754904098
-0.3996,-0.11491699888803693
-0.4006000000000001,-0.11495944022703289
-0.4016,-0.11505847001802343
-0.4026000000000001,-0.11518579403501128
-0.4036,-0.11524238248700588
-0.4046000000000001,-0.11528482382600183
-0.4056,-0.11536970650399375
-0.40660000000000013,-0.11544044206898699
-0.4076,-0.11553947185997754
-0.40860000000000013,-0.1156102074249708
-0.4096,-0.11565264876396675
-0.41060000000000013,-0.11573753144195865
-0.4116,-0.1158648554589465
-0.41260000000000013,-0.1159214439109411
-0.4136,-0.11606291504092761
-0.41460000000000014,-0.1161195034929222
-0.4156,-0.11620438617091411
-0.41660000000000014,-0.11631756307490332
-0.4176,-0.11645903420488982
-0.41860000000000014,-0.11662879956087362
-0.41960000000000003,-0.11667124089986959
-0.42060000000000014,-0.11671368223886554
-0.42160000000000003,-0.11682685914285473
-0.42260000000000014,-0.11692588893384527
-0.42360000000000003,-0.11705321295083315
-0.42460000000000014,-0.1171522427418237
-0.42560000000000003,-0.1173220080978075
-0.42660000000000015,-0.11742103788879804
-0.42760000000000004,-0.11750592056678995
-0.42860000000000015,-0.11761909747077916
-0.42960000000000004,-0.11774642148776701
-0.43060000000000015,-0.11788789261775351
-0.43160000000000004,-0.11800106952174272
-0.43260000000000015,-0.11814254065172922
-0.43360000000000004,-0.11828401178171571
-0.43460000000000015,-0.11845377713769951
-0.43560000000000004,-0.11855280692869007
-0.43660000000000015,-0.11869427805867658
