Sept. 4, 2024   12:13:18
Cyclic Voltammetry
File: c:/users/guazh/data/20240903_batch_252_500/2024-09-03-exp261\exp261-2024-09-04t11_57_07-arkoh\exp261_cv_sr_900mvs_efin_-1600mv.bin
Data Source:  Experiment
Instrument Model:  CHI760E
Header: CV ran at 900 mVs
Note: 

Init E (V) = -1
High E (V) = -1
Low E (V) = -1.6
Final E (V) = -1
Init P/N = N
Scan Rate (V/s) = 0.9
Segment = 3
Sample Interval (V) = 0.001
Quiet Time (sec) = 2
Sensitivity (A/V) = 0.01
Comp R (ohm) = 3.6

Results:

Channel 1:
Segment 1:

Segment 2:

Segment 3:

Potential/V, Current/A

-1.000, 3.099e-5
-1.001, 8.032e-5
-1.002, 1.019e-4
-1.003, 1.111e-4
-1.004, 1.173e-4
-1.005, 1.235e-4
-1.006, 1.235e-4
-1.007, 1.296e-4
-1.008, 1.296e-4
-1.009, 1.327e-4
-1.010, 1.327e-4
-1.011, 1.358e-4
-1.012, 1.389e-4
-1.013, 1.389e-4
-1.014, 1.389e-4
-1.015, 1.420e-4
-1.016, 1.420e-4
-1.017, 1.451e-4
-1.018, 1.451e-4
-1.019, 1.451e-4
-1.020, 1.451e-4
-1.021, 1.481e-4
-1.022, 1.481e-4
-1.023, 1.481e-4
-1.024, 1.512e-4
-1.025, 1.481e-4
-1.026, 1.512e-4
-1.027, 1.512e-4
-1.028, 1.512e-4
-1.029, 1.543e-4
-1.030, 1.543e-4
-1.031, 1.543e-4
-1.032, 1.543e-4
-1.033, 1.574e-4
-1.034, 1.574e-4
-1.035, 1.574e-4
-1.036, 1.574e-4
-1.037, 1.605e-4
-1.038, 1.605e-4
-1.039, 1.605e-4
-1.040, 1.605e-4
-1.041, 1.605e-4
-1.042, 1.605e-4
-1.043, 1.605e-4
-1.044, 1.636e-4
-1.045, 1.605e-4
-1.046, 1.636e-4
-1.047, 1.666e-4
-1.048, 1.636e-4
-1.049, 1.666e-4
-1.050, 1.666e-4
-1.051, 1.666e-4
-1.052, 1.666e-4
-1.053, 1.697e-4
-1.054, 1.666e-4
-1.055, 1.666e-4
-1.056, 1.697e-4
-1.057, 1.697e-4
-1.058, 1.697e-4
-1.059, 1.697e-4
-1.060, 1.697e-4
-1.061, 1.697e-4
-1.062, 1.728e-4
-1.063, 1.728e-4
-1.064, 1.728e-4
-1.065, 1.728e-4
-1.066, 1.728e-4
-1.067, 1.759e-4
-1.068, 1.728e-4
-1.069, 1.759e-4
-1.070, 1.759e-4
-1.071, 1.759e-4
-1.072, 1.759e-4
-1.073, 1.759e-4
-1.074, 1.759e-4
-1.075, 1.759e-4
-1.076, 1.759e-4
-1.077, 1.790e-4
-1.078, 1.790e-4
-1.079, 1.790e-4
-1.080, 1.790e-4
-1.081, 1.790e-4
-1.082, 1.790e-4
-1.083, 1.821e-4
-1.084, 1.821e-4
-1.085, 1.821e-4
-1.086, 1.821e-4
-1.087, 1.821e-4
-1.088, 1.821e-4
-1.089, 1.821e-4
-1.090, 1.821e-4
-1.091, 1.821e-4
-1.092, 1.851e-4
-1.093, 1.821e-4
-1.094, 1.851e-4
-1.095, 1.851e-4
-1.096, 1.851e-4
-1.097, 1.851e-4
-1.098, 1.851e-4
-1.099, 1.851e-4
-1.100, 1.882e-4
-1.101, 1.882e-4
-1.102, 1.851e-4
-1.103, 1.882e-4
-1.104, 1.882e-4
-1.105, 1.882e-4
-1.106, 1.882e-4
-1.107, 1.882e-4
-1.108, 1.882e-4
-1.109, 1.882e-4
-1.110, 1.882e-4
-1.111, 1.913e-4
-1.112, 1.913e-4
-1.113, 1.913e-4
-1.114, 1.913e-4
-1.115, 1.913e-4
-1.116, 1.913e-4
-1.117, 1.913e-4
-1.118, 1.913e-4
-1.119, 1.913e-4
-1.120, 1.913e-4
-1.121, 1.944e-4
-1.122, 1.944e-4
-1.123, 1.944e-4
-1.124, 1.975e-4
-1.125, 1.944e-4
-1.126, 1.944e-4
-1.127, 1.944e-4
-1.128, 1.944e-4
-1.129, 1.975e-4
-1.130, 1.975e-4
-1.131, 1.975e-4
-1.132, 1.975e-4
-1.133, 1.975e-4
-1.134, 1.975e-4
-1.135, 1.975e-4
-1.136, 1.975e-4
-1.137, 1.975e-4
-1.138, 2.006e-4
-1.139, 2.006e-4
-1.140, 1.975e-4
-1.141, 2.006e-4
-1.142, 2.006e-4
-1.143, 2.006e-4
-1.144, 2.006e-4
-1.145, 2.006e-4
-1.146, 2.006e-4
-1.147, 2.006e-4
-1.148, 2.006e-4
-1.149, 2.006e-4
-1.150, 2.036e-4
-1.151, 2.036e-4
-1.152, 2.036e-4
-1.153, 2.036e-4
-1.154, 2.036e-4
-1.155, 2.036e-4
-1.156, 2.036e-4
-1.157, 2.067e-4
-1.158, 2.067e-4
-1.159, 2.067e-4
-1.160, 2.067e-4
-1.161, 2.067e-4
-1.162, 2.067e-4
-1.163, 2.067e-4
-1.164, 2.098e-4
-1.165, 2.067e-4
-1.166, 2.067e-4
-1.167, 2.098e-4
-1.168, 2.098e-4
-1.169, 2.098e-4
-1.170, 2.098e-4
-1.171, 2.098e-4
-1.172, 2.129e-4
-1.173, 2.098e-4
-1.174, 2.129e-4
-1.175, 2.129e-4
-1.176, 2.129e-4
-1.177, 2.129e-4
-1.178, 2.129e-4
-1.179, 2.129e-4
-1.180, 2.129e-4
-1.181, 2.129e-4
-1.182, 2.160e-4
-1.183, 2.160e-4
-1.184, 2.160e-4
-1.185, 2.160e-4
-1.186, 2.160e-4
-1.187, 2.160e-4
-1.188, 2.191e-4
-1.189, 2.160e-4
-1.190, 2.191e-4
-1.191, 2.191e-4
-1.192, 2.191e-4
-1.193, 2.191e-4
-1.194, 2.191e-4
-1.195, 2.221e-4
-1.196, 2.191e-4
-1.197, 2.191e-4
-1.198, 2.221e-4
-1.199, 2.191e-4
-1.200, 2.191e-4
-1.201, 2.221e-4
-1.202, 2.221e-4
-1.203, 2.252e-4
-1.204, 2.252e-4
-1.205, 2.252e-4
-1.206, 2.252e-4
-1.207, 2.252e-4
-1.208, 2.252e-4
-1.209, 2.252e-4
-1.210, 2.252e-4
-1.211, 2.252e-4
-1.212, 2.283e-4
-1.213, 2.283e-4
-1.214, 2.314e-4
-1.215, 2.314e-4
-1.216, 2.283e-4
-1.217, 2.283e-4
-1.218, 2.314e-4
-1.219, 2.314e-4
-1.220, 2.314e-4
-1.221, 2.345e-4
-1.222, 2.314e-4
-1.223, 2.314e-4
-1.224, 2.345e-4
-1.225, 2.345e-4
-1.226, 2.345e-4
-1.227, 2.345e-4
-1.228, 2.376e-4
-1.229, 2.376e-4
-1.230, 2.376e-4
-1.231, 2.376e-4
-1.232, 2.376e-4
-1.233, 2.406e-4
-1.234, 2.406e-4
-1.235, 2.406e-4
-1.236, 2.406e-4
-1.237, 2.406e-4
-1.238, 2.406e-4
-1.239, 2.437e-4
-1.240, 2.406e-4
-1.241, 2.437e-4
-1.242, 2.437e-4
-1.243, 2.437e-4
-1.244, 2.468e-4
-1.245, 2.437e-4
-1.246, 2.468e-4
-1.247, 2.499e-4
-1.248, 2.468e-4
-1.249, 2.468e-4
-1.250, 2.468e-4
-1.251, 2.499e-4
-1.252, 2.499e-4
-1.253, 2.499e-4
-1.254, 2.499e-4
-1.255, 2.530e-4
-1.256, 2.499e-4
-1.257, 2.530e-4
-1.258, 2.499e-4
-1.259, 2.530e-4
-1.260, 2.530e-4
-1.261, 2.530e-4
-1.262, 2.499e-4
-1.263, 2.530e-4
-1.264, 2.530e-4
-1.265, 2.561e-4
-1.266, 2.561e-4
-1.267, 2.561e-4
-1.268, 2.561e-4
-1.269, 2.561e-4
-1.270, 2.591e-4
-1.271, 2.591e-4
-1.272, 2.591e-4
-1.273, 2.622e-4
-1.274, 2.622e-4
-1.275, 2.622e-4
-1.276, 2.622e-4
-1.277, 2.653e-4
-1.278, 2.653e-4
-1.279, 2.653e-4
-1.280, 2.653e-4
-1.281, 2.684e-4
-1.282, 2.653e-4
-1.283, 2.684e-4
-1.284, 2.684e-4
-1.285, 2.715e-4
-1.286, 2.715e-4
-1.287, 2.715e-4
-1.288, 2.715e-4
-1.289, 2.746e-4
-1.290, 2.746e-4
-1.291, 2.746e-4
-1.292, 2.746e-4
-1.293, 2.746e-4
-1.294, 2.746e-4
-1.295, 2.776e-4
-1.296, 2.776e-4
-1.297, 2.776e-4
-1.298, 2.776e-4
-1.299, 2.807e-4
-1.300, 2.807e-4
-1.301, 2.807e-4
-1.302, 2.838e-4
-1.303, 2.838e-4
-1.304, 2.838e-4
-1.305, 2.838e-4
-1.306, 2.869e-4
-1.307, 2.869e-4
-1.308, 2.900e-4
-1.309, 2.900e-4
-1.310, 2.900e-4
-1.311, 2.931e-4
-1.312, 2.900e-4
-1.313, 2.931e-4
-1.314, 2.931e-4
-1.315, 2.931e-4
-1.316, 2.961e-4
-1.317, 2.961e-4
-1.318, 2.961e-4
-1.319, 2.992e-4
-1.320, 2.992e-4
-1.321, 3.023e-4
-1.322, 3.023e-4
-1.323, 3.054e-4
-1.324, 3.085e-4
-1.325, 3.085e-4
-1.326, 3.115e-4
-1.327, 3.115e-4
-1.328, 3.115e-4
-1.329, 3.146e-4
-1.330, 3.177e-4
-1.331, 3.177e-4
-1.332, 3.177e-4
-1.333, 3.208e-4
-1.334, 3.239e-4
-1.335, 3.239e-4
-1.336, 3.270e-4
-1.337, 3.270e-4
-1.338, 3.300e-4
-1.339, 3.331e-4
-1.340, 3.331e-4
-1.341, 3.362e-4
-1.342, 3.393e-4
-1.343, 3.393e-4
-1.344, 3.424e-4
-1.345, 3.455e-4
-1.346, 3.485e-4
-1.347, 3.516e-4
-1.348, 3.547e-4
-1.349, 3.578e-4
-1.350, 3.578e-4
-1.351, 3.609e-4
-1.352, 3.640e-4
-1.353, 3.670e-4
-1.354, 3.701e-4
-1.355, 3.732e-4
-1.356, 3.763e-4
-1.357, 3.794e-4
-1.358, 3.825e-4
-1.359, 3.855e-4
-1.360, 3.917e-4
-1.361, 3.948e-4
-1.362, 3.979e-4
-1.363, 4.040e-4
-1.364, 4.071e-4
-1.365, 4.102e-4
-1.366, 4.133e-4
-1.367, 4.195e-4
-1.368, 4.225e-4
-1.369, 4.287e-4
-1.370, 4.318e-4
-1.371, 4.380e-4
-1.372, 4.410e-4
-1.373, 4.441e-4
-1.374, 4.503e-4
-1.375, 4.565e-4
-1.376, 4.595e-4
-1.377, 4.657e-4
-1.378, 4.719e-4
-1.379, 4.750e-4
-1.380, 4.811e-4
-1.381, 4.873e-4
-1.382, 4.965e-4
-1.383, 4.996e-4
-1.384, 5.058e-4
-1.385, 5.120e-4
-1.386, 5.181e-4
-1.387, 5.243e-4
-1.388, 5.305e-4
-1.389, 5.366e-4
-1.390, 5.459e-4
-1.391, 5.489e-4
-1.392, 5.582e-4
-1.393, 5.644e-4
-1.394, 5.705e-4
-1.395, 5.798e-4
-1.396, 5.859e-4
-1.397, 5.952e-4
-1.398, 6.014e-4
-1.399, 6.106e-4
-1.400, 6.168e-4
-1.401, 6.260e-4
-1.402, 6.322e-4
-1.403, 6.414e-4
-1.404, 6.507e-4
-1.405, 6.630e-4
-1.406, 6.692e-4
-1.407, 6.784e-4
-1.408, 6.877e-4
-1.409, 6.969e-4
-1.410, 7.062e-4
-1.411, 7.154e-4
-1.412, 7.278e-4
-1.413, 7.370e-4
-1.414, 7.494e-4
-1.415, 7.586e-4
-1.416, 7.679e-4
-1.417, 7.802e-4
-1.418, 7.925e-4
-1.419, 8.048e-4
-1.420, 8.141e-4
-1.421, 8.264e-4
-1.422, 8.388e-4
-1.423, 8.511e-4
-1.424, 8.634e-4
-1.425, 8.727e-4
-1.426, 8.881e-4
-1.427, 9.004e-4
-1.428, 9.128e-4
-1.429, 9.251e-4
-1.430, 9.374e-4
-1.431, 9.528e-4
-1.432, 9.652e-4
-1.433, 9.806e-4
-1.434, 9.929e-4
-1.435, 1.008e-3
-1.436, 1.024e-3
-1.437, 1.039e-3
-1.438, 1.051e-3
-1.439, 1.070e-3
-1.440, 1.085e-3
-1.441, 1.101e-3
-1.442, 1.116e-3
-1.443, 1.135e-3
-1.444, 1.150e-3
-1.445, 1.169e-3
-1.446, 1.184e-3
-1.447, 1.203e-3
-1.448, 1.218e-3
-1.449, 1.236e-3
-1.450, 1.255e-3
-1.451, 1.273e-3
-1.452, 1.295e-3
-1.453, 1.310e-3
-1.454, 1.332e-3
-1.455, 1.351e-3
-1.456, 1.372e-3
-1.457, 1.394e-3
-1.458, 1.412e-3
-1.459, 1.431e-3
-1.460, 1.455e-3
-1.461, 1.474e-3
-1.462, 1.495e-3
-1.463, 1.517e-3
-1.464, 1.542e-3
-1.465, 1.563e-3
-1.466, 1.585e-3
-1.467, 1.610e-3
-1.468, 1.637e-3
-1.469, 1.659e-3
-1.470, 1.684e-3
-1.471, 1.705e-3
-1.472, 1.730e-3
-1.473, 1.754e-3
-1.474, 1.776e-3
-1.475, 1.804e-3
-1.476, 1.828e-3
-1.477, 1.853e-3
-1.478, 1.881e-3
-1.479, 1.909e-3
-1.480, 1.933e-3
-1.481, 1.958e-3
-1.482, 1.983e-3
-1.483, 2.010e-3
-1.484, 2.038e-3
-1.485, 2.063e-3
-1.486, 2.091e-3
-1.487, 2.121e-3
-1.488, 2.149e-3
-1.489, 2.180e-3
-1.490, 2.205e-3
-1.491, 2.232e-3
-1.492, 2.263e-3
-1.493, 2.291e-3
-1.494, 2.319e-3
-1.495, 2.349e-3
-1.496, 2.380e-3
-1.497, 2.414e-3
-1.498, 2.445e-3
-1.499, 2.476e-3
-1.500, 2.504e-3
-1.501, 2.534e-3
-1.502, 2.565e-3
-1.503, 2.596e-3
-1.504, 2.624e-3
-1.505, 2.658e-3
-1.506, 2.689e-3
-1.507, 2.723e-3
-1.508, 2.750e-3
-1.509, 2.781e-3
-1.510, 2.815e-3
-1.511, 2.843e-3
-1.512, 2.877e-3
-1.513, 2.911e-3
-1.514, 2.945e-3
-1.515, 2.978e-3
-1.516, 3.009e-3
-1.517, 3.043e-3
-1.518, 3.074e-3
-1.519, 3.111e-3
-1.520, 3.142e-3
-1.521, 3.176e-3
-1.522, 3.213e-3
-1.523, 3.247e-3
-1.524, 3.281e-3
-1.525, 3.314e-3
-1.526, 3.345e-3
-1.527, 3.382e-3
-1.528, 3.413e-3
-1.529, 3.450e-3
-1.530, 3.484e-3
-1.531, 3.518e-3
-1.532, 3.555e-3
-1.533, 3.589e-3
-1.534, 3.623e-3
-1.535, 3.660e-3
-1.536, 3.694e-3
-1.537, 3.731e-3
-1.538, 3.762e-3
-1.539, 3.795e-3
-1.540, 3.829e-3
-1.541, 3.863e-3
-1.542, 3.900e-3
-1.543, 3.937e-3
-1.544, 3.974e-3
-1.545, 4.011e-3
-1.546, 4.048e-3
-1.547, 4.082e-3
-1.548, 4.119e-3
-1.549, 4.156e-3
-1.550, 4.196e-3
-1.551, 4.236e-3
-1.552, 4.273e-3
-1.553, 4.304e-3
-1.554, 4.341e-3
-1.555, 4.375e-3
-1.556, 4.412e-3
-1.557, 4.446e-3
-1.558, 4.480e-3
-1.559, 4.517e-3
-1.560, 4.554e-3
-1.561, 4.588e-3
-1.562, 4.622e-3
-1.563, 4.665e-3
-1.564, 4.702e-3
-1.565, 4.742e-3
-1.566, 4.782e-3
-1.567, 4.825e-3
-1.568, 4.865e-3
-1.569, 4.908e-3
-1.570, 4.949e-3
-1.571, 4.992e-3
-1.572, 5.032e-3
-1.573, 5.072e-3
-1.574, 5.118e-3
-1.575, 5.158e-3
-1.576, 5.204e-3
-1.577, 5.248e-3
-1.578, 5.294e-3
-1.579, 5.337e-3
-1.580, 5.389e-3
-1.581, 5.430e-3
-1.582, 5.485e-3
-1.583, 5.531e-3
-1.584, 5.581e-3
-1.585, 5.630e-3
-1.586, 5.679e-3
-1.587, 5.729e-3
-1.588, 5.778e-3
-1.589, 5.827e-3
-1.590, 5.877e-3
-1.591, 5.923e-3
-1.592, 5.972e-3
-1.593, 6.025e-3
-1.594, 6.071e-3
-1.595, 6.123e-3
-1.596, 6.185e-3
-1.597, 6.234e-3
-1.598, 6.277e-3
-1.599, 6.314e-3
-1.600, 6.287e-3
-1.599, 6.188e-3
-1.598, 6.117e-3
-1.597, 6.049e-3
-1.596, 5.991e-3
-1.595, 5.929e-3
-1.594, 5.855e-3
-1.593, 5.781e-3
-1.592, 5.704e-3
-1.591, 5.627e-3
-1.590, 5.562e-3
-1.589, 5.497e-3
-1.588, 5.433e-3
-1.587, 5.368e-3
-1.586, 5.309e-3
-1.585, 5.248e-3
-1.584, 5.189e-3
-1.583, 5.130e-3
-1.582, 5.072e-3
-1.581, 5.010e-3
-1.580, 4.955e-3
-1.579, 4.890e-3
-1.578, 4.838e-3
-1.577, 4.804e-3
-1.576, 4.736e-3
-1.575, 4.677e-3
-1.574, 4.622e-3
-1.573, 4.566e-3
-1.572, 4.508e-3
-1.571, 4.458e-3
-1.570, 4.403e-3
-1.569, 4.350e-3
-1.568, 4.301e-3
-1.567, 4.252e-3
-1.566, 4.199e-3
-1.565, 4.147e-3
-1.564, 4.098e-3
-1.563, 4.045e-3
-1.562, 3.996e-3
-1.561, 3.943e-3
-1.560, 3.897e-3
-1.559, 3.848e-3
-1.558, 3.799e-3
-1.557, 3.752e-3
-1.556, 3.706e-3
-1.555, 3.660e-3
-1.554, 3.620e-3
-1.553, 3.570e-3
-1.552, 3.521e-3
-1.551, 3.475e-3
-1.550, 3.432e-3
-1.549, 3.388e-3
-1.548, 3.345e-3
-1.547, 3.308e-3
-1.546, 3.262e-3
-1.545, 3.213e-3
-1.544, 3.167e-3
-1.543, 3.123e-3
-1.542, 3.080e-3
-1.541, 3.040e-3
-1.540, 3.000e-3
-1.539, 2.963e-3
-1.538, 2.923e-3
-1.537, 2.883e-3
-1.536, 2.846e-3
-1.535, 2.806e-3
-1.534, 2.769e-3
-1.533, 2.732e-3
-1.532, 2.695e-3
-1.531, 2.661e-3
-1.530, 2.624e-3
-1.529, 2.590e-3
-1.528, 2.556e-3
-1.527, 2.519e-3
-1.526, 2.482e-3
-1.525, 2.448e-3
-1.524, 2.414e-3
-1.523, 2.377e-3
-1.522, 2.346e-3
-1.521, 2.312e-3
-1.520, 2.285e-3
-1.519, 2.248e-3
-1.518, 2.217e-3
-1.517, 2.183e-3
-1.516, 2.152e-3
-1.515, 2.118e-3
-1.514, 2.091e-3
-1.513, 2.060e-3
-1.512, 2.029e-3
-1.511, 2.001e-3
-1.510, 1.970e-3
-1.509, 1.943e-3
-1.508, 1.915e-3
-1.507, 1.887e-3
-1.506, 1.859e-3
-1.505, 1.832e-3
-1.504, 1.804e-3
-1.503, 1.773e-3
-1.502, 1.748e-3
-1.501, 1.721e-3
-1.500, 1.696e-3
-1.499, 1.671e-3
-1.498, 1.643e-3
-1.497, 1.619e-3
-1.496, 1.606e-3
-1.495, 1.573e-3
-1.494, 1.545e-3
-1.493, 1.529e-3
-1.492, 1.505e-3
-1.491, 1.477e-3
-1.490, 1.449e-3
-1.489, 1.428e-3
-1.488, 1.406e-3
-1.487, 1.384e-3
-1.486, 1.360e-3
-1.485, 1.338e-3
-1.484, 1.314e-3
-1.483, 1.292e-3
-1.482, 1.270e-3
-1.481, 1.249e-3
-1.480, 1.227e-3
-1.479, 1.209e-3
-1.478, 1.190e-3
-1.477, 1.169e-3
-1.476, 1.150e-3
-1.475, 1.129e-3
-1.474, 1.110e-3
-1.473, 1.092e-3
-1.472, 1.073e-3
-1.471, 1.051e-3
-1.470, 1.039e-3
-1.469, 1.018e-3
-1.468, 9.991e-4
-1.467, 9.837e-4
-1.466, 9.683e-4
-1.465, 9.498e-4
-1.464, 9.313e-4
-1.463, 9.128e-4
-1.462, 8.943e-4
-1.461, 8.819e-4
-1.460, 8.634e-4
-1.459, 8.480e-4
-1.458, 8.326e-4
-1.457, 8.172e-4
-1.456, 8.018e-4
-1.455, 7.863e-4
-1.454, 7.709e-4
-1.453, 7.586e-4
-1.452, 7.432e-4
-1.451, 7.278e-4
-1.450, 7.154e-4
-1.449, 7.062e-4
-1.448, 6.969e-4
-1.447, 6.784e-4
-1.446, 6.661e-4
-1.445, 6.507e-4
-1.444, 6.353e-4
-1.443, 6.260e-4
-1.442, 6.137e-4
-1.441, 6.014e-4
-1.440, 5.890e-4
-1.439, 5.736e-4
-1.438, 5.644e-4
-1.437, 5.520e-4
-1.436, 5.397e-4
-1.435, 5.274e-4
-1.434, 5.181e-4
-1.433, 5.058e-4
-1.432, 4.965e-4
-1.431, 4.873e-4
-1.430, 4.750e-4
-1.429, 4.626e-4
-1.428, 4.534e-4
-1.427, 4.441e-4
-1.426, 4.349e-4
-1.425, 4.287e-4
-1.424, 4.164e-4
-1.423, 4.071e-4
-1.422, 3.948e-4
-1.421, 3.855e-4
-1.420, 3.763e-4
-1.419, 3.670e-4
-1.418, 3.609e-4
-1.417, 3.516e-4
-1.416, 3.424e-4
-1.415, 3.331e-4
-1.414, 3.239e-4
-1.413, 3.177e-4
-1.412, 3.085e-4
-1.411, 3.023e-4
-1.410, 2.931e-4
-1.409, 2.869e-4
-1.408, 2.776e-4
-1.407, 2.684e-4
-1.406, 2.653e-4
-1.405, 2.561e-4
-1.404, 2.499e-4
-1.403, 2.499e-4
-1.402, 2.406e-4
-1.401, 2.314e-4
-1.400, 2.221e-4
-1.399, 2.160e-4
-1.398, 2.067e-4
-1.397, 2.036e-4
-1.396, 1.975e-4
-1.395, 1.913e-4
-1.394, 1.851e-4
-1.393, 1.790e-4
-1.392, 1.728e-4
-1.391, 1.666e-4
-1.390, 1.605e-4
-1.389, 1.543e-4
-1.388, 1.481e-4
-1.387, 1.451e-4
-1.386, 1.389e-4
-1.385, 1.327e-4
-1.384, 1.296e-4
-1.383, 1.235e-4
-1.382, 1.173e-4
-1.381, 1.142e-4
-1.380, 1.081e-4
-1.379, 1.019e-4
-1.378, 9.882e-5
-1.377, 9.265e-5
-1.376, 8.957e-5
-1.375, 8.340e-5
-1.374, 8.032e-5
-1.373, 7.723e-5
-1.372, 7.107e-5
-1.371, 6.798e-5
-1.370, 6.490e-5
-1.369, 5.873e-5
-1.368, 5.565e-5
-1.367, 5.257e-5
-1.366, 4.640e-5
-1.365, 4.332e-5
-1.364, 3.715e-5
-1.363, 3.407e-5
-1.362, 3.099e-5
-1.361, 2.790e-5
-1.360, 2.482e-5
-1.359, 2.174e-5
-1.358, 1.865e-5
-1.357, 1.249e-5
-1.356, 9.405e-6
-1.355, 9.405e-6
-1.354, 6.322e-6
-1.353, 3.239e-6
-1.352, 1.559e-7
-1.351, -6.010e-6
-1.350, -9.093e-6
-1.349, -9.093e-6
-1.348, -1.526e-5
-1.347, -1.834e-5
-1.346, -2.143e-5
-1.345, -2.143e-5
-1.344, -2.451e-5
-1.343, -2.759e-5
-1.342, -3.068e-5
-1.341, -3.376e-5
-1.340, -3.376e-5
-1.339, -3.684e-5
-1.338, -3.992e-5
-1.337, -4.301e-5
-1.336, -4.609e-5
-1.335, -4.609e-5
-1.334, -4.917e-5
-1.333, -5.226e-5
-1.332, -5.534e-5
-1.331, -5.534e-5
-1.330, -5.842e-5
-1.329, -6.151e-5
-1.328, -6.151e-5
-1.327, -6.459e-5
-1.326, -6.459e-5
-1.325, -6.767e-5
-1.324, -6.767e-5
-1.323, -7.076e-5
-1.322, -7.076e-5
-1.321, -7.692e-5
-1.320, -7.692e-5
-1.319, -7.692e-5
-1.318, -8.000e-5
-1.317, -8.000e-5
-1.316, -8.309e-5
-1.315, -8.617e-5
-1.314, -8.617e-5
-1.313, -8.617e-5
-1.312, -8.925e-5
-1.311, -9.234e-5
-1.310, -9.234e-5
-1.309, -9.234e-5
-1.308, -9.542e-5
-1.307, -9.542e-5
-1.306, -9.850e-5
-1.305, -9.850e-5
-1.304, -1.016e-4
-1.303, -1.016e-4
-1.302, -1.016e-4
-1.301, -1.047e-4
-1.300, -1.047e-4
-1.299, -1.047e-4
-1.298, -1.047e-4
-1.297, -1.108e-4
-1.296, -1.078e-4
-1.295, -1.108e-4
-1.294, -1.108e-4
-1.293, -1.108e-4
-1.292, -1.139e-4
-1.291, -1.139e-4
-1.290, -1.139e-4
-1.289, -1.170e-4
-1.288, -1.170e-4
-1.287, -1.201e-4
-1.286, -1.201e-4
-1.285, -1.201e-4
-1.284, -1.201e-4
-1.283, -1.201e-4
-1.282, -1.232e-4
-1.281, -1.232e-4
-1.280, -1.263e-4
-1.279, -1.263e-4
-1.278, -1.263e-4
-1.277, -1.263e-4
-1.276, -1.293e-4
-1.275, -1.293e-4
-1.274, -1.293e-4
-1.273, -1.355e-4
-1.272, -1.324e-4
-1.271, -1.324e-4
-1.270, -1.355e-4
-1.269, -1.324e-4
-1.268, -1.355e-4
-1.267, -1.324e-4
-1.266, -1.355e-4
-1.265, -1.386e-4
-1.264, -1.355e-4
-1.263, -1.355e-4
-1.262, -1.386e-4
-1.261, -1.355e-4
-1.260, -1.386e-4
-1.259, -1.386e-4
-1.258, -1.386e-4
-1.257, -1.417e-4
-1.256, -1.417e-4
-1.255, -1.417e-4
-1.254, -1.417e-4
-1.253, -1.417e-4
-1.252, -1.448e-4
-1.251, -1.417e-4
-1.250, -1.448e-4
-1.249, -1.448e-4
-1.248, -1.448e-4
-1.247, -1.448e-4
-1.246, -1.478e-4
-1.245, -1.478e-4
-1.244, -1.478e-4
-1.243, -1.478e-4
-1.242, -1.478e-4
-1.241, -1.478e-4
-1.240, -1.509e-4
-1.239, -1.478e-4
-1.238, -1.509e-4
-1.237, -1.478e-4
-1.236, -1.509e-4
-1.235, -1.509e-4
-1.234, -1.509e-4
-1.233, -1.540e-4
-1.232, -1.540e-4
-1.231, -1.540e-4
-1.230, -1.540e-4
-1.229, -1.540e-4
-1.228, -1.571e-4
-1.227, -1.571e-4
-1.226, -1.540e-4
-1.225, -1.571e-4
-1.224, -1.571e-4
-1.223, -1.571e-4
-1.222, -1.571e-4
-1.221, -1.571e-4
-1.220, -1.602e-4
-1.219, -1.571e-4
-1.218, -1.571e-4
-1.217, -1.602e-4
-1.216, -1.602e-4
-1.215, -1.602e-4
-1.214, -1.602e-4
-1.213, -1.632e-4
-1.212, -1.632e-4
-1.211, -1.632e-4
-1.210, -1.632e-4
-1.209, -1.632e-4
-1.208, -1.632e-4
-1.207, -1.632e-4
-1.206, -1.632e-4
-1.205, -1.632e-4
-1.204, -1.632e-4
-1.203, -1.632e-4
-1.202, -1.632e-4
-1.201, -1.663e-4
-1.200, -1.663e-4
-1.199, -1.663e-4
-1.198, -1.694e-4
-1.197, -1.663e-4
-1.196, -1.694e-4
-1.195, -1.694e-4
-1.194, -1.694e-4
-1.193, -1.694e-4
-1.192, -1.694e-4
-1.191, -1.694e-4
-1.190, -1.725e-4
-1.189, -1.694e-4
-1.188, -1.725e-4
-1.187, -1.725e-4
-1.186, -1.725e-4
-1.185, -1.725e-4
-1.184, -1.725e-4
-1.183, -1.725e-4
-1.182, -1.756e-4
-1.181, -1.725e-4
-1.180, -1.817e-4
-1.179, -1.817e-4
-1.178, -1.787e-4
-1.177, -1.787e-4
-1.176, -1.787e-4
-1.175, -1.787e-4
-1.174, -1.787e-4
-1.173, -1.787e-4
-1.172, -1.787e-4
-1.171, -1.817e-4
-1.170, -1.817e-4
-1.169, -1.817e-4
-1.168, -1.817e-4
-1.167, -1.848e-4
-1.166, -1.817e-4
-1.165, -1.817e-4
-1.164, -1.848e-4
-1.163, -1.817e-4
-1.162, -1.848e-4
-1.161, -1.848e-4
-1.160, -1.848e-4
-1.159, -1.879e-4
-1.158, -1.879e-4
-1.157, -1.879e-4
-1.156, -1.879e-4
-1.155, -1.879e-4
-1.154, -1.910e-4
-1.153, -1.910e-4
-1.152, -1.910e-4
-1.151, -1.910e-4
-1.150, -1.910e-4
-1.149, -1.910e-4
-1.148, -1.941e-4
-1.147, -1.941e-4
-1.146, -1.941e-4
-1.145, -1.941e-4
-1.144, -1.972e-4
-1.143, -1.972e-4
-1.142, -1.972e-4
-1.141, -1.972e-4
-1.140, -2.002e-4
-1.139, -2.002e-4
-1.138, -2.002e-4
-1.137, -2.033e-4
-1.136, -2.002e-4
-1.135, -2.033e-4
-1.134, -2.033e-4
-1.133, -2.033e-4
-1.132, -2.033e-4
-1.131, -2.033e-4
-1.130, -2.064e-4
-1.129, -2.064e-4
-1.128, -2.064e-4
-1.127, -2.095e-4
-1.126, -2.095e-4
-1.125, -2.095e-4
-1.124, -2.095e-4
-1.123, -2.126e-4
-1.122, -2.126e-4
-1.121, -2.126e-4
-1.120, -2.157e-4
-1.119, -2.157e-4
-1.118, -2.157e-4
-1.117, -2.187e-4
-1.116, -2.187e-4
-1.115, -2.187e-4
-1.114, -2.218e-4
-1.113, -2.218e-4
-1.112, -2.218e-4
-1.111, -2.218e-4
-1.110, -2.218e-4
-1.109, -2.249e-4
-1.108, -2.249e-4
-1.107, -2.249e-4
-1.106, -2.280e-4
-1.105, -2.280e-4
-1.104, -2.280e-4
-1.103, -2.311e-4
-1.102, -2.311e-4
-1.101, -2.311e-4
-1.100, -2.342e-4
-1.099, -2.342e-4
-1.098, -2.342e-4
-1.097, -2.372e-4
-1.096, -2.403e-4
-1.095, -2.403e-4
-1.094, -2.434e-4
-1.093, -2.434e-4
-1.092, -2.434e-4
-1.091, -2.465e-4
-1.090, -2.465e-4
-1.089, -2.465e-4
-1.088, -2.465e-4
-1.087, -2.496e-4
-1.086, -2.496e-4
-1.085, -2.527e-4
-1.084, -2.527e-4
-1.083, -2.527e-4
-1.082, -2.527e-4
-1.081, -2.557e-4
-1.080, -2.557e-4
-1.079, -2.588e-4
-1.078, -2.619e-4
-1.077, -2.619e-4
-1.076, -2.650e-4
-1.075, -2.650e-4
-1.074, -2.650e-4
-1.073, -2.681e-4
-1.072, -2.681e-4
-1.071, -2.712e-4
-1.070, -2.742e-4
-1.069, -2.742e-4
-1.068, -2.742e-4
-1.067, -2.773e-4
-1.066, -2.773e-4
-1.065, -2.804e-4
-1.064, -2.835e-4
-1.063, -2.835e-4
-1.062, -2.835e-4
-1.061, -2.866e-4
-1.060, -2.866e-4
-1.059, -2.866e-4
-1.058, -2.897e-4
-1.057, -2.897e-4
-1.056, -2.927e-4
-1.055, -2.958e-4
-1.054, -2.958e-4
-1.053, -2.958e-4
-1.052, -2.989e-4
-1.051, -3.020e-4
-1.050, -3.020e-4
-1.049, -3.082e-4
-1.048, -3.082e-4
-1.047, -3.112e-4
-1.046, -3.112e-4
-1.045, -3.112e-4
-1.044, -3.143e-4
-1.043, -3.143e-4
-1.042, -3.174e-4
-1.041, -3.205e-4
-1.040, -3.236e-4
-1.039, -3.236e-4
-1.038, -3.267e-4
-1.037, -3.267e-4
-1.036, -3.297e-4
-1.035, -3.328e-4
-1.034, -3.328e-4
-1.033, -3.359e-4
-1.032, -3.390e-4
-1.031, -3.421e-4
-1.030, -3.421e-4
-1.029, -3.452e-4
-1.028, -3.452e-4
-1.027, -3.482e-4
-1.026, -3.513e-4
-1.025, -3.513e-4
-1.024, -3.544e-4
-1.023, -3.606e-4
-1.022, -3.606e-4
-1.021, -3.606e-4
-1.020, -3.637e-4
-1.019, -3.667e-4
-1.018, -3.667e-4
-1.017, -3.729e-4
-1.016, -3.729e-4
-1.015, -3.760e-4
-1.014, -3.791e-4
-1.013, -3.821e-4
-1.012, -3.821e-4
-1.011, -3.852e-4
-1.010, -3.883e-4
-1.009, -3.914e-4
-1.008, -3.914e-4
-1.007, -3.945e-4
-1.006, -3.976e-4
-1.005, -4.006e-4
-1.004, -4.006e-4
-1.003, -4.068e-4
-1.002, -4.068e-4
-1.001, -4.099e-4
