Potential V vs RHE, Current mA cm-2
0.4132999999999999,-0.011425208457710036
0.4122999999999999,-0.013967444663567507
0.4112999999999999,-0.014783733083589632
0.4102999999999999,-0.015165705134553195
0.4092999999999999,-0.015349617603535646
0.4082999999999999,-0.015448647394526203
0.4072999999999999,-0.015632559863508654
0.4062999999999999,-0.01578817810649381
0.4052999999999999,-0.016042826140469518
0.4042999999999999,-0.01614185593146007
0.4032999999999999,-0.016269179948447923
0.4022999999999999,-0.016396503965435776
0.4012999999999999,-0.016637004886412832
0.4002999999999999,-0.016792623129397985
0.3992999999999999,-0.01691994714638584
0.3982999999999999,-0.017075565389370995
0.3972999999999999,-0.017174595180361543
0.3962999999999999,-0.017358507649344
0.3952999999999999,-0.017514125892329157
0.3942999999999999,-0.01766974413531431
0.39329999999999987,-0.017782921039303512
0.39229999999999987,-0.017881950830294063
0.39129999999999987,-0.018051716186277867
0.39029999999999987,-0.018193187316264375
0.38929999999999987,-0.018334658446250877
0.38829999999999987,-0.018433688237241428
0.38729999999999987,-0.018575159367227933
0.38629999999999987,-0.018702483384215783
0.38529999999999986,-0.01882980740120364
0.38429999999999986,-0.018942984305192843
0.38329999999999986,-0.019042014096183394
0.38229999999999986,-0.0191551910001726
0.38129999999999986,-0.01933910346915505
0.38029999999999986,-0.019480574599141553
0.37929999999999986,-0.019537163051136158
0.37829999999999986,-0.01965033995512536
0.37729999999999986,-0.019848399537106463
0.37629999999999986,-0.02003231200608892
0.37529999999999986,-0.020258665814067326
0.37429999999999986,-0.020371842718056525
0.37329999999999985,-0.02048501962204573
0.37229999999999985,-0.020584049413036282
0.37129999999999985,-0.02071137343002414
0.37029999999999985,-0.020909433012005242
0.36929999999999985,-0.020966021463999843
0.36829999999999985,-0.021079198367989046
0.36729999999999985,-0.0211782281589796
0.36629999999999985,-0.021121639706984996
0.36529999999999985,-0.02122066949797555
0.36429999999999985,-0.021305552175967454
0.36329999999999985,-0.021376287740960703
0.36229999999999984,-0.021489464644949906
0.36129999999999984,-0.02167337711393236
0.36029999999999984,-0.021828995356917517
0.35929999999999984,-0.021885583808912118
0.35829999999999984,-0.021913878034909417
0.35729999999999984,-0.02197046648690402
0.35629999999999984,-0.022126084729889174
0.35529999999999984,-0.022281702972874327
0.35429999999999984,-0.02235243853786758
0.35329999999999984,-0.022465615441856785
0.35229999999999984,-0.022522203893851383
0.35129999999999983,-0.02273441058883114
0.35029999999999983,-0.0230597941878001
0.34929999999999983,-0.023017352848804146
0.34829999999999983,-0.02310223552679605
0.34729999999999983,-0.023215412430785252
0.34629999999999983,-0.023342736447773106
0.34529999999999983,-0.02341347201276636
0.34429999999999983,-0.02352664891675556
0.3432999999999998,-0.023668120046742062
0.3422999999999998,-0.023724708498736664
0.3412999999999998,-0.023809591176728567
0.3402999999999998,-0.02393691519371642
0.3392999999999998,-0.02390862096771912
0.3382999999999998,-0.024106680549700225
0.3372999999999998,-0.02400765075870967
0.3362999999999998,-0.02427644590568403
0.3352999999999998,-0.02429059301868268
0.3342999999999998,-0.024446211261667832
0.3332999999999998,-0.02457353527865569
0.3322999999999998,-0.024700859295643543
0.3312999999999998,-0.024983801555616546
0.3302999999999998,-0.025181861137597652
0.3292999999999998,-0.02515356691160035
0.3282999999999998,-0.025266743815589552
0.3272999999999998,-0.02554968607556256
0.3262999999999998,-0.02553553896256391
0.3252999999999999,-0.025719451431546365
0.3242999999999999,-0.025719451431546365
0.3232999999999999,-0.025959952352523425
0.3222999999999999,-0.026257041725495082
0.3212999999999999,-0.02628533595149238
0.3202999999999999,-0.026483395533473487
0.3192999999999999,-0.02659657243746269
0.3182999999999999,-0.026539983985468085
0.3172999999999999,-0.026709749341451892
0.3162999999999999,-0.026837073358439746
0.3152999999999999,-0.027049280053419503
0.3142999999999999,-0.02731807520039386
0.3132999999999999,-0.02755857612137091
0.3122999999999999,-0.02774248859035337
0.3112999999999999,-0.02775663570335202
0.3102999999999999,-0.02811031352831828
0.3092999999999999,-0.028308373110299385
0.3082999999999999,-0.028181049093311532
0.3072999999999999,-0.028223490432307482
0.3062999999999999,-0.029242082568210308
0.3052999999999999,-0.029652348845171168
0.3042999999999999,-0.029482583489187364
0.3032999999999999,-0.02979381997515767
0.3022999999999999,-0.02973723152316307
0.3012999999999999,-0.02986455554015093
0.3002999999999999,-0.03006261512213203
0.2992999999999999,-0.03006261512213203
0.2982999999999999,-0.03040214583409964
0.2972999999999999,-0.030416292947098293
0.2962999999999999,-0.030303116043109087
0.2952999999999999,-0.03033141026910639
0.2942999999999999,-0.03040214583409964
0.2932999999999999,-0.030543616964086147
0.2922999999999999,-0.03132170817901191
0.2912999999999999,-0.03123682550102001
0.2902999999999999,-0.031350002405009215
0.2892999999999999,-0.031250972614018664
0.2882999999999999,-0.03144903219599977
0.2872999999999999,-0.03176026868197007
0.2862999999999999,-0.03168953311697682
0.2852999999999999,-0.031873445585959274
0.2842999999999999,-0.03159050332598627
0.2832999999999999,-0.032057358054941726
0.2822999999999999,-0.032637389687886396
0.2812999999999999,-0.03279300793087155
0.2802999999999999,-0.03321742132083106
0.2792999999999999,-0.03338718667681487
0.2782999999999999,-0.033174979981835113
0.2772999999999999,-0.033542804919800016
0.2762999999999999,-0.03351451069380272
0.2752999999999999,-0.033924776970763584
0.2742999999999999,-0.03364183471079057
0.2732999999999999,-0.033910629857764926
0.2722999999999999,-0.03358524625879597
0.2712999999999999,-0.03388233563176763
0.2702999999999999,-0.03344377512880947
0.2692999999999999,-0.03408039521374873
0.26829999999999987,-0.03423601345673389
0.26729999999999987,-0.034108689439746036
0.26629999999999987,-0.034929221993667756
0.26529999999999987,-0.0346321326206961
0.26429999999999987,-0.03480189797667991
0.26329999999999987,-0.03508484023665291
0.26229999999999987,-0.03532534115762996
0.26129999999999987,-0.03532534115762996
0.26029999999999986,-0.035466812287616466
0.25929999999999986,-0.03569316609559487
0.25829999999999986,-0.03570731320859352
0.25729999999999986,-0.03573560743459083
0.25629999999999986,-0.03549510651361377
0.25529999999999986,-0.036103432372555734
0.25429999999999986,-0.03586293145157868
0.25329999999999986,-0.03584878433858003
0.25229999999999986,-0.03587707856457733
0.25129999999999986,-0.03675419957049365
0.25029999999999986,-0.03710787739545991
0.24929999999999986,-0.03757473212441537
0.24829999999999985,-0.037206907186450464
0.24729999999999985,-0.037461555220426164
0.24629999999999985,-0.03829623488734655
0.24529999999999985,-0.038112322418364084
0.24429999999999985,-0.038621618486315505
0.24329999999999985,-0.037970851288377586
0.24229999999999985,-0.03754643789841807
0.24129999999999985,-0.03782938015839108
0.24029999999999985,-0.037970851288377586
0.23929999999999985,-0.0388196780682966
0.23829999999999985,-0.03978168175220483
0.23729999999999984,-0.04051733162813465
0.23629999999999984,-0.04002218267318189
0.23529999999999984,-0.04094174501809417
0.23429999999999984,-0.04170568912002128
0.23329999999999984,-0.04234230920496055
0.23229999999999984,-0.04307795908089037
0.23129999999999984,-0.04354481380984583
0.23029999999999984,-0.045030260674704115
0.22929999999999984,-0.046699620008544857
0.22829999999999984,-0.048368979342385605
0.22729999999999984,-0.048071889969413945
0.22629999999999983,-0.04868021582835592
0.22529999999999983,-0.04975539641625334
0.22429999999999983,-0.050208104032210155
0.22329999999999983,-0.0519057575920482
0.22229999999999983,-0.05326388043991863
0.22129999999999983,-0.054438090818806614
0.22029999999999983,-0.05619233283063926
0.21929999999999983,-0.05657430488160282
0.21829999999999983,-0.05688554136757313
0.21729999999999983,-0.05763533835650159
0.21629999999999983,-0.05888028430038283
0.21529999999999982,-0.058653930492404416
0.21429999999999982,-0.05941787459433154
0.21329999999999982,-0.06103064547617768
0.21229999999999982,-0.06247365100204002
0.21129999999999982,-0.06295465284399412
0.21029999999999982,-0.06460986506483622
0.20929999999999982,-0.06576992833072555
0.20829999999999982,-0.06626507728567832
0.20729999999999982,-0.06632166573767292
0.20629999999999982,-0.06650557820665538
0.20529999999999982,-0.06640654841566482
0.20429999999999982,-0.06636410707666887
0.20329999999999981,-0.067410993438569
0.2022999999999998,-0.07083459478424238
0.2012999999999998,-0.07899747898446366
0.20029999999999992,-0.08164298911521127
0.19929999999999992,-0.0833972311270439
0.19829999999999992,-0.08401970409898453
0.19729999999999992,-0.08379335029100612
0.19629999999999992,-0.0849392664438968
0.19529999999999992,-0.08486853087890354
0.19429999999999992,-0.08365187916101963
0.19329999999999992,-0.08529294426886307
0.19229999999999992,-0.08714621607168627
0.19129999999999991,-0.08905607632650406
0.1902999999999999,-0.08942390126446896
0.1892999999999999,-0.09017369825339744
0.1882999999999999,-0.0909517894683232
0.1872999999999999,-0.09192794026523009
0.1862999999999999,-0.09184305758723818
0.1852999999999999,-0.09331435733909782
0.1842999999999999,-0.09494127533394262
0.1832999999999999,-0.09427636102300604
0.1822999999999999,-0.09498371667293856
0.1812999999999999,-0.09893076119956201
0.1802999999999999,-0.1003596196124257
0.1792999999999999,-0.09972299952748644
0.1782999999999999,-0.10454716506002622
0.1772999999999999,-0.11188951670632576
0.1762999999999999,-0.11408231922111656
0.1752999999999999,-0.11831230600771302
0.1742999999999999,-0.12180664291837967
0.1732999999999999,-0.11930260391761856
0.1722999999999999,-0.12234423321232836
0.1712999999999999,-0.12667324978991537
0.1702999999999999,-0.12814454954177504
0.1692999999999999,-0.12837090334975343
0.1682999999999999,-0.13680258269694906
0.1672999999999999,-0.1381324113188222
0.1662999999999999,-0.13623669817700304
0.1652999999999999,-0.12824357933276556
0.1642999999999999,-0.12423994635414752
0.1632999999999999,-0.12279694082828517
0.1622999999999999,-0.12486241932608814
0.1612999999999999,-0.1295734079546387
0.1602999999999999,-0.13369021783724597
0.1592999999999999,-0.13857097182178035
0.15829999999999989,-0.13871244295176685
0.15729999999999988,-0.1407213329975752
0.15629999999999988,-0.13859926604777764
0.15529999999999988,-0.1423199567664227
0.15429999999999988,-0.11699662449883853
0.15329999999999988,-0.1041793401220613
0.15229999999999988,-0.10669752623582107
0.15129999999999988,-0.10815467887468207
0.15029999999999988,-0.10956939017454709
0.14929999999999988,-0.11030504005047691
0.14829999999999988,-0.10971086130453359
0.14729999999999988,-0.10833859134366451
0.14629999999999987,-0.10952694883555114
0.14529999999999987,-0.11077189477943236
0.14429999999999987,-0.11420964323810441
0.14329999999999987,-0.11326178666719483
0.14229999999999987,-0.11104068992640674
0.14129999999999987,-0.1118470753673298
0.14029999999999987,-0.1133891106841827
0.13929999999999987,-0.11494529311403422
0.13829999999999987,-0.11504432290502477
0.13729999999999987,-0.11511505847001803
0.13629999999999987,-0.11562435453796945
0.13529999999999986,-0.1201372835845389
0.13429999999999986,-0.1239004156421799
0.13329999999999986,-0.12559806920201796
0.13229999999999986,-0.12426824058014481
0.13129999999999986,-0.1232779426702393
0.13029999999999986,-0.12391456275517856
0.12929999999999986,-0.12401359254616913
0.12829999999999986,-0.12378723873819068
0.12729999999999986,-0.1239004156421799
0.12629999999999986,-0.12503218468207195
0.12529999999999986,-0.12654592577292753
0.12429999999999986,-0.1271259574058722
0.12329999999999985,-0.12596589413998285
0.12229999999999985,-0.12520195003805573
0.12129999999999985,-0.12592345280098693
0.12029999999999985,-0.12664495556391808
0.11929999999999985,-0.12259888124630408
0.11829999999999985,-0.12411262233715968
0.11729999999999985,-0.12506047890806923
0.11629999999999985,-0.12416921078915429
0.11529999999999985,-0.1239852983201718
0.11429999999999985,-0.12414091656315696
0.11329999999999985,-0.12448044727512457
0.11229999999999984,-0.12490486066508408
0.11129999999999984,-0.12494730200408004
0.11029999999999984,-0.12391456275517856
0.10929999999999984,-0.12687130937189647
0.10829999999999984,-0.1293470541466603
0.10729999999999984,-0.12827187355876288
0.10629999999999984,-0.13163888645244168
0.10529999999999984,-0.13902367943773714
0.10429999999999984,-0.13417121967920007
0.10329999999999984,-0.1336760707242473
0.10229999999999984,-0.13506248779811506
0.10129999999999983,-0.13814655843182086
0.10029999999999983,-0.13944809282769668
0.09929999999999983,-0.14741291744593682
0.09829999999999983,-0.14812027309586934
0.09729999999999983,-0.1540620605553025
0.09629999999999983,-0.15321323377538346
0.09529999999999983,-0.15165705134553195
0.09429999999999983,-0.1503838111756534
0.09329999999999983,-0.15278882038542396
0.09229999999999983,-0.15293029151541046
0.09129999999999983,-0.15293029151541046
0.09029999999999982,-0.15363764716534298
0.08929999999999982,-0.15264734925543746
0.08829999999999982,-0.15363764716534298
0.08729999999999982,-0.15349617603535648
0.08629999999999982,-0.15618412750510002
0.08529999999999982,-0.15717442541500556
0.08429999999999982,-0.15957943462477614
0.08329999999999982,-0.16339915513441172
0.08229999999999982,-0.1628332706144657
0.08129999999999982,-0.1659456354741688
0.08029999999999982,-0.1689165292038854
0.07929999999999982,-0.17231183632356148
0.07829999999999981,-0.18348805559249526
0.07729999999999981,-0.1976351685911456
0.07629999999999981,-0.19777663972113213
0.07529999999999992,-0.20230371588070023
0.07429999999999992,-0.211782281589796
0.07329999999999992,-0.21291405062968802
0.07229999999999992,-0.22409026989862182
0.07129999999999992,-0.2393691519371642
0.07029999999999992,-0.250828313466071
0.06929999999999992,-0.26426807081478887
0.06829999999999992,-0.2581848122253692
0.06729999999999992,-0.2580433410953827
0.06629999999999991,-0.27049280053419505
0.06529999999999991,-0.2854887403127644
0.06429999999999991,-0.2914305277721975
0.06329999999999991,-0.29539171941181963
0.06229999999999991,-0.2989284976614822
0.06129999999999991,-0.30034320896134725
0.06029999999999991,-0.30105056461127977
0.05929999999999991,-0.30982177467044303
0.05829999999999991,-0.3108120725803486
0.05729999999999991,-0.3173197445597277
0.056299999999999906,-0.31958328263951175
0.055299999999999905,-0.3146317930899841
0.054299999999999904,-0.31350002405009214
0.0532999999999999,-0.3251006567089854
0.0522999999999999,-0.3519801714064211
0.0512999999999999,-0.3917335589326287
0.0502999999999999,-0.4194619004099834
0.0492999999999999,-0.42229132300971345
0.0482999999999999,-0.4121054016506852
0.0472999999999999,-0.4104077480908471
0.0462999999999999,-0.4104077480908471
0.045299999999999896,-0.4130956995605908
0.044299999999999895,-0.41366158408053677
0.043299999999999894,-0.4162080644202938
0.04229999999999989,-0.4147933531204288
0.04129999999999989,-0.39343121249246665
0.04029999999999989,-0.40092918238175135
0.03929999999999989,-0.42101808283983494
0.03829999999999989,-0.43318460001867426
0.03729999999999989,-0.44039962764798596
0.03629999999999989,-0.4486049531872031
0.03529999999999989,-0.4528490870867982
0.034299999999999886,-0.5114181349012108
0.033299999999999885,-0.5265555458097667
0.032299999999999884,-0.5279702571096317
0.031299999999999883,-0.5344779290890109
0.030299999999999883,-0.539570889768525
0.02929999999999988,-0.5489079843476343
0.02829999999999988,-0.5482006286977017
0.02729999999999988,-0.5494738688675803
0.02629999999999988,-0.5531521182472294
0.025299999999999878,-0.539287947508552
0.024299999999999877,-0.535892640388876
0.023299999999999876,-0.5581036077967569
0.022299999999999875,-0.5531521182472294
0.021299999999999875,-0.5527277048572699
0.020299999999999874,-0.5585280211867165
0.019299999999999873,-0.5670162889859067
0.018299999999999872,-0.5784754505148135
0.01729999999999987,-0.5749386722651508
0.01629999999999987,-0.5715433651454748
0.01529999999999987,-0.5691383559357043
0.014299999999999868,-0.5671577601158931
0.013299999999999867,-0.5678651157658258
0.012299999999999978,-0.5633380396062576
0.011299999999999866,-0.5568303676268785
0.010299999999999976,-0.5637624529962171
0.009299999999999864,-0.5781925082548405
0.008299999999999974,-0.5919152078635314
0.007299999999999862,-0.5931884480334099
0.006299999999999972,-0.5958763995031535
0.00529999999999986,-0.6011108313126541
0.0042999999999999705,-0.6073355610320602
0.0032999999999998586,-0.6120041083216149
0.0022999999999999687,-0.6254438656703327
0.0012999999999998568,-0.6211997317707375
0.00029999999999996696,-0.6179458957810481
-0.000700000000000145,-0.619926491600859
-0.0017000000000000348,-0.6260097501902787
-0.0027000000000001467,-0.6649143109365673
-0.0037000000000000366,-0.6987259110033417
-0.0047000000000001485,-0.6728366942158115
-0.005700000000000038,-0.6702902138760544
-0.00670000000000015,-0.6758075879455281
-0.00770000000000004,-0.6719878674358926
-0.008700000000000152,-0.6660460799764593
-0.009700000000000042,-0.6742514055156765
-0.010700000000000154,-0.6953306038836656
-0.011700000000000044,-0.6966038440535441
-0.012700000000000156,-0.6835885000947858
-0.013700000000000045,-0.6903791143341379
-0.014700000000000157,-0.6950476616236926
-0.015700000000000047,-0.6782125971552986
-0.01670000000000016,-0.674675818905636
-0.01770000000000005,-0.6869838072144618
-0.01870000000000016,-0.6772222992453931
-0.01970000000000005,-0.6659046088464727
-0.020700000000000163,-0.6637825418966752
-0.021700000000000053,-0.6656216665864998
-0.022700000000000164,-0.6681681469262569
-0.023700000000000054,-0.672695223085825
-0.024700000000000166,-0.6820323176649342
-0.025700000000000056,-0.694623248233733
-0.026700000000000168,-0.7107509570521945
-0.027700000000000058,-0.7144292064318436
-0.02870000000000017,-0.7076385921924914
-0.02970000000000006,-0.7196636382413442
-0.03070000000000017,-0.7434307880790767
-0.03170000000000006,-0.7430063746891172
-0.03270000000000017,-0.7478163931086583
-0.03370000000000006,-0.7751203211960536
-0.034700000000000175,-0.8061024986630978
-0.035700000000000065,-0.8343967246603987
-0.03670000000000018,-0.7978971731238806
-0.03770000000000007,-0.7905406743645824
-0.03870000000000018,-0.8022827781534622
-0.03970000000000007,-0.8147322375922746
-0.04070000000000018,-0.8329820133605336
-0.04170000000000007,-0.8345381957903852
-0.04270000000000018,-0.8373676183901153
-0.04370000000000007,-0.8145907664622882
-0.044700000000000184,-0.81006369030272
-0.045700000000000074,-0.8152981221122206
-0.046700000000000186,-0.8058195564031249
-0.047700000000000076,-0.791248030014515
-0.04870000000000019,-0.8008680668535972
-0.04970000000000008,-0.8082245656128955
-0.05070000000000019,-0.8239278610413974
-0.05170000000000008,-0.8418946945496834
-0.05270000000000019,-0.8321331865806146
-0.05370000000000008,-0.8332649556205066
-0.05470000000000019,-0.8484023665290624
-0.05570000000000008,-0.8547685673784552
-0.056700000000000195,-0.8533538560785902
-0.057700000000000085,-0.8587297590180772
-0.058700000000000196,-0.8472705974891704
-0.059700000000000086,-0.8182690158419373
-0.0607000000000002,-0.8070927965730035
-0.06170000000000009,-0.8092148635228009
-0.0627000000000002,-0.8321331865806146
-0.06370000000000009,-0.8379335029100613
-0.0647000000000002,-0.84769501087913
-0.06570000000000009,-0.8744330544465793
-0.0667000000000002,-0.8942390126446896
-0.0677000000000001,-0.9113570193730566
-0.0687000000000002,-0.90838612564334
-0.0697000000000001,-0.9003222712341092
-0.07070000000000021,-0.8989075599342444
-0.0717000000000001,-0.9184305758723817
-0.07270000000000021,-0.9355485826007488
-0.0737000000000001,-0.9396512453703574
