Mar. 29, 2025   10:44:23
Cyclic Voltammetry
File: c:/users/guazh/data/banditlqround7_x0exp518_r20/2025-03-28-exp979\exp979-2025-03-29t10_18_13-arkoh\exp979_cv_sr_800mvs_efin_-2000mv.bin
Data Source:  Experiment
Instrument Model:  CHI760E
Header: CV ran at 800 mVs
Note: 

Init E (V) = -1
High E (V) = -1
Low E (V) = -2
Final E (V) = -1
Init P/N = N
Scan Rate (V/s) = 0.8
Segment = 3
Sample Interval (V) = 0.001
Quiet Time (sec) = 2
Sensitivity (A/V) = 0.01
Comp R (ohm) = 2.0

Results:

Channel 1:
Segment 1:

Segment 2:

Segment 3:

Potential/V, Current/A

-1.000, 3.239e-6
-1.001, 1.559e-7
-1.002, 3.239e-6
-1.003, 1.559e-7
-1.004, 3.239e-6
-1.005, 3.239e-6
-1.006, 3.239e-6
-1.007, 3.239e-6
-1.008, 3.239e-6
-1.009, 3.239e-6
-1.010, 3.239e-6
-1.011, 3.239e-6
-1.012, 3.239e-6
-1.013, 3.239e-6
-1.014, 3.239e-6
-1.015, 1.559e-7
-1.016, 3.239e-6
-1.017, 3.239e-6
-1.018, 3.239e-6
-1.019, 3.239e-6
-1.020, 3.239e-6
-1.021, 3.239e-6
-1.022, 3.239e-6
-1.023, 3.239e-6
-1.024, 3.239e-6
-1.025, 3.239e-6
-1.026, 3.239e-6
-1.027, 3.239e-6
-1.028, 3.239e-6
-1.029, 3.239e-6
-1.030, 3.239e-6
-1.031, 3.239e-6
-1.032, 3.239e-6
-1.033, 3.239e-6
-1.034, 3.239e-6
-1.035, 3.239e-6
-1.036, 3.239e-6
-1.037, 3.239e-6
-1.038, 3.239e-6
-1.039, 3.239e-6
-1.040, 3.239e-6
-1.041, 3.239e-6
-1.042, 3.239e-6
-1.043, 3.239e-6
-1.044, 3.239e-6
-1.045, 3.239e-6
-1.046, 3.239e-6
-1.047, 3.239e-6
-1.048, 3.239e-6
-1.049, 3.239e-6
-1.050, 3.239e-6
-1.051, 3.239e-6
-1.052, 3.239e-6
-1.053, 3.239e-6
-1.054, 3.239e-6
-1.055, 3.239e-6
-1.056, 3.239e-6
-1.057, 3.239e-6
-1.058, 3.239e-6
-1.059, 3.239e-6
-1.060, 3.239e-6
-1.061, 3.239e-6
-1.062, 3.239e-6
-1.063, 3.239e-6
-1.064, 3.239e-6
-1.065, 3.239e-6
-1.066, 6.322e-6
-1.067, 3.239e-6
-1.068, 3.239e-6
-1.069, 3.239e-6
-1.070, 3.239e-6
-1.071, 3.239e-6
-1.072, 6.322e-6
-1.073, 3.239e-6
-1.074, 3.239e-6
-1.075, 3.239e-6
-1.076, 3.239e-6
-1.077, 3.239e-6
-1.078, 3.239e-6
-1.079, 3.239e-6
-1.080, 3.239e-6
-1.081, 3.239e-6
-1.082, 3.239e-6
-1.083, 6.322e-6
-1.084, 3.239e-6
-1.085, 6.322e-6
-1.086, 3.239e-6
-1.087, 3.239e-6
-1.088, 3.239e-6
-1.089, 3.239e-6
-1.090, 3.239e-6
-1.091, 6.322e-6
-1.092, 3.239e-6
-1.093, 6.322e-6
-1.094, 3.239e-6
-1.095, 3.239e-6
-1.096, 3.239e-6
-1.097, 6.322e-6
-1.098, 3.239e-6
-1.099, 6.322e-6
-1.100, 3.239e-6
-1.101, 6.322e-6
-1.102, 3.239e-6
-1.103, 6.322e-6
-1.104, 3.239e-6
-1.105, 6.322e-6
-1.106, 3.239e-6
-1.107, 6.322e-6
-1.108, 6.322e-6
-1.109, 3.239e-6
-1.110, 6.322e-6
-1.111, 6.322e-6
-1.112, 6.322e-6
-1.113, 6.322e-6
-1.114, 6.322e-6
-1.115, 3.239e-6
-1.116, 6.322e-6
-1.117, 3.239e-6
-1.118, 6.322e-6
-1.119, 3.239e-6
-1.120, 6.322e-6
-1.121, 3.239e-6
-1.122, 6.322e-6
-1.123, 3.239e-6
-1.124, 6.322e-6
-1.125, 6.322e-6
-1.126, 6.322e-6
-1.127, 6.322e-6
-1.128, 6.322e-6
-1.129, 3.239e-6
-1.130, 6.322e-6
-1.131, 6.322e-6
-1.132, 6.322e-6
-1.133, 6.322e-6
-1.134, 6.322e-6
-1.135, 3.239e-6
-1.136, 6.322e-6
-1.137, 6.322e-6
-1.138, 6.322e-6
-1.139, 6.322e-6
-1.140, 6.322e-6
-1.141, 6.322e-6
-1.142, 3.239e-6
-1.143, 6.322e-6
-1.144, 3.239e-6
-1.145, 6.322e-6
-1.146, 3.239e-6
-1.147, 6.322e-6
-1.148, 6.322e-6
-1.149, 6.322e-6
-1.150, 6.322e-6
-1.151, 6.322e-6
-1.152, 6.322e-6
-1.153, 6.322e-6
-1.154, 6.322e-6
-1.155, 6.322e-6
-1.156, 6.322e-6
-1.157, 6.322e-6
-1.158, 6.322e-6
-1.159, 6.322e-6
-1.160, 6.322e-6
-1.161, 6.322e-6
-1.162, 6.322e-6
-1.163, 6.322e-6
-1.164, 6.322e-6
-1.165, 6.322e-6
-1.166, 6.322e-6
-1.167, 6.322e-6
-1.168, 6.322e-6
-1.169, 6.322e-6
-1.170, 6.322e-6
-1.171, 6.322e-6
-1.172, 6.322e-6
-1.173, 6.322e-6
-1.174, 6.322e-6
-1.175, 6.322e-6
-1.176, 6.322e-6
-1.177, 6.322e-6
-1.178, 6.322e-6
-1.179, 6.322e-6
-1.180, 6.322e-6
-1.181, 6.322e-6
-1.182, 6.322e-6
-1.183, 6.322e-6
-1.184, 6.322e-6
-1.185, 6.322e-6
-1.186, 6.322e-6
-1.187, 6.322e-6
-1.188, 6.322e-6
-1.189, 6.322e-6
-1.190, 9.405e-6
-1.191, 6.322e-6
-1.192, 6.322e-6
-1.193, 6.322e-6
-1.194, 6.322e-6
-1.195, 6.322e-6
-1.196, 6.322e-6
-1.197, 6.322e-6
-1.198, 6.322e-6
-1.199, 6.322e-6
-1.200, 6.322e-6
-1.201, 6.322e-6
-1.202, 6.322e-6
-1.203, 6.322e-6
-1.204, 6.322e-6
-1.205, 6.322e-6
-1.206, 6.322e-6
-1.207, 6.322e-6
-1.208, 6.322e-6
-1.209, 9.405e-6
-1.210, 6.322e-6
-1.211, 6.322e-6
-1.212, 6.322e-6
-1.213, 9.405e-6
-1.214, 6.322e-6
-1.215, 6.322e-6
-1.216, 6.322e-6
-1.217, 6.322e-6
-1.218, 6.322e-6
-1.219, 6.322e-6
-1.220, 6.322e-6
-1.221, 6.322e-6
-1.222, 6.322e-6
-1.223, 6.322e-6
-1.224, 6.322e-6
-1.225, 9.405e-6
-1.226, 6.322e-6
-1.227, 6.322e-6
-1.228, 6.322e-6
-1.229, 9.405e-6
-1.230, 6.322e-6
-1.231, 9.405e-6
-1.232, 6.322e-6
-1.233, 6.322e-6
-1.234, 6.322e-6
-1.235, 6.322e-6
-1.236, 6.322e-6
-1.237, 9.405e-6
-1.238, 9.405e-6
-1.239, 6.322e-6
-1.240, 6.322e-6
-1.241, 6.322e-6
-1.242, 9.405e-6
-1.243, 6.322e-6
-1.244, 9.405e-6
-1.245, 6.322e-6
-1.246, 9.405e-6
-1.247, 6.322e-6
-1.248, 9.405e-6
-1.249, 9.405e-6
-1.250, 9.405e-6
-1.251, 6.322e-6
-1.252, 9.405e-6
-1.253, 9.405e-6
-1.254, 9.405e-6
-1.255, 6.322e-6
-1.256, 9.405e-6
-1.257, 6.322e-6
-1.258, 9.405e-6
-1.259, 9.405e-6
-1.260, 6.322e-6
-1.261, 9.405e-6
-1.262, 6.322e-6
-1.263, 6.322e-6
-1.264, 9.405e-6
-1.265, 9.405e-6
-1.266, 9.405e-6
-1.267, 9.405e-6
-1.268, 9.405e-6
-1.269, 9.405e-6
-1.270, 9.405e-6
-1.271, 9.405e-6
-1.272, 9.405e-6
-1.273, 9.405e-6
-1.274, 9.405e-6
-1.275, 9.405e-6
-1.276, 9.405e-6
-1.277, 9.405e-6
-1.278, 9.405e-6
-1.279, 9.405e-6
-1.280, 9.405e-6
-1.281, 9.405e-6
-1.282, 9.405e-6
-1.283, 9.405e-6
-1.284, 9.405e-6
-1.285, 9.405e-6
-1.286, 9.405e-6
-1.287, 9.405e-6
-1.288, 9.405e-6
-1.289, 9.405e-6
-1.290, 9.405e-6
-1.291, 9.405e-6
-1.292, 9.405e-6
-1.293, 9.405e-6
-1.294, 9.405e-6
-1.295, 9.405e-6
-1.296, 9.405e-6
-1.297, 9.405e-6
-1.298, 9.405e-6
-1.299, 9.405e-6
-1.300, 9.405e-6
-1.301, 9.405e-6
-1.302, 9.405e-6
-1.303, 9.405e-6
-1.304, 9.405e-6
-1.305, 9.405e-6
-1.306, 9.405e-6
-1.307, 9.405e-6
-1.308, 9.405e-6
-1.309, 9.405e-6
-1.310, 9.405e-6
-1.311, 9.405e-6
-1.312, 9.405e-6
-1.313, 9.405e-6
-1.314, 9.405e-6
-1.315, 9.405e-6
-1.316, 9.405e-6
-1.317, 9.405e-6
-1.318, 9.405e-6
-1.319, 9.405e-6
-1.320, 9.405e-6
-1.321, 9.405e-6
-1.322, 9.405e-6
-1.323, 9.405e-6
-1.324, 9.405e-6
-1.325, 9.405e-6
-1.326, 9.405e-6
-1.327, 9.405e-6
-1.328, 9.405e-6
-1.329, 9.405e-6
-1.330, 9.405e-6
-1.331, 9.405e-6
-1.332, 9.405e-6
-1.333, 9.405e-6
-1.334, 9.405e-6
-1.335, 9.405e-6
-1.336, 9.405e-6
-1.337, 9.405e-6
-1.338, 9.405e-6
-1.339, 1.249e-5
-1.340, 9.405e-6
-1.341, 9.405e-6
-1.342, 9.405e-6
-1.343, 9.405e-6
-1.344, 9.405e-6
-1.345, 1.249e-5
-1.346, 1.249e-5
-1.347, 1.249e-5
-1.348, 9.405e-6
-1.349, 9.405e-6
-1.350, 9.405e-6
-1.351, 9.405e-6
-1.352, 1.249e-5
-1.353, 9.405e-6
-1.354, 1.249e-5
-1.355, 1.249e-5
-1.356, 9.405e-6
-1.357, 1.249e-5
-1.358, 1.249e-5
-1.359, 1.249e-5
-1.360, 1.249e-5
-1.361, 1.249e-5
-1.362, 9.405e-6
-1.363, 1.249e-5
-1.364, 1.249e-5
-1.365, 1.249e-5
-1.366, 1.249e-5
-1.367, 9.405e-6
-1.368, 1.249e-5
-1.369, 9.405e-6
-1.370, 1.249e-5
-1.371, 9.405e-6
-1.372, 1.249e-5
-1.373, 9.405e-6
-1.374, 1.249e-5
-1.375, 1.249e-5
-1.376, 1.249e-5
-1.377, 9.405e-6
-1.378, 1.249e-5
-1.379, 1.249e-5
-1.380, 1.249e-5
-1.381, 9.405e-6
-1.382, 1.249e-5
-1.383, 1.249e-5
-1.384, 1.249e-5
-1.385, 1.249e-5
-1.386, 1.249e-5
-1.387, 1.249e-5
-1.388, 1.249e-5
-1.389, 1.249e-5
-1.390, 1.249e-5
-1.391, 1.249e-5
-1.392, 1.249e-5
-1.393, 1.249e-5
-1.394, 9.405e-6
-1.395, 1.249e-5
-1.396, 1.249e-5
-1.397, 1.249e-5
-1.398, 1.249e-5
-1.399, 1.249e-5
-1.400, 1.249e-5
-1.401, 1.249e-5
-1.402, 1.249e-5
-1.403, 1.249e-5
-1.404, 1.249e-5
-1.405, 1.249e-5
-1.406, 1.249e-5
-1.407, 1.249e-5
-1.408, 1.249e-5
-1.409, 1.249e-5
-1.410, 1.249e-5
-1.411, 1.249e-5
-1.412, 1.249e-5
-1.413, 1.249e-5
-1.414, 1.249e-5
-1.415, 1.249e-5
-1.416, 1.249e-5
-1.417, 1.249e-5
-1.418, 1.249e-5
-1.419, 1.249e-5
-1.420, 1.249e-5
-1.421, 1.249e-5
-1.422, 1.249e-5
-1.423, 1.249e-5
-1.424, 1.249e-5
-1.425, 1.249e-5
-1.426, 1.249e-5
-1.427, 1.249e-5
-1.428, 1.249e-5
-1.429, 1.249e-5
-1.430, 1.249e-5
-1.431, 1.249e-5
-1.432, 1.249e-5
-1.433, 1.249e-5
-1.434, 1.249e-5
-1.435, 1.249e-5
-1.436, 1.249e-5
-1.437, 1.249e-5
-1.438, 1.557e-5
-1.439, 1.249e-5
-1.440, 1.557e-5
-1.441, 1.249e-5
-1.442, 1.249e-5
-1.443, 1.249e-5
-1.444, 1.249e-5
-1.445, 1.557e-5
-1.446, 1.249e-5
-1.447, 1.557e-5
-1.448, 1.249e-5
-1.449, 1.249e-5
-1.450, 1.249e-5
-1.451, 1.249e-5
-1.452, 1.557e-5
-1.453, 1.557e-5
-1.454, 1.249e-5
-1.455, 1.557e-5
-1.456, 1.249e-5
-1.457, 1.557e-5
-1.458, 1.557e-5
-1.459, 1.557e-5
-1.460, 1.249e-5
-1.461, 1.557e-5
-1.462, 1.557e-5
-1.463, 1.557e-5
-1.464, 1.249e-5
-1.465, 1.557e-5
-1.466, 1.557e-5
-1.467, 1.557e-5
-1.468, 1.249e-5
-1.469, 1.557e-5
-1.470, 1.557e-5
-1.471, 1.557e-5
-1.472, 1.557e-5
-1.473, 1.557e-5
-1.474, 1.557e-5
-1.475, 1.557e-5
-1.476, 1.557e-5
-1.477, 1.557e-5
-1.478, 1.557e-5
-1.479, 1.557e-5
-1.480, 1.557e-5
-1.481, 1.557e-5
-1.482, 1.557e-5
-1.483, 1.557e-5
-1.484, 1.557e-5
-1.485, 1.557e-5
-1.486, 1.557e-5
-1.487, 1.557e-5
-1.488, 1.557e-5
-1.489, 1.557e-5
-1.490, 1.557e-5
-1.491, 1.557e-5
-1.492, 1.557e-5
-1.493, 1.557e-5
-1.494, 1.557e-5
-1.495, 1.557e-5
-1.496, 1.557e-5
-1.497, 1.557e-5
-1.498, 1.557e-5
-1.499, 1.557e-5
-1.500, 1.557e-5
-1.501, 1.557e-5
-1.502, 1.557e-5
-1.503, 1.557e-5
-1.504, 1.865e-5
-1.505, 1.557e-5
-1.506, 1.557e-5
-1.507, 1.557e-5
-1.508, 1.557e-5
-1.509, 1.557e-5
-1.510, 1.557e-5
-1.511, 1.557e-5
-1.512, 1.557e-5
-1.513, 1.557e-5
-1.514, 1.557e-5
-1.515, 1.557e-5
-1.516, 1.557e-5
-1.517, 1.557e-5
-1.518, 1.557e-5
-1.519, 1.865e-5
-1.520, 1.557e-5
-1.521, 1.865e-5
-1.522, 1.557e-5
-1.523, 1.557e-5
-1.524, 1.557e-5
-1.525, 1.865e-5
-1.526, 1.865e-5
-1.527, 1.865e-5
-1.528, 1.865e-5
-1.529, 1.865e-5
-1.530, 1.557e-5
-1.531, 1.865e-5
-1.532, 1.865e-5
-1.533, 1.557e-5
-1.534, 1.557e-5
-1.535, 1.865e-5
-1.536, 1.865e-5
-1.537, 1.865e-5
-1.538, 1.865e-5
-1.539, 1.865e-5
-1.540, 1.865e-5
-1.541, 1.865e-5
-1.542, 1.865e-5
-1.543, 1.865e-5
-1.544, 1.865e-5
-1.545, 1.865e-5
-1.546, 1.865e-5
-1.547, 1.865e-5
-1.548, 1.865e-5
-1.549, 1.865e-5
-1.550, 1.865e-5
-1.551, 1.865e-5
-1.552, 1.865e-5
-1.553, 1.865e-5
-1.554, 1.865e-5
-1.555, 1.865e-5
-1.556, 1.865e-5
-1.557, 1.865e-5
-1.558, 1.865e-5
-1.559, 1.865e-5
-1.560, 2.174e-5
-1.561, 1.865e-5
-1.562, 2.174e-5
-1.563, 1.865e-5
-1.564, 2.174e-5
-1.565, 2.174e-5
-1.566, 2.174e-5
-1.567, 1.865e-5
-1.568, 2.174e-5
-1.569, 2.174e-5
-1.570, 2.174e-5
-1.571, 2.174e-5
-1.572, 2.174e-5
-1.573, 2.174e-5
-1.574, 2.174e-5
-1.575, 2.174e-5
-1.576, 2.174e-5
-1.577, 2.174e-5
-1.578, 2.174e-5
-1.579, 2.174e-5
-1.580, 2.174e-5
-1.581, 2.174e-5
-1.582, 2.174e-5
-1.583, 2.174e-5
-1.584, 2.174e-5
-1.585, 2.482e-5
-1.586, 2.174e-5
-1.587, 2.174e-5
-1.588, 2.174e-5
-1.589, 2.482e-5
-1.590, 2.482e-5
-1.591, 2.482e-5
-1.592, 2.482e-5
-1.593, 2.482e-5
-1.594, 2.482e-5
-1.595, 2.482e-5
-1.596, 2.482e-5
-1.597, 2.482e-5
-1.598, 2.482e-5
-1.599, 2.482e-5
-1.600, 2.482e-5
-1.601, 2.790e-5
-1.602, 2.482e-5
-1.603, 2.482e-5
-1.604, 2.482e-5
-1.605, 2.790e-5
-1.606, 2.482e-5
-1.607, 2.790e-5
-1.608, 2.790e-5
-1.609, 2.790e-5
-1.610, 2.790e-5
-1.611, 2.790e-5
-1.612, 2.790e-5
-1.613, 2.790e-5
-1.614, 2.790e-5
-1.615, 2.790e-5
-1.616, 2.790e-5
-1.617, 2.790e-5
-1.618, 3.099e-5
-1.619, 3.099e-5
-1.620, 3.099e-5
-1.621, 3.099e-5
-1.622, 3.099e-5
-1.623, 3.099e-5
-1.624, 3.099e-5
-1.625, 3.099e-5
-1.626, 3.099e-5
-1.627, 3.099e-5
-1.628, 3.407e-5
-1.629, 3.099e-5
-1.630, 3.407e-5
-1.631, 3.407e-5
-1.632, 3.407e-5
-1.633, 3.407e-5
-1.634, 3.407e-5
-1.635, 3.407e-5
-1.636, 3.407e-5
-1.637, 3.407e-5
-1.638, 3.715e-5
-1.639, 3.407e-5
-1.640, 3.715e-5
-1.641, 3.715e-5
-1.642, 3.715e-5
-1.643, 3.715e-5
-1.644, 3.715e-5
-1.645, 3.715e-5
-1.646, 3.715e-5
-1.647, 4.024e-5
-1.648, 3.715e-5
-1.649, 4.024e-5
-1.650, 4.024e-5
-1.651, 4.024e-5
-1.652, 4.024e-5
-1.653, 4.332e-5
-1.654, 4.332e-5
-1.655, 4.332e-5
-1.656, 4.332e-5
-1.657, 4.332e-5
-1.658, 4.332e-5
-1.659, 4.640e-5
-1.660, 4.332e-5
-1.661, 4.640e-5
-1.662, 4.640e-5
-1.663, 4.640e-5
-1.664, 4.640e-5
-1.665, 4.640e-5
-1.666, 4.949e-5
-1.667, 4.949e-5
-1.668, 4.949e-5
-1.669, 5.257e-5
-1.670, 4.949e-5
-1.671, 5.257e-5
-1.672, 5.257e-5
-1.673, 5.257e-5
-1.674, 5.257e-5
-1.675, 5.565e-5
-1.676, 5.565e-5
-1.677, 5.565e-5
-1.678, 5.565e-5
-1.679, 5.873e-5
-1.680, 5.873e-5
-1.681, 5.873e-5
-1.682, 5.873e-5
-1.683, 6.182e-5
-1.684, 6.182e-5
-1.685, 6.182e-5
-1.686, 6.490e-5
-1.687, 6.490e-5
-1.688, 6.490e-5
-1.689, 6.490e-5
-1.690, 6.798e-5
-1.691, 6.798e-5
-1.692, 7.107e-5
-1.693, 7.107e-5
-1.694, 7.107e-5
-1.695, 7.107e-5
-1.696, 7.415e-5
-1.697, 7.415e-5
-1.698, 7.723e-5
-1.699, 7.723e-5
-1.700, 7.723e-5
-1.701, 8.032e-5
-1.702, 8.032e-5
-1.703, 8.032e-5
-1.704, 8.340e-5
-1.705, 8.648e-5
-1.706, 8.648e-5
-1.707, 8.648e-5
-1.708, 8.957e-5
-1.709, 8.957e-5
-1.710, 9.265e-5
-1.711, 9.573e-5
-1.712, 9.573e-5
-1.713, 9.573e-5
-1.714, 9.882e-5
-1.715, 1.019e-4
-1.716, 1.019e-4
-1.717, 1.050e-4
-1.718, 1.050e-4
-1.719, 1.081e-4
-1.720, 1.081e-4
-1.721, 1.111e-4
-1.722, 1.142e-4
-1.723, 1.173e-4
-1.724, 1.173e-4
-1.725, 1.204e-4
-1.726, 1.235e-4
-1.727, 1.235e-4
-1.728, 1.266e-4
-1.729, 1.296e-4
-1.730, 1.296e-4
-1.731, 1.327e-4
-1.732, 1.358e-4
-1.733, 1.389e-4
-1.734, 1.420e-4
-1.735, 1.451e-4
-1.736, 1.451e-4
-1.737, 1.481e-4
-1.738, 1.512e-4
-1.739, 1.543e-4
-1.740, 1.574e-4
-1.741, 1.605e-4
-1.742, 1.636e-4
-1.743, 1.666e-4
-1.744, 1.697e-4
-1.745, 1.728e-4
-1.746, 1.759e-4
-1.747, 1.790e-4
-1.748, 1.821e-4
-1.749, 1.882e-4
-1.750, 1.913e-4
-1.751, 1.944e-4
-1.752, 1.975e-4
-1.753, 2.036e-4
-1.754, 2.067e-4
-1.755, 2.098e-4
-1.756, 2.160e-4
-1.757, 2.191e-4
-1.758, 2.221e-4
-1.759, 2.283e-4
-1.760, 2.314e-4
-1.761, 2.376e-4
-1.762, 2.406e-4
-1.763, 2.468e-4
-1.764, 2.499e-4
-1.765, 2.561e-4
-1.766, 2.622e-4
-1.767, 2.653e-4
-1.768, 2.715e-4
-1.769, 2.776e-4
-1.770, 2.838e-4
-1.771, 2.900e-4
-1.772, 2.931e-4
-1.773, 2.992e-4
-1.774, 3.054e-4
-1.775, 3.115e-4
-1.776, 3.177e-4
-1.777, 3.239e-4
-1.778, 3.331e-4
-1.779, 3.393e-4
-1.780, 3.455e-4
-1.781, 3.516e-4
-1.782, 3.578e-4
-1.783, 3.670e-4
-1.784, 3.732e-4
-1.785, 3.825e-4
-1.786, 3.886e-4
-1.787, 3.979e-4
-1.788, 4.040e-4
-1.789, 4.133e-4
-1.790, 4.225e-4
-1.791, 4.287e-4
-1.792, 4.380e-4
-1.793, 4.472e-4
-1.794, 4.565e-4
-1.795, 4.657e-4
-1.796, 4.750e-4
-1.797, 4.842e-4
-1.798, 4.935e-4
-1.799, 5.058e-4
-1.800, 5.150e-4
-1.801, 5.243e-4
-1.802, 5.335e-4
-1.803, 5.459e-4
-1.804, 5.551e-4
-1.805, 5.674e-4
-1.806, 5.798e-4
-1.807, 5.921e-4
-1.808, 6.014e-4
-1.809, 6.137e-4
-1.810, 6.260e-4
-1.811, 6.384e-4
-1.812, 6.507e-4
-1.813, 6.630e-4
-1.814, 6.754e-4
-1.815, 6.908e-4
-1.816, 7.031e-4
-1.817, 7.154e-4
-1.818, 7.309e-4
-1.819, 7.432e-4
-1.820, 7.586e-4
-1.821, 7.740e-4
-1.822, 7.894e-4
-1.823, 8.048e-4
-1.824, 8.203e-4
-1.825, 8.357e-4
-1.826, 8.511e-4
-1.827, 8.665e-4
-1.828, 8.819e-4
-1.829, 9.004e-4
-1.830, 9.158e-4
-1.831, 9.343e-4
-1.832, 9.528e-4
-1.833, 9.683e-4
-1.834, 9.868e-4
-1.835, 1.005e-3
-1.836, 1.024e-3
-1.837, 1.042e-3
-1.838, 1.061e-3
-1.839, 1.079e-3
-1.840, 1.098e-3
-1.841, 1.119e-3
-1.842, 1.141e-3
-1.843, 1.159e-3
-1.844, 1.181e-3
-1.845, 1.203e-3
-1.846, 1.221e-3
-1.847, 1.243e-3
-1.848, 1.264e-3
-1.849, 1.286e-3
-1.850, 1.310e-3
-1.851, 1.332e-3
-1.852, 1.354e-3
-1.853, 1.378e-3
-1.854, 1.403e-3
-1.855, 1.425e-3
-1.856, 1.449e-3
-1.857, 1.474e-3
-1.858, 1.499e-3
-1.859, 1.523e-3
-1.860, 1.551e-3
-1.861, 1.576e-3
-1.862, 1.600e-3
-1.863, 1.628e-3
-1.864, 1.656e-3
-1.865, 1.684e-3
-1.866, 1.708e-3
-1.867, 1.736e-3
-1.868, 1.764e-3
-1.869, 1.791e-3
-1.870, 1.822e-3
-1.871, 1.850e-3
-1.872, 1.881e-3
-1.873, 1.909e-3
-1.874, 1.939e-3
-1.875, 1.967e-3
-1.876, 1.998e-3
-1.877, 2.029e-3
-1.878, 2.063e-3
-1.879, 2.094e-3
-1.880, 2.124e-3
-1.881, 2.158e-3
-1.882, 2.189e-3
-1.883, 2.223e-3
-1.884, 2.254e-3
-1.885, 2.291e-3
-1.886, 2.325e-3
-1.887, 2.359e-3
-1.888, 2.393e-3
-1.889, 2.430e-3
-1.890, 2.464e-3
-1.891, 2.497e-3
-1.892, 2.534e-3
-1.893, 2.571e-3
-1.894, 2.605e-3
-1.895, 2.642e-3
-1.896, 2.682e-3
-1.897, 2.716e-3
-1.898, 2.756e-3
-1.899, 2.793e-3
-1.900, 2.830e-3
-1.901, 2.867e-3
-1.902, 2.908e-3
-1.903, 2.948e-3
-1.904, 2.985e-3
-1.905, 3.025e-3
-1.906, 3.065e-3
-1.907, 3.105e-3
-1.908, 3.145e-3
-1.909, 3.185e-3
-1.910, 3.225e-3
-1.911, 3.268e-3
-1.912, 3.308e-3
-1.913, 3.351e-3
-1.914, 3.395e-3
-1.915, 3.435e-3
-1.916, 3.481e-3
-1.917, 3.524e-3
-1.918, 3.567e-3
-1.919, 3.610e-3
-1.920, 3.654e-3
-1.921, 3.700e-3
-1.922, 3.743e-3
-1.923, 3.789e-3
-1.924, 3.836e-3
-1.925, 3.882e-3
-1.926, 3.928e-3
-1.927, 3.977e-3
-1.928, 4.024e-3
-1.929, 4.073e-3
-1.930, 4.119e-3
-1.931, 4.169e-3
-1.932, 4.215e-3
-1.933, 4.264e-3
-1.934, 4.313e-3
-1.935, 4.360e-3
-1.936, 4.409e-3
-1.937, 4.455e-3
-1.938, 4.505e-3
-1.939, 4.554e-3
-1.940, 4.603e-3
-1.941, 4.656e-3
-1.942, 4.705e-3
-1.943, 4.754e-3
-1.944, 4.807e-3
-1.945, 4.856e-3
-1.946, 4.912e-3
-1.947, 4.961e-3
-1.948, 5.013e-3
-1.949, 5.066e-3
-1.950, 5.118e-3
-1.951, 5.174e-3
-1.952, 5.226e-3
-1.953, 5.278e-3
-1.954, 5.331e-3
-1.955, 5.383e-3
-1.956, 5.436e-3
-1.957, 5.488e-3
-1.958, 5.547e-3
-1.959, 5.602e-3
-1.960, 5.658e-3
-1.961, 5.713e-3
-1.962, 5.769e-3
-1.963, 5.827e-3
-1.964, 5.883e-3
-1.965, 5.941e-3
-1.966, 6.000e-3
-1.967, 6.058e-3
-1.968, 6.117e-3
-1.969, 6.173e-3
-1.970, 6.231e-3
-1.971, 6.287e-3
-1.972, 6.345e-3
-1.973, 6.407e-3
-1.974, 6.465e-3
-1.975, 6.524e-3
-1.976, 6.583e-3
-1.977, 6.641e-3
-1.978, 6.700e-3
-1.979, 6.761e-3
-1.980, 6.823e-3
-1.981, 6.885e-3
-1.982, 6.949e-3
-1.983, 7.011e-3
-1.984, 7.076e-3
-1.985, 7.138e-3
-1.986, 7.199e-3
-1.987, 7.261e-3
-1.988, 7.323e-3
-1.989, 7.384e-3
-1.990, 7.443e-3
-1.991, 7.508e-3
-1.992, 7.569e-3
-1.993, 7.631e-3
-1.994, 7.696e-3
-1.995, 7.760e-3
-1.996, 7.822e-3
-1.997, 7.890e-3
-1.998, 7.958e-3
-1.999, 8.025e-3
-2.000, 8.050e-3
-1.999, 8.007e-3
-1.998, 7.964e-3
-1.997, 7.921e-3
-1.996, 7.874e-3
-1.995, 7.834e-3
-1.994, 7.791e-3
-1.993, 7.751e-3
-1.992, 7.711e-3
-1.991, 7.668e-3
-1.990, 7.625e-3
-1.989, 7.582e-3
-1.988, 7.541e-3
-1.987, 7.501e-3
-1.986, 7.458e-3
-1.985, 7.415e-3
-1.984, 7.375e-3
-1.983, 7.332e-3
-1.982, 7.289e-3
-1.981, 7.245e-3
-1.980, 7.202e-3
-1.979, 7.162e-3
-1.978, 7.119e-3
-1.977, 7.076e-3
-1.976, 7.033e-3
-1.975, 6.990e-3
-1.974, 6.946e-3
-1.973, 6.903e-3
-1.972, 6.860e-3
-1.971, 6.817e-3
-1.970, 6.774e-3
-1.969, 6.731e-3
-1.968, 6.691e-3
-1.967, 6.647e-3
-1.966, 6.604e-3
-1.965, 6.564e-3
-1.964, 6.521e-3
-1.963, 6.481e-3
-1.962, 6.438e-3
-1.961, 6.395e-3
-1.960, 6.358e-3
-1.959, 6.314e-3
-1.958, 6.274e-3
-1.957, 6.234e-3
-1.956, 6.194e-3
-1.955, 6.154e-3
-1.954, 6.114e-3
-1.953, 6.074e-3
-1.952, 6.034e-3
-1.951, 5.994e-3
-1.950, 5.957e-3
-1.949, 5.917e-3
-1.948, 5.877e-3
-1.947, 5.836e-3
-1.946, 5.793e-3
-1.945, 5.753e-3
-1.944, 5.716e-3
-1.943, 5.676e-3
-1.942, 5.636e-3
-1.941, 5.599e-3
-1.940, 5.559e-3
-1.939, 5.522e-3
-1.938, 5.482e-3
-1.937, 5.445e-3
-1.936, 5.405e-3
-1.935, 5.368e-3
-1.934, 5.325e-3
-1.933, 5.288e-3
-1.932, 5.248e-3
-1.931, 5.211e-3
-1.930, 5.174e-3
-1.929, 5.137e-3
-1.928, 5.100e-3
-1.927, 5.063e-3
-1.926, 5.026e-3
-1.925, 4.989e-3
-1.924, 4.955e-3
-1.923, 4.915e-3
-1.922, 4.881e-3
-1.921, 4.844e-3
-1.920, 4.807e-3
-1.919, 4.773e-3
-1.918, 4.733e-3
-1.917, 4.699e-3
-1.916, 4.662e-3
-1.915, 4.628e-3
-1.914, 4.591e-3
-1.913, 4.557e-3
-1.912, 4.523e-3
-1.911, 4.486e-3
-1.910, 4.452e-3
-1.909, 4.415e-3
-1.908, 4.381e-3
-1.907, 4.347e-3
-1.906, 4.313e-3
-1.905, 4.280e-3
-1.904, 4.246e-3
-1.903, 4.209e-3
-1.902, 4.178e-3
-1.901, 4.144e-3
-1.900, 4.113e-3
-1.899, 4.079e-3
-1.898, 4.045e-3
-1.897, 4.014e-3
-1.896, 3.980e-3
-1.895, 3.950e-3
-1.894, 3.916e-3
-1.893, 3.882e-3
-1.892, 3.851e-3
-1.891, 3.820e-3
-1.890, 3.789e-3
-1.889, 3.758e-3
-1.888, 3.728e-3
-1.887, 3.694e-3
-1.886, 3.666e-3
-1.885, 3.635e-3
-1.884, 3.604e-3
-1.883, 3.573e-3
-1.882, 3.543e-3
-1.881, 3.512e-3
-1.880, 3.481e-3
-1.879, 3.450e-3
-1.878, 3.422e-3
-1.877, 3.392e-3
-1.876, 3.364e-3
-1.875, 3.336e-3
-1.874, 3.305e-3
-1.873, 3.274e-3
-1.872, 3.247e-3
-1.871, 3.219e-3
-1.870, 3.191e-3
-1.869, 3.163e-3
-1.868, 3.133e-3
-1.867, 3.105e-3
-1.866, 3.077e-3
-1.865, 3.049e-3
-1.864, 3.022e-3
-1.863, 2.997e-3
-1.862, 2.969e-3
-1.861, 2.941e-3
-1.860, 2.917e-3
-1.859, 2.889e-3
-1.858, 2.861e-3
-1.857, 2.834e-3
-1.856, 2.809e-3
-1.855, 2.784e-3
-1.854, 2.756e-3
-1.853, 2.732e-3
-1.852, 2.707e-3
-1.851, 2.679e-3
-1.850, 2.655e-3
-1.849, 2.630e-3
-1.848, 2.605e-3
-1.847, 2.581e-3
-1.846, 2.556e-3
-1.845, 2.534e-3
-1.844, 2.510e-3
-1.843, 2.485e-3
-1.842, 2.460e-3
-1.841, 2.439e-3
-1.840, 2.414e-3
-1.839, 2.390e-3
-1.838, 2.368e-3
-1.837, 2.343e-3
-1.836, 2.322e-3
-1.835, 2.297e-3
-1.834, 2.275e-3
-1.833, 2.254e-3
-1.832, 2.229e-3
-1.831, 2.208e-3
-1.830, 2.186e-3
-1.829, 2.164e-3
-1.828, 2.143e-3
-1.827, 2.121e-3
-1.826, 2.100e-3
-1.825, 2.078e-3
-1.824, 2.057e-3
-1.823, 2.035e-3
-1.822, 2.017e-3
-1.821, 1.995e-3
-1.820, 1.976e-3
-1.819, 1.955e-3
-1.818, 1.933e-3
-1.817, 1.915e-3
-1.816, 1.893e-3
-1.815, 1.875e-3
-1.814, 1.853e-3
-1.813, 1.835e-3
-1.812, 1.816e-3
-1.811, 1.798e-3
-1.810, 1.776e-3
-1.809, 1.758e-3
-1.808, 1.739e-3
-1.807, 1.721e-3
-1.806, 1.702e-3
-1.805, 1.687e-3
-1.804, 1.665e-3
-1.803, 1.650e-3
-1.802, 1.631e-3
-1.801, 1.613e-3
-1.800, 1.594e-3
-1.799, 1.579e-3
-1.798, 1.560e-3
-1.797, 1.542e-3
-1.796, 1.526e-3
-1.795, 1.508e-3
-1.794, 1.492e-3
-1.793, 1.474e-3
-1.792, 1.458e-3
-1.791, 1.443e-3
-1.790, 1.425e-3
-1.789, 1.409e-3
-1.788, 1.394e-3
-1.787, 1.378e-3
-1.786, 1.363e-3
-1.785, 1.347e-3
-1.784, 1.332e-3
-1.783, 1.317e-3
-1.782, 1.301e-3
-1.781, 1.286e-3
-1.780, 1.270e-3
-1.779, 1.255e-3
-1.778, 1.243e-3
-1.777, 1.227e-3
-1.776, 1.212e-3
-1.775, 1.199e-3
-1.774, 1.187e-3
-1.773, 1.172e-3
-1.772, 1.156e-3
-1.771, 1.144e-3
-1.770, 1.129e-3
-1.769, 1.116e-3
-1.768, 1.104e-3
-1.767, 1.088e-3
-1.766, 1.076e-3
-1.765, 1.064e-3
-1.764, 1.051e-3
-1.763, 1.036e-3
-1.762, 1.024e-3
-1.761, 1.011e-3
-1.760, 9.991e-4
-1.759, 9.868e-4
-1.758, 9.744e-4
-1.757, 9.621e-4
-1.756, 9.498e-4
-1.755, 9.405e-4
-1.754, 9.251e-4
-1.753, 9.158e-4
-1.752, 9.035e-4
-1.751, 8.912e-4
-1.750, 8.788e-4
-1.749, 8.696e-4
-1.748, 8.573e-4
-1.747, 8.480e-4
-1.746, 8.357e-4
-1.745, 8.264e-4
-1.744, 8.141e-4
-1.743, 8.048e-4
-1.742, 7.925e-4
-1.741, 7.833e-4
-1.740, 7.709e-4
-1.739, 7.617e-4
-1.738, 7.524e-4
-1.737, 7.432e-4
-1.736, 7.309e-4
-1.735, 7.216e-4
-1.734, 7.124e-4
-1.733, 7.000e-4
-1.732, 6.939e-4
-1.731, 6.815e-4
-1.730, 6.723e-4
-1.729, 6.630e-4
-1.728, 6.538e-4
-1.727, 6.445e-4
-1.726, 6.353e-4
-1.725, 6.291e-4
-1.724, 6.199e-4
-1.723, 6.106e-4
-1.722, 6.014e-4
-1.721, 5.921e-4
-1.720, 5.859e-4
-1.719, 5.767e-4
-1.718, 5.705e-4
-1.717, 5.613e-4
-1.716, 5.520e-4
-1.715, 5.428e-4
-1.714, 5.366e-4
-1.713, 5.274e-4
-1.712, 5.212e-4
-1.711, 5.150e-4
-1.710, 5.058e-4
-1.709, 4.996e-4
-1.708, 4.904e-4
-1.707, 4.842e-4
-1.706, 4.780e-4
-1.705, 4.688e-4
-1.704, 4.626e-4
-1.703, 4.565e-4
-1.702, 4.472e-4
-1.701, 4.410e-4
-1.700, 4.349e-4
-1.699, 4.256e-4
-1.698, 4.225e-4
-1.697, 4.133e-4
-1.696, 4.071e-4
-1.695, 4.040e-4
-1.694, 3.948e-4
-1.693, 3.917e-4
-1.692, 3.825e-4
-1.691, 3.763e-4
-1.690, 3.701e-4
-1.689, 3.640e-4
-1.688, 3.578e-4
-1.687, 3.547e-4
-1.686, 3.485e-4
-1.685, 3.424e-4
-1.684, 3.362e-4
-1.683, 3.300e-4
-1.682, 3.270e-4
-1.681, 3.208e-4
-1.680, 3.146e-4
-1.679, 3.115e-4
-1.678, 3.023e-4
-1.677, 2.992e-4
-1.676, 2.931e-4
-1.675, 2.900e-4
-1.674, 2.838e-4
-1.673, 2.807e-4
-1.672, 2.746e-4
-1.671, 2.715e-4
-1.670, 2.653e-4
-1.669, 2.622e-4
-1.668, 2.561e-4
-1.667, 2.530e-4
-1.666, 2.468e-4
-1.665, 2.437e-4
-1.664, 2.376e-4
-1.663, 2.345e-4
-1.662, 2.314e-4
-1.661, 2.283e-4
-1.660, 2.221e-4
-1.659, 2.191e-4
-1.658, 2.160e-4
-1.657, 2.098e-4
-1.656, 2.067e-4
-1.655, 2.036e-4
-1.654, 2.006e-4
-1.653, 1.944e-4
-1.652, 1.913e-4
-1.651, 1.882e-4
-1.650, 1.851e-4
-1.649, 1.821e-4
-1.648, 1.790e-4
-1.647, 1.759e-4
-1.646, 1.728e-4
-1.645, 1.666e-4
-1.644, 1.666e-4
-1.643, 1.636e-4
-1.642, 1.605e-4
-1.641, 1.574e-4
-1.640, 1.543e-4
-1.639, 1.481e-4
-1.638, 1.451e-4
-1.637, 1.420e-4
-1.636, 1.420e-4
-1.635, 1.389e-4
-1.634, 1.358e-4
-1.633, 1.327e-4
-1.632, 1.296e-4
-1.631, 1.266e-4
-1.630, 1.266e-4
-1.629, 1.235e-4
-1.628, 1.204e-4
-1.627, 1.173e-4
-1.626, 1.173e-4
-1.625, 1.142e-4
-1.624, 1.111e-4
-1.623, 1.081e-4
-1.622, 1.050e-4
-1.621, 1.050e-4
-1.620, 1.019e-4
-1.619, 9.882e-5
-1.618, 9.882e-5
-1.617, 9.573e-5
-1.616, 9.265e-5
-1.615, 9.265e-5
-1.614, 8.957e-5
-1.613, 8.957e-5
-1.612, 8.648e-5
-1.611, 8.340e-5
-1.610, 8.340e-5
-1.609, 8.032e-5
-1.608, 8.032e-5
-1.607, 7.723e-5
-1.606, 7.415e-5
-1.605, 7.415e-5
-1.604, 7.107e-5
-1.603, 7.107e-5
-1.602, 7.107e-5
-1.601, 6.798e-5
-1.600, 6.490e-5
-1.599, 6.490e-5
-1.598, 6.490e-5
-1.597, 6.182e-5
-1.596, 6.182e-5
-1.595, 5.873e-5
-1.594, 5.565e-5
-1.593, 5.565e-5
-1.592, 5.565e-5
-1.591, 5.257e-5
-1.590, 5.257e-5
-1.589, 5.257e-5
-1.588, 4.949e-5
-1.587, 4.949e-5
-1.586, 4.640e-5
-1.585, 4.640e-5
-1.584, 4.640e-5
-1.583, 4.332e-5
-1.582, 4.332e-5
-1.581, 4.332e-5
-1.580, 4.024e-5
-1.579, 4.024e-5
-1.578, 4.024e-5
-1.577, 3.715e-5
-1.576, 3.715e-5
-1.575, 3.715e-5
-1.574, 3.407e-5
-1.573, 3.407e-5
-1.572, 3.407e-5
-1.571, 3.099e-5
-1.570, 3.099e-5
-1.569, 3.099e-5
-1.568, 3.099e-5
-1.567, 2.790e-5
-1.566, 2.790e-5
-1.565, 2.790e-5
-1.564, 2.790e-5
-1.563, 2.790e-5
-1.562, 2.482e-5
-1.561, 2.482e-5
-1.560, 2.482e-5
-1.559, 2.482e-5
-1.558, 2.174e-5
-1.557, 2.174e-5
-1.556, 2.174e-5
-1.555, 2.174e-5
-1.554, 1.865e-5
-1.553, 2.174e-5
-1.552, 1.865e-5
-1.551, 1.865e-5
-1.550, 1.557e-5
-1.549, 1.865e-5
-1.548, 1.557e-5
-1.547, 1.557e-5
-1.546, 1.557e-5
-1.545, 1.557e-5
-1.544, 1.249e-5
-1.543, 1.557e-5
-1.542, 1.557e-5
-1.541, 1.249e-5
-1.540, 1.249e-5
-1.539, 1.249e-5
-1.538, 1.249e-5
-1.537, 1.249e-5
-1.536, 1.249e-5
-1.535, 1.249e-5
-1.534, 9.405e-6
-1.533, 9.405e-6
-1.532, 9.405e-6
-1.531, 9.405e-6
-1.530, 9.405e-6
-1.529, 9.405e-6
-1.528, 9.405e-6
-1.527, 6.322e-6
-1.526, 9.405e-6
-1.525, 9.405e-6
-1.524, 6.322e-6
-1.523, 6.322e-6
-1.522, 6.322e-6
-1.521, 6.322e-6
-1.520, 6.322e-6
-1.519, 6.322e-6
-1.518, 6.322e-6
-1.517, 3.239e-6
-1.516, 6.322e-6
-1.515, 3.239e-6
-1.514, 6.322e-6
-1.513, 3.239e-6
-1.512, 3.239e-6
-1.511, 3.239e-6
-1.510, 3.239e-6
-1.509, 3.239e-6
-1.508, 3.239e-6
-1.507, 3.239e-6
-1.506, 3.239e-6
-1.505, 3.239e-6
-1.504, 3.239e-6
-1.503, 3.239e-6
-1.502, 3.239e-6
-1.501, 3.239e-6
-1.500, 1.559e-7
-1.499, 1.559e-7
-1.498, 1.559e-7
-1.497, 1.559e-7
-1.496, 1.559e-7
-1.495, 1.559e-7
-1.494, 1.559e-7
-1.493, 1.559e-7
-1.492, 1.559e-7
-1.491, 1.559e-7
-1.490, 1.559e-7
-1.489, 1.559e-7
-1.488, 1.559e-7
-1.487, 1.559e-7
-1.486, 1.559e-7
-1.485, 1.559e-7
-1.484, 1.559e-7
-1.483, 1.559e-7
-1.482, 1.559e-7
-1.481, 1.559e-7
-1.480, 1.559e-7
-1.479, 1.559e-7
-1.478, -2.927e-6
-1.477, 1.559e-7
-1.476, -2.927e-6
-1.475, 1.559e-7
-1.474, -2.927e-6
-1.473, 1.559e-7
-1.472, -2.927e-6
-1.471, -2.927e-6
-1.470, -2.927e-6
-1.469, -2.927e-6
-1.468, 1.559e-7
-1.467, -2.927e-6
-1.466, 1.559e-7
-1.465, -2.927e-6
-1.464, -2.927e-6
-1.463, -2.927e-6
-1.462, -2.927e-6
-1.461, -2.927e-6
-1.460, -2.927e-6
-1.459, -2.927e-6
-1.458, -2.927e-6
-1.457, -2.927e-6
-1.456, -2.927e-6
-1.455, -2.927e-6
-1.454, -2.927e-6
-1.453, -2.927e-6
-1.452, -2.927e-6
-1.451, -2.927e-6
-1.450, -2.927e-6
-1.449, -2.927e-6
-1.448, -2.927e-6
-1.447, -2.927e-6
-1.446, -2.927e-6
-1.445, -2.927e-6
-1.444, -2.927e-6
-1.443, -2.927e-6
-1.442, -2.927e-6
-1.441, -2.927e-6
-1.440, -2.927e-6
-1.439, -2.927e-6
-1.438, -6.010e-6
-1.437, -2.927e-6
-1.436, -2.927e-6
-1.435, -2.927e-6
-1.434, -6.010e-6
-1.433, -2.927e-6
-1.432, -6.010e-6
-1.431, -2.927e-6
-1.430, -6.010e-6
-1.429, -2.927e-6
-1.428, -6.010e-6
-1.427, -2.927e-6
-1.426, -6.010e-6
-1.425, -2.927e-6
-1.424, -6.010e-6
-1.423, -2.927e-6
-1.422, -6.010e-6
-1.421, -2.927e-6
-1.420, -6.010e-6
-1.419, -6.010e-6
-1.418, -6.010e-6
-1.417, -2.927e-6
-1.416, -6.010e-6
-1.415, -2.927e-6
-1.414, -6.010e-6
-1.413, -2.927e-6
-1.412, -6.010e-6
-1.411, -6.010e-6
-1.410, -2.927e-6
-1.409, -2.927e-6
-1.408, -6.010e-6
-1.407, -6.010e-6
-1.406, -6.010e-6
-1.405, -2.927e-6
-1.404, -6.010e-6
-1.403, -6.010e-6
-1.402, -2.927e-6
-1.401, -2.927e-6
-1.400, -6.010e-6
-1.399, -6.010e-6
-1.398, -6.010e-6
-1.397, -6.010e-6
-1.396, -2.927e-6
-1.395, -6.010e-6
-1.394, -2.927e-6
-1.393, -6.010e-6
-1.392, -6.010e-6
-1.391, -6.010e-6
-1.390, -2.927e-6
-1.389, -6.010e-6
-1.388, -2.927e-6
-1.387, -6.010e-6
-1.386, -6.010e-6
-1.385, -6.010e-6
-1.384, -6.010e-6
-1.383, -6.010e-6
-1.382, -6.010e-6
-1.381, -6.010e-6
-1.380, -6.010e-6
-1.379, -6.010e-6
-1.378, -6.010e-6
-1.377, -6.010e-6
-1.376, -6.010e-6
-1.375, -6.010e-6
-1.374, -6.010e-6
-1.373, -6.010e-6
-1.372, -6.010e-6
-1.371, -6.010e-6
-1.370, -6.010e-6
-1.369, -6.010e-6
-1.368, -6.010e-6
-1.367, -6.010e-6
-1.366, -6.010e-6
-1.365, -2.927e-6
-1.364, -6.010e-6
-1.363, -6.010e-6
-1.362, -6.010e-6
-1.361, -6.010e-6
-1.360, -6.010e-6
-1.359, -6.010e-6
-1.358, -6.010e-6
-1.357, -6.010e-6
-1.356, -6.010e-6
-1.355, -6.010e-6
-1.354, -6.010e-6
-1.353, -6.010e-6
-1.352, -6.010e-6
-1.351, -6.010e-6
-1.350, -6.010e-6
-1.349, -6.010e-6
-1.348, -6.010e-6
-1.347, -6.010e-6
-1.346, -6.010e-6
-1.345, -6.010e-6
-1.344, -6.010e-6
-1.343, -6.010e-6
-1.342, -6.010e-6
-1.341, -6.010e-6
-1.340, -6.010e-6
-1.339, -6.010e-6
-1.338, -6.010e-6
-1.337, -6.010e-6
-1.336, -6.010e-6
-1.335, -6.010e-6
-1.334, -6.010e-6
-1.333, -6.010e-6
-1.332, -6.010e-6
-1.331, -6.010e-6
-1.330, -6.010e-6
-1.329, -6.010e-6
-1.328, -6.010e-6
-1.327, -6.010e-6
-1.326, -6.010e-6
-1.325, -6.010e-6
-1.324, -6.010e-6
-1.323, -6.010e-6
-1.322, -6.010e-6
-1.321, -6.010e-6
-1.320, -6.010e-6
-1.319, -6.010e-6
-1.318, -6.010e-6
-1.317, -6.010e-6
-1.316, -6.010e-6
-1.315, -6.010e-6
-1.314, -6.010e-6
-1.313, -6.010e-6
-1.312, -6.010e-6
-1.311, -6.010e-6
-1.310, -6.010e-6
-1.309, -6.010e-6
-1.308, -6.010e-6
-1.307, -6.010e-6
-1.306, -6.010e-6
-1.305, -6.010e-6
-1.304, -6.010e-6
-1.303, -6.010e-6
-1.302, -6.010e-6
-1.301, -6.010e-6
-1.300, -6.010e-6
-1.299, -6.010e-6
-1.298, -6.010e-6
-1.297, -2.927e-6
-1.296, -6.010e-6
-1.295, -6.010e-6
-1.294, -6.010e-6
-1.293, -6.010e-6
-1.292, -6.010e-6
-1.291, -6.010e-6
-1.290, -6.010e-6
-1.289, -6.010e-6
-1.288, -6.010e-6
-1.287, -6.010e-6
-1.286, -6.010e-6
-1.285, -6.010e-6
-1.284, -6.010e-6
-1.283, -6.010e-6
-1.282, -6.010e-6
-1.281, -6.010e-6
-1.280, -6.010e-6
-1.279, -6.010e-6
-1.278, -6.010e-6
-1.277, -6.010e-6
-1.276, -6.010e-6
-1.275, -6.010e-6
-1.274, -6.010e-6
-1.273, -6.010e-6
-1.272, -6.010e-6
-1.271, -6.010e-6
-1.270, -6.010e-6
-1.269, -6.010e-6
-1.268, -6.010e-6
-1.267, -6.010e-6
-1.266, -6.010e-6
-1.265, -6.010e-6
-1.264, -6.010e-6
-1.263, -6.010e-6
-1.262, -6.010e-6
-1.261, -6.010e-6
-1.260, -6.010e-6
-1.259, -6.010e-6
-1.258, -6.010e-6
-1.257, -6.010e-6
-1.256, -6.010e-6
-1.255, -6.010e-6
-1.254, -6.010e-6
-1.253, -6.010e-6
-1.252, -6.010e-6
-1.251, -6.010e-6
-1.250, -6.010e-6
-1.249, -6.010e-6
-1.248, -6.010e-6
-1.247, -6.010e-6
-1.246, -6.010e-6
-1.245, -6.010e-6
-1.244, -6.010e-6
-1.243, -6.010e-6
-1.242, -6.010e-6
-1.241, -6.010e-6
-1.240, -6.010e-6
-1.239, -6.010e-6
-1.238, -6.010e-6
-1.237, -6.010e-6
-1.236, -6.010e-6
-1.235, -6.010e-6
-1.234, -6.010e-6
-1.233, -6.010e-6
-1.232, -6.010e-6
-1.231, -6.010e-6
-1.230, -6.010e-6
-1.229, -6.010e-6
-1.228, -6.010e-6
-1.227, -6.010e-6
-1.226, -6.010e-6
-1.225, -6.010e-6
-1.224, -6.010e-6
-1.223, -6.010e-6
-1.222, -6.010e-6
-1.221, -6.010e-6
-1.220, -6.010e-6
-1.219, -9.093e-6
-1.218, -6.010e-6
-1.217, -6.010e-6
-1.216, -6.010e-6
-1.215, -6.010e-6
-1.214, -6.010e-6
-1.213, -6.010e-6
-1.212, -6.010e-6
-1.211, -6.010e-6
-1.210, -6.010e-6
-1.209, -6.010e-6
-1.208, -6.010e-6
-1.207, -6.010e-6
-1.206, -6.010e-6
-1.205, -6.010e-6
-1.204, -6.010e-6
-1.203, -6.010e-6
-1.202, -6.010e-6
-1.201, -6.010e-6
-1.200, -6.010e-6
-1.199, -6.010e-6
-1.198, -6.010e-6
-1.197, -6.010e-6
-1.196, -6.010e-6
-1.195, -6.010e-6
-1.194, -6.010e-6
-1.193, -6.010e-6
-1.192, -6.010e-6
-1.191, -6.010e-6
-1.190, -6.010e-6
-1.189, -6.010e-6
-1.188, -6.010e-6
-1.187, -6.010e-6
-1.186, -6.010e-6
-1.185, -6.010e-6
-1.184, -6.010e-6
-1.183, -6.010e-6
-1.182, -6.010e-6
-1.181, -6.010e-6
-1.180, -6.010e-6
-1.179, -6.010e-6
-1.178, -6.010e-6
-1.177, -6.010e-6
-1.176, -6.010e-6
-1.175, -6.010e-6
-1.174, -6.010e-6
-1.173, -6.010e-6
-1.172, -6.010e-6
-1.171, -6.010e-6
-1.170, -6.010e-6
-1.169, -6.010e-6
-1.168, -6.010e-6
-1.167, -6.010e-6
-1.166, -9.093e-6
-1.165, -6.010e-6
-1.164, -6.010e-6
-1.163, -6.010e-6
-1.162, -6.010e-6
-1.161, -6.010e-6
-1.160, -6.010e-6
-1.159, -6.010e-6
-1.158, -6.010e-6
-1.157, -9.093e-6
-1.156, -6.010e-6
-1.155, -6.010e-6
-1.154, -6.010e-6
-1.153, -6.010e-6
-1.152, -6.010e-6
-1.151, -6.010e-6
-1.150, -6.010e-6
-1.149, -6.010e-6
-1.148, -6.010e-6
-1.147, -6.010e-6
-1.146, -6.010e-6
-1.145, -6.010e-6
-1.144, -6.010e-6
-1.143, -6.010e-6
-1.142, -6.010e-6
-1.141, -6.010e-6
-1.140, -6.010e-6
-1.139, -6.010e-6
-1.138, -6.010e-6
-1.137, -6.010e-6
-1.136, -6.010e-6
-1.135, -6.010e-6
-1.134, -6.010e-6
-1.133, -6.010e-6
-1.132, -6.010e-6
-1.131, -9.093e-6
-1.130, -6.010e-6
-1.129, -6.010e-6
-1.128, -6.010e-6
-1.127, -6.010e-6
-1.126, -9.093e-6
-1.125, -6.010e-6
-1.124, -6.010e-6
-1.123, -6.010e-6
-1.122, -6.010e-6
-1.121, -6.010e-6
-1.120, -6.010e-6
-1.119, -6.010e-6
-1.118, -6.010e-6
-1.117, -6.010e-6
-1.116, -6.010e-6
-1.115, -6.010e-6
-1.114, -6.010e-6
-1.113, -6.010e-6
-1.112, -9.093e-6
-1.111, -6.010e-6
-1.110, -6.010e-6
-1.109, -6.010e-6
-1.108, -9.093e-6
-1.107, -6.010e-6
-1.106, -6.010e-6
-1.105, -6.010e-6
-1.104, -9.093e-6
-1.103, -6.010e-6
-1.102, -6.010e-6
-1.101, -6.010e-6
-1.100, -9.093e-6
-1.099, -6.010e-6
-1.098, -6.010e-6
-1.097, -6.010e-6
-1.096, -6.010e-6
-1.095, -6.010e-6
-1.094, -6.010e-6
-1.093, -9.093e-6
-1.092, -6.010e-6
-1.091, -6.010e-6
-1.090, -6.010e-6
-1.089, -6.010e-6
-1.088, -6.010e-6
-1.087, -6.010e-6
-1.086, -6.010e-6
-1.085, -6.010e-6
-1.084, -6.010e-6
-1.083, -9.093e-6
-1.082, -6.010e-6
-1.081, -9.093e-6
-1.080, -6.010e-6
-1.079, -9.093e-6
-1.078, -6.010e-6
-1.077, -6.010e-6
-1.076, -6.010e-6
-1.075, -6.010e-6
-1.074, -6.010e-6
-1.073, -9.093e-6
-1.072, -6.010e-6
-1.071, -6.010e-6
-1.070, -6.010e-6
-1.069, -6.010e-6
-1.068, -6.010e-6
-1.067, -9.093e-6
-1.066, -6.010e-6
-1.065, -6.010e-6
-1.064, -6.010e-6
-1.063, -6.010e-6
-1.062, -6.010e-6
-1.061, -6.010e-6
-1.060, -6.010e-6
-1.059, -6.010e-6
-1.058, -9.093e-6
-1.057, -6.010e-6
-1.056, -9.093e-6
-1.055, -6.010e-6
-1.054, -6.010e-6
-1.053, -6.010e-6
-1.052, -6.010e-6
-1.051, -6.010e-6
-1.050, -9.093e-6
-1.049, -6.010e-6
-1.048, -6.010e-6
-1.047, -6.010e-6
-1.046, -6.010e-6
-1.045, -6.010e-6
-1.044, -9.093e-6
-1.043, -6.010e-6
-1.042, -6.010e-6
-1.041, -6.010e-6
-1.040, -9.093e-6
-1.039, -6.010e-6
-1.038, -6.010e-6
-1.037, -9.093e-6
-1.036, -6.010e-6
-1.035, -6.010e-6
-1.034, -9.093e-6
-1.033, -9.093e-6
-1.032, -9.093e-6
-1.031, -9.093e-6
-1.030, -9.093e-6
-1.029, -6.010e-6
-1.028, -6.010e-6
-1.027, -9.093e-6
-1.026, -6.010e-6
-1.025, -9.093e-6
-1.024, -6.010e-6
-1.023, -6.010e-6
-1.022, -6.010e-6
-1.021, -9.093e-6
-1.020, -6.010e-6
-1.019, -9.093e-6
-1.018, -6.010e-6
-1.017, -9.093e-6
-1.016, -6.010e-6
-1.015, -6.010e-6
-1.014, -9.093e-6
-1.013, -6.010e-6
-1.012, -6.010e-6
-1.011, -9.093e-6
-1.010, -6.010e-6
-1.009, -6.010e-6
-1.008, -6.010e-6
-1.007, -6.010e-6
-1.006, -9.093e-6
-1.005, -9.093e-6
-1.004, -9.093e-6
-1.003, -9.093e-6
-1.002, -6.010e-6
-1.001, -6.010e-6
