Oct. 21, 2024   06:41:15
Cyclic Voltammetry
File: c:/users/guazh/data/banditlqround3/2024-10-20-exp590\exp590-2024-10-21t06_15_28-arkoh\exp590_cv_sr_700mvs_efin_-2000mv.bin
Data Source:  Experiment
Instrument Model:  CHI760E
Header: CV ran at 700 mVs
Note: 

Init E (V) = -1
High E (V) = -1
Low E (V) = -2
Final E (V) = -1
Init P/N = N
Scan Rate (V/s) = 0.7
Segment = 3
Sample Interval (V) = 0.001
Quiet Time (sec) = 2
Sensitivity (A/V) = 0.01
Comp R (ohm) = 1.0

Results:

Channel 1:
Segment 1:
Ep = -1.368V
ip = 7.056e-6A
Ah = 7.574e-7C

Segment 2:

Segment 3:

Potential/V, Current/A

-1.000, 3.239e-6
-1.001, 3.239e-6
-1.002, 6.322e-6
-1.003, 6.322e-6
-1.004, 6.322e-6
-1.005, 6.322e-6
-1.006, 6.322e-6
-1.007, 6.322e-6
-1.008, 6.322e-6
-1.009, 6.322e-6
-1.010, 6.322e-6
-1.011, 6.322e-6
-1.012, 6.322e-6
-1.013, 6.322e-6
-1.014, 6.322e-6
-1.015, 9.405e-6
-1.016, 9.405e-6
-1.017, 9.405e-6
-1.018, 9.405e-6
-1.019, 9.405e-6
-1.020, 9.405e-6
-1.021, 9.405e-6
-1.022, 9.405e-6
-1.023, 9.405e-6
-1.024, 9.405e-6
-1.025, 9.405e-6
-1.026, 9.405e-6
-1.027, 9.405e-6
-1.028, 9.405e-6
-1.029, 9.405e-6
-1.030, 9.405e-6
-1.031, 9.405e-6
-1.032, 9.405e-6
-1.033, 9.405e-6
-1.034, 9.405e-6
-1.035, 1.249e-5
-1.036, 9.405e-6
-1.037, 1.249e-5
-1.038, 1.249e-5
-1.039, 1.249e-5
-1.040, 1.249e-5
-1.041, 9.405e-6
-1.042, 1.249e-5
-1.043, 1.249e-5
-1.044, 1.249e-5
-1.045, 1.249e-5
-1.046, 1.249e-5
-1.047, 1.249e-5
-1.048, 1.249e-5
-1.049, 1.249e-5
-1.050, 1.249e-5
-1.051, 1.249e-5
-1.052, 1.249e-5
-1.053, 1.249e-5
-1.054, 1.557e-5
-1.055, 1.249e-5
-1.056, 1.249e-5
-1.057, 1.249e-5
-1.058, 1.249e-5
-1.059, 1.249e-5
-1.060, 1.249e-5
-1.061, 1.557e-5
-1.062, 1.557e-5
-1.063, 1.557e-5
-1.064, 1.249e-5
-1.065, 1.249e-5
-1.066, 1.249e-5
-1.067, 1.557e-5
-1.068, 1.557e-5
-1.069, 1.557e-5
-1.070, 1.557e-5
-1.071, 1.557e-5
-1.072, 1.557e-5
-1.073, 1.557e-5
-1.074, 1.557e-5
-1.075, 1.557e-5
-1.076, 1.557e-5
-1.077, 1.557e-5
-1.078, 1.557e-5
-1.079, 1.557e-5
-1.080, 1.557e-5
-1.081, 1.557e-5
-1.082, 1.557e-5
-1.083, 1.557e-5
-1.084, 1.557e-5
-1.085, 1.557e-5
-1.086, 1.557e-5
-1.087, 1.557e-5
-1.088, 1.557e-5
-1.089, 1.557e-5
-1.090, 1.557e-5
-1.091, 1.557e-5
-1.092, 1.557e-5
-1.093, 1.865e-5
-1.094, 1.557e-5
-1.095, 1.865e-5
-1.096, 1.557e-5
-1.097, 1.557e-5
-1.098, 1.865e-5
-1.099, 1.557e-5
-1.100, 1.865e-5
-1.101, 1.557e-5
-1.102, 1.865e-5
-1.103, 1.865e-5
-1.104, 1.865e-5
-1.105, 1.865e-5
-1.106, 1.557e-5
-1.107, 1.865e-5
-1.108, 1.557e-5
-1.109, 1.865e-5
-1.110, 1.865e-5
-1.111, 1.865e-5
-1.112, 1.865e-5
-1.113, 1.865e-5
-1.114, 1.865e-5
-1.115, 1.865e-5
-1.116, 1.865e-5
-1.117, 1.865e-5
-1.118, 1.865e-5
-1.119, 1.865e-5
-1.120, 1.865e-5
-1.121, 1.865e-5
-1.122, 1.865e-5
-1.123, 1.865e-5
-1.124, 1.865e-5
-1.125, 1.865e-5
-1.126, 1.865e-5
-1.127, 1.865e-5
-1.128, 1.865e-5
-1.129, 1.865e-5
-1.130, 1.865e-5
-1.131, 1.865e-5
-1.132, 1.865e-5
-1.133, 1.865e-5
-1.134, 1.865e-5
-1.135, 1.865e-5
-1.136, 1.865e-5
-1.137, 1.865e-5
-1.138, 1.865e-5
-1.139, 2.174e-5
-1.140, 1.865e-5
-1.141, 1.865e-5
-1.142, 1.865e-5
-1.143, 1.865e-5
-1.144, 2.174e-5
-1.145, 1.865e-5
-1.146, 2.174e-5
-1.147, 1.865e-5
-1.148, 2.174e-5
-1.149, 2.174e-5
-1.150, 2.174e-5
-1.151, 2.174e-5
-1.152, 1.865e-5
-1.153, 2.174e-5
-1.154, 1.865e-5
-1.155, 2.174e-5
-1.156, 2.174e-5
-1.157, 2.174e-5
-1.158, 2.174e-5
-1.159, 2.174e-5
-1.160, 2.174e-5
-1.161, 2.174e-5
-1.162, 2.174e-5
-1.163, 2.174e-5
-1.164, 2.174e-5
-1.165, 2.174e-5
-1.166, 2.174e-5
-1.167, 2.174e-5
-1.168, 2.174e-5
-1.169, 2.174e-5
-1.170, 2.174e-5
-1.171, 2.174e-5
-1.172, 2.174e-5
-1.173, 2.174e-5
-1.174, 2.174e-5
-1.175, 2.174e-5
-1.176, 2.174e-5
-1.177, 2.174e-5
-1.178, 2.174e-5
-1.179, 2.174e-5
-1.180, 2.174e-5
-1.181, 2.174e-5
-1.182, 2.174e-5
-1.183, 2.174e-5
-1.184, 2.174e-5
-1.185, 2.174e-5
-1.186, 2.174e-5
-1.187, 2.174e-5
-1.188, 2.174e-5
-1.189, 2.174e-5
-1.190, 2.174e-5
-1.191, 2.174e-5
-1.192, 2.174e-5
-1.193, 2.174e-5
-1.194, 2.174e-5
-1.195, 2.174e-5
-1.196, 2.174e-5
-1.197, 2.174e-5
-1.198, 2.174e-5
-1.199, 2.174e-5
-1.200, 2.174e-5
-1.201, 2.174e-5
-1.202, 2.482e-5
-1.203, 2.174e-5
-1.204, 2.482e-5
-1.205, 2.174e-5
-1.206, 2.174e-5
-1.207, 2.174e-5
-1.208, 2.174e-5
-1.209, 2.174e-5
-1.210, 2.174e-5
-1.211, 2.482e-5
-1.212, 2.174e-5
-1.213, 2.482e-5
-1.214, 2.174e-5
-1.215, 2.174e-5
-1.216, 2.482e-5
-1.217, 2.482e-5
-1.218, 2.482e-5
-1.219, 2.174e-5
-1.220, 2.482e-5
-1.221, 2.482e-5
-1.222, 2.174e-5
-1.223, 2.482e-5
-1.224, 2.482e-5
-1.225, 2.482e-5
-1.226, 2.482e-5
-1.227, 2.482e-5
-1.228, 2.482e-5
-1.229, 2.482e-5
-1.230, 2.482e-5
-1.231, 2.482e-5
-1.232, 2.482e-5
-1.233, 2.174e-5
-1.234, 2.482e-5
-1.235, 2.482e-5
-1.236, 2.482e-5
-1.237, 2.482e-5
-1.238, 2.482e-5
-1.239, 2.482e-5
-1.240, 2.482e-5
-1.241, 2.482e-5
-1.242, 2.482e-5
-1.243, 2.482e-5
-1.244, 2.482e-5
-1.245, 2.482e-5
-1.246, 2.482e-5
-1.247, 2.482e-5
-1.248, 2.482e-5
-1.249, 2.482e-5
-1.250, 2.482e-5
-1.251, 2.482e-5
-1.252, 2.482e-5
-1.253, 2.482e-5
-1.254, 2.482e-5
-1.255, 2.482e-5
-1.256, 2.482e-5
-1.257, 2.482e-5
-1.258, 2.482e-5
-1.259, 2.482e-5
-1.260, 2.790e-5
-1.261, 2.482e-5
-1.262, 2.482e-5
-1.263, 2.482e-5
-1.264, 2.482e-5
-1.265, 2.482e-5
-1.266, 2.482e-5
-1.267, 2.482e-5
-1.268, 2.482e-5
-1.269, 2.482e-5
-1.270, 2.482e-5
-1.271, 2.482e-5
-1.272, 2.482e-5
-1.273, 2.790e-5
-1.274, 2.482e-5
-1.275, 2.482e-5
-1.276, 2.482e-5
-1.277, 2.482e-5
-1.278, 2.482e-5
-1.279, 2.482e-5
-1.280, 2.482e-5
-1.281, 2.790e-5
-1.282, 2.482e-5
-1.283, 2.790e-5
-1.284, 2.482e-5
-1.285, 2.790e-5
-1.286, 2.482e-5
-1.287, 2.482e-5
-1.288, 2.482e-5
-1.289, 2.482e-5
-1.290, 2.790e-5
-1.291, 2.482e-5
-1.292, 2.482e-5
-1.293, 2.790e-5
-1.294, 2.790e-5
-1.295, 2.790e-5
-1.296, 2.790e-5
-1.297, 2.790e-5
-1.298, 2.790e-5
-1.299, 2.790e-5
-1.300, 2.482e-5
-1.301, 2.790e-5
-1.302, 2.790e-5
-1.303, 2.790e-5
-1.304, 2.790e-5
-1.305, 2.790e-5
-1.306, 2.790e-5
-1.307, 2.790e-5
-1.308, 2.790e-5
-1.309, 2.790e-5
-1.310, 2.790e-5
-1.311, 2.790e-5
-1.312, 2.790e-5
-1.313, 2.790e-5
-1.314, 2.790e-5
-1.315, 2.790e-5
-1.316, 2.790e-5
-1.317, 2.790e-5
-1.318, 2.790e-5
-1.319, 2.790e-5
-1.320, 2.790e-5
-1.321, 2.790e-5
-1.322, 2.790e-5
-1.323, 2.790e-5
-1.324, 2.790e-5
-1.325, 2.790e-5
-1.326, 2.790e-5
-1.327, 2.790e-5
-1.328, 2.790e-5
-1.329, 2.790e-5
-1.330, 2.790e-5
-1.331, 2.790e-5
-1.332, 2.790e-5
-1.333, 2.790e-5
-1.334, 2.790e-5
-1.335, 2.790e-5
-1.336, 2.790e-5
-1.337, 2.790e-5
-1.338, 2.790e-5
-1.339, 2.790e-5
-1.340, 2.790e-5
-1.341, 2.790e-5
-1.342, 2.790e-5
-1.343, 2.790e-5
-1.344, 2.790e-5
-1.345, 2.790e-5
-1.346, 2.790e-5
-1.347, 2.790e-5
-1.348, 2.790e-5
-1.349, 2.790e-5
-1.350, 2.790e-5
-1.351, 2.790e-5
-1.352, 2.790e-5
-1.353, 2.790e-5
-1.354, 2.790e-5
-1.355, 2.790e-5
-1.356, 2.790e-5
-1.357, 2.790e-5
-1.358, 2.790e-5
-1.359, 2.790e-5
-1.360, 2.790e-5
-1.361, 2.790e-5
-1.362, 2.790e-5
-1.363, 2.790e-5
-1.364, 2.790e-5
-1.365, 2.790e-5
-1.366, 2.790e-5
-1.367, 2.790e-5
-1.368, 3.099e-5
-1.369, 2.790e-5
-1.370, 2.790e-5
-1.371, 2.790e-5
-1.372, 2.790e-5
-1.373, 2.790e-5
-1.374, 2.790e-5
-1.375, 2.790e-5
-1.376, 2.790e-5
-1.377, 3.099e-5
-1.378, 2.790e-5
-1.379, 3.099e-5
-1.380, 2.790e-5
-1.381, 2.790e-5
-1.382, 3.099e-5
-1.383, 2.790e-5
-1.384, 2.790e-5
-1.385, 2.790e-5
-1.386, 2.790e-5
-1.387, 2.790e-5
-1.388, 2.790e-5
-1.389, 3.099e-5
-1.390, 2.790e-5
-1.391, 3.099e-5
-1.392, 3.099e-5
-1.393, 3.099e-5
-1.394, 3.099e-5
-1.395, 3.099e-5
-1.396, 3.099e-5
-1.397, 3.099e-5
-1.398, 3.099e-5
-1.399, 2.790e-5
-1.400, 3.099e-5
-1.401, 3.099e-5
-1.402, 3.099e-5
-1.403, 2.790e-5
-1.404, 3.099e-5
-1.405, 3.099e-5
-1.406, 3.099e-5
-1.407, 3.099e-5
-1.408, 2.790e-5
-1.409, 2.790e-5
-1.410, 2.790e-5
-1.411, 3.099e-5
-1.412, 3.099e-5
-1.413, 2.790e-5
-1.414, 3.099e-5
-1.415, 3.099e-5
-1.416, 3.099e-5
-1.417, 3.099e-5
-1.418, 3.099e-5
-1.419, 3.099e-5
-1.420, 3.099e-5
-1.421, 3.099e-5
-1.422, 3.099e-5
-1.423, 3.099e-5
-1.424, 3.099e-5
-1.425, 3.099e-5
-1.426, 3.099e-5
-1.427, 3.099e-5
-1.428, 3.099e-5
-1.429, 3.099e-5
-1.430, 3.099e-5
-1.431, 2.790e-5
-1.432, 3.099e-5
-1.433, 3.099e-5
-1.434, 3.099e-5
-1.435, 3.099e-5
-1.436, 3.099e-5
-1.437, 3.099e-5
-1.438, 3.099e-5
-1.439, 3.099e-5
-1.440, 3.099e-5
-1.441, 3.099e-5
-1.442, 3.099e-5
-1.443, 3.099e-5
-1.444, 3.099e-5
-1.445, 3.099e-5
-1.446, 3.099e-5
-1.447, 3.099e-5
-1.448, 3.099e-5
-1.449, 3.099e-5
-1.450, 3.099e-5
-1.451, 3.099e-5
-1.452, 3.099e-5
-1.453, 3.099e-5
-1.454, 3.099e-5
-1.455, 3.099e-5
-1.456, 3.099e-5
-1.457, 3.099e-5
-1.458, 3.099e-5
-1.459, 3.099e-5
-1.460, 3.099e-5
-1.461, 3.099e-5
-1.462, 3.099e-5
-1.463, 3.099e-5
-1.464, 3.099e-5
-1.465, 3.099e-5
-1.466, 3.099e-5
-1.467, 3.099e-5
-1.468, 3.099e-5
-1.469, 3.099e-5
-1.470, 3.099e-5
-1.471, 3.099e-5
-1.472, 3.407e-5
-1.473, 3.099e-5
-1.474, 3.099e-5
-1.475, 3.099e-5
-1.476, 3.099e-5
-1.477, 3.407e-5
-1.478, 3.099e-5
-1.479, 3.099e-5
-1.480, 3.099e-5
-1.481, 3.099e-5
-1.482, 3.099e-5
-1.483, 3.099e-5
-1.484, 3.099e-5
-1.485, 3.099e-5
-1.486, 3.407e-5
-1.487, 3.099e-5
-1.488, 3.407e-5
-1.489, 3.099e-5
-1.490, 3.099e-5
-1.491, 3.099e-5
-1.492, 3.099e-5
-1.493, 3.099e-5
-1.494, 3.099e-5
-1.495, 3.099e-5
-1.496, 3.099e-5
-1.497, 3.099e-5
-1.498, 3.099e-5
-1.499, 3.407e-5
-1.500, 3.407e-5
-1.501, 3.099e-5
-1.502, 3.407e-5
-1.503, 3.407e-5
-1.504, 3.407e-5
-1.505, 3.407e-5
-1.506, 3.407e-5
-1.507, 3.407e-5
-1.508, 3.099e-5
-1.509, 3.099e-5
-1.510, 3.407e-5
-1.511, 3.407e-5
-1.512, 3.407e-5
-1.513, 3.407e-5
-1.514, 3.407e-5
-1.515, 3.407e-5
-1.516, 3.407e-5
-1.517, 3.407e-5
-1.518, 3.407e-5
-1.519, 3.407e-5
-1.520, 3.407e-5
-1.521, 3.407e-5
-1.522, 3.407e-5
-1.523, 3.407e-5
-1.524, 3.407e-5
-1.525, 3.407e-5
-1.526, 3.407e-5
-1.527, 3.407e-5
-1.528, 3.407e-5
-1.529, 3.407e-5
-1.530, 3.407e-5
-1.531, 3.407e-5
-1.532, 3.407e-5
-1.533, 3.407e-5
-1.534, 3.407e-5
-1.535, 3.407e-5
-1.536, 3.407e-5
-1.537, 3.407e-5
-1.538, 3.407e-5
-1.539, 3.407e-5
-1.540, 3.407e-5
-1.541, 3.407e-5
-1.542, 3.407e-5
-1.543, 3.407e-5
-1.544, 3.407e-5
-1.545, 3.407e-5
-1.546, 3.407e-5
-1.547, 3.407e-5
-1.548, 3.407e-5
-1.549, 3.407e-5
-1.550, 3.715e-5
-1.551, 3.407e-5
-1.552, 3.407e-5
-1.553, 3.407e-5
-1.554, 3.407e-5
-1.555, 3.407e-5
-1.556, 3.407e-5
-1.557, 3.407e-5
-1.558, 3.407e-5
-1.559, 3.407e-5
-1.560, 3.407e-5
-1.561, 3.407e-5
-1.562, 3.715e-5
-1.563, 3.715e-5
-1.564, 3.715e-5
-1.565, 3.407e-5
-1.566, 3.407e-5
-1.567, 3.407e-5
-1.568, 3.407e-5
-1.569, 3.715e-5
-1.570, 3.715e-5
-1.571, 3.715e-5
-1.572, 3.715e-5
-1.573, 3.715e-5
-1.574, 3.715e-5
-1.575, 3.715e-5
-1.576, 3.715e-5
-1.577, 3.715e-5
-1.578, 3.715e-5
-1.579, 3.715e-5
-1.580, 3.715e-5
-1.581, 3.715e-5
-1.582, 3.715e-5
-1.583, 3.715e-5
-1.584, 3.715e-5
-1.585, 3.715e-5
-1.586, 3.715e-5
-1.587, 3.715e-5
-1.588, 3.715e-5
-1.589, 3.715e-5
-1.590, 3.715e-5
-1.591, 3.715e-5
-1.592, 4.024e-5
-1.593, 3.715e-5
-1.594, 3.715e-5
-1.595, 3.715e-5
-1.596, 4.024e-5
-1.597, 3.715e-5
-1.598, 4.024e-5
-1.599, 4.024e-5
-1.600, 4.024e-5
-1.601, 4.024e-5
-1.602, 3.715e-5
-1.603, 4.024e-5
-1.604, 4.024e-5
-1.605, 4.024e-5
-1.606, 4.024e-5
-1.607, 4.024e-5
-1.608, 4.024e-5
-1.609, 4.024e-5
-1.610, 4.024e-5
-1.611, 4.024e-5
-1.612, 4.024e-5
-1.613, 4.024e-5
-1.614, 4.024e-5
-1.615, 4.024e-5
-1.616, 4.024e-5
-1.617, 4.332e-5
-1.618, 4.024e-5
-1.619, 4.024e-5
-1.620, 4.024e-5
-1.621, 4.024e-5
-1.622, 4.332e-5
-1.623, 4.332e-5
-1.624, 4.332e-5
-1.625, 4.024e-5
-1.626, 4.332e-5
-1.627, 4.332e-5
-1.628, 4.332e-5
-1.629, 4.332e-5
-1.630, 4.332e-5
-1.631, 4.332e-5
-1.632, 4.332e-5
-1.633, 4.640e-5
-1.634, 4.640e-5
-1.635, 4.332e-5
-1.636, 4.640e-5
-1.637, 4.640e-5
-1.638, 4.640e-5
-1.639, 4.640e-5
-1.640, 4.640e-5
-1.641, 4.640e-5
-1.642, 4.640e-5
-1.643, 4.640e-5
-1.644, 4.640e-5
-1.645, 4.640e-5
-1.646, 4.640e-5
-1.647, 4.640e-5
-1.648, 4.949e-5
-1.649, 4.949e-5
-1.650, 4.640e-5
-1.651, 4.949e-5
-1.652, 4.949e-5
-1.653, 4.949e-5
-1.654, 4.949e-5
-1.655, 4.949e-5
-1.656, 4.949e-5
-1.657, 4.949e-5
-1.658, 4.949e-5
-1.659, 4.949e-5
-1.660, 5.257e-5
-1.661, 5.257e-5
-1.662, 5.257e-5
-1.663, 5.257e-5
-1.664, 5.257e-5
-1.665, 5.257e-5
-1.666, 5.257e-5
-1.667, 5.257e-5
-1.668, 5.565e-5
-1.669, 5.565e-5
-1.670, 5.565e-5
-1.671, 5.565e-5
-1.672, 5.565e-5
-1.673, 5.565e-5
-1.674, 5.565e-5
-1.675, 5.565e-5
-1.676, 5.565e-5
-1.677, 5.873e-5
-1.678, 5.565e-5
-1.679, 5.873e-5
-1.680, 5.873e-5
-1.681, 5.873e-5
-1.682, 6.182e-5
-1.683, 5.873e-5
-1.684, 6.182e-5
-1.685, 6.182e-5
-1.686, 6.182e-5
-1.687, 6.182e-5
-1.688, 6.182e-5
-1.689, 6.490e-5
-1.690, 6.490e-5
-1.691, 6.490e-5
-1.692, 6.490e-5
-1.693, 6.490e-5
-1.694, 6.798e-5
-1.695, 6.798e-5
-1.696, 6.798e-5
-1.697, 6.798e-5
-1.698, 7.107e-5
-1.699, 7.107e-5
-1.700, 7.107e-5
-1.701, 7.107e-5
-1.702, 7.107e-5
-1.703, 7.415e-5
-1.704, 7.415e-5
-1.705, 7.415e-5
-1.706, 7.723e-5
-1.707, 7.415e-5
-1.708, 7.723e-5
-1.709, 7.723e-5
-1.710, 7.723e-5
-1.711, 8.032e-5
-1.712, 8.032e-5
-1.713, 8.032e-5
-1.714, 8.340e-5
-1.715, 8.340e-5
-1.716, 8.340e-5
-1.717, 8.340e-5
-1.718, 8.648e-5
-1.719, 8.648e-5
-1.720, 8.648e-5
-1.721, 8.648e-5
-1.722, 8.957e-5
-1.723, 8.957e-5
-1.724, 8.957e-5
-1.725, 9.265e-5
-1.726, 9.265e-5
-1.727, 9.265e-5
-1.728, 9.573e-5
-1.729, 9.573e-5
-1.730, 9.573e-5
-1.731, 9.573e-5
-1.732, 9.882e-5
-1.733, 9.882e-5
-1.734, 1.019e-4
-1.735, 1.019e-4
-1.736, 1.019e-4
-1.737, 1.050e-4
-1.738, 1.050e-4
-1.739, 1.050e-4
-1.740, 1.050e-4
-1.741, 1.081e-4
-1.742, 1.081e-4
-1.743, 1.081e-4
-1.744, 1.111e-4
-1.745, 1.111e-4
-1.746, 1.111e-4
-1.747, 1.111e-4
-1.748, 1.142e-4
-1.749, 1.142e-4
-1.750, 1.173e-4
-1.751, 1.173e-4
-1.752, 1.173e-4
-1.753, 1.204e-4
-1.754, 1.204e-4
-1.755, 1.235e-4
-1.756, 1.204e-4
-1.757, 1.235e-4
-1.758, 1.235e-4
-1.759, 1.266e-4
-1.760, 1.266e-4
-1.761, 1.266e-4
-1.762, 1.296e-4
-1.763, 1.296e-4
-1.764, 1.327e-4
-1.765, 1.327e-4
-1.766, 1.327e-4
-1.767, 1.358e-4
-1.768, 1.358e-4
-1.769, 1.389e-4
-1.770, 1.389e-4
-1.771, 1.389e-4
-1.772, 1.420e-4
-1.773, 1.420e-4
-1.774, 1.451e-4
-1.775, 1.451e-4
-1.776, 1.481e-4
-1.777, 1.481e-4
-1.778, 1.481e-4
-1.779, 1.512e-4
-1.780, 1.512e-4
-1.781, 1.512e-4
-1.782, 1.543e-4
-1.783, 1.543e-4
-1.784, 1.574e-4
-1.785, 1.605e-4
-1.786, 1.605e-4
-1.787, 1.605e-4
-1.788, 1.636e-4
-1.789, 1.636e-4
-1.790, 1.666e-4
-1.791, 1.697e-4
-1.792, 1.728e-4
-1.793, 1.728e-4
-1.794, 1.759e-4
-1.795, 1.759e-4
-1.796, 1.790e-4
-1.797, 1.821e-4
-1.798, 1.821e-4
-1.799, 1.851e-4
-1.800, 1.851e-4
-1.801, 1.882e-4
-1.802, 1.882e-4
-1.803, 1.913e-4
-1.804, 1.944e-4
-1.805, 1.944e-4
-1.806, 1.975e-4
-1.807, 1.975e-4
-1.808, 2.006e-4
-1.809, 2.036e-4
-1.810, 2.036e-4
-1.811, 2.067e-4
-1.812, 2.098e-4
-1.813, 2.129e-4
-1.814, 2.129e-4
-1.815, 2.160e-4
-1.816, 2.160e-4
-1.817, 2.191e-4
-1.818, 2.221e-4
-1.819, 2.252e-4
-1.820, 2.283e-4
-1.821, 2.314e-4
-1.822, 2.345e-4
-1.823, 2.345e-4
-1.824, 2.376e-4
-1.825, 2.406e-4
-1.826, 2.437e-4
-1.827, 2.468e-4
-1.828, 2.468e-4
-1.829, 2.530e-4
-1.830, 2.530e-4
-1.831, 2.591e-4
-1.832, 2.622e-4
-1.833, 2.622e-4
-1.834, 2.684e-4
-1.835, 2.715e-4
-1.836, 2.746e-4
-1.837, 2.776e-4
-1.838, 2.807e-4
-1.839, 2.838e-4
-1.840, 2.869e-4
-1.841, 2.900e-4
-1.842, 2.931e-4
-1.843, 2.992e-4
-1.844, 3.023e-4
-1.845, 3.085e-4
-1.846, 3.085e-4
-1.847, 3.146e-4
-1.848, 3.177e-4
-1.849, 3.208e-4
-1.850, 3.239e-4
-1.851, 3.270e-4
-1.852, 3.300e-4
-1.853, 3.362e-4
-1.854, 3.424e-4
-1.855, 3.455e-4
-1.856, 3.516e-4
-1.857, 3.547e-4
-1.858, 3.609e-4
-1.859, 3.670e-4
-1.860, 3.701e-4
-1.861, 3.763e-4
-1.862, 3.794e-4
-1.863, 3.855e-4
-1.864, 3.886e-4
-1.865, 3.948e-4
-1.866, 4.010e-4
-1.867, 4.071e-4
-1.868, 4.133e-4
-1.869, 4.164e-4
-1.870, 4.225e-4
-1.871, 4.287e-4
-1.872, 4.349e-4
-1.873, 4.410e-4
-1.874, 4.472e-4
-1.875, 4.534e-4
-1.876, 4.595e-4
-1.877, 4.657e-4
-1.878, 4.719e-4
-1.879, 4.780e-4
-1.880, 4.842e-4
-1.881, 4.904e-4
-1.882, 4.965e-4
-1.883, 5.058e-4
-1.884, 5.089e-4
-1.885, 5.181e-4
-1.886, 5.212e-4
-1.887, 5.305e-4
-1.888, 5.366e-4
-1.889, 5.459e-4
-1.890, 5.520e-4
-1.891, 5.613e-4
-1.892, 5.674e-4
-1.893, 5.767e-4
-1.894, 5.859e-4
-1.895, 5.921e-4
-1.896, 6.014e-4
-1.897, 6.075e-4
-1.898, 6.168e-4
-1.899, 6.260e-4
-1.900, 6.353e-4
-1.901, 6.445e-4
-1.902, 6.538e-4
-1.903, 6.661e-4
-1.904, 6.723e-4
-1.905, 6.846e-4
-1.906, 6.939e-4
-1.907, 7.031e-4
-1.908, 7.154e-4
-1.909, 7.247e-4
-1.910, 7.370e-4
-1.911, 7.494e-4
-1.912, 7.617e-4
-1.913, 7.740e-4
-1.914, 7.863e-4
-1.915, 7.987e-4
-1.916, 8.110e-4
-1.917, 8.233e-4
-1.918, 8.357e-4
-1.919, 8.480e-4
-1.920, 8.603e-4
-1.921, 8.727e-4
-1.922, 8.881e-4
-1.923, 9.004e-4
-1.924, 9.158e-4
-1.925, 9.282e-4
-1.926, 9.467e-4
-1.927, 9.590e-4
-1.928, 9.744e-4
-1.929, 9.898e-4
-1.930, 1.005e-3
-1.931, 1.021e-3
-1.932, 1.036e-3
-1.933, 1.051e-3
-1.934, 1.070e-3
-1.935, 1.085e-3
-1.936, 1.101e-3
-1.937, 1.119e-3
-1.938, 1.138e-3
-1.939, 1.156e-3
-1.940, 1.175e-3
-1.941, 1.190e-3
-1.942, 1.209e-3
-1.943, 1.227e-3
-1.944, 1.246e-3
-1.945, 1.264e-3
-1.946, 1.286e-3
-1.947, 1.304e-3
-1.948, 1.326e-3
-1.949, 1.351e-3
-1.950, 1.369e-3
-1.951, 1.391e-3
-1.952, 1.412e-3
-1.953, 1.434e-3
-1.954, 1.458e-3
-1.955, 1.480e-3
-1.956, 1.502e-3
-1.957, 1.523e-3
-1.958, 1.548e-3
-1.959, 1.573e-3
-1.960, 1.597e-3
-1.961, 1.625e-3
-1.962, 1.650e-3
-1.963, 1.677e-3
-1.964, 1.705e-3
-1.965, 1.733e-3
-1.966, 1.754e-3
-1.967, 1.785e-3
-1.968, 1.810e-3
-1.969, 1.838e-3
-1.970, 1.865e-3
-1.971, 1.899e-3
-1.972, 1.930e-3
-1.973, 1.961e-3
-1.974, 1.992e-3
-1.975, 2.020e-3
-1.976, 2.050e-3
-1.977, 2.084e-3
-1.978, 2.115e-3
-1.979, 2.146e-3
-1.980, 2.180e-3
-1.981, 2.214e-3
-1.982, 2.251e-3
-1.983, 2.288e-3
-1.984, 2.322e-3
-1.985, 2.359e-3
-1.986, 2.393e-3
-1.987, 2.427e-3
-1.988, 2.460e-3
-1.989, 2.497e-3
-1.990, 2.534e-3
-1.991, 2.571e-3
-1.992, 2.608e-3
-1.993, 2.649e-3
-1.994, 2.689e-3
-1.995, 2.729e-3
-1.996, 2.772e-3
-1.997, 2.812e-3
-1.998, 2.852e-3
-1.999, 2.895e-3
-2.000, 2.904e-3
-1.999, 2.877e-3
-1.998, 2.852e-3
-1.997, 2.818e-3
-1.996, 2.793e-3
-1.995, 2.766e-3
-1.994, 2.738e-3
-1.993, 2.707e-3
-1.992, 2.679e-3
-1.991, 2.655e-3
-1.990, 2.627e-3
-1.989, 2.602e-3
-1.988, 2.571e-3
-1.987, 2.541e-3
-1.986, 2.510e-3
-1.985, 2.482e-3
-1.984, 2.457e-3
-1.983, 2.430e-3
-1.982, 2.402e-3
-1.981, 2.374e-3
-1.980, 2.349e-3
-1.979, 2.322e-3
-1.978, 2.297e-3
-1.977, 2.269e-3
-1.976, 2.245e-3
-1.975, 2.214e-3
-1.974, 2.186e-3
-1.973, 2.161e-3
-1.972, 2.134e-3
-1.971, 2.112e-3
-1.970, 2.091e-3
-1.969, 2.066e-3
-1.968, 2.041e-3
-1.967, 2.023e-3
-1.966, 1.998e-3
-1.965, 1.973e-3
-1.964, 1.952e-3
-1.963, 1.927e-3
-1.962, 1.902e-3
-1.961, 1.881e-3
-1.960, 1.859e-3
-1.959, 1.838e-3
-1.958, 1.819e-3
-1.957, 1.801e-3
-1.956, 1.779e-3
-1.955, 1.758e-3
-1.954, 1.736e-3
-1.953, 1.714e-3
-1.952, 1.693e-3
-1.951, 1.674e-3
-1.950, 1.656e-3
-1.949, 1.637e-3
-1.948, 1.619e-3
-1.947, 1.597e-3
-1.946, 1.582e-3
-1.945, 1.563e-3
-1.944, 1.542e-3
-1.943, 1.526e-3
-1.942, 1.508e-3
-1.941, 1.489e-3
-1.940, 1.468e-3
-1.939, 1.449e-3
-1.938, 1.434e-3
-1.937, 1.415e-3
-1.936, 1.400e-3
-1.935, 1.381e-3
-1.934, 1.366e-3
-1.933, 1.347e-3
-1.932, 1.332e-3
-1.931, 1.317e-3
-1.930, 1.298e-3
-1.929, 1.283e-3
-1.928, 1.264e-3
-1.927, 1.249e-3
-1.926, 1.233e-3
-1.925, 1.218e-3
-1.924, 1.203e-3
-1.923, 1.187e-3
-1.922, 1.172e-3
-1.921, 1.156e-3
-1.920, 1.144e-3
-1.919, 1.129e-3
-1.918, 1.113e-3
-1.917, 1.098e-3
-1.916, 1.085e-3
-1.915, 1.070e-3
-1.914, 1.058e-3
-1.913, 1.045e-3
-1.912, 1.033e-3
-1.911, 1.021e-3
-1.910, 1.008e-3
-1.909, 9.960e-4
-1.908, 9.806e-4
-1.907, 9.683e-4
-1.906, 9.559e-4
-1.905, 9.436e-4
-1.904, 9.313e-4
-1.903, 9.189e-4
-1.902, 9.097e-4
-1.901, 8.973e-4
-1.900, 8.850e-4
-1.899, 8.727e-4
-1.898, 8.634e-4
-1.897, 8.511e-4
-1.896, 8.388e-4
-1.895, 8.295e-4
-1.894, 8.172e-4
-1.893, 8.079e-4
-1.892, 7.956e-4
-1.891, 7.833e-4
-1.890, 7.740e-4
-1.889, 7.648e-4
-1.888, 7.555e-4
-1.887, 7.463e-4
-1.886, 7.370e-4
-1.885, 7.278e-4
-1.884, 7.154e-4
-1.883, 7.062e-4
-1.882, 6.969e-4
-1.881, 6.877e-4
-1.880, 6.784e-4
-1.879, 6.692e-4
-1.878, 6.630e-4
-1.877, 6.538e-4
-1.876, 6.445e-4
-1.875, 6.353e-4
-1.874, 6.291e-4
-1.873, 6.199e-4
-1.872, 6.106e-4
-1.871, 6.044e-4
-1.870, 5.952e-4
-1.869, 5.890e-4
-1.868, 5.798e-4
-1.867, 5.736e-4
-1.866, 5.644e-4
-1.865, 5.582e-4
-1.864, 5.489e-4
-1.863, 5.428e-4
-1.862, 5.366e-4
-1.861, 5.274e-4
-1.860, 5.212e-4
-1.859, 5.150e-4
-1.858, 5.089e-4
-1.857, 4.996e-4
-1.856, 4.935e-4
-1.855, 4.873e-4
-1.854, 4.811e-4
-1.853, 4.750e-4
-1.852, 4.688e-4
-1.851, 4.626e-4
-1.850, 4.534e-4
-1.849, 4.503e-4
-1.848, 4.441e-4
-1.847, 4.380e-4
-1.846, 4.318e-4
-1.845, 4.256e-4
-1.844, 4.195e-4
-1.843, 4.133e-4
-1.842, 4.102e-4
-1.841, 4.040e-4
-1.840, 4.010e-4
-1.839, 3.948e-4
-1.838, 3.886e-4
-1.837, 3.825e-4
-1.836, 3.794e-4
-1.835, 3.732e-4
-1.834, 3.670e-4
-1.833, 3.609e-4
-1.832, 3.578e-4
-1.831, 3.516e-4
-1.830, 3.485e-4
-1.829, 3.455e-4
-1.828, 3.393e-4
-1.827, 3.331e-4
-1.826, 3.300e-4
-1.825, 3.239e-4
-1.824, 3.208e-4
-1.823, 3.146e-4
-1.822, 3.085e-4
-1.821, 3.054e-4
-1.820, 3.023e-4
-1.819, 2.961e-4
-1.818, 2.931e-4
-1.817, 2.900e-4
-1.816, 2.869e-4
-1.815, 2.807e-4
-1.814, 2.776e-4
-1.813, 2.746e-4
-1.812, 2.684e-4
-1.811, 2.653e-4
-1.810, 2.622e-4
-1.809, 2.561e-4
-1.808, 2.530e-4
-1.807, 2.499e-4
-1.806, 2.468e-4
-1.805, 2.437e-4
-1.804, 2.406e-4
-1.803, 2.376e-4
-1.802, 2.345e-4
-1.801, 2.314e-4
-1.800, 2.283e-4
-1.799, 2.252e-4
-1.798, 2.221e-4
-1.797, 2.191e-4
-1.796, 2.160e-4
-1.795, 2.129e-4
-1.794, 2.098e-4
-1.793, 2.067e-4
-1.792, 2.036e-4
-1.791, 2.006e-4
-1.790, 1.975e-4
-1.789, 1.944e-4
-1.788, 1.944e-4
-1.787, 1.913e-4
-1.786, 1.882e-4
-1.785, 1.851e-4
-1.784, 1.821e-4
-1.783, 1.821e-4
-1.782, 1.790e-4
-1.781, 1.759e-4
-1.780, 1.728e-4
-1.779, 1.697e-4
-1.778, 1.666e-4
-1.777, 1.666e-4
-1.776, 1.636e-4
-1.775, 1.605e-4
-1.774, 1.574e-4
-1.773, 1.574e-4
-1.772, 1.543e-4
-1.771, 1.512e-4
-1.770, 1.512e-4
-1.769, 1.481e-4
-1.768, 1.451e-4
-1.767, 1.420e-4
-1.766, 1.420e-4
-1.765, 1.389e-4
-1.764, 1.358e-4
-1.763, 1.358e-4
-1.762, 1.327e-4
-1.761, 1.296e-4
-1.760, 1.296e-4
-1.759, 1.266e-4
-1.758, 1.235e-4
-1.757, 1.235e-4
-1.756, 1.235e-4
-1.755, 1.204e-4
-1.754, 1.173e-4
-1.753, 1.173e-4
-1.752, 1.142e-4
-1.751, 1.142e-4
-1.750, 1.111e-4
-1.749, 1.111e-4
-1.748, 1.111e-4
-1.747, 1.081e-4
-1.746, 1.081e-4
-1.745, 1.050e-4
-1.744, 1.019e-4
-1.743, 1.019e-4
-1.742, 9.882e-5
-1.741, 9.882e-5
-1.740, 9.573e-5
-1.739, 9.573e-5
-1.738, 9.573e-5
-1.737, 9.265e-5
-1.736, 9.265e-5
-1.735, 8.957e-5
-1.734, 8.957e-5
-1.733, 8.957e-5
-1.732, 8.648e-5
-1.731, 8.648e-5
-1.730, 8.340e-5
-1.729, 8.340e-5
-1.728, 8.032e-5
-1.727, 8.032e-5
-1.726, 8.032e-5
-1.725, 8.032e-5
-1.724, 7.723e-5
-1.723, 7.723e-5
-1.722, 7.415e-5
-1.721, 7.415e-5
-1.720, 7.415e-5
-1.719, 7.107e-5
-1.718, 7.107e-5
-1.717, 6.798e-5
-1.716, 6.798e-5
-1.715, 6.798e-5
-1.714, 6.798e-5
-1.713, 6.490e-5
-1.712, 6.490e-5
-1.711, 6.490e-5
-1.710, 6.182e-5
-1.709, 6.182e-5
-1.708, 5.873e-5
-1.707, 5.873e-5
-1.706, 5.873e-5
-1.705, 5.873e-5
-1.704, 5.565e-5
-1.703, 5.565e-5
-1.702, 5.565e-5
-1.701, 5.257e-5
-1.700, 5.257e-5
-1.699, 5.257e-5
-1.698, 5.257e-5
-1.697, 4.949e-5
-1.696, 4.949e-5
-1.695, 4.949e-5
-1.694, 4.949e-5
-1.693, 4.640e-5
-1.692, 4.640e-5
-1.691, 4.640e-5
-1.690, 4.640e-5
-1.689, 4.332e-5
-1.688, 4.332e-5
-1.687, 4.332e-5
-1.686, 4.332e-5
-1.685, 4.024e-5
-1.684, 4.024e-5
-1.683, 4.024e-5
-1.682, 4.024e-5
-1.681, 4.024e-5
-1.680, 3.715e-5
-1.679, 3.715e-5
-1.678, 3.715e-5
-1.677, 3.715e-5
-1.676, 3.715e-5
-1.675, 3.407e-5
-1.674, 3.407e-5
-1.673, 3.407e-5
-1.672, 3.407e-5
-1.671, 3.099e-5
-1.670, 3.099e-5
-1.669, 3.099e-5
-1.668, 3.099e-5
-1.667, 3.099e-5
-1.666, 3.099e-5
-1.665, 3.099e-5
-1.664, 2.790e-5
-1.663, 2.790e-5
-1.662, 2.790e-5
-1.661, 2.790e-5
-1.660, 2.790e-5
-1.659, 2.482e-5
-1.658, 2.482e-5
-1.657, 2.482e-5
-1.656, 2.482e-5
-1.655, 2.482e-5
-1.654, 2.482e-5
-1.653, 2.482e-5
-1.652, 2.482e-5
-1.651, 2.482e-5
-1.650, 2.174e-5
-1.649, 2.174e-5
-1.648, 1.865e-5
-1.647, 2.174e-5
-1.646, 1.865e-5
-1.645, 1.865e-5
-1.644, 2.174e-5
-1.643, 1.865e-5
-1.642, 1.865e-5
-1.641, 1.865e-5
-1.640, 1.865e-5
-1.639, 1.865e-5
-1.638, 1.865e-5
-1.637, 1.557e-5
-1.636, 1.557e-5
-1.635, 1.557e-5
-1.634, 1.249e-5
-1.633, 1.557e-5
-1.632, 1.557e-5
-1.631, 1.249e-5
-1.630, 1.557e-5
-1.629, 1.249e-5
-1.628, 1.249e-5
-1.627, 1.249e-5
-1.626, 1.249e-5
-1.625, 1.249e-5
-1.624, 9.405e-6
-1.623, 1.249e-5
-1.622, 9.405e-6
-1.621, 9.405e-6
-1.620, 9.405e-6
-1.619, 1.249e-5
-1.618, 9.405e-6
-1.617, 9.405e-6
-1.616, 9.405e-6
-1.615, 9.405e-6
-1.614, 9.405e-6
-1.613, 9.405e-6
-1.612, 6.322e-6
-1.611, 6.322e-6
-1.610, 6.322e-6
-1.609, 6.322e-6
-1.608, 6.322e-6
-1.607, 6.322e-6
-1.606, 6.322e-6
-1.605, 6.322e-6
-1.604, 6.322e-6
-1.603, 6.322e-6
-1.602, 6.322e-6
-1.601, 3.239e-6
-1.600, 3.239e-6
-1.599, 6.322e-6
-1.598, 6.322e-6
-1.597, 3.239e-6
-1.596, 6.322e-6
-1.595, 3.239e-6
-1.594, 3.239e-6
-1.593, 3.239e-6
-1.592, 3.239e-6
-1.591, 3.239e-6
-1.590, 3.239e-6
-1.589, 3.239e-6
-1.588, 1.559e-7
-1.587, 3.239e-6
-1.586, 1.559e-7
-1.585, 3.239e-6
-1.584, 3.239e-6
-1.583, 1.559e-7
-1.582, 1.559e-7
-1.581, 1.559e-7
-1.580, 1.559e-7
-1.579, 1.559e-7
-1.578, 1.559e-7
-1.577, 1.559e-7
-1.576, 1.559e-7
-1.575, 1.559e-7
-1.574, 1.559e-7
-1.573, 1.559e-7
-1.572, 1.559e-7
-1.571, 1.559e-7
-1.570, 1.559e-7
-1.569, -2.927e-6
-1.568, 1.559e-7
-1.567, -2.927e-6
-1.566, -2.927e-6
-1.565, -2.927e-6
-1.564, -2.927e-6
-1.563, -2.927e-6
-1.562, 1.559e-7
-1.561, -2.927e-6
-1.560, -2.927e-6
-1.559, -2.927e-6
-1.558, -2.927e-6
-1.557, -2.927e-6
-1.556, -2.927e-6
-1.555, -2.927e-6
-1.554, -2.927e-6
-1.553, -6.010e-6
-1.552, -2.927e-6
-1.551, -6.010e-6
-1.550, -2.927e-6
-1.549, -2.927e-6
-1.548, -2.927e-6
-1.547, -6.010e-6
-1.546, -2.927e-6
-1.545, -2.927e-6
-1.544, -2.927e-6
-1.543, -2.927e-6
-1.542, -6.010e-6
-1.541, -6.010e-6
-1.540, -6.010e-6
-1.539, -2.927e-6
-1.538, -2.927e-6
-1.537, -6.010e-6
-1.536, -6.010e-6
-1.535, -6.010e-6
-1.534, -6.010e-6
-1.533, -6.010e-6
-1.532, -6.010e-6
-1.531, -6.010e-6
-1.530, -6.010e-6
-1.529, -6.010e-6
-1.528, -6.010e-6
-1.527, -6.010e-6
-1.526, -6.010e-6
-1.525, -6.010e-6
-1.524, -9.093e-6
-1.523, -9.093e-6
-1.522, -9.093e-6
-1.521, -6.010e-6
-1.520, -6.010e-6
-1.519, -9.093e-6
-1.518, -9.093e-6
-1.517, -9.093e-6
-1.516, -9.093e-6
-1.515, -9.093e-6
-1.514, -6.010e-6
-1.513, -9.093e-6
-1.512, -9.093e-6
-1.511, -9.093e-6
-1.510, -9.093e-6
-1.509, -9.093e-6
-1.508, -9.093e-6
-1.507, -9.093e-6
-1.506, -9.093e-6
-1.505, -9.093e-6
-1.504, -9.093e-6
-1.503, -9.093e-6
-1.502, -9.093e-6
-1.501, -9.093e-6
-1.500, -9.093e-6
-1.499, -9.093e-6
-1.498, -9.093e-6
-1.497, -9.093e-6
-1.496, -9.093e-6
-1.495, -9.093e-6
-1.494, -1.218e-5
-1.493, -9.093e-6
-1.492, -9.093e-6
-1.491, -9.093e-6
-1.490, -9.093e-6
-1.489, -9.093e-6
-1.488, -9.093e-6
-1.487, -1.218e-5
-1.486, -1.218e-5
-1.485, -9.093e-6
-1.484, -1.218e-5
-1.483, -1.218e-5
-1.482, -1.218e-5
-1.481, -1.218e-5
-1.480, -1.218e-5
-1.479, -1.218e-5
-1.478, -1.218e-5
-1.477, -1.218e-5
-1.476, -1.218e-5
-1.475, -1.218e-5
-1.474, -1.218e-5
-1.473, -1.218e-5
-1.472, -1.218e-5
-1.471, -1.218e-5
-1.470, -1.218e-5
-1.469, -1.218e-5
-1.468, -1.218e-5
-1.467, -1.218e-5
-1.466, -1.218e-5
-1.465, -1.218e-5
-1.464, -1.526e-5
-1.463, -1.218e-5
-1.462, -1.218e-5
-1.461, -1.218e-5
-1.460, -1.218e-5
-1.459, -1.526e-5
-1.458, -1.218e-5
-1.457, -1.526e-5
-1.456, -1.218e-5
-1.455, -1.526e-5
-1.454, -1.526e-5
-1.453, -1.218e-5
-1.452, -1.526e-5
-1.451, -1.218e-5
-1.450, -1.526e-5
-1.449, -1.526e-5
-1.448, -1.526e-5
-1.447, -1.526e-5
-1.446, -1.218e-5
-1.445, -1.526e-5
-1.444, -1.526e-5
-1.443, -1.526e-5
-1.442, -1.218e-5
-1.441, -1.526e-5
-1.440, -1.526e-5
-1.439, -1.526e-5
-1.438, -1.526e-5
-1.437, -1.526e-5
-1.436, -1.526e-5
-1.435, -1.526e-5
-1.434, -1.526e-5
-1.433, -1.526e-5
-1.432, -1.526e-5
-1.431, -1.526e-5
-1.430, -1.526e-5
-1.429, -1.526e-5
-1.428, -1.526e-5
-1.427, -1.526e-5
-1.426, -1.526e-5
-1.425, -1.526e-5
-1.424, -1.526e-5
-1.423, -1.526e-5
-1.422, -1.526e-5
-1.421, -1.526e-5
-1.420, -1.834e-5
-1.419, -1.526e-5
-1.418, -1.526e-5
-1.417, -1.526e-5
-1.416, -1.834e-5
-1.415, -1.526e-5
-1.414, -1.526e-5
-1.413, -1.526e-5
-1.412, -1.526e-5
-1.411, -1.834e-5
-1.410, -1.526e-5
-1.409, -1.834e-5
-1.408, -1.834e-5
-1.407, -1.526e-5
-1.406, -1.834e-5
-1.405, -1.834e-5
-1.404, -1.834e-5
-1.403, -1.834e-5
-1.402, -1.834e-5
-1.401, -1.526e-5
-1.400, -1.834e-5
-1.399, -1.834e-5
-1.398, -1.526e-5
-1.397, -1.834e-5
-1.396, -1.834e-5
-1.395, -1.834e-5
-1.394, -1.834e-5
-1.393, -1.834e-5
-1.392, -1.834e-5
-1.391, -1.834e-5
-1.390, -1.834e-5
-1.389, -1.834e-5
-1.388, -1.834e-5
-1.387, -1.834e-5
-1.386, -1.834e-5
-1.385, -1.834e-5
-1.384, -1.834e-5
-1.383, -1.834e-5
-1.382, -1.834e-5
-1.381, -1.834e-5
-1.380, -1.834e-5
-1.379, -1.834e-5
-1.378, -1.834e-5
-1.377, -1.834e-5
-1.376, -1.834e-5
-1.375, -1.834e-5
-1.374, -1.834e-5
-1.373, -1.834e-5
-1.372, -1.834e-5
-1.371, -1.834e-5
-1.370, -1.834e-5
-1.369, -1.834e-5
-1.368, -1.834e-5
-1.367, -2.143e-5
-1.366, -1.834e-5
-1.365, -2.143e-5
-1.364, -2.143e-5
-1.363, -1.834e-5
-1.362, -2.143e-5
-1.361, -1.834e-5
-1.360, -2.143e-5
-1.359, -1.834e-5
-1.358, -2.143e-5
-1.357, -2.143e-5
-1.356, -2.143e-5
-1.355, -2.143e-5
-1.354, -1.834e-5
-1.353, -2.143e-5
-1.352, -2.143e-5
-1.351, -2.143e-5
-1.350, -2.143e-5
-1.349, -2.143e-5
-1.348, -2.143e-5
-1.347, -2.143e-5
-1.346, -2.143e-5
-1.345, -2.143e-5
-1.344, -2.143e-5
-1.343, -2.143e-5
-1.342, -2.143e-5
-1.341, -2.143e-5
-1.340, -2.143e-5
-1.339, -2.143e-5
-1.338, -2.143e-5
-1.337, -2.143e-5
-1.336, -2.143e-5
-1.335, -2.143e-5
-1.334, -2.143e-5
-1.333, -2.143e-5
-1.332, -2.143e-5
-1.331, -2.143e-5
-1.330, -2.143e-5
-1.329, -2.143e-5
-1.328, -2.143e-5
-1.327, -2.143e-5
-1.326, -2.143e-5
-1.325, -2.143e-5
-1.324, -2.143e-5
-1.323, -2.143e-5
-1.322, -2.143e-5
-1.321, -2.143e-5
-1.320, -2.143e-5
-1.319, -2.143e-5
-1.318, -2.143e-5
-1.317, -2.143e-5
-1.316, -2.143e-5
-1.315, -2.143e-5
-1.314, -2.143e-5
-1.313, -2.143e-5
-1.312, -2.143e-5
-1.311, -2.143e-5
-1.310, -2.143e-5
-1.309, -2.451e-5
-1.308, -2.143e-5
-1.307, -2.143e-5
-1.306, -2.143e-5
-1.305, -2.143e-5
-1.304, -2.143e-5
-1.303, -2.143e-5
-1.302, -2.143e-5
-1.301, -2.143e-5
-1.300, -2.143e-5
-1.299, -2.143e-5
-1.298, -2.143e-5
-1.297, -2.451e-5
-1.296, -2.143e-5
-1.295, -2.143e-5
-1.294, -2.143e-5
-1.293, -2.143e-5
-1.292, -2.143e-5
-1.291, -2.143e-5
-1.290, -2.451e-5
-1.289, -2.143e-5
-1.288, -2.143e-5
-1.287, -2.451e-5
-1.286, -2.451e-5
-1.285, -2.451e-5
-1.284, -2.451e-5
-1.283, -2.143e-5
-1.282, -2.143e-5
-1.281, -2.143e-5
-1.280, -2.451e-5
-1.279, -2.143e-5
-1.278, -2.143e-5
-1.277, -2.451e-5
-1.276, -2.143e-5
-1.275, -2.451e-5
-1.274, -2.451e-5
-1.273, -2.451e-5
-1.272, -2.451e-5
-1.271, -2.143e-5
-1.270, -2.451e-5
-1.269, -2.143e-5
-1.268, -2.451e-5
-1.267, -2.451e-5
-1.266, -2.143e-5
-1.265, -2.143e-5
-1.264, -2.143e-5
-1.263, -2.451e-5
-1.262, -2.143e-5
-1.261, -2.451e-5
-1.260, -2.143e-5
-1.259, -2.143e-5
-1.258, -2.143e-5
-1.257, -2.143e-5
-1.256, -2.451e-5
-1.255, -2.143e-5
-1.254, -2.451e-5
-1.253, -2.451e-5
-1.252, -2.143e-5
-1.251, -2.451e-5
-1.250, -2.143e-5
-1.249, -2.143e-5
-1.248, -2.451e-5
-1.247, -2.451e-5
-1.246, -2.143e-5
-1.245, -2.143e-5
-1.244, -2.451e-5
-1.243, -2.143e-5
-1.242, -2.451e-5
-1.241, -2.143e-5
-1.240, -2.143e-5
-1.239, -2.143e-5
-1.238, -2.143e-5
-1.237, -2.451e-5
-1.236, -2.143e-5
-1.235, -2.143e-5
-1.234, -2.143e-5
-1.233, -2.451e-5
-1.232, -2.143e-5
-1.231, -2.451e-5
-1.230, -2.143e-5
-1.229, -2.451e-5
-1.228, -2.451e-5
-1.227, -2.451e-5
-1.226, -2.451e-5
-1.225, -2.143e-5
-1.224, -2.451e-5
-1.223, -2.451e-5
-1.222, -2.451e-5
-1.221, -2.451e-5
-1.220, -2.143e-5
-1.219, -2.451e-5
-1.218, -2.143e-5
-1.217, -2.451e-5
-1.216, -2.451e-5
-1.215, -2.451e-5
-1.214, -2.451e-5
-1.213, -2.451e-5
-1.212, -2.143e-5
-1.211, -2.143e-5
-1.210, -2.451e-5
-1.209, -2.451e-5
-1.208, -2.451e-5
-1.207, -2.143e-5
-1.206, -2.143e-5
-1.205, -2.451e-5
-1.204, -2.143e-5
-1.203, -2.451e-5
-1.202, -2.143e-5
-1.201, -2.451e-5
-1.200, -2.143e-5
-1.199, -2.451e-5
-1.198, -2.451e-5
-1.197, -2.451e-5
-1.196, -2.451e-5
-1.195, -2.143e-5
-1.194, -2.451e-5
-1.193, -2.143e-5
-1.192, -2.451e-5
-1.191, -2.451e-5
-1.190, -2.451e-5
-1.189, -2.451e-5
-1.188, -2.143e-5
-1.187, -2.451e-5
-1.186, -2.143e-5
-1.185, -2.451e-5
-1.184, -2.451e-5
-1.183, -2.143e-5
-1.182, -2.451e-5
-1.181, -2.143e-5
-1.180, -2.451e-5
-1.179, -2.143e-5
-1.178, -2.451e-5
-1.177, -2.451e-5
-1.176, -2.143e-5
-1.175, -2.451e-5
-1.174, -2.143e-5
-1.173, -2.451e-5
-1.172, -2.143e-5
-1.171, -2.451e-5
-1.170, -2.143e-5
-1.169, -2.143e-5
-1.168, -2.451e-5
-1.167, -2.451e-5
-1.166, -2.451e-5
-1.165, -2.143e-5
-1.164, -2.451e-5
-1.163, -2.451e-5
-1.162, -2.451e-5
-1.161, -2.451e-5
-1.160, -2.451e-5
-1.159, -2.451e-5
-1.158, -2.143e-5
-1.157, -2.451e-5
-1.156, -2.143e-5
-1.155, -2.143e-5
-1.154, -2.143e-5
-1.153, -2.143e-5
-1.152, -2.143e-5
-1.151, -2.143e-5
-1.150, -2.451e-5
-1.149, -2.451e-5
-1.148, -2.143e-5
-1.147, -2.143e-5
-1.146, -2.143e-5
-1.145, -2.143e-5
-1.144, -2.143e-5
-1.143, -2.451e-5
-1.142, -2.143e-5
-1.141, -2.143e-5
-1.140, -2.143e-5
-1.139, -2.143e-5
-1.138, -2.451e-5
-1.137, -2.143e-5
-1.136, -2.143e-5
-1.135, -2.143e-5
-1.134, -2.143e-5
-1.133, -2.143e-5
-1.132, -2.451e-5
-1.131, -2.143e-5
-1.130, -2.143e-5
-1.129, -2.143e-5
-1.128, -2.143e-5
-1.127, -2.143e-5
-1.126, -2.143e-5
-1.125, -2.143e-5
-1.124, -2.143e-5
-1.123, -2.143e-5
-1.122, -2.143e-5
-1.121, -2.143e-5
-1.120, -2.451e-5
-1.119, -2.451e-5
-1.118, -2.143e-5
-1.117, -2.143e-5
-1.116, -2.143e-5
-1.115, -2.143e-5
-1.114, -2.143e-5
-1.113, -2.143e-5
-1.112, -2.143e-5
-1.111, -2.143e-5
-1.110, -2.143e-5
-1.109, -2.143e-5
-1.108, -2.451e-5
-1.107, -2.143e-5
-1.106, -2.143e-5
-1.105, -2.143e-5
-1.104, -2.143e-5
-1.103, -2.143e-5
-1.102, -2.143e-5
-1.101, -2.451e-5
-1.100, -2.143e-5
-1.099, -2.451e-5
-1.098, -2.143e-5
-1.097, -2.451e-5
-1.096, -2.451e-5
-1.095, -2.143e-5
-1.094, -2.451e-5
-1.093, -2.143e-5
-1.092, -2.143e-5
-1.091, -2.143e-5
-1.090, -2.451e-5
-1.089, -2.451e-5
-1.088, -2.451e-5
-1.087, -2.143e-5
-1.086, -2.143e-5
-1.085, -2.451e-5
-1.084, -2.143e-5
-1.083, -2.143e-5
-1.082, -2.143e-5
-1.081, -2.143e-5
-1.080, -2.451e-5
-1.079, -2.143e-5
-1.078, -2.143e-5
-1.077, -2.143e-5
-1.076, -2.143e-5
-1.075, -2.451e-5
-1.074, -2.451e-5
-1.073, -2.451e-5
-1.072, -2.143e-5
-1.071, -2.143e-5
-1.070, -2.143e-5
-1.069, -2.143e-5
-1.068, -2.143e-5
-1.067, -2.451e-5
-1.066, -2.143e-5
-1.065, -2.143e-5
-1.064, -2.451e-5
-1.063, -2.143e-5
-1.062, -2.451e-5
-1.061, -2.451e-5
-1.060, -2.451e-5
-1.059, -2.451e-5
-1.058, -2.143e-5
-1.057, -2.451e-5
-1.056, -2.451e-5
-1.055, -2.451e-5
-1.054, -2.143e-5
-1.053, -2.451e-5
-1.052, -2.451e-5
-1.051, -2.451e-5
-1.050, -2.451e-5
-1.049, -2.143e-5
-1.048, -2.451e-5
-1.047, -2.451e-5
-1.046, -2.451e-5
-1.045, -2.143e-5
-1.044, -2.451e-5
-1.043, -2.451e-5
-1.042, -2.451e-5
-1.041, -2.451e-5
-1.040, -2.451e-5
-1.039, -2.451e-5
-1.038, -2.451e-5
-1.037, -2.451e-5
-1.036, -2.451e-5
-1.035, -2.451e-5
-1.034, -2.451e-5
-1.033, -2.451e-5
-1.032, -2.451e-5
-1.031, -2.451e-5
-1.030, -2.451e-5
-1.029, -2.451e-5
-1.028, -2.451e-5
-1.027, -2.451e-5
-1.026, -2.451e-5
-1.025, -2.451e-5
-1.024, -2.451e-5
-1.023, -2.451e-5
-1.022, -2.451e-5
-1.021, -2.451e-5
-1.020, -2.451e-5
-1.019, -2.451e-5
-1.018, -2.451e-5
-1.017, -2.451e-5
-1.016, -2.451e-5
-1.015, -2.451e-5
-1.014, -2.451e-5
-1.013, -2.451e-5
-1.012, -2.451e-5
-1.011, -2.451e-5
-1.010, -2.451e-5
-1.009, -2.451e-5
-1.008, -2.451e-5
-1.007, -2.451e-5
-1.006, -2.451e-5
-1.005, -2.451e-5
-1.004, -2.451e-5
-1.003, -2.451e-5
-1.002, -2.451e-5
-1.001, -2.451e-5
