Oct. 21, 2024   06:38:21
Cyclic Voltammetry
File: c:/users/guazh/data/banditlqround3/2024-10-20-exp590\exp590-2024-10-21t06_15_28-arkoh\exp590_cv_sr_50mvs_efin_-2000mv.bin
Data Source:  Experiment
Instrument Model:  CHI760E
Header: CV ran at 50 mVs
Note: 

Init E (V) = -1
High E (V) = -1
Low E (V) = -2
Final E (V) = -1
Init P/N = N
Scan Rate (V/s) = 0.05
Segment = 3
Sample Interval (V) = 0.001
Quiet Time (sec) = 2
Sensitivity (A/V) = 0.01
Comp R (ohm) = 1.0

Results:

Channel 1:
Segment 1:
Ep = -1.358V
ip = 1.311e-6A
Ah = 2.426e-6C

Segment 2:

Segment 3:

Potential/V, Current/A

-1.000, 1.596e-6
-1.001, 2.011e-6
-1.002, 2.277e-6
-1.003, 2.445e-6
-1.004, 2.622e-6
-1.005, 2.839e-6
-1.006, 2.889e-6
-1.007, 3.007e-6
-1.008, 3.096e-6
-1.009, 3.214e-6
-1.010, 3.333e-6
-1.011, 3.451e-6
-1.012, 3.520e-6
-1.013, 3.451e-6
-1.014, 3.589e-6
-1.015, 3.737e-6
-1.016, 3.609e-6
-1.017, 3.708e-6
-1.018, 3.816e-6
-1.019, 3.787e-6
-1.020, 3.846e-6
-1.021, 3.885e-6
-1.022, 3.954e-6
-1.023, 3.895e-6
-1.024, 4.053e-6
-1.025, 4.142e-6
-1.026, 4.142e-6
-1.027, 4.181e-6
-1.028, 4.033e-6
-1.029, 4.142e-6
-1.030, 4.211e-6
-1.031, 4.260e-6
-1.032, 4.300e-6
-1.033, 4.240e-6
-1.034, 4.309e-6
-1.035, 4.408e-6
-1.036, 4.428e-6
-1.037, 4.438e-6
-1.038, 4.477e-6
-1.039, 4.438e-6
-1.040, 4.517e-6
-1.041, 4.586e-6
-1.042, 4.566e-6
-1.043, 4.635e-6
-1.044, 4.635e-6
-1.045, 4.635e-6
-1.046, 4.586e-6
-1.047, 4.625e-6
-1.048, 4.536e-6
-1.049, 4.615e-6
-1.050, 4.734e-6
-1.051, 4.674e-6
-1.052, 4.734e-6
-1.053, 4.714e-6
-1.054, 4.684e-6
-1.055, 4.803e-6
-1.056, 4.734e-6
-1.057, 4.832e-6
-1.058, 4.753e-6
-1.059, 4.842e-6
-1.060, 4.980e-6
-1.061, 4.832e-6
-1.062, 4.941e-6
-1.063, 4.931e-6
-1.064, 4.941e-6
-1.065, 5.030e-6
-1.066, 4.862e-6
-1.067, 4.941e-6
-1.068, 4.921e-6
-1.069, 4.911e-6
-1.070, 5.000e-6
-1.071, 5.020e-6
-1.072, 5.069e-6
-1.073, 5.030e-6
-1.074, 5.010e-6
-1.075, 5.148e-6
-1.076, 5.059e-6
-1.077, 5.069e-6
-1.078, 5.000e-6
-1.079, 5.099e-6
-1.080, 5.178e-6
-1.081, 5.109e-6
-1.082, 5.069e-6
-1.083, 5.079e-6
-1.084, 5.178e-6
-1.085, 5.188e-6
-1.086, 5.188e-6
-1.087, 5.109e-6
-1.088, 5.178e-6
-1.089, 5.217e-6
-1.090, 5.296e-6
-1.091, 5.178e-6
-1.092, 5.227e-6
-1.093, 5.197e-6
-1.094, 5.188e-6
-1.095, 5.286e-6
-1.096, 5.217e-6
-1.097, 5.128e-6
-1.098, 5.118e-6
-1.099, 5.109e-6
-1.100, 5.207e-6
-1.101, 5.266e-6
-1.102, 5.306e-6
-1.103, 5.227e-6
-1.104, 5.168e-6
-1.105, 5.237e-6
-1.106, 5.168e-6
-1.107, 5.257e-6
-1.108, 5.197e-6
-1.109, 5.227e-6
-1.110, 5.266e-6
-1.111, 5.178e-6
-1.112, 5.178e-6
-1.113, 5.128e-6
-1.114, 5.178e-6
-1.115, 5.266e-6
-1.116, 5.217e-6
-1.117, 5.197e-6
-1.118, 5.227e-6
-1.119, 5.148e-6
-1.120, 5.276e-6
-1.121, 5.138e-6
-1.122, 5.109e-6
-1.123, 5.207e-6
-1.124, 5.148e-6
-1.125, 5.227e-6
-1.126, 5.158e-6
-1.127, 5.247e-6
-1.128, 5.089e-6
-1.129, 5.217e-6
-1.130, 5.395e-6
-1.131, 5.178e-6
-1.132, 5.247e-6
-1.133, 5.276e-6
-1.134, 5.296e-6
-1.135, 5.247e-6
-1.136, 5.296e-6
-1.137, 5.197e-6
-1.138, 5.266e-6
-1.139, 5.207e-6
-1.140, 5.276e-6
-1.141, 5.148e-6
-1.142, 5.365e-6
-1.143, 5.128e-6
-1.144, 5.217e-6
-1.145, 5.247e-6
-1.146, 5.237e-6
-1.147, 5.227e-6
-1.148, 5.217e-6
-1.149, 5.217e-6
-1.150, 5.217e-6
-1.151, 5.247e-6
-1.152, 5.296e-6
-1.153, 5.257e-6
-1.154, 5.227e-6
-1.155, 5.326e-6
-1.156, 5.227e-6
-1.157, 5.237e-6
-1.158, 5.197e-6
-1.159, 5.148e-6
-1.160, 5.306e-6
-1.161, 5.197e-6
-1.162, 5.207e-6
-1.163, 5.227e-6
-1.164, 5.247e-6
-1.165, 5.326e-6
-1.166, 5.266e-6
-1.167, 5.286e-6
-1.168, 5.237e-6
-1.169, 5.217e-6
-1.170, 5.257e-6
-1.171, 5.227e-6
-1.172, 5.306e-6
-1.173, 5.257e-6
-1.174, 5.326e-6
-1.175, 5.296e-6
-1.176, 5.188e-6
-1.177, 5.316e-6
-1.178, 5.286e-6
-1.179, 5.227e-6
-1.180, 5.444e-6
-1.181, 5.355e-6
-1.182, 5.286e-6
-1.183, 5.276e-6
-1.184, 5.276e-6
-1.185, 5.444e-6
-1.186, 5.276e-6
-1.187, 5.316e-6
-1.188, 5.355e-6
-1.189, 5.276e-6
-1.190, 5.385e-6
-1.191, 5.336e-6
-1.192, 5.405e-6
-1.193, 5.405e-6
-1.194, 5.375e-6
-1.195, 5.434e-6
-1.196, 5.355e-6
-1.197, 5.375e-6
-1.198, 5.365e-6
-1.199, 5.345e-6
-1.200, 5.503e-6
-1.201, 5.395e-6
-1.202, 5.385e-6
-1.203, 5.503e-6
-1.204, 5.474e-6
-1.205, 5.493e-6
-1.206, 5.474e-6
-1.207, 5.454e-6
-1.208, 5.405e-6
-1.209, 5.385e-6
-1.210, 5.592e-6
-1.211, 5.503e-6
-1.212, 5.474e-6
-1.213, 5.444e-6
-1.214, 5.424e-6
-1.215, 5.483e-6
-1.216, 5.493e-6
-1.217, 5.572e-6
-1.218, 5.523e-6
-1.219, 5.523e-6
-1.220, 5.553e-6
-1.221, 5.602e-6
-1.222, 5.572e-6
-1.223, 5.543e-6
-1.224, 5.543e-6
-1.225, 5.720e-6
-1.226, 5.543e-6
-1.227, 5.553e-6
-1.228, 5.572e-6
-1.229, 5.562e-6
-1.230, 5.740e-6
-1.231, 5.661e-6
-1.232, 5.612e-6
-1.233, 5.661e-6
-1.234, 5.651e-6
-1.235, 5.750e-6
-1.236, 5.651e-6
-1.237, 5.612e-6
-1.238, 5.592e-6
-1.239, 5.622e-6
-1.240, 5.730e-6
-1.241, 5.730e-6
-1.242, 5.779e-6
-1.243, 5.631e-6
-1.244, 5.730e-6
-1.245, 5.858e-6
-1.246, 5.720e-6
-1.247, 5.720e-6
-1.248, 5.760e-6
-1.249, 5.760e-6
-1.250, 5.858e-6
-1.251, 5.839e-6
-1.252, 5.918e-6
-1.253, 5.947e-6
-1.254, 5.839e-6
-1.255, 5.987e-6
-1.256, 5.927e-6
-1.257, 5.947e-6
-1.258, 5.957e-6
-1.259, 5.888e-6
-1.260, 6.056e-6
-1.261, 5.997e-6
-1.262, 5.967e-6
-1.263, 6.016e-6
-1.264, 5.967e-6
-1.265, 6.105e-6
-1.266, 6.095e-6
-1.267, 6.135e-6
-1.268, 6.105e-6
-1.269, 6.046e-6
-1.270, 6.243e-6
-1.271, 6.135e-6
-1.272, 6.164e-6
-1.273, 6.174e-6
-1.274, 6.204e-6
-1.275, 6.223e-6
-1.276, 6.322e-6
-1.277, 6.293e-6
-1.278, 6.184e-6
-1.279, 6.105e-6
-1.280, 6.401e-6
-1.281, 6.411e-6
-1.282, 6.312e-6
-1.283, 6.332e-6
-1.284, 6.293e-6
-1.285, 6.342e-6
-1.286, 6.342e-6
-1.287, 6.391e-6
-1.288, 6.273e-6
-1.289, 6.214e-6
-1.290, 6.342e-6
-1.291, 6.204e-6
-1.292, 6.332e-6
-1.293, 6.440e-6
-1.294, 6.362e-6
-1.295, 6.342e-6
-1.296, 6.293e-6
-1.297, 6.322e-6
-1.298, 6.293e-6
-1.299, 6.293e-6
-1.300, 6.273e-6
-1.301, 6.322e-6
-1.302, 6.332e-6
-1.303, 6.332e-6
-1.304, 6.253e-6
-1.305, 6.322e-6
-1.306, 6.322e-6
-1.307, 6.362e-6
-1.308, 6.293e-6
-1.309, 6.283e-6
-1.310, 6.411e-6
-1.311, 6.322e-6
-1.312, 6.322e-6
-1.313, 6.263e-6
-1.314, 6.263e-6
-1.315, 6.302e-6
-1.316, 6.253e-6
-1.317, 6.095e-6
-1.318, 6.145e-6
-1.319, 6.194e-6
-1.320, 6.342e-6
-1.321, 6.273e-6
-1.322, 6.223e-6
-1.323, 6.164e-6
-1.324, 6.204e-6
-1.325, 6.263e-6
-1.326, 6.263e-6
-1.327, 6.223e-6
-1.328, 6.164e-6
-1.329, 6.204e-6
-1.330, 6.263e-6
-1.331, 6.263e-6
-1.332, 6.332e-6
-1.333, 6.322e-6
-1.334, 6.243e-6
-1.335, 6.332e-6
-1.336, 6.214e-6
-1.337, 6.312e-6
-1.338, 6.322e-6
-1.339, 6.273e-6
-1.340, 6.411e-6
-1.341, 6.342e-6
-1.342, 6.283e-6
-1.343, 6.293e-6
-1.344, 6.322e-6
-1.345, 6.460e-6
-1.346, 6.510e-6
-1.347, 6.450e-6
-1.348, 6.460e-6
-1.349, 6.401e-6
-1.350, 6.460e-6
-1.351, 6.450e-6
-1.352, 6.519e-6
-1.353, 6.490e-6
-1.354, 6.431e-6
-1.355, 6.588e-6
-1.356, 6.549e-6
-1.357, 6.510e-6
-1.358, 6.628e-6
-1.359, 6.588e-6
-1.360, 6.658e-6
-1.361, 6.658e-6
-1.362, 6.628e-6
-1.363, 6.588e-6
-1.364, 6.638e-6
-1.365, 6.746e-6
-1.366, 6.756e-6
-1.367, 6.786e-6
-1.368, 6.786e-6
-1.369, 6.855e-6
-1.370, 6.944e-6
-1.371, 6.875e-6
-1.372, 6.954e-6
-1.373, 6.855e-6
-1.374, 6.865e-6
-1.375, 6.904e-6
-1.376, 6.924e-6
-1.377, 6.973e-6
-1.378, 6.944e-6
-1.379, 6.954e-6
-1.380, 7.032e-6
-1.381, 7.062e-6
-1.382, 7.032e-6
-1.383, 7.131e-6
-1.384, 7.141e-6
-1.385, 7.180e-6
-1.386, 7.131e-6
-1.387, 7.151e-6
-1.388, 7.141e-6
-1.389, 7.269e-6
-1.390, 7.250e-6
-1.391, 7.141e-6
-1.392, 7.092e-6
-1.393, 7.121e-6
-1.394, 7.121e-6
-1.395, 7.230e-6
-1.396, 7.210e-6
-1.397, 7.299e-6
-1.398, 7.338e-6
-1.399, 7.289e-6
-1.400, 7.447e-6
-1.401, 7.368e-6
-1.402, 7.309e-6
-1.403, 7.309e-6
-1.404, 7.289e-6
-1.405, 7.496e-6
-1.406, 7.476e-6
-1.407, 7.457e-6
-1.408, 7.486e-6
-1.409, 7.555e-6
-1.410, 7.526e-6
-1.411, 7.536e-6
-1.412, 7.575e-6
-1.413, 7.555e-6
-1.414, 7.605e-6
-1.415, 7.674e-6
-1.416, 7.615e-6
-1.417, 7.615e-6
-1.418, 7.624e-6
-1.419, 7.605e-6
-1.420, 7.713e-6
-1.421, 7.782e-6
-1.422, 7.763e-6
-1.423, 7.812e-6
-1.424, 7.743e-6
-1.425, 7.792e-6
-1.426, 7.802e-6
-1.427, 7.763e-6
-1.428, 7.861e-6
-1.429, 7.832e-6
-1.430, 7.871e-6
-1.431, 7.851e-6
-1.432, 7.920e-6
-1.433, 7.930e-6
-1.434, 8.068e-6
-1.435, 8.147e-6
-1.436, 8.098e-6
-1.437, 7.999e-6
-1.438, 8.147e-6
-1.439, 8.078e-6
-1.440, 8.128e-6
-1.441, 8.098e-6
-1.442, 8.039e-6
-1.443, 8.098e-6
-1.444, 8.009e-6
-1.445, 8.197e-6
-1.446, 8.147e-6
-1.447, 8.147e-6
-1.448, 8.118e-6
-1.449, 8.206e-6
-1.450, 8.295e-6
-1.451, 8.236e-6
-1.452, 8.236e-6
-1.453, 8.364e-6
-1.454, 8.315e-6
-1.455, 8.394e-6
-1.456, 8.542e-6
-1.457, 8.572e-6
-1.458, 8.591e-6
-1.459, 8.611e-6
-1.460, 8.680e-6
-1.461, 8.641e-6
-1.462, 8.611e-6
-1.463, 8.591e-6
-1.464, 8.463e-6
-1.465, 8.769e-6
-1.466, 8.769e-6
-1.467, 8.710e-6
-1.468, 8.769e-6
-1.469, 8.818e-6
-1.470, 8.838e-6
-1.471, 8.946e-6
-1.472, 8.897e-6
-1.473, 9.055e-6
-1.474, 8.937e-6
-1.475, 9.065e-6
-1.476, 9.154e-6
-1.477, 8.858e-6
-1.478, 8.986e-6
-1.479, 9.104e-6
-1.480, 9.252e-6
-1.481, 9.223e-6
-1.482, 9.154e-6
-1.483, 9.272e-6
-1.484, 9.233e-6
-1.485, 9.469e-6
-1.486, 9.558e-6
-1.487, 9.430e-6
-1.488, 9.558e-6
-1.489, 9.450e-6
-1.490, 9.657e-6
-1.491, 9.647e-6
-1.492, 9.588e-6
-1.493, 9.913e-6
-1.494, 9.953e-6
-1.495, 1.009e-5
-1.496, 1.001e-5
-1.497, 1.005e-5
-1.498, 1.020e-5
-1.499, 1.019e-5
-1.500, 1.023e-5
-1.501, 1.026e-5
-1.502, 1.026e-5
-1.503, 1.034e-5
-1.504, 1.039e-5
-1.505, 1.047e-5
-1.506, 1.052e-5
-1.507, 1.048e-5
-1.508, 1.056e-5
-1.509, 1.052e-5
-1.510, 1.068e-5
-1.511, 1.082e-5
-1.512, 1.079e-5
-1.513, 1.088e-5
-1.514, 1.098e-5
-1.515, 1.113e-5
-1.516, 1.118e-5
-1.517, 1.122e-5
-1.518, 1.114e-5
-1.519, 1.129e-5
-1.520, 1.138e-5
-1.521, 1.147e-5
-1.522, 1.158e-5
-1.523, 1.181e-5
-1.524, 1.176e-5
-1.525, 1.192e-5
-1.526, 1.203e-5
-1.527, 1.186e-5
-1.528, 1.194e-5
-1.529, 1.203e-5
-1.530, 1.258e-5
-1.531, 1.248e-5
-1.532, 1.251e-5
-1.533, 1.265e-5
-1.534, 1.268e-5
-1.535, 1.282e-5
-1.536, 1.291e-5
-1.537, 1.317e-5
-1.538, 1.324e-5
-1.539, 1.347e-5
-1.540, 1.344e-5
-1.541, 1.352e-5
-1.542, 1.346e-5
-1.543, 1.359e-5
-1.544, 1.362e-5
-1.545, 1.392e-5
-1.546, 1.398e-5
-1.547, 1.404e-5
-1.548, 1.407e-5
-1.549, 1.426e-5
-1.550, 1.454e-5
-1.551, 1.459e-5
-1.552, 1.463e-5
-1.553, 1.478e-5
-1.554, 1.484e-5
-1.555, 1.506e-5
-1.556, 1.516e-5
-1.557, 1.517e-5
-1.558, 1.536e-5
-1.559, 1.569e-5
-1.560, 1.593e-5
-1.561, 1.605e-5
-1.562, 1.604e-5
-1.563, 1.622e-5
-1.564, 1.638e-5
-1.565, 1.651e-5
-1.566, 1.656e-5
-1.567, 1.663e-5
-1.568, 1.677e-5
-1.569, 1.700e-5
-1.570, 1.716e-5
-1.571, 1.733e-5
-1.572, 1.723e-5
-1.573, 1.738e-5
-1.574, 1.768e-5
-1.575, 1.779e-5
-1.576, 1.774e-5
-1.577, 1.801e-5
-1.578, 1.804e-5
-1.579, 1.822e-5
-1.580, 1.839e-5
-1.581, 1.859e-5
-1.582, 1.854e-5
-1.583, 1.880e-5
-1.584, 1.883e-5
-1.585, 1.908e-5
-1.586, 1.922e-5
-1.587, 1.941e-5
-1.588, 1.973e-5
-1.589, 1.980e-5
-1.590, 2.019e-5
-1.591, 2.021e-5
-1.592, 2.025e-5
-1.593, 2.042e-5
-1.594, 2.053e-5
-1.595, 2.094e-5
-1.596, 2.106e-5
-1.597, 2.101e-5
-1.598, 2.144e-5
-1.599, 2.147e-5
-1.600, 2.184e-5
-1.601, 2.215e-5
-1.602, 2.223e-5
-1.603, 2.252e-5
-1.604, 2.272e-5
-1.605, 2.279e-5
-1.606, 2.306e-5
-1.607, 2.300e-5
-1.608, 2.323e-5
-1.609, 2.317e-5
-1.610, 2.348e-5
-1.611, 2.364e-5
-1.612, 2.371e-5
-1.613, 2.408e-5
-1.614, 2.437e-5
-1.615, 2.440e-5
-1.616, 2.468e-5
-1.617, 2.490e-5
-1.618, 2.514e-5
-1.619, 2.535e-5
-1.620, 2.582e-5
-1.621, 2.572e-5
-1.622, 2.583e-5
-1.623, 2.628e-5
-1.624, 2.612e-5
-1.625, 2.616e-5
-1.626, 2.629e-5
-1.627, 2.655e-5
-1.628, 2.706e-5
-1.629, 2.708e-5
-1.630, 2.720e-5
-1.631, 2.739e-5
-1.632, 2.767e-5
-1.633, 2.776e-5
-1.634, 2.749e-5
-1.635, 2.791e-5
-1.636, 2.839e-5
-1.637, 2.842e-5
-1.638, 2.890e-5
-1.639, 2.955e-5
-1.640, 2.958e-5
-1.641, 2.996e-5
-1.642, 3.012e-5
-1.643, 3.014e-5
-1.644, 3.047e-5
-1.645, 3.088e-5
-1.646, 3.116e-5
-1.647, 3.130e-5
-1.648, 3.146e-5
-1.649, 3.165e-5
-1.650, 3.204e-5
-1.651, 3.236e-5
-1.652, 3.272e-5
-1.653, 3.309e-5
-1.654, 3.337e-5
-1.655, 3.375e-5
-1.656, 3.417e-5
-1.657, 3.446e-5
-1.658, 3.481e-5
-1.659, 3.510e-5
-1.660, 3.540e-5
-1.661, 3.575e-5
-1.662, 3.621e-5
-1.663, 3.657e-5
-1.664, 3.707e-5
-1.665, 3.736e-5
-1.666, 3.775e-5
-1.667, 3.827e-5
-1.668, 3.853e-5
-1.669, 3.897e-5
-1.670, 3.933e-5
-1.671, 3.990e-5
-1.672, 4.018e-5
-1.673, 4.050e-5
-1.674, 4.097e-5
-1.675, 4.139e-5
-1.676, 4.194e-5
-1.677, 4.207e-5
-1.678, 4.251e-5
-1.679, 4.313e-5
-1.680, 4.360e-5
-1.681, 4.412e-5
-1.682, 4.453e-5
-1.683, 4.554e-5
-1.684, 4.634e-5
-1.685, 4.697e-5
-1.686, 4.745e-5
-1.687, 4.796e-5
-1.688, 4.836e-5
-1.689, 4.877e-5
-1.690, 4.888e-5
-1.691, 4.958e-5
-1.692, 5.001e-5
-1.693, 5.084e-5
-1.694, 5.118e-5
-1.695, 5.222e-5
-1.696, 5.307e-5
-1.697, 5.319e-5
-1.698, 5.400e-5
-1.699, 5.484e-5
-1.700, 5.580e-5
-1.701, 5.663e-5
-1.702, 5.698e-5
-1.703, 5.719e-5
-1.704, 5.767e-5
-1.705, 5.814e-5
-1.706, 5.907e-5
-1.707, 5.931e-5
-1.708, 6.006e-5
-1.709, 6.107e-5
-1.710, 6.194e-5
-1.711, 6.285e-5
-1.712, 6.378e-5
-1.713, 6.461e-5
-1.714, 6.485e-5
-1.715, 6.576e-5
-1.716, 6.651e-5
-1.717, 6.720e-5
-1.718, 6.807e-5
-1.719, 6.868e-5
-1.720, 6.969e-5
-1.721, 7.035e-5
-1.722, 7.072e-5
-1.723, 7.065e-5
-1.724, 7.155e-5
-1.725, 7.083e-5
-1.726, 7.109e-5
-1.727, 7.215e-5
-1.728, 7.352e-5
-1.729, 7.398e-5
-1.730, 7.461e-5
-1.731, 7.549e-5
-1.732, 7.564e-5
-1.733, 7.596e-5
-1.734, 7.600e-5
-1.735, 7.604e-5
-1.736, 7.649e-5
-1.737, 7.730e-5
-1.738, 7.837e-5
-1.739, 7.867e-5
-1.740, 8.003e-5
-1.741, 8.121e-5
-1.742, 8.234e-5
-1.743, 8.296e-5
-1.744, 8.381e-5
-1.745, 8.443e-5
-1.746, 8.612e-5
-1.747, 8.788e-5
-1.748, 8.909e-5
-1.749, 8.980e-5
-1.750, 9.104e-5
-1.751, 9.254e-5
-1.752, 9.371e-5
-1.753, 9.502e-5
-1.754, 9.623e-5
-1.755, 9.768e-5
-1.756, 9.861e-5
-1.757, 9.965e-5
-1.758, 1.004e-4
-1.759, 1.015e-4
-1.760, 1.033e-4
-1.761, 1.052e-4
-1.762, 1.058e-4
-1.763, 1.070e-4
-1.764, 1.102e-4
-1.765, 1.117e-4
-1.766, 1.135e-4
-1.767, 1.150e-4
-1.768, 1.164e-4
-1.769, 1.178e-4
-1.770, 1.189e-4
-1.771, 1.205e-4
-1.772, 1.221e-4
-1.773, 1.239e-4
-1.774, 1.263e-4
-1.775, 1.278e-4
-1.776, 1.298e-4
-1.777, 1.320e-4
-1.778, 1.347e-4
-1.779, 1.364e-4
-1.780, 1.382e-4
-1.781, 1.405e-4
-1.782, 1.431e-4
-1.783, 1.450e-4
-1.784, 1.475e-4
-1.785, 1.498e-4
-1.786, 1.523e-4
-1.787, 1.549e-4
-1.788, 1.572e-4
-1.789, 1.603e-4
-1.790, 1.632e-4
-1.791, 1.660e-4
-1.792, 1.689e-4
-1.793, 1.723e-4
-1.794, 1.753e-4
-1.795, 1.779e-4
-1.796, 1.808e-4
-1.797, 1.842e-4
-1.798, 1.873e-4
-1.799, 1.907e-4
-1.800, 1.949e-4
-1.801, 1.978e-4
-1.802, 2.012e-4
-1.803, 2.050e-4
-1.804, 2.087e-4
-1.805, 2.128e-4
-1.806, 2.163e-4
-1.807, 2.193e-4
-1.808, 2.225e-4
-1.809, 2.269e-4
-1.810, 2.310e-4
-1.811, 2.347e-4
-1.812, 2.394e-4
-1.813, 2.437e-4
-1.814, 2.487e-4
-1.815, 2.553e-4
-1.816, 2.575e-4
-1.817, 2.616e-4
-1.818, 2.657e-4
-1.819, 2.705e-4
-1.820, 2.760e-4
-1.821, 2.814e-4
-1.822, 2.858e-4
-1.823, 2.924e-4
-1.824, 2.953e-4
-1.825, 3.004e-4
-1.826, 3.058e-4
-1.827, 3.125e-4
-1.828, 3.179e-4
-1.829, 3.235e-4
-1.830, 3.298e-4
-1.831, 3.368e-4
-1.832, 3.446e-4
-1.833, 3.526e-4
-1.834, 3.595e-4
-1.835, 3.670e-4
-1.836, 3.752e-4
-1.837, 3.810e-4
-1.838, 3.871e-4
-1.839, 3.948e-4
-1.840, 4.026e-4
-1.841, 4.118e-4
-1.842, 4.181e-4
-1.843, 4.262e-4
-1.844, 4.340e-4
-1.845, 4.418e-4
-1.846, 4.515e-4
-1.847, 4.607e-4
-1.848, 4.694e-4
-1.849, 4.794e-4
-1.850, 4.887e-4
-1.851, 4.991e-4
-1.852, 5.085e-4
-1.853, 5.179e-4
-1.854, 5.256e-4
-1.855, 5.314e-4
-1.856, 5.438e-4
-1.857, 5.534e-4
-1.858, 5.610e-4
-1.859, 5.712e-4
-1.860, 5.817e-4
-1.861, 5.931e-4
-1.862, 6.035e-4
-1.863, 6.161e-4
-1.864, 6.269e-4
-1.865, 6.400e-4
-1.866, 6.546e-4
-1.867, 6.669e-4
-1.868, 6.802e-4
-1.869, 6.919e-4
-1.870, 7.059e-4
-1.871, 7.182e-4
-1.872, 7.324e-4
-1.873, 7.483e-4
-1.874, 7.618e-4
-1.875, 7.766e-4
-1.876, 7.933e-4
-1.877, 8.104e-4
-1.878, 8.292e-4
-1.879, 8.458e-4
-1.880, 8.646e-4
-1.881, 8.834e-4
-1.882, 9.026e-4
-1.883, 9.212e-4
-1.884, 9.403e-4
-1.885, 9.612e-4
-1.886, 9.829e-4
-1.887, 1.005e-3
-1.888, 1.027e-3
-1.889, 1.044e-3
-1.890, 1.067e-3
-1.891, 1.092e-3
-1.892, 1.115e-3
-1.893, 1.138e-3
-1.894, 1.158e-3
-1.895, 1.182e-3
-1.896, 1.208e-3
-1.897, 1.234e-3
-1.898, 1.258e-3
-1.899, 1.284e-3
-1.900, 1.316e-3
-1.901, 1.341e-3
-1.902, 1.367e-3
-1.903, 1.396e-3
-1.904, 1.432e-3
-1.905, 1.462e-3
-1.906, 1.493e-3
-1.907, 1.525e-3
-1.908, 1.556e-3
-1.909, 1.587e-3
-1.910, 1.627e-3
-1.911, 1.666e-3
-1.912, 1.692e-3
-1.913, 1.730e-3
-1.914, 1.769e-3
-1.915, 1.805e-3
-1.916, 1.840e-3
-1.917, 1.878e-3
-1.918, 1.916e-3
-1.919, 1.949e-3
-1.920, 1.986e-3
-1.921, 2.020e-3
-1.922, 2.068e-3
-1.923, 2.107e-3
-1.924, 2.152e-3
-1.925, 2.199e-3
-1.926, 2.247e-3
-1.927, 2.289e-3
-1.928, 2.330e-3
-1.929, 2.371e-3
-1.930, 2.422e-3
-1.931, 2.459e-3
-1.932, 2.502e-3
-1.933, 2.548e-3
-1.934, 2.587e-3
-1.935, 2.632e-3
-1.936, 2.678e-3
-1.937, 2.729e-3
-1.938, 2.781e-3
-1.939, 2.832e-3
-1.940, 2.876e-3
-1.941, 2.928e-3
-1.942, 2.985e-3
-1.943, 3.032e-3
-1.944, 3.082e-3
-1.945, 3.136e-3
-1.946, 3.196e-3
-1.947, 3.243e-3
-1.948, 3.286e-3
-1.949, 3.341e-3
-1.950, 3.394e-3
-1.951, 3.446e-3
-1.952, 3.502e-3
-1.953, 3.554e-3
-1.954, 3.601e-3
-1.955, 3.650e-3
-1.956, 3.725e-3
-1.957, 3.824e-3
-1.958, 3.898e-3
-1.959, 3.935e-3
-1.960, 3.994e-3
-1.961, 4.058e-3
-1.962, 4.121e-3
-1.963, 4.174e-3
-1.964, 4.236e-3
-1.965, 4.304e-3
-1.966, 4.372e-3
-1.967, 4.438e-3
-1.968, 4.508e-3
-1.969, 4.570e-3
-1.970, 4.632e-3
-1.971, 4.682e-3
-1.972, 4.749e-3
-1.973, 4.812e-3
-1.974, 4.887e-3
-1.975, 4.955e-3
-1.976, 5.029e-3
-1.977, 5.086e-3
-1.978, 5.139e-3
-1.979, 5.205e-3
-1.980, 5.278e-3
-1.981, 5.343e-3
-1.982, 5.427e-3
-1.983, 5.490e-3
-1.984, 5.556e-3
-1.985, 5.624e-3
-1.986, 5.692e-3
-1.987, 5.767e-3
-1.988, 5.835e-3
-1.989, 5.935e-3
-1.990, 5.979e-3
-1.991, 6.024e-3
-1.992, 6.093e-3
-1.993, 6.188e-3
-1.994, 6.262e-3
-1.995, 6.325e-3
-1.996, 6.395e-3
-1.997, 6.452e-3
-1.998, 6.524e-3
-1.999, 6.590e-3
-2.000, 6.620e-3
-1.999, 6.575e-3
-1.998, 6.520e-3
-1.997, 6.476e-3
-1.996, 6.419e-3
-1.995, 6.378e-3
-1.994, 6.307e-3
-1.993, 6.263e-3
-1.992, 6.233e-3
-1.991, 6.188e-3
-1.990, 6.137e-3
-1.989, 6.091e-3
-1.988, 6.036e-3
-1.987, 5.974e-3
-1.986, 5.939e-3
-1.985, 5.891e-3
-1.984, 5.836e-3
-1.983, 5.787e-3
-1.982, 5.747e-3
-1.981, 5.723e-3
-1.980, 5.638e-3
-1.979, 5.552e-3
-1.978, 5.511e-3
-1.977, 5.480e-3
-1.976, 5.437e-3
-1.975, 5.392e-3
-1.974, 5.321e-3
-1.973, 5.257e-3
-1.972, 5.187e-3
-1.971, 5.145e-3
-1.970, 5.123e-3
-1.969, 5.086e-3
-1.968, 5.019e-3
-1.967, 4.942e-3
-1.966, 4.905e-3
-1.965, 4.851e-3
-1.964, 4.814e-3
-1.963, 4.775e-3
-1.962, 4.749e-3
-1.961, 4.679e-3
-1.960, 4.626e-3
-1.959, 4.594e-3
-1.958, 4.543e-3
-1.957, 4.483e-3
-1.956, 4.432e-3
-1.955, 4.405e-3
-1.954, 4.386e-3
-1.953, 4.349e-3
-1.952, 4.285e-3
-1.951, 4.242e-3
-1.950, 4.188e-3
-1.949, 4.132e-3
-1.948, 4.098e-3
-1.947, 4.054e-3
-1.946, 4.024e-3
-1.945, 3.991e-3
-1.944, 3.941e-3
-1.943, 3.907e-3
-1.942, 3.856e-3
-1.941, 3.811e-3
-1.940, 3.775e-3
-1.939, 3.735e-3
-1.938, 3.689e-3
-1.937, 3.655e-3
-1.936, 3.612e-3
-1.935, 3.571e-3
-1.934, 3.523e-3
-1.933, 3.488e-3
-1.932, 3.457e-3
-1.931, 3.421e-3
-1.930, 3.385e-3
-1.929, 3.343e-3
-1.928, 3.318e-3
-1.927, 3.285e-3
-1.926, 3.237e-3
-1.925, 3.196e-3
-1.924, 3.169e-3
-1.923, 3.137e-3
-1.922, 3.102e-3
-1.921, 3.077e-3
-1.920, 3.043e-3
-1.919, 3.013e-3
-1.918, 3.004e-3
-1.917, 2.963e-3
-1.916, 2.910e-3
-1.915, 2.883e-3
-1.914, 2.861e-3
-1.913, 2.826e-3
-1.912, 2.801e-3
-1.911, 2.759e-3
-1.910, 2.713e-3
-1.909, 2.691e-3
-1.908, 2.664e-3
-1.907, 2.635e-3
-1.906, 2.601e-3
-1.905, 2.570e-3
-1.904, 2.537e-3
-1.903, 2.498e-3
-1.902, 2.466e-3
-1.901, 2.429e-3
-1.900, 2.410e-3
-1.899, 2.376e-3
-1.898, 2.349e-3
-1.897, 2.315e-3
-1.896, 2.288e-3
-1.895, 2.253e-3
-1.894, 2.224e-3
-1.893, 2.201e-3
-1.892, 2.173e-3
-1.891, 2.147e-3
-1.890, 2.120e-3
-1.889, 2.092e-3
-1.888, 2.059e-3
-1.887, 2.037e-3
-1.886, 2.009e-3
-1.885, 1.984e-3
-1.884, 1.966e-3
-1.883, 1.943e-3
-1.882, 1.911e-3
-1.881, 1.886e-3
-1.880, 1.863e-3
-1.879, 1.837e-3
-1.878, 1.811e-3
-1.877, 1.792e-3
-1.876, 1.765e-3
-1.875, 1.741e-3
-1.874, 1.714e-3
-1.873, 1.695e-3
-1.872, 1.679e-3
-1.871, 1.650e-3
-1.870, 1.628e-3
-1.869, 1.609e-3
-1.868, 1.586e-3
-1.867, 1.570e-3
-1.866, 1.547e-3
-1.865, 1.527e-3
-1.864, 1.500e-3
-1.863, 1.481e-3
-1.862, 1.462e-3
-1.861, 1.445e-3
-1.860, 1.422e-3
-1.859, 1.395e-3
-1.858, 1.381e-3
-1.857, 1.364e-3
-1.856, 1.350e-3
-1.855, 1.332e-3
-1.854, 1.315e-3
-1.853, 1.300e-3
-1.852, 1.281e-3
-1.851, 1.267e-3
-1.850, 1.248e-3
-1.849, 1.231e-3
-1.848, 1.212e-3
-1.847, 1.198e-3
-1.846, 1.178e-3
-1.845, 1.163e-3
-1.844, 1.148e-3
-1.843, 1.136e-3
-1.842, 1.124e-3
-1.841, 1.104e-3
-1.840, 1.091e-3
-1.839, 1.073e-3
-1.838, 1.059e-3
-1.837, 1.047e-3
-1.836, 1.031e-3
-1.835, 1.016e-3
-1.834, 1.005e-3
-1.833, 9.921e-4
-1.832, 9.740e-4
-1.831, 9.660e-4
-1.830, 9.524e-4
-1.829, 9.393e-4
-1.828, 9.282e-4
-1.827, 9.144e-4
-1.826, 8.993e-4
-1.825, 8.860e-4
-1.824, 8.745e-4
-1.823, 8.624e-4
-1.822, 8.506e-4
-1.821, 8.433e-4
-1.820, 8.308e-4
-1.819, 8.208e-4
-1.818, 8.058e-4
-1.817, 7.934e-4
-1.816, 7.833e-4
-1.815, 7.719e-4
-1.814, 7.627e-4
-1.813, 7.509e-4
-1.812, 7.406e-4
-1.811, 7.287e-4
-1.810, 7.179e-4
-1.809, 7.068e-4
-1.808, 6.963e-4
-1.807, 6.865e-4
-1.806, 6.783e-4
-1.805, 6.689e-4
-1.804, 6.573e-4
-1.803, 6.501e-4
-1.802, 6.371e-4
-1.801, 6.267e-4
-1.800, 6.189e-4
-1.799, 6.099e-4
-1.798, 5.990e-4
-1.797, 5.905e-4
-1.796, 5.879e-4
-1.795, 5.765e-4
-1.794, 5.641e-4
-1.793, 5.592e-4
-1.792, 5.500e-4
-1.791, 5.413e-4
-1.790, 5.330e-4
-1.789, 5.274e-4
-1.788, 5.187e-4
-1.787, 5.093e-4
-1.786, 5.028e-4
-1.785, 4.961e-4
-1.784, 4.902e-4
-1.783, 4.816e-4
-1.782, 4.742e-4
-1.781, 4.707e-4
-1.780, 4.637e-4
-1.779, 4.555e-4
-1.778, 4.474e-4
-1.777, 4.436e-4
-1.776, 4.358e-4
-1.775, 4.281e-4
-1.774, 4.209e-4
-1.773, 4.152e-4
-1.772, 4.110e-4
-1.771, 4.042e-4
-1.770, 3.965e-4
-1.769, 3.915e-4
-1.768, 3.872e-4
-1.767, 3.811e-4
-1.766, 3.747e-4
-1.765, 3.696e-4
-1.764, 3.641e-4
-1.763, 3.613e-4
-1.762, 3.559e-4
-1.761, 3.495e-4
-1.760, 3.431e-4
-1.759, 3.377e-4
-1.758, 3.333e-4
-1.757, 3.294e-4
-1.756, 3.239e-4
-1.755, 3.181e-4
-1.754, 3.132e-4
-1.753, 3.125e-4
-1.752, 3.072e-4
-1.751, 3.028e-4
-1.750, 2.975e-4
-1.749, 2.932e-4
-1.748, 2.889e-4
-1.747, 2.842e-4
-1.746, 2.817e-4
-1.745, 2.771e-4
-1.744, 2.718e-4
-1.743, 2.676e-4
-1.742, 2.629e-4
-1.741, 2.586e-4
-1.740, 2.545e-4
-1.739, 2.508e-4
-1.738, 2.482e-4
-1.737, 2.441e-4
-1.736, 2.402e-4
-1.735, 2.371e-4
-1.734, 2.333e-4
-1.733, 2.300e-4
-1.732, 2.275e-4
-1.731, 2.246e-4
-1.730, 2.212e-4
-1.729, 2.174e-4
-1.728, 2.142e-4
-1.727, 2.109e-4
-1.726, 2.072e-4
-1.725, 2.045e-4
-1.724, 2.012e-4
-1.723, 1.979e-4
-1.722, 1.949e-4
-1.721, 1.918e-4
-1.720, 1.888e-4
-1.719, 1.857e-4
-1.718, 1.828e-4
-1.717, 1.797e-4
-1.716, 1.768e-4
-1.715, 1.740e-4
-1.714, 1.714e-4
-1.713, 1.681e-4
-1.712, 1.656e-4
-1.711, 1.627e-4
-1.710, 1.599e-4
-1.709, 1.572e-4
-1.708, 1.547e-4
-1.707, 1.521e-4
-1.706, 1.495e-4
-1.705, 1.473e-4
-1.704, 1.448e-4
-1.703, 1.425e-4
-1.702, 1.404e-4
-1.701, 1.386e-4
-1.700, 1.361e-4
-1.699, 1.339e-4
-1.698, 1.322e-4
-1.697, 1.296e-4
-1.696, 1.280e-4
-1.695, 1.259e-4
-1.694, 1.233e-4
-1.693, 1.220e-4
-1.692, 1.200e-4
-1.691, 1.179e-4
-1.690, 1.159e-4
-1.689, 1.138e-4
-1.688, 1.120e-4
-1.687, 1.103e-4
-1.686, 1.087e-4
-1.685, 1.069e-4
-1.684, 1.052e-4
-1.683, 1.031e-4
-1.682, 1.016e-4
-1.681, 9.982e-5
-1.680, 9.826e-5
-1.679, 9.665e-5
-1.678, 9.463e-5
-1.677, 9.293e-5
-1.676, 9.143e-5
-1.675, 8.975e-5
-1.674, 8.834e-5
-1.673, 8.680e-5
-1.672, 8.521e-5
-1.671, 8.387e-5
-1.670, 8.231e-5
-1.669, 8.084e-5
-1.668, 7.959e-5
-1.667, 7.801e-5
-1.666, 7.624e-5
-1.665, 7.506e-5
-1.664, 7.345e-5
-1.663, 7.220e-5
-1.662, 7.097e-5
-1.661, 6.968e-5
-1.660, 6.831e-5
-1.659, 6.705e-5
-1.658, 6.604e-5
-1.657, 6.473e-5
-1.656, 6.374e-5
-1.655, 6.263e-5
-1.654, 6.142e-5
-1.653, 6.047e-5
-1.652, 5.924e-5
-1.651, 5.825e-5
-1.650, 5.709e-5
-1.649, 5.597e-5
-1.648, 5.499e-5
-1.647, 5.415e-5
-1.646, 5.319e-5
-1.645, 5.217e-5
-1.644, 5.129e-5
-1.643, 5.052e-5
-1.642, 4.942e-5
-1.641, 4.862e-5
-1.640, 4.772e-5
-1.639, 4.689e-5
-1.638, 4.595e-5
-1.637, 4.512e-5
-1.636, 4.424e-5
-1.635, 4.342e-5
-1.634, 4.272e-5
-1.633, 4.214e-5
-1.632, 4.117e-5
-1.631, 4.027e-5
-1.630, 3.952e-5
-1.629, 3.890e-5
-1.628, 3.810e-5
-1.627, 3.733e-5
-1.626, 3.668e-5
-1.625, 3.603e-5
-1.624, 3.512e-5
-1.623, 3.452e-5
-1.622, 3.392e-5
-1.621, 3.319e-5
-1.620, 3.267e-5
-1.619, 3.211e-5
-1.618, 3.135e-5
-1.617, 3.070e-5
-1.616, 3.003e-5
-1.615, 2.940e-5
-1.614, 2.882e-5
-1.613, 2.833e-5
-1.612, 2.778e-5
-1.611, 2.741e-5
-1.610, 2.672e-5
-1.609, 2.621e-5
-1.608, 2.566e-5
-1.607, 2.536e-5
-1.606, 2.480e-5
-1.605, 2.423e-5
-1.604, 2.358e-5
-1.603, 2.325e-5
-1.602, 2.277e-5
-1.601, 2.236e-5
-1.600, 2.186e-5
-1.599, 2.127e-5
-1.598, 2.097e-5
-1.597, 2.053e-5
-1.596, 2.017e-5
-1.595, 1.965e-5
-1.594, 1.925e-5
-1.593, 1.898e-5
-1.592, 1.860e-5
-1.591, 1.818e-5
-1.590, 1.788e-5
-1.589, 1.743e-5
-1.588, 1.729e-5
-1.587, 1.672e-5
-1.586, 1.647e-5
-1.585, 1.605e-5
-1.584, 1.569e-5
-1.583, 1.548e-5
-1.582, 1.521e-5
-1.581, 1.487e-5
-1.580, 1.470e-5
-1.579, 1.431e-5
-1.578, 1.402e-5
-1.577, 1.384e-5
-1.576, 1.398e-5
-1.575, 1.346e-5
-1.574, 1.297e-5
-1.573, 1.280e-5
-1.572, 1.243e-5
-1.571, 1.225e-5
-1.570, 1.206e-5
-1.569, 1.171e-5
-1.568, 1.159e-5
-1.567, 1.140e-5
-1.566, 1.122e-5
-1.565, 1.092e-5
-1.564, 1.078e-5
-1.563, 1.055e-5
-1.562, 1.040e-5
-1.561, 1.009e-5
-1.560, 9.963e-6
-1.559, 9.834e-6
-1.558, 9.696e-6
-1.557, 9.509e-6
-1.556, 9.341e-6
-1.555, 9.154e-6
-1.554, 8.986e-6
-1.553, 8.907e-6
-1.552, 8.670e-6
-1.551, 8.552e-6
-1.550, 8.374e-6
-1.549, 8.285e-6
-1.548, 8.216e-6
-1.547, 7.980e-6
-1.546, 7.832e-6
-1.545, 7.733e-6
-1.544, 7.565e-6
-1.543, 7.565e-6
-1.542, 7.328e-6
-1.541, 7.171e-6
-1.540, 7.072e-6
-1.539, 6.884e-6
-1.538, 6.865e-6
-1.537, 6.727e-6
-1.536, 6.588e-6
-1.535, 6.490e-6
-1.534, 6.253e-6
-1.533, 6.184e-6
-1.532, 6.184e-6
-1.531, 5.957e-6
-1.530, 5.878e-6
-1.529, 5.720e-6
-1.528, 5.750e-6
-1.527, 5.651e-6
-1.526, 5.493e-6
-1.525, 5.543e-6
-1.524, 5.355e-6
-1.523, 5.375e-6
-1.522, 5.188e-6
-1.521, 5.049e-6
-1.520, 4.961e-6
-1.519, 4.990e-6
-1.518, 4.911e-6
-1.517, 4.862e-6
-1.516, 4.773e-6
-1.515, 4.763e-6
-1.514, 4.665e-6
-1.513, 4.586e-6
-1.512, 4.566e-6
-1.511, 4.487e-6
-1.510, 4.428e-6
-1.509, 4.231e-6
-1.508, 4.369e-6
-1.507, 4.240e-6
-1.506, 4.152e-6
-1.505, 4.083e-6
-1.504, 4.004e-6
-1.503, 4.013e-6
-1.502, 3.885e-6
-1.501, 3.964e-6
-1.500, 3.787e-6
-1.499, 3.698e-6
-1.498, 3.767e-6
-1.497, 3.767e-6
-1.496, 3.579e-6
-1.495, 3.619e-6
-1.494, 3.550e-6
-1.493, 3.520e-6
-1.492, 3.491e-6
-1.491, 3.412e-6
-1.490, 3.293e-6
-1.489, 3.323e-6
-1.488, 3.392e-6
-1.487, 3.293e-6
-1.486, 3.204e-6
-1.485, 3.076e-6
-1.484, 3.037e-6
-1.483, 3.135e-6
-1.482, 3.145e-6
-1.481, 3.086e-6
-1.480, 2.987e-6
-1.479, 2.830e-6
-1.478, 2.938e-6
-1.477, 2.997e-6
-1.476, 2.859e-6
-1.475, 2.830e-6
-1.474, 2.849e-6
-1.473, 2.790e-6
-1.472, 2.731e-6
-1.471, 2.672e-6
-1.470, 2.691e-6
-1.469, 2.613e-6
-1.468, 2.721e-6
-1.467, 2.593e-6
-1.466, 2.622e-6
-1.465, 2.514e-6
-1.464, 2.534e-6
-1.463, 2.563e-6
-1.462, 2.455e-6
-1.461, 2.445e-6
-1.460, 2.376e-6
-1.459, 2.228e-6
-1.458, 2.326e-6
-1.457, 2.297e-6
-1.456, 2.317e-6
-1.455, 2.317e-6
-1.454, 2.238e-6
-1.453, 2.238e-6
-1.452, 2.188e-6
-1.451, 2.139e-6
-1.450, 2.178e-6
-1.449, 2.099e-6
-1.448, 2.129e-6
-1.447, 2.119e-6
-1.446, 2.011e-6
-1.445, 2.021e-6
-1.444, 1.902e-6
-1.443, 2.050e-6
-1.442, 2.040e-6
-1.441, 2.001e-6
-1.440, 1.873e-6
-1.439, 1.843e-6
-1.438, 1.991e-6
-1.437, 1.971e-6
-1.436, 1.853e-6
-1.435, 1.873e-6
-1.434, 1.794e-6
-1.433, 1.715e-6
-1.432, 1.665e-6
-1.431, 1.705e-6
-1.430, 1.675e-6
-1.429, 1.567e-6
-1.428, 1.675e-6
-1.427, 1.725e-6
-1.426, 1.547e-6
-1.425, 1.616e-6
-1.424, 1.527e-6
-1.423, 1.586e-6
-1.422, 1.547e-6
-1.421, 1.488e-6
-1.420, 1.448e-6
-1.419, 1.369e-6
-1.418, 1.478e-6
-1.417, 1.369e-6
-1.416, 1.360e-6
-1.415, 1.360e-6
-1.414, 1.310e-6
-1.413, 1.389e-6
-1.412, 1.330e-6
-1.411, 1.231e-6
-1.410, 1.300e-6
-1.409, 1.162e-6
-1.408, 1.192e-6
-1.407, 1.212e-6
-1.406, 1.172e-6
-1.405, 1.054e-6
-1.404, 1.083e-6
-1.403, 1.103e-6
-1.402, 1.093e-6
-1.401, 9.057e-7
-1.400, 9.748e-7
-1.399, 9.353e-7
-1.398, 9.057e-7
-1.397, 9.649e-7
-1.396, 8.366e-7
-1.395, 8.465e-7
-1.394, 8.070e-7
-1.393, 7.873e-7
-1.392, 7.972e-7
-1.391, 7.478e-7
-1.390, 7.577e-7
-1.389, 6.393e-7
-1.388, 6.196e-7
-1.387, 7.182e-7
-1.386, 6.590e-7
-1.385, 5.012e-7
-1.384, 5.505e-7
-1.383, 5.407e-7
-1.382, 4.321e-7
-1.381, 4.617e-7
-1.380, 4.420e-7
-1.379, 3.532e-7
-1.378, 5.111e-7
-1.377, 4.321e-7
-1.376, 3.039e-7
-1.375, 3.433e-7
-1.374, 2.151e-7
-1.373, 2.545e-7
-1.372, 3.039e-7
-1.371, 2.052e-7
-1.370, 1.263e-7
-1.369, 4.736e-8
-1.368, 2.249e-7
-1.367, 1.263e-7
-1.366, 1.164e-7
-1.365, 3.749e-8
-1.364, -1.302e-7
-1.363, -1.184e-8
-1.362, -4.144e-8
-1.361, -1.500e-7
-1.360, -1.598e-7
-1.359, -1.894e-7
-1.358, -2.092e-7
-1.357, -2.092e-7
-1.356, -3.177e-7
-1.355, -3.374e-7
-1.354, -3.867e-7
-1.353, -3.374e-7
-1.352, -3.374e-7
-1.351, -4.558e-7
-1.350, -4.755e-7
-1.349, -5.939e-7
-1.348, -5.051e-7
-1.347, -5.150e-7
-1.346, -6.137e-7
-1.345, -7.025e-7
-1.344, -8.504e-7
-1.343, -8.208e-7
-1.342, -7.715e-7
-1.341, -8.702e-7
-1.340, -9.096e-7
-1.339, -8.899e-7
-1.338, -8.406e-7
-1.337, -9.392e-7
-1.336, -9.096e-7
-1.335, -1.008e-6
-1.334, -1.097e-6
-1.333, -1.067e-6
-1.332, -9.886e-7
-1.331, -1.255e-6
-1.330, -1.206e-6
-1.329, -1.294e-6
-1.328, -1.304e-6
-1.327, -1.304e-6
-1.326, -1.373e-6
-1.325, -1.403e-6
-1.324, -1.482e-6
-1.323, -1.462e-6
-1.322, -1.482e-6
-1.321, -1.452e-6
-1.320, -1.531e-6
-1.319, -1.630e-6
-1.318, -1.600e-6
-1.317, -1.650e-6
-1.316, -1.610e-6
-1.315, -1.729e-6
-1.314, -1.748e-6
-1.313, -1.837e-6
-1.312, -1.738e-6
-1.311, -1.748e-6
-1.310, -1.758e-6
-1.309, -1.936e-6
-1.308, -1.955e-6
-1.307, -1.867e-6
-1.306, -2.005e-6
-1.305, -1.936e-6
-1.304, -1.985e-6
-1.303, -1.955e-6
-1.302, -1.896e-6
-1.301, -1.965e-6
-1.300, -2.123e-6
-1.299, -2.153e-6
-1.298, -2.064e-6
-1.297, -2.143e-6
-1.296, -2.172e-6
-1.295, -2.123e-6
-1.294, -2.261e-6
-1.293, -2.212e-6
-1.292, -2.113e-6
-1.291, -2.192e-6
-1.290, -2.172e-6
-1.289, -2.291e-6
-1.288, -2.163e-6
-1.287, -2.143e-6
-1.286, -2.291e-6
-1.285, -2.153e-6
-1.284, -2.281e-6
-1.283, -2.291e-6
-1.282, -2.113e-6
-1.281, -2.251e-6
-1.280, -2.360e-6
-1.279, -2.360e-6
-1.278, -2.390e-6
-1.277, -2.242e-6
-1.276, -2.320e-6
-1.275, -2.311e-6
-1.274, -2.409e-6
-1.273, -2.330e-6
-1.272, -2.311e-6
-1.271, -2.311e-6
-1.270, -2.399e-6
-1.269, -2.399e-6
-1.268, -2.370e-6
-1.267, -2.380e-6
-1.266, -2.360e-6
-1.265, -2.390e-6
-1.264, -2.459e-6
-1.263, -2.380e-6
-1.262, -2.251e-6
-1.261, -2.390e-6
-1.260, -2.320e-6
-1.259, -2.439e-6
-1.258, -2.380e-6
-1.257, -2.311e-6
-1.256, -2.350e-6
-1.255, -2.419e-6
-1.254, -2.508e-6
-1.253, -2.399e-6
-1.252, -2.350e-6
-1.251, -2.380e-6
-1.250, -2.419e-6
-1.249, -2.419e-6
-1.248, -2.380e-6
-1.247, -2.261e-6
-1.246, -2.340e-6
-1.245, -2.409e-6
-1.244, -2.350e-6
-1.243, -2.330e-6
-1.242, -2.291e-6
-1.241, -2.380e-6
-1.240, -2.370e-6
-1.239, -2.399e-6
-1.238, -2.370e-6
-1.237, -2.311e-6
-1.236, -2.311e-6
-1.235, -2.399e-6
-1.234, -2.419e-6
-1.233, -2.340e-6
-1.232, -2.271e-6
-1.231, -2.311e-6
-1.230, -2.330e-6
-1.229, -2.488e-6
-1.228, -2.508e-6
-1.227, -2.370e-6
-1.226, -2.488e-6
-1.225, -2.498e-6
-1.224, -2.468e-6
-1.223, -2.459e-6
-1.222, -2.429e-6
-1.221, -2.409e-6
-1.220, -2.419e-6
-1.219, -2.508e-6
-1.218, -2.449e-6
-1.217, -2.350e-6
-1.216, -2.468e-6
-1.215, -2.449e-6
-1.214, -2.459e-6
-1.213, -2.478e-6
-1.212, -2.380e-6
-1.211, -2.478e-6
-1.210, -2.409e-6
-1.209, -2.459e-6
-1.208, -2.370e-6
-1.207, -2.291e-6
-1.206, -2.390e-6
-1.205, -2.508e-6
-1.204, -2.547e-6
-1.203, -2.459e-6
-1.202, -2.439e-6
-1.201, -2.488e-6
-1.200, -2.478e-6
-1.199, -2.429e-6
-1.198, -2.439e-6
-1.197, -2.360e-6
-1.196, -2.518e-6
-1.195, -2.459e-6
-1.194, -2.498e-6
-1.193, -2.468e-6
-1.192, -2.390e-6
-1.191, -2.508e-6
-1.190, -2.508e-6
-1.189, -2.538e-6
-1.188, -2.557e-6
-1.187, -2.498e-6
-1.186, -2.528e-6
-1.185, -2.488e-6
-1.184, -2.597e-6
-1.183, -2.577e-6
-1.182, -2.567e-6
-1.181, -2.547e-6
-1.180, -2.557e-6
-1.179, -2.597e-6
-1.178, -2.695e-6
-1.177, -2.636e-6
-1.176, -2.567e-6
-1.175, -2.676e-6
-1.174, -2.607e-6
-1.173, -2.646e-6
-1.172, -2.656e-6
-1.171, -2.607e-6
-1.170, -2.686e-6
-1.169, -2.626e-6
-1.168, -2.705e-6
-1.167, -2.557e-6
-1.166, -2.646e-6
-1.165, -2.715e-6
-1.164, -2.764e-6
-1.163, -2.676e-6
-1.162, -2.646e-6
-1.161, -2.774e-6
-1.160, -2.735e-6
-1.159, -2.695e-6
-1.158, -2.695e-6
-1.157, -2.676e-6
-1.156, -2.745e-6
-1.155, -2.745e-6
-1.154, -2.686e-6
-1.153, -2.715e-6
-1.152, -2.745e-6
-1.151, -2.695e-6
-1.150, -2.774e-6
-1.149, -2.725e-6
-1.148, -2.725e-6
-1.147, -2.686e-6
-1.146, -2.676e-6
-1.145, -2.725e-6
-1.144, -2.607e-6
-1.143, -2.774e-6
-1.142, -2.666e-6
-1.141, -2.725e-6
-1.140, -2.745e-6
-1.139, -2.764e-6
-1.138, -2.843e-6
-1.137, -2.804e-6
-1.136, -2.784e-6
-1.135, -2.794e-6
-1.134, -2.784e-6
-1.133, -2.834e-6
-1.132, -2.715e-6
-1.131, -2.784e-6
-1.130, -2.725e-6
-1.129, -2.843e-6
-1.128, -2.784e-6
-1.127, -2.695e-6
-1.126, -2.804e-6
-1.125, -2.794e-6
-1.124, -2.804e-6
-1.123, -2.745e-6
-1.122, -2.705e-6
-1.121, -2.745e-6
-1.120, -2.863e-6
-1.119, -2.893e-6
-1.118, -2.755e-6
-1.117, -2.646e-6
-1.116, -2.804e-6
-1.115, -2.824e-6
-1.114, -2.893e-6
-1.113, -2.903e-6
-1.112, -2.774e-6
-1.111, -2.834e-6
-1.110, -2.853e-6
-1.109, -2.764e-6
-1.108, -2.814e-6
-1.107, -2.764e-6
-1.106, -2.784e-6
-1.105, -2.824e-6
-1.104, -2.745e-6
-1.103, -2.784e-6
-1.102, -2.735e-6
-1.101, -2.853e-6
-1.100, -2.863e-6
-1.099, -2.952e-6
-1.098, -2.981e-6
-1.097, -2.863e-6
-1.096, -2.804e-6
-1.095, -2.853e-6
-1.094, -2.942e-6
-1.093, -2.883e-6
-1.092, -2.804e-6
-1.091, -2.853e-6
-1.090, -2.952e-6
-1.089, -2.942e-6
-1.088, -2.922e-6
-1.087, -2.922e-6
-1.086, -2.912e-6
-1.085, -2.932e-6
-1.084, -2.942e-6
-1.083, -2.922e-6
-1.082, -2.903e-6
-1.081, -2.991e-6
-1.080, -2.952e-6
-1.079, -2.922e-6
-1.078, -3.070e-6
-1.077, -2.972e-6
-1.076, -2.922e-6
-1.075, -2.972e-6
-1.074, -2.981e-6
-1.073, -3.139e-6
-1.072, -3.051e-6
-1.071, -3.060e-6
-1.070, -3.021e-6
-1.069, -3.051e-6
-1.068, -3.090e-6
-1.067, -2.942e-6
-1.066, -3.110e-6
-1.065, -3.060e-6
-1.064, -3.070e-6
-1.063, -3.021e-6
-1.062, -3.090e-6
-1.061, -3.051e-6
-1.060, -3.060e-6
-1.059, -3.041e-6
-1.058, -3.129e-6
-1.057, -3.031e-6
-1.056, -3.070e-6
-1.055, -3.149e-6
-1.054, -3.031e-6
-1.053, -3.080e-6
-1.052, -3.060e-6
-1.051, -3.070e-6
-1.050, -3.051e-6
-1.049, -3.208e-6
-1.048, -3.277e-6
-1.047, -3.139e-6
-1.046, -3.258e-6
-1.045, -3.208e-6
-1.044, -3.238e-6
-1.043, -3.258e-6
-1.042, -3.120e-6
-1.041, -3.139e-6
-1.040, -3.199e-6
-1.039, -3.100e-6
-1.038, -3.199e-6
-1.037, -3.139e-6
-1.036, -3.179e-6
-1.035, -3.218e-6
-1.034, -3.120e-6
-1.033, -3.258e-6
-1.032, -3.110e-6
-1.031, -3.189e-6
-1.030, -3.238e-6
-1.029, -3.169e-6
-1.028, -3.287e-6
-1.027, -3.100e-6
-1.026, -3.139e-6
-1.025, -3.139e-6
-1.024, -3.258e-6
-1.023, -3.248e-6
-1.022, -3.189e-6
-1.021, -3.199e-6
-1.020, -3.218e-6
-1.019, -3.169e-6
-1.018, -3.238e-6
-1.017, -3.189e-6
-1.016, -3.218e-6
-1.015, -3.110e-6
-1.014, -3.189e-6
-1.013, -3.208e-6
-1.012, -3.159e-6
-1.011, -3.268e-6
-1.010, -3.297e-6
-1.009, -3.199e-6
-1.008, -3.228e-6
-1.007, -3.179e-6
-1.006, -3.139e-6
-1.005, -3.199e-6
-1.004, -3.149e-6
-1.003, -3.149e-6
-1.002, -3.189e-6
-1.001, -3.327e-6
