Potential V vs RHE, Current mA cm-2
0.013299999999999867,6.234632698505217
0.012299999999999978,5.01373684672169
0.011299999999999866,4.01070653511738
0.010299999999999976,3.1378296631006513
0.009299999999999864,2.2225114520879723
0.008299999999999974,1.349917522331218
0.007299999999999862,0.5211796428702795
0.006299999999999972,-0.08943804837746762
0.00529999999999986,-0.7001406223032067
0.0042999999999999705,-1.3543031273607997
0.0032999999999998586,-2.052746096104168
0.0022999999999999687,-2.618630616050183
0.0012999999999998568,-3.0996324580042955
0.00029999999999996696,-3.5353635383627267
-0.000700000000000145,-4.014950669016974
-0.0017000000000000348,-4.582249900262854
-0.0027000000000001467,-5.0618370309171015
-0.0037000000000000366,-5.453712060979717
-0.0047000000000001485,-5.759289701750564
-0.005700000000000038,-6.196435493408861
-0.00670000000000015,-6.6760226240631075
-0.00770000000000004,-7.067897654125724
-0.008700000000000152,-7.329619244600755
-0.009700000000000042,-7.635196885371603
-0.010700000000000154,-8.027071915434218
-0.011700000000000044,-8.464217707092514
-0.012700000000000156,-8.812236686859313
-0.013700000000000045,-9.031516938338395
-0.014700000000000157,-9.293238528813426
-0.015700000000000047,-9.59740145828441
-0.01670000000000016,-9.99069119964689
-0.01770000000000005,-10.296268840417738
-0.01870000000000016,-10.514134380596953
-0.01970000000000005,-10.731999920776168
-0.020700000000000163,-10.993721511251199
-0.021700000000000053,-11.299299152022046
-0.022700000000000164,-11.604876792792895
-0.023700000000000054,-11.778886282676295
-0.024700000000000166,-11.952895772559694
-0.025700000000000056,-12.214617363034726
-0.026700000000000168,-12.56405105410139
-0.027700000000000058,-12.825772644576423
-0.02870000000000017,-12.99978213445982
-0.02970000000000006,-13.13135028534727
-0.03070000000000017,-13.3930718758223
-0.03170000000000006,-13.654793466297335
-0.03270000000000017,-13.872659006476551
-0.03370000000000006,-14.046668496359947
-0.034700000000000175,-14.217848563643619
-0.035700000000000065,-14.486643710617974
-0.03670000000000018,-14.783733083589633
-0.03770000000000007,-14.967645552572087
-0.03870000000000018,-15.094969569559943
-0.03970000000000007,-15.179852247551842
-0.04070000000000018,-15.491088733522153
-0.04170000000000007,-15.78817810649381
-0.04270000000000018,-16.014531914472215
-0.04370000000000007,-16.141855931460068
-0.044700000000000184,-16.22673860945197
-0.045700000000000074,-16.396503965435777
-0.046700000000000186,-16.70774045140608
-0.047700000000000076,-16.962388485381787
-0.04870000000000019,-17.146300954364243
-0.04970000000000008,-17.231183632356142
-0.05070000000000019,-17.40094898833995
-0.05170000000000008,-17.584861457322408
-0.05270000000000019,-17.839509491298113
-0.05370000000000008,-17.966833508285966
-0.05470000000000019,-18.15074597726842
-0.05570000000000008,-18.362952672248177
-0.056700000000000195,-18.589306480226583
-0.057700000000000085,-18.759071836210385
-0.058700000000000196,-18.843954514202288
-0.059700000000000086,-18.97127853119014
-0.0607000000000002,-19.197632339168546
-0.06170000000000009,-19.49472171214021
-0.0627000000000002,-19.763516859114564
-0.06370000000000009,-19.890840876102416
-0.0647000000000002,-19.97572355409432
-0.06570000000000009,-20.10304757108217
-0.0667000000000002,-20.329401379060574
-0.0677000000000001,-20.541608074040333
-0.0687000000000002,-20.72552054302279
-0.0697000000000001,-20.85284456001064
-0.07070000000000021,-21.065051254990397
-0.0717000000000001,-21.333846401964752
-0.07270000000000021,-21.503611757948562
-0.0737000000000001,-21.54605309694451
-0.07470000000000021,-21.63093577493641
-0.0757000000000001,-21.899730921910766
-0.07670000000000021,-22.196820294882425
-0.0777000000000001,-22.46561544185678
-0.07870000000000021,-22.592939458844636
-0.0797000000000001,-22.67782213683654
-0.08070000000000022,-22.861734605818995
-0.0817000000000001,-23.1163826397947
-0.08270000000000022,-23.300295108777156
-0.08370000000000011,-23.427619125765005
-0.08470000000000022,-23.55494314275286
-0.08570000000000011,-23.823738289727217
-0.08670000000000022,-24.16326900169483
-0.08770000000000011,-24.389622809673234
-0.08870000000000022,-24.474505487665134
-0.08970000000000011,-24.432064148669184
-0.09070000000000022,-24.516946826661083
-0.09170000000000011,-24.686712182644893
-0.09270000000000023,-24.95550732961925
-0.09370000000000012,-25.295038041586857
-0.09470000000000023,-25.60627452755716
-0.09570000000000012,-25.86092256153287
-0.09670000000000023,-26.002393691519377
-0.09770000000000012,-26.002393691519377
-0.09870000000000023,-26.002393691519377
-0.09970000000000012,-26.17215904750318
-0.10070000000000023,-26.568278211465387
-0.10170000000000012,-27.049280053419505
-0.10270000000000024,-27.34636942639116
-0.10370000000000013,-27.43125210438306
-0.10470000000000024,-27.38881076538711
-0.10570000000000013,-27.487840556377662
-0.10670000000000024,-27.65760591236147
-0.10770000000000013,-27.912253946337174
-0.10870000000000024,-28.18104909331153
-0.10970000000000013,-28.435697127287238
-0.11070000000000024,-28.746933613257543
-0.11170000000000013,-29.001581647233255
-0.11270000000000002,-29.18549411621571
-0.11370000000000013,-29.22793545521166
-0.11470000000000002,-29.31281813320356
-0.11570000000000014,-29.525024828183312
-0.11670000000000003,-29.921143992145527
-0.11770000000000014,-30.189939139119886
-0.11870000000000003,-30.317263156107735
-0.11970000000000014,-30.359704495103685
-0.12070000000000003,-30.529469851087494
-0.12170000000000014,-30.79826499806185
-0.12270000000000003,-31.010471693041605
-0.12370000000000014,-31.19438416202406
-0.12470000000000003,-31.36414951800786
-0.12570000000000014,-31.661238890979522
-0.12670000000000003,-32.05735805494172
-0.12770000000000015,-32.32615320191609
-0.12870000000000004,-32.41103587990799
-0.12970000000000015,-32.49591855789989
-0.13070000000000004,-32.66568391388369
-0.13170000000000015,-32.93447906085806
-0.13270000000000004,-33.18912709483376
-0.13370000000000015,-33.41548090281216
-0.13470000000000004,-33.627687597791926
-0.13570000000000015,-33.85404140577033
-0.13670000000000004,-34.02380676175414
-0.13770000000000016,-34.15113077874198
-0.13870000000000005,-34.193572117737936
-0.13970000000000016,-34.33504324772444
-0.14070000000000005,-34.717015298688004
-0.14170000000000016,-35.02825178465831
-0.14270000000000005,-35.282899818634014
-0.14370000000000016,-35.42437094862052
-0.14470000000000005,-35.55169496560837
-0.14570000000000016,-35.806342999584075
-0.14670000000000005,-36.11757948555439
-0.14770000000000016,-36.4288159715247
-0.14870000000000005,-36.55613998851254
-0.14970000000000017,-36.725905344496354
-0.15070000000000006,-36.89567070048016
-0.15170000000000017,-37.122024508458566
-0.15270000000000006,-37.291789864442364
-0.15370000000000017,-37.47570233342482
-0.15470000000000006,-37.687909028404576
-0.15570000000000017,-38.04158685337084
-0.15670000000000006,-38.42355890433439
-0.15770000000000017,-38.607471373316855
-0.15870000000000006,-38.692354051308754
-0.15970000000000018,-38.777236729300654
-0.16070000000000007,-39.130914554266916
-0.16170000000000018,-39.56947505722508
-0.16270000000000007,-39.82412309120078
-0.16370000000000018,-39.95144710818864
-0.16470000000000007,-40.03632978618054
-0.16570000000000018,-40.220242255162994
-0.16670000000000007,-40.4748902891387
-0.16770000000000018,-40.743685436113054
-0.16870000000000007,-40.99833347008877
-0.16970000000000018,-41.267128617063115
-0.17070000000000007,-41.66324778102533
-0.17170000000000019,-41.83301313700913
-0.17270000000000008,-41.91789581500104
-0.1737000000000002,-41.87545447600508
-0.17470000000000008,-42.04521983198889
-0.1757000000000002,-42.39889765695515
-0.17670000000000008,-42.837458159913304
-0.1777000000000002,-43.04966485489307
-0.17870000000000008,-43.09210619388902
-0.1797000000000002,-43.134547532884966
-0.18070000000000008,-43.36090134086337
-0.1817000000000002,-43.61554937483908
-0.18270000000000008,-44.011668538801295
-0.1837000000000002,-44.28046368577565
-0.1847000000000001,-44.45022904175945
-0.1857000000000002,-44.74731841473111
-0.1867000000000001,-45.05855490070142
-0.1877000000000002,-45.36979138667173
-0.1887000000000001,-45.412232725667685
-0.1897000000000002,-45.36979138667173
-0.1907000000000001,-45.45467406466363
-0.1917000000000001,-45.70932209863933
-0.19269999999999998,-46.062999923605595
-0.1937000000000001,-46.41667774857186
-0.19469999999999998,-46.713767121543505
-0.1957000000000001,-47.067444946509774
-0.19669999999999999,-47.27965164148953
-0.1977000000000001,-47.40697565847737
-0.1987,-47.40697565847737
-0.1997000000000001,-47.506005449467935
-0.2007,-47.8879775004315
-0.2017000000000001,-48.32653800338966
-0.2027,-48.68021582835591
-0.2037000000000001,-48.76509850634781
-0.2047,-48.76509850634781
-0.2057000000000001,-48.93486386233162
-0.2067,-49.24610034830193
-0.2077000000000001,-49.557336834272235
-0.2087,-49.76954352925199
-0.2097000000000001,-49.98175022423175
-0.2107,-50.335428049198
-0.2117000000000001,-50.68910587416426
-0.2127,-50.98619524713592
-0.2137000000000001,-51.17010771611838
-0.2147,-51.33987307210218
-0.2157000000000001,-51.55207976708194
-0.2167,-51.86331625305225
-0.21770000000000012,-52.2169940780185
-0.2187,-52.42920077299826
-0.21970000000000012,-52.59896612898206
-0.2207,-52.82531993696047
-0.22170000000000012,-52.995085292944275
-0.2227,-53.16485064892808
-0.22370000000000012,-53.30632177891458
-0.2247,-53.518528473894335
-0.22570000000000012,-54.08441299384035
-0.2267,-54.60785617479041
-0.22770000000000012,-54.919092660760725
-0.22870000000000001,-54.919092660760725
-0.22970000000000013,-54.876651321764776
-0.23070000000000002,-55.046416677748574
-0.23170000000000013,-55.442535841710786
-0.23270000000000002,-55.881096344668954
-0.23370000000000013,-56.13574437864466
-0.23470000000000002,-56.30550973462846
-0.23570000000000013,-56.57430488160282
-0.23670000000000002,-56.786511576582576
-0.2376999999999999,-57.05530672355693
-0.23870000000000002,-57.182630740544774
-0.2396999999999999,-57.352396096528594
-0.24070000000000003,-57.79095659948675
-0.24169999999999991,-58.31439978043681
-0.24270000000000003,-58.66807760540307
-0.24369999999999992,-58.83784296138688
-0.24470000000000003,-58.79540162239092
-0.24569999999999992,-58.880284300382826
-0.24670000000000003,-59.10663810836124
-0.24769999999999992,-59.36128614233694
-0.24870000000000003,-59.67252262830725
-0.24969999999999992,-60.11108313126541
-0.25070000000000003,-60.63452631221547
-0.2516999999999999,-61.07308681517363
-0.25270000000000004,-61.28529351015339
-0.2536999999999999,-61.37017618814529
-0.25470000000000004,-61.49750020513315
-0.2556999999999999,-61.72385401311155
-0.25670000000000004,-62.11997317707376
-0.25769999999999993,-62.544386567033264
-0.25870000000000004,-62.94050573099548
-0.25969999999999993,-63.20930087796983
-0.26070000000000004,-63.3366248949577
-0.26169999999999993,-63.5063902509415
-0.26270000000000004,-63.6761556069253
-0.26369999999999993,-63.902509414903705
-0.26470000000000005,-64.29862857886593
-0.26569999999999994,-64.82207175981598
-0.26670000000000005,-65.3030736017701
-0.26769999999999994,-65.4728389577539
-0.26870000000000005,-65.4728389577539
-0.26969999999999994,-65.5577216357458
-0.27070000000000005,-65.82651678272015
-0.27169999999999994,-66.29337151167562
-0.27270000000000005,-66.73193201463377
-0.27369999999999994,-67.08560983960004
-0.27470000000000006,-67.21293385658788
-0.27569999999999995,-67.39684632557035
-0.27670000000000006,-67.65149435954605
-0.27769999999999995,-67.9202895065204
-0.27870000000000006,-68.17493754049613
-0.27969999999999995,-68.44373268747047
-0.28070000000000006,-68.82570473843404
-0.28169999999999995,-69.26426524139221
-0.28270000000000006,-69.6603844053544
-0.28369999999999995,-69.87259110033416
-0.28470000000000006,-70.01406223032066
-0.28569999999999995,-70.18382758630447
-0.28670000000000007,-70.39603428128423
-0.28769999999999996,-70.66482942825859
-0.28870000000000007,-71.0043601402262
-0.28969999999999996,-71.4004793041884
-0.29070000000000007,-71.7965984681506
-0.29169999999999996,-72.15027629311687
-0.29270000000000007,-72.44736566608852
-0.29369999999999996,-72.63127813507097
-0.2947000000000001,-72.75860215205884
-0.29569999999999996,-72.92836750804264
-0.2967000000000001,-73.23960399401295
-0.29769999999999996,-73.53669336698461
-0.2987000000000001,-73.80548851395896
-0.29969999999999997,-74.14501922592657
-0.3007000000000001,-74.54113838988879
-0.30169999999999997,-74.89481621485504
-0.3027000000000001,-75.06458157083884
-0.30369999999999997,-75.14946424883075
-0.3047000000000001,-75.37581805680915
-0.30569999999999997,-75.81437855976732
-0.3067000000000001,-76.29538040172143
-0.3077,-76.63491111368903
-0.3087000000000001,-76.81882358267148
-0.3097,-77.03103027765125
-0.3107000000000001,-77.243236972631
-0.3117,-77.51203211960537
-0.3127000000000001,-77.86570994457162
-0.3137,-78.12035797854733
-0.3147000000000001,-78.38915312552167
-0.3157,-78.60135982050144
-0.3167000000000001,-78.68624249849334
-0.3177,-78.85600785447714
-0.3187000000000001,-79.1248030014515
-0.3197,-79.56336350440966
-0.3207000000000001,-80.00192400736783
-0.3217,-80.38389605833139
-0.3227000000000001,-80.65269120530574
-0.3237,-80.7800152222936
-0.3247000000000001,-80.99222191727335
-0.3257,-81.21857572525175
-0.3267000000000001,-81.57225355021802
-0.3277,-81.82690158419373
-0.3287000000000001,-81.86934292318966
-0.3297,-81.86934292318966
-0.3307000000000001,-82.09569673116808
-0.3317,-82.52011012112759
-0.3327000000000001,-82.95867062408576
-0.3337,-83.22746577106011
-0.3347000000000001,-83.35478978804795
-0.3357,-83.48211380503581
-0.3367000000000001,-83.66602627401826
-0.3377,-83.83579163000208
-0.3387000000000001,-83.96311564698992
-0.3397,-84.18946945496833
-0.3407000000000001,-84.52900016693594
-0.3417,-84.84023665290624
-0.3427000000000001,-85.01000200889004
-0.3437,-85.09488468688197
-0.3447000000000001,-85.23635581686847
-0.3457,-85.36367983385631
-0.3467000000000001,-85.49100385084417
-0.3477,-85.61832786783202
-0.3487000000000001,-85.80224033681448
-0.3497,-86.09932970978613
-0.3507000000000001,-86.45300753475239
-0.3517,-86.6227728907362
-0.3527000000000001,-86.6227728907362
-0.3537,-86.41056619575643
-0.3547000000000001,-86.32568351776455
-0.3557,-86.49544887374834
-0.35670000000000013,-86.89156803771054
-0.3577,-87.18865741068221
-0.35870000000000013,-87.23109874967815
-0.3597,-87.14621607168625
-0.36070000000000013,-87.27354008867411
-0.3617,-87.49989389665252
-0.3626999999999999,-87.66965925263632
-0.3637,-87.62721791364037
-0.3646999999999999,-87.45745255765657
-0.3657,-87.33012854066871
-0.3666999999999999,-87.33012854066871
-0.3677,-87.41501121866061
-0.3686999999999999,-87.45745255765657
-0.36970000000000003,-87.58477657464444
-0.3706999999999999,-87.66965925263632
-0.37170000000000003,-87.75454193062824
-0.3726999999999999,-87.71210059163228
-0.37370000000000003,-87.58477657464444
-0.3746999999999999,-87.45745255765657
-0.37570000000000003,-87.45745255765657
-0.3766999999999999,-87.58477657464444
-0.37770000000000004,-87.66965925263632
-0.3786999999999999,-87.58477657464444
-0.37970000000000004,-87.27354008867411
-0.3806999999999999,-86.97645071570246
-0.38170000000000004,-86.89156803771054
-0.38269999999999993,-87.01889205469841
-0.38370000000000004,-87.10377473269031
-0.38469999999999993,-87.06133339369435
-0.38570000000000004,-86.93400937670651
-0.38669999999999993,-86.66521422973216
-0.38770000000000004,-86.32568351776455
-0.38869999999999993,-86.05688837079018
-0.38970000000000005,-86.09932970978613
-0.39069999999999994,-86.22665372677399
-0.39170000000000005,-86.28324217876859
-0.39269999999999994,-86.01444703179425
-0.39370000000000005,-85.57588652883607
-0.39469999999999994,-85.17976736487385
-0.39570000000000005,-85.01000200889004
-0.39669999999999994,-85.052443347886
-0.39770000000000005,-85.01000200889004
-0.39869999999999994,-84.92511933089816
-0.39970000000000006,-84.7129126359184
-0.40069999999999995,-84.52900016693594
-0.40170000000000006,-84.31679347195619
-0.40269999999999995,-84.00555698598588
-0.40370000000000006,-83.66602627401826
-0.40469999999999995,-83.43967246603985
-0.40570000000000006,-83.35478978804795
-0.40669999999999995,-83.43967246603985
-0.40770000000000006,-83.35478978804795
-0.40869999999999995,-82.95867062408576
-0.40970000000000006,-82.35034476514379
-0.41069999999999995,-81.86934292318966
-0.41170000000000007,-81.78446024519776
-0.41269999999999996,-81.86934292318966
-0.41370000000000007,-81.95422560118158
-0.41469999999999996,-81.82690158419373
-0.41570000000000007,-81.69957756720586
-0.41669999999999996,-81.38834108123557
-0.41770000000000007,-80.9497805782774
-0.41869999999999996,-80.52536718831789
-0.4197000000000001,-80.25657204134353
-0.42069999999999996,-80.25657204134353
-0.4217000000000001,-80.29901338033947
-0.42269999999999996,-80.21413070234757
-0.4237000000000001,-80.00192400736783
-0.42469999999999997,-79.69068752139752
-0.4257000000000001,-79.56336350440966
-0.42669999999999997,-79.60580484340561
-0.4277000000000001,-79.73312886039348
-0.42869999999999997,-79.64824618240156
-0.4297000000000001,-79.47848082641775
-0.43069999999999997,-79.25212701843935
-0.4317000000000001,-79.1248030014515
-0.4327,-79.08236166245555
-0.4337000000000001,-79.08236166245555
-0.4347,-79.0399203234596
-0.4357000000000001,-79.0399203234596
-0.4367,-79.16724434044745
-0.4377000000000001,-79.37945103542721
-0.4387,-79.47848082641775
-0.4397000000000001,-79.60580484340561
-0.4407,-79.69068752139752
-0.4417000000000001,-79.60580484340561
-0.4427,-79.52092216541372
-0.4437000000000001,-79.47848082641775
-0.4447,-79.69068752139752
-0.4457000000000001,-80.38389605833139
-0.4467,-81.13369304725985
-0.4477000000000001,-81.47322375922747
-0.4487,-81.43078242023151
-0.4497000000000001,-81.30345840324367
-0.4507,-81.30345840324367
-0.4517000000000001,-81.57225355021802
-0.4527,-81.91178426218562
-0.4537000000000001,-82.43522744313569
-0.4547,-83.0011119630817
-0.4557000000000001,-83.52455514403178
-0.4567,-83.87823296899803
-0.4577000000000001,-84.13288100297372
-0.4587,-84.31679347195619
-0.4597000000000001,-84.7129126359184
-0.4607,-85.17976736487385
-0.4617000000000001,-85.70321054582392
-0.4627,-86.18421238777805
-0.4637000000000001,-86.75009690772404
-0.4647,-87.41501121866061
-0.4657000000000001,-88.23554377258235
-0.4667,-88.94289942251486
-0.4677000000000001,-89.28243013448247
-0.4687,-89.23998879548651
-0.4697000000000001,-89.36731281247435
-0.4707,-90.03222712341093
-0.4717000000000001,-91.12155482430701
-0.4727,-92.3806478811869
-0.4737000000000001,-93.25776888710321
-0.4747,-93.69632939006138
-0.4757000000000001,-94.03586010202899
-0.4767,-94.4319792659912
-0.4777000000000001,-94.91298110794531
-0.4787,-95.52130696688728
-0.4797000000000001,-96.21451550382113
-0.4807,-97.13407784873341
-0.48170000000000013,-98.09608153264163
-0.4827,-98.93076119956201
-0.48370000000000013,-99.53908705850398
-0.4847,-100.10497157844999
-0.48570000000000013,-100.84062145437981
-0.4867,-100.62841475940007
-0.48570000000000013,-98.88831986056607
-0.4847,-97.36043165671182
-0.48370000000000013,-95.95986746984543
-0.4827,-94.70077441296557
-0.48170000000000013,-93.46997558208298
-0.4807,-92.29576520319499
-0.4797000000000001,-91.16399616330297
-0.4787,-90.07466846240689
-0.4777000000000001,-88.9853407615108
-0.4767,-88.02333707760259
-0.4757000000000001,-87.10377473269031
-0.4747,-86.18421238777805
-0.4737000000000001,-85.27879715586442
-0.4727,-84.44411748894404
-0.4717000000000001,-83.79335029100612
-0.4707,-82.78890526810196
-0.4697000000000001,-81.43078242023151
-0.4687,-80.00192400736783
-0.4677000000000001,-78.99747898446365
-0.4667,-78.47403580351359
-0.4657000000000001,-77.86570994457162
-0.4647,-77.0734716166472
-0.4637000000000001,-76.11146793273898
-0.4627,-75.14946424883075
-0.4617000000000001,-74.20160767792116
-0.4607,-73.23960399401295
