Dec. 13, 2024   06:16:43
Cyclic Voltammetry
File: c:/users/guazh/data/banditlqround7_x0exp59_r20/2024-12-09-exp645\exp645-2024-12-13t06_06_13-arkoh\exp645_cv_sr_300mvs_efin_-1500mv.bin
Data Source:  Experiment
Instrument Model:  CHI760E
Header: CV ran at 300 mVs
Note: 

Init E (V) = -1
High E (V) = -1
Low E (V) = -1.5
Final E (V) = -1
Init P/N = N
Scan Rate (V/s) = 0.3
Segment = 3
Sample Interval (V) = 0.001
Quiet Time (sec) = 2
Sensitivity (A/V) = 0.01
Comp R (ohm) = 1.3

Results:

Channel 1:
Segment 1:
Ep = -1.385V
ip = 4.604e-4A
Ah = 2.509e-4C

Segment 2:

Segment 3:

Potential/V, Current/A

-1.000, -4.407e-4
-1.001, -3.544e-4
-1.002, -2.835e-4
-1.003, -2.218e-4
-1.004, -1.571e-4
-1.005, -9.542e-5
-1.006, -3.684e-5
-1.007, 6.322e-6
-1.008, 4.949e-5
-1.009, 9.573e-5
-1.010, 1.451e-4
-1.011, 1.851e-4
-1.012, 2.191e-4
-1.013, 2.499e-4
-1.014, 2.838e-4
-1.015, 3.239e-4
-1.016, 3.578e-4
-1.017, 3.855e-4
-1.018, 4.071e-4
-1.019, 4.380e-4
-1.020, 4.719e-4
-1.021, 4.996e-4
-1.022, 5.181e-4
-1.023, 5.397e-4
-1.024, 5.674e-4
-1.025, 5.983e-4
-1.026, 6.229e-4
-1.027, 6.384e-4
-1.028, 6.569e-4
-1.029, 6.784e-4
-1.030, 7.062e-4
-1.031, 7.278e-4
-1.032, 7.432e-4
-1.033, 7.586e-4
-1.034, 7.771e-4
-1.035, 7.987e-4
-1.036, 8.203e-4
-1.037, 8.326e-4
-1.038, 8.449e-4
-1.039, 8.634e-4
-1.040, 8.881e-4
-1.041, 9.066e-4
-1.042, 9.189e-4
-1.043, 9.282e-4
-1.044, 9.467e-4
-1.045, 9.652e-4
-1.046, 9.806e-4
-1.047, 9.929e-4
-1.048, 1.005e-3
-1.049, 1.024e-3
-1.050, 1.045e-3
-1.051, 1.058e-3
-1.052, 1.067e-3
-1.053, 1.073e-3
-1.054, 1.095e-3
-1.055, 1.116e-3
-1.056, 1.132e-3
-1.057, 1.141e-3
-1.058, 1.147e-3
-1.059, 1.159e-3
-1.060, 1.181e-3
-1.061, 1.199e-3
-1.062, 1.212e-3
-1.063, 1.218e-3
-1.064, 1.230e-3
-1.065, 1.243e-3
-1.066, 1.261e-3
-1.067, 1.270e-3
-1.068, 1.283e-3
-1.069, 1.298e-3
-1.070, 1.314e-3
-1.071, 1.326e-3
-1.072, 1.332e-3
-1.073, 1.341e-3
-1.074, 1.357e-3
-1.075, 1.378e-3
-1.076, 1.397e-3
-1.077, 1.406e-3
-1.078, 1.412e-3
-1.079, 1.421e-3
-1.080, 1.437e-3
-1.081, 1.452e-3
-1.082, 1.465e-3
-1.083, 1.474e-3
-1.084, 1.489e-3
-1.085, 1.508e-3
-1.086, 1.520e-3
-1.087, 1.523e-3
-1.088, 1.529e-3
-1.089, 1.548e-3
-1.090, 1.569e-3
-1.091, 1.588e-3
-1.092, 1.597e-3
-1.093, 1.603e-3
-1.094, 1.616e-3
-1.095, 1.634e-3
-1.096, 1.647e-3
-1.097, 1.656e-3
-1.098, 1.665e-3
-1.099, 1.684e-3
-1.100, 1.708e-3
-1.101, 1.724e-3
-1.102, 1.730e-3
-1.103, 1.727e-3
-1.104, 1.733e-3
-1.105, 1.745e-3
-1.106, 1.764e-3
-1.107, 1.788e-3
-1.108, 1.810e-3
-1.109, 1.828e-3
-1.110, 1.838e-3
-1.111, 1.838e-3
-1.112, 1.838e-3
-1.113, 1.850e-3
-1.114, 1.878e-3
-1.115, 1.912e-3
-1.116, 1.933e-3
-1.117, 1.939e-3
-1.118, 1.936e-3
-1.119, 1.943e-3
-1.120, 1.955e-3
-1.121, 1.973e-3
-1.122, 1.992e-3
-1.123, 2.010e-3
-1.124, 2.032e-3
-1.125, 2.050e-3
-1.126, 2.063e-3
-1.127, 2.066e-3
-1.128, 2.072e-3
-1.129, 2.087e-3
-1.130, 2.115e-3
-1.131, 2.134e-3
-1.132, 2.143e-3
-1.133, 2.146e-3
-1.134, 2.158e-3
-1.135, 2.177e-3
-1.136, 2.192e-3
-1.137, 2.205e-3
-1.138, 2.217e-3
-1.139, 2.238e-3
-1.140, 2.266e-3
-1.141, 2.285e-3
-1.142, 2.291e-3
-1.143, 2.297e-3
-1.144, 2.309e-3
-1.145, 2.328e-3
-1.146, 2.346e-3
-1.147, 2.362e-3
-1.148, 2.377e-3
-1.149, 2.393e-3
-1.150, 2.405e-3
-1.151, 2.414e-3
-1.152, 2.417e-3
-1.153, 2.427e-3
-1.154, 2.454e-3
-1.155, 2.476e-3
-1.156, 2.494e-3
-1.157, 2.504e-3
-1.158, 2.513e-3
-1.159, 2.531e-3
-1.160, 2.553e-3
-1.161, 2.575e-3
-1.162, 2.584e-3
-1.163, 2.596e-3
-1.164, 2.608e-3
-1.165, 2.624e-3
-1.166, 2.636e-3
-1.167, 2.649e-3
-1.168, 2.664e-3
-1.169, 2.689e-3
-1.170, 2.716e-3
-1.171, 2.729e-3
-1.172, 2.735e-3
-1.173, 2.741e-3
-1.174, 2.766e-3
-1.175, 2.797e-3
-1.176, 2.815e-3
-1.177, 2.824e-3
-1.178, 2.830e-3
-1.179, 2.843e-3
-1.180, 2.861e-3
-1.181, 2.880e-3
-1.182, 2.898e-3
-1.183, 2.917e-3
-1.184, 2.945e-3
-1.185, 2.957e-3
-1.186, 2.963e-3
-1.187, 2.960e-3
-1.188, 2.972e-3
-1.189, 2.997e-3
-1.190, 3.028e-3
-1.191, 3.043e-3
-1.192, 3.046e-3
-1.193, 3.049e-3
-1.194, 3.065e-3
-1.195, 3.083e-3
-1.196, 3.111e-3
-1.197, 3.130e-3
-1.198, 3.142e-3
-1.199, 3.163e-3
-1.200, 3.185e-3
-1.201, 3.207e-3
-1.202, 3.210e-3
-1.203, 3.207e-3
-1.204, 3.213e-3
-1.205, 3.231e-3
-1.206, 3.256e-3
-1.207, 3.281e-3
-1.208, 3.302e-3
-1.209, 3.327e-3
-1.210, 3.342e-3
-1.211, 3.351e-3
-1.212, 3.351e-3
-1.213, 3.358e-3
-1.214, 3.385e-3
-1.215, 3.416e-3
-1.216, 3.441e-3
-1.217, 3.447e-3
-1.218, 3.447e-3
-1.219, 3.459e-3
-1.220, 3.481e-3
-1.221, 3.503e-3
-1.222, 3.518e-3
-1.223, 3.533e-3
-1.224, 3.558e-3
-1.225, 3.583e-3
-1.226, 3.604e-3
-1.227, 3.617e-3
-1.228, 3.629e-3
-1.229, 3.644e-3
-1.230, 3.666e-3
-1.231, 3.691e-3
-1.232, 3.706e-3
-1.233, 3.718e-3
-1.234, 3.734e-3
-1.235, 3.746e-3
-1.236, 3.758e-3
-1.237, 3.768e-3
-1.238, 3.783e-3
-1.239, 3.823e-3
-1.240, 3.860e-3
-1.241, 3.882e-3
-1.242, 3.882e-3
-1.243, 3.879e-3
-1.244, 3.891e-3
-1.245, 3.919e-3
-1.246, 3.950e-3
-1.247, 3.968e-3
-1.248, 3.980e-3
-1.249, 3.999e-3
-1.250, 4.014e-3
-1.251, 4.033e-3
-1.252, 4.042e-3
-1.253, 4.054e-3
-1.254, 4.085e-3
-1.255, 4.122e-3
-1.256, 4.147e-3
-1.257, 4.159e-3
-1.258, 4.156e-3
-1.259, 4.162e-3
-1.260, 4.178e-3
-1.261, 4.196e-3
-1.262, 4.218e-3
-1.263, 4.249e-3
-1.264, 4.286e-3
-1.265, 4.317e-3
-1.266, 4.332e-3
-1.267, 4.338e-3
-1.268, 4.347e-3
-1.269, 4.363e-3
-1.270, 4.391e-3
-1.271, 4.421e-3
-1.272, 4.449e-3
-1.273, 4.468e-3
-1.274, 4.477e-3
-1.275, 4.489e-3
-1.276, 4.501e-3
-1.277, 4.517e-3
-1.278, 4.545e-3
-1.279, 4.582e-3
-1.280, 4.616e-3
-1.281, 4.628e-3
-1.282, 4.628e-3
-1.283, 4.634e-3
-1.284, 4.653e-3
-1.285, 4.686e-3
-1.286, 4.717e-3
-1.287, 4.742e-3
-1.288, 4.751e-3
-1.289, 4.764e-3
-1.290, 4.782e-3
-1.291, 4.801e-3
-1.292, 4.819e-3
-1.293, 4.838e-3
-1.294, 4.865e-3
-1.295, 4.896e-3
-1.296, 4.924e-3
-1.297, 4.939e-3
-1.298, 4.949e-3
-1.299, 4.961e-3
-1.300, 4.976e-3
-1.301, 4.995e-3
-1.302, 5.019e-3
-1.303, 5.047e-3
-1.304, 5.075e-3
-1.305, 5.100e-3
-1.306, 5.121e-3
-1.307, 5.134e-3
-1.308, 5.143e-3
-1.309, 5.155e-3
-1.310, 5.177e-3
-1.311, 5.198e-3
-1.312, 5.217e-3
-1.313, 5.241e-3
-1.314, 5.269e-3
-1.315, 5.294e-3
-1.316, 5.306e-3
-1.317, 5.312e-3
-1.318, 5.328e-3
-1.319, 5.359e-3
-1.320, 5.393e-3
-1.321, 5.417e-3
-1.322, 5.430e-3
-1.323, 5.445e-3
-1.324, 5.460e-3
-1.325, 5.479e-3
-1.326, 5.504e-3
-1.327, 5.522e-3
-1.328, 5.541e-3
-1.329, 5.556e-3
-1.330, 5.562e-3
-1.331, 5.574e-3
-1.332, 5.593e-3
-1.333, 5.624e-3
-1.334, 5.655e-3
-1.335, 5.682e-3
-1.336, 5.701e-3
-1.337, 5.710e-3
-1.338, 5.725e-3
-1.339, 5.741e-3
-1.340, 5.766e-3
-1.341, 5.784e-3
-1.342, 5.787e-3
-1.343, 5.787e-3
-1.344, 5.803e-3
-1.345, 5.833e-3
-1.346, 5.864e-3
-1.347, 5.883e-3
-1.348, 5.892e-3
-1.349, 5.901e-3
-1.350, 5.914e-3
-1.351, 5.926e-3
-1.352, 5.935e-3
-1.353, 5.951e-3
-1.354, 5.975e-3
-1.355, 5.997e-3
-1.356, 6.009e-3
-1.357, 6.015e-3
-1.358, 6.025e-3
-1.359, 6.034e-3
-1.360, 6.043e-3
-1.361, 6.052e-3
-1.362, 6.065e-3
-1.363, 6.086e-3
-1.364, 6.111e-3
-1.365, 6.123e-3
-1.366, 6.123e-3
-1.367, 6.108e-3
-1.368, 6.102e-3
-1.369, 6.114e-3
-1.370, 6.142e-3
-1.371, 6.163e-3
-1.372, 6.166e-3
-1.373, 6.160e-3
-1.374, 6.169e-3
-1.375, 6.185e-3
-1.376, 6.197e-3
-1.377, 6.194e-3
-1.378, 6.182e-3
-1.379, 6.173e-3
-1.380, 6.173e-3
-1.381, 6.179e-3
-1.382, 6.182e-3
-1.383, 6.191e-3
-1.384, 6.197e-3
-1.385, 6.203e-3
-1.386, 6.200e-3
-1.387, 6.191e-3
-1.388, 6.182e-3
-1.389, 6.182e-3
-1.390, 6.191e-3
-1.391, 6.197e-3
-1.392, 6.191e-3
-1.393, 6.169e-3
-1.394, 6.148e-3
-1.395, 6.142e-3
-1.396, 6.151e-3
-1.397, 6.157e-3
-1.398, 6.154e-3
-1.399, 6.145e-3
-1.400, 6.126e-3
-1.401, 6.102e-3
-1.402, 6.083e-3
-1.403, 6.086e-3
-1.404, 6.095e-3
-1.405, 6.099e-3
-1.406, 6.080e-3
-1.407, 6.049e-3
-1.408, 6.021e-3
-1.409, 6.009e-3
-1.410, 6.012e-3
-1.411, 6.009e-3
-1.412, 6.003e-3
-1.413, 5.988e-3
-1.414, 5.975e-3
-1.415, 5.960e-3
-1.416, 5.938e-3
-1.417, 5.914e-3
-1.418, 5.898e-3
-1.419, 5.892e-3
-1.420, 5.898e-3
-1.421, 5.892e-3
-1.422, 5.864e-3
-1.423, 5.821e-3
-1.424, 5.787e-3
-1.425, 5.781e-3
-1.426, 5.787e-3
-1.427, 5.793e-3
-1.428, 5.784e-3
-1.429, 5.775e-3
-1.430, 5.753e-3
-1.431, 5.722e-3
-1.432, 5.692e-3
-1.433, 5.673e-3
-1.434, 5.673e-3
-1.435, 5.676e-3
-1.436, 5.670e-3
-1.437, 5.655e-3
-1.438, 5.633e-3
-1.439, 5.624e-3
-1.440, 5.627e-3
-1.441, 5.636e-3
-1.442, 5.630e-3
-1.443, 5.618e-3
-1.444, 5.602e-3
-1.445, 5.593e-3
-1.446, 5.590e-3
-1.447, 5.590e-3
-1.448, 5.587e-3
-1.449, 5.587e-3
-1.450, 5.596e-3
-1.451, 5.611e-3
-1.452, 5.618e-3
-1.453, 5.627e-3
-1.454, 5.633e-3
-1.455, 5.627e-3
-1.456, 5.621e-3
-1.457, 5.618e-3
-1.458, 5.633e-3
-1.459, 5.682e-3
-1.460, 5.735e-3
-1.461, 5.759e-3
-1.462, 5.756e-3
-1.463, 5.747e-3
-1.464, 5.747e-3
-1.465, 5.766e-3
-1.466, 5.790e-3
-1.467, 5.827e-3
-1.468, 5.867e-3
-1.469, 5.904e-3
-1.470, 5.929e-3
-1.471, 5.947e-3
-1.472, 5.960e-3
-1.473, 5.988e-3
-1.474, 6.021e-3
-1.475, 6.058e-3
-1.476, 6.092e-3
-1.477, 6.132e-3
-1.478, 6.179e-3
-1.479, 6.237e-3
-1.480, 6.287e-3
-1.481, 6.311e-3
-1.482, 6.308e-3
-1.483, 6.317e-3
-1.484, 6.364e-3
-1.485, 6.441e-3
-1.486, 6.530e-3
-1.487, 6.592e-3
-1.488, 6.623e-3
-1.489, 6.647e-3
-1.490, 6.675e-3
-1.491, 6.709e-3
-1.492, 6.752e-3
-1.493, 6.801e-3
-1.494, 6.866e-3
-1.495, 6.934e-3
-1.496, 6.993e-3
-1.497, 7.036e-3
-1.498, 7.076e-3
-1.499, 7.128e-3
-1.500, 7.113e-3
-1.499, 6.990e-3
-1.498, 6.882e-3
-1.497, 6.783e-3
-1.496, 6.694e-3
-1.495, 6.607e-3
-1.494, 6.524e-3
-1.493, 6.444e-3
-1.492, 6.367e-3
-1.491, 6.290e-3
-1.490, 6.222e-3
-1.489, 6.157e-3
-1.488, 6.092e-3
-1.487, 6.028e-3
-1.486, 5.969e-3
-1.485, 5.923e-3
-1.484, 5.852e-3
-1.483, 5.756e-3
-1.482, 5.655e-3
-1.481, 5.584e-3
-1.480, 5.547e-3
-1.479, 5.504e-3
-1.478, 5.448e-3
-1.477, 5.380e-3
-1.476, 5.312e-3
-1.475, 5.245e-3
-1.474, 5.177e-3
-1.473, 5.112e-3
-1.472, 5.050e-3
-1.471, 5.001e-3
-1.470, 4.945e-3
-1.469, 4.881e-3
-1.468, 4.804e-3
-1.467, 4.742e-3
-1.466, 4.696e-3
-1.465, 4.653e-3
-1.464, 4.603e-3
-1.463, 4.538e-3
-1.462, 4.474e-3
-1.461, 4.415e-3
-1.460, 4.369e-3
-1.459, 4.329e-3
-1.458, 4.280e-3
-1.457, 4.215e-3
-1.456, 4.147e-3
-1.455, 4.082e-3
-1.454, 4.021e-3
-1.453, 3.956e-3
-1.452, 3.891e-3
-1.451, 3.842e-3
-1.450, 3.799e-3
-1.449, 3.758e-3
-1.448, 3.737e-3
-1.447, 3.703e-3
-1.446, 3.654e-3
-1.445, 3.586e-3
-1.444, 3.512e-3
-1.443, 3.435e-3
-1.442, 3.364e-3
-1.441, 3.321e-3
-1.440, 3.302e-3
-1.439, 3.271e-3
-1.438, 3.228e-3
-1.437, 3.167e-3
-1.436, 3.108e-3
-1.435, 3.059e-3
-1.434, 3.003e-3
-1.433, 2.948e-3
-1.432, 2.895e-3
-1.431, 2.855e-3
-1.430, 2.806e-3
-1.429, 2.756e-3
-1.428, 2.707e-3
-1.427, 2.655e-3
-1.426, 2.612e-3
-1.425, 2.578e-3
-1.424, 2.544e-3
-1.423, 2.494e-3
-1.422, 2.439e-3
-1.421, 2.386e-3
-1.420, 2.340e-3
-1.419, 2.300e-3
-1.418, 2.260e-3
-1.417, 2.223e-3
-1.416, 2.192e-3
-1.415, 2.158e-3
-1.414, 2.112e-3
-1.413, 2.060e-3
-1.412, 2.007e-3
-1.411, 1.970e-3
-1.410, 1.939e-3
-1.409, 1.909e-3
-1.408, 1.869e-3
-1.407, 1.825e-3
-1.406, 1.779e-3
-1.405, 1.739e-3
-1.404, 1.699e-3
-1.403, 1.665e-3
-1.402, 1.634e-3
-1.401, 1.597e-3
-1.400, 1.560e-3
-1.399, 1.520e-3
-1.398, 1.474e-3
-1.397, 1.437e-3
-1.396, 1.409e-3
-1.395, 1.391e-3
-1.394, 1.360e-3
-1.393, 1.314e-3
-1.392, 1.264e-3
-1.391, 1.227e-3
-1.390, 1.203e-3
-1.389, 1.178e-3
-1.388, 1.144e-3
-1.387, 1.107e-3
-1.386, 1.073e-3
-1.385, 1.042e-3
-1.384, 1.014e-3
-1.383, 9.775e-4
-1.382, 9.436e-4
-1.381, 9.158e-4
-1.380, 8.881e-4
-1.379, 8.573e-4
-1.378, 8.203e-4
-1.377, 7.833e-4
-1.376, 7.555e-4
-1.375, 7.370e-4
-1.374, 7.154e-4
-1.373, 6.846e-4
-1.372, 6.476e-4
-1.371, 6.168e-4
-1.370, 5.952e-4
-1.369, 5.705e-4
-1.368, 5.428e-4
-1.367, 5.089e-4
-1.366, 4.842e-4
-1.365, 4.657e-4
-1.364, 4.410e-4
-1.363, 4.133e-4
-1.362, 3.825e-4
-1.361, 3.578e-4
-1.360, 3.393e-4
-1.359, 3.177e-4
-1.358, 2.900e-4
-1.357, 2.591e-4
-1.356, 2.376e-4
-1.355, 2.221e-4
-1.354, 2.006e-4
-1.353, 1.759e-4
-1.352, 1.451e-4
-1.351, 1.204e-4
-1.350, 1.050e-4
-1.349, 8.957e-5
-1.348, 6.490e-5
-1.347, 3.715e-5
-1.346, 1.865e-5
-1.345, 3.239e-6
-1.344, -1.526e-5
-1.343, -4.301e-5
-1.342, -6.767e-5
-1.341, -8.617e-5
-1.340, -9.850e-5
-1.339, -1.139e-4
-1.338, -1.386e-4
-1.337, -1.602e-4
-1.336, -1.787e-4
-1.335, -1.941e-4
-1.334, -2.064e-4
-1.333, -2.280e-4
-1.332, -2.527e-4
-1.331, -2.712e-4
-1.330, -2.835e-4
-1.329, -2.989e-4
-1.328, -3.174e-4
-1.327, -3.421e-4
-1.326, -3.575e-4
-1.325, -3.667e-4
-1.324, -3.791e-4
-1.323, -3.976e-4
-1.322, -4.191e-4
-1.321, -4.346e-4
-1.320, -4.438e-4
-1.319, -4.561e-4
-1.318, -4.716e-4
-1.317, -4.962e-4
-1.316, -5.116e-4
-1.315, -5.209e-4
-1.314, -5.301e-4
-1.313, -5.456e-4
-1.312, -5.641e-4
-1.311, -5.795e-4
-1.310, -5.887e-4
-1.309, -5.949e-4
-1.308, -6.134e-4
-1.307, -6.319e-4
-1.306, -6.442e-4
-1.305, -6.535e-4
-1.304, -6.627e-4
-1.303, -6.812e-4
-1.302, -6.966e-4
-1.301, -7.028e-4
-1.300, -7.090e-4
-1.299, -7.182e-4
-1.298, -7.367e-4
-1.297, -7.583e-4
-1.296, -7.675e-4
-1.295, -7.675e-4
-1.294, -7.737e-4
-1.293, -7.891e-4
-1.292, -8.107e-4
-1.291, -8.230e-4
-1.290, -8.323e-4
-1.289, -8.385e-4
-1.288, -8.508e-4
-1.287, -8.631e-4
-1.286, -8.754e-4
-1.285, -8.847e-4
-1.284, -8.939e-4
-1.283, -9.063e-4
-1.282, -9.217e-4
-1.281, -9.279e-4
-1.280, -9.309e-4
-1.279, -9.340e-4
-1.278, -9.494e-4
-1.277, -9.649e-4
-1.276, -9.772e-4
-1.275, -9.803e-4
-1.274, -9.864e-4
-1.273, -9.957e-4
-1.272, -1.008e-3
-1.271, -1.017e-3
-1.270, -1.020e-3
-1.269, -1.027e-3
-1.268, -1.042e-3
-1.267, -1.060e-3
-1.266, -1.070e-3
-1.265, -1.073e-3
-1.264, -1.070e-3
-1.263, -1.079e-3
-1.262, -1.088e-3
-1.261, -1.097e-3
-1.260, -1.107e-3
-1.259, -1.116e-3
-1.258, -1.128e-3
-1.257, -1.141e-3
-1.256, -1.144e-3
-1.255, -1.144e-3
-1.254, -1.147e-3
-1.253, -1.162e-3
-1.252, -1.181e-3
-1.251, -1.190e-3
-1.250, -1.187e-3
-1.249, -1.187e-3
-1.248, -1.196e-3
-1.247, -1.212e-3
-1.246, -1.221e-3
-1.245, -1.227e-3
-1.244, -1.233e-3
-1.243, -1.242e-3
-1.242, -1.255e-3
-1.241, -1.261e-3
-1.240, -1.264e-3
-1.239, -1.270e-3
-1.238, -1.282e-3
-1.237, -1.298e-3
-1.236, -1.301e-3
-1.235, -1.295e-3
-1.234, -1.298e-3
-1.233, -1.316e-3
-1.232, -1.335e-3
-1.231, -1.341e-3
-1.230, -1.341e-3
-1.229, -1.341e-3
-1.228, -1.353e-3
-1.227, -1.369e-3
-1.226, -1.372e-3
-1.225, -1.375e-3
-1.224, -1.375e-3
-1.223, -1.384e-3
-1.222, -1.393e-3
-1.221, -1.403e-3
-1.220, -1.406e-3
-1.219, -1.412e-3
-1.218, -1.421e-3
-1.217, -1.433e-3
-1.216, -1.440e-3
-1.215, -1.446e-3
-1.214, -1.452e-3
-1.213, -1.464e-3
-1.212, -1.474e-3
-1.211, -1.474e-3
-1.210, -1.474e-3
-1.209, -1.480e-3
-1.208, -1.489e-3
-1.207, -1.507e-3
-1.206, -1.514e-3
-1.205, -1.514e-3
-1.204, -1.514e-3
-1.203, -1.523e-3
-1.202, -1.538e-3
-1.201, -1.557e-3
-1.200, -1.560e-3
-1.199, -1.566e-3
-1.198, -1.575e-3
-1.197, -1.585e-3
-1.196, -1.588e-3
-1.195, -1.585e-3
-1.194, -1.591e-3
-1.193, -1.609e-3
-1.192, -1.631e-3
-1.191, -1.637e-3
-1.190, -1.637e-3
-1.189, -1.634e-3
-1.188, -1.643e-3
-1.187, -1.659e-3
-1.186, -1.668e-3
-1.185, -1.671e-3
-1.184, -1.680e-3
-1.183, -1.696e-3
-1.182, -1.708e-3
-1.181, -1.711e-3
-1.180, -1.711e-3
-1.179, -1.714e-3
-1.178, -1.726e-3
-1.177, -1.742e-3
-1.176, -1.748e-3
-1.175, -1.751e-3
-1.174, -1.760e-3
-1.173, -1.776e-3
-1.172, -1.791e-3
-1.171, -1.800e-3
-1.170, -1.800e-3
-1.169, -1.803e-3
-1.168, -1.813e-3
-1.167, -1.831e-3
-1.166, -1.837e-3
-1.165, -1.844e-3
-1.164, -1.850e-3
-1.163, -1.862e-3
-1.162, -1.877e-3
-1.161, -1.887e-3
-1.160, -1.890e-3
-1.159, -1.896e-3
-1.158, -1.908e-3
-1.157, -1.927e-3
-1.156, -1.942e-3
-1.155, -1.948e-3
-1.154, -1.958e-3
-1.153, -1.967e-3
-1.152, -1.982e-3
-1.151, -1.992e-3
-1.150, -1.998e-3
-1.149, -2.001e-3
-1.148, -2.016e-3
-1.147, -2.038e-3
-1.146, -2.053e-3
-1.145, -2.059e-3
-1.144, -2.066e-3
-1.143, -2.078e-3
-1.142, -2.096e-3
-1.141, -2.109e-3
-1.140, -2.115e-3
-1.139, -2.124e-3
-1.138, -2.136e-3
-1.137, -2.152e-3
-1.136, -2.161e-3
-1.135, -2.170e-3
-1.134, -2.183e-3
-1.133, -2.201e-3
-1.132, -2.220e-3
-1.131, -2.229e-3
-1.130, -2.232e-3
-1.129, -2.241e-3
-1.128, -2.260e-3
-1.127, -2.281e-3
-1.126, -2.294e-3
-1.125, -2.303e-3
-1.124, -2.312e-3
-1.123, -2.328e-3
-1.122, -2.343e-3
-1.121, -2.355e-3
-1.120, -2.365e-3
-1.119, -2.380e-3
-1.118, -2.399e-3
-1.117, -2.420e-3
-1.116, -2.432e-3
-1.115, -2.442e-3
-1.114, -2.457e-3
-1.113, -2.476e-3
-1.112, -2.497e-3
-1.111, -2.506e-3
-1.110, -2.516e-3
-1.109, -2.528e-3
-1.108, -2.553e-3
-1.107, -2.577e-3
-1.106, -2.599e-3
-1.105, -2.614e-3
-1.104, -2.627e-3
-1.103, -2.648e-3
-1.102, -2.667e-3
-1.101, -2.679e-3
-1.100, -2.688e-3
-1.099, -2.707e-3
-1.098, -2.735e-3
-1.097, -2.772e-3
-1.096, -2.793e-3
-1.095, -2.802e-3
-1.094, -2.809e-3
-1.093, -2.827e-3
-1.092, -2.852e-3
-1.091, -2.876e-3
-1.090, -2.950e-3
-1.089, -2.984e-3
-1.088, -3.006e-3
-1.087, -3.043e-3
-1.086, -3.034e-3
-1.085, -3.055e-3
-1.084, -3.068e-3
-1.083, -3.092e-3
-1.082, -3.111e-3
-1.081, -3.129e-3
-1.080, -3.151e-3
-1.079, -3.179e-3
-1.078, -3.212e-3
-1.077, -3.240e-3
-1.076, -3.259e-3
-1.075, -3.268e-3
-1.074, -3.280e-3
-1.073, -3.302e-3
-1.072, -3.330e-3
-1.071, -3.364e-3
-1.070, -3.388e-3
-1.069, -3.410e-3
-1.068, -3.441e-3
-1.067, -3.468e-3
-1.066, -3.487e-3
-1.065, -3.502e-3
-1.064, -3.518e-3
-1.063, -3.539e-3
-1.062, -3.570e-3
-1.061, -3.604e-3
-1.060, -3.638e-3
-1.059, -3.659e-3
-1.058, -3.675e-3
-1.057, -3.690e-3
-1.056, -3.706e-3
-1.055, -3.724e-3
-1.054, -3.746e-3
-1.053, -3.774e-3
-1.052, -3.807e-3
-1.051, -3.844e-3
-1.050, -3.863e-3
-1.049, -3.869e-3
-1.048, -3.878e-3
-1.047, -3.900e-3
-1.046, -3.925e-3
-1.045, -3.949e-3
-1.044, -3.980e-3
-1.043, -4.020e-3
-1.042, -4.051e-3
-1.041, -4.073e-3
-1.040, -4.079e-3
-1.039, -4.082e-3
-1.038, -4.097e-3
-1.037, -4.131e-3
-1.036, -4.168e-3
-1.035, -4.196e-3
-1.034, -4.221e-3
-1.033, -4.242e-3
-1.032, -4.261e-3
-1.031, -4.273e-3
-1.030, -4.279e-3
-1.029, -4.292e-3
-1.028, -4.319e-3
-1.027, -4.353e-3
-1.026, -4.387e-3
-1.025, -4.412e-3
-1.024, -4.430e-3
-1.023, -4.449e-3
-1.022, -4.464e-3
-1.021, -4.477e-3
-1.020, -4.483e-3
-1.019, -4.498e-3
-1.018, -4.529e-3
-1.017, -4.566e-3
-1.016, -4.594e-3
-1.015, -4.606e-3
-1.014, -4.615e-3
-1.013, -4.625e-3
-1.012, -4.643e-3
-1.011, -4.662e-3
-1.010, -4.680e-3
-1.009, -4.705e-3
-1.008, -4.732e-3
-1.007, -4.757e-3
-1.006, -4.776e-3
-1.005, -4.782e-3
-1.004, -4.791e-3
-1.003, -4.813e-3
-1.002, -4.840e-3
-1.001, -4.859e-3
