Potential V vs RHE, Current mA cm-2
0.013299999999999867,6.410056899688482
0.012299999999999978,5.145304997609139
0.011299999999999866,3.9668504848215624
0.010299999999999976,2.8322520223298033
0.009299999999999864,1.8292217107254924
0.008299999999999974,0.9137620285828272
0.007299999999999862,0.12863969849672777
0.006299999999999972,-0.6128529351015338
0.00529999999999986,-1.3980177065266295
0.0042999999999999705,-2.1828995356917518
0.0032999999999998586,-2.924208256821031
0.0022999999999999687,-3.623075638954359
0.0012999999999998568,-4.1889601589003735
0.00029999999999996696,-4.756259390146253
-0.000700000000000145,-5.279702571096316
-0.0017000000000000348,-5.847001802342197
-0.0027000000000001467,-6.458157083883892
-0.0037000000000000366,-7.024041603829907
-0.0047000000000001485,-7.50504344578402
-0.005700000000000038,-7.940774526142452
-0.00670000000000015,-8.332649556205066
-0.00770000000000004,-8.769795347863363
-0.008700000000000152,-9.24938247851761
-0.009700000000000042,-9.772825659467674
-0.010700000000000154,-10.208556739826104
-0.011700000000000044,-10.557990430892769
-0.012700000000000156,-10.863568071663616
-0.013700000000000045,-11.1677310011346
-0.014700000000000157,-11.56102074249708
-0.015700000000000047,-11.996751822855511
-0.01670000000000016,-12.432482903213943
-0.01770000000000005,-12.825772644576423
-0.01870000000000016,-13.087494235051453
-0.01970000000000005,-13.349215825526485
-0.020700000000000163,-13.610937416001518
-0.021700000000000053,-13.960371107068182
-0.022700000000000164,-14.30273124163552
-0.023700000000000054,-14.65640906660178
-0.024700000000000166,-14.967645552572087
-0.025700000000000056,-15.179852247551842
-0.026700000000000168,-15.3920589425316
-0.027700000000000058,-15.70329542850191
-0.02870000000000017,-16.056973253468165
-0.02970000000000006,-16.396503965435777
-0.03070000000000017,-16.70774045140608
-0.03170000000000006,-16.919947146385837
-0.03270000000000017,-17.103859615368293
-0.03370000000000006,-17.2736249713521
-0.034700000000000175,-17.542420118326454
-0.035700000000000065,-17.839509491298113
-0.03670000000000018,-18.15074597726842
-0.03770000000000007,-18.44783535024008
-0.03870000000000018,-18.631747819222536
-0.03970000000000007,-18.80151317520634
-0.04070000000000018,-19.01371987018609
-0.04170000000000007,-19.28251501716045
-0.04270000000000018,-19.636192842126707
-0.04370000000000007,-19.93328221509837
-0.044700000000000184,-20.202077362072725
-0.045700000000000074,-20.371842718056527
-0.046700000000000186,-20.499166735044383
-0.047700000000000076,-20.683079204026836
-0.04870000000000019,-20.89528589900659
-0.04970000000000008,-21.149933932982297
-0.05070000000000019,-21.418729079956652
-0.05170000000000008,-21.63093577493641
-0.05270000000000019,-21.814848243918867
-0.05370000000000008,-21.98461359990267
-0.05470000000000019,-22.295850085872978
-0.05570000000000008,-22.592939458844636
-0.056700000000000195,-22.904175944814945
-0.057700000000000085,-23.073941300798747
-0.058700000000000196,-23.2012653177866
-0.059700000000000086,-23.24370665678255
-0.0607000000000002,-23.385177786769056
-0.06170000000000009,-23.639825820744765
-0.0627000000000002,-23.951062306715073
-0.06370000000000009,-24.20571034069078
-0.0647000000000002,-24.474505487665134
-0.06570000000000009,-24.686712182644893
-0.0667000000000002,-24.870624651627345
-0.0677000000000001,-25.0828313466071
-0.0687000000000002,-25.337479380582806
-0.0697000000000001,-25.60627452755716
-0.07070000000000021,-25.81848122253692
-0.0717000000000001,-25.959952352523427
-0.07270000000000021,-26.087276369511276
-0.0737000000000001,-26.257041725495082
-0.07470000000000021,-26.525836872469437
-0.0757000000000001,-26.822926245441096
-0.07670000000000021,-27.091721392415455
-0.0777000000000001,-27.34636942639116
-0.07870000000000021,-27.530281895373616
-0.0797000000000001,-27.65760591236147
-0.08070000000000022,-27.78492992934932
-0.0817000000000001,-28.011283737327723
-0.08270000000000022,-28.308373110299385
-0.08370000000000011,-28.577168257273744
-0.08470000000000022,-28.831816291249446
-0.08570000000000011,-29.001581647233255
-0.08670000000000022,-29.14305277721976
-0.08770000000000011,-29.27037679420761
-0.08870000000000022,-29.482583489187363
-0.08970000000000011,-29.751378636161718
-0.09070000000000022,-29.96358533114148
-0.09170000000000011,-30.189939139119886
-0.09270000000000023,-30.359704495103685
-0.09370000000000012,-30.571911190083444
-0.09470000000000023,-30.8407063370578
-0.09570000000000012,-31.137795710029454
-0.09670000000000023,-31.449032195999767
-0.09770000000000012,-31.661238890979522
-0.09870000000000023,-31.84515135996197
-0.09970000000000012,-31.972475376949827
-0.10070000000000023,-32.09979939393769
-0.10170000000000012,-32.32615320191609
-0.10270000000000024,-32.66568391388369
-0.10370000000000013,-32.97692039985401
-0.10470000000000024,-33.231568433829715
-0.10570000000000013,-33.41548090281216
-0.10670000000000024,-33.54280491980002
-0.10770000000000013,-33.712570275783825
-0.10870000000000024,-33.98136542275818
-0.10970000000000013,-34.278454795729836
-0.11070000000000024,-34.5472499427042
-0.11170000000000013,-34.67457395969205
-0.11270000000000002,-34.85848642867451
-0.11370000000000013,-35.07069312365426
-0.11470000000000002,-35.32534115762997
-0.11570000000000014,-35.679018982596226
-0.11670000000000003,-35.99025546856653
-0.11770000000000014,-36.244903502542236
-0.11870000000000003,-36.4288159715247
-0.11970000000000014,-36.64102266650445
-0.12070000000000003,-36.8532293614842
-0.12170000000000014,-37.206907186450465
-0.12270000000000003,-37.56058501141672
-0.12370000000000014,-37.77279170639648
-0.12470000000000003,-37.90011572338433
-0.12570000000000014,-38.12646953136274
-0.12670000000000003,-38.253793548350586
-0.12770000000000015,-38.46600024333035
-0.12870000000000004,-38.81967806829661
-0.12970000000000015,-39.21579723225882
-0.13070000000000004,-39.61191639622103
-0.13170000000000015,-39.86656443019674
-0.13270000000000004,-40.092918238175145
-0.13370000000000015,-40.135359577171094
-0.13470000000000004,-40.220242255162994
-0.13570000000000015,-40.43244895014274
-0.13670000000000004,-40.743685436113054
-0.13770000000000016,-41.04077480908471
-0.13870000000000005,-41.30956995605907
-0.13970000000000016,-41.52177665103883
-0.14070000000000005,-41.70568912002128
-0.14170000000000016,-42.00277849299294
-0.14270000000000005,-42.31401497896325
-0.14370000000000016,-42.568663012938956
-0.14470000000000005,-42.79501682091736
-0.14570000000000016,-43.007223515897124
-0.14670000000000005,-43.134547532884966
-0.14770000000000016,-43.31846000186743
-0.14870000000000005,-43.57310803584313
-0.14970000000000017,-43.92678586080939
-0.15070000000000006,-44.223875233781044
-0.15170000000000017,-44.4926703807554
-0.15270000000000006,-44.704877075735155
-0.15370000000000017,-44.97367222270952
-0.15470000000000006,-45.27076159568118
-0.15570000000000017,-45.581998081651484
-0.15670000000000006,-45.89323456762179
-0.15770000000000017,-46.19032394059345
-0.15870000000000006,-46.45911908756781
-0.15970000000000018,-46.67132578254756
-0.16070000000000007,-46.94012092952192
-0.16170000000000018,-47.23721030249357
-0.16270000000000007,-47.54844678846388
-0.16370000000000018,-47.80309482243959
-0.16470000000000007,-48.071889969413945
-0.16570000000000018,-48.2840966643937
-0.16670000000000007,-48.45386202037751
-0.16770000000000018,-48.68021582835591
-0.16870000000000007,-48.93486386233162
-0.16970000000000018,-49.24610034830193
-0.17070000000000007,-49.59977817326819
-0.17170000000000019,-49.89686754623985
-0.17270000000000008,-50.1656626932142
-0.1737000000000002,-50.42031072718991
-0.17470000000000008,-50.73154721316022
-0.1757000000000002,-51.028636586131874
-0.17670000000000008,-51.33987307210218
-0.1777000000000002,-51.55207976708194
-0.17870000000000008,-51.65110955807249
-0.1797000000000002,-51.73599223606439
-0.18070000000000008,-51.90575759204819
-0.1817000000000002,-52.17455273902255
-0.18270000000000008,-52.59896612898206
-0.1837000000000002,-53.03752663194023
-0.1847000000000001,-53.39120445690648
-0.1857000000000002,-53.64585249088219
-0.1867000000000001,-53.82976495986464
-0.1877000000000002,-54.0419716548444
-0.1887000000000001,-54.26832546282281
-0.1897000000000002,-54.56541483579447
-0.1907000000000001,-54.834209982768826
-0.1917000000000001,-55.003975338752625
-0.19269999999999998,-55.25862337272834
-0.1937000000000001,-55.527418519702685
-0.19469999999999998,-55.838655005673
-0.1957000000000001,-56.1781857176406
-0.19669999999999999,-56.489422203610914
-0.1977000000000001,-56.74407023758662
-0.1987,-56.97042404556503
-0.1997000000000001,-57.14018940154883
-0.2007,-57.408984548523186
-0.2017000000000001,-57.70607392149485
-0.2027,-57.974869068469204
-0.2037000000000001,-58.31439978043681
-0.2047,-58.54075358841522
-0.2057000000000001,-58.83784296138688
-0.2067,-59.06419676936528
-0.2077000000000001,-59.31884480334099
-0.2087,-59.67252262830725
-0.2097000000000001,-59.9696120012789
-0.2107,-60.32328982624517
-0.2117000000000001,-60.67696765121143
-0.2127,-60.889174346191176
-0.2137000000000001,-61.15796949316553
-0.2147,-61.37017618814529
-0.2157000000000001,-61.5965299961237
-0.2167,-61.80873669110345
-0.21770000000000012,-61.97850204708726
-0.2187,-62.11997317707376
-0.21970000000000012,-62.37462121104946
-0.2207,-62.72829903601572
-0.22170000000000012,-63.15271242597524
-0.2227,-63.59127292893339
-0.22370000000000012,-63.98739209289561
-0.2247,-64.34106991786187
-0.22570000000000012,-64.51083527384567
-0.2267,-64.59571795183757
-0.22770000000000012,-64.72304196882543
-0.22870000000000001,-64.99183711579978
-0.22970000000000013,-65.34551494076604
-0.23070000000000002,-65.68504565273366
-0.23170000000000013,-65.99628213870396
-0.23270000000000002,-66.20848883368372
-0.23370000000000013,-66.51972531965401
-0.23470000000000002,-66.87340314462028
-0.23570000000000013,-67.2978165345798
-0.23670000000000002,-67.73637703753796
-0.2376999999999999,-68.13249620150016
-0.23870000000000002,-68.34470289647993
-0.2396999999999999,-68.34470289647993
-0.24070000000000003,-68.38714423547587
-0.24169999999999991,-68.65593938245023
-0.24270000000000003,-69.13694122440434
-0.24369999999999992,-69.6603844053544
-0.24470000000000003,-70.09894490831257
-0.24569999999999992,-70.43847562028017
-0.24670000000000003,-70.74971210625048
-0.24769999999999992,-70.87703612323833
-0.24870000000000003,-71.10338993121674
-0.24969999999999992,-71.35803796519245
-0.25070000000000003,-71.66927445116276
-0.2516999999999999,-72.00880516313036
-0.25270000000000004,-72.32004164910067
-0.2536999999999999,-72.71616081306288
-0.25470000000000004,-73.0556915250305
-0.2556999999999999,-73.45181068899271
-0.25670000000000004,-73.97525386994278
-0.25769999999999993,-74.37137303390499
-0.25870000000000004,-74.62602106788069
-0.25969999999999993,-74.8523748758591
-0.26070000000000004,-75.02214023184291
-0.26169999999999993,-75.33337671781321
-0.26270000000000004,-75.71534876877676
-0.26369999999999993,-76.06902659374302
-0.26470000000000005,-76.46514575770523
-0.26569999999999994,-76.7622351306769
-0.26670000000000005,-77.03103027765125
-0.26769999999999994,-77.28567831162695
-0.26870000000000005,-77.59691479759726
-0.26969999999999994,-77.90815128356756
-0.27070000000000005,-78.20524065653922
-0.27169999999999994,-78.51647714250953
-0.27270000000000005,-78.77112517648524
-0.27369999999999994,-79.0399203234596
-0.27470000000000006,-79.33700969643127
-0.27569999999999995,-79.69068752139752
-0.27670000000000006,-80.04436534636378
-0.27769999999999995,-80.46877873632329
-0.27870000000000006,-80.86489790028548
-0.27969999999999995,-81.1761343862558
-0.28070000000000006,-81.43078242023151
-0.28169999999999995,-81.69957756720586
-0.28270000000000006,-81.99666694017753
-0.28369999999999995,-82.26546208715187
-0.28470000000000006,-82.35034476514379
-0.28569999999999995,-82.6615812511141
-0.28670000000000007,-83.18502443206415
-0.28769999999999996,-83.75090895201016
-0.28870000000000007,-84.27435213296022
-0.28969999999999996,-84.7977953139103
-0.29070000000000007,-84.96756066989411
-0.29169999999999996,-85.052443347886
-0.29270000000000007,-85.09488468688197
-0.29369999999999996,-85.13732602587791
-0.2947000000000001,-85.36367983385631
-0.29569999999999996,-85.75979899781852
-0.2967000000000001,-86.18421238777805
-0.29769999999999996,-86.66521422973216
-0.2987000000000001,-87.01889205469841
-0.29969999999999997,-87.41501121866061
-0.3007000000000001,-87.89601306061473
-0.30169999999999997,-88.46189758056073
-0.3027000000000001,-88.9004580835189
-0.30369999999999997,-89.19754745649055
-0.3047000000000001,-89.32487147347842
-0.30569999999999997,-89.28243013448247
-0.3067000000000001,-89.23998879548651
-0.3077,-89.46634260346492
-0.3087000000000001,-89.84831465442848
-0.3097,-90.41419917437449
-0.3107000000000001,-91.03667214631511
-0.3117,-91.64499800525708
-0.3127000000000001,-92.25332386419905
-0.3137,-92.64944302816124
-0.3147000000000001,-92.90409106213696
-0.3157,-92.98897374012887
-0.3167000000000001,-92.98897374012887
-0.3177,-93.03141507912481
-0.3187000000000001,-93.21532754810727
-0.3197,-93.55485826007487
-0.3207000000000001,-94.07830144102493
-0.3217,-94.70077441296557
-0.3227000000000001,-95.30910027190752
-0.3237,-95.79010211386164
-0.3247000000000001,-96.17207416482519
-0.3257,-96.4833106507955
-0.3267000000000001,-96.65307600677932
-0.3277,-96.79454713676581
-0.3287000000000001,-97.00675383174556
-0.3297,-97.21896052672531
-0.3307000000000001,-97.4877556736997
-0.3317,-97.74240370767538
-0.3327000000000001,-98.09608153264163
-0.3337,-98.4497593576079
-0.3347000000000001,-98.93076119956201
-0.3357,-99.35517458952152
-0.3367000000000001,-99.75129375348374
-0.3377,-100.06253023945405
-0.3387000000000001,-100.23229559543785
-0.3397,-100.35961961242569
-0.3407000000000001,-100.58597342040412
-0.3417,-100.84062145437981
-0.3427000000000001,-101.10941660135417
-0.3437,-101.3640646353299
-0.3447000000000001,-101.63285978230424
-0.3457,-101.88750781627995
-0.3467000000000001,-102.1563029632543
-0.3477,-102.45339233622596
-0.3487000000000001,-102.80707016119221
-0.3497,-103.20318932515443
-0.3507000000000001,-103.59930848911664
-0.3517,-103.89639786208829
-0.3527000000000001,-104.06616321807209
-0.3537,-104.2076343480586
-0.3547000000000001,-104.2925170260505
-0.3557,-104.3773997040424
-0.35670000000000013,-104.46228238203432
-0.3577,-104.58960639902216
-0.35870000000000013,-104.73107752900866
-0.3597,-105.02816690198033
-0.36070000000000013,-105.50916874393444
-0.3617,-106.0326119248845
-0.3626999999999999,-106.47117242784265
-0.3637,-106.68337912282242
-0.3646999999999999,-106.73996757481702
-0.3657,-106.59849644483052
-0.3666999999999999,-106.4287310888467
-0.3677,-106.34384841085482
-0.3686999999999999,-106.4287310888467
-0.36970000000000003,-106.68337912282242
-0.3706999999999999,-107.03705694778867
-0.37170000000000003,-107.39073477275493
-0.3726999999999999,-107.6029414677347
-0.37370000000000003,-107.73026548472255
-0.3746999999999999,-107.8292952757131
-0.37570000000000003,-107.95661929270095
-0.3766999999999999,-108.12638464868475
-0.37770000000000004,-108.1688259876807
-0.3786999999999999,-108.1688259876807
-0.37970000000000004,-108.04150197069285
-0.3806999999999999,-107.914177953705
-0.38170000000000004,-107.78685393671715
-0.38269999999999993,-107.78685393671715
-0.38370000000000004,-107.8292952757131
-0.38469999999999993,-107.95661929270095
-0.38570000000000004,-108.2537086656726
-0.38669999999999993,-108.56494515164292
-0.38770000000000004,-109.08838833259297
-0.38869999999999993,-109.39962481856328
-0.38970000000000005,-109.35718347956733
-0.39069999999999994,-108.96106431560513
-0.39170000000000005,-108.1688259876807
-0.39269999999999994,-107.4331761117509
-0.39370000000000005,-106.90973293080083
-0.39469999999999994,-106.86729159180487
-0.39570000000000005,-107.34829343375898
-0.39669999999999994,-107.95661929270095
-0.39770000000000005,-108.39517979565912
-0.39869999999999994,-108.73471050762672
-0.39970000000000006,-108.87618163761321
-0.40069999999999995,-108.56494515164292
-0.40170000000000006,-107.914177953705
-0.40269999999999995,-107.20682230377247
-0.40370000000000006,-106.64093778382647
-0.40469999999999995,-106.34384841085482
-0.40570000000000006,-106.38628974985076
-0.40669999999999995,-106.68337912282242
-0.40770000000000006,-107.07949828678463
-0.40869999999999995,-107.4331761117509
-0.40970000000000006,-107.64538280673065
-0.41069999999999995,-107.4331761117509
-0.41170000000000007,-106.90973293080083
-0.41269999999999996,-106.30140707185885
-0.41370000000000007,-105.73552255191284
-0.41469999999999996,-105.50916874393444
-0.41570000000000007,-105.63649276092228
-0.41669999999999996,-105.90528790789664
-0.41770000000000007,-105.99017058588855
-0.41869999999999996,-105.94772924689259
-0.4197000000000001,-105.7779638909088
-0.42069999999999996,-105.46672740493848
-0.4217000000000001,-105.11304957997223
-0.42269999999999996,-104.77351886800463
-0.4237000000000001,-104.33495836504645
-0.42469999999999997,-103.93883920108425
-0.4257000000000001,-103.68419116710854
-0.42669999999999997,-103.59930848911664
-0.4277000000000001,-103.7266325061045
-0.42869999999999997,-103.89639786208829
-0.4297000000000001,-104.06616321807209
-0.43069999999999997,-104.02372187907615
-0.4317000000000001,-103.76907384510045
-0.4327,-103.28807200314633
-0.4337000000000001,-102.72218748320032
-0.4347,-102.19874430225026
-0.4357000000000001,-101.80262513828804
-0.4367,-101.54797710431234
-0.4377000000000001,-101.44894731332178
-0.4387,-101.40650597432582
-0.4397000000000001,-101.44894731332178
-0.4407,-101.59041844330828
-0.4417000000000001,-101.71774246029614
-0.4427,-101.71774246029614
-0.4437000000000001,-101.63285978230424
-0.4447,-101.27918195733798
-0.4457000000000001,-100.79818011538387
-0.4467,-100.40206095142165
-0.4477000000000001,-100.23229559543785
-0.4487,-100.31717827342976
-0.4497000000000001,-100.58597342040412
-0.4507,-100.75573877638791
-0.4517000000000001,-100.84062145437981
-0.4527,-100.79818011538387
-0.4537000000000001,-100.79818011538387
-0.4547,-100.75573877638791
-0.4557000000000001,-100.79818011538387
-0.4567,-100.84062145437981
-0.4577000000000001,-100.88306279337576
-0.4587,-100.92550413237171
-0.4597000000000001,-101.02453392336226
-0.4607,-101.10941660135417
-0.4617000000000001,-101.27918195733798
-0.4627,-101.44894731332178
-0.4637000000000001,-101.63285978230424
-0.4647,-101.84506647728399
-0.4657000000000001,-102.02897894626645
-0.4667,-102.1563029632543
-0.4677000000000001,-102.36850965823406
-0.4687,-102.67974614420436
-0.4697000000000001,-103.01927685617197
-0.4707,-103.33051334214227
-0.4717000000000001,-103.68419116710854
-0.4727,-103.98128054008019
-0.4737000000000001,-104.33495836504645
-0.4747,-104.73107752900866
-0.4757000000000001,-105.25452070995874
-0.4767,-105.7779638909088
-0.4777000000000001,-106.30140707185885
-0.4787,-106.64093778382647
-0.4797000000000001,-106.90973293080083
-0.4807,-107.16438096477653
-0.48170000000000013,-107.56050012873874
-0.4827,-108.1688259876807
-0.48370000000000013,-108.77715184662266
-0.4847,-109.44206615755924
-0.48570000000000013,-110.05039201650122
-0.4867,-109.56939017454708
-0.48570000000000013,-107.51805878974278
-0.4847,-105.73552255191284
-0.48370000000000013,-104.06616321807209
-0.4827,-102.41095099723
-0.48170000000000013,-100.79818011538387
-0.4807,-99.14296789454177
-0.4797000000000001,-97.6575210296835
-0.4787,-96.35598663380765
-0.4777000000000001,-95.22421759391563
-0.4767,-94.07830144102493
-0.4757000000000001,-92.90409106213696
-0.4747,-91.68743934425302
-0.4737000000000001,-90.41419917437449
-0.4727,-89.15510611749461
-0.4717000000000001,-88.02333707760259
-0.4707,-86.93400937670651
-0.4697000000000001,-85.84468167581042
-0.4687,-84.7977953139103
-0.4677000000000001,-83.79335029100612
-0.4667,-82.70402259011003
-0.4657000000000001,-81.69957756720586
-0.4647,-80.69513254430169
-0.4637000000000001,-79.69068752139752
