Potential V vs RHE, Current mA cm-2
0.05339999999999995,-0.05828610555443951
0.05239999999999995,-0.060408172504237065
0.051399999999999946,-0.06118626371916283
0.050399999999999945,-0.061752148239108844
0.049399999999999944,-0.06230388564605621
0.04839999999999994,-0.06289806439199953
0.04739999999999994,-0.0634215075729496
0.04639999999999994,-0.0639025094149037
0.04539999999999994,-0.06436936414385917
0.04439999999999994,-0.06463815929083352
0.04339999999999994,-0.06526063226277413
0.04239999999999994,-0.0657557812177269
0.04139999999999994,-0.06619434172068506
0.040399999999999936,-0.06663290222364322
0.039399999999999935,-0.06715634540459328
0.038399999999999934,-0.06765149435954605
0.03739999999999993,-0.06807590774950557
0.03639999999999993,-0.06847202691346778
0.03539999999999993,-0.06888229319042864
0.03439999999999993,-0.0692925594673895
0.03339999999999993,-0.06975941419634496
0.03239999999999993,-0.07022626892530041
0.03139999999999993,-0.07057994675026667
0.030399999999999927,-0.07096191880123023
0.029399999999999926,-0.0713438908521938
0.028399999999999925,-0.07178245135515196
0.027399999999999924,-0.07216442340611552
0.026399999999999924,-0.07254639545707908
0.025399999999999923,-0.072914220395044
0.024399999999999922,-0.0733103395590062
0.02339999999999992,-0.07373475294896571
0.02239999999999992,-0.07410257788693062
0.02139999999999992,-0.07444210859889823
0.020399999999999918,-0.07480993353686313
0.019399999999999917,-0.0751919055878267
0.018399999999999916,-0.0756163189777862
0.017399999999999916,-0.07578608433377002
0.016399999999999915,-0.07609732081974033
0.015399999999999914,-0.07652173420969983
0.014399999999999913,-0.07686126492166745
0.013399999999999912,-0.07724323697263101
0.012399999999999911,-0.07762520902359457
0.01139999999999991,-0.07790815128356757
0.01039999999999991,-0.07820524065653922
0.009399999999999908,-0.07853062425550819
0.008399999999999908,-0.07888430208047445
0.007399999999999907,-0.07928042124443666
0.006399999999999906,-0.07953506927841236
0.005399999999999905,-0.07981801153838537
0.004399999999999904,-0.08010095379835838
0.003399999999999903,-0.08039804317133004
0.002399999999999902,-0.08069513254430169
0.0013999999999999013,-0.08093563346527875
0.00039999999999990044,-0.08117613438625582
-0.0006000000000001005,-0.08151566509822342
-0.0016000000000001013,-0.08181275447119508
-0.0026000000000001022,-0.08205325539217213
-0.003600000000000103,-0.08229375631314918
-0.004600000000000104,-0.08250596300812894
-0.005600000000000105,-0.08277475815510331
-0.006600000000000106,-0.083029406189079
-0.007600000000000107,-0.08324161288405875
-0.008600000000000108,-0.08346796669203715
-0.009600000000000108,-0.08362358493502231
-0.01060000000000011,-0.08394896853399128
-0.01160000000000011,-0.08416117522897103
-0.012600000000000111,-0.08433094058495484
-0.013600000000000112,-0.08447241171494134
-0.014600000000000113,-0.08467047129692246
-0.015600000000000114,-0.0848260895399076
-0.016600000000000115,-0.08506659046088466
-0.017600000000000116,-0.08525050292986712
-0.018600000000000116,-0.08540612117285226
-0.019600000000000117,-0.08556173941583743
-0.020600000000000118,-0.08573150477182122
-0.02160000000000012,-0.08591541724080368
-0.02260000000000012,-0.08607103548378882
-0.02360000000000012,-0.08619835950077669
-0.024600000000000122,-0.08631153640476588
-0.025600000000000123,-0.08645300753475238
-0.026600000000000124,-0.0866227728907362
-0.027600000000000124,-0.08675009690772406
-0.028600000000000125,-0.0869057151507092
-0.029600000000000126,-0.0869905978287011
-0.030600000000000127,-0.08708962761969166
-0.03160000000000013,-0.08723109874967816
-0.03260000000000013,-0.08735842276666603
-0.03360000000000013,-0.08737256987966466
-0.03460000000000002,-0.0874433054446579
-0.03560000000000002,-0.08752818812264983
-0.03660000000000002,-0.08771210059163227
-0.03760000000000002,-0.08779698326962418
-0.03860000000000002,-0.08779698326962418
-0.039600000000000024,-0.08781113038262284
-0.040600000000000025,-0.08792430728661203
-0.041600000000000026,-0.08803748419060124
-0.04260000000000003,-0.08805163130359987
-0.04360000000000003,-0.08812236686859314
-0.04460000000000003,-0.08810821975559449
-0.04560000000000003,-0.08819310243358638
-0.04660000000000003,-0.08827798511157829
-0.04760000000000003,-0.08829213222457694
-0.04860000000000003,-0.08820724954658503
-0.04960000000000003,-0.08827798511157829
-0.050600000000000034,-0.08832042645057424
-0.051600000000000035,-0.0883911620155675
-0.052600000000000036,-0.0884194562415648
-0.053600000000000037,-0.08837701490256884
-0.05460000000000004,-0.08836286778957018
-0.05560000000000004,-0.08833457356357288
-0.05660000000000004,-0.0883911620155675
-0.05760000000000004,-0.08836286778957018
-0.05860000000000004,-0.0883062793375756
-0.05960000000000004,-0.08827798511157829
-0.06060000000000004,-0.08817895532058774
-0.061600000000000044,-0.08826383799857963
-0.06260000000000004,-0.08827798511157829
-0.06360000000000005,-0.08819310243358638
-0.06460000000000005,-0.08816480820758908
-0.06560000000000005,-0.08812236686859314
-0.06660000000000005,-0.08813651398159178
-0.06760000000000005,-0.08807992552959719
-0.06860000000000005,-0.08791016017361337
-0.06960000000000005,-0.08786771883461743
-0.07060000000000005,-0.08785357172161878
-0.07160000000000005,-0.08785357172161878
-0.07260000000000005,-0.08778283615662552
-0.07360000000000005,-0.08768380636563497
-0.07460000000000006,-0.08762721791364038
-0.07560000000000006,-0.08759892368764308
-0.07660000000000006,-0.08758477657464442
-0.07760000000000006,-0.08751404100965117
-0.07860000000000006,-0.0874433054446579
-0.07960000000000006,-0.08733012854066871
-0.08060000000000006,-0.08724524586267682
-0.08160000000000006,-0.08723109874967816
-0.08260000000000006,-0.08716036318468491
-0.08360000000000006,-0.08706133339369435
-0.08460000000000006,-0.08694815648970515
-0.08560000000000006,-0.08689156803771056
-0.08660000000000007,-0.08686327381171326
-0.08760000000000007,-0.08679253824672
-0.08860000000000007,-0.0867076555687281
-0.08960000000000007,-0.08655203732574294
-0.09060000000000007,-0.08643886042175375
-0.09160000000000007,-0.08639641908275779
-0.09260000000000007,-0.08629738929176724
-0.09360000000000007,-0.08618421238777803
-0.09460000000000007,-0.08605688837079019
-0.09560000000000007,-0.08594371146680099
-0.09660000000000007,-0.08594371146680099
-0.09760000000000008,-0.08583053456281178
-0.09860000000000008,-0.08568906343282526
-0.09960000000000008,-0.08559003364183472
-0.10060000000000008,-0.08549100385084417
-0.10160000000000008,-0.08543441539884956
-0.10260000000000008,-0.08534953272085766
-0.10360000000000008,-0.08517976736487386
-0.10460000000000008,-0.08506659046088466
-0.10560000000000008,-0.0849109722178995
-0.10660000000000008,-0.0849109722178995
-0.10760000000000008,-0.084769501087913
-0.10860000000000009,-0.08462802995792648
-0.10960000000000009,-0.08450070594093864
-0.11060000000000009,-0.08444411748894404
-0.11160000000000009,-0.08435923481095214
-0.11260000000000009,-0.08423191079396428
-0.11360000000000009,-0.08411873388997508
-0.11460000000000009,-0.08400555698598587
-0.11560000000000009,-0.08390652719499532
-0.11660000000000009,-0.08380749740400478
-0.1176000000000001,-0.08372261472601288
-0.1186000000000001,-0.08359529070902501
-0.1196000000000001,-0.08341137824004256
-0.1206000000000001,-0.08335478978804794
-0.1216000000000001,-0.0832840542230547
-0.1226000000000001,-0.08315673020606687
-0.1236000000000001,-0.08301525907608036
-0.1246000000000001,-0.08287378794609385
-0.1256000000000001,-0.08273231681610735
-0.1266000000000001,-0.08273231681610735
-0.1276000000000001,-0.08264743413811544
-0.1286000000000001,-0.08252011012112759
-0.1296000000000001,-0.08237863899114109
-0.1306000000000001,-0.08223716786115459
-0.1316000000000001,-0.08222302074815592
-0.1326000000000001,-0.08209569673116808
-0.1336000000000001,-0.08194007848818292
-0.1346000000000001,-0.08181275447119508
-0.1356000000000001,-0.08172787179320316
-0.1366000000000001,-0.08168543045420722
-0.1376000000000001,-0.08155810643721936
-0.1386000000000001,-0.08143078242023151
-0.1396000000000001,-0.08124686995124906
-0.1406000000000001,-0.0811478401602585
-0.14160000000000011,-0.08109125170826391
-0.14260000000000012,-0.08102051614327066
-0.14360000000000012,-0.08085075078728685
-0.14460000000000012,-0.08075172099629631
-0.14560000000000012,-0.08065269120530574
-0.14660000000000012,-0.08059610275331114
-0.14760000000000012,-0.08046877873632328
-0.14860000000000012,-0.08031316049333813
-0.14960000000000012,-0.08024242492834488
-0.15060000000000012,-0.08015754225035297
-0.15160000000000012,-0.08007265957236107
-0.15260000000000012,-0.08000192400736782
-0.15360000000000013,-0.07986045287738132
-0.15460000000000013,-0.07973312886039347
-0.15560000000000013,-0.07969068752139752
-0.15660000000000013,-0.07961995195640426
-0.15760000000000013,-0.07950677505241506
-0.15860000000000013,-0.07937945103542722
-0.15960000000000002,-0.07902577321046096
-0.16060000000000002,-0.07908236166245554
-0.16160000000000002,-0.07908236166245554
-0.16260000000000002,-0.07901162609746229
-0.16360000000000002,-0.0788984491934731
-0.16460000000000002,-0.07879941940248254
-0.16560000000000002,-0.0787569780634866
-0.16660000000000003,-0.07874283095048794
-0.16760000000000003,-0.07862965404649873
-0.16860000000000003,-0.07853062425550819
-0.16960000000000003,-0.07841744735151898
-0.17060000000000003,-0.07834671178652573
-0.17160000000000003,-0.07830427044752979
-0.17260000000000003,-0.07826182910853383
-0.17360000000000003,-0.07814865220454463
-0.17460000000000003,-0.07802132818755676
-0.17560000000000003,-0.07792229839656621
-0.17660000000000003,-0.07787985705757026
-0.17760000000000004,-0.0777808272665797
-0.17860000000000004,-0.07768179747558916
-0.17960000000000004,-0.07758276768459862
-0.18060000000000004,-0.07751203211960536
-0.18160000000000004,-0.07751203211960536
-0.18260000000000004,-0.0774412965546121
-0.18360000000000004,-0.07734226676362156
-0.18460000000000004,-0.07725738408562965
-0.18560000000000004,-0.0772149427466337
-0.18660000000000004,-0.07714420718164045
-0.18760000000000004,-0.0770734716166472
-0.18860000000000005,-0.07696029471265799
-0.18960000000000005,-0.07688955914766474
-0.19060000000000005,-0.07686126492166745
-0.19160000000000005,-0.07686126492166745
-0.19260000000000005,-0.07677638224367554
-0.19360000000000005,-0.07667735245268498
-0.19460000000000005,-0.07660661688769173
-0.19560000000000005,-0.07657832266169443
-0.19660000000000005,-0.07656417554869578
-0.19760000000000005,-0.07649343998370253
-0.19860000000000005,-0.07642270441870928
-0.19960000000000006,-0.07633782174071738
-0.20060000000000006,-0.07633782174071738
-0.20160000000000006,-0.07635196885371603
-0.20260000000000006,-0.07630952751472009
-0.20360000000000006,-0.07623879194972684
-0.20460000000000006,-0.07615390927173492
-0.20560000000000006,-0.07612561504573763
-0.20660000000000006,-0.07609732081974033
-0.20760000000000006,-0.07606902659374302
-0.20860000000000006,-0.07599829102874978
-0.20960000000000006,-0.07592755546375651
-0.21060000000000006,-0.07594170257675517
-0.21160000000000007,-0.07596999680275247
-0.21260000000000007,-0.07591340835075787
-0.21360000000000007,-0.07585681989876326
-0.21460000000000007,-0.07580023144676866
-0.21560000000000007,-0.07577193722077137
-0.21660000000000007,-0.07587096701176191
-0.21760000000000007,-0.07577193722077137
-0.21860000000000007,-0.07570120165577811
-0.21960000000000007,-0.07571534876877677
-0.22060000000000007,-0.07568705454277945
-0.22160000000000007,-0.07578608433377002
-0.22260000000000008,-0.07571534876877677
-0.22360000000000008,-0.07567290742978082
-0.22460000000000008,-0.07567290742978082
-0.22560000000000008,-0.07567290742978082
-0.22660000000000008,-0.07567290742978082
-0.22760000000000008,-0.07563046609078486
-0.22860000000000008,-0.0756163189777862
-0.22960000000000008,-0.07557387763879025
-0.23060000000000008,-0.07560217186478757
-0.23160000000000008,-0.07565876031678216
-0.23260000000000008,-0.07565876031678216
-0.23360000000000009,-0.07558802475178891
-0.2346000000000001,-0.07557387763879025
-0.2356000000000001,-0.07558802475178891
-0.2366000000000001,-0.07567290742978082
-0.2376000000000001,-0.07565876031678216
-0.2386000000000001,-0.07560217186478757
-0.2396000000000001,-0.0756163189777862
-0.2406000000000001,-0.07565876031678216
-0.2416000000000001,-0.07572949588177541
-0.2426000000000001,-0.07570120165577811
-0.2436000000000001,-0.07565876031678216
-0.2446000000000001,-0.07565876031678216
-0.2456000000000001,-0.07558802475178891
-0.2466000000000001,-0.07568705454277945
-0.2476000000000001,-0.07580023144676866
-0.2486000000000001,-0.07584267278576462
-0.2496000000000001,-0.07585681989876326
-0.2506000000000001,-0.07591340835075787
-0.2516000000000001,-0.07599829102874978
-0.2526000000000001,-0.07601243814174842
-0.2536000000000001,-0.07604073236774572
-0.2546000000000001,-0.07604073236774572
-0.2556000000000001,-0.07613976215873627
-0.2566000000000001,-0.07623879194972684
-0.2576000000000001,-0.07630952751472009
-0.2586000000000001,-0.07630952751472009
-0.2596000000000001,-0.07635196885371603
-0.2606000000000001,-0.07642270441870928
-0.2616000000000001,-0.07653588132269848
-0.2626000000000001,-0.07656417554869578
-0.2636000000000001,-0.07649343998370253
-0.2646000000000001,-0.07667735245268498
-0.2656000000000001,-0.07674808801767824
-0.2666000000000001,-0.07688955914766474
-0.2676000000000001,-0.0770734716166472
-0.2686000000000001,-0.07696029471265799
-0.2696000000000001,-0.07705932450364854
-0.2706000000000001,-0.07714420718164045
-0.2716000000000001,-0.07724323697263101
-0.2726000000000001,-0.07728567831162694
-0.2736000000000001,-0.0773564138766202
-0.2746000000000001,-0.0774412965546121
-0.2756000000000001,-0.077526179232604
-0.2766000000000001,-0.07765350324959187
-0.2776000000000001,-0.07776668015358107
-0.2786000000000001,-0.07776668015358107
-0.2796000000000001,-0.07785156283157296
-0.2806000000000001,-0.07795059262256351
-0.28160000000000013,-0.07809206375255001
-0.28260000000000013,-0.07820524065653922
-0.28360000000000013,-0.07826182910853383
-0.2846,-0.07827597622153248
-0.2856,-0.07844574157751628
-0.2866,-0.07853062425550819
-0.2876,-0.07865794827249603
-0.2886,-0.07870038961149198
-0.2896,-0.0787569780634866
-0.2906,-0.07891259630647175
-0.2916,-0.07909650877545421
-0.2926,-0.0791530972274488
-0.2936,-0.0791248030014515
-0.29460000000000003,-0.07930871547043396
-0.29560000000000003,-0.07949262793941642
-0.29660000000000003,-0.07967654040839886
-0.29760000000000003,-0.07970483463439616
-0.29860000000000003,-0.07974727597339212
-0.29960000000000003,-0.07981801153838537
-0.30060000000000003,-0.07995948266837187
-0.30160000000000003,-0.08014339513735433
-0.30260000000000004,-0.08024242492834488
-0.30360000000000004,-0.08029901338033948
-0.30460000000000004,-0.080440484510326
-0.30560000000000004,-0.08056780852731382
-0.30660000000000004,-0.08073757388329764
-0.30760000000000004,-0.08080830944829089
-0.30860000000000004,-0.08096392769127606
-0.30960000000000004,-0.08104881036926795
-0.31060000000000004,-0.08119028149925445
-0.31160000000000004,-0.08133175262924096
-0.31260000000000004,-0.08145907664622881
-0.31360000000000005,-0.08152981221122206
-0.31460000000000005,-0.08157225355021802
-0.31560000000000005,-0.08178446024519778
-0.31660000000000005,-0.08195422560118158
-0.31760000000000005,-0.08206740250517078
-0.31860000000000005,-0.08218057940915997
-0.31960000000000005,-0.08232205053914649
-0.32060000000000005,-0.08249181589513029
-0.32160000000000005,-0.08261913991211814
-0.32260000000000005,-0.08268987547711139
-0.32360000000000005,-0.08284549372009656
-0.32460000000000006,-0.08290208217209115
-0.32560000000000006,-0.08304355330207766
-0.32660000000000006,-0.08315673020606687
-0.32760000000000006,-0.08312843598006955
-0.32860000000000006,-0.08318502443206416
-0.32960000000000006,-0.08332649556205066
-0.33060000000000006,-0.08343967246603987
-0.33160000000000006,-0.08358114359602638
-0.33260000000000006,-0.08363773204802097
-0.33360000000000006,-0.08368017338701693
-0.33460000000000006,-0.08376505606500882
-0.33560000000000006,-0.08390652719499532
-0.33660000000000007,-0.08407629255097913
-0.33760000000000007,-0.08409043966397778
-0.33860000000000007,-0.08413288100297373
-0.33960000000000007,-0.08431679347195618
-0.34060000000000007,-0.0844582646019427
-0.34160000000000007,-0.08465632418392378
-0.34260000000000007,-0.0848260895399076
-0.34360000000000007,-0.0848826779919022
-0.3446000000000001,-0.08502414912188871
-0.3456000000000001,-0.08515147313887655
-0.3466000000000001,-0.08529294426886307
-0.34759999999999996,-0.08539197405985362
-0.3486000000000001,-0.08540612117285226
-0.34959999999999997,-0.08547685673784551
-0.3506000000000001,-0.08559003364183472
-0.35159999999999997,-0.08581638744981313
-0.3526000000000001,-0.08597200569279828
-0.35359999999999997,-0.08597200569279828
-0.3546000000000001,-0.08601444703179424
-0.35559999999999997,-0.08611347682278478
-0.3566000000000001,-0.08624080083977263
-0.3576,-0.08629738929176724
-0.3586000000000001,-0.08643886042175375
-0.3596,-0.08652374309974564
-0.3606000000000001,-0.08680668535971865
-0.3616,-0.08679253824672
-0.3626000000000001,-0.08677839113372135
-0.3636,-0.08682083247271731
-0.3646000000000001,-0.0868491266987146
-0.3656,-0.08697645071570247
-0.3666000000000001,-0.08717451029768356
-0.3676,-0.08730183431467141
-0.3686000000000001,-0.08723109874967816
-0.3696,-0.0872735400886741
-0.3706000000000001,-0.0874150112186606
-0.3716,-0.08754233523564847
-0.3726000000000001,-0.08758477657464442
-0.3736,-0.08774039481762959
-0.3746000000000001,-0.08781113038262284
-0.3756,-0.08781113038262284
-0.3766000000000001,-0.08792430728661203
-0.3776,-0.08798089573860662
-0.3786000000000001,-0.08806577841659853
-0.3796,-0.08819310243358638
-0.3806000000000001,-0.08827798511157829
-0.3816,-0.0883911620155675
-0.3826000000000001,-0.0885043389195567
-0.3836,-0.0885892215975486
-0.3846000000000001,-0.0886741042755405
-0.3856,-0.0886741042755405
-0.3866000000000001,-0.08884386963152431
-0.3876,-0.08897119364851215
-0.3886000000000001,-0.0890419292135054
-0.3896,-0.08916925323049325
-0.3906000000000001,-0.08933901858647707
-0.3916,-0.08945219549046628
-0.3926000000000001,-0.08957951950745412
-0.3936,-0.08966440218544602
-0.3946000000000001,-0.08976343197643659
-0.3956,-0.08996149155841768
-0.3966000000000001,-0.09007466846240689
-0.3976,-0.09017369825339744
-0.3986000000000001,-0.09030102227038528
-0.3996,-0.09037175783537854
-0.4006000000000001,-0.09059811164335696
-0.4016,-0.09071128854734616
-0.4026000000000001,-0.0908103183383367
-0.4036,-0.09096593658132186
-0.4046000000000001,-0.09100837792031781
-0.4056,-0.09110740771130836
-0.40660000000000013,-0.0912630259542935
-0.4076,-0.09134790863228542
-0.40860000000000013,-0.09140449708428001
-0.4096,-0.09157426244026382
-0.41060000000000013,-0.09184305758723818
-0.4116,-0.09206941139521659
-0.41260000000000013,-0.09219673541220444
-0.4136,-0.09206941139521659
-0.41460000000000014,-0.09205526428221794
-0.4156,-0.09225332386419903
-0.41660000000000014,-0.0923523536551896
-0.4176,-0.09242308922018284
-0.41860000000000014,-0.0924372363331815
-0.41960000000000003,-0.09262114880216396
-0.42060000000000014,-0.09276261993215046
-0.42160000000000003,-0.0929748266271302
-0.42260000000000014,-0.09300312085312752
-0.42360000000000003,-0.09303141507912481
-0.42460000000000014,-0.09322947466110591
-0.42560000000000003,-0.09341338713008837
-0.42660000000000015,-0.09342753424308703
-0.42760000000000004,-0.09346997558208296
-0.42860000000000015,-0.09352656403407757
-0.42960000000000004,-0.09363974093806678
-0.43060000000000015,-0.09378121206805329
-0.43160000000000004,-0.09386609474604518
-0.43260000000000015,-0.09396512453703573
-0.43360000000000004,-0.09405000721502763
-0.43460000000000015,-0.09407830144102494
-0.43560000000000004,-0.09430465524900335
-0.43660000000000015,-0.09451686194398311
