Sept. 6, 2024   20:24:04
Cyclic Voltammetry
File: c:/users/guazh/data/20240903_batch_252_500/2024-09-03-exp282\exp282-2024-09-06t19_59_11-h2koh\exp282_cv_sr_700mvs_efin_-1800mv.bin
Data Source:  Experiment
Instrument Model:  CHI760E
Header: CV ran at 700 mVs
Note: 

Init E (V) = -1
High E (V) = -1
Low E (V) = -1.8
Final E (V) = -1
Init P/N = N
Scan Rate (V/s) = 0.7
Segment = 3
Sample Interval (V) = 0.001
Quiet Time (sec) = 2
Sensitivity (A/V) = 0.01
Comp R (ohm) = 2.6

Results:

Channel 1:
Segment 1:

Segment 2:

Segment 3:

Potential/V, Current/A

-1.000, 6.322e-6
-1.001, 6.322e-6
-1.002, 6.322e-6
-1.003, 9.405e-6
-1.004, 9.405e-6
-1.005, 9.405e-6
-1.006, 9.405e-6
-1.007, 9.405e-6
-1.008, 9.405e-6
-1.009, 9.405e-6
-1.010, 9.405e-6
-1.011, 9.405e-6
-1.012, 1.249e-5
-1.013, 9.405e-6
-1.014, 9.405e-6
-1.015, 9.405e-6
-1.016, 1.249e-5
-1.017, 9.405e-6
-1.018, 1.249e-5
-1.019, 1.249e-5
-1.020, 1.249e-5
-1.021, 1.249e-5
-1.022, 1.249e-5
-1.023, 1.249e-5
-1.024, 1.249e-5
-1.025, 1.249e-5
-1.026, 1.249e-5
-1.027, 1.249e-5
-1.028, 1.249e-5
-1.029, 1.249e-5
-1.030, 1.249e-5
-1.031, 1.249e-5
-1.032, 1.249e-5
-1.033, 1.249e-5
-1.034, 1.249e-5
-1.035, 1.249e-5
-1.036, 1.249e-5
-1.037, 1.249e-5
-1.038, 1.249e-5
-1.039, 1.557e-5
-1.040, 1.249e-5
-1.041, 1.249e-5
-1.042, 1.249e-5
-1.043, 1.249e-5
-1.044, 1.557e-5
-1.045, 1.249e-5
-1.046, 1.557e-5
-1.047, 1.249e-5
-1.048, 1.557e-5
-1.049, 1.249e-5
-1.050, 1.557e-5
-1.051, 1.249e-5
-1.052, 1.557e-5
-1.053, 1.557e-5
-1.054, 1.557e-5
-1.055, 1.557e-5
-1.056, 1.557e-5
-1.057, 1.557e-5
-1.058, 1.557e-5
-1.059, 1.557e-5
-1.060, 1.557e-5
-1.061, 1.557e-5
-1.062, 1.557e-5
-1.063, 1.557e-5
-1.064, 1.557e-5
-1.065, 1.557e-5
-1.066, 1.557e-5
-1.067, 1.557e-5
-1.068, 1.557e-5
-1.069, 1.557e-5
-1.070, 1.557e-5
-1.071, 1.557e-5
-1.072, 1.557e-5
-1.073, 1.557e-5
-1.074, 1.557e-5
-1.075, 1.557e-5
-1.076, 1.557e-5
-1.077, 1.557e-5
-1.078, 1.557e-5
-1.079, 1.557e-5
-1.080, 1.557e-5
-1.081, 1.557e-5
-1.082, 1.557e-5
-1.083, 1.557e-5
-1.084, 1.557e-5
-1.085, 1.557e-5
-1.086, 1.557e-5
-1.087, 1.557e-5
-1.088, 1.557e-5
-1.089, 1.557e-5
-1.090, 1.557e-5
-1.091, 1.557e-5
-1.092, 1.557e-5
-1.093, 1.557e-5
-1.094, 1.865e-5
-1.095, 1.557e-5
-1.096, 1.865e-5
-1.097, 1.557e-5
-1.098, 1.557e-5
-1.099, 1.557e-5
-1.100, 1.557e-5
-1.101, 1.865e-5
-1.102, 1.865e-5
-1.103, 1.865e-5
-1.104, 1.557e-5
-1.105, 1.865e-5
-1.106, 1.557e-5
-1.107, 1.865e-5
-1.108, 1.865e-5
-1.109, 1.865e-5
-1.110, 1.865e-5
-1.111, 1.557e-5
-1.112, 1.865e-5
-1.113, 1.865e-5
-1.114, 1.865e-5
-1.115, 1.865e-5
-1.116, 1.865e-5
-1.117, 1.865e-5
-1.118, 1.557e-5
-1.119, 1.865e-5
-1.120, 1.865e-5
-1.121, 1.865e-5
-1.122, 1.865e-5
-1.123, 1.865e-5
-1.124, 1.865e-5
-1.125, 1.865e-5
-1.126, 1.865e-5
-1.127, 1.865e-5
-1.128, 1.865e-5
-1.129, 1.865e-5
-1.130, 1.865e-5
-1.131, 1.865e-5
-1.132, 1.557e-5
-1.133, 1.865e-5
-1.134, 1.865e-5
-1.135, 1.865e-5
-1.136, 1.865e-5
-1.137, 1.865e-5
-1.138, 1.865e-5
-1.139, 1.865e-5
-1.140, 1.865e-5
-1.141, 1.865e-5
-1.142, 1.865e-5
-1.143, 1.865e-5
-1.144, 1.865e-5
-1.145, 1.865e-5
-1.146, 1.865e-5
-1.147, 1.865e-5
-1.148, 1.865e-5
-1.149, 1.865e-5
-1.150, 1.865e-5
-1.151, 1.865e-5
-1.152, 1.865e-5
-1.153, 1.865e-5
-1.154, 1.865e-5
-1.155, 1.865e-5
-1.156, 1.865e-5
-1.157, 1.865e-5
-1.158, 1.865e-5
-1.159, 1.865e-5
-1.160, 1.865e-5
-1.161, 1.865e-5
-1.162, 1.865e-5
-1.163, 1.865e-5
-1.164, 1.865e-5
-1.165, 1.865e-5
-1.166, 1.865e-5
-1.167, 1.865e-5
-1.168, 1.865e-5
-1.169, 1.865e-5
-1.170, 1.865e-5
-1.171, 1.865e-5
-1.172, 1.865e-5
-1.173, 1.865e-5
-1.174, 1.865e-5
-1.175, 1.865e-5
-1.176, 1.865e-5
-1.177, 1.865e-5
-1.178, 1.865e-5
-1.179, 1.865e-5
-1.180, 1.865e-5
-1.181, 1.865e-5
-1.182, 1.865e-5
-1.183, 2.174e-5
-1.184, 1.865e-5
-1.185, 1.865e-5
-1.186, 1.865e-5
-1.187, 1.865e-5
-1.188, 1.865e-5
-1.189, 2.174e-5
-1.190, 2.174e-5
-1.191, 1.865e-5
-1.192, 1.865e-5
-1.193, 1.865e-5
-1.194, 1.865e-5
-1.195, 1.865e-5
-1.196, 1.865e-5
-1.197, 2.174e-5
-1.198, 1.865e-5
-1.199, 2.174e-5
-1.200, 1.865e-5
-1.201, 2.174e-5
-1.202, 2.174e-5
-1.203, 2.174e-5
-1.204, 2.174e-5
-1.205, 1.865e-5
-1.206, 2.174e-5
-1.207, 1.865e-5
-1.208, 2.174e-5
-1.209, 2.174e-5
-1.210, 2.174e-5
-1.211, 2.174e-5
-1.212, 2.174e-5
-1.213, 2.174e-5
-1.214, 2.174e-5
-1.215, 2.174e-5
-1.216, 2.174e-5
-1.217, 2.174e-5
-1.218, 2.174e-5
-1.219, 2.174e-5
-1.220, 1.865e-5
-1.221, 2.174e-5
-1.222, 2.174e-5
-1.223, 2.174e-5
-1.224, 2.174e-5
-1.225, 2.174e-5
-1.226, 2.174e-5
-1.227, 2.174e-5
-1.228, 2.174e-5
-1.229, 2.174e-5
-1.230, 2.174e-5
-1.231, 2.174e-5
-1.232, 2.174e-5
-1.233, 2.174e-5
-1.234, 2.174e-5
-1.235, 2.174e-5
-1.236, 2.174e-5
-1.237, 2.174e-5
-1.238, 2.174e-5
-1.239, 2.174e-5
-1.240, 2.174e-5
-1.241, 2.174e-5
-1.242, 2.174e-5
-1.243, 2.174e-5
-1.244, 2.174e-5
-1.245, 2.174e-5
-1.246, 2.174e-5
-1.247, 2.174e-5
-1.248, 2.174e-5
-1.249, 2.174e-5
-1.250, 2.174e-5
-1.251, 2.174e-5
-1.252, 2.174e-5
-1.253, 2.482e-5
-1.254, 2.174e-5
-1.255, 2.174e-5
-1.256, 2.174e-5
-1.257, 2.174e-5
-1.258, 2.174e-5
-1.259, 2.174e-5
-1.260, 2.174e-5
-1.261, 2.174e-5
-1.262, 2.174e-5
-1.263, 2.482e-5
-1.264, 2.174e-5
-1.265, 2.482e-5
-1.266, 2.482e-5
-1.267, 2.174e-5
-1.268, 2.482e-5
-1.269, 2.174e-5
-1.270, 2.482e-5
-1.271, 2.482e-5
-1.272, 2.482e-5
-1.273, 2.482e-5
-1.274, 2.482e-5
-1.275, 2.482e-5
-1.276, 2.482e-5
-1.277, 2.482e-5
-1.278, 2.482e-5
-1.279, 2.482e-5
-1.280, 2.482e-5
-1.281, 2.482e-5
-1.282, 2.482e-5
-1.283, 2.482e-5
-1.284, 2.482e-5
-1.285, 2.482e-5
-1.286, 2.482e-5
-1.287, 2.482e-5
-1.288, 2.482e-5
-1.289, 2.482e-5
-1.290, 2.482e-5
-1.291, 2.482e-5
-1.292, 2.482e-5
-1.293, 2.482e-5
-1.294, 2.482e-5
-1.295, 2.482e-5
-1.296, 2.482e-5
-1.297, 2.482e-5
-1.298, 2.482e-5
-1.299, 2.790e-5
-1.300, 2.790e-5
-1.301, 2.790e-5
-1.302, 2.790e-5
-1.303, 2.482e-5
-1.304, 2.790e-5
-1.305, 2.790e-5
-1.306, 2.790e-5
-1.307, 2.790e-5
-1.308, 2.790e-5
-1.309, 2.790e-5
-1.310, 2.790e-5
-1.311, 2.790e-5
-1.312, 2.790e-5
-1.313, 2.790e-5
-1.314, 2.790e-5
-1.315, 2.790e-5
-1.316, 2.790e-5
-1.317, 2.790e-5
-1.318, 3.099e-5
-1.319, 2.790e-5
-1.320, 3.099e-5
-1.321, 2.790e-5
-1.322, 2.790e-5
-1.323, 2.790e-5
-1.324, 3.099e-5
-1.325, 3.099e-5
-1.326, 3.099e-5
-1.327, 3.099e-5
-1.328, 3.099e-5
-1.329, 3.099e-5
-1.330, 3.099e-5
-1.331, 3.099e-5
-1.332, 3.099e-5
-1.333, 3.099e-5
-1.334, 3.099e-5
-1.335, 3.099e-5
-1.336, 3.099e-5
-1.337, 3.407e-5
-1.338, 3.407e-5
-1.339, 3.407e-5
-1.340, 3.407e-5
-1.341, 3.407e-5
-1.342, 3.407e-5
-1.343, 3.407e-5
-1.344, 3.407e-5
-1.345, 3.407e-5
-1.346, 3.407e-5
-1.347, 3.407e-5
-1.348, 3.407e-5
-1.349, 3.407e-5
-1.350, 3.407e-5
-1.351, 3.715e-5
-1.352, 3.715e-5
-1.353, 3.715e-5
-1.354, 3.715e-5
-1.355, 3.715e-5
-1.356, 3.715e-5
-1.357, 3.715e-5
-1.358, 3.715e-5
-1.359, 3.715e-5
-1.360, 4.024e-5
-1.361, 4.024e-5
-1.362, 3.715e-5
-1.363, 4.024e-5
-1.364, 4.024e-5
-1.365, 4.024e-5
-1.366, 4.024e-5
-1.367, 4.024e-5
-1.368, 4.024e-5
-1.369, 4.332e-5
-1.370, 4.332e-5
-1.371, 4.332e-5
-1.372, 4.332e-5
-1.373, 4.332e-5
-1.374, 4.332e-5
-1.375, 4.332e-5
-1.376, 4.332e-5
-1.377, 4.640e-5
-1.378, 4.640e-5
-1.379, 4.640e-5
-1.380, 4.640e-5
-1.381, 4.640e-5
-1.382, 4.640e-5
-1.383, 4.640e-5
-1.384, 4.949e-5
-1.385, 4.949e-5
-1.386, 4.949e-5
-1.387, 4.949e-5
-1.388, 4.949e-5
-1.389, 4.949e-5
-1.390, 4.949e-5
-1.391, 5.257e-5
-1.392, 5.257e-5
-1.393, 5.257e-5
-1.394, 5.257e-5
-1.395, 5.257e-5
-1.396, 5.565e-5
-1.397, 5.565e-5
-1.398, 5.565e-5
-1.399, 5.565e-5
-1.400, 5.565e-5
-1.401, 5.565e-5
-1.402, 5.565e-5
-1.403, 5.873e-5
-1.404, 5.873e-5
-1.405, 6.182e-5
-1.406, 5.873e-5
-1.407, 6.182e-5
-1.408, 6.182e-5
-1.409, 6.182e-5
-1.410, 6.182e-5
-1.411, 6.490e-5
-1.412, 6.490e-5
-1.413, 6.490e-5
-1.414, 6.490e-5
-1.415, 6.490e-5
-1.416, 6.490e-5
-1.417, 6.798e-5
-1.418, 6.798e-5
-1.419, 7.107e-5
-1.420, 7.107e-5
-1.421, 7.107e-5
-1.422, 7.107e-5
-1.423, 7.415e-5
-1.424, 7.415e-5
-1.425, 7.415e-5
-1.426, 7.415e-5
-1.427, 7.415e-5
-1.428, 7.723e-5
-1.429, 7.723e-5
-1.430, 7.723e-5
-1.431, 8.032e-5
-1.432, 8.032e-5
-1.433, 8.032e-5
-1.434, 8.032e-5
-1.435, 8.340e-5
-1.436, 8.340e-5
-1.437, 8.648e-5
-1.438, 8.648e-5
-1.439, 8.957e-5
-1.440, 8.957e-5
-1.441, 8.957e-5
-1.442, 8.957e-5
-1.443, 9.265e-5
-1.444, 9.265e-5
-1.445, 9.265e-5
-1.446, 9.573e-5
-1.447, 9.573e-5
-1.448, 9.573e-5
-1.449, 9.882e-5
-1.450, 9.882e-5
-1.451, 1.019e-4
-1.452, 1.019e-4
-1.453, 1.019e-4
-1.454, 1.050e-4
-1.455, 1.050e-4
-1.456, 1.050e-4
-1.457, 1.081e-4
-1.458, 1.111e-4
-1.459, 1.081e-4
-1.460, 1.111e-4
-1.461, 1.111e-4
-1.462, 1.142e-4
-1.463, 1.142e-4
-1.464, 1.173e-4
-1.465, 1.173e-4
-1.466, 1.204e-4
-1.467, 1.204e-4
-1.468, 1.204e-4
-1.469, 1.235e-4
-1.470, 1.235e-4
-1.471, 1.266e-4
-1.472, 1.266e-4
-1.473, 1.296e-4
-1.474, 1.296e-4
-1.475, 1.327e-4
-1.476, 1.358e-4
-1.477, 1.358e-4
-1.478, 1.358e-4
-1.479, 1.389e-4
-1.480, 1.389e-4
-1.481, 1.420e-4
-1.482, 1.451e-4
-1.483, 1.451e-4
-1.484, 1.481e-4
-1.485, 1.481e-4
-1.486, 1.512e-4
-1.487, 1.543e-4
-1.488, 1.543e-4
-1.489, 1.574e-4
-1.490, 1.574e-4
-1.491, 1.605e-4
-1.492, 1.636e-4
-1.493, 1.636e-4
-1.494, 1.666e-4
-1.495, 1.666e-4
-1.496, 1.697e-4
-1.497, 1.728e-4
-1.498, 1.728e-4
-1.499, 1.759e-4
-1.500, 1.759e-4
-1.501, 1.790e-4
-1.502, 1.821e-4
-1.503, 1.851e-4
-1.504, 1.851e-4
-1.505, 1.882e-4
-1.506, 1.913e-4
-1.507, 1.944e-4
-1.508, 1.975e-4
-1.509, 1.975e-4
-1.510, 2.006e-4
-1.511, 2.036e-4
-1.512, 2.036e-4
-1.513, 2.067e-4
-1.514, 2.098e-4
-1.515, 2.129e-4
-1.516, 2.160e-4
-1.517, 2.191e-4
-1.518, 2.191e-4
-1.519, 2.221e-4
-1.520, 2.252e-4
-1.521, 2.283e-4
-1.522, 2.314e-4
-1.523, 2.345e-4
-1.524, 2.376e-4
-1.525, 2.406e-4
-1.526, 2.437e-4
-1.527, 2.468e-4
-1.528, 2.499e-4
-1.529, 2.530e-4
-1.530, 2.561e-4
-1.531, 2.591e-4
-1.532, 2.622e-4
-1.533, 2.653e-4
-1.534, 2.684e-4
-1.535, 2.715e-4
-1.536, 2.746e-4
-1.537, 2.776e-4
-1.538, 2.807e-4
-1.539, 2.838e-4
-1.540, 2.900e-4
-1.541, 2.900e-4
-1.542, 2.961e-4
-1.543, 2.992e-4
-1.544, 3.023e-4
-1.545, 3.054e-4
-1.546, 3.085e-4
-1.547, 3.115e-4
-1.548, 3.146e-4
-1.549, 3.208e-4
-1.550, 3.208e-4
-1.551, 3.270e-4
-1.552, 3.300e-4
-1.553, 3.331e-4
-1.554, 3.362e-4
-1.555, 3.393e-4
-1.556, 3.424e-4
-1.557, 3.455e-4
-1.558, 3.485e-4
-1.559, 3.516e-4
-1.560, 3.578e-4
-1.561, 3.609e-4
-1.562, 3.640e-4
-1.563, 3.701e-4
-1.564, 3.701e-4
-1.565, 3.763e-4
-1.566, 3.794e-4
-1.567, 3.825e-4
-1.568, 3.886e-4
-1.569, 3.917e-4
-1.570, 3.979e-4
-1.571, 4.010e-4
-1.572, 4.040e-4
-1.573, 4.071e-4
-1.574, 4.133e-4
-1.575, 4.164e-4
-1.576, 4.225e-4
-1.577, 4.256e-4
-1.578, 4.287e-4
-1.579, 4.349e-4
-1.580, 4.410e-4
-1.581, 4.441e-4
-1.582, 4.472e-4
-1.583, 4.534e-4
-1.584, 4.565e-4
-1.585, 4.595e-4
-1.586, 4.657e-4
-1.587, 4.719e-4
-1.588, 4.780e-4
-1.589, 4.811e-4
-1.590, 4.873e-4
-1.591, 4.904e-4
-1.592, 4.935e-4
-1.593, 4.996e-4
-1.594, 5.027e-4
-1.595, 5.089e-4
-1.596, 5.120e-4
-1.597, 5.181e-4
-1.598, 5.243e-4
-1.599, 5.274e-4
-1.600, 5.335e-4
-1.601, 5.397e-4
-1.602, 5.459e-4
-1.603, 5.520e-4
-1.604, 5.551e-4
-1.605, 5.613e-4
-1.606, 5.674e-4
-1.607, 5.736e-4
-1.608, 5.798e-4
-1.609, 5.859e-4
-1.610, 5.921e-4
-1.611, 5.983e-4
-1.612, 6.044e-4
-1.613, 6.106e-4
-1.614, 6.199e-4
-1.615, 6.260e-4
-1.616, 6.322e-4
-1.617, 6.353e-4
-1.618, 6.414e-4
-1.619, 6.476e-4
-1.620, 6.569e-4
-1.621, 6.630e-4
-1.622, 6.692e-4
-1.623, 6.754e-4
-1.624, 6.846e-4
-1.625, 6.908e-4
-1.626, 6.969e-4
-1.627, 7.062e-4
-1.628, 7.124e-4
-1.629, 7.216e-4
-1.630, 7.278e-4
-1.631, 7.339e-4
-1.632, 7.432e-4
-1.633, 7.524e-4
-1.634, 7.586e-4
-1.635, 7.679e-4
-1.636, 7.740e-4
-1.637, 7.833e-4
-1.638, 7.894e-4
-1.639, 7.987e-4
-1.640, 8.079e-4
-1.641, 8.203e-4
-1.642, 8.264e-4
-1.643, 8.357e-4
-1.644, 8.418e-4
-1.645, 8.511e-4
-1.646, 8.603e-4
-1.647, 8.696e-4
-1.648, 8.788e-4
-1.649, 8.881e-4
-1.650, 8.943e-4
-1.651, 9.035e-4
-1.652, 9.128e-4
-1.653, 9.220e-4
-1.654, 9.343e-4
-1.655, 9.436e-4
-1.656, 9.528e-4
-1.657, 9.652e-4
-1.658, 9.775e-4
-1.659, 9.868e-4
-1.660, 9.991e-4
-1.661, 1.008e-3
-1.662, 1.021e-3
-1.663, 1.033e-3
-1.664, 1.042e-3
-1.665, 1.055e-3
-1.666, 1.067e-3
-1.667, 1.079e-3
-1.668, 1.095e-3
-1.669, 1.104e-3
-1.670, 1.116e-3
-1.671, 1.135e-3
-1.672, 1.147e-3
-1.673, 1.159e-3
-1.674, 1.175e-3
-1.675, 1.187e-3
-1.676, 1.203e-3
-1.677, 1.218e-3
-1.678, 1.233e-3
-1.679, 1.249e-3
-1.680, 1.264e-3
-1.681, 1.277e-3
-1.682, 1.295e-3
-1.683, 1.307e-3
-1.684, 1.326e-3
-1.685, 1.341e-3
-1.686, 1.360e-3
-1.687, 1.375e-3
-1.688, 1.394e-3
-1.689, 1.412e-3
-1.690, 1.431e-3
-1.691, 1.449e-3
-1.692, 1.468e-3
-1.693, 1.483e-3
-1.694, 1.508e-3
-1.695, 1.523e-3
-1.696, 1.545e-3
-1.697, 1.563e-3
-1.698, 1.588e-3
-1.699, 1.606e-3
-1.700, 1.628e-3
-1.701, 1.647e-3
-1.702, 1.671e-3
-1.703, 1.693e-3
-1.704, 1.714e-3
-1.705, 1.739e-3
-1.706, 1.761e-3
-1.707, 1.785e-3
-1.708, 1.810e-3
-1.709, 1.832e-3
-1.710, 1.856e-3
-1.711, 1.881e-3
-1.712, 1.909e-3
-1.713, 1.930e-3
-1.714, 1.958e-3
-1.715, 1.980e-3
-1.716, 2.007e-3
-1.717, 2.032e-3
-1.718, 2.060e-3
-1.719, 2.081e-3
-1.720, 2.112e-3
-1.721, 2.140e-3
-1.722, 2.168e-3
-1.723, 2.198e-3
-1.724, 2.226e-3
-1.725, 2.257e-3
-1.726, 2.285e-3
-1.727, 2.316e-3
-1.728, 2.346e-3
-1.729, 2.374e-3
-1.730, 2.408e-3
-1.731, 2.439e-3
-1.732, 2.470e-3
-1.733, 2.497e-3
-1.734, 2.531e-3
-1.735, 2.562e-3
-1.736, 2.590e-3
-1.737, 2.627e-3
-1.738, 2.655e-3
-1.739, 2.689e-3
-1.740, 2.723e-3
-1.741, 2.753e-3
-1.742, 2.790e-3
-1.743, 2.824e-3
-1.744, 2.861e-3
-1.745, 2.895e-3
-1.746, 2.929e-3
-1.747, 2.966e-3
-1.748, 3.000e-3
-1.749, 3.037e-3
-1.750, 3.077e-3
-1.751, 3.114e-3
-1.752, 3.151e-3
-1.753, 3.188e-3
-1.754, 3.225e-3
-1.755, 3.268e-3
-1.756, 3.302e-3
-1.757, 3.348e-3
-1.758, 3.382e-3
-1.759, 3.432e-3
-1.760, 3.475e-3
-1.761, 3.515e-3
-1.762, 3.558e-3
-1.763, 3.595e-3
-1.764, 3.638e-3
-1.765, 3.681e-3
-1.766, 3.725e-3
-1.767, 3.771e-3
-1.768, 3.820e-3
-1.769, 3.866e-3
-1.770, 3.910e-3
-1.771, 3.959e-3
-1.772, 3.999e-3
-1.773, 4.045e-3
-1.774, 4.088e-3
-1.775, 4.135e-3
-1.776, 4.178e-3
-1.777, 4.224e-3
-1.778, 4.276e-3
-1.779, 4.323e-3
-1.780, 4.372e-3
-1.781, 4.418e-3
-1.782, 4.464e-3
-1.783, 4.523e-3
-1.784, 4.585e-3
-1.785, 4.637e-3
-1.786, 4.696e-3
-1.787, 4.748e-3
-1.788, 4.813e-3
-1.789, 4.875e-3
-1.790, 4.936e-3
-1.791, 4.998e-3
-1.792, 5.069e-3
-1.793, 5.134e-3
-1.794, 5.186e-3
-1.795, 5.245e-3
-1.796, 5.309e-3
-1.797, 5.377e-3
-1.798, 5.451e-3
-1.799, 5.528e-3
-1.800, 5.559e-3
-1.799, 5.531e-3
-1.798, 5.500e-3
-1.797, 5.482e-3
-1.796, 5.454e-3
-1.795, 5.420e-3
-1.794, 5.389e-3
-1.793, 5.356e-3
-1.792, 5.309e-3
-1.791, 5.269e-3
-1.790, 5.220e-3
-1.789, 5.180e-3
-1.788, 5.124e-3
-1.787, 5.069e-3
-1.786, 5.013e-3
-1.785, 4.967e-3
-1.784, 4.942e-3
-1.783, 4.905e-3
-1.782, 4.859e-3
-1.781, 4.797e-3
-1.780, 4.736e-3
-1.779, 4.656e-3
-1.778, 4.606e-3
-1.777, 4.569e-3
-1.776, 4.526e-3
-1.775, 4.483e-3
-1.774, 4.431e-3
-1.773, 4.381e-3
-1.772, 4.341e-3
-1.771, 4.301e-3
-1.770, 4.258e-3
-1.769, 4.218e-3
-1.768, 4.172e-3
-1.767, 4.132e-3
-1.766, 4.095e-3
-1.765, 4.064e-3
-1.764, 4.030e-3
-1.763, 3.999e-3
-1.762, 3.971e-3
-1.761, 3.925e-3
-1.760, 3.885e-3
-1.759, 3.842e-3
-1.758, 3.805e-3
-1.757, 3.765e-3
-1.756, 3.721e-3
-1.755, 3.684e-3
-1.754, 3.647e-3
-1.753, 3.626e-3
-1.752, 3.592e-3
-1.751, 3.555e-3
-1.750, 3.521e-3
-1.749, 3.484e-3
-1.748, 3.453e-3
-1.747, 3.419e-3
-1.746, 3.392e-3
-1.745, 3.361e-3
-1.744, 3.327e-3
-1.743, 3.293e-3
-1.742, 3.262e-3
-1.741, 3.234e-3
-1.740, 3.207e-3
-1.739, 3.173e-3
-1.738, 3.148e-3
-1.737, 3.123e-3
-1.736, 3.093e-3
-1.735, 3.065e-3
-1.734, 3.040e-3
-1.733, 3.003e-3
-1.732, 2.972e-3
-1.731, 2.941e-3
-1.730, 2.914e-3
-1.729, 2.889e-3
-1.728, 2.861e-3
-1.727, 2.834e-3
-1.726, 2.806e-3
-1.725, 2.784e-3
-1.724, 2.753e-3
-1.723, 2.723e-3
-1.722, 2.695e-3
-1.721, 2.664e-3
-1.720, 2.633e-3
-1.719, 2.605e-3
-1.718, 2.578e-3
-1.717, 2.550e-3
-1.716, 2.522e-3
-1.715, 2.497e-3
-1.714, 2.476e-3
-1.713, 2.448e-3
-1.712, 2.420e-3
-1.711, 2.390e-3
-1.710, 2.362e-3
-1.709, 2.331e-3
-1.708, 2.300e-3
-1.707, 2.272e-3
-1.706, 2.245e-3
-1.705, 2.220e-3
-1.704, 2.195e-3
-1.703, 2.164e-3
-1.702, 2.143e-3
-1.701, 2.121e-3
-1.700, 2.103e-3
-1.699, 2.078e-3
-1.698, 2.054e-3
-1.697, 2.029e-3
-1.696, 2.001e-3
-1.695, 1.976e-3
-1.694, 1.952e-3
-1.693, 1.927e-3
-1.692, 1.902e-3
-1.691, 1.878e-3
-1.690, 1.853e-3
-1.689, 1.835e-3
-1.688, 1.816e-3
-1.687, 1.791e-3
-1.686, 1.767e-3
-1.685, 1.748e-3
-1.684, 1.727e-3
-1.683, 1.711e-3
-1.682, 1.693e-3
-1.681, 1.671e-3
-1.680, 1.650e-3
-1.679, 1.628e-3
-1.678, 1.606e-3
-1.677, 1.588e-3
-1.676, 1.566e-3
-1.675, 1.548e-3
-1.674, 1.526e-3
-1.673, 1.508e-3
-1.672, 1.486e-3
-1.671, 1.468e-3
-1.670, 1.449e-3
-1.669, 1.431e-3
-1.668, 1.412e-3
-1.667, 1.391e-3
-1.666, 1.375e-3
-1.665, 1.357e-3
-1.664, 1.338e-3
-1.663, 1.320e-3
-1.662, 1.304e-3
-1.661, 1.292e-3
-1.660, 1.270e-3
-1.659, 1.255e-3
-1.658, 1.236e-3
-1.657, 1.221e-3
-1.656, 1.206e-3
-1.655, 1.187e-3
-1.654, 1.172e-3
-1.653, 1.156e-3
-1.652, 1.141e-3
-1.651, 1.122e-3
-1.650, 1.107e-3
-1.649, 1.088e-3
-1.648, 1.073e-3
-1.647, 1.058e-3
-1.646, 1.042e-3
-1.645, 1.027e-3
-1.644, 1.011e-3
-1.643, 9.991e-4
-1.642, 9.837e-4
-1.641, 9.683e-4
-1.640, 9.559e-4
-1.639, 9.405e-4
-1.638, 9.251e-4
-1.637, 9.097e-4
-1.636, 9.004e-4
-1.635, 8.850e-4
-1.634, 8.696e-4
-1.633, 8.573e-4
-1.632, 8.449e-4
-1.631, 8.326e-4
-1.630, 8.203e-4
-1.629, 8.079e-4
-1.628, 7.925e-4
-1.627, 7.802e-4
-1.626, 7.679e-4
-1.625, 7.555e-4
-1.624, 7.432e-4
-1.623, 7.339e-4
-1.622, 7.216e-4
-1.621, 7.093e-4
-1.620, 6.969e-4
-1.619, 6.877e-4
-1.618, 6.784e-4
-1.617, 6.661e-4
-1.616, 6.538e-4
-1.615, 6.445e-4
-1.614, 6.353e-4
-1.613, 6.229e-4
-1.612, 6.137e-4
-1.611, 6.044e-4
-1.610, 5.952e-4
-1.609, 5.859e-4
-1.608, 5.767e-4
-1.607, 5.644e-4
-1.606, 5.551e-4
-1.605, 5.459e-4
-1.604, 5.366e-4
-1.603, 5.274e-4
-1.602, 5.181e-4
-1.601, 5.089e-4
-1.600, 5.027e-4
-1.599, 4.965e-4
-1.598, 4.873e-4
-1.597, 4.780e-4
-1.596, 4.688e-4
-1.595, 4.626e-4
-1.594, 4.534e-4
-1.593, 4.472e-4
-1.592, 4.380e-4
-1.591, 4.318e-4
-1.590, 4.256e-4
-1.589, 4.195e-4
-1.588, 4.133e-4
-1.587, 4.071e-4
-1.586, 4.010e-4
-1.585, 3.948e-4
-1.584, 3.886e-4
-1.583, 3.825e-4
-1.582, 3.732e-4
-1.581, 3.670e-4
-1.580, 3.609e-4
-1.579, 3.547e-4
-1.578, 3.485e-4
-1.577, 3.424e-4
-1.576, 3.362e-4
-1.575, 3.300e-4
-1.574, 3.270e-4
-1.573, 3.177e-4
-1.572, 3.146e-4
-1.571, 3.085e-4
-1.570, 3.023e-4
-1.569, 2.961e-4
-1.568, 2.931e-4
-1.567, 2.869e-4
-1.566, 2.807e-4
-1.565, 2.776e-4
-1.564, 2.746e-4
-1.563, 2.684e-4
-1.562, 2.622e-4
-1.561, 2.591e-4
-1.560, 2.561e-4
-1.559, 2.499e-4
-1.558, 2.468e-4
-1.557, 2.406e-4
-1.556, 2.376e-4
-1.555, 2.314e-4
-1.554, 2.283e-4
-1.553, 2.252e-4
-1.552, 2.191e-4
-1.551, 2.191e-4
-1.550, 2.129e-4
-1.549, 2.098e-4
-1.548, 2.036e-4
-1.547, 2.006e-4
-1.546, 1.975e-4
-1.545, 1.944e-4
-1.544, 1.913e-4
-1.543, 1.851e-4
-1.542, 1.821e-4
-1.541, 1.790e-4
-1.540, 1.759e-4
-1.539, 1.728e-4
-1.538, 1.697e-4
-1.537, 1.666e-4
-1.536, 1.636e-4
-1.535, 1.605e-4
-1.534, 1.574e-4
-1.533, 1.543e-4
-1.532, 1.512e-4
-1.531, 1.481e-4
-1.530, 1.451e-4
-1.529, 1.420e-4
-1.528, 1.389e-4
-1.527, 1.358e-4
-1.526, 1.358e-4
-1.525, 1.327e-4
-1.524, 1.296e-4
-1.523, 1.266e-4
-1.522, 1.235e-4
-1.521, 1.235e-4
-1.520, 1.173e-4
-1.519, 1.173e-4
-1.518, 1.142e-4
-1.517, 1.142e-4
-1.516, 1.111e-4
-1.515, 1.081e-4
-1.514, 1.050e-4
-1.513, 1.019e-4
-1.512, 1.019e-4
-1.511, 9.882e-5
-1.510, 9.882e-5
-1.509, 9.573e-5
-1.508, 9.265e-5
-1.507, 9.265e-5
-1.506, 8.957e-5
-1.505, 8.957e-5
-1.504, 8.648e-5
-1.503, 8.648e-5
-1.502, 8.340e-5
-1.501, 8.032e-5
-1.500, 8.032e-5
-1.499, 7.723e-5
-1.498, 7.723e-5
-1.497, 7.415e-5
-1.496, 7.415e-5
-1.495, 7.415e-5
-1.494, 7.107e-5
-1.493, 6.798e-5
-1.492, 6.798e-5
-1.491, 6.798e-5
-1.490, 6.490e-5
-1.489, 6.490e-5
-1.488, 6.182e-5
-1.487, 5.873e-5
-1.486, 5.873e-5
-1.485, 5.873e-5
-1.484, 5.565e-5
-1.483, 5.565e-5
-1.482, 5.565e-5
-1.481, 5.257e-5
-1.480, 5.257e-5
-1.479, 4.949e-5
-1.478, 4.949e-5
-1.477, 4.949e-5
-1.476, 4.640e-5
-1.475, 4.640e-5
-1.474, 4.332e-5
-1.473, 4.332e-5
-1.472, 4.332e-5
-1.471, 4.332e-5
-1.470, 4.332e-5
-1.469, 4.024e-5
-1.468, 4.024e-5
-1.467, 3.715e-5
-1.466, 3.715e-5
-1.465, 3.715e-5
-1.464, 3.715e-5
-1.463, 3.407e-5
-1.462, 3.407e-5
-1.461, 3.407e-5
-1.460, 3.099e-5
-1.459, 3.099e-5
-1.458, 3.099e-5
-1.457, 3.099e-5
-1.456, 2.790e-5
-1.455, 2.790e-5
-1.454, 2.790e-5
-1.453, 2.790e-5
-1.452, 2.790e-5
-1.451, 2.482e-5
-1.450, 2.482e-5
-1.449, 2.482e-5
-1.448, 2.482e-5
-1.447, 2.482e-5
-1.446, 2.174e-5
-1.445, 2.174e-5
-1.444, 2.174e-5
-1.443, 2.174e-5
-1.442, 2.174e-5
-1.441, 1.865e-5
-1.440, 1.865e-5
-1.439, 1.865e-5
-1.438, 1.865e-5
-1.437, 1.865e-5
-1.436, 1.865e-5
-1.435, 1.557e-5
-1.434, 1.557e-5
-1.433, 1.557e-5
-1.432, 1.557e-5
-1.431, 1.557e-5
-1.430, 1.557e-5
-1.429, 1.557e-5
-1.428, 1.249e-5
-1.427, 1.249e-5
-1.426, 1.249e-5
-1.425, 1.249e-5
-1.424, 1.249e-5
-1.423, 9.405e-6
-1.422, 1.249e-5
-1.421, 9.405e-6
-1.420, 9.405e-6
-1.419, 9.405e-6
-1.418, 9.405e-6
-1.417, 9.405e-6
-1.416, 9.405e-6
-1.415, 9.405e-6
-1.414, 6.322e-6
-1.413, 6.322e-6
-1.412, 6.322e-6
-1.411, 6.322e-6
-1.410, 6.322e-6
-1.409, 6.322e-6
-1.408, 6.322e-6
-1.407, 3.239e-6
-1.406, 3.239e-6
-1.405, 3.239e-6
-1.404, 3.239e-6
-1.403, 3.239e-6
-1.402, 3.239e-6
-1.401, 3.239e-6
-1.400, 3.239e-6
-1.399, 3.239e-6
-1.398, 3.239e-6
-1.397, 3.239e-6
-1.396, 3.239e-6
-1.395, 3.239e-6
-1.394, 1.559e-7
-1.393, 1.559e-7
-1.392, 1.559e-7
-1.391, 1.559e-7
-1.390, 1.559e-7
-1.389, 1.559e-7
-1.388, 1.559e-7
-1.387, 1.559e-7
-1.386, 1.559e-7
-1.385, 1.559e-7
-1.384, 1.559e-7
-1.383, 1.559e-7
-1.382, -2.927e-6
-1.381, 1.559e-7
-1.380, -2.927e-6
-1.379, -2.927e-6
-1.378, -2.927e-6
-1.377, -2.927e-6
-1.376, -2.927e-6
-1.375, -2.927e-6
-1.374, -2.927e-6
-1.373, -2.927e-6
-1.372, -2.927e-6
-1.371, -2.927e-6
-1.370, -2.927e-6
-1.369, -2.927e-6
-1.368, -2.927e-6
-1.367, -2.927e-6
-1.366, -2.927e-6
-1.365, -2.927e-6
-1.364, -6.010e-6
-1.363, -2.927e-6
-1.362, -6.010e-6
-1.361, -6.010e-6
-1.360, -2.927e-6
-1.359, -6.010e-6
-1.358, -6.010e-6
-1.357, -6.010e-6
-1.356, -6.010e-6
-1.355, -6.010e-6
-1.354, -6.010e-6
-1.353, -6.010e-6
-1.352, -6.010e-6
-1.351, -6.010e-6
-1.350, -6.010e-6
-1.349, -6.010e-6
-1.348, -6.010e-6
-1.347, -6.010e-6
-1.346, -9.093e-6
-1.345, -9.093e-6
-1.344, -6.010e-6
-1.343, -6.010e-6
-1.342, -6.010e-6
-1.341, -9.093e-6
-1.340, -9.093e-6
-1.339, -9.093e-6
-1.338, -9.093e-6
-1.337, -6.010e-6
-1.336, -9.093e-6
-1.335, -6.010e-6
-1.334, -9.093e-6
-1.333, -9.093e-6
-1.332, -9.093e-6
-1.331, -9.093e-6
-1.330, -9.093e-6
-1.329, -9.093e-6
-1.328, -9.093e-6
-1.327, -9.093e-6
-1.326, -9.093e-6
-1.325, -9.093e-6
-1.324, -9.093e-6
-1.323, -9.093e-6
-1.322, -9.093e-6
-1.321, -9.093e-6
-1.320, -9.093e-6
-1.319, -9.093e-6
-1.318, -9.093e-6
-1.317, -9.093e-6
-1.316, -9.093e-6
-1.315, -9.093e-6
-1.314, -9.093e-6
-1.313, -9.093e-6
-1.312, -9.093e-6
-1.311, -9.093e-6
-1.310, -9.093e-6
-1.309, -9.093e-6
-1.308, -9.093e-6
-1.307, -9.093e-6
-1.306, -9.093e-6
-1.305, -1.218e-5
-1.304, -9.093e-6
-1.303, -9.093e-6
-1.302, -9.093e-6
-1.301, -9.093e-6
-1.300, -9.093e-6
-1.299, -9.093e-6
-1.298, -9.093e-6
-1.297, -9.093e-6
-1.296, -9.093e-6
-1.295, -9.093e-6
-1.294, -9.093e-6
-1.293, -1.218e-5
-1.292, -9.093e-6
-1.291, -1.218e-5
-1.290, -1.218e-5
-1.289, -9.093e-6
-1.288, -1.218e-5
-1.287, -9.093e-6
-1.286, -1.218e-5
-1.285, -9.093e-6
-1.284, -1.218e-5
-1.283, -1.218e-5
-1.282, -1.218e-5
-1.281, -1.218e-5
-1.280, -1.218e-5
-1.279, -1.218e-5
-1.278, -1.218e-5
-1.277, -1.218e-5
-1.276, -1.218e-5
-1.275, -1.218e-5
-1.274, -1.218e-5
-1.273, -1.218e-5
-1.272, -1.218e-5
-1.271, -1.218e-5
-1.270, -1.218e-5
-1.269, -1.218e-5
-1.268, -1.218e-5
-1.267, -1.218e-5
-1.266, -1.218e-5
-1.265, -1.218e-5
-1.264, -1.218e-5
-1.263, -1.218e-5
-1.262, -1.218e-5
-1.261, -1.218e-5
-1.260, -1.218e-5
-1.259, -1.218e-5
-1.258, -1.218e-5
-1.257, -1.218e-5
-1.256, -1.218e-5
-1.255, -1.218e-5
-1.254, -1.218e-5
-1.253, -1.218e-5
-1.252, -1.218e-5
-1.251, -1.218e-5
-1.250, -1.218e-5
-1.249, -1.218e-5
-1.248, -1.218e-5
-1.247, -1.218e-5
-1.246, -1.218e-5
-1.245, -1.218e-5
-1.244, -1.218e-5
-1.243, -1.218e-5
-1.242, -1.218e-5
-1.241, -1.218e-5
-1.240, -1.218e-5
-1.239, -1.218e-5
-1.238, -1.218e-5
-1.237, -1.218e-5
-1.236, -1.218e-5
-1.235, -1.218e-5
-1.234, -1.218e-5
-1.233, -1.218e-5
-1.232, -1.218e-5
-1.231, -1.526e-5
-1.230, -1.218e-5
-1.229, -1.218e-5
-1.228, -1.218e-5
-1.227, -1.218e-5
-1.226, -1.218e-5
-1.225, -1.218e-5
-1.224, -1.526e-5
-1.223, -1.526e-5
-1.222, -1.526e-5
-1.221, -1.218e-5
-1.220, -1.526e-5
-1.219, -1.526e-5
-1.218, -1.218e-5
-1.217, -1.526e-5
-1.216, -1.526e-5
-1.215, -1.526e-5
-1.214, -1.526e-5
-1.213, -1.218e-5
-1.212, -1.526e-5
-1.211, -1.526e-5
-1.210, -1.526e-5
-1.209, -1.218e-5
-1.208, -1.526e-5
-1.207, -1.526e-5
-1.206, -1.526e-5
-1.205, -1.526e-5
-1.204, -1.526e-5
-1.203, -1.526e-5
-1.202, -1.526e-5
-1.201, -1.526e-5
-1.200, -1.218e-5
-1.199, -1.526e-5
-1.198, -1.526e-5
-1.197, -1.526e-5
-1.196, -1.526e-5
-1.195, -1.526e-5
-1.194, -1.526e-5
-1.193, -1.526e-5
-1.192, -1.526e-5
-1.191, -1.526e-5
-1.190, -1.526e-5
-1.189, -1.526e-5
-1.188, -1.526e-5
-1.187, -1.526e-5
-1.186, -1.218e-5
-1.185, -1.526e-5
-1.184, -1.526e-5
-1.183, -1.526e-5
-1.182, -1.526e-5
-1.181, -1.526e-5
-1.180, -1.526e-5
-1.179, -1.526e-5
-1.178, -1.526e-5
-1.177, -1.526e-5
-1.176, -1.526e-5
-1.175, -1.526e-5
-1.174, -1.526e-5
-1.173, -1.526e-5
-1.172, -1.526e-5
-1.171, -1.526e-5
-1.170, -1.526e-5
-1.169, -1.526e-5
-1.168, -1.526e-5
-1.167, -1.526e-5
-1.166, -1.526e-5
-1.165, -1.526e-5
-1.164, -1.526e-5
-1.163, -1.526e-5
-1.162, -1.526e-5
-1.161, -1.526e-5
-1.160, -1.526e-5
-1.159, -1.526e-5
-1.158, -1.526e-5
-1.157, -1.526e-5
-1.156, -1.526e-5
-1.155, -1.526e-5
-1.154, -1.526e-5
-1.153, -1.526e-5
-1.152, -1.526e-5
-1.151, -1.526e-5
-1.150, -1.526e-5
-1.149, -1.834e-5
-1.148, -1.834e-5
-1.147, -1.526e-5
-1.146, -1.834e-5
-1.145, -1.526e-5
-1.144, -1.834e-5
-1.143, -1.834e-5
-1.142, -1.834e-5
-1.141, -1.834e-5
-1.140, -1.526e-5
-1.139, -1.834e-5
-1.138, -1.526e-5
-1.137, -1.834e-5
-1.136, -1.834e-5
-1.135, -1.834e-5
-1.134, -1.834e-5
-1.133, -1.526e-5
-1.132, -1.834e-5
-1.131, -1.526e-5
-1.130, -1.834e-5
-1.129, -1.834e-5
-1.128, -1.834e-5
-1.127, -1.526e-5
-1.126, -1.834e-5
-1.125, -1.834e-5
-1.124, -1.834e-5
-1.123, -1.834e-5
-1.122, -1.834e-5
-1.121, -1.834e-5
-1.120, -1.834e-5
-1.119, -1.834e-5
-1.118, -1.834e-5
-1.117, -1.834e-5
-1.116, -1.834e-5
-1.115, -1.834e-5
-1.114, -1.834e-5
-1.113, -1.834e-5
-1.112, -1.834e-5
-1.111, -1.834e-5
-1.110, -1.834e-5
-1.109, -1.834e-5
-1.108, -1.834e-5
-1.107, -1.834e-5
-1.106, -1.834e-5
-1.105, -1.834e-5
-1.104, -1.834e-5
-1.103, -1.834e-5
-1.102, -1.834e-5
-1.101, -2.143e-5
-1.100, -1.834e-5
-1.099, -1.834e-5
-1.098, -1.834e-5
-1.097, -1.834e-5
-1.096, -1.834e-5
-1.095, -2.143e-5
-1.094, -2.143e-5
-1.093, -1.834e-5
-1.092, -1.834e-5
-1.091, -2.143e-5
-1.090, -1.834e-5
-1.089, -2.143e-5
-1.088, -2.143e-5
-1.087, -2.143e-5
-1.086, -2.143e-5
-1.085, -2.143e-5
-1.084, -2.143e-5
-1.083, -2.143e-5
-1.082, -2.143e-5
-1.081, -2.143e-5
-1.080, -2.143e-5
-1.079, -2.143e-5
-1.078, -2.143e-5
-1.077, -2.143e-5
-1.076, -2.143e-5
-1.075, -2.143e-5
-1.074, -2.143e-5
-1.073, -2.143e-5
-1.072, -2.143e-5
-1.071, -2.143e-5
-1.070, -2.143e-5
-1.069, -2.143e-5
-1.068, -2.143e-5
-1.067, -2.143e-5
-1.066, -2.143e-5
-1.065, -2.143e-5
-1.064, -2.143e-5
-1.063, -2.143e-5
-1.062, -2.143e-5
-1.061, -2.143e-5
-1.060, -2.143e-5
-1.059, -2.143e-5
-1.058, -2.143e-5
-1.057, -2.143e-5
-1.056, -2.143e-5
-1.055, -2.451e-5
-1.054, -2.143e-5
-1.053, -2.143e-5
-1.052, -2.143e-5
-1.051, -2.143e-5
-1.050, -2.451e-5
-1.049, -2.451e-5
-1.048, -2.451e-5
-1.047, -2.451e-5
-1.046, -2.451e-5
-1.045, -2.143e-5
-1.044, -2.451e-5
-1.043, -2.451e-5
-1.042, -2.451e-5
-1.041, -2.451e-5
-1.040, -2.451e-5
-1.039, -2.451e-5
-1.038, -2.451e-5
-1.037, -2.451e-5
-1.036, -2.451e-5
-1.035, -2.451e-5
-1.034, -2.451e-5
-1.033, -2.451e-5
-1.032, -2.451e-5
-1.031, -2.451e-5
-1.030, -2.451e-5
-1.029, -2.451e-5
-1.028, -2.451e-5
-1.027, -2.451e-5
-1.026, -2.451e-5
-1.025, -2.759e-5
-1.024, -2.451e-5
-1.023, -2.759e-5
-1.022, -2.759e-5
-1.021, -2.451e-5
-1.020, -2.759e-5
-1.019, -2.759e-5
-1.018, -2.759e-5
-1.017, -2.759e-5
-1.016, -2.759e-5
-1.015, -2.759e-5
-1.014, -2.759e-5
-1.013, -2.759e-5
-1.012, -2.759e-5
-1.011, -2.759e-5
-1.010, -2.759e-5
-1.009, -2.759e-5
-1.008, -2.759e-5
-1.007, -3.068e-5
-1.006, -2.759e-5
-1.005, -2.759e-5
-1.004, -2.759e-5
-1.003, -2.759e-5
-1.002, -3.068e-5
-1.001, -3.068e-5
