Sept. 6, 2024   20:21:53
Cyclic Voltammetry
File: c:/users/guazh/data/20240903_batch_252_500/2024-09-03-exp282\exp282-2024-09-06t19_59_11-h2koh\exp282_cv_sr_100mvs_efin_-1800mv.bin
Data Source:  Experiment
Instrument Model:  CHI760E
Header: CV ran at 100 mVs
Note: 

Init E (V) = -1
High E (V) = -1
Low E (V) = -1.8
Final E (V) = -1
Init P/N = N
Scan Rate (V/s) = 0.1
Segment = 3
Sample Interval (V) = 0.001
Quiet Time (sec) = 2
Sensitivity (A/V) = 0.01
Comp R (ohm) = 2.6

Results:

Channel 1:
Segment 1:

Segment 2:

Segment 3:

Potential/V, Current/A

-1.000, 2.447e-7
-1.001, 6.985e-7
-1.002, 7.182e-7
-1.003, 8.564e-7
-1.004, 9.353e-7
-1.005, 1.073e-6
-1.006, 1.379e-6
-1.007, 1.281e-6
-1.008, 1.290e-6
-1.009, 1.340e-6
-1.010, 1.547e-6
-1.011, 1.685e-6
-1.012, 1.715e-6
-1.013, 1.813e-6
-1.014, 1.596e-6
-1.015, 1.734e-6
-1.016, 1.705e-6
-1.017, 1.803e-6
-1.018, 1.922e-6
-1.019, 1.981e-6
-1.020, 1.912e-6
-1.021, 2.060e-6
-1.022, 1.892e-6
-1.023, 2.001e-6
-1.024, 2.050e-6
-1.025, 2.188e-6
-1.026, 2.257e-6
-1.027, 2.178e-6
-1.028, 2.228e-6
-1.029, 2.267e-6
-1.030, 2.247e-6
-1.031, 2.435e-6
-1.032, 2.228e-6
-1.033, 2.317e-6
-1.034, 2.188e-6
-1.035, 2.307e-6
-1.036, 2.455e-6
-1.037, 2.425e-6
-1.038, 2.307e-6
-1.039, 2.435e-6
-1.040, 2.386e-6
-1.041, 2.553e-6
-1.042, 2.504e-6
-1.043, 2.514e-6
-1.044, 2.484e-6
-1.045, 2.524e-6
-1.046, 2.682e-6
-1.047, 2.593e-6
-1.048, 2.524e-6
-1.049, 2.583e-6
-1.050, 2.573e-6
-1.051, 2.721e-6
-1.052, 2.652e-6
-1.053, 2.741e-6
-1.054, 2.731e-6
-1.055, 2.701e-6
-1.056, 2.820e-6
-1.057, 2.770e-6
-1.058, 2.701e-6
-1.059, 2.839e-6
-1.060, 2.770e-6
-1.061, 2.830e-6
-1.062, 2.820e-6
-1.063, 2.987e-6
-1.064, 2.889e-6
-1.065, 2.889e-6
-1.066, 3.047e-6
-1.067, 2.869e-6
-1.068, 2.958e-6
-1.069, 3.047e-6
-1.070, 2.968e-6
-1.071, 2.997e-6
-1.072, 2.997e-6
-1.073, 2.908e-6
-1.074, 2.987e-6
-1.075, 3.047e-6
-1.076, 3.116e-6
-1.077, 2.987e-6
-1.078, 3.056e-6
-1.079, 3.096e-6
-1.080, 3.037e-6
-1.081, 3.195e-6
-1.082, 3.056e-6
-1.083, 3.086e-6
-1.084, 3.126e-6
-1.085, 3.175e-6
-1.086, 3.234e-6
-1.087, 3.185e-6
-1.088, 3.204e-6
-1.089, 3.135e-6
-1.090, 3.145e-6
-1.091, 3.352e-6
-1.092, 3.175e-6
-1.093, 3.254e-6
-1.094, 3.352e-6
-1.095, 3.313e-6
-1.096, 3.333e-6
-1.097, 3.274e-6
-1.098, 3.362e-6
-1.099, 3.185e-6
-1.100, 3.323e-6
-1.101, 3.392e-6
-1.102, 3.343e-6
-1.103, 3.402e-6
-1.104, 3.362e-6
-1.105, 3.392e-6
-1.106, 3.520e-6
-1.107, 3.175e-6
-1.108, 3.500e-6
-1.109, 3.382e-6
-1.110, 3.491e-6
-1.111, 3.500e-6
-1.112, 3.412e-6
-1.113, 3.422e-6
-1.114, 3.471e-6
-1.115, 3.382e-6
-1.116, 3.530e-6
-1.117, 3.431e-6
-1.118, 3.372e-6
-1.119, 3.510e-6
-1.120, 3.461e-6
-1.121, 3.500e-6
-1.122, 3.323e-6
-1.123, 3.362e-6
-1.124, 3.323e-6
-1.125, 3.500e-6
-1.126, 3.343e-6
-1.127, 3.550e-6
-1.128, 3.609e-6
-1.129, 3.609e-6
-1.130, 3.619e-6
-1.131, 3.658e-6
-1.132, 3.560e-6
-1.133, 3.550e-6
-1.134, 3.658e-6
-1.135, 3.560e-6
-1.136, 3.678e-6
-1.137, 3.510e-6
-1.138, 3.609e-6
-1.139, 3.747e-6
-1.140, 3.698e-6
-1.141, 3.579e-6
-1.142, 3.579e-6
-1.143, 3.599e-6
-1.144, 3.560e-6
-1.145, 3.678e-6
-1.146, 3.717e-6
-1.147, 3.540e-6
-1.148, 3.550e-6
-1.149, 3.570e-6
-1.150, 3.550e-6
-1.151, 3.639e-6
-1.152, 3.688e-6
-1.153, 3.836e-6
-1.154, 3.658e-6
-1.155, 3.708e-6
-1.156, 3.846e-6
-1.157, 3.648e-6
-1.158, 3.796e-6
-1.159, 3.708e-6
-1.160, 3.777e-6
-1.161, 3.905e-6
-1.162, 3.658e-6
-1.163, 3.708e-6
-1.164, 3.708e-6
-1.165, 3.846e-6
-1.166, 3.875e-6
-1.167, 3.767e-6
-1.168, 3.757e-6
-1.169, 3.836e-6
-1.170, 3.826e-6
-1.171, 3.865e-6
-1.172, 3.796e-6
-1.173, 3.816e-6
-1.174, 3.777e-6
-1.175, 3.915e-6
-1.176, 3.787e-6
-1.177, 3.727e-6
-1.178, 3.767e-6
-1.179, 3.826e-6
-1.180, 3.974e-6
-1.181, 4.013e-6
-1.182, 4.013e-6
-1.183, 3.915e-6
-1.184, 3.895e-6
-1.185, 3.935e-6
-1.186, 3.994e-6
-1.187, 3.905e-6
-1.188, 3.925e-6
-1.189, 3.964e-6
-1.190, 4.073e-6
-1.191, 4.112e-6
-1.192, 4.132e-6
-1.193, 4.092e-6
-1.194, 4.033e-6
-1.195, 4.053e-6
-1.196, 4.083e-6
-1.197, 4.102e-6
-1.198, 4.013e-6
-1.199, 4.043e-6
-1.200, 4.161e-6
-1.201, 4.201e-6
-1.202, 4.260e-6
-1.203, 4.171e-6
-1.204, 4.270e-6
-1.205, 4.171e-6
-1.206, 4.260e-6
-1.207, 4.319e-6
-1.208, 4.240e-6
-1.209, 4.201e-6
-1.210, 4.231e-6
-1.211, 4.270e-6
-1.212, 4.260e-6
-1.213, 4.181e-6
-1.214, 4.349e-6
-1.215, 4.300e-6
-1.216, 4.319e-6
-1.217, 4.349e-6
-1.218, 4.408e-6
-1.219, 4.359e-6
-1.220, 4.457e-6
-1.221, 4.438e-6
-1.222, 4.487e-6
-1.223, 4.586e-6
-1.224, 4.388e-6
-1.225, 4.625e-6
-1.226, 4.586e-6
-1.227, 4.526e-6
-1.228, 4.566e-6
-1.229, 4.665e-6
-1.230, 4.734e-6
-1.231, 4.793e-6
-1.232, 4.694e-6
-1.233, 4.665e-6
-1.234, 4.645e-6
-1.235, 4.872e-6
-1.236, 5.000e-6
-1.237, 4.980e-6
-1.238, 4.872e-6
-1.239, 4.970e-6
-1.240, 5.049e-6
-1.241, 4.990e-6
-1.242, 4.990e-6
-1.243, 4.970e-6
-1.244, 5.138e-6
-1.245, 5.128e-6
-1.246, 5.148e-6
-1.247, 5.128e-6
-1.248, 5.276e-6
-1.249, 5.257e-6
-1.250, 5.257e-6
-1.251, 5.375e-6
-1.252, 5.395e-6
-1.253, 5.365e-6
-1.254, 5.336e-6
-1.255, 5.434e-6
-1.256, 5.612e-6
-1.257, 5.434e-6
-1.258, 5.681e-6
-1.259, 5.434e-6
-1.260, 5.513e-6
-1.261, 5.720e-6
-1.262, 5.671e-6
-1.263, 5.809e-6
-1.264, 5.710e-6
-1.265, 5.947e-6
-1.266, 5.997e-6
-1.267, 5.977e-6
-1.268, 6.075e-6
-1.269, 6.036e-6
-1.270, 6.243e-6
-1.271, 6.223e-6
-1.272, 6.293e-6
-1.273, 6.401e-6
-1.274, 6.440e-6
-1.275, 6.460e-6
-1.276, 6.519e-6
-1.277, 6.598e-6
-1.278, 6.658e-6
-1.279, 6.618e-6
-1.280, 6.845e-6
-1.281, 6.954e-6
-1.282, 6.904e-6
-1.283, 6.944e-6
-1.284, 7.082e-6
-1.285, 7.062e-6
-1.286, 7.210e-6
-1.287, 7.319e-6
-1.288, 7.328e-6
-1.289, 7.259e-6
-1.290, 7.397e-6
-1.291, 7.506e-6
-1.292, 7.595e-6
-1.293, 7.654e-6
-1.294, 7.743e-6
-1.295, 7.693e-6
-1.296, 7.999e-6
-1.297, 8.078e-6
-1.298, 8.147e-6
-1.299, 8.266e-6
-1.300, 8.305e-6
-1.301, 8.453e-6
-1.302, 8.532e-6
-1.303, 8.552e-6
-1.304, 8.621e-6
-1.305, 8.739e-6
-1.306, 9.016e-6
-1.307, 9.124e-6
-1.308, 9.252e-6
-1.309, 9.361e-6
-1.310, 9.183e-6
-1.311, 9.341e-6
-1.312, 9.509e-6
-1.313, 9.598e-6
-1.314, 9.775e-6
-1.315, 9.825e-6
-1.316, 9.953e-6
-1.317, 1.016e-5
-1.318, 1.016e-5
-1.319, 1.044e-5
-1.320, 1.043e-5
-1.321, 1.067e-5
-1.322, 1.080e-5
-1.323, 1.082e-5
-1.324, 1.087e-5
-1.325, 1.117e-5
-1.326, 1.145e-5
-1.327, 1.147e-5
-1.328, 1.165e-5
-1.329, 1.177e-5
-1.330, 1.198e-5
-1.331, 1.206e-5
-1.332, 1.219e-5
-1.333, 1.260e-5
-1.334, 1.273e-5
-1.335, 1.285e-5
-1.336, 1.309e-5
-1.337, 1.330e-5
-1.338, 1.350e-5
-1.339, 1.363e-5
-1.340, 1.365e-5
-1.341, 1.397e-5
-1.342, 1.412e-5
-1.343, 1.429e-5
-1.344, 1.472e-5
-1.345, 1.491e-5
-1.346, 1.498e-5
-1.347, 1.510e-5
-1.348, 1.512e-5
-1.349, 1.547e-5
-1.350, 1.567e-5
-1.351, 1.602e-5
-1.352, 1.610e-5
-1.353, 1.637e-5
-1.354, 1.675e-5
-1.355, 1.677e-5
-1.356, 1.710e-5
-1.357, 1.733e-5
-1.358, 1.785e-5
-1.359, 1.824e-5
-1.360, 1.832e-5
-1.361, 1.841e-5
-1.362, 1.865e-5
-1.363, 1.901e-5
-1.364, 1.931e-5
-1.365, 1.944e-5
-1.366, 1.989e-5
-1.367, 2.011e-5
-1.368, 2.035e-5
-1.369, 2.051e-5
-1.370, 2.088e-5
-1.371, 2.110e-5
-1.372, 2.139e-5
-1.373, 2.160e-5
-1.374, 2.193e-5
-1.375, 2.241e-5
-1.376, 2.273e-5
-1.377, 2.284e-5
-1.378, 2.314e-5
-1.379, 2.337e-5
-1.380, 2.394e-5
-1.381, 2.424e-5
-1.382, 2.447e-5
-1.383, 2.477e-5
-1.384, 2.510e-5
-1.385, 2.544e-5
-1.386, 2.598e-5
-1.387, 2.626e-5
-1.388, 2.655e-5
-1.389, 2.691e-5
-1.390, 2.743e-5
-1.391, 2.781e-5
-1.392, 2.812e-5
-1.393, 2.856e-5
-1.394, 2.892e-5
-1.395, 2.950e-5
-1.396, 3.004e-5
-1.397, 3.028e-5
-1.398, 3.062e-5
-1.399, 3.091e-5
-1.400, 3.137e-5
-1.401, 3.184e-5
-1.402, 3.231e-5
-1.403, 3.274e-5
-1.404, 3.328e-5
-1.405, 3.368e-5
-1.406, 3.390e-5
-1.407, 3.456e-5
-1.408, 3.504e-5
-1.409, 3.554e-5
-1.410, 3.604e-5
-1.411, 3.657e-5
-1.412, 3.682e-5
-1.413, 3.739e-5
-1.414, 3.798e-5
-1.415, 3.846e-5
-1.416, 3.887e-5
-1.417, 3.937e-5
-1.418, 3.995e-5
-1.419, 4.052e-5
-1.420, 4.095e-5
-1.421, 4.162e-5
-1.422, 4.213e-5
-1.423, 4.269e-5
-1.424, 4.328e-5
-1.425, 4.386e-5
-1.426, 4.448e-5
-1.427, 4.493e-5
-1.428, 4.568e-5
-1.429, 4.616e-5
-1.430, 4.673e-5
-1.431, 4.746e-5
-1.432, 4.800e-5
-1.433, 4.885e-5
-1.434, 4.953e-5
-1.435, 5.018e-5
-1.436, 5.100e-5
-1.437, 5.139e-5
-1.438, 5.213e-5
-1.439, 5.298e-5
-1.440, 5.368e-5
-1.441, 5.438e-5
-1.442, 5.500e-5
-1.443, 5.565e-5
-1.444, 5.636e-5
-1.445, 5.733e-5
-1.446, 5.804e-5
-1.447, 5.878e-5
-1.448, 5.952e-5
-1.449, 6.042e-5
-1.450, 6.135e-5
-1.451, 6.204e-5
-1.452, 6.273e-5
-1.453, 6.359e-5
-1.454, 6.450e-5
-1.455, 6.542e-5
-1.456, 6.629e-5
-1.457, 6.727e-5
-1.458, 6.811e-5
-1.459, 6.910e-5
-1.460, 7.010e-5
-1.461, 7.100e-5
-1.462, 7.191e-5
-1.463, 7.288e-5
-1.464, 7.369e-5
-1.465, 7.494e-5
-1.466, 7.595e-5
-1.467, 7.696e-5
-1.468, 7.809e-5
-1.469, 7.907e-5
-1.470, 8.037e-5
-1.471, 8.141e-5
-1.472, 8.240e-5
-1.473, 8.363e-5
-1.474, 8.481e-5
-1.475, 8.591e-5
-1.476, 8.693e-5
-1.477, 8.797e-5
-1.478, 8.935e-5
-1.479, 9.069e-5
-1.480, 9.202e-5
-1.481, 9.323e-5
-1.482, 9.458e-5
-1.483, 9.588e-5
-1.484, 9.731e-5
-1.485, 9.868e-5
-1.486, 1.001e-4
-1.487, 1.016e-4
-1.488, 1.030e-4
-1.489, 1.045e-4
-1.490, 1.061e-4
-1.491, 1.077e-4
-1.492, 1.091e-4
-1.493, 1.106e-4
-1.494, 1.121e-4
-1.495, 1.136e-4
-1.496, 1.152e-4
-1.497, 1.168e-4
-1.498, 1.184e-4
-1.499, 1.201e-4
-1.500, 1.218e-4
-1.501, 1.236e-4
-1.502, 1.253e-4
-1.503, 1.269e-4
-1.504, 1.287e-4
-1.505, 1.305e-4
-1.506, 1.325e-4
-1.507, 1.343e-4
-1.508, 1.362e-4
-1.509, 1.381e-4
-1.510, 1.403e-4
-1.511, 1.424e-4
-1.512, 1.448e-4
-1.513, 1.467e-4
-1.514, 1.488e-4
-1.515, 1.509e-4
-1.516, 1.533e-4
-1.517, 1.553e-4
-1.518, 1.577e-4
-1.519, 1.600e-4
-1.520, 1.621e-4
-1.521, 1.645e-4
-1.522, 1.668e-4
-1.523, 1.688e-4
-1.524, 1.711e-4
-1.525, 1.737e-4
-1.526, 1.756e-4
-1.527, 1.780e-4
-1.528, 1.803e-4
-1.529, 1.833e-4
-1.530, 1.857e-4
-1.531, 1.877e-4
-1.532, 1.900e-4
-1.533, 1.928e-4
-1.534, 1.956e-4
-1.535, 1.990e-4
-1.536, 2.018e-4
-1.537, 2.044e-4
-1.538, 2.068e-4
-1.539, 2.087e-4
-1.540, 2.115e-4
-1.541, 2.144e-4
-1.542, 2.176e-4
-1.543, 2.196e-4
-1.544, 2.222e-4
-1.545, 2.251e-4
-1.546, 2.274e-4
-1.547, 2.308e-4
-1.548, 2.339e-4
-1.549, 2.364e-4
-1.550, 2.400e-4
-1.551, 2.431e-4
-1.552, 2.454e-4
-1.553, 2.485e-4
-1.554, 2.509e-4
-1.555, 2.542e-4
-1.556, 2.562e-4
-1.557, 2.589e-4
-1.558, 2.621e-4
-1.559, 2.652e-4
-1.560, 2.699e-4
-1.561, 2.727e-4
-1.562, 2.759e-4
-1.563, 2.789e-4
-1.564, 2.831e-4
-1.565, 2.860e-4
-1.566, 2.888e-4
-1.567, 2.928e-4
-1.568, 2.964e-4
-1.569, 3.005e-4
-1.570, 3.037e-4
-1.571, 3.074e-4
-1.572, 3.108e-4
-1.573, 3.142e-4
-1.574, 3.180e-4
-1.575, 3.218e-4
-1.576, 3.253e-4
-1.577, 3.281e-4
-1.578, 3.317e-4
-1.579, 3.363e-4
-1.580, 3.392e-4
-1.581, 3.431e-4
-1.582, 3.483e-4
-1.583, 3.515e-4
-1.584, 3.554e-4
-1.585, 3.582e-4
-1.586, 3.615e-4
-1.587, 3.654e-4
-1.588, 3.700e-4
-1.589, 3.740e-4
-1.590, 3.784e-4
-1.591, 3.824e-4
-1.592, 3.862e-4
-1.593, 3.900e-4
-1.594, 3.948e-4
-1.595, 4.011e-4
-1.596, 4.045e-4
-1.597, 4.105e-4
-1.598, 4.145e-4
-1.599, 4.193e-4
-1.600, 4.233e-4
-1.601, 4.275e-4
-1.602, 4.325e-4
-1.603, 4.386e-4
-1.604, 4.433e-4
-1.605, 4.509e-4
-1.606, 4.563e-4
-1.607, 4.601e-4
-1.608, 4.640e-4
-1.609, 4.695e-4
-1.610, 4.724e-4
-1.611, 4.785e-4
-1.612, 4.839e-4
-1.613, 4.893e-4
-1.614, 4.938e-4
-1.615, 4.981e-4
-1.616, 5.039e-4
-1.617, 5.105e-4
-1.618, 5.178e-4
-1.619, 5.236e-4
-1.620, 5.273e-4
-1.621, 5.342e-4
-1.622, 5.405e-4
-1.623, 5.471e-4
-1.624, 5.548e-4
-1.625, 5.611e-4
-1.626, 5.692e-4
-1.627, 5.761e-4
-1.628, 5.829e-4
-1.629, 5.909e-4
-1.630, 5.964e-4
-1.631, 6.045e-4
-1.632, 6.116e-4
-1.633, 6.201e-4
-1.634, 6.281e-4
-1.635, 6.361e-4
-1.636, 6.429e-4
-1.637, 6.478e-4
-1.638, 6.559e-4
-1.639, 6.632e-4
-1.640, 6.708e-4
-1.641, 6.804e-4
-1.642, 6.894e-4
-1.643, 7.005e-4
-1.644, 7.117e-4
-1.645, 7.209e-4
-1.646, 7.320e-4
-1.647, 7.434e-4
-1.648, 7.533e-4
-1.649, 7.635e-4
-1.650, 7.738e-4
-1.651, 7.843e-4
-1.652, 7.930e-4
-1.653, 8.052e-4
-1.654, 8.146e-4
-1.655, 8.249e-4
-1.656, 8.368e-4
-1.657, 8.475e-4
-1.658, 8.618e-4
-1.659, 8.738e-4
-1.660, 8.887e-4
-1.661, 9.024e-4
-1.662, 9.119e-4
-1.663, 9.224e-4
-1.664, 9.335e-4
-1.665, 9.452e-4
-1.666, 9.589e-4
-1.667, 9.710e-4
-1.668, 9.844e-4
-1.669, 1.001e-3
-1.670, 1.016e-3
-1.671, 1.030e-3
-1.672, 1.045e-3
-1.673, 1.061e-3
-1.674, 1.075e-3
-1.675, 1.093e-3
-1.676, 1.112e-3
-1.677, 1.130e-3
-1.678, 1.148e-3
-1.679, 1.165e-3
-1.680, 1.182e-3
-1.681, 1.200e-3
-1.682, 1.217e-3
-1.683, 1.240e-3
-1.684, 1.260e-3
-1.685, 1.274e-3
-1.686, 1.298e-3
-1.687, 1.313e-3
-1.688, 1.327e-3
-1.689, 1.347e-3
-1.690, 1.365e-3
-1.691, 1.380e-3
-1.692, 1.401e-3
-1.693, 1.426e-3
-1.694, 1.445e-3
-1.695, 1.465e-3
-1.696, 1.488e-3
-1.697, 1.517e-3
-1.698, 1.542e-3
-1.699, 1.571e-3
-1.700, 1.596e-3
-1.701, 1.633e-3
-1.702, 1.661e-3
-1.703, 1.690e-3
-1.704, 1.710e-3
-1.705, 1.730e-3
-1.706, 1.757e-3
-1.707, 1.780e-3
-1.708, 1.806e-3
-1.709, 1.831e-3
-1.710, 1.852e-3
-1.711, 1.885e-3
-1.712, 1.915e-3
-1.713, 1.941e-3
-1.714, 1.950e-3
-1.715, 1.968e-3
-1.716, 2.003e-3
-1.717, 2.036e-3
-1.718, 2.071e-3
-1.719, 2.104e-3
-1.720, 2.141e-3
-1.721, 2.174e-3
-1.722, 2.200e-3
-1.723, 2.224e-3
-1.724, 2.249e-3
-1.725, 2.301e-3
-1.726, 2.331e-3
-1.727, 2.387e-3
-1.728, 2.426e-3
-1.729, 2.464e-3
-1.730, 2.501e-3
-1.731, 2.537e-3
-1.732, 2.574e-3
-1.733, 2.621e-3
-1.734, 2.669e-3
-1.735, 2.684e-3
-1.736, 2.720e-3
-1.737, 2.740e-3
-1.738, 2.766e-3
-1.739, 2.798e-3
-1.740, 2.833e-3
-1.741, 2.872e-3
-1.742, 2.908e-3
-1.743, 2.953e-3
-1.744, 3.002e-3
-1.745, 3.051e-3
-1.746, 3.094e-3
-1.747, 3.138e-3
-1.748, 3.172e-3
-1.749, 3.223e-3
-1.750, 3.263e-3
-1.751, 3.299e-3
-1.752, 3.370e-3
-1.753, 3.404e-3
-1.754, 3.461e-3
-1.755, 3.501e-3
-1.756, 3.553e-3
-1.757, 3.627e-3
-1.758, 3.678e-3
-1.759, 3.762e-3
-1.760, 3.808e-3
-1.761, 3.887e-3
-1.762, 3.935e-3
-1.763, 3.972e-3
-1.764, 4.022e-3
-1.765, 4.060e-3
-1.766, 4.117e-3
-1.767, 4.157e-3
-1.768, 4.228e-3
-1.769, 4.246e-3
-1.770, 4.243e-3
-1.771, 4.284e-3
-1.772, 4.255e-3
-1.773, 4.280e-3
-1.774, 4.324e-3
-1.775, 4.382e-3
-1.776, 4.474e-3
-1.777, 4.556e-3
-1.778, 4.597e-3
-1.779, 4.702e-3
-1.780, 4.746e-3
-1.781, 4.813e-3
-1.782, 4.961e-3
-1.783, 4.971e-3
-1.784, 5.022e-3
-1.785, 5.124e-3
-1.786, 5.160e-3
-1.787, 5.242e-3
-1.788, 5.303e-3
-1.789, 5.387e-3
-1.790, 5.468e-3
-1.791, 5.545e-3
-1.792, 5.657e-3
-1.793, 5.749e-3
-1.794, 5.818e-3
-1.795, 5.874e-3
-1.796, 5.954e-3
-1.797, 6.003e-3
-1.798, 6.055e-3
-1.799, 6.076e-3
-1.800, 5.989e-3
-1.799, 5.810e-3
-1.798, 5.776e-3
-1.797, 5.772e-3
-1.796, 5.735e-3
-1.795, 5.717e-3
-1.794, 5.719e-3
-1.793, 5.729e-3
-1.792, 5.730e-3
-1.791, 5.698e-3
-1.790, 5.753e-3
-1.789, 5.715e-3
-1.788, 5.625e-3
-1.787, 5.586e-3
-1.786, 5.539e-3
-1.785, 5.488e-3
-1.784, 5.469e-3
-1.783, 5.432e-3
-1.782, 5.424e-3
-1.781, 5.410e-3
-1.780, 5.365e-3
-1.779, 5.344e-3
-1.778, 5.282e-3
-1.777, 5.217e-3
-1.776, 5.130e-3
-1.775, 5.035e-3
-1.774, 4.960e-3
-1.773, 4.913e-3
-1.772, 4.889e-3
-1.771, 4.835e-3
-1.770, 4.803e-3
-1.769, 4.772e-3
-1.768, 4.737e-3
-1.767, 4.723e-3
-1.766, 4.676e-3
-1.765, 4.664e-3
-1.764, 4.610e-3
-1.763, 4.512e-3
-1.762, 4.480e-3
-1.761, 4.428e-3
-1.760, 4.389e-3
-1.759, 4.358e-3
-1.758, 4.338e-3
-1.757, 4.322e-3
-1.756, 4.307e-3
-1.755, 4.275e-3
-1.754, 4.215e-3
-1.753, 4.177e-3
-1.752, 4.111e-3
-1.751, 4.048e-3
-1.750, 3.907e-3
-1.749, 3.847e-3
-1.748, 3.826e-3
-1.747, 3.794e-3
-1.746, 3.780e-3
-1.745, 3.747e-3
-1.744, 3.697e-3
-1.743, 3.703e-3
-1.742, 3.662e-3
-1.741, 3.621e-3
-1.740, 3.594e-3
-1.739, 3.548e-3
-1.738, 3.502e-3
-1.737, 3.438e-3
-1.736, 3.412e-3
-1.735, 3.375e-3
-1.734, 3.359e-3
-1.733, 3.327e-3
-1.732, 3.306e-3
-1.731, 3.263e-3
-1.730, 3.245e-3
-1.729, 3.223e-3
-1.728, 3.146e-3
-1.727, 3.077e-3
-1.726, 3.025e-3
-1.725, 2.986e-3
-1.724, 2.958e-3
-1.723, 2.937e-3
-1.722, 2.939e-3
-1.721, 2.898e-3
-1.720, 2.868e-3
-1.719, 2.840e-3
-1.718, 2.822e-3
-1.717, 2.792e-3
-1.716, 2.759e-3
-1.715, 2.716e-3
-1.714, 2.667e-3
-1.713, 2.639e-3
-1.712, 2.622e-3
-1.711, 2.617e-3
-1.710, 2.554e-3
-1.709, 2.564e-3
-1.708, 2.540e-3
-1.707, 2.493e-3
-1.706, 2.465e-3
-1.705, 2.407e-3
-1.704, 2.372e-3
-1.703, 2.340e-3
-1.702, 2.285e-3
-1.701, 2.254e-3
-1.700, 2.205e-3
-1.699, 2.179e-3
-1.698, 2.159e-3
-1.697, 2.138e-3
-1.696, 2.121e-3
-1.695, 2.100e-3
-1.694, 2.065e-3
-1.693, 2.045e-3
-1.692, 2.020e-3
-1.691, 1.995e-3
-1.690, 1.975e-3
-1.689, 1.940e-3
-1.688, 1.912e-3
-1.687, 1.886e-3
-1.686, 1.865e-3
-1.685, 1.848e-3
-1.684, 1.824e-3
-1.683, 1.806e-3
-1.682, 1.792e-3
-1.681, 1.761e-3
-1.680, 1.733e-3
-1.679, 1.711e-3
-1.678, 1.683e-3
-1.677, 1.649e-3
-1.676, 1.609e-3
-1.675, 1.564e-3
-1.674, 1.538e-3
-1.673, 1.543e-3
-1.672, 1.518e-3
-1.671, 1.497e-3
-1.670, 1.488e-3
-1.669, 1.471e-3
-1.668, 1.446e-3
-1.667, 1.427e-3
-1.666, 1.401e-3
-1.665, 1.376e-3
-1.664, 1.343e-3
-1.663, 1.325e-3
-1.662, 1.316e-3
-1.661, 1.296e-3
-1.660, 1.279e-3
-1.659, 1.266e-3
-1.658, 1.234e-3
-1.657, 1.217e-3
-1.656, 1.201e-3
-1.655, 1.182e-3
-1.654, 1.173e-3
-1.653, 1.150e-3
-1.652, 1.129e-3
-1.651, 1.105e-3
-1.650, 1.082e-3
-1.649, 1.067e-3
-1.648, 1.051e-3
-1.647, 1.035e-3
-1.646, 1.018e-3
-1.645, 1.002e-3
-1.644, 9.875e-4
-1.643, 9.738e-4
-1.642, 9.574e-4
-1.641, 9.416e-4
-1.640, 9.251e-4
-1.639, 9.118e-4
-1.638, 8.956e-4
-1.637, 8.842e-4
-1.636, 8.726e-4
-1.635, 8.574e-4
-1.634, 8.422e-4
-1.633, 8.281e-4
-1.632, 8.132e-4
-1.631, 8.002e-4
-1.630, 7.914e-4
-1.629, 7.800e-4
-1.628, 7.651e-4
-1.627, 7.496e-4
-1.626, 7.352e-4
-1.625, 7.216e-4
-1.624, 7.087e-4
-1.623, 6.951e-4
-1.622, 6.833e-4
-1.621, 6.717e-4
-1.620, 6.607e-4
-1.619, 6.492e-4
-1.618, 6.371e-4
-1.617, 6.295e-4
-1.616, 6.236e-4
-1.615, 6.117e-4
-1.614, 5.984e-4
-1.613, 5.886e-4
-1.612, 5.786e-4
-1.611, 5.684e-4
-1.610, 5.587e-4
-1.609, 5.505e-4
-1.608, 5.427e-4
-1.607, 5.324e-4
-1.606, 5.214e-4
-1.605, 5.125e-4
-1.604, 5.016e-4
-1.603, 4.902e-4
-1.602, 4.810e-4
-1.601, 4.733e-4
-1.600, 4.635e-4
-1.599, 4.541e-4
-1.598, 4.468e-4
-1.597, 4.398e-4
-1.596, 4.327e-4
-1.595, 4.260e-4
-1.594, 4.196e-4
-1.593, 4.115e-4
-1.592, 4.048e-4
-1.591, 3.987e-4
-1.590, 3.908e-4
-1.589, 3.827e-4
-1.588, 3.756e-4
-1.587, 3.677e-4
-1.586, 3.607e-4
-1.585, 3.532e-4
-1.584, 3.467e-4
-1.583, 3.400e-4
-1.582, 3.334e-4
-1.581, 3.270e-4
-1.580, 3.210e-4
-1.579, 3.153e-4
-1.578, 3.097e-4
-1.577, 3.038e-4
-1.576, 2.973e-4
-1.575, 2.913e-4
-1.574, 2.859e-4
-1.573, 2.805e-4
-1.572, 2.752e-4
-1.571, 2.707e-4
-1.570, 2.661e-4
-1.569, 2.616e-4
-1.568, 2.557e-4
-1.567, 2.513e-4
-1.566, 2.463e-4
-1.565, 2.410e-4
-1.564, 2.362e-4
-1.563, 2.311e-4
-1.562, 2.276e-4
-1.561, 2.242e-4
-1.560, 2.200e-4
-1.559, 2.155e-4
-1.558, 2.104e-4
-1.557, 2.068e-4
-1.556, 2.022e-4
-1.555, 1.980e-4
-1.554, 1.945e-4
-1.553, 1.908e-4
-1.552, 1.871e-4
-1.551, 1.839e-4
-1.550, 1.803e-4
-1.549, 1.770e-4
-1.548, 1.734e-4
-1.547, 1.698e-4
-1.546, 1.663e-4
-1.545, 1.628e-4
-1.544, 1.596e-4
-1.543, 1.565e-4
-1.542, 1.536e-4
-1.541, 1.508e-4
-1.540, 1.477e-4
-1.539, 1.448e-4
-1.538, 1.415e-4
-1.537, 1.385e-4
-1.536, 1.356e-4
-1.535, 1.328e-4
-1.534, 1.302e-4
-1.533, 1.274e-4
-1.532, 1.249e-4
-1.531, 1.226e-4
-1.530, 1.202e-4
-1.529, 1.182e-4
-1.528, 1.160e-4
-1.527, 1.138e-4
-1.526, 1.115e-4
-1.525, 1.094e-4
-1.524, 1.070e-4
-1.523, 1.047e-4
-1.522, 1.029e-4
-1.521, 1.009e-4
-1.520, 9.881e-5
-1.519, 9.669e-5
-1.518, 9.464e-5
-1.517, 9.276e-5
-1.516, 9.092e-5
-1.515, 8.907e-5
-1.514, 8.742e-5
-1.513, 8.538e-5
-1.512, 8.395e-5
-1.511, 8.228e-5
-1.510, 8.053e-5
-1.509, 7.890e-5
-1.508, 7.746e-5
-1.507, 7.592e-5
-1.506, 7.441e-5
-1.505, 7.278e-5
-1.504, 7.147e-5
-1.503, 7.008e-5
-1.502, 6.868e-5
-1.501, 6.735e-5
-1.500, 6.602e-5
-1.499, 6.452e-5
-1.498, 6.327e-5
-1.497, 6.198e-5
-1.496, 6.087e-5
-1.495, 5.958e-5
-1.494, 5.846e-5
-1.493, 5.724e-5
-1.492, 5.610e-5
-1.491, 5.495e-5
-1.490, 5.384e-5
-1.489, 5.262e-5
-1.488, 5.167e-5
-1.487, 5.066e-5
-1.486, 4.961e-5
-1.485, 4.852e-5
-1.484, 4.761e-5
-1.483, 4.675e-5
-1.482, 4.574e-5
-1.481, 4.474e-5
-1.480, 4.379e-5
-1.479, 4.300e-5
-1.478, 4.213e-5
-1.477, 4.129e-5
-1.476, 4.050e-5
-1.475, 3.948e-5
-1.474, 3.877e-5
-1.473, 3.814e-5
-1.472, 3.723e-5
-1.471, 3.652e-5
-1.470, 3.562e-5
-1.469, 3.488e-5
-1.468, 3.402e-5
-1.467, 3.336e-5
-1.466, 3.261e-5
-1.465, 3.211e-5
-1.464, 3.151e-5
-1.463, 3.082e-5
-1.462, 3.020e-5
-1.461, 2.966e-5
-1.460, 2.900e-5
-1.459, 2.824e-5
-1.458, 2.766e-5
-1.457, 2.714e-5
-1.456, 2.656e-5
-1.455, 2.603e-5
-1.454, 2.535e-5
-1.453, 2.493e-5
-1.452, 2.437e-5
-1.451, 2.407e-5
-1.450, 2.327e-5
-1.449, 2.295e-5
-1.448, 2.243e-5
-1.447, 2.199e-5
-1.446, 2.157e-5
-1.445, 2.117e-5
-1.444, 2.071e-5
-1.443, 2.001e-5
-1.442, 1.967e-5
-1.441, 1.934e-5
-1.440, 1.869e-5
-1.439, 1.826e-5
-1.438, 1.797e-5
-1.437, 1.761e-5
-1.436, 1.723e-5
-1.435, 1.677e-5
-1.434, 1.641e-5
-1.433, 1.588e-5
-1.432, 1.555e-5
-1.431, 1.535e-5
-1.430, 1.483e-5
-1.429, 1.453e-5
-1.428, 1.411e-5
-1.427, 1.386e-5
-1.426, 1.371e-5
-1.425, 1.329e-5
-1.424, 1.298e-5
-1.423, 1.276e-5
-1.422, 1.241e-5
-1.421, 1.213e-5
-1.420, 1.179e-5
-1.419, 1.157e-5
-1.418, 1.117e-5
-1.417, 1.098e-5
-1.416, 1.086e-5
-1.415, 1.041e-5
-1.414, 1.017e-5
-1.413, 9.923e-6
-1.412, 9.716e-6
-1.411, 9.598e-6
-1.410, 9.242e-6
-1.409, 9.035e-6
-1.408, 8.690e-6
-1.407, 8.502e-6
-1.406, 8.394e-6
-1.405, 8.088e-6
-1.404, 7.861e-6
-1.403, 7.743e-6
-1.402, 7.526e-6
-1.401, 7.496e-6
-1.400, 7.180e-6
-1.399, 6.884e-6
-1.398, 6.756e-6
-1.397, 6.687e-6
-1.396, 6.608e-6
-1.395, 6.263e-6
-1.394, 6.066e-6
-1.393, 5.839e-6
-1.392, 5.730e-6
-1.391, 5.740e-6
-1.390, 5.612e-6
-1.389, 5.355e-6
-1.388, 5.158e-6
-1.387, 5.109e-6
-1.386, 5.010e-6
-1.385, 4.793e-6
-1.384, 4.615e-6
-1.383, 4.704e-6
-1.382, 4.428e-6
-1.381, 4.300e-6
-1.380, 3.964e-6
-1.379, 3.905e-6
-1.378, 3.717e-6
-1.377, 3.629e-6
-1.376, 3.648e-6
-1.375, 3.362e-6
-1.374, 3.323e-6
-1.373, 3.244e-6
-1.372, 3.135e-6
-1.371, 3.076e-6
-1.370, 2.889e-6
-1.369, 2.741e-6
-1.368, 2.583e-6
-1.367, 2.514e-6
-1.366, 2.514e-6
-1.365, 2.366e-6
-1.364, 2.395e-6
-1.363, 2.169e-6
-1.362, 2.060e-6
-1.361, 2.317e-6
-1.360, 1.981e-6
-1.359, 1.863e-6
-1.358, 1.813e-6
-1.357, 1.725e-6
-1.356, 1.665e-6
-1.355, 1.646e-6
-1.354, 1.448e-6
-1.353, 1.290e-6
-1.352, 1.379e-6
-1.351, 1.369e-6
-1.350, 1.182e-6
-1.349, 1.172e-6
-1.348, 9.649e-7
-1.347, 9.452e-7
-1.346, 9.846e-7
-1.345, 7.676e-7
-1.344, 7.281e-7
-1.343, 7.084e-7
-1.342, 5.998e-7
-1.341, 7.380e-7
-1.340, 5.703e-7
-1.339, 5.308e-7
-1.338, 3.236e-7
-1.337, 3.039e-7
-1.336, 2.743e-7
-1.335, 2.644e-7
-1.334, 1.855e-7
-1.333, 1.164e-7
-1.332, 8.682e-8
-1.331, 1.164e-7
-1.330, -7.103e-8
-1.329, -1.697e-7
-1.328, -2.190e-7
-1.327, -1.796e-7
-1.326, -2.289e-7
-1.325, -4.854e-7
-1.324, -4.459e-7
-1.323, -4.459e-7
-1.322, -6.038e-7
-1.321, -3.769e-7
-1.320, -6.137e-7
-1.319, -6.137e-7
-1.318, -7.715e-7
-1.317, -7.518e-7
-1.316, -5.249e-7
-1.315, -7.912e-7
-1.314, -8.998e-7
-1.313, -8.504e-7
-1.312, -1.107e-6
-1.311, -8.504e-7
-1.310, -9.392e-7
-1.309, -1.038e-6
-1.308, -1.127e-6
-1.307, -9.984e-7
-1.306, -9.984e-7
-1.305, -1.354e-6
-1.304, -1.354e-6
-1.303, -1.403e-6
-1.302, -1.363e-6
-1.301, -1.235e-6
-1.300, -1.472e-6
-1.299, -1.354e-6
-1.298, -1.423e-6
-1.297, -1.423e-6
-1.296, -1.363e-6
-1.295, -1.521e-6
-1.294, -1.482e-6
-1.293, -1.492e-6
-1.292, -1.600e-6
-1.291, -1.482e-6
-1.290, -1.659e-6
-1.289, -1.630e-6
-1.288, -1.610e-6
-1.287, -1.788e-6
-1.286, -1.729e-6
-1.285, -1.827e-6
-1.284, -1.778e-6
-1.283, -1.847e-6
-1.282, -1.758e-6
-1.281, -1.738e-6
-1.280, -1.995e-6
-1.279, -1.965e-6
-1.278, -1.946e-6
-1.277, -2.074e-6
-1.276, -1.867e-6
-1.275, -2.044e-6
-1.274, -2.133e-6
-1.273, -2.163e-6
-1.272, -2.163e-6
-1.271, -1.995e-6
-1.270, -2.320e-6
-1.269, -2.113e-6
-1.268, -2.202e-6
-1.267, -2.291e-6
-1.266, -2.163e-6
-1.265, -2.340e-6
-1.264, -2.281e-6
-1.263, -2.360e-6
-1.262, -2.320e-6
-1.261, -2.182e-6
-1.260, -2.468e-6
-1.259, -2.360e-6
-1.258, -2.409e-6
-1.257, -2.508e-6
-1.256, -2.370e-6
-1.255, -2.488e-6
-1.254, -2.429e-6
-1.253, -2.567e-6
-1.252, -2.468e-6
-1.251, -2.528e-6
-1.250, -2.577e-6
-1.249, -2.626e-6
-1.248, -2.547e-6
-1.247, -2.705e-6
-1.246, -2.360e-6
-1.245, -2.666e-6
-1.244, -2.626e-6
-1.243, -2.705e-6
-1.242, -2.636e-6
-1.241, -2.764e-6
-1.240, -2.705e-6
-1.239, -2.764e-6
-1.238, -2.764e-6
-1.237, -2.735e-6
-1.236, -2.616e-6
-1.235, -2.863e-6
-1.234, -2.764e-6
-1.233, -2.774e-6
-1.232, -2.735e-6
-1.231, -2.843e-6
-1.230, -2.824e-6
-1.229, -2.972e-6
-1.228, -2.922e-6
-1.227, -3.060e-6
-1.226, -2.804e-6
-1.225, -3.041e-6
-1.224, -3.070e-6
-1.223, -3.021e-6
-1.222, -3.051e-6
-1.221, -3.021e-6
-1.220, -3.139e-6
-1.219, -3.129e-6
-1.218, -3.011e-6
-1.217, -3.169e-6
-1.216, -3.011e-6
-1.215, -3.159e-6
-1.214, -3.149e-6
-1.213, -3.090e-6
-1.212, -3.159e-6
-1.211, -3.001e-6
-1.210, -3.129e-6
-1.209, -3.159e-6
-1.208, -3.189e-6
-1.207, -3.228e-6
-1.206, -3.179e-6
-1.205, -3.228e-6
-1.204, -3.208e-6
-1.203, -3.307e-6
-1.202, -3.277e-6
-1.201, -3.149e-6
-1.200, -3.376e-6
-1.199, -3.317e-6
-1.198, -3.386e-6
-1.197, -3.327e-6
-1.196, -3.238e-6
-1.195, -3.396e-6
-1.194, -3.327e-6
-1.193, -3.376e-6
-1.192, -3.287e-6
-1.191, -3.208e-6
-1.190, -3.564e-6
-1.189, -3.337e-6
-1.188, -3.406e-6
-1.187, -3.475e-6
-1.186, -3.416e-6
-1.185, -3.465e-6
-1.184, -3.416e-6
-1.183, -3.495e-6
-1.182, -3.455e-6
-1.181, -3.455e-6
-1.180, -3.583e-6
-1.179, -3.524e-6
-1.178, -3.534e-6
-1.177, -3.702e-6
-1.176, -3.514e-6
-1.175, -3.731e-6
-1.174, -3.652e-6
-1.173, -3.554e-6
-1.172, -3.692e-6
-1.171, -3.573e-6
-1.170, -3.633e-6
-1.169, -3.712e-6
-1.168, -3.643e-6
-1.167, -3.554e-6
-1.166, -3.544e-6
-1.165, -3.781e-6
-1.164, -3.761e-6
-1.163, -3.761e-6
-1.162, -3.741e-6
-1.161, -3.751e-6
-1.160, -3.830e-6
-1.159, -3.879e-6
-1.158, -3.721e-6
-1.157, -3.781e-6
-1.156, -3.741e-6
-1.155, -3.741e-6
-1.154, -3.889e-6
-1.153, -3.899e-6
-1.152, -3.869e-6
-1.151, -3.889e-6
-1.150, -3.988e-6
-1.149, -3.998e-6
-1.148, -3.998e-6
-1.147, -4.047e-6
-1.146, -3.919e-6
-1.145, -4.136e-6
-1.144, -4.096e-6
-1.143, -4.205e-6
-1.142, -3.978e-6
-1.141, -3.869e-6
-1.140, -4.106e-6
-1.139, -4.156e-6
-1.138, -4.185e-6
-1.137, -4.106e-6
-1.136, -4.057e-6
-1.135, -4.205e-6
-1.134, -4.234e-6
-1.133, -4.205e-6
-1.132, -4.165e-6
-1.131, -4.353e-6
-1.130, -4.461e-6
-1.129, -4.491e-6
-1.128, -4.382e-6
-1.127, -4.452e-6
-1.126, -4.471e-6
-1.125, -4.313e-6
-1.124, -4.491e-6
-1.123, -4.550e-6
-1.122, -4.432e-6
-1.121, -4.264e-6
-1.120, -4.511e-6
-1.119, -4.600e-6
-1.118, -4.570e-6
-1.117, -4.471e-6
-1.116, -4.452e-6
-1.115, -4.540e-6
-1.114, -4.590e-6
-1.113, -4.580e-6
-1.112, -4.629e-6
-1.111, -4.570e-6
-1.110, -4.698e-6
-1.109, -4.659e-6
-1.108, -4.718e-6
-1.107, -4.728e-6
-1.106, -4.639e-6
-1.105, -4.708e-6
-1.104, -4.580e-6
-1.103, -4.787e-6
-1.102, -4.659e-6
-1.101, -4.728e-6
-1.100, -5.014e-6
-1.099, -4.866e-6
-1.098, -4.866e-6
-1.097, -4.984e-6
-1.096, -4.738e-6
-1.095, -4.905e-6
-1.094, -5.043e-6
-1.093, -5.024e-6
-1.092, -5.034e-6
-1.091, -4.935e-6
-1.090, -4.994e-6
-1.089, -4.984e-6
-1.088, -5.132e-6
-1.087, -5.103e-6
-1.086, -5.103e-6
-1.085, -5.201e-6
-1.084, -5.142e-6
-1.083, -5.261e-6
-1.082, -5.261e-6
-1.081, -5.152e-6
-1.080, -5.330e-6
-1.079, -5.280e-6
-1.078, -5.339e-6
-1.077, -5.270e-6
-1.076, -5.280e-6
-1.075, -5.487e-6
-1.074, -5.487e-6
-1.073, -5.468e-6
-1.072, -5.468e-6
-1.071, -5.438e-6
-1.070, -5.576e-6
-1.069, -5.557e-6
-1.068, -5.714e-6
-1.067, -5.724e-6
-1.066, -5.566e-6
-1.065, -5.704e-6
-1.064, -5.803e-6
-1.063, -5.734e-6
-1.062, -5.685e-6
-1.061, -5.626e-6
-1.060, -5.961e-6
-1.059, -5.971e-6
-1.058, -5.892e-6
-1.057, -5.833e-6
-1.056, -5.872e-6
-1.055, -5.981e-6
-1.054, -5.971e-6
-1.053, -6.000e-6
-1.052, -6.010e-6
-1.051, -5.981e-6
-1.050, -6.129e-6
-1.049, -6.168e-6
-1.048, -6.237e-6
-1.047, -6.188e-6
-1.046, -6.267e-6
-1.045, -6.346e-6
-1.044, -6.444e-6
-1.043, -6.553e-6
-1.042, -6.326e-6
-1.041, -6.444e-6
-1.040, -6.523e-6
-1.039, -6.553e-6
-1.038, -6.435e-6
-1.037, -6.612e-6
-1.036, -6.553e-6
-1.035, -6.780e-6
-1.034, -6.721e-6
-1.033, -6.721e-6
-1.032, -6.770e-6
-1.031, -6.760e-6
-1.030, -6.849e-6
-1.029, -7.046e-6
-1.028, -6.997e-6
-1.027, -7.056e-6
-1.026, -6.997e-6
-1.025, -7.194e-6
-1.024, -7.283e-6
-1.023, -7.253e-6
-1.022, -7.352e-6
-1.021, -7.283e-6
-1.020, -7.362e-6
-1.019, -7.431e-6
-1.018, -7.500e-6
-1.017, -7.599e-6
-1.016, -7.549e-6
-1.015, -7.609e-6
-1.014, -7.648e-6
-1.013, -7.766e-6
-1.012, -7.747e-6
-1.011, -7.885e-6
-1.010, -8.013e-6
-1.009, -7.895e-6
-1.008, -8.003e-6
-1.007, -8.181e-6
-1.006, -7.984e-6
-1.005, -8.309e-6
-1.004, -8.349e-6
-1.003, -8.329e-6
-1.002, -8.398e-6
-1.001, -8.329e-6
