Potential V vs RHE, Current mA cm-2
0.013299999999999867,35.11313446265021
0.012299999999999978,32.41103587990799
0.011299999999999866,29.96358533114148
0.010299999999999976,28.12446064131693
0.009299999999999864,26.65316088945729
0.008299999999999974,24.898918877624645
0.007299999999999862,22.76270481482844
0.006299999999999972,20.75381476902009
0.00529999999999986,19.28251501716045
0.0042999999999999705,18.009274847281915
0.0032999999999998586,16.52382798242363
0.0022999999999999687,14.57152638860988
0.0012999999999998568,12.821528510676828
0.00029999999999996696,11.51292055830167
-0.000700000000000145,10.46603419640154
-0.0017000000000000348,9.113570193730567
-0.0027000000000001467,7.369231160996977
-0.0037000000000000366,5.624892128263387
-0.0047000000000001485,4.490293665771627
-0.005700000000000038,3.5311194044631313
-0.00670000000000015,2.30880884137974
-0.00770000000000004,0.6520404381077953
-0.008700000000000152,-0.9181476336124089
-0.009700000000000042,-2.052746096104168
-0.010700000000000154,-2.8803522065252145
-0.011700000000000044,-4.014950669016974
-0.012700000000000156,-5.585280211867165
-0.013700000000000045,-7.111753704421539
-0.014700000000000157,-8.11478401602585
-0.015700000000000047,-8.85609273715513
-0.01670000000000016,-9.946835149351072
-0.01770000000000005,-11.473308641905447
-0.01870000000000016,-12.869628694872238
-0.01970000000000005,-13.784946905884919
-0.020700000000000163,-14.444202371622024
-0.021700000000000053,-15.491088733522153
-0.022700000000000164,-16.962388485381787
-0.023700000000000054,-18.320511333252224
-0.024700000000000166,-19.197632339168546
-0.025700000000000056,-19.890840876102416
-0.026700000000000168,-20.85284456001064
-0.027700000000000058,-22.253408746877028
-0.02870000000000017,-23.55494314275286
-0.02970000000000006,-24.34718147067728
-0.03070000000000017,-24.95550732961925
-0.03170000000000006,-25.86092256153287
-0.03270000000000017,-27.261486748399253
-0.03370000000000006,-28.577168257273744
-0.034700000000000175,-29.31281813320356
-0.035700000000000065,-29.921143992145527
-0.03670000000000018,-30.8407063370578
-0.03770000000000007,-32.14224073293363
-0.03870000000000018,-33.41548090281216
-0.03970000000000007,-34.193572117737936
-0.04070000000000018,-34.75945663768395
-0.04170000000000007,-35.636577643600276
-0.04270000000000018,-36.95225915247476
-0.04370000000000007,-38.211352209354644
-0.044700000000000184,-38.94700208528445
-0.045700000000000074,-39.47044526623452
-0.046700000000000186,-40.34756627215084
-0.047700000000000076,-41.66324778102533
-0.04870000000000019,-42.87989949890926
-0.04970000000000008,-43.657990713835034
-0.05070000000000019,-44.138992555789144
-0.05170000000000008,-45.01611356170547
-0.05270000000000019,-46.3176479575813
-0.05370000000000008,-47.506005449467935
-0.05470000000000019,-48.24165532539775
-0.05570000000000008,-48.76509850634781
-0.056700000000000195,-49.68466085126009
-0.057700000000000085,-50.943753908139975
-0.058700000000000196,-52.11796428702795
-0.059700000000000086,-52.82531993696047
-0.0607000000000002,-53.26388043991864
-0.06170000000000009,-54.1268543328363
-0.0627000000000002,-55.442535841710786
-0.06370000000000009,-56.61674622059877
-0.0647000000000002,-57.408984548523186
-0.06570000000000009,-57.87583927747865
-0.0667000000000002,-58.75296028339497
-0.0677000000000001,-60.06864179226946
-0.0687000000000002,-61.28529351015339
-0.0697000000000001,-61.97850204708726
-0.07070000000000021,-62.501945228037314
-0.0717000000000001,-63.3366248949577
-0.07270000000000021,-64.68060062982947
-0.0737000000000001,-65.86895812171612
-0.07470000000000021,-66.56216665864997
-0.0757000000000001,-67.08560983960004
-0.07670000000000021,-67.9202895065204
-0.0777000000000001,-69.22182390239624
-0.07870000000000021,-70.39603428128423
-0.0797000000000001,-71.10338993121674
-0.08070000000000022,-71.58439177317086
-0.0817000000000001,-72.44736566608852
-0.08270000000000022,-73.76304717496302
-0.08370000000000011,-74.97969889284694
-0.08470000000000022,-75.77193722077136
-0.08570000000000011,-76.23879194972683
-0.08670000000000022,-77.20079563363505
-0.08770000000000011,-78.55891848150549
-0.08870000000000022,-79.81801153838538
-0.08970000000000011,-80.52536718831789
-0.09070000000000022,-80.99222191727335
-0.09170000000000011,-81.91178426218562
-0.09270000000000023,-83.26990711005605
-0.09370000000000012,-84.52900016693594
-0.09470000000000023,-85.32123849486035
-0.09570000000000012,-85.80224033681448
-0.09670000000000023,-86.66521422973216
-0.09770000000000012,-87.98089573860662
-0.09870000000000023,-89.36731281247435
-0.09970000000000012,-90.28687515738663
-0.10070000000000023,-90.85275967733266
-0.10170000000000012,-91.77232202224494
-0.10270000000000024,-93.03141507912481
-0.10370000000000013,-94.21977257101145
-0.10470000000000024,-94.91298110794531
-0.10570000000000013,-95.43642428889537
-0.10670000000000024,-96.44086931179956
-0.10770000000000013,-97.78484504667132
-0.10870000000000024,-99.10052655554581
-0.10970000000000013,-99.83617643147564
-0.11070000000000024,-100.35961961242569
-0.11170000000000013,-101.19429927934607
-0.11270000000000002,-102.45339233622596
-0.11370000000000013,-103.76907384510045
-0.11470000000000002,-104.5471650600262
-0.11570000000000014,-105.11304957997223
-0.11670000000000003,-106.07505326388046
-0.11770000000000014,-107.39073477275493
-0.11870000000000003,-108.60738649063886
-0.11970000000000014,-109.35718347956733
-0.12070000000000003,-109.8240382085228
-0.12170000000000014,-110.78604189243102
-0.12270000000000003,-112.10172340130552
-0.12370000000000014,-113.40325779718134
-0.12470000000000003,-114.1530547861098
-0.12570000000000014,-114.67649796705987
-0.12670000000000003,-115.5819131989735
-0.12770000000000015,-116.94003604684394
-0.12870000000000004,-118.1991291037238
-0.12970000000000015,-118.94892609265229
-0.13070000000000004,-119.4299279346064
-0.13170000000000015,-120.39193161851462
-0.13270000000000004,-121.77834869238235
-0.13370000000000015,-123.09403020125686
-0.13470000000000004,-123.87212141618261
-0.13570000000000015,-124.35312325813672
-0.13670000000000004,-125.44245095903281
-0.13770000000000016,-126.84301514589919
-0.13870000000000005,-128.05966686378312
-0.13970000000000016,-128.85190519170752
-0.14070000000000005,-129.3753483726576
-0.14170000000000016,-130.32320494356716
-0.14270000000000005,-131.76621046942952
-0.14370000000000016,-133.12433331729994
-0.14470000000000005,-133.94486587122168
-0.14570000000000016,-134.42586771317576
-0.14670000000000005,-135.26054738009617
-0.14770000000000016,-136.66111156696255
-0.14870000000000005,-137.87776328484648
-0.14970000000000017,-138.61341316077628
-0.15070000000000006,-139.09441500273041
-0.15170000000000017,-140.05641868663866
-0.15270000000000006,-141.47112998650366
-0.15370000000000017,-142.7443701563822
-0.15470000000000006,-143.4517258063147
-0.15570000000000017,-144.01761032626072
-0.15670000000000006,-145.00790823616626
-0.15770000000000017,-146.5640906660178
-0.15870000000000006,-147.83733083589632
-0.15970000000000018,-148.54468648582886
-0.16070000000000007,-149.1105710057749
-0.16170000000000018,-149.95939778569388
-0.16270000000000007,-151.37410908555893
-0.16370000000000018,-152.64734925543743
-0.16470000000000007,-153.63764716534297
-0.16570000000000018,-154.203531685289
-0.16670000000000007,-155.33530072518104
-0.16770000000000018,-156.75001202504606
-0.16870000000000007,-158.1647233249111
-0.16970000000000018,-159.15502123481662
-0.17070000000000007,-159.72090575476264
-0.17170000000000019,-160.5697325346817
-0.17270000000000008,-161.9844438345467
-0.1737000000000002,-163.54062626439824
-0.17470000000000008,-164.53092417430375
-0.1757000000000002,-165.2382798242363
-0.17670000000000008,-166.22857773414182
-0.1777000000000002,-167.6432890340068
-0.17870000000000008,-168.91652920388537
-0.1797000000000002,-169.6238848538179
-0.18070000000000008,-170.33124050375042
-0.1817000000000002,-171.18006728366944
-0.18270000000000008,-172.31183632356147
-0.1837000000000002,-173.16066310348046
-0.1847000000000001,-173.72654762342648
-0.1857000000000002,-174.57537440334553
-0.1867000000000001,-175.70714344323756
-0.1877000000000002,-177.2633258730891
-0.1887000000000001,-178.53656604296762
-0.1897000000000002,-179.38539282288664
-0.1907000000000001,-180.09274847281918
-0.1917000000000001,-181.08304638272472
-0.19269999999999998,-182.21481542261674
-0.1937000000000001,-183.34658446250873
-0.19469999999999998,-184.05394011244127
-0.1957000000000001,-184.6198246323873
-0.19669999999999999,-185.46865141230631
-0.1977000000000001,-186.88336271217133
-0.1987,-188.15660288204987
-0.1997000000000001,-189.0054296619689
-0.2007,-189.57131418191491
-0.2017000000000001,-190.42014096183394
-0.2027,-191.69338113171247
-0.2037000000000001,-192.82515017160452
-0.2047,-193.532505821537
-0.2057000000000001,-193.9569192114965
-0.2067,-194.94721712140205
-0.2077000000000001,-196.2204572912806
-0.2087,-197.35222633117263
-0.2097000000000001,-198.05958198110514
-0.2107,-198.48399537106465
-0.2117000000000001,-199.33282215098367
-0.2127,-200.7475334508487
-0.2137000000000001,-201.87930249074074
-0.2147,-202.7281292706598
-0.2157000000000001,-203.29401379060576
-0.2167,-204.2843117005113
-0.21770000000000012,-205.69902300037634
-0.2187,-206.83079204026836
-0.21970000000000012,-207.67961882018741
-0.2207,-208.1040322101469
-0.22170000000000012,-209.0943301200524
-0.2227,-210.50904141991748
-0.22370000000000012,-211.64081045980947
-0.2247,-212.48963723972852
-0.22570000000000012,-212.631108369715
-0.2267,-213.05552175967455
-0.22770000000000012,-213.76287740960703
-0.22870000000000001,-214.75317531951256
-0.22970000000000013,-215.17758870947208
-0.23070000000000002,-215.31905983945856
-0.23170000000000013,-215.31905983945856
-0.23270000000000002,-216.3093577493641
-0.23370000000000013,-217.72406904922914
-0.23470000000000002,-218.28995356917517
-0.23570000000000013,-218.28995356917517
-0.23670000000000002,-218.71436695913465
-0.2376999999999999,-219.7046648690402
-0.23870000000000002,-220.5534916489592
-0.2396999999999999,-220.97790503891872
-0.24070000000000003,-221.11937616890526
-0.24169999999999991,-221.68526068885126
-0.24270000000000003,-222.81702972874328
-0.24369999999999992,-224.09026989862178
-0.24470000000000003,-224.65615441856778
-0.24569999999999992,-225.08056780852735
-0.24670000000000003,-226.07086571843288
-0.24769999999999992,-227.62704814828442
-0.24870000000000003,-229.18323057813595
-0.24969999999999992,-230.03205735805497
-0.25070000000000003,-230.31499961802797
-0.2516999999999999,-230.880884137974
-0.25270000000000004,-232.01265317786604
-0.2536999999999999,-233.4273644777311
-0.25470000000000004,-234.4176623876366
-0.2556999999999999,-234.9835469075826
-0.25670000000000004,-235.83237368750162
-0.25769999999999993,-236.96414272739366
-0.25870000000000004,-238.0959117672857
-0.25969999999999993,-239.0862096771912
-0.26070000000000004,-239.65209419713722
-0.26169999999999993,-240.50092097705624
-0.26270000000000004,-241.77416114693477
-0.26369999999999993,-242.76445905684034
-0.26470000000000005,-243.3303435767863
-0.26569999999999994,-243.47181470677282
-0.26670000000000005,-244.32064148669184
-0.26769999999999994,-245.73535278655686
-0.26870000000000005,-247.0085929564354
-0.26969999999999994,-247.4330063463949
-0.27070000000000005,-247.4330063463949
-0.27169999999999994,-247.99889086634093
-0.27270000000000005,-249.13065990623298
-0.27369999999999994,-250.1209578161385
-0.27470000000000006,-250.545371206098
-0.27569999999999995,-250.828313466071
-0.27670000000000006,-251.53566911600356
-0.27769999999999995,-252.38449589592256
-0.27870000000000006,-252.80890928588207
-0.27969999999999995,-253.09185154585506
-0.28070000000000006,-253.23332267584152
-0.28169999999999995,-253.94067832577412
-0.28270000000000006,-254.78950510569314
-0.28369999999999995,-255.07244736566614
-0.28470000000000006,-255.21391849565262
-0.28569999999999995,-255.35538962563913
-0.28670000000000007,-255.77980301559862
-0.28769999999999996,-256.91157205549064
-0.28870000000000007,-257.76039883540966
-0.28969999999999996,-258.0433410953827
-0.29070000000000007,-258.0433410953827
-0.29169999999999996,-258.4677544853422
-0.29270000000000007,-259.4580523952477
-0.29369999999999996,-260.02393691519376
-0.2947000000000001,-260.4483503051532
-0.29569999999999996,-260.3068791751668
-0.2967000000000001,-260.58982143513975
-0.29769999999999996,-261.4386482150588
-0.2987000000000001,-262.1460038649913
-0.29969999999999997,-262.42894612496434
-0.3007000000000001,-262.42894612496434
-0.30169999999999997,-262.8533595149238
-0.3027000000000001,-263.7021862948428
-0.30369999999999997,-264.40954194477536
-0.3047000000000001,-264.6924842047484
-0.30569999999999997,-264.83395533473487
-0.3067000000000001,-265.2583687246944
-0.3077,-265.9657243746269
-0.3087000000000001,-266.6730800245594
-0.3097,-266.6730800245594
-0.3107000000000001,-266.5316088945729
-0.3117,-267.09749341451896
-0.3127000000000001,-268.0877913244245
-0.3137,-268.93661810434344
-0.3147000000000001,-269.07808923433
-0.3157,-268.93661810434344
-0.3167000000000001,-269.2195603643164
-0.3177,-270.0683871442355
-0.3187000000000001,-270.9172139241545
-0.3197,-271.20015618412754
-0.3207000000000001,-271.20015618412754
-0.3217,-271.62456957408705
-0.3227000000000001,-272.1904540940331
-0.3237,-272.8978097439656
-0.3247000000000001,-273.1807520039386
-0.3257,-273.3222231339251
-0.3267000000000001,-273.60516539389806
-0.3277,-274.31252104383066
-0.3287000000000001,-274.87840556377665
-0.3297,-274.87840556377665
-0.3307000000000001,-274.7369344337901
-0.3317,-275.1613478237496
-0.3327000000000001,-276.01017460366864
-0.3337,-276.5760591236147
-0.3347000000000001,-276.5760591236147
-0.3357,-276.01017460366864
-0.3367000000000001,-276.01017460366864
-0.3377,-276.5760591236147
-0.3387000000000001,-277.0004725135742
-0.3397,-277.1419436435607
-0.3407000000000001,-276.8590013835877
-0.3417,-277.0004725135742
-0.3427000000000001,-277.56635703352015
-0.3437,-277.9907704234797
-0.3447000000000001,-277.7078281635067
-0.3457,-277.4248859035337
-0.3467000000000001,-277.7078281635067
-0.3477,-278.4151838134392
-0.3487000000000001,-278.8395972033987
-0.3497,-278.8395972033987
-0.3507000000000001,-278.6981260734122
-0.3517,-278.6981260734122
-0.3527000000000001,-279.26401059335825
-0.3537,-279.82989511330425
-0.3547000000000001,-279.82989511330425
-0.3557,-279.6884239833177
-0.35670000000000013,-279.82989511330425
-0.3577,-280.25430850326376
-0.35870000000000013,-280.67872189322327
-0.3597,-280.67872189322327
-0.36070000000000013,-280.3957796332503
-0.3617,-280.67872189322327
-0.3626999999999999,-281.24460641316927
-0.3637,-281.66901980312883
-0.3646999999999999,-281.8104909331153
-0.3657,-281.66901980312883
-0.3666999999999999,-281.9519620631018
-0.3677,-282.51784658304786
-0.3686999999999999,-282.9422599730073
-0.36970000000000003,-283.08373110299385
-0.3706999999999999,-282.9422599730073
-0.37170000000000003,-283.08373110299385
-0.3726999999999999,-283.5081444929533
-0.37370000000000003,-283.9325578829129
-0.3746999999999999,-283.79108675292633
-0.37570000000000003,-283.64961562293985
-0.3766999999999999,-283.79108675292633
-0.37770000000000004,-284.49844240285887
-0.3786999999999999,-285.0643269228049
-0.37970000000000004,-285.0643269228049
-0.3806999999999999,-284.7813846628319
-0.38170000000000004,-284.7813846628319
-0.38269999999999993,-285.2057980527914
-0.38370000000000004,-285.9131537027239
-0.38469999999999993,-286.196095962697
-0.38570000000000004,-286.33756709268346
-0.38669999999999993,-284.9228557928184
-0.38570000000000004,-280.25430850326376
-0.38469999999999993,-275.58576121370913
-0.38370000000000004,-270.9172139241545
-0.38269999999999993,-266.3901377645864
-0.38170000000000004,-262.57041725495077
-0.3806999999999999,-259.17511013527474
-0.37970000000000004,-255.49686075562562
-0.3786999999999999,-251.25272685603056
-0.37770000000000004,-247.0085929564354
-0.3766999999999999,-243.6132858367593
-0.37570000000000003,-240.50092097705624
-0.3746999999999999,-237.24708498736666
-0.37370000000000003,-233.4273644777311
-0.3726999999999999,-229.46617283810895
-0.37170000000000003,-226.21233684841937
-0.3706999999999999,-223.38291424868927
-0.36970000000000003,-220.6949627789457
-0.3686999999999999,-217.29965565926966
-0.3677,-213.76287740960703
-0.3666999999999999,-210.65051254990397
-0.3657,-207.8210899501739
-0.3646999999999999,-205.13313848043032
-0.3637,-202.02077362072723
-0.3626999999999999,-198.76693763103765
-0.3617,-196.0789861612941
-0.36070000000000013,-193.532505821537
-0.3597,-190.84455435179345
-0.35870000000000013,-187.73218949209036
-0.3577,-184.6198246323873
-0.35670000000000013,-182.21481542261674
-0.3557,-180.09274847281918
-0.3547000000000001,-177.6877392630486
-0.3537,-174.71684553333202
-0.3527000000000001,-171.60448067362896
-0.3517,-168.91652920388537
-0.3507000000000001,-166.93593338407433
-0.3497,-164.81386643427678
-0.3487000000000001,-162.2673860945197
-0.3477,-159.43796349478964
-0.3467000000000001,-157.03295428501906
-0.3457,-155.19382959519453
-0.3447000000000001,-153.07176264539694
-0.3437,-150.5252823056399
-0.3427000000000001,-147.83733083589632
-0.3417,-145.57379275611228
-0.3407000000000001,-143.87613919627424
-0.3397,-141.89554337646317
-0.3387000000000001,-139.27832747171286
-0.3377,-136.562081775972
-0.3367000000000001,-134.46830905217172
-0.3357,-132.72821415333775
-0.3347000000000001,-130.7193241075294
-0.3337,-128.28602067176152
-0.3327000000000001,-125.79612878399907
-0.3317,-123.78723873819072
-0.3307000000000001,-122.17446785634456
-0.3297,-120.39193161851462
-0.3287000000000001,-118.07180508673595
-0.3277,-115.62435453796945
-0.3267000000000001,-113.62961160515974
-0.3257,-112.14416474030146
-0.3247000000000001,-110.4465111804634
-0.3237,-108.21126732667666
-0.3227000000000001,-105.86284656890071
-0.3217,-104.02372187907615
-0.3207000000000001,-102.5524221272165
-0.3197,-100.88306279337576
-0.3187000000000001,-98.74684873057957
-0.3177,-96.52575198979144
-0.3167000000000001,-94.8280984299534
-0.3157,-93.46997558208298
-0.3147000000000001,-91.89964603923279
-0.3137,-89.76343197643658
-0.3127000000000001,-87.58477657464444
-0.3117,-85.92956435380233
-0.3107000000000001,-84.6563241839238
-0.3097,-83.22746577106011
-0.3087000000000001,-81.26101706424771
-0.3077,-79.1248030014515
-0.3067000000000001,-77.46959078060941
-0.30569999999999997,-76.23879194972683
-0.3047000000000001,-74.8523748758591
-0.30369999999999997,-72.8859261690467
-0.3027000000000001,-70.79215344524643
-0.30169999999999997,-69.22182390239624
-0.3007000000000001,-68.17493754049613
-0.29969999999999997,-67.04316850060408
-0.2987000000000001,-65.20404381077954
-0.29769999999999996,-63.15271242597524
-0.2967000000000001,-61.63897133511965
-0.29569999999999996,-60.45061384323302
-0.2947000000000001,-59.10663810836124
-0.29369999999999996,-57.30995475753264
-0.29270000000000007,-55.400094502714836
-0.29169999999999996,-53.91464763785655
-0.29070000000000007,-52.86776127595642
-0.28969999999999996,-51.594521106077885
-0.28870000000000007,-49.85442620724389
-0.28769999999999996,-48.029448630417996
-0.28670000000000007,-46.628884443551605
-0.28569999999999995,-45.624439420647434
-0.28470000000000006,-44.4926703807554
-0.28369999999999995,-42.79501682091736
-0.28270000000000006,-41.04077480908471
-0.28169999999999995,-39.696799074212926
-0.28070000000000006,-38.81967806829661
-0.27969999999999995,-37.687909028404576
-0.27870000000000006,-36.07513814655844
-0.27769999999999995,-34.33504324772444
-0.27670000000000006,-33.01936173884996
-0.27569999999999995,-32.14224073293363
-0.27470000000000006,-31.137795710029454
-0.27369999999999994,-29.581613280177915
-0.27270000000000005,-27.827371268345274
-0.27169999999999994,-26.61071955046134
-0.27070000000000005,-25.77603988354097
-0.26969999999999994,-24.814036199632742
-0.26870000000000005,-23.300295108777156
-0.26769999999999994,-21.67337711393236
