Potential V vs RHE, Current mA cm-2
0.013299999999999867,-0.08943804837746762
0.012299999999999978,-2.052746096104168
0.011299999999999866,-3.7970851288377587
0.010299999999999976,-5.411270721983764
0.009299999999999864,-6.893888164242324
0.008299999999999974,-8.246352166913299
0.007299999999999862,-9.55496011928846
0.006299999999999972,-10.688143870480351
0.00529999999999986,-11.778886282676295
0.0042999999999999705,-12.869628694872238
0.0032999999999998586,-13.828802956180734
0.0022999999999999687,-14.741291744593681
0.0012999999999998568,-15.70329542850191
0.00029999999999996696,-16.53797509542228
-0.000700000000000145,-17.40094898833995
-0.0017000000000000348,-18.27806999425627
-0.0027000000000001467,-19.056161209182044
-0.0037000000000000366,-19.890840876102416
-0.0047000000000001485,-20.683079204026836
-0.005700000000000038,-21.418729079956652
-0.00670000000000015,-22.15437895588647
-0.00770000000000004,-22.861734605818995
-0.008700000000000152,-23.47006046476096
-0.009700000000000042,-24.078386323702922
-0.010700000000000154,-24.686712182644893
-0.011700000000000044,-25.252596702590903
-0.012700000000000156,-25.73359854454502
-0.013700000000000045,-26.29948306449103
-0.014700000000000157,-26.822926245441096
-0.015700000000000047,-27.34636942639116
-0.01670000000000016,-27.912253946337174
-0.01770000000000005,-28.435697127287238
-0.01870000000000016,-29.001581647233255
-0.01970000000000005,-29.525024828183312
-0.020700000000000163,-30.04846800913338
-0.021700000000000053,-30.571911190083444
-0.022700000000000164,-31.095354371033505
-0.023700000000000054,-31.49147353499572
-0.024700000000000166,-31.930034037953877
-0.025700000000000056,-32.32615320191609
-0.026700000000000168,-32.70812525287965
-0.027700000000000058,-33.10424441684186
-0.02870000000000017,-33.50036358080407
-0.02970000000000006,-33.89648274476628
-0.03070000000000017,-34.278454795729836
-0.03170000000000006,-34.67457395969205
-0.03270000000000017,-35.11313446265021
-0.03370000000000006,-35.50925362661242
-0.034700000000000175,-35.90537279057463
-0.035700000000000065,-36.28734484153819
-0.03670000000000018,-36.6834640055004
-0.03770000000000007,-37.037141830466666
-0.03870000000000018,-37.334231203438314
-0.03970000000000007,-37.645467689408626
-0.04070000000000018,-37.94255706238028
-0.04170000000000007,-38.211352209354644
-0.04270000000000018,-38.46600024333035
-0.04370000000000007,-38.777236729300654
-0.044700000000000184,-39.046031876275016
-0.045700000000000074,-39.38556258824262
-0.046700000000000186,-39.696799074212926
-0.047700000000000076,-39.99388844718459
-0.04870000000000019,-40.30512493315489
-0.04970000000000008,-40.65880275812115
-0.05070000000000019,-40.95589213109281
-0.05170000000000008,-41.22468727806717
-0.05270000000000019,-41.52177665103883
-0.05370000000000008,-41.79057179801318
-0.05470000000000019,-41.96033715399699
-0.05570000000000008,-42.186690961975394
-0.056700000000000195,-42.39889765695515
-0.057700000000000085,-42.568663012938956
-0.058700000000000196,-42.79501682091736
-0.059700000000000086,-43.04966485489307
-0.0607000000000002,-43.27601866287147
-0.06170000000000009,-43.53066669684718
-0.0627000000000002,-43.79946184382153
-0.06370000000000009,-44.054109877797245
-0.0647000000000002,-44.3229050247716
-0.06570000000000009,-44.619994397743255
-0.0667000000000002,-44.84634820572166
-0.0677000000000001,-45.143437578693316
-0.0687000000000002,-45.32735004767578
-0.0697000000000001,-45.45467406466363
-0.07070000000000021,-45.666880759643384
-0.0717000000000001,-45.85079322862584
-0.07270000000000021,-45.97811724561369
-0.0737000000000001,-46.19032394059345
-0.07470000000000021,-46.3176479575813
-0.0757000000000001,-46.544001765559706
-0.07670000000000021,-46.75620846053947
-0.0777000000000001,-46.982562268517874
-0.07870000000000021,-47.19476896349763
-0.0797000000000001,-47.40697565847737
-0.08070000000000022,-47.633329466455784
-0.0817000000000001,-47.80309482243959
-0.08270000000000022,-48.029448630417996
-0.08370000000000011,-48.156772647405845
-0.08470000000000022,-48.24165532539775
-0.08570000000000011,-48.36897934238561
-0.08670000000000022,-48.51045047237211
-0.08770000000000011,-48.63777448935996
-0.08870000000000022,-48.76509850634781
-0.08970000000000011,-48.89242252333566
-0.09070000000000022,-49.03389365332217
-0.09170000000000011,-49.24610034830193
-0.09270000000000023,-49.373424365289786
-0.09370000000000012,-49.59977817326819
-0.09470000000000023,-49.81198486824794
-0.09570000000000012,-49.939308885235796
-0.09670000000000023,-50.12322135421825
-0.09770000000000012,-50.29298671020206
-0.09870000000000023,-50.42031072718991
-0.09970000000000012,-50.50519340518181
-0.10070000000000023,-50.60422319617236
-0.10170000000000012,-50.73154721316022
-0.10270000000000024,-50.85887123014807
-0.10370000000000013,-50.943753908139975
-0.10470000000000024,-51.071077925127824
-0.10570000000000013,-51.21254905511432
-0.10670000000000024,-51.33987307210218
-0.10770000000000013,-51.509638428085985
-0.10870000000000024,-51.69355089706845
-0.10970000000000013,-51.82087491405629
-0.11070000000000024,-51.990640270040096
-0.11170000000000013,-52.11796428702795
-0.11270000000000002,-52.30187675601041
-0.11370000000000013,-52.34431809500636
-0.11470000000000002,-52.42920077299826
-0.11570000000000014,-52.514083450990164
-0.11670000000000003,-52.55652478998611
-0.11770000000000014,-52.59896612898206
-0.11870000000000003,-52.74043725896857
-0.11970000000000014,-52.78287859796452
-0.12070000000000003,-52.91020261495237
-0.12170000000000014,-53.03752663194023
-0.12270000000000003,-53.16485064892808
-0.12370000000000014,-53.30632177891458
-0.12470000000000003,-53.433645795902436
-0.12570000000000014,-53.56096981289029
-0.12670000000000003,-53.64585249088219
-0.12770000000000015,-53.7873236208687
-0.12870000000000004,-53.82976495986464
-0.12970000000000015,-53.872206298860604
-0.13070000000000004,-53.9570889768525
-0.13170000000000015,-53.999530315848446
-0.13270000000000004,-53.999530315848446
-0.13370000000000015,-54.08441299384035
-0.13470000000000004,-54.1268543328363
-0.13570000000000015,-54.26832546282281
-0.13670000000000004,-54.35320814081471
-0.13770000000000016,-54.480532157802564
-0.13870000000000005,-54.60785617479041
-0.13970000000000016,-54.73518019177827
-0.14070000000000005,-54.876651321764776
-0.14170000000000016,-54.961533999756675
-0.14270000000000005,-55.088858016744524
-0.14370000000000016,-55.13129935574048
-0.14470000000000005,-55.21618203373238
-0.14570000000000016,-55.25862337272834
-0.14670000000000005,-55.31521182472294
-0.14770000000000016,-55.25862337272834
-0.14870000000000005,-55.357653163718886
-0.14970000000000017,-55.400094502714836
-0.15070000000000006,-55.484977180706736
-0.15170000000000017,-55.527418519702685
-0.15270000000000006,-55.612301197694585
-0.15370000000000017,-55.73962521468245
-0.15470000000000006,-55.838655005673
-0.15570000000000017,-55.9235376836649
-0.15670000000000006,-55.96597902266086
-0.15770000000000017,-56.093303039648696
-0.15870000000000006,-56.13574437864466
-0.15970000000000018,-56.13574437864466
-0.16070000000000007,-56.13574437864466
-0.16170000000000018,-56.1781857176406
-0.16270000000000007,-56.1781857176406
-0.16370000000000018,-56.26306839563251
-0.16470000000000007,-56.30550973462846
-0.16570000000000018,-56.404539525619015
-0.16670000000000007,-56.489422203610914
-0.16770000000000018,-56.53186354260687
-0.16870000000000007,-56.57430488160282
-0.16970000000000018,-56.65918755959472
-0.17070000000000007,-56.74407023758662
-0.17170000000000019,-56.82895291557852
-0.17270000000000008,-56.927982706569075
-0.1737000000000002,-56.927982706569075
-0.17470000000000008,-56.97042404556503
-0.1757000000000002,-57.012865384560975
-0.17670000000000008,-57.012865384560975
-0.1777000000000002,-57.05530672355693
-0.17870000000000008,-57.05530672355693
-0.1797000000000002,-57.097748062552874
-0.18070000000000008,-57.182630740544774
-0.1817000000000002,-57.26751341853669
-0.18270000000000008,-57.352396096528594
-0.1837000000000002,-57.45142588751914
-0.1847000000000001,-57.57874990450699
-0.1857000000000002,-57.62119124350295
-0.1867000000000001,-57.70607392149485
-0.1877000000000002,-57.8333979384827
-0.1887000000000001,-57.8333979384827
-0.1897000000000002,-57.87583927747865
-0.1907000000000001,-57.93242772947325
-0.1917000000000001,-57.93242772947325
-0.19269999999999998,-57.93242772947325
-0.1937000000000001,-57.974869068469204
-0.19469999999999998,-58.017310407465146
-0.1957000000000001,-58.10219308545706
-0.19669999999999999,-58.18707576344896
-0.1977000000000001,-58.22951710244491
-0.1987,-58.31439978043681
-0.1997000000000001,-58.45587091042332
-0.2007,-58.54075358841522
-0.2017000000000001,-58.62563626640712
-0.2027,-58.71051894439902
-0.2037000000000001,-58.75296028339497
-0.2047,-58.75296028339497
-0.2057000000000001,-58.79540162239092
-0.2067,-58.79540162239092
-0.2077000000000001,-58.83784296138688
-0.2087,-58.880284300382826
-0.2097000000000001,-58.92272563937878
-0.2107,-59.06419676936528
-0.2117000000000001,-59.19152078635314
-0.2127,-59.23396212534908
-0.2137000000000001,-59.403727481332886
-0.2147,-59.54519861131939
-0.2157000000000001,-59.7149639673032
-0.2167,-59.842287984291055
-0.21770000000000012,-59.92717066228296
-0.2187,-60.02620045327351
-0.21970000000000012,-60.02620045327351
-0.2207,-60.06864179226946
-0.22170000000000012,-60.15352447026136
-0.2227,-60.19596580925731
-0.22370000000000012,-60.23840714825326
-0.2247,-60.32328982624517
-0.22570000000000012,-60.40817250423707
-0.2267,-60.49305518222897
-0.22770000000000012,-60.63452631221547
-0.22870000000000001,-60.71940899020737
-0.22970000000000013,-60.889174346191176
-0.23070000000000002,-61.01649836317903
-0.23170000000000013,-61.11552815416958
-0.23270000000000002,-61.242852171157445
-0.23370000000000013,-61.28529351015339
-0.23470000000000002,-61.327734849149344
-0.23570000000000013,-61.455058866137186
-0.23670000000000002,-61.49750020513315
-0.2376999999999999,-61.53994154412909
-0.23870000000000002,-61.6814126741156
-0.2396999999999999,-61.72385401311155
-0.24070000000000003,-61.851178030099405
-0.24169999999999991,-61.97850204708726
-0.24270000000000003,-62.11997317707376
-0.24369999999999992,-62.24729719406162
-0.24470000000000003,-62.41706255004542
-0.24569999999999992,-62.544386567033264
-0.24670000000000003,-62.68585769701977
-0.24769999999999992,-62.81318171400764
-0.24870000000000003,-62.94050573099548
-0.24969999999999992,-62.98294706999144
-0.25070000000000003,-63.06782974798333
-0.2516999999999999,-63.15271242597524
-0.25270000000000004,-63.251742216965795
-0.2536999999999999,-63.37906623395363
-0.25470000000000004,-63.5063902509415
-0.2556999999999999,-63.633714267929356
-0.25670000000000004,-63.81762673691181
-0.25769999999999993,-63.98739209289561
-0.25870000000000004,-64.15715744887942
-0.25969999999999993,-64.42595259585376
-0.26070000000000004,-64.59571795183757
-0.26169999999999993,-64.72304196882543
-0.26270000000000004,-64.99183711579978
-0.26369999999999993,-65.0767197937917
-0.26470000000000005,-65.20404381077954
-0.26569999999999994,-65.34551494076604
-0.26670000000000005,-65.51528029674984
-0.26769999999999994,-65.5577216357458
-0.26870000000000005,-65.76992833072556
-0.26969999999999994,-65.91139946071206
-0.27070000000000005,-66.03872347769992
-0.27169999999999994,-66.25093017267966
-0.27270000000000005,-66.47728398065809
-0.27369999999999994,-66.68949067563783
-0.27470000000000006,-66.87340314462028
-0.27569999999999995,-67.08560983960004
-0.27670000000000006,-67.2978165345798
-0.27769999999999995,-67.52417034255821
-0.27870000000000006,-67.693935698542
-0.27969999999999995,-67.86370105452582
-0.28070000000000006,-68.04761352350828
-0.28169999999999995,-68.21737887949207
-0.28270000000000006,-68.34470289647993
-0.28369999999999995,-68.57105670445833
-0.28470000000000006,-68.78326339943808
-0.28569999999999995,-69.0096172074165
-0.28670000000000007,-69.26426524139221
-0.28769999999999996,-69.53306038836655
-0.28870000000000007,-69.78770842234226
-0.28969999999999996,-70.09894490831257
-0.29070000000000007,-70.31115160329232
-0.29169999999999996,-70.57994675026669
-0.29270000000000007,-70.87703612323833
-0.29369999999999996,-71.06094859222078
-0.2947000000000001,-71.27315528720055
-0.29569999999999996,-71.44292064318435
-0.2967000000000001,-71.66927445116276
-0.29769999999999996,-71.8814811461425
-0.2987000000000001,-72.10783495412092
-0.29969999999999997,-72.36248298809663
-0.3007000000000001,-72.63127813507097
-0.30169999999999997,-72.92836750804264
-0.3027000000000001,-73.197162655017
-0.30369999999999997,-73.49425202798865
-0.3047000000000001,-73.89037119195086
-0.30569999999999997,-74.14501922592657
-0.3067000000000001,-74.45625571189689
-0.3077,-74.80993353686314
-0.3087000000000001,-75.02214023184291
-0.3097,-75.29093537881725
-0.3107000000000001,-75.54558341279296
-0.3117,-75.81437855976732
-0.3127000000000001,-76.02658525474708
-0.3137,-76.33782174071737
-0.3147000000000001,-76.5924697746931
-0.3157,-76.94614759965934
-0.3167000000000001,-77.28567831162695
-0.3177,-77.63935613659322
-0.3187000000000001,-77.99303396155948
-0.3197,-78.38915312552167
-0.3207000000000001,-78.72868383748929
-0.3217,-79.08236166245555
-0.3227000000000001,-79.47848082641775
-0.3237,-79.7755701993894
-0.3247000000000001,-80.12924802435568
-0.3257,-80.42633739732734
-0.3267000000000001,-80.73757388329766
-0.3277,-81.09125170826391
-0.3287000000000001,-81.43078242023151
-0.3297,-81.78446024519776
-0.3307000000000001,-82.18057940915998
-0.3317,-82.61913991211814
-0.3327000000000001,-83.04355330207765
-0.3337,-83.48211380503581
-0.3347000000000001,-83.96311564698992
-0.3357,-84.35923481095215
-0.3367000000000001,-84.7977953139103
-0.3377,-85.23635581686847
-0.3387000000000001,-85.61832786783202
-0.3397,-86.01444703179425
-0.3407000000000001,-86.45300753475239
-0.3417,-86.80668535971866
-0.3427000000000001,-87.23109874967815
-0.3437,-87.62721791364037
-0.3447000000000001,-88.06577841659853
-0.3457,-88.54678025855264
-0.3467000000000001,-88.9853407615108
-0.3477,-89.46634260346492
-0.3487000000000001,-89.98978578441499
-0.3497,-90.47078762636909
-0.3507000000000001,-90.99423080731917
-0.3517,-91.46108553627462
-0.3527000000000001,-91.98452871722468
-0.3537,-92.42308922018285
-0.3547000000000001,-92.86164972314101
-0.3557,-93.34265156509512
-0.35670000000000013,-93.82365340704924
-0.3577,-94.30465524900335
-0.35870000000000013,-94.8280984299534
-0.3597,-95.30910027190752
-0.36070000000000013,-95.87498479185354
-0.3617,-96.4833106507955
-0.3626999999999999,-97.00675383174556
-0.3637,-97.61507969068752
-0.3646999999999999,-98.26584688862545
-0.3657,-98.83173140857146
-0.3666999999999999,-99.45420438051207
-0.3677,-100.06253023945405
-0.3686999999999999,-100.62841475940007
-0.36970000000000003,-101.23674061834203
-0.3706999999999999,-101.80262513828804
-0.37170000000000003,-102.36850965823406
-0.3726999999999999,-102.89195283918411
-0.37370000000000003,-103.50027869812607
-0.3746999999999999,-104.12275167006669
-0.37570000000000003,-104.77351886800463
-0.3766999999999999,-105.42428606594254
-0.37770000000000004,-106.07505326388046
-0.3786999999999999,-106.78240891381296
-0.37970000000000004,-107.47561745074682
-0.3806999999999999,-108.1688259876807
-0.38170000000000004,-108.87618163761321
-0.38269999999999993,-109.56939017454708
-0.38370000000000004,-110.22015737248502
-0.38469999999999993,-110.87092457042293
-0.38570000000000004,-111.5358388813595
-0.38669999999999993,-110.65871787544317
-0.38570000000000004,-107.4331761117509
-0.38469999999999993,-104.73107752900866
-0.38370000000000004,-102.19874430225026
-0.38269999999999993,-99.93520622246619
-0.38170000000000004,-97.84143349866595
-0.3806999999999999,-95.83254345285758
-0.37970000000000004,-93.95097742403709
-0.3786999999999999,-92.2108825252031
-0.37770000000000004,-90.47078762636909
-0.3766999999999999,-88.80142829252836
-0.37570000000000003,-87.18865741068221
-0.3746999999999999,-85.57588652883607
-0.37370000000000003,-84.04799832498183
-0.3726999999999999,-82.47766878213164
-0.37170000000000003,-80.9497805782774
-0.3706999999999999,-79.52092216541372
-0.36970000000000003,-78.07791663955136
-0.3686999999999999,-76.67735245268499
-0.3677,-75.33337671781321
-0.3666999999999999,-74.06013654793468
-0.3657,-72.80104349105478
-0.3646999999999999,-71.52780332117625
-0.3637,-70.31115160329232
-0.3626999999999999,-69.13694122440434
-0.3617,-67.9202895065204
-0.36070000000000013,-66.73193201463377
-0.3597,-65.4728389577539
-0.35870000000000013,-64.25618723986996
-0.3577,-63.06782974798333
-0.35670000000000013,-61.936060708091304
-0.3557,-60.71940899020737
-0.3547000000000001,-59.587639950315335
-0.3537,-58.39928245842871
-0.3527000000000001,-57.352396096528594
-0.3517,-56.30550973462846
-0.3507000000000001,-55.21618203373238
-0.3497,-54.2117370108282
-0.3487000000000001,-53.22143910092268
-0.3477,-52.25943541701445
-0.3467000000000001,-51.21254905511432
-0.3457,-50.2505453712061
-0.3447000000000001,-49.20365900930597
-0.3437,-48.156772647405845
-0.3427000000000001,-47.15232762450167
-0.3417,-46.147882601597495
-0.3407000000000001,-45.10099623969737
-0.3397,-44.096551216793195
-0.3387000000000001,-43.17698887188092
-0.3377,-42.229132300971344
-0.3367000000000001,-41.352011295055014
-0.3357,-40.43244895014274
-0.3347000000000001,-39.51288660523048
-0.3337,-38.692354051308754
-0.3327000000000001,-37.77279170639648
-0.3317,-36.89567070048016
-0.3307000000000001,-36.07513814655844
-0.3297,-35.11313446265021
-0.3287000000000001,-34.193572117737936
-0.3277,-33.330598224820264
-0.3267000000000001,-32.41103587990799
-0.3257,-31.49147353499572
-0.3247000000000001,-30.71338232006995
-0.3237,-29.793819975157668
-0.3227000000000001,-29.001581647233255
-0.3217,-28.22349043230748
-0.3207000000000001,-27.43125210438306
-0.3197,-26.65316088945729
-0.3187000000000001,-25.86092256153287
-0.3177,-25.12527268560305
-0.3167000000000001,-24.34718147067728
-0.3157,-23.597384481748815
-0.3147000000000001,-22.776851927827092
-0.3137,-21.98461359990267
-0.3127000000000001,-21.2065223849769
-0.3117,-20.414284057052477
-0.3107000000000001,-19.537163051136158
-0.3097,-18.80151317520634
-0.3087000000000001,-18.06586329927652
-0.3077,-17.358507649344002
-0.3067000000000001,-16.70774045140608
-0.30569999999999997,-15.972090575476265
-0.3047000000000001,-15.264734925543747
-0.30369999999999997,-14.65640906660178
-0.3027000000000001,-13.960371107068182
-0.30169999999999997,-13.30535977523067
-0.3007000000000001,-12.651763154693022
-0.29969999999999997,-11.909039722263879
-0.2987000000000001,-11.211587051430415
-0.29769999999999996,-10.470278330301136
-0.2967000000000001,-9.772825659467674
-0.29569999999999996,-9.031516938338395
-0.2947000000000001,-8.376505606500881
-0.29369999999999996,-7.722908985963235
-0.29270000000000007,-7.111753704421539
-0.29169999999999996,-6.458157083883892
-0.29070000000000007,-5.890857852638012
-0.28969999999999996,-5.279702571096316
-0.28870000000000007,-4.712403339850438
-0.28769999999999996,-4.102662769608606
-0.28670000000000007,-3.4915074880669104
-0.28569999999999995,-2.924208256821031
-0.28470000000000006,-2.2706116362833835
-0.28369999999999995,-1.6156003044458718
-0.28270000000000006,-0.9617207416482519
-0.28169999999999995,-0.3511313446265021
-0.28070000000000006,0.2594580523952477
-0.27969999999999995,0.870188920546984
-0.27870000000000006,1.4812027309586933
-0.27769999999999995,2.048501962204573
-0.27670000000000006,2.5705304318547717
-0.27569999999999995,3.1378296631006513
-0.27470000000000006,3.6174167937548987
-0.27369999999999994,4.140859974704963
-0.27270000000000005,4.708159205950842
-0.27169999999999994,5.231602386900906
-0.27070000000000005,5.75504556785097
-0.26969999999999994,6.278488748801033
-0.26870000000000005,6.845787980046913
-0.26769999999999994,7.413087211292793
-0.26670000000000005,7.980386442538672
-0.26569999999999994,8.546270962484687
-0.26470000000000005,9.06971414343475
-0.26369999999999993,9.593157324384812
