Potential V vs RHE, Current mA cm-2
0.013299999999999867,0.04140859974704963
0.012299999999999978,-1.8334658446250875
0.011299999999999866,-3.447651437771094
0.010299999999999976,-4.9302688800296535
0.009299999999999864,-6.238876832404812
0.008299999999999974,-7.461187395488204
0.007299999999999862,-8.464217707092514
0.006299999999999972,-9.467248018696827
0.00529999999999986,-10.340124890713554
0.0042999999999999705,-11.1677310011346
0.0032999999999998586,-11.996751822855511
0.0022999999999999687,-12.825772644576423
0.0012999999999998568,-13.654793466297335
0.00029999999999996696,-14.401761032626075
-0.000700000000000145,-15.137410908555893
-0.0017000000000000348,-15.830619445489761
-0.0027000000000001467,-16.396503965435777
-0.0037000000000000366,-16.962388485381787
-0.0047000000000001485,-17.4433903273359
-0.005700000000000038,-17.966833508285966
-0.00670000000000015,-18.49027668923603
-0.00770000000000004,-19.056161209182044
-0.008700000000000152,-19.579604390132108
-0.009700000000000042,-20.159636023076775
-0.010700000000000154,-20.683079204026836
-0.011700000000000044,-21.2065223849769
-0.012700000000000156,-21.58849443594046
-0.013700000000000045,-21.98461359990267
-0.014700000000000157,-22.38073276386488
-0.015700000000000047,-22.72026347583249
-0.01670000000000016,-23.073941300798747
-0.01770000000000005,-23.51250180375691
-0.01870000000000016,-23.908620967719123
-0.01970000000000005,-24.34718147067728
-0.020700000000000163,-24.729153521640843
-0.021700000000000053,-25.12527268560305
-0.022700000000000164,-25.43650917157336
-0.023700000000000054,-25.73359854454502
-0.024700000000000166,-25.959952352523427
-0.025700000000000056,-26.257041725495082
-0.026700000000000168,-26.568278211465387
-0.027700000000000058,-26.907808923433
-0.02870000000000017,-27.261486748399253
-0.02970000000000006,-27.615164573365515
-0.03070000000000017,-27.954695285333123
-0.03170000000000006,-28.265931771303435
-0.03270000000000017,-28.478138466283188
-0.03370000000000006,-28.704492274261593
-0.034700000000000175,-28.8742576302454
-0.035700000000000065,-29.14305277721976
-0.03670000000000018,-29.35525947219951
-0.03770000000000007,-29.66649595816982
-0.03870000000000018,-29.96358533114148
-0.03970000000000007,-30.232380478115836
-0.04070000000000018,-30.529469851087494
-0.04170000000000007,-30.7558236590659
-0.04270000000000018,-30.925589015049702
-0.04370000000000007,-31.095354371033505
-0.044700000000000184,-31.23682550102001
-0.045700000000000074,-31.40659085700382
-0.046700000000000186,-31.57635621298762
-0.047700000000000076,-31.802710020966025
-0.04870000000000019,-32.01491671594578
-0.04970000000000008,-32.283711862920136
-0.05070000000000019,-32.49591855789989
-0.05170000000000008,-32.70812525287965
-0.05270000000000019,-32.84959638286615
-0.05370000000000008,-32.97692039985401
-0.05470000000000019,-33.10424441684186
-0.05570000000000008,-33.231568433829715
-0.056700000000000195,-33.373039563816214
-0.057700000000000085,-33.58524625879597
-0.058700000000000196,-33.81160006677438
-0.059700000000000086,-34.06624810075008
-0.0607000000000002,-34.236013456733886
-0.06170000000000009,-34.462367264712285
-0.0627000000000002,-34.5472499427042
-0.06370000000000009,-34.58969128170015
-0.0647000000000002,-34.67457395969205
-0.06570000000000009,-34.8018979766799
-0.0667000000000002,-34.90092776767045
-0.0677000000000001,-35.07069312365426
-0.0687000000000002,-35.240458479638065
-0.0697000000000001,-35.42437094862052
-0.07070000000000021,-35.636577643600276
-0.0717000000000001,-35.763901660588125
-0.07270000000000021,-35.848784338580025
-0.0737000000000001,-35.94781412957058
-0.07470000000000021,-36.03269680756248
-0.0757000000000001,-36.11757948555439
-0.07670000000000021,-36.16002082455034
-0.0777000000000001,-36.329786180534136
-0.07870000000000021,-36.47125731052064
-0.0797000000000001,-36.6834640055004
-0.08070000000000022,-36.81078802248826
-0.0817000000000001,-36.95225915247476
-0.08270000000000022,-36.99470049147071
-0.08370000000000011,-37.037141830466666
-0.08470000000000022,-37.037141830466666
-0.08570000000000011,-37.07958316946261
-0.08670000000000022,-37.164465847454515
-0.08770000000000011,-37.291789864442364
-0.08870000000000022,-37.41911388143023
-0.08970000000000011,-37.60302635041268
-0.09070000000000022,-37.687909028404576
-0.09170000000000011,-37.81523304539243
-0.09270000000000023,-37.85767438438838
-0.09370000000000012,-37.90011572338433
-0.09470000000000023,-37.90011572338433
-0.09570000000000012,-37.99914551437489
-0.09670000000000023,-37.99914551437489
-0.09770000000000012,-38.12646953136274
-0.09870000000000023,-38.253793548350586
-0.09970000000000012,-38.38111756533845
-0.10070000000000023,-38.46600024333035
-0.10170000000000012,-38.607471373316855
-0.10270000000000024,-38.6499127123128
-0.10370000000000013,-38.607471373316855
-0.10470000000000024,-38.6499127123128
-0.10570000000000013,-38.6499127123128
-0.10670000000000024,-38.6499127123128
-0.10770000000000013,-38.777236729300654
-0.10870000000000024,-38.86211940729255
-0.10970000000000013,-38.98944342428042
-0.11070000000000024,-39.08847321527096
-0.11170000000000013,-39.173355893262865
-0.11270000000000002,-39.130914554266916
-0.11370000000000013,-39.130914554266916
-0.11470000000000002,-39.130914554266916
-0.11570000000000014,-39.130914554266916
-0.11670000000000003,-39.130914554266916
-0.11770000000000014,-39.258238571254765
-0.11870000000000003,-39.34312124924667
-0.11970000000000014,-39.42800392723857
-0.12070000000000003,-39.51288660523048
-0.12170000000000014,-39.61191639622103
-0.12270000000000003,-39.61191639622103
-0.12370000000000014,-39.61191639622103
-0.12470000000000003,-39.61191639622103
-0.12570000000000014,-39.61191639622103
-0.12670000000000003,-39.61191639622103
-0.12770000000000015,-39.696799074212926
-0.12870000000000004,-39.78168175220483
-0.12970000000000015,-39.86656443019674
-0.13070000000000004,-39.95144710818864
-0.13170000000000015,-39.99388844718459
-0.13270000000000004,-39.95144710818864
-0.13370000000000015,-39.95144710818864
-0.13470000000000004,-39.95144710818864
-0.13570000000000015,-39.90900576919269
-0.13670000000000004,-39.90900576919269
-0.13770000000000016,-39.99388844718459
-0.13870000000000005,-40.092918238175145
-0.13970000000000016,-40.220242255162994
-0.14070000000000005,-40.30512493315489
-0.14170000000000016,-40.34756627215084
-0.14270000000000005,-40.34756627215084
-0.14370000000000016,-40.34756627215084
-0.14470000000000005,-40.30512493315489
-0.14570000000000016,-40.30512493315489
-0.14670000000000005,-40.30512493315489
-0.14770000000000016,-40.3900076111468
-0.14870000000000005,-40.4748902891387
-0.14970000000000017,-40.559772967130606
-0.15070000000000006,-40.65880275812115
-0.15170000000000017,-40.701244097117105
-0.15270000000000006,-40.701244097117105
-0.15370000000000017,-40.65880275812115
-0.15470000000000006,-40.616361419125205
-0.15570000000000017,-40.616361419125205
-0.15670000000000006,-40.559772967130606
-0.15770000000000017,-40.65880275812115
-0.15870000000000006,-40.701244097117105
-0.15970000000000018,-40.828568114104954
-0.16070000000000007,-40.87100945310091
-0.16170000000000018,-40.91345079209687
-0.16270000000000007,-40.87100945310091
-0.16370000000000018,-40.91345079209687
-0.16470000000000007,-40.87100945310091
-0.16570000000000018,-40.87100945310091
-0.16670000000000007,-40.87100945310091
-0.16770000000000018,-40.95589213109281
-0.16870000000000007,-41.04077480908471
-0.16970000000000018,-41.182245939071215
-0.17070000000000007,-41.22468727806717
-0.17170000000000019,-41.30956995605907
-0.17270000000000008,-41.267128617063115
-0.1737000000000002,-41.267128617063115
-0.17470000000000008,-41.22468727806717
-0.1757000000000002,-41.182245939071215
-0.17670000000000008,-41.22468727806717
-0.1777000000000002,-41.267128617063115
-0.17870000000000008,-41.352011295055014
-0.1797000000000002,-41.43689397304693
-0.18070000000000008,-41.47933531204288
-0.1817000000000002,-41.56421799003478
-0.18270000000000008,-41.56421799003478
-0.1837000000000002,-41.56421799003478
-0.1847000000000001,-41.52177665103883
-0.1857000000000002,-41.56421799003478
-0.1867000000000001,-41.56421799003478
-0.1877000000000002,-41.66324778102533
-0.1887000000000001,-41.74813045901723
-0.1897000000000002,-41.87545447600508
-0.1907000000000001,-41.91789581500104
-0.1917000000000001,-42.00277849299294
-0.19269999999999998,-42.00277849299294
-0.1937000000000001,-42.00277849299294
-0.19469999999999998,-41.96033715399699
-0.1957000000000001,-42.00277849299294
-0.19669999999999999,-42.00277849299294
-0.1977000000000001,-42.087661170984845
-0.1987,-42.186690961975394
-0.1997000000000001,-42.2715736399673
-0.2007,-42.3564563179592
-0.2017000000000001,-42.4413389959511
-0.2027,-42.4413389959511
-0.2037000000000001,-42.483780334947056
-0.2047,-42.4413389959511
-0.2057000000000001,-42.483780334947056
-0.2067,-42.526221673943
-0.2077000000000001,-42.6111043519349
-0.2087,-42.752575481921404
-0.2097000000000001,-42.87989949890926
-0.2107,-42.96478217690117
-0.2117000000000001,-43.04966485489307
-0.2127,-43.09210619388902
-0.2137000000000001,-43.09210619388902
-0.2147,-43.09210619388902
-0.2157000000000001,-43.17698887188092
-0.2167,-43.27601866287147
-0.21770000000000012,-43.36090134086337
-0.2187,-43.44578401885527
-0.21970000000000012,-43.61554937483908
-0.2207,-43.70043205283099
-0.22170000000000012,-43.84190318281749
-0.2227,-43.88434452181344
-0.22370000000000012,-43.88434452181344
-0.2247,-43.92678586080939
-0.22570000000000012,-43.96922719980534
-0.2267,-44.054109877797245
-0.22770000000000012,-44.181433894785094
-0.22870000000000001,-44.3229050247716
-0.22970000000000013,-44.4926703807554
-0.23070000000000002,-44.619994397743255
-0.23170000000000013,-44.74731841473111
-0.23270000000000002,-44.80390686672572
-0.23370000000000013,-44.88878954471762
-0.23470000000000002,-44.88878954471762
-0.23570000000000013,-44.97367222270952
-0.23670000000000002,-45.01611356170547
-0.2376999999999999,-45.18587891768927
-0.23870000000000002,-45.36979138667173
-0.2396999999999999,-45.53955674265553
-0.24070000000000003,-45.666880759643384
-0.24169999999999991,-45.85079322862584
-0.24270000000000003,-45.89323456762179
-0.24369999999999992,-45.93567590661774
-0.24470000000000003,-45.97811724561369
-0.24569999999999992,-46.062999923605595
-0.24670000000000003,-46.19032394059345
-0.24769999999999992,-46.3176479575813
-0.24870000000000003,-46.45911908756781
-0.24969999999999992,-46.67132578254756
-0.25070000000000003,-46.84109113853137
-0.2516999999999999,-47.067444946509774
-0.25270000000000004,-47.10988628550572
-0.2536999999999999,-47.23721030249357
-0.25470000000000004,-47.32209298048547
-0.2556999999999999,-47.40697565847737
-0.25670000000000004,-47.54844678846388
-0.25769999999999993,-47.76065348344364
-0.25870000000000004,-47.93041883942744
-0.25969999999999993,-48.1992139864018
-0.26070000000000004,-48.41142068138156
-0.26169999999999993,-48.59533315036401
-0.26270000000000004,-48.68021582835591
-0.26369999999999993,-48.80753984534376
-0.26470000000000005,-48.93486386233162
-0.26569999999999994,-49.076334992318124
-0.26670000000000005,-49.24610034830193
-0.26769999999999994,-49.458307043281685
-0.26870000000000005,-49.68466085126009
-0.26969999999999994,-49.98175022423175
-0.27070000000000005,-50.20810403221015
-0.27169999999999994,-50.37786938819396
-0.27270000000000005,-50.547634744177756
-0.27369999999999994,-50.68910587416426
-0.27470000000000006,-50.85887123014807
-0.27569999999999995,-51.028636586131874
-0.27670000000000006,-51.21254905511432
-0.27769999999999995,-51.46719708909004
-0.27870000000000006,-51.73599223606439
-0.27969999999999995,-51.990640270040096
-0.28070000000000006,-52.25943541701445
-0.28169999999999995,-52.514083450990164
-0.28270000000000006,-52.69799591997262
-0.28369999999999995,-52.86776127595642
-0.28470000000000006,-53.03752663194023
-0.28569999999999995,-53.26388043991864
-0.28670000000000007,-53.476087134898386
-0.28769999999999996,-53.74488228187274
-0.28870000000000007,-54.0419716548444
-0.28969999999999996,-54.39564947981066
-0.29070000000000007,-54.65029751378637
-0.29169999999999996,-54.961533999756675
-0.29270000000000007,-55.17374069473642
-0.29369999999999996,-55.400094502714836
-0.2947000000000001,-55.612301197694585
-0.29569999999999996,-55.838655005673
-0.2967000000000001,-56.093303039648696
-0.29769999999999996,-56.404539525619015
-0.2987000000000001,-56.74407023758662
-0.29969999999999997,-57.097748062552874
-0.3007000000000001,-57.408984548523186
-0.30169999999999997,-57.7485152604908
-0.3027000000000001,-58.05975174646111
-0.30369999999999997,-58.27195844144086
-0.3047000000000001,-58.54075358841522
-0.30569999999999997,-58.79540162239092
-0.3067000000000001,-59.06419676936528
-0.3077,-59.44616882032884
-0.3087000000000001,-59.7998466452951
-0.3097,-60.23840714825326
-0.3107000000000001,-60.59208497321952
-0.3117,-60.974057024183075
-0.3127000000000001,-61.28529351015339
-0.3137,-61.5965299961237
-0.3147000000000001,-61.80873669110345
-0.3157,-62.16241451606972
-0.3167000000000001,-62.501945228037314
-0.3177,-62.89806439199953
-0.3187000000000001,-63.3366248949577
-0.3197,-63.77518539791585
-0.3207000000000001,-64.19959878787537
-0.3217,-64.59571795183757
-0.3227000000000001,-64.94939577680383
-0.3237,-65.3030736017701
-0.3247000000000001,-65.64260431373769
-0.3257,-66.03872347769992
-0.3267000000000001,-66.43484264166212
-0.3277,-66.91584448361623
-0.3287000000000001,-67.39684632557035
-0.3297,-67.86370105452582
-0.3307000000000001,-68.34470289647993
-0.3317,-68.78326339943808
-0.3327000000000001,-69.1793825634003
-0.3337,-69.57550172736251
-0.3347000000000001,-69.95747377832606
-0.3357,-70.35359294228827
-0.3367000000000001,-70.8345947842424
-0.3377,-71.31559662619651
-0.3387000000000001,-71.8814811461425
-0.3397,-72.44736566608852
-0.3407000000000001,-72.97080884703858
-0.3417,-73.49425202798865
-0.3427000000000001,-73.93281253094682
-0.3437,-74.41381437290093
-0.3447000000000001,-74.8523748758591
-0.3457,-75.33337671781321
-0.3467000000000001,-75.81437855976732
-0.3477,-76.42270441870929
-0.3487000000000001,-76.98858893865528
-0.3497,-77.55447345860131
-0.3507000000000001,-78.16279931754329
-0.3517,-78.72868383748929
-0.3527000000000001,-79.25212701843935
-0.3537,-79.7755701993894
-0.3547000000000001,-80.25657204134353
-0.3557,-80.82245656128954
-0.35670000000000013,-81.3458997422396
-0.3577,-81.95422560118158
-0.35870000000000013,-82.61913991211814
-0.3597,-83.22746577106011
-0.36070000000000013,-83.87823296899803
-0.3617,-84.48655882793999
-0.3626999999999999,-85.01000200889004
-0.3637,-85.57588652883607
-0.3646999999999999,-86.14177104878208
-0.3657,-86.7076555687281
-0.3666999999999999,-87.33012854066871
-0.3677,-88.02333707760259
-0.3686999999999999,-88.7589869535324
-0.36970000000000003,-89.50878394246087
-0.3706999999999999,-90.15955114039879
-0.37170000000000003,-90.89520101632861
-0.3726999999999999,-91.56011532726518
-0.37370000000000003,-92.2108825252031
-0.3746999999999999,-92.81920838414506
-0.37570000000000003,-93.51241692107894
-0.3766999999999999,-94.13488989301955
-0.37770000000000004,-94.8280984299534
-0.3786999999999999,-95.56374830588322
-0.37970000000000004,-96.35598663380765
-0.3806999999999999,-97.13407784873341
-0.38170000000000004,-97.92631617665783
-0.38269999999999993,-98.6195247135917
-0.38370000000000004,-99.31273325052557
-0.38469999999999993,-99.97764756146215
-0.38570000000000004,-100.670856098396
-0.38669999999999993,-99.87861777047159
-0.38570000000000004,-97.00675383174556
-0.38469999999999993,-94.55930328297906
-0.38370000000000004,-92.4655305591788
-0.38269999999999993,-90.51322896536506
-0.38170000000000004,-88.6741042755405
-0.3806999999999999,-86.97645071570246
-0.37970000000000004,-85.27879715586442
-0.3786999999999999,-83.66602627401826
-0.37770000000000004,-82.13813807016405
-0.3766999999999999,-80.69513254430169
-0.37570000000000003,-79.2945683574353
-0.3746999999999999,-78.03547530055542
-0.37370000000000003,-76.7622351306769
-0.3726999999999999,-75.54558341279296
-0.37170000000000003,-74.28649035591307
-0.3706999999999999,-73.01325018603454
-0.36970000000000003,-71.75415712915466
-0.3686999999999999,-70.48091695927613
-0.3677,-69.30670658038814
-0.3666999999999999,-68.0900548625042
-0.3657,-67.00072716160814
-0.3646999999999999,-65.91139946071206
-0.3637,-64.86451309881193
-0.3626999999999999,-63.860068075907755
-0.3617,-62.77074037501168
-0.36070000000000013,-61.72385401311155
-0.3597,-60.63452631221547
-0.35870000000000013,-59.502757272323436
-0.3577,-58.498312249419264
-0.35670000000000013,-57.493867226515086
-0.3557,-56.489422203610914
-0.3547000000000001,-55.527418519702685
-0.3537,-54.56541483579447
-0.3527000000000001,-53.64585249088219
-0.3517,-52.69799591997262
-0.3507000000000001,-51.69355089706845
-0.3497,-50.68910587416426
-0.3487000000000001,-49.68466085126009
-0.3477,-48.72265716735186
-0.3467000000000001,-47.76065348344364
-0.3457,-46.88353247752732
-0.3447000000000001,-46.062999923605595
-0.3437,-45.22832025668522
-0.3427000000000001,-44.3229050247716
-0.3417,-43.48822535785123
-0.3407000000000001,-42.568663012938956
-0.3397,-41.66324778102533
-0.3387000000000001,-40.743685436113054
-0.3377,-39.86656443019674
-0.3367000000000001,-39.046031876275016
-0.3357,-38.211352209354644
-0.3347000000000001,-37.41911388143023
-0.3337,-36.6834640055004
-0.3327000000000001,-35.94781412957058
-0.3317,-35.15557580164616
-0.3307000000000001,-34.278454795729836
-0.3297,-33.41548090281216
-0.3287000000000001,-32.58080123589179
-0.3277,-31.802710020966025
-0.3267000000000001,-30.968030354045652
-0.3257,-30.274821817111786
-0.3247000000000001,-29.525024828183312
-0.3237,-28.8742576302454
-0.3227000000000001,-28.18104909331153
-0.3217,-27.43125210438306
-0.3207000000000001,-26.69560222845324
-0.3197,-25.91751101352747
-0.3187000000000001,-25.12527268560305
-0.3177,-24.389622809673234
-0.3167000000000001,-23.639825820744765
-0.3157,-22.989058622806844
-0.3147000000000001,-22.33829142486893
-0.3137,-21.729965565926964
-0.3127000000000001,-21.065051254990397
-0.3117,-20.414284057052477
-0.3107000000000001,-19.721075520118614
-0.3097,-18.97127853119014
-0.3087000000000001,-18.27806999425627
-0.3077,-17.584861457322408
-0.3067000000000001,-16.919947146385837
-0.30569999999999997,-16.311621287443874
-0.3047000000000001,-15.74573676749786
-0.30369999999999997,-15.222293586547794
-0.3027000000000001,-14.57152638860988
-0.30169999999999997,-14.002812446064135
-0.3007000000000001,-13.349215825526485
-0.29969999999999997,-12.651763154693022
-0.2987000000000001,-11.996751822855511
-0.29769999999999996,-11.343155202317865
-0.2967000000000001,-10.731999920776168
-0.29569999999999996,-10.164700689530287
-0.2947000000000001,-9.641257508580225
-0.29369999999999996,-9.161670377925978
-0.29270000000000007,-8.594371146680096
-0.29169999999999996,-8.027071915434218
-0.29070000000000007,-7.461187395488204
-0.28969999999999996,-6.806176063650692
-0.28870000000000007,-6.196435493408861
-0.28769999999999996,-5.629136262162981
-0.28670000000000007,-5.0618370309171015
-0.28569999999999995,-4.538393849967037
-0.28470000000000006,-4.0588067193127895
-0.28369999999999995,-3.623075638954359
-0.28270000000000006,-3.0996324580042955
-0.28169999999999995,-2.618630616050183
-0.28070000000000006,-2.052746096104168
-0.27969999999999995,-1.4854468648582886
-0.27870000000000006,-0.9181476336124089
-0.27769999999999995,-0.3947044526623452
-0.27670000000000006,0.17231183632356148
-0.27569999999999995,0.6084673300719523
-0.27470000000000006,1.0446228238203432
-0.27369999999999994,1.4812027309586933
-0.27270000000000005,1.9169338113171246
-0.27169999999999994,2.396520941971372
-0.27070000000000005,2.919964122921436
-0.26969999999999994,3.4434073038714996
-0.26870000000000005,3.9668504848215624
-0.26769999999999994,4.44643761547581
-0.26670000000000005,4.9698807964258735
-0.26569999999999994,5.3631705377883545
-0.26470000000000005,5.75504556785097
-0.26369999999999993,6.14833530921345
