Potential V vs RHE, Current mA cm-2
0.013299999999999867,0.13318092176929455
0.012299999999999978,-0.7217857051911418
0.011299999999999866,-1.2562636342801525
0.010299999999999976,-1.6693593338407433
0.009299999999999864,-2.001816489309027
0.008299999999999974,-2.2564645232847336
0.007299999999999862,-2.460182950465299
0.006299999999999972,-2.661071955046134
0.00529999999999986,-2.843569712728724
0.0042999999999999705,-3.004846800913338
0.0032999999999998586,-3.1279266840015962
0.0022999999999999687,-3.2241270523924186
0.0012999999999998568,-3.3387186676814866
0.00029999999999996696,-3.447651437771094
-0.000700000000000145,-3.542437094862052
-0.0017000000000000348,-3.608928525955709
-0.0027000000000001467,-3.65985813275085
-0.0037000000000000366,-3.7362525429435625
-0.0047000000000001485,-3.8140616644361387
-0.005700000000000038,-3.881967806829661
-0.00670000000000015,-3.9173355893262864
-0.00770000000000004,-3.9371415475243974
-0.008700000000000152,-3.9852417317198086
-0.009700000000000042,-4.050318451513601
-0.010700000000000154,-4.101248058308742
-0.011700000000000044,-4.108321614808066
-0.012700000000000156,-4.1238834391065815
-0.013700000000000045,-4.1564217990034775
-0.014700000000000157,-4.213010250998079
-0.015700000000000047,-4.237060343095785
-0.01670000000000016,-4.24979274479457
-0.01770000000000005,-4.251207456094435
-0.01870000000000016,-4.2681839916928155
-0.01970000000000005,-4.302137062889576
-0.020700000000000163,-4.331846000186743
-0.021700000000000053,-4.323357732387552
-0.022700000000000164,-4.324772443687417
-0.023700000000000054,-4.337504845386203
-0.024700000000000166,-4.371457916582963
-0.025700000000000056,-4.388434452181344
-0.026700000000000168,-4.378531473082289
-0.027700000000000058,-4.374287339182693
-0.02870000000000017,-4.384190318281749
-0.02970000000000006,-4.398337431280399
-0.03070000000000017,-4.413899255578914
-0.03170000000000006,-4.40399627647986
-0.03270000000000017,-4.387019740881478
-0.03370000000000006,-4.402581565179994
-0.034700000000000175,-4.425216945977835
-0.035700000000000065,-4.436534636376755
-0.03670000000000018,-4.42946107987743
-0.03770000000000007,-4.40399627647986
-0.03870000000000018,-4.416728678178644
-0.03970000000000007,-4.42946107987743
-0.04070000000000018,-4.4322905024771595
-0.04170000000000007,-4.422387523378105
-0.04270000000000018,-4.402581565179994
-0.04370000000000007,-4.413899255578914
-0.044700000000000184,-4.43511992507689
-0.045700000000000074,-4.44077877027635
-0.046700000000000186,-4.422387523378105
-0.047700000000000076,-4.399752142580264
-0.04870000000000019,-4.406825699079589
-0.04970000000000008,-4.422387523378105
-0.05070000000000019,-4.419558100778375
-0.05170000000000008,-4.402581565179994
-0.05270000000000019,-4.382775606981883
-0.05370000000000008,-4.385605029581614
-0.05470000000000019,-4.405410987779724
-0.05570000000000008,-4.394093297380804
-0.056700000000000195,-4.3728726278828285
-0.057700000000000085,-4.360140226184043
-0.058700000000000196,-4.3657990713835035
-0.059700000000000086,-4.382775606981883
-0.0607000000000002,-4.387019740881478
-0.06170000000000009,-4.375702050482558
-0.0627000000000002,-4.364384360083638
-0.06370000000000009,-4.361554937483908
-0.0647000000000002,-4.377116761782423
-0.06570000000000009,-4.379946184382153
-0.0667000000000002,-4.360140226184043
-0.0677000000000001,-4.350237247084988
-0.0687000000000002,-4.358725514884178
-0.0697000000000001,-4.3728726278828285
-0.07070000000000021,-4.378531473082289
-0.0717000000000001,-4.348822535785122
-0.07270000000000021,-4.338919556686067
-0.0737000000000001,-4.350237247084988
-0.07470000000000021,-4.3657990713835035
-0.0757000000000001,-4.364384360083638
-0.07670000000000021,-4.353066669684718
-0.0777000000000001,-4.329016577587013
-0.07870000000000021,-4.344578401885528
-0.0797000000000001,-4.355896092284448
-0.08070000000000022,-4.358725514884178
-0.0817000000000001,-4.3403342679859325
-0.08270000000000022,-4.327601866287147
-0.08370000000000011,-4.341748979285797
-0.08470000000000022,-4.348822535785122
-0.08570000000000011,-4.348822535785122
-0.08670000000000022,-4.3403342679859325
-0.08770000000000011,-4.326187154987283
-0.08870000000000022,-4.336090134086337
-0.08970000000000011,-4.355896092284448
-0.09070000000000022,-4.367213782683368
-0.09170000000000011,-4.343163690585662
-0.09270000000000023,-4.338919556686067
-0.09370000000000012,-4.347407824485257
-0.09470000000000023,-4.362969648783774
-0.09570000000000012,-4.358725514884178
-0.09670000000000023,-4.343163690585662
-0.09770000000000012,-4.338919556686067
-0.09870000000000023,-4.343163690585662
-0.09970000000000012,-4.3657990713835035
-0.10070000000000023,-4.3728726278828285
-0.10170000000000012,-4.348822535785122
-0.10270000000000024,-4.343163690585662
-0.10370000000000013,-4.351651958384853
-0.10470000000000024,-4.377116761782423
-0.10570000000000013,-4.378531473082289
-0.10670000000000024,-4.357310803584314
-0.10770000000000013,-4.348822535785122
-0.10870000000000024,-4.360140226184043
-0.10970000000000013,-4.375702050482558
-0.11070000000000024,-4.387019740881478
-0.11170000000000013,-4.371457916582963
-0.11270000000000002,-4.371457916582963
-0.11370000000000013,-4.399752142580264
-0.11470000000000002,-4.402581565179994
-0.11570000000000014,-4.413899255578914
-0.11670000000000003,-4.394093297380804
-0.11770000000000014,-4.387019740881478
-0.11870000000000003,-4.408240410379454
-0.11970000000000014,-4.426631657277699
-0.12070000000000003,-4.428046368577565
-0.12170000000000014,-4.425216945977835
-0.12270000000000003,-4.416728678178644
-0.12370000000000014,-4.4393640589764845
-0.12470000000000003,-4.4648288623740555
-0.12570000000000014,-4.461999439774326
-0.12670000000000003,-4.459170017174596
-0.12770000000000015,-4.447852326775675
-0.12870000000000004,-4.467658284973785
-0.12970000000000015,-4.491708377071491
-0.13070000000000004,-4.495952510971087
-0.13170000000000015,-4.483220109272302
-0.13270000000000004,-4.486049531872031
-0.13370000000000015,-4.505855490070142
-0.13470000000000004,-4.545467406466363
-0.13570000000000015,-4.553955674265553
-0.13670000000000004,-4.544052695166498
-0.13770000000000016,-4.548296829066093
-0.13870000000000005,-4.566688075964338
-0.13970000000000016,-4.593567590661774
-0.14070000000000005,-4.600641147161099
-0.14170000000000016,-4.597811724561368
-0.14270000000000005,-4.60629999236056
-0.14370000000000016,-4.6218618166590755
-0.14470000000000005,-4.6572295991557
-0.14570000000000016,-4.6742061347540815
-0.14670000000000005,-4.667132578254756
-0.14770000000000016,-4.679864979953542
-0.14870000000000005,-4.699670938151652
-0.14970000000000017,-4.733624009348413
-0.15070000000000006,-4.7463564110471985
-0.15170000000000017,-4.743526988447469
-0.15270000000000006,-4.749185833646928
-0.15370000000000017,-4.783138904843689
-0.15470000000000006,-4.8128478421408545
-0.15570000000000017,-4.835483222938696
-0.15670000000000006,-4.839727356838291
-0.15770000000000017,-4.846800913337615
-0.15870000000000006,-4.893486386233161
-0.15970000000000018,-4.933098302629383
-0.16070000000000007,-4.948660126927899
-0.16170000000000018,-4.955733683427223
-0.16270000000000007,-4.974124930325469
-0.16370000000000018,-5.01939569192115
-0.16470000000000007,-5.070325298716291
-0.16570000000000018,-5.0816429891152115
-0.16670000000000007,-5.095790102113861
-0.16770000000000018,-5.112766637712243
-0.16870000000000007,-5.163696244507384
-0.16970000000000018,-5.21321114000266
-0.17070000000000007,-5.2386759434002315
-0.17170000000000019,-5.242920077299826
-0.17270000000000008,-5.2655554580976665
-0.1737000000000002,-5.320729198792402
-0.17470000000000008,-5.373073516887409
-0.1757000000000002,-5.399953031584845
-0.17670000000000008,-5.421173701082821
-0.1777000000000002,-5.463615040078771
-0.17870000000000008,-5.513129935574048
-0.1797000000000002,-5.572547810168379
-0.18070000000000008,-5.612159726564601
-0.1817000000000002,-5.641868663861766
-0.18270000000000008,-5.687139425457448
-0.1837000000000002,-5.733824898352994
-0.1847000000000001,-5.793242772947325
-0.1857000000000002,-5.82578113284422
-0.1867000000000001,-5.851245936241792
-0.1877000000000002,-5.919152078635313
-0.1887000000000001,-5.978569953229646
-0.1897000000000002,-6.045061384323302
-0.1907000000000001,-6.101649836317904
-0.1917000000000001,-6.128529351015339
-0.19269999999999998,-6.1907766482094
-0.1937000000000001,-6.268585769701978
-0.19469999999999998,-6.3407360459950945
-0.1957000000000001,-6.393080364090101
-0.19669999999999999,-6.441180548285512
-0.1977000000000001,-6.499183711579978
-0.1987,-6.591139946071206
-0.1997000000000001,-6.664704933664188
-0.2007,-6.729781653457979
-0.2017000000000001,-6.780711260253121
-0.2027,-6.851446825246373
-0.2037000000000001,-6.950476616236925
-0.2047,-7.039603428128422
-0.2057000000000001,-7.101850725322484
-0.2067,-7.174001001615601
-0.2077000000000001,-7.241907144009123
-0.2087,-7.340936934999675
-0.2097000000000001,-7.454113838988878
-0.2107,-7.53050824918159
-0.2117000000000001,-7.611146793273897
-0.2127,-7.703103027765124
-0.2137000000000001,-7.814865220454463
-0.2147,-7.935115680942991
-0.2157000000000001,-8.045463162332464
-0.2167,-8.110539882126256
-0.21770000000000012,-8.208154961816943
-0.2187,-8.329820133605336
-0.21970000000000012,-8.448655882793998
-0.2207,-8.549100385084417
-0.22170000000000012,-8.63398306307632
-0.2227,-8.751404100965116
-0.22370000000000012,-8.880142829252835
-0.2247,-9.008881557540553
-0.22570000000000012,-9.116399616330296
-0.2267,-9.21259998472112
-0.22770000000000012,-9.342753424308702
-0.22870000000000001,-9.49129811079453
-0.22970000000000013,-9.641257508580225
-0.23070000000000002,-9.79404632896565
-0.23170000000000013,-9.902979099055257
-0.23270000000000002,-10.044450229041761
-0.23370000000000013,-10.197239049427184
-0.23470000000000002,-10.3585161376118
-0.23570000000000013,-10.492913711098977
-0.23670000000000002,-10.62872599588602
-0.2376999999999999,-10.770197125872524
-0.23870000000000002,-10.964012573954035
-0.2396999999999999,-11.126704373438514
-0.24070000000000003,-11.271004926024748
-0.24169999999999991,-11.42379374641017
-0.24270000000000003,-11.593559102393977
-0.24369999999999992,-11.787374550475485
-0.24470000000000003,-11.972701730757805
-0.24569999999999992,-12.119831705943769
-0.24670000000000003,-12.275449948928925
-0.24769999999999992,-12.449459438812323
-0.24870000000000003,-12.674398535490864
-0.24969999999999992,-12.86679927227251
-0.25070000000000003,-13.030905783056852
-0.2516999999999999,-13.211988829439576
-0.25270000000000004,-13.432683792218524
-0.2536999999999999,-13.66469644539639
-0.25470000000000004,-13.881147274275738
-0.2556999999999999,-14.079206856256844
-0.25670000000000004,-14.288584128636872
-0.25769999999999993,-14.500790823616628
-0.25870000000000004,-14.727144631595033
-0.25969999999999993,-14.967645552572087
-0.26070000000000004,-15.179852247551842
-0.26169999999999993,-15.3920589425316
-0.26270000000000004,-15.646706976507305
-0.26369999999999993,-15.901355010483012
-0.26470000000000005,-16.170150157457368
-0.26569999999999994,-16.368209739438473
-0.26670000000000005,-16.60871066041553
-0.26769999999999994,-16.849211581392588
-0.26870000000000005,-17.118006728366943
-0.26969999999999994,-17.37265476234265
-0.27070000000000005,-17.641449909317007
-0.27169999999999994,-17.896097943292716
-0.27270000000000005,-18.19318731626437
-0.27369999999999994,-18.49027668923603
-0.27470000000000006,-18.78736606220769
-0.27569999999999995,-19.056161209182044
-0.27670000000000006,-19.339103469155052
-0.27769999999999995,-19.622045729128057
-0.27870000000000006,-19.947429328097016
-0.27969999999999995,-20.25866581406732
-0.28070000000000006,-20.555755187038983
-0.28169999999999995,-20.85284456001064
-0.28270000000000006,-21.1782281589796
-0.28369999999999995,-21.61678866193776
-0.28470000000000006,-21.98461359990267
-0.28569999999999995,-22.267555859875678
-0.28670000000000007,-22.564645232847337
-0.28769999999999996,-22.890028831816295
-0.28870000000000007,-23.272000882779853
-0.28969999999999996,-23.639825820744765
-0.29070000000000007,-24.00765075870967
-0.29169999999999996,-24.31888724467998
-0.29270000000000007,-24.70085929564354
-0.29369999999999996,-25.0828313466071
-0.2947000000000001,-25.478950510569312
-0.29569999999999996,-25.832628335535567
-0.2967000000000001,-26.18630616050183
-0.29769999999999996,-26.55413109846674
-0.2987000000000001,-26.97854448842625
-0.29969999999999997,-27.36051653938981
-0.3007000000000001,-27.742488590353368
-0.30169999999999997,-28.11031352831828
-0.3027000000000001,-28.56302114427509
-0.30369999999999997,-28.944993195238652
-0.3047000000000001,-29.38355369819681
-0.30569999999999997,-29.779672862159025
-0.3067000000000001,-30.147497800123933
-0.3077,-30.600205416080744
-0.3087000000000001,-31.08120725803486
-0.3097,-31.505620647994366
-0.3107000000000001,-31.915886924955227
-0.3117,-32.368594540912035
-0.3127000000000001,-32.8637434958648
-0.3137,-33.316451111821614
-0.3147000000000001,-33.726717388782475
-0.3157,-34.207719230736586
-0.3167000000000001,-34.67457395969205
-0.3177,-35.183870027643465
-0.3187000000000001,-35.693166095594876
-0.3197,-36.20246216354629
-0.3207000000000001,-36.69761111849905
-0.3217,-37.221054299449115
-0.3227000000000001,-37.687909028404576
-0.3237,-38.16891087035869
-0.3247000000000001,-38.791383842299304
-0.3257,-39.30067991025072
-0.3267000000000001,-39.76753463920618
-0.3277,-40.29097782015624
-0.3287000000000001,-40.828568114104954
-0.3297,-41.40859974704962
-0.3307000000000001,-41.91789581500104
-0.3317,-42.4413389959511
-0.3327000000000001,-43.007223515897124
-0.3337,-43.60140226184043
-0.3347000000000001,-44.138992555789144
-0.3357,-44.690729962736505
-0.3367000000000001,-45.25661448268253
-0.3377,-45.86494034162449
-0.3387000000000001,-46.43082486157051
-0.3397,-46.99670938151652
-0.3407000000000001,-47.54844678846388
-0.3417,-48.114331308409895
-0.3427000000000001,-48.70851005435321
-0.3437,-49.34513013929248
-0.3447000000000001,-50.010044450229046
-0.3457,-50.56178185717641
-0.3467000000000001,-51.09937215112513
-0.3477,-51.73599223606439
-0.3487000000000001,-52.45749499899556
-0.3497,-53.10826219693348
-0.3507000000000001,-53.67414671687949
-0.3517,-54.324913914817415
-0.3527000000000001,-54.961533999756675
-0.3537,-55.6688896496892
-0.3547000000000001,-56.30550973462846
-0.3557,-56.89968848057178
-0.35670000000000013,-57.50801433951374
-0.3577,-58.14463442445301
-0.35870000000000013,-58.79540162239092
-0.3597,-59.53105149832074
-0.36070000000000013,-60.224260035254616
-0.3617,-60.818438781197926
-0.3626999999999999,-61.5682357701264
-0.3637,-62.24729719406162
-0.3646999999999999,-62.95465284399414
-0.3657,-63.61956715493069
-0.3666999999999999,-64.63815929083353
-0.3677,-65.38795627976201
-0.3686999999999999,-65.9255465737107
-0.36970000000000003,-66.71778490163513
-0.3706999999999999,-67.19878674358924
-0.37170000000000003,-67.90614239352176
-0.3726999999999999,-68.72667494744348
-0.37370000000000003,-69.39158925838004
-0.3746999999999999,-70.21212181230177
-0.37570000000000003,-70.96191880123024
-0.3766999999999999,-71.76830424215332
-0.37770000000000004,-72.51810123108179
-0.3786999999999999,-73.3669280110008
-0.37970000000000004,-74.08843077393198
-0.3806999999999999,-74.86652198885774
-0.38170000000000004,-75.51728918679565
-0.38269999999999993,-76.32367462771872
-0.38370000000000004,-77.03103027765125
-0.38469999999999993,-77.83741571857432
-0.38570000000000004,-78.58721270750279
-0.38669999999999993,-78.09206375255003
-0.38570000000000004,-76.74808801767824
-0.38469999999999993,-75.63046609078486
-0.38370000000000004,-74.49869705089283
-0.38269999999999993,-73.40936934999675
-0.38170000000000004,-72.47565989208583
-0.3806999999999999,-71.42877353018571
-0.37970000000000004,-70.52335829827209
-0.3786999999999999,-69.6886786313517
-0.37770000000000004,-68.82570473843404
-0.3766999999999999,-68.01931929751096
-0.37570000000000003,-67.39684632557035
-0.3746999999999999,-66.57631377164863
-0.37370000000000003,-65.670898539735
-0.3726999999999999,-64.66645351683083
-0.37170000000000003,-63.74689117191855
-0.3706999999999999,-62.99709418299008
-0.36970000000000003,-62.19070874206701
-0.3686999999999999,-61.35602907514664
-0.3677,-60.50720229522762
-0.3666999999999999,-59.6583755153086
-0.3657,-58.965166978374725
-0.3646999999999999,-58.21536998944626
-0.3637,-57.423131661521836
-0.3626999999999999,-56.58845199460147
-0.3617,-55.79621366667705
-0.36070000000000013,-55.003975338752625
-0.3597,-54.2966196888201
-0.35870000000000013,-53.67414671687949
-0.3577,-52.938496840949675
-0.35670000000000013,-52.16040562602391
-0.3557,-51.38231441109813
-0.3547000000000001,-50.71740010016157
-0.3537,-50.052485789224995
-0.3527000000000001,-49.34513013929248
-0.3517,-48.59533315036401
-0.3507000000000001,-47.91627172642879
-0.3497,-47.29379875448818
-0.3487000000000001,-46.586443104555656
-0.3477,-45.87908745462314
-0.3467000000000001,-45.157584691691966
-0.3457,-44.4643761547581
-0.3447000000000001,-43.71457916582963
-0.3437,-43.04966485489307
-0.3427000000000001,-42.3564563179592
-0.3417,-41.74813045901723
-0.3407000000000001,-41.23883439106582
-0.3397,-40.729538323114404
-0.3387000000000001,-40.10706535117379
-0.3377,-39.51288660523048
-0.3367000000000001,-38.83382518129526
-0.3357,-38.253793548350586
-0.3347000000000001,-37.645467689408626
-0.3337,-37.02299471746801
-0.3327000000000001,-36.4288159715247
-0.3317,-35.82049011258273
-0.3307000000000001,-35.226311366639415
-0.3297,-34.702868185689354
-0.3287000000000001,-34.15113077874198
-0.3277,-33.59939337179462
-0.3267000000000001,-33.04765596484726
-0.3257,-32.48177144490124
-0.3247000000000001,-31.901739811956578
-0.3237,-31.335855292010564
-0.3227000000000001,-30.769970772064546
-0.3217,-30.21823336511718
-0.3207000000000001,-29.694790184167122
-0.3197,-29.18549411621571
-0.3187000000000001,-28.662050935265643
-0.3177,-28.15275486731423
-0.3167000000000001,-27.65760591236147
-0.3157,-27.162456957408708
-0.3147000000000001,-26.681455115454593
-0.3137,-26.15801193450453
-0.3127000000000001,-25.648715866553115
-0.3117,-25.18186113759765
-0.3107000000000001,-24.71500640864219
-0.3097,-24.27644590568403
-0.3087000000000001,-23.823738289727217
-0.3077,-23.342736447773106
-0.3067000000000001,-22.946617283810895
-0.30569999999999997,-22.493909667854084
-0.3047000000000001,-22.027054938898623
-0.30369999999999997,-21.560200209943158
-0.3027000000000001,-21.107492593986347
-0.30169999999999997,-20.668932091028186
-0.3007000000000001,-20.25866581406732
-0.29969999999999997,-19.848399537106463
-0.2987000000000001,-19.409839034148305
-0.29769999999999996,-18.985425644188794
-0.2967000000000001,-18.561012254229283
-0.29569999999999996,-18.164893090267068
-0.2947000000000001,-17.782921039303513
-0.29369999999999996,-17.37265476234265
-0.29270000000000007,-16.962388485381787
-0.29169999999999996,-16.56626932141958
-0.29070000000000007,-16.19844438345467
-0.28969999999999996,-15.844766558488407
-0.28870000000000007,-15.462794507524851
-0.28769999999999996,-15.05252823056399
-0.28670000000000007,-14.67055617960043
-0.28569999999999995,-14.359319693630123
-0.28470000000000006,-14.019788981662511
-0.28369999999999995,-13.65903760019693
-0.28270000000000006,-13.284139105732693
-0.28169999999999995,-12.936120125965894
-0.28070000000000006,-12.609321815697072
-0.27969999999999995,-12.282523505428248
-0.27870000000000006,-11.947236927360233
-0.27769999999999995,-11.603462081493031
-0.27670000000000006,-11.268175503425017
-0.27569999999999995,-10.947036038355654
-0.27470000000000006,-10.658434933183187
-0.27369999999999994,-10.333051334214227
-0.27270000000000005,-10.010497157845
-0.27169999999999994,-9.703504805774287
-0.27070000000000005,-9.417733123201549
-0.26969999999999994,-9.11498490503043
-0.26870000000000005,-8.830627933757558
-0.26769999999999994,-8.50241491218887
-0.26670000000000005,-8.203910827917348
-0.26569999999999994,-7.947848082641776
-0.26470000000000005,-7.69885889386553
