Apr. 22, 2025   00:07:03
Cyclic Voltammetry
File: c:/users/guazh/data/banditlqround7_x0exp590_r20/2025-04-16-exp1151\exp1151-2025-04-21t23_54_46-arkoh\exp1151_cv_50mvs_efin_-1600mv.bin
Data Source:  Experiment
Instrument Model:  CHI760E
Header: CV ran at 50 mVs
Note: 

Init E (V) = -1
High E (V) = -1
Low E (V) = -1.6
Final E (V) = -1
Init P/N = N
Scan Rate (V/s) = 0.05
Segment = 7
Sample Interval (V) = 0.001
Quiet Time (sec) = 60
Sensitivity (A/V) = 0.001
Comp R (ohm) = 1.3

Results:

Channel 1:
Segment 1:

Segment 2:

Segment 3:

Segment 4:

Segment 5:

Segment 6:

Segment 7:

Potential/V, Current/A

-1.000, 2.016e-5
-1.001, 4.172e-5
-1.002, 4.650e-5
-1.003, 4.088e-5
-1.004, 3.464e-5
-1.005, 3.675e-5
-1.006, 4.509e-5
-1.007, 4.895e-5
-1.008, 4.277e-5
-1.009, 3.597e-5
-1.010, 3.828e-5
-1.011, 4.623e-5
-1.012, 4.985e-5
-1.013, 4.365e-5
-1.014, 3.670e-5
-1.015, 3.910e-5
-1.016, 4.704e-5
-1.017, 5.026e-5
-1.018, 4.428e-5
-1.019, 3.736e-5
-1.020, 3.942e-5
-1.021, 4.764e-5
-1.022, 5.070e-5
-1.023, 4.477e-5
-1.024, 3.789e-5
-1.025, 3.964e-5
-1.026, 4.819e-5
-1.027, 5.088e-5
-1.028, 4.488e-5
-1.029, 3.795e-5
-1.030, 3.988e-5
-1.031, 4.867e-5
-1.032, 5.103e-5
-1.033, 4.507e-5
-1.034, 3.831e-5
-1.035, 4.029e-5
-1.036, 4.868e-5
-1.037, 5.154e-5
-1.038, 4.501e-5
-1.039, 3.860e-5
-1.040, 4.040e-5
-1.041, 4.886e-5
-1.042, 5.183e-5
-1.043, 4.522e-5
-1.044, 3.867e-5
-1.045, 4.072e-5
-1.046, 4.899e-5
-1.047, 5.200e-5
-1.048, 4.550e-5
-1.049, 3.874e-5
-1.050, 4.126e-5
-1.051, 4.907e-5
-1.052, 5.228e-5
-1.053, 4.560e-5
-1.054, 3.881e-5
-1.055, 4.147e-5
-1.056, 4.930e-5
-1.057, 5.222e-5
-1.058, 4.607e-5
-1.059, 3.900e-5
-1.060, 4.161e-5
-1.061, 4.974e-5
-1.062, 5.241e-5
-1.063, 4.631e-5
-1.064, 3.914e-5
-1.065, 4.153e-5
-1.066, 5.012e-5
-1.067, 5.257e-5
-1.068, 4.644e-5
-1.069, 3.941e-5
-1.070, 4.200e-5
-1.071, 5.054e-5
-1.072, 5.263e-5
-1.073, 4.664e-5
-1.074, 3.992e-5
-1.075, 4.265e-5
-1.076, 5.057e-5
-1.077, 5.297e-5
-1.078, 4.666e-5
-1.079, 4.034e-5
-1.080, 4.235e-5
-1.081, 5.074e-5
-1.082, 5.361e-5
-1.083, 4.679e-5
-1.084, 4.060e-5
-1.085, 4.274e-5
-1.086, 5.108e-5
-1.087, 5.387e-5
-1.088, 4.711e-5
-1.089, 4.065e-5
-1.090, 4.323e-5
-1.091, 5.136e-5
-1.092, 5.423e-5
-1.093, 4.746e-5
-1.094, 4.090e-5
-1.095, 4.374e-5
-1.096, 5.185e-5
-1.097, 5.420e-5
-1.098, 4.807e-5
-1.099, 4.131e-5
-1.100, 4.398e-5
-1.101, 5.231e-5
-1.102, 5.466e-5
-1.103, 4.843e-5
-1.104, 4.161e-5
-1.105, 4.430e-5
-1.106, 5.277e-5
-1.107, 5.512e-5
-1.108, 4.870e-5
-1.109, 4.210e-5
-1.110, 4.464e-5
-1.111, 5.335e-5
-1.112, 5.563e-5
-1.113, 4.902e-5
-1.114, 4.262e-5
-1.115, 4.513e-5
-1.116, 5.382e-5
-1.117, 5.595e-5
-1.118, 4.939e-5
-1.119, 4.324e-5
-1.120, 4.570e-5
-1.121, 5.409e-5
-1.122, 5.662e-5
-1.123, 4.987e-5
-1.124, 4.385e-5
-1.125, 4.620e-5
-1.126, 5.474e-5
-1.127, 5.726e-5
-1.128, 5.031e-5
-1.129, 4.396e-5
-1.130, 4.704e-5
-1.131, 5.513e-5
-1.132, 5.776e-5
-1.133, 5.109e-5
-1.134, 4.457e-5
-1.135, 4.757e-5
-1.136, 5.593e-5
-1.137, 5.798e-5
-1.138, 5.164e-5
-1.139, 4.513e-5
-1.140, 4.832e-5
-1.141, 5.654e-5
-1.142, 5.867e-5
-1.143, 5.253e-5
-1.144, 4.577e-5
-1.145, 4.869e-5
-1.146, 5.721e-5
-1.147, 5.929e-5
-1.148, 5.288e-5
-1.149, 4.649e-5
-1.150, 4.946e-5
-1.151, 5.815e-5
-1.152, 5.996e-5
-1.153, 5.329e-5
-1.154, 4.735e-5
-1.155, 5.013e-5
-1.156, 5.873e-5
-1.157, 6.073e-5
-1.158, 5.401e-5
-1.159, 4.814e-5
-1.160, 5.069e-5
-1.161, 5.928e-5
-1.162, 6.145e-5
-1.163, 5.464e-5
-1.164, 4.857e-5
-1.165, 5.178e-5
-1.166, 5.997e-5
-1.167, 6.223e-5
-1.168, 5.520e-5
-1.169, 4.903e-5
-1.170, 5.261e-5
-1.171, 6.056e-5
-1.172, 6.292e-5
-1.173, 5.609e-5
-1.174, 5.000e-5
-1.175, 5.322e-5
-1.176, 6.142e-5
-1.177, 6.368e-5
-1.178, 5.701e-5
-1.179, 5.054e-5
-1.180, 5.394e-5
-1.181, 6.212e-5
-1.182, 6.408e-5
-1.183, 5.764e-5
-1.184, 5.127e-5
-1.185, 5.457e-5
-1.186, 6.312e-5
-1.187, 6.482e-5
-1.188, 5.824e-5
-1.189, 5.211e-5
-1.190, 5.525e-5
-1.191, 6.400e-5
-1.192, 6.553e-5
-1.193, 5.876e-5
-1.194, 5.297e-5
-1.195, 5.590e-5
-1.196, 6.478e-5
-1.197, 6.635e-5
-1.198, 5.956e-5
-1.199, 5.371e-5
-1.200, 5.685e-5
-1.201, 6.544e-5
-1.202, 6.735e-5
-1.203, 6.049e-5
-1.204, 5.459e-5
-1.205, 5.792e-5
-1.206, 6.636e-5
-1.207, 6.848e-5
-1.208, 6.105e-5
-1.209, 5.544e-5
-1.210, 5.901e-5
-1.211, 6.747e-5
-1.212, 6.935e-5
-1.213, 6.231e-5
-1.214, 5.653e-5
-1.215, 6.031e-5
-1.216, 6.857e-5
-1.217, 7.036e-5
-1.218, 6.374e-5
-1.219, 5.775e-5
-1.220, 6.149e-5
-1.221, 7.006e-5
-1.222, 7.167e-5
-1.223, 6.524e-5
-1.224, 5.906e-5
-1.225, 6.296e-5
-1.226, 7.163e-5
-1.227, 7.346e-5
-1.228, 6.708e-5
-1.229, 6.172e-5
-1.230, 6.483e-5
-1.231, 7.369e-5
-1.232, 7.531e-5
-1.233, 6.846e-5
-1.234, 6.312e-5
-1.235, 6.679e-5
-1.236, 7.593e-5
-1.237, 7.752e-5
-1.238, 7.085e-5
-1.239, 6.554e-5
-1.240, 6.913e-5
-1.241, 7.815e-5
-1.242, 8.043e-5
-1.243, 7.347e-5
-1.244, 6.823e-5
-1.245, 7.228e-5
-1.246, 8.117e-5
-1.247, 8.345e-5
-1.248, 7.642e-5
-1.249, 7.136e-5
-1.250, 7.605e-5
-1.251, 8.430e-5
-1.252, 8.692e-5
-1.253, 8.025e-5
-1.254, 7.540e-5
-1.255, 8.001e-5
-1.256, 8.876e-5
-1.257, 9.114e-5
-1.258, 8.494e-5
-1.259, 7.949e-5
-1.260, 8.456e-5
-1.261, 9.356e-5
-1.262, 9.595e-5
-1.263, 9.000e-5
-1.264, 8.499e-5
-1.265, 8.982e-5
-1.266, 9.929e-5
-1.267, 1.017e-4
-1.268, 9.570e-5
-1.269, 9.103e-5
-1.270, 9.601e-5
-1.271, 1.060e-4
-1.272, 1.081e-4
-1.273, 1.023e-4
-1.274, 9.835e-5
-1.275, 1.034e-4
-1.276, 1.133e-4
-1.277, 1.158e-4
-1.278, 1.103e-4
-1.279, 1.066e-4
-1.280, 1.122e-4
-1.281, 1.219e-4
-1.282, 1.249e-4
-1.283, 1.195e-4
-1.284, 1.159e-4
-1.285, 1.214e-4
-1.286, 1.315e-4
-1.287, 1.352e-4
-1.288, 1.297e-4
-1.289, 1.265e-4
-1.290, 1.325e-4
-1.291, 1.428e-4
-1.292, 1.469e-4
-1.293, 1.416e-4
-1.294, 1.384e-4
-1.295, 1.450e-4
-1.296, 1.557e-4
-1.297, 1.594e-4
-1.298, 1.553e-4
-1.299, 1.524e-4
-1.300, 1.592e-4
-1.301, 1.705e-4
-1.302, 1.743e-4
-1.303, 1.705e-4
-1.304, 1.679e-4
-1.305, 1.752e-4
-1.306, 1.868e-4
-1.307, 1.912e-4
-1.308, 1.876e-4
-1.309, 1.854e-4
-1.310, 1.930e-4
-1.311, 2.052e-4
-1.312, 2.099e-4
-1.313, 2.066e-4
-1.314, 2.054e-4
-1.315, 2.129e-4
-1.316, 2.257e-4
-1.317, 2.306e-4
-1.318, 2.278e-4
-1.319, 2.271e-4
-1.320, 2.353e-4
-1.321, 2.483e-4
-1.322, 2.542e-4
-1.323, 2.514e-4
-1.324, 2.511e-4
-1.325, 2.601e-4
-1.326, 2.737e-4
-1.327, 2.806e-4
-1.328, 2.783e-4
-1.329, 2.784e-4
-1.330, 2.884e-4
-1.331, 3.025e-4
-1.332, 3.097e-4
-1.333, 3.086e-4
-1.334, 3.097e-4
-1.335, 3.205e-4
-1.336, 3.351e-4
-1.337, 3.431e-4
-1.338, 3.430e-4
-1.339, 3.448e-4
-1.340, 3.567e-4
-1.341, 3.725e-4
-1.342, 3.815e-4
-1.343, 3.825e-4
-1.344, 3.851e-4
-1.345, 3.978e-4
-1.346, 4.142e-4
-1.347, 4.236e-4
-1.348, 4.258e-4
-1.349, 4.300e-4
-1.350, 4.434e-4
-1.351, 4.616e-4
-1.352, 4.724e-4
-1.353, 4.756e-4
-1.354, 4.806e-4
-1.355, 4.951e-4
-1.356, 5.143e-4
-1.357, 5.264e-4
-1.358, 5.306e-4
-1.359, 5.372e-4
-1.360, 5.537e-4
-1.361, 5.732e-4
-1.362, 5.871e-4
-1.363, 5.919e-4
-1.364, 5.996e-4
-1.365, 6.170e-4
-1.366, 6.386e-4
-1.367, 6.529e-4
-1.368, 6.599e-4
-1.369, 6.692e-4
-1.370, 6.879e-4
-1.371, 7.104e-4
-1.372, 7.267e-4
-1.373, 7.343e-4
-1.374, 7.447e-4
-1.375, 7.648e-4
-1.376, 7.890e-4
-1.377, 8.072e-4
-1.378, 8.169e-4
-1.379, 8.283e-4
-1.380, 8.501e-4
-1.381, 8.769e-4
-1.382, 8.951e-4
-1.383, 9.059e-4
-1.384, 9.194e-4
-1.385, 9.430e-4
-1.386, 9.703e-4
-1.387, 9.903e-4
-1.388, 1.002e-3
-1.389, 1.016e-3
-1.390, 1.042e-3
-1.391, 1.071e-3
-1.392, 1.092e-3
-1.393, 1.106e-3
-1.394, 1.123e-3
-1.395, 1.149e-3
-1.396, 1.178e-3
-1.397, 1.201e-3
-1.398, 1.217e-3
-1.399, 1.235e-3
-1.400, 1.262e-3
-1.401, 1.293e-3
-1.402, 1.319e-3
-1.403, 1.336e-3
-1.404, 1.356e-3
-1.405, 1.384e-3
-1.406, 1.417e-3
-1.407, 1.441e-3
-1.408, 1.459e-3
-1.409, 1.478e-3
-1.410, 1.509e-3
-1.411, 1.544e-3
-1.412, 1.572e-3
-1.413, 1.590e-3
-1.414, 1.613e-3
-1.415, 1.645e-3
-1.416, 1.680e-3
-1.417, 1.710e-3
-1.418, 1.731e-3
-1.419, 1.754e-3
-1.420, 1.787e-3
-1.421, 1.824e-3
-1.422, 1.854e-3
-1.423, 1.876e-3
-1.424, 1.900e-3
-1.425, 1.934e-3
-1.426, 1.974e-3
-1.427, 2.007e-3
-1.428, 2.032e-3
-1.429, 2.058e-3
-1.430, 2.091e-3
-1.431, 2.131e-3
-1.432, 2.166e-3
-1.433, 2.195e-3
-1.434, 2.222e-3
-1.435, 2.259e-3
-1.436, 2.300e-3
-1.437, 2.333e-3
-1.438, 2.360e-3
-1.439, 2.390e-3
-1.440, 2.431e-3
-1.441, 2.474e-3
-1.442, 2.510e-3
-1.443, 2.539e-3
-1.444, 2.572e-3
-1.445, 2.611e-3
-1.446, 2.655e-3
-1.447, 2.691e-3
-1.448, 2.720e-3
-1.449, 2.753e-3
-1.450, 2.798e-3
-1.451, 2.847e-3
-1.452, 2.889e-3
-1.453, 2.921e-3
-1.454, 2.951e-3
-1.455, 2.994e-3
-1.456, 3.041e-3
-1.457, 3.077e-3
-1.458, 3.111e-3
-1.459, 3.151e-3
-1.460, 3.200e-3
-1.461, 3.251e-3
-1.462, 3.295e-3
-1.463, 3.329e-3
-1.464, 3.363e-3
-1.465, 3.410e-3
-1.466, 3.461e-3
-1.467, 3.503e-3
-1.468, 3.541e-3
-1.469, 3.579e-3
-1.470, 3.628e-3
-1.471, 3.683e-3
-1.472, 3.729e-3
-1.473, 3.766e-3
-1.474, 3.804e-3
-1.475, 3.856e-3
-1.476, 3.911e-3
-1.477, 3.965e-3
-1.478, 4.011e-3
-1.479, 4.053e-3
-1.480, 4.099e-3
-1.481, 4.153e-3
-1.482, 4.202e-3
-1.483, 4.243e-3
-1.484, 4.291e-3
-1.485, 4.344e-3
-1.486, 4.415e-3
-1.487, 4.471e-3
-1.488, 4.512e-3
-1.489, 4.560e-3
-1.490, 4.620e-3
-1.491, 4.688e-3
-1.492, 4.736e-3
-1.493, 4.777e-3
-1.494, 4.824e-3
-1.495, 4.883e-3
-1.496, 4.938e-3
-1.497, 4.985e-3
-1.498, 5.030e-3
-1.499, 5.079e-3
-1.500, 5.137e-3
-1.501, 5.201e-3
-1.502, 5.260e-3
-1.503, 5.307e-3
-1.504, 5.361e-3
-1.505, 5.419e-3
-1.506, 5.488e-3
-1.507, 5.551e-3
-1.508, 5.603e-3
-1.509, 5.654e-3
-1.510, 5.715e-3
-1.511, 5.777e-3
-1.512, 5.849e-3
-1.513, 5.898e-3
-1.514, 5.945e-3
-1.515, 6.008e-3
-1.516, 6.074e-3
-1.517, 6.132e-3
-1.518, 6.213e-3
-1.519, 6.278e-3
-1.520, 6.348e-3
-1.521, 6.429e-3
-1.522, 6.502e-3
-1.523, 6.539e-3
-1.524, 6.584e-3
-1.525, 6.642e-3
-1.526, 6.717e-3
-1.527, 6.783e-3
-1.528, 6.845e-3
-1.529, 6.906e-3
-1.530, 6.982e-3
-1.531, 7.050e-3
-1.532, 7.120e-3
-1.533, 7.168e-3
-1.534, 7.235e-3
-1.535, 7.295e-3
-1.536, 7.358e-3
-1.537, 7.428e-3
-1.538, 7.507e-3
-1.539, 7.560e-3
-1.540, 7.627e-3
-1.541, 7.708e-3
-1.542, 7.782e-3
-1.543, 7.838e-3
-1.544, 7.916e-3
-1.545, 7.983e-3
-1.546, 8.042e-3
-1.547, 8.103e-3
-1.548, 8.147e-3
-1.549, 8.200e-3
-1.550, 8.266e-3
-1.551, 8.347e-3
-1.552, 8.430e-3
-1.553, 8.517e-3
-1.554, 8.615e-3
-1.555, 8.655e-3
-1.556, 8.707e-3
-1.557, 8.756e-3
-1.558, 8.826e-3
-1.559, 8.903e-3
-1.560, 8.972e-3
-1.561, 9.054e-3
-1.562, 9.125e-3
-1.563, 9.183e-3
-1.564, 9.241e-3
-1.565, 9.296e-3
-1.566, 9.355e-3
-1.567, 9.416e-3
-1.568, 9.472e-3
-1.569, 9.563e-3
-1.570, 9.653e-3
-1.571, 9.718e-3
-1.572, 9.779e-3
-1.573, 9.852e-3
-1.574, 9.896e-3
-1.575, 9.946e-3
-1.576, 1.001e-2
-1.577, 1.005e-2
-1.578, 1.007e-2
-1.579, 1.010e-2
-1.580, 1.011e-2
-1.581, 1.011e-2
-1.582, 1.011e-2
-1.583, 1.011e-2
-1.584, 1.011e-2
-1.585, 1.011e-2
-1.586, 1.011e-2
-1.587, 1.011e-2
-1.588, 1.011e-2
-1.589, 1.011e-2
-1.590, 1.011e-2
-1.591, 1.011e-2
-1.592, 1.011e-2
-1.593, 1.011e-2
-1.594, 1.011e-2
-1.595, 1.011e-2
-1.596, 1.011e-2
-1.597, 1.011e-2
-1.598, 1.011e-2
-1.599, 1.011e-2
-1.600, 1.011e-2
-1.599, 1.011e-2
-1.598, 1.011e-2
-1.597, 1.011e-2
-1.596, 1.011e-2
-1.595, 1.011e-2
-1.594, 1.011e-2
-1.593, 1.011e-2
-1.592, 1.011e-2
-1.591, 1.011e-2
-1.590, 1.011e-2
-1.589, 1.011e-2
-1.588, 1.011e-2
-1.587, 1.011e-2
-1.586, 1.011e-2
-1.585, 1.011e-2
-1.584, 1.010e-2
-1.583, 1.004e-2
-1.582, 9.957e-3
-1.581, 9.904e-3
-1.580, 9.816e-3
-1.579, 9.752e-3
-1.578, 9.686e-3
-1.577, 9.634e-3
-1.576, 9.556e-3
-1.575, 9.451e-3
-1.574, 9.406e-3
-1.573, 9.351e-3
-1.572, 9.249e-3
-1.571, 9.157e-3
-1.570, 9.093e-3
-1.569, 8.987e-3
-1.568, 8.904e-3
-1.567, 8.809e-3
-1.566, 8.721e-3
-1.565, 8.635e-3
-1.564, 8.547e-3
-1.563, 8.463e-3
-1.562, 8.373e-3
-1.561, 8.297e-3
-1.560, 8.234e-3
-1.559, 8.160e-3
-1.558, 8.073e-3
-1.557, 7.997e-3
-1.556, 7.914e-3
-1.555, 7.833e-3
-1.554, 7.767e-3
-1.553, 7.715e-3
-1.552, 7.649e-3
-1.551, 7.562e-3
-1.550, 7.507e-3
-1.549, 7.442e-3
-1.548, 7.376e-3
-1.547, 7.298e-3
-1.546, 7.215e-3
-1.545, 7.128e-3
-1.544, 7.069e-3
-1.543, 7.005e-3
-1.542, 6.928e-3
-1.541, 6.864e-3
-1.540, 6.839e-3
-1.539, 6.828e-3
-1.538, 6.780e-3
-1.537, 6.710e-3
-1.536, 6.641e-3
-1.535, 6.566e-3
-1.534, 6.498e-3
-1.533, 6.416e-3
-1.532, 6.325e-3
-1.531, 6.240e-3
-1.530, 6.169e-3
-1.529, 6.104e-3
-1.528, 6.033e-3
-1.527, 5.955e-3
-1.526, 5.875e-3
-1.525, 5.800e-3
-1.524, 5.734e-3
-1.523, 5.659e-3
-1.522, 5.581e-3
-1.521, 5.514e-3
-1.520, 5.432e-3
-1.519, 5.371e-3
-1.518, 5.313e-3
-1.517, 5.233e-3
-1.516, 5.176e-3
-1.515, 5.130e-3
-1.514, 5.082e-3
-1.513, 5.021e-3
-1.512, 4.946e-3
-1.511, 4.878e-3
-1.510, 4.835e-3
-1.509, 4.772e-3
-1.508, 4.712e-3
-1.507, 4.641e-3
-1.506, 4.573e-3
-1.505, 4.510e-3
-1.504, 4.460e-3
-1.503, 4.394e-3
-1.502, 4.342e-3
-1.501, 4.290e-3
-1.500, 4.245e-3
-1.499, 4.202e-3
-1.498, 4.151e-3
-1.497, 4.092e-3
-1.496, 4.028e-3
-1.495, 3.971e-3
-1.494, 3.917e-3
-1.493, 3.864e-3
-1.492, 3.803e-3
-1.491, 3.742e-3
-1.490, 3.693e-3
-1.489, 3.647e-3
-1.488, 3.589e-3
-1.487, 3.525e-3
-1.486, 3.468e-3
-1.485, 3.419e-3
-1.484, 3.373e-3
-1.483, 3.323e-3
-1.482, 3.262e-3
-1.481, 3.211e-3
-1.480, 3.172e-3
-1.479, 3.126e-3
-1.478, 3.077e-3
-1.477, 3.026e-3
-1.476, 2.976e-3
-1.475, 2.930e-3
-1.474, 2.889e-3
-1.473, 2.841e-3
-1.472, 2.780e-3
-1.471, 2.735e-3
-1.470, 2.692e-3
-1.469, 2.659e-3
-1.468, 2.610e-3
-1.467, 2.565e-3
-1.466, 2.524e-3
-1.465, 2.500e-3
-1.464, 2.471e-3
-1.463, 2.432e-3
-1.462, 2.387e-3
-1.461, 2.342e-3
-1.460, 2.308e-3
-1.459, 2.277e-3
-1.458, 2.239e-3
-1.457, 2.192e-3
-1.456, 2.151e-3
-1.455, 2.117e-3
-1.454, 2.086e-3
-1.453, 2.048e-3
-1.452, 2.003e-3
-1.451, 1.960e-3
-1.450, 1.928e-3
-1.449, 1.897e-3
-1.448, 1.861e-3
-1.447, 1.819e-3
-1.446, 1.780e-3
-1.445, 1.752e-3
-1.444, 1.725e-3
-1.443, 1.690e-3
-1.442, 1.651e-3
-1.441, 1.614e-3
-1.440, 1.585e-3
-1.439, 1.559e-3
-1.438, 1.528e-3
-1.437, 1.493e-3
-1.436, 1.459e-3
-1.435, 1.432e-3
-1.434, 1.410e-3
-1.433, 1.383e-3
-1.432, 1.347e-3
-1.431, 1.314e-3
-1.430, 1.293e-3
-1.429, 1.272e-3
-1.428, 1.245e-3
-1.427, 1.212e-3
-1.426, 1.183e-3
-1.425, 1.161e-3
-1.424, 1.144e-3
-1.423, 1.119e-3
-1.422, 1.089e-3
-1.421, 1.062e-3
-1.420, 1.044e-3
-1.419, 1.029e-3
-1.418, 1.006e-3
-1.417, 9.770e-4
-1.416, 9.518e-4
-1.415, 9.352e-4
-1.414, 9.204e-4
-1.413, 9.002e-4
-1.412, 8.739e-4
-1.411, 8.500e-4
-1.410, 8.354e-4
-1.409, 8.241e-4
-1.408, 8.051e-4
-1.407, 7.800e-4
-1.406, 7.578e-4
-1.405, 7.453e-4
-1.404, 7.348e-4
-1.403, 7.175e-4
-1.402, 6.937e-4
-1.401, 6.736e-4
-1.400, 6.628e-4
-1.399, 6.537e-4
-1.398, 6.376e-4
-1.397, 6.163e-4
-1.396, 5.970e-4
-1.395, 5.872e-4
-1.394, 5.803e-4
-1.393, 5.649e-4
-1.392, 5.452e-4
-1.391, 5.278e-4
-1.390, 5.194e-4
-1.389, 5.137e-4
-1.388, 5.004e-4
-1.387, 4.811e-4
-1.386, 4.651e-4
-1.385, 4.578e-4
-1.384, 4.533e-4
-1.383, 4.409e-4
-1.382, 4.224e-4
-1.381, 4.082e-4
-1.380, 4.019e-4
-1.379, 3.981e-4
-1.378, 3.875e-4
-1.377, 3.702e-4
-1.376, 3.567e-4
-1.375, 3.520e-4
-1.374, 3.486e-4
-1.373, 3.394e-4
-1.372, 3.235e-4
-1.371, 3.110e-4
-1.370, 3.070e-4
-1.369, 3.049e-4
-1.368, 2.967e-4
-1.367, 2.818e-4
-1.366, 2.698e-4
-1.365, 2.671e-4
-1.364, 2.665e-4
-1.363, 2.583e-4
-1.362, 2.440e-4
-1.361, 2.329e-4
-1.360, 2.311e-4
-1.359, 2.312e-4
-1.358, 2.236e-4
-1.357, 2.101e-4
-1.356, 1.998e-4
-1.355, 1.984e-4
-1.354, 1.996e-4
-1.353, 1.925e-4
-1.352, 1.800e-4
-1.351, 1.706e-4
-1.350, 1.698e-4
-1.349, 1.716e-4
-1.348, 1.657e-4
-1.347, 1.529e-4
-1.346, 1.443e-4
-1.345, 1.440e-4
-1.344, 1.466e-4
-1.343, 1.411e-4
-1.342, 1.293e-4
-1.341, 1.211e-4
-1.340, 1.217e-4
-1.339, 1.242e-4
-1.338, 1.192e-4
-1.337, 1.077e-4
-1.336, 1.004e-4
-1.335, 1.013e-4
-1.334, 1.043e-4
-1.333, 9.998e-5
-1.332, 8.899e-5
-1.331, 8.163e-5
-1.330, 8.320e-5
-1.329, 8.663e-5
-1.328, 8.285e-5
-1.327, 7.222e-5
-1.326, 6.508e-5
-1.325, 6.710e-5
-1.324, 7.107e-5
-1.323, 6.722e-5
-1.322, 5.751e-5
-1.321, 5.048e-5
-1.320, 5.294e-5
-1.319, 5.751e-5
-1.318, 5.378e-5
-1.317, 4.401e-5
-1.316, 3.774e-5
-1.315, 4.038e-5
-1.314, 4.506e-5
-1.313, 4.168e-5
-1.312, 3.218e-5
-1.311, 2.620e-5
-1.310, 2.890e-5
-1.309, 3.413e-5
-1.308, 3.099e-5
-1.307, 2.168e-5
-1.306, 1.590e-5
-1.305, 1.901e-5
-1.304, 2.457e-5
-1.303, 2.181e-5
-1.302, 1.225e-5
-1.301, 6.968e-6
-1.300, 1.038e-5
-1.299, 1.568e-5
-1.298, 1.346e-5
-1.297, 4.195e-6
-1.296, -9.365e-7
-1.295, 2.648e-6
-1.294, 8.174e-6
-1.293, 6.068e-6
-1.292, -2.996e-6
-1.291, -8.267e-6
-1.290, -4.168e-6
-1.289, 1.185e-6
-1.288, -5.330e-7
-1.287, -9.391e-6
-1.286, -1.451e-5
-1.285, -1.008e-5
-1.284, -4.383e-6
-1.283, -6.408e-6
-1.282, -1.494e-5
-1.281, -2.019e-5
-1.280, -1.606e-5
-1.279, -9.659e-6
-1.278, -1.157e-5
-1.277, -1.994e-5
-1.276, -2.469e-5
-1.275, -2.067e-5
-1.274, -1.436e-5
-1.273, -1.621e-5
-1.272, -2.437e-5
-1.271, -2.904e-5
-1.270, -2.504e-5
-1.269, -1.811e-5
-1.268, -2.003e-5
-1.267, -2.844e-5
-1.266, -3.279e-5
-1.265, -2.868e-5
-1.264, -2.191e-5
-1.263, -2.362e-5
-1.262, -3.202e-5
-1.261, -3.620e-5
-1.260, -3.174e-5
-1.259, -2.536e-5
-1.258, -2.670e-5
-1.257, -3.510e-5
-1.256, -3.916e-5
-1.255, -3.473e-5
-1.254, -2.845e-5
-1.253, -2.962e-5
-1.252, -3.738e-5
-1.251, -4.205e-5
-1.250, -3.730e-5
-1.249, -3.093e-5
-1.248, -3.158e-5
-1.247, -3.994e-5
-1.246, -4.447e-5
-1.245, -3.963e-5
-1.244, -3.288e-5
-1.243, -3.430e-5
-1.242, -4.216e-5
-1.241, -4.676e-5
-1.240, -4.175e-5
-1.239, -3.483e-5
-1.238, -3.635e-5
-1.237, -4.389e-5
-1.236, -4.835e-5
-1.235, -4.379e-5
-1.234, -3.663e-5
-1.233, -3.811e-5
-1.232, -4.561e-5
-1.231, -4.998e-5
-1.230, -4.541e-5
-1.229, -3.941e-5
-1.228, -3.964e-5
-1.227, -4.756e-5
-1.226, -5.143e-5
-1.225, -4.700e-5
-1.224, -3.985e-5
-1.223, -4.094e-5
-1.222, -4.887e-5
-1.221, -5.266e-5
-1.220, -4.823e-5
-1.219, -4.131e-5
-1.218, -4.219e-5
-1.217, -5.026e-5
-1.216, -5.415e-5
-1.215, -4.902e-5
-1.214, -4.211e-5
-1.213, -4.333e-5
-1.212, -5.108e-5
-1.211, -5.545e-5
-1.210, -5.048e-5
-1.209, -4.357e-5
-1.208, -4.434e-5
-1.207, -5.215e-5
-1.206, -5.664e-5
-1.205, -5.135e-5
-1.204, -4.422e-5
-1.203, -4.547e-5
-1.202, -5.314e-5
-1.201, -5.742e-5
-1.200, -5.213e-5
-1.199, -4.525e-5
-1.198, -4.656e-5
-1.197, -5.394e-5
-1.196, -5.819e-5
-1.195, -5.338e-5
-1.194, -4.601e-5
-1.193, -4.745e-5
-1.192, -5.462e-5
-1.191, -5.890e-5
-1.190, -5.407e-5
-1.189, -4.666e-5
-1.188, -4.782e-5
-1.187, -5.564e-5
-1.186, -5.982e-5
-1.185, -5.508e-5
-1.184, -4.756e-5
-1.183, -4.860e-5
-1.182, -5.647e-5
-1.181, -6.034e-5
-1.180, -5.545e-5
-1.179, -4.842e-5
-1.178, -4.961e-5
-1.177, -5.743e-5
-1.176, -6.127e-5
-1.175, -5.623e-5
-1.174, -4.915e-5
-1.173, -4.985e-5
-1.172, -5.761e-5
-1.171, -6.225e-5
-1.170, -5.684e-5
-1.169, -4.995e-5
-1.168, -5.054e-5
-1.167, -5.824e-5
-1.166, -6.278e-5
-1.165, -5.751e-5
-1.164, -5.035e-5
-1.163, -5.145e-5
-1.162, -5.896e-5
-1.161, -6.343e-5
-1.160, -5.828e-5
-1.159, -5.122e-5
-1.158, -5.212e-5
-1.157, -5.961e-5
-1.156, -6.393e-5
-1.155, -5.902e-5
-1.154, -5.163e-5
-1.153, -5.276e-5
-1.152, -6.020e-5
-1.151, -6.458e-5
-1.150, -5.993e-5
-1.149, -5.216e-5
-1.148, -5.337e-5
-1.147, -6.122e-5
-1.146, -6.524e-5
-1.145, -6.054e-5
-1.144, -5.277e-5
-1.143, -5.384e-5
-1.142, -6.175e-5
-1.141, -6.569e-5
-1.140, -6.098e-5
-1.139, -5.370e-5
-1.138, -5.449e-5
-1.137, -6.251e-5
-1.136, -6.632e-5
-1.135, -6.178e-5
-1.134, -5.473e-5
-1.133, -5.491e-5
-1.132, -6.289e-5
-1.131, -6.739e-5
-1.130, -6.216e-5
-1.129, -5.541e-5
-1.128, -5.578e-5
-1.127, -6.353e-5
-1.126, -6.822e-5
-1.125, -6.299e-5
-1.124, -5.580e-5
-1.123, -5.650e-5
-1.122, -6.411e-5
-1.121, -6.882e-5
-1.120, -6.359e-5
-1.119, -5.649e-5
-1.118, -5.737e-5
-1.117, -6.475e-5
-1.116, -6.942e-5
-1.115, -6.435e-5
-1.114, -5.714e-5
-1.113, -5.801e-5
-1.112, -6.544e-5
-1.111, -6.984e-5
-1.110, -6.520e-5
-1.109, -5.769e-5
-1.108, -5.855e-5
-1.107, -6.629e-5
-1.106, -7.039e-5
-1.105, -6.598e-5
-1.104, -5.837e-5
-1.103, -5.909e-5
-1.102, -6.705e-5
-1.101, -7.121e-5
-1.100, -6.660e-5
-1.099, -5.929e-5
-1.098, -5.969e-5
-1.097, -6.763e-5
-1.096, -7.189e-5
-1.095, -6.705e-5
-1.094, -6.000e-5
-1.093, -6.043e-5
-1.092, -6.827e-5
-1.091, -7.288e-5
-1.090, -6.777e-5
-1.089, -6.078e-5
-1.088, -6.111e-5
-1.087, -6.886e-5
-1.086, -7.345e-5
-1.085, -6.846e-5
-1.084, -6.140e-5
-1.083, -6.202e-5
-1.082, -6.959e-5
-1.081, -7.443e-5
-1.080, -6.916e-5
-1.079, -6.213e-5
-1.078, -6.273e-5
-1.077, -7.021e-5
-1.076, -7.536e-5
-1.075, -7.073e-5
-1.074, -6.295e-5
-1.073, -6.368e-5
-1.072, -7.116e-5
-1.071, -7.605e-5
-1.070, -7.158e-5
-1.069, -6.408e-5
-1.068, -6.459e-5
-1.067, -7.261e-5
-1.066, -7.707e-5
-1.065, -7.278e-5
-1.064, -6.497e-5
-1.063, -6.572e-5
-1.062, -7.363e-5
-1.061, -7.833e-5
-1.060, -7.397e-5
-1.059, -6.680e-5
-1.058, -6.706e-5
-1.057, -7.522e-5
-1.056, -7.978e-5
-1.055, -7.536e-5
-1.054, -6.828e-5
-1.053, -6.831e-5
-1.052, -7.685e-5
-1.051, -8.166e-5
-1.050, -7.718e-5
-1.049, -7.013e-5
-1.048, -7.032e-5
-1.047, -7.844e-5
-1.046, -8.390e-5
-1.045, -7.882e-5
-1.044, -7.197e-5
-1.043, -7.264e-5
-1.042, -8.051e-5
-1.041, -8.594e-5
-1.040, -8.140e-5
-1.039, -7.418e-5
-1.038, -7.511e-5
-1.037, -8.291e-5
-1.036, -8.851e-5
-1.035, -8.429e-5
-1.034, -7.671e-5
-1.033, -7.775e-5
-1.032, -8.568e-5
-1.031, -9.111e-5
-1.030, -8.744e-5
-1.029, -7.990e-5
-1.028, -8.073e-5
-1.027, -8.897e-5
-1.026, -9.449e-5
-1.025, -9.084e-5
-1.024, -8.380e-5
-1.023, -8.406e-5
-1.022, -9.290e-5
-1.021, -9.814e-5
-1.020, -9.469e-5
-1.019, -8.767e-5
-1.018, -8.841e-5
-1.017, -9.717e-5
-1.016, -1.025e-4
-1.015, -9.909e-5
-1.014, -9.222e-5
-1.013, -9.298e-5
-1.012, -1.017e-4
-1.011, -1.077e-4
-1.010, -1.043e-4
-1.009, -9.783e-5
-1.008, -9.848e-5
-1.007, -1.073e-4
-1.006, -1.138e-4
-1.005, -1.104e-4
-1.004, -1.039e-4
-1.003, -1.053e-4
-1.002, -1.138e-4
-1.001, -1.206e-4
-1.000, -5.754e-5
-1.001, -9.730e-6
-1.002, 1.356e-6
-1.003, 3.964e-7
-1.004, 9.706e-7
-1.005, 9.808e-6
-1.006, 2.159e-5
-1.007, 2.566e-5
-1.008, 2.070e-5
-1.009, 1.832e-5
-1.010, 2.549e-5
-1.011, 3.521e-5
-1.012, 3.785e-5
-1.013, 3.194e-5
-1.014, 2.849e-5
-1.015, 3.478e-5
-1.016, 4.370e-5
-1.017, 4.512e-5
-1.018, 3.901e-5
-1.019, 3.481e-5
-1.020, 4.061e-5
-1.021, 4.913e-5
-1.022, 5.018e-5
-1.023, 4.357e-5
-1.024, 3.948e-5
-1.025, 4.442e-5
-1.026, 5.314e-5
-1.027, 5.321e-5
-1.028, 4.679e-5
-1.029, 4.198e-5
-1.030, 4.713e-5
-1.031, 5.550e-5
-1.032, 5.572e-5
-1.033, 4.870e-5
-1.034, 4.414e-5
-1.035, 4.897e-5
-1.036, 5.721e-5
-1.037, 5.721e-5
-1.038, 5.001e-5
-1.039, 4.581e-5
-1.040, 5.019e-5
-1.041, 5.841e-5
-1.042, 5.881e-5
-1.043, 5.113e-5
-1.044, 4.658e-5
-1.045, 5.120e-5
-1.046, 5.891e-5
-1.047, 5.957e-5
-1.048, 5.191e-5
-1.049, 4.730e-5
-1.050, 5.198e-5
-1.051, 5.963e-5
-1.052, 6.010e-5
-1.053, 5.233e-5
-1.054, 4.762e-5
-1.055, 5.248e-5
-1.056, 6.007e-5
-1.057, 6.034e-5
-1.058, 5.314e-5
-1.059, 4.782e-5
-1.060, 5.283e-5
-1.061, 6.055e-5
-1.062, 6.067e-5
-1.063, 5.336e-5
-1.064, 4.814e-5
-1.065, 5.310e-5
-1.066, 6.094e-5
-1.067, 6.078e-5
-1.068, 5.374e-5
-1.069, 4.855e-5
-1.070, 5.315e-5
-1.071, 6.108e-5
-1.072, 6.121e-5
-1.073, 5.359e-5
-1.074, 4.898e-5
-1.075, 5.364e-5
-1.076, 6.155e-5
-1.077, 6.135e-5
-1.078, 5.370e-5
-1.079, 4.931e-5
-1.080, 5.355e-5
-1.081, 6.143e-5
-1.082, 6.175e-5
-1.083, 5.397e-5
-1.084, 4.927e-5
-1.085, 5.383e-5
-1.086, 6.138e-5
-1.087, 6.208e-5
-1.088, 5.412e-5
-1.089, 4.942e-5
-1.090, 5.408e-5
-1.091, 6.181e-5
-1.092, 6.211e-5
-1.093, 5.439e-5
-1.094, 4.958e-5
-1.095, 5.452e-5
-1.096, 6.203e-5
-1.097, 6.230e-5
-1.098, 5.479e-5
-1.099, 4.970e-5
-1.100, 5.474e-5
-1.101, 6.233e-5
-1.102, 6.236e-5
-1.103, 5.510e-5
-1.104, 4.997e-5
-1.105, 5.484e-5
-1.106, 6.266e-5
-1.107, 6.271e-5
-1.108, 5.541e-5
-1.109, 5.031e-5
-1.110, 5.508e-5
-1.111, 6.312e-5
-1.112, 6.289e-5
-1.113, 5.547e-5
-1.114, 5.078e-5
-1.115, 5.530e-5
-1.116, 6.336e-5
-1.117, 6.325e-5
-1.118, 5.573e-5
-1.119, 5.128e-5
-1.120, 5.556e-5
-1.121, 6.339e-5
-1.122, 6.366e-5
-1.123, 5.609e-5
-1.124, 5.149e-5
-1.125, 5.611e-5
-1.126, 6.371e-5
-1.127, 6.418e-5
-1.128, 5.644e-5
-1.129, 5.168e-5
-1.130, 5.643e-5
-1.131, 6.399e-5
-1.132, 6.433e-5
-1.133, 5.670e-5
-1.134, 5.191e-5
-1.135, 5.678e-5
-1.136, 6.418e-5
-1.137, 6.455e-5
-1.138, 5.711e-5
-1.139, 5.219e-5
-1.140, 5.703e-5
-1.141, 6.463e-5
-1.142, 6.472e-5
-1.143, 5.743e-5
-1.144, 5.248e-5
-1.145, 5.704e-5
-1.146, 6.495e-5
-1.147, 6.486e-5
-1.148, 5.770e-5
-1.149, 5.264e-5
-1.150, 5.738e-5
-1.151, 6.550e-5
-1.152, 6.524e-5
-1.153, 5.772e-5
-1.154, 5.291e-5
-1.155, 5.746e-5
-1.156, 6.560e-5
-1.157, 6.535e-5
-1.158, 5.790e-5
-1.159, 5.336e-5
-1.160, 5.768e-5
-1.161, 6.558e-5
-1.162, 6.564e-5
-1.163, 5.811e-5
-1.164, 5.342e-5
-1.165, 5.812e-5
-1.166, 6.570e-5
-1.167, 6.590e-5
-1.168, 5.808e-5
-1.169, 5.349e-5
-1.170, 5.818e-5
-1.171, 6.576e-5
-1.172, 6.614e-5
-1.173, 5.846e-5
-1.174, 5.349e-5
-1.175, 5.853e-5
-1.176, 6.602e-5
-1.177, 6.636e-5
-1.178, 5.890e-5
-1.179, 5.351e-5
-1.180, 5.857e-5
-1.181, 6.608e-5
-1.182, 6.621e-5
-1.183, 5.887e-5
-1.184, 5.370e-5
-1.185, 5.846e-5
-1.186, 6.650e-5
-1.187, 6.622e-5
-1.188, 5.897e-5
-1.189, 5.391e-5
-1.190, 5.868e-5
-1.191, 6.669e-5
-1.192, 6.634e-5
-1.193, 5.908e-5
-1.194, 5.422e-5
-1.195, 5.878e-5
-1.196, 6.665e-5
-1.197, 6.665e-5
-1.198, 5.921e-5
-1.199, 5.472e-5
-1.200, 5.877e-5
-1.201, 6.683e-5
-1.202, 6.700e-5
-1.203, 5.950e-5
-1.204, 5.474e-5
-1.205, 5.908e-5
-1.206, 6.713e-5
-1.207, 6.742e-5
-1.208, 5.940e-5
-1.209, 5.486e-5
-1.210, 5.992e-5
-1.211, 6.743e-5
-1.212, 6.780e-5
-1.213, 6.001e-5
-1.214, 5.529e-5
-1.215, 6.017e-5
-1.216, 6.780e-5
-1.217, 6.795e-5
-1.218, 6.087e-5
-1.219, 5.579e-5
-1.220, 6.053e-5
-1.221, 6.839e-5
-1.222, 6.846e-5
-1.223, 6.143e-5
-1.224, 5.636e-5
-1.225, 6.104e-5
-1.226, 6.909e-5
-1.227, 6.918e-5
-1.228, 6.264e-5
-1.229, 5.786e-5
-1.230, 6.179e-5
-1.231, 7.034e-5
-1.232, 7.012e-5
-1.233, 6.280e-5
-1.234, 5.823e-5
-1.235, 6.273e-5
-1.236, 7.110e-5
-1.237, 7.122e-5
-1.238, 6.394e-5
-1.239, 5.943e-5
-1.240, 6.396e-5
-1.241, 7.217e-5
-1.242, 7.277e-5
-1.243, 6.525e-5
-1.244, 6.084e-5
-1.245, 6.529e-5
-1.246, 7.354e-5
-1.247, 7.455e-5
-1.248, 6.689e-5
-1.249, 6.262e-5
-1.250, 6.753e-5
-1.251, 7.529e-5
-1.252, 7.648e-5
-1.253, 6.897e-5
-1.254, 6.462e-5
-1.255, 6.965e-5
-1.256, 7.770e-5
-1.257, 7.837e-5
-1.258, 7.159e-5
-1.259, 6.681e-5
-1.260, 7.211e-5
-1.261, 8.033e-5
-1.262, 8.114e-5
-1.263, 7.457e-5
-1.264, 6.979e-5
-1.265, 7.489e-5
-1.266, 8.355e-5
-1.267, 8.422e-5
-1.268, 7.790e-5
-1.269, 7.344e-5
-1.270, 7.849e-5
-1.271, 8.720e-5
-1.272, 8.821e-5
-1.273, 8.171e-5
-1.274, 7.745e-5
-1.275, 8.244e-5
-1.276, 9.150e-5
-1.277, 9.264e-5
-1.278, 8.615e-5
-1.279, 8.233e-5
-1.280, 8.795e-5
-1.281, 9.640e-5
-1.282, 9.792e-5
-1.283, 9.132e-5
-1.284, 8.773e-5
-1.285, 9.295e-5
-1.286, 1.021e-4
-1.287, 1.039e-4
-1.288, 9.757e-5
-1.289, 9.407e-5
-1.290, 9.965e-5
-1.291, 1.086e-4
-1.292, 1.108e-4
-1.293, 1.047e-4
-1.294, 1.012e-4
-1.295, 1.072e-4
-1.296, 1.163e-4
-1.297, 1.185e-4
-1.298, 1.131e-4
-1.299, 1.095e-4
-1.300, 1.157e-4
-1.301, 1.251e-4
-1.302, 1.275e-4
-1.303, 1.225e-4
-1.304, 1.189e-4
-1.305, 1.253e-4
-1.306, 1.352e-4
-1.307, 1.377e-4
-1.308, 1.328e-4
-1.309, 1.298e-4
-1.310, 1.362e-4
-1.311, 1.466e-4
-1.312, 1.493e-4
-1.313, 1.446e-4
-1.314, 1.421e-4
-1.315, 1.485e-4
-1.316, 1.593e-4
-1.317, 1.623e-4
-1.318, 1.579e-4
-1.319, 1.556e-4
-1.320, 1.626e-4
-1.321, 1.733e-4
-1.322, 1.771e-4
-1.323, 1.729e-4
-1.324, 1.711e-4
-1.325, 1.783e-4
-1.326, 1.893e-4
-1.327, 1.936e-4
-1.328, 1.893e-4
-1.329, 1.879e-4
-1.330, 1.961e-4
-1.331, 2.073e-4
-1.332, 2.122e-4
-1.333, 2.085e-4
-1.334, 2.073e-4
-1.335, 2.157e-4
-1.336, 2.271e-4
-1.337, 2.323e-4
-1.338, 2.298e-4
-1.339, 2.289e-4
-1.340, 2.378e-4
-1.341, 2.502e-4
-1.342, 2.560e-4
-1.343, 2.538e-4
-1.344, 2.536e-4
-1.345, 2.625e-4
-1.346, 2.760e-4
-1.347, 2.820e-4
-1.348, 2.807e-4
-1.349, 2.810e-4
-1.350, 2.912e-4
-1.351, 3.053e-4
-1.352, 3.118e-4
-1.353, 3.109e-4
-1.354, 3.130e-4
-1.355, 3.227e-4
-1.356, 3.381e-4
-1.357, 3.459e-4
-1.358, 3.461e-4
-1.359, 3.484e-4
-1.360, 3.597e-4
-1.361, 3.754e-4
-1.362, 3.843e-4
-1.363, 3.858e-4
-1.364, 3.891e-4
-1.365, 4.012e-4
-1.366, 4.175e-4
-1.367, 4.281e-4
-1.368, 4.299e-4
-1.369, 4.345e-4
-1.370, 4.483e-4
-1.371, 4.657e-4
-1.372, 4.773e-4
-1.373, 4.806e-4
-1.374, 4.861e-4
-1.375, 5.007e-4
-1.376, 5.195e-4
-1.377, 5.324e-4
-1.378, 5.375e-4
-1.379, 5.440e-4
-1.380, 5.601e-4
-1.381, 5.810e-4
-1.382, 5.954e-4
-1.383, 6.013e-4
-1.384, 6.093e-4
-1.385, 6.270e-4
-1.386, 6.493e-4
-1.387, 6.652e-4
-1.388, 6.736e-4
-1.389, 6.835e-4
-1.390, 7.022e-4
-1.391, 7.266e-4
-1.392, 7.436e-4
-1.393, 7.539e-4
-1.394, 7.653e-4
-1.395, 7.858e-4
-1.396, 8.116e-4
-1.397, 8.314e-4
-1.398, 8.429e-4
-1.399, 8.562e-4
-1.400, 8.784e-4
-1.401, 9.066e-4
-1.402, 9.281e-4
-1.403, 9.419e-4
-1.404, 9.574e-4
-1.405, 9.816e-4
-1.406, 1.010e-3
-1.407, 1.035e-3
-1.408, 1.051e-3
-1.409, 1.068e-3
-1.410, 1.094e-3
-1.411, 1.126e-3
-1.412, 1.153e-3
-1.413, 1.172e-3
-1.414, 1.191e-3
-1.415, 1.221e-3
-1.416, 1.255e-3
-1.417, 1.283e-3
-1.418, 1.304e-3
-1.419, 1.326e-3
-1.420, 1.359e-3
-1.421, 1.394e-3
-1.422, 1.424e-3
-1.423, 1.447e-3
-1.424, 1.471e-3
-1.425, 1.505e-3
-1.426, 1.544e-3
-1.427, 1.578e-3
-1.428, 1.604e-3
-1.429, 1.631e-3
-1.430, 1.666e-3
-1.431, 1.706e-3
-1.432, 1.741e-3
-1.433, 1.770e-3
-1.434, 1.798e-3
-1.435, 1.835e-3
-1.436, 1.880e-3
-1.437, 1.917e-3
-1.438, 1.949e-3
-1.439, 1.979e-3
-1.440, 2.018e-3
-1.441, 2.068e-3
-1.442, 2.106e-3
-1.443, 2.138e-3
-1.444, 2.170e-3
-1.445, 2.213e-3
-1.446, 2.262e-3
-1.447, 2.306e-3
-1.448, 2.340e-3
-1.449, 2.376e-3
-1.450, 2.420e-3
-1.451, 2.468e-3
-1.452, 2.509e-3
-1.453, 2.547e-3
-1.454, 2.587e-3
-1.455, 2.635e-3
-1.456, 2.688e-3
-1.457, 2.735e-3
-1.458, 2.768e-3
-1.459, 2.806e-3
-1.460, 2.851e-3
-1.461, 2.903e-3
-1.462, 2.950e-3
-1.463, 2.991e-3
-1.464, 3.031e-3
-1.465, 3.078e-3
-1.466, 3.132e-3
-1.467, 3.179e-3
-1.468, 3.219e-3
-1.469, 3.261e-3
-1.470, 3.312e-3
-1.471, 3.371e-3
-1.472, 3.422e-3
-1.473, 3.466e-3
-1.474, 3.512e-3
-1.475, 3.563e-3
-1.476, 3.618e-3
-1.477, 3.668e-3
-1.478, 3.712e-3
-1.479, 3.758e-3
-1.480, 3.813e-3
-1.481, 3.869e-3
-1.482, 3.915e-3
-1.483, 3.960e-3
-1.484, 4.006e-3
-1.485, 4.061e-3
-1.486, 4.122e-3
-1.487, 4.177e-3
-1.488, 4.224e-3
-1.489, 4.269e-3
-1.490, 4.322e-3
-1.491, 4.388e-3
-1.492, 4.456e-3
-1.493, 4.498e-3
-1.494, 4.537e-3
-1.495, 4.598e-3
-1.496, 4.656e-3
-1.497, 4.716e-3
-1.498, 4.778e-3
-1.499, 4.824e-3
-1.500, 4.872e-3
-1.501, 4.926e-3
-1.502, 4.981e-3
-1.503, 5.033e-3
-1.504, 5.087e-3
-1.505, 5.146e-3
-1.506, 5.210e-3
-1.507, 5.269e-3
-1.508, 5.319e-3
-1.509, 5.367e-3
-1.510, 5.425e-3
-1.511, 5.486e-3
-1.512, 5.543e-3
-1.513, 5.602e-3
-1.514, 5.652e-3
-1.515, 5.710e-3
-1.516, 5.765e-3
-1.517, 5.822e-3
-1.518, 5.871e-3
-1.519, 5.937e-3
-1.520, 6.003e-3
-1.521, 6.071e-3
-1.522, 6.127e-3
-1.523, 6.183e-3
-1.524, 6.239e-3
-1.525, 6.300e-3
-1.526, 6.366e-3
-1.527, 6.437e-3
-1.528, 6.494e-3
-1.529, 6.556e-3
-1.530, 6.609e-3
-1.531, 6.662e-3
-1.532, 6.725e-3
-1.533, 6.774e-3
-1.534, 6.824e-3
-1.535, 6.902e-3
-1.536, 6.975e-3
-1.537, 7.036e-3
-1.538, 7.099e-3
-1.539, 7.173e-3
-1.540, 7.244e-3
-1.541, 7.321e-3
-1.542, 7.386e-3
-1.543, 7.438e-3
-1.544, 7.493e-3
-1.545, 7.540e-3
-1.546, 7.600e-3
-1.547, 7.666e-3
-1.548, 7.717e-3
-1.549, 7.786e-3
-1.550, 7.856e-3
-1.551, 7.935e-3
-1.552, 8.001e-3
-1.553, 8.053e-3
-1.554, 8.095e-3
-1.555, 8.151e-3
-1.556, 8.215e-3
-1.557, 8.290e-3
-1.558, 8.348e-3
-1.559, 8.408e-3
-1.560, 8.477e-3
-1.561, 8.556e-3
-1.562, 8.620e-3
-1.563, 8.675e-3
-1.564, 8.730e-3
-1.565, 8.801e-3
-1.566, 8.885e-3
-1.567, 8.962e-3
-1.568, 9.023e-3
-1.569, 9.092e-3
-1.570, 9.161e-3
-1.571, 9.218e-3
-1.572, 9.283e-3
-1.573, 9.316e-3
-1.574, 9.380e-3
-1.575, 9.434e-3
-1.576, 9.515e-3
-1.577, 9.573e-3
-1.578, 9.644e-3
-1.579, 9.730e-3
-1.580, 9.802e-3
-1.581, 9.863e-3
-1.582, 9.946e-3
-1.583, 9.993e-3
-1.584, 1.004e-2
-1.585, 1.009e-2
-1.586, 1.011e-2
-1.587, 1.011e-2
-1.588, 1.011e-2
-1.589, 1.011e-2
-1.590, 1.011e-2
-1.591, 1.011e-2
-1.592, 1.011e-2
-1.593, 1.011e-2
-1.594, 1.011e-2
-1.595, 1.011e-2
-1.596, 1.011e-2
-1.597, 1.011e-2
-1.598, 1.011e-2
-1.599, 1.011e-2
-1.600, 1.011e-2
-1.599, 1.011e-2
-1.598, 1.011e-2
-1.597, 1.011e-2
-1.596, 1.011e-2
-1.595, 1.011e-2
-1.594, 1.011e-2
-1.593, 1.011e-2
-1.592, 1.011e-2
-1.591, 1.011e-2
-1.590, 1.004e-2
-1.589, 9.923e-3
-1.588, 9.837e-3
-1.587, 9.755e-3
-1.586, 9.673e-3
-1.585, 9.601e-3
-1.584, 9.523e-3
-1.583, 9.420e-3
-1.582, 9.340e-3
-1.581, 9.236e-3
-1.580, 9.148e-3
-1.579, 9.098e-3
-1.578, 9.037e-3
-1.577, 8.945e-3
-1.576, 8.825e-3
-1.575, 8.770e-3
-1.574, 8.741e-3
-1.573, 8.696e-3
-1.572, 8.585e-3
-1.571, 8.499e-3
-1.570, 8.481e-3
-1.569, 8.456e-3
-1.568, 8.396e-3
-1.567, 8.295e-3
-1.566, 8.211e-3
-1.565, 8.138e-3
-1.564, 8.068e-3
-1.563, 8.043e-3
-1.562, 7.984e-3
-1.561, 7.888e-3
-1.560, 7.797e-3
-1.559, 7.686e-3
-1.558, 7.581e-3
-1.557, 7.493e-3
-1.556, 7.439e-3
-1.555, 7.367e-3
-1.554, 7.337e-3
-1.553, 7.271e-3
-1.552, 7.201e-3
-1.551, 7.123e-3
-1.550, 7.051e-3
-1.549, 7.045e-3
-1.548, 6.935e-3
-1.547, 6.866e-3
-1.546, 6.791e-3
-1.545, 6.704e-3
-1.544, 6.648e-3
-1.543, 6.597e-3
-1.542, 6.546e-3
-1.541, 6.463e-3
-1.540, 6.391e-3
-1.539, 6.335e-3
-1.538, 6.293e-3
-1.537, 6.255e-3
-1.536, 6.212e-3
-1.535, 6.148e-3
-1.534, 6.088e-3
-1.533, 6.035e-3
-1.532, 5.971e-3
-1.531, 5.905e-3
-1.530, 5.845e-3
-1.529, 5.781e-3
-1.528, 5.713e-3
-1.527, 5.636e-3
-1.526, 5.551e-3
-1.525, 5.478e-3
-1.524, 5.412e-3
-1.523, 5.356e-3
-1.522, 5.281e-3
-1.521, 5.201e-3
-1.520, 5.130e-3
-1.519, 5.063e-3
-1.518, 5.006e-3
-1.517, 4.933e-3
-1.516, 4.863e-3
-1.515, 4.800e-3
-1.514, 4.747e-3
-1.513, 4.688e-3
-1.512, 4.615e-3
-1.511, 4.540e-3
-1.510, 4.473e-3
-1.509, 4.414e-3
-1.508, 4.354e-3
-1.507, 4.290e-3
-1.506, 4.217e-3
-1.505, 4.154e-3
-1.504, 4.110e-3
-1.503, 4.055e-3
-1.502, 3.990e-3
-1.501, 3.923e-3
-1.500, 3.869e-3
-1.499, 3.820e-3
-1.498, 3.765e-3
-1.497, 3.705e-3
-1.496, 3.661e-3
-1.495, 3.614e-3
-1.494, 3.563e-3
-1.493, 3.516e-3
-1.492, 3.463e-3
-1.491, 3.401e-3
-1.490, 3.348e-3
-1.489, 3.309e-3
-1.488, 3.267e-3
-1.487, 3.217e-3
-1.486, 3.162e-3
-1.485, 3.106e-3
-1.484, 3.075e-3
-1.483, 3.035e-3
-1.482, 2.990e-3
-1.481, 2.943e-3
-1.480, 2.906e-3
-1.479, 2.871e-3
-1.478, 2.826e-3
-1.477, 2.779e-3
-1.476, 2.728e-3
-1.475, 2.677e-3
-1.474, 2.635e-3
-1.473, 2.602e-3
-1.472, 2.558e-3
-1.471, 2.508e-3
-1.470, 2.466e-3
-1.469, 2.431e-3
-1.468, 2.392e-3
-1.467, 2.345e-3
-1.466, 2.298e-3
-1.465, 2.256e-3
-1.464, 2.224e-3
-1.463, 2.192e-3
-1.462, 2.148e-3
-1.461, 2.106e-3
-1.460, 2.068e-3
-1.459, 2.036e-3
-1.458, 2.002e-3
-1.457, 1.961e-3
-1.456, 1.916e-3
-1.455, 1.880e-3
-1.454, 1.849e-3
-1.453, 1.816e-3
-1.452, 1.775e-3
-1.451, 1.734e-3
-1.450, 1.698e-3
-1.449, 1.673e-3
-1.448, 1.649e-3
-1.447, 1.612e-3
-1.446, 1.574e-3
-1.445, 1.543e-3
-1.444, 1.519e-3
-1.443, 1.495e-3
-1.442, 1.462e-3
-1.441, 1.424e-3
-1.440, 1.394e-3
-1.439, 1.370e-3
-1.438, 1.347e-3
-1.437, 1.314e-3
-1.436, 1.279e-3
-1.435, 1.253e-3
-1.434, 1.232e-3
-1.433, 1.210e-3
-1.432, 1.183e-3
-1.431, 1.149e-3
-1.430, 1.123e-3
-1.429, 1.105e-3
-1.428, 1.085e-3
-1.427, 1.057e-3
-1.426, 1.027e-3
-1.425, 1.003e-3
-1.424, 9.888e-4
-1.423, 9.774e-4
-1.422, 9.508e-4
-1.421, 9.225e-4
-1.420, 9.028e-4
-1.419, 8.886e-4
-1.418, 8.718e-4
-1.417, 8.476e-4
-1.416, 8.221e-4
-1.415, 8.018e-4
-1.414, 7.905e-4
-1.413, 7.767e-4
-1.412, 7.543e-4
-1.411, 7.295e-4
-1.410, 7.123e-4
-1.409, 7.010e-4
-1.408, 6.903e-4
-1.407, 6.698e-4
-1.406, 6.459e-4
-1.405, 6.293e-4
-1.404, 6.211e-4
-1.403, 6.108e-4
-1.402, 5.923e-4
-1.401, 5.707e-4
-1.400, 5.561e-4
-1.399, 5.489e-4
-1.398, 5.402e-4
-1.397, 5.233e-4
-1.396, 5.027e-4
-1.395, 4.896e-4
-1.394, 4.842e-4
-1.393, 4.763e-4
-1.392, 4.606e-4
-1.391, 4.417e-4
-1.390, 4.296e-4
-1.389, 4.260e-4
-1.388, 4.189e-4
-1.387, 4.044e-4
-1.386, 3.870e-4
-1.385, 3.763e-4
-1.384, 3.739e-4
-1.383, 3.689e-4
-1.382, 3.548e-4
-1.381, 3.387e-4
-1.380, 3.289e-4
-1.379, 3.265e-4
-1.378, 3.228e-4
-1.377, 3.099e-4
-1.376, 2.948e-4
-1.375, 2.859e-4
-1.374, 2.844e-4
-1.373, 2.812e-4
-1.372, 2.700e-4
-1.371, 2.551e-4
-1.370, 2.473e-4
-1.369, 2.471e-4
-1.368, 2.455e-4
-1.367, 2.346e-4
-1.366, 2.202e-4
-1.365, 2.135e-4
-1.364, 2.142e-4
-1.363, 2.125e-4
-1.362, 2.024e-4
-1.361, 1.886e-4
-1.360, 1.828e-4
-1.359, 1.839e-4
-1.358, 1.831e-4
-1.357, 1.737e-4
-1.356, 1.608e-4
-1.355, 1.551e-4
-1.354, 1.573e-4
-1.353, 1.569e-4
-1.352, 1.483e-4
-1.351, 1.360e-4
-1.350, 1.306e-4
-1.349, 1.336e-4
-1.348, 1.339e-4
-1.347, 1.254e-4
-1.346, 1.139e-4
-1.345, 1.091e-4
-1.344, 1.122e-4
-1.343, 1.133e-4
-1.342, 1.051e-4
-1.341, 9.422e-5
-1.340, 9.026e-5
-1.339, 9.330e-5
-1.338, 9.493e-5
-1.337, 8.723e-5
-1.336, 7.670e-5
-1.335, 7.300e-5
-1.334, 7.657e-5
-1.333, 7.866e-5
-1.332, 7.162e-5
-1.331, 6.103e-5
-1.330, 5.767e-5
-1.329, 6.172e-5
-1.328, 6.434e-5
-1.327, 5.716e-5
-1.326, 4.681e-5
-1.325, 4.417e-5
-1.324, 4.866e-5
-1.323, 5.106e-5
-1.322, 4.482e-5
-1.321, 3.472e-5
-1.320, 3.228e-5
-1.319, 3.702e-5
-1.318, 3.953e-5
-1.317, 3.346e-5
-1.316, 2.406e-5
-1.315, 2.140e-5
-1.314, 2.648e-5
-1.313, 2.916e-5
-1.312, 2.360e-5
-1.311, 1.418e-5
-1.310, 1.177e-5
-1.309, 1.755e-5
-1.308, 2.064e-5
-1.307, 1.471e-5
-1.306, 5.752e-6
-1.305, 3.290e-6
-1.304, 9.273e-6
-1.303, 1.266e-5
-1.302, 6.770e-6
-1.301, -1.926e-6
-1.300, -3.785e-6
-1.299, 1.835e-6
-1.298, 5.685e-6
-1.297, -1.344e-7
-1.296, -8.693e-6
-1.295, -1.043e-5
-1.294, -4.654e-6
-1.293, -6.385e-7
-1.292, -6.073e-6
-1.291, -1.474e-5
-1.290, -1.632e-5
-1.289, -1.053e-5
-1.288, -6.260e-6
-1.287, -1.143e-5
-1.286, -2.018e-5
-1.285, -2.147e-5
-1.284, -1.534e-5
-1.283, -1.137e-5
-1.282, -1.637e-5
-1.281, -2.505e-5
-1.280, -2.641e-5
-1.279, -1.986e-5
-1.278, -1.575e-5
-1.277, -2.033e-5
-1.276, -2.898e-5
-1.275, -3.039e-5
-1.274, -2.392e-5
-1.273, -1.971e-5
-1.272, -2.436e-5
-1.271, -3.265e-5
-1.270, -3.395e-5
-1.269, -2.727e-5
-1.268, -2.315e-5
-1.267, -2.781e-5
-1.266, -3.595e-5
-1.265, -3.727e-5
-1.264, -3.057e-5
-1.263, -2.622e-5
-1.262, -3.093e-5
-1.261, -3.881e-5
-1.260, -3.988e-5
-1.259, -3.354e-5
-1.258, -2.871e-5
-1.257, -3.376e-5
-1.256, -4.157e-5
-1.255, -4.274e-5
-1.254, -3.618e-5
-1.253, -3.098e-5
-1.252, -3.594e-5
-1.251, -4.404e-5
-1.250, -4.490e-5
-1.249, -3.827e-5
-1.248, -3.350e-5
-1.247, -3.795e-5
-1.246, -4.630e-5
-1.245, -4.680e-5
-1.244, -4.024e-5
-1.243, -3.564e-5
-1.242, -3.996e-5
-1.241, -4.790e-5
-1.240, -4.862e-5
-1.239, -4.188e-5
-1.238, -3.736e-5
-1.237, -4.147e-5
-1.236, -4.960e-5
-1.235, -5.067e-5
-1.234, -4.343e-5
-1.233, -3.891e-5
-1.232, -4.299e-5
-1.231, -5.092e-5
-1.230, -5.211e-5
-1.229, -4.587e-5
-1.228, -4.021e-5
-1.227, -4.464e-5
-1.226, -5.218e-5
-1.225, -5.347e-5
-1.224, -4.619e-5
-1.223, -4.118e-5
-1.222, -4.602e-5
-1.221, -5.353e-5
-1.220, -5.442e-5
-1.219, -4.740e-5
-1.218, -4.236e-5
-1.217, -4.698e-5
-1.216, -5.444e-5
-1.215, -5.534e-5
-1.214, -4.878e-5
-1.213, -4.330e-5
-1.212, -4.781e-5
-1.211, -5.580e-5
-1.210, -5.635e-5
-1.209, -4.976e-5
-1.208, -4.442e-5
-1.207, -4.865e-5
-1.206, -5.687e-5
-1.205, -5.723e-5
-1.204, -5.027e-5
-1.203, -4.567e-5
-1.202, -4.967e-5
-1.201, -5.759e-5
-1.200, -5.805e-5
-1.199, -5.098e-5
-1.198, -4.648e-5
-1.197, -5.028e-5
-1.196, -5.834e-5
-1.195, -5.910e-5
-1.194, -5.166e-5
-1.193, -4.721e-5
-1.192, -5.089e-5
-1.191, -5.883e-5
-1.190, -5.997e-5
-1.189, -5.253e-5
-1.188, -4.771e-5
-1.187, -5.196e-5
-1.186, -5.957e-5
-1.185, -6.057e-5
-1.184, -5.327e-5
-1.183, -4.826e-5
-1.182, -5.278e-5
-1.181, -6.009e-5
-1.180, -6.104e-5
-1.179, -5.409e-5
-1.178, -4.948e-5
-1.177, -5.350e-5
-1.176, -6.090e-5
-1.175, -6.178e-5
-1.174, -5.480e-5
-1.173, -4.952e-5
-1.172, -5.399e-5
-1.171, -6.189e-5
-1.170, -6.234e-5
-1.169, -5.537e-5
-1.168, -5.004e-5
-1.167, -5.457e-5
-1.166, -6.241e-5
-1.165, -6.293e-5
-1.164, -5.597e-5
-1.163, -5.094e-5
-1.162, -5.511e-5
-1.161, -6.304e-5
-1.160, -6.358e-5
-1.159, -5.625e-5
-1.158, -5.173e-5
-1.157, -5.565e-5
-1.156, -6.363e-5
-1.155, -6.437e-5
-1.154, -5.700e-5
-1.153, -5.220e-5
-1.152, -5.644e-5
-1.151, -6.412e-5
-1.150, -6.510e-5
-1.149, -5.757e-5
-1.148, -5.271e-5
-1.147, -5.717e-5
-1.146, -6.458e-5
-1.145, -6.581e-5
-1.144, -5.829e-5
-1.143, -5.334e-5
-1.142, -5.793e-5
-1.141, -6.518e-5
-1.140, -6.628e-5
-1.139, -5.920e-5
-1.138, -5.389e-5
-1.137, -5.846e-5
-1.136, -6.595e-5
-1.135, -6.667e-5
-1.134, -5.992e-5
-1.133, -5.464e-5
-1.132, -5.906e-5
-1.131, -6.689e-5
-1.130, -6.745e-5
-1.129, -6.037e-5
-1.128, -5.529e-5
-1.127, -5.967e-5
-1.126, -6.775e-5
-1.125, -6.812e-5
-1.124, -6.108e-5
-1.123, -5.612e-5
-1.122, -6.038e-5
-1.121, -6.839e-5
-1.120, -6.878e-5
-1.119, -6.146e-5
-1.118, -5.680e-5
-1.117, -6.105e-5
-1.116, -6.882e-5
-1.115, -6.957e-5
-1.114, -6.221e-5
-1.113, -5.770e-5
-1.112, -6.151e-5
-1.111, -6.956e-5
-1.110, -7.037e-5
-1.109, -6.277e-5
-1.108, -5.809e-5
-1.107, -6.264e-5
-1.106, -7.002e-5
-1.105, -7.114e-5
-1.104, -6.350e-5
-1.103, -5.859e-5
-1.102, -6.330e-5
-1.101, -7.091e-5
-1.100, -7.175e-5
-1.099, -6.430e-5
-1.098, -5.930e-5
-1.097, -6.422e-5
-1.096, -7.144e-5
-1.095, -7.212e-5
-1.094, -6.520e-5
-1.093, -6.002e-5
-1.092, -6.466e-5
-1.091, -7.257e-5
-1.090, -7.286e-5
-1.089, -6.602e-5
-1.088, -6.072e-5
-1.087, -6.520e-5
-1.086, -7.349e-5
-1.085, -7.365e-5
-1.084, -6.645e-5
-1.083, -6.190e-5
-1.082, -6.605e-5
-1.081, -7.442e-5
-1.080, -7.461e-5
-1.079, -6.734e-5
-1.078, -6.265e-5
-1.077, -6.726e-5
-1.076, -7.530e-5
-1.075, -7.613e-5
-1.074, -6.842e-5
-1.073, -6.375e-5
-1.072, -6.812e-5
-1.071, -7.622e-5
-1.070, -7.699e-5
-1.069, -6.944e-5
-1.068, -6.480e-5
-1.067, -6.969e-5
-1.066, -7.742e-5
-1.065, -7.839e-5
-1.064, -7.070e-5
-1.063, -6.597e-5
-1.062, -7.120e-5
-1.061, -7.882e-5
-1.060, -7.957e-5
-1.059, -7.252e-5
-1.058, -6.773e-5
-1.057, -7.292e-5
-1.056, -8.061e-5
-1.055, -8.132e-5
-1.054, -7.430e-5
-1.053, -6.947e-5
-1.052, -7.460e-5
-1.051, -8.282e-5
-1.050, -8.348e-5
-1.049, -7.653e-5
-1.048, -7.169e-5
-1.047, -7.667e-5
-1.046, -8.523e-5
-1.045, -8.544e-5
-1.044, -7.874e-5
-1.043, -7.416e-5
-1.042, -7.930e-5
-1.041, -8.789e-5
-1.040, -8.836e-5
-1.039, -8.123e-5
-1.038, -7.719e-5
-1.037, -8.190e-5
-1.036, -9.078e-5
-1.035, -9.171e-5
-1.034, -8.428e-5
-1.033, -8.050e-5
-1.032, -8.542e-5
-1.031, -9.383e-5
-1.030, -9.512e-5
-1.029, -8.808e-5
-1.028, -8.384e-5
-1.027, -8.932e-5
-1.026, -9.773e-5
-1.025, -9.911e-5
-1.024, -9.255e-5
-1.023, -8.798e-5
-1.022, -9.379e-5
-1.021, -1.019e-4
-1.020, -1.035e-4
-1.019, -9.714e-5
-1.018, -9.248e-5
-1.017, -9.864e-5
-1.016, -1.071e-4
-1.015, -1.084e-4
-1.014, -1.023e-4
-1.013, -9.807e-5
-1.012, -1.040e-4
-1.011, -1.131e-4
-1.010, -1.144e-4
-1.009, -1.085e-4
-1.008, -1.045e-4
-1.007, -1.105e-4
-1.006, -1.199e-4
-1.005, -1.213e-4
-1.004, -1.154e-4
-1.003, -1.120e-4
-1.002, -1.178e-4
-1.001, -1.276e-4
-1.000, -6.783e-5
-1.001, -1.763e-5
-1.002, -6.366e-7
-1.003, 2.086e-6
-1.004, 4.635e-7
-1.005, 4.998e-6
-1.006, 1.705e-5
-1.007, 2.606e-5
-1.008, 2.434e-5
-1.009, 1.952e-5
-1.010, 2.242e-5
-1.011, 3.215e-5
-1.012, 3.965e-5
-1.013, 3.660e-5
-1.014, 3.056e-5
-1.015, 3.258e-5
-1.016, 4.143e-5
-1.017, 4.756e-5
-1.018, 4.446e-5
-1.019, 3.762e-5
-1.020, 3.900e-5
-1.021, 4.752e-5
-1.022, 5.332e-5
-1.023, 4.967e-5
-1.024, 4.265e-5
-1.025, 4.314e-5
-1.026, 5.174e-5
-1.027, 5.683e-5
-1.028, 5.279e-5
-1.029, 4.550e-5
-1.030, 4.622e-5
-1.031, 5.463e-5
-1.032, 5.940e-5
-1.033, 5.488e-5
-1.034, 4.781e-5
-1.035, 4.809e-5
-1.036, 5.640e-5
-1.037, 6.094e-5
-1.038, 5.637e-5
-1.039, 4.948e-5
-1.040, 4.931e-5
-1.041, 5.759e-5
-1.042, 6.249e-5
-1.043, 5.751e-5
-1.044, 5.034e-5
-1.045, 5.057e-5
-1.046, 5.839e-5
-1.047, 6.338e-5
-1.048, 5.809e-5
-1.049, 5.091e-5
-1.050, 5.150e-5
-1.051, 5.903e-5
-1.052, 6.382e-5
-1.053, 5.882e-5
-1.054, 5.120e-5
-1.055, 5.203e-5
-1.056, 5.965e-5
-1.057, 6.400e-5
-1.058, 5.920e-5
-1.059, 5.156e-5
-1.060, 5.230e-5
-1.061, 6.003e-5
-1.062, 6.449e-5
-1.063, 5.938e-5
-1.064, 5.175e-5
-1.065, 5.231e-5
-1.066, 6.049e-5
-1.067, 6.457e-5
-1.068, 5.958e-5
-1.069, 5.177e-5
-1.070, 5.271e-5
-1.071, 6.079e-5
-1.072, 6.474e-5
-1.073, 5.947e-5
-1.074, 5.223e-5
-1.075, 5.306e-5
-1.076, 6.094e-5
-1.077, 6.498e-5
-1.078, 5.965e-5
-1.079, 5.246e-5
-1.080, 5.288e-5
-1.081, 6.105e-5
-1.082, 6.526e-5
-1.083, 5.965e-5
-1.084, 5.251e-5
-1.085, 5.298e-5
-1.086, 6.113e-5
-1.087, 6.550e-5
-1.088, 5.982e-5
-1.089, 5.246e-5
-1.090, 5.364e-5
-1.091, 6.124e-5
-1.092, 6.565e-5
-1.093, 5.995e-5
-1.094, 5.271e-5
-1.095, 5.377e-5
-1.096, 6.148e-5
-1.097, 6.566e-5
-1.098, 6.039e-5
-1.099, 5.286e-5
-1.100, 5.406e-5
-1.101, 6.192e-5
-1.102, 6.578e-5
-1.103, 6.061e-5
-1.104, 5.312e-5
-1.105, 5.408e-5
-1.106, 6.228e-5
-1.107, 6.615e-5
-1.108, 6.090e-5
-1.109, 5.345e-5
-1.110, 5.431e-5
-1.111, 6.276e-5
-1.112, 6.628e-5
-1.113, 6.104e-5
-1.114, 5.382e-5
-1.115, 5.469e-5
-1.116, 6.296e-5
-1.117, 6.670e-5
-1.118, 6.130e-5
-1.119, 5.420e-5
-1.120, 5.491e-5
-1.121, 6.322e-5
-1.122, 6.715e-5
-1.123, 6.143e-5
-1.124, 5.437e-5
-1.125, 5.551e-5
-1.126, 6.354e-5
-1.127, 6.756e-5
-1.128, 6.165e-5
-1.129, 5.457e-5
-1.130, 5.581e-5
-1.131, 6.389e-5
-1.132, 6.794e-5
-1.133, 6.212e-5
-1.134, 5.490e-5
-1.135, 5.648e-5
-1.136, 6.402e-5
-1.137, 6.793e-5
-1.138, 6.251e-5
-1.139, 5.516e-5
-1.140, 5.656e-5
-1.141, 6.448e-5
-1.142, 6.825e-5
-1.143, 6.275e-5
-1.144, 5.527e-5
-1.145, 5.661e-5
-1.146, 6.504e-5
-1.147, 6.838e-5
-1.148, 6.297e-5
-1.149, 5.578e-5
-1.150, 5.692e-5
-1.151, 6.526e-5
-1.152, 6.876e-5
-1.153, 6.310e-5
-1.154, 5.596e-5
-1.155, 5.717e-5
-1.156, 6.553e-5
-1.157, 6.879e-5
-1.158, 6.311e-5
-1.159, 5.649e-5
-1.160, 5.724e-5
-1.161, 6.555e-5
-1.162, 6.931e-5
-1.163, 6.324e-5
-1.164, 5.639e-5
-1.165, 5.768e-5
-1.166, 6.560e-5
-1.167, 6.944e-5
-1.168, 6.321e-5
-1.169, 5.660e-5
-1.170, 5.789e-5
-1.171, 6.581e-5
-1.172, 6.952e-5
-1.173, 6.357e-5
-1.174, 5.636e-5
-1.175, 5.814e-5
-1.176, 6.613e-5
-1.177, 6.992e-5
-1.178, 6.370e-5
-1.179, 5.657e-5
-1.180, 5.820e-5
-1.181, 6.617e-5
-1.182, 6.945e-5
-1.183, 6.401e-5
-1.184, 5.662e-5
-1.185, 5.809e-5
-1.186, 6.631e-5
-1.187, 6.948e-5
-1.188, 6.382e-5
-1.189, 5.668e-5
-1.190, 5.816e-5
-1.191, 6.646e-5
-1.192, 6.966e-5
-1.193, 6.374e-5
-1.194, 5.677e-5
-1.195, 5.842e-5
-1.196, 6.649e-5
-1.197, 6.984e-5
-1.198, 6.367e-5
-1.199, 5.701e-5
-1.200, 5.839e-5
-1.201, 6.658e-5
-1.202, 6.998e-5
-1.203, 6.392e-5
-1.204, 5.723e-5
-1.205, 5.863e-5
-1.206, 6.690e-5
-1.207, 7.034e-5
-1.208, 6.400e-5
-1.209, 5.714e-5
-1.210, 5.887e-5
-1.211, 6.695e-5
-1.212, 7.046e-5
-1.213, 6.429e-5
-1.214, 5.735e-5
-1.215, 5.927e-5
-1.216, 6.738e-5
-1.217, 7.065e-5
-1.218, 6.477e-5
-1.219, 5.765e-5
-1.220, 5.985e-5
-1.221, 6.803e-5
-1.222, 7.089e-5
-1.223, 6.524e-5
-1.224, 5.819e-5
-1.225, 6.020e-5
-1.226, 6.841e-5
-1.227, 7.156e-5
-1.228, 6.613e-5
-1.229, 5.951e-5
-1.230, 6.077e-5
-1.231, 6.946e-5
-1.232, 7.211e-5
-1.233, 6.634e-5
-1.234, 5.989e-5
-1.235, 6.142e-5
-1.236, 7.017e-5
-1.237, 7.319e-5
-1.238, 6.718e-5
-1.239, 6.085e-5
-1.240, 6.276e-5
-1.241, 7.104e-5
-1.242, 7.447e-5
-1.243, 6.831e-5
-1.244, 6.191e-5
-1.245, 6.396e-5
-1.246, 7.240e-5
-1.247, 7.590e-5
-1.248, 6.970e-5
-1.249, 6.320e-5
-1.250, 6.562e-5
-1.251, 7.404e-5
-1.252, 7.750e-5
-1.253, 7.139e-5
-1.254, 6.503e-5
-1.255, 6.749e-5
-1.256, 7.579e-5
-1.257, 7.920e-5
-1.258, 7.368e-5
-1.259, 6.707e-5
-1.260, 6.971e-5
-1.261, 7.817e-5
-1.262, 8.148e-5
-1.263, 7.599e-5
-1.264, 6.944e-5
-1.265, 7.214e-5
-1.266, 8.098e-5
-1.267, 8.434e-5
-1.268, 7.918e-5
-1.269, 7.282e-5
-1.270, 7.538e-5
-1.271, 8.430e-5
-1.272, 8.754e-5
-1.273, 8.218e-5
-1.274, 7.614e-5
-1.275, 7.878e-5
-1.276, 8.794e-5
-1.277, 9.129e-5
-1.278, 8.612e-5
-1.279, 8.036e-5
-1.280, 8.348e-5
-1.281, 9.221e-5
-1.282, 9.632e-5
-1.283, 9.042e-5
-1.284, 8.519e-5
-1.285, 8.799e-5
-1.286, 9.714e-5
-1.287, 1.013e-4
-1.288, 9.592e-5
-1.289, 9.041e-5
-1.290, 9.391e-5
-1.291, 1.031e-4
-1.292, 1.072e-4
-1.293, 1.023e-4
-1.294, 9.688e-5
-1.295, 1.005e-4
-1.296, 1.096e-4
-1.297, 1.140e-4
-1.298, 1.095e-4
-1.299, 1.041e-4
-1.300, 1.078e-4
-1.301, 1.177e-4
-1.302, 1.219e-4
-1.303, 1.176e-4
-1.304, 1.125e-4
-1.305, 1.164e-4
-1.306, 1.267e-4
-1.307, 1.309e-4
-1.308, 1.270e-4
-1.309, 1.221e-4
-1.310, 1.262e-4
-1.311, 1.369e-4
-1.312, 1.412e-4
-1.313, 1.373e-4
-1.314, 1.330e-4
-1.315, 1.373e-4
-1.316, 1.481e-4
-1.317, 1.529e-4
-1.318, 1.490e-4
-1.319, 1.453e-4
-1.320, 1.498e-4
-1.321, 1.607e-4
-1.322, 1.661e-4
-1.323, 1.625e-4
-1.324, 1.588e-4
-1.325, 1.639e-4
-1.326, 1.750e-4
-1.327, 1.810e-4
-1.328, 1.773e-4
-1.329, 1.742e-4
-1.330, 1.799e-4
-1.331, 1.908e-4
-1.332, 1.971e-4
-1.333, 1.945e-4
-1.334, 1.911e-4
-1.335, 1.975e-4
-1.336, 2.088e-4
-1.337, 2.153e-4
-1.338, 2.132e-4
-1.339, 2.104e-4
-1.340, 2.172e-4
-1.341, 2.290e-4
-1.342, 2.363e-4
-1.343, 2.343e-4
-1.344, 2.319e-4
-1.345, 2.390e-4
-1.346, 2.516e-4
-1.347, 2.588e-4
-1.348, 2.581e-4
-1.349, 2.565e-4
-1.350, 2.637e-4
-1.351, 2.772e-4
-1.352, 2.848e-4
-1.353, 2.844e-4
-1.354, 2.839e-4
-1.355, 2.916e-4
-1.356, 3.059e-4
-1.357, 3.144e-4
-1.358, 3.144e-4
-1.359, 3.149e-4
-1.360, 3.233e-4
-1.361, 3.382e-4
-1.362, 3.482e-4
-1.363, 3.484e-4
-1.364, 3.496e-4
-1.365, 3.591e-4
-1.366, 3.750e-4
-1.367, 3.857e-4
-1.368, 3.872e-4
-1.369, 3.890e-4
-1.370, 4.001e-4
-1.371, 4.164e-4
-1.372, 4.280e-4
-1.373, 4.307e-4
-1.374, 4.337e-4
-1.375, 4.458e-4
-1.376, 4.634e-4
-1.377, 4.756e-4
-1.378, 4.800e-4
-1.379, 4.840e-4
-1.380, 4.975e-4
-1.381, 5.164e-4
-1.382, 5.303e-4
-1.383, 5.357e-4
-1.384, 5.411e-4
-1.385, 5.550e-4
-1.386, 5.758e-4
-1.387, 5.914e-4
-1.388, 5.990e-4
-1.389, 6.051e-4
-1.390, 6.210e-4
-1.391, 6.430e-4
-1.392, 6.592e-4
-1.393, 6.679e-4
-1.394, 6.760e-4
-1.395, 6.939e-4
-1.396, 7.178e-4
-1.397, 7.360e-4
-1.398, 7.465e-4
-1.399, 7.566e-4
-1.400, 7.749e-4
-1.401, 8.011e-4
-1.402, 8.213e-4
-1.403, 8.327e-4
-1.404, 8.456e-4
-1.405, 8.666e-4
-1.406, 8.940e-4
-1.407, 9.160e-4
-1.408, 9.295e-4
-1.409, 9.444e-4
-1.410, 9.678e-4
-1.411, 9.963e-4
-1.412, 1.021e-3
-1.413, 1.037e-3
-1.414, 1.054e-3
-1.415, 1.080e-3
-1.416, 1.110e-3
-1.417, 1.137e-3
-1.418, 1.157e-3
-1.419, 1.175e-3
-1.420, 1.202e-3
-1.421, 1.236e-3
-1.422, 1.265e-3
-1.423, 1.287e-3
-1.424, 1.307e-3
-1.425, 1.338e-3
-1.426, 1.373e-3
-1.427, 1.405e-3
-1.428, 1.429e-3
-1.429, 1.453e-3
-1.430, 1.486e-3
-1.431, 1.525e-3
-1.432, 1.560e-3
-1.433, 1.587e-3
-1.434, 1.612e-3
-1.435, 1.646e-3
-1.436, 1.687e-3
-1.437, 1.723e-3
-1.438, 1.753e-3
-1.439, 1.784e-3
-1.440, 1.820e-3
-1.441, 1.864e-3
-1.442, 1.903e-3
-1.443, 1.934e-3
-1.444, 1.965e-3
-1.445, 2.004e-3
-1.446, 2.050e-3
-1.447, 2.092e-3
-1.448, 2.129e-3
-1.449, 2.162e-3
-1.450, 2.206e-3
-1.451, 2.254e-3
-1.452, 2.298e-3
-1.453, 2.334e-3
-1.454, 2.371e-3
-1.455, 2.414e-3
-1.456, 2.467e-3
-1.457, 2.513e-3
-1.458, 2.554e-3
-1.459, 2.592e-3
-1.460, 2.640e-3
-1.461, 2.692e-3
-1.462, 2.740e-3
-1.463, 2.780e-3
-1.464, 2.820e-3
-1.465, 2.866e-3
-1.466, 2.921e-3
-1.467, 2.969e-3
-1.468, 3.014e-3
-1.469, 3.056e-3
-1.470, 3.107e-3
-1.471, 3.166e-3
-1.472, 3.212e-3
-1.473, 3.259e-3
-1.474, 3.302e-3
-1.475, 3.353e-3
-1.476, 3.410e-3
-1.477, 3.464e-3
-1.478, 3.511e-3
-1.479, 3.556e-3
-1.480, 3.610e-3
-1.481, 3.669e-3
-1.482, 3.722e-3
-1.483, 3.769e-3
-1.484, 3.815e-3
-1.485, 3.868e-3
-1.486, 3.929e-3
-1.487, 3.985e-3
-1.488, 4.034e-3
-1.489, 4.088e-3
-1.490, 4.146e-3
-1.491, 4.205e-3
-1.492, 4.261e-3
-1.493, 4.309e-3
-1.494, 4.357e-3
-1.495, 4.413e-3
-1.496, 4.474e-3
-1.497, 4.535e-3
-1.498, 4.582e-3
-1.499, 4.632e-3
-1.500, 4.685e-3
-1.501, 4.749e-3
-1.502, 4.817e-3
-1.503, 4.877e-3
-1.504, 4.930e-3
-1.505, 4.988e-3
-1.506, 5.055e-3
-1.507, 5.120e-3
-1.508, 5.167e-3
-1.509, 5.217e-3
-1.510, 5.272e-3
-1.511, 5.342e-3
-1.512, 5.408e-3
-1.513, 5.461e-3
-1.514, 5.516e-3
-1.515, 5.577e-3
-1.516, 5.646e-3
-1.517, 5.707e-3
-1.518, 5.769e-3
-1.519, 5.810e-3
-1.520, 5.873e-3
-1.521, 5.937e-3
-1.522, 6.003e-3
-1.523, 6.055e-3
-1.524, 6.115e-3
-1.525, 6.172e-3
-1.526, 6.245e-3
-1.527, 6.301e-3
-1.528, 6.355e-3
-1.529, 6.408e-3
-1.530, 6.468e-3
-1.531, 6.544e-3
-1.532, 6.604e-3
-1.533, 6.653e-3
-1.534, 6.703e-3
-1.535, 6.758e-3
-1.536, 6.833e-3
-1.537, 6.911e-3
-1.538, 6.962e-3
-1.539, 7.038e-3
-1.540, 7.111e-3
-1.541, 7.187e-3
-1.542, 7.270e-3
-1.543, 7.323e-3
-1.544, 7.371e-3
-1.545, 7.432e-3
-1.546, 7.487e-3
-1.547, 7.544e-3
-1.548, 7.607e-3
-1.549, 7.659e-3
-1.550, 7.730e-3
-1.551, 7.806e-3
-1.552, 7.873e-3
-1.553, 7.924e-3
-1.554, 7.987e-3
-1.555, 8.044e-3
-1.556, 8.094e-3
-1.557, 8.188e-3
-1.558, 8.257e-3
-1.559, 8.312e-3
-1.560, 8.361e-3
-1.561, 8.437e-3
-1.562, 8.503e-3
-1.563, 8.552e-3
-1.564, 8.615e-3
-1.565, 8.688e-3
-1.566, 8.756e-3
-1.567, 8.809e-3
-1.568, 8.851e-3
-1.569, 8.900e-3
-1.570, 8.945e-3
-1.571, 9.014e-3
-1.572, 9.094e-3
-1.573, 9.160e-3
-1.574, 9.249e-3
-1.575, 9.310e-3
-1.576, 9.376e-3
-1.577, 9.431e-3
-1.578, 9.483e-3
-1.579, 9.546e-3
-1.580, 9.602e-3
-1.581, 9.701e-3
-1.582, 9.765e-3
-1.583, 9.817e-3
-1.584, 9.862e-3
-1.585, 9.918e-3
-1.586, 9.972e-3
-1.587, 1.005e-2
-1.588, 1.009e-2
-1.589, 1.011e-2
-1.590, 1.011e-2
-1.591, 1.011e-2
-1.592, 1.011e-2
-1.593, 1.011e-2
-1.594, 1.011e-2
-1.595, 1.011e-2
-1.596, 1.011e-2
-1.597, 1.011e-2
-1.598, 1.011e-2
-1.599, 1.011e-2
-1.600, 1.011e-2
-1.599, 1.011e-2
-1.598, 1.011e-2
-1.597, 1.011e-2
-1.596, 1.011e-2
-1.595, 1.011e-2
-1.594, 1.011e-2
-1.593, 1.011e-2
-1.592, 1.010e-2
-1.591, 1.003e-2
-1.590, 9.912e-3
-1.589, 9.782e-3
-1.588, 9.701e-3
-1.587, 9.670e-3
-1.586, 9.590e-3
-1.585, 9.535e-3
-1.584, 9.510e-3
-1.583, 9.456e-3
-1.582, 9.414e-3
-1.581, 9.364e-3
-1.580, 9.287e-3
-1.579, 9.211e-3
-1.578, 9.135e-3
-1.577, 9.061e-3
-1.576, 8.990e-3
-1.575, 8.922e-3
-1.574, 8.865e-3
-1.573, 8.785e-3
-1.572, 8.688e-3
-1.571, 8.597e-3
-1.570, 8.515e-3
-1.569, 8.456e-3
-1.568, 8.350e-3
-1.567, 8.276e-3
-1.566, 8.198e-3
-1.565, 8.111e-3
-1.564, 8.031e-3
-1.563, 7.955e-3
-1.562, 7.862e-3
-1.561, 7.755e-3
-1.560, 7.657e-3
-1.559, 7.578e-3
-1.558, 7.506e-3
-1.557, 7.443e-3
-1.556, 7.363e-3
-1.555, 7.312e-3
-1.554, 7.260e-3
-1.553, 7.188e-3
-1.552, 7.107e-3
-1.551, 7.019e-3
-1.550, 6.947e-3
-1.549, 6.873e-3
-1.548, 6.826e-3
-1.547, 6.768e-3
-1.546, 6.706e-3
-1.545, 6.659e-3
-1.544, 6.614e-3
-1.543, 6.565e-3
-1.542, 6.467e-3
-1.541, 6.403e-3
-1.540, 6.322e-3
-1.539, 6.231e-3
-1.538, 6.159e-3
-1.537, 6.088e-3
-1.536, 6.030e-3
-1.535, 5.989e-3
-1.534, 5.930e-3
-1.533, 5.874e-3
-1.532, 5.806e-3
-1.531, 5.729e-3
-1.530, 5.669e-3
-1.529, 5.610e-3
-1.528, 5.545e-3
-1.527, 5.475e-3
-1.526, 5.402e-3
-1.525, 5.324e-3
-1.524, 5.257e-3
-1.523, 5.190e-3
-1.522, 5.134e-3
-1.521, 5.054e-3
-1.520, 4.997e-3
-1.519, 4.941e-3
-1.518, 4.880e-3
-1.517, 4.807e-3
-1.516, 4.729e-3
-1.515, 4.660e-3
-1.514, 4.593e-3
-1.513, 4.540e-3
-1.512, 4.468e-3
-1.511, 4.418e-3
-1.510, 4.379e-3
-1.509, 4.336e-3
-1.508, 4.252e-3
-1.507, 4.197e-3
-1.506, 4.136e-3
-1.505, 4.093e-3
-1.504, 4.053e-3
-1.503, 4.005e-3
-1.502, 3.946e-3
-1.501, 3.881e-3
-1.500, 3.825e-3
-1.499, 3.767e-3
-1.498, 3.705e-3
-1.497, 3.642e-3
-1.496, 3.579e-3
-1.495, 3.524e-3
-1.494, 3.472e-3
-1.493, 3.425e-3
-1.492, 3.373e-3
-1.491, 3.316e-3
-1.490, 3.275e-3
-1.489, 3.224e-3
-1.488, 3.176e-3
-1.487, 3.119e-3
-1.486, 3.066e-3
-1.485, 3.013e-3
-1.484, 2.975e-3
-1.483, 2.929e-3
-1.482, 2.876e-3
-1.481, 2.820e-3
-1.480, 2.769e-3
-1.479, 2.725e-3
-1.478, 2.683e-3
-1.477, 2.633e-3
-1.476, 2.589e-3
-1.475, 2.547e-3
-1.474, 2.516e-3
-1.473, 2.479e-3
-1.472, 2.434e-3
-1.471, 2.384e-3
-1.470, 2.341e-3
-1.469, 2.306e-3
-1.468, 2.269e-3
-1.467, 2.222e-3
-1.466, 2.174e-3
-1.465, 2.132e-3
-1.464, 2.101e-3
-1.463, 2.066e-3
-1.462, 2.023e-3
-1.461, 1.976e-3
-1.460, 1.941e-3
-1.459, 1.910e-3
-1.458, 1.876e-3
-1.457, 1.834e-3
-1.456, 1.793e-3
-1.455, 1.756e-3
-1.454, 1.729e-3
-1.453, 1.697e-3
-1.452, 1.660e-3
-1.451, 1.620e-3
-1.450, 1.586e-3
-1.449, 1.561e-3
-1.448, 1.534e-3
-1.447, 1.497e-3
-1.446, 1.459e-3
-1.445, 1.429e-3
-1.444, 1.407e-3
-1.443, 1.380e-3
-1.442, 1.347e-3
-1.441, 1.311e-3
-1.440, 1.285e-3
-1.439, 1.264e-3
-1.438, 1.241e-3
-1.437, 1.213e-3
-1.436, 1.180e-3
-1.435, 1.154e-3
-1.434, 1.135e-3
-1.433, 1.115e-3
-1.432, 1.087e-3
-1.431, 1.056e-3
-1.430, 1.033e-3
-1.429, 1.018e-3
-1.428, 9.989e-4
-1.427, 9.716e-4
-1.426, 9.439e-4
-1.425, 9.221e-4
-1.424, 9.089e-4
-1.423, 8.933e-4
-1.422, 8.689e-4
-1.421, 8.425e-4
-1.420, 8.240e-4
-1.419, 8.105e-4
-1.418, 7.962e-4
-1.417, 7.729e-4
-1.416, 7.487e-4
-1.415, 7.314e-4
-1.414, 7.210e-4
-1.413, 7.078e-4
-1.412, 6.869e-4
-1.411, 6.633e-4
-1.410, 6.483e-4
-1.409, 6.387e-4
-1.408, 6.282e-4
-1.407, 6.082e-4
-1.406, 5.869e-4
-1.405, 5.727e-4
-1.404, 5.651e-4
-1.403, 5.551e-4
-1.402, 5.374e-4
-1.401, 5.180e-4
-1.400, 5.041e-4
-1.399, 4.984e-4
-1.398, 4.902e-4
-1.397, 4.735e-4
-1.396, 4.550e-4
-1.395, 4.429e-4
-1.394, 4.385e-4
-1.393, 4.312e-4
-1.392, 4.163e-4
-1.391, 3.983e-4
-1.390, 3.880e-4
-1.389, 3.852e-4
-1.388, 3.794e-4
-1.387, 3.650e-4
-1.386, 3.488e-4
-1.385, 3.392e-4
-1.384, 3.371e-4
-1.383, 3.320e-4
-1.382, 3.190e-4
-1.381, 3.040e-4
-1.380, 2.953e-4
-1.379, 2.935e-4
-1.378, 2.903e-4
-1.377, 2.779e-4
-1.376, 2.637e-4
-1.375, 2.559e-4
-1.374, 2.553e-4
-1.373, 2.530e-4
-1.372, 2.414e-4
-1.371, 2.275e-4
-1.370, 2.207e-4
-1.369, 2.209e-4
-1.368, 2.189e-4
-1.367, 2.089e-4
-1.366, 1.954e-4
-1.365, 1.894e-4
-1.364, 1.903e-4
-1.363, 1.889e-4
-1.362, 1.794e-4
-1.361, 1.670e-4
-1.360, 1.618e-4
-1.359, 1.629e-4
-1.358, 1.620e-4
-1.357, 1.535e-4
-1.356, 1.417e-4
-1.355, 1.365e-4
-1.354, 1.389e-4
-1.353, 1.393e-4
-1.352, 1.305e-4
-1.351, 1.190e-4
-1.350, 1.144e-4
-1.349, 1.172e-4
-1.348, 1.178e-4
-1.347, 1.099e-4
-1.346, 9.916e-5
-1.345, 9.462e-5
-1.344, 9.811e-5
-1.343, 9.921e-5
-1.342, 9.140e-5
-1.341, 8.117e-5
-1.340, 7.708e-5
-1.339, 8.068e-5
-1.338, 8.233e-5
-1.337, 7.513e-5
-1.336, 6.503e-5
-1.335, 6.147e-5
-1.334, 6.530e-5
-1.333, 6.770e-5
-1.332, 6.067e-5
-1.331, 5.054e-5
-1.330, 4.752e-5
-1.329, 5.171e-5
-1.328, 5.438e-5
-1.327, 4.794e-5
-1.326, 3.839e-5
-1.325, 3.541e-5
-1.324, 3.970e-5
-1.323, 4.254e-5
-1.322, 3.645e-5
-1.321, 2.678e-5
-1.320, 2.429e-5
-1.319, 2.927e-5
-1.318, 3.183e-5
-1.317, 2.650e-5
-1.316, 1.776e-5
-1.315, 1.410e-5
-1.314, 1.937e-5
-1.313, 2.247e-5
-1.312, 1.727e-5
-1.311, 8.318e-6
-1.310, 5.477e-6
-1.309, 1.154e-5
-1.308, 1.408e-5
-1.307, 8.825e-6
-1.306, 1.508e-7
-1.305, -2.420e-6
-1.304, 3.384e-6
-1.303, 7.071e-6
-1.302, 2.009e-6
-1.301, -6.586e-6
-1.300, -8.663e-6
-1.299, -3.433e-6
-1.298, 6.973e-7
-1.297, -4.339e-6
-1.296, -1.271e-5
-1.295, -1.484e-5
-1.294, -9.386e-6
-1.293, -4.780e-6
-1.292, -9.626e-6
-1.291, -1.841e-5
-1.290, -2.015e-5
-1.289, -1.482e-5
-1.288, -1.005e-5
-1.287, -1.451e-5
-1.286, -2.341e-5
-1.285, -2.518e-5
-1.284, -1.927e-5
-1.283, -1.475e-5
-1.282, -1.898e-5
-1.281, -2.766e-5
-1.280, -2.955e-5
-1.279, -2.350e-5
-1.278, -1.890e-5
-1.277, -2.281e-5
-1.276, -3.135e-5
-1.275, -3.354e-5
-1.274, -2.722e-5
-1.273, -2.264e-5
-1.272, -2.627e-5
-1.271, -3.469e-5
-1.270, -3.678e-5
-1.269, -3.065e-5
-1.268, -2.552e-5
-1.267, -2.967e-5
-1.266, -3.767e-5
-1.265, -4.014e-5
-1.264, -3.356e-5
-1.263, -2.846e-5
-1.262, -3.245e-5
-1.261, -4.035e-5
-1.260, -4.262e-5
-1.259, -3.644e-5
-1.258, -3.094e-5
-1.257, -3.507e-5
-1.256, -4.300e-5
-1.255, -4.509e-5
-1.254, -3.878e-5
-1.253, -3.333e-5
-1.252, -3.687e-5
-1.251, -4.514e-5
-1.250, -4.712e-5
-1.249, -4.112e-5
-1.248, -3.514e-5
-1.247, -3.898e-5
-1.246, -4.737e-5
-1.245, -4.909e-5
-1.244, -4.285e-5
-1.243, -3.741e-5
-1.242, -4.060e-5
-1.241, -4.896e-5
-1.240, -5.069e-5
-1.239, -4.434e-5
-1.238, -3.909e-5
-1.237, -4.216e-5
-1.236, -5.040e-5
-1.235, -5.256e-5
-1.234, -4.608e-5
-1.233, -4.041e-5
-1.232, -4.339e-5
-1.231, -5.180e-5
-1.230, -5.396e-5
-1.229, -4.841e-5
-1.228, -4.191e-5
-1.227, -4.507e-5
-1.226, -5.284e-5
-1.225, -5.544e-5
-1.224, -4.866e-5
-1.223, -4.279e-5
-1.222, -4.616e-5
-1.221, -5.397e-5
-1.220, -5.629e-5
-1.219, -5.009e-5
-1.218, -4.396e-5
-1.217, -4.724e-5
-1.216, -5.504e-5
-1.215, -5.728e-5
-1.214, -5.114e-5
-1.213, -4.486e-5
-1.212, -4.806e-5
-1.211, -5.605e-5
-1.210, -5.818e-5
-1.209, -5.213e-5
-1.208, -4.582e-5
-1.207, -4.860e-5
-1.206, -5.712e-5
-1.205, -5.902e-5
-1.204, -5.298e-5
-1.203, -4.711e-5
-1.202, -4.956e-5
-1.201, -5.798e-5
-1.200, -5.984e-5
-1.199, -5.360e-5
-1.198, -4.778e-5
-1.197, -5.012e-5
-1.196, -5.850e-5
-1.195, -6.095e-5
-1.194, -5.456e-5
-1.193, -4.841e-5
-1.192, -5.091e-5
-1.191, -5.905e-5
-1.190, -6.176e-5
-1.189, -5.502e-5
-1.188, -4.903e-5
-1.187, -5.163e-5
-1.186, -5.976e-5
-1.185, -6.247e-5
-1.184, -5.580e-5
-1.183, -4.964e-5
-1.182, -5.252e-5
-1.181, -6.025e-5
-1.180, -6.278e-5
-1.179, -5.679e-5
-1.178, -5.061e-5
-1.177, -5.314e-5
-1.176, -6.080e-5
-1.175, -6.340e-5
-1.174, -5.766e-5
-1.173, -5.087e-5
-1.172, -5.357e-5
-1.171, -6.170e-5
-1.170, -6.396e-5
-1.169, -5.823e-5
-1.168, -5.124e-5
-1.167, -5.378e-5
-1.166, -6.241e-5
-1.165, -6.476e-5
-1.164, -5.799e-5
-1.163, -5.239e-5
-1.162, -5.446e-5
-1.161, -6.303e-5
-1.160, -6.525e-5
-1.159, -5.930e-5
-1.158, -5.317e-5
-1.157, -5.503e-5
-1.156, -6.348e-5
-1.155, -6.625e-5
-1.154, -5.995e-5
-1.153, -5.343e-5
-1.152, -5.581e-5
-1.151, -6.384e-5
-1.150, -6.691e-5
-1.149, -6.044e-5
-1.148, -5.422e-5
-1.147, -5.638e-5
-1.146, -6.437e-5
-1.145, -6.743e-5
-1.144, -6.106e-5
-1.143, -5.477e-5
-1.142, -5.718e-5
-1.141, -6.476e-5
-1.140, -6.787e-5
-1.139, -6.215e-5
-1.138, -5.519e-5
-1.137, -5.784e-5
-1.136, -6.543e-5
-1.135, -6.853e-5
-1.134, -6.284e-5
-1.133, -5.581e-5
-1.132, -5.814e-5
-1.131, -6.641e-5
-1.130, -6.911e-5
-1.129, -6.364e-5
-1.128, -5.660e-5
-1.127, -5.858e-5
-1.126, -6.732e-5
-1.125, -7.002e-5
-1.124, -6.419e-5
-1.123, -5.755e-5
-1.122, -5.936e-5
-1.121, -6.781e-5
-1.120, -7.051e-5
-1.119, -6.466e-5
-1.118, -5.821e-5
-1.117, -5.991e-5
-1.116, -6.820e-5
-1.115, -7.154e-5
-1.114, -6.548e-5
-1.113, -5.899e-5
-1.112, -6.059e-5
-1.111, -6.875e-5
-1.110, -7.225e-5
-1.109, -6.601e-5
-1.108, -5.949e-5
-1.107, -6.155e-5
-1.106, -6.937e-5
-1.105, -7.303e-5
-1.104, -6.673e-5
-1.103, -5.993e-5
-1.102, -6.216e-5
-1.101, -7.022e-5
-1.100, -7.339e-5
-1.099, -6.780e-5
-1.098, -6.089e-5
-1.097, -6.280e-5
-1.096, -7.062e-5
-1.095, -7.418e-5
-1.094, -6.868e-5
-1.093, -6.140e-5
-1.092, -6.320e-5
-1.091, -7.172e-5
-1.090, -7.469e-5
-1.089, -6.939e-5
-1.088, -6.201e-5
-1.087, -6.414e-5
-1.086, -7.247e-5
-1.085, -7.572e-5
-1.084, -7.015e-5
-1.083, -6.325e-5
-1.082, -6.481e-5
-1.081, -7.332e-5
-1.080, -7.668e-5
-1.079, -7.100e-5
-1.078, -6.440e-5
-1.077, -6.578e-5
-1.076, -7.442e-5
-1.075, -7.828e-5
-1.074, -7.214e-5
-1.073, -6.560e-5
-1.072, -6.698e-5
-1.071, -7.522e-5
-1.070, -7.927e-5
-1.069, -7.339e-5
-1.068, -6.661e-5
-1.067, -6.854e-5
-1.066, -7.644e-5
-1.065, -8.060e-5
-1.064, -7.498e-5
-1.063, -6.798e-5
-1.062, -7.002e-5
-1.061, -7.810e-5
-1.060, -8.196e-5
-1.059, -7.678e-5
-1.058, -6.983e-5
-1.057, -7.170e-5
-1.056, -7.983e-5
-1.055, -8.405e-5
-1.054, -7.874e-5
-1.053, -7.160e-5
-1.052, -7.356e-5
-1.051, -8.194e-5
-1.050, -8.601e-5
-1.049, -8.120e-5
-1.048, -7.406e-5
-1.047, -7.575e-5
-1.046, -8.448e-5
-1.045, -8.859e-5
-1.044, -8.362e-5
-1.043, -7.668e-5
-1.042, -7.843e-5
-1.041, -8.737e-5
-1.040, -9.122e-5
-1.039, -8.653e-5
-1.038, -7.982e-5
-1.037, -8.143e-5
-1.036, -9.040e-5
-1.035, -9.482e-5
-1.034, -8.993e-5
-1.033, -8.333e-5
-1.032, -8.478e-5
-1.031, -9.377e-5
-1.030, -9.884e-5
-1.029, -9.351e-5
-1.028, -8.704e-5
-1.027, -8.907e-5
-1.026, -9.785e-5
-1.025, -1.028e-4
-1.024, -9.827e-5
-1.023, -9.150e-5
-1.022, -9.373e-5
-1.021, -1.025e-4
-1.020, -1.075e-4
-1.019, -1.032e-4
-1.018, -9.641e-5
-1.017, -9.887e-5
-1.016, -1.077e-4
-1.015, -1.129e-4
-1.014, -1.090e-4
-1.013, -1.019e-4
-1.012, -1.046e-4
-1.011, -1.138e-4
-1.010, -1.192e-4
-1.009, -1.156e-4
-1.008, -1.089e-4
-1.007, -1.113e-4
-1.006, -1.211e-4
-1.005, -1.263e-4
-1.004, -1.227e-4
-1.003, -1.169e-4
-1.002, -1.191e-4
-1.001, -1.291e-4
