Potential V vs RHE, Current mA cm-2
0.013299999999999867,-0.3511313446265021
0.012299999999999978,-1.3107300193249565
0.011299999999999866,-2.095187435100119
0.010299999999999976,-2.794054817233447
0.009299999999999864,-3.317497998183511
0.008299999999999974,-3.7970851288377587
0.007299999999999862,-4.23281620919619
0.006299999999999972,-4.582249900262854
0.00529999999999986,-4.843971490737885
0.0042999999999999705,-5.105693081212917
0.0032999999999998586,-5.323558621392133
0.0022999999999999687,-5.5414241615713475
0.0012999999999998568,-5.715433651454749
0.00029999999999996696,-5.847001802342197
-0.000700000000000145,-5.977155241929781
-0.0017000000000000348,-6.108723392817228
-0.0027000000000001467,-6.152579443113044
-0.0037000000000000366,-6.238876832404812
-0.0047000000000001485,-6.326588932996443
-0.005700000000000038,-6.37044498329226
-0.00670000000000015,-6.414301033588076
-0.00770000000000004,-6.500598422879844
-0.008700000000000152,-6.54445447317566
-0.009700000000000042,-6.588310523471475
-0.010700000000000154,-6.632166573767292
-0.011700000000000044,-6.6760226240631075
-0.012700000000000156,-6.719878674358924
-0.013700000000000045,-6.719878674358924
-0.014700000000000157,-6.719878674358924
-0.015700000000000047,-6.762320013354876
-0.01670000000000016,-6.762320013354876
-0.01770000000000005,-6.762320013354876
-0.01870000000000016,-6.806176063650692
-0.01970000000000005,-6.806176063650692
-0.020700000000000163,-6.850032113946507
-0.021700000000000053,-6.850032113946507
-0.022700000000000164,-6.850032113946507
-0.023700000000000054,-6.850032113946507
-0.024700000000000166,-6.806176063650692
-0.025700000000000056,-6.806176063650692
-0.026700000000000168,-6.806176063650692
-0.027700000000000058,-6.850032113946507
-0.02870000000000017,-6.850032113946507
-0.02970000000000006,-6.850032113946507
-0.03070000000000017,-6.850032113946507
-0.03170000000000006,-6.850032113946507
-0.03270000000000017,-6.850032113946507
-0.03370000000000006,-6.893888164242324
-0.034700000000000175,-6.850032113946507
-0.035700000000000065,-6.850032113946507
-0.03670000000000018,-6.850032113946507
-0.03770000000000007,-6.850032113946507
-0.03870000000000018,-6.850032113946507
-0.03970000000000007,-6.850032113946507
-0.04070000000000018,-6.850032113946507
-0.04170000000000007,-6.893888164242324
-0.04270000000000018,-6.850032113946507
-0.04370000000000007,-6.850032113946507
-0.044700000000000184,-6.850032113946507
-0.045700000000000074,-6.850032113946507
-0.046700000000000186,-6.806176063650692
-0.047700000000000076,-6.850032113946507
-0.04870000000000019,-6.850032113946507
-0.04970000000000008,-6.850032113946507
-0.05070000000000019,-6.850032113946507
-0.05170000000000008,-6.850032113946507
-0.05270000000000019,-6.850032113946507
-0.05370000000000008,-6.850032113946507
-0.05470000000000019,-6.850032113946507
-0.05570000000000008,-6.850032113946507
-0.056700000000000195,-6.806176063650692
-0.057700000000000085,-6.850032113946507
-0.058700000000000196,-6.850032113946507
-0.059700000000000086,-6.893888164242324
-0.0607000000000002,-6.893888164242324
-0.06170000000000009,-6.893888164242324
-0.0627000000000002,-6.893888164242324
-0.06370000000000009,-6.893888164242324
-0.0647000000000002,-6.893888164242324
-0.06570000000000009,-6.850032113946507
-0.0667000000000002,-6.850032113946507
-0.0677000000000001,-6.850032113946507
-0.0687000000000002,-6.850032113946507
-0.0697000000000001,-6.893888164242324
-0.07070000000000021,-6.893888164242324
-0.0717000000000001,-6.893888164242324
-0.07270000000000021,-6.850032113946507
-0.0737000000000001,-6.850032113946507
-0.07470000000000021,-6.850032113946507
-0.0757000000000001,-6.850032113946507
-0.07670000000000021,-6.850032113946507
-0.0777000000000001,-6.850032113946507
-0.07870000000000021,-6.850032113946507
-0.0797000000000001,-6.893888164242324
-0.08070000000000022,-6.850032113946507
-0.0817000000000001,-6.893888164242324
-0.08270000000000022,-6.850032113946507
-0.08370000000000011,-6.850032113946507
-0.08470000000000022,-6.850032113946507
-0.08570000000000011,-6.850032113946507
-0.08670000000000022,-6.850032113946507
-0.08770000000000011,-6.850032113946507
-0.08870000000000022,-6.850032113946507
-0.08970000000000011,-6.850032113946507
-0.09070000000000022,-6.893888164242324
-0.09170000000000011,-6.893888164242324
-0.09270000000000023,-6.850032113946507
-0.09370000000000012,-6.893888164242324
-0.09470000000000023,-6.850032113946507
-0.09570000000000012,-6.850032113946507
-0.09670000000000023,-6.893888164242324
-0.09770000000000012,-6.850032113946507
-0.09870000000000023,-6.893888164242324
-0.09970000000000012,-6.893888164242324
-0.10070000000000023,-6.893888164242324
-0.10170000000000012,-6.93774421453814
-0.10270000000000024,-6.93774421453814
-0.10370000000000013,-6.893888164242324
-0.10470000000000024,-6.893888164242324
-0.10570000000000013,-6.893888164242324
-0.10670000000000024,-6.893888164242324
-0.10770000000000013,-6.893888164242324
-0.10870000000000024,-6.93774421453814
-0.10970000000000013,-6.93774421453814
-0.11070000000000024,-6.93774421453814
-0.11170000000000013,-6.93774421453814
-0.11270000000000002,-6.93774421453814
-0.11370000000000013,-6.93774421453814
-0.11470000000000002,-6.93774421453814
-0.11570000000000014,-6.93774421453814
-0.11670000000000003,-6.93774421453814
-0.11770000000000014,-6.93774421453814
-0.11870000000000003,-6.93774421453814
-0.11970000000000014,-6.981600264833956
-0.12070000000000003,-6.981600264833956
-0.12170000000000014,-6.981600264833956
-0.12270000000000003,-6.981600264833956
-0.12370000000000014,-6.981600264833956
-0.12470000000000003,-6.981600264833956
-0.12570000000000014,-6.981600264833956
-0.12670000000000003,-6.93774421453814
-0.12770000000000015,-6.981600264833956
-0.12870000000000004,-6.981600264833956
-0.12970000000000015,-7.024041603829907
-0.13070000000000004,-7.024041603829907
-0.13170000000000015,-7.024041603829907
-0.13270000000000004,-7.024041603829907
-0.13370000000000015,-7.024041603829907
-0.13470000000000004,-7.024041603829907
-0.13570000000000015,-7.024041603829907
-0.13670000000000004,-7.024041603829907
-0.13770000000000016,-7.024041603829907
-0.13870000000000005,-7.067897654125724
-0.13970000000000016,-7.067897654125724
-0.14070000000000005,-7.111753704421539
-0.14170000000000016,-7.111753704421539
-0.14270000000000005,-7.111753704421539
-0.14370000000000016,-7.111753704421539
-0.14470000000000005,-7.111753704421539
-0.14570000000000016,-7.111753704421539
-0.14670000000000005,-7.111753704421539
-0.14770000000000016,-7.155609754717355
-0.14870000000000005,-7.155609754717355
-0.14970000000000017,-7.155609754717355
-0.15070000000000006,-7.199465805013171
-0.15170000000000017,-7.199465805013171
-0.15270000000000006,-7.199465805013171
-0.15370000000000017,-7.199465805013171
-0.15470000000000006,-7.199465805013171
-0.15570000000000017,-7.199465805013171
-0.15670000000000006,-7.199465805013171
-0.15770000000000017,-7.243321855308987
-0.15870000000000006,-7.243321855308987
-0.15970000000000018,-7.243321855308987
-0.16070000000000007,-7.28576319430494
-0.16170000000000018,-7.28576319430494
-0.16270000000000007,-7.28576319430494
-0.16370000000000018,-7.329619244600755
-0.16470000000000007,-7.329619244600755
-0.16570000000000018,-7.329619244600755
-0.16670000000000007,-7.329619244600755
-0.16770000000000018,-7.37347529489657
-0.16870000000000007,-7.37347529489657
-0.16970000000000018,-7.37347529489657
-0.17070000000000007,-7.4173313451923875
-0.17170000000000019,-7.4173313451923875
-0.17270000000000008,-7.4173313451923875
-0.1737000000000002,-7.4173313451923875
-0.17470000000000008,-7.461187395488204
-0.1757000000000002,-7.461187395488204
-0.17670000000000008,-7.50504344578402
-0.1777000000000002,-7.50504344578402
-0.17870000000000008,-7.50504344578402
-0.1797000000000002,-7.5474847847799715
-0.18070000000000008,-7.5474847847799715
-0.1817000000000002,-7.591340835075788
-0.18270000000000008,-7.635196885371603
-0.1837000000000002,-7.635196885371603
-0.1847000000000001,-7.635196885371603
-0.1857000000000002,-7.679052935667419
-0.1867000000000001,-7.679052935667419
-0.1877000000000002,-7.722908985963235
-0.1887000000000001,-7.722908985963235
-0.1897000000000002,-7.7653503249591855
-0.1907000000000001,-7.809206375255003
-0.1917000000000001,-7.853062425550818
-0.19269999999999998,-7.853062425550818
-0.1937000000000001,-7.896918475846635
-0.19469999999999998,-7.896918475846635
-0.1957000000000001,-7.896918475846635
-0.19669999999999999,-7.940774526142452
-0.1977000000000001,-7.984630576438266
-0.1987,-8.027071915434218
-0.1997000000000001,-8.070927965730034
-0.2007,-8.11478401602585
-0.2017000000000001,-8.158640066321666
-0.2027,-8.158640066321666
-0.2037000000000001,-8.202496116617484
-0.2047,-8.202496116617484
-0.2057000000000001,-8.246352166913299
-0.2067,-8.288793505909249
-0.2077000000000001,-8.288793505909249
-0.2087,-8.376505606500881
-0.2097000000000001,-8.4203616567967
-0.2107,-8.464217707092514
-0.2117000000000001,-8.508073757388331
-0.2127,-8.55051509638428
-0.2137000000000001,-8.594371146680096
-0.2147,-8.594371146680096
-0.2157000000000001,-8.68208324727173
-0.2167,-8.725939297567548
-0.21770000000000012,-8.769795347863363
-0.2187,-8.812236686859313
-0.21970000000000012,-8.899948787450944
-0.2207,-8.943804837746763
-0.22170000000000012,-8.987660888042578
-0.2227,-9.031516938338395
-0.22370000000000012,-9.073958277334345
-0.2247,-9.11781432763016
-0.22570000000000012,-9.161670377925978
-0.2267,-9.205526428221793
-0.22770000000000012,-9.293238528813426
-0.22870000000000001,-9.379535918105192
-0.22970000000000013,-9.423391968401008
-0.23070000000000002,-9.511104068992642
-0.23170000000000013,-9.59740145828441
-0.23270000000000002,-9.641257508580225
-0.23370000000000013,-9.685113558876042
-0.23470000000000002,-9.772825659467674
-0.23570000000000013,-9.85912304875944
-0.23670000000000002,-9.902979099055257
-0.2376999999999999,-9.99069119964689
-0.23870000000000002,-10.078403300238522
-0.2396999999999999,-10.164700689530287
-0.24070000000000003,-10.25241279012192
-0.24169999999999991,-10.340124890713554
-0.24270000000000003,-10.42642228000532
-0.24369999999999992,-10.514134380596953
-0.24470000000000003,-10.557990430892769
-0.24569999999999992,-10.644287820184536
-0.24670000000000003,-10.731999920776168
-0.24769999999999992,-10.819712021367803
-0.24870000000000003,-10.906009410659568
-0.24969999999999992,-11.037577561547016
-0.25070000000000003,-11.1677310011346
-0.2516999999999999,-11.255443101726232
-0.25270000000000004,-11.343155202317865
-0.2536999999999999,-11.42945259160963
-0.25470000000000004,-11.517164692201263
-0.2556999999999999,-11.647318131788847
-0.25670000000000004,-11.73503023238048
-0.25769999999999993,-11.86659838326793
-0.25870000000000004,-11.952895772559694
-0.25969999999999993,-12.084463923447142
-0.26070000000000004,-12.214617363034726
-0.26169999999999993,-12.346185513922174
-0.26270000000000004,-12.476338953509758
-0.26369999999999993,-12.607907104397206
-0.26470000000000005,-12.73806054398479
-0.26569999999999994,-12.869628694872238
-0.26670000000000005,-12.99978213445982
-0.26769999999999994,-13.13135028534727
-0.26870000000000005,-13.30535977523067
-0.26969999999999994,-13.436927926118118
-0.27070000000000005,-13.610937416001518
-0.27169999999999994,-13.741090855589102
-0.27270000000000005,-13.916515056772363
-0.27369999999999994,-14.046668496359947
-0.27470000000000006,-14.175407224647667
-0.27569999999999995,-14.345172580631472
-0.27670000000000006,-14.529085049613924
-0.27769999999999995,-14.69885040559773
-0.27870000000000006,-14.826174422585586
-0.27969999999999995,-15.01008689156804
-0.28070000000000006,-15.179852247551842
-0.28169999999999995,-15.349617603535648
-0.28270000000000006,-15.533530072518102
-0.28369999999999995,-15.74573676749786
-0.28470000000000006,-15.87306078448571
-0.28569999999999995,-16.056973253468165
-0.28670000000000007,-16.269179948447924
-0.28769999999999996,-16.438945304431726
-0.28870000000000007,-16.622857773414182
-0.28969999999999996,-16.877505807389888
-0.29070000000000007,-17.061418276372343
-0.29169999999999996,-17.2736249713521
-0.29270000000000007,-17.4433903273359
-0.29369999999999996,-17.669744135314307
-0.2947000000000001,-17.839509491298113
-0.29569999999999996,-18.06586329927652
-0.2967000000000001,-18.27806999425627
-0.29769999999999996,-18.53271802823198
-0.2987000000000001,-18.759071836210385
-0.29969999999999997,-18.97127853119014
-0.3007000000000001,-19.2400736781645
-0.30169999999999997,-19.452280373144255
-0.3027000000000001,-19.721075520118614
-0.30369999999999997,-19.97572355409432
-0.3047000000000001,-20.202077362072725
-0.30569999999999997,-20.414284057052477
-0.3067000000000001,-20.683079204026836
-0.3077,-20.93772723800254
-0.3087000000000001,-21.2065223849769
-0.3097,-21.461170418952605
-0.3107000000000001,-21.772406904922917
-0.3117,-22.027054938898623
-0.3127000000000001,-22.295850085872978
-0.3137,-22.550498119848687
-0.3147000000000001,-22.819293266823045
-0.3157,-23.1163826397947
-0.3167000000000001,-23.427619125765005
-0.3177,-23.724708498736668
-0.3187000000000001,-24.035944984706973
-0.3197,-24.34718147067728
-0.3207000000000001,-24.64427084364894
-0.3217,-24.95550732961925
-0.3227000000000001,-25.252596702590903
-0.3237,-25.563833188561212
-0.3247000000000001,-25.86092256153287
-0.3257,-26.17215904750318
-0.3267000000000001,-26.483395533473487
-0.3277,-26.780484906445146
-0.3287000000000001,-27.134162731411404
-0.3297,-27.487840556377662
-0.3307000000000001,-27.827371268345274
-0.3317,-28.18104909331153
-0.3327000000000001,-28.53472691827779
-0.3337,-28.831816291249446
-0.3347000000000001,-29.14305277721976
-0.3357,-29.482583489187363
-0.3367000000000001,-29.836261314153624
-0.3377,-30.232380478115836
-0.3387000000000001,-30.571911190083444
-0.3397,-30.968030354045652
-0.3407000000000001,-31.27926684001596
-0.3417,-31.661238890979522
-0.3427000000000001,-32.05735805494172
-0.3437,-32.45347721890394
-0.3447000000000001,-32.807155043870196
-0.3457,-33.18912709483376
-0.3467000000000001,-33.54280491980002
-0.3477,-33.98136542275818
-0.3487000000000001,-34.377484586720385
-0.3497,-34.8018979766799
-0.3507000000000001,-35.240458479638065
-0.3517,-35.679018982596226
-0.3527000000000001,-36.07513814655844
-0.3537,-36.47125731052064
-0.3547000000000001,-36.89567070048016
-0.3557,-37.334231203438314
-0.35670000000000013,-37.77279170639648
-0.3577,-38.211352209354644
-0.35870000000000013,-38.692354051308754
-0.3597,-39.130914554266916
-0.36070000000000013,-39.56947505722508
-0.3617,-40.03632978618054
-0.3626999999999999,-40.43244895014274
-0.3637,-40.87100945310091
-0.3646999999999999,-41.352011295055014
-0.3657,-41.83301313700913
-0.3666999999999999,-42.31401497896325
-0.3677,-42.752575481921404
-0.3686999999999999,-43.23357732387552
-0.36970000000000003,-43.70043205283099
-0.3706999999999999,-44.181433894785094
-0.37170000000000003,-44.704877075735155
-0.3726999999999999,-45.18587891768927
-0.37370000000000003,-45.666880759643384
-0.3746999999999999,-46.147882601597495
-0.37570000000000003,-46.628884443551605
-0.3766999999999999,-47.10988628550572
-0.37770000000000004,-47.633329466455784
-0.3786999999999999,-48.114331308409895
-0.37970000000000004,-48.59533315036401
-0.3806999999999999,-49.118776331314066
-0.38170000000000004,-49.59977817326819
-0.38269999999999993,-50.0807800152223
-0.38370000000000004,-50.547634744177756
-0.38469999999999993,-51.028636586131874
-0.38570000000000004,-51.55207976708194
-0.38669999999999993,-51.29743173310623
-0.38570000000000004,-49.81198486824794
-0.38469999999999993,-48.63777448935996
-0.38370000000000004,-47.633329466455784
-0.38269999999999993,-46.713767121543505
-0.38170000000000004,-45.89323456762179
-0.3806999999999999,-45.05855490070142
-0.37970000000000004,-44.36534636376755
-0.3786999999999999,-43.657990713835034
-0.37770000000000004,-43.007223515897124
-0.3766999999999999,-42.3564563179592
-0.37570000000000003,-41.74813045901723
-0.3746999999999999,-41.139804600075266
-0.37370000000000003,-40.51733162813464
-0.3726999999999999,-39.99388844718459
-0.37170000000000003,-39.42800392723857
-0.3706999999999999,-38.86211940729255
-0.36970000000000003,-38.29623488734655
-0.3686999999999999,-37.687909028404576
-0.3677,-37.164465847454515
-0.3666999999999999,-36.5985813275085
-0.3657,-36.07513814655844
-0.3646999999999999,-35.55169496560837
-0.3637,-34.98581044566235
-0.3626999999999999,-34.462367264712285
-0.3617,-33.93892408376223
-0.36070000000000013,-33.373039563816214
-0.3597,-32.84959638286615
-0.35870000000000013,-32.32615320191609
-0.3577,-31.84515135996197
-0.35670000000000013,-31.321708179011907
-0.3557,-30.79826499806185
-0.3547000000000001,-30.317263156107735
-0.3537,-29.793819975157668
-0.3527000000000001,-29.31281813320356
-0.3517,-28.831816291249446
-0.3507000000000001,-28.350814449295335
-0.3497,-27.869812607341224
-0.3487000000000001,-27.34636942639116
-0.3477,-26.907808923433
-0.3467000000000001,-26.440954194477534
-0.3457,-25.959952352523427
-0.3447000000000001,-25.521391849565262
-0.3437,-25.0828313466071
-0.3427000000000001,-24.601829504652986
-0.3417,-24.16326900169483
-0.3407000000000001,-23.724708498736668
-0.3397,-23.300295108777156
-0.3387000000000001,-22.819293266823045
-0.3377,-22.38073276386488
-0.3367000000000001,-21.94217226090672
-0.3357,-21.54605309694451
-0.3347000000000001,-21.107492593986347
-0.3337,-20.683079204026836
-0.3327000000000001,-20.286960040064624
-0.3317,-19.890840876102416
-0.3307000000000001,-19.49472171214021
-0.3297,-19.056161209182044
-0.3287000000000001,-18.674189158218486
-0.3277,-18.27806999425627
-0.3267000000000001,-17.839509491298113
-0.3257,-17.48583166633185
-0.3247000000000001,-17.146300954364243
-0.3237,-16.750181790402035
-0.3227000000000001,-16.396503965435777
-0.3217,-16.014531914472215
-0.3207000000000001,-15.618412750510005
-0.3197,-15.264734925543747
-0.3187000000000001,-14.868615761581536
-0.3177,-14.486643710617974
-0.3167000000000001,-14.13438059695158
-0.3157,-13.784946905884919
-0.3147000000000001,-13.436927926118118
-0.3137,-13.087494235051453
-0.3127000000000001,-12.73806054398479
-0.3117,-12.390041564217992
-0.3107000000000001,-12.040607873151327
-0.3097,-11.73503023238048
-0.3087000000000001,-11.385596541313816
-0.3077,-11.037577561547016
-0.3067000000000001,-10.731999920776168
-0.30569999999999997,-10.382566229709504
-0.3047000000000001,-10.078403300238522
-0.30369999999999997,-9.772825659467674
-0.3027000000000001,-9.467248018696827
-0.30169999999999997,-9.205526428221793
-0.3007000000000001,-8.85609273715513
-0.29969999999999997,-8.594371146680096
-0.2987000000000001,-8.288793505909249
-0.29769999999999996,-7.984630576438266
-0.2967000000000001,-7.722908985963235
-0.29569999999999996,-7.4173313451923875
-0.2947000000000001,-7.155609754717355
-0.29369999999999996,-6.893888164242324
-0.29270000000000007,-6.588310523471475
-0.29169999999999996,-6.326588932996443
-0.29070000000000007,-6.064867342521412
-0.28969999999999996,-5.80314575204638
-0.28870000000000007,-5.5414241615713475
-0.28769999999999996,-5.279702571096316
-0.28670000000000007,-5.017980980621284
-0.28569999999999995,-4.756259390146253
-0.28470000000000006,-4.538393849967037
-0.28369999999999995,-4.3205283097878215
-0.28270000000000006,-4.0588067193127895
-0.28169999999999995,-3.840941179133574
-0.28070000000000006,-3.579219588658543
-0.27969999999999995,-3.361354048479327
-0.27870000000000006,-3.0996324580042955
-0.27769999999999995,-2.8803522065252145
-0.27670000000000006,-2.662486666345999
-0.27569999999999995,-2.4446211261667834
-0.27470000000000006,-2.226755585987568
-0.27369999999999994,-2.052746096104168
-0.27270000000000005,-1.7910245056291363
-0.27169999999999994,-1.6156003044458718
-0.27070000000000005,-1.3980177065266295
-0.26969999999999994,-1.2234423321232837
-0.26870000000000005,-1.0054353208140816
-0.26769999999999994,-0.7872868383748929
-0.26670000000000005,-0.5692798270656908
-0.26569999999999994,-0.3947044526623452
-0.26470000000000005,-0.2202705493889862
