Sept. 13, 2024   06:39:06
Cyclic Voltammetry
File: c:/users/guazh/data/20240903_batch_252_500/2024-09-03-exp340\exp340-2024-09-13t06_18_59-arkoh\exp340_cv_sr_700mvs_efin_-1700mv.bin
Data Source:  Experiment
Instrument Model:  CHI760E
Header: CV ran at 700 mVs
Note: 

Init E (V) = -1
High E (V) = -1
Low E (V) = -1.7
Final E (V) = -1
Init P/N = N
Scan Rate (V/s) = 0.7
Segment = 3
Sample Interval (V) = 0.001
Quiet Time (sec) = 2
Sensitivity (A/V) = 0.01
Comp R (ohm) = 2.0

Results:

Channel 1:
Segment 1:

Segment 2:

Segment 3:

Potential/V, Current/A

-1.000, 6.322e-6
-1.001, 1.557e-5
-1.002, 1.865e-5
-1.003, 2.174e-5
-1.004, 2.482e-5
-1.005, 2.482e-5
-1.006, 2.790e-5
-1.007, 2.790e-5
-1.008, 2.790e-5
-1.009, 3.099e-5
-1.010, 3.099e-5
-1.011, 3.099e-5
-1.012, 3.099e-5
-1.013, 3.099e-5
-1.014, 3.099e-5
-1.015, 3.099e-5
-1.016, 3.407e-5
-1.017, 3.407e-5
-1.018, 3.099e-5
-1.019, 3.407e-5
-1.020, 3.407e-5
-1.021, 3.407e-5
-1.022, 3.407e-5
-1.023, 3.407e-5
-1.024, 3.407e-5
-1.025, 3.407e-5
-1.026, 3.407e-5
-1.027, 3.407e-5
-1.028, 3.407e-5
-1.029, 3.407e-5
-1.030, 3.407e-5
-1.031, 3.407e-5
-1.032, 3.715e-5
-1.033, 3.715e-5
-1.034, 3.407e-5
-1.035, 3.715e-5
-1.036, 3.715e-5
-1.037, 3.715e-5
-1.038, 3.715e-5
-1.039, 3.715e-5
-1.040, 3.715e-5
-1.041, 3.715e-5
-1.042, 3.715e-5
-1.043, 3.715e-5
-1.044, 3.715e-5
-1.045, 3.715e-5
-1.046, 3.715e-5
-1.047, 3.715e-5
-1.048, 3.715e-5
-1.049, 3.715e-5
-1.050, 3.715e-5
-1.051, 3.715e-5
-1.052, 3.715e-5
-1.053, 3.715e-5
-1.054, 3.715e-5
-1.055, 3.715e-5
-1.056, 3.715e-5
-1.057, 3.715e-5
-1.058, 3.715e-5
-1.059, 3.715e-5
-1.060, 3.715e-5
-1.061, 3.715e-5
-1.062, 3.715e-5
-1.063, 3.715e-5
-1.064, 3.715e-5
-1.065, 3.715e-5
-1.066, 4.024e-5
-1.067, 3.715e-5
-1.068, 4.024e-5
-1.069, 4.024e-5
-1.070, 4.024e-5
-1.071, 4.024e-5
-1.072, 4.024e-5
-1.073, 4.024e-5
-1.074, 3.715e-5
-1.075, 4.024e-5
-1.076, 4.024e-5
-1.077, 4.024e-5
-1.078, 4.024e-5
-1.079, 4.024e-5
-1.080, 4.024e-5
-1.081, 4.024e-5
-1.082, 4.024e-5
-1.083, 4.024e-5
-1.084, 4.024e-5
-1.085, 4.024e-5
-1.086, 4.024e-5
-1.087, 4.024e-5
-1.088, 4.024e-5
-1.089, 4.024e-5
-1.090, 4.024e-5
-1.091, 4.024e-5
-1.092, 4.024e-5
-1.093, 4.024e-5
-1.094, 4.024e-5
-1.095, 4.024e-5
-1.096, 4.024e-5
-1.097, 4.024e-5
-1.098, 4.024e-5
-1.099, 4.024e-5
-1.100, 4.024e-5
-1.101, 4.024e-5
-1.102, 4.024e-5
-1.103, 4.024e-5
-1.104, 4.024e-5
-1.105, 4.024e-5
-1.106, 4.024e-5
-1.107, 4.332e-5
-1.108, 4.024e-5
-1.109, 4.332e-5
-1.110, 4.024e-5
-1.111, 4.024e-5
-1.112, 4.332e-5
-1.113, 4.024e-5
-1.114, 4.332e-5
-1.115, 4.332e-5
-1.116, 4.332e-5
-1.117, 4.332e-5
-1.118, 4.024e-5
-1.119, 4.024e-5
-1.120, 4.024e-5
-1.121, 4.332e-5
-1.122, 4.024e-5
-1.123, 4.332e-5
-1.124, 4.024e-5
-1.125, 4.332e-5
-1.126, 4.024e-5
-1.127, 4.332e-5
-1.128, 4.332e-5
-1.129, 4.332e-5
-1.130, 4.332e-5
-1.131, 4.332e-5
-1.132, 4.332e-5
-1.133, 4.332e-5
-1.134, 4.332e-5
-1.135, 4.332e-5
-1.136, 4.332e-5
-1.137, 4.332e-5
-1.138, 4.332e-5
-1.139, 4.332e-5
-1.140, 4.332e-5
-1.141, 4.332e-5
-1.142, 4.332e-5
-1.143, 4.332e-5
-1.144, 4.024e-5
-1.145, 4.332e-5
-1.146, 4.332e-5
-1.147, 4.332e-5
-1.148, 4.332e-5
-1.149, 4.332e-5
-1.150, 4.332e-5
-1.151, 4.332e-5
-1.152, 4.640e-5
-1.153, 4.332e-5
-1.154, 4.332e-5
-1.155, 4.332e-5
-1.156, 4.332e-5
-1.157, 4.332e-5
-1.158, 4.332e-5
-1.159, 4.640e-5
-1.160, 4.332e-5
-1.161, 4.332e-5
-1.162, 4.332e-5
-1.163, 4.332e-5
-1.164, 4.640e-5
-1.165, 4.332e-5
-1.166, 4.640e-5
-1.167, 4.332e-5
-1.168, 4.640e-5
-1.169, 4.332e-5
-1.170, 4.640e-5
-1.171, 4.332e-5
-1.172, 4.640e-5
-1.173, 4.640e-5
-1.174, 4.332e-5
-1.175, 4.640e-5
-1.176, 4.640e-5
-1.177, 4.640e-5
-1.178, 4.640e-5
-1.179, 4.640e-5
-1.180, 4.640e-5
-1.181, 4.640e-5
-1.182, 4.640e-5
-1.183, 4.640e-5
-1.184, 4.640e-5
-1.185, 4.640e-5
-1.186, 4.640e-5
-1.187, 4.640e-5
-1.188, 4.640e-5
-1.189, 4.640e-5
-1.190, 4.640e-5
-1.191, 4.640e-5
-1.192, 4.640e-5
-1.193, 4.640e-5
-1.194, 4.640e-5
-1.195, 4.640e-5
-1.196, 4.640e-5
-1.197, 4.640e-5
-1.198, 4.640e-5
-1.199, 4.640e-5
-1.200, 4.640e-5
-1.201, 4.640e-5
-1.202, 4.949e-5
-1.203, 4.640e-5
-1.204, 4.949e-5
-1.205, 4.949e-5
-1.206, 4.949e-5
-1.207, 4.949e-5
-1.208, 4.949e-5
-1.209, 4.949e-5
-1.210, 4.949e-5
-1.211, 4.949e-5
-1.212, 4.949e-5
-1.213, 4.949e-5
-1.214, 4.949e-5
-1.215, 4.949e-5
-1.216, 4.949e-5
-1.217, 4.949e-5
-1.218, 4.949e-5
-1.219, 4.949e-5
-1.220, 4.949e-5
-1.221, 4.949e-5
-1.222, 5.257e-5
-1.223, 4.949e-5
-1.224, 4.949e-5
-1.225, 5.257e-5
-1.226, 5.257e-5
-1.227, 5.257e-5
-1.228, 5.257e-5
-1.229, 5.257e-5
-1.230, 5.257e-5
-1.231, 5.257e-5
-1.232, 5.257e-5
-1.233, 5.257e-5
-1.234, 5.565e-5
-1.235, 5.257e-5
-1.236, 5.565e-5
-1.237, 5.257e-5
-1.238, 5.257e-5
-1.239, 5.565e-5
-1.240, 5.565e-5
-1.241, 5.565e-5
-1.242, 5.565e-5
-1.243, 5.565e-5
-1.244, 5.565e-5
-1.245, 5.565e-5
-1.246, 5.565e-5
-1.247, 5.873e-5
-1.248, 5.565e-5
-1.249, 5.565e-5
-1.250, 5.873e-5
-1.251, 5.873e-5
-1.252, 5.873e-5
-1.253, 5.873e-5
-1.254, 5.873e-5
-1.255, 5.873e-5
-1.256, 5.873e-5
-1.257, 6.182e-5
-1.258, 6.182e-5
-1.259, 6.182e-5
-1.260, 6.182e-5
-1.261, 6.182e-5
-1.262, 6.182e-5
-1.263, 6.182e-5
-1.264, 6.182e-5
-1.265, 6.490e-5
-1.266, 6.490e-5
-1.267, 6.490e-5
-1.268, 6.490e-5
-1.269, 6.490e-5
-1.270, 6.490e-5
-1.271, 6.490e-5
-1.272, 6.798e-5
-1.273, 6.798e-5
-1.274, 6.798e-5
-1.275, 6.798e-5
-1.276, 6.798e-5
-1.277, 6.798e-5
-1.278, 6.798e-5
-1.279, 7.107e-5
-1.280, 7.107e-5
-1.281, 7.107e-5
-1.282, 7.107e-5
-1.283, 7.415e-5
-1.284, 7.415e-5
-1.285, 7.415e-5
-1.286, 7.415e-5
-1.287, 7.415e-5
-1.288, 7.723e-5
-1.289, 7.723e-5
-1.290, 7.723e-5
-1.291, 7.723e-5
-1.292, 8.032e-5
-1.293, 8.032e-5
-1.294, 8.032e-5
-1.295, 8.032e-5
-1.296, 8.032e-5
-1.297, 8.340e-5
-1.298, 8.340e-5
-1.299, 8.340e-5
-1.300, 8.340e-5
-1.301, 8.648e-5
-1.302, 8.648e-5
-1.303, 8.648e-5
-1.304, 8.957e-5
-1.305, 8.957e-5
-1.306, 8.957e-5
-1.307, 8.957e-5
-1.308, 9.265e-5
-1.309, 9.265e-5
-1.310, 9.265e-5
-1.311, 9.573e-5
-1.312, 9.573e-5
-1.313, 9.573e-5
-1.314, 9.882e-5
-1.315, 9.882e-5
-1.316, 9.882e-5
-1.317, 1.019e-4
-1.318, 1.019e-4
-1.319, 1.019e-4
-1.320, 1.050e-4
-1.321, 1.050e-4
-1.322, 1.081e-4
-1.323, 1.081e-4
-1.324, 1.081e-4
-1.325, 1.111e-4
-1.326, 1.111e-4
-1.327, 1.142e-4
-1.328, 1.142e-4
-1.329, 1.142e-4
-1.330, 1.173e-4
-1.331, 1.173e-4
-1.332, 1.204e-4
-1.333, 1.204e-4
-1.334, 1.204e-4
-1.335, 1.235e-4
-1.336, 1.235e-4
-1.337, 1.266e-4
-1.338, 1.296e-4
-1.339, 1.296e-4
-1.340, 1.327e-4
-1.341, 1.327e-4
-1.342, 1.327e-4
-1.343, 1.358e-4
-1.344, 1.389e-4
-1.345, 1.389e-4
-1.346, 1.420e-4
-1.347, 1.420e-4
-1.348, 1.451e-4
-1.349, 1.451e-4
-1.350, 1.481e-4
-1.351, 1.481e-4
-1.352, 1.512e-4
-1.353, 1.512e-4
-1.354, 1.543e-4
-1.355, 1.574e-4
-1.356, 1.605e-4
-1.357, 1.605e-4
-1.358, 1.636e-4
-1.359, 1.636e-4
-1.360, 1.666e-4
-1.361, 1.697e-4
-1.362, 1.697e-4
-1.363, 1.728e-4
-1.364, 1.759e-4
-1.365, 1.759e-4
-1.366, 1.790e-4
-1.367, 1.821e-4
-1.368, 1.821e-4
-1.369, 1.851e-4
-1.370, 1.882e-4
-1.371, 1.913e-4
-1.372, 1.944e-4
-1.373, 1.975e-4
-1.374, 1.975e-4
-1.375, 2.006e-4
-1.376, 2.036e-4
-1.377, 2.036e-4
-1.378, 2.098e-4
-1.379, 2.129e-4
-1.380, 2.129e-4
-1.381, 2.160e-4
-1.382, 2.191e-4
-1.383, 2.221e-4
-1.384, 2.221e-4
-1.385, 2.283e-4
-1.386, 2.283e-4
-1.387, 2.314e-4
-1.388, 2.345e-4
-1.389, 2.376e-4
-1.390, 2.406e-4
-1.391, 2.437e-4
-1.392, 2.437e-4
-1.393, 2.468e-4
-1.394, 2.530e-4
-1.395, 2.530e-4
-1.396, 2.591e-4
-1.397, 2.622e-4
-1.398, 2.622e-4
-1.399, 2.684e-4
-1.400, 2.684e-4
-1.401, 2.746e-4
-1.402, 2.776e-4
-1.403, 2.807e-4
-1.404, 2.838e-4
-1.405, 2.869e-4
-1.406, 2.900e-4
-1.407, 2.931e-4
-1.408, 2.961e-4
-1.409, 2.992e-4
-1.410, 3.023e-4
-1.411, 3.054e-4
-1.412, 3.115e-4
-1.413, 3.146e-4
-1.414, 3.177e-4
-1.415, 3.208e-4
-1.416, 3.239e-4
-1.417, 3.270e-4
-1.418, 3.300e-4
-1.419, 3.331e-4
-1.420, 3.393e-4
-1.421, 3.424e-4
-1.422, 3.455e-4
-1.423, 3.485e-4
-1.424, 3.516e-4
-1.425, 3.578e-4
-1.426, 3.609e-4
-1.427, 3.640e-4
-1.428, 3.670e-4
-1.429, 3.732e-4
-1.430, 3.763e-4
-1.431, 3.794e-4
-1.432, 3.855e-4
-1.433, 3.855e-4
-1.434, 3.917e-4
-1.435, 3.948e-4
-1.436, 4.010e-4
-1.437, 4.040e-4
-1.438, 4.102e-4
-1.439, 4.133e-4
-1.440, 4.164e-4
-1.441, 4.225e-4
-1.442, 4.256e-4
-1.443, 4.287e-4
-1.444, 4.349e-4
-1.445, 4.380e-4
-1.446, 4.441e-4
-1.447, 4.472e-4
-1.448, 4.534e-4
-1.449, 4.565e-4
-1.450, 4.595e-4
-1.451, 4.657e-4
-1.452, 4.688e-4
-1.453, 4.719e-4
-1.454, 4.780e-4
-1.455, 4.842e-4
-1.456, 4.873e-4
-1.457, 4.935e-4
-1.458, 4.965e-4
-1.459, 5.027e-4
-1.460, 5.058e-4
-1.461, 5.120e-4
-1.462, 5.150e-4
-1.463, 5.212e-4
-1.464, 5.243e-4
-1.465, 5.305e-4
-1.466, 5.335e-4
-1.467, 5.397e-4
-1.468, 5.428e-4
-1.469, 5.489e-4
-1.470, 5.551e-4
-1.471, 5.582e-4
-1.472, 5.644e-4
-1.473, 5.705e-4
-1.474, 5.736e-4
-1.475, 5.798e-4
-1.476, 5.859e-4
-1.477, 5.890e-4
-1.478, 5.921e-4
-1.479, 5.983e-4
-1.480, 6.044e-4
-1.481, 6.075e-4
-1.482, 6.137e-4
-1.483, 6.199e-4
-1.484, 6.260e-4
-1.485, 6.322e-4
-1.486, 6.384e-4
-1.487, 6.445e-4
-1.488, 6.476e-4
-1.489, 6.538e-4
-1.490, 6.569e-4
-1.491, 6.630e-4
-1.492, 6.692e-4
-1.493, 6.754e-4
-1.494, 6.815e-4
-1.495, 6.877e-4
-1.496, 6.939e-4
-1.497, 7.000e-4
-1.498, 7.031e-4
-1.499, 7.093e-4
-1.500, 7.154e-4
-1.501, 7.216e-4
-1.502, 7.278e-4
-1.503, 7.339e-4
-1.504, 7.401e-4
-1.505, 7.463e-4
-1.506, 7.524e-4
-1.507, 7.555e-4
-1.508, 7.617e-4
-1.509, 7.679e-4
-1.510, 7.740e-4
-1.511, 7.833e-4
-1.512, 7.894e-4
-1.513, 7.956e-4
-1.514, 7.987e-4
-1.515, 8.079e-4
-1.516, 8.141e-4
-1.517, 8.172e-4
-1.518, 8.264e-4
-1.519, 8.295e-4
-1.520, 8.388e-4
-1.521, 8.449e-4
-1.522, 8.542e-4
-1.523, 8.573e-4
-1.524, 8.634e-4
-1.525, 8.696e-4
-1.526, 8.758e-4
-1.527, 8.819e-4
-1.528, 8.881e-4
-1.529, 8.973e-4
-1.530, 9.035e-4
-1.531, 9.097e-4
-1.532, 9.158e-4
-1.533, 9.220e-4
-1.534, 9.282e-4
-1.535, 9.374e-4
-1.536, 9.467e-4
-1.537, 9.559e-4
-1.538, 9.621e-4
-1.539, 9.683e-4
-1.540, 9.744e-4
-1.541, 9.806e-4
-1.542, 9.898e-4
-1.543, 9.929e-4
-1.544, 1.002e-3
-1.545, 1.008e-3
-1.546, 1.014e-3
-1.547, 1.021e-3
-1.548, 1.027e-3
-1.549, 1.036e-3
-1.550, 1.042e-3
-1.551, 1.051e-3
-1.552, 1.058e-3
-1.553, 1.067e-3
-1.554, 1.076e-3
-1.555, 1.082e-3
-1.556, 1.088e-3
-1.557, 1.095e-3
-1.558, 1.104e-3
-1.559, 1.110e-3
-1.560, 1.119e-3
-1.561, 1.129e-3
-1.562, 1.138e-3
-1.563, 1.147e-3
-1.564, 1.153e-3
-1.565, 1.159e-3
-1.566, 1.166e-3
-1.567, 1.172e-3
-1.568, 1.178e-3
-1.569, 1.187e-3
-1.570, 1.199e-3
-1.571, 1.206e-3
-1.572, 1.215e-3
-1.573, 1.221e-3
-1.574, 1.230e-3
-1.575, 1.233e-3
-1.576, 1.243e-3
-1.577, 1.252e-3
-1.578, 1.264e-3
-1.579, 1.273e-3
-1.580, 1.286e-3
-1.581, 1.292e-3
-1.582, 1.298e-3
-1.583, 1.304e-3
-1.584, 1.310e-3
-1.585, 1.320e-3
-1.586, 1.329e-3
-1.587, 1.338e-3
-1.588, 1.351e-3
-1.589, 1.363e-3
-1.590, 1.375e-3
-1.591, 1.381e-3
-1.592, 1.391e-3
-1.593, 1.397e-3
-1.594, 1.406e-3
-1.595, 1.415e-3
-1.596, 1.421e-3
-1.597, 1.437e-3
-1.598, 1.449e-3
-1.599, 1.462e-3
-1.600, 1.471e-3
-1.601, 1.480e-3
-1.602, 1.483e-3
-1.603, 1.492e-3
-1.604, 1.502e-3
-1.605, 1.511e-3
-1.606, 1.526e-3
-1.607, 1.542e-3
-1.608, 1.554e-3
-1.609, 1.563e-3
-1.610, 1.573e-3
-1.611, 1.579e-3
-1.612, 1.585e-3
-1.613, 1.597e-3
-1.614, 1.610e-3
-1.615, 1.625e-3
-1.616, 1.640e-3
-1.617, 1.656e-3
-1.618, 1.665e-3
-1.619, 1.671e-3
-1.620, 1.680e-3
-1.621, 1.684e-3
-1.622, 1.696e-3
-1.623, 1.708e-3
-1.624, 1.727e-3
-1.625, 1.742e-3
-1.626, 1.754e-3
-1.627, 1.764e-3
-1.628, 1.773e-3
-1.629, 1.782e-3
-1.630, 1.791e-3
-1.631, 1.804e-3
-1.632, 1.819e-3
-1.633, 1.835e-3
-1.634, 1.850e-3
-1.635, 1.862e-3
-1.636, 1.875e-3
-1.637, 1.881e-3
-1.638, 1.887e-3
-1.639, 1.899e-3
-1.640, 1.912e-3
-1.641, 1.927e-3
-1.642, 1.946e-3
-1.643, 1.961e-3
-1.644, 1.976e-3
-1.645, 1.986e-3
-1.646, 1.992e-3
-1.647, 2.001e-3
-1.648, 2.013e-3
-1.649, 2.029e-3
-1.650, 2.044e-3
-1.651, 2.060e-3
-1.652, 2.075e-3
-1.653, 2.087e-3
-1.654, 2.097e-3
-1.655, 2.109e-3
-1.656, 2.121e-3
-1.657, 2.137e-3
-1.658, 2.149e-3
-1.659, 2.164e-3
-1.660, 2.180e-3
-1.661, 2.192e-3
-1.662, 2.205e-3
-1.663, 2.220e-3
-1.664, 2.235e-3
-1.665, 2.254e-3
-1.666, 2.266e-3
-1.667, 2.282e-3
-1.668, 2.294e-3
-1.669, 2.306e-3
-1.670, 2.319e-3
-1.671, 2.337e-3
-1.672, 2.356e-3
-1.673, 2.365e-3
-1.674, 2.383e-3
-1.675, 2.399e-3
-1.676, 2.414e-3
-1.677, 2.427e-3
-1.678, 2.442e-3
-1.679, 2.457e-3
-1.680, 2.476e-3
-1.681, 2.494e-3
-1.682, 2.513e-3
-1.683, 2.528e-3
-1.684, 2.541e-3
-1.685, 2.550e-3
-1.686, 2.562e-3
-1.687, 2.581e-3
-1.688, 2.605e-3
-1.689, 2.627e-3
-1.690, 2.645e-3
-1.691, 2.658e-3
-1.692, 2.670e-3
-1.693, 2.682e-3
-1.694, 2.701e-3
-1.695, 2.719e-3
-1.696, 2.738e-3
-1.697, 2.760e-3
-1.698, 2.781e-3
-1.699, 2.797e-3
-1.700, 2.797e-3
-1.699, 2.769e-3
-1.698, 2.747e-3
-1.697, 2.729e-3
-1.696, 2.716e-3
-1.695, 2.710e-3
-1.694, 2.698e-3
-1.693, 2.686e-3
-1.692, 2.667e-3
-1.691, 2.652e-3
-1.690, 2.630e-3
-1.689, 2.605e-3
-1.688, 2.593e-3
-1.687, 2.584e-3
-1.686, 2.575e-3
-1.685, 2.553e-3
-1.684, 2.538e-3
-1.683, 2.519e-3
-1.682, 2.501e-3
-1.681, 2.485e-3
-1.680, 2.464e-3
-1.679, 2.451e-3
-1.678, 2.436e-3
-1.677, 2.427e-3
-1.676, 2.408e-3
-1.675, 2.396e-3
-1.674, 2.374e-3
-1.673, 2.359e-3
-1.672, 2.343e-3
-1.671, 2.325e-3
-1.670, 2.312e-3
-1.669, 2.300e-3
-1.668, 2.291e-3
-1.667, 2.272e-3
-1.666, 2.260e-3
-1.665, 2.242e-3
-1.664, 2.220e-3
-1.663, 2.208e-3
-1.662, 2.189e-3
-1.661, 2.177e-3
-1.660, 2.168e-3
-1.659, 2.158e-3
-1.658, 2.146e-3
-1.657, 2.124e-3
-1.656, 2.106e-3
-1.655, 2.087e-3
-1.654, 2.072e-3
-1.653, 2.066e-3
-1.652, 2.047e-3
-1.651, 2.038e-3
-1.650, 2.029e-3
-1.649, 2.013e-3
-1.648, 1.998e-3
-1.647, 1.973e-3
-1.646, 1.958e-3
-1.645, 1.943e-3
-1.644, 1.936e-3
-1.643, 1.933e-3
-1.642, 1.918e-3
-1.641, 1.909e-3
-1.640, 1.893e-3
-1.639, 1.875e-3
-1.638, 1.853e-3
-1.637, 1.835e-3
-1.636, 1.822e-3
-1.635, 1.813e-3
-1.634, 1.810e-3
-1.633, 1.801e-3
-1.632, 1.788e-3
-1.631, 1.770e-3
-1.630, 1.754e-3
-1.629, 1.739e-3
-1.628, 1.727e-3
-1.627, 1.714e-3
-1.626, 1.705e-3
-1.625, 1.696e-3
-1.624, 1.684e-3
-1.623, 1.671e-3
-1.622, 1.659e-3
-1.621, 1.647e-3
-1.620, 1.628e-3
-1.619, 1.616e-3
-1.618, 1.606e-3
-1.617, 1.597e-3
-1.616, 1.588e-3
-1.615, 1.579e-3
-1.614, 1.563e-3
-1.613, 1.548e-3
-1.612, 1.536e-3
-1.611, 1.523e-3
-1.610, 1.511e-3
-1.609, 1.505e-3
-1.608, 1.492e-3
-1.607, 1.483e-3
-1.606, 1.471e-3
-1.605, 1.458e-3
-1.604, 1.446e-3
-1.603, 1.434e-3
-1.602, 1.425e-3
-1.601, 1.415e-3
-1.600, 1.406e-3
-1.599, 1.397e-3
-1.598, 1.384e-3
-1.597, 1.372e-3
-1.596, 1.363e-3
-1.595, 1.347e-3
-1.594, 1.338e-3
-1.593, 1.329e-3
-1.592, 1.320e-3
-1.591, 1.314e-3
-1.590, 1.301e-3
-1.589, 1.292e-3
-1.588, 1.280e-3
-1.587, 1.267e-3
-1.586, 1.258e-3
-1.585, 1.252e-3
-1.584, 1.246e-3
-1.583, 1.236e-3
-1.582, 1.227e-3
-1.581, 1.212e-3
-1.580, 1.206e-3
-1.579, 1.193e-3
-1.578, 1.184e-3
-1.577, 1.175e-3
-1.576, 1.169e-3
-1.575, 1.159e-3
-1.574, 1.150e-3
-1.573, 1.141e-3
-1.572, 1.132e-3
-1.571, 1.122e-3
-1.570, 1.110e-3
-1.569, 1.101e-3
-1.568, 1.095e-3
-1.567, 1.085e-3
-1.566, 1.079e-3
-1.565, 1.067e-3
-1.564, 1.058e-3
-1.563, 1.048e-3
-1.562, 1.039e-3
-1.561, 1.030e-3
-1.560, 1.024e-3
-1.559, 1.018e-3
-1.558, 1.008e-3
-1.557, 1.002e-3
-1.556, 9.929e-4
-1.555, 9.868e-4
-1.554, 9.744e-4
-1.553, 9.652e-4
-1.552, 9.559e-4
-1.551, 9.498e-4
-1.550, 9.436e-4
-1.549, 9.343e-4
-1.548, 9.313e-4
-1.547, 9.220e-4
-1.546, 9.128e-4
-1.545, 9.035e-4
-1.544, 8.943e-4
-1.543, 8.881e-4
-1.542, 8.788e-4
-1.541, 8.727e-4
-1.540, 8.665e-4
-1.539, 8.573e-4
-1.538, 8.480e-4
-1.537, 8.418e-4
-1.536, 8.326e-4
-1.535, 8.264e-4
-1.534, 8.172e-4
-1.533, 8.110e-4
-1.532, 8.079e-4
-1.531, 8.018e-4
-1.530, 7.956e-4
-1.529, 7.833e-4
-1.528, 7.771e-4
-1.527, 7.679e-4
-1.526, 7.617e-4
-1.525, 7.524e-4
-1.524, 7.463e-4
-1.523, 7.401e-4
-1.522, 7.370e-4
-1.521, 7.309e-4
-1.520, 7.247e-4
-1.519, 7.185e-4
-1.518, 7.093e-4
-1.517, 7.031e-4
-1.516, 6.969e-4
-1.515, 6.908e-4
-1.514, 6.846e-4
-1.513, 6.815e-4
-1.512, 6.754e-4
-1.511, 6.692e-4
-1.510, 6.599e-4
-1.509, 6.538e-4
-1.508, 6.476e-4
-1.507, 6.414e-4
-1.506, 6.322e-4
-1.505, 6.291e-4
-1.504, 6.260e-4
-1.503, 6.199e-4
-1.502, 6.137e-4
-1.501, 6.075e-4
-1.500, 5.983e-4
-1.499, 5.921e-4
-1.498, 5.890e-4
-1.497, 5.829e-4
-1.496, 5.798e-4
-1.495, 5.736e-4
-1.494, 5.705e-4
-1.493, 5.613e-4
-1.492, 5.551e-4
-1.491, 5.489e-4
-1.490, 5.428e-4
-1.489, 5.366e-4
-1.488, 5.335e-4
-1.487, 5.305e-4
-1.486, 5.243e-4
-1.485, 5.212e-4
-1.484, 5.120e-4
-1.483, 5.089e-4
-1.482, 5.027e-4
-1.481, 4.965e-4
-1.480, 4.904e-4
-1.479, 4.873e-4
-1.478, 4.811e-4
-1.477, 4.750e-4
-1.476, 4.719e-4
-1.475, 4.657e-4
-1.474, 4.626e-4
-1.473, 4.565e-4
-1.472, 4.534e-4
-1.471, 4.472e-4
-1.470, 4.410e-4
-1.469, 4.380e-4
-1.468, 4.318e-4
-1.467, 4.287e-4
-1.466, 4.225e-4
-1.465, 4.195e-4
-1.464, 4.133e-4
-1.463, 4.102e-4
-1.462, 4.040e-4
-1.461, 4.010e-4
-1.460, 3.948e-4
-1.459, 3.917e-4
-1.458, 3.855e-4
-1.457, 3.825e-4
-1.456, 3.794e-4
-1.455, 3.732e-4
-1.454, 3.701e-4
-1.453, 3.670e-4
-1.452, 3.609e-4
-1.451, 3.578e-4
-1.450, 3.516e-4
-1.449, 3.485e-4
-1.448, 3.424e-4
-1.447, 3.393e-4
-1.446, 3.362e-4
-1.445, 3.331e-4
-1.444, 3.270e-4
-1.443, 3.239e-4
-1.442, 3.177e-4
-1.441, 3.146e-4
-1.440, 3.115e-4
-1.439, 3.085e-4
-1.438, 3.054e-4
-1.437, 2.992e-4
-1.436, 2.961e-4
-1.435, 2.900e-4
-1.434, 2.869e-4
-1.433, 2.838e-4
-1.432, 2.807e-4
-1.431, 2.776e-4
-1.430, 2.715e-4
-1.429, 2.684e-4
-1.428, 2.653e-4
-1.427, 2.622e-4
-1.426, 2.591e-4
-1.425, 2.530e-4
-1.424, 2.499e-4
-1.423, 2.468e-4
-1.422, 2.437e-4
-1.421, 2.406e-4
-1.420, 2.376e-4
-1.419, 2.345e-4
-1.418, 2.314e-4
-1.417, 2.283e-4
-1.416, 2.252e-4
-1.415, 2.191e-4
-1.414, 2.160e-4
-1.413, 2.129e-4
-1.412, 2.098e-4
-1.411, 2.098e-4
-1.410, 2.067e-4
-1.409, 2.036e-4
-1.408, 1.975e-4
-1.407, 1.944e-4
-1.406, 1.913e-4
-1.405, 1.882e-4
-1.404, 1.851e-4
-1.403, 1.821e-4
-1.402, 1.821e-4
-1.401, 1.759e-4
-1.400, 1.759e-4
-1.399, 1.728e-4
-1.398, 1.697e-4
-1.397, 1.666e-4
-1.396, 1.636e-4
-1.395, 1.605e-4
-1.394, 1.574e-4
-1.393, 1.543e-4
-1.392, 1.512e-4
-1.391, 1.512e-4
-1.390, 1.481e-4
-1.389, 1.451e-4
-1.388, 1.420e-4
-1.387, 1.389e-4
-1.386, 1.358e-4
-1.385, 1.327e-4
-1.384, 1.296e-4
-1.383, 1.296e-4
-1.382, 1.266e-4
-1.381, 1.235e-4
-1.380, 1.204e-4
-1.379, 1.204e-4
-1.378, 1.173e-4
-1.377, 1.142e-4
-1.376, 1.111e-4
-1.375, 1.111e-4
-1.374, 1.081e-4
-1.373, 1.050e-4
-1.372, 1.019e-4
-1.371, 1.019e-4
-1.370, 9.882e-5
-1.369, 9.573e-5
-1.368, 9.573e-5
-1.367, 9.265e-5
-1.366, 8.957e-5
-1.365, 8.648e-5
-1.364, 8.648e-5
-1.363, 8.340e-5
-1.362, 8.032e-5
-1.361, 8.032e-5
-1.360, 7.723e-5
-1.359, 7.415e-5
-1.358, 7.415e-5
-1.357, 7.415e-5
-1.356, 7.107e-5
-1.355, 6.798e-5
-1.354, 6.490e-5
-1.353, 6.490e-5
-1.352, 6.182e-5
-1.351, 6.182e-5
-1.350, 5.873e-5
-1.349, 5.873e-5
-1.348, 5.565e-5
-1.347, 5.565e-5
-1.346, 5.257e-5
-1.345, 4.949e-5
-1.344, 4.949e-5
-1.343, 4.640e-5
-1.342, 4.640e-5
-1.341, 4.332e-5
-1.340, 4.332e-5
-1.339, 4.024e-5
-1.338, 4.024e-5
-1.337, 3.715e-5
-1.336, 3.715e-5
-1.335, 3.407e-5
-1.334, 3.407e-5
-1.333, 3.407e-5
-1.332, 3.099e-5
-1.331, 2.790e-5
-1.330, 2.790e-5
-1.329, 2.790e-5
-1.328, 2.482e-5
-1.327, 2.482e-5
-1.326, 2.174e-5
-1.325, 2.174e-5
-1.324, 1.865e-5
-1.323, 1.865e-5
-1.322, 1.865e-5
-1.321, 1.557e-5
-1.320, 1.557e-5
-1.319, 1.557e-5
-1.318, 1.249e-5
-1.317, 1.249e-5
-1.316, 9.405e-6
-1.315, 9.405e-6
-1.314, 6.322e-6
-1.313, 6.322e-6
-1.312, 6.322e-6
-1.311, 3.239e-6
-1.310, 3.239e-6
-1.309, 3.239e-6
-1.308, 1.559e-7
-1.307, 1.559e-7
-1.306, 1.559e-7
-1.305, 1.559e-7
-1.304, -2.927e-6
-1.303, -2.927e-6
-1.302, -2.927e-6
-1.301, -2.927e-6
-1.300, -6.010e-6
-1.299, -6.010e-6
-1.298, -6.010e-6
-1.297, -9.093e-6
-1.296, -9.093e-6
-1.295, -9.093e-6
-1.294, -9.093e-6
-1.293, -1.218e-5
-1.292, -1.218e-5
-1.291, -1.218e-5
-1.290, -1.526e-5
-1.289, -1.526e-5
-1.288, -1.526e-5
-1.287, -1.526e-5
-1.286, -1.834e-5
-1.285, -1.834e-5
-1.284, -1.834e-5
-1.283, -1.834e-5
-1.282, -1.834e-5
-1.281, -2.143e-5
-1.280, -1.834e-5
-1.279, -2.143e-5
-1.278, -2.143e-5
-1.277, -2.143e-5
-1.276, -2.451e-5
-1.275, -2.451e-5
-1.274, -2.451e-5
-1.273, -2.451e-5
-1.272, -2.451e-5
-1.271, -2.451e-5
-1.270, -2.759e-5
-1.269, -2.451e-5
-1.268, -2.759e-5
-1.267, -2.759e-5
-1.266, -2.759e-5
-1.265, -2.759e-5
-1.264, -3.068e-5
-1.263, -3.068e-5
-1.262, -2.759e-5
-1.261, -3.068e-5
-1.260, -3.068e-5
-1.259, -3.068e-5
-1.258, -3.068e-5
-1.257, -3.068e-5
-1.256, -3.068e-5
-1.255, -3.376e-5
-1.254, -3.376e-5
-1.253, -3.376e-5
-1.252, -3.376e-5
-1.251, -3.376e-5
-1.250, -3.376e-5
-1.249, -3.376e-5
-1.248, -3.376e-5
-1.247, -3.376e-5
-1.246, -3.684e-5
-1.245, -3.684e-5
-1.244, -3.684e-5
-1.243, -3.684e-5
-1.242, -3.684e-5
-1.241, -3.684e-5
-1.240, -3.684e-5
-1.239, -3.684e-5
-1.238, -3.684e-5
-1.237, -3.684e-5
-1.236, -3.684e-5
-1.235, -3.684e-5
-1.234, -3.992e-5
-1.233, -3.992e-5
-1.232, -3.992e-5
-1.231, -3.992e-5
-1.230, -3.992e-5
-1.229, -3.992e-5
-1.228, -3.992e-5
-1.227, -3.992e-5
-1.226, -3.992e-5
-1.225, -4.301e-5
-1.224, -3.992e-5
-1.223, -3.992e-5
-1.222, -3.992e-5
-1.221, -3.992e-5
-1.220, -3.992e-5
-1.219, -3.992e-5
-1.218, -4.301e-5
-1.217, -4.301e-5
-1.216, -4.301e-5
-1.215, -3.992e-5
-1.214, -4.301e-5
-1.213, -4.301e-5
-1.212, -4.301e-5
-1.211, -4.301e-5
-1.210, -4.301e-5
-1.209, -4.301e-5
-1.208, -4.301e-5
-1.207, -4.301e-5
-1.206, -4.301e-5
-1.205, -4.301e-5
-1.204, -4.301e-5
-1.203, -4.301e-5
-1.202, -4.301e-5
-1.201, -4.301e-5
-1.200, -4.301e-5
-1.199, -4.301e-5
-1.198, -4.301e-5
-1.197, -4.301e-5
-1.196, -4.301e-5
-1.195, -4.301e-5
-1.194, -4.301e-5
-1.193, -4.301e-5
-1.192, -4.301e-5
-1.191, -4.609e-5
-1.190, -4.301e-5
-1.189, -4.609e-5
-1.188, -4.609e-5
-1.187, -4.609e-5
-1.186, -4.301e-5
-1.185, -4.609e-5
-1.184, -4.609e-5
-1.183, -4.609e-5
-1.182, -4.609e-5
-1.181, -4.609e-5
-1.180, -4.609e-5
-1.179, -4.609e-5
-1.178, -4.609e-5
-1.177, -4.609e-5
-1.176, -4.609e-5
-1.175, -4.609e-5
-1.174, -4.609e-5
-1.173, -4.609e-5
-1.172, -4.609e-5
-1.171, -4.609e-5
-1.170, -4.609e-5
-1.169, -4.609e-5
-1.168, -4.609e-5
-1.167, -4.609e-5
-1.166, -4.609e-5
-1.165, -4.609e-5
-1.164, -4.609e-5
-1.163, -4.609e-5
-1.162, -4.609e-5
-1.161, -4.609e-5
-1.160, -4.609e-5
-1.159, -4.609e-5
-1.158, -4.609e-5
-1.157, -4.609e-5
-1.156, -4.609e-5
-1.155, -4.609e-5
-1.154, -4.609e-5
-1.153, -4.609e-5
-1.152, -4.609e-5
-1.151, -4.609e-5
-1.150, -4.609e-5
-1.149, -4.917e-5
-1.148, -4.609e-5
-1.147, -4.609e-5
-1.146, -4.609e-5
-1.145, -4.609e-5
-1.144, -4.609e-5
-1.143, -4.609e-5
-1.142, -4.609e-5
-1.141, -4.609e-5
-1.140, -4.917e-5
-1.139, -4.609e-5
-1.138, -4.609e-5
-1.137, -4.917e-5
-1.136, -4.917e-5
-1.135, -4.917e-5
-1.134, -4.609e-5
-1.133, -4.917e-5
-1.132, -4.917e-5
-1.131, -4.917e-5
-1.130, -4.917e-5
-1.129, -4.609e-5
-1.128, -4.609e-5
-1.127, -4.609e-5
-1.126, -4.917e-5
-1.125, -4.917e-5
-1.124, -4.917e-5
-1.123, -4.917e-5
-1.122, -4.917e-5
-1.121, -4.917e-5
-1.120, -4.917e-5
-1.119, -4.917e-5
-1.118, -4.917e-5
-1.117, -4.917e-5
-1.116, -4.917e-5
-1.115, -4.917e-5
-1.114, -4.917e-5
-1.113, -4.917e-5
-1.112, -4.917e-5
-1.111, -4.917e-5
-1.110, -4.917e-5
-1.109, -4.917e-5
-1.108, -4.917e-5
-1.107, -4.917e-5
-1.106, -4.917e-5
-1.105, -4.917e-5
-1.104, -4.917e-5
-1.103, -4.917e-5
-1.102, -4.917e-5
-1.101, -4.917e-5
-1.100, -4.917e-5
-1.099, -4.917e-5
-1.098, -4.917e-5
-1.097, -5.226e-5
-1.096, -4.917e-5
-1.095, -4.917e-5
-1.094, -4.917e-5
-1.093, -4.917e-5
-1.092, -5.226e-5
-1.091, -4.917e-5
-1.090, -5.226e-5
-1.089, -5.226e-5
-1.088, -5.226e-5
-1.087, -4.917e-5
-1.086, -5.226e-5
-1.085, -5.226e-5
-1.084, -5.226e-5
-1.083, -5.226e-5
-1.082, -5.226e-5
-1.081, -5.226e-5
-1.080, -5.226e-5
-1.079, -5.226e-5
-1.078, -5.226e-5
-1.077, -5.226e-5
-1.076, -5.226e-5
-1.075, -5.226e-5
-1.074, -5.226e-5
-1.073, -5.226e-5
-1.072, -5.226e-5
-1.071, -5.226e-5
-1.070, -5.226e-5
-1.069, -5.226e-5
-1.068, -5.534e-5
-1.067, -5.534e-5
-1.066, -5.226e-5
-1.065, -5.226e-5
-1.064, -5.534e-5
-1.063, -5.534e-5
-1.062, -5.534e-5
-1.061, -5.534e-5
-1.060, -5.534e-5
-1.059, -5.534e-5
-1.058, -5.534e-5
-1.057, -5.534e-5
-1.056, -5.534e-5
-1.055, -5.534e-5
-1.054, -5.534e-5
-1.053, -5.534e-5
-1.052, -5.534e-5
-1.051, -5.534e-5
-1.050, -5.534e-5
-1.049, -5.534e-5
-1.048, -5.534e-5
-1.047, -5.534e-5
-1.046, -5.534e-5
-1.045, -5.534e-5
-1.044, -5.534e-5
-1.043, -5.842e-5
-1.042, -5.842e-5
-1.041, -5.534e-5
-1.040, -5.534e-5
-1.039, -5.842e-5
-1.038, -5.842e-5
-1.037, -5.842e-5
-1.036, -5.842e-5
-1.035, -5.842e-5
-1.034, -5.842e-5
-1.033, -5.842e-5
-1.032, -5.842e-5
-1.031, -5.842e-5
-1.030, -5.842e-5
-1.029, -5.842e-5
-1.028, -5.842e-5
-1.027, -6.151e-5
-1.026, -5.842e-5
-1.025, -6.151e-5
-1.024, -5.842e-5
-1.023, -6.151e-5
-1.022, -6.151e-5
-1.021, -6.151e-5
-1.020, -6.151e-5
-1.019, -6.151e-5
-1.018, -6.151e-5
-1.017, -6.151e-5
-1.016, -6.151e-5
-1.015, -6.151e-5
-1.014, -6.459e-5
-1.013, -6.151e-5
-1.012, -6.459e-5
-1.011, -6.459e-5
-1.010, -6.459e-5
-1.009, -6.459e-5
-1.008, -6.459e-5
-1.007, -6.459e-5
-1.006, -6.459e-5
-1.005, -6.459e-5
-1.004, -6.459e-5
-1.003, -6.459e-5
-1.002, -6.459e-5
-1.001, -6.459e-5
