Potential V vs RHE, Current mA cm-2
0.4132999999999999,0.0028364961562293983
0.4122999999999999,0.0012927631858166706
0.4112999999999999,0.0008447241171494134
0.4102999999999999,0.0005753630856551104
0.4092999999999999,0.00036598581327508496
0.4082999999999999,0.00016354062626439825
0.4072999999999999,-1.9268367904161802e-05
0.4062999999999999,-0.00014203701450644967
0.4052999999999999,-0.0002969479018416712
0.4042999999999999,-0.0004520002603068792
0.4032999999999999,-0.0005817292865045031
0.4022999999999999,-0.0007199465805013171
0.4012999999999999,-0.000826049927991195
0.4002999999999999,-0.0009390853608504114
0.3992999999999999,-0.0010730585209476303
0.3982999999999999,-0.0012196226116136482
0.3972999999999999,-0.0013271406704033909
0.3962999999999999,-0.0014189554337646318
0.3952999999999999,-0.001509496956955994
0.3942999999999999,-0.0016085267479465466
0.39329999999999987,-0.0017400948988339953
0.39229999999999987,-0.001808001041227517
0.39129999999999987,-0.0019084455435179344
0.39029999999999987,-0.0019820105311109163
0.38929999999999987,-0.002075381476902009
0.38829999999999987,-0.002201290782589997
0.38729999999999987,-0.0022677822136836535
0.38629999999999987,-0.002356909025575151
0.38529999999999986,-0.0024347181470677284
0.38429999999999986,-0.0025295038041586856
0.38329999999999986,-0.002627118883849373
0.38229999999999986,-0.0027077574279416802
0.38129999999999986,-0.002788395972033987
0.38029999999999986,-0.002869034516126294
0.37929999999999986,-0.0029185494116215705
0.37829999999999986,-0.0030416292947098287
0.37729999999999986,-0.003126511972701731
0.37629999999999986,-0.0031746121568971422
0.37529999999999986,-0.003246762433190259
0.37429999999999986,-0.0033174979981835107
0.37329999999999985,-0.003415113077874198
0.37229999999999985,-0.00348584864286745
0.37129999999999985,-0.0035622430530601627
0.37029999999999985,-0.003627319772853954
0.36929999999999985,-0.0037122024508458563
0.36829999999999985,-0.0037914262836382987
0.36729999999999985,-0.00385084415823263
0.36629999999999985,-0.003903188476327636
0.36529999999999985,-0.003983827020419943
0.36429999999999985,-0.004070124409711711
0.36329999999999985,-0.004149348242504153
0.36229999999999984,-0.004208766117098485
0.36129999999999984,-0.004278086970791871
0.36029999999999984,-0.004351651958384852
0.35929999999999984,-0.00441814338947851
0.35829999999999984,-0.004493123088371356
0.35729999999999984,-0.004559614519465014
0.35629999999999984,-0.004609129414960289
0.35529999999999984,-0.004658644310455567
0.35429999999999984,-0.004736453431948143
0.35329999999999984,-0.004825580243839641
0.35229999999999984,-0.004862362737636131
0.35129999999999983,-0.004913292344431272
0.35029999999999983,-0.0049613925286266835
0.34929999999999983,-0.00502788395972034
0.34829999999999983,-0.0051198401942115675
0.34729999999999983,-0.005162281533207518
0.34629999999999983,-0.005207552294803201
0.34529999999999983,-0.005271214303297127
0.34429999999999983,-0.005330632177891458
0.3432999999999998,-0.005414100144583496
0.3422999999999998,-0.005456541483579447
0.3412999999999998,-0.0055230329146731035
0.3402999999999998,-0.00559235376836649
0.3392999999999998,-0.005654601065560552
0.3382999999999998,-0.005733824898352994
0.3372999999999998,-0.005770607392149484
0.3362999999999998,-0.005810219308545706
0.3352999999999998,-0.005849831224941926
0.3342999999999998,-0.005917737367335449
0.3332999999999998,-0.0059898876436285655
0.3322999999999998,-0.006043646673023437
0.3312999999999998,-0.006088917434619118
0.3302999999999998,-0.0061398470414142595
0.3292999999999998,-0.00618794722560967
0.3282999999999998,-0.006274244614901438
0.3272999999999998,-0.006318100665197253
0.3262999999999998,-0.00634498017989469
0.3252999999999999,-0.006388836230190506
0.3242999999999999,-0.006466645351683082
0.3232999999999999,-0.006537380916676334
0.3222999999999999,-0.006565675142673635
0.3212999999999999,-0.0066109459042693166
0.3202999999999999,-0.0066618755110644575
0.3192999999999999,-0.00672695223085825
0.3182999999999999,-0.0067821259715529865
0.3172999999999999,-0.006824567310548937
0.3162999999999999,-0.006881155762543539
0.3152999999999999,-0.006908035277240975
0.3142999999999999,-0.006975941419634496
0.3132999999999999,-0.007049506407227478
0.3122999999999999,-0.007093362457523294
0.3112999999999999,-0.0071457067756183
0.3102999999999999,-0.00716834215641614
0.3092999999999999,-0.007220686474511147
0.3082999999999999,-0.007298495596003725
0.3072999999999999,-0.007314057420302239
0.3062999999999999,-0.007356498759298191
0.3052999999999999,-0.007400354809594008
0.3042999999999999,-0.007455528550288743
0.3032999999999999,-0.0075503142073797
0.3022999999999999,-0.007563046609078486
0.3012999999999999,-0.007619635061073088
0.3002999999999999,-0.007669149956568363
0.2992999999999999,-0.0077101765842644485
0.2982999999999999,-0.007780912149257702
0.2972999999999999,-0.007799303396155947
0.2962999999999999,-0.00786438011594974
0.2952999999999999,-0.007899747898446365
0.2942999999999999,-0.00794643337134191
0.2932999999999999,-0.008007265957236108
0.2922999999999999,-0.008042633739732736
0.2912999999999999,-0.008063854409230709
0.2902999999999999,-0.008119028149925446
0.2892999999999999,-0.008196837271418022
0.2882999999999999,-0.008235034476514377
0.2872999999999999,-0.008284549372009654
0.2862999999999999,-0.008326990711005604
0.2852999999999999,-0.008373676183901153
0.2842999999999999,-0.008428849924595888
0.2832999999999999,-0.008481194242690896
0.2822999999999999,-0.008523635581686846
0.2812999999999999,-0.008551929807684147
0.2802999999999999,-0.008573150477182122
0.2792999999999999,-0.00864813017607497
0.2782999999999999,-0.0087075480506693
0.2772999999999999,-0.008740086410566197
0.2762999999999999,-0.008779698326962418
0.2752999999999999,-0.008812236686859314
0.2742999999999999,-0.00887589869535324
0.2732999999999999,-0.008936731281247438
0.2722999999999999,-0.008960781373345144
0.2712999999999999,-0.009011710980140282
0.2702999999999999,-0.009044249340037178
0.2692999999999999,-0.009096593658132188
0.26829999999999987,-0.009175817490924628
0.26729999999999987,-0.009189964603923278
0.26629999999999987,-0.00925221190111734
0.26529999999999987,-0.00928050612711464
0.26429999999999987,-0.009337094579109242
0.26329999999999987,-0.009389438897204248
0.26229999999999987,-0.00942056254580128
0.26129999999999987,-0.00946300388479723
0.26029999999999986,-0.009506859935093048
0.25929999999999986,-0.009554960119288457
0.25829999999999986,-0.009632769240781035
0.25729999999999986,-0.0096624781780782
0.25629999999999986,-0.009700675383174555
0.25529999999999986,-0.009745946144770238
0.25429999999999986,-0.00979687575156538
0.25329999999999986,-0.00985063478096025
0.25229999999999986,-0.009871855450458227
0.25129999999999986,-0.009894490831256066
0.25029999999999986,-0.009959567551049858
0.24929999999999986,-0.01000766773524527
0.24829999999999985,-0.010060012053340275
0.24729999999999985,-0.010103868103636091
0.24629999999999985,-0.010132162329633394
0.24529999999999985,-0.010200068472026914
0.24429999999999985,-0.010266559903120571
0.24329999999999985,-0.010293439417818007
0.24229999999999985,-0.010321733643815306
0.24129999999999985,-0.010348613158512742
0.24029999999999985,-0.010388225074908965
0.23929999999999985,-0.01045188708340289
0.23829999999999985,-0.010499987267598302
0.23729999999999984,-0.010532525627495199
0.23629999999999984,-0.010576381677791015
0.23529999999999984,-0.010604675903788316
0.23429999999999984,-0.010658434933183185
0.23329999999999984,-0.010720682230377247
0.23229999999999984,-0.01075180587897428
0.23129999999999984,-0.010802735485769419
0.23029999999999984,-0.010828200289166992
0.22929999999999984,-0.010898935854160243
0.22829999999999984,-0.01095410959485498
0.22729999999999984,-0.01097108613045336
0.22629999999999983,-0.011026259871148096
0.22529999999999983,-0.011065871787544316
0.22429999999999983,-0.011104068992640673
0.22329999999999983,-0.01117338984633406
0.22229999999999983,-0.011191781093232307
0.22129999999999983,-0.011229978298328662
0.22029999999999983,-0.011292225595522723
0.21929999999999983,-0.01135022875881719
0.21829999999999983,-0.011396914231712735
0.21729999999999983,-0.011433696725509227
0.21629999999999983,-0.011464820374106257
0.21529999999999982,-0.011517164692201263
0.21429999999999982,-0.011565264876396674
0.21329999999999982,-0.011628926884890601
0.21229999999999982,-0.011678441780385879
0.21129999999999982,-0.011712394851582639
0.21029999999999982,-0.011752006767978862
0.20929999999999982,-0.011811424642573193
0.20829999999999982,-0.01185245127026928
0.20729999999999982,-0.011886404341466037
0.20629999999999982,-0.011933089814361583
0.20529999999999982,-0.011975531153357534
0.20429999999999982,-0.012053340274850112
0.20329999999999981,-0.012075975655647952
0.2022999999999998,-0.01212549055114323
0.2012999999999998,-0.012159443622339991
0.20029999999999992,-0.012194811404836615
0.19929999999999992,-0.012268376392429598
0.19829999999999992,-0.012310817731425549
0.19729999999999992,-0.012326379555724064
0.19629999999999992,-0.01237872387381907
0.19529999999999992,-0.012415506367615561
0.19429999999999992,-0.01254141567330355
0.19329999999999992,-0.012586686434899233
0.19229999999999992,-0.01259234528009869
0.19129999999999991,-0.012639030752994237
0.1902999999999999,-0.01266732497899154
0.1892999999999999,-0.012715425163186949
0.1882999999999999,-0.01279464899597939
0.1872999999999999,-0.012830016778476018
0.1862999999999999,-0.012858311004473318
0.1852999999999999,-0.012900752343469268
0.1842999999999999,-0.012953096661564276
0.1832999999999999,-0.013002611557059552
0.1822999999999999,-0.013040808762155909
0.1812999999999999,-0.013093153080250913
0.1802999999999999,-0.01314266797574619
0.1792999999999999,-0.013186524026042009
0.1782999999999999,-0.013264333147534583
0.1772999999999999,-0.01329970093003121
0.1762999999999999,-0.013327995156028512
0.1752999999999999,-0.013350630536826351
0.1742999999999999,-0.01343692792611812
0.1732999999999999,-0.01348785753291326
0.1722999999999999,-0.013533128294508942
0.1712999999999999,-0.013555763675306783
0.1702999999999999,-0.013601034436902462
0.1692999999999999,-0.013674599424495443
0.1682999999999999,-0.01371845547479126
0.1672999999999999,-0.013750993834688155
0.1662999999999999,-0.013787776328484647
0.1652999999999999,-0.013835876512680059
0.1642999999999999,-0.01389812380987412
0.1632999999999999,-0.013953297550568856
0.1622999999999999,-0.01401554484776292
0.1612999999999999,-0.014039594939860626
0.1602999999999999,-0.014080621567556711
0.1592999999999999,-0.014147112998650365
0.15829999999999989,-0.014189554337646317
0.15729999999999988,-0.014231995676642267
0.15629999999999988,-0.014288584128636872
0.15529999999999988,-0.014331025467632824
0.15429999999999988,-0.014401761032626074
0.15329999999999988,-0.014444202371622025
0.15229999999999988,-0.014458349484620674
0.15129999999999988,-0.014514937936615275
0.15029999999999988,-0.014571526388609878
0.14929999999999988,-0.014628114840604478
0.14829999999999988,-0.014684703292599082
0.14729999999999988,-0.014712997518596381
0.14629999999999987,-0.014769585970590984
0.14529999999999987,-0.014812027309586936
0.14429999999999987,-0.014868615761581536
0.14329999999999987,-0.014939351326574786
0.14229999999999987,-0.014995939778569388
0.14129999999999987,-0.01503838111756534
0.14029999999999987,-0.015109116682558592
0.13929999999999987,-0.015151558021554544
0.13829999999999987,-0.015208146473549147
0.13729999999999987,-0.015250587812545097
0.13629999999999987,-0.015293029151541045
0.13529999999999986,-0.015335470490536997
0.13429999999999986,-0.015406206055530251
0.13329999999999986,-0.01546279450752485
0.13229999999999986,-0.015491088733522153
0.13129999999999986,-0.015519382959519455
0.13029999999999986,-0.015575971411514053
0.12929999999999986,-0.015646706976507305
0.12829999999999986,-0.01568914831550326
0.12729999999999986,-0.015717442541500558
0.12629999999999986,-0.015774030993495156
0.12529999999999986,-0.01583061944548976
0.12429999999999986,-0.01588720789748436
0.12329999999999985,-0.015929649236480315
0.12229999999999985,-0.01597209057547626
0.12129999999999985,-0.016014531914472215
0.12029999999999985,-0.016056973253468165
0.11929999999999985,-0.016127708818461418
0.11829999999999985,-0.01618429727045602
0.11729999999999985,-0.01624088572245062
0.11629999999999985,-0.016283327061446574
0.11529999999999985,-0.016339915513441175
0.11429999999999985,-0.016424798191433075
0.11329999999999985,-0.01646723953042903
0.11229999999999984,-0.01648138664342768
0.11129999999999984,-0.016537975095422278
0.11029999999999984,-0.01659456354741688
0.10929999999999984,-0.01665115199941148
0.10829999999999984,-0.016721887564404736
0.10729999999999984,-0.016750181790402035
0.10629999999999984,-0.016820917355395284
0.10529999999999984,-0.01687750580738989
0.10429999999999984,-0.016962388485381792
0.10329999999999984,-0.017004829824377742
0.10229999999999984,-0.01703312405037504
0.10129999999999983,-0.017075565389370995
0.10029999999999983,-0.017146300954364244
0.09929999999999983,-0.017202889406358845
0.09829999999999983,-0.017259477858353446
0.09729999999999983,-0.0173019191973494
0.09629999999999983,-0.017358507649344
0.09529999999999983,-0.017429243214337253
0.09429999999999983,-0.01748583166633185
0.09329999999999983,-0.017542420118326456
0.09229999999999983,-0.017599008570321057
0.09129999999999983,-0.01765559702231566
0.09029999999999982,-0.01768389124831296
0.08929999999999982,-0.017782921039303512
0.08829999999999982,-0.017839509491298113
0.08729999999999982,-0.017881950830294063
0.08629999999999982,-0.017938539282288665
0.08529999999999982,-0.017995127734283266
0.08429999999999982,-0.018080010412275173
0.08329999999999982,-0.018108304638272472
0.08229999999999982,-0.01816489309026707
0.08129999999999982,-0.01820733442926302
0.08029999999999982,-0.018263922881257624
0.07929999999999982,-0.018348805559249524
0.07829999999999981,-0.018419541124242777
0.07729999999999981,-0.018461982463238727
0.07629999999999981,-0.01851857091523333
0.07529999999999992,-0.01856101225422928
0.07429999999999992,-0.018645894932221182
0.07329999999999992,-0.018716630497214438
0.07229999999999992,-0.018759071836210388
0.07129999999999992,-0.018815660288204986
0.07029999999999992,-0.018886395853198238
0.06929999999999992,-0.018957131418191494
0.06829999999999992,-0.019042014096183394
0.06729999999999992,-0.019070308322180696
0.06629999999999991,-0.019141043887173945
0.06529999999999991,-0.019211779452167198
0.06429999999999991,-0.0192683679041618
0.06329999999999991,-0.01933910346915505
0.06229999999999991,-0.019381544808151
0.06129999999999991,-0.019423986147146955
0.06029999999999991,-0.01950886882513886
0.05929999999999991,-0.019579604390132108
0.05829999999999991,-0.01963619284212671
0.05729999999999991,-0.01969278129412131
0.056299999999999906,-0.01973522263311726
0.055299999999999905,-0.019820105311109164
0.054299999999999904,-0.019876693763103765
0.0532999999999999,-0.019947429328097017
0.0522999999999999,-0.02000401778009162
0.0512999999999999,-0.02006060623208622
0.0502999999999999,-0.020131341797079472
0.0492999999999999,-0.020216224475071376
0.0482999999999999,-0.020258665814067326
0.0472999999999999,-0.020343548492059226
0.0462999999999999,-0.02038598983105518
0.045299999999999896,-0.02045672539604843
0.044299999999999895,-0.02055575518703898
0.043299999999999894,-0.020598196526034934
0.04229999999999989,-0.020668932091028186
0.04129999999999989,-0.020725520543022787
0.04029999999999989,-0.020810403221014687
0.03929999999999989,-0.02088113878600794
0.03829999999999989,-0.020923580125003893
0.03729999999999989,-0.020994315689997142
0.03629999999999989,-0.021065051254990398
0.03529999999999989,-0.021121639706984996
0.034299999999999886,-0.02122066949797555
0.033299999999999885,-0.021291405062968803
0.032299999999999884,-0.021319699288966102
0.031299999999999883,-0.021404581966958002
0.030299999999999883,-0.021461170418952607
0.02929999999999988,-0.02157434732294181
0.02829999999999988,-0.021645082887935062
0.02729999999999988,-0.021687524226931015
0.02629999999999988,-0.021772406904922915
0.025299999999999878,-0.021843142469916164
0.024299999999999877,-0.021913878034909417
0.023299999999999876,-0.02198461359990267
0.022299999999999875,-0.02205534916489592
0.021299999999999875,-0.022140231842887825
0.020299999999999874,-0.022210967407881078
0.019299999999999873,-0.022295850085872978
0.018299999999999872,-0.02238073276386488
0.01729999999999987,-0.02240902698986218
0.01629999999999987,-0.022479762554855433
0.01529999999999987,-0.022564645232847336
0.014299999999999868,-0.022663675023837888
0.013299999999999867,-0.02272026347583249
0.012299999999999978,-0.02277685192782709
0.011299999999999866,-0.022833440379821688
0.010299999999999976,-0.022904175944814944
0.009299999999999864,-0.023017352848804146
0.008299999999999974,-0.0230880884137974
0.007299999999999862,-0.023158823978790648
0.006299999999999972,-0.023215412430785252
0.00529999999999986,-0.023314442221775804
0.0042999999999999705,-0.02338517778676906
0.0032999999999998586,-0.023441766238763657
0.0022999999999999687,-0.02352664891675556
0.0012999999999998568,-0.023611531594747465
0.00029999999999996696,-0.023668120046742062
-0.000700000000000145,-0.023767149837732617
-0.0017000000000000348,-0.023837885402725866
-0.0027000000000001467,-0.02390862096771912
-0.0037000000000000366,-0.023993503645711022
-0.0047000000000001485,-0.024050092097705623
-0.005700000000000038,-0.024149121888696175
-0.00670000000000015,-0.02420571034069078
-0.00770000000000004,-0.02426229879268538
-0.008700000000000152,-0.024375475696674583
-0.009700000000000042,-0.024446211261667832
-0.010700000000000154,-0.02457353527865569
-0.011700000000000044,-0.02461597661765164
-0.012700000000000156,-0.02467256506964624
-0.013700000000000045,-0.02475744774763814
-0.014700000000000157,-0.024856477538628696
-0.015700000000000047,-0.024955507329619247
-0.01670000000000016,-0.025040390007611147
-0.01770000000000005,-0.02509697845960575
-0.01870000000000016,-0.025181861137597652
-0.01970000000000005,-0.025266743815589552
-0.020700000000000163,-0.02535162649358146
-0.021700000000000053,-0.02539406783257741
-0.022700000000000164,-0.02546480339757066
-0.023700000000000054,-0.02553553896256391
-0.024700000000000166,-0.025648715866553113
-0.025700000000000056,-0.025747745657543668
-0.026700000000000168,-0.025818481222536924
-0.027700000000000058,-0.025889216787530173
-0.02870000000000017,-0.025959952352523425
-0.02970000000000006,-0.026058982143513973
-0.03070000000000017,-0.026158011934504528
-0.03170000000000006,-0.02622874749949778
-0.03270000000000017,-0.02632777729048833
-0.03370000000000006,-0.026384365742482933
-0.034700000000000175,-0.026483395533473487
-0.035700000000000065,-0.02658242532446404
-0.03670000000000018,-0.026667308002455942
-0.03770000000000007,-0.02673804356744919
-0.03870000000000018,-0.026808779132442447
-0.03970000000000007,-0.026893661810434347
-0.04070000000000018,-0.0270209858274222
-0.04170000000000007,-0.0270775742794168
-0.04270000000000018,-0.027148309844410055
-0.04370000000000007,-0.027247339635400606
-0.044700000000000184,-0.02731807520039386
-0.045700000000000074,-0.02741710499138441
-0.046700000000000186,-0.027487840556377662
-0.047700000000000076,-0.027544429008372267
-0.04870000000000019,-0.02764345879936281
-0.04970000000000008,-0.02775663570335202
-0.05070000000000019,-0.027855665494342572
-0.05170000000000008,-0.027940548172334476
-0.05270000000000019,-0.02802543085032638
-0.05370000000000008,-0.02809616641531963
-0.05470000000000019,-0.02819519620631018
-0.05570000000000008,-0.028280078884302083
-0.056700000000000195,-0.028364961562293983
-0.057700000000000085,-0.028435697127287232
-0.058700000000000196,-0.02852057980527914
-0.059700000000000086,-0.028633756709268345
-0.0607000000000002,-0.028732786500258897
-0.06170000000000009,-0.028831816291249444
-0.0627000000000002,-0.0289025518562427
