Dec. 14, 2024   03:09:09
Linear Sweep Voltammetry
File: c:/users/guazh/data/banditlqround7_x0exp59_r20/2024-12-09-exp654\pre-regen-2024-12-14t03_06_00-lsvinphos\pre-regen_lsv_50mvs_efin_-1900mv.bin
Data Source:  Experiment
Instrument Model:  CHI760E
Header: LSV ran at 50 mVs with Efin at -1900mV
Note: 

Init E (V) = -0.6
Final E (V) = -1.9
Scan Rate (V/s) = 0.05
Sample Interval (V) = 0.001
Quiet Time (sec) = 2
Sensitivity (A/V) = 1e-4
Comp R (ohm) = 8.5

Results:

Channel 1:
Ep = -0.987V
ip = 1.683e-4A
Ah = 2.640e-4C

Ep = -1.365V
ip = 8.426e-4A
Ah = 1.114e-3C

Potential/V, Current/A

-0.600, -6.562e-6
-0.601, -4.837e-6
-0.602, -3.948e-6
-0.603, -3.403e-6
-0.604, -2.935e-6
-0.605, -2.507e-6
-0.606, -2.116e-6
-0.607, -1.777e-6
-0.608, -1.454e-6
-0.609, -1.132e-6
-0.610, -8.264e-7
-0.611, -5.313e-7
-0.612, -2.657e-7
-0.613, -1.669e-8
-0.614, 2.552e-7
-0.615, 5.209e-7
-0.616, 7.515e-7
-0.617, 9.746e-7
-0.618, 1.174e-6
-0.619, 1.390e-6
-0.620, 1.611e-6
-0.621, 1.814e-6
-0.622, 2.002e-6
-0.623, 2.174e-6
-0.624, 2.353e-6
-0.625, 2.554e-6
-0.626, 2.719e-6
-0.627, 2.886e-6
-0.628, 3.037e-6
-0.629, 3.204e-6
-0.630, 3.379e-6
-0.631, 3.533e-6
-0.632, 3.673e-6
-0.633, 3.808e-6
-0.634, 3.950e-6
-0.635, 4.118e-6
-0.636, 4.245e-6
-0.637, 4.359e-6
-0.638, 4.491e-6
-0.639, 4.623e-6
-0.640, 4.766e-6
-0.641, 4.901e-6
-0.642, 5.003e-6
-0.643, 5.116e-6
-0.644, 5.238e-6
-0.645, 5.369e-6
-0.646, 5.495e-6
-0.647, 5.584e-6
-0.648, 5.694e-6
-0.649, 5.812e-6
-0.650, 5.926e-6
-0.651, 6.049e-6
-0.652, 6.140e-6
-0.653, 6.230e-6
-0.654, 6.348e-6
-0.655, 6.461e-6
-0.656, 6.566e-6
-0.657, 6.665e-6
-0.658, 6.748e-6
-0.659, 6.861e-6
-0.660, 6.972e-6
-0.661, 7.076e-6
-0.662, 7.164e-6
-0.663, 7.250e-6
-0.664, 7.351e-6
-0.665, 7.477e-6
-0.666, 7.585e-6
-0.667, 7.671e-6
-0.668, 7.752e-6
-0.669, 7.852e-6
-0.670, 7.969e-6
-0.671, 8.066e-6
-0.672, 8.154e-6
-0.673, 8.246e-6
-0.674, 8.352e-6
-0.675, 8.466e-6
-0.676, 8.565e-6
-0.677, 8.652e-6
-0.678, 8.753e-6
-0.679, 8.846e-6
-0.680, 8.970e-6
-0.681, 9.078e-6
-0.682, 9.168e-6
-0.683, 9.256e-6
-0.684, 9.366e-6
-0.685, 9.488e-6
-0.686, 9.601e-6
-0.687, 9.690e-6
-0.688, 9.790e-6
-0.689, 9.906e-6
-0.690, 1.002e-5
-0.691, 1.014e-5
-0.692, 1.024e-5
-0.693, 1.034e-5
-0.694, 1.046e-5
-0.695, 1.059e-5
-0.696, 1.071e-5
-0.697, 1.082e-5
-0.698, 1.093e-5
-0.699, 1.105e-5
-0.700, 1.119e-5
-0.701, 1.132e-5
-0.702, 1.144e-5
-0.703, 1.154e-5
-0.704, 1.168e-5
-0.705, 1.183e-5
-0.706, 1.196e-5
-0.707, 1.208e-5
-0.708, 1.220e-5
-0.709, 1.234e-5
-0.710, 1.249e-5
-0.711, 1.264e-5
-0.712, 1.278e-5
-0.713, 1.291e-5
-0.714, 1.306e-5
-0.715, 1.323e-5
-0.716, 1.338e-5
-0.717, 1.352e-5
-0.718, 1.368e-5
-0.719, 1.383e-5
-0.720, 1.401e-5
-0.721, 1.418e-5
-0.722, 1.432e-5
-0.723, 1.449e-5
-0.724, 1.466e-5
-0.725, 1.485e-5
-0.726, 1.503e-5
-0.727, 1.519e-5
-0.728, 1.536e-5
-0.729, 1.556e-5
-0.730, 1.576e-5
-0.731, 1.596e-5
-0.732, 1.614e-5
-0.733, 1.631e-5
-0.734, 1.652e-5
-0.735, 1.673e-5
-0.736, 1.694e-5
-0.737, 1.714e-5
-0.738, 1.733e-5
-0.739, 1.756e-5
-0.740, 1.778e-5
-0.741, 1.800e-5
-0.742, 1.821e-5
-0.743, 1.842e-5
-0.744, 1.866e-5
-0.745, 1.890e-5
-0.746, 1.913e-5
-0.747, 1.937e-5
-0.748, 1.959e-5
-0.749, 1.984e-5
-0.750, 2.010e-5
-0.751, 2.035e-5
-0.752, 2.059e-5
-0.753, 2.083e-5
-0.754, 2.110e-5
-0.755, 2.139e-5
-0.756, 2.165e-5
-0.757, 2.190e-5
-0.758, 2.217e-5
-0.759, 2.243e-5
-0.760, 2.274e-5
-0.761, 2.303e-5
-0.762, 2.330e-5
-0.763, 2.359e-5
-0.764, 2.388e-5
-0.765, 2.420e-5
-0.766, 2.450e-5
-0.767, 2.479e-5
-0.768, 2.512e-5
-0.769, 2.544e-5
-0.770, 2.575e-5
-0.771, 2.608e-5
-0.772, 2.639e-5
-0.773, 2.670e-5
-0.774, 2.704e-5
-0.775, 2.738e-5
-0.776, 2.773e-5
-0.777, 2.805e-5
-0.778, 2.837e-5
-0.779, 2.874e-5
-0.780, 2.911e-5
-0.781, 2.946e-5
-0.782, 2.982e-5
-0.783, 3.016e-5
-0.784, 3.054e-5
-0.785, 3.093e-5
-0.786, 3.131e-5
-0.787, 3.169e-5
-0.788, 3.206e-5
-0.789, 3.245e-5
-0.790, 3.287e-5
-0.791, 3.326e-5
-0.792, 3.366e-5
-0.793, 3.405e-5
-0.794, 3.446e-5
-0.795, 3.488e-5
-0.796, 3.531e-5
-0.797, 3.571e-5
-0.798, 3.613e-5
-0.799, 3.655e-5
-0.800, 3.701e-5
-0.801, 3.745e-5
-0.802, 3.786e-5
-0.803, 3.831e-5
-0.804, 3.876e-5
-0.805, 3.923e-5
-0.806, 3.970e-5
-0.807, 4.014e-5
-0.808, 4.060e-5
-0.809, 4.107e-5
-0.810, 4.156e-5
-0.811, 4.205e-5
-0.812, 4.251e-5
-0.813, 4.298e-5
-0.814, 4.349e-5
-0.815, 4.397e-5
-0.816, 4.448e-5
-0.817, 4.498e-5
-0.818, 4.547e-5
-0.819, 4.602e-5
-0.820, 4.661e-5
-0.821, 4.710e-5
-0.822, 4.762e-5
-0.823, 4.813e-5
-0.824, 4.867e-5
-0.825, 4.923e-5
-0.826, 4.976e-5
-0.827, 5.031e-5
-0.828, 5.086e-5
-0.829, 5.141e-5
-0.830, 5.200e-5
-0.831, 5.257e-5
-0.832, 5.314e-5
-0.833, 5.370e-5
-0.834, 5.428e-5
-0.835, 5.489e-5
-0.836, 5.550e-5
-0.837, 5.610e-5
-0.838, 5.669e-5
-0.839, 5.730e-5
-0.840, 5.794e-5
-0.841, 5.857e-5
-0.842, 5.918e-5
-0.843, 5.981e-5
-0.844, 6.044e-5
-0.845, 6.112e-5
-0.846, 6.178e-5
-0.847, 6.241e-5
-0.848, 6.308e-5
-0.849, 6.376e-5
-0.850, 6.445e-5
-0.851, 6.515e-5
-0.852, 6.583e-5
-0.853, 6.652e-5
-0.854, 6.723e-5
-0.855, 6.795e-5
-0.856, 6.868e-5
-0.857, 6.940e-5
-0.858, 7.012e-5
-0.859, 7.087e-5
-0.860, 7.165e-5
-0.861, 7.241e-5
-0.862, 7.317e-5
-0.863, 7.392e-5
-0.864, 7.472e-5
-0.865, 7.551e-5
-0.866, 7.630e-5
-0.867, 7.711e-5
-0.868, 7.791e-5
-0.869, 7.874e-5
-0.870, 7.960e-5
-0.871, 8.048e-5
-0.872, 8.132e-5
-0.873, 8.217e-5
-0.874, 8.303e-5
-0.875, 8.393e-5
-0.876, 8.483e-5
-0.877, 8.572e-5
-0.878, 8.662e-5
-0.879, 8.755e-5
-0.880, 8.851e-5
-0.881, 8.946e-5
-0.882, 9.040e-5
-0.883, 9.135e-5
-0.884, 9.233e-5
-0.885, 9.333e-5
-0.886, 9.435e-5
-0.887, 9.535e-5
-0.888, 9.637e-5
-0.889, 9.742e-5
-0.890, 9.850e-5
-0.891, 9.957e-5
-0.892, 1.006e-4
-0.893, 1.017e-4
-0.894, 1.028e-4
-0.895, 1.040e-4
-0.896, 1.052e-4
-0.897, 1.063e-4
-0.898, 1.074e-4
-0.899, 1.086e-4
-0.900, 1.099e-4
-0.901, 1.111e-4
-0.902, 1.123e-4
-0.903, 1.136e-4
-0.904, 1.148e-4
-0.905, 1.161e-4
-0.906, 1.175e-4
-0.907, 1.188e-4
-0.908, 1.201e-4
-0.909, 1.215e-4
-0.910, 1.229e-4
-0.911, 1.243e-4
-0.912, 1.258e-4
-0.913, 1.272e-4
-0.914, 1.287e-4
-0.915, 1.302e-4
-0.916, 1.317e-4
-0.917, 1.332e-4
-0.918, 1.348e-4
-0.919, 1.364e-4
-0.920, 1.380e-4
-0.921, 1.397e-4
-0.922, 1.413e-4
-0.923, 1.430e-4
-0.924, 1.447e-4
-0.925, 1.464e-4
-0.926, 1.482e-4
-0.927, 1.500e-4
-0.928, 1.518e-4
-0.929, 1.536e-4
-0.930, 1.555e-4
-0.931, 1.574e-4
-0.932, 1.593e-4
-0.933, 1.612e-4
-0.934, 1.631e-4
-0.935, 1.651e-4
-0.936, 1.671e-4
-0.937, 1.691e-4
-0.938, 1.711e-4
-0.939, 1.731e-4
-0.940, 1.752e-4
-0.941, 1.772e-4
-0.942, 1.793e-4
-0.943, 1.813e-4
-0.944, 1.834e-4
-0.945, 1.855e-4
-0.946, 1.876e-4
-0.947, 1.897e-4
-0.948, 1.918e-4
-0.949, 1.938e-4
-0.950, 1.959e-4
-0.951, 1.980e-4
-0.952, 2.000e-4
-0.953, 2.020e-4
-0.954, 2.039e-4
-0.955, 2.059e-4
-0.956, 2.079e-4
-0.957, 2.097e-4
-0.958, 2.116e-4
-0.959, 2.134e-4
-0.960, 2.152e-4
-0.961, 2.169e-4
-0.962, 2.186e-4
-0.963, 2.202e-4
-0.964, 2.217e-4
-0.965, 2.233e-4
-0.966, 2.247e-4
-0.967, 2.261e-4
-0.968, 2.274e-4
-0.969, 2.286e-4
-0.970, 2.298e-4
-0.971, 2.309e-4
-0.972, 2.319e-4
-0.973, 2.329e-4
-0.974, 2.339e-4
-0.975, 2.347e-4
-0.976, 2.354e-4
-0.977, 2.361e-4
-0.978, 2.367e-4
-0.979, 2.372e-4
-0.980, 2.377e-4
-0.981, 2.381e-4
-0.982, 2.384e-4
-0.983, 2.386e-4
-0.984, 2.389e-4
-0.985, 2.390e-4
-0.986, 2.391e-4
-0.987, 2.391e-4
-0.988, 2.390e-4
-0.989, 2.389e-4
-0.990, 2.388e-4
-0.991, 2.386e-4
-0.992, 2.384e-4
-0.993, 2.381e-4
-0.994, 2.377e-4
-0.995, 2.374e-4
-0.996, 2.370e-4
-0.997, 2.366e-4
-0.998, 2.361e-4
-0.999, 2.356e-4
-1.000, 2.352e-4
-1.001, 2.347e-4
-1.002, 2.341e-4
-1.003, 2.335e-4
-1.004, 2.330e-4
-1.005, 2.325e-4
-1.006, 2.319e-4
-1.007, 2.313e-4
-1.008, 2.307e-4
-1.009, 2.302e-4
-1.010, 2.296e-4
-1.011, 2.291e-4
-1.012, 2.285e-4
-1.013, 2.280e-4
-1.014, 2.275e-4
-1.015, 2.270e-4
-1.016, 2.265e-4
-1.017, 2.260e-4
-1.018, 2.256e-4
-1.019, 2.252e-4
-1.020, 2.248e-4
-1.021, 2.244e-4
-1.022, 2.240e-4
-1.023, 2.237e-4
-1.024, 2.234e-4
-1.025, 2.231e-4
-1.026, 2.229e-4
-1.027, 2.226e-4
-1.028, 2.223e-4
-1.029, 2.222e-4
-1.030, 2.220e-4
-1.031, 2.218e-4
-1.032, 2.217e-4
-1.033, 2.216e-4
-1.034, 2.214e-4
-1.035, 2.214e-4
-1.036, 2.213e-4
-1.037, 2.212e-4
-1.038, 2.212e-4
-1.039, 2.212e-4
-1.040, 2.212e-4
-1.041, 2.212e-4
-1.042, 2.212e-4
-1.043, 2.212e-4
-1.044, 2.212e-4
-1.045, 2.213e-4
-1.046, 2.214e-4
-1.047, 2.214e-4
-1.048, 2.215e-4
-1.049, 2.216e-4
-1.050, 2.217e-4
-1.051, 2.218e-4
-1.052, 2.218e-4
-1.053, 2.219e-4
-1.054, 2.220e-4
-1.055, 2.221e-4
-1.056, 2.222e-4
-1.057, 2.222e-4
-1.058, 2.223e-4
-1.059, 2.224e-4
-1.060, 2.224e-4
-1.061, 2.225e-4
-1.062, 2.225e-4
-1.063, 2.225e-4
-1.064, 2.226e-4
-1.065, 2.226e-4
-1.066, 2.226e-4
-1.067, 2.226e-4
-1.068, 2.225e-4
-1.069, 2.225e-4
-1.070, 2.225e-4
-1.071, 2.224e-4
-1.072, 2.223e-4
-1.073, 2.222e-4
-1.074, 2.220e-4
-1.075, 2.219e-4
-1.076, 2.218e-4
-1.077, 2.215e-4
-1.078, 2.213e-4
-1.079, 2.210e-4
-1.080, 2.208e-4
-1.081, 2.205e-4
-1.082, 2.201e-4
-1.083, 2.198e-4
-1.084, 2.194e-4
-1.085, 2.190e-4
-1.086, 2.186e-4
-1.087, 2.181e-4
-1.088, 2.176e-4
-1.089, 2.171e-4
-1.090, 2.165e-4
-1.091, 2.159e-4
-1.092, 2.153e-4
-1.093, 2.146e-4
-1.094, 2.140e-4
-1.095, 2.133e-4
-1.096, 2.126e-4
-1.097, 2.118e-4
-1.098, 2.110e-4
-1.099, 2.102e-4
-1.100, 2.094e-4
-1.101, 2.086e-4
-1.102, 2.077e-4
-1.103, 2.068e-4
-1.104, 2.059e-4
-1.105, 2.050e-4
-1.106, 2.040e-4
-1.107, 2.031e-4
-1.108, 2.021e-4
-1.109, 2.011e-4
-1.110, 2.002e-4
-1.111, 1.992e-4
-1.112, 1.982e-4
-1.113, 1.971e-4
-1.114, 1.961e-4
-1.115, 1.951e-4
-1.116, 1.941e-4
-1.117, 1.931e-4
-1.118, 1.921e-4
-1.119, 1.911e-4
-1.120, 1.901e-4
-1.121, 1.891e-4
-1.122, 1.881e-4
-1.123, 1.871e-4
-1.124, 1.862e-4
-1.125, 1.852e-4
-1.126, 1.843e-4
-1.127, 1.834e-4
-1.128, 1.825e-4
-1.129, 1.816e-4
-1.130, 1.807e-4
-1.131, 1.799e-4
-1.132, 1.790e-4
-1.133, 1.782e-4
-1.134, 1.774e-4
-1.135, 1.766e-4
-1.136, 1.759e-4
-1.137, 1.752e-4
-1.138, 1.744e-4
-1.139, 1.738e-4
-1.140, 1.731e-4
-1.141, 1.725e-4
-1.142, 1.719e-4
-1.143, 1.713e-4
-1.144, 1.708e-4
-1.145, 1.703e-4
-1.146, 1.698e-4
-1.147, 1.693e-4
-1.148, 1.689e-4
-1.149, 1.685e-4
-1.150, 1.682e-4
-1.151, 1.678e-4
-1.152, 1.675e-4
-1.153, 1.672e-4
-1.154, 1.670e-4
-1.155, 1.668e-4
-1.156, 1.666e-4
-1.157, 1.664e-4
-1.158, 1.663e-4
-1.159, 1.663e-4
-1.160, 1.662e-4
-1.161, 1.662e-4
-1.162, 1.662e-4
-1.163, 1.663e-4
-1.164, 1.664e-4
-1.165, 1.665e-4
-1.166, 1.667e-4
-1.167, 1.668e-4
-1.168, 1.670e-4
-1.169, 1.673e-4
-1.170, 1.676e-4
-1.171, 1.679e-4
-1.172, 1.683e-4
-1.173, 1.687e-4
-1.174, 1.691e-4
-1.175, 1.696e-4
-1.176, 1.701e-4
-1.177, 1.706e-4
-1.178, 1.712e-4
-1.179, 1.718e-4
-1.180, 1.725e-4
-1.181, 1.731e-4
-1.182, 1.738e-4
-1.183, 1.746e-4
-1.184, 1.754e-4
-1.185, 1.762e-4
-1.186, 1.771e-4
-1.187, 1.779e-4
-1.188, 1.788e-4
-1.189, 1.798e-4
-1.190, 1.808e-4
-1.191, 1.819e-4
-1.192, 1.829e-4
-1.193, 1.840e-4
-1.194, 1.852e-4
-1.195, 1.864e-4
-1.196, 1.876e-4
-1.197, 1.888e-4
-1.198, 1.901e-4
-1.199, 1.915e-4
-1.200, 1.929e-4
-1.201, 1.943e-4
-1.202, 1.957e-4
-1.203, 1.972e-4
-1.204, 1.987e-4
-1.205, 2.003e-4
-1.206, 2.019e-4
-1.207, 2.035e-4
-1.208, 2.051e-4
-1.209, 2.069e-4
-1.210, 2.086e-4
-1.211, 2.104e-4
-1.212, 2.122e-4
-1.213, 2.141e-4
-1.214, 2.160e-4
-1.215, 2.180e-4
-1.216, 2.200e-4
-1.217, 2.220e-4
-1.218, 2.240e-4
-1.219, 2.261e-4
-1.220, 2.283e-4
-1.221, 2.305e-4
-1.222, 2.327e-4
-1.223, 2.349e-4
-1.224, 2.373e-4
-1.225, 2.396e-4
-1.226, 2.420e-4
-1.227, 2.444e-4
-1.228, 2.468e-4
-1.229, 2.494e-4
-1.230, 2.520e-4
-1.231, 2.546e-4
-1.232, 2.572e-4
-1.233, 2.599e-4
-1.234, 2.626e-4
-1.235, 2.654e-4
-1.236, 2.682e-4
-1.237, 2.711e-4
-1.238, 2.740e-4
-1.239, 2.769e-4
-1.240, 2.799e-4
-1.241, 2.830e-4
-1.242, 2.860e-4
-1.243, 2.892e-4
-1.244, 2.924e-4
-1.245, 2.956e-4
-1.246, 2.988e-4
-1.247, 3.021e-4
-1.248, 3.055e-4
-1.249, 3.089e-4
-1.250, 3.124e-4
-1.251, 3.158e-4
-1.252, 3.194e-4
-1.253, 3.229e-4
-1.254, 3.266e-4
-1.255, 3.303e-4
-1.256, 3.340e-4
-1.257, 3.377e-4
-1.258, 3.415e-4
-1.259, 3.454e-4
-1.260, 3.493e-4
-1.261, 3.533e-4
-1.262, 3.572e-4
-1.263, 3.612e-4
-1.264, 3.653e-4
-1.265, 3.695e-4
-1.266, 3.736e-4
-1.267, 3.778e-4
-1.268, 3.821e-4
-1.269, 3.864e-4
-1.270, 3.908e-4
-1.271, 3.951e-4
-1.272, 3.996e-4
-1.273, 4.041e-4
-1.274, 4.086e-4
-1.275, 4.132e-4
-1.276, 4.178e-4
-1.277, 4.224e-4
-1.278, 4.271e-4
-1.279, 4.319e-4
-1.280, 4.367e-4
-1.281, 4.416e-4
-1.282, 4.464e-4
-1.283, 4.514e-4
-1.284, 4.563e-4
-1.285, 4.614e-4
-1.286, 4.664e-4
-1.287, 4.715e-4
-1.288, 4.767e-4
-1.289, 4.819e-4
-1.290, 4.871e-4
-1.291, 4.924e-4
-1.292, 4.977e-4
-1.293, 5.031e-4
-1.294, 5.085e-4
-1.295, 5.140e-4
-1.296, 5.195e-4
-1.297, 5.250e-4
-1.298, 5.306e-4
-1.299, 5.363e-4
-1.300, 5.420e-4
-1.301, 5.477e-4
-1.302, 5.535e-4
-1.303, 5.593e-4
-1.304, 5.652e-4
-1.305, 5.712e-4
-1.306, 5.771e-4
-1.307, 5.831e-4
-1.308, 5.892e-4
-1.309, 5.953e-4
-1.310, 6.015e-4
-1.311, 6.077e-4
-1.312, 6.139e-4
-1.313, 6.202e-4
-1.314, 6.265e-4
-1.315, 6.329e-4
-1.316, 6.394e-4
-1.317, 6.459e-4
-1.318, 6.524e-4
-1.319, 6.590e-4
-1.320, 6.656e-4
-1.321, 6.723e-4
-1.322, 6.790e-4
-1.323, 6.858e-4
-1.324, 6.926e-4
-1.325, 6.995e-4
-1.326, 7.065e-4
-1.327, 7.134e-4
-1.328, 7.205e-4
-1.329, 7.275e-4
-1.330, 7.347e-4
-1.331, 7.419e-4
-1.332, 7.491e-4
-1.333, 7.563e-4
-1.334, 7.637e-4
-1.335, 7.711e-4
-1.336, 7.785e-4
-1.337, 7.859e-4
-1.338, 7.935e-4
-1.339, 8.011e-4
-1.340, 8.087e-4
-1.341, 8.163e-4
-1.342, 8.240e-4
-1.343, 8.318e-4
-1.344, 8.397e-4
-1.345, 8.476e-4
-1.346, 8.555e-4
-1.347, 8.634e-4
-1.348, 8.714e-4
-1.349, 8.795e-4
-1.350, 8.877e-4
-1.351, 8.958e-4
-1.352, 9.041e-4
-1.353, 9.123e-4
-1.354, 9.207e-4
-1.355, 9.291e-4
-1.356, 9.375e-4
-1.357, 9.459e-4
-1.358, 9.545e-4
-1.359, 9.630e-4
-1.360, 9.717e-4
-1.361, 9.804e-4
-1.362, 9.890e-4
-1.363, 9.978e-4
-1.364, 1.007e-3
-1.365, 1.011e-3
-1.366, 1.011e-3
-1.367, 1.011e-3
-1.368, 1.011e-3
-1.369, 1.011e-3
-1.370, 1.011e-3
-1.371, 1.011e-3
-1.372, 1.011e-3
-1.373, 1.011e-3
-1.374, 1.011e-3
-1.375, 1.011e-3
-1.376, 1.011e-3
-1.377, 1.011e-3
-1.378, 1.011e-3
-1.379, 1.011e-3
-1.380, 1.011e-3
-1.381, 1.011e-3
-1.382, 1.011e-3
-1.383, 1.011e-3
-1.384, 1.011e-3
-1.385, 1.011e-3
-1.386, 1.011e-3
-1.387, 1.011e-3
-1.388, 1.011e-3
-1.389, 1.011e-3
-1.390, 1.011e-3
-1.391, 1.011e-3
-1.392, 1.011e-3
-1.393, 1.011e-3
-1.394, 1.011e-3
-1.395, 1.011e-3
-1.396, 1.011e-3
-1.397, 1.011e-3
-1.398, 1.011e-3
-1.399, 1.011e-3
-1.400, 1.011e-3
-1.401, 1.011e-3
-1.402, 1.011e-3
-1.403, 1.011e-3
-1.404, 1.011e-3
-1.405, 1.011e-3
-1.406, 1.011e-3
-1.407, 1.011e-3
-1.408, 1.011e-3
-1.409, 1.011e-3
-1.410, 1.011e-3
-1.411, 1.011e-3
-1.412, 1.011e-3
-1.413, 1.011e-3
-1.414, 1.011e-3
-1.415, 1.011e-3
-1.416, 1.011e-3
-1.417, 1.011e-3
-1.418, 1.011e-3
-1.419, 1.011e-3
-1.420, 1.011e-3
-1.421, 1.011e-3
-1.422, 1.011e-3
-1.423, 1.011e-3
-1.424, 1.011e-3
-1.425, 1.011e-3
-1.426, 1.011e-3
-1.427, 1.011e-3
-1.428, 1.011e-3
-1.429, 1.011e-3
-1.430, 1.011e-3
-1.431, 1.011e-3
-1.432, 1.011e-3
-1.433, 1.011e-3
-1.434, 1.011e-3
-1.435, 1.011e-3
-1.436, 1.011e-3
-1.437, 1.011e-3
-1.438, 1.011e-3
-1.439, 1.011e-3
-1.440, 1.011e-3
-1.441, 1.011e-3
-1.442, 1.011e-3
-1.443, 1.011e-3
-1.444, 1.011e-3
-1.445, 1.011e-3
-1.446, 1.011e-3
-1.447, 1.011e-3
-1.448, 1.011e-3
-1.449, 1.011e-3
-1.450, 1.011e-3
-1.451, 1.011e-3
-1.452, 1.011e-3
-1.453, 1.011e-3
-1.454, 1.011e-3
-1.455, 1.011e-3
-1.456, 1.011e-3
-1.457, 1.011e-3
-1.458, 1.011e-3
-1.459, 1.011e-3
-1.460, 1.011e-3
-1.461, 1.011e-3
-1.462, 1.011e-3
-1.463, 1.011e-3
-1.464, 1.011e-3
-1.465, 1.011e-3
-1.466, 1.011e-3
-1.467, 1.011e-3
-1.468, 1.011e-3
-1.469, 1.011e-3
-1.470, 1.011e-3
-1.471, 1.011e-3
-1.472, 1.011e-3
-1.473, 1.011e-3
-1.474, 1.011e-3
-1.475, 1.011e-3
-1.476, 1.011e-3
-1.477, 1.011e-3
-1.478, 1.011e-3
-1.479, 1.011e-3
-1.480, 1.011e-3
-1.481, 1.011e-3
-1.482, 1.011e-3
-1.483, 1.011e-3
-1.484, 1.011e-3
-1.485, 1.011e-3
-1.486, 1.011e-3
-1.487, 1.011e-3
-1.488, 1.011e-3
-1.489, 1.011e-3
-1.490, 1.011e-3
-1.491, 1.011e-3
-1.492, 1.011e-3
-1.493, 1.011e-3
-1.494, 1.011e-3
-1.495, 1.011e-3
-1.496, 1.011e-3
-1.497, 1.011e-3
-1.498, 1.011e-3
-1.499, 1.011e-3
-1.500, 1.011e-3
-1.501, 1.011e-3
-1.502, 1.011e-3
-1.503, 1.011e-3
-1.504, 1.011e-3
-1.505, 1.011e-3
-1.506, 1.011e-3
-1.507, 1.011e-3
-1.508, 1.011e-3
-1.509, 1.011e-3
-1.510, 1.011e-3
-1.511, 1.011e-3
-1.512, 1.011e-3
-1.513, 1.011e-3
-1.514, 1.011e-3
-1.515, 1.011e-3
-1.516, 1.011e-3
-1.517, 1.011e-3
-1.518, 1.011e-3
-1.519, 1.011e-3
-1.520, 1.011e-3
-1.521, 1.011e-3
-1.522, 1.011e-3
-1.523, 1.011e-3
-1.524, 1.011e-3
-1.525, 1.011e-3
-1.526, 1.011e-3
-1.527, 1.011e-3
-1.528, 1.011e-3
-1.529, 1.011e-3
-1.530, 1.011e-3
-1.531, 1.011e-3
-1.532, 1.011e-3
-1.533, 1.011e-3
-1.534, 1.011e-3
-1.535, 1.011e-3
-1.536, 1.011e-3
-1.537, 1.011e-3
-1.538, 1.011e-3
-1.539, 1.011e-3
-1.540, 1.011e-3
-1.541, 1.011e-3
-1.542, 1.011e-3
-1.543, 1.011e-3
-1.544, 1.011e-3
-1.545, 1.011e-3
-1.546, 1.011e-3
-1.547, 1.011e-3
-1.548, 1.011e-3
-1.549, 1.011e-3
-1.550, 1.011e-3
-1.551, 1.011e-3
-1.552, 1.011e-3
-1.553, 1.011e-3
-1.554, 1.011e-3
-1.555, 1.011e-3
-1.556, 1.011e-3
-1.557, 1.011e-3
-1.558, 1.011e-3
-1.559, 1.011e-3
-1.560, 1.011e-3
-1.561, 1.011e-3
-1.562, 1.011e-3
-1.563, 1.011e-3
-1.564, 1.011e-3
-1.565, 1.011e-3
-1.566, 1.011e-3
-1.567, 1.011e-3
-1.568, 1.011e-3
-1.569, 1.011e-3
-1.570, 1.011e-3
-1.571, 1.011e-3
-1.572, 1.011e-3
-1.573, 1.011e-3
-1.574, 1.011e-3
-1.575, 1.011e-3
-1.576, 1.011e-3
-1.577, 1.011e-3
-1.578, 1.011e-3
-1.579, 1.011e-3
-1.580, 1.011e-3
-1.581, 1.011e-3
-1.582, 1.011e-3
-1.583, 1.011e-3
-1.584, 1.011e-3
-1.585, 1.011e-3
-1.586, 1.011e-3
-1.587, 1.011e-3
-1.588, 1.011e-3
-1.589, 1.011e-3
-1.590, 1.011e-3
-1.591, 1.011e-3
-1.592, 1.011e-3
-1.593, 1.011e-3
-1.594, 1.011e-3
-1.595, 1.011e-3
-1.596, 1.011e-3
-1.597, 1.011e-3
-1.598, 1.011e-3
-1.599, 1.011e-3
-1.600, 1.011e-3
-1.601, 1.011e-3
-1.602, 1.011e-3
-1.603, 1.011e-3
-1.604, 1.011e-3
-1.605, 1.011e-3
-1.606, 1.011e-3
-1.607, 1.011e-3
-1.608, 1.011e-3
-1.609, 1.011e-3
-1.610, 1.011e-3
-1.611, 1.011e-3
-1.612, 1.011e-3
-1.613, 1.011e-3
-1.614, 1.011e-3
-1.615, 1.011e-3
-1.616, 1.011e-3
-1.617, 1.011e-3
-1.618, 1.011e-3
-1.619, 1.011e-3
-1.620, 1.011e-3
-1.621, 1.011e-3
-1.622, 1.011e-3
-1.623, 1.011e-3
-1.624, 1.011e-3
-1.625, 1.011e-3
-1.626, 1.011e-3
-1.627, 1.011e-3
-1.628, 1.011e-3
-1.629, 1.011e-3
-1.630, 1.011e-3
-1.631, 1.011e-3
-1.632, 1.011e-3
-1.633, 1.011e-3
-1.634, 1.011e-3
-1.635, 1.011e-3
-1.636, 1.011e-3
-1.637, 1.011e-3
-1.638, 1.011e-3
-1.639, 1.011e-3
-1.640, 1.011e-3
-1.641, 1.011e-3
-1.642, 1.011e-3
-1.643, 1.011e-3
-1.644, 1.011e-3
-1.645, 1.011e-3
-1.646, 1.011e-3
-1.647, 1.011e-3
-1.648, 1.011e-3
-1.649, 1.011e-3
-1.650, 1.011e-3
-1.651, 1.011e-3
-1.652, 1.011e-3
-1.653, 1.011e-3
-1.654, 1.011e-3
-1.655, 1.011e-3
-1.656, 1.011e-3
-1.657, 1.011e-3
-1.658, 1.011e-3
-1.659, 1.011e-3
-1.660, 1.011e-3
-1.661, 1.011e-3
-1.662, 1.011e-3
-1.663, 1.011e-3
-1.664, 1.011e-3
-1.665, 1.011e-3
-1.666, 1.011e-3
-1.667, 1.011e-3
-1.668, 1.011e-3
-1.669, 1.011e-3
-1.670, 1.011e-3
-1.671, 1.011e-3
-1.672, 1.011e-3
-1.673, 1.011e-3
-1.674, 1.011e-3
-1.675, 1.011e-3
-1.676, 1.011e-3
-1.677, 1.011e-3
-1.678, 1.011e-3
-1.679, 1.011e-3
-1.680, 1.011e-3
-1.681, 1.011e-3
-1.682, 1.011e-3
-1.683, 1.011e-3
-1.684, 1.011e-3
-1.685, 1.011e-3
-1.686, 1.011e-3
-1.687, 1.011e-3
-1.688, 1.011e-3
-1.689, 1.011e-3
-1.690, 1.011e-3
-1.691, 1.011e-3
-1.692, 1.011e-3
-1.693, 1.011e-3
-1.694, 1.011e-3
-1.695, 1.011e-3
-1.696, 1.011e-3
-1.697, 1.011e-3
-1.698, 1.011e-3
-1.699, 1.011e-3
-1.700, 1.011e-3
-1.701, 1.011e-3
-1.702, 1.011e-3
-1.703, 1.011e-3
-1.704, 1.011e-3
-1.705, 1.011e-3
-1.706, 1.011e-3
-1.707, 1.011e-3
-1.708, 1.011e-3
-1.709, 1.011e-3
-1.710, 1.011e-3
-1.711, 1.011e-3
-1.712, 1.011e-3
-1.713, 1.011e-3
-1.714, 1.011e-3
-1.715, 1.011e-3
-1.716, 1.011e-3
-1.717, 1.011e-3
-1.718, 1.011e-3
-1.719, 1.011e-3
-1.720, 1.011e-3
-1.721, 1.011e-3
-1.722, 1.011e-3
-1.723, 1.011e-3
-1.724, 1.011e-3
-1.725, 1.011e-3
-1.726, 1.011e-3
-1.727, 1.011e-3
-1.728, 1.011e-3
-1.729, 1.011e-3
-1.730, 1.011e-3
-1.731, 1.011e-3
-1.732, 1.011e-3
-1.733, 1.011e-3
-1.734, 1.011e-3
-1.735, 1.011e-3
-1.736, 1.011e-3
-1.737, 1.011e-3
-1.738, 1.011e-3
-1.739, 1.011e-3
-1.740, 1.011e-3
-1.741, 1.011e-3
-1.742, 1.011e-3
-1.743, 1.011e-3
-1.744, 1.011e-3
-1.745, 1.011e-3
-1.746, 1.011e-3
-1.747, 1.011e-3
-1.748, 1.011e-3
-1.749, 1.011e-3
-1.750, 1.011e-3
-1.751, 1.011e-3
-1.752, 1.011e-3
-1.753, 1.011e-3
-1.754, 1.011e-3
-1.755, 1.011e-3
-1.756, 1.011e-3
-1.757, 1.011e-3
-1.758, 1.011e-3
-1.759, 1.011e-3
-1.760, 1.011e-3
-1.761, 1.011e-3
-1.762, 1.011e-3
-1.763, 1.011e-3
-1.764, 1.011e-3
-1.765, 1.011e-3
-1.766, 1.011e-3
-1.767, 1.011e-3
-1.768, 1.011e-3
-1.769, 1.011e-3
-1.770, 1.011e-3
-1.771, 1.011e-3
-1.772, 1.011e-3
-1.773, 1.011e-3
-1.774, 1.011e-3
-1.775, 1.011e-3
-1.776, 1.011e-3
-1.777, 1.011e-3
-1.778, 1.011e-3
-1.779, 1.011e-3
-1.780, 1.011e-3
-1.781, 1.011e-3
-1.782, 1.011e-3
-1.783, 1.011e-3
-1.784, 1.011e-3
-1.785, 1.011e-3
-1.786, 1.011e-3
-1.787, 1.011e-3
-1.788, 1.011e-3
-1.789, 1.011e-3
-1.790, 1.011e-3
-1.791, 1.011e-3
-1.792, 1.011e-3
-1.793, 1.011e-3
-1.794, 1.011e-3
-1.795, 1.011e-3
-1.796, 1.011e-3
-1.797, 1.011e-3
-1.798, 1.011e-3
-1.799, 1.011e-3
-1.800, 1.011e-3
-1.801, 1.011e-3
-1.802, 1.011e-3
-1.803, 1.011e-3
-1.804, 1.011e-3
-1.805, 1.011e-3
-1.806, 1.011e-3
-1.807, 1.011e-3
-1.808, 1.011e-3
-1.809, 1.011e-3
-1.810, 1.011e-3
-1.811, 1.011e-3
-1.812, 1.011e-3
-1.813, 1.011e-3
-1.814, 1.011e-3
-1.815, 1.011e-3
-1.816, 1.011e-3
-1.817, 1.011e-3
-1.818, 1.011e-3
-1.819, 1.011e-3
-1.820, 1.011e-3
-1.821, 1.011e-3
-1.822, 1.011e-3
-1.823, 1.011e-3
-1.824, 1.011e-3
-1.825, 1.011e-3
-1.826, 1.011e-3
-1.827, 1.011e-3
-1.828, 1.011e-3
-1.829, 1.011e-3
-1.830, 1.011e-3
-1.831, 1.011e-3
-1.832, 1.011e-3
-1.833, 1.011e-3
-1.834, 1.011e-3
-1.835, 1.011e-3
-1.836, 1.011e-3
-1.837, 1.011e-3
-1.838, 1.011e-3
-1.839, 1.011e-3
-1.840, 1.011e-3
-1.841, 1.011e-3
-1.842, 1.011e-3
-1.843, 1.011e-3
-1.844, 1.011e-3
-1.845, 1.011e-3
-1.846, 1.011e-3
-1.847, 1.011e-3
-1.848, 1.011e-3
-1.849, 1.011e-3
-1.850, 1.011e-3
-1.851, 1.011e-3
-1.852, 1.011e-3
-1.853, 1.011e-3
-1.854, 1.011e-3
-1.855, 1.011e-3
-1.856, 1.011e-3
-1.857, 1.011e-3
-1.858, 1.011e-3
-1.859, 1.011e-3
-1.860, 1.011e-3
-1.861, 1.011e-3
-1.862, 1.011e-3
-1.863, 1.011e-3
-1.864, 1.011e-3
-1.865, 1.011e-3
-1.866, 1.011e-3
-1.867, 1.011e-3
-1.868, 1.011e-3
-1.869, 1.011e-3
-1.870, 1.011e-3
-1.871, 1.011e-3
-1.872, 1.011e-3
-1.873, 1.011e-3
-1.874, 1.011e-3
-1.875, 1.011e-3
-1.876, 1.011e-3
-1.877, 1.011e-3
-1.878, 1.011e-3
-1.879, 1.011e-3
-1.880, 1.011e-3
-1.881, 1.011e-3
-1.882, 1.011e-3
-1.883, 1.011e-3
-1.884, 1.011e-3
-1.885, 1.011e-3
-1.886, 1.011e-3
-1.887, 1.011e-3
-1.888, 1.011e-3
-1.889, 1.011e-3
-1.890, 1.011e-3
-1.891, 1.011e-3
-1.892, 1.011e-3
-1.893, 1.011e-3
-1.894, 1.011e-3
-1.895, 1.011e-3
-1.896, 1.011e-3
-1.897, 1.011e-3
-1.898, 1.011e-3
-1.899, 1.011e-3
