Mar. 7, 2025   05:31:02
Cyclic Voltammetry
File: c:/users/guazh/data/banditlqround7_x0exp169_r20_3/2025-03-03-exp895\exp895-2025-03-07t05_25_34-arkoh\exp895_cv_sr_50mvs_efin_-1400mv.bin
Data Source:  Experiment
Instrument Model:  CHI760E
Header: CV ran at 50 mVs
Note: 

Init E (V) = -1
High E (V) = -1
Low E (V) = -1.4
Final E (V) = -1
Init P/N = N
Scan Rate (V/s) = 0.05
Segment = 3
Sample Interval (V) = 0.001
Quiet Time (sec) = 2
Sensitivity (A/V) = 0.01
Comp R (ohm) = 1.6

Results:

Channel 1:
Segment 1:

Segment 2:

Segment 3:

Potential/V, Current/A

-1.000, -1.911e-5
-1.001, 6.688e-5
-1.002, 1.231e-4
-1.003, 1.591e-4
-1.004, 1.852e-4
-1.005, 2.020e-4
-1.006, 2.163e-4
-1.007, 2.234e-4
-1.008, 2.285e-4
-1.009, 2.349e-4
-1.010, 2.360e-4
-1.011, 2.433e-4
-1.012, 2.443e-4
-1.013, 2.435e-4
-1.014, 2.489e-4
-1.015, 2.506e-4
-1.016, 2.520e-4
-1.017, 2.506e-4
-1.018, 2.469e-4
-1.019, 2.574e-4
-1.020, 2.614e-4
-1.021, 2.528e-4
-1.022, 2.577e-4
-1.023, 2.560e-4
-1.024, 2.585e-4
-1.025, 2.626e-4
-1.026, 2.624e-4
-1.027, 2.654e-4
-1.028, 2.624e-4
-1.029, 2.619e-4
-1.030, 2.666e-4
-1.031, 2.664e-4
-1.032, 2.643e-4
-1.033, 2.717e-4
-1.034, 2.667e-4
-1.035, 2.697e-4
-1.036, 2.673e-4
-1.037, 2.693e-4
-1.038, 2.732e-4
-1.039, 2.714e-4
-1.040, 2.731e-4
-1.041, 2.771e-4
-1.042, 2.738e-4
-1.043, 2.754e-4
-1.044, 2.761e-4
-1.045, 2.771e-4
-1.046, 2.807e-4
-1.047, 2.718e-4
-1.048, 2.765e-4
-1.049, 2.773e-4
-1.050, 2.889e-4
-1.051, 2.935e-4
-1.052, 2.851e-4
-1.053, 2.854e-4
-1.054, 2.802e-4
-1.055, 2.844e-4
-1.056, 2.885e-4
-1.057, 2.861e-4
-1.058, 2.929e-4
-1.059, 2.886e-4
-1.060, 2.948e-4
-1.061, 2.938e-4
-1.062, 2.933e-4
-1.063, 2.972e-4
-1.064, 2.920e-4
-1.065, 3.000e-4
-1.066, 2.974e-4
-1.067, 3.026e-4
-1.068, 3.017e-4
-1.069, 3.005e-4
-1.070, 3.016e-4
-1.071, 3.053e-4
-1.072, 3.083e-4
-1.073, 3.049e-4
-1.074, 3.146e-4
-1.075, 3.108e-4
-1.076, 3.154e-4
-1.077, 3.133e-4
-1.078, 3.149e-4
-1.079, 3.155e-4
-1.080, 3.153e-4
-1.081, 3.246e-4
-1.082, 3.246e-4
-1.083, 3.298e-4
-1.084, 3.293e-4
-1.085, 3.257e-4
-1.086, 3.302e-4
-1.087, 3.315e-4
-1.088, 3.346e-4
-1.089, 3.351e-4
-1.090, 3.386e-4
-1.091, 3.414e-4
-1.092, 3.439e-4
-1.093, 3.449e-4
-1.094, 3.474e-4
-1.095, 3.478e-4
-1.096, 3.519e-4
-1.097, 3.547e-4
-1.098, 3.554e-4
-1.099, 3.654e-4
-1.100, 3.625e-4
-1.101, 3.663e-4
-1.102, 3.710e-4
-1.103, 3.738e-4
-1.104, 3.761e-4
-1.105, 3.762e-4
-1.106, 3.845e-4
-1.107, 3.877e-4
-1.108, 3.891e-4
-1.109, 3.927e-4
-1.110, 3.954e-4
-1.111, 4.011e-4
-1.112, 4.063e-4
-1.113, 4.049e-4
-1.114, 4.092e-4
-1.115, 4.185e-4
-1.116, 4.127e-4
-1.117, 4.269e-4
-1.118, 4.340e-4
-1.119, 4.352e-4
-1.120, 4.501e-4
-1.121, 4.435e-4
-1.122, 4.510e-4
-1.123, 4.529e-4
-1.124, 4.598e-4
-1.125, 4.695e-4
-1.126, 4.668e-4
-1.127, 4.799e-4
-1.128, 4.823e-4
-1.129, 4.864e-4
-1.130, 5.033e-4
-1.131, 5.025e-4
-1.132, 5.153e-4
-1.133, 5.126e-4
-1.134, 5.217e-4
-1.135, 5.353e-4
-1.136, 5.353e-4
-1.137, 5.521e-4
-1.138, 5.483e-4
-1.139, 5.641e-4
-1.140, 5.688e-4
-1.141, 5.814e-4
-1.142, 5.864e-4
-1.143, 5.986e-4
-1.144, 6.107e-4
-1.145, 6.161e-4
-1.146, 6.275e-4
-1.147, 6.336e-4
-1.148, 6.389e-4
-1.149, 6.476e-4
-1.150, 6.615e-4
-1.151, 6.805e-4
-1.152, 6.845e-4
-1.153, 7.000e-4
-1.154, 7.071e-4
-1.155, 7.172e-4
-1.156, 7.288e-4
-1.157, 7.326e-4
-1.158, 7.603e-4
-1.159, 7.694e-4
-1.160, 7.755e-4
-1.161, 8.015e-4
-1.162, 8.111e-4
-1.163, 8.285e-4
-1.164, 8.423e-4
-1.165, 8.455e-4
-1.166, 8.589e-4
-1.167, 8.922e-4
-1.168, 9.006e-4
-1.169, 9.197e-4
-1.170, 9.349e-4
-1.171, 9.250e-4
-1.172, 9.437e-4
-1.173, 9.759e-4
-1.174, 1.004e-3
-1.175, 1.039e-3
-1.176, 1.069e-3
-1.177, 1.049e-3
-1.178, 1.060e-3
-1.179, 1.088e-3
-1.180, 1.093e-3
-1.181, 1.136e-3
-1.182, 1.152e-3
-1.183, 1.176e-3
-1.184, 1.204e-3
-1.185, 1.206e-3
-1.186, 1.242e-3
-1.187, 1.259e-3
-1.188, 1.283e-3
-1.189, 1.303e-3
-1.190, 1.325e-3
-1.191, 1.355e-3
-1.192, 1.393e-3
-1.193, 1.419e-3
-1.194, 1.420e-3
-1.195, 1.460e-3
-1.196, 1.480e-3
-1.197, 1.510e-3
-1.198, 1.536e-3
-1.199, 1.546e-3
-1.200, 1.621e-3
-1.201, 1.601e-3
-1.202, 1.665e-3
-1.203, 1.676e-3
-1.204, 1.679e-3
-1.205, 1.736e-3
-1.206, 1.770e-3
-1.207, 1.817e-3
-1.208, 1.852e-3
-1.209, 1.890e-3
-1.210, 1.905e-3
-1.211, 1.925e-3
-1.212, 1.974e-3
-1.213, 2.006e-3
-1.214, 2.047e-3
-1.215, 2.082e-3
-1.216, 2.117e-3
-1.217, 2.161e-3
-1.218, 2.182e-3
-1.219, 2.210e-3
-1.220, 2.282e-3
-1.221, 2.273e-3
-1.222, 2.362e-3
-1.223, 2.381e-3
-1.224, 2.429e-3
-1.225, 2.471e-3
-1.226, 2.481e-3
-1.227, 2.557e-3
-1.228, 2.515e-3
-1.229, 2.586e-3
-1.230, 2.691e-3
-1.231, 2.748e-3
-1.232, 2.795e-3
-1.233, 2.793e-3
-1.234, 2.855e-3
-1.235, 2.870e-3
-1.236, 2.952e-3
-1.237, 2.971e-3
-1.238, 2.991e-3
-1.239, 3.092e-3
-1.240, 3.100e-3
-1.241, 3.164e-3
-1.242, 3.231e-3
-1.243, 3.277e-3
-1.244, 3.299e-3
-1.245, 3.371e-3
-1.246, 3.407e-3
-1.247, 3.469e-3
-1.248, 3.536e-3
-1.249, 3.544e-3
-1.250, 3.645e-3
-1.251, 3.660e-3
-1.252, 3.768e-3
-1.253, 3.798e-3
-1.254, 3.811e-3
-1.255, 3.932e-3
-1.256, 3.911e-3
-1.257, 4.005e-3
-1.258, 4.036e-3
-1.259, 4.111e-3
-1.260, 4.164e-3
-1.261, 4.234e-3
-1.262, 4.327e-3
-1.263, 4.304e-3
-1.264, 4.426e-3
-1.265, 4.436e-3
-1.266, 4.522e-3
-1.267, 4.600e-3
-1.268, 4.615e-3
-1.269, 4.743e-3
-1.270, 4.759e-3
-1.271, 4.760e-3
-1.272, 4.983e-3
-1.273, 4.980e-3
-1.274, 5.073e-3
-1.275, 5.039e-3
-1.276, 5.161e-3
-1.277, 5.239e-3
-1.278, 5.255e-3
-1.279, 5.423e-3
-1.280, 5.345e-3
-1.281, 5.556e-3
-1.282, 5.577e-3
-1.283, 5.548e-3
-1.284, 5.764e-3
-1.285, 5.725e-3
-1.286, 5.857e-3
-1.287, 5.888e-3
-1.288, 5.954e-3
-1.289, 6.009e-3
-1.290, 6.102e-3
-1.291, 6.131e-3
-1.292, 6.212e-3
-1.293, 6.307e-3
-1.294, 6.360e-3
-1.295, 6.463e-3
-1.296, 6.431e-3
-1.297, 6.603e-3
-1.298, 6.628e-3
-1.299, 6.689e-3
-1.300, 6.818e-3
-1.301, 6.857e-3
-1.302, 6.945e-3
-1.303, 6.985e-3
-1.304, 7.075e-3
-1.305, 7.074e-3
-1.306, 7.277e-3
-1.307, 7.316e-3
-1.308, 7.399e-3
-1.309, 7.538e-3
-1.310, 7.503e-3
-1.311, 7.536e-3
-1.312, 7.607e-3
-1.313, 7.794e-3
-1.314, 7.893e-3
-1.315, 7.922e-3
-1.316, 8.054e-3
-1.317, 8.085e-3
-1.318, 8.149e-3
-1.319, 8.271e-3
-1.320, 8.191e-3
-1.321, 8.406e-3
-1.322, 8.440e-3
-1.323, 8.515e-3
-1.324, 8.667e-3
-1.325, 8.652e-3
-1.326, 8.729e-3
-1.327, 8.843e-3
-1.328, 8.950e-3
-1.329, 9.037e-3
-1.330, 9.040e-3
-1.331, 9.165e-3
-1.332, 9.130e-3
-1.333, 9.287e-3
-1.334, 9.385e-3
-1.335, 9.411e-3
-1.336, 9.511e-3
-1.337, 9.652e-3
-1.338, 9.685e-3
-1.339, 9.818e-3
-1.340, 9.816e-3
-1.341, 9.798e-3
-1.342, 9.971e-3
-1.343, 1.016e-2
-1.344, 1.030e-2
-1.345, 1.031e-2
-1.346, 1.037e-2
-1.347, 1.042e-2
-1.348, 1.041e-2
-1.349, 1.056e-2
-1.350, 1.049e-2
-1.351, 1.074e-2
-1.352, 1.078e-2
-1.353, 1.080e-2
-1.354, 1.106e-2
-1.355, 1.096e-2
-1.356, 1.109e-2
-1.357, 1.115e-2
-1.358, 1.120e-2
-1.359, 1.133e-2
-1.360, 1.135e-2
-1.361, 1.139e-2
-1.362, 1.148e-2
-1.363, 1.157e-2
-1.364, 1.159e-2
-1.365, 1.170e-2
-1.366, 1.174e-2
-1.367, 1.190e-2
-1.368, 1.190e-2
-1.369, 1.200e-2
-1.370, 1.199e-2
-1.371, 1.214e-2
-1.372, 1.208e-2
-1.373, 1.222e-2
-1.374, 1.230e-2
-1.375, 1.240e-2
-1.376, 1.249e-2
-1.377, 1.263e-2
-1.378, 1.250e-2
-1.379, 1.258e-2
-1.380, 1.263e-2
-1.381, 1.260e-2
-1.382, 1.275e-2
-1.383, 1.281e-2
-1.384, 1.281e-2
-1.385, 1.291e-2
-1.386, 1.293e-2
-1.387, 1.308e-2
-1.388, 1.297e-2
-1.389, 1.310e-2
-1.390, 1.317e-2
-1.391, 1.328e-2
-1.392, 1.323e-2
-1.393, 1.336e-2
-1.394, 1.328e-2
-1.395, 1.347e-2
-1.396, 1.339e-2
-1.397, 1.338e-2
-1.398, 1.345e-2
-1.399, 1.370e-2
-1.400, 1.363e-2
-1.399, 1.348e-2
-1.398, 1.319e-2
-1.397, 1.316e-2
-1.396, 1.307e-2
-1.395, 1.294e-2
-1.394, 1.292e-2
-1.393, 1.280e-2
-1.392, 1.269e-2
-1.391, 1.253e-2
-1.390, 1.232e-2
-1.389, 1.215e-2
-1.388, 1.212e-2
-1.387, 1.211e-2
-1.386, 1.177e-2
-1.385, 1.181e-2
-1.384, 1.166e-2
-1.383, 1.163e-2
-1.382, 1.139e-2
-1.381, 1.152e-2
-1.380, 1.152e-2
-1.379, 1.134e-2
-1.378, 1.132e-2
-1.377, 1.114e-2
-1.376, 1.102e-2
-1.375, 1.088e-2
-1.374, 1.081e-2
-1.373, 1.065e-2
-1.372, 1.053e-2
-1.371, 1.056e-2
-1.370, 1.041e-2
-1.369, 1.024e-2
-1.368, 1.027e-2
-1.367, 1.003e-2
-1.366, 1.001e-2
-1.365, 9.883e-3
-1.364, 9.786e-3
-1.363, 9.728e-3
-1.362, 9.619e-3
-1.361, 9.437e-3
-1.360, 9.326e-3
-1.359, 9.311e-3
-1.358, 9.180e-3
-1.357, 9.164e-3
-1.356, 9.084e-3
-1.355, 9.175e-3
-1.354, 8.964e-3
-1.353, 8.894e-3
-1.352, 8.880e-3
-1.351, 8.721e-3
-1.350, 8.662e-3
-1.349, 8.576e-3
-1.348, 8.530e-3
-1.347, 8.395e-3
-1.346, 8.296e-3
-1.345, 8.270e-3
-1.344, 8.152e-3
-1.343, 8.087e-3
-1.342, 7.983e-3
-1.341, 7.809e-3
-1.340, 7.761e-3
-1.339, 7.637e-3
-1.338, 7.625e-3
-1.337, 7.473e-3
-1.336, 7.407e-3
-1.335, 7.367e-3
-1.334, 7.508e-3
-1.333, 7.648e-3
-1.332, 7.449e-3
-1.331, 7.428e-3
-1.330, 7.268e-3
-1.329, 7.125e-3
-1.328, 7.068e-3
-1.327, 7.068e-3
-1.326, 6.874e-3
-1.325, 6.877e-3
-1.324, 6.811e-3
-1.323, 6.713e-3
-1.322, 6.732e-3
-1.321, 6.577e-3
-1.320, 6.620e-3
-1.319, 6.421e-3
-1.318, 6.347e-3
-1.317, 6.298e-3
-1.316, 6.329e-3
-1.315, 6.217e-3
-1.314, 6.150e-3
-1.313, 6.028e-3
-1.312, 5.961e-3
-1.311, 5.947e-3
-1.310, 5.851e-3
-1.309, 5.748e-3
-1.308, 5.773e-3
-1.307, 5.615e-3
-1.306, 5.576e-3
-1.305, 5.574e-3
-1.304, 5.434e-3
-1.303, 5.381e-3
-1.302, 5.327e-3
-1.301, 5.247e-3
-1.300, 5.181e-3
-1.299, 5.098e-3
-1.298, 5.052e-3
-1.297, 4.949e-3
-1.296, 4.909e-3
-1.295, 4.862e-3
-1.294, 4.815e-3
-1.293, 4.742e-3
-1.292, 4.639e-3
-1.291, 4.577e-3
-1.290, 4.587e-3
-1.289, 4.527e-3
-1.288, 4.465e-3
-1.287, 4.348e-3
-1.286, 4.320e-3
-1.285, 4.240e-3
-1.284, 4.188e-3
-1.283, 4.114e-3
-1.282, 4.054e-3
-1.281, 4.007e-3
-1.280, 4.066e-3
-1.279, 4.021e-3
-1.278, 3.912e-3
-1.277, 3.874e-3
-1.276, 3.777e-3
-1.275, 3.797e-3
-1.274, 3.634e-3
-1.273, 3.710e-3
-1.272, 3.634e-3
-1.271, 3.642e-3
-1.270, 3.514e-3
-1.269, 3.428e-3
-1.268, 3.446e-3
-1.267, 3.368e-3
-1.266, 3.326e-3
-1.265, 3.261e-3
-1.264, 3.217e-3
-1.263, 3.169e-3
-1.262, 3.112e-3
-1.261, 3.088e-3
-1.260, 3.008e-3
-1.259, 2.979e-3
-1.258, 2.927e-3
-1.257, 2.857e-3
-1.256, 2.823e-3
-1.255, 2.753e-3
-1.254, 2.708e-3
-1.253, 2.666e-3
-1.252, 2.618e-3
-1.251, 2.576e-3
-1.250, 2.523e-3
-1.249, 2.477e-3
-1.248, 2.446e-3
-1.247, 2.392e-3
-1.246, 2.349e-3
-1.245, 2.310e-3
-1.244, 2.254e-3
-1.243, 2.240e-3
-1.242, 2.172e-3
-1.241, 2.149e-3
-1.240, 2.151e-3
-1.239, 2.103e-3
-1.238, 2.043e-3
-1.237, 2.011e-3
-1.236, 1.971e-3
-1.235, 1.917e-3
-1.234, 1.880e-3
-1.233, 1.839e-3
-1.232, 1.803e-3
-1.231, 1.776e-3
-1.230, 1.752e-3
-1.229, 1.674e-3
-1.228, 1.661e-3
-1.227, 1.601e-3
-1.226, 1.572e-3
-1.225, 1.525e-3
-1.224, 1.483e-3
-1.223, 1.455e-3
-1.222, 1.446e-3
-1.221, 1.373e-3
-1.220, 1.360e-3
-1.219, 1.343e-3
-1.218, 1.320e-3
-1.217, 1.289e-3
-1.216, 1.282e-3
-1.215, 1.256e-3
-1.214, 1.226e-3
-1.213, 1.170e-3
-1.212, 1.149e-3
-1.211, 1.115e-3
-1.210, 1.062e-3
-1.209, 1.031e-3
-1.208, 9.939e-4
-1.207, 9.562e-4
-1.206, 9.265e-4
-1.205, 8.885e-4
-1.204, 8.660e-4
-1.203, 8.279e-4
-1.202, 8.025e-4
-1.201, 7.692e-4
-1.200, 7.325e-4
-1.199, 7.079e-4
-1.198, 6.756e-4
-1.197, 6.518e-4
-1.196, 6.185e-4
-1.195, 5.888e-4
-1.194, 5.575e-4
-1.193, 5.375e-4
-1.192, 5.085e-4
-1.191, 4.824e-4
-1.190, 4.571e-4
-1.189, 4.310e-4
-1.188, 4.051e-4
-1.187, 3.789e-4
-1.186, 3.500e-4
-1.185, 3.288e-4
-1.184, 3.102e-4
-1.183, 2.880e-4
-1.182, 2.612e-4
-1.181, 2.428e-4
-1.180, 2.163e-4
-1.179, 1.963e-4
-1.178, 1.737e-4
-1.177, 1.534e-4
-1.176, 1.316e-4
-1.175, 1.114e-4
-1.174, 9.308e-5
-1.173, 7.389e-5
-1.172, 5.530e-5
-1.171, 3.574e-5
-1.170, 1.723e-5
-1.169, -9.294e-7
-1.168, -1.783e-5
-1.167, -3.510e-5
-1.166, -5.218e-5
-1.165, -6.953e-5
-1.164, -8.505e-5
-1.163, -1.003e-4
-1.162, -1.162e-4
-1.161, -1.370e-4
-1.160, -1.559e-4
-1.159, -1.672e-4
-1.158, -1.800e-4
-1.157, -1.911e-4
-1.156, -2.021e-4
-1.155, -2.199e-4
-1.154, -2.297e-4
-1.153, -2.488e-4
-1.152, -2.548e-4
-1.151, -2.802e-4
-1.150, -2.817e-4
-1.149, -3.008e-4
-1.148, -3.054e-4
-1.147, -3.136e-4
-1.146, -3.307e-4
-1.145, -3.357e-4
-1.144, -3.579e-4
-1.143, -3.586e-4
-1.142, -3.719e-4
-1.141, -3.793e-4
-1.140, -3.904e-4
-1.139, -3.913e-4
-1.138, -4.114e-4
-1.137, -4.163e-4
-1.136, -4.224e-4
-1.135, -4.318e-4
-1.134, -4.357e-4
-1.133, -4.436e-4
-1.132, -4.620e-4
-1.131, -4.585e-4
-1.130, -4.779e-4
-1.129, -4.746e-4
-1.128, -4.848e-4
-1.127, -4.975e-4
-1.126, -4.977e-4
-1.125, -5.027e-4
-1.124, -5.118e-4
-1.123, -5.187e-4
-1.122, -5.189e-4
-1.121, -5.322e-4
-1.120, -5.392e-4
-1.119, -5.373e-4
-1.118, -5.461e-4
-1.117, -5.471e-4
-1.116, -5.572e-4
-1.115, -5.624e-4
-1.114, -5.780e-4
-1.113, -5.942e-4
-1.112, -5.728e-4
-1.111, -5.927e-4
-1.110, -5.860e-4
-1.109, -5.938e-4
-1.108, -6.391e-4
-1.107, -6.073e-4
-1.106, -6.245e-4
-1.105, -6.130e-4
-1.104, -6.237e-4
-1.103, -6.563e-4
-1.102, -6.484e-4
-1.101, -6.505e-4
-1.100, -6.620e-4
-1.099, -6.945e-4
-1.098, -6.994e-4
-1.097, -7.187e-4
-1.096, -7.070e-4
-1.095, -6.718e-4
-1.094, -6.817e-4
-1.093, -6.599e-4
-1.092, -6.518e-4
-1.091, -6.552e-4
-1.090, -6.435e-4
-1.089, -6.421e-4
-1.088, -6.575e-4
-1.087, -6.495e-4
-1.086, -6.636e-4
-1.085, -6.584e-4
-1.084, -6.429e-4
-1.083, -6.477e-4
-1.082, -6.495e-4
-1.081, -6.565e-4
-1.080, -6.499e-4
-1.079, -6.500e-4
-1.078, -6.433e-4
-1.077, -6.444e-4
-1.076, -6.370e-4
-1.075, -6.753e-4
-1.074, -6.662e-4
-1.073, -6.367e-4
-1.072, -6.620e-4
-1.071, -6.391e-4
-1.070, -6.468e-4
-1.069, -6.516e-4
-1.068, -6.416e-4
-1.067, -6.495e-4
-1.066, -6.453e-4
-1.065, -6.552e-4
-1.064, -6.497e-4
-1.063, -6.346e-4
-1.062, -6.501e-4
-1.061, -6.403e-4
-1.060, -6.378e-4
-1.059, -6.432e-4
-1.058, -6.354e-4
-1.057, -6.473e-4
-1.056, -6.434e-4
-1.055, -6.378e-4
-1.054, -6.385e-4
-1.053, -6.311e-4
-1.052, -6.357e-4
-1.051, -6.309e-4
-1.050, -6.221e-4
-1.049, -6.463e-4
-1.048, -6.584e-4
-1.047, -6.316e-4
-1.046, -6.194e-4
-1.045, -6.200e-4
-1.044, -6.303e-4
-1.043, -6.334e-4
-1.042, -6.367e-4
-1.041, -6.147e-4
-1.040, -6.278e-4
-1.039, -6.279e-4
-1.038, -6.155e-4
-1.037, -6.382e-4
-1.036, -6.146e-4
-1.035, -6.187e-4
-1.034, -6.242e-4
-1.033, -6.074e-4
-1.032, -6.134e-4
-1.031, -6.182e-4
-1.030, -6.090e-4
-1.029, -6.184e-4
-1.028, -6.088e-4
-1.027, -6.103e-4
-1.026, -6.098e-4
-1.025, -6.079e-4
-1.024, -6.078e-4
-1.023, -5.990e-4
-1.022, -6.105e-4
-1.021, -6.107e-4
-1.020, -6.008e-4
-1.019, -6.103e-4
-1.018, -6.015e-4
-1.017, -5.956e-4
-1.016, -6.002e-4
-1.015, -5.957e-4
-1.014, -6.015e-4
-1.013, -5.976e-4
-1.012, -5.961e-4
-1.011, -5.996e-4
-1.010, -5.920e-4
-1.009, -5.969e-4
-1.008, -5.930e-4
-1.007, -5.892e-4
-1.006, -5.808e-4
-1.005, -5.778e-4
-1.004, -5.855e-4
-1.003, -5.880e-4
-1.002, -5.978e-4
-1.001, -5.925e-4
