Potential V vs RHE, Current mA cm-2
0.013299999999999867,0.7829012333453113
0.012299999999999978,-1.1798692240874404
0.011299999999999866,-2.8803522065252145
0.010299999999999976,-4.364384360083638
0.009299999999999864,-5.80314575204638
0.008299999999999974,-7.155609754717355
0.007299999999999862,-8.376505606500881
0.006299999999999972,-9.467248018696827
0.00529999999999986,-10.557990430892769
0.0042999999999999705,-11.604876792792895
0.0032999999999998586,-12.56405105410139
0.0022999999999999687,-13.436927926118118
0.0012999999999998568,-14.175407224647667
0.00029999999999996696,-14.783733083589633
-0.000700000000000145,-15.3920589425316
-0.0017000000000000348,-15.972090575476265
-0.0027000000000001467,-16.53797509542228
-0.0037000000000000366,-17.061418276372343
-0.0047000000000001485,-17.542420118326454
-0.005700000000000038,-18.06586329927652
-0.00670000000000015,-18.631747819222536
-0.00770000000000004,-19.056161209182044
-0.008700000000000152,-19.367397695152352
-0.009700000000000042,-19.678634181122664
-0.010700000000000154,-19.97572355409432
-0.011700000000000044,-20.286960040064624
-0.012700000000000156,-20.541608074040333
-0.013700000000000045,-20.76796188201874
-0.014700000000000157,-20.980168576998494
-0.015700000000000047,-21.2065223849769
-0.01670000000000016,-21.461170418952605
-0.01770000000000005,-21.729965565926964
-0.01870000000000016,-21.857289582914817
-0.01970000000000005,-21.899730921910766
-0.020700000000000163,-21.98461359990267
-0.021700000000000053,-22.196820294882425
-0.022700000000000164,-22.42317410286083
-0.023700000000000054,-22.550498119848687
-0.024700000000000166,-22.63538079784059
-0.025700000000000056,-22.72026347583249
-0.026700000000000168,-22.904175944814945
-0.027700000000000058,-23.031499961802798
-0.02870000000000017,-23.031499961802798
-0.02970000000000006,-23.031499961802798
-0.03070000000000017,-23.1163826397947
-0.03170000000000006,-23.24370665678255
-0.03270000000000017,-23.342736447773106
-0.03370000000000006,-23.385177786769056
-0.034700000000000175,-23.427619125765005
-0.035700000000000065,-23.51250180375691
-0.03670000000000018,-23.639825820744765
-0.03770000000000007,-23.682267159740714
-0.03870000000000018,-23.682267159740714
-0.03970000000000007,-23.639825820744765
-0.04070000000000018,-23.639825820744765
-0.04170000000000007,-23.724708498736668
-0.04270000000000018,-23.86617962872317
-0.04370000000000007,-23.86617962872317
-0.044700000000000184,-23.86617962872317
-0.045700000000000074,-23.993503645711023
-0.046700000000000186,-24.120827662698876
-0.047700000000000076,-24.16326900169483
-0.04870000000000019,-24.078386323702922
-0.04970000000000008,-23.993503645711023
-0.05070000000000019,-23.993503645711023
-0.05170000000000008,-24.078386323702922
-0.05270000000000019,-24.20571034069078
-0.05370000000000008,-24.24815167968673
-0.05470000000000019,-24.20571034069078
-0.05570000000000008,-24.20571034069078
-0.056700000000000195,-24.34718147067728
-0.057700000000000085,-24.34718147067728
-0.058700000000000196,-24.389622809673234
-0.059700000000000086,-24.389622809673234
-0.0607000000000002,-24.389622809673234
-0.06170000000000009,-24.432064148669184
-0.0627000000000002,-24.474505487665134
-0.06370000000000009,-24.474505487665134
-0.0647000000000002,-24.474505487665134
-0.06570000000000009,-24.516946826661083
-0.0667000000000002,-24.601829504652986
-0.0677000000000001,-24.601829504652986
-0.0687000000000002,-24.601829504652986
-0.0697000000000001,-24.559388165657033
-0.07070000000000021,-24.601829504652986
-0.0717000000000001,-24.686712182644893
-0.07270000000000021,-24.729153521640843
-0.0737000000000001,-24.729153521640843
-0.07470000000000021,-24.64427084364894
-0.0757000000000001,-24.686712182644893
-0.07670000000000021,-24.729153521640843
-0.0777000000000001,-24.814036199632742
-0.07870000000000021,-24.9130659906233
-0.0797000000000001,-24.9130659906233
-0.08070000000000022,-24.9130659906233
-0.0817000000000001,-24.997948668615198
-0.08270000000000022,-25.0828313466071
-0.08370000000000011,-25.04039000761115
-0.08470000000000022,-24.95550732961925
-0.08570000000000011,-24.95550732961925
-0.08670000000000022,-25.04039000761115
-0.08770000000000011,-25.0828313466071
-0.08870000000000022,-25.04039000761115
-0.08970000000000011,-25.12527268560305
-0.09070000000000022,-25.167714024599
-0.09170000000000011,-25.252596702590903
-0.09270000000000023,-25.295038041586857
-0.09370000000000012,-25.295038041586857
-0.09470000000000023,-25.295038041586857
-0.09570000000000012,-25.337479380582806
-0.09670000000000023,-25.39406783257741
-0.09770000000000012,-25.43650917157336
-0.09870000000000023,-25.478950510569312
-0.09970000000000012,-25.521391849565262
-0.10070000000000023,-25.563833188561212
-0.10170000000000012,-25.691157205549064
-0.10270000000000024,-25.77603988354097
-0.10370000000000013,-25.77603988354097
-0.10470000000000024,-25.77603988354097
-0.10570000000000013,-25.77603988354097
-0.10670000000000024,-25.81848122253692
-0.10770000000000013,-25.91751101352747
-0.10870000000000024,-25.959952352523427
-0.10970000000000013,-25.959952352523427
-0.11070000000000024,-26.044835030515326
-0.11170000000000013,-26.17215904750318
-0.11270000000000002,-26.29948306449103
-0.11370000000000013,-26.29948306449103
-0.11470000000000002,-26.257041725495082
-0.11570000000000014,-26.29948306449103
-0.11670000000000003,-26.38436574248293
-0.11770000000000014,-26.525836872469437
-0.11870000000000003,-26.568278211465387
-0.11970000000000014,-26.568278211465387
-0.12070000000000003,-26.65316088945729
-0.12170000000000014,-26.780484906445146
-0.12270000000000003,-26.86536758443705
-0.12370000000000014,-26.9643973754276
-0.12470000000000003,-26.9643973754276
-0.12570000000000014,-27.00683871442355
-0.12670000000000003,-27.134162731411404
-0.12770000000000015,-27.261486748399253
-0.12870000000000004,-27.261486748399253
-0.12970000000000015,-27.34636942639116
-0.13070000000000004,-27.43125210438306
-0.13170000000000015,-27.572723234369565
-0.13270000000000004,-27.78492992934932
-0.13370000000000015,-27.869812607341224
-0.13470000000000004,-27.912253946337174
-0.13570000000000015,-27.954695285333123
-0.13670000000000004,-28.05372507632368
-0.13770000000000016,-28.22349043230748
-0.13870000000000005,-28.350814449295335
-0.13970000000000016,-28.393255788291288
-0.14070000000000005,-28.53472691827779
-0.14170000000000016,-28.704492274261593
-0.14270000000000005,-28.831816291249446
-0.14370000000000016,-28.8742576302454
-0.14470000000000005,-28.91669896924135
-0.14570000000000016,-29.058170099227848
-0.14670000000000005,-29.31281813320356
-0.14770000000000016,-29.66649595816982
-0.14870000000000005,-29.836261314153624
-0.14970000000000017,-29.836261314153624
-0.15070000000000006,-29.878702653149578
-0.15170000000000017,-29.921143992145527
-0.15270000000000006,-30.10505646112798
-0.15370000000000017,-30.232380478115836
-0.15470000000000006,-30.402145834099635
-0.15570000000000017,-30.71338232006995
-0.15670000000000006,-30.968030354045652
-0.15770000000000017,-31.19438416202406
-0.15870000000000006,-31.321708179011907
-0.15970000000000018,-31.321708179011907
-0.16070000000000007,-31.36414951800786
-0.16170000000000018,-31.618797551983565
-0.16270000000000007,-31.887592698957924
-0.16370000000000018,-32.184682071929586
-0.16470000000000007,-32.49591855789989
-0.16570000000000018,-32.764713704874254
-0.16670000000000007,-33.01936173884996
-0.16770000000000018,-33.231568433829715
-0.16870000000000007,-33.330598224820264
-0.16970000000000018,-33.330598224820264
-0.17070000000000007,-33.50036358080407
-0.17170000000000019,-33.89648274476628
-0.17270000000000008,-34.33504324772444
-0.1737000000000002,-34.717015298688004
-0.17470000000000008,-34.98581044566235
-0.1757000000000002,-35.240458479638065
-0.17670000000000008,-35.42437094862052
-0.1777000000000002,-35.594136304604326
-0.17870000000000008,-35.806342999584075
-0.1797000000000002,-36.11757948555439
-0.18070000000000008,-36.47125731052064
-0.1817000000000002,-36.89567070048016
-0.18270000000000008,-37.334231203438314
-0.1837000000000002,-37.687909028404576
-0.1847000000000001,-37.94255706238028
-0.1857000000000002,-38.211352209354644
-0.1867000000000001,-38.522588695324956
-0.1877000000000002,-38.734795390304704
-0.1887000000000001,-39.046031876275016
-0.1897000000000002,-39.42800392723857
-0.1907000000000001,-39.90900576919269
-0.1917000000000001,-40.4748902891387
-0.19269999999999998,-40.91345079209687
-0.1937000000000001,-41.182245939071215
-0.19469999999999998,-41.30956995605907
-0.1957000000000001,-41.606659329030734
-0.19669999999999999,-42.087661170984845
-0.1977000000000001,-42.653545690930855
-0.1987,-43.09210619388902
-0.1997000000000001,-43.48822535785123
-0.2007,-43.92678586080939
-0.2017000000000001,-44.535111719751356
-0.2027,-45.05855490070142
-0.2037000000000001,-45.45467406466363
-0.2047,-45.75176343763528
-0.2057000000000001,-46.147882601597495
-0.2067,-46.67132578254756
-0.2077000000000001,-47.27965164148953
-0.2087,-47.84553616143554
-0.2097000000000001,-48.2840966643937
-0.2107,-48.76509850634781
-0.2117000000000001,-49.33098302629383
-0.2127,-49.81198486824794
-0.2137000000000001,-50.29298671020206
-0.2147,-50.77398855215617
-0.2157000000000001,-51.424755750094086
-0.2167,-52.075522948032
-0.21770000000000012,-52.78287859796452
-0.2187,-53.39120445690648
-0.21970000000000012,-53.999530315848446
-0.2207,-54.56541483579447
-0.22170000000000012,-55.13129935574048
-0.2227,-55.73962521468245
-0.22370000000000012,-56.22062705663656
-0.2247,-56.786511576582576
-0.22570000000000012,-57.45142588751914
-0.2267,-58.18707576344896
-0.22770000000000012,-58.97931409137338
-0.22870000000000001,-59.67252262830725
-0.22970000000000013,-60.23840714825326
-0.23070000000000002,-60.889174346191176
-0.23170000000000013,-61.63897133511965
-0.23270000000000002,-62.33217987205352
-0.23370000000000013,-62.98294706999144
-0.23470000000000002,-63.6761556069253
-0.23570000000000013,-64.38351125685783
-0.23670000000000002,-65.16160247178358
-0.2376999999999999,-65.95384079970802
-0.23870000000000002,-66.56216665864997
-0.2396999999999999,-67.17049251759194
-0.24070000000000003,-67.82125971552985
-0.24169999999999991,-68.61349804345427
-0.24270000000000003,-69.43403059737601
-0.24369999999999992,-70.31115160329232
-0.24470000000000003,-71.18827260920865
-0.24569999999999992,-71.96636382413442
-0.24670000000000003,-72.63127813507097
-0.24769999999999992,-73.32448667200485
-0.24870000000000003,-74.0176952089387
-0.24969999999999992,-74.76749219786718
-0.25070000000000003,-75.63046609078486
-0.2516999999999999,-76.55002843569714
-0.25270000000000004,-77.38470810261751
-0.2536999999999999,-78.12035797854733
-0.25470000000000004,-79.0399203234596
-0.2556999999999999,-80.08680668535972
-0.25670000000000004,-81.09125170826391
-0.25769999999999993,-81.99666694017753
-0.25870000000000004,-82.8313466070979
-0.25969999999999993,-83.70846761301424
-0.26070000000000004,-84.6563241839238
-0.26169999999999993,-85.53344518984011
-0.26270000000000004,-86.45300753475239
-0.26369999999999993,-87.54233523564847
-0.26470000000000005,-88.5892215975486
-0.26569999999999994,-89.55122528145681
-0.26670000000000005,-90.55567030436099
-0.26769999999999994,-91.51767398826922
-0.26870000000000005,-92.29576520319499
-0.26969999999999994,-92.98897374012887
-0.27070000000000005,-93.86609474604518
-0.27169999999999994,-94.87053976894937
-0.27270000000000005,-95.95986746984543
-0.27369999999999994,-97.13407784873341
-0.27470000000000006,-98.40731801861195
-0.27569999999999995,-99.62396973649588
-0.27670000000000006,-100.54353208140815
-0.27769999999999995,-101.15185794035013
-0.27870000000000006,-102.11386162425833
-0.27969999999999995,-102.84951150018817
-0.28070000000000006,-103.7266325061045
-0.28169999999999995,-104.77351886800463
-0.28270000000000006,-105.90528790789664
-0.28369999999999995,-107.34829343375898
-0.28470000000000006,-108.39517979565912
-0.28569999999999995,-109.25815368857677
-0.28670000000000007,-110.40406984146746
-0.28769999999999996,-111.74804557633925
-0.28870000000000007,-113.31837511918944
-0.28969999999999996,-114.84626332304367
-0.29070000000000007,-116.02047370193165
-0.29169999999999996,-116.85515336885203
-0.29270000000000007,-117.77471571376431
-0.29369999999999996,-118.72257228467387
-0.2947000000000001,-119.68457596858211
-0.29569999999999996,-121.17002283344038
-0.2967000000000001,-122.65546969829869
-0.29769999999999996,-123.70235606019881
-0.2987000000000001,-124.43800593612862
-0.29969999999999997,-125.56977497602065
-0.3007000000000001,-126.71569112891132
-0.30169999999999997,-127.57866502182902
-0.3027000000000001,-128.37090334975343
-0.30369999999999997,-129.3753483726576
-0.3047000000000001,-130.84664812451723
-0.30569999999999997,-132.33209498937555
-0.3067000000000001,-133.4214226902716
-0.3077,-133.64777649825
-0.3087000000000001,-134.04389566221224
-0.3097,-135.3029887190921
-0.3107000000000001,-137.00064227893017
-0.3117,-138.96709098574257
-0.3127000000000001,-140.84865701456303
-0.3137,-141.89554337646317
-0.3147000000000001,-142.8858412863687
-0.3157,-143.87613919627424
-0.3167000000000001,-145.14937936615277
-0.3177,-146.5640906660178
-0.3187000000000001,-147.83733083589632
-0.3197,-149.1105710057749
-0.3207000000000001,-150.66675343562642
-0.3217,-152.64734925543743
-0.3227000000000001,-154.3450028152755
-0.3237,-155.75971411514055
-0.3247000000000001,-156.75001202504606
-0.3257,-157.7403099349516
-0.3267000000000001,-159.15502123481662
-0.3277,-160.42826140469515
-0.3287000000000001,-162.12591496453322
-0.3297,-163.11621287443873
-0.3307000000000001,-163.96503965435775
-0.3317,-165.09680869424977
-0.3327000000000001,-165.94563547416882
-0.3337,-166.93593338407433
-0.3347000000000001,-168.49211581392586
-0.3357,-170.47271163373694
-0.3367000000000001,-172.31183632356147
-0.3377,-173.72654762342648
-0.3387000000000001,-174.43390327335902
-0.3397,-175.14125892329156
-0.3407000000000001,-176.4144990931701
-0.3417,-178.1121526530081
-0.3427000000000001,-179.80980621284618
-0.3437,-181.36598864269772
-0.3447000000000001,-183.20511333252225
-0.3457,-185.1857091523333
-0.3467000000000001,-186.74189158218485
-0.3477,-187.59071836210387
-0.3487000000000001,-188.15660288204987
-0.3497,-189.1469007919554
-0.3507000000000001,-190.84455435179345
-0.3517,-192.54220791163152
-0.3527000000000001,-193.9569192114965
-0.3537,-195.51310164134807
-0.3547000000000001,-197.0692840711996
-0.3557,-198.76693763103765
-0.35670000000000013,-200.04017780091618
-0.3577,-200.88900458083523
-0.35870000000000013,-201.87930249074074
-0.3597,-203.43548492059227
-0.36070000000000013,-205.27460961041683
-0.3617,-207.1137343002414
-0.3626999999999999,-208.6699167300929
-0.3637,-209.37727238002543
-0.3646999999999999,-210.08462802995794
-0.3657,-211.35786819983647
-0.3666999999999999,-213.33846401964755
-0.3677,-215.88494435940459
-0.3686999999999999,-218.14848243918865
-0.36970000000000003,-218.99730921910768
-0.3706999999999999,-219.42172260906716
-0.37170000000000003,-220.6949627789457
-0.3726999999999999,-222.10967407881074
-0.37370000000000003,-223.6658565086623
-0.3746999999999999,-225.08056780852735
-0.37570000000000003,-226.35380797840588
-0.3766999999999999,-228.33440379821695
-0.37770000000000004,-230.31499961802797
-0.3786999999999999,-231.44676865792
-0.37970000000000004,-232.29559543783904
-0.3806999999999999,-233.4273644777311
-0.38170000000000004,-235.26648916755556
-0.38269999999999993,-236.96414272739366
-0.38370000000000004,-238.37885402725868
-0.38469999999999993,-239.65209419713722
-0.38570000000000004,-240.92533436701575
-0.38669999999999993,-241.06680549700224
-0.38570000000000004,-238.94473854720468
-0.38469999999999993,-236.96414272739366
-0.38370000000000004,-234.7006046476096
-0.38269999999999993,-232.43706656782552
-0.38170000000000004,-231.0223552679605
-0.3806999999999999,-229.74911509808197
-0.37970000000000004,-227.7685192782709
-0.3786999999999999,-225.78792345845983
-0.37770000000000004,-223.80732763864881
-0.3766999999999999,-222.25114520879725
-0.37570000000000003,-221.11937616890526
-0.3746999999999999,-219.98760712901318
-0.37370000000000003,-218.43142469916165
-0.3726999999999999,-216.87524226931012
-0.37170000000000003,-215.17758870947208
-0.3706999999999999,-213.76287740960703
-0.36970000000000003,-212.34816610974204
-0.3686999999999999,-210.65051254990397
-0.3677,-208.8113878600794
-0.3666999999999999,-207.1137343002414
-0.3657,-205.27460961041683
-0.3646999999999999,-203.85989831055176
-0.3637,-202.7281292706598
-0.3626999999999999,-201.31341797079472
-0.3617,-199.89870667092967
-0.36070000000000013,-198.48399537106465
-0.3597,-196.92781294121312
-0.35870000000000013,-195.23015938137505
-0.3577,-193.532505821537
-0.35670000000000013,-191.9763233916855
-0.3557,-190.42014096183394
-0.3547000000000001,-188.8639585319824
-0.3537,-187.16630497214436
-0.3527000000000001,-185.46865141230631
-0.3517,-184.19541124242778
-0.3507000000000001,-183.20511333252225
-0.3497,-182.35628655260325
-0.3487000000000001,-180.94157525273818
-0.3477,-179.10245056291362
-0.3467000000000001,-177.2633258730891
-0.3457,-175.42420118326456
-0.3447000000000001,-173.58507649344
-0.3437,-172.0288940635885
-0.3427000000000001,-170.61418276372342
-0.3417,-169.6238848538179
-0.3407000000000001,-168.35064468393938
-0.3397,-166.93593338407433
-0.3387000000000001,-164.9553375642633
-0.3377,-163.54062626439824
-0.3367000000000001,-162.12591496453322
-0.3357,-160.99414592464117
-0.3347000000000001,-159.72090575476264
-0.3337,-158.1647233249111
-0.3327000000000001,-156.32559863508658
-0.3317,-154.486473945262
-0.3307000000000001,-152.64734925543743
-0.3297,-151.37410908555893
-0.3287000000000001,-150.24234004566688
-0.3277,-149.25204213576137
-0.3267000000000001,-148.12027309586935
-0.3257,-146.4226195360313
-0.3247000000000001,-144.72496597619326
-0.3237,-143.3102546763282
-0.3227000000000001,-142.03701450644968
-0.3217,-140.5798618675887
-0.3207000000000001,-139.27832747171286
-0.3197,-137.83532194585052
-0.3187000000000001,-136.3923164199882
-0.3177,-134.82198687713802
-0.3167000000000001,-133.37898135127566
-0.3157,-132.2896536503796
-0.3147000000000001,-131.15788461048754
-0.3137,-129.8563502146117
-0.3127000000000001,-128.4982273667413
-0.3117,-127.012780501883
-0.3107000000000001,-125.272685603049
-0.3097,-123.78723873819072
-0.3087000000000001,-122.42911589032028
-0.3077,-121.29734685042824
-0.3067000000000001,-120.33534316652002
-0.30569999999999997,-118.86404341466037
-0.3047000000000001,-117.33615521080614
-0.30369999999999997,-115.62435453796945
-0.3027000000000001,-113.79937696114357
-0.30169999999999997,-112.31393009628526
-0.3007000000000001,-111.09727837840134
-0.29969999999999997,-109.78159686952685
-0.2987000000000001,-108.60738649063886
-0.29769999999999996,-107.56050012873874
-0.2967000000000001,-106.30140707185885
-0.29569999999999996,-104.90084288499246
-0.2947000000000001,-103.28807200314633
-0.29369999999999996,-101.63285978230424
-0.29270000000000007,-100.31717827342976
-0.29169999999999996,-99.14296789454177
-0.29070000000000007,-98.01119885464975
-0.28969999999999996,-96.87942981475771
-0.28870000000000007,-95.74766077486568
-0.28769999999999996,-94.7432157519615
-0.28670000000000007,-93.69632939006138
-0.28569999999999995,-92.42308922018285
-0.28470000000000006,-90.7254356603448
-0.28369999999999995,-88.94289942251486
-0.28270000000000006,-87.49989389665252
-0.28169999999999995,-86.58033155174023
-0.28070000000000006,-85.84468167581042
-0.27969999999999995,-84.96756066989411
-0.27870000000000006,-83.60943782202366
-0.27769999999999995,-82.22302074815593
-0.27670000000000006,-80.90733923928146
-0.27569999999999995,-79.60580484340561
-0.27470000000000006,-78.20524065653922
-0.27369999999999994,-77.11591295564315
-0.27270000000000005,-75.98414391575112
-0.27169999999999994,-74.8523748758591
-0.27070000000000005,-73.80548851395896
-0.26969999999999994,-72.71616081306288
-0.26870000000000005,-71.6268331121668
-0.26769999999999994,-70.62238808926263
