Mar. 7, 2025   05:33:07
Cyclic Voltammetry
File: c:/users/guazh/data/banditlqround7_x0exp169_r20_3/2025-03-03-exp895\exp895-2025-03-07t05_25_34-arkoh\exp895_cv_sr_600mvs_efin_-1400mv.bin
Data Source:  Experiment
Instrument Model:  CHI760E
Header: CV ran at 600 mVs
Note: 

Init E (V) = -1
High E (V) = -1
Low E (V) = -1.4
Final E (V) = -1
Init P/N = N
Scan Rate (V/s) = 0.6
Segment = 3
Sample Interval (V) = 0.001
Quiet Time (sec) = 2
Sensitivity (A/V) = 0.01
Comp R (ohm) = 1.6

Results:

Channel 1:
Segment 1:

Segment 2:

Segment 3:

Potential/V, Current/A

-1.000, -6.767e-5
-1.001, 5.873e-5
-1.002, 1.790e-4
-1.003, 2.992e-4
-1.004, 4.133e-4
-1.005, 5.243e-4
-1.006, 6.291e-4
-1.007, 7.309e-4
-1.008, 8.264e-4
-1.009, 9.189e-4
-1.010, 1.005e-3
-1.011, 1.088e-3
-1.012, 1.172e-3
-1.013, 1.249e-3
-1.014, 1.326e-3
-1.015, 1.400e-3
-1.016, 1.474e-3
-1.017, 1.542e-3
-1.018, 1.610e-3
-1.019, 1.674e-3
-1.020, 1.730e-3
-1.021, 1.788e-3
-1.022, 1.847e-3
-1.023, 1.902e-3
-1.024, 1.961e-3
-1.025, 2.013e-3
-1.026, 2.063e-3
-1.027, 2.112e-3
-1.028, 2.158e-3
-1.029, 2.205e-3
-1.030, 2.248e-3
-1.031, 2.294e-3
-1.032, 2.334e-3
-1.033, 2.374e-3
-1.034, 2.411e-3
-1.035, 2.451e-3
-1.036, 2.488e-3
-1.037, 2.522e-3
-1.038, 2.550e-3
-1.039, 2.578e-3
-1.040, 2.602e-3
-1.041, 2.630e-3
-1.042, 2.655e-3
-1.043, 2.679e-3
-1.044, 2.704e-3
-1.045, 2.729e-3
-1.046, 2.753e-3
-1.047, 2.775e-3
-1.048, 2.797e-3
-1.049, 2.818e-3
-1.050, 2.840e-3
-1.051, 2.867e-3
-1.052, 2.895e-3
-1.053, 2.920e-3
-1.054, 2.945e-3
-1.055, 2.966e-3
-1.056, 2.975e-3
-1.057, 2.988e-3
-1.058, 2.994e-3
-1.059, 3.003e-3
-1.060, 3.019e-3
-1.061, 3.037e-3
-1.062, 3.052e-3
-1.063, 3.065e-3
-1.064, 3.080e-3
-1.065, 3.099e-3
-1.066, 3.114e-3
-1.067, 3.126e-3
-1.068, 3.136e-3
-1.069, 3.145e-3
-1.070, 3.154e-3
-1.071, 3.167e-3
-1.072, 3.182e-3
-1.073, 3.197e-3
-1.074, 3.210e-3
-1.075, 3.222e-3
-1.076, 3.228e-3
-1.077, 3.228e-3
-1.078, 3.231e-3
-1.079, 3.234e-3
-1.080, 3.241e-3
-1.081, 3.253e-3
-1.082, 3.268e-3
-1.083, 3.281e-3
-1.084, 3.296e-3
-1.085, 3.305e-3
-1.086, 3.311e-3
-1.087, 3.314e-3
-1.088, 3.318e-3
-1.089, 3.318e-3
-1.090, 3.311e-3
-1.091, 3.314e-3
-1.092, 3.318e-3
-1.093, 3.327e-3
-1.094, 3.336e-3
-1.095, 3.351e-3
-1.096, 3.361e-3
-1.097, 3.370e-3
-1.098, 3.373e-3
-1.099, 3.379e-3
-1.100, 3.382e-3
-1.101, 3.388e-3
-1.102, 3.395e-3
-1.103, 3.401e-3
-1.104, 3.407e-3
-1.105, 3.413e-3
-1.106, 3.419e-3
-1.107, 3.422e-3
-1.108, 3.425e-3
-1.109, 3.422e-3
-1.110, 3.422e-3
-1.111, 3.425e-3
-1.112, 3.425e-3
-1.113, 3.432e-3
-1.114, 3.435e-3
-1.115, 3.438e-3
-1.116, 3.444e-3
-1.117, 3.447e-3
-1.118, 3.453e-3
-1.119, 3.459e-3
-1.120, 3.459e-3
-1.121, 3.469e-3
-1.122, 3.472e-3
-1.123, 3.481e-3
-1.124, 3.487e-3
-1.125, 3.490e-3
-1.126, 3.493e-3
-1.127, 3.496e-3
-1.128, 3.496e-3
-1.129, 3.496e-3
-1.130, 3.496e-3
-1.131, 3.499e-3
-1.132, 3.503e-3
-1.133, 3.506e-3
-1.134, 3.512e-3
-1.135, 3.515e-3
-1.136, 3.521e-3
-1.137, 3.524e-3
-1.138, 3.524e-3
-1.139, 3.533e-3
-1.140, 3.536e-3
-1.141, 3.543e-3
-1.142, 3.552e-3
-1.143, 3.564e-3
-1.144, 3.573e-3
-1.145, 3.583e-3
-1.146, 3.592e-3
-1.147, 3.598e-3
-1.148, 3.598e-3
-1.149, 3.595e-3
-1.150, 3.592e-3
-1.151, 3.598e-3
-1.152, 3.601e-3
-1.153, 3.610e-3
-1.154, 3.614e-3
-1.155, 3.614e-3
-1.156, 3.604e-3
-1.157, 3.598e-3
-1.158, 3.598e-3
-1.159, 3.604e-3
-1.160, 3.614e-3
-1.161, 3.632e-3
-1.162, 3.647e-3
-1.163, 3.666e-3
-1.164, 3.681e-3
-1.165, 3.694e-3
-1.166, 3.703e-3
-1.167, 3.712e-3
-1.168, 3.715e-3
-1.169, 3.725e-3
-1.170, 3.731e-3
-1.171, 3.737e-3
-1.172, 3.740e-3
-1.173, 3.743e-3
-1.174, 3.746e-3
-1.175, 3.752e-3
-1.176, 3.755e-3
-1.177, 3.762e-3
-1.178, 3.762e-3
-1.179, 3.762e-3
-1.180, 3.768e-3
-1.181, 3.780e-3
-1.182, 3.799e-3
-1.183, 3.820e-3
-1.184, 3.842e-3
-1.185, 3.863e-3
-1.186, 3.885e-3
-1.187, 3.903e-3
-1.188, 3.922e-3
-1.189, 3.934e-3
-1.190, 3.947e-3
-1.191, 3.956e-3
-1.192, 3.962e-3
-1.193, 3.968e-3
-1.194, 3.971e-3
-1.195, 3.974e-3
-1.196, 3.984e-3
-1.197, 3.993e-3
-1.198, 4.005e-3
-1.199, 4.021e-3
-1.200, 4.033e-3
-1.201, 4.054e-3
-1.202, 4.073e-3
-1.203, 4.091e-3
-1.204, 4.113e-3
-1.205, 4.128e-3
-1.206, 4.150e-3
-1.207, 4.169e-3
-1.208, 4.187e-3
-1.209, 4.202e-3
-1.210, 4.221e-3
-1.211, 4.246e-3
-1.212, 4.273e-3
-1.213, 4.298e-3
-1.214, 4.323e-3
-1.215, 4.341e-3
-1.216, 4.357e-3
-1.217, 4.369e-3
-1.218, 4.384e-3
-1.219, 4.403e-3
-1.220, 4.424e-3
-1.221, 4.449e-3
-1.222, 4.474e-3
-1.223, 4.498e-3
-1.224, 4.526e-3
-1.225, 4.557e-3
-1.226, 4.588e-3
-1.227, 4.616e-3
-1.228, 4.643e-3
-1.229, 4.674e-3
-1.230, 4.702e-3
-1.231, 4.730e-3
-1.232, 4.754e-3
-1.233, 4.785e-3
-1.234, 4.813e-3
-1.235, 4.847e-3
-1.236, 4.887e-3
-1.237, 4.924e-3
-1.238, 4.955e-3
-1.239, 4.982e-3
-1.240, 5.010e-3
-1.241, 5.044e-3
-1.242, 5.075e-3
-1.243, 5.109e-3
-1.244, 5.146e-3
-1.245, 5.183e-3
-1.246, 5.226e-3
-1.247, 5.263e-3
-1.248, 5.306e-3
-1.249, 5.356e-3
-1.250, 5.393e-3
-1.251, 5.430e-3
-1.252, 5.467e-3
-1.253, 5.500e-3
-1.254, 5.531e-3
-1.255, 5.565e-3
-1.256, 5.596e-3
-1.257, 5.633e-3
-1.258, 5.676e-3
-1.259, 5.722e-3
-1.260, 5.769e-3
-1.261, 5.815e-3
-1.262, 5.864e-3
-1.263, 5.914e-3
-1.264, 5.963e-3
-1.265, 6.012e-3
-1.266, 6.065e-3
-1.267, 6.114e-3
-1.268, 6.160e-3
-1.269, 6.213e-3
-1.270, 6.265e-3
-1.271, 6.317e-3
-1.272, 6.367e-3
-1.273, 6.422e-3
-1.274, 6.475e-3
-1.275, 6.527e-3
-1.276, 6.580e-3
-1.277, 6.635e-3
-1.278, 6.691e-3
-1.279, 6.752e-3
-1.280, 6.814e-3
-1.281, 6.875e-3
-1.282, 6.934e-3
-1.283, 6.993e-3
-1.284, 7.051e-3
-1.285, 7.107e-3
-1.286, 7.162e-3
-1.287, 7.221e-3
-1.288, 7.282e-3
-1.289, 7.347e-3
-1.290, 7.412e-3
-1.291, 7.474e-3
-1.292, 7.529e-3
-1.293, 7.585e-3
-1.294, 7.646e-3
-1.295, 7.702e-3
-1.296, 7.754e-3
-1.297, 7.819e-3
-1.298, 7.887e-3
-1.299, 7.961e-3
-1.300, 8.041e-3
-1.301, 8.115e-3
-1.302, 8.183e-3
-1.303, 8.257e-3
-1.304, 8.331e-3
-1.305, 8.408e-3
-1.306, 8.482e-3
-1.307, 8.547e-3
-1.308, 8.611e-3
-1.309, 8.676e-3
-1.310, 8.747e-3
-1.311, 8.821e-3
-1.312, 8.892e-3
-1.313, 8.969e-3
-1.314, 9.046e-3
-1.315, 9.129e-3
-1.316, 9.206e-3
-1.317, 9.280e-3
-1.318, 9.345e-3
-1.319, 9.410e-3
-1.320, 9.478e-3
-1.321, 9.552e-3
-1.322, 9.619e-3
-1.323, 9.690e-3
-1.324, 9.761e-3
-1.325, 9.838e-3
-1.326, 9.919e-3
-1.327, 9.999e-3
-1.328, 1.008e-2
-1.329, 1.016e-2
-1.330, 1.024e-2
-1.331, 1.033e-2
-1.332, 1.042e-2
-1.333, 1.051e-2
-1.334, 1.060e-2
-1.335, 1.068e-2
-1.336, 1.076e-2
-1.337, 1.084e-2
-1.338, 1.091e-2
-1.339, 1.099e-2
-1.340, 1.107e-2
-1.341, 1.115e-2
-1.342, 1.124e-2
-1.343, 1.132e-2
-1.344, 1.140e-2
-1.345, 1.148e-2
-1.346, 1.156e-2
-1.347, 1.165e-2
-1.348, 1.174e-2
-1.349, 1.183e-2
-1.350, 1.192e-2
-1.351, 1.201e-2
-1.352, 1.209e-2
-1.353, 1.218e-2
-1.354, 1.226e-2
-1.355, 1.234e-2
-1.356, 1.243e-2
-1.357, 1.251e-2
-1.358, 1.260e-2
-1.359, 1.270e-2
-1.360, 1.279e-2
-1.361, 1.287e-2
-1.362, 1.295e-2
-1.363, 1.302e-2
-1.364, 1.310e-2
-1.365, 1.319e-2
-1.366, 1.328e-2
-1.367, 1.337e-2
-1.368, 1.347e-2
-1.369, 1.357e-2
-1.370, 1.366e-2
-1.371, 1.376e-2
-1.372, 1.386e-2
-1.373, 1.395e-2
-1.374, 1.403e-2
-1.375, 1.413e-2
-1.376, 1.422e-2
-1.377, 1.432e-2
-1.378, 1.442e-2
-1.379, 1.452e-2
-1.380, 1.461e-2
-1.381, 1.471e-2
-1.382, 1.480e-2
-1.383, 1.489e-2
-1.384, 1.497e-2
-1.385, 1.507e-2
-1.386, 1.516e-2
-1.387, 1.525e-2
-1.388, 1.535e-2
-1.389, 1.544e-2
-1.390, 1.553e-2
-1.391, 1.563e-2
-1.392, 1.574e-2
-1.393, 1.585e-2
-1.394, 1.597e-2
-1.395, 1.608e-2
-1.396, 1.617e-2
-1.397, 1.625e-2
-1.398, 1.632e-2
-1.399, 1.641e-2
-1.400, 1.640e-2
-1.399, 1.624e-2
-1.398, 1.608e-2
-1.397, 1.595e-2
-1.396, 1.582e-2
-1.395, 1.571e-2
-1.394, 1.558e-2
-1.393, 1.544e-2
-1.392, 1.531e-2
-1.391, 1.518e-2
-1.390, 1.505e-2
-1.389, 1.492e-2
-1.388, 1.480e-2
-1.387, 1.468e-2
-1.386, 1.458e-2
-1.385, 1.448e-2
-1.384, 1.438e-2
-1.383, 1.427e-2
-1.382, 1.416e-2
-1.381, 1.406e-2
-1.380, 1.395e-2
-1.379, 1.384e-2
-1.378, 1.373e-2
-1.377, 1.362e-2
-1.376, 1.353e-2
-1.375, 1.345e-2
-1.374, 1.336e-2
-1.373, 1.327e-2
-1.372, 1.316e-2
-1.371, 1.304e-2
-1.370, 1.294e-2
-1.369, 1.284e-2
-1.368, 1.273e-2
-1.367, 1.262e-2
-1.366, 1.250e-2
-1.365, 1.239e-2
-1.364, 1.230e-2
-1.363, 1.221e-2
-1.362, 1.211e-2
-1.361, 1.202e-2
-1.360, 1.192e-2
-1.359, 1.182e-2
-1.358, 1.173e-2
-1.357, 1.163e-2
-1.356, 1.153e-2
-1.355, 1.143e-2
-1.354, 1.134e-2
-1.353, 1.125e-2
-1.352, 1.116e-2
-1.351, 1.105e-2
-1.350, 1.095e-2
-1.349, 1.084e-2
-1.348, 1.074e-2
-1.347, 1.065e-2
-1.346, 1.056e-2
-1.345, 1.046e-2
-1.344, 1.037e-2
-1.343, 1.027e-2
-1.342, 1.017e-2
-1.341, 1.007e-2
-1.340, 9.962e-3
-1.339, 9.860e-3
-1.338, 9.755e-3
-1.337, 9.660e-3
-1.336, 9.570e-3
-1.335, 9.478e-3
-1.334, 9.379e-3
-1.333, 9.280e-3
-1.332, 9.179e-3
-1.331, 9.080e-3
-1.330, 8.984e-3
-1.329, 8.889e-3
-1.328, 8.796e-3
-1.327, 8.704e-3
-1.326, 8.617e-3
-1.325, 8.540e-3
-1.324, 8.466e-3
-1.323, 8.383e-3
-1.322, 8.291e-3
-1.321, 8.192e-3
-1.320, 8.087e-3
-1.319, 7.982e-3
-1.318, 7.884e-3
-1.317, 7.794e-3
-1.316, 7.705e-3
-1.315, 7.625e-3
-1.314, 7.541e-3
-1.313, 7.464e-3
-1.312, 7.384e-3
-1.311, 7.298e-3
-1.310, 7.212e-3
-1.309, 7.119e-3
-1.308, 7.023e-3
-1.307, 6.931e-3
-1.306, 6.845e-3
-1.305, 6.761e-3
-1.304, 6.675e-3
-1.303, 6.586e-3
-1.302, 6.496e-3
-1.301, 6.410e-3
-1.300, 6.314e-3
-1.299, 6.213e-3
-1.298, 6.108e-3
-1.297, 6.009e-3
-1.296, 5.926e-3
-1.295, 5.861e-3
-1.294, 5.799e-3
-1.293, 5.741e-3
-1.292, 5.676e-3
-1.291, 5.602e-3
-1.290, 5.519e-3
-1.289, 5.426e-3
-1.288, 5.331e-3
-1.287, 5.232e-3
-1.286, 5.137e-3
-1.285, 5.047e-3
-1.284, 4.955e-3
-1.283, 4.865e-3
-1.282, 4.776e-3
-1.281, 4.690e-3
-1.280, 4.600e-3
-1.279, 4.523e-3
-1.278, 4.446e-3
-1.277, 4.375e-3
-1.276, 4.301e-3
-1.275, 4.224e-3
-1.274, 4.147e-3
-1.273, 4.073e-3
-1.272, 3.999e-3
-1.271, 3.925e-3
-1.270, 3.854e-3
-1.269, 3.783e-3
-1.268, 3.712e-3
-1.267, 3.635e-3
-1.266, 3.552e-3
-1.265, 3.462e-3
-1.264, 3.379e-3
-1.263, 3.293e-3
-1.262, 3.219e-3
-1.261, 3.142e-3
-1.260, 3.068e-3
-1.259, 2.991e-3
-1.258, 2.917e-3
-1.257, 2.846e-3
-1.256, 2.778e-3
-1.255, 2.710e-3
-1.254, 2.639e-3
-1.253, 2.571e-3
-1.252, 2.497e-3
-1.251, 2.423e-3
-1.250, 2.346e-3
-1.249, 2.272e-3
-1.248, 2.198e-3
-1.247, 2.128e-3
-1.246, 2.054e-3
-1.245, 1.989e-3
-1.244, 1.918e-3
-1.243, 1.847e-3
-1.242, 1.779e-3
-1.241, 1.708e-3
-1.240, 1.634e-3
-1.239, 1.563e-3
-1.238, 1.495e-3
-1.237, 1.428e-3
-1.236, 1.363e-3
-1.235, 1.295e-3
-1.234, 1.230e-3
-1.233, 1.166e-3
-1.232, 1.098e-3
-1.231, 1.027e-3
-1.230, 9.590e-4
-1.229, 8.912e-4
-1.228, 8.264e-4
-1.227, 7.648e-4
-1.226, 7.031e-4
-1.225, 6.414e-4
-1.224, 5.798e-4
-1.223, 5.150e-4
-1.222, 4.503e-4
-1.221, 3.886e-4
-1.220, 3.239e-4
-1.219, 2.591e-4
-1.218, 1.975e-4
-1.217, 1.389e-4
-1.216, 8.032e-5
-1.215, 2.174e-5
-1.214, -3.684e-5
-1.213, -9.542e-5
-1.212, -1.571e-4
-1.211, -2.187e-4
-1.210, -2.773e-4
-1.209, -3.390e-4
-1.208, -3.945e-4
-1.207, -4.500e-4
-1.206, -5.055e-4
-1.205, -5.579e-4
-1.204, -6.134e-4
-1.203, -6.689e-4
-1.202, -7.244e-4
-1.201, -7.830e-4
-1.200, -8.415e-4
-1.199, -8.970e-4
-1.198, -9.525e-4
-1.197, -1.008e-3
-1.196, -1.064e-3
-1.195, -1.116e-3
-1.194, -1.165e-3
-1.193, -1.215e-3
-1.192, -1.264e-3
-1.191, -1.316e-3
-1.190, -1.366e-3
-1.189, -1.412e-3
-1.188, -1.461e-3
-1.187, -1.511e-3
-1.186, -1.560e-3
-1.185, -1.609e-3
-1.184, -1.655e-3
-1.183, -1.702e-3
-1.182, -1.754e-3
-1.181, -1.807e-3
-1.180, -1.859e-3
-1.179, -1.911e-3
-1.178, -1.961e-3
-1.177, -2.004e-3
-1.176, -2.044e-3
-1.175, -2.087e-3
-1.174, -2.130e-3
-1.173, -2.170e-3
-1.172, -2.214e-3
-1.171, -2.254e-3
-1.170, -2.294e-3
-1.169, -2.334e-3
-1.168, -2.374e-3
-1.167, -2.414e-3
-1.166, -2.454e-3
-1.165, -2.491e-3
-1.164, -2.537e-3
-1.163, -2.583e-3
-1.162, -2.636e-3
-1.161, -2.682e-3
-1.160, -2.725e-3
-1.159, -2.765e-3
-1.158, -2.805e-3
-1.157, -2.842e-3
-1.156, -2.879e-3
-1.155, -2.907e-3
-1.154, -2.935e-3
-1.153, -2.960e-3
-1.152, -2.990e-3
-1.151, -3.024e-3
-1.150, -3.061e-3
-1.149, -3.095e-3
-1.148, -3.132e-3
-1.147, -3.166e-3
-1.146, -3.203e-3
-1.145, -3.243e-3
-1.144, -3.283e-3
-1.143, -3.320e-3
-1.142, -3.357e-3
-1.141, -3.397e-3
-1.140, -3.434e-3
-1.139, -3.471e-3
-1.138, -3.502e-3
-1.137, -3.527e-3
-1.136, -3.555e-3
-1.135, -3.582e-3
-1.134, -3.610e-3
-1.133, -3.635e-3
-1.132, -3.666e-3
-1.131, -3.690e-3
-1.130, -3.715e-3
-1.129, -3.743e-3
-1.128, -3.767e-3
-1.127, -3.795e-3
-1.126, -3.817e-3
-1.125, -3.841e-3
-1.124, -3.872e-3
-1.123, -3.906e-3
-1.122, -3.943e-3
-1.121, -3.977e-3
-1.120, -4.005e-3
-1.119, -4.029e-3
-1.118, -4.054e-3
-1.117, -4.073e-3
-1.116, -4.091e-3
-1.115, -4.107e-3
-1.114, -4.125e-3
-1.113, -4.147e-3
-1.112, -4.168e-3
-1.111, -4.190e-3
-1.110, -4.214e-3
-1.109, -4.239e-3
-1.108, -4.264e-3
-1.107, -4.285e-3
-1.106, -4.304e-3
-1.105, -4.322e-3
-1.104, -4.341e-3
-1.103, -4.359e-3
-1.102, -4.381e-3
-1.101, -4.403e-3
-1.100, -4.424e-3
-1.099, -4.446e-3
-1.098, -4.470e-3
-1.097, -4.489e-3
-1.096, -4.507e-3
-1.095, -4.529e-3
-1.094, -4.554e-3
-1.093, -4.581e-3
-1.092, -4.606e-3
-1.091, -4.621e-3
-1.090, -4.640e-3
-1.089, -4.652e-3
-1.088, -4.668e-3
-1.087, -4.680e-3
-1.086, -4.689e-3
-1.085, -4.702e-3
-1.084, -4.711e-3
-1.083, -4.723e-3
-1.082, -4.739e-3
-1.081, -4.760e-3
-1.080, -4.782e-3
-1.079, -4.806e-3
-1.078, -4.831e-3
-1.077, -4.850e-3
-1.076, -4.871e-3
-1.075, -4.883e-3
-1.074, -4.896e-3
-1.073, -4.911e-3
-1.072, -4.933e-3
-1.071, -4.951e-3
-1.070, -4.967e-3
-1.069, -4.979e-3
-1.068, -4.988e-3
-1.067, -4.998e-3
-1.066, -5.010e-3
-1.065, -5.022e-3
-1.064, -5.035e-3
-1.063, -5.041e-3
-1.062, -5.050e-3
-1.061, -5.062e-3
-1.060, -5.078e-3
-1.059, -5.093e-3
-1.058, -5.109e-3
-1.057, -5.118e-3
-1.056, -5.127e-3
-1.055, -5.139e-3
-1.054, -5.152e-3
-1.053, -5.164e-3
-1.052, -5.176e-3
-1.051, -5.192e-3
-1.050, -5.213e-3
-1.049, -5.229e-3
-1.048, -5.247e-3
-1.047, -5.257e-3
-1.046, -5.269e-3
-1.045, -5.281e-3
-1.044, -5.294e-3
-1.043, -5.300e-3
-1.042, -5.306e-3
-1.041, -5.312e-3
-1.040, -5.318e-3
-1.039, -5.334e-3
-1.038, -5.349e-3
-1.037, -5.358e-3
-1.036, -5.364e-3
-1.035, -5.368e-3
-1.034, -5.371e-3
-1.033, -5.383e-3
-1.032, -5.395e-3
-1.031, -5.414e-3
-1.030, -5.432e-3
-1.029, -5.445e-3
-1.028, -5.460e-3
-1.027, -5.466e-3
-1.026, -5.469e-3
-1.025, -5.472e-3
-1.024, -5.472e-3
-1.023, -5.475e-3
-1.022, -5.482e-3
-1.021, -5.488e-3
-1.020, -5.500e-3
-1.019, -5.506e-3
-1.018, -5.519e-3
-1.017, -5.531e-3
-1.016, -5.543e-3
-1.015, -5.556e-3
-1.014, -5.568e-3
-1.013, -5.577e-3
-1.012, -5.583e-3
-1.011, -5.593e-3
-1.010, -5.602e-3
-1.009, -5.608e-3
-1.008, -5.611e-3
-1.007, -5.611e-3
-1.006, -5.614e-3
-1.005, -5.620e-3
-1.004, -5.630e-3
-1.003, -5.639e-3
-1.002, -5.651e-3
-1.001, -5.664e-3
