Aug. 4, 2024   15:36:55
Cyclic Voltammetry
File: c:/users/guazh/data/20240802_batch_500/2024-08-02-exp17\exp17-2024-08-04t15_21_46-arkoh\exp17_cv_sr_300mvs_efin_-1800mv.bin
Data Source:  Experiment
Instrument Model:  CHI760E
Header: CV ran at 300 mVs
Note: 

Init E (V) = -1
High E (V) = -1
Low E (V) = -1.8
Final E (V) = -1
Init P/N = N
Scan Rate (V/s) = 0.3
Segment = 3
Sample Interval (V) = 0.001
Quiet Time (sec) = 2
Sensitivity (A/V) = 0.01
Comp R (ohm) = 2.0

Results:

Channel 1:
Segment 1:

Segment 2:

Segment 3:

Potential/V, Current/A

-1.000, 3.239e-6
-1.001, 1.559e-7
-1.002, 3.239e-6
-1.003, 3.239e-6
-1.004, 3.239e-6
-1.005, 3.239e-6
-1.006, 3.239e-6
-1.007, 3.239e-6
-1.008, 3.239e-6
-1.009, 3.239e-6
-1.010, 3.239e-6
-1.011, 3.239e-6
-1.012, 3.239e-6
-1.013, 3.239e-6
-1.014, 3.239e-6
-1.015, 3.239e-6
-1.016, 3.239e-6
-1.017, 3.239e-6
-1.018, 3.239e-6
-1.019, 3.239e-6
-1.020, 3.239e-6
-1.021, 3.239e-6
-1.022, 3.239e-6
-1.023, 3.239e-6
-1.024, 3.239e-6
-1.025, 3.239e-6
-1.026, 3.239e-6
-1.027, 3.239e-6
-1.028, 3.239e-6
-1.029, 3.239e-6
-1.030, 3.239e-6
-1.031, 3.239e-6
-1.032, 3.239e-6
-1.033, 3.239e-6
-1.034, 3.239e-6
-1.035, 3.239e-6
-1.036, 3.239e-6
-1.037, 3.239e-6
-1.038, 3.239e-6
-1.039, 3.239e-6
-1.040, 3.239e-6
-1.041, 3.239e-6
-1.042, 3.239e-6
-1.043, 3.239e-6
-1.044, 3.239e-6
-1.045, 3.239e-6
-1.046, 3.239e-6
-1.047, 3.239e-6
-1.048, 3.239e-6
-1.049, 3.239e-6
-1.050, 3.239e-6
-1.051, 3.239e-6
-1.052, 3.239e-6
-1.053, 3.239e-6
-1.054, 3.239e-6
-1.055, 3.239e-6
-1.056, 3.239e-6
-1.057, 3.239e-6
-1.058, 3.239e-6
-1.059, 3.239e-6
-1.060, 3.239e-6
-1.061, 3.239e-6
-1.062, 3.239e-6
-1.063, 3.239e-6
-1.064, 3.239e-6
-1.065, 3.239e-6
-1.066, 3.239e-6
-1.067, 3.239e-6
-1.068, 3.239e-6
-1.069, 3.239e-6
-1.070, 3.239e-6
-1.071, 3.239e-6
-1.072, 3.239e-6
-1.073, 3.239e-6
-1.074, 3.239e-6
-1.075, 3.239e-6
-1.076, 3.239e-6
-1.077, 3.239e-6
-1.078, 3.239e-6
-1.079, 3.239e-6
-1.080, 3.239e-6
-1.081, 3.239e-6
-1.082, 3.239e-6
-1.083, 3.239e-6
-1.084, 3.239e-6
-1.085, 3.239e-6
-1.086, 3.239e-6
-1.087, 3.239e-6
-1.088, 6.322e-6
-1.089, 6.322e-6
-1.090, 3.239e-6
-1.091, 3.239e-6
-1.092, 3.239e-6
-1.093, 3.239e-6
-1.094, 6.322e-6
-1.095, 3.239e-6
-1.096, 3.239e-6
-1.097, 3.239e-6
-1.098, 3.239e-6
-1.099, 3.239e-6
-1.100, 3.239e-6
-1.101, 3.239e-6
-1.102, 3.239e-6
-1.103, 3.239e-6
-1.104, 3.239e-6
-1.105, 3.239e-6
-1.106, 3.239e-6
-1.107, 6.322e-6
-1.108, 3.239e-6
-1.109, 3.239e-6
-1.110, 3.239e-6
-1.111, 3.239e-6
-1.112, 3.239e-6
-1.113, 3.239e-6
-1.114, 3.239e-6
-1.115, 6.322e-6
-1.116, 6.322e-6
-1.117, 3.239e-6
-1.118, 3.239e-6
-1.119, 3.239e-6
-1.120, 6.322e-6
-1.121, 3.239e-6
-1.122, 3.239e-6
-1.123, 3.239e-6
-1.124, 6.322e-6
-1.125, 6.322e-6
-1.126, 6.322e-6
-1.127, 6.322e-6
-1.128, 6.322e-6
-1.129, 6.322e-6
-1.130, 6.322e-6
-1.131, 3.239e-6
-1.132, 6.322e-6
-1.133, 6.322e-6
-1.134, 6.322e-6
-1.135, 6.322e-6
-1.136, 6.322e-6
-1.137, 6.322e-6
-1.138, 6.322e-6
-1.139, 3.239e-6
-1.140, 6.322e-6
-1.141, 3.239e-6
-1.142, 3.239e-6
-1.143, 3.239e-6
-1.144, 6.322e-6
-1.145, 6.322e-6
-1.146, 6.322e-6
-1.147, 3.239e-6
-1.148, 6.322e-6
-1.149, 3.239e-6
-1.150, 3.239e-6
-1.151, 6.322e-6
-1.152, 6.322e-6
-1.153, 6.322e-6
-1.154, 6.322e-6
-1.155, 6.322e-6
-1.156, 6.322e-6
-1.157, 6.322e-6
-1.158, 6.322e-6
-1.159, 3.239e-6
-1.160, 6.322e-6
-1.161, 6.322e-6
-1.162, 6.322e-6
-1.163, 6.322e-6
-1.164, 6.322e-6
-1.165, 6.322e-6
-1.166, 6.322e-6
-1.167, 6.322e-6
-1.168, 6.322e-6
-1.169, 6.322e-6
-1.170, 6.322e-6
-1.171, 6.322e-6
-1.172, 6.322e-6
-1.173, 6.322e-6
-1.174, 6.322e-6
-1.175, 6.322e-6
-1.176, 6.322e-6
-1.177, 6.322e-6
-1.178, 6.322e-6
-1.179, 6.322e-6
-1.180, 6.322e-6
-1.181, 6.322e-6
-1.182, 6.322e-6
-1.183, 6.322e-6
-1.184, 6.322e-6
-1.185, 6.322e-6
-1.186, 6.322e-6
-1.187, 6.322e-6
-1.188, 6.322e-6
-1.189, 6.322e-6
-1.190, 6.322e-6
-1.191, 6.322e-6
-1.192, 6.322e-6
-1.193, 6.322e-6
-1.194, 6.322e-6
-1.195, 6.322e-6
-1.196, 6.322e-6
-1.197, 6.322e-6
-1.198, 6.322e-6
-1.199, 6.322e-6
-1.200, 6.322e-6
-1.201, 6.322e-6
-1.202, 6.322e-6
-1.203, 6.322e-6
-1.204, 6.322e-6
-1.205, 6.322e-6
-1.206, 6.322e-6
-1.207, 6.322e-6
-1.208, 6.322e-6
-1.209, 6.322e-6
-1.210, 6.322e-6
-1.211, 6.322e-6
-1.212, 6.322e-6
-1.213, 6.322e-6
-1.214, 6.322e-6
-1.215, 6.322e-6
-1.216, 6.322e-6
-1.217, 6.322e-6
-1.218, 6.322e-6
-1.219, 6.322e-6
-1.220, 6.322e-6
-1.221, 6.322e-6
-1.222, 6.322e-6
-1.223, 6.322e-6
-1.224, 6.322e-6
-1.225, 6.322e-6
-1.226, 6.322e-6
-1.227, 6.322e-6
-1.228, 6.322e-6
-1.229, 6.322e-6
-1.230, 6.322e-6
-1.231, 6.322e-6
-1.232, 6.322e-6
-1.233, 6.322e-6
-1.234, 6.322e-6
-1.235, 6.322e-6
-1.236, 6.322e-6
-1.237, 6.322e-6
-1.238, 6.322e-6
-1.239, 6.322e-6
-1.240, 6.322e-6
-1.241, 6.322e-6
-1.242, 6.322e-6
-1.243, 6.322e-6
-1.244, 6.322e-6
-1.245, 6.322e-6
-1.246, 6.322e-6
-1.247, 6.322e-6
-1.248, 9.405e-6
-1.249, 6.322e-6
-1.250, 6.322e-6
-1.251, 6.322e-6
-1.252, 6.322e-6
-1.253, 6.322e-6
-1.254, 6.322e-6
-1.255, 6.322e-6
-1.256, 6.322e-6
-1.257, 6.322e-6
-1.258, 6.322e-6
-1.259, 6.322e-6
-1.260, 6.322e-6
-1.261, 6.322e-6
-1.262, 6.322e-6
-1.263, 6.322e-6
-1.264, 6.322e-6
-1.265, 6.322e-6
-1.266, 6.322e-6
-1.267, 9.405e-6
-1.268, 6.322e-6
-1.269, 6.322e-6
-1.270, 6.322e-6
-1.271, 9.405e-6
-1.272, 6.322e-6
-1.273, 6.322e-6
-1.274, 6.322e-6
-1.275, 6.322e-6
-1.276, 6.322e-6
-1.277, 6.322e-6
-1.278, 9.405e-6
-1.279, 6.322e-6
-1.280, 9.405e-6
-1.281, 9.405e-6
-1.282, 6.322e-6
-1.283, 9.405e-6
-1.284, 6.322e-6
-1.285, 9.405e-6
-1.286, 9.405e-6
-1.287, 9.405e-6
-1.288, 9.405e-6
-1.289, 9.405e-6
-1.290, 9.405e-6
-1.291, 9.405e-6
-1.292, 6.322e-6
-1.293, 9.405e-6
-1.294, 9.405e-6
-1.295, 9.405e-6
-1.296, 6.322e-6
-1.297, 6.322e-6
-1.298, 9.405e-6
-1.299, 6.322e-6
-1.300, 9.405e-6
-1.301, 9.405e-6
-1.302, 9.405e-6
-1.303, 9.405e-6
-1.304, 9.405e-6
-1.305, 9.405e-6
-1.306, 9.405e-6
-1.307, 9.405e-6
-1.308, 9.405e-6
-1.309, 9.405e-6
-1.310, 9.405e-6
-1.311, 9.405e-6
-1.312, 9.405e-6
-1.313, 9.405e-6
-1.314, 9.405e-6
-1.315, 9.405e-6
-1.316, 9.405e-6
-1.317, 6.322e-6
-1.318, 9.405e-6
-1.319, 9.405e-6
-1.320, 9.405e-6
-1.321, 9.405e-6
-1.322, 9.405e-6
-1.323, 9.405e-6
-1.324, 9.405e-6
-1.325, 9.405e-6
-1.326, 9.405e-6
-1.327, 9.405e-6
-1.328, 9.405e-6
-1.329, 9.405e-6
-1.330, 9.405e-6
-1.331, 9.405e-6
-1.332, 9.405e-6
-1.333, 9.405e-6
-1.334, 9.405e-6
-1.335, 9.405e-6
-1.336, 9.405e-6
-1.337, 9.405e-6
-1.338, 9.405e-6
-1.339, 9.405e-6
-1.340, 9.405e-6
-1.341, 9.405e-6
-1.342, 9.405e-6
-1.343, 9.405e-6
-1.344, 9.405e-6
-1.345, 9.405e-6
-1.346, 9.405e-6
-1.347, 9.405e-6
-1.348, 9.405e-6
-1.349, 9.405e-6
-1.350, 9.405e-6
-1.351, 9.405e-6
-1.352, 9.405e-6
-1.353, 9.405e-6
-1.354, 9.405e-6
-1.355, 9.405e-6
-1.356, 9.405e-6
-1.357, 9.405e-6
-1.358, 9.405e-6
-1.359, 9.405e-6
-1.360, 9.405e-6
-1.361, 9.405e-6
-1.362, 9.405e-6
-1.363, 9.405e-6
-1.364, 9.405e-6
-1.365, 9.405e-6
-1.366, 9.405e-6
-1.367, 9.405e-6
-1.368, 9.405e-6
-1.369, 9.405e-6
-1.370, 9.405e-6
-1.371, 9.405e-6
-1.372, 9.405e-6
-1.373, 9.405e-6
-1.374, 9.405e-6
-1.375, 9.405e-6
-1.376, 9.405e-6
-1.377, 9.405e-6
-1.378, 9.405e-6
-1.379, 9.405e-6
-1.380, 9.405e-6
-1.381, 9.405e-6
-1.382, 9.405e-6
-1.383, 9.405e-6
-1.384, 9.405e-6
-1.385, 1.249e-5
-1.386, 9.405e-6
-1.387, 9.405e-6
-1.388, 9.405e-6
-1.389, 1.249e-5
-1.390, 1.249e-5
-1.391, 9.405e-6
-1.392, 1.249e-5
-1.393, 9.405e-6
-1.394, 1.249e-5
-1.395, 9.405e-6
-1.396, 1.249e-5
-1.397, 1.249e-5
-1.398, 1.249e-5
-1.399, 1.249e-5
-1.400, 1.249e-5
-1.401, 1.249e-5
-1.402, 1.249e-5
-1.403, 1.249e-5
-1.404, 1.249e-5
-1.405, 1.249e-5
-1.406, 1.249e-5
-1.407, 1.249e-5
-1.408, 1.249e-5
-1.409, 1.249e-5
-1.410, 1.249e-5
-1.411, 1.249e-5
-1.412, 1.249e-5
-1.413, 1.249e-5
-1.414, 1.249e-5
-1.415, 1.249e-5
-1.416, 1.249e-5
-1.417, 1.249e-5
-1.418, 1.249e-5
-1.419, 1.249e-5
-1.420, 1.249e-5
-1.421, 1.249e-5
-1.422, 1.249e-5
-1.423, 1.249e-5
-1.424, 1.249e-5
-1.425, 1.249e-5
-1.426, 1.249e-5
-1.427, 1.249e-5
-1.428, 1.249e-5
-1.429, 1.249e-5
-1.430, 1.249e-5
-1.431, 1.249e-5
-1.432, 1.249e-5
-1.433, 1.249e-5
-1.434, 1.249e-5
-1.435, 1.249e-5
-1.436, 1.249e-5
-1.437, 1.249e-5
-1.438, 1.557e-5
-1.439, 1.249e-5
-1.440, 1.249e-5
-1.441, 1.557e-5
-1.442, 1.249e-5
-1.443, 1.557e-5
-1.444, 1.249e-5
-1.445, 1.249e-5
-1.446, 1.249e-5
-1.447, 1.249e-5
-1.448, 1.557e-5
-1.449, 1.249e-5
-1.450, 1.249e-5
-1.451, 1.557e-5
-1.452, 1.557e-5
-1.453, 1.557e-5
-1.454, 1.557e-5
-1.455, 1.557e-5
-1.456, 1.557e-5
-1.457, 1.557e-5
-1.458, 1.557e-5
-1.459, 1.557e-5
-1.460, 1.557e-5
-1.461, 1.557e-5
-1.462, 1.557e-5
-1.463, 1.557e-5
-1.464, 1.557e-5
-1.465, 1.557e-5
-1.466, 1.557e-5
-1.467, 1.557e-5
-1.468, 1.557e-5
-1.469, 1.557e-5
-1.470, 1.557e-5
-1.471, 1.557e-5
-1.472, 1.557e-5
-1.473, 1.557e-5
-1.474, 1.557e-5
-1.475, 1.557e-5
-1.476, 1.557e-5
-1.477, 1.557e-5
-1.478, 1.557e-5
-1.479, 1.865e-5
-1.480, 1.557e-5
-1.481, 1.865e-5
-1.482, 1.865e-5
-1.483, 1.557e-5
-1.484, 1.557e-5
-1.485, 1.865e-5
-1.486, 1.557e-5
-1.487, 1.557e-5
-1.488, 1.865e-5
-1.489, 1.557e-5
-1.490, 1.865e-5
-1.491, 1.865e-5
-1.492, 1.865e-5
-1.493, 1.865e-5
-1.494, 1.865e-5
-1.495, 1.865e-5
-1.496, 1.865e-5
-1.497, 1.865e-5
-1.498, 1.865e-5
-1.499, 1.865e-5
-1.500, 1.865e-5
-1.501, 1.865e-5
-1.502, 1.865e-5
-1.503, 1.865e-5
-1.504, 1.865e-5
-1.505, 1.865e-5
-1.506, 1.865e-5
-1.507, 1.865e-5
-1.508, 1.865e-5
-1.509, 1.865e-5
-1.510, 1.865e-5
-1.511, 1.865e-5
-1.512, 2.174e-5
-1.513, 1.865e-5
-1.514, 1.865e-5
-1.515, 2.174e-5
-1.516, 2.174e-5
-1.517, 2.174e-5
-1.518, 2.174e-5
-1.519, 2.174e-5
-1.520, 2.174e-5
-1.521, 2.174e-5
-1.522, 2.174e-5
-1.523, 2.174e-5
-1.524, 2.174e-5
-1.525, 2.174e-5
-1.526, 2.174e-5
-1.527, 2.174e-5
-1.528, 2.174e-5
-1.529, 2.174e-5
-1.530, 2.174e-5
-1.531, 2.174e-5
-1.532, 2.174e-5
-1.533, 2.174e-5
-1.534, 2.174e-5
-1.535, 2.174e-5
-1.536, 2.174e-5
-1.537, 2.482e-5
-1.538, 2.482e-5
-1.539, 2.482e-5
-1.540, 2.482e-5
-1.541, 2.482e-5
-1.542, 2.482e-5
-1.543, 2.482e-5
-1.544, 2.482e-5
-1.545, 2.482e-5
-1.546, 2.482e-5
-1.547, 2.482e-5
-1.548, 2.482e-5
-1.549, 2.482e-5
-1.550, 2.790e-5
-1.551, 2.482e-5
-1.552, 2.482e-5
-1.553, 2.482e-5
-1.554, 2.790e-5
-1.555, 2.790e-5
-1.556, 2.790e-5
-1.557, 2.790e-5
-1.558, 2.790e-5
-1.559, 2.790e-5
-1.560, 2.790e-5
-1.561, 2.790e-5
-1.562, 2.790e-5
-1.563, 2.790e-5
-1.564, 2.790e-5
-1.565, 3.099e-5
-1.566, 3.099e-5
-1.567, 2.790e-5
-1.568, 3.099e-5
-1.569, 3.099e-5
-1.570, 3.099e-5
-1.571, 3.099e-5
-1.572, 3.099e-5
-1.573, 3.407e-5
-1.574, 3.099e-5
-1.575, 3.407e-5
-1.576, 3.099e-5
-1.577, 3.099e-5
-1.578, 3.407e-5
-1.579, 3.407e-5
-1.580, 3.407e-5
-1.581, 3.407e-5
-1.582, 3.407e-5
-1.583, 3.407e-5
-1.584, 3.407e-5
-1.585, 3.407e-5
-1.586, 3.715e-5
-1.587, 3.715e-5
-1.588, 3.715e-5
-1.589, 3.715e-5
-1.590, 3.715e-5
-1.591, 3.715e-5
-1.592, 3.715e-5
-1.593, 4.024e-5
-1.594, 4.024e-5
-1.595, 4.024e-5
-1.596, 4.024e-5
-1.597, 4.024e-5
-1.598, 4.024e-5
-1.599, 4.024e-5
-1.600, 4.332e-5
-1.601, 4.332e-5
-1.602, 4.332e-5
-1.603, 4.332e-5
-1.604, 4.640e-5
-1.605, 4.640e-5
-1.606, 4.640e-5
-1.607, 4.640e-5
-1.608, 4.640e-5
-1.609, 4.640e-5
-1.610, 4.949e-5
-1.611, 4.949e-5
-1.612, 4.949e-5
-1.613, 5.257e-5
-1.614, 5.257e-5
-1.615, 5.257e-5
-1.616, 5.257e-5
-1.617, 5.565e-5
-1.618, 5.565e-5
-1.619, 5.565e-5
-1.620, 5.565e-5
-1.621, 5.565e-5
-1.622, 5.873e-5
-1.623, 5.873e-5
-1.624, 6.182e-5
-1.625, 6.182e-5
-1.626, 6.182e-5
-1.627, 6.490e-5
-1.628, 6.490e-5
-1.629, 6.798e-5
-1.630, 6.798e-5
-1.631, 6.798e-5
-1.632, 7.107e-5
-1.633, 7.107e-5
-1.634, 7.107e-5
-1.635, 7.415e-5
-1.636, 7.723e-5
-1.637, 7.723e-5
-1.638, 7.723e-5
-1.639, 8.032e-5
-1.640, 8.340e-5
-1.641, 8.340e-5
-1.642, 8.648e-5
-1.643, 8.957e-5
-1.644, 8.957e-5
-1.645, 9.265e-5
-1.646, 9.265e-5
-1.647, 9.573e-5
-1.648, 9.882e-5
-1.649, 9.882e-5
-1.650, 1.019e-4
-1.651, 1.050e-4
-1.652, 1.081e-4
-1.653, 1.111e-4
-1.654, 1.142e-4
-1.655, 1.142e-4
-1.656, 1.173e-4
-1.657, 1.204e-4
-1.658, 1.235e-4
-1.659, 1.266e-4
-1.660, 1.296e-4
-1.661, 1.327e-4
-1.662, 1.358e-4
-1.663, 1.420e-4
-1.664, 1.451e-4
-1.665, 1.481e-4
-1.666, 1.512e-4
-1.667, 1.574e-4
-1.668, 1.605e-4
-1.669, 1.636e-4
-1.670, 1.697e-4
-1.671, 1.728e-4
-1.672, 1.790e-4
-1.673, 1.851e-4
-1.674, 1.882e-4
-1.675, 1.944e-4
-1.676, 2.006e-4
-1.677, 2.067e-4
-1.678, 2.129e-4
-1.679, 2.191e-4
-1.680, 2.252e-4
-1.681, 2.314e-4
-1.682, 2.376e-4
-1.683, 2.437e-4
-1.684, 2.530e-4
-1.685, 2.591e-4
-1.686, 2.653e-4
-1.687, 2.746e-4
-1.688, 2.838e-4
-1.689, 2.931e-4
-1.690, 3.023e-4
-1.691, 3.085e-4
-1.692, 3.208e-4
-1.693, 3.300e-4
-1.694, 3.393e-4
-1.695, 3.516e-4
-1.696, 3.609e-4
-1.697, 3.732e-4
-1.698, 3.855e-4
-1.699, 3.979e-4
-1.700, 4.102e-4
-1.701, 4.195e-4
-1.702, 4.349e-4
-1.703, 4.503e-4
-1.704, 4.657e-4
-1.705, 4.780e-4
-1.706, 4.935e-4
-1.707, 5.089e-4
-1.708, 5.274e-4
-1.709, 5.459e-4
-1.710, 5.613e-4
-1.711, 5.798e-4
-1.712, 5.983e-4
-1.713, 6.199e-4
-1.714, 6.384e-4
-1.715, 6.599e-4
-1.716, 6.784e-4
-1.717, 7.000e-4
-1.718, 7.247e-4
-1.719, 7.494e-4
-1.720, 7.740e-4
-1.721, 7.956e-4
-1.722, 8.233e-4
-1.723, 8.511e-4
-1.724, 8.788e-4
-1.725, 9.066e-4
-1.726, 9.343e-4
-1.727, 9.652e-4
-1.728, 9.960e-4
-1.729, 1.030e-3
-1.730, 1.064e-3
-1.731, 1.095e-3
-1.732, 1.129e-3
-1.733, 1.166e-3
-1.734, 1.203e-3
-1.735, 1.240e-3
-1.736, 1.273e-3
-1.737, 1.317e-3
-1.738, 1.357e-3
-1.739, 1.400e-3
-1.740, 1.443e-3
-1.741, 1.486e-3
-1.742, 1.529e-3
-1.743, 1.579e-3
-1.744, 1.628e-3
-1.745, 1.674e-3
-1.746, 1.724e-3
-1.747, 1.773e-3
-1.748, 1.828e-3
-1.749, 1.884e-3
-1.750, 1.936e-3
-1.751, 1.989e-3
-1.752, 2.047e-3
-1.753, 2.106e-3
-1.754, 2.168e-3
-1.755, 2.226e-3
-1.756, 2.285e-3
-1.757, 2.349e-3
-1.758, 2.417e-3
-1.759, 2.482e-3
-1.760, 2.547e-3
-1.761, 2.615e-3
-1.762, 2.682e-3
-1.763, 2.756e-3
-1.764, 2.827e-3
-1.765, 2.898e-3
-1.766, 2.969e-3
-1.767, 3.043e-3
-1.768, 3.123e-3
-1.769, 3.204e-3
-1.770, 3.281e-3
-1.771, 3.355e-3
-1.772, 3.435e-3
-1.773, 3.524e-3
-1.774, 3.610e-3
-1.775, 3.691e-3
-1.776, 3.771e-3
-1.777, 3.857e-3
-1.778, 3.950e-3
-1.779, 4.042e-3
-1.780, 4.128e-3
-1.781, 4.215e-3
-1.782, 4.307e-3
-1.783, 4.406e-3
-1.784, 4.501e-3
-1.785, 4.594e-3
-1.786, 4.686e-3
-1.787, 4.785e-3
-1.788, 4.890e-3
-1.789, 4.992e-3
-1.790, 5.090e-3
-1.791, 5.186e-3
-1.792, 5.291e-3
-1.793, 5.396e-3
-1.794, 5.507e-3
-1.795, 5.608e-3
-1.796, 5.710e-3
-1.797, 5.818e-3
-1.798, 5.929e-3
-1.799, 6.040e-3
-1.800, 6.108e-3
-1.799, 6.092e-3
-1.798, 6.074e-3
-1.797, 6.052e-3
-1.796, 6.028e-3
-1.795, 5.991e-3
-1.794, 5.951e-3
-1.793, 5.914e-3
-1.792, 5.880e-3
-1.791, 5.840e-3
-1.790, 5.796e-3
-1.789, 5.747e-3
-1.788, 5.701e-3
-1.787, 5.661e-3
-1.786, 5.614e-3
-1.785, 5.562e-3
-1.784, 5.507e-3
-1.783, 5.457e-3
-1.782, 5.411e-3
-1.781, 5.365e-3
-1.780, 5.309e-3
-1.779, 5.254e-3
-1.778, 5.201e-3
-1.777, 5.155e-3
-1.776, 5.106e-3
-1.775, 5.050e-3
-1.774, 4.992e-3
-1.773, 4.939e-3
-1.772, 4.890e-3
-1.771, 4.838e-3
-1.770, 4.782e-3
-1.769, 4.720e-3
-1.768, 4.668e-3
-1.767, 4.619e-3
-1.766, 4.566e-3
-1.765, 4.511e-3
-1.764, 4.452e-3
-1.763, 4.397e-3
-1.762, 4.350e-3
-1.761, 4.298e-3
-1.760, 4.239e-3
-1.759, 4.184e-3
-1.758, 4.132e-3
-1.757, 4.082e-3
-1.756, 4.030e-3
-1.755, 3.974e-3
-1.754, 3.919e-3
-1.753, 3.866e-3
-1.752, 3.817e-3
-1.751, 3.768e-3
-1.750, 3.712e-3
-1.749, 3.657e-3
-1.748, 3.604e-3
-1.747, 3.558e-3
-1.746, 3.509e-3
-1.745, 3.456e-3
-1.744, 3.404e-3
-1.743, 3.355e-3
-1.742, 3.305e-3
-1.741, 3.259e-3
-1.740, 3.207e-3
-1.739, 3.154e-3
-1.738, 3.108e-3
-1.737, 3.062e-3
-1.736, 3.015e-3
-1.735, 2.969e-3
-1.734, 2.917e-3
-1.733, 2.871e-3
-1.732, 2.827e-3
-1.731, 2.784e-3
-1.730, 2.738e-3
-1.729, 2.692e-3
-1.728, 2.645e-3
-1.727, 2.605e-3
-1.726, 2.562e-3
-1.725, 2.519e-3
-1.724, 2.473e-3
-1.723, 2.433e-3
-1.722, 2.393e-3
-1.721, 2.349e-3
-1.720, 2.306e-3
-1.719, 2.266e-3
-1.718, 2.226e-3
-1.717, 2.186e-3
-1.716, 2.149e-3
-1.715, 2.109e-3
-1.714, 2.069e-3
-1.713, 2.029e-3
-1.712, 1.995e-3
-1.711, 1.961e-3
-1.710, 1.921e-3
-1.709, 1.884e-3
-1.708, 1.847e-3
-1.707, 1.816e-3
-1.706, 1.782e-3
-1.705, 1.745e-3
-1.704, 1.711e-3
-1.703, 1.677e-3
-1.702, 1.647e-3
-1.701, 1.613e-3
-1.700, 1.582e-3
-1.699, 1.548e-3
-1.698, 1.514e-3
-1.697, 1.486e-3
-1.696, 1.458e-3
-1.695, 1.425e-3
-1.694, 1.394e-3
-1.693, 1.366e-3
-1.692, 1.338e-3
-1.691, 1.310e-3
-1.690, 1.283e-3
-1.689, 1.255e-3
-1.688, 1.227e-3
-1.687, 1.203e-3
-1.686, 1.181e-3
-1.685, 1.153e-3
-1.684, 1.125e-3
-1.683, 1.101e-3
-1.682, 1.079e-3
-1.681, 1.058e-3
-1.680, 1.033e-3
-1.679, 1.008e-3
-1.678, 9.868e-4
-1.677, 9.652e-4
-1.676, 9.436e-4
-1.675, 9.220e-4
-1.674, 8.973e-4
-1.673, 8.788e-4
-1.672, 8.603e-4
-1.671, 8.388e-4
-1.670, 8.172e-4
-1.669, 7.987e-4
-1.668, 7.802e-4
-1.667, 7.617e-4
-1.666, 7.463e-4
-1.665, 7.278e-4
-1.664, 7.093e-4
-1.663, 6.939e-4
-1.662, 6.754e-4
-1.661, 6.599e-4
-1.660, 6.445e-4
-1.659, 6.260e-4
-1.658, 6.137e-4
-1.657, 5.983e-4
-1.656, 5.829e-4
-1.655, 5.705e-4
-1.654, 5.551e-4
-1.653, 5.428e-4
-1.652, 5.274e-4
-1.651, 5.150e-4
-1.650, 5.027e-4
-1.649, 4.904e-4
-1.648, 4.780e-4
-1.647, 4.657e-4
-1.646, 4.534e-4
-1.645, 4.410e-4
-1.644, 4.318e-4
-1.643, 4.195e-4
-1.642, 4.102e-4
-1.641, 4.010e-4
-1.640, 3.886e-4
-1.639, 3.794e-4
-1.638, 3.670e-4
-1.637, 3.609e-4
-1.636, 3.485e-4
-1.635, 3.393e-4
-1.634, 3.300e-4
-1.633, 3.239e-4
-1.632, 3.146e-4
-1.631, 3.054e-4
-1.630, 2.992e-4
-1.629, 2.900e-4
-1.628, 2.807e-4
-1.627, 2.776e-4
-1.626, 2.684e-4
-1.625, 2.622e-4
-1.624, 2.530e-4
-1.623, 2.468e-4
-1.622, 2.406e-4
-1.621, 2.345e-4
-1.620, 2.283e-4
-1.619, 2.221e-4
-1.618, 2.160e-4
-1.617, 2.129e-4
-1.616, 2.067e-4
-1.615, 2.006e-4
-1.614, 1.944e-4
-1.613, 1.913e-4
-1.612, 1.851e-4
-1.611, 1.790e-4
-1.610, 1.759e-4
-1.609, 1.697e-4
-1.608, 1.666e-4
-1.607, 1.605e-4
-1.606, 1.574e-4
-1.605, 1.543e-4
-1.604, 1.481e-4
-1.603, 1.451e-4
-1.602, 1.420e-4
-1.601, 1.389e-4
-1.600, 1.327e-4
-1.599, 1.296e-4
-1.598, 1.266e-4
-1.597, 1.235e-4
-1.596, 1.204e-4
-1.595, 1.173e-4
-1.594, 1.142e-4
-1.593, 1.111e-4
-1.592, 1.081e-4
-1.591, 1.050e-4
-1.590, 1.019e-4
-1.589, 9.882e-5
-1.588, 9.882e-5
-1.587, 9.573e-5
-1.586, 9.265e-5
-1.585, 8.957e-5
-1.584, 8.648e-5
-1.583, 8.648e-5
-1.582, 8.340e-5
-1.581, 8.032e-5
-1.580, 7.723e-5
-1.579, 7.723e-5
-1.578, 7.415e-5
-1.577, 7.415e-5
-1.576, 7.107e-5
-1.575, 6.798e-5
-1.574, 6.798e-5
-1.573, 6.490e-5
-1.572, 6.490e-5
-1.571, 6.182e-5
-1.570, 6.182e-5
-1.569, 5.873e-5
-1.568, 5.873e-5
-1.567, 5.565e-5
-1.566, 5.565e-5
-1.565, 5.565e-5
-1.564, 5.257e-5
-1.563, 4.949e-5
-1.562, 4.949e-5
-1.561, 4.949e-5
-1.560, 4.640e-5
-1.559, 4.640e-5
-1.558, 4.640e-5
-1.557, 4.332e-5
-1.556, 4.332e-5
-1.555, 4.024e-5
-1.554, 4.024e-5
-1.553, 4.024e-5
-1.552, 4.024e-5
-1.551, 3.715e-5
-1.550, 3.715e-5
-1.549, 3.715e-5
-1.548, 3.407e-5
-1.547, 3.407e-5
-1.546, 3.407e-5
-1.545, 3.407e-5
-1.544, 3.099e-5
-1.543, 3.099e-5
-1.542, 3.099e-5
-1.541, 3.099e-5
-1.540, 2.790e-5
-1.539, 2.790e-5
-1.538, 2.790e-5
-1.537, 2.790e-5
-1.536, 2.482e-5
-1.535, 2.482e-5
-1.534, 2.482e-5
-1.533, 2.482e-5
-1.532, 2.482e-5
-1.531, 2.482e-5
-1.530, 2.174e-5
-1.529, 2.174e-5
-1.528, 2.174e-5
-1.527, 2.174e-5
-1.526, 1.865e-5
-1.525, 1.865e-5
-1.524, 1.865e-5
-1.523, 1.865e-5
-1.522, 1.865e-5
-1.521, 1.865e-5
-1.520, 1.865e-5
-1.519, 1.865e-5
-1.518, 1.557e-5
-1.517, 1.557e-5
-1.516, 1.557e-5
-1.515, 1.557e-5
-1.514, 1.557e-5
-1.513, 1.557e-5
-1.512, 1.557e-5
-1.511, 1.249e-5
-1.510, 1.249e-5
-1.509, 1.249e-5
-1.508, 1.249e-5
-1.507, 1.249e-5
-1.506, 1.249e-5
-1.505, 1.249e-5
-1.504, 1.249e-5
-1.503, 9.405e-6
-1.502, 1.249e-5
-1.501, 9.405e-6
-1.500, 9.405e-6
-1.499, 9.405e-6
-1.498, 9.405e-6
-1.497, 9.405e-6
-1.496, 9.405e-6
-1.495, 9.405e-6
-1.494, 9.405e-6
-1.493, 9.405e-6
-1.492, 9.405e-6
-1.491, 9.405e-6
-1.490, 9.405e-6
-1.489, 6.322e-6
-1.488, 9.405e-6
-1.487, 6.322e-6
-1.486, 6.322e-6
-1.485, 6.322e-6
-1.484, 6.322e-6
-1.483, 6.322e-6
-1.482, 6.322e-6
-1.481, 6.322e-6
-1.480, 6.322e-6
-1.479, 6.322e-6
-1.478, 6.322e-6
-1.477, 6.322e-6
-1.476, 6.322e-6
-1.475, 6.322e-6
-1.474, 3.239e-6
-1.473, 6.322e-6
-1.472, 6.322e-6
-1.471, 6.322e-6
-1.470, 6.322e-6
-1.469, 3.239e-6
-1.468, 3.239e-6
-1.467, 3.239e-6
-1.466, 3.239e-6
-1.465, 3.239e-6
-1.464, 3.239e-6
-1.463, 3.239e-6
-1.462, 3.239e-6
-1.461, 3.239e-6
-1.460, 3.239e-6
-1.459, 3.239e-6
-1.458, 3.239e-6
-1.457, 3.239e-6
-1.456, 3.239e-6
-1.455, 3.239e-6
-1.454, 3.239e-6
-1.453, 3.239e-6
-1.452, 3.239e-6
-1.451, 3.239e-6
-1.450, 3.239e-6
-1.449, 3.239e-6
-1.448, 3.239e-6
-1.447, 3.239e-6
-1.446, 3.239e-6
-1.445, 3.239e-6
-1.444, 3.239e-6
-1.443, 1.559e-7
-1.442, 1.559e-7
-1.441, 1.559e-7
-1.440, 3.239e-6
-1.439, 1.559e-7
-1.438, 1.559e-7
-1.437, 1.559e-7
-1.436, 1.559e-7
-1.435, 1.559e-7
-1.434, 1.559e-7
-1.433, 3.239e-6
-1.432, 1.559e-7
-1.431, 1.559e-7
-1.430, 1.559e-7
-1.429, 1.559e-7
-1.428, 1.559e-7
-1.427, 1.559e-7
-1.426, 1.559e-7
-1.425, 1.559e-7
-1.424, 1.559e-7
-1.423, 1.559e-7
-1.422, 1.559e-7
-1.421, 1.559e-7
-1.420, 1.559e-7
-1.419, 1.559e-7
-1.418, 1.559e-7
-1.417, 1.559e-7
-1.416, 1.559e-7
-1.415, 1.559e-7
-1.414, 1.559e-7
-1.413, 1.559e-7
-1.412, 1.559e-7
-1.411, 1.559e-7
-1.410, 1.559e-7
-1.409, 1.559e-7
-1.408, 1.559e-7
-1.407, 1.559e-7
-1.406, 1.559e-7
-1.405, 1.559e-7
-1.404, 1.559e-7
-1.403, 1.559e-7
-1.402, 1.559e-7
-1.401, 1.559e-7
-1.400, 1.559e-7
-1.399, 1.559e-7
-1.398, 1.559e-7
-1.397, 1.559e-7
-1.396, 1.559e-7
-1.395, 1.559e-7
-1.394, 1.559e-7
-1.393, 1.559e-7
-1.392, 1.559e-7
-1.391, 1.559e-7
-1.390, 1.559e-7
-1.389, 1.559e-7
-1.388, 1.559e-7
-1.387, 1.559e-7
-1.386, 1.559e-7
-1.385, 1.559e-7
-1.384, 1.559e-7
-1.383, -2.927e-6
-1.382, 1.559e-7
-1.381, -2.927e-6
-1.380, 1.559e-7
-1.379, 1.559e-7
-1.378, 1.559e-7
-1.377, 1.559e-7
-1.376, 1.559e-7
-1.375, 1.559e-7
-1.374, -2.927e-6
-1.373, 1.559e-7
-1.372, -2.927e-6
-1.371, -2.927e-6
-1.370, 1.559e-7
-1.369, 1.559e-7
-1.368, -2.927e-6
-1.367, 1.559e-7
-1.366, 1.559e-7
-1.365, 1.559e-7
-1.364, -2.927e-6
-1.363, -2.927e-6
-1.362, 1.559e-7
-1.361, -2.927e-6
-1.360, -2.927e-6
-1.359, -2.927e-6
-1.358, -2.927e-6
-1.357, 1.559e-7
-1.356, -2.927e-6
-1.355, -2.927e-6
-1.354, -2.927e-6
-1.353, -2.927e-6
-1.352, 1.559e-7
-1.351, -2.927e-6
-1.350, -2.927e-6
-1.349, -2.927e-6
-1.348, -2.927e-6
-1.347, -2.927e-6
-1.346, -2.927e-6
-1.345, -2.927e-6
-1.344, -2.927e-6
-1.343, -2.927e-6
-1.342, -2.927e-6
-1.341, -2.927e-6
-1.340, -2.927e-6
-1.339, -2.927e-6
-1.338, -2.927e-6
-1.337, -2.927e-6
-1.336, -2.927e-6
-1.335, 1.559e-7
-1.334, -2.927e-6
-1.333, -2.927e-6
-1.332, -2.927e-6
-1.331, -2.927e-6
-1.330, -2.927e-6
-1.329, -2.927e-6
-1.328, -2.927e-6
-1.327, -2.927e-6
-1.326, -2.927e-6
-1.325, -2.927e-6
-1.324, -2.927e-6
-1.323, -2.927e-6
-1.322, -2.927e-6
-1.321, -2.927e-6
-1.320, -2.927e-6
-1.319, -2.927e-6
-1.318, -2.927e-6
-1.317, -2.927e-6
-1.316, -2.927e-6
-1.315, -2.927e-6
-1.314, -2.927e-6
-1.313, -2.927e-6
-1.312, -2.927e-6
-1.311, -2.927e-6
-1.310, -2.927e-6
-1.309, -2.927e-6
-1.308, -2.927e-6
-1.307, -2.927e-6
-1.306, -2.927e-6
-1.305, -2.927e-6
-1.304, -2.927e-6
-1.303, -2.927e-6
-1.302, -2.927e-6
-1.301, -2.927e-6
-1.300, -2.927e-6
-1.299, -2.927e-6
-1.298, -2.927e-6
-1.297, -2.927e-6
-1.296, -2.927e-6
-1.295, -2.927e-6
-1.294, -2.927e-6
-1.293, -2.927e-6
-1.292, -2.927e-6
-1.291, -2.927e-6
-1.290, -2.927e-6
-1.289, -2.927e-6
-1.288, -2.927e-6
-1.287, -2.927e-6
-1.286, -2.927e-6
-1.285, -2.927e-6
-1.284, -2.927e-6
-1.283, -2.927e-6
-1.282, -2.927e-6
-1.281, -2.927e-6
-1.280, -2.927e-6
-1.279, -2.927e-6
-1.278, -2.927e-6
-1.277, -2.927e-6
-1.276, -2.927e-6
-1.275, -2.927e-6
-1.274, -2.927e-6
-1.273, -2.927e-6
-1.272, -2.927e-6
-1.271, -2.927e-6
-1.270, -2.927e-6
-1.269, -2.927e-6
-1.268, -2.927e-6
-1.267, -2.927e-6
-1.266, -2.927e-6
-1.265, -2.927e-6
-1.264, -2.927e-6
-1.263, -2.927e-6
-1.262, -2.927e-6
-1.261, -2.927e-6
-1.260, -2.927e-6
-1.259, -2.927e-6
-1.258, -2.927e-6
-1.257, -2.927e-6
-1.256, -2.927e-6
-1.255, -2.927e-6
-1.254, -2.927e-6
-1.253, -2.927e-6
-1.252, -2.927e-6
-1.251, -2.927e-6
-1.250, -2.927e-6
-1.249, -2.927e-6
-1.248, -2.927e-6
-1.247, -2.927e-6
-1.246, -2.927e-6
-1.245, -2.927e-6
-1.244, -2.927e-6
-1.243, -2.927e-6
-1.242, -2.927e-6
-1.241, -2.927e-6
-1.240, -2.927e-6
-1.239, -2.927e-6
-1.238, -2.927e-6
-1.237, -2.927e-6
-1.236, -2.927e-6
-1.235, -2.927e-6
-1.234, -2.927e-6
-1.233, -2.927e-6
-1.232, -2.927e-6
-1.231, -2.927e-6
-1.230, -2.927e-6
-1.229, -2.927e-6
-1.228, -2.927e-6
-1.227, -2.927e-6
-1.226, -2.927e-6
-1.225, -2.927e-6
-1.224, -2.927e-6
-1.223, -2.927e-6
-1.222, -2.927e-6
-1.221, -2.927e-6
-1.220, -2.927e-6
-1.219, -2.927e-6
-1.218, -2.927e-6
-1.217, -2.927e-6
-1.216, -2.927e-6
-1.215, -2.927e-6
-1.214, -2.927e-6
-1.213, -2.927e-6
-1.212, -2.927e-6
-1.211, -2.927e-6
-1.210, -2.927e-6
-1.209, -2.927e-6
-1.208, -2.927e-6
-1.207, -2.927e-6
-1.206, -2.927e-6
-1.205, -2.927e-6
-1.204, -2.927e-6
-1.203, -2.927e-6
-1.202, -2.927e-6
-1.201, -2.927e-6
-1.200, -2.927e-6
-1.199, -2.927e-6
-1.198, -2.927e-6
-1.197, -2.927e-6
-1.196, -2.927e-6
-1.195, -2.927e-6
-1.194, -2.927e-6
-1.193, -2.927e-6
-1.192, -2.927e-6
-1.191, -2.927e-6
-1.190, -2.927e-6
-1.189, -2.927e-6
-1.188, -2.927e-6
-1.187, -2.927e-6
-1.186, -2.927e-6
-1.185, -2.927e-6
-1.184, -2.927e-6
-1.183, -2.927e-6
-1.182, -2.927e-6
-1.181, -2.927e-6
-1.180, -2.927e-6
-1.179, -2.927e-6
-1.178, -2.927e-6
-1.177, -2.927e-6
-1.176, -2.927e-6
-1.175, -2.927e-6
-1.174, -2.927e-6
-1.173, -2.927e-6
-1.172, -2.927e-6
-1.171, -2.927e-6
-1.170, -2.927e-6
-1.169, -2.927e-6
-1.168, -2.927e-6
-1.167, -2.927e-6
-1.166, -2.927e-6
-1.165, -2.927e-6
-1.164, -2.927e-6
-1.163, -2.927e-6
-1.162, -2.927e-6
-1.161, -2.927e-6
-1.160, -2.927e-6
-1.159, -2.927e-6
-1.158, -2.927e-6
-1.157, -2.927e-6
-1.156, -2.927e-6
-1.155, -2.927e-6
-1.154, -2.927e-6
-1.153, -2.927e-6
-1.152, -2.927e-6
-1.151, -2.927e-6
-1.150, -2.927e-6
-1.149, -2.927e-6
-1.148, -6.010e-6
-1.147, -2.927e-6
-1.146, -2.927e-6
-1.145, -2.927e-6
-1.144, -2.927e-6
-1.143, -2.927e-6
-1.142, -2.927e-6
-1.141, -2.927e-6
-1.140, -2.927e-6
-1.139, -2.927e-6
-1.138, -2.927e-6
-1.137, -2.927e-6
-1.136, -6.010e-6
-1.135, -2.927e-6
-1.134, -2.927e-6
-1.133, -2.927e-6
-1.132, -2.927e-6
-1.131, -6.010e-6
-1.130, -2.927e-6
-1.129, -2.927e-6
-1.128, -6.010e-6
-1.127, -6.010e-6
-1.126, -6.010e-6
-1.125, -6.010e-6
-1.124, -6.010e-6
-1.123, -6.010e-6
-1.122, -6.010e-6
-1.121, -6.010e-6
-1.120, -2.927e-6
-1.119, -6.010e-6
-1.118, -6.010e-6
-1.117, -6.010e-6
-1.116, -6.010e-6
-1.115, -6.010e-6
-1.114, -6.010e-6
-1.113, -6.010e-6
-1.112, -2.927e-6
-1.111, -6.010e-6
-1.110, -6.010e-6
-1.109, -6.010e-6
-1.108, -6.010e-6
-1.107, -2.927e-6
-1.106, -6.010e-6
-1.105, -6.010e-6
-1.104, -6.010e-6
-1.103, -6.010e-6
-1.102, -6.010e-6
-1.101, -6.010e-6
-1.100, -6.010e-6
-1.099, -6.010e-6
-1.098, -6.010e-6
-1.097, -6.010e-6
-1.096, -6.010e-6
-1.095, -6.010e-6
-1.094, -6.010e-6
-1.093, -6.010e-6
-1.092, -6.010e-6
-1.091, -6.010e-6
-1.090, -6.010e-6
-1.089, -6.010e-6
-1.088, -6.010e-6
-1.087, -6.010e-6
-1.086, -6.010e-6
-1.085, -6.010e-6
-1.084, -6.010e-6
-1.083, -6.010e-6
-1.082, -6.010e-6
-1.081, -6.010e-6
-1.080, -6.010e-6
-1.079, -6.010e-6
-1.078, -6.010e-6
-1.077, -6.010e-6
-1.076, -6.010e-6
-1.075, -6.010e-6
-1.074, -6.010e-6
-1.073, -6.010e-6
-1.072, -6.010e-6
-1.071, -6.010e-6
-1.070, -6.010e-6
-1.069, -6.010e-6
-1.068, -6.010e-6
-1.067, -6.010e-6
-1.066, -6.010e-6
-1.065, -6.010e-6
-1.064, -6.010e-6
-1.063, -6.010e-6
-1.062, -6.010e-6
-1.061, -6.010e-6
-1.060, -6.010e-6
-1.059, -6.010e-6
-1.058, -6.010e-6
-1.057, -6.010e-6
-1.056, -9.093e-6
-1.055, -6.010e-6
-1.054, -6.010e-6
-1.053, -6.010e-6
-1.052, -6.010e-6
-1.051, -9.093e-6
-1.050, -6.010e-6
-1.049, -6.010e-6
-1.048, -9.093e-6
-1.047, -6.010e-6
-1.046, -6.010e-6
-1.045, -6.010e-6
-1.044, -6.010e-6
-1.043, -6.010e-6
-1.042, -6.010e-6
-1.041, -6.010e-6
-1.040, -9.093e-6
-1.039, -9.093e-6
-1.038, -9.093e-6
-1.037, -9.093e-6
-1.036, -9.093e-6
-1.035, -6.010e-6
-1.034, -9.093e-6
-1.033, -9.093e-6
-1.032, -9.093e-6
-1.031, -9.093e-6
-1.030, -9.093e-6
-1.029, -9.093e-6
-1.028, -9.093e-6
-1.027, -9.093e-6
-1.026, -9.093e-6
-1.025, -9.093e-6
-1.024, -9.093e-6
-1.023, -9.093e-6
-1.022, -9.093e-6
-1.021, -9.093e-6
-1.020, -9.093e-6
-1.019, -9.093e-6
-1.018, -9.093e-6
-1.017, -9.093e-6
-1.016, -9.093e-6
-1.015, -9.093e-6
-1.014, -9.093e-6
-1.013, -9.093e-6
-1.012, -9.093e-6
-1.011, -9.093e-6
-1.010, -9.093e-6
-1.009, -9.093e-6
-1.008, -9.093e-6
-1.007, -9.093e-6
-1.006, -9.093e-6
-1.005, -9.093e-6
-1.004, -9.093e-6
-1.003, -9.093e-6
-1.002, -9.093e-6
-1.001, -9.093e-6
