Sept. 28, 2024   15:36:52
Linear Sweep Voltammetry
File: c:/users/guazh/data/20240922_batch_417_500/2024-09-22-exp473\pre-regen-2024-09-28t15_33_46-lsvinphos\pre-regen_lsv_50mvs_efin_-1900mv.bin
Data Source:  Experiment
Instrument Model:  CHI760E
Header: LSV ran at 50 mVs with Efin at -1900mV
Note: 

Init E (V) = -0.6
Final E (V) = -1.9
Scan Rate (V/s) = 0.05
Sample Interval (V) = 0.001
Quiet Time (sec) = 2
Sensitivity (A/V) = 1e-4
Comp R (ohm) = 14.1

Results:

Channel 1:
Ep = -1.787V
ip = 6.846e-4A
Ah = 1.034e-3C

Potential/V, Current/A

-0.600, 4.760e-6
-0.601, 4.884e-6
-0.602, 4.940e-6
-0.603, 4.989e-6
-0.604, 5.033e-6
-0.605, 5.076e-6
-0.606, 5.117e-6
-0.607, 5.157e-6
-0.608, 5.196e-6
-0.609, 5.237e-6
-0.610, 5.274e-6
-0.611, 5.314e-6
-0.612, 5.351e-6
-0.613, 5.387e-6
-0.614, 5.426e-6
-0.615, 5.464e-6
-0.616, 5.501e-6
-0.617, 5.536e-6
-0.618, 5.571e-6
-0.619, 5.608e-6
-0.620, 5.643e-6
-0.621, 5.677e-6
-0.622, 5.711e-6
-0.623, 5.744e-6
-0.624, 5.779e-6
-0.625, 5.815e-6
-0.626, 5.848e-6
-0.627, 5.881e-6
-0.628, 5.911e-6
-0.629, 5.942e-6
-0.630, 5.975e-6
-0.631, 6.007e-6
-0.632, 6.038e-6
-0.633, 6.070e-6
-0.634, 6.101e-6
-0.635, 6.133e-6
-0.636, 6.163e-6
-0.637, 6.190e-6
-0.638, 6.218e-6
-0.639, 6.247e-6
-0.640, 6.278e-6
-0.641, 6.308e-6
-0.642, 6.336e-6
-0.643, 6.365e-6
-0.644, 6.394e-6
-0.645, 6.421e-6
-0.646, 6.450e-6
-0.647, 6.476e-6
-0.648, 6.503e-6
-0.649, 6.530e-6
-0.650, 6.556e-6
-0.651, 6.582e-6
-0.652, 6.608e-6
-0.653, 6.632e-6
-0.654, 6.659e-6
-0.655, 6.682e-6
-0.656, 6.708e-6
-0.657, 6.730e-6
-0.658, 6.751e-6
-0.659, 6.777e-6
-0.660, 6.801e-6
-0.661, 6.824e-6
-0.662, 6.847e-6
-0.663, 6.866e-6
-0.664, 6.888e-6
-0.665, 6.909e-6
-0.666, 6.932e-6
-0.667, 6.950e-6
-0.668, 6.971e-6
-0.669, 6.989e-6
-0.670, 7.008e-6
-0.671, 7.027e-6
-0.672, 7.045e-6
-0.673, 7.062e-6
-0.674, 7.080e-6
-0.675, 7.098e-6
-0.676, 7.116e-6
-0.677, 7.131e-6
-0.678, 7.147e-6
-0.679, 7.164e-6
-0.680, 7.179e-6
-0.681, 7.196e-6
-0.682, 7.208e-6
-0.683, 7.222e-6
-0.684, 7.237e-6
-0.685, 7.250e-6
-0.686, 7.264e-6
-0.687, 7.275e-6
-0.688, 7.286e-6
-0.689, 7.298e-6
-0.690, 7.309e-6
-0.691, 7.322e-6
-0.692, 7.334e-6
-0.693, 7.343e-6
-0.694, 7.354e-6
-0.695, 7.364e-6
-0.696, 7.374e-6
-0.697, 7.382e-6
-0.698, 7.389e-6
-0.699, 7.399e-6
-0.700, 7.406e-6
-0.701, 7.415e-6
-0.702, 7.421e-6
-0.703, 7.427e-6
-0.704, 7.435e-6
-0.705, 7.444e-6
-0.706, 7.449e-6
-0.707, 7.453e-6
-0.708, 7.459e-6
-0.709, 7.464e-6
-0.710, 7.471e-6
-0.711, 7.474e-6
-0.712, 7.479e-6
-0.713, 7.483e-6
-0.714, 7.486e-6
-0.715, 7.491e-6
-0.716, 7.494e-6
-0.717, 7.496e-6
-0.718, 7.498e-6
-0.719, 7.501e-6
-0.720, 7.503e-6
-0.721, 7.506e-6
-0.722, 7.506e-6
-0.723, 7.506e-6
-0.724, 7.508e-6
-0.725, 7.508e-6
-0.726, 7.510e-6
-0.727, 7.509e-6
-0.728, 7.509e-6
-0.729, 7.510e-6
-0.730, 7.508e-6
-0.731, 7.509e-6
-0.732, 7.507e-6
-0.733, 7.505e-6
-0.734, 7.505e-6
-0.735, 7.505e-6
-0.736, 7.502e-6
-0.737, 7.501e-6
-0.738, 7.497e-6
-0.739, 7.497e-6
-0.740, 7.494e-6
-0.741, 7.492e-6
-0.742, 7.491e-6
-0.743, 7.486e-6
-0.744, 7.485e-6
-0.745, 7.481e-6
-0.746, 7.477e-6
-0.747, 7.475e-6
-0.748, 7.471e-6
-0.749, 7.468e-6
-0.750, 7.464e-6
-0.751, 7.461e-6
-0.752, 7.456e-6
-0.753, 7.451e-6
-0.754, 7.447e-6
-0.755, 7.445e-6
-0.756, 7.441e-6
-0.757, 7.435e-6
-0.758, 7.430e-6
-0.759, 7.426e-6
-0.760, 7.422e-6
-0.761, 7.418e-6
-0.762, 7.412e-6
-0.763, 7.407e-6
-0.764, 7.403e-6
-0.765, 7.399e-6
-0.766, 7.395e-6
-0.767, 7.389e-6
-0.768, 7.385e-6
-0.769, 7.381e-6
-0.770, 7.375e-6
-0.771, 7.371e-6
-0.772, 7.366e-6
-0.773, 7.359e-6
-0.774, 7.358e-6
-0.775, 7.350e-6
-0.776, 7.347e-6
-0.777, 7.342e-6
-0.778, 7.334e-6
-0.779, 7.329e-6
-0.780, 7.326e-6
-0.781, 7.321e-6
-0.782, 7.316e-6
-0.783, 7.309e-6
-0.784, 7.305e-6
-0.785, 7.300e-6
-0.786, 7.295e-6
-0.787, 7.290e-6
-0.788, 7.284e-6
-0.789, 7.279e-6
-0.790, 7.274e-6
-0.791, 7.270e-6
-0.792, 7.264e-6
-0.793, 7.259e-6
-0.794, 7.256e-6
-0.795, 7.251e-6
-0.796, 7.247e-6
-0.797, 7.241e-6
-0.798, 7.235e-6
-0.799, 7.230e-6
-0.800, 7.226e-6
-0.801, 7.223e-6
-0.802, 7.217e-6
-0.803, 7.212e-6
-0.804, 7.208e-6
-0.805, 7.203e-6
-0.806, 7.201e-6
-0.807, 7.195e-6
-0.808, 7.189e-6
-0.809, 7.186e-6
-0.810, 7.182e-6
-0.811, 7.178e-6
-0.812, 7.173e-6
-0.813, 7.167e-6
-0.814, 7.166e-6
-0.815, 7.160e-6
-0.816, 7.156e-6
-0.817, 7.153e-6
-0.818, 7.148e-6
-0.819, 7.148e-6
-0.820, 7.147e-6
-0.821, 7.141e-6
-0.822, 7.136e-6
-0.823, 7.132e-6
-0.824, 7.129e-6
-0.825, 7.126e-6
-0.826, 7.123e-6
-0.827, 7.120e-6
-0.828, 7.114e-6
-0.829, 7.111e-6
-0.830, 7.108e-6
-0.831, 7.105e-6
-0.832, 7.103e-6
-0.833, 7.099e-6
-0.834, 7.095e-6
-0.835, 7.094e-6
-0.836, 7.091e-6
-0.837, 7.087e-6
-0.838, 7.085e-6
-0.839, 7.081e-6
-0.840, 7.078e-6
-0.841, 7.079e-6
-0.842, 7.074e-6
-0.843, 7.071e-6
-0.844, 7.070e-6
-0.845, 7.068e-6
-0.846, 7.066e-6
-0.847, 7.063e-6
-0.848, 7.060e-6
-0.849, 7.059e-6
-0.850, 7.057e-6
-0.851, 7.056e-6
-0.852, 7.053e-6
-0.853, 7.051e-6
-0.854, 7.049e-6
-0.855, 7.047e-6
-0.856, 7.046e-6
-0.857, 7.046e-6
-0.858, 7.043e-6
-0.859, 7.044e-6
-0.860, 7.042e-6
-0.861, 7.040e-6
-0.862, 7.040e-6
-0.863, 7.038e-6
-0.864, 7.038e-6
-0.865, 7.037e-6
-0.866, 7.036e-6
-0.867, 7.036e-6
-0.868, 7.034e-6
-0.869, 7.033e-6
-0.870, 7.035e-6
-0.871, 7.035e-6
-0.872, 7.033e-6
-0.873, 7.032e-6
-0.874, 7.032e-6
-0.875, 7.033e-6
-0.876, 7.033e-6
-0.877, 7.032e-6
-0.878, 7.031e-6
-0.879, 7.032e-6
-0.880, 7.032e-6
-0.881, 7.034e-6
-0.882, 7.032e-6
-0.883, 7.033e-6
-0.884, 7.034e-6
-0.885, 7.033e-6
-0.886, 7.034e-6
-0.887, 7.035e-6
-0.888, 7.034e-6
-0.889, 7.036e-6
-0.890, 7.037e-6
-0.891, 7.038e-6
-0.892, 7.039e-6
-0.893, 7.039e-6
-0.894, 7.041e-6
-0.895, 7.042e-6
-0.896, 7.045e-6
-0.897, 7.046e-6
-0.898, 7.045e-6
-0.899, 7.049e-6
-0.900, 7.050e-6
-0.901, 7.051e-6
-0.902, 7.053e-6
-0.903, 7.054e-6
-0.904, 7.057e-6
-0.905, 7.059e-6
-0.906, 7.061e-6
-0.907, 7.063e-6
-0.908, 7.064e-6
-0.909, 7.067e-6
-0.910, 7.070e-6
-0.911, 7.072e-6
-0.912, 7.075e-6
-0.913, 7.077e-6
-0.914, 7.079e-6
-0.915, 7.082e-6
-0.916, 7.086e-6
-0.917, 7.088e-6
-0.918, 7.090e-6
-0.919, 7.094e-6
-0.920, 7.097e-6
-0.921, 7.101e-6
-0.922, 7.105e-6
-0.923, 7.107e-6
-0.924, 7.111e-6
-0.925, 7.114e-6
-0.926, 7.118e-6
-0.927, 7.122e-6
-0.928, 7.125e-6
-0.929, 7.130e-6
-0.930, 7.133e-6
-0.931, 7.139e-6
-0.932, 7.142e-6
-0.933, 7.145e-6
-0.934, 7.151e-6
-0.935, 7.156e-6
-0.936, 7.160e-6
-0.937, 7.165e-6
-0.938, 7.168e-6
-0.939, 7.174e-6
-0.940, 7.179e-6
-0.941, 7.184e-6
-0.942, 7.190e-6
-0.943, 7.194e-6
-0.944, 7.201e-6
-0.945, 7.205e-6
-0.946, 7.211e-6
-0.947, 7.219e-6
-0.948, 7.224e-6
-0.949, 7.229e-6
-0.950, 7.235e-6
-0.951, 7.242e-6
-0.952, 7.248e-6
-0.953, 7.254e-6
-0.954, 7.259e-6
-0.955, 7.266e-6
-0.956, 7.274e-6
-0.957, 7.280e-6
-0.958, 7.287e-6
-0.959, 7.293e-6
-0.960, 7.302e-6
-0.961, 7.310e-6
-0.962, 7.317e-6
-0.963, 7.324e-6
-0.964, 7.333e-6
-0.965, 7.341e-6
-0.966, 7.350e-6
-0.967, 7.358e-6
-0.968, 7.365e-6
-0.969, 7.374e-6
-0.970, 7.382e-6
-0.971, 7.392e-6
-0.972, 7.401e-6
-0.973, 7.411e-6
-0.974, 7.420e-6
-0.975, 7.428e-6
-0.976, 7.439e-6
-0.977, 7.449e-6
-0.978, 7.457e-6
-0.979, 7.469e-6
-0.980, 7.481e-6
-0.981, 7.491e-6
-0.982, 7.502e-6
-0.983, 7.511e-6
-0.984, 7.522e-6
-0.985, 7.535e-6
-0.986, 7.546e-6
-0.987, 7.558e-6
-0.988, 7.568e-6
-0.989, 7.581e-6
-0.990, 7.595e-6
-0.991, 7.607e-6
-0.992, 7.621e-6
-0.993, 7.632e-6
-0.994, 7.644e-6
-0.995, 7.659e-6
-0.996, 7.673e-6
-0.997, 7.686e-6
-0.998, 7.701e-6
-0.999, 7.716e-6
-1.000, 7.731e-6
-1.001, 7.746e-6
-1.002, 7.760e-6
-1.003, 7.774e-6
-1.004, 7.790e-6
-1.005, 7.806e-6
-1.006, 7.822e-6
-1.007, 7.838e-6
-1.008, 7.854e-6
-1.009, 7.871e-6
-1.010, 7.887e-6
-1.011, 7.906e-6
-1.012, 7.924e-6
-1.013, 7.940e-6
-1.014, 7.960e-6
-1.015, 7.977e-6
-1.016, 7.996e-6
-1.017, 8.016e-6
-1.018, 8.032e-6
-1.019, 8.052e-6
-1.020, 8.072e-6
-1.021, 8.093e-6
-1.022, 8.114e-6
-1.023, 8.132e-6
-1.024, 8.156e-6
-1.025, 8.180e-6
-1.026, 8.202e-6
-1.027, 8.226e-6
-1.028, 8.249e-6
-1.029, 8.272e-6
-1.030, 8.297e-6
-1.031, 8.321e-6
-1.032, 8.345e-6
-1.033, 8.367e-6
-1.034, 8.391e-6
-1.035, 8.417e-6
-1.036, 8.444e-6
-1.037, 8.470e-6
-1.038, 8.496e-6
-1.039, 8.523e-6
-1.040, 8.551e-6
-1.041, 8.578e-6
-1.042, 8.604e-6
-1.043, 8.630e-6
-1.044, 8.659e-6
-1.045, 8.689e-6
-1.046, 8.719e-6
-1.047, 8.750e-6
-1.048, 8.781e-6
-1.049, 8.813e-6
-1.050, 8.844e-6
-1.051, 8.874e-6
-1.052, 8.907e-6
-1.053, 8.939e-6
-1.054, 8.973e-6
-1.055, 9.006e-6
-1.056, 9.042e-6
-1.057, 9.078e-6
-1.058, 9.111e-6
-1.059, 9.146e-6
-1.060, 9.183e-6
-1.061, 9.221e-6
-1.062, 9.260e-6
-1.063, 9.297e-6
-1.064, 9.336e-6
-1.065, 9.375e-6
-1.066, 9.412e-6
-1.067, 9.452e-6
-1.068, 9.491e-6
-1.069, 9.534e-6
-1.070, 9.578e-6
-1.071, 9.619e-6
-1.072, 9.661e-6
-1.073, 9.704e-6
-1.074, 9.748e-6
-1.075, 9.796e-6
-1.076, 9.842e-6
-1.077, 9.887e-6
-1.078, 9.933e-6
-1.079, 9.979e-6
-1.080, 1.003e-5
-1.081, 1.008e-5
-1.082, 1.012e-5
-1.083, 1.017e-5
-1.084, 1.022e-5
-1.085, 1.027e-5
-1.086, 1.032e-5
-1.087, 1.037e-5
-1.088, 1.043e-5
-1.089, 1.048e-5
-1.090, 1.053e-5
-1.091, 1.059e-5
-1.092, 1.064e-5
-1.093, 1.070e-5
-1.094, 1.076e-5
-1.095, 1.081e-5
-1.096, 1.087e-5
-1.097, 1.093e-5
-1.098, 1.099e-5
-1.099, 1.105e-5
-1.100, 1.111e-5
-1.101, 1.117e-5
-1.102, 1.123e-5
-1.103, 1.129e-5
-1.104, 1.135e-5
-1.105, 1.142e-5
-1.106, 1.148e-5
-1.107, 1.154e-5
-1.108, 1.160e-5
-1.109, 1.167e-5
-1.110, 1.173e-5
-1.111, 1.180e-5
-1.112, 1.186e-5
-1.113, 1.193e-5
-1.114, 1.199e-5
-1.115, 1.205e-5
-1.116, 1.211e-5
-1.117, 1.217e-5
-1.118, 1.224e-5
-1.119, 1.230e-5
-1.120, 1.237e-5
-1.121, 1.244e-5
-1.122, 1.251e-5
-1.123, 1.257e-5
-1.124, 1.264e-5
-1.125, 1.270e-5
-1.126, 1.277e-5
-1.127, 1.284e-5
-1.128, 1.290e-5
-1.129, 1.297e-5
-1.130, 1.304e-5
-1.131, 1.310e-5
-1.132, 1.317e-5
-1.133, 1.323e-5
-1.134, 1.330e-5
-1.135, 1.336e-5
-1.136, 1.343e-5
-1.137, 1.349e-5
-1.138, 1.356e-5
-1.139, 1.362e-5
-1.140, 1.368e-5
-1.141, 1.375e-5
-1.142, 1.381e-5
-1.143, 1.387e-5
-1.144, 1.393e-5
-1.145, 1.399e-5
-1.146, 1.406e-5
-1.147, 1.411e-5
-1.148, 1.417e-5
-1.149, 1.423e-5
-1.150, 1.429e-5
-1.151, 1.435e-5
-1.152, 1.441e-5
-1.153, 1.447e-5
-1.154, 1.452e-5
-1.155, 1.458e-5
-1.156, 1.464e-5
-1.157, 1.470e-5
-1.158, 1.475e-5
-1.159, 1.480e-5
-1.160, 1.486e-5
-1.161, 1.492e-5
-1.162, 1.497e-5
-1.163, 1.503e-5
-1.164, 1.508e-5
-1.165, 1.513e-5
-1.166, 1.519e-5
-1.167, 1.524e-5
-1.168, 1.529e-5
-1.169, 1.534e-5
-1.170, 1.539e-5
-1.171, 1.545e-5
-1.172, 1.550e-5
-1.173, 1.555e-5
-1.174, 1.560e-5
-1.175, 1.565e-5
-1.176, 1.570e-5
-1.177, 1.575e-5
-1.178, 1.580e-5
-1.179, 1.585e-5
-1.180, 1.590e-5
-1.181, 1.595e-5
-1.182, 1.600e-5
-1.183, 1.605e-5
-1.184, 1.610e-5
-1.185, 1.615e-5
-1.186, 1.620e-5
-1.187, 1.625e-5
-1.188, 1.630e-5
-1.189, 1.635e-5
-1.190, 1.640e-5
-1.191, 1.645e-5
-1.192, 1.650e-5
-1.193, 1.655e-5
-1.194, 1.660e-5
-1.195, 1.665e-5
-1.196, 1.670e-5
-1.197, 1.675e-5
-1.198, 1.680e-5
-1.199, 1.685e-5
-1.200, 1.690e-5
-1.201, 1.695e-5
-1.202, 1.700e-5
-1.203, 1.706e-5
-1.204, 1.711e-5
-1.205, 1.716e-5
-1.206, 1.722e-5
-1.207, 1.727e-5
-1.208, 1.732e-5
-1.209, 1.738e-5
-1.210, 1.743e-5
-1.211, 1.749e-5
-1.212, 1.754e-5
-1.213, 1.760e-5
-1.214, 1.766e-5
-1.215, 1.771e-5
-1.216, 1.777e-5
-1.217, 1.783e-5
-1.218, 1.789e-5
-1.219, 1.795e-5
-1.220, 1.801e-5
-1.221, 1.807e-5
-1.222, 1.813e-5
-1.223, 1.819e-5
-1.224, 1.825e-5
-1.225, 1.831e-5
-1.226, 1.838e-5
-1.227, 1.844e-5
-1.228, 1.851e-5
-1.229, 1.858e-5
-1.230, 1.865e-5
-1.231, 1.871e-5
-1.232, 1.878e-5
-1.233, 1.885e-5
-1.234, 1.892e-5
-1.235, 1.899e-5
-1.236, 1.907e-5
-1.237, 1.914e-5
-1.238, 1.922e-5
-1.239, 1.929e-5
-1.240, 1.937e-5
-1.241, 1.944e-5
-1.242, 1.952e-5
-1.243, 1.960e-5
-1.244, 1.968e-5
-1.245, 1.976e-5
-1.246, 1.985e-5
-1.247, 1.993e-5
-1.248, 2.001e-5
-1.249, 2.009e-5
-1.250, 2.018e-5
-1.251, 2.027e-5
-1.252, 2.036e-5
-1.253, 2.045e-5
-1.254, 2.054e-5
-1.255, 2.063e-5
-1.256, 2.072e-5
-1.257, 2.082e-5
-1.258, 2.091e-5
-1.259, 2.101e-5
-1.260, 2.111e-5
-1.261, 2.121e-5
-1.262, 2.132e-5
-1.263, 2.142e-5
-1.264, 2.152e-5
-1.265, 2.163e-5
-1.266, 2.173e-5
-1.267, 2.184e-5
-1.268, 2.195e-5
-1.269, 2.206e-5
-1.270, 2.217e-5
-1.271, 2.228e-5
-1.272, 2.240e-5
-1.273, 2.251e-5
-1.274, 2.263e-5
-1.275, 2.275e-5
-1.276, 2.288e-5
-1.277, 2.300e-5
-1.278, 2.312e-5
-1.279, 2.325e-5
-1.280, 2.338e-5
-1.281, 2.351e-5
-1.282, 2.364e-5
-1.283, 2.377e-5
-1.284, 2.391e-5
-1.285, 2.405e-5
-1.286, 2.419e-5
-1.287, 2.433e-5
-1.288, 2.447e-5
-1.289, 2.461e-5
-1.290, 2.475e-5
-1.291, 2.490e-5
-1.292, 2.505e-5
-1.293, 2.520e-5
-1.294, 2.535e-5
-1.295, 2.551e-5
-1.296, 2.566e-5
-1.297, 2.582e-5
-1.298, 2.598e-5
-1.299, 2.614e-5
-1.300, 2.630e-5
-1.301, 2.647e-5
-1.302, 2.664e-5
-1.303, 2.680e-5
-1.304, 2.698e-5
-1.305, 2.715e-5
-1.306, 2.733e-5
-1.307, 2.751e-5
-1.308, 2.768e-5
-1.309, 2.786e-5
-1.310, 2.804e-5
-1.311, 2.822e-5
-1.312, 2.841e-5
-1.313, 2.861e-5
-1.314, 2.880e-5
-1.315, 2.899e-5
-1.316, 2.919e-5
-1.317, 2.939e-5
-1.318, 2.959e-5
-1.319, 2.980e-5
-1.320, 3.000e-5
-1.321, 3.021e-5
-1.322, 3.042e-5
-1.323, 3.063e-5
-1.324, 3.085e-5
-1.325, 3.107e-5
-1.326, 3.129e-5
-1.327, 3.151e-5
-1.328, 3.173e-5
-1.329, 3.197e-5
-1.330, 3.220e-5
-1.331, 3.243e-5
-1.332, 3.267e-5
-1.333, 3.290e-5
-1.334, 3.315e-5
-1.335, 3.339e-5
-1.336, 3.363e-5
-1.337, 3.388e-5
-1.338, 3.413e-5
-1.339, 3.438e-5
-1.340, 3.464e-5
-1.341, 3.490e-5
-1.342, 3.516e-5
-1.343, 3.542e-5
-1.344, 3.569e-5
-1.345, 3.595e-5
-1.346, 3.622e-5
-1.347, 3.650e-5
-1.348, 3.677e-5
-1.349, 3.705e-5
-1.350, 3.734e-5
-1.351, 3.762e-5
-1.352, 3.790e-5
-1.353, 3.820e-5
-1.354, 3.849e-5
-1.355, 3.878e-5
-1.356, 3.908e-5
-1.357, 3.938e-5
-1.358, 3.969e-5
-1.359, 4.000e-5
-1.360, 4.031e-5
-1.361, 4.062e-5
-1.362, 4.094e-5
-1.363, 4.126e-5
-1.364, 4.158e-5
-1.365, 4.190e-5
-1.366, 4.223e-5
-1.367, 4.255e-5
-1.368, 4.289e-5
-1.369, 4.322e-5
-1.370, 4.356e-5
-1.371, 4.388e-5
-1.372, 4.423e-5
-1.373, 4.457e-5
-1.374, 4.492e-5
-1.375, 4.527e-5
-1.376, 4.563e-5
-1.377, 4.598e-5
-1.378, 4.634e-5
-1.379, 4.671e-5
-1.380, 4.707e-5
-1.381, 4.744e-5
-1.382, 4.782e-5
-1.383, 4.821e-5
-1.384, 4.858e-5
-1.385, 4.896e-5
-1.386, 4.934e-5
-1.387, 4.973e-5
-1.388, 5.012e-5
-1.389, 5.051e-5
-1.390, 5.090e-5
-1.391, 5.130e-5
-1.392, 5.170e-5
-1.393, 5.210e-5
-1.394, 5.250e-5
-1.395, 5.291e-5
-1.396, 5.332e-5
-1.397, 5.373e-5
-1.398, 5.415e-5
-1.399, 5.456e-5
-1.400, 5.498e-5
-1.401, 5.541e-5
-1.402, 5.584e-5
-1.403, 5.627e-5
-1.404, 5.670e-5
-1.405, 5.713e-5
-1.406, 5.757e-5
-1.407, 5.800e-5
-1.408, 5.845e-5
-1.409, 5.890e-5
-1.410, 5.934e-5
-1.411, 5.978e-5
-1.412, 6.023e-5
-1.413, 6.068e-5
-1.414, 6.114e-5
-1.415, 6.160e-5
-1.416, 6.206e-5
-1.417, 6.252e-5
-1.418, 6.299e-5
-1.419, 6.346e-5
-1.420, 6.394e-5
-1.421, 6.441e-5
-1.422, 6.489e-5
-1.423, 6.537e-5
-1.424, 6.584e-5
-1.425, 6.633e-5
-1.426, 6.681e-5
-1.427, 6.730e-5
-1.428, 6.778e-5
-1.429, 6.828e-5
-1.430, 6.877e-5
-1.431, 6.926e-5
-1.432, 6.976e-5
-1.433, 7.026e-5
-1.434, 7.077e-5
-1.435, 7.128e-5
-1.436, 7.179e-5
-1.437, 7.230e-5
-1.438, 7.281e-5
-1.439, 7.332e-5
-1.440, 7.384e-5
-1.441, 7.435e-5
-1.442, 7.487e-5
-1.443, 7.538e-5
-1.444, 7.590e-5
-1.445, 7.642e-5
-1.446, 7.695e-5
-1.447, 7.747e-5
-1.448, 7.801e-5
-1.449, 7.854e-5
-1.450, 7.907e-5
-1.451, 7.961e-5
-1.452, 8.015e-5
-1.453, 8.069e-5
-1.454, 8.123e-5
-1.455, 8.177e-5
-1.456, 8.232e-5
-1.457, 8.287e-5
-1.458, 8.341e-5
-1.459, 8.396e-5
-1.460, 8.451e-5
-1.461, 8.506e-5
-1.462, 8.561e-5
-1.463, 8.617e-5
-1.464, 8.673e-5
-1.465, 8.729e-5
-1.466, 8.785e-5
-1.467, 8.842e-5
-1.468, 8.898e-5
-1.469, 8.955e-5
-1.470, 9.011e-5
-1.471, 9.068e-5
-1.472, 9.124e-5
-1.473, 9.181e-5
-1.474, 9.239e-5
-1.475, 9.296e-5
-1.476, 9.353e-5
-1.477, 9.411e-5
-1.478, 9.469e-5
-1.479, 9.528e-5
-1.480, 9.586e-5
-1.481, 9.645e-5
-1.482, 9.704e-5
-1.483, 9.762e-5
-1.484, 9.821e-5
-1.485, 9.880e-5
-1.486, 9.939e-5
-1.487, 9.998e-5
-1.488, 1.006e-4
-1.489, 1.012e-4
-1.490, 1.018e-4
-1.491, 1.024e-4
-1.492, 1.030e-4
-1.493, 1.036e-4
-1.494, 1.042e-4
-1.495, 1.048e-4
-1.496, 1.054e-4
-1.497, 1.060e-4
-1.498, 1.066e-4
-1.499, 1.072e-4
-1.500, 1.078e-4
-1.501, 1.084e-4
-1.502, 1.090e-4
-1.503, 1.096e-4
-1.504, 1.102e-4
-1.505, 1.108e-4
-1.506, 1.115e-4
-1.507, 1.121e-4
-1.508, 1.127e-4
-1.509, 1.133e-4
-1.510, 1.139e-4
-1.511, 1.145e-4
-1.512, 1.152e-4
-1.513, 1.158e-4
-1.514, 1.164e-4
-1.515, 1.170e-4
-1.516, 1.176e-4
-1.517, 1.183e-4
-1.518, 1.189e-4
-1.519, 1.196e-4
-1.520, 1.202e-4
-1.521, 1.208e-4
-1.522, 1.215e-4
-1.523, 1.221e-4
-1.524, 1.228e-4
-1.525, 1.234e-4
-1.526, 1.240e-4
-1.527, 1.247e-4
-1.528, 1.253e-4
-1.529, 1.260e-4
-1.530, 1.267e-4
-1.531, 1.273e-4
-1.532, 1.280e-4
-1.533, 1.286e-4
-1.534, 1.293e-4
-1.535, 1.300e-4
-1.536, 1.306e-4
-1.537, 1.313e-4
-1.538, 1.320e-4
-1.539, 1.327e-4
-1.540, 1.333e-4
-1.541, 1.340e-4
-1.542, 1.347e-4
-1.543, 1.354e-4
-1.544, 1.361e-4
-1.545, 1.368e-4
-1.546, 1.375e-4
-1.547, 1.382e-4
-1.548, 1.389e-4
-1.549, 1.396e-4
-1.550, 1.404e-4
-1.551, 1.411e-4
-1.552, 1.418e-4
-1.553, 1.426e-4
-1.554, 1.434e-4
-1.555, 1.441e-4
-1.556, 1.449e-4
-1.557, 1.456e-4
-1.558, 1.464e-4
-1.559, 1.472e-4
-1.560, 1.480e-4
-1.561, 1.488e-4
-1.562, 1.496e-4
-1.563, 1.505e-4
-1.564, 1.513e-4
-1.565, 1.522e-4
-1.566, 1.530e-4
-1.567, 1.539e-4
-1.568, 1.548e-4
-1.569, 1.557e-4
-1.570, 1.566e-4
-1.571, 1.576e-4
-1.572, 1.585e-4
-1.573, 1.595e-4
-1.574, 1.604e-4
-1.575, 1.615e-4
-1.576, 1.625e-4
-1.577, 1.635e-4
-1.578, 1.645e-4
-1.579, 1.655e-4
-1.580, 1.666e-4
-1.581, 1.677e-4
-1.582, 1.688e-4
-1.583, 1.699e-4
-1.584, 1.710e-4
-1.585, 1.722e-4
-1.586, 1.735e-4
-1.587, 1.747e-4
-1.588, 1.760e-4
-1.589, 1.773e-4
-1.590, 1.785e-4
-1.591, 1.799e-4
-1.592, 1.812e-4
-1.593, 1.826e-4
-1.594, 1.840e-4
-1.595, 1.854e-4
-1.596, 1.868e-4
-1.597, 1.883e-4
-1.598, 1.897e-4
-1.599, 1.913e-4
-1.600, 1.929e-4
-1.601, 1.944e-4
-1.602, 1.961e-4
-1.603, 1.977e-4
-1.604, 1.994e-4
-1.605, 2.011e-4
-1.606, 2.029e-4
-1.607, 2.047e-4
-1.608, 2.065e-4
-1.609, 2.084e-4
-1.610, 2.103e-4
-1.611, 2.123e-4
-1.612, 2.143e-4
-1.613, 2.163e-4
-1.614, 2.183e-4
-1.615, 2.204e-4
-1.616, 2.226e-4
-1.617, 2.248e-4
-1.618, 2.270e-4
-1.619, 2.292e-4
-1.620, 2.315e-4
-1.621, 2.338e-4
-1.622, 2.362e-4
-1.623, 2.385e-4
-1.624, 2.409e-4
-1.625, 2.433e-4
-1.626, 2.459e-4
-1.627, 2.484e-4
-1.628, 2.509e-4
-1.629, 2.534e-4
-1.630, 2.561e-4
-1.631, 2.588e-4
-1.632, 2.615e-4
-1.633, 2.642e-4
-1.634, 2.671e-4
-1.635, 2.699e-4
-1.636, 2.727e-4
-1.637, 2.756e-4
-1.638, 2.785e-4
-1.639, 2.815e-4
-1.640, 2.846e-4
-1.641, 2.876e-4
-1.642, 2.908e-4
-1.643, 2.938e-4
-1.644, 2.969e-4
-1.645, 3.001e-4
-1.646, 3.033e-4
-1.647, 3.065e-4
-1.648, 3.098e-4
-1.649, 3.131e-4
-1.650, 3.165e-4
-1.651, 3.199e-4
-1.652, 3.233e-4
-1.653, 3.269e-4
-1.654, 3.303e-4
-1.655, 3.337e-4
-1.656, 3.372e-4
-1.657, 3.408e-4
-1.658, 3.443e-4
-1.659, 3.478e-4
-1.660, 3.514e-4
-1.661, 3.551e-4
-1.662, 3.587e-4
-1.663, 3.625e-4
-1.664, 3.663e-4
-1.665, 3.702e-4
-1.666, 3.741e-4
-1.667, 3.780e-4
-1.668, 3.818e-4
-1.669, 3.858e-4
-1.670, 3.896e-4
-1.671, 3.935e-4
-1.672, 3.974e-4
-1.673, 4.013e-4
-1.674, 4.052e-4
-1.675, 4.091e-4
-1.676, 4.131e-4
-1.677, 4.170e-4
-1.678, 4.212e-4
-1.679, 4.252e-4
-1.680, 4.293e-4
-1.681, 4.333e-4
-1.682, 4.375e-4
-1.683, 4.418e-4
-1.684, 4.463e-4
-1.685, 4.506e-4
-1.686, 4.550e-4
-1.687, 4.594e-4
-1.688, 4.638e-4
-1.689, 4.682e-4
-1.690, 4.728e-4
-1.691, 4.773e-4
-1.692, 4.817e-4
-1.693, 4.862e-4
-1.694, 4.907e-4
-1.695, 4.953e-4
-1.696, 4.999e-4
-1.697, 5.046e-4
-1.698, 5.090e-4
-1.699, 5.135e-4
-1.700, 5.180e-4
-1.701, 5.226e-4
-1.702, 5.274e-4
-1.703, 5.323e-4
-1.704, 5.371e-4
-1.705, 5.419e-4
-1.706, 5.470e-4
-1.707, 5.519e-4
-1.708, 5.569e-4
-1.709, 5.619e-4
-1.710, 5.669e-4
-1.711, 5.718e-4
-1.712, 5.768e-4
-1.713, 5.818e-4
-1.714, 5.868e-4
-1.715, 5.919e-4
-1.716, 5.970e-4
-1.717, 6.020e-4
-1.718, 6.070e-4
-1.719, 6.122e-4
-1.720, 6.174e-4
-1.721, 6.226e-4
-1.722, 6.276e-4
-1.723, 6.330e-4
-1.724, 6.383e-4
-1.725, 6.436e-4
-1.726, 6.487e-4
-1.727, 6.542e-4
-1.728, 6.597e-4
-1.729, 6.655e-4
-1.730, 6.709e-4
-1.731, 6.761e-4
-1.732, 6.813e-4
-1.733, 6.870e-4
-1.734, 6.929e-4
-1.735, 6.985e-4
-1.736, 7.045e-4
-1.737, 7.107e-4
-1.738, 7.164e-4
-1.739, 7.219e-4
-1.740, 7.273e-4
-1.741, 7.327e-4
-1.742, 7.382e-4
-1.743, 7.437e-4
-1.744, 7.494e-4
-1.745, 7.553e-4
-1.746, 7.613e-4
-1.747, 7.669e-4
-1.748, 7.728e-4
-1.749, 7.789e-4
-1.750, 7.846e-4
-1.751, 7.899e-4
-1.752, 7.955e-4
-1.753, 8.011e-4
-1.754, 8.068e-4
-1.755, 8.124e-4
-1.756, 8.182e-4
-1.757, 8.245e-4
-1.758, 8.305e-4
-1.759, 8.367e-4
-1.760, 8.429e-4
-1.761, 8.489e-4
-1.762, 8.548e-4
-1.763, 8.615e-4
-1.764, 8.680e-4
-1.765, 8.742e-4
-1.766, 8.801e-4
-1.767, 8.865e-4
-1.768, 8.929e-4
-1.769, 8.991e-4
-1.770, 9.054e-4
-1.771, 9.115e-4
-1.772, 9.183e-4
-1.773, 9.245e-4
-1.774, 9.305e-4
-1.775, 9.365e-4
-1.776, 9.427e-4
-1.777, 9.489e-4
-1.778, 9.550e-4
-1.779, 9.616e-4
-1.780, 9.682e-4
-1.781, 9.749e-4
-1.782, 9.817e-4
-1.783, 9.883e-4
-1.784, 9.947e-4
-1.785, 1.001e-3
-1.786, 1.008e-3
-1.787, 1.011e-3
-1.788, 1.011e-3
-1.789, 1.011e-3
-1.790, 1.011e-3
-1.791, 1.011e-3
-1.792, 1.011e-3
-1.793, 1.011e-3
-1.794, 1.011e-3
-1.795, 1.011e-3
-1.796, 1.011e-3
-1.797, 1.011e-3
-1.798, 1.011e-3
-1.799, 1.011e-3
-1.800, 1.011e-3
-1.801, 1.011e-3
-1.802, 1.011e-3
-1.803, 1.011e-3
-1.804, 1.011e-3
-1.805, 1.011e-3
-1.806, 1.011e-3
-1.807, 1.011e-3
-1.808, 1.011e-3
-1.809, 1.011e-3
-1.810, 1.011e-3
-1.811, 1.011e-3
-1.812, 1.011e-3
-1.813, 1.011e-3
-1.814, 1.011e-3
-1.815, 1.011e-3
-1.816, 1.011e-3
-1.817, 1.011e-3
-1.818, 1.011e-3
-1.819, 1.011e-3
-1.820, 1.011e-3
-1.821, 1.011e-3
-1.822, 1.011e-3
-1.823, 1.011e-3
-1.824, 1.011e-3
-1.825, 1.011e-3
-1.826, 1.011e-3
-1.827, 1.011e-3
-1.828, 1.011e-3
-1.829, 1.011e-3
-1.830, 1.011e-3
-1.831, 1.011e-3
-1.832, 1.011e-3
-1.833, 1.011e-3
-1.834, 1.011e-3
-1.835, 1.011e-3
-1.836, 1.011e-3
-1.837, 1.011e-3
-1.838, 1.011e-3
-1.839, 1.011e-3
-1.840, 1.011e-3
-1.841, 1.011e-3
-1.842, 1.011e-3
-1.843, 1.011e-3
-1.844, 1.011e-3
-1.845, 1.011e-3
-1.846, 1.011e-3
-1.847, 1.011e-3
-1.848, 1.011e-3
-1.849, 1.011e-3
-1.850, 1.011e-3
-1.851, 1.011e-3
-1.852, 1.011e-3
-1.853, 1.011e-3
-1.854, 1.011e-3
-1.855, 1.011e-3
-1.856, 1.011e-3
-1.857, 1.011e-3
-1.858, 1.011e-3
-1.859, 1.011e-3
-1.860, 1.011e-3
-1.861, 1.011e-3
-1.862, 1.011e-3
-1.863, 1.011e-3
-1.864, 1.011e-3
-1.865, 1.011e-3
-1.866, 1.011e-3
-1.867, 1.011e-3
-1.868, 1.011e-3
-1.869, 1.011e-3
-1.870, 1.011e-3
-1.871, 1.011e-3
-1.872, 1.011e-3
-1.873, 1.011e-3
-1.874, 1.011e-3
-1.875, 1.011e-3
-1.876, 1.011e-3
-1.877, 1.011e-3
-1.878, 1.011e-3
-1.879, 1.011e-3
-1.880, 1.011e-3
-1.881, 1.011e-3
-1.882, 1.011e-3
-1.883, 1.011e-3
-1.884, 1.011e-3
-1.885, 1.011e-3
-1.886, 1.011e-3
-1.887, 1.011e-3
-1.888, 1.011e-3
-1.889, 1.011e-3
-1.890, 1.011e-3
-1.891, 1.011e-3
-1.892, 1.011e-3
-1.893, 1.011e-3
-1.894, 1.011e-3
-1.895, 1.011e-3
-1.896, 1.011e-3
-1.897, 1.011e-3
-1.898, 1.011e-3
-1.899, 1.011e-3
