Aug. 19, 2024   11:33:57
Cyclic Voltammetry
File: c:/users/guazh/data/20240813_batch_94_500/2024-08-15-exp131\exp131-2024-08-19t11_13_50-h2koh\exp131_cv_sr_500mvs_efin_-1800mv.bin
Data Source:  Experiment
Instrument Model:  CHI760E
Header: CV ran at 500 mVs
Note: 

Init E (V) = -1
High E (V) = -1
Low E (V) = -1.8
Final E (V) = -1
Init P/N = N
Scan Rate (V/s) = 0.5
Segment = 3
Sample Interval (V) = 0.001
Quiet Time (sec) = 2
Sensitivity (A/V) = 0.01
Comp R (ohm) = 1.8

Results:

Channel 1:
Segment 1:

Segment 2:

Segment 3:

Potential/V, Current/A

-1.000, 6.322e-6
-1.001, 6.322e-6
-1.002, 6.322e-6
-1.003, 6.322e-6
-1.004, 6.322e-6
-1.005, 9.405e-6
-1.006, 9.405e-6
-1.007, 9.405e-6
-1.008, 9.405e-6
-1.009, 9.405e-6
-1.010, 9.405e-6
-1.011, 9.405e-6
-1.012, 9.405e-6
-1.013, 9.405e-6
-1.014, 9.405e-6
-1.015, 9.405e-6
-1.016, 1.249e-5
-1.017, 9.405e-6
-1.018, 9.405e-6
-1.019, 1.249e-5
-1.020, 9.405e-6
-1.021, 1.249e-5
-1.022, 9.405e-6
-1.023, 9.405e-6
-1.024, 1.249e-5
-1.025, 1.249e-5
-1.026, 1.249e-5
-1.027, 1.249e-5
-1.028, 1.249e-5
-1.029, 1.249e-5
-1.030, 1.249e-5
-1.031, 1.249e-5
-1.032, 1.249e-5
-1.033, 1.249e-5
-1.034, 1.249e-5
-1.035, 1.249e-5
-1.036, 1.249e-5
-1.037, 1.249e-5
-1.038, 9.405e-6
-1.039, 1.249e-5
-1.040, 1.249e-5
-1.041, 1.249e-5
-1.042, 1.249e-5
-1.043, 1.249e-5
-1.044, 1.249e-5
-1.045, 1.249e-5
-1.046, 1.249e-5
-1.047, 1.249e-5
-1.048, 1.249e-5
-1.049, 1.249e-5
-1.050, 1.249e-5
-1.051, 1.249e-5
-1.052, 1.249e-5
-1.053, 1.249e-5
-1.054, 1.249e-5
-1.055, 1.249e-5
-1.056, 1.249e-5
-1.057, 1.249e-5
-1.058, 1.249e-5
-1.059, 1.249e-5
-1.060, 1.249e-5
-1.061, 1.557e-5
-1.062, 1.249e-5
-1.063, 1.249e-5
-1.064, 1.557e-5
-1.065, 1.249e-5
-1.066, 1.557e-5
-1.067, 1.249e-5
-1.068, 1.249e-5
-1.069, 1.557e-5
-1.070, 1.249e-5
-1.071, 1.557e-5
-1.072, 1.249e-5
-1.073, 1.557e-5
-1.074, 1.557e-5
-1.075, 1.249e-5
-1.076, 1.249e-5
-1.077, 1.557e-5
-1.078, 1.557e-5
-1.079, 1.557e-5
-1.080, 1.557e-5
-1.081, 1.557e-5
-1.082, 1.557e-5
-1.083, 1.249e-5
-1.084, 1.557e-5
-1.085, 1.557e-5
-1.086, 1.557e-5
-1.087, 1.557e-5
-1.088, 1.557e-5
-1.089, 1.557e-5
-1.090, 1.557e-5
-1.091, 1.557e-5
-1.092, 1.557e-5
-1.093, 1.557e-5
-1.094, 1.557e-5
-1.095, 1.557e-5
-1.096, 1.557e-5
-1.097, 1.557e-5
-1.098, 1.557e-5
-1.099, 1.557e-5
-1.100, 1.557e-5
-1.101, 1.557e-5
-1.102, 1.557e-5
-1.103, 1.557e-5
-1.104, 1.557e-5
-1.105, 1.557e-5
-1.106, 1.557e-5
-1.107, 1.557e-5
-1.108, 1.557e-5
-1.109, 1.557e-5
-1.110, 1.557e-5
-1.111, 1.557e-5
-1.112, 1.557e-5
-1.113, 1.557e-5
-1.114, 1.865e-5
-1.115, 1.557e-5
-1.116, 1.557e-5
-1.117, 1.557e-5
-1.118, 1.557e-5
-1.119, 1.865e-5
-1.120, 1.557e-5
-1.121, 1.557e-5
-1.122, 1.557e-5
-1.123, 1.557e-5
-1.124, 1.557e-5
-1.125, 1.865e-5
-1.126, 1.865e-5
-1.127, 1.865e-5
-1.128, 1.557e-5
-1.129, 1.557e-5
-1.130, 1.865e-5
-1.131, 1.557e-5
-1.132, 1.865e-5
-1.133, 1.865e-5
-1.134, 1.865e-5
-1.135, 1.865e-5
-1.136, 1.865e-5
-1.137, 1.865e-5
-1.138, 1.865e-5
-1.139, 1.865e-5
-1.140, 1.865e-5
-1.141, 1.865e-5
-1.142, 1.865e-5
-1.143, 1.865e-5
-1.144, 1.865e-5
-1.145, 1.865e-5
-1.146, 1.865e-5
-1.147, 1.865e-5
-1.148, 1.865e-5
-1.149, 1.865e-5
-1.150, 1.557e-5
-1.151, 1.865e-5
-1.152, 1.865e-5
-1.153, 1.865e-5
-1.154, 1.865e-5
-1.155, 1.865e-5
-1.156, 1.865e-5
-1.157, 1.865e-5
-1.158, 1.865e-5
-1.159, 1.865e-5
-1.160, 1.865e-5
-1.161, 1.865e-5
-1.162, 1.865e-5
-1.163, 1.865e-5
-1.164, 1.865e-5
-1.165, 1.865e-5
-1.166, 1.865e-5
-1.167, 1.865e-5
-1.168, 1.865e-5
-1.169, 1.865e-5
-1.170, 1.865e-5
-1.171, 1.865e-5
-1.172, 1.865e-5
-1.173, 1.865e-5
-1.174, 1.865e-5
-1.175, 1.865e-5
-1.176, 1.865e-5
-1.177, 1.865e-5
-1.178, 1.865e-5
-1.179, 1.865e-5
-1.180, 2.174e-5
-1.181, 2.174e-5
-1.182, 2.174e-5
-1.183, 1.865e-5
-1.184, 1.865e-5
-1.185, 2.174e-5
-1.186, 2.174e-5
-1.187, 1.865e-5
-1.188, 2.174e-5
-1.189, 2.174e-5
-1.190, 2.174e-5
-1.191, 2.174e-5
-1.192, 1.865e-5
-1.193, 2.174e-5
-1.194, 2.174e-5
-1.195, 1.865e-5
-1.196, 2.174e-5
-1.197, 2.174e-5
-1.198, 2.174e-5
-1.199, 2.174e-5
-1.200, 2.174e-5
-1.201, 2.174e-5
-1.202, 2.174e-5
-1.203, 2.174e-5
-1.204, 2.174e-5
-1.205, 2.174e-5
-1.206, 2.174e-5
-1.207, 2.174e-5
-1.208, 2.174e-5
-1.209, 2.174e-5
-1.210, 2.174e-5
-1.211, 2.174e-5
-1.212, 2.174e-5
-1.213, 2.174e-5
-1.214, 2.174e-5
-1.215, 2.174e-5
-1.216, 2.174e-5
-1.217, 2.174e-5
-1.218, 2.174e-5
-1.219, 2.174e-5
-1.220, 2.174e-5
-1.221, 2.174e-5
-1.222, 2.174e-5
-1.223, 2.174e-5
-1.224, 2.174e-5
-1.225, 2.174e-5
-1.226, 2.174e-5
-1.227, 2.174e-5
-1.228, 2.482e-5
-1.229, 2.174e-5
-1.230, 2.482e-5
-1.231, 2.482e-5
-1.232, 2.174e-5
-1.233, 2.482e-5
-1.234, 2.174e-5
-1.235, 2.174e-5
-1.236, 2.482e-5
-1.237, 2.174e-5
-1.238, 2.482e-5
-1.239, 2.482e-5
-1.240, 2.174e-5
-1.241, 2.174e-5
-1.242, 2.174e-5
-1.243, 2.482e-5
-1.244, 2.482e-5
-1.245, 2.174e-5
-1.246, 2.174e-5
-1.247, 2.482e-5
-1.248, 2.174e-5
-1.249, 2.482e-5
-1.250, 2.174e-5
-1.251, 2.482e-5
-1.252, 2.482e-5
-1.253, 2.482e-5
-1.254, 2.482e-5
-1.255, 2.482e-5
-1.256, 2.482e-5
-1.257, 2.482e-5
-1.258, 2.482e-5
-1.259, 2.482e-5
-1.260, 2.482e-5
-1.261, 2.482e-5
-1.262, 2.482e-5
-1.263, 2.482e-5
-1.264, 2.482e-5
-1.265, 2.482e-5
-1.266, 2.482e-5
-1.267, 2.482e-5
-1.268, 2.482e-5
-1.269, 2.482e-5
-1.270, 2.482e-5
-1.271, 2.482e-5
-1.272, 2.482e-5
-1.273, 2.790e-5
-1.274, 2.482e-5
-1.275, 2.482e-5
-1.276, 2.482e-5
-1.277, 2.482e-5
-1.278, 2.482e-5
-1.279, 2.790e-5
-1.280, 2.482e-5
-1.281, 2.790e-5
-1.282, 2.482e-5
-1.283, 2.482e-5
-1.284, 2.790e-5
-1.285, 2.482e-5
-1.286, 2.790e-5
-1.287, 2.482e-5
-1.288, 2.482e-5
-1.289, 2.790e-5
-1.290, 2.482e-5
-1.291, 2.790e-5
-1.292, 2.790e-5
-1.293, 2.790e-5
-1.294, 2.790e-5
-1.295, 2.790e-5
-1.296, 2.790e-5
-1.297, 2.790e-5
-1.298, 2.790e-5
-1.299, 2.790e-5
-1.300, 2.790e-5
-1.301, 2.790e-5
-1.302, 2.790e-5
-1.303, 2.790e-5
-1.304, 2.790e-5
-1.305, 2.790e-5
-1.306, 2.790e-5
-1.307, 2.790e-5
-1.308, 2.790e-5
-1.309, 2.790e-5
-1.310, 2.790e-5
-1.311, 2.790e-5
-1.312, 2.790e-5
-1.313, 2.790e-5
-1.314, 2.790e-5
-1.315, 3.099e-5
-1.316, 2.790e-5
-1.317, 2.790e-5
-1.318, 2.790e-5
-1.319, 2.790e-5
-1.320, 2.790e-5
-1.321, 2.790e-5
-1.322, 2.790e-5
-1.323, 3.099e-5
-1.324, 3.099e-5
-1.325, 2.790e-5
-1.326, 3.099e-5
-1.327, 3.099e-5
-1.328, 2.790e-5
-1.329, 3.099e-5
-1.330, 2.790e-5
-1.331, 3.099e-5
-1.332, 3.099e-5
-1.333, 3.099e-5
-1.334, 3.099e-5
-1.335, 3.099e-5
-1.336, 3.099e-5
-1.337, 3.099e-5
-1.338, 2.790e-5
-1.339, 3.099e-5
-1.340, 3.099e-5
-1.341, 3.099e-5
-1.342, 3.099e-5
-1.343, 3.099e-5
-1.344, 3.099e-5
-1.345, 3.099e-5
-1.346, 3.099e-5
-1.347, 3.099e-5
-1.348, 3.099e-5
-1.349, 3.099e-5
-1.350, 3.099e-5
-1.351, 3.099e-5
-1.352, 3.099e-5
-1.353, 3.099e-5
-1.354, 3.099e-5
-1.355, 3.099e-5
-1.356, 3.407e-5
-1.357, 3.099e-5
-1.358, 3.407e-5
-1.359, 3.099e-5
-1.360, 3.099e-5
-1.361, 3.407e-5
-1.362, 3.099e-5
-1.363, 3.407e-5
-1.364, 3.407e-5
-1.365, 3.407e-5
-1.366, 3.407e-5
-1.367, 3.407e-5
-1.368, 3.407e-5
-1.369, 3.407e-5
-1.370, 3.407e-5
-1.371, 3.407e-5
-1.372, 3.407e-5
-1.373, 3.407e-5
-1.374, 3.407e-5
-1.375, 3.407e-5
-1.376, 3.407e-5
-1.377, 3.715e-5
-1.378, 3.407e-5
-1.379, 3.715e-5
-1.380, 3.407e-5
-1.381, 3.407e-5
-1.382, 3.715e-5
-1.383, 3.407e-5
-1.384, 3.715e-5
-1.385, 3.715e-5
-1.386, 3.407e-5
-1.387, 3.715e-5
-1.388, 3.715e-5
-1.389, 3.715e-5
-1.390, 3.715e-5
-1.391, 3.715e-5
-1.392, 3.715e-5
-1.393, 3.715e-5
-1.394, 3.715e-5
-1.395, 3.715e-5
-1.396, 3.715e-5
-1.397, 3.715e-5
-1.398, 3.715e-5
-1.399, 3.715e-5
-1.400, 3.715e-5
-1.401, 4.024e-5
-1.402, 3.715e-5
-1.403, 4.024e-5
-1.404, 3.715e-5
-1.405, 3.715e-5
-1.406, 4.024e-5
-1.407, 4.024e-5
-1.408, 4.024e-5
-1.409, 4.024e-5
-1.410, 4.024e-5
-1.411, 4.024e-5
-1.412, 4.024e-5
-1.413, 4.024e-5
-1.414, 4.024e-5
-1.415, 4.024e-5
-1.416, 4.024e-5
-1.417, 4.024e-5
-1.418, 4.024e-5
-1.419, 4.332e-5
-1.420, 4.024e-5
-1.421, 4.024e-5
-1.422, 4.332e-5
-1.423, 4.332e-5
-1.424, 4.332e-5
-1.425, 4.332e-5
-1.426, 4.332e-5
-1.427, 4.332e-5
-1.428, 4.332e-5
-1.429, 4.332e-5
-1.430, 4.332e-5
-1.431, 4.332e-5
-1.432, 4.332e-5
-1.433, 4.640e-5
-1.434, 4.640e-5
-1.435, 4.640e-5
-1.436, 4.640e-5
-1.437, 4.640e-5
-1.438, 4.640e-5
-1.439, 4.640e-5
-1.440, 4.640e-5
-1.441, 4.640e-5
-1.442, 4.949e-5
-1.443, 4.949e-5
-1.444, 4.949e-5
-1.445, 4.949e-5
-1.446, 4.949e-5
-1.447, 4.949e-5
-1.448, 4.949e-5
-1.449, 4.949e-5
-1.450, 4.949e-5
-1.451, 5.257e-5
-1.452, 5.257e-5
-1.453, 5.257e-5
-1.454, 5.257e-5
-1.455, 5.257e-5
-1.456, 5.257e-5
-1.457, 5.257e-5
-1.458, 5.257e-5
-1.459, 5.565e-5
-1.460, 5.565e-5
-1.461, 5.565e-5
-1.462, 5.565e-5
-1.463, 5.565e-5
-1.464, 5.565e-5
-1.465, 5.565e-5
-1.466, 5.565e-5
-1.467, 5.873e-5
-1.468, 5.565e-5
-1.469, 5.873e-5
-1.470, 5.873e-5
-1.471, 5.873e-5
-1.472, 5.873e-5
-1.473, 6.182e-5
-1.474, 6.182e-5
-1.475, 6.182e-5
-1.476, 6.182e-5
-1.477, 6.182e-5
-1.478, 6.490e-5
-1.479, 6.182e-5
-1.480, 6.490e-5
-1.481, 6.490e-5
-1.482, 6.490e-5
-1.483, 6.490e-5
-1.484, 6.490e-5
-1.485, 6.798e-5
-1.486, 6.798e-5
-1.487, 6.798e-5
-1.488, 7.107e-5
-1.489, 7.107e-5
-1.490, 7.107e-5
-1.491, 7.107e-5
-1.492, 7.107e-5
-1.493, 7.415e-5
-1.494, 7.415e-5
-1.495, 7.415e-5
-1.496, 7.415e-5
-1.497, 7.723e-5
-1.498, 7.723e-5
-1.499, 7.723e-5
-1.500, 7.723e-5
-1.501, 8.032e-5
-1.502, 8.032e-5
-1.503, 8.032e-5
-1.504, 8.340e-5
-1.505, 8.340e-5
-1.506, 8.340e-5
-1.507, 8.648e-5
-1.508, 8.648e-5
-1.509, 8.648e-5
-1.510, 8.648e-5
-1.511, 8.957e-5
-1.512, 8.957e-5
-1.513, 8.957e-5
-1.514, 9.265e-5
-1.515, 9.265e-5
-1.516, 9.265e-5
-1.517, 9.573e-5
-1.518, 9.573e-5
-1.519, 9.573e-5
-1.520, 9.882e-5
-1.521, 9.882e-5
-1.522, 9.882e-5
-1.523, 1.019e-4
-1.524, 1.019e-4
-1.525, 1.050e-4
-1.526, 1.050e-4
-1.527, 1.081e-4
-1.528, 1.081e-4
-1.529, 1.081e-4
-1.530, 1.111e-4
-1.531, 1.111e-4
-1.532, 1.111e-4
-1.533, 1.142e-4
-1.534, 1.173e-4
-1.535, 1.173e-4
-1.536, 1.204e-4
-1.537, 1.204e-4
-1.538, 1.235e-4
-1.539, 1.235e-4
-1.540, 1.266e-4
-1.541, 1.266e-4
-1.542, 1.296e-4
-1.543, 1.296e-4
-1.544, 1.327e-4
-1.545, 1.327e-4
-1.546, 1.358e-4
-1.547, 1.389e-4
-1.548, 1.389e-4
-1.549, 1.420e-4
-1.550, 1.420e-4
-1.551, 1.451e-4
-1.552, 1.481e-4
-1.553, 1.481e-4
-1.554, 1.512e-4
-1.555, 1.512e-4
-1.556, 1.543e-4
-1.557, 1.574e-4
-1.558, 1.574e-4
-1.559, 1.605e-4
-1.560, 1.636e-4
-1.561, 1.666e-4
-1.562, 1.697e-4
-1.563, 1.697e-4
-1.564, 1.728e-4
-1.565, 1.759e-4
-1.566, 1.759e-4
-1.567, 1.790e-4
-1.568, 1.821e-4
-1.569, 1.851e-4
-1.570, 1.882e-4
-1.571, 1.913e-4
-1.572, 1.944e-4
-1.573, 1.975e-4
-1.574, 1.975e-4
-1.575, 2.006e-4
-1.576, 2.036e-4
-1.577, 2.067e-4
-1.578, 2.098e-4
-1.579, 2.129e-4
-1.580, 2.160e-4
-1.581, 2.191e-4
-1.582, 2.221e-4
-1.583, 2.252e-4
-1.584, 2.283e-4
-1.585, 2.314e-4
-1.586, 2.345e-4
-1.587, 2.376e-4
-1.588, 2.406e-4
-1.589, 2.468e-4
-1.590, 2.499e-4
-1.591, 2.530e-4
-1.592, 2.561e-4
-1.593, 2.591e-4
-1.594, 2.653e-4
-1.595, 2.684e-4
-1.596, 2.715e-4
-1.597, 2.776e-4
-1.598, 2.807e-4
-1.599, 2.838e-4
-1.600, 2.900e-4
-1.601, 2.900e-4
-1.602, 2.992e-4
-1.603, 3.023e-4
-1.604, 3.054e-4
-1.605, 3.115e-4
-1.606, 3.146e-4
-1.607, 3.208e-4
-1.608, 3.270e-4
-1.609, 3.300e-4
-1.610, 3.362e-4
-1.611, 3.424e-4
-1.612, 3.485e-4
-1.613, 3.516e-4
-1.614, 3.547e-4
-1.615, 3.640e-4
-1.616, 3.670e-4
-1.617, 3.732e-4
-1.618, 3.794e-4
-1.619, 3.855e-4
-1.620, 3.917e-4
-1.621, 3.979e-4
-1.622, 4.040e-4
-1.623, 4.102e-4
-1.624, 4.071e-4
-1.625, 4.071e-4
-1.626, 4.164e-4
-1.627, 4.225e-4
-1.628, 4.287e-4
-1.629, 4.349e-4
-1.630, 4.410e-4
-1.631, 4.503e-4
-1.632, 4.534e-4
-1.633, 4.626e-4
-1.634, 4.688e-4
-1.635, 4.750e-4
-1.636, 4.811e-4
-1.637, 4.873e-4
-1.638, 4.935e-4
-1.639, 5.027e-4
-1.640, 5.089e-4
-1.641, 5.150e-4
-1.642, 5.243e-4
-1.643, 5.335e-4
-1.644, 5.397e-4
-1.645, 5.489e-4
-1.646, 5.551e-4
-1.647, 5.674e-4
-1.648, 5.736e-4
-1.649, 5.829e-4
-1.650, 5.921e-4
-1.651, 5.983e-4
-1.652, 5.921e-4
-1.653, 5.983e-4
-1.654, 6.106e-4
-1.655, 6.168e-4
-1.656, 6.260e-4
-1.657, 6.322e-4
-1.658, 6.414e-4
-1.659, 6.507e-4
-1.660, 6.630e-4
-1.661, 6.723e-4
-1.662, 6.815e-4
-1.663, 6.908e-4
-1.664, 7.000e-4
-1.665, 7.124e-4
-1.666, 7.216e-4
-1.667, 7.309e-4
-1.668, 7.401e-4
-1.669, 7.555e-4
-1.670, 7.648e-4
-1.671, 7.586e-4
-1.672, 7.709e-4
-1.673, 7.802e-4
-1.674, 7.925e-4
-1.675, 8.018e-4
-1.676, 8.141e-4
-1.677, 8.295e-4
-1.678, 8.388e-4
-1.679, 8.511e-4
-1.680, 8.665e-4
-1.681, 8.788e-4
-1.682, 8.943e-4
-1.683, 9.097e-4
-1.684, 9.220e-4
-1.685, 9.374e-4
-1.686, 9.282e-4
-1.687, 9.467e-4
-1.688, 9.559e-4
-1.689, 9.713e-4
-1.690, 9.837e-4
-1.691, 9.991e-4
-1.692, 1.014e-3
-1.693, 1.027e-3
-1.694, 1.048e-3
-1.695, 1.064e-3
-1.696, 1.082e-3
-1.697, 1.104e-3
-1.698, 1.095e-3
-1.699, 1.107e-3
-1.700, 1.122e-3
-1.701, 1.141e-3
-1.702, 1.159e-3
-1.703, 1.178e-3
-1.704, 1.196e-3
-1.705, 1.212e-3
-1.706, 1.230e-3
-1.707, 1.249e-3
-1.708, 1.255e-3
-1.709, 1.261e-3
-1.710, 1.283e-3
-1.711, 1.307e-3
-1.712, 1.326e-3
-1.713, 1.351e-3
-1.714, 1.369e-3
-1.715, 1.388e-3
-1.716, 1.400e-3
-1.717, 1.397e-3
-1.718, 1.421e-3
-1.719, 1.443e-3
-1.720, 1.458e-3
-1.721, 1.486e-3
-1.722, 1.517e-3
-1.723, 1.542e-3
-1.724, 1.536e-3
-1.725, 1.557e-3
-1.726, 1.585e-3
-1.727, 1.610e-3
-1.728, 1.637e-3
-1.729, 1.674e-3
-1.730, 1.711e-3
-1.731, 1.708e-3
-1.732, 1.724e-3
-1.733, 1.748e-3
-1.734, 1.773e-3
-1.735, 1.816e-3
-1.736, 1.853e-3
-1.737, 1.878e-3
-1.738, 1.884e-3
-1.739, 1.915e-3
-1.740, 1.946e-3
-1.741, 1.983e-3
-1.742, 2.013e-3
-1.743, 2.029e-3
-1.744, 2.047e-3
-1.745, 2.078e-3
-1.746, 2.109e-3
-1.747, 2.155e-3
-1.748, 2.186e-3
-1.749, 2.192e-3
-1.750, 2.235e-3
-1.751, 2.279e-3
-1.752, 2.322e-3
-1.753, 2.353e-3
-1.754, 2.374e-3
-1.755, 2.414e-3
-1.756, 2.451e-3
-1.757, 2.501e-3
-1.758, 2.504e-3
-1.759, 2.547e-3
-1.760, 2.590e-3
-1.761, 2.639e-3
-1.762, 2.670e-3
-1.763, 2.704e-3
-1.764, 2.753e-3
-1.765, 2.803e-3
-1.766, 2.830e-3
-1.767, 2.852e-3
-1.768, 2.901e-3
-1.769, 2.954e-3
-1.770, 2.985e-3
-1.771, 3.015e-3
-1.772, 3.052e-3
-1.773, 3.102e-3
-1.774, 3.111e-3
-1.775, 3.160e-3
-1.776, 3.219e-3
-1.777, 3.256e-3
-1.778, 3.284e-3
-1.779, 3.345e-3
-1.780, 3.401e-3
-1.781, 3.422e-3
-1.782, 3.481e-3
-1.783, 3.540e-3
-1.784, 3.555e-3
-1.785, 3.604e-3
-1.786, 3.669e-3
-1.787, 3.678e-3
-1.788, 3.737e-3
-1.789, 3.805e-3
-1.790, 3.823e-3
-1.791, 3.891e-3
-1.792, 3.934e-3
-1.793, 3.953e-3
-1.794, 4.017e-3
-1.795, 4.073e-3
-1.796, 4.104e-3
-1.797, 4.172e-3
-1.798, 4.218e-3
-1.799, 4.249e-3
-1.800, 4.289e-3
-1.799, 4.246e-3
-1.798, 4.218e-3
-1.797, 4.193e-3
-1.796, 4.141e-3
-1.795, 4.125e-3
-1.794, 4.079e-3
-1.793, 4.045e-3
-1.792, 4.017e-3
-1.791, 3.962e-3
-1.790, 3.931e-3
-1.789, 3.897e-3
-1.788, 3.857e-3
-1.787, 3.842e-3
-1.786, 3.786e-3
-1.785, 3.752e-3
-1.784, 3.697e-3
-1.783, 3.651e-3
-1.782, 3.626e-3
-1.781, 3.592e-3
-1.780, 3.555e-3
-1.779, 3.540e-3
-1.778, 3.487e-3
-1.777, 3.456e-3
-1.776, 3.432e-3
-1.775, 3.385e-3
-1.774, 3.367e-3
-1.773, 3.330e-3
-1.772, 3.293e-3
-1.771, 3.274e-3
-1.770, 3.225e-3
-1.769, 3.210e-3
-1.768, 3.185e-3
-1.767, 3.130e-3
-1.766, 3.105e-3
-1.765, 3.089e-3
-1.764, 3.046e-3
-1.763, 3.028e-3
-1.762, 2.994e-3
-1.761, 2.969e-3
-1.760, 2.945e-3
-1.759, 2.892e-3
-1.758, 2.867e-3
-1.757, 2.858e-3
-1.756, 2.812e-3
-1.755, 2.790e-3
-1.754, 2.781e-3
-1.753, 2.726e-3
-1.752, 2.707e-3
-1.751, 2.689e-3
-1.750, 2.642e-3
-1.749, 2.621e-3
-1.748, 2.615e-3
-1.747, 2.565e-3
-1.746, 2.550e-3
-1.745, 2.534e-3
-1.744, 2.479e-3
-1.743, 2.460e-3
-1.742, 2.442e-3
-1.741, 2.399e-3
-1.740, 2.377e-3
-1.739, 2.362e-3
-1.738, 2.328e-3
-1.737, 2.300e-3
-1.736, 2.285e-3
-1.735, 2.251e-3
-1.734, 2.201e-3
-1.733, 2.180e-3
-1.732, 2.177e-3
-1.731, 2.128e-3
-1.730, 2.109e-3
-1.729, 2.103e-3
-1.728, 2.069e-3
-1.727, 2.044e-3
-1.726, 2.032e-3
-1.725, 2.017e-3
-1.724, 1.973e-3
-1.723, 1.946e-3
-1.722, 1.936e-3
-1.721, 1.902e-3
-1.720, 1.878e-3
-1.719, 1.872e-3
-1.718, 1.865e-3
-1.717, 1.816e-3
-1.716, 1.801e-3
-1.715, 1.791e-3
-1.714, 1.770e-3
-1.713, 1.733e-3
-1.712, 1.714e-3
-1.711, 1.711e-3
-1.710, 1.674e-3
-1.709, 1.650e-3
-1.708, 1.640e-3
-1.707, 1.631e-3
-1.706, 1.597e-3
-1.705, 1.579e-3
-1.704, 1.566e-3
-1.703, 1.566e-3
-1.702, 1.520e-3
-1.701, 1.499e-3
-1.700, 1.489e-3
-1.699, 1.474e-3
-1.698, 1.452e-3
-1.697, 1.428e-3
-1.696, 1.418e-3
-1.695, 1.418e-3
-1.694, 1.394e-3
-1.693, 1.366e-3
-1.692, 1.354e-3
-1.691, 1.341e-3
-1.690, 1.329e-3
-1.689, 1.289e-3
-1.688, 1.280e-3
-1.687, 1.267e-3
-1.686, 1.261e-3
-1.685, 1.236e-3
-1.684, 1.218e-3
-1.683, 1.203e-3
-1.682, 1.196e-3
-1.681, 1.190e-3
-1.680, 1.156e-3
-1.679, 1.150e-3
-1.678, 1.138e-3
-1.677, 1.129e-3
-1.676, 1.116e-3
-1.675, 1.082e-3
-1.674, 1.073e-3
-1.673, 1.067e-3
-1.672, 1.055e-3
-1.671, 1.048e-3
-1.670, 1.014e-3
-1.669, 1.008e-3
-1.668, 9.929e-4
-1.667, 9.806e-4
-1.666, 9.683e-4
-1.665, 9.498e-4
-1.664, 9.343e-4
-1.663, 9.158e-4
-1.662, 9.066e-4
-1.661, 9.004e-4
-1.660, 8.973e-4
-1.659, 8.665e-4
-1.658, 8.603e-4
-1.657, 8.542e-4
-1.656, 8.449e-4
-1.655, 8.388e-4
-1.654, 8.264e-4
-1.653, 8.018e-4
-1.652, 7.925e-4
-1.651, 7.863e-4
-1.650, 7.771e-4
-1.649, 7.679e-4
-1.648, 7.617e-4
-1.647, 7.339e-4
-1.646, 7.278e-4
-1.645, 7.185e-4
-1.644, 7.093e-4
-1.643, 7.093e-4
-1.642, 6.969e-4
-1.641, 6.846e-4
-1.640, 6.661e-4
-1.639, 6.569e-4
-1.638, 6.538e-4
-1.637, 6.445e-4
-1.636, 6.414e-4
-1.635, 6.353e-4
-1.634, 6.168e-4
-1.633, 6.044e-4
-1.632, 5.983e-4
-1.631, 5.921e-4
-1.630, 5.859e-4
-1.629, 5.767e-4
-1.628, 5.736e-4
-1.627, 5.613e-4
-1.626, 5.459e-4
-1.625, 5.397e-4
-1.624, 5.335e-4
-1.623, 5.274e-4
-1.622, 5.212e-4
-1.621, 5.150e-4
-1.620, 5.120e-4
-1.619, 4.904e-4
-1.618, 4.873e-4
-1.617, 4.811e-4
-1.616, 4.719e-4
-1.615, 4.688e-4
-1.614, 4.657e-4
-1.613, 4.565e-4
-1.612, 4.534e-4
-1.611, 4.349e-4
-1.610, 4.287e-4
-1.609, 4.256e-4
-1.608, 4.164e-4
-1.607, 4.133e-4
-1.606, 4.071e-4
-1.605, 4.010e-4
-1.604, 3.979e-4
-1.603, 3.886e-4
-1.602, 3.763e-4
-1.601, 3.732e-4
-1.600, 3.670e-4
-1.599, 3.640e-4
-1.598, 3.609e-4
-1.597, 3.547e-4
-1.596, 3.516e-4
-1.595, 3.455e-4
-1.594, 3.424e-4
-1.593, 3.270e-4
-1.592, 3.208e-4
-1.591, 3.177e-4
-1.590, 3.146e-4
-1.589, 3.085e-4
-1.588, 3.054e-4
-1.587, 3.023e-4
-1.586, 2.992e-4
-1.585, 2.931e-4
-1.584, 2.869e-4
-1.583, 2.776e-4
-1.582, 2.746e-4
-1.581, 2.715e-4
-1.580, 2.684e-4
-1.579, 2.622e-4
-1.578, 2.591e-4
-1.577, 2.561e-4
-1.576, 2.530e-4
-1.575, 2.499e-4
-1.574, 2.437e-4
-1.573, 2.345e-4
-1.572, 2.314e-4
-1.571, 2.283e-4
-1.570, 2.252e-4
-1.569, 2.221e-4
-1.568, 2.191e-4
-1.567, 2.160e-4
-1.566, 2.129e-4
-1.565, 2.098e-4
-1.564, 2.067e-4
-1.563, 2.036e-4
-1.562, 2.006e-4
-1.561, 1.913e-4
-1.560, 1.882e-4
-1.559, 1.851e-4
-1.558, 1.821e-4
-1.557, 1.790e-4
-1.556, 1.790e-4
-1.555, 1.728e-4
-1.554, 1.728e-4
-1.553, 1.697e-4
-1.552, 1.666e-4
-1.551, 1.636e-4
-1.550, 1.605e-4
-1.549, 1.543e-4
-1.548, 1.512e-4
-1.547, 1.481e-4
-1.546, 1.481e-4
-1.545, 1.451e-4
-1.544, 1.420e-4
-1.543, 1.389e-4
-1.542, 1.358e-4
-1.541, 1.327e-4
-1.540, 1.358e-4
-1.539, 1.327e-4
-1.538, 1.296e-4
-1.537, 1.235e-4
-1.536, 1.235e-4
-1.535, 1.204e-4
-1.534, 1.173e-4
-1.533, 1.142e-4
-1.532, 1.142e-4
-1.531, 1.111e-4
-1.530, 1.111e-4
-1.529, 1.081e-4
-1.528, 1.050e-4
-1.527, 1.050e-4
-1.526, 1.019e-4
-1.525, 1.019e-4
-1.524, 9.573e-5
-1.523, 9.573e-5
-1.522, 9.573e-5
-1.521, 9.265e-5
-1.520, 8.648e-5
-1.519, 8.648e-5
-1.518, 8.648e-5
-1.517, 8.340e-5
-1.516, 8.340e-5
-1.515, 8.032e-5
-1.514, 8.032e-5
-1.513, 7.723e-5
-1.512, 7.723e-5
-1.511, 7.723e-5
-1.510, 7.415e-5
-1.509, 7.107e-5
-1.508, 7.107e-5
-1.507, 6.798e-5
-1.506, 6.798e-5
-1.505, 6.798e-5
-1.504, 6.490e-5
-1.503, 6.182e-5
-1.502, 6.182e-5
-1.501, 5.873e-5
-1.500, 5.873e-5
-1.499, 5.565e-5
-1.498, 5.873e-5
-1.497, 5.565e-5
-1.496, 5.257e-5
-1.495, 5.257e-5
-1.494, 5.257e-5
-1.493, 5.257e-5
-1.492, 4.949e-5
-1.491, 4.640e-5
-1.490, 4.949e-5
-1.489, 4.640e-5
-1.488, 4.640e-5
-1.487, 4.332e-5
-1.486, 4.332e-5
-1.485, 4.024e-5
-1.484, 4.024e-5
-1.483, 4.024e-5
-1.482, 4.024e-5
-1.481, 3.715e-5
-1.480, 3.715e-5
-1.479, 3.715e-5
-1.478, 3.407e-5
-1.477, 3.407e-5
-1.476, 3.407e-5
-1.475, 3.099e-5
-1.474, 3.407e-5
-1.473, 3.099e-5
-1.472, 3.099e-5
-1.471, 3.099e-5
-1.470, 2.790e-5
-1.469, 2.790e-5
-1.468, 2.790e-5
-1.467, 2.482e-5
-1.466, 2.482e-5
-1.465, 2.482e-5
-1.464, 2.174e-5
-1.463, 2.482e-5
-1.462, 2.174e-5
-1.461, 2.174e-5
-1.460, 2.174e-5
-1.459, 1.865e-5
-1.458, 2.174e-5
-1.457, 1.865e-5
-1.456, 1.865e-5
-1.455, 1.865e-5
-1.454, 1.557e-5
-1.453, 1.865e-5
-1.452, 1.865e-5
-1.451, 1.557e-5
-1.450, 1.557e-5
-1.449, 1.249e-5
-1.448, 1.249e-5
-1.447, 1.249e-5
-1.446, 1.249e-5
-1.445, 1.249e-5
-1.444, 1.249e-5
-1.443, 1.249e-5
-1.442, 1.249e-5
-1.441, 9.405e-6
-1.440, 9.405e-6
-1.439, 9.405e-6
-1.438, 9.405e-6
-1.437, 9.405e-6
-1.436, 9.405e-6
-1.435, 6.322e-6
-1.434, 6.322e-6
-1.433, 6.322e-6
-1.432, 6.322e-6
-1.431, 6.322e-6
-1.430, 6.322e-6
-1.429, 6.322e-6
-1.428, 3.239e-6
-1.427, 3.239e-6
-1.426, 3.239e-6
-1.425, 3.239e-6
-1.424, 3.239e-6
-1.423, 3.239e-6
-1.422, 3.239e-6
-1.421, 3.239e-6
-1.420, 3.239e-6
-1.419, 1.559e-7
-1.418, 1.559e-7
-1.417, 1.559e-7
-1.416, 1.559e-7
-1.415, 1.559e-7
-1.414, -2.927e-6
-1.413, 1.559e-7
-1.412, 1.559e-7
-1.411, -2.927e-6
-1.410, 1.559e-7
-1.409, -2.927e-6
-1.408, -2.927e-6
-1.407, 1.559e-7
-1.406, -2.927e-6
-1.405, -2.927e-6
-1.404, -2.927e-6
-1.403, -2.927e-6
-1.402, -2.927e-6
-1.401, -2.927e-6
-1.400, -2.927e-6
-1.399, -2.927e-6
-1.398, -6.010e-6
-1.397, -6.010e-6
-1.396, -6.010e-6
-1.395, -6.010e-6
-1.394, -2.927e-6
-1.393, -6.010e-6
-1.392, -6.010e-6
-1.391, -6.010e-6
-1.390, -6.010e-6
-1.389, -6.010e-6
-1.388, -6.010e-6
-1.387, -6.010e-6
-1.386, -6.010e-6
-1.385, -6.010e-6
-1.384, -6.010e-6
-1.383, -6.010e-6
-1.382, -9.093e-6
-1.381, -6.010e-6
-1.380, -9.093e-6
-1.379, -9.093e-6
-1.378, -9.093e-6
-1.377, -9.093e-6
-1.376, -9.093e-6
-1.375, -9.093e-6
-1.374, -9.093e-6
-1.373, -9.093e-6
-1.372, -9.093e-6
-1.371, -9.093e-6
-1.370, -9.093e-6
-1.369, -9.093e-6
-1.368, -9.093e-6
-1.367, -9.093e-6
-1.366, -9.093e-6
-1.365, -9.093e-6
-1.364, -9.093e-6
-1.363, -1.218e-5
-1.362, -9.093e-6
-1.361, -9.093e-6
-1.360, -9.093e-6
-1.359, -9.093e-6
-1.358, -1.218e-5
-1.357, -9.093e-6
-1.356, -9.093e-6
-1.355, -1.218e-5
-1.354, -1.218e-5
-1.353, -9.093e-6
-1.352, -1.218e-5
-1.351, -9.093e-6
-1.350, -1.218e-5
-1.349, -9.093e-6
-1.348, -1.218e-5
-1.347, -1.218e-5
-1.346, -1.218e-5
-1.345, -1.218e-5
-1.344, -1.218e-5
-1.343, -1.218e-5
-1.342, -1.218e-5
-1.341, -1.218e-5
-1.340, -1.218e-5
-1.339, -1.218e-5
-1.338, -1.218e-5
-1.337, -1.218e-5
-1.336, -1.218e-5
-1.335, -1.218e-5
-1.334, -1.218e-5
-1.333, -1.218e-5
-1.332, -1.218e-5
-1.331, -1.526e-5
-1.330, -1.218e-5
-1.329, -1.218e-5
-1.328, -1.218e-5
-1.327, -1.218e-5
-1.326, -1.218e-5
-1.325, -1.218e-5
-1.324, -1.218e-5
-1.323, -1.218e-5
-1.322, -1.218e-5
-1.321, -1.526e-5
-1.320, -1.218e-5
-1.319, -1.218e-5
-1.318, -1.218e-5
-1.317, -1.218e-5
-1.316, -1.526e-5
-1.315, -1.526e-5
-1.314, -1.218e-5
-1.313, -1.526e-5
-1.312, -1.218e-5
-1.311, -1.218e-5
-1.310, -1.526e-5
-1.309, -1.526e-5
-1.308, -1.526e-5
-1.307, -1.526e-5
-1.306, -1.218e-5
-1.305, -1.526e-5
-1.304, -1.526e-5
-1.303, -1.526e-5
-1.302, -1.526e-5
-1.301, -1.526e-5
-1.300, -1.526e-5
-1.299, -1.526e-5
-1.298, -1.218e-5
-1.297, -1.526e-5
-1.296, -1.526e-5
-1.295, -1.526e-5
-1.294, -1.526e-5
-1.293, -1.526e-5
-1.292, -1.526e-5
-1.291, -1.526e-5
-1.290, -1.526e-5
-1.289, -1.526e-5
-1.288, -1.526e-5
-1.287, -1.526e-5
-1.286, -1.834e-5
-1.285, -1.526e-5
-1.284, -1.526e-5
-1.283, -1.526e-5
-1.282, -1.526e-5
-1.281, -1.526e-5
-1.280, -1.526e-5
-1.279, -1.526e-5
-1.278, -1.526e-5
-1.277, -1.526e-5
-1.276, -1.526e-5
-1.275, -1.526e-5
-1.274, -1.526e-5
-1.273, -1.526e-5
-1.272, -1.834e-5
-1.271, -1.526e-5
-1.270, -1.834e-5
-1.269, -1.526e-5
-1.268, -1.526e-5
-1.267, -1.834e-5
-1.266, -1.526e-5
-1.265, -1.526e-5
-1.264, -1.526e-5
-1.263, -1.834e-5
-1.262, -1.834e-5
-1.261, -1.526e-5
-1.260, -1.526e-5
-1.259, -1.834e-5
-1.258, -1.526e-5
-1.257, -1.834e-5
-1.256, -1.526e-5
-1.255, -1.834e-5
-1.254, -1.834e-5
-1.253, -1.834e-5
-1.252, -1.834e-5
-1.251, -1.834e-5
-1.250, -1.834e-5
-1.249, -1.834e-5
-1.248, -1.834e-5
-1.247, -1.834e-5
-1.246, -1.834e-5
-1.245, -1.834e-5
-1.244, -1.834e-5
-1.243, -1.834e-5
-1.242, -1.834e-5
-1.241, -1.834e-5
-1.240, -1.834e-5
-1.239, -1.834e-5
-1.238, -1.834e-5
-1.237, -1.834e-5
-1.236, -1.834e-5
-1.235, -1.834e-5
-1.234, -1.834e-5
-1.233, -1.834e-5
-1.232, -1.834e-5
-1.231, -1.834e-5
-1.230, -1.834e-5
-1.229, -1.834e-5
-1.228, -1.834e-5
-1.227, -1.834e-5
-1.226, -1.834e-5
-1.225, -2.143e-5
-1.224, -1.834e-5
-1.223, -1.834e-5
-1.222, -2.143e-5
-1.221, -1.834e-5
-1.220, -1.834e-5
-1.219, -1.834e-5
-1.218, -1.834e-5
-1.217, -2.143e-5
-1.216, -1.834e-5
-1.215, -1.834e-5
-1.214, -2.143e-5
-1.213, -1.834e-5
-1.212, -1.834e-5
-1.211, -1.834e-5
-1.210, -1.834e-5
-1.209, -1.834e-5
-1.208, -2.143e-5
-1.207, -2.143e-5
-1.206, -2.143e-5
-1.205, -1.834e-5
-1.204, -2.143e-5
-1.203, -1.834e-5
-1.202, -1.834e-5
-1.201, -2.143e-5
-1.200, -2.143e-5
-1.199, -2.143e-5
-1.198, -1.834e-5
-1.197, -1.834e-5
-1.196, -1.834e-5
-1.195, -2.143e-5
-1.194, -1.834e-5
-1.193, -2.143e-5
-1.192, -1.834e-5
-1.191, -2.143e-5
-1.190, -2.143e-5
-1.189, -1.834e-5
-1.188, -2.143e-5
-1.187, -2.143e-5
-1.186, -1.834e-5
-1.185, -2.143e-5
-1.184, -2.143e-5
-1.183, -2.143e-5
-1.182, -2.143e-5
-1.181, -2.143e-5
-1.180, -2.143e-5
-1.179, -2.143e-5
-1.178, -2.143e-5
-1.177, -2.143e-5
-1.176, -2.143e-5
-1.175, -2.143e-5
-1.174, -2.143e-5
-1.173, -1.834e-5
-1.172, -2.143e-5
-1.171, -2.143e-5
-1.170, -2.143e-5
-1.169, -2.143e-5
-1.168, -2.143e-5
-1.167, -2.143e-5
-1.166, -2.143e-5
-1.165, -2.143e-5
-1.164, -2.143e-5
-1.163, -2.143e-5
-1.162, -2.143e-5
-1.161, -2.143e-5
-1.160, -2.143e-5
-1.159, -2.143e-5
-1.158, -2.143e-5
-1.157, -2.143e-5
-1.156, -2.143e-5
-1.155, -2.143e-5
-1.154, -2.143e-5
-1.153, -2.451e-5
-1.152, -2.143e-5
-1.151, -2.143e-5
-1.150, -2.143e-5
-1.149, -2.143e-5
-1.148, -2.143e-5
-1.147, -2.143e-5
-1.146, -2.143e-5
-1.145, -2.451e-5
-1.144, -2.143e-5
-1.143, -2.143e-5
-1.142, -2.143e-5
-1.141, -2.143e-5
-1.140, -2.143e-5
-1.139, -2.451e-5
-1.138, -2.451e-5
-1.137, -2.451e-5
-1.136, -2.143e-5
-1.135, -2.451e-5
-1.134, -2.451e-5
-1.133, -2.451e-5
-1.132, -2.451e-5
-1.131, -2.451e-5
-1.130, -2.451e-5
-1.129, -2.451e-5
-1.128, -2.143e-5
-1.127, -2.451e-5
-1.126, -2.451e-5
-1.125, -2.143e-5
-1.124, -2.451e-5
-1.123, -2.451e-5
-1.122, -2.451e-5
-1.121, -2.451e-5
-1.120, -2.143e-5
-1.119, -2.451e-5
-1.118, -2.451e-5
-1.117, -2.451e-5
-1.116, -2.451e-5
-1.115, -2.451e-5
-1.114, -2.451e-5
-1.113, -2.451e-5
-1.112, -2.451e-5
-1.111, -2.451e-5
-1.110, -2.451e-5
-1.109, -2.451e-5
-1.108, -2.451e-5
-1.107, -2.451e-5
-1.106, -2.451e-5
-1.105, -2.451e-5
-1.104, -2.451e-5
-1.103, -2.451e-5
-1.102, -2.451e-5
-1.101, -2.451e-5
-1.100, -2.451e-5
-1.099, -2.451e-5
-1.098, -2.451e-5
-1.097, -2.451e-5
-1.096, -2.451e-5
-1.095, -2.451e-5
-1.094, -2.451e-5
-1.093, -2.451e-5
-1.092, -2.451e-5
-1.091, -2.451e-5
-1.090, -2.451e-5
-1.089, -2.759e-5
-1.088, -2.451e-5
-1.087, -2.451e-5
-1.086, -2.451e-5
-1.085, -2.451e-5
-1.084, -2.759e-5
-1.083, -2.451e-5
-1.082, -2.451e-5
-1.081, -2.759e-5
-1.080, -2.451e-5
-1.079, -2.759e-5
-1.078, -2.451e-5
-1.077, -2.451e-5
-1.076, -2.759e-5
-1.075, -2.759e-5
-1.074, -2.451e-5
-1.073, -2.759e-5
-1.072, -2.759e-5
-1.071, -2.759e-5
-1.070, -2.759e-5
-1.069, -2.759e-5
-1.068, -2.759e-5
-1.067, -2.759e-5
-1.066, -2.759e-5
-1.065, -2.759e-5
-1.064, -2.451e-5
-1.063, -2.759e-5
-1.062, -2.759e-5
-1.061, -2.759e-5
-1.060, -2.759e-5
-1.059, -2.759e-5
-1.058, -2.759e-5
-1.057, -2.759e-5
-1.056, -2.759e-5
-1.055, -2.759e-5
-1.054, -2.759e-5
-1.053, -2.759e-5
-1.052, -2.759e-5
-1.051, -2.759e-5
-1.050, -2.759e-5
-1.049, -2.759e-5
-1.048, -2.759e-5
-1.047, -3.068e-5
-1.046, -2.759e-5
-1.045, -2.759e-5
-1.044, -3.068e-5
-1.043, -2.759e-5
-1.042, -3.068e-5
-1.041, -2.759e-5
-1.040, -2.759e-5
-1.039, -3.068e-5
-1.038, -2.759e-5
-1.037, -2.759e-5
-1.036, -3.068e-5
-1.035, -3.068e-5
-1.034, -3.068e-5
-1.033, -3.068e-5
-1.032, -2.759e-5
-1.031, -3.068e-5
-1.030, -3.068e-5
-1.029, -3.068e-5
-1.028, -3.068e-5
-1.027, -3.068e-5
-1.026, -3.068e-5
-1.025, -3.068e-5
-1.024, -3.068e-5
-1.023, -3.068e-5
-1.022, -3.068e-5
-1.021, -3.068e-5
-1.020, -3.068e-5
-1.019, -3.068e-5
-1.018, -3.068e-5
-1.017, -3.068e-5
-1.016, -3.068e-5
-1.015, -3.068e-5
-1.014, -3.068e-5
-1.013, -3.068e-5
-1.012, -3.376e-5
-1.011, -3.068e-5
-1.010, -3.068e-5
-1.009, -3.376e-5
-1.008, -3.068e-5
-1.007, -3.376e-5
-1.006, -3.068e-5
-1.005, -3.376e-5
-1.004, -3.376e-5
-1.003, -3.376e-5
-1.002, -3.376e-5
-1.001, -3.376e-5
