Potential V vs RHE, Current mA cm-2
0.013299999999999867,-0.1330535977523067
0.012299999999999978,-0.7001406223032067
0.011299999999999866,-1.0925815368857679
0.010299999999999976,-1.3980177065266295
0.009299999999999864,-1.5717442541500557
0.008299999999999974,-1.6594563547416883
0.007299999999999862,-1.7471684553333202
0.006299999999999972,-1.8334658446250875
0.00529999999999986,-1.92117794521672
0.0042999999999999705,-2.052746096104168
0.0032999999999998586,-2.1390434853959355
0.0022999999999999687,-2.1828995356917518
0.0012999999999998568,-2.1828995356917518
0.00029999999999996696,-2.1828995356917518
-0.000700000000000145,-2.1828995356917518
-0.0017000000000000348,-2.2706116362833835
-0.0027000000000001467,-2.3569090255751513
-0.0037000000000000366,-2.4007650758709675
-0.0047000000000001485,-2.4007650758709675
-0.005700000000000038,-2.3569090255751513
-0.00670000000000015,-2.3569090255751513
-0.00770000000000004,-2.3569090255751513
-0.008700000000000152,-2.4446211261667834
-0.009700000000000042,-2.4884771764625997
-0.010700000000000154,-2.532333226758415
-0.011700000000000044,-2.4884771764625997
-0.012700000000000156,-2.4446211261667834
-0.013700000000000045,-2.4446211261667834
-0.014700000000000157,-2.4884771764625997
-0.015700000000000047,-2.576189277054232
-0.01670000000000016,-2.618630616050183
-0.01770000000000005,-2.618630616050183
-0.01870000000000016,-2.576189277054232
-0.01970000000000005,-2.532333226758415
-0.020700000000000163,-2.576189277054232
-0.021700000000000053,-2.618630616050183
-0.022700000000000164,-2.662486666345999
-0.023700000000000054,-2.706342716641815
-0.024700000000000166,-2.662486666345999
-0.025700000000000056,-2.662486666345999
-0.026700000000000168,-2.618630616050183
-0.027700000000000058,-2.618630616050183
-0.02870000000000017,-2.662486666345999
-0.02970000000000006,-2.7501987669376318
-0.03070000000000017,-2.7501987669376318
-0.03170000000000006,-2.706342716641815
-0.03270000000000017,-2.662486666345999
-0.03370000000000006,-2.662486666345999
-0.034700000000000175,-2.706342716641815
-0.035700000000000065,-2.7501987669376318
-0.03670000000000018,-2.794054817233447
-0.03770000000000007,-2.7501987669376318
-0.03870000000000018,-2.7501987669376318
-0.03970000000000007,-2.706342716641815
-0.04070000000000018,-2.706342716641815
-0.04170000000000007,-2.7501987669376318
-0.04270000000000018,-2.794054817233447
-0.04370000000000007,-2.8379108675292635
-0.044700000000000184,-2.8379108675292635
-0.045700000000000074,-2.7501987669376318
-0.046700000000000186,-2.7501987669376318
-0.047700000000000076,-2.7501987669376318
-0.04870000000000019,-2.794054817233447
-0.04970000000000008,-2.8803522065252145
-0.05070000000000019,-2.8379108675292635
-0.05170000000000008,-2.8379108675292635
-0.05270000000000019,-2.794054817233447
-0.05370000000000008,-2.794054817233447
-0.05470000000000019,-2.794054817233447
-0.05570000000000008,-2.8803522065252145
-0.056700000000000195,-2.8803522065252145
-0.057700000000000085,-2.8803522065252145
-0.058700000000000196,-2.8379108675292635
-0.059700000000000086,-2.794054817233447
-0.0607000000000002,-2.8379108675292635
-0.06170000000000009,-2.8803522065252145
-0.0627000000000002,-2.924208256821031
-0.06370000000000009,-2.968064307116847
-0.0647000000000002,-2.924208256821031
-0.06570000000000009,-2.8803522065252145
-0.0667000000000002,-2.8379108675292635
-0.0677000000000001,-2.8379108675292635
-0.0687000000000002,-2.924208256821031
-0.0697000000000001,-2.968064307116847
-0.07070000000000021,-2.968064307116847
-0.0717000000000001,-2.924208256821031
-0.07270000000000021,-2.8803522065252145
-0.0737000000000001,-2.8803522065252145
-0.07470000000000021,-2.8803522065252145
-0.0757000000000001,-2.968064307116847
-0.07670000000000021,-2.968064307116847
-0.0777000000000001,-2.968064307116847
-0.07870000000000021,-2.924208256821031
-0.0797000000000001,-2.8803522065252145
-0.08070000000000022,-2.8803522065252145
-0.0817000000000001,-2.968064307116847
-0.08270000000000022,-3.0119203574126634
-0.08370000000000011,-3.0119203574126634
-0.08470000000000022,-3.0119203574126634
-0.08570000000000011,-2.924208256821031
-0.08670000000000022,-2.924208256821031
-0.08770000000000011,-2.924208256821031
-0.08870000000000022,-2.968064307116847
-0.08970000000000011,-3.0119203574126634
-0.09070000000000022,-3.0119203574126634
-0.09170000000000011,-2.968064307116847
-0.09270000000000023,-2.924208256821031
-0.09370000000000012,-2.924208256821031
-0.09470000000000023,-2.924208256821031
-0.09570000000000012,-3.0119203574126634
-0.09670000000000023,-3.0119203574126634
-0.09770000000000012,-3.0119203574126634
-0.09870000000000023,-2.968064307116847
-0.09970000000000012,-2.924208256821031
-0.10070000000000023,-2.924208256821031
-0.10170000000000012,-2.968064307116847
-0.10270000000000024,-3.0119203574126634
-0.10370000000000013,-3.0119203574126634
-0.10470000000000024,-3.0119203574126634
-0.10570000000000013,-2.968064307116847
-0.10670000000000024,-2.924208256821031
-0.10770000000000013,-2.968064307116847
-0.10870000000000024,-2.968064307116847
-0.10970000000000013,-3.0119203574126634
-0.11070000000000024,-3.0119203574126634
-0.11170000000000013,-2.968064307116847
-0.11270000000000002,-2.924208256821031
-0.11370000000000013,-2.8803522065252145
-0.11470000000000002,-2.924208256821031
-0.11570000000000014,-3.0119203574126634
-0.11670000000000003,-3.0119203574126634
-0.11770000000000014,-3.0119203574126634
-0.11870000000000003,-2.968064307116847
-0.11970000000000014,-2.924208256821031
-0.12070000000000003,-2.924208256821031
-0.12170000000000014,-2.968064307116847
-0.12270000000000003,-3.0119203574126634
-0.12370000000000014,-3.0119203574126634
-0.12470000000000003,-3.0119203574126634
-0.12570000000000014,-2.968064307116847
-0.12670000000000003,-2.924208256821031
-0.12770000000000015,-2.924208256821031
-0.12870000000000004,-2.968064307116847
-0.12970000000000015,-3.0119203574126634
-0.13070000000000004,-3.0119203574126634
-0.13170000000000015,-2.968064307116847
-0.13270000000000004,-2.924208256821031
-0.13370000000000015,-2.924208256821031
-0.13470000000000004,-2.924208256821031
-0.13570000000000015,-2.968064307116847
-0.13670000000000004,-3.0119203574126634
-0.13770000000000016,-3.0119203574126634
-0.13870000000000005,-2.968064307116847
-0.13970000000000016,-2.924208256821031
-0.14070000000000005,-2.924208256821031
-0.14170000000000016,-2.968064307116847
-0.14270000000000005,-3.0119203574126634
-0.14370000000000016,-3.0119203574126634
-0.14470000000000005,-3.0119203574126634
-0.14570000000000016,-2.968064307116847
-0.14670000000000005,-2.924208256821031
-0.14770000000000016,-2.924208256821031
-0.14870000000000005,-2.968064307116847
-0.14970000000000017,-3.0119203574126634
-0.15070000000000006,-3.0119203574126634
-0.15170000000000017,-2.968064307116847
-0.15270000000000006,-2.924208256821031
-0.15370000000000017,-2.924208256821031
-0.15470000000000006,-2.924208256821031
-0.15570000000000017,-3.0119203574126634
-0.15670000000000006,-3.0119203574126634
-0.15770000000000017,-3.0119203574126634
-0.15870000000000006,-2.968064307116847
-0.15970000000000018,-2.924208256821031
-0.16070000000000007,-2.924208256821031
-0.16170000000000018,-2.968064307116847
-0.16270000000000007,-3.055776407708479
-0.16370000000000018,-3.0996324580042955
-0.16470000000000007,-3.055776407708479
-0.16570000000000018,-3.0119203574126634
-0.16670000000000007,-3.0119203574126634
-0.16770000000000018,-3.0119203574126634
-0.16870000000000007,-3.0119203574126634
-0.16970000000000018,-3.0996324580042955
-0.17070000000000007,-3.0996324580042955
-0.17170000000000019,-3.055776407708479
-0.17270000000000008,-3.0119203574126634
-0.1737000000000002,-3.0119203574126634
-0.17470000000000008,-3.0119203574126634
-0.1757000000000002,-3.0996324580042955
-0.17670000000000008,-3.0996324580042955
-0.1777000000000002,-3.1420737970002466
-0.17870000000000008,-3.0996324580042955
-0.1797000000000002,-3.055776407708479
-0.18070000000000008,-3.055776407708479
-0.1817000000000002,-3.0996324580042955
-0.18270000000000008,-3.1859298472960624
-0.1837000000000002,-3.1859298472960624
-0.1847000000000001,-3.1859298472960624
-0.1857000000000002,-3.1420737970002466
-0.1867000000000001,-3.0996324580042955
-0.1877000000000002,-3.1420737970002466
-0.1887000000000001,-3.1859298472960624
-0.1897000000000002,-3.2297858975918787
-0.1907000000000001,-3.2297858975918787
-0.1917000000000001,-3.2297858975918787
-0.19269999999999998,-3.1859298472960624
-0.1937000000000001,-3.1420737970002466
-0.19469999999999998,-3.1859298472960624
-0.1957000000000001,-3.273641947887695
-0.19669999999999999,-3.317497998183511
-0.1977000000000001,-3.317497998183511
-0.1987,-3.273641947887695
-0.1997000000000001,-3.2297858975918787
-0.2007,-3.273641947887695
-0.2017000000000001,-3.317497998183511
-0.2027,-3.403795387475278
-0.2037000000000001,-3.403795387475278
-0.2047,-3.403795387475278
-0.2057000000000001,-3.361354048479327
-0.2067,-3.361354048479327
-0.2077000000000001,-3.403795387475278
-0.2087,-3.447651437771094
-0.2097000000000001,-3.5353635383627267
-0.2107,-3.5353635383627267
-0.2117000000000001,-3.4915074880669104
-0.2127,-3.447651437771094
-0.2137000000000001,-3.447651437771094
-0.2147,-3.5353635383627267
-0.2157000000000001,-3.579219588658543
-0.2167,-3.623075638954359
-0.21770000000000012,-3.6655169779503103
-0.2187,-3.623075638954359
-0.21970000000000012,-3.623075638954359
-0.2207,-3.623075638954359
-0.22170000000000012,-3.7093730282461257
-0.2227,-3.7970851288377587
-0.22370000000000012,-3.7970851288377587
-0.2247,-3.7970851288377587
-0.22570000000000012,-3.7532290785419424
-0.2267,-3.7532290785419424
-0.22770000000000012,-3.7970851288377587
-0.22870000000000001,-3.884797229429391
-0.22970000000000013,-3.971094618721158
-0.23070000000000002,-3.971094618721158
-0.23170000000000013,-3.971094618721158
-0.23270000000000002,-3.971094618721158
-0.23370000000000013,-3.971094618721158
-0.23470000000000002,-4.014950669016974
-0.23570000000000013,-4.102662769608606
-0.23670000000000002,-4.1889601589003735
-0.2376999999999999,-4.1889601589003735
-0.23870000000000002,-4.1889601589003735
-0.2396999999999999,-4.1889601589003735
-0.24070000000000003,-4.23281620919619
-0.24169999999999991,-4.276672259492005
-0.24270000000000003,-4.364384360083638
-0.24369999999999992,-4.450681749375406
-0.24470000000000003,-4.450681749375406
-0.24569999999999992,-4.450681749375406
-0.24670000000000003,-4.450681749375406
-0.24769999999999992,-4.494537799671222
-0.24870000000000003,-4.582249900262854
-0.24969999999999992,-4.668547289554621
-0.25070000000000003,-4.712403339850438
-0.2516999999999999,-4.712403339850438
-0.25270000000000004,-4.712403339850438
-0.2536999999999999,-4.756259390146253
-0.25470000000000004,-4.843971490737885
-0.2556999999999999,-4.9302688800296535
-0.25670000000000004,-4.974124930325469
-0.25769999999999993,-5.017980980621284
-0.25870000000000004,-5.0618370309171015
-0.25969999999999993,-5.0618370309171015
-0.26070000000000004,-5.105693081212917
-0.26169999999999993,-5.235846520800501
-0.26270000000000004,-5.323558621392133
-0.26369999999999993,-5.367414671687949
-0.26470000000000005,-5.411270721983764
-0.26569999999999994,-5.411270721983764
-0.26670000000000005,-5.453712060979717
-0.26769999999999994,-5.5414241615713475
-0.26870000000000005,-5.672992312458796
-0.26969999999999994,-5.759289701750564
-0.27070000000000005,-5.80314575204638
-0.27169999999999994,-5.80314575204638
-0.27270000000000005,-5.847001802342197
-0.27369999999999994,-5.890857852638012
-0.27470000000000006,-5.977155241929781
-0.27569999999999995,-6.108723392817228
-0.27670000000000006,-6.196435493408861
-0.27769999999999995,-6.282732882700628
-0.27870000000000006,-6.326588932996443
-0.27969999999999995,-6.326588932996443
-0.28070000000000006,-6.414301033588076
-0.28169999999999995,-6.54445447317566
-0.28270000000000006,-6.6760226240631075
-0.28369999999999995,-6.762320013354876
-0.28470000000000006,-6.850032113946507
-0.28569999999999995,-6.850032113946507
-0.28670000000000007,-6.93774421453814
-0.28769999999999996,-7.024041603829907
-0.28870000000000007,-7.155609754717355
-0.28969999999999996,-7.28576319430494
-0.29070000000000007,-7.37347529489657
-0.29169999999999996,-7.37347529489657
-0.29270000000000007,-7.461187395488204
-0.29369999999999996,-7.5474847847799715
-0.2947000000000001,-7.679052935667419
-0.29569999999999996,-7.809206375255003
-0.2967000000000001,-7.940774526142452
-0.29769999999999996,-8.027071915434218
-0.2987000000000001,-8.11478401602585
-0.29969999999999997,-8.158640066321666
-0.3007000000000001,-8.288793505909249
-0.30169999999999997,-8.4203616567967
-0.3027000000000001,-8.594371146680096
-0.30369999999999997,-8.725939297567548
-0.3047000000000001,-8.812236686859313
-0.30569999999999997,-8.85609273715513
-0.3067000000000001,-8.943804837746763
-0.3077,-9.11781432763016
-0.3087000000000001,-9.24938247851761
-0.3097,-9.423391968401008
-0.3107000000000001,-9.55496011928846
-0.3117,-9.59740145828441
-0.3127000000000001,-9.685113558876042
-0.3137,-9.81668170976349
-0.3147000000000001,-9.99069119964689
-0.3157,-10.164700689530287
-0.3167000000000001,-10.340124890713554
-0.3177,-10.470278330301136
-0.3187000000000001,-10.601846481188586
-0.3197,-10.688143870480351
-0.3207000000000001,-10.863568071663616
-0.3217,-11.081433611842833
-0.3227000000000001,-11.255443101726232
-0.3237,-11.42945259160963
-0.3247000000000001,-11.56102074249708
-0.3257,-11.691174182084664
-0.3267000000000001,-11.778886282676295
-0.3277,-11.952895772559694
-0.3287000000000001,-12.12831997374296
-0.3297,-12.346185513922174
-0.3307000000000001,-12.520195003805576
-0.3317,-12.651763154693022
-0.3327000000000001,-12.781916594280606
-0.3337,-12.955926084164007
-0.3347000000000001,-13.175206335643086
-0.3357,-13.3930718758223
-0.3367000000000001,-13.610937416001518
-0.3377,-13.784946905884919
-0.3387000000000001,-13.960371107068182
-0.3397,-14.090524546655764
-0.3407000000000001,-14.26028990263957
-0.3417,-14.529085049613924
-0.3427000000000001,-14.783733083589633
-0.3437,-15.01008689156804
-0.3447000000000001,-15.179852247551842
-0.3457,-15.349617603535648
-0.3467000000000001,-15.533530072518102
-0.3477,-15.70329542850191
-0.3487000000000001,-15.972090575476265
-0.3497,-16.184297270456018
-0.3507000000000001,-16.438945304431726
-0.3517,-16.622857773414182
-0.3527000000000001,-16.792623129397985
-0.3537,-16.962388485381787
-0.3547000000000001,-17.231183632356142
-0.3557,-17.48583166633185
-0.35670000000000013,-17.797068152302163
-0.3577,-18.009274847281915
-0.35870000000000013,-18.23562865526032
-0.3597,-18.40539401124413
-0.36070000000000013,-18.674189158218486
-0.3617,-18.92883719219419
-0.3626999999999999,-19.2400736781645
-0.3637,-19.49472171214021
-0.3646999999999999,-19.721075520118614
-0.3657,-19.890840876102416
-0.3666999999999999,-20.10304757108217
-0.3677,-20.371842718056527
-0.3686999999999999,-20.626490752032236
-0.36970000000000003,-20.93772723800254
-0.3706999999999999,-21.2065223849769
-0.37170000000000003,-21.461170418952605
-0.3726999999999999,-21.67337711393236
-0.37370000000000003,-21.94217226090672
-0.3746999999999999,-22.295850085872978
-0.37570000000000003,-22.592939458844636
-0.3766999999999999,-22.904175944814945
-0.37770000000000004,-23.15882397879065
-0.3786999999999999,-23.385177786769056
-0.37970000000000004,-23.597384481748815
-0.3806999999999999,-23.908620967719123
-0.38170000000000004,-24.24815167968673
-0.38269999999999993,-24.516946826661083
-0.38370000000000004,-24.814036199632742
-0.38469999999999993,-25.04039000761115
-0.38570000000000004,-25.295038041586857
-0.38669999999999993,-25.563833188561212
-0.38770000000000004,-25.86092256153287
-0.38869999999999993,-26.21460038649913
-0.38970000000000005,-26.525836872469437
-0.39069999999999994,-26.780484906445146
-0.39170000000000005,-27.049280053419505
-0.39269999999999994,-27.303928087395207
-0.39370000000000005,-27.572723234369565
-0.39469999999999994,-27.912253946337174
-0.39570000000000005,-28.308373110299385
-0.39669999999999994,-28.662050935265643
-0.39770000000000005,-29.001581647233255
-0.39869999999999994,-29.31281813320356
-0.39970000000000006,-29.62405461917387
-0.40069999999999995,-29.921143992145527
-0.40170000000000006,-30.274821817111786
-0.40269999999999995,-30.614352529079397
-0.40370000000000006,-30.925589015049702
-0.40469999999999995,-31.19438416202406
-0.40570000000000006,-31.449032195999767
-0.40669999999999995,-31.76026868197007
-0.40770000000000006,-32.09979939393769
-0.40869999999999995,-32.45347721890394
-0.40970000000000006,-32.807155043870196
-0.41069999999999995,-33.14668575583781
-0.41170000000000007,-33.45792224180811
-0.41269999999999996,-33.712570275783825
-0.41370000000000007,-34.02380676175414
-0.41469999999999996,-34.377484586720385
-0.41570000000000007,-34.8018979766799
-0.41669999999999996,-35.198017140642115
-0.41770000000000007,-35.55169496560837
-0.41869999999999996,-35.848784338580025
-0.4197000000000001,-36.16002082455034
-0.42069999999999996,-36.5136986495166
-0.4217000000000001,-36.89567070048016
-0.42269999999999996,-37.291789864442364
-0.4237000000000001,-37.645467689408626
-0.42469999999999997,-37.94255706238028
-0.4257000000000001,-38.211352209354644
-0.42669999999999997,-38.522588695324956
-0.4277000000000001,-38.86211940729255
-0.42869999999999997,-39.30067991025072
-0.4297000000000001,-39.696799074212926
-0.43069999999999997,-40.092918238175145
-0.4317000000000001,-40.43244895014274
-0.4327,-40.743685436113054
-0.4337000000000001,-41.04077480908471
-0.4347,-41.47933531204288
-0.4357000000000001,-41.91789581500104
-0.4367,-42.3564563179592
-0.4377000000000001,-42.79501682091736
-0.4387,-43.09210619388902
-0.4397000000000001,-43.44578401885527
-0.4407,-43.88434452181344
-0.4417000000000001,-44.28046368577565
-0.4427,-44.66243573673921
-0.4437000000000001,-45.01611356170547
-0.4447,-45.412232725667685
-0.4457000000000001,-45.75176343763528
-0.4467,-46.062999923605595
-0.4477000000000001,-46.45911908756781
-0.4487,-46.84109113853137
-0.4497000000000001,-47.15232762450167
-0.4507,-47.54844678846388
-0.4517000000000001,-47.8879775004315
-0.4527,-48.2840966643937
-0.4537000000000001,-48.68021582835591
-0.4547,-49.20365900930597
-0.4557000000000001,-49.68466085126009
-0.4567,-50.12322135421825
-0.4577000000000001,-50.547634744177756
-0.4587,-50.90131256914402
-0.4597000000000001,-51.33987307210218
-0.4607,-51.77843357506035
-0.4617000000000001,-52.30187675601041
-0.4627,-52.69799591997262
-0.4637000000000001,-53.03752663194023
-0.4647,-53.348763117910536
-0.4657000000000001,-53.603411151886235
-0.4667,-53.9570889768525
-0.4677000000000001,-54.43809081880661
-0.4687,-54.919092660760725
-0.4697000000000001,-55.357653163718886
-0.4707,-55.73962521468245
-0.4717000000000001,-56.13574437864466
-0.4727,-56.53186354260687
-0.4737000000000001,-56.88554136757313
-0.4747,-57.30995475753264
-0.4757000000000001,-57.8333979384827
-0.4767,-58.27195844144086
-0.4777000000000001,-58.75296028339497
-0.4787,-59.19152078635314
-0.4797000000000001,-59.6300812893113
-0.4807,-60.06864179226946
-0.48170000000000013,-60.49305518222897
-0.4827,-60.889174346191176
-0.48370000000000013,-61.327734849149344
-0.4847,-61.851178030099405
-0.48570000000000013,-62.24729719406162
-0.4867,-61.89361936909536
-0.48570000000000013,-60.93161568518713
-0.4847,-60.19596580925731
-0.48370000000000013,-59.6300812893113
-0.4827,-59.06419676936528
-0.48170000000000013,-58.71051894439902
-0.4807,-57.87583927747865
-0.4797000000000001,-57.05530672355693
-0.4787,-56.53186354260687
-0.4777000000000001,-56.05086170065276
-0.4767,-55.527418519702685
-0.4757000000000001,-55.046416677748574
-0.4747,-54.52297349679851
-0.4737000000000001,-53.999530315848446
-0.4727,-53.56096981289029
-0.4717000000000001,-53.16485064892808
-0.4707,-52.995085292944275
-0.4697000000000001,-52.386759434002315
-0.4687,-51.82087491405629
-0.4677000000000001,-51.25499039411028
-0.4667,-50.73154721316022
-0.4657000000000001,-50.29298671020206
-0.4647,-49.81198486824794
