Potential V vs RHE, Current mA cm-2
0.05339999999999995,-0.12930461280766434
0.05239999999999995,-0.1509496956955994
0.051399999999999946,-0.1622673860945197
0.050399999999999945,-0.16820917355395287
0.049399999999999944,-0.17245330745354798
0.04839999999999994,-0.17599008570321056
0.04739999999999994,-0.17924392169290015
0.04639999999999994,-0.18193187316264373
0.04539999999999994,-0.1846198246323873
0.04439999999999994,-0.18716630497214437
0.04339999999999994,-0.18928837192194192
0.04239999999999994,-0.19155191000172597
0.04139999999999994,-0.1936739769515235
0.040399999999999936,-0.19565457277133455
0.039399999999999935,-0.19791811085111863
0.038399999999999934,-0.19975723554094318
0.03739999999999993,-0.20145488910078121
0.03639999999999993,-0.20329401379060577
0.03539999999999993,-0.20499166735044383
0.03439999999999993,-0.20683079204026839
0.03339999999999993,-0.2082455033401334
0.03239999999999993,-0.20980168576998495
0.03139999999999993,-0.21149933932982298
0.030399999999999927,-0.21291405062968802
0.029399999999999926,-0.21461170418952608
0.028399999999999925,-0.2161678866193776
0.027399999999999924,-0.21744112678925615
0.026399999999999924,-0.21885583808912115
0.025399999999999923,-0.2204120205189727
0.024399999999999922,-0.22182673181883775
0.02339999999999992,-0.22338291424868928
0.02239999999999992,-0.22437321215859482
0.02139999999999992,-0.22592939458844638
0.020399999999999918,-0.2273441058883114
0.019399999999999917,-0.22861734605818995
0.018399999999999916,-0.23003205735805496
0.017399999999999916,-0.2313052975279335
0.016399999999999915,-0.232578537697812
0.015399999999999914,-0.23399324899767707
0.014399999999999913,-0.2354079602975421
0.013399999999999912,-0.23668120046742064
0.012399999999999911,-0.23781296950731265
0.01139999999999991,-0.2389447385472047
0.01039999999999991,-0.24035944984706975
0.009399999999999908,-0.24163269001694826
0.008399999999999908,-0.24276445905684027
0.007399999999999907,-0.24389622809673234
0.006399999999999906,-0.24502799713662435
0.005399999999999905,-0.24630123730650288
0.004399999999999904,-0.24757447747638137
0.003399999999999903,-0.2485647753862869
0.002399999999999902,-0.24969654442617895
0.0013999999999999013,-0.250828313466071
0.00039999999999990044,-0.251960082505963
-0.0006000000000001005,-0.2532333226758416
-0.0016000000000001013,-0.25422362058574705
-0.0026000000000001022,-0.25535538962563914
-0.003600000000000103,-0.25634568753554465
-0.004600000000000104,-0.25733598544545017
-0.005600000000000105,-0.2586092256153287
-0.006600000000000106,-0.2594580523952477
-0.007600000000000107,-0.26044835030515323
-0.008600000000000108,-0.2615801193450453
-0.009600000000000108,-0.2627118883849373
-0.01060000000000011,-0.26384365742482935
-0.01160000000000011,-0.2648339553347349
-0.012600000000000111,-0.2661071955046134
-0.013600000000000112,-0.26695602228453247
-0.014600000000000113,-0.267946320194438
-0.015600000000000114,-0.268795146974357
-0.016600000000000115,-0.269643973754276
-0.017600000000000116,-0.27049280053419505
-0.018600000000000116,-0.27148309844410057
-0.019600000000000117,-0.2726148674839926
-0.020600000000000118,-0.2733222231339251
-0.02160000000000012,-0.27445399217381716
-0.02260000000000012,-0.2754442900837227
-0.02360000000000012,-0.2768590013835877
-0.024600000000000122,-0.2779907704234797
-0.025600000000000123,-0.27883959720339874
-0.026600000000000124,-0.2796884239833177
-0.027600000000000124,-0.2805372507632368
-0.028600000000000125,-0.2813860775431558
-0.029600000000000126,-0.28223490432307485
-0.030600000000000127,-0.28294225997300737
-0.03160000000000013,-0.28364961562293983
-0.03260000000000013,-0.2842155001428859
-0.03360000000000013,-0.28478138466283187
-0.03460000000000002,-0.2857716825727374
-0.03560000000000002,-0.2866205093526564
-0.03660000000000002,-0.28732786500258894
-0.03760000000000002,-0.288176691782508
-0.03860000000000002,-0.288742576302454
-0.039600000000000024,-0.2894499319523865
-0.040600000000000025,-0.29044022986229207
-0.041600000000000026,-0.29100611438223806
-0.04260000000000003,-0.2918549411621571
-0.04360000000000003,-0.29256229681208956
-0.04460000000000003,-0.2932696524620221
-0.04560000000000003,-0.2941184792419411
-0.04660000000000003,-0.29454289263190064
-0.04760000000000003,-0.29510877715184664
-0.04860000000000003,-0.2958161328017792
-0.04960000000000003,-0.29652348845171167
-0.050600000000000034,-0.2973723152316307
-0.051600000000000035,-0.29793819975157676
-0.052600000000000036,-0.29850408427152275
-0.053600000000000037,-0.2992114399214552
-0.05460000000000004,-0.2999187955713878
-0.05560000000000004,-0.3006261512213203
-0.05660000000000004,-0.3013335068712528
-0.05760000000000004,-0.30175792026121234
-0.05860000000000004,-0.3024652759111448
-0.05960000000000004,-0.3031726315610774
-0.06060000000000004,-0.3038799872110099
-0.061600000000000044,-0.30458734286094236
-0.06260000000000004,-0.30543616964086145
-0.06360000000000005,-0.3058605830308209
-0.06460000000000005,-0.3064264675507669
-0.06560000000000005,-0.30699235207071296
-0.06660000000000005,-0.30755823659065895
-0.06760000000000005,-0.308124121110605
-0.06860000000000005,-0.308407063370578
-0.06960000000000005,-0.30925589015049704
-0.07060000000000005,-0.30982177467044303
-0.07160000000000005,-0.31052913032037555
-0.07260000000000005,-0.3110950148403216
-0.07360000000000005,-0.3113779571002946
-0.07460000000000006,-0.3122267838802136
-0.07560000000000006,-0.31293413953014615
-0.07660000000000006,-0.3133585529201056
-0.07760000000000006,-0.3139244374400516
-0.07860000000000006,-0.3142073797000246
-0.07960000000000006,-0.31477326421997065
-0.08060000000000006,-0.31548061986990317
-0.08160000000000006,-0.31576356212987616
-0.08260000000000006,-0.31632944664982215
-0.08360000000000006,-0.31675386003978173
-0.08460000000000006,-0.3173197445597277
-0.08560000000000006,-0.31802710020966024
-0.08660000000000007,-0.3184515135996197
-0.08760000000000007,-0.31873445585959276
-0.08860000000000007,-0.3194418115095253
-0.08960000000000007,-0.31986622489948474
-0.09060000000000007,-0.3204321094194308
-0.09160000000000007,-0.32099799393937684
-0.09260000000000007,-0.32128093619934983
-0.09360000000000007,-0.3218468207192958
-0.09460000000000007,-0.3222712341092553
-0.09560000000000007,-0.32269564749921487
-0.09660000000000007,-0.3234030031491474
-0.09760000000000008,-0.3236859454091204
-0.09860000000000008,-0.32411035879907985
-0.09960000000000008,-0.3246762433190259
-0.10060000000000008,-0.3251006567089854
-0.10160000000000008,-0.32552507009894494
-0.10260000000000008,-0.3259494834889044
-0.10360000000000008,-0.326373896878864
-0.10460000000000008,-0.32679831026882344
-0.10560000000000008,-0.32722272365878297
-0.10660000000000008,-0.32764713704874243
-0.10760000000000008,-0.328354492698675
-0.10860000000000009,-0.328637434958648
-0.10960000000000009,-0.32948626173856704
-0.11060000000000009,-0.32976920399854004
-0.11160000000000009,-0.3300521462585131
-0.11260000000000009,-0.33047655964847256
-0.11360000000000009,-0.3306180307784591
-0.11460000000000009,-0.3311839152984051
-0.11560000000000009,-0.33174979981835107
-0.11660000000000009,-0.3318912709483376
-0.1176000000000001,-0.3323156843382971
-0.1186000000000001,-0.33259862659827016
-0.1196000000000001,-0.33302303998822963
-0.1206000000000001,-0.33344745337818915
-0.1216000000000001,-0.3335889245081756
-0.1226000000000001,-0.3340133378981352
-0.1236000000000001,-0.3344377512880947
-0.1246000000000001,-0.3348621646780542
-0.1256000000000001,-0.3354280491980002
-0.1266000000000001,-0.33571099145797323
-0.1276000000000001,-0.33585246258795975
-0.1286000000000001,-0.3359939337179463
-0.1296000000000001,-0.3362768759779193
-0.1306000000000001,-0.33670128936787874
-0.1316000000000001,-0.33698423162785174
-0.1326000000000001,-0.33712570275783826
-0.1336000000000001,-0.33740864501781126
-0.1346000000000001,-0.33769158727778426
-0.1356000000000001,-0.3379745295377573
-0.1366000000000001,-0.3385404140577033
-0.1376000000000001,-0.33839894292771683
-0.1386000000000001,-0.3386818851876898
-0.1396000000000001,-0.3391062985776493
-0.1406000000000001,-0.3393892408376223
-0.14160000000000011,-0.3396721830975953
-0.14260000000000012,-0.33981365422758186
-0.14360000000000012,-0.33995512535756833
-0.14460000000000012,-0.34023806761754133
-0.14560000000000012,-0.34037953874752785
-0.14660000000000012,-0.3408039521374874
-0.14760000000000012,-0.34094542326747385
-0.14860000000000012,-0.34108689439746037
-0.14960000000000012,-0.34136983665743337
-0.15060000000000012,-0.34151130778741984
-0.15160000000000012,-0.3417942500473929
-0.15260000000000012,-0.3417942500473929
-0.15360000000000013,-0.3422186634373524
-0.15460000000000013,-0.3423601345673389
-0.15560000000000013,-0.3426430768273119
-0.15660000000000013,-0.3427845479572984
-0.15760000000000013,-0.3432089613472579
-0.15860000000000013,-0.3433504324772444
-0.15960000000000002,-0.34363337473721745
-0.16060000000000002,-0.34405778812717697
-0.16160000000000002,-0.34419925925716344
-0.16260000000000002,-0.34434073038714996
-0.16360000000000002,-0.34462367264712296
-0.16460000000000002,-0.3450480860370824
-0.16560000000000002,-0.3456139705570285
-0.16660000000000003,-0.346321326206961
-0.16760000000000003,-0.3461798550769745
-0.16860000000000003,-0.346604268466934
-0.16960000000000003,-0.3467457395969205
-0.17060000000000003,-0.34717015298688
-0.17160000000000003,-0.347453095246853
-0.17260000000000003,-0.347736037506826
-0.17360000000000003,-0.34816045089678554
-0.17460000000000003,-0.34858486428674507
-0.17560000000000003,-0.34900927767670453
-0.17660000000000003,-0.3494336910666641
-0.17760000000000004,-0.3497166333266371
-0.17860000000000004,-0.3502825178465831
-0.17960000000000004,-0.3508484023665291
-0.18060000000000004,-0.35127281575648867
-0.18160000000000004,-0.35183870027643466
-0.18260000000000004,-0.3522631136663941
-0.18360000000000004,-0.3525460559263671
-0.18460000000000004,-0.3532534115762997
-0.18560000000000004,-0.3538192960962457
-0.18660000000000004,-0.3542437094862052
-0.18760000000000004,-0.3548095940061512
-0.18860000000000005,-0.35537547852609724
-0.18960000000000005,-0.35608283417602976
-0.19060000000000005,-0.35664871869597575
-0.19160000000000005,-0.35735607434590827
-0.19260000000000005,-0.3580634299958408
-0.19360000000000005,-0.3586293145157868
-0.19460000000000005,-0.3594781412957058
-0.19560000000000005,-0.36018549694563834
-0.19660000000000005,-0.3608928525955709
-0.19760000000000005,-0.3616002082455034
-0.19860000000000005,-0.3623075638954359
-0.19960000000000006,-0.36287344841538194
-0.20060000000000006,-0.36386374632528745
-0.20160000000000006,-0.3645711019752199
-0.20260000000000006,-0.36541992875513896
-0.20360000000000006,-0.366268755535058
-0.20460000000000006,-0.36711758231497704
-0.20560000000000006,-0.36810788022488256
-0.20660000000000006,-0.3688152358748151
-0.20760000000000006,-0.3695225915247476
-0.20860000000000006,-0.3703714183046666
-0.20960000000000006,-0.3712202450845856
-0.21060000000000006,-0.3723520141244776
-0.21160000000000007,-0.3734837831643697
-0.21260000000000007,-0.37433260994428874
-0.21360000000000007,-0.3753229078541942
-0.21460000000000007,-0.37631320576409977
-0.21560000000000007,-0.37716203254401875
-0.21660000000000007,-0.3784352727138973
-0.21760000000000007,-0.37970851288377583
-0.21860000000000007,-0.38055733966369487
-0.21960000000000007,-0.3818305798335734
-0.22060000000000007,-0.3829623488734654
-0.22160000000000007,-0.383952646783371
-0.22260000000000008,-0.38480147356329
-0.22360000000000008,-0.38607471373316854
-0.22460000000000008,-0.387347953903047
-0.22560000000000008,-0.3884797229429391
-0.22660000000000008,-0.3897529631128176
-0.22760000000000008,-0.3907432610227231
-0.22860000000000008,-0.3920165011926017
-0.22960000000000008,-0.39357268362245323
-0.23060000000000008,-0.3947044526623452
-0.23160000000000008,-0.3959776928322238
-0.23260000000000008,-0.39725093300210224
-0.23360000000000009,-0.39838270204199433
-0.2346000000000001,-0.40022182673181883
-0.2356000000000001,-0.4017780091616704
-0.2366000000000001,-0.4030512493315489
-0.2376000000000001,-0.40460743176140046
-0.2386000000000001,-0.405880671931279
-0.2396000000000001,-0.4074368543611306
-0.2406000000000001,-0.40899303679098215
-0.2416000000000001,-0.41054921922083365
-0.2426000000000001,-0.4119639305206987
-0.2436000000000001,-0.41352011295055024
-0.2446000000000001,-0.4150762953804018
-0.2456000000000001,-0.41691542007022636
-0.2466000000000001,-0.41847160250007787
-0.2476000000000001,-0.4201692560599159
-0.2486000000000001,-0.4218669096197539
-0.2496000000000001,-0.4234230920496055
-0.2506000000000001,-0.42526221673943004
-0.2516000000000001,-0.4271013414292546
-0.2526000000000001,-0.42894046611907916
-0.2536000000000001,-0.4309210619388902
-0.2546000000000001,-0.4327601866287147
-0.2556000000000001,-0.43459931131853924
-0.2566000000000001,-0.4365799071383503
-0.2576000000000001,-0.43827756069818835
-0.2586000000000001,-0.44039962764798596
-0.2596000000000001,-0.44252169459778345
-0.2606000000000001,-0.44464376154758106
-0.2616000000000001,-0.4469072996273651
-0.2626000000000001,-0.4490293665771626
-0.2636000000000001,-0.4512929046569467
-0.2646000000000001,-0.4535564427367308
-0.2656000000000001,-0.4556785096865283
-0.2666000000000001,-0.4578005766363259
-0.2676000000000001,-0.46020558584609644
-0.2686000000000001,-0.46246912392588047
-0.2696000000000001,-0.4650156042656376
-0.2706000000000001,-0.46756208460539456
-0.2716000000000001,-0.4698256226851787
-0.2726000000000001,-0.4720891607649627
-0.2736000000000001,-0.47435269884474673
-0.2746000000000001,-0.47689917918450386
-0.2756000000000001,-0.47944565952426094
-0.2766000000000001,-0.48199213986401795
-0.2776000000000001,-0.4845386202037751
-0.2786000000000001,-0.4872265716735187
-0.2796000000000001,-0.48991452314326217
-0.2806000000000001,-0.49260247461300577
-0.28160000000000013,-0.4950074838227763
-0.28260000000000013,-0.49769543529251986
-0.28360000000000013,-0.5003833867622635
-0.2846,-0.5032128093619935
-0.2856,-0.5059007608317371
-0.2866,-0.5085887123014806
-0.2876,-0.5112766637712243
-0.2886,-0.5141060863709543
-0.2896,-0.5169355089706844
-0.2906,-0.519906402700401
-0.2916,-0.5228772964301176
-0.2926,-0.5257067190298478
-0.2936,-0.5288190838895507
-0.29460000000000003,-0.5316485064892809
-0.29560000000000003,-0.5346194002189975
-0.29660000000000003,-0.5377317650787005
-0.29760000000000003,-0.5405611876784305
-0.29860000000000003,-0.5436735525381337
-0.29960000000000003,-0.5466444462678502
-0.30060000000000003,-0.5496153399975668
-0.30160000000000003,-0.5527277048572699
-0.30260000000000004,-0.5555571274569999
-0.30360000000000004,-0.558669492316703
-0.30460000000000004,-0.561781857176406
-0.30560000000000004,-0.5647527509061226
-0.30660000000000004,-0.5675821735058527
-0.30760000000000004,-0.5704115961055828
-0.30860000000000004,-0.5733824898352994
-0.30960000000000004,-0.576353383565016
-0.31060000000000004,-0.5791828061647459
-0.31160000000000004,-0.5820122287644761
-0.31260000000000004,-0.5848416513642062
-0.31360000000000005,-0.5873881317039633
-0.31460000000000005,-0.5902175543036933
-0.31560000000000005,-0.5929055057734368
-0.31660000000000005,-0.5954519861131939
-0.31760000000000005,-0.597998466452951
-0.31860000000000005,-0.6005449467927081
-0.31960000000000005,-0.6033743693924382
-0.32060000000000005,-0.6060623208621817
-0.32160000000000005,-0.6081843878119793
-0.32260000000000005,-0.6104479258917633
-0.32360000000000005,-0.6129944062315204
-0.32460000000000006,-0.6152579443113044
-0.32560000000000006,-0.617380011261102
-0.32660000000000006,-0.6192191359509266
-0.32760000000000006,-0.6211997317707375
-0.32860000000000006,-0.6234632698505217
-0.32960000000000006,-0.6255853368003192
-0.33060000000000006,-0.6277074037501167
-0.33160000000000006,-0.6295465284399413
-0.33260000000000006,-0.6313856531297658
-0.33360000000000006,-0.6333662489495769
-0.33460000000000006,-0.6352053736394014
-0.33560000000000006,-0.637044498329226
-0.33660000000000007,-0.6388836230190506
-0.33760000000000007,-0.6405812765788885
-0.33860000000000007,-0.6424204012687131
-0.33960000000000007,-0.6442595259585376
-0.34060000000000007,-0.6458157083883892
-0.34160000000000007,-0.6475133619482272
-0.34260000000000007,-0.6490695443780788
-0.34360000000000007,-0.6507671979379168
-0.3446000000000001,-0.6524648514977549
-0.3456000000000001,-0.6538795627976199
-0.3466000000000001,-0.6554357452274714
-0.34759999999999996,-0.6569919276573231
-0.3486000000000001,-0.658406638957188
-0.34959999999999997,-0.6601042925170262
-0.3506000000000001,-0.6613775326869047
-0.35159999999999997,-0.6627922439867696
-0.3526000000000001,-0.6640654841566482
-0.35359999999999997,-0.6653387243265267
-0.3546000000000001,-0.6670363778863648
-0.35559999999999997,-0.6685925603162164
-0.3566000000000001,-0.6700072716160814
-0.3576,-0.6715634540459329
-0.3586000000000001,-0.6731196364757845
-0.3596,-0.674675818905636
-0.3606000000000001,-0.6763734724654741
-0.3616,-0.6777881837653391
-0.3626000000000001,-0.6793443661951906
-0.3636,-0.6810420197550288
-0.3646000000000001,-0.6827396733148667
-0.3656,-0.6842958557447183
-0.3666000000000001,-0.6857105670445833
-0.3676,-0.6872667494744349
-0.3686000000000001,-0.6889644030342729
-0.3696,-0.6906620565941108
-0.3706000000000001,-0.6925011812839355
-0.3716,-0.69434030597376
-0.3726000000000001,-0.6958964884036116
-0.3736,-0.6977356130934361
-0.3746000000000001,-0.6995747377832607
-0.3756,-0.7012723913430987
-0.3766000000000001,-0.7028285737729503
-0.3776,-0.7045262273327882
-0.3786000000000001,-0.7063653520226129
-0.3796,-0.7080630055824508
-0.3806000000000001,-0.7097606591422889
-0.3816,-0.7118827260920865
-0.3826000000000001,-0.7135803796519244
-0.3836,-0.7157024466017221
-0.3846000000000001,-0.7179659846815062
-0.3856,-0.7199465805013172
-0.3866000000000001,-0.7220686474511148
-0.3876,-0.7243321855308987
-0.3886000000000001,-0.7265957236106829
-0.3896,-0.7292836750804264
-0.3906000000000001,-0.7312642709002375
-0.3916,-0.733386337850035
-0.3926000000000001,-0.735649875929819
-0.3936,-0.7377719428796167
-0.3946000000000001,-0.7403184232193737
-0.3956,-0.7425819612991578
-0.3966000000000001,-0.7449869705089284
-0.3976,-0.7473919797186989
-0.3986000000000001,-0.7496555177984829
-0.3996,-0.7520605270082534
-0.4006000000000001,-0.754465536218024
-0.4016,-0.7568705454277946
-0.4026000000000001,-0.7592755546375651
-0.4036,-0.7621049772372952
-0.4046000000000001,-0.7647929287070389
-0.4056,-0.7673394090467959
-0.40660000000000013,-0.7697444182565665
-0.4076,-0.7721494274663371
-0.40860000000000013,-0.774978850066067
-0.4096,-0.7778082726657971
-0.41060000000000013,-0.7809206375255002
-0.4116,-0.7834671178652574
-0.41260000000000013,-0.7860135982050144
-0.4136,-0.7888430208047444
-0.41460000000000014,-0.7913895011445016
-0.4156,-0.7939359814842585
-0.41660000000000014,-0.7969068752139751
-0.4176,-0.7994533555537322
-0.41860000000000014,-0.8024242492834487
-0.41960000000000003,-0.8052536718831789
-0.42060000000000014,-0.8082245656128955
-0.42160000000000003,-0.8111954593426121
-0.42260000000000014,-0.8141663530723287
-0.42360000000000003,-0.8171372468020451
-0.42460000000000014,-0.8201081405317618
-0.42560000000000003,-0.8227960920015054
-0.42660000000000015,-0.825766985731222
-0.42760000000000004,-0.828879350590925
-0.42860000000000015,-0.8318502443206416
-0.42960000000000004,-0.8352455514403176
-0.43060000000000015,-0.8387823296899803
-0.43160000000000004,-0.8437338192395079
-0.43260000000000015,-0.845714415059319
-0.43360000000000004,-0.8486853087890355
-0.43460000000000015,-0.8522220870386981
-0.43560000000000004,-0.8551929807684147
-0.43660000000000015,-0.8581638744981313
-0.43760000000000004,-0.8618421238777804
-0.43860000000000016,-0.865661844387416
-0.43960000000000005,-0.8696230360270382
-0.44060000000000016,-0.8731598142767006
-0.44160000000000005,-0.8765551213963767
-0.44260000000000016,-0.8799504285160528
-0.44360000000000005,-0.8836286778957019
-0.44460000000000016,-0.887306927275351
