June 26, 2026   19:25:40
Cyclic Voltammetry
File: c:/users/guazh/data/20260623_doe_duplica2/2026-06-24-exp17\exp17-2026-06-26t19_16_57-arkoh\exp17_cv_50mvs_efin_-1600mv.bin
Data Source:  Experiment
Instrument Model:  CHI760E
Header: CV ran at 50 mVs
Note: 

Init E (V) = -1
High E (V) = -1
Low E (V) = -1.6
Final E (V) = -1
Init P/N = N
Scan Rate (V/s) = 0.05
Segment = 7
Sample Interval (V) = 0.001
Quiet Time (sec) = 60
Sensitivity (A/V) = 0.001
Comp R (ohm) = 1.8

Results:

Channel 1:
Segment 1:

Segment 2:

Segment 3:

Segment 4:

Segment 5:

Segment 6:

Segment 7:

Potential/V, Current/A

-1.000, 1.823e-7
-1.001, 3.066e-7
-1.002, 3.708e-7
-1.003, 4.092e-7
-1.004, 4.526e-7
-1.005, 4.842e-7
-1.006, 5.138e-7
-1.007, 5.326e-7
-1.008, 5.612e-7
-1.009, 5.789e-7
-1.010, 5.937e-7
-1.011, 6.253e-7
-1.012, 6.362e-7
-1.013, 6.658e-7
-1.014, 6.658e-7
-1.015, 6.904e-7
-1.016, 7.121e-7
-1.017, 7.210e-7
-1.018, 7.427e-7
-1.019, 7.674e-7
-1.020, 7.565e-7
-1.021, 7.763e-7
-1.022, 7.802e-7
-1.023, 8.029e-7
-1.024, 8.098e-7
-1.025, 8.364e-7
-1.026, 8.374e-7
-1.027, 8.512e-7
-1.028, 8.769e-7
-1.029, 8.739e-7
-1.030, 8.956e-7
-1.031, 8.966e-7
-1.032, 9.144e-7
-1.033, 9.173e-7
-1.034, 9.321e-7
-1.035, 9.381e-7
-1.036, 9.519e-7
-1.037, 9.538e-7
-1.038, 9.795e-7
-1.039, 9.864e-7
-1.040, 9.677e-7
-1.041, 1.020e-6
-1.042, 1.005e-6
-1.043, 1.023e-6
-1.044, 1.035e-6
-1.045, 1.052e-6
-1.046, 1.051e-6
-1.047, 1.056e-6
-1.048, 1.050e-6
-1.049, 1.072e-6
-1.050, 1.093e-6
-1.051, 1.101e-6
-1.052, 1.102e-6
-1.053, 1.104e-6
-1.054, 1.129e-6
-1.055, 1.130e-6
-1.056, 1.140e-6
-1.057, 1.161e-6
-1.058, 1.157e-6
-1.059, 1.168e-6
-1.060, 1.177e-6
-1.061, 1.196e-6
-1.062, 1.192e-6
-1.063, 1.212e-6
-1.064, 1.206e-6
-1.065, 1.223e-6
-1.066, 1.237e-6
-1.067, 1.223e-6
-1.068, 1.241e-6
-1.069, 1.260e-6
-1.070, 1.272e-6
-1.071, 1.274e-6
-1.072, 1.284e-6
-1.073, 1.271e-6
-1.074, 1.300e-6
-1.075, 1.305e-6
-1.076, 1.338e-6
-1.077, 1.330e-6
-1.078, 1.317e-6
-1.079, 1.344e-6
-1.080, 1.367e-6
-1.081, 1.357e-6
-1.082, 1.385e-6
-1.083, 1.381e-6
-1.084, 1.397e-6
-1.085, 1.400e-6
-1.086, 1.406e-6
-1.087, 1.412e-6
-1.088, 1.416e-6
-1.089, 1.434e-6
-1.090, 1.432e-6
-1.091, 1.471e-6
-1.092, 1.450e-6
-1.093, 1.478e-6
-1.094, 1.483e-6
-1.095, 1.493e-6
-1.096, 1.497e-6
-1.097, 1.515e-6
-1.098, 1.514e-6
-1.099, 1.523e-6
-1.100, 1.515e-6
-1.101, 1.541e-6
-1.102, 1.558e-6
-1.103, 1.564e-6
-1.104, 1.576e-6
-1.105, 1.587e-6
-1.106, 1.595e-6
-1.107, 1.598e-6
-1.108, 1.632e-6
-1.109, 1.628e-6
-1.110, 1.641e-6
-1.111, 1.643e-6
-1.112, 1.639e-6
-1.113, 1.656e-6
-1.114, 1.681e-6
-1.115, 1.677e-6
-1.116, 1.695e-6
-1.117, 1.711e-6
-1.118, 1.703e-6
-1.119, 1.724e-6
-1.120, 1.748e-6
-1.121, 1.740e-6
-1.122, 1.754e-6
-1.123, 1.768e-6
-1.124, 1.773e-6
-1.125, 1.779e-6
-1.126, 1.790e-6
-1.127, 1.826e-6
-1.128, 1.814e-6
-1.129, 1.833e-6
-1.130, 1.849e-6
-1.131, 1.857e-6
-1.132, 1.870e-6
-1.133, 1.884e-6
-1.134, 1.878e-6
-1.135, 1.912e-6
-1.136, 1.913e-6
-1.137, 1.911e-6
-1.138, 1.927e-6
-1.139, 1.953e-6
-1.140, 1.957e-6
-1.141, 1.984e-6
-1.142, 1.983e-6
-1.143, 2.008e-6
-1.144, 1.996e-6
-1.145, 2.021e-6
-1.146, 2.046e-6
-1.147, 2.040e-6
-1.148, 2.066e-6
-1.149, 2.058e-6
-1.150, 2.073e-6
-1.151, 2.093e-6
-1.152, 2.103e-6
-1.153, 2.114e-6
-1.154, 2.139e-6
-1.155, 2.127e-6
-1.156, 2.170e-6
-1.157, 2.169e-6
-1.158, 2.178e-6
-1.159, 2.200e-6
-1.160, 2.208e-6
-1.161, 2.228e-6
-1.162, 2.230e-6
-1.163, 2.238e-6
-1.164, 2.260e-6
-1.165, 2.262e-6
-1.166, 2.287e-6
-1.167, 2.300e-6
-1.168, 2.305e-6
-1.169, 2.332e-6
-1.170, 2.332e-6
-1.171, 2.371e-6
-1.172, 2.365e-6
-1.173, 2.385e-6
-1.174, 2.385e-6
-1.175, 2.420e-6
-1.176, 2.440e-6
-1.177, 2.436e-6
-1.178, 2.461e-6
-1.179, 2.470e-6
-1.180, 2.489e-6
-1.181, 2.493e-6
-1.182, 2.519e-6
-1.183, 2.534e-6
-1.184, 2.539e-6
-1.185, 2.562e-6
-1.186, 2.563e-6
-1.187, 2.595e-6
-1.188, 2.609e-6
-1.189, 2.614e-6
-1.190, 2.623e-6
-1.191, 2.641e-6
-1.192, 2.660e-6
-1.193, 2.686e-6
-1.194, 2.706e-6
-1.195, 2.715e-6
-1.196, 2.720e-6
-1.197, 2.738e-6
-1.198, 2.759e-6
-1.199, 2.764e-6
-1.200, 2.777e-6
-1.201, 2.810e-6
-1.202, 2.812e-6
-1.203, 2.844e-6
-1.204, 2.866e-6
-1.205, 2.862e-6
-1.206, 2.905e-6
-1.207, 2.895e-6
-1.208, 2.907e-6
-1.209, 2.931e-6
-1.210, 2.968e-6
-1.211, 2.973e-6
-1.212, 2.981e-6
-1.213, 2.987e-6
-1.214, 3.019e-6
-1.215, 3.028e-6
-1.216, 3.056e-6
-1.217, 3.075e-6
-1.218, 3.073e-6
-1.219, 3.097e-6
-1.220, 3.110e-6
-1.221, 3.122e-6
-1.222, 3.122e-6
-1.223, 3.146e-6
-1.224, 3.166e-6
-1.225, 3.189e-6
-1.226, 3.198e-6
-1.227, 3.188e-6
-1.228, 3.231e-6
-1.229, 3.272e-6
-1.230, 3.276e-6
-1.231, 3.284e-6
-1.232, 3.302e-6
-1.233, 3.329e-6
-1.234, 3.340e-6
-1.235, 3.341e-6
-1.236, 3.386e-6
-1.237, 3.361e-6
-1.238, 3.395e-6
-1.239, 3.407e-6
-1.240, 3.418e-6
-1.241, 3.433e-6
-1.242, 3.456e-6
-1.243, 3.466e-6
-1.244, 3.483e-6
-1.245, 3.499e-6
-1.246, 3.525e-6
-1.247, 3.530e-6
-1.248, 3.536e-6
-1.249, 3.560e-6
-1.250, 3.574e-6
-1.251, 3.585e-6
-1.252, 3.606e-6
-1.253, 3.626e-6
-1.254, 3.622e-6
-1.255, 3.655e-6
-1.256, 3.678e-6
-1.257, 3.663e-6
-1.258, 3.687e-6
-1.259, 3.696e-6
-1.260, 3.710e-6
-1.261, 3.735e-6
-1.262, 3.734e-6
-1.263, 3.755e-6
-1.264, 3.778e-6
-1.265, 3.792e-6
-1.266, 3.793e-6
-1.267, 3.800e-6
-1.268, 3.819e-6
-1.269, 3.824e-6
-1.270, 3.830e-6
-1.271, 3.864e-6
-1.272, 3.871e-6
-1.273, 3.870e-6
-1.274, 3.894e-6
-1.275, 3.905e-6
-1.276, 3.914e-6
-1.277, 3.918e-6
-1.278, 3.946e-6
-1.279, 3.956e-6
-1.280, 3.965e-6
-1.281, 3.987e-6
-1.282, 4.006e-6
-1.283, 4.002e-6
-1.284, 4.024e-6
-1.285, 4.026e-6
-1.286, 4.035e-6
-1.287, 4.058e-6
-1.288, 4.069e-6
-1.289, 4.072e-6
-1.290, 4.100e-6
-1.291, 4.092e-6
-1.292, 4.095e-6
-1.293, 4.105e-6
-1.294, 4.124e-6
-1.295, 4.145e-6
-1.296, 4.140e-6
-1.297, 4.157e-6
-1.298, 4.165e-6
-1.299, 4.166e-6
-1.300, 4.186e-6
-1.301, 4.216e-6
-1.302, 4.202e-6
-1.303, 4.227e-6
-1.304, 4.225e-6
-1.305, 4.236e-6
-1.306, 4.261e-6
-1.307, 4.263e-6
-1.308, 4.296e-6
-1.309, 4.303e-6
-1.310, 4.313e-6
-1.311, 4.304e-6
-1.312, 4.340e-6
-1.313, 4.349e-6
-1.314, 4.355e-6
-1.315, 4.360e-6
-1.316, 4.367e-6
-1.317, 4.371e-6
-1.318, 4.394e-6
-1.319, 4.415e-6
-1.320, 4.406e-6
-1.321, 4.427e-6
-1.322, 4.424e-6
-1.323, 4.443e-6
-1.324, 4.459e-6
-1.325, 4.491e-6
-1.326, 4.468e-6
-1.327, 4.474e-6
-1.328, 4.504e-6
-1.329, 4.515e-6
-1.330, 4.513e-6
-1.331, 4.521e-6
-1.332, 4.542e-6
-1.333, 4.555e-6
-1.334, 4.575e-6
-1.335, 4.576e-6
-1.336, 4.587e-6
-1.337, 4.610e-6
-1.338, 4.615e-6
-1.339, 4.607e-6
-1.340, 4.646e-6
-1.341, 4.637e-6
-1.342, 4.661e-6
-1.343, 4.658e-6
-1.344, 4.671e-6
-1.345, 4.682e-6
-1.346, 4.697e-6
-1.347, 4.725e-6
-1.348, 4.742e-6
-1.349, 4.741e-6
-1.350, 4.749e-6
-1.351, 4.806e-6
-1.352, 4.785e-6
-1.353, 4.817e-6
-1.354, 4.830e-6
-1.355, 4.847e-6
-1.356, 4.880e-6
-1.357, 4.893e-6
-1.358, 4.912e-6
-1.359, 4.939e-6
-1.360, 4.939e-6
-1.361, 4.974e-6
-1.362, 5.001e-6
-1.363, 5.023e-6
-1.364, 5.022e-6
-1.365, 5.076e-6
-1.366, 5.075e-6
-1.367, 5.121e-6
-1.368, 5.119e-6
-1.369, 5.161e-6
-1.370, 5.210e-6
-1.371, 5.254e-6
-1.372, 5.260e-6
-1.373, 5.314e-6
-1.374, 5.326e-6
-1.375, 5.359e-6
-1.376, 5.389e-6
-1.377, 5.406e-6
-1.378, 5.467e-6
-1.379, 5.488e-6
-1.380, 5.551e-6
-1.381, 5.564e-6
-1.382, 5.614e-6
-1.383, 5.661e-6
-1.384, 5.697e-6
-1.385, 5.732e-6
-1.386, 5.772e-6
-1.387, 5.812e-6
-1.388, 5.848e-6
-1.389, 5.925e-6
-1.390, 5.951e-6
-1.391, 6.004e-6
-1.392, 6.045e-6
-1.393, 6.090e-6
-1.394, 6.133e-6
-1.395, 6.189e-6
-1.396, 6.246e-6
-1.397, 6.288e-6
-1.398, 6.352e-6
-1.399, 6.382e-6
-1.400, 6.426e-6
-1.401, 6.492e-6
-1.402, 6.549e-6
-1.403, 6.605e-6
-1.404, 6.666e-6
-1.405, 6.731e-6
-1.406, 6.785e-6
-1.407, 6.824e-6
-1.408, 6.891e-6
-1.409, 6.977e-6
-1.410, 7.026e-6
-1.411, 7.094e-6
-1.412, 7.156e-6
-1.413, 7.221e-6
-1.414, 7.297e-6
-1.415, 7.343e-6
-1.416, 7.419e-6
-1.417, 7.487e-6
-1.418, 7.552e-6
-1.419, 7.628e-6
-1.420, 7.698e-6
-1.421, 7.802e-6
-1.422, 7.870e-6
-1.423, 7.969e-6
-1.424, 8.016e-6
-1.425, 8.092e-6
-1.426, 8.158e-6
-1.427, 8.237e-6
-1.428, 8.317e-6
-1.429, 8.380e-6
-1.430, 8.442e-6
-1.431, 8.532e-6
-1.432, 8.599e-6
-1.433, 8.709e-6
-1.434, 8.783e-6
-1.435, 8.881e-6
-1.436, 8.951e-6
-1.437, 9.031e-6
-1.438, 9.119e-6
-1.439, 9.207e-6
-1.440, 9.307e-6
-1.441, 9.390e-6
-1.442, 9.480e-6
-1.443, 9.559e-6
-1.444, 9.638e-6
-1.445, 9.731e-6
-1.446, 9.839e-6
-1.447, 9.925e-6
-1.448, 9.978e-6
-1.449, 1.011e-5
-1.450, 1.021e-5
-1.451, 1.028e-5
-1.452, 1.038e-5
-1.453, 1.046e-5
-1.454, 1.054e-5
-1.455, 1.064e-5
-1.456, 1.072e-5
-1.457, 1.079e-5
-1.458, 1.089e-5
-1.459, 1.097e-5
-1.460, 1.112e-5
-1.461, 1.121e-5
-1.462, 1.129e-5
-1.463, 1.143e-5
-1.464, 1.150e-5
-1.465, 1.163e-5
-1.466, 1.171e-5
-1.467, 1.180e-5
-1.468, 1.190e-5
-1.469, 1.203e-5
-1.470, 1.214e-5
-1.471, 1.223e-5
-1.472, 1.234e-5
-1.473, 1.246e-5
-1.474, 1.257e-5
-1.475, 1.267e-5
-1.476, 1.277e-5
-1.477, 1.288e-5
-1.478, 1.299e-5
-1.479, 1.311e-5
-1.480, 1.317e-5
-1.481, 1.329e-5
-1.482, 1.339e-5
-1.483, 1.351e-5
-1.484, 1.363e-5
-1.485, 1.377e-5
-1.486, 1.390e-5
-1.487, 1.401e-5
-1.488, 1.414e-5
-1.489, 1.426e-5
-1.490, 1.441e-5
-1.491, 1.448e-5
-1.492, 1.462e-5
-1.493, 1.478e-5
-1.494, 1.488e-5
-1.495, 1.501e-5
-1.496, 1.513e-5
-1.497, 1.539e-5
-1.498, 1.548e-5
-1.499, 1.558e-5
-1.500, 1.565e-5
-1.501, 1.581e-5
-1.502, 1.591e-5
-1.503, 1.608e-5
-1.504, 1.624e-5
-1.505, 1.641e-5
-1.506, 1.651e-5
-1.507, 1.667e-5
-1.508, 1.679e-5
-1.509, 1.696e-5
-1.510, 1.711e-5
-1.511, 1.729e-5
-1.512, 1.744e-5
-1.513, 1.758e-5
-1.514, 1.773e-5
-1.515, 1.790e-5
-1.516, 1.807e-5
-1.517, 1.823e-5
-1.518, 1.843e-5
-1.519, 1.865e-5
-1.520, 1.882e-5
-1.521, 1.904e-5
-1.522, 1.920e-5
-1.523, 1.942e-5
-1.524, 1.959e-5
-1.525, 1.979e-5
-1.526, 2.001e-5
-1.527, 2.019e-5
-1.528, 2.039e-5
-1.529, 2.059e-5
-1.530, 2.083e-5
-1.531, 2.101e-5
-1.532, 2.120e-5
-1.533, 2.143e-5
-1.534, 2.166e-5
-1.535, 2.190e-5
-1.536, 2.213e-5
-1.537, 2.234e-5
-1.538, 2.257e-5
-1.539, 2.282e-5
-1.540, 2.309e-5
-1.541, 2.334e-5
-1.542, 2.361e-5
-1.543, 2.389e-5
-1.544, 2.414e-5
-1.545, 2.442e-5
-1.546, 2.469e-5
-1.547, 2.494e-5
-1.548, 2.521e-5
-1.549, 2.553e-5
-1.550, 2.586e-5
-1.551, 2.622e-5
-1.552, 2.653e-5
-1.553, 2.686e-5
-1.554, 2.716e-5
-1.555, 2.755e-5
-1.556, 2.791e-5
-1.557, 2.825e-5
-1.558, 2.863e-5
-1.559, 2.899e-5
-1.560, 2.936e-5
-1.561, 2.977e-5
-1.562, 3.014e-5
-1.563, 3.062e-5
-1.564, 3.107e-5
-1.565, 3.147e-5
-1.566, 3.189e-5
-1.567, 3.230e-5
-1.568, 3.275e-5
-1.569, 3.319e-5
-1.570, 3.376e-5
-1.571, 3.420e-5
-1.572, 3.465e-5
-1.573, 3.514e-5
-1.574, 3.567e-5
-1.575, 3.624e-5
-1.576, 3.676e-5
-1.577, 3.728e-5
-1.578, 3.786e-5
-1.579, 3.842e-5
-1.580, 3.902e-5
-1.581, 3.964e-5
-1.582, 4.026e-5
-1.583, 4.087e-5
-1.584, 4.155e-5
-1.585, 4.216e-5
-1.586, 4.285e-5
-1.587, 4.357e-5
-1.588, 4.430e-5
-1.589, 4.504e-5
-1.590, 4.578e-5
-1.591, 4.657e-5
-1.592, 4.734e-5
-1.593, 4.819e-5
-1.594, 4.902e-5
-1.595, 4.985e-5
-1.596, 5.070e-5
-1.597, 5.162e-5
-1.598, 5.251e-5
-1.599, 5.342e-5
-1.600, 5.276e-5
-1.599, 5.169e-5
-1.598, 5.083e-5
-1.597, 5.015e-5
-1.596, 4.934e-5
-1.595, 4.862e-5
-1.594, 4.789e-5
-1.593, 4.714e-5
-1.592, 4.641e-5
-1.591, 4.569e-5
-1.590, 4.498e-5
-1.589, 4.423e-5
-1.588, 4.349e-5
-1.587, 4.278e-5
-1.586, 4.207e-5
-1.585, 4.141e-5
-1.584, 4.070e-5
-1.583, 4.004e-5
-1.582, 3.937e-5
-1.581, 3.872e-5
-1.580, 3.804e-5
-1.579, 3.738e-5
-1.578, 3.678e-5
-1.577, 3.614e-5
-1.576, 3.552e-5
-1.575, 3.494e-5
-1.574, 3.430e-5
-1.573, 3.376e-5
-1.572, 3.320e-5
-1.571, 3.262e-5
-1.570, 3.206e-5
-1.569, 3.150e-5
-1.568, 3.096e-5
-1.567, 3.046e-5
-1.566, 2.994e-5
-1.565, 2.942e-5
-1.564, 2.892e-5
-1.563, 2.837e-5
-1.562, 2.788e-5
-1.561, 2.741e-5
-1.560, 2.692e-5
-1.559, 2.651e-5
-1.558, 2.603e-5
-1.557, 2.561e-5
-1.556, 2.517e-5
-1.555, 2.474e-5
-1.554, 2.433e-5
-1.553, 2.388e-5
-1.552, 2.350e-5
-1.551, 2.308e-5
-1.550, 2.268e-5
-1.549, 2.230e-5
-1.548, 2.193e-5
-1.547, 2.158e-5
-1.546, 2.121e-5
-1.545, 2.086e-5
-1.544, 2.049e-5
-1.543, 2.018e-5
-1.542, 1.982e-5
-1.541, 1.945e-5
-1.540, 1.914e-5
-1.539, 1.881e-5
-1.538, 1.850e-5
-1.537, 1.818e-5
-1.536, 1.790e-5
-1.535, 1.760e-5
-1.534, 1.728e-5
-1.533, 1.699e-5
-1.532, 1.670e-5
-1.531, 1.641e-5
-1.530, 1.611e-5
-1.529, 1.594e-5
-1.528, 1.564e-5
-1.527, 1.535e-5
-1.526, 1.509e-5
-1.525, 1.484e-5
-1.524, 1.460e-5
-1.523, 1.434e-5
-1.522, 1.411e-5
-1.521, 1.389e-5
-1.520, 1.366e-5
-1.519, 1.341e-5
-1.518, 1.319e-5
-1.517, 1.300e-5
-1.516, 1.277e-5
-1.515, 1.255e-5
-1.514, 1.236e-5
-1.513, 1.216e-5
-1.512, 1.197e-5
-1.511, 1.177e-5
-1.510, 1.155e-5
-1.509, 1.138e-5
-1.508, 1.118e-5
-1.507, 1.103e-5
-1.506, 1.083e-5
-1.505, 1.065e-5
-1.504, 1.048e-5
-1.503, 1.031e-5
-1.502, 1.014e-5
-1.501, 9.988e-6
-1.500, 9.823e-6
-1.499, 9.680e-6
-1.498, 9.509e-6
-1.497, 9.349e-6
-1.496, 9.186e-6
-1.495, 9.061e-6
-1.494, 8.910e-6
-1.493, 8.764e-6
-1.492, 8.632e-6
-1.491, 8.484e-6
-1.490, 8.348e-6
-1.489, 8.200e-6
-1.488, 8.089e-6
-1.487, 7.973e-6
-1.486, 7.824e-6
-1.485, 7.686e-6
-1.484, 7.561e-6
-1.483, 7.441e-6
-1.482, 7.339e-6
-1.481, 7.198e-6
-1.480, 7.113e-6
-1.479, 6.989e-6
-1.478, 6.869e-6
-1.477, 6.747e-6
-1.476, 6.644e-6
-1.475, 6.535e-6
-1.474, 6.443e-6
-1.473, 6.341e-6
-1.472, 6.233e-6
-1.471, 6.120e-6
-1.470, 6.025e-6
-1.469, 5.920e-6
-1.468, 5.828e-6
-1.467, 5.731e-6
-1.466, 5.654e-6
-1.465, 5.540e-6
-1.464, 5.457e-6
-1.463, 5.367e-6
-1.462, 5.260e-6
-1.461, 5.191e-6
-1.460, 5.106e-6
-1.459, 5.025e-6
-1.458, 4.941e-6
-1.457, 4.875e-6
-1.456, 4.795e-6
-1.455, 4.716e-6
-1.454, 4.628e-6
-1.453, 4.558e-6
-1.452, 4.496e-6
-1.451, 4.398e-6
-1.450, 4.343e-6
-1.449, 4.271e-6
-1.448, 4.191e-6
-1.447, 4.126e-6
-1.446, 4.042e-6
-1.445, 3.983e-6
-1.444, 3.937e-6
-1.443, 3.856e-6
-1.442, 3.805e-6
-1.441, 3.728e-6
-1.440, 3.676e-6
-1.439, 3.600e-6
-1.438, 3.548e-6
-1.437, 3.485e-6
-1.436, 3.421e-6
-1.435, 3.356e-6
-1.434, 3.305e-6
-1.433, 3.238e-6
-1.432, 3.174e-6
-1.431, 3.114e-6
-1.430, 3.082e-6
-1.429, 3.030e-6
-1.428, 2.973e-6
-1.427, 2.931e-6
-1.426, 2.854e-6
-1.425, 2.830e-6
-1.424, 2.760e-6
-1.423, 2.740e-6
-1.422, 2.664e-6
-1.421, 2.657e-6
-1.420, 2.592e-6
-1.419, 2.548e-6
-1.418, 2.484e-6
-1.417, 2.451e-6
-1.416, 2.415e-6
-1.415, 2.375e-6
-1.414, 2.315e-6
-1.413, 2.284e-6
-1.412, 2.233e-6
-1.411, 2.190e-6
-1.410, 2.186e-6
-1.409, 2.139e-6
-1.408, 2.060e-6
-1.407, 2.059e-6
-1.406, 2.008e-6
-1.405, 1.971e-6
-1.404, 1.924e-6
-1.403, 1.910e-6
-1.402, 1.876e-6
-1.401, 1.806e-6
-1.400, 1.809e-6
-1.399, 1.763e-6
-1.398, 1.715e-6
-1.397, 1.694e-6
-1.396, 1.642e-6
-1.395, 1.630e-6
-1.394, 1.574e-6
-1.393, 1.570e-6
-1.392, 1.524e-6
-1.391, 1.492e-6
-1.390, 1.461e-6
-1.389, 1.430e-6
-1.388, 1.406e-6
-1.387, 1.369e-6
-1.386, 1.343e-6
-1.385, 1.333e-6
-1.384, 1.289e-6
-1.383, 1.259e-6
-1.382, 1.220e-6
-1.381, 1.206e-6
-1.380, 1.182e-6
-1.379, 1.134e-6
-1.378, 1.118e-6
-1.377, 1.079e-6
-1.376, 1.079e-6
-1.375, 1.059e-6
-1.374, 1.038e-6
-1.373, 1.003e-6
-1.372, 9.765e-7
-1.371, 9.440e-7
-1.370, 9.371e-7
-1.369, 9.085e-7
-1.368, 8.838e-7
-1.367, 8.473e-7
-1.366, 8.433e-7
-1.365, 8.147e-7
-1.364, 8.118e-7
-1.363, 7.565e-7
-1.362, 7.605e-7
-1.361, 7.240e-7
-1.360, 7.171e-7
-1.359, 6.796e-7
-1.358, 6.608e-7
-1.357, 6.490e-7
-1.356, 5.977e-7
-1.355, 6.243e-7
-1.354, 5.858e-7
-1.353, 5.829e-7
-1.352, 5.483e-7
-1.351, 5.197e-7
-1.350, 5.069e-7
-1.349, 4.842e-7
-1.348, 4.813e-7
-1.347, 4.467e-7
-1.346, 4.507e-7
-1.345, 4.270e-7
-1.344, 4.004e-7
-1.343, 4.004e-7
-1.342, 3.668e-7
-1.341, 3.658e-7
-1.340, 3.520e-7
-1.339, 3.185e-7
-1.338, 2.879e-7
-1.337, 2.978e-7
-1.336, 2.908e-7
-1.335, 2.553e-7
-1.334, 2.494e-7
-1.333, 2.376e-7
-1.332, 2.099e-7
-1.331, 1.951e-7
-1.330, 1.754e-7
-1.329, 1.774e-7
-1.328, 1.547e-7
-1.327, 1.517e-7
-1.326, 1.389e-7
-1.325, 1.093e-7
-1.324, 1.123e-7
-1.323, 8.465e-8
-1.322, 7.380e-8
-1.321, 6.788e-8
-1.320, 4.815e-8
-1.319, 3.631e-8
-1.318, 1.855e-8
-1.317, 2.151e-8
-1.316, -6.117e-9
-1.315, -6.117e-9
-1.314, -1.993e-8
-1.313, -4.459e-8
-1.312, -6.729e-8
-1.311, -6.137e-8
-1.310, -8.307e-8
-1.309, -8.208e-8
-1.308, -1.077e-7
-1.307, -1.166e-7
-1.306, -1.196e-7
-1.305, -1.245e-7
-1.304, -1.314e-7
-1.303, -1.571e-7
-1.302, -1.679e-7
-1.301, -1.659e-7
-1.300, -1.788e-7
-1.299, -1.936e-7
-1.298, -2.172e-7
-1.297, -2.094e-7
-1.296, -2.133e-7
-1.295, -2.390e-7
-1.294, -2.429e-7
-1.293, -2.607e-7
-1.292, -2.656e-7
-1.291, -2.932e-7
-1.290, -2.755e-7
-1.289, -3.001e-7
-1.288, -3.070e-7
-1.287, -3.120e-7
-1.286, -3.356e-7
-1.285, -3.317e-7
-1.284, -3.287e-7
-1.283, -3.425e-7
-1.282, -3.662e-7
-1.281, -3.564e-7
-1.280, -3.899e-7
-1.279, -3.929e-7
-1.278, -4.067e-7
-1.277, -4.106e-7
-1.276, -4.116e-7
-1.275, -4.284e-7
-1.274, -4.402e-7
-1.273, -4.471e-7
-1.272, -4.521e-7
-1.271, -4.619e-7
-1.270, -4.609e-7
-1.269, -4.846e-7
-1.268, -4.817e-7
-1.267, -4.836e-7
-1.266, -5.083e-7
-1.265, -5.063e-7
-1.264, -5.182e-7
-1.263, -5.300e-7
-1.262, -5.389e-7
-1.261, -5.330e-7
-1.260, -5.389e-7
-1.259, -5.695e-7
-1.258, -5.478e-7
-1.257, -5.675e-7
-1.256, -5.754e-7
-1.255, -6.020e-7
-1.254, -6.050e-7
-1.253, -6.109e-7
-1.252, -6.129e-7
-1.251, -6.198e-7
-1.250, -6.208e-7
-1.249, -6.375e-7
-1.248, -6.474e-7
-1.247, -6.435e-7
-1.246, -6.632e-7
-1.245, -6.731e-7
-1.244, -6.760e-7
-1.243, -6.888e-7
-1.242, -6.967e-7
-1.241, -7.086e-7
-1.240, -6.888e-7
-1.239, -7.234e-7
-1.238, -7.451e-7
-1.237, -7.263e-7
-1.236, -7.352e-7
-1.235, -7.480e-7
-1.234, -7.559e-7
-1.233, -7.549e-7
-1.232, -7.589e-7
-1.231, -7.944e-7
-1.230, -7.678e-7
-1.229, -8.033e-7
-1.228, -8.013e-7
-1.227, -8.220e-7
-1.226, -8.250e-7
-1.225, -8.181e-7
-1.224, -8.477e-7
-1.223, -8.487e-7
-1.222, -8.477e-7
-1.221, -8.684e-7
-1.220, -8.793e-7
-1.219, -8.723e-7
-1.218, -8.852e-7
-1.217, -8.911e-7
-1.216, -9.039e-7
-1.215, -9.108e-7
-1.214, -9.108e-7
-1.213, -9.286e-7
-1.212, -9.355e-7
-1.211, -9.345e-7
-1.210, -9.325e-7
-1.209, -9.552e-7
-1.208, -9.365e-7
-1.207, -9.532e-7
-1.206, -9.730e-7
-1.205, -9.671e-7
-1.204, -9.976e-7
-1.203, -9.828e-7
-1.202, -9.996e-7
-1.201, -1.001e-6
-1.200, -1.014e-6
-1.199, -1.018e-6
-1.198, -1.025e-6
-1.197, -1.027e-6
-1.196, -1.055e-6
-1.195, -1.049e-6
-1.194, -1.049e-6
-1.193, -1.080e-6
-1.192, -1.058e-6
-1.191, -1.081e-6
-1.190, -1.094e-6
-1.189, -1.098e-6
-1.188, -1.102e-6
-1.187, -1.117e-6
-1.186, -1.136e-6
-1.185, -1.112e-6
-1.184, -1.131e-6
-1.183, -1.136e-6
-1.182, -1.142e-6
-1.181, -1.143e-6
-1.180, -1.152e-6
-1.179, -1.168e-6
-1.178, -1.190e-6
-1.177, -1.201e-6
-1.176, -1.191e-6
-1.175, -1.198e-6
-1.174, -1.214e-6
-1.173, -1.222e-6
-1.172, -1.216e-6
-1.171, -1.217e-6
-1.170, -1.223e-6
-1.169, -1.250e-6
-1.168, -1.251e-6
-1.167, -1.246e-6
-1.166, -1.261e-6
-1.165, -1.268e-6
-1.164, -1.287e-6
-1.163, -1.287e-6
-1.162, -1.290e-6
-1.161, -1.303e-6
-1.160, -1.299e-6
-1.159, -1.321e-6
-1.158, -1.318e-6
-1.157, -1.318e-6
-1.156, -1.333e-6
-1.155, -1.354e-6
-1.154, -1.347e-6
-1.153, -1.360e-6
-1.152, -1.380e-6
-1.151, -1.381e-6
-1.150, -1.386e-6
-1.149, -1.389e-6
-1.148, -1.399e-6
-1.147, -1.401e-6
-1.146, -1.412e-6
-1.145, -1.410e-6
-1.144, -1.432e-6
-1.143, -1.433e-6
-1.142, -1.449e-6
-1.141, -1.443e-6
-1.140, -1.450e-6
-1.139, -1.459e-6
-1.138, -1.478e-6
-1.137, -1.480e-6
-1.136, -1.485e-6
-1.135, -1.489e-6
-1.134, -1.493e-6
-1.133, -1.517e-6
-1.132, -1.521e-6
-1.131, -1.530e-6
-1.130, -1.523e-6
-1.129, -1.550e-6
-1.128, -1.552e-6
-1.127, -1.558e-6
-1.126, -1.588e-6
-1.125, -1.586e-6
-1.124, -1.593e-6
-1.123, -1.597e-6
-1.122, -1.606e-6
-1.121, -1.610e-6
-1.120, -1.615e-6
-1.119, -1.621e-6
-1.118, -1.643e-6
-1.117, -1.631e-6
-1.116, -1.654e-6
-1.115, -1.655e-6
-1.114, -1.660e-6
-1.113, -1.690e-6
-1.112, -1.691e-6
-1.111, -1.708e-6
-1.110, -1.695e-6
-1.109, -1.716e-6
-1.108, -1.727e-6
-1.107, -1.738e-6
-1.106, -1.731e-6
-1.105, -1.744e-6
-1.104, -1.756e-6
-1.103, -1.767e-6
-1.102, -1.775e-6
-1.101, -1.801e-6
-1.100, -1.794e-6
-1.099, -1.803e-6
-1.098, -1.827e-6
-1.097, -1.822e-6
-1.096, -1.832e-6
-1.095, -1.840e-6
-1.094, -1.864e-6
-1.093, -1.856e-6
-1.092, -1.871e-6
-1.091, -1.885e-6
-1.090, -1.886e-6
-1.089, -1.907e-6
-1.088, -1.918e-6
-1.087, -1.925e-6
-1.086, -1.933e-6
-1.085, -1.948e-6
-1.084, -1.955e-6
-1.083, -1.971e-6
-1.082, -1.961e-6
-1.081, -1.995e-6
-1.080, -1.992e-6
-1.079, -2.001e-6
-1.078, -2.015e-6
-1.077, -2.019e-6
-1.076, -2.046e-6
-1.075, -2.054e-6
-1.074, -2.075e-6
-1.073, -2.084e-6
-1.072, -2.093e-6
-1.071, -2.103e-6
-1.070, -2.119e-6
-1.069, -2.128e-6
-1.068, -2.146e-6
-1.067, -2.143e-6
-1.066, -2.177e-6
-1.065, -2.150e-6
-1.064, -2.183e-6
-1.063, -2.189e-6
-1.062, -2.215e-6
-1.061, -2.213e-6
-1.060, -2.221e-6
-1.059, -2.247e-6
-1.058, -2.247e-6
-1.057, -2.276e-6
-1.056, -2.276e-6
-1.055, -2.289e-6
-1.054, -2.320e-6
-1.053, -2.315e-6
-1.052, -2.330e-6
-1.051, -2.352e-6
-1.050, -2.356e-6
-1.049, -2.380e-6
-1.048, -2.382e-6
-1.047, -2.395e-6
-1.046, -2.416e-6
-1.045, -2.410e-6
-1.044, -2.443e-6
-1.043, -2.454e-6
-1.042, -2.469e-6
-1.041, -2.486e-6
-1.040, -2.491e-6
-1.039, -2.487e-6
-1.038, -2.535e-6
-1.037, -2.523e-6
-1.036, -2.566e-6
-1.035, -2.565e-6
-1.034, -2.594e-6
-1.033, -2.595e-6
-1.032, -2.618e-6
-1.031, -2.632e-6
-1.030, -2.642e-6
-1.029, -2.648e-6
-1.028, -2.673e-6
-1.027, -2.701e-6
-1.026, -2.704e-6
-1.025, -2.722e-6
-1.024, -2.743e-6
-1.023, -2.759e-6
-1.022, -2.789e-6
-1.021, -2.809e-6
-1.020, -2.807e-6
-1.019, -2.822e-6
-1.018, -2.823e-6
-1.017, -2.859e-6
-1.016, -2.892e-6
-1.015, -2.882e-6
-1.014, -2.914e-6
-1.013, -2.910e-6
-1.012, -2.935e-6
-1.011, -2.956e-6
-1.010, -2.955e-6
-1.009, -2.982e-6
-1.008, -3.021e-6
-1.007, -3.025e-6
-1.006, -3.055e-6
-1.005, -3.047e-6
-1.004, -3.069e-6
-1.003, -3.099e-6
-1.002, -3.096e-6
-1.001, -3.136e-6
-1.000, -2.692e-6
-1.001, -2.338e-6
-1.002, -2.115e-6
-1.003, -1.956e-6
-1.004, -1.799e-6
-1.005, -1.673e-6
-1.006, -1.537e-6
-1.007, -1.435e-6
-1.008, -1.320e-6
-1.009, -1.245e-6
-1.010, -1.134e-6
-1.011, -1.072e-6
-1.012, -9.799e-7
-1.013, -8.891e-7
-1.014, -8.418e-7
-1.015, -7.737e-7
-1.016, -7.175e-7
-1.017, -6.602e-7
-1.018, -6.168e-7
-1.019, -5.665e-7
-1.020, -4.984e-7
-1.021, -4.590e-7
-1.022, -4.136e-7
-1.023, -3.603e-7
-1.024, -3.337e-7
-1.025, -2.834e-7
-1.026, -2.360e-7
-1.027, -2.113e-7
-1.028, -1.837e-7
-1.029, -1.403e-7
-1.030, -1.206e-7
-1.031, -7.617e-8
-1.032, -3.966e-8
-1.033, -3.769e-8
-1.034, -2.171e-9
-1.035, 2.052e-8
-1.036, 4.321e-8
-1.037, 8.070e-8
-1.038, 9.748e-8
-1.039, 1.212e-7
-1.040, 1.517e-7
-1.041, 1.705e-7
-1.042, 1.843e-7
-1.043, 2.040e-7
-1.044, 2.366e-7
-1.045, 2.317e-7
-1.046, 2.741e-7
-1.047, 2.869e-7
-1.048, 2.978e-7
-1.049, 3.106e-7
-1.050, 3.560e-7
-1.051, 3.589e-7
-1.052, 3.698e-7
-1.053, 3.836e-7
-1.054, 3.905e-7
-1.055, 4.043e-7
-1.056, 4.171e-7
-1.057, 4.586e-7
-1.058, 4.576e-7
-1.059, 4.813e-7
-1.060, 4.753e-7
-1.061, 4.941e-7
-1.062, 5.020e-7
-1.063, 5.257e-7
-1.064, 5.296e-7
-1.065, 5.474e-7
-1.066, 5.493e-7
-1.067, 5.710e-7
-1.068, 5.651e-7
-1.069, 6.095e-7
-1.070, 5.829e-7
-1.071, 6.145e-7
-1.072, 6.184e-7
-1.073, 6.460e-7
-1.074, 6.381e-7
-1.075, 6.687e-7
-1.076, 6.648e-7
-1.077, 6.884e-7
-1.078, 6.924e-7
-1.079, 6.904e-7
-1.080, 7.289e-7
-1.081, 7.171e-7
-1.082, 7.397e-7
-1.083, 7.279e-7
-1.084, 7.358e-7
-1.085, 7.565e-7
-1.086, 7.743e-7
-1.087, 7.713e-7
-1.088, 7.802e-7
-1.089, 7.940e-7
-1.090, 8.078e-7
-1.091, 8.078e-7
-1.092, 8.177e-7
-1.093, 8.345e-7
-1.094, 8.374e-7
-1.095, 8.453e-7
-1.096, 8.404e-7
-1.097, 8.572e-7
-1.098, 8.729e-7
-1.099, 8.798e-7
-1.100, 8.828e-7
-1.101, 9.006e-7
-1.102, 9.075e-7
-1.103, 9.203e-7
-1.104, 9.144e-7
-1.105, 9.262e-7
-1.106, 9.282e-7
-1.107, 9.489e-7
-1.108, 9.410e-7
-1.109, 9.381e-7
-1.110, 9.746e-7
-1.111, 9.706e-7
-1.112, 9.765e-7
-1.113, 9.815e-7
-1.114, 9.953e-7
-1.115, 1.014e-6
-1.116, 9.963e-7
-1.117, 1.019e-6
-1.118, 1.009e-6
-1.119, 1.038e-6
-1.120, 1.030e-6
-1.121, 1.052e-6
-1.122, 1.058e-6
-1.123, 1.069e-6
-1.124, 1.060e-6
-1.125, 1.079e-6
-1.126, 1.090e-6
-1.127, 1.105e-6
-1.128, 1.109e-6
-1.129, 1.108e-6
-1.130, 1.122e-6
-1.131, 1.122e-6
-1.132, 1.137e-6
-1.133, 1.141e-6
-1.134, 1.126e-6
-1.135, 1.163e-6
-1.136, 1.160e-6
-1.137, 1.169e-6
-1.138, 1.169e-6
-1.139, 1.173e-6
-1.140, 1.182e-6
-1.141, 1.197e-6
-1.142, 1.204e-6
-1.143, 1.225e-6
-1.144, 1.228e-6
-1.145, 1.220e-6
-1.146, 1.234e-6
-1.147, 1.236e-6
-1.148, 1.254e-6
-1.149, 1.252e-6
-1.150, 1.253e-6
-1.151, 1.261e-6
-1.152, 1.287e-6
-1.153, 1.271e-6
-1.154, 1.304e-6
-1.155, 1.295e-6
-1.156, 1.295e-6
-1.157, 1.317e-6
-1.158, 1.317e-6
-1.159, 1.325e-6
-1.160, 1.336e-6
-1.161, 1.327e-6
-1.162, 1.343e-6
-1.163, 1.343e-6
-1.164, 1.359e-6
-1.165, 1.364e-6
-1.166, 1.375e-6
-1.167, 1.378e-6
-1.168, 1.400e-6
-1.169, 1.393e-6
-1.170, 1.406e-6
-1.171, 1.424e-6
-1.172, 1.426e-6
-1.173, 1.420e-6
-1.174, 1.434e-6
-1.175, 1.433e-6
-1.176, 1.441e-6
-1.177, 1.424e-6
-1.178, 1.463e-6
-1.179, 1.487e-6
-1.180, 1.483e-6
-1.181, 1.485e-6
-1.182, 1.498e-6
-1.183, 1.502e-6
-1.184, 1.498e-6
-1.185, 1.521e-6
-1.186, 1.522e-6
-1.187, 1.537e-6
-1.188, 1.544e-6
-1.189, 1.549e-6
-1.190, 1.555e-6
-1.191, 1.576e-6
-1.192, 1.565e-6
-1.193, 1.590e-6
-1.194, 1.594e-6
-1.195, 1.616e-6
-1.196, 1.606e-6
-1.197, 1.607e-6
-1.198, 1.618e-6
-1.199, 1.625e-6
-1.200, 1.637e-6
-1.201, 1.643e-6
-1.202, 1.636e-6
-1.203, 1.657e-6
-1.204, 1.681e-6
-1.205, 1.666e-6
-1.206, 1.678e-6
-1.207, 1.699e-6
-1.208, 1.704e-6
-1.209, 1.713e-6
-1.210, 1.714e-6
-1.211, 1.717e-6
-1.212, 1.730e-6
-1.213, 1.726e-6
-1.214, 1.743e-6
-1.215, 1.755e-6
-1.216, 1.776e-6
-1.217, 1.790e-6
-1.218, 1.786e-6
-1.219, 1.784e-6
-1.220, 1.800e-6
-1.221, 1.794e-6
-1.222, 1.812e-6
-1.223, 1.829e-6
-1.224, 1.825e-6
-1.225, 1.826e-6
-1.226, 1.860e-6
-1.227, 1.846e-6
-1.228, 1.864e-6
-1.229, 1.888e-6
-1.230, 1.896e-6
-1.231, 1.891e-6
-1.232, 1.897e-6
-1.233, 1.924e-6
-1.234, 1.928e-6
-1.235, 1.952e-6
-1.236, 1.934e-6
-1.237, 1.956e-6
-1.238, 1.948e-6
-1.239, 1.965e-6
-1.240, 1.978e-6
-1.241, 1.974e-6
-1.242, 2.011e-6
-1.243, 2.000e-6
-1.244, 2.016e-6
-1.245, 2.025e-6
-1.246, 2.009e-6
-1.247, 2.030e-6
-1.248, 2.042e-6
-1.249, 2.048e-6
-1.250, 2.054e-6
-1.251, 2.062e-6
-1.252, 2.081e-6
-1.253, 2.076e-6
-1.254, 2.087e-6
-1.255, 2.103e-6
-1.256, 2.101e-6
-1.257, 2.096e-6
-1.258, 2.131e-6
-1.259, 2.124e-6
-1.260, 2.159e-6
-1.261, 2.138e-6
-1.262, 2.155e-6
-1.263, 2.154e-6
-1.264, 2.174e-6
-1.265, 2.173e-6
-1.266, 2.194e-6
-1.267, 2.203e-6
-1.268, 2.211e-6
-1.269, 2.225e-6
-1.270, 2.220e-6
-1.271, 2.250e-6
-1.272, 2.247e-6
-1.273, 2.249e-6
-1.274, 2.263e-6
-1.275, 2.278e-6
-1.276, 2.263e-6
-1.277, 2.285e-6
-1.278, 2.294e-6
-1.279, 2.286e-6
-1.280, 2.312e-6
-1.281, 2.311e-6
-1.282, 2.324e-6
-1.283, 2.333e-6
-1.284, 2.347e-6
-1.285, 2.348e-6
-1.286, 2.349e-6
-1.287, 2.362e-6
-1.288, 2.371e-6
-1.289, 2.372e-6
-1.290, 2.391e-6
-1.291, 2.377e-6
-1.292, 2.405e-6
-1.293, 2.414e-6
-1.294, 2.429e-6
-1.295, 2.429e-6
-1.296, 2.453e-6
-1.297, 2.439e-6
-1.298, 2.463e-6
-1.299, 2.462e-6
-1.300, 2.465e-6
-1.301, 2.467e-6
-1.302, 2.466e-6
-1.303, 2.511e-6
-1.304, 2.498e-6
-1.305, 2.509e-6
-1.306, 2.523e-6
-1.307, 2.536e-6
-1.308, 2.529e-6
-1.309, 2.549e-6
-1.310, 2.558e-6
-1.311, 2.572e-6
-1.312, 2.591e-6
-1.313, 2.587e-6
-1.314, 2.585e-6
-1.315, 2.599e-6
-1.316, 2.617e-6
-1.317, 2.620e-6
-1.318, 2.639e-6
-1.319, 2.651e-6
-1.320, 2.663e-6
-1.321, 2.672e-6
-1.322, 2.688e-6
-1.323, 2.674e-6
-1.324, 2.717e-6
-1.325, 2.691e-6
-1.326, 2.728e-6
-1.327, 2.739e-6
-1.328, 2.718e-6
-1.329, 2.758e-6
-1.330, 2.756e-6
-1.331, 2.772e-6
-1.332, 2.796e-6
-1.333, 2.792e-6
-1.334, 2.817e-6
-1.335, 2.830e-6
-1.336, 2.817e-6
-1.337, 2.859e-6
-1.338, 2.854e-6
-1.339, 2.871e-6
-1.340, 2.884e-6
-1.341, 2.901e-6
-1.342, 2.902e-6
-1.343, 2.908e-6
-1.344, 2.926e-6
-1.345, 2.951e-6
-1.346, 2.962e-6
-1.347, 2.973e-6
-1.348, 2.984e-6
-1.349, 3.011e-6
-1.350, 3.014e-6
-1.351, 3.040e-6
-1.352, 3.048e-6
-1.353, 3.055e-6
-1.354, 3.089e-6
-1.355, 3.087e-6
-1.356, 3.109e-6
-1.357, 3.118e-6
-1.358, 3.139e-6
-1.359, 3.168e-6
-1.360, 3.166e-6
-1.361, 3.175e-6
-1.362, 3.209e-6
-1.363, 3.228e-6
-1.364, 3.262e-6
-1.365, 3.266e-6
-1.366, 3.286e-6
-1.367, 3.316e-6
-1.368, 3.329e-6
-1.369, 3.340e-6
-1.370, 3.364e-6
-1.371, 3.386e-6
-1.372, 3.397e-6
-1.373, 3.420e-6
-1.374, 3.445e-6
-1.375, 3.473e-6
-1.376, 3.475e-6
-1.377, 3.509e-6
-1.378, 3.522e-6
-1.379, 3.554e-6
-1.380, 3.552e-6
-1.381, 3.591e-6
-1.382, 3.618e-6
-1.383, 3.633e-6
-1.384, 3.660e-6
-1.385, 3.680e-6
-1.386, 3.692e-6
-1.387, 3.754e-6
-1.388, 3.777e-6
-1.389, 3.801e-6
-1.390, 3.806e-6
-1.391, 3.861e-6
-1.392, 3.865e-6
-1.393, 3.897e-6
-1.394, 3.946e-6
-1.395, 3.959e-6
-1.396, 3.994e-6
-1.397, 4.018e-6
-1.398, 4.031e-6
-1.399, 4.073e-6
-1.400, 4.096e-6
-1.401, 4.111e-6
-1.402, 4.155e-6
-1.403, 4.184e-6
-1.404, 4.215e-6
-1.405, 4.228e-6
-1.406, 4.254e-6
-1.407, 4.298e-6
-1.408, 4.348e-6
-1.409, 4.383e-6
-1.410, 4.398e-6
-1.411, 4.439e-6
-1.412, 4.469e-6
-1.413, 4.485e-6
-1.414, 4.543e-6
-1.415, 4.563e-6
-1.416, 4.605e-6
-1.417, 4.637e-6
-1.418, 4.679e-6
-1.419, 4.714e-6
-1.420, 4.733e-6
-1.421, 4.770e-6
-1.422, 4.810e-6
-1.423, 4.861e-6
-1.424, 4.912e-6
-1.425, 4.941e-6
-1.426, 4.953e-6
-1.427, 5.024e-6
-1.428, 5.048e-6
-1.429, 5.088e-6
-1.430, 5.131e-6
-1.431, 5.180e-6
-1.432, 5.198e-6
-1.433, 5.272e-6
-1.434, 5.312e-6
-1.435, 5.355e-6
-1.436, 5.402e-6
-1.437, 5.428e-6
-1.438, 5.471e-6
-1.439, 5.529e-6
-1.440, 5.581e-6
-1.441, 5.619e-6
-1.442, 5.691e-6
-1.443, 5.719e-6
-1.444, 5.797e-6
-1.445, 5.822e-6
-1.446, 5.869e-6
-1.447, 5.941e-6
-1.448, 5.973e-6
-1.449, 6.014e-6
-1.450, 6.075e-6
-1.451, 6.131e-6
-1.452, 6.191e-6
-1.453, 6.240e-6
-1.454, 6.282e-6
-1.455, 6.349e-6
-1.456, 6.411e-6
-1.457, 6.464e-6
-1.458, 6.533e-6
-1.459, 6.580e-6
-1.460, 6.640e-6
-1.461, 6.686e-6
-1.462, 6.770e-6
-1.463, 6.817e-6
-1.464, 6.865e-6
-1.465, 6.942e-6
-1.466, 6.997e-6
-1.467, 7.072e-6
-1.468, 7.134e-6
-1.469, 7.202e-6
-1.470, 7.275e-6
-1.471, 7.343e-6
-1.472, 7.408e-6
-1.473, 7.464e-6
-1.474, 7.533e-6
-1.475, 7.623e-6
-1.476, 7.694e-6
-1.477, 7.743e-6
-1.478, 7.836e-6
-1.479, 7.911e-6
-1.480, 8.008e-6
-1.481, 8.057e-6
-1.482, 8.152e-6
-1.483, 8.203e-6
-1.484, 8.317e-6
-1.485, 8.396e-6
-1.486, 8.474e-6
-1.487, 8.566e-6
-1.488, 8.639e-6
-1.489, 8.726e-6
-1.490, 8.809e-6
-1.491, 8.907e-6
-1.492, 8.985e-6
-1.493, 9.098e-6
-1.494, 9.173e-6
-1.495, 9.247e-6
-1.496, 9.352e-6
-1.497, 9.452e-6
-1.498, 9.553e-6
-1.499, 9.639e-6
-1.500, 9.747e-6
-1.501, 9.862e-6
-1.502, 9.960e-6
-1.503, 1.003e-5
-1.504, 1.014e-5
-1.505, 1.025e-5
-1.506, 1.038e-5
-1.507, 1.049e-5
-1.508, 1.059e-5
-1.509, 1.073e-5
-1.510, 1.084e-5
-1.511, 1.095e-5
-1.512, 1.109e-5
-1.513, 1.121e-5
-1.514, 1.135e-5
-1.515, 1.145e-5
-1.516, 1.157e-5
-1.517, 1.171e-5
-1.518, 1.187e-5
-1.519, 1.196e-5
-1.520, 1.213e-5
-1.521, 1.224e-5
-1.522, 1.239e-5
-1.523, 1.255e-5
-1.524, 1.270e-5
-1.525, 1.284e-5
-1.526, 1.301e-5
-1.527, 1.316e-5
-1.528, 1.332e-5
-1.529, 1.348e-5
-1.530, 1.367e-5
-1.531, 1.381e-5
-1.532, 1.401e-5
-1.533, 1.416e-5
-1.534, 1.435e-5
-1.535, 1.455e-5
-1.536, 1.471e-5
-1.537, 1.493e-5
-1.538, 1.511e-5
-1.539, 1.531e-5
-1.540, 1.550e-5
-1.541, 1.570e-5
-1.542, 1.594e-5
-1.543, 1.614e-5
-1.544, 1.634e-5
-1.545, 1.658e-5
-1.546, 1.681e-5
-1.547, 1.706e-5
-1.548, 1.731e-5
-1.549, 1.753e-5
-1.550, 1.780e-5
-1.551, 1.800e-5
-1.552, 1.829e-5
-1.553, 1.854e-5
-1.554, 1.883e-5
-1.555, 1.909e-5
-1.556, 1.939e-5
-1.557, 1.966e-5
-1.558, 1.996e-5
-1.559, 2.028e-5
-1.560, 2.059e-5
-1.561, 2.090e-5
-1.562, 2.123e-5
-1.563, 2.153e-5
-1.564, 2.188e-5
-1.565, 2.226e-5
-1.566, 2.262e-5
-1.567, 2.301e-5
-1.568, 2.336e-5
-1.569, 2.376e-5
-1.570, 2.412e-5
-1.571, 2.454e-5
-1.572, 2.494e-5
-1.573, 2.537e-5
-1.574, 2.578e-5
-1.575, 2.626e-5
-1.576, 2.668e-5
-1.577, 2.713e-5
-1.578, 2.762e-5
-1.579, 2.813e-5
-1.580, 2.862e-5
-1.581, 2.912e-5
-1.582, 2.964e-5
-1.583, 3.019e-5
-1.584, 3.074e-5
-1.585, 3.129e-5
-1.586, 3.192e-5
-1.587, 3.250e-5
-1.588, 3.312e-5
-1.589, 3.374e-5
-1.590, 3.440e-5
-1.591, 3.504e-5
-1.592, 3.570e-5
-1.593, 3.640e-5
-1.594, 3.710e-5
-1.595, 3.783e-5
-1.596, 3.857e-5
-1.597, 3.935e-5
-1.598, 4.011e-5
-1.599, 4.094e-5
-1.600, 4.029e-5
-1.599, 3.939e-5
-1.598, 3.872e-5
-1.597, 3.807e-5
-1.596, 3.746e-5
-1.595, 3.683e-5
-1.594, 3.622e-5
-1.593, 3.564e-5
-1.592, 3.499e-5
-1.591, 3.442e-5
-1.590, 3.381e-5
-1.589, 3.323e-5
-1.588, 3.264e-5
-1.587, 3.205e-5
-1.586, 3.150e-5
-1.585, 3.095e-5
-1.584, 3.042e-5
-1.583, 2.988e-5
-1.582, 2.935e-5
-1.581, 2.883e-5
-1.580, 2.831e-5
-1.579, 2.781e-5
-1.578, 2.731e-5
-1.577, 2.683e-5
-1.576, 2.631e-5
-1.575, 2.583e-5
-1.574, 2.538e-5
-1.573, 2.492e-5
-1.572, 2.446e-5
-1.571, 2.402e-5
-1.570, 2.359e-5
-1.569, 2.317e-5
-1.568, 2.277e-5
-1.567, 2.237e-5
-1.566, 2.193e-5
-1.565, 2.159e-5
-1.564, 2.116e-5
-1.563, 2.083e-5
-1.562, 2.043e-5
-1.561, 2.005e-5
-1.560, 1.971e-5
-1.559, 1.935e-5
-1.558, 1.898e-5
-1.557, 1.867e-5
-1.556, 1.833e-5
-1.555, 1.798e-5
-1.554, 1.769e-5
-1.553, 1.735e-5
-1.552, 1.707e-5
-1.551, 1.677e-5
-1.550, 1.641e-5
-1.549, 1.615e-5
-1.548, 1.587e-5
-1.547, 1.556e-5
-1.546, 1.529e-5
-1.545, 1.501e-5
-1.544, 1.474e-5
-1.543, 1.448e-5
-1.542, 1.419e-5
-1.541, 1.398e-5
-1.540, 1.372e-5
-1.539, 1.347e-5
-1.538, 1.323e-5
-1.537, 1.299e-5
-1.536, 1.278e-5
-1.535, 1.255e-5
-1.534, 1.233e-5
-1.533, 1.212e-5
-1.532, 1.191e-5
-1.531, 1.169e-5
-1.530, 1.150e-5
-1.529, 1.125e-5
-1.528, 1.108e-5
-1.527, 1.092e-5
-1.526, 1.071e-5
-1.525, 1.052e-5
-1.524, 1.032e-5
-1.523, 1.016e-5
-1.522, 9.960e-6
-1.521, 9.803e-6
-1.520, 9.628e-6
-1.519, 9.458e-6
-1.518, 9.286e-6
-1.517, 9.146e-6
-1.516, 8.980e-6
-1.515, 8.819e-6
-1.514, 8.654e-6
-1.513, 8.534e-6
-1.512, 8.375e-6
-1.511, 8.225e-6
-1.510, 8.087e-6
-1.509, 7.952e-6
-1.508, 7.809e-6
-1.507, 7.660e-6
-1.506, 7.528e-6
-1.505, 7.396e-6
-1.504, 7.279e-6
-1.503, 7.157e-6
-1.502, 7.037e-6
-1.501, 6.929e-6
-1.500, 6.815e-6
-1.499, 6.688e-6
-1.498, 6.568e-6
-1.497, 6.456e-6
-1.496, 6.366e-6
-1.495, 6.245e-6
-1.494, 6.142e-6
-1.493, 6.039e-6
-1.492, 5.937e-6
-1.491, 5.826e-6
-1.490, 5.732e-6
-1.489, 5.643e-6
-1.488, 5.528e-6
-1.487, 5.452e-6
-1.486, 5.332e-6
-1.485, 5.234e-6
-1.484, 5.165e-6
-1.483, 5.079e-6
-1.482, 4.987e-6
-1.481, 4.903e-6
-1.480, 4.826e-6
-1.479, 4.727e-6
-1.478, 4.680e-6
-1.477, 4.577e-6
-1.476, 4.510e-6
-1.475, 4.421e-6
-1.474, 4.341e-6
-1.473, 4.271e-6
-1.472, 4.196e-6
-1.471, 4.150e-6
-1.470, 4.051e-6
-1.469, 4.003e-6
-1.468, 3.924e-6
-1.467, 3.867e-6
-1.466, 3.796e-6
-1.465, 3.732e-6
-1.464, 3.683e-6
-1.463, 3.627e-6
-1.462, 3.565e-6
-1.461, 3.495e-6
-1.460, 3.440e-6
-1.459, 3.353e-6
-1.458, 3.316e-6
-1.457, 3.262e-6
-1.456, 3.216e-6
-1.455, 3.139e-6
-1.454, 3.103e-6
-1.453, 3.034e-6
-1.452, 2.981e-6
-1.451, 2.949e-6
-1.450, 2.890e-6
-1.449, 2.861e-6
-1.448, 2.793e-6
-1.447, 2.752e-6
-1.446, 2.682e-6
-1.445, 2.646e-6
-1.444, 2.607e-6
-1.443, 2.559e-6
-1.442, 2.508e-6
-1.441, 2.469e-6
-1.440, 2.407e-6
-1.439, 2.368e-6
-1.438, 2.336e-6
-1.437, 2.281e-6
-1.436, 2.252e-6
-1.435, 2.205e-6
-1.434, 2.161e-6
-1.433, 2.130e-6
-1.432, 2.086e-6
-1.431, 2.061e-6
-1.430, 2.009e-6
-1.429, 1.979e-6
-1.428, 1.935e-6
-1.427, 1.901e-6
-1.426, 1.893e-6
-1.425, 1.849e-6
-1.424, 1.798e-6
-1.423, 1.760e-6
-1.422, 1.742e-6
-1.421, 1.724e-6
-1.420, 1.678e-6
-1.419, 1.621e-6
-1.418, 1.618e-6
-1.417, 1.562e-6
-1.416, 1.537e-6
-1.415, 1.540e-6
-1.414, 1.470e-6
-1.413, 1.474e-6
-1.412, 1.414e-6
-1.411, 1.407e-6
-1.410, 1.373e-6
-1.409, 1.338e-6
-1.408, 1.304e-6
-1.407, 1.269e-6
-1.406, 1.252e-6
-1.405, 1.246e-6
-1.404, 1.221e-6
-1.403, 1.176e-6
-1.402, 1.164e-6
-1.401, 1.132e-6
-1.400, 1.102e-6
-1.399, 1.090e-6
-1.398, 1.052e-6
-1.397, 1.043e-6
-1.396, 1.007e-6
-1.395, 9.963e-7
-1.394, 9.627e-7
-1.393, 9.450e-7
-1.392, 9.252e-7
-1.391, 8.966e-7
-1.390, 8.690e-7
-1.389, 8.493e-7
-1.388, 8.394e-7
-1.387, 8.157e-7
-1.386, 8.009e-7
-1.385, 7.624e-7
-1.384, 7.624e-7
-1.383, 7.388e-7
-1.382, 7.161e-7
-1.381, 6.736e-7
-1.380, 6.638e-7
-1.379, 6.786e-7
-1.378, 6.411e-7
-1.377, 6.342e-7
-1.376, 6.075e-7
-1.375, 6.006e-7
-1.374, 5.789e-7
-1.373, 5.562e-7
-1.372, 5.405e-7
-1.371, 5.237e-7
-1.370, 5.118e-7
-1.369, 4.586e-7
-1.368, 4.704e-7
-1.367, 4.438e-7
-1.366, 4.526e-7
-1.365, 4.211e-7
-1.364, 3.954e-7
-1.363, 3.865e-7
-1.362, 3.806e-7
-1.361, 3.767e-7
-1.360, 3.629e-7
-1.359, 3.303e-7
-1.358, 3.175e-7
-1.357, 2.987e-7
-1.356, 2.928e-7
-1.355, 2.701e-7
-1.354, 2.613e-7
-1.353, 2.277e-7
-1.352, 2.307e-7
-1.351, 2.297e-7
-1.350, 2.080e-7
-1.349, 1.803e-7
-1.348, 1.725e-7
-1.347, 1.626e-7
-1.346, 1.557e-7
-1.345, 1.429e-7
-1.344, 1.290e-7
-1.343, 1.093e-7
-1.342, 1.073e-7
-1.341, 7.182e-8
-1.340, 7.972e-8
-1.339, 6.097e-8
-1.338, 5.111e-8
-1.337, 4.716e-8
-1.336, 3.433e-8
-1.335, 2.545e-8
-1.334, -6.117e-9
-1.333, -5.130e-9
-1.332, -2.092e-8
-1.331, -2.388e-8
-1.330, -4.953e-8
-1.329, -6.235e-8
-1.328, -6.433e-8
-1.327, -6.729e-8
-1.326, -8.208e-8
-1.325, -8.800e-8
-1.324, -1.166e-7
-1.323, -1.048e-7
-1.322, -1.314e-7
-1.321, -1.393e-7
-1.320, -1.452e-7
-1.319, -1.472e-7
-1.318, -1.699e-7
-1.317, -1.837e-7
-1.316, -1.837e-7
-1.315, -2.094e-7
-1.314, -2.123e-7
-1.313, -2.222e-7
-1.312, -2.202e-7
-1.311, -2.449e-7
-1.310, -2.478e-7
-1.309, -2.587e-7
-1.308, -2.774e-7
-1.307, -2.597e-7
-1.306, -2.853e-7
-1.305, -3.149e-7
-1.304, -3.060e-7
-1.303, -3.189e-7
-1.302, -3.317e-7
-1.301, -3.218e-7
-1.300, -3.228e-7
-1.299, -3.613e-7
-1.298, -3.485e-7
-1.297, -3.761e-7
-1.296, -3.682e-7
-1.295, -3.869e-7
-1.294, -3.761e-7
-1.293, -3.938e-7
-1.292, -4.057e-7
-1.291, -4.156e-7
-1.290, -4.323e-7
-1.289, -4.284e-7
-1.288, -4.244e-7
-1.287, -4.481e-7
-1.286, -4.530e-7
-1.285, -4.530e-7
-1.284, -4.669e-7
-1.283, -4.994e-7
-1.282, -4.797e-7
-1.281, -5.014e-7
-1.280, -4.965e-7
-1.279, -5.132e-7
-1.278, -5.201e-7
-1.277, -5.093e-7
-1.276, -5.290e-7
-1.275, -5.527e-7
-1.274, -5.507e-7
-1.273, -5.399e-7
-1.272, -5.635e-7
-1.271, -5.655e-7
-1.270, -5.754e-7
-1.269, -5.922e-7
-1.268, -5.764e-7
-1.267, -6.158e-7
-1.266, -5.902e-7
-1.265, -6.139e-7
-1.264, -6.277e-7
-1.263, -6.139e-7
-1.262, -6.306e-7
-1.261, -6.287e-7
-1.260, -6.533e-7
-1.259, -6.523e-7
-1.258, -6.504e-7
-1.257, -6.632e-7
-1.256, -6.701e-7
-1.255, -6.849e-7
-1.254, -6.879e-7
-1.253, -7.056e-7
-1.252, -6.908e-7
-1.251, -7.086e-7
-1.250, -7.214e-7
-1.249, -7.313e-7
-1.248, -7.283e-7
-1.247, -7.470e-7
-1.246, -7.382e-7
-1.245, -7.451e-7
-1.244, -7.490e-7
-1.243, -7.618e-7
-1.242, -7.717e-7
-1.241, -7.796e-7
-1.240, -7.885e-7
-1.239, -7.924e-7
-1.238, -7.875e-7
-1.237, -7.964e-7
-1.236, -7.984e-7
-1.235, -8.299e-7
-1.234, -8.191e-7
-1.233, -8.339e-7
-1.232, -8.368e-7
-1.231, -8.378e-7
-1.230, -8.477e-7
-1.229, -8.615e-7
-1.228, -8.733e-7
-1.227, -8.871e-7
-1.226, -8.891e-7
-1.225, -9.158e-7
-1.224, -8.990e-7
-1.223, -9.098e-7
-1.222, -9.217e-7
-1.221, -9.227e-7
-1.220, -9.463e-7
-1.219, -9.296e-7
-1.218, -9.463e-7
-1.217, -9.463e-7
-1.216, -9.513e-7
-1.215, -9.611e-7
-1.214, -9.641e-7
-1.213, -9.690e-7
-1.212, -9.809e-7
-1.211, -9.819e-7
-1.210, -9.828e-7
-1.209, -1.008e-6
-1.208, -9.917e-7
-1.207, -1.012e-6
-1.206, -1.016e-6
-1.205, -1.002e-6
-1.204, -1.039e-6
-1.203, -1.041e-6
-1.202, -1.044e-6
-1.201, -1.056e-6
-1.200, -1.059e-6
-1.199, -1.055e-6
-1.198, -1.077e-6
-1.197, -1.078e-6
-1.196, -1.077e-6
-1.195, -1.091e-6
-1.194, -1.092e-6
-1.193, -1.110e-6
-1.192, -1.098e-6
-1.191, -1.105e-6
-1.190, -1.136e-6
-1.189, -1.131e-6
-1.188, -1.143e-6
-1.187, -1.156e-6
-1.186, -1.142e-6
-1.185, -1.164e-6
-1.184, -1.156e-6
-1.183, -1.173e-6
-1.182, -1.168e-6
-1.181, -1.175e-6
-1.180, -1.209e-6
-1.179, -1.190e-6
-1.178, -1.209e-6
-1.177, -1.218e-6
-1.176, -1.214e-6
-1.175, -1.229e-6
-1.174, -1.234e-6
-1.173, -1.243e-6
-1.172, -1.248e-6
-1.171, -1.277e-6
-1.170, -1.251e-6
-1.169, -1.268e-6
-1.168, -1.280e-6
-1.167, -1.286e-6
-1.166, -1.273e-6
-1.165, -1.296e-6
-1.164, -1.303e-6
-1.163, -1.309e-6
-1.162, -1.300e-6
-1.161, -1.315e-6
-1.160, -1.328e-6
-1.159, -1.338e-6
-1.158, -1.330e-6
-1.157, -1.349e-6
-1.156, -1.346e-6
-1.155, -1.364e-6
-1.154, -1.368e-6
-1.153, -1.369e-6
-1.152, -1.411e-6
-1.151, -1.393e-6
-1.150, -1.412e-6
-1.149, -1.414e-6
-1.148, -1.411e-6
-1.147, -1.423e-6
-1.146, -1.416e-6
-1.145, -1.440e-6
-1.144, -1.441e-6
-1.143, -1.445e-6
-1.142, -1.452e-6
-1.141, -1.476e-6
-1.140, -1.466e-6
-1.139, -1.506e-6
-1.138, -1.493e-6
-1.137, -1.499e-6
-1.136, -1.509e-6
-1.135, -1.510e-6
-1.134, -1.520e-6
-1.133, -1.529e-6
-1.132, -1.538e-6
-1.131, -1.548e-6
-1.130, -1.567e-6
-1.129, -1.573e-6
-1.128, -1.566e-6
-1.127, -1.581e-6
-1.126, -1.580e-6
-1.125, -1.614e-6
-1.124, -1.604e-6
-1.123, -1.609e-6
-1.122, -1.635e-6
-1.121, -1.614e-6
-1.120, -1.654e-6
-1.119, -1.653e-6
-1.118, -1.648e-6
-1.117, -1.659e-6
-1.116, -1.665e-6
-1.115, -1.682e-6
-1.114, -1.688e-6
-1.113, -1.693e-6
-1.112, -1.701e-6
-1.111, -1.718e-6
-1.110, -1.731e-6
-1.109, -1.739e-6
-1.108, -1.750e-6
-1.107, -1.757e-6
-1.106, -1.771e-6
-1.105, -1.773e-6
-1.104, -1.786e-6
-1.103, -1.792e-6
-1.102, -1.822e-6
-1.101, -1.820e-6
-1.100, -1.820e-6
-1.099, -1.841e-6
-1.098, -1.831e-6
-1.097, -1.863e-6
-1.096, -1.860e-6
-1.095, -1.877e-6
-1.094, -1.890e-6
-1.093, -1.895e-6
-1.092, -1.914e-6
-1.091, -1.912e-6
-1.090, -1.923e-6
-1.089, -1.938e-6
-1.088, -1.949e-6
-1.087, -1.968e-6
-1.086, -1.967e-6
-1.085, -1.990e-6
-1.084, -1.994e-6
-1.083, -2.018e-6
-1.082, -2.020e-6
-1.081, -2.039e-6
-1.080, -2.035e-6
-1.079, -2.060e-6
-1.078, -2.082e-6
-1.077, -2.075e-6
-1.076, -2.095e-6
-1.075, -2.118e-6
-1.074, -2.123e-6
-1.073, -2.137e-6
-1.072, -2.140e-6
-1.071, -2.151e-6
-1.070, -2.158e-6
-1.069, -2.189e-6
-1.068, -2.191e-6
-1.067, -2.219e-6
-1.066, -2.220e-6
-1.065, -2.231e-6
-1.064, -2.247e-6
-1.063, -2.259e-6
-1.062, -2.283e-6
-1.061, -2.282e-6
-1.060, -2.307e-6
-1.059, -2.317e-6
-1.058, -2.322e-6
-1.057, -2.348e-6
-1.056, -2.334e-6
-1.055, -2.374e-6
-1.054, -2.386e-6
-1.053, -2.400e-6
-1.052, -2.420e-6
-1.051, -2.431e-6
-1.050, -2.446e-6
-1.049, -2.453e-6
-1.048, -2.486e-6
-1.047, -2.477e-6
-1.046, -2.507e-6
-1.045, -2.523e-6
-1.044, -2.530e-6
-1.043, -2.563e-6
-1.042, -2.566e-6
-1.041, -2.584e-6
-1.040, -2.594e-6
-1.039, -2.597e-6
-1.038, -2.627e-6
-1.037, -2.654e-6
-1.036, -2.671e-6
-1.035, -2.681e-6
-1.034, -2.695e-6
-1.033, -2.704e-6
-1.032, -2.742e-6
-1.031, -2.731e-6
-1.030, -2.757e-6
-1.029, -2.779e-6
-1.028, -2.781e-6
-1.027, -2.802e-6
-1.026, -2.808e-6
-1.025, -2.838e-6
-1.024, -2.879e-6
-1.023, -2.891e-6
-1.022, -2.909e-6
-1.021, -2.922e-6
-1.020, -2.937e-6
-1.019, -2.951e-6
-1.018, -2.978e-6
-1.017, -2.982e-6
-1.016, -2.996e-6
-1.015, -3.031e-6
-1.014, -3.036e-6
-1.013, -3.058e-6
-1.012, -3.077e-6
-1.011, -3.108e-6
-1.010, -3.107e-6
-1.009, -3.125e-6
-1.008, -3.159e-6
-1.007, -3.190e-6
-1.006, -3.181e-6
-1.005, -3.207e-6
-1.004, -3.218e-6
-1.003, -3.237e-6
-1.002, -3.262e-6
-1.001, -3.280e-6
-1.000, -2.848e-6
-1.001, -2.486e-6
-1.002, -2.253e-6
-1.003, -2.071e-6
-1.004, -1.899e-6
-1.005, -1.769e-6
-1.006, -1.635e-6
-1.007, -1.532e-6
-1.008, -1.399e-6
-1.009, -1.313e-6
-1.010, -1.222e-6
-1.011, -1.136e-6
-1.012, -1.051e-6
-1.013, -9.661e-7
-1.014, -9.098e-7
-1.015, -8.201e-7
-1.016, -7.796e-7
-1.017, -7.115e-7
-1.018, -6.504e-7
-1.019, -6.257e-7
-1.020, -5.665e-7
-1.021, -5.142e-7
-1.022, -4.777e-7
-1.023, -4.254e-7
-1.024, -3.544e-7
-1.025, -3.366e-7
-1.026, -2.893e-7
-1.027, -2.508e-7
-1.028, -2.320e-7
-1.029, -1.837e-7
-1.030, -1.600e-7
-1.031, -1.028e-7
-1.032, -9.096e-8
-1.033, -6.433e-8
-1.034, -3.473e-8
-1.035, -3.571e-8
-1.036, 2.644e-8
-1.037, 4.420e-8
-1.038, 7.380e-8
-1.039, 7.972e-8
-1.040, 1.083e-7
-1.041, 1.251e-7
-1.042, 1.468e-7
-1.043, 1.695e-7
-1.044, 1.991e-7
-1.045, 2.228e-7
-1.046, 2.366e-7
-1.047, 2.524e-7
-1.048, 2.652e-7
-1.049, 2.859e-7
-1.050, 3.076e-7
-1.051, 3.274e-7
-1.052, 3.392e-7
-1.053, 3.313e-7
-1.054, 3.648e-7
-1.055, 3.826e-7
-1.056, 3.856e-7
-1.057, 4.211e-7
-1.058, 4.102e-7
-1.059, 4.477e-7
-1.060, 4.457e-7
-1.061, 4.684e-7
-1.062, 4.753e-7
-1.063, 4.694e-7
-1.064, 5.128e-7
-1.065, 5.148e-7
-1.066, 5.237e-7
-1.067, 5.286e-7
-1.068, 5.326e-7
-1.069, 5.562e-7
-1.070, 5.553e-7
-1.071, 5.760e-7
-1.072, 5.849e-7
-1.073, 5.977e-7
-1.074, 5.898e-7
-1.075, 6.322e-7
-1.076, 6.342e-7
-1.077, 6.381e-7
-1.078, 6.579e-7
-1.079, 6.717e-7
-1.080, 6.687e-7
-1.081, 6.756e-7
-1.082, 6.924e-7
-1.083, 6.954e-7
-1.084, 7.220e-7
-1.085, 6.944e-7
-1.086, 7.269e-7
-1.087, 7.279e-7
-1.088, 7.397e-7
-1.089, 7.575e-7
-1.090, 7.624e-7
-1.091, 7.713e-7
-1.092, 7.772e-7
-1.093, 7.792e-7
-1.094, 7.999e-7
-1.095, 8.088e-7
-1.096, 8.098e-7
-1.097, 8.088e-7
-1.098, 8.216e-7
-1.099, 8.295e-7
-1.100, 8.473e-7
-1.101, 8.660e-7
-1.102, 8.542e-7
-1.103, 8.700e-7
-1.104, 8.710e-7
-1.105, 8.769e-7
-1.106, 8.848e-7
-1.107, 8.937e-7
-1.108, 9.104e-7
-1.109, 9.154e-7
-1.110, 9.075e-7
-1.111, 9.371e-7
-1.112, 9.311e-7
-1.113, 9.351e-7
-1.114, 9.519e-7
-1.115, 9.420e-7
-1.116, 9.746e-7
-1.117, 9.736e-7
-1.118, 9.815e-7
-1.119, 9.943e-7
-1.120, 9.913e-7
-1.121, 1.000e-6
-1.122, 1.012e-6
-1.123, 1.003e-6
-1.124, 1.023e-6
-1.125, 1.011e-6
-1.126, 1.036e-6
-1.127, 1.046e-6
-1.128, 1.066e-6
-1.129, 1.071e-6
-1.130, 1.075e-6
-1.131, 1.068e-6
-1.132, 1.079e-6
-1.133, 1.097e-6
-1.134, 1.083e-6
-1.135, 1.102e-6
-1.136, 1.113e-6
-1.137, 1.109e-6
-1.138, 1.115e-6
-1.139, 1.138e-6
-1.140, 1.140e-6
-1.141, 1.142e-6
-1.142, 1.150e-6
-1.143, 1.153e-6
-1.144, 1.167e-6
-1.145, 1.159e-6
-1.146, 1.181e-6
-1.147, 1.182e-6
-1.148, 1.208e-6
-1.149, 1.190e-6
-1.150, 1.194e-6
-1.151, 1.212e-6
-1.152, 1.233e-6
-1.153, 1.230e-6
-1.154, 1.239e-6
-1.155, 1.242e-6
-1.156, 1.254e-6
-1.157, 1.262e-6
-1.158, 1.269e-6
-1.159, 1.293e-6
-1.160, 1.296e-6
-1.161, 1.290e-6
-1.162, 1.293e-6
-1.163, 1.310e-6
-1.164, 1.328e-6
-1.165, 1.317e-6
-1.166, 1.339e-6
-1.167, 1.330e-6
-1.168, 1.348e-6
-1.169, 1.341e-6
-1.170, 1.350e-6
-1.171, 1.362e-6
-1.172, 1.364e-6
-1.173, 1.377e-6
-1.174, 1.380e-6
-1.175, 1.392e-6
-1.176, 1.401e-6
-1.177, 1.428e-6
-1.178, 1.425e-6
-1.179, 1.426e-6
-1.180, 1.441e-6
-1.181, 1.429e-6
-1.182, 1.466e-6
-1.183, 1.463e-6
-1.184, 1.474e-6
-1.185, 1.466e-6
-1.186, 1.481e-6
-1.187, 1.485e-6
-1.188, 1.504e-6
-1.189, 1.501e-6
-1.190, 1.518e-6
-1.191, 1.524e-6
-1.192, 1.527e-6
-1.193, 1.528e-6
-1.194, 1.543e-6
-1.195, 1.546e-6
-1.196, 1.554e-6
-1.197, 1.546e-6
-1.198, 1.567e-6
-1.199, 1.584e-6
-1.200, 1.585e-6
-1.201, 1.605e-6
-1.202, 1.609e-6
-1.203, 1.622e-6
-1.204, 1.619e-6
-1.205, 1.644e-6
-1.206, 1.641e-6
-1.207, 1.647e-6
-1.208, 1.646e-6
-1.209, 1.657e-6
-1.210, 1.669e-6
-1.211, 1.674e-6
-1.212, 1.683e-6
-1.213, 1.678e-6
-1.214, 1.705e-6
-1.215, 1.699e-6
-1.216, 1.719e-6
-1.217, 1.725e-6
-1.218, 1.738e-6
-1.219, 1.735e-6
-1.220, 1.760e-6
-1.221, 1.747e-6
-1.222, 1.773e-6
-1.223, 1.771e-6
-1.224, 1.776e-6
-1.225, 1.788e-6
-1.226, 1.799e-6
-1.227, 1.784e-6
-1.228, 1.809e-6
-1.229, 1.847e-6
-1.230, 1.834e-6
-1.231, 1.852e-6
-1.232, 1.847e-6
-1.233, 1.866e-6
-1.234, 1.869e-6
-1.235, 1.871e-6
-1.236, 1.886e-6
-1.237, 1.886e-6
-1.238, 1.892e-6
-1.239, 1.907e-6
-1.240, 1.909e-6
-1.241, 1.919e-6
-1.242, 1.936e-6
-1.243, 1.938e-6
-1.244, 1.950e-6
-1.245, 1.950e-6
-1.246, 1.949e-6
-1.247, 1.973e-6
-1.248, 1.975e-6
-1.249, 1.980e-6
-1.250, 1.996e-6
-1.251, 1.982e-6
-1.252, 2.010e-6
-1.253, 2.013e-6
-1.254, 2.029e-6
-1.255, 2.025e-6
-1.256, 2.034e-6
-1.257, 2.045e-6
-1.258, 2.046e-6
-1.259, 2.062e-6
-1.260, 2.047e-6
-1.261, 2.079e-6
-1.262, 2.080e-6
-1.263, 2.085e-6
-1.264, 2.092e-6
-1.265, 2.089e-6
-1.266, 2.110e-6
-1.267, 2.115e-6
-1.268, 2.116e-6
-1.269, 2.135e-6
-1.270, 2.147e-6
-1.271, 2.150e-6
-1.272, 2.147e-6
-1.273, 2.149e-6
-1.274, 2.169e-6
-1.275, 2.161e-6
-1.276, 2.188e-6
-1.277, 2.182e-6
-1.278, 2.194e-6
-1.279, 2.184e-6
-1.280, 2.217e-6
-1.281, 2.230e-6
-1.282, 2.230e-6
-1.283, 2.246e-6
-1.284, 2.234e-6
-1.285, 2.234e-6
-1.286, 2.271e-6
-1.287, 2.248e-6
-1.288, 2.272e-6
-1.289, 2.276e-6
-1.290, 2.279e-6
-1.291, 2.285e-6
-1.292, 2.301e-6
-1.293, 2.300e-6
-1.294, 2.316e-6
-1.295, 2.305e-6
-1.296, 2.338e-6
-1.297, 2.327e-6
-1.298, 2.336e-6
-1.299, 2.351e-6
-1.300, 2.350e-6
-1.301, 2.365e-6
-1.302, 2.367e-6
-1.303, 2.373e-6
-1.304, 2.380e-6
-1.305, 2.384e-6
-1.306, 2.401e-6
-1.307, 2.399e-6
-1.308, 2.397e-6
-1.309, 2.435e-6
-1.310, 2.416e-6
-1.311, 2.443e-6
-1.312, 2.445e-6
-1.313, 2.447e-6
-1.314, 2.448e-6
-1.315, 2.466e-6
-1.316, 2.476e-6
-1.317, 2.501e-6
-1.318, 2.499e-6
-1.319, 2.514e-6
-1.320, 2.519e-6
-1.321, 2.535e-6
-1.322, 2.531e-6
-1.323, 2.538e-6
-1.324, 2.558e-6
-1.325, 2.551e-6
-1.326, 2.574e-6
-1.327, 2.578e-6
-1.328, 2.591e-6
-1.329, 2.592e-6
-1.330, 2.599e-6
-1.331, 2.619e-6
-1.332, 2.635e-6
-1.333, 2.619e-6
-1.334, 2.661e-6
-1.335, 2.649e-6
-1.336, 2.681e-6
-1.337, 2.680e-6
-1.338, 2.689e-6
-1.339, 2.692e-6
-1.340, 2.719e-6
-1.341, 2.728e-6
-1.342, 2.736e-6
-1.343, 2.743e-6
-1.344, 2.765e-6
-1.345, 2.767e-6
-1.346, 2.808e-6
-1.347, 2.791e-6
-1.348, 2.815e-6
-1.349, 2.822e-6
-1.350, 2.818e-6
-1.351, 2.879e-6
-1.352, 2.850e-6
-1.353, 2.856e-6
-1.354, 2.905e-6
-1.355, 2.910e-6
-1.356, 2.918e-6
-1.357, 2.945e-6
-1.358, 2.936e-6
-1.359, 2.979e-6
-1.360, 2.974e-6
-1.361, 2.987e-6
-1.362, 3.012e-6
-1.363, 3.028e-6
-1.364, 3.045e-6
-1.365, 3.081e-6
-1.366, 3.065e-6
-1.367, 3.084e-6
-1.368, 3.109e-6
-1.369, 3.124e-6
-1.370, 3.154e-6
-1.371, 3.147e-6
-1.372, 3.177e-6
-1.373, 3.194e-6
-1.374, 3.201e-6
-1.375, 3.225e-6
-1.376, 3.254e-6
-1.377, 3.267e-6
-1.378, 3.281e-6
-1.379, 3.310e-6
-1.380, 3.321e-6
-1.381, 3.331e-6
-1.382, 3.367e-6
-1.383, 3.387e-6
-1.384, 3.415e-6
-1.385, 3.423e-6
-1.386, 3.462e-6
-1.387, 3.474e-6
-1.388, 3.504e-6
-1.389, 3.520e-6
-1.390, 3.536e-6
-1.391, 3.567e-6
-1.392, 3.597e-6
-1.393, 3.602e-6
-1.394, 3.655e-6
-1.395, 3.659e-6
-1.396, 3.687e-6
-1.397, 3.706e-6
-1.398, 3.736e-6
-1.399, 3.767e-6
-1.400, 3.794e-6
-1.401, 3.824e-6
-1.402, 3.845e-6
-1.403, 3.879e-6
-1.404, 3.916e-6
-1.405, 3.921e-6
-1.406, 3.976e-6
-1.407, 3.982e-6
-1.408, 4.013e-6
-1.409, 4.055e-6
-1.410, 4.087e-6
-1.411, 4.106e-6
-1.412, 4.119e-6
-1.413, 4.160e-6
-1.414, 4.192e-6
-1.415, 4.232e-6
-1.416, 4.262e-6
-1.417, 4.298e-6
-1.418, 4.327e-6
-1.419, 4.369e-6
-1.420, 4.393e-6
-1.421, 4.427e-6
-1.422, 4.456e-6
-1.423, 4.500e-6
-1.424, 4.525e-6
-1.425, 4.563e-6
-1.426, 4.602e-6
-1.427, 4.653e-6
-1.428, 4.683e-6
-1.429, 4.718e-6
-1.430, 4.774e-6
-1.431, 4.804e-6
-1.432, 4.833e-6
-1.433, 4.868e-6
-1.434, 4.916e-6
-1.435, 4.963e-6
-1.436, 5.007e-6
-1.437, 5.033e-6
-1.438, 5.098e-6
-1.439, 5.140e-6
-1.440, 5.163e-6
-1.441, 5.195e-6
-1.442, 5.243e-6
-1.443, 5.290e-6
-1.444, 5.331e-6
-1.445, 5.382e-6
-1.446, 5.435e-6
-1.447, 5.456e-6
-1.448, 5.520e-6
-1.449, 5.575e-6
-1.450, 5.607e-6
-1.451, 5.677e-6
-1.452, 5.715e-6
-1.453, 5.766e-6
-1.454, 5.827e-6
-1.455, 5.860e-6
-1.456, 5.920e-6
-1.457, 5.975e-6
-1.458, 6.027e-6
-1.459, 6.085e-6
-1.460, 6.113e-6
-1.461, 6.202e-6
-1.462, 6.248e-6
-1.463, 6.315e-6
-1.464, 6.354e-6
-1.465, 6.425e-6
-1.466, 6.487e-6
-1.467, 6.535e-6
-1.468, 6.590e-6
-1.469, 6.664e-6
-1.470, 6.696e-6
-1.471, 6.789e-6
-1.472, 6.813e-6
-1.473, 6.900e-6
-1.474, 6.956e-6
-1.475, 7.024e-6
-1.476, 7.096e-6
-1.477, 7.148e-6
-1.478, 7.220e-6
-1.479, 7.301e-6
-1.480, 7.349e-6
-1.481, 7.423e-6
-1.482, 7.503e-6
-1.483, 7.575e-6
-1.484, 7.642e-6
-1.485, 7.713e-6
-1.486, 7.788e-6
-1.487, 7.855e-6
-1.488, 7.936e-6
-1.489, 8.021e-6
-1.490, 8.115e-6
-1.491, 8.182e-6
-1.492, 8.260e-6
-1.493, 8.346e-6
-1.494, 8.454e-6
-1.495, 8.514e-6
-1.496, 8.607e-6
-1.497, 8.674e-6
-1.498, 8.797e-6
-1.499, 8.850e-6
-1.500, 8.943e-6
-1.501, 9.049e-6
-1.502, 9.140e-6
-1.503, 9.244e-6
-1.504, 9.336e-6
-1.505, 9.428e-6
-1.506, 9.541e-6
-1.507, 9.635e-6
-1.508, 9.741e-6
-1.509, 9.854e-6
-1.510, 9.950e-6
-1.511, 1.007e-5
-1.512, 1.021e-5
-1.513, 1.030e-5
-1.514, 1.044e-5
-1.515, 1.053e-5
-1.516, 1.066e-5
-1.517, 1.080e-5
-1.518, 1.092e-5
-1.519, 1.104e-5
-1.520, 1.118e-5
-1.521, 1.132e-5
-1.522, 1.143e-5
-1.523, 1.157e-5
-1.524, 1.173e-5
-1.525, 1.184e-5
-1.526, 1.198e-5
-1.527, 1.215e-5
-1.528, 1.228e-5
-1.529, 1.242e-5
-1.530, 1.260e-5
-1.531, 1.276e-5
-1.532, 1.291e-5
-1.533, 1.305e-5
-1.534, 1.325e-5
-1.535, 1.339e-5
-1.536, 1.358e-5
-1.537, 1.375e-5
-1.538, 1.393e-5
-1.539, 1.412e-5
-1.540, 1.433e-5
-1.541, 1.450e-5
-1.542, 1.470e-5
-1.543, 1.491e-5
-1.544, 1.513e-5
-1.545, 1.531e-5
-1.546, 1.556e-5
-1.547, 1.574e-5
-1.548, 1.597e-5
-1.549, 1.619e-5
-1.550, 1.646e-5
-1.551, 1.668e-5
-1.552, 1.693e-5
-1.553, 1.717e-5
-1.554, 1.743e-5
-1.555, 1.768e-5
-1.556, 1.799e-5
-1.557, 1.821e-5
-1.558, 1.849e-5
-1.559, 1.878e-5
-1.560, 1.907e-5
-1.561, 1.934e-5
-1.562, 1.969e-5
-1.563, 1.997e-5
-1.564, 2.031e-5
-1.565, 2.063e-5
-1.566, 2.098e-5
-1.567, 2.132e-5
-1.568, 2.165e-5
-1.569, 2.204e-5
-1.570, 2.239e-5
-1.571, 2.278e-5
-1.572, 2.319e-5
-1.573, 2.358e-5
-1.574, 2.402e-5
-1.575, 2.442e-5
-1.576, 2.488e-5
-1.577, 2.530e-5
-1.578, 2.575e-5
-1.579, 2.621e-5
-1.580, 2.670e-5
-1.581, 2.715e-5
-1.582, 2.768e-5
-1.583, 2.819e-5
-1.584, 2.874e-5
-1.585, 2.926e-5
-1.586, 2.984e-5
-1.587, 3.042e-5
-1.588, 3.104e-5
-1.589, 3.160e-5
-1.590, 3.226e-5
-1.591, 3.288e-5
-1.592, 3.352e-5
-1.593, 3.420e-5
-1.594, 3.489e-5
-1.595, 3.558e-5
-1.596, 3.628e-5
-1.597, 3.706e-5
-1.598, 3.784e-5
-1.599, 3.864e-5
-1.600, 3.800e-5
-1.599, 3.707e-5
-1.598, 3.641e-5
-1.597, 3.579e-5
-1.596, 3.518e-5
-1.595, 3.455e-5
-1.594, 3.397e-5
-1.593, 3.338e-5
-1.592, 3.278e-5
-1.591, 3.222e-5
-1.590, 3.163e-5
-1.589, 3.107e-5
-1.588, 3.049e-5
-1.587, 2.991e-5
-1.586, 2.939e-5
-1.585, 2.883e-5
-1.584, 2.833e-5
-1.583, 2.780e-5
-1.582, 2.732e-5
-1.581, 2.682e-5
-1.580, 2.629e-5
-1.579, 2.583e-5
-1.578, 2.534e-5
-1.577, 2.488e-5
-1.576, 2.442e-5
-1.575, 2.394e-5
-1.574, 2.353e-5
-1.573, 2.310e-5
-1.572, 2.267e-5
-1.571, 2.225e-5
-1.570, 2.180e-5
-1.569, 2.140e-5
-1.568, 2.101e-5
-1.567, 2.063e-5
-1.566, 2.025e-5
-1.565, 1.986e-5
-1.564, 1.953e-5
-1.563, 1.913e-5
-1.562, 1.879e-5
-1.561, 1.841e-5
-1.560, 1.808e-5
-1.559, 1.774e-5
-1.558, 1.739e-5
-1.557, 1.710e-5
-1.556, 1.677e-5
-1.555, 1.645e-5
-1.554, 1.617e-5
-1.553, 1.587e-5
-1.552, 1.559e-5
-1.551, 1.528e-5
-1.550, 1.502e-5
-1.549, 1.472e-5
-1.548, 1.446e-5
-1.547, 1.420e-5
-1.546, 1.393e-5
-1.545, 1.368e-5
-1.544, 1.344e-5
-1.543, 1.319e-5
-1.542, 1.295e-5
-1.541, 1.276e-5
-1.540, 1.250e-5
-1.539, 1.227e-5
-1.538, 1.206e-5
-1.537, 1.183e-5
-1.536, 1.160e-5
-1.535, 1.138e-5
-1.534, 1.119e-5
-1.533, 1.099e-5
-1.532, 1.080e-5
-1.531, 1.059e-5
-1.530, 1.041e-5
-1.529, 1.022e-5
-1.528, 1.002e-5
-1.527, 9.842e-6
-1.526, 9.661e-6
-1.525, 9.520e-6
-1.524, 9.325e-6
-1.523, 9.155e-6
-1.522, 8.994e-6
-1.521, 8.833e-6
-1.520, 8.680e-6
-1.519, 8.555e-6
-1.518, 8.379e-6
-1.517, 8.260e-6
-1.516, 8.099e-6
-1.515, 7.955e-6
-1.514, 7.813e-6
-1.513, 7.709e-6
-1.512, 7.558e-6
-1.511, 7.431e-6
-1.510, 7.268e-6
-1.509, 7.159e-6
-1.508, 7.019e-6
-1.507, 6.906e-6
-1.506, 6.819e-6
-1.505, 6.671e-6
-1.504, 6.552e-6
-1.503, 6.444e-6
-1.502, 6.341e-6
-1.501, 6.281e-6
-1.500, 6.153e-6
-1.499, 6.036e-6
-1.498, 5.909e-6
-1.497, 5.779e-6
-1.496, 5.685e-6
-1.495, 5.578e-6
-1.494, 5.492e-6
-1.493, 5.402e-6
-1.492, 5.293e-6
-1.491, 5.174e-6
-1.490, 5.102e-6
-1.489, 5.002e-6
-1.488, 4.908e-6
-1.487, 4.825e-6
-1.486, 4.758e-6
-1.485, 4.665e-6
-1.484, 4.562e-6
-1.483, 4.482e-6
-1.482, 4.424e-6
-1.481, 4.350e-6
-1.480, 4.277e-6
-1.479, 4.215e-6
-1.478, 4.108e-6
-1.477, 4.053e-6
-1.476, 3.979e-6
-1.475, 3.904e-6
-1.474, 3.839e-6
-1.473, 3.759e-6
-1.472, 3.705e-6
-1.471, 3.644e-6
-1.470, 3.573e-6
-1.469, 3.513e-6
-1.468, 3.454e-6
-1.467, 3.391e-6
-1.466, 3.350e-6
-1.465, 3.273e-6
-1.464, 3.221e-6
-1.463, 3.172e-6
-1.462, 3.101e-6
-1.461, 3.040e-6
-1.460, 2.994e-6
-1.459, 2.925e-6
-1.458, 2.890e-6
-1.457, 2.833e-6
-1.456, 2.781e-6
-1.455, 2.740e-6
-1.454, 2.690e-6
-1.453, 2.629e-6
-1.452, 2.592e-6
-1.451, 2.535e-6
-1.450, 2.522e-6
-1.449, 2.439e-6
-1.448, 2.391e-6
-1.447, 2.369e-6
-1.446, 2.311e-6
-1.445, 2.279e-6
-1.444, 2.242e-6
-1.443, 2.191e-6
-1.442, 2.168e-6
-1.441, 2.127e-6
-1.440, 2.088e-6
-1.439, 2.032e-6
-1.438, 2.000e-6
-1.437, 1.950e-6
-1.436, 1.915e-6
-1.435, 1.903e-6
-1.434, 1.822e-6
-1.433, 1.808e-6
-1.432, 1.764e-6
-1.431, 1.737e-6
-1.430, 1.704e-6
-1.429, 1.686e-6
-1.428, 1.647e-6
-1.427, 1.620e-6
-1.426, 1.574e-6
-1.425, 1.570e-6
-1.424, 1.510e-6
-1.423, 1.491e-6
-1.422, 1.460e-6
-1.421, 1.423e-6
-1.420, 1.396e-6
-1.419, 1.360e-6
-1.418, 1.347e-6
-1.417, 1.309e-6
-1.416, 1.274e-6
-1.415, 1.246e-6
-1.414, 1.228e-6
-1.413, 1.204e-6
-1.412, 1.172e-6
-1.411, 1.134e-6
-1.410, 1.114e-6
-1.409, 1.097e-6
-1.408, 1.077e-6
-1.407, 1.049e-6
-1.406, 1.012e-6
-1.405, 9.933e-7
-1.404, 9.953e-7
-1.403, 9.765e-7
-1.402, 9.667e-7
-1.401, 9.065e-7
-1.400, 9.016e-7
-1.399, 8.808e-7
-1.398, 8.690e-7
-1.397, 8.522e-7
-1.396, 8.285e-7
-1.395, 7.999e-7
-1.394, 7.763e-7
-1.393, 7.565e-7
-1.392, 7.486e-7
-1.391, 7.230e-7
-1.390, 6.845e-7
-1.389, 6.697e-7
-1.388, 6.638e-7
-1.387, 6.500e-7
-1.386, 6.056e-7
-1.385, 5.849e-7
-1.384, 5.868e-7
-1.383, 5.631e-7
-1.382, 5.355e-7
-1.381, 5.089e-7
-1.380, 5.020e-7
-1.379, 5.099e-7
-1.378, 4.714e-7
-1.377, 4.586e-7
-1.376, 4.339e-7
-1.375, 4.201e-7
-1.374, 4.240e-7
-1.373, 3.856e-7
-1.372, 3.846e-7
-1.371, 3.717e-7
-1.370, 3.619e-7
-1.369, 3.343e-7
-1.368, 3.135e-7
-1.367, 3.372e-7
-1.366, 2.751e-7
-1.365, 2.839e-7
-1.364, 2.869e-7
-1.363, 2.534e-7
-1.362, 2.366e-7
-1.361, 2.435e-7
-1.360, 2.050e-7
-1.359, 2.050e-7
-1.358, 1.813e-7
-1.357, 1.823e-7
-1.356, 1.675e-7
-1.355, 1.508e-7
-1.354, 1.379e-7
-1.353, 1.389e-7
-1.352, 1.093e-7
-1.351, 1.290e-7
-1.350, 7.182e-8
-1.349, 8.070e-8
-1.348, 6.097e-8
-1.347, 5.604e-8
-1.346, 5.111e-8
-1.345, 5.308e-8
-1.344, 1.855e-8
-1.343, 2.348e-8
-1.342, -1.105e-8
-1.341, -1.401e-8
-1.340, -2.980e-8
-1.339, -2.388e-8
-1.338, -4.854e-8
-1.337, -5.347e-8
-1.336, -6.137e-8
-1.335, -7.617e-8
-1.334, -8.702e-8
-1.333, -1.097e-7
-1.332, -9.886e-8
-1.331, -1.117e-7
-1.330, -1.235e-7
-1.329, -1.304e-7
-1.328, -1.492e-7
-1.327, -1.482e-7
-1.326, -1.719e-7
-1.325, -1.817e-7
-1.324, -1.965e-7
-1.323, -1.837e-7
-1.322, -1.827e-7
-1.321, -1.965e-7
-1.320, -2.429e-7
-1.319, -2.301e-7
-1.318, -2.380e-7
-1.317, -2.182e-7
-1.316, -2.656e-7
-1.315, -2.695e-7
-1.314, -2.695e-7
-1.313, -2.745e-7
-1.312, -2.863e-7
-1.311, -2.932e-7
-1.310, -2.981e-7
-1.309, -2.981e-7
-1.308, -3.248e-7
-1.307, -3.169e-7
-1.306, -3.238e-7
-1.305, -3.435e-7
-1.304, -3.613e-7
-1.303, -3.573e-7
-1.302, -3.613e-7
-1.301, -3.524e-7
-1.300, -3.731e-7
-1.299, -3.721e-7
-1.298, -3.988e-7
-1.297, -3.998e-7
-1.296, -3.968e-7
-1.295, -4.106e-7
-1.294, -4.313e-7
-1.293, -4.392e-7
-1.292, -4.530e-7
-1.291, -4.412e-7
-1.290, -4.590e-7
-1.289, -4.708e-7
-1.288, -4.649e-7
-1.287, -4.580e-7
-1.286, -4.965e-7
-1.285, -4.876e-7
-1.284, -5.162e-7
-1.283, -4.915e-7
-1.282, -5.034e-7
-1.281, -5.083e-7
-1.280, -5.557e-7
-1.279, -5.379e-7
-1.278, -5.507e-7
-1.277, -5.409e-7
-1.276, -5.852e-7
-1.275, -5.428e-7
-1.274, -5.645e-7
-1.273, -5.843e-7
-1.272, -5.852e-7
-1.271, -5.902e-7
-1.270, -6.188e-7
-1.269, -6.119e-7
-1.268, -6.257e-7
-1.267, -6.060e-7
-1.266, -6.405e-7
-1.265, -6.139e-7
-1.264, -6.395e-7
-1.263, -6.484e-7
-1.262, -6.563e-7
-1.261, -6.563e-7
-1.260, -6.661e-7
-1.259, -6.731e-7
-1.258, -6.839e-7
-1.257, -6.750e-7
-1.256, -7.036e-7
-1.255, -6.987e-7
-1.254, -7.184e-7
-1.253, -7.155e-7
-1.252, -7.194e-7
-1.251, -7.352e-7
-1.250, -7.401e-7
-1.249, -7.372e-7
-1.248, -7.707e-7
-1.247, -7.480e-7
-1.246, -7.648e-7
-1.245, -7.510e-7
-1.244, -7.747e-7
-1.243, -7.766e-7
-1.242, -7.776e-7
-1.241, -8.013e-7
-1.240, -7.806e-7
-1.239, -7.905e-7
-1.238, -8.181e-7
-1.237, -7.954e-7
-1.236, -8.260e-7
-1.235, -8.151e-7
-1.234, -8.260e-7
-1.233, -8.378e-7
-1.232, -8.546e-7
-1.231, -8.506e-7
-1.230, -8.477e-7
-1.229, -8.862e-7
-1.228, -8.862e-7
-1.227, -8.852e-7
-1.226, -9.079e-7
-1.225, -8.980e-7
-1.224, -9.039e-7
-1.223, -9.276e-7
-1.222, -9.266e-7
-1.221, -9.158e-7
-1.220, -9.296e-7
-1.219, -9.493e-7
-1.218, -9.444e-7
-1.217, -9.552e-7
-1.216, -9.819e-7
-1.215, -9.730e-7
-1.214, -9.740e-7
-1.213, -9.976e-7
-1.212, -9.898e-7
-1.211, -1.003e-6
-1.210, -1.003e-6
-1.209, -1.015e-6
-1.208, -9.996e-7
-1.207, -1.020e-6
-1.206, -1.022e-6
-1.205, -1.041e-6
-1.204, -1.037e-6
-1.203, -1.060e-6
-1.202, -1.041e-6
-1.201, -1.054e-6
-1.200, -1.076e-6
-1.199, -1.067e-6
-1.198, -1.073e-6
-1.197, -1.083e-6
-1.196, -1.093e-6
-1.195, -1.104e-6
-1.194, -1.103e-6
-1.193, -1.109e-6
-1.192, -1.114e-6
-1.191, -1.118e-6
-1.190, -1.130e-6
-1.189, -1.142e-6
-1.188, -1.147e-6
-1.187, -1.165e-6
-1.186, -1.154e-6
-1.185, -1.168e-6
-1.184, -1.173e-6
-1.183, -1.193e-6
-1.182, -1.180e-6
-1.181, -1.195e-6
-1.180, -1.199e-6
-1.179, -1.207e-6
-1.178, -1.202e-6
-1.177, -1.223e-6
-1.176, -1.229e-6
-1.175, -1.240e-6
-1.174, -1.232e-6
-1.173, -1.260e-6
-1.172, -1.244e-6
-1.171, -1.262e-6
-1.170, -1.251e-6
-1.169, -1.268e-6
-1.168, -1.282e-6
-1.167, -1.288e-6
-1.166, -1.283e-6
-1.165, -1.306e-6
-1.164, -1.303e-6
-1.163, -1.321e-6
-1.162, -1.318e-6
-1.161, -1.331e-6
-1.160, -1.345e-6
-1.159, -1.343e-6
-1.158, -1.340e-6
-1.157, -1.361e-6
-1.156, -1.362e-6
-1.155, -1.370e-6
-1.154, -1.377e-6
-1.153, -1.380e-6
-1.152, -1.393e-6
-1.151, -1.413e-6
-1.150, -1.414e-6
-1.149, -1.430e-6
-1.148, -1.429e-6
-1.147, -1.410e-6
-1.146, -1.440e-6
-1.145, -1.460e-6
-1.144, -1.454e-6
-1.143, -1.462e-6
-1.142, -1.466e-6
-1.141, -1.477e-6
-1.140, -1.480e-6
-1.139, -1.510e-6
-1.138, -1.489e-6
-1.137, -1.506e-6
-1.136, -1.508e-6
-1.135, -1.523e-6
-1.134, -1.513e-6
-1.133, -1.532e-6
-1.132, -1.558e-6
-1.131, -1.546e-6
-1.130, -1.561e-6
-1.129, -1.584e-6
-1.128, -1.569e-6
-1.127, -1.592e-6
-1.126, -1.585e-6
-1.125, -1.611e-6
-1.124, -1.614e-6
-1.123, -1.639e-6
-1.122, -1.619e-6
-1.121, -1.651e-6
-1.120, -1.648e-6
-1.119, -1.661e-6
-1.118, -1.671e-6
-1.117, -1.675e-6
-1.116, -1.697e-6
-1.115, -1.677e-6
-1.114, -1.707e-6
-1.113, -1.715e-6
-1.112, -1.705e-6
-1.111, -1.738e-6
-1.110, -1.740e-6
-1.109, -1.746e-6
-1.108, -1.744e-6
-1.107, -1.752e-6
-1.106, -1.777e-6
-1.105, -1.776e-6
-1.104, -1.798e-6
-1.103, -1.797e-6
-1.102, -1.807e-6
-1.101, -1.825e-6
-1.100, -1.844e-6
-1.099, -1.845e-6
-1.098, -1.867e-6
-1.097, -1.859e-6
-1.096, -1.877e-6
-1.095, -1.887e-6
-1.094, -1.905e-6
-1.093, -1.888e-6
-1.092, -1.924e-6
-1.091, -1.931e-6
-1.090, -1.947e-6
-1.089, -1.942e-6
-1.088, -1.978e-6
-1.087, -1.965e-6
-1.086, -1.989e-6
-1.085, -1.997e-6
-1.084, -2.015e-6
-1.083, -2.013e-6
-1.082, -2.023e-6
-1.081, -2.036e-6
-1.080, -2.066e-6
-1.079, -2.053e-6
-1.078, -2.097e-6
-1.077, -2.097e-6
-1.076, -2.109e-6
-1.075, -2.136e-6
-1.074, -2.145e-6
-1.073, -2.136e-6
-1.072, -2.156e-6
-1.071, -2.184e-6
-1.070, -2.211e-6
-1.069, -2.199e-6
-1.068, -2.219e-6
-1.067, -2.236e-6
-1.066, -2.234e-6
-1.065, -2.262e-6
-1.064, -2.271e-6
-1.063, -2.283e-6
-1.062, -2.300e-6
-1.061, -2.310e-6
-1.060, -2.332e-6
-1.059, -2.341e-6
-1.058, -2.365e-6
-1.057, -2.366e-6
-1.056, -2.385e-6
-1.055, -2.396e-6
-1.054, -2.426e-6
-1.053, -2.440e-6
-1.052, -2.443e-6
-1.051, -2.468e-6
-1.050, -2.476e-6
-1.049, -2.507e-6
-1.048, -2.520e-6
-1.047, -2.542e-6
-1.046, -2.547e-6
-1.045, -2.562e-6
-1.044, -2.570e-6
-1.043, -2.594e-6
-1.042, -2.619e-6
-1.041, -2.635e-6
-1.040, -2.657e-6
-1.039, -2.660e-6
-1.038, -2.688e-6
-1.037, -2.703e-6
-1.036, -2.708e-6
-1.035, -2.746e-6
-1.034, -2.759e-6
-1.033, -2.778e-6
-1.032, -2.777e-6
-1.031, -2.823e-6
-1.030, -2.824e-6
-1.029, -2.832e-6
-1.028, -2.870e-6
-1.027, -2.878e-6
-1.026, -2.910e-6
-1.025, -2.922e-6
-1.024, -2.942e-6
-1.023, -2.984e-6
-1.022, -2.970e-6
-1.021, -3.008e-6
-1.020, -3.019e-6
-1.019, -3.040e-6
-1.018, -3.070e-6
-1.017, -3.083e-6
-1.016, -3.102e-6
-1.015, -3.134e-6
-1.014, -3.140e-6
-1.013, -3.162e-6
-1.012, -3.178e-6
-1.011, -3.199e-6
-1.010, -3.215e-6
-1.009, -3.233e-6
-1.008, -3.261e-6
-1.007, -3.278e-6
-1.006, -3.290e-6
-1.005, -3.323e-6
-1.004, -3.353e-6
-1.003, -3.353e-6
-1.002, -3.384e-6
-1.001, -3.398e-6
