Mar. 30, 2025   01:27:28
Cyclic Voltammetry
File: c:/users/guazh/data/banditlqround7_x0exp518_r20/2025-03-28-exp985\exp985-2025-03-30t01_10_29-h2koh\exp985_cv_50mvs_efin_-1800mv.bin
Data Source:  Experiment
Instrument Model:  CHI760E
Header: CV ran at 50 mVs
Note: 

Init E (V) = -1
High E (V) = -1
Low E (V) = -1.8
Final E (V) = -1
Init P/N = N
Scan Rate (V/s) = 0.05
Segment = 7
Sample Interval (V) = 0.001
Quiet Time (sec) = 60
Sensitivity (A/V) = 0.001
Comp R (ohm) = 1.7

Results:

Channel 1:
Segment 1:
Ep = -1.212V
ip = 5.915e-6A
Ah = 8.983e-6C

Segment 2:

Segment 3:

Segment 4:

Segment 5:

Segment 6:

Segment 7:

Potential/V, Current/A

-1.000, 2.136e-6
-1.001, 2.771e-6
-1.002, 2.989e-6
-1.003, 3.038e-6
-1.004, 3.067e-6
-1.005, 3.201e-6
-1.006, 3.287e-6
-1.007, 3.463e-6
-1.008, 3.402e-6
-1.009, 3.423e-6
-1.010, 3.528e-6
-1.011, 3.625e-6
-1.012, 3.766e-6
-1.013, 3.722e-6
-1.014, 3.667e-6
-1.015, 3.738e-6
-1.016, 3.856e-6
-1.017, 3.981e-6
-1.018, 3.908e-6
-1.019, 3.871e-6
-1.020, 3.975e-6
-1.021, 4.078e-6
-1.022, 4.136e-6
-1.023, 4.125e-6
-1.024, 4.105e-6
-1.025, 4.159e-6
-1.026, 4.292e-6
-1.027, 4.384e-6
-1.028, 4.305e-6
-1.029, 4.301e-6
-1.030, 4.345e-6
-1.031, 4.488e-6
-1.032, 4.553e-6
-1.033, 4.515e-6
-1.034, 4.521e-6
-1.035, 4.563e-6
-1.036, 4.658e-6
-1.037, 4.786e-6
-1.038, 4.753e-6
-1.039, 4.700e-6
-1.040, 4.737e-6
-1.041, 4.907e-6
-1.042, 5.004e-6
-1.043, 4.925e-6
-1.044, 4.909e-6
-1.045, 5.002e-6
-1.046, 5.073e-6
-1.047, 5.262e-6
-1.048, 5.176e-6
-1.049, 5.132e-6
-1.050, 5.210e-6
-1.051, 5.314e-6
-1.052, 5.421e-6
-1.053, 5.392e-6
-1.054, 5.364e-6
-1.055, 5.465e-6
-1.056, 5.563e-6
-1.057, 5.662e-6
-1.058, 5.671e-6
-1.059, 5.595e-6
-1.060, 5.689e-6
-1.061, 5.824e-6
-1.062, 5.945e-6
-1.063, 5.948e-6
-1.064, 5.871e-6
-1.065, 5.977e-6
-1.066, 6.123e-6
-1.067, 6.221e-6
-1.068, 6.161e-6
-1.069, 6.156e-6
-1.070, 6.263e-6
-1.071, 6.413e-6
-1.072, 6.538e-6
-1.073, 6.453e-6
-1.074, 6.517e-6
-1.075, 6.574e-6
-1.076, 6.696e-6
-1.077, 6.796e-6
-1.078, 6.807e-6
-1.079, 6.818e-6
-1.080, 6.865e-6
-1.081, 7.010e-6
-1.082, 7.161e-6
-1.083, 7.104e-6
-1.084, 7.084e-6
-1.085, 7.233e-6
-1.086, 7.333e-6
-1.087, 7.479e-6
-1.088, 7.470e-6
-1.089, 7.412e-6
-1.090, 7.547e-6
-1.091, 7.708e-6
-1.092, 7.818e-6
-1.093, 7.789e-6
-1.094, 7.802e-6
-1.095, 7.929e-6
-1.096, 8.023e-6
-1.097, 8.186e-6
-1.098, 8.215e-6
-1.099, 8.134e-6
-1.100, 8.281e-6
-1.101, 8.453e-6
-1.102, 8.580e-6
-1.103, 8.568e-6
-1.104, 8.592e-6
-1.105, 8.685e-6
-1.106, 8.843e-6
-1.107, 8.987e-6
-1.108, 9.016e-6
-1.109, 8.982e-6
-1.110, 9.061e-6
-1.111, 9.246e-6
-1.112, 9.412e-6
-1.113, 9.341e-6
-1.114, 9.366e-6
-1.115, 9.510e-6
-1.116, 9.664e-6
-1.117, 9.807e-6
-1.118, 9.799e-6
-1.119, 9.874e-6
-1.120, 9.878e-6
-1.121, 1.005e-5
-1.122, 1.027e-5
-1.123, 1.024e-5
-1.124, 1.026e-5
-1.125, 1.036e-5
-1.126, 1.051e-5
-1.127, 1.071e-5
-1.128, 1.072e-5
-1.129, 1.070e-5
-1.130, 1.083e-5
-1.131, 1.096e-5
-1.132, 1.112e-5
-1.133, 1.121e-5
-1.134, 1.117e-5
-1.135, 1.127e-5
-1.136, 1.145e-5
-1.137, 1.160e-5
-1.138, 1.165e-5
-1.139, 1.163e-5
-1.140, 1.172e-5
-1.141, 1.194e-5
-1.142, 1.207e-5
-1.143, 1.212e-5
-1.144, 1.207e-5
-1.145, 1.220e-5
-1.146, 1.242e-5
-1.147, 1.257e-5
-1.148, 1.260e-5
-1.149, 1.261e-5
-1.150, 1.271e-5
-1.151, 1.294e-5
-1.152, 1.307e-5
-1.153, 1.311e-5
-1.154, 1.314e-5
-1.155, 1.322e-5
-1.156, 1.343e-5
-1.157, 1.360e-5
-1.158, 1.363e-5
-1.159, 1.368e-5
-1.160, 1.375e-5
-1.161, 1.395e-5
-1.162, 1.421e-5
-1.163, 1.422e-5
-1.164, 1.425e-5
-1.165, 1.437e-5
-1.166, 1.456e-5
-1.167, 1.474e-5
-1.168, 1.475e-5
-1.169, 1.477e-5
-1.170, 1.495e-5
-1.171, 1.508e-5
-1.172, 1.525e-5
-1.173, 1.531e-5
-1.174, 1.537e-5
-1.175, 1.546e-5
-1.176, 1.568e-5
-1.177, 1.581e-5
-1.178, 1.588e-5
-1.179, 1.587e-5
-1.180, 1.596e-5
-1.181, 1.618e-5
-1.182, 1.630e-5
-1.183, 1.633e-5
-1.184, 1.635e-5
-1.185, 1.643e-5
-1.186, 1.663e-5
-1.187, 1.675e-5
-1.188, 1.676e-5
-1.189, 1.678e-5
-1.190, 1.683e-5
-1.191, 1.705e-5
-1.192, 1.713e-5
-1.193, 1.713e-5
-1.194, 1.714e-5
-1.195, 1.720e-5
-1.196, 1.734e-5
-1.197, 1.745e-5
-1.198, 1.742e-5
-1.199, 1.740e-5
-1.200, 1.741e-5
-1.201, 1.750e-5
-1.202, 1.772e-5
-1.203, 1.758e-5
-1.204, 1.754e-5
-1.205, 1.756e-5
-1.206, 1.767e-5
-1.207, 1.776e-5
-1.208, 1.773e-5
-1.209, 1.764e-5
-1.210, 1.769e-5
-1.211, 1.774e-5
-1.212, 1.783e-5
-1.213, 1.774e-5
-1.214, 1.763e-5
-1.215, 1.765e-5
-1.216, 1.769e-5
-1.217, 1.778e-5
-1.218, 1.767e-5
-1.219, 1.754e-5
-1.220, 1.754e-5
-1.221, 1.762e-5
-1.222, 1.768e-5
-1.223, 1.755e-5
-1.224, 1.743e-5
-1.225, 1.739e-5
-1.226, 1.744e-5
-1.227, 1.748e-5
-1.228, 1.744e-5
-1.229, 1.729e-5
-1.230, 1.725e-5
-1.231, 1.733e-5
-1.232, 1.733e-5
-1.233, 1.727e-5
-1.234, 1.713e-5
-1.235, 1.709e-5
-1.236, 1.713e-5
-1.237, 1.714e-5
-1.238, 1.701e-5
-1.239, 1.695e-5
-1.240, 1.689e-5
-1.241, 1.689e-5
-1.242, 1.699e-5
-1.243, 1.691e-5
-1.244, 1.671e-5
-1.245, 1.674e-5
-1.246, 1.680e-5
-1.247, 1.681e-5
-1.248, 1.674e-5
-1.249, 1.659e-5
-1.250, 1.658e-5
-1.251, 1.664e-5
-1.252, 1.668e-5
-1.253, 1.662e-5
-1.254, 1.650e-5
-1.255, 1.652e-5
-1.256, 1.652e-5
-1.257, 1.658e-5
-1.258, 1.653e-5
-1.259, 1.637e-5
-1.260, 1.639e-5
-1.261, 1.644e-5
-1.262, 1.649e-5
-1.263, 1.650e-5
-1.264, 1.634e-5
-1.265, 1.637e-5
-1.266, 1.648e-5
-1.267, 1.650e-5
-1.268, 1.643e-5
-1.269, 1.630e-5
-1.270, 1.629e-5
-1.271, 1.639e-5
-1.272, 1.640e-5
-1.273, 1.635e-5
-1.274, 1.628e-5
-1.275, 1.626e-5
-1.276, 1.635e-5
-1.277, 1.642e-5
-1.278, 1.634e-5
-1.279, 1.631e-5
-1.280, 1.631e-5
-1.281, 1.633e-5
-1.282, 1.641e-5
-1.283, 1.636e-5
-1.284, 1.622e-5
-1.285, 1.632e-5
-1.286, 1.637e-5
-1.287, 1.642e-5
-1.288, 1.632e-5
-1.289, 1.627e-5
-1.290, 1.632e-5
-1.291, 1.638e-5
-1.292, 1.645e-5
-1.293, 1.638e-5
-1.294, 1.630e-5
-1.295, 1.633e-5
-1.296, 1.638e-5
-1.297, 1.645e-5
-1.298, 1.640e-5
-1.299, 1.628e-5
-1.300, 1.634e-5
-1.301, 1.640e-5
-1.302, 1.646e-5
-1.303, 1.644e-5
-1.304, 1.632e-5
-1.305, 1.636e-5
-1.306, 1.649e-5
-1.307, 1.649e-5
-1.308, 1.643e-5
-1.309, 1.637e-5
-1.310, 1.636e-5
-1.311, 1.644e-5
-1.312, 1.645e-5
-1.313, 1.637e-5
-1.314, 1.632e-5
-1.315, 1.629e-5
-1.316, 1.641e-5
-1.317, 1.646e-5
-1.318, 1.637e-5
-1.319, 1.634e-5
-1.320, 1.638e-5
-1.321, 1.639e-5
-1.322, 1.650e-5
-1.323, 1.642e-5
-1.324, 1.632e-5
-1.325, 1.637e-5
-1.326, 1.639e-5
-1.327, 1.646e-5
-1.328, 1.643e-5
-1.329, 1.638e-5
-1.330, 1.642e-5
-1.331, 1.645e-5
-1.332, 1.654e-5
-1.333, 1.648e-5
-1.334, 1.637e-5
-1.335, 1.647e-5
-1.336, 1.649e-5
-1.337, 1.661e-5
-1.338, 1.662e-5
-1.339, 1.650e-5
-1.340, 1.658e-5
-1.341, 1.665e-5
-1.342, 1.673e-5
-1.343, 1.673e-5
-1.344, 1.669e-5
-1.345, 1.670e-5
-1.346, 1.677e-5
-1.347, 1.692e-5
-1.348, 1.691e-5
-1.349, 1.690e-5
-1.350, 1.698e-5
-1.351, 1.715e-5
-1.352, 1.723e-5
-1.353, 1.721e-5
-1.354, 1.714e-5
-1.355, 1.728e-5
-1.356, 1.739e-5
-1.357, 1.751e-5
-1.358, 1.753e-5
-1.359, 1.754e-5
-1.360, 1.759e-5
-1.361, 1.774e-5
-1.362, 1.793e-5
-1.363, 1.793e-5
-1.364, 1.793e-5
-1.365, 1.807e-5
-1.366, 1.822e-5
-1.367, 1.839e-5
-1.368, 1.836e-5
-1.369, 1.836e-5
-1.370, 1.855e-5
-1.371, 1.867e-5
-1.372, 1.888e-5
-1.373, 1.900e-5
-1.374, 1.905e-5
-1.375, 1.926e-5
-1.376, 1.940e-5
-1.377, 1.962e-5
-1.378, 1.967e-5
-1.379, 1.971e-5
-1.380, 1.989e-5
-1.381, 2.009e-5
-1.382, 2.037e-5
-1.383, 2.046e-5
-1.384, 2.054e-5
-1.385, 2.076e-5
-1.386, 2.097e-5
-1.387, 2.121e-5
-1.388, 2.134e-5
-1.389, 2.149e-5
-1.390, 2.168e-5
-1.391, 2.192e-5
-1.392, 2.221e-5
-1.393, 2.233e-5
-1.394, 2.244e-5
-1.395, 2.270e-5
-1.396, 2.299e-5
-1.397, 2.330e-5
-1.398, 2.343e-5
-1.399, 2.361e-5
-1.400, 2.379e-5
-1.401, 2.411e-5
-1.402, 2.447e-5
-1.403, 2.464e-5
-1.404, 2.479e-5
-1.405, 2.504e-5
-1.406, 2.537e-5
-1.407, 2.578e-5
-1.408, 2.596e-5
-1.409, 2.616e-5
-1.410, 2.653e-5
-1.411, 2.682e-5
-1.412, 2.720e-5
-1.413, 2.745e-5
-1.414, 2.760e-5
-1.415, 2.800e-5
-1.416, 2.835e-5
-1.417, 2.878e-5
-1.418, 2.911e-5
-1.419, 2.931e-5
-1.420, 2.972e-5
-1.421, 3.015e-5
-1.422, 3.054e-5
-1.423, 3.091e-5
-1.424, 3.117e-5
-1.425, 3.160e-5
-1.426, 3.207e-5
-1.427, 3.253e-5
-1.428, 3.292e-5
-1.429, 3.326e-5
-1.430, 3.367e-5
-1.431, 3.425e-5
-1.432, 3.473e-5
-1.433, 3.511e-5
-1.434, 3.559e-5
-1.435, 3.608e-5
-1.436, 3.663e-5
-1.437, 3.730e-5
-1.438, 3.774e-5
-1.439, 3.826e-5
-1.440, 3.881e-5
-1.441, 3.956e-5
-1.442, 4.025e-5
-1.443, 4.076e-5
-1.444, 4.138e-5
-1.445, 4.207e-5
-1.446, 4.279e-5
-1.447, 4.359e-5
-1.448, 4.422e-5
-1.449, 4.491e-5
-1.450, 4.576e-5
-1.451, 4.656e-5
-1.452, 4.747e-5
-1.453, 4.827e-5
-1.454, 4.904e-5
-1.455, 5.002e-5
-1.456, 5.102e-5
-1.457, 5.207e-5
-1.458, 5.316e-5
-1.459, 5.416e-5
-1.460, 5.535e-5
-1.461, 5.662e-5
-1.462, 5.794e-5
-1.463, 5.922e-5
-1.464, 6.046e-5
-1.465, 6.192e-5
-1.466, 6.350e-5
-1.467, 6.512e-5
-1.468, 6.680e-5
-1.469, 6.857e-5
-1.470, 7.039e-5
-1.471, 7.239e-5
-1.472, 7.442e-5
-1.473, 7.645e-5
-1.474, 7.861e-5
-1.475, 8.090e-5
-1.476, 8.338e-5
-1.477, 8.597e-5
-1.478, 8.860e-5
-1.479, 9.129e-5
-1.480, 9.414e-5
-1.481, 9.716e-5
-1.482, 1.003e-4
-1.483, 1.034e-4
-1.484, 1.066e-4
-1.485, 1.101e-4
-1.486, 1.136e-4
-1.487, 1.173e-4
-1.488, 1.209e-4
-1.489, 1.246e-4
-1.490, 1.286e-4
-1.491, 1.326e-4
-1.492, 1.368e-4
-1.493, 1.410e-4
-1.494, 1.453e-4
-1.495, 1.497e-4
-1.496, 1.542e-4
-1.497, 1.589e-4
-1.498, 1.636e-4
-1.499, 1.683e-4
-1.500, 1.732e-4
-1.501, 1.782e-4
-1.502, 1.832e-4
-1.503, 1.883e-4
-1.504, 1.933e-4
-1.505, 1.985e-4
-1.506, 2.039e-4
-1.507, 2.094e-4
-1.508, 2.149e-4
-1.509, 2.204e-4
-1.510, 2.261e-4
-1.511, 2.319e-4
-1.512, 2.378e-4
-1.513, 2.437e-4
-1.514, 2.495e-4
-1.515, 2.556e-4
-1.516, 2.618e-4
-1.517, 2.681e-4
-1.518, 2.745e-4
-1.519, 2.809e-4
-1.520, 2.873e-4
-1.521, 2.939e-4
-1.522, 3.005e-4
-1.523, 3.072e-4
-1.524, 3.140e-4
-1.525, 3.209e-4
-1.526, 3.281e-4
-1.527, 3.353e-4
-1.528, 3.426e-4
-1.529, 3.500e-4
-1.530, 3.575e-4
-1.531, 3.651e-4
-1.532, 3.728e-4
-1.533, 3.805e-4
-1.534, 3.883e-4
-1.535, 3.963e-4
-1.536, 4.045e-4
-1.537, 4.128e-4
-1.538, 4.212e-4
-1.539, 4.297e-4
-1.540, 4.383e-4
-1.541, 4.469e-4
-1.542, 4.557e-4
-1.543, 4.647e-4
-1.544, 4.737e-4
-1.545, 4.830e-4
-1.546, 4.925e-4
-1.547, 5.019e-4
-1.548, 5.114e-4
-1.549, 5.211e-4
-1.550, 5.311e-4
-1.551, 5.414e-4
-1.552, 5.516e-4
-1.553, 5.617e-4
-1.554, 5.720e-4
-1.555, 5.822e-4
-1.556, 5.928e-4
-1.557, 6.036e-4
-1.558, 6.146e-4
-1.559, 6.260e-4
-1.560, 6.375e-4
-1.561, 6.492e-4
-1.562, 6.607e-4
-1.563, 6.723e-4
-1.564, 6.843e-4
-1.565, 6.964e-4
-1.566, 7.085e-4
-1.567, 7.212e-4
-1.568, 7.338e-4
-1.569, 7.463e-4
-1.570, 7.591e-4
-1.571, 7.716e-4
-1.572, 7.845e-4
-1.573, 7.977e-4
-1.574, 8.113e-4
-1.575, 8.250e-4
-1.576, 8.389e-4
-1.577, 8.531e-4
-1.578, 8.672e-4
-1.579, 8.816e-4
-1.580, 8.967e-4
-1.581, 9.118e-4
-1.582, 9.263e-4
-1.583, 9.409e-4
-1.584, 9.560e-4
-1.585, 9.715e-4
-1.586, 9.871e-4
-1.587, 1.002e-3
-1.588, 1.018e-3
-1.589, 1.034e-3
-1.590, 1.050e-3
-1.591, 1.066e-3
-1.592, 1.083e-3
-1.593, 1.100e-3
-1.594, 1.118e-3
-1.595, 1.135e-3
-1.596, 1.153e-3
-1.597, 1.171e-3
-1.598, 1.188e-3
-1.599, 1.206e-3
-1.600, 1.223e-3
-1.601, 1.241e-3
-1.602, 1.260e-3
-1.603, 1.279e-3
-1.604, 1.298e-3
-1.605, 1.317e-3
-1.606, 1.338e-3
-1.607, 1.358e-3
-1.608, 1.376e-3
-1.609, 1.395e-3
-1.610, 1.415e-3
-1.611, 1.436e-3
-1.612, 1.456e-3
-1.613, 1.477e-3
-1.614, 1.497e-3
-1.615, 1.518e-3
-1.616, 1.539e-3
-1.617, 1.560e-3
-1.618, 1.583e-3
-1.619, 1.605e-3
-1.620, 1.628e-3
-1.621, 1.651e-3
-1.622, 1.672e-3
-1.623, 1.696e-3
-1.624, 1.718e-3
-1.625, 1.741e-3
-1.626, 1.767e-3
-1.627, 1.789e-3
-1.628, 1.813e-3
-1.629, 1.835e-3
-1.630, 1.858e-3
-1.631, 1.883e-3
-1.632, 1.908e-3
-1.633, 1.932e-3
-1.634, 1.958e-3
-1.635, 1.984e-3
-1.636, 2.009e-3
-1.637, 2.036e-3
-1.638, 2.061e-3
-1.639, 2.087e-3
-1.640, 2.111e-3
-1.641, 2.139e-3
-1.642, 2.167e-3
-1.643, 2.192e-3
-1.644, 2.221e-3
-1.645, 2.250e-3
-1.646, 2.279e-3
-1.647, 2.308e-3
-1.648, 2.334e-3
-1.649, 2.363e-3
-1.650, 2.392e-3
-1.651, 2.424e-3
-1.652, 2.455e-3
-1.653, 2.486e-3
-1.654, 2.518e-3
-1.655, 2.550e-3
-1.656, 2.582e-3
-1.657, 2.611e-3
-1.658, 2.642e-3
-1.659, 2.675e-3
-1.660, 2.708e-3
-1.661, 2.740e-3
-1.662, 2.773e-3
-1.663, 2.808e-3
-1.664, 2.843e-3
-1.665, 2.877e-3
-1.666, 2.914e-3
-1.667, 2.951e-3
-1.668, 2.987e-3
-1.669, 3.022e-3
-1.670, 3.061e-3
-1.671, 3.098e-3
-1.672, 3.131e-3
-1.673, 3.172e-3
-1.674, 3.215e-3
-1.675, 3.256e-3
-1.676, 3.292e-3
-1.677, 3.328e-3
-1.678, 3.367e-3
-1.679, 3.408e-3
-1.680, 3.448e-3
-1.681, 3.491e-3
-1.682, 3.533e-3
-1.683, 3.574e-3
-1.684, 3.615e-3
-1.685, 3.661e-3
-1.686, 3.708e-3
-1.687, 3.751e-3
-1.688, 3.792e-3
-1.689, 3.836e-3
-1.690, 3.882e-3
-1.691, 3.925e-3
-1.692, 3.973e-3
-1.693, 4.026e-3
-1.694, 4.075e-3
-1.695, 4.119e-3
-1.696, 4.170e-3
-1.697, 4.218e-3
-1.698, 4.267e-3
-1.699, 4.313e-3
-1.700, 4.358e-3
-1.701, 4.408e-3
-1.702, 4.456e-3
-1.703, 4.506e-3
-1.704, 4.560e-3
-1.705, 4.615e-3
-1.706, 4.665e-3
-1.707, 4.719e-3
-1.708, 4.772e-3
-1.709, 4.826e-3
-1.710, 4.878e-3
-1.711, 4.932e-3
-1.712, 4.987e-3
-1.713, 5.040e-3
-1.714, 5.091e-3
-1.715, 5.145e-3
-1.716, 5.200e-3
-1.717, 5.259e-3
-1.718, 5.315e-3
-1.719, 5.369e-3
-1.720, 5.431e-3
-1.721, 5.490e-3
-1.722, 5.547e-3
-1.723, 5.601e-3
-1.724, 5.663e-3
-1.725, 5.722e-3
-1.726, 5.776e-3
-1.727, 5.831e-3
-1.728, 5.887e-3
-1.729, 5.948e-3
-1.730, 6.012e-3
-1.731, 6.075e-3
-1.732, 6.139e-3
-1.733, 6.203e-3
-1.734, 6.264e-3
-1.735, 6.326e-3
-1.736, 6.388e-3
-1.737, 6.452e-3
-1.738, 6.517e-3
-1.739, 6.581e-3
-1.740, 6.640e-3
-1.741, 6.697e-3
-1.742, 6.762e-3
-1.743, 6.832e-3
-1.744, 6.900e-3
-1.745, 6.953e-3
-1.746, 7.019e-3
-1.747, 7.097e-3
-1.748, 7.162e-3
-1.749, 7.227e-3
-1.750, 7.303e-3
-1.751, 7.355e-3
-1.752, 7.417e-3
-1.753, 7.488e-3
-1.754, 7.543e-3
-1.755, 7.585e-3
-1.756, 7.647e-3
-1.757, 7.727e-3
-1.758, 7.790e-3
-1.759, 7.848e-3
-1.760, 7.909e-3
-1.761, 7.969e-3
-1.762, 8.031e-3
-1.763, 8.095e-3
-1.764, 8.164e-3
-1.765, 8.230e-3
-1.766, 8.295e-3
-1.767, 8.347e-3
-1.768, 8.411e-3
-1.769, 8.479e-3
-1.770, 8.544e-3
-1.771, 8.612e-3
-1.772, 8.664e-3
-1.773, 8.717e-3
-1.774, 8.771e-3
-1.775, 8.833e-3
-1.776, 8.884e-3
-1.777, 8.935e-3
-1.778, 8.982e-3
-1.779, 9.040e-3
-1.780, 9.118e-3
-1.781, 9.220e-3
-1.782, 9.287e-3
-1.783, 9.376e-3
-1.784, 9.464e-3
-1.785, 9.544e-3
-1.786, 9.570e-3
-1.787, 9.565e-3
-1.788, 9.565e-3
-1.789, 9.603e-3
-1.790, 9.646e-3
-1.791, 9.716e-3
-1.792, 9.803e-3
-1.793, 9.873e-3
-1.794, 9.935e-3
-1.795, 9.985e-3
-1.796, 1.003e-2
-1.797, 1.008e-2
-1.798, 1.011e-2
-1.799, 1.011e-2
-1.800, 1.011e-2
-1.799, 1.010e-2
-1.798, 1.002e-2
-1.797, 9.939e-3
-1.796, 9.892e-3
-1.795, 9.834e-3
-1.794, 9.753e-3
-1.793, 9.675e-3
-1.792, 9.593e-3
-1.791, 9.522e-3
-1.790, 9.455e-3
-1.789, 9.412e-3
-1.788, 9.350e-3
-1.787, 9.303e-3
-1.786, 9.270e-3
-1.785, 9.222e-3
-1.784, 9.168e-3
-1.783, 9.103e-3
-1.782, 9.048e-3
-1.781, 9.020e-3
-1.780, 8.985e-3
-1.779, 8.921e-3
-1.778, 8.847e-3
-1.777, 8.781e-3
-1.776, 8.724e-3
-1.775, 8.671e-3
-1.774, 8.623e-3
-1.773, 8.568e-3
-1.772, 8.497e-3
-1.771, 8.428e-3
-1.770, 8.365e-3
-1.769, 8.293e-3
-1.768, 8.240e-3
-1.767, 8.177e-3
-1.766, 8.157e-3
-1.765, 8.092e-3
-1.764, 8.016e-3
-1.763, 7.954e-3
-1.762, 7.875e-3
-1.761, 7.795e-3
-1.760, 7.739e-3
-1.759, 7.681e-3
-1.758, 7.635e-3
-1.757, 7.586e-3
-1.756, 7.519e-3
-1.755, 7.454e-3
-1.754, 7.389e-3
-1.753, 7.325e-3
-1.752, 7.261e-3
-1.751, 7.181e-3
-1.750, 7.093e-3
-1.749, 7.025e-3
-1.748, 6.965e-3
-1.747, 6.919e-3
-1.746, 6.871e-3
-1.745, 6.825e-3
-1.744, 6.780e-3
-1.743, 6.739e-3
-1.742, 6.689e-3
-1.741, 6.637e-3
-1.740, 6.604e-3
-1.739, 6.570e-3
-1.738, 6.526e-3
-1.737, 6.462e-3
-1.736, 6.406e-3
-1.735, 6.337e-3
-1.734, 6.279e-3
-1.733, 6.227e-3
-1.732, 6.184e-3
-1.731, 6.130e-3
-1.730, 6.080e-3
-1.729, 6.026e-3
-1.728, 5.975e-3
-1.727, 5.926e-3
-1.726, 5.876e-3
-1.725, 5.828e-3
-1.724, 5.774e-3
-1.723, 5.725e-3
-1.722, 5.685e-3
-1.721, 5.641e-3
-1.720, 5.589e-3
-1.719, 5.543e-3
-1.718, 5.489e-3
-1.717, 5.438e-3
-1.716, 5.395e-3
-1.715, 5.349e-3
-1.714, 5.302e-3
-1.713, 5.252e-3
-1.712, 5.196e-3
-1.711, 5.144e-3
-1.710, 5.103e-3
-1.709, 5.054e-3
-1.708, 5.006e-3
-1.707, 4.957e-3
-1.706, 4.908e-3
-1.705, 4.854e-3
-1.704, 4.803e-3
-1.703, 4.752e-3
-1.702, 4.709e-3
-1.701, 4.668e-3
-1.700, 4.628e-3
-1.699, 4.582e-3
-1.698, 4.540e-3
-1.697, 4.498e-3
-1.696, 4.452e-3
-1.695, 4.405e-3
-1.694, 4.361e-3
-1.693, 4.317e-3
-1.692, 4.271e-3
-1.691, 4.229e-3
-1.690, 4.186e-3
-1.689, 4.139e-3
-1.688, 4.099e-3
-1.687, 4.052e-3
-1.686, 4.011e-3
-1.685, 3.974e-3
-1.684, 3.940e-3
-1.683, 3.900e-3
-1.682, 3.862e-3
-1.681, 3.829e-3
-1.680, 3.787e-3
-1.679, 3.743e-3
-1.678, 3.708e-3
-1.677, 3.671e-3
-1.676, 3.629e-3
-1.675, 3.596e-3
-1.674, 3.558e-3
-1.673, 3.520e-3
-1.672, 3.485e-3
-1.671, 3.445e-3
-1.670, 3.408e-3
-1.669, 3.373e-3
-1.668, 3.335e-3
-1.667, 3.298e-3
-1.666, 3.263e-3
-1.665, 3.226e-3
-1.664, 3.193e-3
-1.663, 3.164e-3
-1.662, 3.128e-3
-1.661, 3.093e-3
-1.660, 3.057e-3
-1.659, 3.018e-3
-1.658, 2.981e-3
-1.657, 2.943e-3
-1.656, 2.907e-3
-1.655, 2.872e-3
-1.654, 2.838e-3
-1.653, 2.804e-3
-1.652, 2.773e-3
-1.651, 2.741e-3
-1.650, 2.708e-3
-1.649, 2.676e-3
-1.648, 2.643e-3
-1.647, 2.611e-3
-1.646, 2.578e-3
-1.645, 2.547e-3
-1.644, 2.517e-3
-1.643, 2.490e-3
-1.642, 2.460e-3
-1.641, 2.429e-3
-1.640, 2.399e-3
-1.639, 2.370e-3
-1.638, 2.338e-3
-1.637, 2.309e-3
-1.636, 2.280e-3
-1.635, 2.252e-3
-1.634, 2.224e-3
-1.633, 2.196e-3
-1.632, 2.168e-3
-1.631, 2.142e-3
-1.630, 2.114e-3
-1.629, 2.091e-3
-1.628, 2.063e-3
-1.627, 2.035e-3
-1.626, 2.005e-3
-1.625, 1.977e-3
-1.624, 1.952e-3
-1.623, 1.925e-3
-1.622, 1.901e-3
-1.621, 1.874e-3
-1.620, 1.848e-3
-1.619, 1.822e-3
-1.618, 1.799e-3
-1.617, 1.776e-3
-1.616, 1.750e-3
-1.615, 1.726e-3
-1.614, 1.706e-3
-1.613, 1.682e-3
-1.612, 1.657e-3
-1.611, 1.634e-3
-1.610, 1.612e-3
-1.609, 1.591e-3
-1.608, 1.568e-3
-1.607, 1.547e-3
-1.606, 1.527e-3
-1.605, 1.503e-3
-1.604, 1.483e-3
-1.603, 1.463e-3
-1.602, 1.441e-3
-1.601, 1.420e-3
-1.600, 1.399e-3
-1.599, 1.379e-3
-1.598, 1.360e-3
-1.597, 1.339e-3
-1.596, 1.320e-3
-1.595, 1.299e-3
-1.594, 1.279e-3
-1.593, 1.257e-3
-1.592, 1.236e-3
-1.591, 1.219e-3
-1.590, 1.200e-3
-1.589, 1.180e-3
-1.588, 1.162e-3
-1.587, 1.144e-3
-1.586, 1.126e-3
-1.585, 1.108e-3
-1.584, 1.090e-3
-1.583, 1.072e-3
-1.582, 1.055e-3
-1.581, 1.038e-3
-1.580, 1.022e-3
-1.579, 1.006e-3
-1.578, 9.887e-4
-1.577, 9.727e-4
-1.576, 9.563e-4
-1.575, 9.399e-4
-1.574, 9.244e-4
-1.573, 9.102e-4
-1.572, 8.945e-4
-1.571, 8.800e-4
-1.570, 8.653e-4
-1.569, 8.506e-4
-1.568, 8.368e-4
-1.567, 8.229e-4
-1.566, 8.087e-4
-1.565, 7.946e-4
-1.564, 7.810e-4
-1.563, 7.674e-4
-1.562, 7.541e-4
-1.561, 7.408e-4
-1.560, 7.282e-4
-1.559, 7.158e-4
-1.558, 7.032e-4
-1.557, 6.912e-4
-1.556, 6.788e-4
-1.555, 6.666e-4
-1.554, 6.547e-4
-1.553, 6.433e-4
-1.552, 6.320e-4
-1.551, 6.201e-4
-1.550, 6.087e-4
-1.549, 5.982e-4
-1.548, 5.877e-4
-1.547, 5.771e-4
-1.546, 5.668e-4
-1.545, 5.562e-4
-1.544, 5.457e-4
-1.543, 5.355e-4
-1.542, 5.254e-4
-1.541, 5.155e-4
-1.540, 5.060e-4
-1.539, 4.966e-4
-1.538, 4.875e-4
-1.537, 4.782e-4
-1.536, 4.689e-4
-1.535, 4.598e-4
-1.534, 4.509e-4
-1.533, 4.422e-4
-1.532, 4.339e-4
-1.531, 4.256e-4
-1.530, 4.175e-4
-1.529, 4.095e-4
-1.528, 4.015e-4
-1.527, 3.936e-4
-1.526, 3.857e-4
-1.525, 3.784e-4
-1.524, 3.709e-4
-1.523, 3.635e-4
-1.522, 3.561e-4
-1.521, 3.488e-4
-1.520, 3.417e-4
-1.519, 3.348e-4
-1.518, 3.281e-4
-1.517, 3.214e-4
-1.516, 3.148e-4
-1.515, 3.083e-4
-1.514, 3.020e-4
-1.513, 2.960e-4
-1.512, 2.900e-4
-1.511, 2.839e-4
-1.510, 2.777e-4
-1.509, 2.717e-4
-1.508, 2.661e-4
-1.507, 2.606e-4
-1.506, 2.553e-4
-1.505, 2.501e-4
-1.504, 2.451e-4
-1.503, 2.400e-4
-1.502, 2.349e-4
-1.501, 2.300e-4
-1.500, 2.251e-4
-1.499, 2.203e-4
-1.498, 2.157e-4
-1.497, 2.110e-4
-1.496, 2.065e-4
-1.495, 2.020e-4
-1.494, 1.978e-4
-1.493, 1.936e-4
-1.492, 1.895e-4
-1.491, 1.853e-4
-1.490, 1.812e-4
-1.489, 1.773e-4
-1.488, 1.735e-4
-1.487, 1.697e-4
-1.486, 1.659e-4
-1.485, 1.622e-4
-1.484, 1.587e-4
-1.483, 1.552e-4
-1.482, 1.517e-4
-1.481, 1.483e-4
-1.480, 1.450e-4
-1.479, 1.418e-4
-1.478, 1.387e-4
-1.477, 1.356e-4
-1.476, 1.325e-4
-1.475, 1.294e-4
-1.474, 1.266e-4
-1.473, 1.237e-4
-1.472, 1.210e-4
-1.471, 1.182e-4
-1.470, 1.156e-4
-1.469, 1.130e-4
-1.468, 1.105e-4
-1.467, 1.080e-4
-1.466, 1.055e-4
-1.465, 1.030e-4
-1.464, 1.007e-4
-1.463, 9.849e-5
-1.462, 9.624e-5
-1.461, 9.399e-5
-1.460, 9.182e-5
-1.459, 8.974e-5
-1.458, 8.777e-5
-1.457, 8.572e-5
-1.456, 8.367e-5
-1.455, 8.164e-5
-1.454, 7.980e-5
-1.453, 7.803e-5
-1.452, 7.624e-5
-1.451, 7.436e-5
-1.450, 7.265e-5
-1.449, 7.103e-5
-1.448, 6.943e-5
-1.447, 6.781e-5
-1.446, 6.615e-5
-1.445, 6.460e-5
-1.444, 6.315e-5
-1.443, 6.173e-5
-1.442, 6.027e-5
-1.441, 5.879e-5
-1.440, 5.743e-5
-1.439, 5.610e-5
-1.438, 5.485e-5
-1.437, 5.357e-5
-1.436, 5.225e-5
-1.435, 5.101e-5
-1.434, 4.988e-5
-1.433, 4.878e-5
-1.432, 4.762e-5
-1.431, 4.650e-5
-1.430, 4.539e-5
-1.429, 4.439e-5
-1.428, 4.342e-5
-1.427, 4.243e-5
-1.426, 4.147e-5
-1.425, 4.059e-5
-1.424, 3.975e-5
-1.423, 3.893e-5
-1.422, 3.799e-5
-1.421, 3.707e-5
-1.420, 3.614e-5
-1.419, 3.538e-5
-1.418, 3.468e-5
-1.417, 3.384e-5
-1.416, 3.305e-5
-1.415, 3.227e-5
-1.414, 3.161e-5
-1.413, 3.097e-5
-1.412, 3.023e-5
-1.411, 2.943e-5
-1.410, 2.877e-5
-1.409, 2.812e-5
-1.408, 2.754e-5
-1.407, 2.690e-5
-1.406, 2.619e-5
-1.405, 2.558e-5
-1.404, 2.507e-5
-1.403, 2.455e-5
-1.402, 2.394e-5
-1.401, 2.336e-5
-1.400, 2.280e-5
-1.399, 2.229e-5
-1.398, 2.183e-5
-1.397, 2.132e-5
-1.396, 2.081e-5
-1.395, 2.026e-5
-1.394, 1.989e-5
-1.393, 1.946e-5
-1.392, 1.898e-5
-1.391, 1.847e-5
-1.390, 1.798e-5
-1.389, 1.761e-5
-1.388, 1.726e-5
-1.387, 1.680e-5
-1.386, 1.636e-5
-1.385, 1.595e-5
-1.384, 1.567e-5
-1.383, 1.532e-5
-1.382, 1.491e-5
-1.381, 1.449e-5
-1.380, 1.406e-5
-1.379, 1.378e-5
-1.378, 1.350e-5
-1.377, 1.301e-5
-1.376, 1.264e-5
-1.375, 1.229e-5
-1.374, 1.206e-5
-1.373, 1.187e-5
-1.372, 1.150e-5
-1.371, 1.112e-5
-1.370, 1.080e-5
-1.369, 1.052e-5
-1.368, 1.028e-5
-1.367, 9.923e-6
-1.366, 9.578e-6
-1.365, 9.269e-6
-1.364, 9.098e-6
-1.363, 8.821e-6
-1.362, 8.576e-6
-1.361, 8.249e-6
-1.360, 7.997e-6
-1.359, 7.809e-6
-1.358, 7.542e-6
-1.357, 7.301e-6
-1.356, 6.952e-6
-1.355, 6.636e-6
-1.354, 6.476e-6
-1.353, 6.283e-6
-1.352, 6.073e-6
-1.351, 5.776e-6
-1.350, 5.460e-6
-1.349, 5.333e-6
-1.348, 5.199e-6
-1.347, 4.887e-6
-1.346, 4.610e-6
-1.345, 4.328e-6
-1.344, 4.192e-6
-1.343, 4.099e-6
-1.342, 3.799e-6
-1.341, 3.541e-6
-1.340, 3.318e-6
-1.339, 3.159e-6
-1.338, 3.057e-6
-1.337, 2.757e-6
-1.336, 2.531e-6
-1.335, 2.350e-6
-1.334, 2.162e-6
-1.333, 2.080e-6
-1.332, 1.881e-6
-1.331, 1.630e-6
-1.330, 1.416e-6
-1.329, 1.227e-6
-1.328, 1.176e-6
-1.327, 1.031e-6
-1.326, 7.545e-7
-1.325, 6.371e-7
-1.324, 5.918e-7
-1.323, 5.010e-7
-1.322, 3.254e-7
-1.321, 1.241e-7
-1.320, -5.643e-8
-1.319, -1.640e-7
-1.318, -2.567e-7
-1.317, -3.751e-7
-1.316, -5.231e-7
-1.315, -6.997e-7
-1.314, -6.681e-7
-1.313, -6.859e-7
-1.312, -7.628e-7
-1.311, -1.001e-6
-1.310, -1.177e-6
-1.309, -1.144e-6
-1.308, -1.178e-6
-1.307, -1.295e-6
-1.306, -1.405e-6
-1.305, -1.461e-6
-1.304, -1.376e-6
-1.303, -1.333e-6
-1.302, -1.396e-6
-1.301, -1.485e-6
-1.300, -1.562e-6
-1.299, -1.540e-6
-1.298, -1.450e-6
-1.297, -1.505e-6
-1.296, -1.542e-6
-1.295, -1.590e-6
-1.294, -1.482e-6
-1.293, -1.340e-6
-1.292, -1.407e-6
-1.291, -1.476e-6
-1.290, -1.492e-6
-1.289, -1.434e-6
-1.288, -1.296e-6
-1.287, -1.339e-6
-1.286, -1.417e-6
-1.285, -1.397e-6
-1.284, -1.301e-6
-1.283, -1.277e-6
-1.282, -1.259e-6
-1.281, -1.374e-6
-1.280, -1.417e-6
-1.279, -1.355e-6
-1.278, -1.335e-6
-1.277, -1.325e-6
-1.276, -1.423e-6
-1.275, -1.480e-6
-1.274, -1.448e-6
-1.273, -1.379e-6
-1.272, -1.433e-6
-1.271, -1.495e-6
-1.270, -1.605e-6
-1.269, -1.580e-6
-1.268, -1.505e-6
-1.267, -1.623e-6
-1.266, -1.757e-6
-1.265, -1.832e-6
-1.264, -1.763e-6
-1.263, -1.739e-6
-1.262, -1.818e-6
-1.261, -1.980e-6
-1.260, -2.016e-6
-1.259, -2.018e-6
-1.258, -1.966e-6
-1.257, -2.017e-6
-1.256, -2.218e-6
-1.255, -2.283e-6
-1.254, -2.289e-6
-1.253, -2.270e-6
-1.252, -2.333e-6
-1.251, -2.536e-6
-1.250, -2.596e-6
-1.249, -2.601e-6
-1.248, -2.574e-6
-1.247, -2.678e-6
-1.246, -2.812e-6
-1.245, -2.843e-6
-1.244, -2.831e-6
-1.243, -2.799e-6
-1.242, -2.892e-6
-1.241, -3.068e-6
-1.240, -3.180e-6
-1.239, -3.184e-6
-1.238, -3.209e-6
-1.237, -3.290e-6
-1.236, -3.464e-6
-1.235, -3.558e-6
-1.234, -3.500e-6
-1.233, -3.500e-6
-1.232, -3.579e-6
-1.231, -3.766e-6
-1.230, -3.920e-6
-1.229, -3.975e-6
-1.228, -3.894e-6
-1.227, -4.040e-6
-1.226, -4.169e-6
-1.225, -4.297e-6
-1.224, -4.254e-6
-1.223, -4.269e-6
-1.222, -4.437e-6
-1.221, -4.531e-6
-1.220, -4.657e-6
-1.219, -4.687e-6
-1.218, -4.644e-6
-1.217, -4.784e-6
-1.216, -4.917e-6
-1.215, -5.044e-6
-1.214, -5.078e-6
-1.213, -5.034e-6
-1.212, -5.212e-6
-1.211, -5.396e-6
-1.210, -5.471e-6
-1.209, -5.457e-6
-1.208, -5.459e-6
-1.207, -5.587e-6
-1.206, -5.767e-6
-1.205, -5.864e-6
-1.204, -5.873e-6
-1.203, -5.892e-6
-1.202, -5.998e-6
-1.201, -6.178e-6
-1.200, -6.243e-6
-1.199, -6.277e-6
-1.198, -6.291e-6
-1.197, -6.348e-6
-1.196, -6.578e-6
-1.195, -6.680e-6
-1.194, -6.670e-6
-1.193, -6.689e-6
-1.192, -6.749e-6
-1.191, -6.942e-6
-1.190, -7.090e-6
-1.189, -7.077e-6
-1.188, -7.076e-6
-1.187, -7.165e-6
-1.186, -7.314e-6
-1.185, -7.444e-6
-1.184, -7.433e-6
-1.183, -7.415e-6
-1.182, -7.591e-6
-1.181, -7.695e-6
-1.180, -7.781e-6
-1.179, -7.886e-6
-1.178, -7.828e-6
-1.177, -7.946e-6
-1.176, -8.055e-6
-1.175, -8.170e-6
-1.174, -8.222e-6
-1.173, -8.176e-6
-1.172, -8.288e-6
-1.171, -8.503e-6
-1.170, -8.581e-6
-1.169, -8.582e-6
-1.168, -8.543e-6
-1.167, -8.679e-6
-1.166, -8.833e-6
-1.165, -8.900e-6
-1.164, -8.926e-6
-1.163, -8.948e-6
-1.162, -8.977e-6
-1.161, -9.208e-6
-1.160, -9.306e-6
-1.159, -9.280e-6
-1.158, -9.290e-6
-1.157, -9.331e-6
-1.156, -9.510e-6
-1.155, -9.627e-6
-1.154, -9.600e-6
-1.153, -9.662e-6
-1.152, -9.730e-6
-1.151, -9.894e-6
-1.150, -1.002e-5
-1.149, -9.986e-6
-1.148, -9.988e-6
-1.147, -1.007e-5
-1.146, -1.021e-5
-1.145, -1.039e-5
-1.144, -1.031e-5
-1.143, -1.027e-5
-1.142, -1.042e-5
-1.141, -1.057e-5
-1.140, -1.067e-5
-1.139, -1.071e-5
-1.138, -1.065e-5
-1.137, -1.080e-5
-1.136, -1.086e-5
-1.135, -1.096e-5
-1.134, -1.104e-5
-1.133, -1.095e-5
-1.132, -1.104e-5
-1.131, -1.127e-5
-1.130, -1.132e-5
-1.129, -1.135e-5
-1.128, -1.129e-5
-1.127, -1.137e-5
-1.126, -1.158e-5
-1.125, -1.166e-5
-1.124, -1.164e-5
-1.123, -1.170e-5
-1.122, -1.168e-5
-1.121, -1.189e-5
-1.120, -1.199e-5
-1.119, -1.196e-5
-1.118, -1.198e-5
-1.117, -1.200e-5
-1.116, -1.219e-5
-1.115, -1.232e-5
-1.114, -1.230e-5
-1.113, -1.230e-5
-1.112, -1.236e-5
-1.111, -1.251e-5
-1.110, -1.263e-5
-1.109, -1.261e-5
-1.108, -1.255e-5
-1.107, -1.264e-5
-1.106, -1.280e-5
-1.105, -1.294e-5
-1.104, -1.293e-5
-1.103, -1.284e-5
-1.102, -1.298e-5
-1.101, -1.312e-5
-1.100, -1.323e-5
-1.099, -1.322e-5
-1.098, -1.315e-5
-1.097, -1.325e-5
-1.096, -1.341e-5
-1.095, -1.349e-5
-1.094, -1.351e-5
-1.093, -1.343e-5
-1.092, -1.349e-5
-1.091, -1.369e-5
-1.090, -1.377e-5
-1.089, -1.376e-5
-1.088, -1.367e-5
-1.087, -1.373e-5
-1.086, -1.398e-5
-1.085, -1.401e-5
-1.084, -1.399e-5
-1.083, -1.396e-5
-1.082, -1.401e-5
-1.081, -1.423e-5
-1.080, -1.425e-5
-1.079, -1.426e-5
-1.078, -1.424e-5
-1.077, -1.420e-5
-1.076, -1.444e-5
-1.075, -1.457e-5
-1.074, -1.446e-5
-1.073, -1.440e-5
-1.072, -1.443e-5
-1.071, -1.460e-5
-1.070, -1.474e-5
-1.069, -1.460e-5
-1.068, -1.457e-5
-1.067, -1.462e-5
-1.066, -1.478e-5
-1.065, -1.487e-5
-1.064, -1.477e-5
-1.063, -1.471e-5
-1.062, -1.477e-5
-1.061, -1.492e-5
-1.060, -1.496e-5
-1.059, -1.499e-5
-1.058, -1.484e-5
-1.057, -1.493e-5
-1.056, -1.500e-5
-1.055, -1.510e-5
-1.054, -1.507e-5
-1.053, -1.491e-5
-1.052, -1.495e-5
-1.051, -1.512e-5
-1.050, -1.517e-5
-1.049, -1.515e-5
-1.048, -1.502e-5
-1.047, -1.501e-5
-1.046, -1.522e-5
-1.045, -1.521e-5
-1.044, -1.517e-5
-1.043, -1.507e-5
-1.042, -1.508e-5
-1.041, -1.527e-5
-1.040, -1.524e-5
-1.039, -1.521e-5
-1.038, -1.511e-5
-1.037, -1.516e-5
-1.036, -1.528e-5
-1.035, -1.533e-5
-1.034, -1.524e-5
-1.033, -1.516e-5
-1.032, -1.511e-5
-1.031, -1.526e-5
-1.030, -1.538e-5
-1.029, -1.524e-5
-1.028, -1.511e-5
-1.027, -1.518e-5
-1.026, -1.529e-5
-1.025, -1.535e-5
-1.024, -1.528e-5
-1.023, -1.518e-5
-1.022, -1.521e-5
-1.021, -1.534e-5
-1.020, -1.535e-5
-1.019, -1.533e-5
-1.018, -1.518e-5
-1.017, -1.520e-5
-1.016, -1.529e-5
-1.015, -1.533e-5
-1.014, -1.533e-5
-1.013, -1.518e-5
-1.012, -1.520e-5
-1.011, -1.537e-5
-1.010, -1.539e-5
-1.009, -1.533e-5
-1.008, -1.523e-5
-1.007, -1.521e-5
-1.006, -1.540e-5
-1.005, -1.539e-5
-1.004, -1.537e-5
-1.003, -1.528e-5
-1.002, -1.524e-5
-1.001, -1.543e-5
-1.000, -8.568e-6
-1.001, -5.983e-6
-1.002, -4.815e-6
-1.003, -4.076e-6
-1.004, -3.539e-6
-1.005, -3.030e-6
-1.006, -2.503e-6
-1.007, -1.908e-6
-1.008, -1.569e-6
-1.009, -1.359e-6
-1.010, -1.045e-6
-1.011, -7.066e-7
-1.012, -3.110e-7
-1.013, -1.184e-9
-1.014, 7.281e-8
-1.015, 2.780e-7
-1.016, 5.691e-7
-1.017, 8.759e-7
-1.018, 1.097e-6
-1.019, 1.147e-6
-1.020, 1.289e-6
-1.021, 1.544e-6
-1.022, 1.821e-6
-1.023, 2.008e-6
-1.024, 2.034e-6
-1.025, 2.123e-6
-1.026, 2.335e-6
-1.027, 2.572e-6
-1.028, 2.719e-6
-1.029, 2.701e-6
-1.030, 2.817e-6
-1.031, 3.002e-6
-1.032, 3.209e-6
-1.033, 3.292e-6
-1.034, 3.342e-6
-1.035, 3.380e-6
-1.036, 3.561e-6
-1.037, 3.793e-6
-1.038, 3.862e-6
-1.039, 3.884e-6
-1.040, 3.864e-6
-1.041, 4.063e-6
-1.042, 4.305e-6
-1.043, 4.348e-6
-1.044, 4.307e-6
-1.045, 4.373e-6
-1.046, 4.522e-6
-1.047, 4.733e-6
-1.048, 4.756e-6
-1.049, 4.704e-6
-1.050, 4.827e-6
-1.051, 4.856e-6
-1.052, 5.100e-6
-1.053, 5.178e-6
-1.054, 5.114e-6
-1.055, 5.150e-6
-1.056, 5.284e-6
-1.057, 5.455e-6
-1.058, 5.569e-6
-1.059, 5.456e-6
-1.060, 5.498e-6
-1.061, 5.610e-6
-1.062, 5.791e-6
-1.063, 5.842e-6
-1.064, 5.772e-6
-1.065, 5.789e-6
-1.066, 5.983e-6
-1.067, 6.098e-6
-1.068, 6.160e-6
-1.069, 6.080e-6
-1.070, 6.119e-6
-1.071, 6.228e-6
-1.072, 6.388e-6
-1.073, 6.435e-6
-1.074, 6.410e-6
-1.075, 6.410e-6
-1.076, 6.527e-6
-1.077, 6.649e-6
-1.078, 6.703e-6
-1.079, 6.672e-6
-1.080, 6.653e-6
-1.081, 6.728e-6
-1.082, 6.951e-6
-1.083, 6.933e-6
-1.084, 6.911e-6
-1.085, 6.906e-6
-1.086, 7.037e-6
-1.087, 7.209e-6
-1.088, 7.190e-6
-1.089, 7.134e-6
-1.090, 7.179e-6
-1.091, 7.272e-6
-1.092, 7.391e-6
-1.093, 7.452e-6
-1.094, 7.407e-6
-1.095, 7.437e-6
-1.096, 7.466e-6
-1.097, 7.623e-6
-1.098, 7.713e-6
-1.099, 7.624e-6
-1.100, 7.665e-6
-1.101, 7.758e-6
-1.102, 7.878e-6
-1.103, 7.944e-6
-1.104, 7.889e-6
-1.105, 7.856e-6
-1.106, 8.005e-6
-1.107, 8.137e-6
-1.108, 8.181e-6
-1.109, 8.146e-6
-1.110, 8.096e-6
-1.111, 8.287e-6
-1.112, 8.359e-6
-1.113, 8.412e-6
-1.114, 8.405e-6
-1.115, 8.363e-6
-1.116, 8.465e-6
-1.117, 8.665e-6
-1.118, 8.689e-6
-1.119, 8.639e-6
-1.120, 8.649e-6
-1.121, 8.761e-6
-1.122, 8.943e-6
-1.123, 8.936e-6
-1.124, 8.902e-6
-1.125, 8.939e-6
-1.126, 9.011e-6
-1.127, 9.245e-6
-1.128, 9.240e-6
-1.129, 9.227e-6
-1.130, 9.241e-6
-1.131, 9.326e-6
-1.132, 9.496e-6
-1.133, 9.588e-6
-1.134, 9.515e-6
-1.135, 9.546e-6
-1.136, 9.635e-6
-1.137, 9.807e-6
-1.138, 9.897e-6
-1.139, 9.857e-6
-1.140, 9.872e-6
-1.141, 1.000e-5
-1.142, 1.015e-5
-1.143, 1.025e-5
-1.144, 1.020e-5
-1.145, 1.021e-5
-1.146, 1.036e-5
-1.147, 1.049e-5
-1.148, 1.058e-5
-1.149, 1.056e-5
-1.150, 1.056e-5
-1.151, 1.074e-5
-1.152, 1.083e-5
-1.153, 1.092e-5
-1.154, 1.095e-5
-1.155, 1.094e-5
-1.156, 1.108e-5
-1.157, 1.121e-5
-1.158, 1.129e-5
-1.159, 1.132e-5
-1.160, 1.125e-5
-1.161, 1.144e-5
-1.162, 1.163e-5
-1.163, 1.166e-5
-1.164, 1.164e-5
-1.165, 1.170e-5
-1.166, 1.181e-5
-1.167, 1.197e-5
-1.168, 1.200e-5
-1.169, 1.200e-5
-1.170, 1.207e-5
-1.171, 1.215e-5
-1.172, 1.229e-5
-1.173, 1.238e-5
-1.174, 1.235e-5
-1.175, 1.243e-5
-1.176, 1.250e-5
-1.177, 1.267e-5
-1.178, 1.278e-5
-1.179, 1.269e-5
-1.180, 1.269e-5
-1.181, 1.282e-5
-1.182, 1.294e-5
-1.183, 1.303e-5
-1.184, 1.298e-5
-1.185, 1.304e-5
-1.186, 1.313e-5
-1.187, 1.323e-5
-1.188, 1.333e-5
-1.189, 1.332e-5
-1.190, 1.330e-5
-1.191, 1.343e-5
-1.192, 1.353e-5
-1.193, 1.356e-5
-1.194, 1.355e-5
-1.195, 1.355e-5
-1.196, 1.363e-5
-1.197, 1.380e-5
-1.198, 1.378e-5
-1.199, 1.376e-5
-1.200, 1.379e-5
-1.201, 1.384e-5
-1.202, 1.399e-5
-1.203, 1.400e-5
-1.204, 1.398e-5
-1.205, 1.400e-5
-1.206, 1.406e-5
-1.207, 1.424e-5
-1.208, 1.426e-5
-1.209, 1.420e-5
-1.210, 1.419e-5
-1.211, 1.424e-5
-1.212, 1.439e-5
-1.213, 1.443e-5
-1.214, 1.435e-5
-1.215, 1.440e-5
-1.216, 1.442e-5
-1.217, 1.456e-5
-1.218, 1.459e-5
-1.219, 1.452e-5
-1.220, 1.455e-5
-1.221, 1.460e-5
-1.222, 1.471e-5
-1.223, 1.479e-5
-1.224, 1.471e-5
-1.225, 1.467e-5
-1.226, 1.478e-5
-1.227, 1.487e-5
-1.228, 1.495e-5
-1.229, 1.489e-5
-1.230, 1.486e-5
-1.231, 1.495e-5
-1.232, 1.502e-5
-1.233, 1.506e-5
-1.234, 1.506e-5
-1.235, 1.500e-5
-1.236, 1.507e-5
-1.237, 1.523e-5
-1.238, 1.527e-5
-1.239, 1.523e-5
-1.240, 1.520e-5
-1.241, 1.528e-5
-1.242, 1.542e-5
-1.243, 1.546e-5
-1.244, 1.542e-5
-1.245, 1.540e-5
-1.246, 1.548e-5
-1.247, 1.562e-5
-1.248, 1.563e-5
-1.249, 1.561e-5
-1.250, 1.564e-5
-1.251, 1.568e-5
-1.252, 1.587e-5
-1.253, 1.591e-5
-1.254, 1.588e-5
-1.255, 1.596e-5
-1.256, 1.601e-5
-1.257, 1.610e-5
-1.258, 1.618e-5
-1.259, 1.611e-5
-1.260, 1.614e-5
-1.261, 1.622e-5
-1.262, 1.635e-5
-1.263, 1.644e-5
-1.264, 1.640e-5
-1.265, 1.642e-5
-1.266, 1.651e-5
-1.267, 1.662e-5
-1.268, 1.670e-5
-1.269, 1.665e-5
-1.270, 1.668e-5
-1.271, 1.675e-5
-1.272, 1.684e-5
-1.273, 1.690e-5
-1.274, 1.686e-5
-1.275, 1.686e-5
-1.276, 1.698e-5
-1.277, 1.711e-5
-1.278, 1.714e-5
-1.279, 1.712e-5
-1.280, 1.709e-5
-1.281, 1.714e-5
-1.282, 1.727e-5
-1.283, 1.725e-5
-1.284, 1.723e-5
-1.285, 1.720e-5
-1.286, 1.724e-5
-1.287, 1.743e-5
-1.288, 1.745e-5
-1.289, 1.739e-5
-1.290, 1.739e-5
-1.291, 1.739e-5
-1.292, 1.750e-5
-1.293, 1.753e-5
-1.294, 1.742e-5
-1.295, 1.742e-5
-1.296, 1.742e-5
-1.297, 1.754e-5
-1.298, 1.764e-5
-1.299, 1.754e-5
-1.300, 1.753e-5
-1.301, 1.755e-5
-1.302, 1.762e-5
-1.303, 1.768e-5
-1.304, 1.759e-5
-1.305, 1.757e-5
-1.306, 1.774e-5
-1.307, 1.782e-5
-1.308, 1.781e-5
-1.309, 1.774e-5
-1.310, 1.766e-5
-1.311, 1.774e-5
-1.312, 1.781e-5
-1.313, 1.781e-5
-1.314, 1.776e-5
-1.315, 1.771e-5
-1.316, 1.773e-5
-1.317, 1.789e-5
-1.318, 1.790e-5
-1.319, 1.787e-5
-1.320, 1.778e-5
-1.321, 1.782e-5
-1.322, 1.798e-5
-1.323, 1.797e-5
-1.324, 1.790e-5
-1.325, 1.792e-5
-1.326, 1.796e-5
-1.327, 1.809e-5
-1.328, 1.815e-5
-1.329, 1.806e-5
-1.330, 1.805e-5
-1.331, 1.808e-5
-1.332, 1.823e-5
-1.333, 1.828e-5
-1.334, 1.823e-5
-1.335, 1.825e-5
-1.336, 1.827e-5
-1.337, 1.838e-5
-1.338, 1.847e-5
-1.339, 1.842e-5
-1.340, 1.839e-5
-1.341, 1.851e-5
-1.342, 1.859e-5
-1.343, 1.871e-5
-1.344, 1.867e-5
-1.345, 1.866e-5
-1.346, 1.880e-5
-1.347, 1.891e-5
-1.348, 1.909e-5
-1.349, 1.908e-5
-1.350, 1.913e-5
-1.351, 1.926e-5
-1.352, 1.939e-5
-1.353, 1.951e-5
-1.354, 1.949e-5
-1.355, 1.956e-5
-1.356, 1.968e-5
-1.357, 1.991e-5
-1.358, 1.999e-5
-1.359, 1.999e-5
-1.360, 1.999e-5
-1.361, 2.009e-5
-1.362, 2.031e-5
-1.363, 2.045e-5
-1.364, 2.051e-5
-1.365, 2.059e-5
-1.366, 2.076e-5
-1.367, 2.098e-5
-1.368, 2.108e-5
-1.369, 2.113e-5
-1.370, 2.125e-5
-1.371, 2.146e-5
-1.372, 2.172e-5
-1.373, 2.192e-5
-1.374, 2.203e-5
-1.375, 2.215e-5
-1.376, 2.233e-5
-1.377, 2.261e-5
-1.378, 2.284e-5
-1.379, 2.295e-5
-1.380, 2.307e-5
-1.381, 2.333e-5
-1.382, 2.362e-5
-1.383, 2.393e-5
-1.384, 2.403e-5
-1.385, 2.421e-5
-1.386, 2.458e-5
-1.387, 2.493e-5
-1.388, 2.522e-5
-1.389, 2.544e-5
-1.390, 2.561e-5
-1.391, 2.593e-5
-1.392, 2.626e-5
-1.393, 2.655e-5
-1.394, 2.682e-5
-1.395, 2.702e-5
-1.396, 2.738e-5
-1.397, 2.779e-5
-1.398, 2.820e-5
-1.399, 2.848e-5
-1.400, 2.873e-5
-1.401, 2.914e-5
-1.402, 2.968e-5
-1.403, 3.003e-5
-1.404, 3.031e-5
-1.405, 3.064e-5
-1.406, 3.103e-5
-1.407, 3.156e-5
-1.408, 3.195e-5
-1.409, 3.236e-5
-1.410, 3.274e-5
-1.411, 3.318e-5
-1.412, 3.378e-5
-1.413, 3.434e-5
-1.414, 3.471e-5
-1.415, 3.513e-5
-1.416, 3.568e-5
-1.417, 3.628e-5
-1.418, 3.695e-5
-1.419, 3.744e-5
-1.420, 3.793e-5
-1.421, 3.854e-5
-1.422, 3.926e-5
-1.423, 4.000e-5
-1.424, 4.053e-5
-1.425, 4.112e-5
-1.426, 4.188e-5
-1.427, 4.270e-5
-1.428, 4.350e-5
-1.429, 4.420e-5
-1.430, 4.487e-5
-1.431, 4.580e-5
-1.432, 4.666e-5
-1.433, 4.762e-5
-1.434, 4.849e-5
-1.435, 4.930e-5
-1.436, 5.035e-5
-1.437, 5.146e-5
-1.438, 5.255e-5
-1.439, 5.355e-5
-1.440, 5.452e-5
-1.441, 5.570e-5
-1.442, 5.693e-5
-1.443, 5.818e-5
-1.444, 5.930e-5
-1.445, 6.050e-5
-1.446, 6.178e-5
-1.447, 6.321e-5
-1.448, 6.456e-5
-1.449, 6.594e-5
-1.450, 6.745e-5
-1.451, 6.897e-5
-1.452, 7.058e-5
-1.453, 7.222e-5
-1.454, 7.371e-5
-1.455, 7.528e-5
-1.456, 7.690e-5
-1.457, 7.876e-5
-1.458, 8.059e-5
-1.459, 8.233e-5
-1.460, 8.427e-5
-1.461, 8.626e-5
-1.462, 8.840e-5
-1.463, 9.054e-5
-1.464, 9.268e-5
-1.465, 9.481e-5
-1.466, 9.716e-5
-1.467, 9.962e-5
-1.468, 1.021e-4
-1.469, 1.046e-4
-1.470, 1.072e-4
-1.471, 1.100e-4
-1.472, 1.129e-4
-1.473, 1.159e-4
-1.474, 1.189e-4
-1.475, 1.219e-4
-1.476, 1.251e-4
-1.477, 1.285e-4
-1.478, 1.321e-4
-1.479, 1.356e-4
-1.480, 1.393e-4
-1.481, 1.430e-4
-1.482, 1.470e-4
-1.483, 1.511e-4
-1.484, 1.552e-4
-1.485, 1.594e-4
-1.486, 1.637e-4
-1.487, 1.683e-4
-1.488, 1.729e-4
-1.489, 1.775e-4
-1.490, 1.822e-4
-1.491, 1.871e-4
-1.492, 1.922e-4
-1.493, 1.973e-4
-1.494, 2.024e-4
-1.495, 2.078e-4
-1.496, 2.131e-4
-1.497, 2.187e-4
-1.498, 2.245e-4
-1.499, 2.302e-4
-1.500, 2.360e-4
-1.501, 2.420e-4
-1.502, 2.481e-4
-1.503, 2.545e-4
-1.504, 2.607e-4
-1.505, 2.671e-4
-1.506, 2.737e-4
-1.507, 2.804e-4
-1.508, 2.873e-4
-1.509, 2.942e-4
-1.510, 3.011e-4
-1.511, 3.084e-4
-1.512, 3.156e-4
-1.513, 3.231e-4
-1.514, 3.306e-4
-1.515, 3.382e-4
-1.516, 3.460e-4
-1.517, 3.540e-4
-1.518, 3.621e-4
-1.519, 3.702e-4
-1.520, 3.783e-4
-1.521, 3.868e-4
-1.522, 3.956e-4
-1.523, 4.045e-4
-1.524, 4.134e-4
-1.525, 4.226e-4
-1.526, 4.318e-4
-1.527, 4.412e-4
-1.528, 4.507e-4
-1.529, 4.605e-4
-1.530, 4.701e-4
-1.531, 4.801e-4
-1.532, 4.902e-4
-1.533, 5.004e-4
-1.534, 5.107e-4
-1.535, 5.212e-4
-1.536, 5.320e-4
-1.537, 5.430e-4
-1.538, 5.543e-4
-1.539, 5.656e-4
-1.540, 5.769e-4
-1.541, 5.883e-4
-1.542, 5.999e-4
-1.543, 6.116e-4
-1.544, 6.234e-4
-1.545, 6.356e-4
-1.546, 6.480e-4
-1.547, 6.608e-4
-1.548, 6.738e-4
-1.549, 6.868e-4
-1.550, 6.997e-4
-1.551, 7.126e-4
-1.552, 7.263e-4
-1.553, 7.405e-4
-1.554, 7.539e-4
-1.555, 7.672e-4
-1.556, 7.814e-4
-1.557, 7.957e-4
-1.558, 8.103e-4
-1.559, 8.250e-4
-1.560, 8.395e-4
-1.561, 8.539e-4
-1.562, 8.685e-4
-1.563, 8.834e-4
-1.564, 8.994e-4
-1.565, 9.152e-4
-1.566, 9.311e-4
-1.567, 9.473e-4
-1.568, 9.635e-4
-1.569, 9.801e-4
-1.570, 9.968e-4
-1.571, 1.014e-3
-1.572, 1.031e-3
-1.573, 1.049e-3
-1.574, 1.066e-3
-1.575, 1.084e-3
-1.576, 1.101e-3
-1.577, 1.119e-3
-1.578, 1.137e-3
-1.579, 1.156e-3
-1.580, 1.175e-3
-1.581, 1.194e-3
-1.582, 1.213e-3
-1.583, 1.232e-3
-1.584, 1.251e-3
-1.585, 1.270e-3
-1.586, 1.290e-3
-1.587, 1.310e-3
-1.588, 1.331e-3
-1.589, 1.351e-3
-1.590, 1.371e-3
-1.591, 1.392e-3
-1.592, 1.413e-3
-1.593, 1.434e-3
-1.594, 1.456e-3
-1.595, 1.478e-3
-1.596, 1.499e-3
-1.597, 1.521e-3
-1.598, 1.543e-3
-1.599, 1.564e-3
-1.600, 1.587e-3
-1.601, 1.610e-3
-1.602, 1.632e-3
-1.603, 1.656e-3
-1.604, 1.679e-3
-1.605, 1.703e-3
-1.606, 1.727e-3
-1.607, 1.750e-3
-1.608, 1.773e-3
-1.609, 1.798e-3
-1.610, 1.823e-3
-1.611, 1.849e-3
-1.612, 1.874e-3
-1.613, 1.898e-3
-1.614, 1.922e-3
-1.615, 1.948e-3
-1.616, 1.973e-3
-1.617, 1.998e-3
-1.618, 2.024e-3
-1.619, 2.051e-3
-1.620, 2.076e-3
-1.621, 2.103e-3
-1.622, 2.128e-3
-1.623, 2.153e-3
-1.624, 2.179e-3
-1.625, 2.206e-3
-1.626, 2.233e-3
-1.627, 2.260e-3
-1.628, 2.288e-3
-1.629, 2.316e-3
-1.630, 2.345e-3
-1.631, 2.374e-3
-1.632, 2.402e-3
-1.633, 2.431e-3
-1.634, 2.461e-3
-1.635, 2.490e-3
-1.636, 2.520e-3
-1.637, 2.550e-3
-1.638, 2.579e-3
-1.639, 2.609e-3
-1.640, 2.640e-3
-1.641, 2.669e-3
-1.642, 2.700e-3
-1.643, 2.731e-3
-1.644, 2.762e-3
-1.645, 2.794e-3
-1.646, 2.823e-3
-1.647, 2.857e-3
-1.648, 2.888e-3
-1.649, 2.919e-3
-1.650, 2.952e-3
-1.651, 2.984e-3
-1.652, 3.015e-3
-1.653, 3.047e-3
-1.654, 3.081e-3
-1.655, 3.116e-3
-1.656, 3.148e-3
-1.657, 3.181e-3
-1.658, 3.213e-3
-1.659, 3.248e-3
-1.660, 3.284e-3
-1.661, 3.318e-3
-1.662, 3.351e-3
-1.663, 3.385e-3
-1.664, 3.419e-3
-1.665, 3.451e-3
-1.666, 3.487e-3
-1.667, 3.525e-3
-1.668, 3.559e-3
-1.669, 3.593e-3
-1.670, 3.628e-3
-1.671, 3.663e-3
-1.672, 3.696e-3
-1.673, 3.731e-3
-1.674, 3.766e-3
-1.675, 3.803e-3
-1.676, 3.839e-3
-1.677, 3.874e-3
-1.678, 3.911e-3
-1.679, 3.947e-3
-1.680, 3.984e-3
-1.681, 4.020e-3
-1.682, 4.058e-3
-1.683, 4.095e-3
-1.684, 4.136e-3
-1.685, 4.177e-3
-1.686, 4.216e-3
-1.687, 4.254e-3
-1.688, 4.292e-3
-1.689, 4.331e-3
-1.690, 4.365e-3
-1.691, 4.406e-3
-1.692, 4.449e-3
-1.693, 4.490e-3
-1.694, 4.540e-3
-1.695, 4.586e-3
-1.696, 4.621e-3
-1.697, 4.664e-3
-1.698, 4.704e-3
-1.699, 4.742e-3
-1.700, 4.774e-3
-1.701, 4.812e-3
-1.702, 4.851e-3
-1.703, 4.894e-3
-1.704, 4.938e-3
-1.705, 4.977e-3
-1.706, 5.019e-3
-1.707, 5.058e-3
-1.708, 5.104e-3
-1.709, 5.147e-3
-1.710, 5.195e-3
-1.711, 5.241e-3
-1.712, 5.286e-3
-1.713, 5.331e-3
-1.714, 5.378e-3
-1.715, 5.419e-3
-1.716, 5.461e-3
-1.717, 5.506e-3
-1.718, 5.557e-3
-1.719, 5.603e-3
-1.720, 5.647e-3
-1.721, 5.693e-3
-1.722, 5.737e-3
-1.723, 5.787e-3
-1.724, 5.836e-3
-1.725, 5.884e-3
-1.726, 5.933e-3
-1.727, 5.987e-3
-1.728, 6.038e-3
-1.729, 6.081e-3
-1.730, 6.130e-3
-1.731, 6.181e-3
-1.732, 6.223e-3
-1.733, 6.272e-3
-1.734, 6.318e-3
-1.735, 6.368e-3
-1.736, 6.415e-3
-1.737, 6.460e-3
-1.738, 6.510e-3
-1.739, 6.566e-3
-1.740, 6.615e-3
-1.741, 6.666e-3
-1.742, 6.710e-3
-1.743, 6.776e-3
-1.744, 6.847e-3
-1.745, 6.895e-3
-1.746, 6.951e-3
-1.747, 7.011e-3
-1.748, 7.073e-3
-1.749, 7.124e-3
-1.750, 7.175e-3
-1.751, 7.235e-3
-1.752, 7.297e-3
-1.753, 7.356e-3
-1.754, 7.410e-3
-1.755, 7.467e-3
-1.756, 7.533e-3
-1.757, 7.587e-3
-1.758, 7.651e-3
-1.759, 7.711e-3
-1.760, 7.769e-3
-1.761, 7.824e-3
-1.762, 7.883e-3
-1.763, 7.974e-3
-1.764, 8.047e-3
-1.765, 8.103e-3
-1.766, 8.152e-3
-1.767, 8.182e-3
-1.768, 8.228e-3
-1.769, 8.274e-3
-1.770, 8.351e-3
-1.771, 8.452e-3
-1.772, 8.546e-3
-1.773, 8.608e-3
-1.774, 8.672e-3
-1.775, 8.713e-3
-1.776, 8.747e-3
-1.777, 8.796e-3
-1.778, 8.856e-3
-1.779, 8.908e-3
-1.780, 8.980e-3
-1.781, 9.053e-3
-1.782, 9.130e-3
-1.783, 9.194e-3
-1.784, 9.269e-3
-1.785, 9.336e-3
-1.786, 9.427e-3
-1.787, 9.484e-3
-1.788, 9.508e-3
-1.789, 9.603e-3
-1.790, 9.677e-3
-1.791, 9.728e-3
-1.792, 9.789e-3
-1.793, 9.835e-3
-1.794, 9.897e-3
-1.795, 9.967e-3
-1.796, 9.993e-3
-1.797, 1.005e-2
-1.798, 1.010e-2
-1.799, 1.011e-2
-1.800, 1.010e-2
-1.799, 1.000e-2
-1.798, 9.903e-3
-1.797, 9.810e-3
-1.796, 9.733e-3
-1.795, 9.672e-3
-1.794, 9.624e-3
-1.793, 9.593e-3
-1.792, 9.522e-3
-1.791, 9.442e-3
-1.790, 9.364e-3
-1.789, 9.271e-3
-1.788, 9.198e-3
-1.787, 9.130e-3
-1.786, 9.068e-3
-1.785, 9.023e-3
-1.784, 8.988e-3
-1.783, 8.922e-3
-1.782, 8.862e-3
-1.781, 8.792e-3
-1.780, 8.726e-3
-1.779, 8.660e-3
-1.778, 8.627e-3
-1.777, 8.571e-3
-1.776, 8.502e-3
-1.775, 8.431e-3
-1.774, 8.369e-3
-1.773, 8.316e-3
-1.772, 8.253e-3
-1.771, 8.199e-3
-1.770, 8.126e-3
-1.769, 8.093e-3
-1.768, 8.063e-3
-1.767, 8.027e-3
-1.766, 7.978e-3
-1.765, 7.901e-3
-1.764, 7.835e-3
-1.763, 7.771e-3
-1.762, 7.702e-3
-1.761, 7.636e-3
-1.760, 7.577e-3
-1.759, 7.528e-3
-1.758, 7.493e-3
-1.757, 7.438e-3
-1.756, 7.390e-3
-1.755, 7.330e-3
-1.754, 7.255e-3
-1.753, 7.209e-3
-1.752, 7.146e-3
-1.751, 7.080e-3
-1.750, 7.018e-3
-1.749, 6.958e-3
-1.748, 6.905e-3
-1.747, 6.854e-3
-1.746, 6.806e-3
-1.745, 6.762e-3
-1.744, 6.704e-3
-1.743, 6.638e-3
-1.742, 6.590e-3
-1.741, 6.540e-3
-1.740, 6.495e-3
-1.739, 6.445e-3
-1.738, 6.389e-3
-1.737, 6.338e-3
-1.736, 6.293e-3
-1.735, 6.244e-3
-1.734, 6.185e-3
-1.733, 6.127e-3
-1.732, 6.079e-3
-1.731, 6.037e-3
-1.730, 5.987e-3
-1.729, 5.935e-3
-1.728, 5.879e-3
-1.727, 5.827e-3
-1.726, 5.788e-3
-1.725, 5.737e-3
-1.724, 5.685e-3
-1.723, 5.643e-3
-1.722, 5.592e-3
-1.721, 5.544e-3
-1.720, 5.514e-3
-1.719, 5.475e-3
-1.718, 5.430e-3
-1.717, 5.384e-3
-1.716, 5.343e-3
-1.715, 5.300e-3
-1.714, 5.260e-3
-1.713, 5.219e-3
-1.712, 5.173e-3
-1.711, 5.126e-3
-1.710, 5.087e-3
-1.709, 5.048e-3
-1.708, 5.002e-3
-1.707, 4.961e-3
-1.706, 4.923e-3
-1.705, 4.882e-3
-1.704, 4.839e-3
-1.703, 4.786e-3
-1.702, 4.744e-3
-1.701, 4.703e-3
-1.700, 4.661e-3
-1.699, 4.614e-3
-1.698, 4.567e-3
-1.697, 4.523e-3
-1.696, 4.482e-3
-1.695, 4.433e-3
-1.694, 4.395e-3
-1.693, 4.355e-3
-1.692, 4.312e-3
-1.691, 4.272e-3
-1.690, 4.232e-3
-1.689, 4.193e-3
-1.688, 4.148e-3
-1.687, 4.103e-3
-1.686, 4.064e-3
-1.685, 4.020e-3
-1.684, 3.981e-3
-1.683, 3.943e-3
-1.682, 3.906e-3
-1.681, 3.870e-3
-1.680, 3.836e-3
-1.679, 3.797e-3
-1.678, 3.759e-3
-1.677, 3.723e-3
-1.676, 3.682e-3
-1.675, 3.652e-3
-1.674, 3.614e-3
-1.673, 3.574e-3
-1.672, 3.539e-3
-1.671, 3.505e-3
-1.670, 3.469e-3
-1.669, 3.441e-3
-1.668, 3.405e-3
-1.667, 3.373e-3
-1.666, 3.338e-3
-1.665, 3.301e-3
-1.664, 3.268e-3
-1.663, 3.233e-3
-1.662, 3.195e-3
-1.661, 3.168e-3
-1.660, 3.140e-3
-1.659, 3.107e-3
-1.658, 3.073e-3
-1.657, 3.038e-3
-1.656, 3.004e-3
-1.655, 2.967e-3
-1.654, 2.941e-3
-1.653, 2.906e-3
-1.652, 2.872e-3
-1.651, 2.842e-3
-1.650, 2.810e-3
-1.649, 2.777e-3
-1.648, 2.748e-3
-1.647, 2.717e-3
-1.646, 2.688e-3
-1.645, 2.656e-3
-1.644, 2.627e-3
-1.643, 2.600e-3
-1.642, 2.569e-3
-1.641, 2.540e-3
-1.640, 2.511e-3
-1.639, 2.478e-3
-1.638, 2.449e-3
-1.637, 2.418e-3
-1.636, 2.391e-3
-1.635, 2.358e-3
-1.634, 2.334e-3
-1.633, 2.306e-3
-1.632, 2.277e-3
-1.631, 2.248e-3
-1.630, 2.218e-3
-1.629, 2.192e-3
-1.628, 2.165e-3
-1.627, 2.140e-3
-1.626, 2.110e-3
-1.625, 2.086e-3
-1.624, 2.058e-3
-1.623, 2.035e-3
-1.622, 2.005e-3
-1.621, 1.984e-3
-1.620, 1.956e-3
-1.619, 1.932e-3
-1.618, 1.905e-3
-1.617, 1.880e-3
-1.616, 1.855e-3
-1.615, 1.830e-3
-1.614, 1.806e-3
-1.613, 1.783e-3
-1.612, 1.758e-3
-1.611, 1.738e-3
-1.610, 1.712e-3
-1.609, 1.690e-3
-1.608, 1.667e-3
-1.607, 1.646e-3
-1.606, 1.623e-3
-1.605, 1.602e-3
-1.604, 1.578e-3
-1.603, 1.559e-3
-1.602, 1.539e-3
-1.601, 1.515e-3
-1.600, 1.494e-3
-1.599, 1.475e-3
-1.598, 1.453e-3
-1.597, 1.434e-3
-1.596, 1.414e-3
-1.595, 1.394e-3
-1.594, 1.376e-3
-1.593, 1.356e-3
-1.592, 1.336e-3
-1.591, 1.316e-3
-1.590, 1.297e-3
-1.589, 1.278e-3
-1.588, 1.260e-3
-1.587, 1.243e-3
-1.586, 1.227e-3
-1.585, 1.208e-3
-1.584, 1.190e-3
-1.583, 1.172e-3
-1.582, 1.155e-3
-1.581, 1.139e-3
-1.580, 1.120e-3
-1.579, 1.105e-3
-1.578, 1.089e-3
-1.577, 1.072e-3
-1.576, 1.057e-3
-1.575, 1.041e-3
-1.574, 1.025e-3
-1.573, 1.009e-3
-1.572, 9.931e-4
-1.571, 9.780e-4
-1.570, 9.636e-4
-1.569, 9.490e-4
-1.568, 9.330e-4
-1.567, 9.185e-4
-1.566, 9.047e-4
-1.565, 8.901e-4
-1.564, 8.754e-4
-1.563, 8.611e-4
-1.562, 8.480e-4
-1.561, 8.339e-4
-1.560, 8.205e-4
-1.559, 8.080e-4
-1.558, 7.939e-4
-1.557, 7.804e-4
-1.556, 7.674e-4
-1.555, 7.548e-4
-1.554, 7.420e-4
-1.553, 7.299e-4
-1.552, 7.169e-4
-1.551, 7.049e-4
-1.550, 6.935e-4
-1.549, 6.823e-4
-1.548, 6.700e-4
-1.547, 6.579e-4
-1.546, 6.466e-4
-1.545, 6.352e-4
-1.544, 6.244e-4
-1.543, 6.134e-4
-1.542, 6.027e-4
-1.541, 5.919e-4
-1.540, 5.817e-4
-1.539, 5.719e-4
-1.538, 5.615e-4
-1.537, 5.516e-4
-1.536, 5.418e-4
-1.535, 5.315e-4
-1.534, 5.217e-4
-1.533, 5.123e-4
-1.532, 5.032e-4
-1.531, 4.938e-4
-1.530, 4.848e-4
-1.529, 4.761e-4
-1.528, 4.677e-4
-1.527, 4.595e-4
-1.526, 4.508e-4
-1.525, 4.426e-4
-1.524, 4.346e-4
-1.523, 4.265e-4
-1.522, 4.184e-4
-1.521, 4.104e-4
-1.520, 4.026e-4
-1.519, 3.950e-4
-1.518, 3.878e-4
-1.517, 3.806e-4
-1.516, 3.732e-4
-1.515, 3.658e-4
-1.514, 3.588e-4
-1.513, 3.518e-4
-1.512, 3.451e-4
-1.511, 3.385e-4
-1.510, 3.319e-4
-1.509, 3.252e-4
-1.508, 3.189e-4
-1.507, 3.127e-4
-1.506, 3.067e-4
-1.505, 3.005e-4
-1.504, 2.946e-4
-1.503, 2.887e-4
-1.502, 2.829e-4
-1.501, 2.771e-4
-1.500, 2.715e-4
-1.499, 2.660e-4
-1.498, 2.607e-4
-1.497, 2.555e-4
-1.496, 2.502e-4
-1.495, 2.449e-4
-1.494, 2.396e-4
-1.493, 2.347e-4
-1.492, 2.298e-4
-1.491, 2.251e-4
-1.490, 2.203e-4
-1.489, 2.156e-4
-1.488, 2.111e-4
-1.487, 2.068e-4
-1.486, 2.023e-4
-1.485, 1.979e-4
-1.484, 1.937e-4
-1.483, 1.895e-4
-1.482, 1.856e-4
-1.481, 1.816e-4
-1.480, 1.778e-4
-1.479, 1.739e-4
-1.478, 1.701e-4
-1.477, 1.664e-4
-1.476, 1.627e-4
-1.475, 1.590e-4
-1.474, 1.552e-4
-1.473, 1.517e-4
-1.472, 1.484e-4
-1.471, 1.452e-4
-1.470, 1.419e-4
-1.469, 1.388e-4
-1.468, 1.358e-4
-1.467, 1.328e-4
-1.466, 1.299e-4
-1.465, 1.269e-4
-1.464, 1.240e-4
-1.463, 1.214e-4
-1.462, 1.187e-4
-1.461, 1.159e-4
-1.460, 1.132e-4
-1.459, 1.105e-4
-1.458, 1.081e-4
-1.457, 1.057e-4
-1.456, 1.032e-4
-1.455, 1.008e-4
-1.454, 9.843e-5
-1.453, 9.619e-5
-1.452, 9.399e-5
-1.451, 9.177e-5
-1.450, 8.962e-5
-1.449, 8.748e-5
-1.448, 8.551e-5
-1.447, 8.360e-5
-1.446, 8.164e-5
-1.445, 7.969e-5
-1.444, 7.780e-5
-1.443, 7.604e-5
-1.442, 7.430e-5
-1.441, 7.257e-5
-1.440, 7.077e-5
-1.439, 6.909e-5
-1.438, 6.752e-5
-1.437, 6.601e-5
-1.436, 6.443e-5
-1.435, 6.281e-5
-1.434, 6.130e-5
-1.433, 5.993e-5
-1.432, 5.859e-5
-1.431, 5.717e-5
-1.430, 5.571e-5
-1.429, 5.435e-5
-1.428, 5.306e-5
-1.427, 5.182e-5
-1.426, 5.064e-5
-1.425, 4.931e-5
-1.424, 4.813e-5
-1.423, 4.705e-5
-1.422, 4.596e-5
-1.421, 4.486e-5
-1.420, 4.369e-5
-1.419, 4.263e-5
-1.418, 4.166e-5
-1.417, 4.068e-5
-1.416, 3.970e-5
-1.415, 3.874e-5
-1.414, 3.776e-5
-1.413, 3.693e-5
-1.412, 3.613e-5
-1.411, 3.521e-5
-1.410, 3.431e-5
-1.409, 3.345e-5
-1.408, 3.266e-5
-1.407, 3.198e-5
-1.406, 3.117e-5
-1.405, 3.043e-5
-1.404, 2.970e-5
-1.403, 2.901e-5
-1.402, 2.837e-5
-1.401, 2.764e-5
-1.400, 2.693e-5
-1.399, 2.631e-5
-1.398, 2.569e-5
-1.397, 2.515e-5
-1.396, 2.450e-5
-1.395, 2.382e-5
-1.394, 2.328e-5
-1.393, 2.279e-5
-1.392, 2.229e-5
-1.391, 2.170e-5
-1.390, 2.113e-5
-1.389, 2.059e-5
-1.388, 2.017e-5
-1.387, 1.972e-5
-1.386, 1.917e-5
-1.385, 1.861e-5
-1.384, 1.822e-5
-1.383, 1.783e-5
-1.382, 1.748e-5
-1.381, 1.705e-5
-1.380, 1.655e-5
-1.379, 1.605e-5
-1.378, 1.568e-5
-1.377, 1.531e-5
-1.376, 1.492e-5
-1.375, 1.445e-5
-1.374, 1.405e-5
-1.373, 1.380e-5
-1.372, 1.345e-5
-1.371, 1.309e-5
-1.370, 1.263e-5
-1.369, 1.227e-5
-1.368, 1.189e-5
-1.367, 1.161e-5
-1.366, 1.120e-5
-1.365, 1.094e-5
-1.364, 1.066e-5
-1.363, 1.044e-5
-1.362, 1.026e-5
-1.361, 9.884e-6
-1.360, 9.506e-6
-1.359, 9.122e-6
-1.358, 8.811e-6
-1.357, 8.585e-6
-1.356, 8.307e-6
-1.355, 7.928e-6
-1.354, 7.669e-6
-1.353, 7.478e-6
-1.352, 7.278e-6
-1.351, 6.956e-6
-1.350, 6.584e-6
-1.349, 6.325e-6
-1.348, 6.105e-6
-1.347, 5.853e-6
-1.346, 5.651e-6
-1.345, 5.327e-6
-1.344, 5.067e-6
-1.343, 4.888e-6
-1.342, 4.709e-6
-1.341, 4.465e-6
-1.340, 4.114e-6
-1.339, 3.841e-6
-1.338, 3.724e-6
-1.337, 3.566e-6
-1.336, 3.334e-6
-1.335, 3.063e-6
-1.334, 2.804e-6
-1.333, 2.667e-6
-1.332, 2.568e-6
-1.331, 2.268e-6
-1.330, 2.096e-6
-1.329, 1.855e-6
-1.328, 1.733e-6
-1.327, 1.607e-6
-1.326, 1.324e-6
-1.325, 1.120e-6
-1.324, 9.390e-7
-1.323, 8.315e-7
-1.322, 7.467e-7
-1.321, 5.197e-7
-1.320, 3.352e-7
-1.319, 1.192e-7
-1.318, 3.631e-8
-1.317, -5.130e-9
-1.316, -1.699e-7
-1.315, -4.057e-7
-1.314, -5.872e-7
-1.313, -6.454e-7
-1.312, -7.007e-7
-1.311, -8.585e-7
-1.310, -1.050e-6
-1.309, -1.086e-6
-1.308, -1.160e-6
-1.307, -1.218e-6
-1.306, -1.326e-6
-1.305, -1.499e-6
-1.304, -1.593e-6
-1.303, -1.588e-6
-1.302, -1.570e-6
-1.301, -1.629e-6
-1.300, -1.741e-6
-1.299, -1.810e-6
-1.298, -1.788e-6
-1.297, -1.823e-6
-1.296, -1.880e-6
-1.295, -2.007e-6
-1.294, -2.099e-6
-1.293, -1.998e-6
-1.292, -1.965e-6
-1.291, -1.984e-6
-1.290, -2.022e-6
-1.289, -2.023e-6
-1.288, -1.961e-6
-1.287, -1.900e-6
-1.286, -1.969e-6
-1.285, -2.070e-6
-1.284, -2.013e-6
-1.283, -1.952e-6
-1.282, -1.863e-6
-1.281, -1.874e-6
-1.280, -2.006e-6
-1.279, -1.979e-6
-1.278, -1.934e-6
-1.277, -1.797e-6
-1.276, -1.866e-6
-1.275, -1.977e-6
-1.274, -1.943e-6
-1.273, -1.943e-6
-1.272, -1.865e-6
-1.271, -1.922e-6
-1.270, -2.041e-6
-1.269, -2.028e-6
-1.268, -1.993e-6
-1.267, -1.946e-6
-1.266, -1.955e-6
-1.265, -2.092e-6
-1.264, -2.056e-6
-1.263, -2.053e-6
-1.262, -2.041e-6
-1.261, -2.075e-6
-1.260, -2.203e-6
-1.259, -2.291e-6
-1.258, -2.216e-6
-1.257, -2.253e-6
-1.256, -2.266e-6
-1.255, -2.427e-6
-1.254, -2.486e-6
-1.253, -2.478e-6
-1.252, -2.448e-6
-1.251, -2.571e-6
-1.250, -2.688e-6
-1.249, -2.739e-6
-1.248, -2.759e-6
-1.247, -2.721e-6
-1.246, -2.840e-6
-1.245, -2.959e-6
-1.244, -3.069e-6
-1.243, -3.040e-6
-1.242, -3.074e-6
-1.241, -3.178e-6
-1.240, -3.318e-6
-1.239, -3.367e-6
-1.238, -3.403e-6
-1.237, -3.364e-6
-1.236, -3.476e-6
-1.235, -3.684e-6
-1.234, -3.694e-6
-1.233, -3.718e-6
-1.232, -3.708e-6
-1.231, -3.833e-6
-1.230, -3.954e-6
-1.229, -4.138e-6
-1.228, -4.066e-6
-1.227, -4.141e-6
-1.226, -4.197e-6
-1.225, -4.387e-6
-1.224, -4.468e-6
-1.223, -4.461e-6
-1.222, -4.511e-6
-1.221, -4.579e-6
-1.220, -4.738e-6
-1.219, -4.839e-6
-1.218, -4.850e-6
-1.217, -4.890e-6
-1.216, -5.016e-6
-1.215, -5.180e-6
-1.214, -5.318e-6
-1.213, -5.285e-6
-1.212, -5.290e-6
-1.211, -5.440e-6
-1.210, -5.563e-6
-1.209, -5.696e-6
-1.208, -5.680e-6
-1.207, -5.719e-6
-1.206, -5.840e-6
-1.205, -5.994e-6
-1.204, -6.082e-6
-1.203, -6.143e-6
-1.202, -6.113e-6
-1.201, -6.252e-6
-1.200, -6.416e-6
-1.199, -6.507e-6
-1.198, -6.575e-6
-1.197, -6.576e-6
-1.196, -6.733e-6
-1.195, -6.897e-6
-1.194, -6.929e-6
-1.193, -6.991e-6
-1.192, -6.984e-6
-1.191, -7.092e-6
-1.190, -7.305e-6
-1.189, -7.356e-6
-1.188, -7.444e-6
-1.187, -7.443e-6
-1.186, -7.577e-6
-1.185, -7.763e-6
-1.184, -7.785e-6
-1.183, -7.835e-6
-1.182, -7.885e-6
-1.181, -7.959e-6
-1.180, -8.150e-6
-1.179, -8.268e-6
-1.178, -8.301e-6
-1.177, -8.291e-6
-1.176, -8.400e-6
-1.175, -8.581e-6
-1.174, -8.667e-6
-1.173, -8.680e-6
-1.172, -8.645e-6
-1.171, -8.823e-6
-1.170, -8.968e-6
-1.169, -9.076e-6
-1.168, -9.076e-6
-1.167, -9.092e-6
-1.166, -9.228e-6
-1.165, -9.415e-6
-1.164, -9.493e-6
-1.163, -9.498e-6
-1.162, -9.505e-6
-1.161, -9.655e-6
-1.160, -9.813e-6
-1.159, -9.871e-6
-1.158, -9.936e-6
-1.157, -9.912e-6
-1.156, -1.001e-5
-1.155, -1.026e-5
-1.154, -1.029e-5
-1.153, -1.033e-5
-1.152, -1.031e-5
-1.151, -1.043e-5
-1.150, -1.064e-5
-1.149, -1.067e-5
-1.148, -1.069e-5
-1.147, -1.070e-5
-1.146, -1.082e-5
-1.145, -1.103e-5
-1.144, -1.109e-5
-1.143, -1.104e-5
-1.142, -1.110e-5
-1.141, -1.118e-5
-1.140, -1.136e-5
-1.139, -1.147e-5
-1.138, -1.146e-5
-1.137, -1.147e-5
-1.136, -1.158e-5
-1.135, -1.174e-5
-1.134, -1.190e-5
-1.133, -1.183e-5
-1.132, -1.182e-5
-1.131, -1.199e-5
-1.130, -1.213e-5
-1.129, -1.221e-5
-1.128, -1.222e-5
-1.127, -1.222e-5
-1.126, -1.237e-5
-1.125, -1.253e-5
-1.124, -1.262e-5
-1.123, -1.264e-5
-1.122, -1.257e-5
-1.121, -1.275e-5
-1.120, -1.289e-5
-1.119, -1.299e-5
-1.118, -1.301e-5
-1.117, -1.296e-5
-1.116, -1.309e-5
-1.115, -1.332e-5
-1.114, -1.337e-5
-1.113, -1.341e-5
-1.112, -1.334e-5
-1.111, -1.349e-5
-1.110, -1.370e-5
-1.109, -1.374e-5
-1.108, -1.372e-5
-1.107, -1.376e-5
-1.106, -1.383e-5
-1.105, -1.405e-5
-1.104, -1.412e-5
-1.103, -1.410e-5
-1.102, -1.409e-5
-1.101, -1.418e-5
-1.100, -1.440e-5
-1.099, -1.450e-5
-1.098, -1.448e-5
-1.097, -1.447e-5
-1.096, -1.453e-5
-1.095, -1.476e-5
-1.094, -1.484e-5
-1.093, -1.482e-5
-1.092, -1.477e-5
-1.091, -1.491e-5
-1.090, -1.508e-5
-1.089, -1.519e-5
-1.088, -1.514e-5
-1.087, -1.509e-5
-1.086, -1.522e-5
-1.085, -1.536e-5
-1.084, -1.548e-5
-1.083, -1.544e-5
-1.082, -1.539e-5
-1.081, -1.554e-5
-1.080, -1.567e-5
-1.079, -1.574e-5
-1.078, -1.573e-5
-1.077, -1.567e-5
-1.076, -1.578e-5
-1.075, -1.599e-5
-1.074, -1.601e-5
-1.073, -1.600e-5
-1.072, -1.588e-5
-1.071, -1.599e-5
-1.070, -1.623e-5
-1.069, -1.620e-5
-1.068, -1.621e-5
-1.067, -1.617e-5
-1.066, -1.621e-5
-1.065, -1.641e-5
-1.064, -1.639e-5
-1.063, -1.636e-5
-1.062, -1.639e-5
-1.061, -1.637e-5
-1.060, -1.656e-5
-1.059, -1.662e-5
-1.058, -1.654e-5
-1.057, -1.647e-5
-1.056, -1.652e-5
-1.055, -1.668e-5
-1.054, -1.676e-5
-1.053, -1.664e-5
-1.052, -1.658e-5
-1.051, -1.667e-5
-1.050, -1.680e-5
-1.049, -1.685e-5
-1.048, -1.675e-5
-1.047, -1.663e-5
-1.046, -1.672e-5
-1.045, -1.687e-5
-1.044, -1.688e-5
-1.043, -1.683e-5
-1.042, -1.668e-5
-1.041, -1.682e-5
-1.040, -1.688e-5
-1.039, -1.697e-5
-1.038, -1.686e-5
-1.037, -1.676e-5
-1.036, -1.677e-5
-1.035, -1.698e-5
-1.034, -1.698e-5
-1.033, -1.692e-5
-1.032, -1.677e-5
-1.031, -1.686e-5
-1.030, -1.703e-5
-1.029, -1.699e-5
-1.028, -1.689e-5
-1.027, -1.683e-5
-1.026, -1.686e-5
-1.025, -1.702e-5
-1.024, -1.705e-5
-1.023, -1.693e-5
-1.022, -1.687e-5
-1.021, -1.690e-5
-1.020, -1.702e-5
-1.019, -1.708e-5
-1.018, -1.693e-5
-1.017, -1.689e-5
-1.016, -1.692e-5
-1.015, -1.705e-5
-1.014, -1.712e-5
-1.013, -1.694e-5
-1.012, -1.687e-5
-1.011, -1.699e-5
-1.010, -1.709e-5
-1.009, -1.714e-5
-1.008, -1.698e-5
-1.007, -1.691e-5
-1.006, -1.704e-5
-1.005, -1.713e-5
-1.004, -1.717e-5
-1.003, -1.708e-5
-1.002, -1.699e-5
-1.001, -1.707e-5
-1.000, -1.016e-5
-1.001, -7.367e-6
-1.002, -6.142e-6
-1.003, -5.227e-6
-1.004, -4.555e-6
-1.005, -4.066e-6
-1.006, -3.535e-6
-1.007, -2.937e-6
-1.008, -2.430e-6
-1.009, -2.112e-6
-1.010, -1.830e-6
-1.011, -1.467e-6
-1.012, -1.089e-6
-1.013, -6.839e-7
-1.014, -4.501e-7
-1.015, -2.962e-7
-1.016, -5.841e-8
-1.017, 2.553e-7
-1.018, 6.519e-7
-1.019, 7.536e-7
-1.020, 8.749e-7
-1.021, 1.060e-6
-1.022, 1.347e-6
-1.023, 1.658e-6
-1.024, 1.748e-6
-1.025, 1.788e-6
-1.026, 1.984e-6
-1.027, 2.190e-6
-1.028, 2.449e-6
-1.029, 2.564e-6
-1.030, 2.551e-6
-1.031, 2.749e-6
-1.032, 2.900e-6
-1.033, 3.139e-6
-1.034, 3.235e-6
-1.035, 3.200e-6
-1.036, 3.318e-6
-1.037, 3.575e-6
-1.038, 3.767e-6
-1.039, 3.809e-6
-1.040, 3.799e-6
-1.041, 3.920e-6
-1.042, 4.110e-6
-1.043, 4.296e-6
-1.044, 4.374e-6
-1.045, 4.324e-6
-1.046, 4.405e-6
-1.047, 4.605e-6
-1.048, 4.782e-6
-1.049, 4.800e-6
-1.050, 4.806e-6
-1.051, 4.816e-6
-1.052, 5.028e-6
-1.053, 5.250e-6
-1.054, 5.235e-6
-1.055, 5.220e-6
-1.056, 5.261e-6
-1.057, 5.405e-6
-1.058, 5.677e-6
-1.059, 5.626e-6
-1.060, 5.574e-6
-1.061, 5.658e-6
-1.062, 5.800e-6
-1.063, 6.010e-6
-1.064, 5.966e-6
-1.065, 5.927e-6
-1.066, 5.999e-6
-1.067, 6.167e-6
-1.068, 6.308e-6
-1.069, 6.315e-6
-1.070, 6.263e-6
-1.071, 6.368e-6
-1.072, 6.447e-6
-1.073, 6.662e-6
-1.074, 6.625e-6
-1.075, 6.639e-6
-1.076, 6.631e-6
-1.077, 6.818e-6
-1.078, 6.948e-6
-1.079, 6.960e-6
-1.080, 6.841e-6
-1.081, 6.931e-6
-1.082, 7.105e-6
-1.083, 7.200e-6
-1.084, 7.197e-6
-1.085, 7.167e-6
-1.086, 7.206e-6
-1.087, 7.372e-6
-1.088, 7.459e-6
-1.089, 7.462e-6
-1.090, 7.447e-6
-1.091, 7.456e-6
-1.092, 7.608e-6
-1.093, 7.755e-6
-1.094, 7.733e-6
-1.095, 7.712e-6
-1.096, 7.694e-6
-1.097, 7.827e-6
-1.098, 7.996e-6
-1.099, 8.015e-6
-1.100, 7.894e-6
-1.101, 8.022e-6
-1.102, 8.099e-6
-1.103, 8.260e-6
-1.104, 8.221e-6
-1.105, 8.142e-6
-1.106, 8.241e-6
-1.107, 8.325e-6
-1.108, 8.504e-6
-1.109, 8.503e-6
-1.110, 8.399e-6
-1.111, 8.499e-6
-1.112, 8.608e-6
-1.113, 8.724e-6
-1.114, 8.785e-6
-1.115, 8.683e-6
-1.116, 8.743e-6
-1.117, 8.870e-6
-1.118, 8.981e-6
-1.119, 9.010e-6
-1.120, 8.969e-6
-1.121, 9.004e-6
-1.122, 9.143e-6
-1.123, 9.260e-6
-1.124, 9.263e-6
-1.125, 9.242e-6
-1.126, 9.288e-6
-1.127, 9.454e-6
-1.128, 9.569e-6
-1.129, 9.583e-6
-1.130, 9.555e-6
-1.131, 9.574e-6
-1.132, 9.731e-6
-1.133, 9.877e-6
-1.134, 9.902e-6
-1.135, 9.838e-6
-1.136, 9.901e-6
-1.137, 1.001e-5
-1.138, 1.019e-5
-1.139, 1.020e-5
-1.140, 1.015e-5
-1.141, 1.025e-5
-1.142, 1.038e-5
-1.143, 1.055e-5
-1.144, 1.051e-5
-1.145, 1.046e-5
-1.146, 1.060e-5
-1.147, 1.070e-5
-1.148, 1.088e-5
-1.149, 1.090e-5
-1.150, 1.089e-5
-1.151, 1.097e-5
-1.152, 1.107e-5
-1.153, 1.124e-5
-1.154, 1.126e-5
-1.155, 1.121e-5
-1.156, 1.132e-5
-1.157, 1.146e-5
-1.158, 1.162e-5
-1.159, 1.167e-5
-1.160, 1.163e-5
-1.161, 1.172e-5
-1.162, 1.187e-5
-1.163, 1.203e-5
-1.164, 1.207e-5
-1.165, 1.202e-5
-1.166, 1.213e-5
-1.167, 1.227e-5
-1.168, 1.239e-5
-1.169, 1.238e-5
-1.170, 1.242e-5
-1.171, 1.251e-5
-1.172, 1.265e-5
-1.173, 1.278e-5
-1.174, 1.284e-5
-1.175, 1.282e-5
-1.176, 1.287e-5
-1.177, 1.302e-5
-1.178, 1.321e-5
-1.179, 1.314e-5
-1.180, 1.317e-5
-1.181, 1.323e-5
-1.182, 1.336e-5
-1.183, 1.353e-5
-1.184, 1.349e-5
-1.185, 1.350e-5
-1.186, 1.359e-5
-1.187, 1.366e-5
-1.188, 1.384e-5
-1.189, 1.383e-5
-1.190, 1.380e-5
-1.191, 1.388e-5
-1.192, 1.398e-5
-1.193, 1.410e-5
-1.194, 1.415e-5
-1.195, 1.408e-5
-1.196, 1.418e-5
-1.197, 1.429e-5
-1.198, 1.441e-5
-1.199, 1.445e-5
-1.200, 1.437e-5
-1.201, 1.445e-5
-1.202, 1.452e-5
-1.203, 1.467e-5
-1.204, 1.467e-5
-1.205, 1.464e-5
-1.206, 1.467e-5
-1.207, 1.480e-5
-1.208, 1.490e-5
-1.209, 1.487e-5
-1.210, 1.490e-5
-1.211, 1.490e-5
-1.212, 1.500e-5
-1.213, 1.512e-5
-1.214, 1.511e-5
-1.215, 1.504e-5
-1.216, 1.509e-5
-1.217, 1.519e-5
-1.218, 1.531e-5
-1.219, 1.528e-5
-1.220, 1.527e-5
-1.221, 1.535e-5
-1.222, 1.541e-5
-1.223, 1.553e-5
-1.224, 1.548e-5
-1.225, 1.543e-5
-1.226, 1.552e-5
-1.227, 1.558e-5
-1.228, 1.574e-5
-1.229, 1.579e-5
-1.230, 1.570e-5
-1.231, 1.577e-5
-1.232, 1.583e-5
-1.233, 1.591e-5
-1.234, 1.596e-5
-1.235, 1.588e-5
-1.236, 1.595e-5
-1.237, 1.603e-5
-1.238, 1.616e-5
-1.239, 1.616e-5
-1.240, 1.609e-5
-1.241, 1.613e-5
-1.242, 1.630e-5
-1.243, 1.640e-5
-1.244, 1.636e-5
-1.245, 1.632e-5
-1.246, 1.638e-5
-1.247, 1.653e-5
-1.248, 1.666e-5
-1.249, 1.663e-5
-1.250, 1.664e-5
-1.251, 1.669e-5
-1.252, 1.685e-5
-1.253, 1.703e-5
-1.254, 1.711e-5
-1.255, 1.707e-5
-1.256, 1.715e-5
-1.257, 1.722e-5
-1.258, 1.734e-5
-1.259, 1.735e-5
-1.260, 1.733e-5
-1.261, 1.739e-5
-1.262, 1.750e-5
-1.263, 1.769e-5
-1.264, 1.768e-5
-1.265, 1.765e-5
-1.266, 1.776e-5
-1.267, 1.787e-5
-1.268, 1.797e-5
-1.269, 1.800e-5
-1.270, 1.797e-5
-1.271, 1.804e-5
-1.272, 1.815e-5
-1.273, 1.827e-5
-1.274, 1.832e-5
-1.275, 1.828e-5
-1.276, 1.833e-5
-1.277, 1.842e-5
-1.278, 1.853e-5
-1.279, 1.855e-5
-1.280, 1.852e-5
-1.281, 1.855e-5
-1.282, 1.867e-5
-1.283, 1.874e-5
-1.284, 1.875e-5
-1.285, 1.867e-5
-1.286, 1.871e-5
-1.287, 1.883e-5
-1.288, 1.889e-5
-1.289, 1.885e-5
-1.290, 1.880e-5
-1.291, 1.883e-5
-1.292, 1.895e-5
-1.293, 1.902e-5
-1.294, 1.904e-5
-1.295, 1.899e-5
-1.296, 1.897e-5
-1.297, 1.904e-5
-1.298, 1.912e-5
-1.299, 1.907e-5
-1.300, 1.900e-5
-1.301, 1.903e-5
-1.302, 1.910e-5
-1.303, 1.915e-5
-1.304, 1.914e-5
-1.305, 1.908e-5
-1.306, 1.914e-5
-1.307, 1.918e-5
-1.308, 1.928e-5
-1.309, 1.921e-5
-1.310, 1.914e-5
-1.311, 1.916e-5
-1.312, 1.920e-5
-1.313, 1.931e-5
-1.314, 1.936e-5
-1.315, 1.924e-5
-1.316, 1.932e-5
-1.317, 1.935e-5
-1.318, 1.945e-5
-1.319, 1.949e-5
-1.320, 1.941e-5
-1.321, 1.944e-5
-1.322, 1.952e-5
-1.323, 1.957e-5
-1.324, 1.954e-5
-1.325, 1.950e-5
-1.326, 1.952e-5
-1.327, 1.966e-5
-1.328, 1.969e-5
-1.329, 1.970e-5
-1.330, 1.962e-5
-1.331, 1.966e-5
-1.332, 1.972e-5
-1.333, 1.986e-5
-1.334, 1.980e-5
-1.335, 1.983e-5
-1.336, 1.980e-5
-1.337, 1.997e-5
-1.338, 2.009e-5
-1.339, 2.009e-5
-1.340, 2.008e-5
-1.341, 2.011e-5
-1.342, 2.024e-5
-1.343, 2.033e-5
-1.344, 2.030e-5
-1.345, 2.030e-5
-1.346, 2.036e-5
-1.347, 2.051e-5
-1.348, 2.066e-5
-1.349, 2.064e-5
-1.350, 2.066e-5
-1.351, 2.074e-5
-1.352, 2.085e-5
-1.353, 2.099e-5
-1.354, 2.106e-5
-1.355, 2.105e-5
-1.356, 2.120e-5
-1.357, 2.132e-5
-1.358, 2.149e-5
-1.359, 2.154e-5
-1.360, 2.154e-5
-1.361, 2.163e-5
-1.362, 2.192e-5
-1.363, 2.204e-5
-1.364, 2.211e-5
-1.365, 2.221e-5
-1.366, 2.235e-5
-1.367, 2.258e-5
-1.368, 2.281e-5
-1.369, 2.288e-5
-1.370, 2.301e-5
-1.371, 2.315e-5
-1.372, 2.339e-5
-1.373, 2.368e-5
-1.374, 2.381e-5
-1.375, 2.397e-5
-1.376, 2.414e-5
-1.377, 2.442e-5
-1.378, 2.474e-5
-1.379, 2.487e-5
-1.380, 2.503e-5
-1.381, 2.529e-5
-1.382, 2.565e-5
-1.383, 2.594e-5
-1.384, 2.615e-5
-1.385, 2.631e-5
-1.386, 2.663e-5
-1.387, 2.695e-5
-1.388, 2.731e-5
-1.389, 2.762e-5
-1.390, 2.786e-5
-1.391, 2.823e-5
-1.392, 2.863e-5
-1.393, 2.901e-5
-1.394, 2.942e-5
-1.395, 2.975e-5
-1.396, 3.023e-5
-1.397, 3.077e-5
-1.398, 3.128e-5
-1.399, 3.164e-5
-1.400, 3.191e-5
-1.401, 3.231e-5
-1.402, 3.282e-5
-1.403, 3.326e-5
-1.404, 3.372e-5
-1.405, 3.414e-5
-1.406, 3.466e-5
-1.407, 3.531e-5
-1.408, 3.597e-5
-1.409, 3.641e-5
-1.410, 3.690e-5
-1.411, 3.751e-5
-1.412, 3.813e-5
-1.413, 3.885e-5
-1.414, 3.941e-5
-1.415, 4.000e-5
-1.416, 4.064e-5
-1.417, 4.147e-5
-1.418, 4.232e-5
-1.419, 4.297e-5
-1.420, 4.365e-5
-1.421, 4.452e-5
-1.422, 4.541e-5
-1.423, 4.642e-5
-1.424, 4.716e-5
-1.425, 4.798e-5
-1.426, 4.901e-5
-1.427, 4.996e-5
-1.428, 5.105e-5
-1.429, 5.202e-5
-1.430, 5.297e-5
-1.431, 5.412e-5
-1.432, 5.529e-5
-1.433, 5.658e-5
-1.434, 5.778e-5
-1.435, 5.893e-5
-1.436, 6.028e-5
-1.437, 6.172e-5
-1.438, 6.320e-5
-1.439, 6.455e-5
-1.440, 6.583e-5
-1.441, 6.732e-5
-1.442, 6.896e-5
-1.443, 7.054e-5
-1.444, 7.217e-5
-1.445, 7.378e-5
-1.446, 7.546e-5
-1.447, 7.735e-5
-1.448, 7.924e-5
-1.449, 8.109e-5
-1.450, 8.296e-5
-1.451, 8.486e-5
-1.452, 8.699e-5
-1.453, 8.910e-5
-1.454, 9.115e-5
-1.455, 9.328e-5
-1.456, 9.558e-5
-1.457, 9.797e-5
-1.458, 1.004e-4
-1.459, 1.029e-4
-1.460, 1.054e-4
-1.461, 1.080e-4
-1.462, 1.107e-4
-1.463, 1.136e-4
-1.464, 1.164e-4
-1.465, 1.193e-4
-1.466, 1.223e-4
-1.467, 1.255e-4
-1.468, 1.288e-4
-1.469, 1.321e-4
-1.470, 1.356e-4
-1.471, 1.392e-4
-1.472, 1.429e-4
-1.473, 1.468e-4
-1.474, 1.507e-4
-1.475, 1.546e-4
-1.476, 1.588e-4
-1.477, 1.631e-4
-1.478, 1.675e-4
-1.479, 1.720e-4
-1.480, 1.764e-4
-1.481, 1.812e-4
-1.482, 1.861e-4
-1.483, 1.911e-4
-1.484, 1.961e-4
-1.485, 2.012e-4
-1.486, 2.065e-4
-1.487, 2.119e-4
-1.488, 2.175e-4
-1.489, 2.231e-4
-1.490, 2.288e-4
-1.491, 2.347e-4
-1.492, 2.408e-4
-1.493, 2.469e-4
-1.494, 2.531e-4
-1.495, 2.594e-4
-1.496, 2.657e-4
-1.497, 2.722e-4
-1.498, 2.789e-4
-1.499, 2.856e-4
-1.500, 2.926e-4
-1.501, 2.996e-4
-1.502, 3.069e-4
-1.503, 3.144e-4
-1.504, 3.220e-4
-1.505, 3.294e-4
-1.506, 3.371e-4
-1.507, 3.447e-4
-1.508, 3.527e-4
-1.509, 3.607e-4
-1.510, 3.689e-4
-1.511, 3.775e-4
-1.512, 3.862e-4
-1.513, 3.950e-4
-1.514, 4.040e-4
-1.515, 4.130e-4
-1.516, 4.223e-4
-1.517, 4.316e-4
-1.518, 4.411e-4
-1.519, 4.508e-4
-1.520, 4.605e-4
-1.521, 4.707e-4
-1.522, 4.809e-4
-1.523, 4.915e-4
-1.524, 5.018e-4
-1.525, 5.123e-4
-1.526, 5.230e-4
-1.527, 5.338e-4
-1.528, 5.449e-4
-1.529, 5.563e-4
-1.530, 5.677e-4
-1.531, 5.795e-4
-1.532, 5.913e-4
-1.533, 6.030e-4
-1.534, 6.151e-4
-1.535, 6.274e-4
-1.536, 6.399e-4
-1.537, 6.525e-4
-1.538, 6.650e-4
-1.539, 6.777e-4
-1.540, 6.910e-4
-1.541, 7.045e-4
-1.542, 7.182e-4
-1.543, 7.313e-4
-1.544, 7.446e-4
-1.545, 7.582e-4
-1.546, 7.722e-4
-1.547, 7.869e-4
-1.548, 8.018e-4
-1.549, 8.162e-4
-1.550, 8.305e-4
-1.551, 8.454e-4
-1.552, 8.613e-4
-1.553, 8.768e-4
-1.554, 8.914e-4
-1.555, 9.064e-4
-1.556, 9.227e-4
-1.557, 9.390e-4
-1.558, 9.556e-4
-1.559, 9.726e-4
-1.560, 9.887e-4
-1.561, 1.005e-3
-1.562, 1.022e-3
-1.563, 1.039e-3
-1.564, 1.056e-3
-1.565, 1.073e-3
-1.566, 1.090e-3
-1.567, 1.108e-3
-1.568, 1.127e-3
-1.569, 1.146e-3
-1.570, 1.163e-3
-1.571, 1.181e-3
-1.572, 1.199e-3
-1.573, 1.218e-3
-1.574, 1.237e-3
-1.575, 1.255e-3
-1.576, 1.275e-3
-1.577, 1.295e-3
-1.578, 1.314e-3
-1.579, 1.335e-3
-1.580, 1.356e-3
-1.581, 1.375e-3
-1.582, 1.394e-3
-1.583, 1.416e-3
-1.584, 1.437e-3
-1.585, 1.458e-3
-1.586, 1.478e-3
-1.587, 1.499e-3
-1.588, 1.521e-3
-1.589, 1.543e-3
-1.590, 1.566e-3
-1.591, 1.588e-3
-1.592, 1.608e-3
-1.593, 1.630e-3
-1.594, 1.651e-3
-1.595, 1.673e-3
-1.596, 1.697e-3
-1.597, 1.721e-3
-1.598, 1.745e-3
-1.599, 1.770e-3
-1.600, 1.792e-3
-1.601, 1.815e-3
-1.602, 1.839e-3
-1.603, 1.863e-3
-1.604, 1.887e-3
-1.605, 1.911e-3
-1.606, 1.936e-3
-1.607, 1.962e-3
-1.608, 1.989e-3
-1.609, 2.014e-3
-1.610, 2.038e-3
-1.611, 2.064e-3
-1.612, 2.092e-3
-1.613, 2.118e-3
-1.614, 2.146e-3
-1.615, 2.169e-3
-1.616, 2.194e-3
-1.617, 2.219e-3
-1.618, 2.249e-3
-1.619, 2.277e-3
-1.620, 2.304e-3
-1.621, 2.329e-3
-1.622, 2.355e-3
-1.623, 2.384e-3
-1.624, 2.417e-3
-1.625, 2.444e-3
-1.626, 2.470e-3
-1.627, 2.494e-3
-1.628, 2.526e-3
-1.629, 2.557e-3
-1.630, 2.583e-3
-1.631, 2.608e-3
-1.632, 2.637e-3
-1.633, 2.668e-3
-1.634, 2.695e-3
-1.635, 2.728e-3
-1.636, 2.759e-3
-1.637, 2.791e-3
-1.638, 2.816e-3
-1.639, 2.844e-3
-1.640, 2.874e-3
-1.641, 2.906e-3
-1.642, 2.937e-3
-1.643, 2.965e-3
-1.644, 2.998e-3
-1.645, 3.034e-3
-1.646, 3.065e-3
-1.647, 3.094e-3
-1.648, 3.122e-3
-1.649, 3.152e-3
-1.650, 3.185e-3
-1.651, 3.222e-3
-1.652, 3.255e-3
-1.653, 3.291e-3
-1.654, 3.327e-3
-1.655, 3.360e-3
-1.656, 3.385e-3
-1.657, 3.412e-3
-1.658, 3.449e-3
-1.659, 3.478e-3
-1.660, 3.506e-3
-1.661, 3.546e-3
-1.662, 3.579e-3
-1.663, 3.615e-3
-1.664, 3.655e-3
-1.665, 3.686e-3
-1.666, 3.718e-3
-1.667, 3.753e-3
-1.668, 3.786e-3
-1.669, 3.819e-3
-1.670, 3.862e-3
-1.671, 3.898e-3
-1.672, 3.928e-3
-1.673, 3.967e-3
-1.674, 4.005e-3
-1.675, 4.031e-3
-1.676, 4.067e-3
-1.677, 4.109e-3
-1.678, 4.142e-3
-1.679, 4.183e-3
-1.680, 4.218e-3
-1.681, 4.251e-3
-1.682, 4.291e-3
-1.683, 4.326e-3
-1.684, 4.371e-3
-1.685, 4.416e-3
-1.686, 4.449e-3
-1.687, 4.485e-3
-1.688, 4.518e-3
-1.689, 4.562e-3
-1.690, 4.595e-3
-1.691, 4.633e-3
-1.692, 4.685e-3
-1.693, 4.717e-3
-1.694, 4.759e-3
-1.695, 4.794e-3
-1.696, 4.830e-3
-1.697, 4.867e-3
-1.698, 4.912e-3
-1.699, 4.955e-3
-1.700, 4.995e-3
-1.701, 5.031e-3
-1.702, 5.069e-3
-1.703, 5.110e-3
-1.704, 5.158e-3
-1.705, 5.210e-3
-1.706, 5.247e-3
-1.707, 5.286e-3
-1.708, 5.329e-3
-1.709, 5.370e-3
-1.710, 5.400e-3
-1.711, 5.439e-3
-1.712, 5.489e-3
-1.713, 5.537e-3
-1.714, 5.584e-3
-1.715, 5.624e-3
-1.716, 5.655e-3
-1.717, 5.706e-3
-1.718, 5.762e-3
-1.719, 5.809e-3
-1.720, 5.838e-3
-1.721, 5.876e-3
-1.722, 5.917e-3
-1.723, 5.962e-3
-1.724, 6.011e-3
-1.725, 6.055e-3
-1.726, 6.076e-3
-1.727, 6.118e-3
-1.728, 6.178e-3
-1.729, 6.224e-3
-1.730, 6.256e-3
-1.731, 6.295e-3
-1.732, 6.356e-3
-1.733, 6.413e-3
-1.734, 6.458e-3
-1.735, 6.502e-3
-1.736, 6.541e-3
-1.737, 6.586e-3
-1.738, 6.644e-3
-1.739, 6.687e-3
-1.740, 6.736e-3
-1.741, 6.789e-3
-1.742, 6.832e-3
-1.743, 6.876e-3
-1.744, 6.913e-3
-1.745, 6.976e-3
-1.746, 7.019e-3
-1.747, 7.056e-3
-1.748, 7.121e-3
-1.749, 7.173e-3
-1.750, 7.220e-3
-1.751, 7.270e-3
-1.752, 7.311e-3
-1.753, 7.352e-3
-1.754, 7.420e-3
-1.755, 7.486e-3
-1.756, 7.553e-3
-1.757, 7.566e-3
-1.758, 7.608e-3
-1.759, 7.657e-3
-1.760, 7.713e-3
-1.761, 7.744e-3
-1.762, 7.785e-3
-1.763, 7.828e-3
-1.764, 7.868e-3
-1.765, 7.903e-3
-1.766, 7.934e-3
-1.767, 7.964e-3
-1.768, 8.019e-3
-1.769, 8.086e-3
-1.770, 8.089e-3
-1.771, 8.117e-3
-1.772, 8.167e-3
-1.773, 8.240e-3
-1.774, 8.302e-3
-1.775, 8.304e-3
-1.776, 8.334e-3
-1.777, 8.418e-3
-1.778, 8.474e-3
-1.779, 8.518e-3
-1.780, 8.544e-3
-1.781, 8.578e-3
-1.782, 8.639e-3
-1.783, 8.669e-3
-1.784, 8.698e-3
-1.785, 8.779e-3
-1.786, 8.873e-3
-1.787, 8.941e-3
-1.788, 8.982e-3
-1.789, 9.061e-3
-1.790, 9.186e-3
-1.791, 9.328e-3
-1.792, 9.388e-3
-1.793, 9.412e-3
-1.794, 9.397e-3
-1.795, 9.374e-3
-1.796, 9.411e-3
-1.797, 9.505e-3
-1.798, 9.607e-3
-1.799, 9.691e-3
-1.800, 9.709e-3
-1.799, 9.609e-3
-1.798, 9.532e-3
-1.797, 9.459e-3
-1.796, 9.413e-3
-1.795, 9.349e-3
-1.794, 9.294e-3
-1.793, 9.252e-3
-1.792, 9.177e-3
-1.791, 9.104e-3
-1.790, 9.062e-3
-1.789, 9.004e-3
-1.788, 8.934e-3
-1.787, 8.878e-3
-1.786, 8.837e-3
-1.785, 8.779e-3
-1.784, 8.712e-3
-1.783, 8.656e-3
-1.782, 8.590e-3
-1.781, 8.508e-3
-1.780, 8.397e-3
-1.779, 8.362e-3
-1.778, 8.308e-3
-1.777, 8.238e-3
-1.776, 8.181e-3
-1.775, 8.134e-3
-1.774, 8.093e-3
-1.773, 8.020e-3
-1.772, 7.943e-3
-1.771, 7.886e-3
-1.770, 7.842e-3
-1.769, 7.798e-3
-1.768, 7.727e-3
-1.767, 7.705e-3
-1.766, 7.649e-3
-1.765, 7.565e-3
-1.764, 7.498e-3
-1.763, 7.450e-3
-1.762, 7.390e-3
-1.761, 7.364e-3
-1.760, 7.322e-3
-1.759, 7.255e-3
-1.758, 7.196e-3
-1.757, 7.147e-3
-1.756, 7.115e-3
-1.755, 7.058e-3
-1.754, 6.988e-3
-1.753, 6.921e-3
-1.752, 6.892e-3
-1.751, 6.854e-3
-1.750, 6.806e-3
-1.749, 6.742e-3
-1.748, 6.688e-3
-1.747, 6.632e-3
-1.746, 6.576e-3
-1.745, 6.553e-3
-1.744, 6.505e-3
-1.743, 6.439e-3
-1.742, 6.378e-3
-1.741, 6.331e-3
-1.740, 6.305e-3
-1.739, 6.245e-3
-1.738, 6.188e-3
-1.737, 6.130e-3
-1.736, 6.074e-3
-1.735, 6.029e-3
-1.734, 5.991e-3
-1.733, 5.938e-3
-1.732, 5.874e-3
-1.731, 5.829e-3
-1.730, 5.792e-3
-1.729, 5.740e-3
-1.728, 5.690e-3
-1.727, 5.651e-3
-1.726, 5.612e-3
-1.725, 5.561e-3
-1.724, 5.505e-3
-1.723, 5.462e-3
-1.722, 5.418e-3
-1.721, 5.365e-3
-1.720, 5.334e-3
-1.719, 5.305e-3
-1.718, 5.256e-3
-1.717, 5.210e-3
-1.716, 5.168e-3
-1.715, 5.122e-3
-1.714, 5.073e-3
-1.713, 5.040e-3
-1.712, 5.012e-3
-1.711, 4.981e-3
-1.710, 4.944e-3
-1.709, 4.903e-3
-1.708, 4.867e-3
-1.707, 4.837e-3
-1.706, 4.788e-3
-1.705, 4.737e-3
-1.704, 4.699e-3
-1.703, 4.655e-3
-1.702, 4.622e-3
-1.701, 4.588e-3
-1.700, 4.556e-3
-1.699, 4.507e-3
-1.698, 4.464e-3
-1.697, 4.426e-3
-1.696, 4.386e-3
-1.695, 4.338e-3
-1.694, 4.307e-3
-1.693, 4.263e-3
-1.692, 4.226e-3
-1.691, 4.189e-3
-1.690, 4.144e-3
-1.689, 4.111e-3
-1.688, 4.061e-3
-1.687, 4.027e-3
-1.686, 3.995e-3
-1.685, 3.958e-3
-1.684, 3.930e-3
-1.683, 3.893e-3
-1.682, 3.861e-3
-1.681, 3.831e-3
-1.680, 3.788e-3
-1.679, 3.751e-3
-1.678, 3.715e-3
-1.677, 3.677e-3
-1.676, 3.635e-3
-1.675, 3.603e-3
-1.674, 3.569e-3
-1.673, 3.541e-3
-1.672, 3.512e-3
-1.671, 3.469e-3
-1.670, 3.442e-3
-1.669, 3.416e-3
-1.668, 3.374e-3
-1.667, 3.338e-3
-1.666, 3.304e-3
-1.665, 3.269e-3
-1.664, 3.240e-3
-1.663, 3.209e-3
-1.662, 3.175e-3
-1.661, 3.142e-3
-1.660, 3.104e-3
-1.659, 3.073e-3
-1.658, 3.045e-3
-1.657, 3.019e-3
-1.656, 2.985e-3
-1.655, 2.951e-3
-1.654, 2.920e-3
-1.653, 2.885e-3
-1.652, 2.868e-3
-1.651, 2.832e-3
-1.650, 2.804e-3
-1.649, 2.774e-3
-1.648, 2.739e-3
-1.647, 2.719e-3
-1.646, 2.685e-3
-1.645, 2.650e-3
-1.644, 2.621e-3
-1.643, 2.600e-3
-1.642, 2.570e-3
-1.641, 2.548e-3
-1.640, 2.525e-3
-1.639, 2.499e-3
-1.638, 2.473e-3
-1.637, 2.444e-3
-1.636, 2.414e-3
-1.635, 2.398e-3
-1.634, 2.369e-3
-1.633, 2.345e-3
-1.632, 2.322e-3
-1.631, 2.293e-3
-1.630, 2.271e-3
-1.629, 2.242e-3
-1.628, 2.214e-3
-1.627, 2.193e-3
-1.626, 2.158e-3
-1.625, 2.135e-3
-1.624, 2.110e-3
-1.623, 2.086e-3
-1.622, 2.062e-3
-1.621, 2.034e-3
-1.620, 2.011e-3
-1.619, 1.990e-3
-1.618, 1.962e-3
-1.617, 1.942e-3
-1.616, 1.915e-3
-1.615, 1.895e-3
-1.614, 1.872e-3
-1.613, 1.848e-3
-1.612, 1.826e-3
-1.611, 1.802e-3
-1.610, 1.779e-3
-1.609, 1.758e-3
-1.608, 1.733e-3
-1.607, 1.714e-3
-1.606, 1.688e-3
-1.605, 1.669e-3
-1.604, 1.648e-3
-1.603, 1.625e-3
-1.602, 1.605e-3
-1.601, 1.582e-3
-1.600, 1.563e-3
-1.599, 1.543e-3
-1.598, 1.523e-3
-1.597, 1.501e-3
-1.596, 1.483e-3
-1.595, 1.463e-3
-1.594, 1.441e-3
-1.593, 1.422e-3
-1.592, 1.404e-3
-1.591, 1.383e-3
-1.590, 1.364e-3
-1.589, 1.348e-3
-1.588, 1.330e-3
-1.587, 1.310e-3
-1.586, 1.292e-3
-1.585, 1.274e-3
-1.584, 1.257e-3
-1.583, 1.237e-3
-1.582, 1.220e-3
-1.581, 1.205e-3
-1.580, 1.187e-3
-1.579, 1.168e-3
-1.578, 1.151e-3
-1.577, 1.136e-3
-1.576, 1.120e-3
-1.575, 1.104e-3
-1.574, 1.087e-3
-1.573, 1.071e-3
-1.572, 1.056e-3
-1.571, 1.040e-3
-1.570, 1.023e-3
-1.569, 1.009e-3
-1.568, 9.936e-4
-1.567, 9.793e-4
-1.566, 9.647e-4
-1.565, 9.483e-4
-1.564, 9.343e-4
-1.563, 9.207e-4
-1.562, 9.070e-4
-1.561, 8.934e-4
-1.560, 8.795e-4
-1.559, 8.647e-4
-1.558, 8.511e-4
-1.557, 8.389e-4
-1.556, 8.265e-4
-1.555, 8.133e-4
-1.554, 7.988e-4
-1.553, 7.862e-4
-1.552, 7.742e-4
-1.551, 7.616e-4
-1.550, 7.494e-4
-1.549, 7.375e-4
-1.548, 7.255e-4
-1.547, 7.126e-4
-1.546, 7.011e-4
-1.545, 6.900e-4
-1.544, 6.790e-4
-1.543, 6.686e-4
-1.542, 6.575e-4
-1.541, 6.462e-4
-1.540, 6.344e-4
-1.539, 6.237e-4
-1.538, 6.136e-4
-1.537, 6.033e-4
-1.536, 5.935e-4
-1.535, 5.840e-4
-1.534, 5.746e-4
-1.533, 5.638e-4
-1.532, 5.532e-4
-1.531, 5.435e-4
-1.530, 5.341e-4
-1.529, 5.255e-4
-1.528, 5.163e-4
-1.527, 5.076e-4
-1.526, 4.983e-4
-1.525, 4.896e-4
-1.524, 4.810e-4
-1.523, 4.728e-4
-1.522, 4.644e-4
-1.521, 4.561e-4
-1.520, 4.478e-4
-1.519, 4.393e-4
-1.518, 4.312e-4
-1.517, 4.238e-4
-1.516, 4.161e-4
-1.515, 4.087e-4
-1.514, 4.013e-4
-1.513, 3.941e-4
-1.512, 3.867e-4
-1.511, 3.793e-4
-1.510, 3.721e-4
-1.509, 3.652e-4
-1.508, 3.584e-4
-1.507, 3.517e-4
-1.506, 3.452e-4
-1.505, 3.386e-4
-1.504, 3.322e-4
-1.503, 3.259e-4
-1.502, 3.196e-4
-1.501, 3.132e-4
-1.500, 3.071e-4
-1.499, 3.011e-4
-1.498, 2.953e-4
-1.497, 2.892e-4
-1.496, 2.833e-4
-1.495, 2.775e-4
-1.494, 2.719e-4
-1.493, 2.667e-4
-1.492, 2.615e-4
-1.491, 2.564e-4
-1.490, 2.512e-4
-1.489, 2.460e-4
-1.488, 2.407e-4
-1.487, 2.356e-4
-1.486, 2.307e-4
-1.485, 2.259e-4
-1.484, 2.212e-4
-1.483, 2.166e-4
-1.482, 2.123e-4
-1.481, 2.078e-4
-1.480, 2.034e-4
-1.479, 1.992e-4
-1.478, 1.950e-4
-1.477, 1.911e-4
-1.476, 1.869e-4
-1.475, 1.829e-4
-1.474, 1.790e-4
-1.473, 1.752e-4
-1.472, 1.715e-4
-1.471, 1.677e-4
-1.470, 1.640e-4
-1.469, 1.605e-4
-1.468, 1.571e-4
-1.467, 1.536e-4
-1.466, 1.502e-4
-1.465, 1.469e-4
-1.464, 1.437e-4
-1.463, 1.405e-4
-1.462, 1.374e-4
-1.461, 1.342e-4
-1.460, 1.312e-4
-1.459, 1.283e-4
-1.458, 1.256e-4
-1.457, 1.228e-4
-1.456, 1.201e-4
-1.455, 1.173e-4
-1.454, 1.147e-4
-1.453, 1.122e-4
-1.452, 1.096e-4
-1.451, 1.070e-4
-1.450, 1.045e-4
-1.449, 1.022e-4
-1.448, 9.986e-5
-1.447, 9.758e-5
-1.446, 9.525e-5
-1.445, 9.310e-5
-1.444, 9.098e-5
-1.443, 8.892e-5
-1.442, 8.682e-5
-1.441, 8.471e-5
-1.440, 8.268e-5
-1.439, 8.070e-5
-1.438, 7.886e-5
-1.437, 7.703e-5
-1.436, 7.514e-5
-1.435, 7.330e-5
-1.434, 7.154e-5
-1.433, 6.985e-5
-1.432, 6.829e-5
-1.431, 6.653e-5
-1.430, 6.491e-5
-1.429, 6.343e-5
-1.428, 6.190e-5
-1.427, 6.047e-5
-1.426, 5.899e-5
-1.425, 5.755e-5
-1.424, 5.622e-5
-1.423, 5.496e-5
-1.422, 5.367e-5
-1.421, 5.229e-5
-1.420, 5.103e-5
-1.419, 4.977e-5
-1.418, 4.867e-5
-1.417, 4.753e-5
-1.416, 4.632e-5
-1.415, 4.520e-5
-1.414, 4.413e-5
-1.413, 4.312e-5
-1.412, 4.215e-5
-1.411, 4.103e-5
-1.410, 4.003e-5
-1.409, 3.903e-5
-1.408, 3.816e-5
-1.407, 3.729e-5
-1.406, 3.629e-5
-1.405, 3.536e-5
-1.404, 3.451e-5
-1.403, 3.374e-5
-1.402, 3.301e-5
-1.401, 3.212e-5
-1.400, 3.135e-5
-1.399, 3.058e-5
-1.398, 2.990e-5
-1.397, 2.920e-5
-1.396, 2.837e-5
-1.395, 2.755e-5
-1.394, 2.693e-5
-1.393, 2.631e-5
-1.392, 2.575e-5
-1.391, 2.507e-5
-1.390, 2.440e-5
-1.389, 2.385e-5
-1.388, 2.331e-5
-1.387, 2.278e-5
-1.386, 2.214e-5
-1.385, 2.155e-5
-1.384, 2.106e-5
-1.383, 2.053e-5
-1.382, 2.006e-5
-1.381, 1.951e-5
-1.380, 1.894e-5
-1.379, 1.848e-5
-1.378, 1.804e-5
-1.377, 1.764e-5
-1.376, 1.716e-5
-1.375, 1.665e-5
-1.374, 1.618e-5
-1.373, 1.588e-5
-1.372, 1.547e-5
-1.371, 1.499e-5
-1.370, 1.450e-5
-1.369, 1.407e-5
-1.368, 1.379e-5
-1.367, 1.342e-5
-1.366, 1.293e-5
-1.365, 1.253e-5
-1.364, 1.218e-5
-1.363, 1.187e-5
-1.362, 1.158e-5
-1.361, 1.113e-5
-1.360, 1.075e-5
-1.359, 1.048e-5
-1.358, 1.020e-5
-1.357, 1.001e-5
-1.356, 9.641e-6
-1.355, 9.226e-6
-1.354, 8.921e-6
-1.353, 8.662e-6
-1.352, 8.418e-6
-1.351, 8.026e-6
-1.350, 7.603e-6
-1.349, 7.373e-6
-1.348, 7.209e-6
-1.347, 6.957e-6
-1.346, 6.655e-6
-1.345, 6.337e-6
-1.344, 6.088e-6
-1.343, 5.854e-6
-1.342, 5.628e-6
-1.341, 5.308e-6
-1.340, 5.022e-6
-1.339, 4.798e-6
-1.338, 4.690e-6
-1.337, 4.484e-6
-1.336, 4.175e-6
-1.335, 3.905e-6
-1.334, 3.681e-6
-1.333, 3.594e-6
-1.332, 3.408e-6
-1.331, 3.035e-6
-1.330, 2.791e-6
-1.329, 2.503e-6
-1.328, 2.466e-6
-1.327, 2.300e-6
-1.326, 1.992e-6
-1.325, 1.792e-6
-1.324, 1.629e-6
-1.323, 1.530e-6
-1.322, 1.420e-6
-1.321, 1.138e-6
-1.320, 9.311e-7
-1.319, 7.782e-7
-1.318, 7.003e-7
-1.317, 5.720e-7
-1.316, 3.047e-7
-1.315, 7.873e-8
-1.314, 6.709e-9
-1.313, -7.617e-8
-1.312, -8.702e-8
-1.311, -2.912e-7
-1.310, -4.688e-7
-1.309, -5.103e-7
-1.308, -5.813e-7
-1.307, -6.681e-7
-1.306, -8.270e-7
-1.305, -1.001e-6
-1.304, -1.081e-6
-1.303, -1.063e-6
-1.302, -1.086e-6
-1.301, -1.211e-6
-1.300, -1.342e-6
-1.299, -1.463e-6
-1.298, -1.480e-6
-1.297, -1.476e-6
-1.296, -1.557e-6
-1.295, -1.578e-6
-1.294, -1.591e-6
-1.293, -1.491e-6
-1.292, -1.446e-6
-1.291, -1.537e-6
-1.290, -1.557e-6
-1.289, -1.602e-6
-1.288, -1.515e-6
-1.287, -1.499e-6
-1.286, -1.610e-6
-1.285, -1.631e-6
-1.284, -1.576e-6
-1.283, -1.503e-6
-1.282, -1.414e-6
-1.281, -1.510e-6
-1.280, -1.609e-6
-1.279, -1.613e-6
-1.278, -1.545e-6
-1.277, -1.463e-6
-1.276, -1.532e-6
-1.275, -1.628e-6
-1.274, -1.592e-6
-1.273, -1.573e-6
-1.272, -1.526e-6
-1.271, -1.618e-6
-1.270, -1.749e-6
-1.269, -1.701e-6
-1.268, -1.670e-6
-1.267, -1.659e-6
-1.266, -1.771e-6
-1.265, -1.870e-6
-1.264, -1.855e-6
-1.263, -1.818e-6
-1.262, -1.853e-6
-1.261, -1.929e-6
-1.260, -2.052e-6
-1.259, -2.093e-6
-1.258, -2.097e-6
-1.257, -2.121e-6
-1.256, -2.248e-6
-1.255, -2.329e-6
-1.254, -2.366e-6
-1.253, -2.290e-6
-1.252, -2.240e-6
-1.251, -2.438e-6
-1.250, -2.483e-6
-1.249, -2.574e-6
-1.248, -2.538e-6
-1.247, -2.601e-6
-1.246, -2.705e-6
-1.245, -2.842e-6
-1.244, -2.898e-6
-1.243, -2.882e-6
-1.242, -2.861e-6
-1.241, -3.048e-6
-1.240, -3.149e-6
-1.239, -3.196e-6
-1.238, -3.244e-6
-1.237, -3.205e-6
-1.236, -3.382e-6
-1.235, -3.527e-6
-1.234, -3.545e-6
-1.233, -3.605e-6
-1.232, -3.578e-6
-1.231, -3.738e-6
-1.230, -3.894e-6
-1.229, -3.993e-6
-1.228, -3.931e-6
-1.227, -3.991e-6
-1.226, -4.111e-6
-1.225, -4.236e-6
-1.224, -4.296e-6
-1.223, -4.297e-6
-1.222, -4.402e-6
-1.221, -4.472e-6
-1.220, -4.628e-6
-1.219, -4.728e-6
-1.218, -4.713e-6
-1.217, -4.728e-6
-1.216, -4.918e-6
-1.215, -5.056e-6
-1.214, -5.141e-6
-1.213, -5.098e-6
-1.212, -5.141e-6
-1.211, -5.338e-6
-1.210, -5.453e-6
-1.209, -5.544e-6
-1.208, -5.524e-6
-1.207, -5.572e-6
-1.206, -5.751e-6
-1.205, -5.888e-6
-1.204, -5.928e-6
-1.203, -5.986e-6
-1.202, -5.986e-6
-1.201, -6.163e-6
-1.200, -6.316e-6
-1.199, -6.370e-6
-1.198, -6.398e-6
-1.197, -6.410e-6
-1.196, -6.585e-6
-1.195, -6.748e-6
-1.194, -6.775e-6
-1.193, -6.845e-6
-1.192, -6.847e-6
-1.191, -7.015e-6
-1.190, -7.221e-6
-1.189, -7.285e-6
-1.188, -7.268e-6
-1.187, -7.354e-6
-1.186, -7.484e-6
-1.185, -7.690e-6
-1.184, -7.701e-6
-1.183, -7.740e-6
-1.182, -7.783e-6
-1.181, -7.913e-6
-1.180, -8.103e-6
-1.179, -8.181e-6
-1.178, -8.197e-6
-1.177, -8.257e-6
-1.176, -8.386e-6
-1.175, -8.555e-6
-1.174, -8.660e-6
-1.173, -8.630e-6
-1.172, -8.657e-6
-1.171, -8.880e-6
-1.170, -8.965e-6
-1.169, -9.064e-6
-1.168, -9.066e-6
-1.167, -9.085e-6
-1.166, -9.289e-6
-1.165, -9.451e-6
-1.164, -9.506e-6
-1.163, -9.529e-6
-1.162, -9.538e-6
-1.161, -9.748e-6
-1.160, -9.845e-6
-1.159, -9.962e-6
-1.158, -9.991e-6
-1.157, -9.975e-6
-1.156, -1.016e-5
-1.155, -1.032e-5
-1.154, -1.042e-5
-1.153, -1.041e-5
-1.152, -1.042e-5
-1.151, -1.059e-5
-1.150, -1.074e-5
-1.149, -1.079e-5
-1.148, -1.082e-5
-1.147, -1.087e-5
-1.146, -1.100e-5
-1.145, -1.118e-5
-1.144, -1.121e-5
-1.143, -1.127e-5
-1.142, -1.125e-5
-1.141, -1.140e-5
-1.140, -1.155e-5
-1.139, -1.167e-5
-1.138, -1.164e-5
-1.137, -1.171e-5
-1.136, -1.182e-5
-1.135, -1.201e-5
-1.134, -1.209e-5
-1.133, -1.202e-5
-1.132, -1.210e-5
-1.131, -1.228e-5
-1.130, -1.239e-5
-1.129, -1.252e-5
-1.128, -1.249e-5
-1.127, -1.251e-5
-1.126, -1.270e-5
-1.125, -1.282e-5
-1.124, -1.292e-5
-1.123, -1.295e-5
-1.122, -1.295e-5
-1.121, -1.312e-5
-1.120, -1.324e-5
-1.119, -1.335e-5
-1.118, -1.335e-5
-1.117, -1.334e-5
-1.116, -1.350e-5
-1.115, -1.373e-5
-1.114, -1.376e-5
-1.113, -1.382e-5
-1.112, -1.378e-5
-1.111, -1.393e-5
-1.110, -1.414e-5
-1.109, -1.416e-5
-1.108, -1.417e-5
-1.107, -1.420e-5
-1.106, -1.437e-5
-1.105, -1.455e-5
-1.104, -1.459e-5
-1.103, -1.459e-5
-1.102, -1.463e-5
-1.101, -1.474e-5
-1.100, -1.491e-5
-1.099, -1.503e-5
-1.098, -1.497e-5
-1.097, -1.503e-5
-1.096, -1.510e-5
-1.095, -1.529e-5
-1.094, -1.544e-5
-1.093, -1.535e-5
-1.092, -1.535e-5
-1.091, -1.553e-5
-1.090, -1.566e-5
-1.089, -1.580e-5
-1.088, -1.571e-5
-1.087, -1.572e-5
-1.086, -1.590e-5
-1.085, -1.603e-5
-1.084, -1.608e-5
-1.083, -1.607e-5
-1.082, -1.600e-5
-1.081, -1.621e-5
-1.080, -1.634e-5
-1.079, -1.637e-5
-1.078, -1.637e-5
-1.077, -1.631e-5
-1.076, -1.649e-5
-1.075, -1.668e-5
-1.074, -1.669e-5
-1.073, -1.667e-5
-1.072, -1.659e-5
-1.071, -1.670e-5
-1.070, -1.690e-5
-1.069, -1.688e-5
-1.068, -1.685e-5
-1.067, -1.683e-5
-1.066, -1.696e-5
-1.065, -1.709e-5
-1.064, -1.709e-5
-1.063, -1.702e-5
-1.062, -1.702e-5
-1.061, -1.710e-5
-1.060, -1.723e-5
-1.059, -1.728e-5
-1.058, -1.720e-5
-1.057, -1.714e-5
-1.056, -1.723e-5
-1.055, -1.740e-5
-1.054, -1.745e-5
-1.053, -1.731e-5
-1.052, -1.727e-5
-1.051, -1.739e-5
-1.050, -1.750e-5
-1.049, -1.753e-5
-1.048, -1.744e-5
-1.047, -1.736e-5
-1.046, -1.752e-5
-1.045, -1.758e-5
-1.044, -1.760e-5
-1.043, -1.756e-5
-1.042, -1.741e-5
-1.041, -1.758e-5
-1.040, -1.767e-5
-1.039, -1.765e-5
-1.038, -1.760e-5
-1.037, -1.750e-5
-1.036, -1.758e-5
-1.035, -1.774e-5
-1.034, -1.774e-5
-1.033, -1.765e-5
-1.032, -1.752e-5
-1.031, -1.762e-5
-1.030, -1.779e-5
-1.029, -1.775e-5
-1.028, -1.763e-5
-1.027, -1.759e-5
-1.026, -1.767e-5
-1.025, -1.783e-5
-1.024, -1.785e-5
-1.023, -1.771e-5
-1.022, -1.765e-5
-1.021, -1.770e-5
-1.020, -1.785e-5
-1.019, -1.787e-5
-1.018, -1.773e-5
-1.017, -1.770e-5
-1.016, -1.776e-5
-1.015, -1.788e-5
-1.014, -1.789e-5
-1.013, -1.779e-5
-1.012, -1.773e-5
-1.011, -1.782e-5
-1.010, -1.792e-5
-1.009, -1.796e-5
-1.008, -1.784e-5
-1.007, -1.780e-5
-1.006, -1.791e-5
-1.005, -1.798e-5
-1.004, -1.799e-5
-1.003, -1.795e-5
-1.002, -1.783e-5
-1.001, -1.798e-5
