Potential V vs RHE, Current mA cm-2
0.013299999999999867,4.998175022423175
0.012299999999999978,3.6923964926477457
0.011299999999999866,2.822349043230748
0.010299999999999976,2.178655401792157
0.009299999999999864,1.6339915513441174
0.008299999999999974,1.1637415152689792
0.007299999999999862,0.7526264115281995
0.006299999999999972,0.38168910870358685
0.00529999999999986,0.06674607912763245
0.0042999999999999705,-0.2426229879268538
0.0032999999999998586,-0.5391464763785655
0.0022999999999999687,-0.8145907664622882
0.0012999999999998568,-1.0710779251278193
0.00029999999999996696,-1.2852652159273859
-0.000700000000000145,-1.5080822456561291
-0.0017000000000000348,-1.7245330745354797
-0.0027000000000001467,-1.9296662130159101
-0.0037000000000000366,-2.12348166109742
-0.0047000000000001485,-2.2932470170812245
-0.005700000000000038,-2.4531093939659736
-0.00670000000000015,-2.6356071516485633
-0.00770000000000004,-2.7813224155346625
-0.008700000000000152,-2.9369406585198163
-0.009700000000000042,-3.0713382320069944
-0.010700000000000154,-3.205735805494173
-0.011700000000000044,-3.3415480902812167
-0.012700000000000156,-3.4702868185689346
-0.013700000000000045,-3.5848784338580026
-0.014700000000000157,-3.6923964926477457
-0.015700000000000047,-3.7928409949381634
-0.01670000000000016,-3.9130914554266916
-0.01770000000000005,-4.029097782015624
-0.01870000000000016,-4.119639305206987
-0.01970000000000005,-4.20735140579862
-0.020700000000000163,-4.296478217690116
-0.021700000000000053,-4.384190318281749
-0.022700000000000164,-4.490293665771627
-0.023700000000000054,-4.572346921163798
-0.024700000000000166,-4.658644310455566
-0.025700000000000056,-4.726550452849088
-0.026700000000000168,-4.801530151741935
-0.027700000000000058,-4.892071674933297
-0.02870000000000017,-4.964221951226414
-0.02970000000000006,-5.027883959720341
-0.03070000000000017,-5.078813566515482
-0.03170000000000006,-5.162281533207518
-0.03270000000000017,-5.262726035497936
-0.03370000000000006,-5.344779290890109
-0.034700000000000175,-5.391464763785655
-0.035700000000000065,-5.470688596578097
-0.03670000000000018,-5.538594738971618
-0.03770000000000007,-5.609330303964871
-0.03870000000000018,-5.661674622059877
-0.03970000000000007,-5.712604228855018
-0.04070000000000018,-5.757874990450699
-0.04170000000000007,-5.830025266743816
-0.04270000000000018,-5.902175543036933
-0.04370000000000007,-5.970081685430455
-0.044700000000000184,-6.019596580925731
-0.045700000000000074,-6.069111476421008
-0.046700000000000186,-6.14833530921345
-0.047700000000000076,-6.207753183807781
-0.04870000000000019,-6.265756347102247
-0.04970000000000008,-6.316685953897389
-0.05070000000000019,-6.37044498329226
-0.05170000000000008,-6.449668816084703
-0.05270000000000019,-6.516160247178359
-0.05370000000000008,-6.560016297474175
-0.05470000000000019,-6.6095311929694525
-0.05570000000000008,-6.687340314462029
-0.056700000000000195,-6.770808281154065
-0.057700000000000085,-6.831640867048262
-0.058700000000000196,-6.881155762543538
-0.059700000000000086,-6.94623248233733
-0.0607000000000002,-7.015553336030716
-0.06170000000000009,-7.104680147922214
-0.0627000000000002,-7.172586290315736
-0.06370000000000009,-7.224930608410742
-0.0647000000000002,-7.270201370006423
-0.06570000000000009,-7.31688684290197
-0.0667000000000002,-7.386207696595355
-0.0677000000000001,-7.473919797186989
-0.0687000000000002,-7.557387763879025
-0.0697000000000001,-7.638026307971333
-0.07070000000000021,-7.697444182565665
-0.0717000000000001,-7.776668015358106
-0.07270000000000021,-7.837500601252304
-0.0737000000000001,-7.901162609746229
-0.07470000000000021,-7.942189237442316
-0.0757000000000001,-8.02141307023476
-0.07670000000000021,-8.12044286122531
-0.0777000000000001,-8.192593137518429
-0.07870000000000021,-8.250596300812894
-0.0797000000000001,-8.295867062408576
-0.08070000000000022,-8.380749740400477
-0.0817000000000001,-8.472705974891705
-0.08270000000000022,-8.546270962484687
-0.08370000000000011,-8.612762393578345
-0.08470000000000022,-8.701889205469842
-0.08570000000000011,-8.796674862560797
-0.08670000000000022,-8.907022343950272
-0.08770000000000011,-8.963610795944874
-0.08870000000000022,-9.05839645303583
-0.08970000000000011,-9.130546729328946
-0.09070000000000022,-9.184305758723816
-0.09170000000000011,-9.293238528813426
-0.09270000000000023,-9.363974093806679
-0.09370000000000012,-9.453100905698175
-0.09470000000000023,-9.542227717589672
-0.09570000000000012,-9.627110395581575
-0.09670000000000023,-9.740287299570777
-0.09770000000000012,-9.857708337459576
-0.09870000000000023,-9.938346881551883
-0.09970000000000012,-10.03030311604311
-0.10070000000000023,-10.125088773134069
-0.10170000000000012,-10.22128914152489
-0.10270000000000024,-10.330221911614498
-0.10370000000000013,-10.409445744406941
-0.10470000000000024,-10.501401978898167
-0.10570000000000013,-10.60326119248845
-0.10670000000000024,-10.702290983479003
-0.10770000000000013,-10.842347402165641
-0.10870000000000024,-10.97391555305309
-0.10970000000000013,-11.048895251945936
-0.11070000000000024,-11.147925042936489
-0.11170000000000013,-11.254028390426367
-0.11270000000000002,-11.365790583115706
-0.11370000000000013,-11.469064508005852
-0.11470000000000002,-11.572338432896
-0.11570000000000014,-11.689759470784798
-0.11670000000000003,-11.829815889471439
-0.11770000000000014,-11.9486516386601
-0.11870000000000003,-12.061828542649302
-0.11970000000000014,-12.196226116136481
-0.12070000000000003,-12.292426484527304
-0.12170000000000014,-12.409847522416102
-0.12270000000000003,-12.554148075002335
-0.12370000000000014,-12.664495556391808
-0.12470000000000003,-12.772013615181551
-0.12570000000000014,-12.907825899968595
-0.12670000000000003,-13.054955875154558
-0.12770000000000015,-13.199256427740792
-0.12870000000000004,-13.343556980327028
-0.12970000000000015,-13.476539842514338
-0.13070000000000004,-13.612352127301383
-0.13170000000000015,-13.743920278188831
-0.13270000000000004,-13.851438336978573
-0.13370000000000015,-13.985835910465754
-0.13470000000000004,-14.203701450644967
-0.13570000000000015,-14.331025467632822
-0.13670000000000004,-14.401761032626075
-0.13770000000000016,-14.543232162612577
-0.13870000000000005,-14.727144631595033
-0.13970000000000016,-14.911057100577487
-0.14070000000000005,-15.02423400456669
-0.14170000000000016,-15.165705134553193
-0.14270000000000005,-15.307176264539699
-0.14370000000000016,-15.43450028152755
-0.14470000000000005,-15.575971411514052
-0.14570000000000016,-15.759883880496508
-0.14670000000000005,-15.929649236480316
-0.14770000000000016,-16.071120366466815
-0.14870000000000005,-16.24088572245062
-0.14970000000000017,-16.382356852437127
-0.15070000000000006,-16.55212220842093
-0.15170000000000017,-16.70774045140608
-0.15270000000000006,-16.891652920388537
-0.15370000000000017,-17.018976937376394
-0.15470000000000006,-17.160448067362896
-0.15570000000000017,-17.301919197349395
-0.15670000000000006,-17.429243214337255
-0.15770000000000017,-17.570714344323754
-0.15870000000000006,-17.76877392630486
-0.15970000000000018,-17.966833508285966
-0.16070000000000007,-18.09415752527382
-0.16170000000000018,-18.23562865526032
-0.16270000000000007,-18.461982463238726
-0.16370000000000018,-18.688336271217132
-0.16470000000000007,-18.80151317520634
-0.16570000000000018,-18.95713141819149
-0.16670000000000007,-19.155191000172596
-0.16770000000000018,-19.25422079116315
-0.16870000000000007,-19.4381332601456
-0.16970000000000018,-19.593751503130758
-0.17070000000000007,-19.763516859114564
-0.17170000000000019,-19.904987989101066
-0.17270000000000008,-20.06060623208622
-0.1737000000000002,-20.230371588070028
-0.17470000000000008,-20.371842718056527
-0.1757000000000002,-20.51331384804303
-0.17670000000000008,-20.711373430024135
-0.1777000000000002,-20.90943301200524
-0.17870000000000008,-21.036757028993097
-0.1797000000000002,-21.1782281589796
-0.18070000000000008,-21.333846401964752
-0.1817000000000002,-21.489464644949905
-0.18270000000000008,-21.659230000933714
-0.1837000000000002,-21.786554017921564
-0.1847000000000001,-21.91387803490942
-0.1857000000000002,-22.027054938898623
-0.1867000000000001,-22.168526068885125
-0.1877000000000002,-22.36658565086623
-0.1887000000000001,-22.522203893851387
-0.1897000000000002,-22.621233684841933
-0.1907000000000001,-22.790999040825742
-0.1917000000000001,-22.904175944814945
-0.19269999999999998,-22.989058622806844
-0.1937000000000001,-23.13052975279335
-0.19469999999999998,-23.229559543783903
-0.1957000000000001,-23.342736447773106
-0.19669999999999999,-23.45591335176231
-0.1977000000000001,-23.58323736875016
-0.1987,-23.653972933743415
-0.1997000000000001,-23.724708498736668
-0.2007,-23.823738289727217
-0.2017000000000001,-23.86617962872317
-0.2027,-23.93691519371642
-0.2037000000000001,-23.993503645711023
-0.2047,-24.035944984706973
-0.2057000000000001,-24.035944984706973
-0.2067,-24.106680549700226
-0.2077000000000001,-24.16326900169483
-0.2087,-24.191563227692125
-0.2097000000000001,-24.16326900169483
-0.2107,-24.149121888696175
-0.2117000000000001,-24.134974775697525
-0.2127,-24.078386323702922
-0.2137000000000001,-24.035944984706973
-0.2147,-24.00765075870967
-0.2157000000000001,-23.993503645711023
-0.2167,-23.951062306715073
-0.21770000000000012,-23.86617962872317
-0.2187,-23.710561385738018
-0.21970000000000012,-23.58323736875016
-0.2207,-23.48420757775961
-0.22170000000000012,-23.314442221775803
-0.2227,-23.144676865792
-0.22370000000000012,-22.974911509808198
-0.2247,-22.80514615382439
-0.22570000000000012,-22.63538079784059
-0.2267,-22.40902698986218
-0.22770000000000012,-22.196820294882425
-0.22870000000000001,-21.95631937390537
-0.22970000000000013,-21.645082887935057
-0.23070000000000002,-21.43287619295531
-0.23170000000000013,-21.22066949797555
-0.23270000000000002,-20.93772723800254
-0.23370000000000013,-20.555755187038983
-0.23470000000000002,-20.244518701068674
-0.23570000000000013,-19.98987066709297
-0.23670000000000002,-19.73522263311726
-0.2376999999999999,-19.480574599141555
-0.23870000000000002,-19.2400736781645
-0.2396999999999999,-18.815660288204988
-0.24070000000000003,-18.44783535024008
-0.24169999999999991,-18.19318731626437
-0.24270000000000003,-17.881950830294063
-0.24369999999999992,-17.528273005327804
-0.24470000000000003,-17.20288940635885
-0.24569999999999992,-16.93409425938449
-0.24670000000000003,-16.679446225408782
-0.24769999999999992,-16.46723953042903
-0.24870000000000003,-16.24088572245062
-0.24969999999999992,-15.972090575476265
-0.25070000000000003,-15.731589654499205
-0.2516999999999999,-15.519382959519453
-0.25270000000000004,-15.406206055530248
-0.2536999999999999,-15.236440699546446
-0.25470000000000004,-15.03838111756534
-0.2556999999999999,-14.868615761581536
-0.25670000000000004,-14.783733083589633
-0.25769999999999993,-14.67055617960043
-0.25870000000000004,-14.585673501608527
-0.25969999999999993,-14.529085049613924
-0.26070000000000004,-14.500790823616628
-0.26169999999999993,-14.472496597619326
-0.26270000000000004,-14.458349484620674
-0.26369999999999993,-14.472496597619326
-0.26470000000000005,-14.458349484620674
-0.26569999999999994,-14.486643710617974
-0.26670000000000005,-14.585673501608527
-0.26769999999999994,-14.67055617960043
-0.26870000000000005,-14.684703292599082
-0.26969999999999994,-14.812027309586934
-0.27070000000000005,-14.967645552572087
-0.27169999999999994,-15.165705134553193
-0.27270000000000005,-15.363764716534297
-0.27369999999999994,-15.505235846520803
-0.27470000000000006,-15.561824298515406
-0.27569999999999995,-15.717442541500558
-0.27670000000000006,-15.957943462477614
-0.27769999999999995,-16.184297270456018
-0.27870000000000006,-16.325768400442524
-0.27969999999999995,-16.56626932141958
-0.28070000000000006,-16.877505807389888
-0.28169999999999995,-17.089712502369647
-0.28270000000000006,-17.358507649344002
-0.28369999999999995,-17.599008570321057
-0.28470000000000006,-17.881950830294063
-0.28569999999999995,-18.10830463827247
-0.28670000000000007,-18.433688237241427
-0.28769999999999996,-18.730777610213085
-0.28870000000000007,-19.042014096183394
-0.28969999999999996,-19.381544808151002
-0.29070000000000007,-19.69278129412131
-0.29169999999999996,-20.03231200608892
-0.29270000000000007,-20.414284057052477
-0.29369999999999996,-20.711373430024135
-0.2947000000000001,-20.95187435100119
-0.29569999999999996,-21.291405062968803
-0.2967000000000001,-21.701671339929664
-0.29769999999999996,-22.111937616890522
-0.2987000000000001,-22.46561544185678
-0.29969999999999997,-22.861734605818995
-0.3007000000000001,-23.257853769781203
-0.30169999999999997,-23.710561385738018
-0.3027000000000001,-24.092533436701576
-0.30369999999999997,-24.460358374666487
-0.3047000000000001,-24.969654442617898
-0.30569999999999997,-25.323332267584156
-0.3067000000000001,-25.761892770542314
-0.3077,-26.27118883849373
-0.3087000000000001,-26.709749341451893
-0.3097,-27.176604070407354
-0.3107000000000001,-27.685900138358768
-0.3117,-28.11031352831828
-0.3127000000000001,-28.548874031276437
-0.3137,-29.015728760231898
-0.3147000000000001,-29.510877715184666
-0.3157,-30.02017378313608
-0.3167000000000001,-30.529469851087494
-0.3177,-31.038765919038905
-0.3187000000000001,-31.56220909998897
-0.3197,-32.04321094194308
-0.3207000000000001,-32.62324257488775
-0.3217,-33.274009772825664
-0.3227000000000001,-33.88233563176763
-0.3237,-34.5472499427042
-0.3247000000000001,-35.15557580164616
-0.3257,-35.721460321592176
-0.3267000000000001,-36.21660927654494
-0.3277,-36.754199570493654
-0.3287000000000001,-37.291789864442364
-0.3297,-37.90011572338433
-0.3307000000000001,-38.4518531303317
-0.3317,-39.060178989273666
-0.3327000000000001,-39.61191639622103
-0.3337,-40.234389368161644
-0.3347000000000001,-41.02662769608606
-0.3357,-41.77642468501453
-0.3367000000000001,-42.3847505439565
-0.3377,-43.04966485489307
-0.3387000000000001,-43.657990713835034
-0.3397,-44.266316572776994
-0.3407000000000001,-44.88878954471762
-0.3417,-45.681027872642034
-0.3427000000000001,-46.33179507057995
-0.3437,-46.89767959052597
-0.3447000000000001,-47.647476579454434
-0.3457,-48.49630335937346
-0.3467000000000001,-49.21780612230463
-0.3477,-49.925161772237146
-0.3487000000000001,-50.63251742216966
-0.3497,-51.29743173310623
-0.3507000000000001,-52.0189344960374
-0.3517,-52.69799591997262
-0.3527000000000001,-53.50438136089569
-0.3537,-54.33906102781606
-0.3547000000000001,-55.046416677748574
-0.3557,-55.8103607796757
-0.35670000000000013,-56.64504044659606
-0.3577,-57.423131661521836
-0.35870000000000013,-58.18707576344896
-0.3597,-58.880284300382826
-0.36070000000000013,-59.61593417631264
-0.3617,-60.45061384323302
-0.3626999999999999,-61.20041083216149
-0.3637,-62.11997317707376
-0.3646999999999999,-62.96879995699278
-0.3657,-63.5346844769388
-0.3666999999999999,-64.39765836985646
-0.3677,-65.26063226277414
-0.3686999999999999,-66.01042925170262
-0.36970000000000003,-66.63290222364323
-0.3706999999999999,-67.7505241505366
-0.37170000000000003,-68.68423360844753
-0.3726999999999999,-69.33500080638545
-0.37370000000000003,-70.14138624730852
-0.3746999999999999,-70.89118323623698
-0.37570000000000003,-71.8248926941479
-0.3766999999999999,-72.75860215205884
-0.37770000000000004,-73.62157604497652
-0.3786999999999999,-74.47040282489553
-0.37970000000000004,-75.13531713583208
-0.3806999999999999,-76.15390927173492
-0.38170000000000004,-76.98858893865528
-0.38269999999999993,-77.8940041705689
-0.38370000000000004,-78.65794827249603
-0.38469999999999993,-79.57751061740831
-0.38570000000000004,-80.56780852731384
-0.38669999999999993,-80.10095379835838
-0.38570000000000004,-78.44574157751629
-0.38469999999999993,-77.22908985963235
-0.38370000000000004,-75.94170257675518
-0.38269999999999993,-74.82408064986178
-0.38170000000000004,-73.76304717496302
-0.3806999999999999,-72.94251462104128
-0.37970000000000004,-72.19271763211282
-0.3786999999999999,-71.0326543662235
-0.37770000000000004,-70.05650356931662
-0.3766999999999999,-69.02376432041514
-0.37570000000000003,-68.16079042749746
-0.3746999999999999,-67.04316850060408
-0.37370000000000003,-65.8972523477134
-0.3726999999999999,-64.90695443780788
-0.37170000000000003,-64.0439805448902
-0.3706999999999999,-63.43565468594825
-0.36970000000000003,-62.60097501902788
-0.3686999999999999,-61.58238288312505
-0.3677,-60.74770321620468
-0.3666999999999999,-59.7432581933005
-0.3657,-58.97931409137338
-0.3646999999999999,-58.10219308545706
-0.3637,-57.33824898352994
-0.3626999999999999,-56.61674622059877
-0.3617,-55.951831909662204
-0.36070000000000013,-55.21618203373238
-0.3597,-54.19758989782956
-0.35870000000000013,-53.094115083934824
-0.3577,-52.30187675601041
-0.35670000000000013,-51.410608637095436
-0.3557,-50.59007608317371
-0.3547000000000001,-50.010044450229046
-0.3537,-49.23195323530328
-0.3527000000000001,-48.46800913337616
-0.3517,-47.83138904843689
-0.3507000000000001,-47.10988628550572
-0.3497,-46.2327652795894
-0.3487000000000001,-45.90738168062044
-0.3477,-44.97367222270952
-0.3467000000000001,-44.36534636376755
-0.3457,-43.68628493983233
-0.3447000000000001,-43.120400419886316
-0.3437,-42.4696332219484
-0.3427000000000001,-41.90374870200238
-0.3417,-41.43689397304693
-0.3407000000000001,-40.65880275812115
-0.3397,-40.00803556018324
-0.3387000000000001,-39.20165011926017
-0.3377,-38.33867622634249
-0.3367000000000001,-37.60302635041268
-0.3357,-36.96640626547341
-0.3347000000000001,-36.47125731052064
-0.3337,-35.90537279057463
-0.3327000000000001,-35.15557580164616
-0.3317,-34.56139705570285
-0.3307000000000001,-33.924776970763574
-0.3297,-33.245715546828364
-0.3287000000000001,-32.62324257488775
-0.3277,-32.01491671594578
-0.3267000000000001,-31.37829663100651
-0.3257,-30.812412111060496
-0.3247000000000001,-30.571911190083444
-0.3237,-29.822114201154974
-0.3227000000000001,-29.242082568210304
-0.3217,-28.633756709268344
-0.3207000000000001,-28.18104909331153
-0.3197,-27.572723234369565
-0.3187000000000001,-26.992691601424898
-0.3177,-26.398512855481584
-0.3167000000000001,-25.81848122253692
-0.3157,-25.37992071957876
-0.3147000000000001,-24.799889086634096
-0.3137,-24.31888724467998
-0.3127000000000001,-23.852032515724517
-0.3117,-23.300295108777156
-0.3107000000000001,-22.790999040825742
-0.3097,-22.33829142486893
-0.3087000000000001,-21.828995356917517
-0.3077,-21.347993514963402
-0.3067000000000001,-20.923580125003895
-0.30569999999999997,-20.52746096104168
-0.3047000000000001,-20.117194684080822
-0.30369999999999997,-19.664487068124007
-0.3027000000000001,-19.2400736781645
-0.30169999999999997,-18.829807401203638
-0.3007000000000001,-18.348805559249524
-0.29969999999999997,-17.839509491298113
-0.2987000000000001,-17.599008570321057
-0.29769999999999996,-17.37265476234265
-0.2967000000000001,-16.835064468393938
-0.29569999999999996,-16.410651078434423
-0.2947000000000001,-15.943796349478962
-0.29369999999999996,-15.561824298515406
-0.29270000000000007,-15.179852247551842
-0.29169999999999996,-14.769585970590983
-0.29070000000000007,-14.444202371622024
-0.28969999999999996,-14.039594939860624
-0.28870000000000007,-13.602449148202329
-0.28769999999999996,-13.248771323236069
-0.28670000000000007,-12.895093498269809
-0.28569999999999995,-12.549903941102741
-0.28470000000000006,-12.221690919534051
-0.28369999999999995,-11.832645312071167
-0.28270000000000006,-11.477552775805044
-0.28169999999999995,-11.149339754236355
-0.28070000000000006,-10.846591536065237
-0.27969999999999995,-10.642873108884672
-0.27870000000000006,-10.250998078822057
-0.27769999999999995,-9.898734965155663
-0.27670000000000006,-9.600230880884139
-0.27569999999999995,-9.287579683613965
-0.27470000000000006,-8.980587331543253
-0.27369999999999994,-8.645300753475238
-0.27270000000000005,-8.351040803103311
-0.27169999999999994,-8.099222191727335
-0.27070000000000005,-7.829012333453114
-0.26969999999999994,-7.551728918679565
-0.26870000000000005,-7.281519060405343
-0.26769999999999994,-7.049506407227478
-0.26670000000000005,-6.777881837653391
