Potential V vs RHE, Current mA cm-2
0.013299999999999867,5.537180027671754
0.012299999999999978,3.661272844050715
0.011299999999999866,1.8730777610213083
0.010299999999999976,0.12863969849672777
0.009299999999999864,-1.5717442541500557
0.008299999999999974,-3.2297858975918787
0.007299999999999862,-4.756259390146253
0.006299999999999972,-6.282732882700628
0.00529999999999986,-7.722908985963235
0.0042999999999999705,-9.161670377925978
0.0032999999999998586,-10.514134380596953
0.0022999999999999687,-11.86659838326793
0.0012999999999998568,-13.13135028534727
0.00029999999999996696,-14.345172580631472
-0.000700000000000145,-15.575971411514052
-0.0017000000000000348,-16.750181790402035
-0.0027000000000001467,-17.881950830294063
-0.0037000000000000366,-19.056161209182044
-0.0047000000000001485,-20.159636023076775
-0.005700000000000038,-21.291405062968803
-0.00670000000000015,-22.38073276386488
-0.00770000000000004,-23.427619125765005
-0.008700000000000152,-24.474505487665134
-0.009700000000000042,-25.43650917157336
-0.010700000000000154,-26.38436574248293
-0.011700000000000044,-27.34636942639116
-0.012700000000000156,-28.265931771303435
-0.013700000000000045,-29.14305277721976
-0.014700000000000157,-30.00602667013743
-0.015700000000000047,-30.8407063370578
-0.01670000000000016,-31.661238890979522
-0.01770000000000005,-32.49591855789989
-0.01870000000000016,-33.330598224820264
-0.01970000000000005,-34.15113077874198
-0.020700000000000163,-34.94336910666641
-0.021700000000000053,-35.721460321592176
-0.022700000000000164,-36.5136986495166
-0.023700000000000054,-37.249348525446415
-0.024700000000000166,-37.99914551437489
-0.025700000000000056,-38.692354051308754
-0.026700000000000168,-39.38556258824262
-0.027700000000000058,-40.092918238175145
-0.02870000000000017,-40.701244097117105
-0.02970000000000006,-41.352011295055014
-0.03070000000000017,-41.91789581500104
-0.03170000000000006,-42.4413389959511
-0.03270000000000017,-42.96478217690117
-0.03370000000000006,-43.48822535785123
-0.034700000000000175,-43.96922719980534
-0.035700000000000065,-44.45022904175945
-0.03670000000000018,-44.93123088371356
-0.03770000000000007,-45.412232725667685
-0.03870000000000018,-45.89323456762179
-0.03970000000000007,-46.3176479575813
-0.04070000000000018,-46.79864979953541
-0.04170000000000007,-47.32209298048547
-0.04270000000000018,-47.80309482243959
-0.04370000000000007,-48.32653800338966
-0.044700000000000184,-48.84998118433972
-0.045700000000000074,-49.41586570428573
-0.046700000000000186,-49.98175022423175
-0.047700000000000076,-50.547634744177756
-0.04870000000000019,-51.127666377122424
-0.04970000000000008,-51.65110955807249
-0.05070000000000019,-52.11796428702795
-0.05170000000000008,-52.64140746797801
-0.05270000000000019,-53.079967970936174
-0.05370000000000008,-53.518528473894335
-0.05470000000000019,-53.872206298860604
-0.05570000000000008,-54.2117370108282
-0.056700000000000195,-54.56541483579447
-0.057700000000000085,-54.876651321764776
-0.058700000000000196,-55.13129935574048
-0.059700000000000086,-55.442535841710786
-0.0607000000000002,-55.7820665536784
-0.06170000000000009,-56.13574437864466
-0.0627000000000002,-56.53186354260687
-0.06370000000000009,-56.88554136757313
-0.0647000000000002,-57.26751341853669
-0.06570000000000009,-57.70607392149485
-0.0667000000000002,-58.10219308545706
-0.0677000000000001,-58.498312249419264
-0.0687000000000002,-58.880284300382826
-0.0697000000000001,-59.27640346434504
-0.07070000000000021,-59.67252262830725
-0.0717000000000001,-60.11108313126541
-0.07270000000000021,-60.45061384323302
-0.0737000000000001,-60.761850329203334
-0.07470000000000021,-61.11552815416958
-0.0757000000000001,-61.455058866137186
-0.07670000000000021,-61.80873669110345
-0.0777000000000001,-62.16241451606972
-0.07870000000000021,-62.544386567033264
-0.0797000000000001,-62.89806439199953
-0.08070000000000022,-63.251742216965795
-0.0817000000000001,-63.5063902509415
-0.08270000000000022,-63.77518539791585
-0.08370000000000011,-64.0722747708875
-0.08470000000000022,-64.29862857886593
-0.08570000000000011,-64.51083527384567
-0.08670000000000022,-64.72304196882543
-0.08770000000000011,-64.94939577680383
-0.08870000000000022,-65.20404381077954
-0.08970000000000011,-65.4728389577539
-0.09070000000000022,-65.7274869917296
-0.09170000000000011,-66.03872347769992
-0.09270000000000023,-66.34995996367022
-0.09370000000000012,-66.68949067563783
-0.09470000000000023,-67.04316850060408
-0.09570000000000012,-67.39684632557035
-0.09670000000000023,-67.73637703753796
-0.09770000000000012,-68.0900548625042
-0.09870000000000023,-68.44373268747047
-0.09970000000000012,-68.78326339943808
-0.10070000000000023,-69.13694122440434
-0.10170000000000012,-69.43403059737601
-0.10270000000000024,-69.78770842234226
-0.10370000000000013,-70.05650356931662
-0.10470000000000024,-70.35359294228827
-0.10570000000000013,-70.62238808926263
-0.10670000000000024,-70.91947746223428
-0.10770000000000013,-71.2307139482046
-0.10870000000000024,-71.48536198218031
-0.10970000000000013,-71.7965984681506
-0.11070000000000024,-72.10783495412092
-0.11170000000000013,-72.40492432709259
-0.11270000000000002,-72.75860215205884
-0.11370000000000013,-73.0556915250305
-0.11470000000000002,-73.3669280110008
-0.11570000000000014,-73.6781644969711
-0.11670000000000003,-73.97525386994278
-0.11770000000000014,-74.32893169490903
-0.11870000000000003,-74.66846240687663
-0.11970000000000014,-74.97969889284694
-0.12070000000000003,-75.33337671781321
-0.12170000000000014,-75.63046609078486
-0.12270000000000003,-75.94170257675518
-0.12370000000000014,-76.29538040172143
-0.12470000000000003,-76.63491111368903
-0.12570000000000014,-76.98858893865528
-0.12670000000000003,-77.28567831162695
-0.12770000000000015,-77.59691479759726
-0.12870000000000004,-77.90815128356756
-0.12970000000000015,-78.24768199553519
-0.13070000000000004,-78.60135982050144
-0.13170000000000015,-78.91259630647174
-0.13270000000000004,-79.25212701843935
-0.13370000000000015,-79.56336350440966
-0.13470000000000004,-79.86045287738132
-0.13570000000000015,-80.17168936335163
-0.13670000000000004,-80.52536718831789
-0.13770000000000016,-80.86489790028548
-0.13870000000000005,-81.21857572525175
-0.13970000000000016,-81.51566509822342
-0.14070000000000005,-81.86934292318966
-0.14170000000000016,-82.22302074815593
-0.14270000000000005,-82.56255146012353
-0.14370000000000016,-82.9162292850898
-0.14470000000000005,-83.26990711005605
-0.14570000000000016,-83.56699648302772
-0.14670000000000005,-83.87823296899803
-0.14770000000000016,-84.23191079396429
-0.14870000000000005,-84.57144150593189
-0.14970000000000017,-84.92511933089816
-0.15070000000000006,-85.27879715586442
-0.15170000000000017,-85.66076920682796
-0.15270000000000006,-86.05688837079018
-0.15370000000000017,-86.45300753475239
-0.15470000000000006,-86.75009690772404
-0.15570000000000017,-87.10377473269031
-0.15670000000000006,-87.45745255765657
-0.15770000000000017,-87.85357172161878
-0.15870000000000006,-88.27798511157829
-0.15970000000000018,-88.6741042755405
-0.16070000000000007,-89.07022343950271
-0.16170000000000018,-89.46634260346492
-0.16270000000000007,-89.72099063744062
-0.16370000000000018,-90.03222712341093
-0.16470000000000007,-90.32931649638259
-0.16570000000000018,-90.6405529823529
-0.16670000000000007,-90.93764235532454
-0.16770000000000018,-91.20643750229891
-0.16870000000000007,-91.56011532726518
-0.16970000000000018,-91.89964603923279
-0.17070000000000007,-92.29576520319499
-0.17170000000000019,-92.73432570615316
-0.17270000000000008,-93.17288620911131
-0.1737000000000002,-93.55485826007487
-0.17470000000000008,-93.95097742403709
-0.1757000000000002,-94.38953792699526
-0.17670000000000008,-94.7432157519615
-0.1777000000000002,-95.12518780292505
-0.17870000000000008,-95.52130696688728
-0.1797000000000002,-95.91742613084948
-0.18070000000000008,-96.35598663380765
-0.1817000000000002,-96.79454713676581
-0.18270000000000008,-97.26140186572127
-0.1837000000000002,-97.69996236867944
-0.1847000000000001,-98.18096421063355
-0.1857000000000002,-98.66196605258766
-0.1867000000000001,-99.14296789454177
-0.1877000000000002,-99.66641107549184
-0.1887000000000001,-100.18985425644189
-0.1897000000000002,-100.670856098396
-0.1907000000000001,-101.15185794035013
-0.1917000000000001,-101.54797710431234
-0.19269999999999998,-101.97239049427183
-0.1937000000000001,-102.36850965823406
-0.19469999999999998,-102.80707016119221
-0.1957000000000001,-103.24563066415038
-0.19669999999999999,-103.7266325061045
-0.1977000000000001,-104.2076343480586
-0.1987,-104.68863619001272
-0.1997000000000001,-105.16963803196683
-0.2007,-105.63649276092228
-0.2017000000000001,-106.11749460287639
-0.2027,-106.55605510583456
-0.2037000000000001,-107.07949828678463
-0.2047,-107.56050012873874
-0.2057000000000001,-107.99906063169689
-0.2067,-108.48006247365102
-0.2077000000000001,-108.91862297660917
-0.2087,-109.39962481856328
-0.2097000000000001,-109.8806266605174
-0.2107,-110.34748138947285
-0.2117000000000001,-110.92751302241753
-0.2127,-111.394367751373
-0.2137000000000001,-111.8753695933271
-0.2147,-112.44125411327312
-0.2157000000000001,-113.10616842420968
-0.2167,-113.62961160515974
-0.21770000000000012,-114.19549612510575
-0.2187,-114.71893930605583
-0.21970000000000012,-115.19994114800993
-0.2207,-115.68094298996405
-0.22170000000000012,-116.10535637992358
-0.2227,-116.67124089986959
-0.22370000000000012,-117.15224274182368
-0.2247,-117.71812726176971
-0.22570000000000012,-118.24157044271978
-0.2267,-118.76501362366983
-0.22770000000000012,-119.2884568046199
-0.22870000000000001,-119.769458646574
-0.22970000000000013,-120.25046048852812
-0.23070000000000002,-120.68902099148629
-0.23170000000000013,-121.12758149444444
-0.23270000000000002,-121.56614199740261
-0.23370000000000013,-122.0471438393567
-0.23470000000000002,-122.48570434231489
-0.23570000000000013,-122.91011773227437
-0.23670000000000002,-123.3062368962366
-0.2376999999999999,-123.74479739919475
-0.23870000000000002,-124.22579924114888
-0.2396999999999999,-124.74924242209892
-0.24070000000000003,-125.31512694204494
-0.24169999999999991,-125.96589413998288
-0.24270000000000003,-126.6732497899154
-0.24369999999999992,-127.36645832684925
-0.24470000000000003,-128.144549541775
-0.24569999999999992,-128.8094638527116
-0.24670000000000003,-129.4602310506495
-0.24769999999999992,-130.02611557059552
-0.24870000000000003,-130.5495587515456
-0.24969999999999992,-131.03056059349967
-0.25070000000000003,-131.5115624354538
-0.2516999999999999,-131.99256427740792
-0.25270000000000004,-132.516007458358
-0.2536999999999999,-132.89797950932152
-0.25470000000000004,-133.3365400122797
-0.2556999999999999,-133.81754185423384
-0.25670000000000004,-134.42586771317576
-0.25769999999999993,-135.03419357211774
-0.25870000000000004,-135.65666654405837
-0.25969999999999993,-136.30743374199628
-0.26070000000000004,-136.95820093993422
-0.26169999999999993,-137.56652679887617
-0.26270000000000004,-138.23144110981272
-0.26369999999999993,-138.8397669687547
-0.26470000000000005,-139.44809282769666
-0.26569999999999994,-140.0988600256346
-0.26670000000000005,-140.74962722357247
-0.26769999999999994,-141.3721001955131
-0.26870000000000005,-141.89554337646317
-0.26969999999999994,-142.6028990263957
-0.27070000000000005,-143.3102546763282
-0.27169999999999994,-143.87613919627424
-0.27270000000000005,-144.72496597619326
-0.27369999999999994,-145.29085049613926
-0.27470000000000006,-145.85673501608528
-0.27569999999999995,-146.5640906660178
-0.27670000000000006,-147.27144631595033
-0.27769999999999995,-147.83733083589632
-0.27870000000000006,-148.54468648582886
-0.27969999999999995,-149.1105710057749
-0.28070000000000006,-149.6764555257209
-0.28169999999999995,-150.24234004566688
-0.28270000000000006,-150.94969569559944
-0.28369999999999995,-151.5155802155454
-0.28470000000000006,-152.22293586547795
-0.28569999999999995,-152.78882038542397
-0.28670000000000007,-153.49617603535648
-0.28769999999999996,-154.203531685289
-0.28870000000000007,-155.05235846520802
-0.28969999999999996,-155.75971411514055
-0.29070000000000007,-156.46706976507306
-0.29169999999999996,-157.17442541500557
-0.29270000000000007,-157.88178106493808
-0.29369999999999996,-158.5891367148706
-0.2947000000000001,-159.43796349478964
-0.29569999999999996,-160.00384801473567
-0.2967000000000001,-160.71120366466818
-0.29769999999999996,-161.41855931460069
-0.2987000000000001,-161.9844438345467
-0.29969999999999997,-162.6917994844792
-0.3007000000000001,-163.25768400442522
-0.30169999999999997,-163.82356852437124
-0.3027000000000001,-164.38945304431726
-0.30369999999999997,-164.9553375642633
-0.3047000000000001,-165.6626932141958
-0.30569999999999997,-166.3700488641283
-0.3067000000000001,-167.21887564404733
-0.3077,-168.06770242396635
-0.3087000000000001,-168.91652920388537
-0.3097,-169.9068271137909
-0.3107000000000001,-170.75565389370993
-0.3117,-171.60448067362896
-0.3127000000000001,-172.31183632356147
-0.3137,-173.16066310348046
-0.3147000000000001,-173.86801875341303
-0.3157,-174.71684553333202
-0.3167000000000001,-175.42420118326456
-0.3177,-176.27302796318358
-0.3187000000000001,-177.1218547431026
-0.3197,-177.82921039303508
-0.3207000000000001,-178.67803717295413
-0.3217,-179.38539282288664
-0.3227000000000001,-180.09274847281918
-0.3237,-180.65863299276518
-0.3247000000000001,-181.36598864269772
-0.3257,-182.07334429263022
-0.3267000000000001,-182.78069994256273
-0.3277,-183.48805559249527
-0.3287000000000001,-184.33688237241427
-0.3297,-185.0442380223468
-0.3307000000000001,-185.89306480226583
-0.3317,-186.88336271217133
-0.3327000000000001,-187.59071836210387
-0.3337,-188.4395451420229
-0.3347000000000001,-189.1469007919554
-0.3357,-189.99572757187443
-0.3367000000000001,-190.84455435179345
-0.3377,-191.551910001726
-0.3387000000000001,-192.40073678164498
-0.3397,-193.10809243157752
-0.3407000000000001,-193.9569192114965
-0.3417,-194.66427486142905
-0.3427000000000001,-195.37163051136156
-0.3437,-196.0789861612941
-0.3447000000000001,-196.6448706812401
-0.3457,-197.35222633117263
-0.3467000000000001,-197.91811085111863
-0.3477,-198.62546650105114
-0.3487000000000001,-199.33282215098367
-0.3497,-200.04017780091618
-0.3507000000000001,-200.88900458083523
-0.3517,-201.73783136075423
-0.3527000000000001,-202.58665814067325
-0.3537,-203.43548492059227
-0.3547000000000001,-204.14284057052478
-0.3557,-204.7087250904708
-0.35670000000000013,-205.13313848043032
-0.3577,-205.55755187038983
-0.35870000000000013,-205.98196526034934
-0.3597,-206.54784978029537
-0.36070000000000013,-206.97226317025488
-0.3617,-207.5381476902009
-0.3626999999999999,-208.24550334013338
-0.3637,-208.95285899006592
-0.3646999999999999,-209.66021463999843
-0.3657,-210.36757028993094
-0.3666999999999999,-210.93345480987696
-0.3677,-211.499339329823
-0.3686999999999999,-211.9237527197825
-0.36970000000000003,-212.34816610974204
-0.3706999999999999,-212.77257949970152
-0.37170000000000003,-213.19699288966103
-0.3726999999999999,-213.47993514963403
-0.37370000000000003,-213.90434853959354
-0.3746999999999999,-214.32876192955305
-0.37570000000000003,-214.75317531951256
-0.3766999999999999,-215.17758870947208
-0.37770000000000004,-215.6020020994316
-0.3786999999999999,-216.0264154893911
-0.37970000000000004,-216.4508288793506
-0.3806999999999999,-217.01671339929663
-0.38170000000000004,-217.58259791924263
-0.38269999999999993,-218.00701130920217
-0.38370000000000004,-218.57289582914817
-0.38469999999999993,-219.13878034909416
-0.38570000000000004,-219.5631937390537
-0.38669999999999993,-218.57289582914817
-0.38570000000000004,-215.17758870947208
-0.38469999999999993,-211.782281589796
-0.38370000000000004,-208.52844560010638
-0.38269999999999993,-205.27460961041683
-0.38170000000000004,-202.02077362072723
-0.3806999999999999,-199.04987989101065
-0.37970000000000004,-195.93751503130758
-0.3786999999999999,-192.82515017160452
-0.37770000000000004,-189.8542564418879
-0.3766999999999999,-187.02483384215788
-0.37570000000000003,-184.19541124242778
-0.3746999999999999,-181.36598864269772
-0.37370000000000003,-178.67803717295413
-0.3726999999999999,-175.84861457322407
-0.37170000000000003,-173.16066310348046
-0.3706999999999999,-170.61418276372342
-0.36970000000000003,-167.78476016399335
-0.3686999999999999,-165.09680869424977
-0.3677,-162.5503283544927
-0.3666999999999999,-159.86237688474912
-0.3657,-157.31589654499206
-0.3646999999999999,-154.76941620523502
-0.3637,-152.0814647354914
-0.3626999999999999,-149.6764555257209
-0.3617,-146.9885040559773
-0.36070000000000013,-144.44202371622026
-0.3597,-141.75407224647665
-0.35870000000000013,-139.05197366373446
-0.3577,-136.562081775972
-0.35670000000000013,-134.08633700120816
-0.3557,-131.63888645244168
-0.3547000000000001,-129.33290703366166
-0.3537,-127.05522184087894
-0.3527000000000001,-124.87656643908679
-0.3517,-122.65546969829869
-0.3507000000000001,-120.51925563550247
-0.3497,-118.3406002337103
-0.3487000000000001,-116.24682750991008
-0.3477,-114.1530547861098
-0.3467000000000001,-112.05928206230955
-0.3457,-109.9655093385093
-0.3447000000000001,-107.87173661470905
-0.3437,-105.82040522990474
-0.3427000000000001,-103.7266325061045
-0.3417,-101.6753011213002
-0.3407000000000001,-99.58152839749994
-0.3397,-97.44531433470372
-0.3387000000000001,-95.39398294989942
-0.3377,-93.34265156509512
-0.3367000000000001,-91.37620285828272
-0.3357,-89.46634260346492
-0.3347000000000001,-87.54233523564847
-0.3337,-85.75979899781852
-0.3327000000000001,-84.00555698598588
-0.3317,-82.26546208715187
-0.3307000000000001,-80.65269120530574
-0.3297,-78.9550376454677
-0.3287000000000001,-77.28567831162695
-0.3277,-75.5880247517889
-0.3267000000000001,-73.89037119195086
-0.3257,-72.19271763211282
-0.3247000000000001,-70.43847562028017
-0.3237,-68.82570473843404
-0.3227000000000001,-67.17049251759194
-0.3217,-65.60016297474175
-0.3207000000000001,-64.0722747708875
-0.3197,-62.544386567033264
-0.3187000000000001,-61.07308681517363
-0.3177,-59.54519861131939
-0.3167000000000001,-58.05975174646111
-0.3157,-56.53186354260687
-0.3147000000000001,-55.046416677748574
-0.3137,-53.56096981289029
-0.3127000000000001,-52.033081609036046
-0.3117,-50.60422319617236
-0.3107000000000001,-49.118776331314066
-0.3097,-47.71821214444768
-0.3087000000000001,-46.3176479575813
-0.3077,-44.93123088371356
-0.3067000000000001,-43.61554937483908
-0.30569999999999997,-42.2715736399673
-0.3047000000000001,-40.95589213109281
-0.30369999999999997,-39.654357735216976
-0.3027000000000001,-38.38111756533845
-0.30169999999999997,-37.122024508458566
-0.3007000000000001,-35.848784338580025
-0.29969999999999997,-34.632132620696105
-0.2987000000000001,-33.41548090281216
-0.29769999999999996,-32.184682071929586
-0.2967000000000001,-31.010471693041605
-0.29569999999999996,-29.793819975157668
-0.2947000000000001,-28.619609596269694
-0.29369999999999996,-27.487840556377662
-0.29270000000000007,-26.34192440348698
-0.29169999999999996,-25.210155363594954
-0.29070000000000007,-24.120827662698876
-0.28969999999999996,-22.989058622806844
-0.28870000000000007,-21.94217226090672
-0.28769999999999996,-20.89528589900659
-0.28670000000000007,-19.890840876102416
-0.28569999999999995,-18.843954514202288
-0.28470000000000006,-17.839509491298113
-0.28369999999999995,-16.877505807389888
-0.28270000000000006,-15.87306078448571
-0.28169999999999995,-14.868615761581536
-0.28070000000000006,-13.872659006476551
-0.27969999999999995,-12.869628694872238
-0.27870000000000006,-11.86659838326793
-0.27769999999999995,-10.863568071663616
-0.27670000000000006,-9.902979099055257
-0.27569999999999995,-8.899948787450944
-0.27470000000000006,-7.984630576438266
-0.27369999999999994,-7.024041603829907
-0.27270000000000005,-6.108723392817228
-0.27169999999999994,-5.235846520800501
-0.27070000000000005,-4.364384360083638
-0.26969999999999994,-3.4915074880669104
-0.26870000000000005,-2.662486666345999
-0.26769999999999994,-1.8334658446250875
-0.26670000000000005,-0.9617207416482519
