Potential V vs RHE, Current mA cm-2
0.013299999999999867,5.667333467259336
0.012299999999999978,3.748984944642347
0.011299999999999866,2.004645911908757
0.010299999999999976,0.3031726315610774
0.009299999999999864,-1.3543031273607997
0.008299999999999974,-2.924208256821031
0.007299999999999862,-4.450681749375406
0.006299999999999972,-5.9347139029338285
0.00529999999999986,-7.4173313451923875
0.0042999999999999705,-8.812236686859313
0.0032999999999998586,-10.164700689530287
0.0022999999999999687,-11.473308641905447
0.0012999999999998568,-12.781916594280606
0.00029999999999996696,-13.960371107068182
-0.000700000000000145,-15.137410908555893
-0.0017000000000000348,-16.269179948447924
-0.0027000000000001467,-17.358507649344002
-0.0037000000000000366,-18.40539401124413
-0.0047000000000001485,-19.452280373144255
-0.005700000000000038,-20.456725396048434
-0.00670000000000015,-21.418729079956652
-0.00770000000000004,-22.42317410286083
-0.008700000000000152,-23.427619125765005
-0.009700000000000042,-24.389622809673234
-0.010700000000000154,-25.337479380582806
-0.011700000000000044,-26.257041725495082
-0.012700000000000156,-27.091721392415455
-0.013700000000000045,-27.912253946337174
-0.014700000000000157,-28.704492274261593
-0.015700000000000047,-29.482583489187363
-0.01670000000000016,-30.232380478115836
-0.01770000000000005,-31.010471693041605
-0.01870000000000016,-31.717827342974125
-0.01970000000000005,-32.49591855789989
-0.020700000000000163,-33.18912709483376
-0.021700000000000053,-33.89648274476628
-0.022700000000000164,-34.58969128170015
-0.023700000000000054,-35.240458479638065
-0.024700000000000166,-35.90537279057463
-0.025700000000000056,-36.5136986495166
-0.026700000000000168,-37.07958316946261
-0.027700000000000058,-37.687909028404576
-0.02870000000000017,-38.253793548350586
-0.02970000000000006,-38.777236729300654
-0.03070000000000017,-39.34312124924667
-0.03170000000000006,-39.86656443019674
-0.03270000000000017,-40.3900076111468
-0.03370000000000006,-40.95589213109281
-0.034700000000000175,-41.52177665103883
-0.035700000000000065,-42.04521983198889
-0.03670000000000018,-42.568663012938956
-0.03770000000000007,-43.09210619388902
-0.03870000000000018,-43.57310803584313
-0.03970000000000007,-44.054109877797245
-0.04070000000000018,-44.535111719751356
-0.04170000000000007,-44.97367222270952
-0.04270000000000018,-45.412232725667685
-0.04370000000000007,-45.85079322862584
-0.044700000000000184,-46.2327652795894
-0.045700000000000074,-46.628884443551605
-0.046700000000000186,-47.067444946509774
-0.047700000000000076,-47.506005449467935
-0.04870000000000019,-47.8879775004315
-0.04970000000000008,-48.36897934238561
-0.05070000000000019,-48.72265716735186
-0.05170000000000008,-49.118776331314066
-0.05270000000000019,-49.458307043281685
-0.05370000000000008,-49.76954352925199
-0.05470000000000019,-50.12322135421825
-0.05570000000000008,-50.46275206618586
-0.056700000000000195,-50.81642989115212
-0.057700000000000085,-51.21254905511432
-0.058700000000000196,-51.55207976708194
-0.059700000000000086,-51.90575759204819
-0.0607000000000002,-52.30187675601041
-0.06170000000000009,-52.69799591997262
-0.0627000000000002,-53.03752663194023
-0.06370000000000009,-53.39120445690648
-0.0647000000000002,-53.68829382987814
-0.06570000000000009,-53.999530315848446
-0.0667000000000002,-54.26832546282281
-0.0677000000000001,-54.56541483579447
-0.0687000000000002,-54.834209982768826
-0.0697000000000001,-55.088858016744524
-0.07070000000000021,-55.400094502714836
-0.0717000000000001,-55.65474253669055
-0.07270000000000021,-55.96597902266086
-0.0737000000000001,-56.26306839563251
-0.07470000000000021,-56.57430488160282
-0.0757000000000001,-56.88554136757313
-0.07670000000000021,-57.097748062552874
-0.0777000000000001,-57.408984548523186
-0.07870000000000021,-57.70607392149485
-0.0797000000000001,-58.017310407465146
-0.08070000000000022,-58.31439978043681
-0.0817000000000001,-58.583194927411164
-0.08270000000000022,-58.880284300382826
-0.08370000000000011,-59.19152078635314
-0.08470000000000022,-59.502757272323436
-0.08570000000000011,-59.842287984291055
-0.08670000000000022,-60.15352447026136
-0.08770000000000011,-60.49305518222897
-0.08870000000000022,-60.761850329203334
-0.08970000000000011,-61.07308681517363
-0.09070000000000022,-61.327734849149344
-0.09170000000000011,-61.53994154412909
-0.09270000000000023,-61.7662953521075
-0.09370000000000012,-62.02094338608321
-0.09470000000000023,-62.28973853305756
-0.09570000000000012,-62.501945228037314
-0.09670000000000023,-62.77074037501168
-0.09770000000000012,-63.02538840898739
-0.09870000000000023,-63.29418355596174
-0.09970000000000012,-63.59127292893339
-0.10070000000000023,-63.902509414903705
-0.10170000000000012,-64.25618723986996
-0.10270000000000024,-64.59571795183757
-0.10370000000000013,-64.90695443780788
-0.10470000000000024,-65.2464851497755
-0.10570000000000013,-65.64260431373769
-0.10670000000000024,-65.91139946071206
-0.10770000000000013,-66.25093017267966
-0.10870000000000024,-66.56216665864997
-0.10970000000000013,-66.87340314462028
-0.11070000000000024,-67.17049251759194
-0.11170000000000013,-67.48172900356225
-0.11270000000000002,-67.7788183765339
-0.11370000000000013,-68.04761352350828
-0.11470000000000002,-68.30226155748396
-0.11570000000000014,-68.57105670445833
-0.11670000000000003,-68.82570473843404
-0.11770000000000014,-69.0944998854084
-0.11870000000000003,-69.43403059737601
-0.11970000000000014,-69.74526708334632
-0.12070000000000003,-70.05650356931662
-0.12170000000000014,-70.39603428128423
-0.12270000000000003,-70.74971210625048
-0.12370000000000014,-71.10338993121674
-0.12470000000000003,-71.4004793041884
-0.12570000000000014,-71.75415712915466
-0.12670000000000003,-72.10783495412092
-0.12770000000000015,-72.40492432709259
-0.12870000000000004,-72.75860215205884
-0.12970000000000015,-73.0556915250305
-0.13070000000000004,-73.40936934999675
-0.13170000000000015,-73.72060583596706
-0.13270000000000004,-74.0176952089387
-0.13370000000000015,-74.32893169490903
-0.13470000000000004,-74.62602106788069
-0.13570000000000015,-74.93725755385098
-0.13670000000000004,-75.2484940398213
-0.13770000000000016,-75.5880247517889
-0.13870000000000005,-75.8992612377592
-0.13970000000000016,-76.29538040172143
-0.14070000000000005,-76.63491111368903
-0.14170000000000016,-77.0734716166472
-0.14270000000000005,-77.46959078060941
-0.14370000000000016,-77.90815128356756
-0.14470000000000005,-78.29012333453113
-0.14570000000000016,-78.64380115949739
-0.14670000000000005,-79.0399203234596
-0.14770000000000016,-79.37945103542721
-0.14870000000000005,-79.69068752139752
-0.14970000000000017,-80.04436534636378
-0.15070000000000006,-80.38389605833139
-0.15170000000000017,-80.69513254430169
-0.15270000000000006,-81.04881036926795
-0.15370000000000017,-81.38834108123557
-0.15470000000000006,-81.69957756720586
-0.15570000000000017,-82.03910827917348
-0.15670000000000006,-82.35034476514379
-0.15770000000000017,-82.6615812511141
-0.15870000000000006,-83.04355330207765
-0.15970000000000018,-83.48211380503581
-0.16070000000000007,-83.92067430799398
-0.16170000000000018,-84.31679347195619
-0.16270000000000007,-84.7129126359184
-0.16370000000000018,-85.17976736487385
-0.16470000000000007,-85.61832786783202
-0.16570000000000018,-86.05688837079018
-0.16670000000000007,-86.49544887374834
-0.16770000000000018,-86.89156803771054
-0.16870000000000007,-87.27354008867411
-0.16970000000000018,-87.62721791364037
-0.17070000000000007,-88.02333707760259
-0.17170000000000019,-88.4194562415648
-0.17270000000000008,-88.71654561453644
-0.1737000000000002,-89.02778210050676
-0.17470000000000008,-89.32487147347842
-0.1757000000000002,-89.67854929844468
-0.17670000000000008,-90.03222712341093
-0.1777000000000002,-90.47078762636909
-0.17870000000000008,-90.93764235532454
-0.1797000000000002,-91.41864419727867
-0.18070000000000008,-91.89964603923279
-0.1817000000000002,-92.3806478811869
-0.18270000000000008,-92.90409106213696
-0.1837000000000002,-93.38509290409107
-0.1847000000000001,-93.82365340704924
-0.1857000000000002,-94.21977257101145
-0.1867000000000001,-94.55930328297906
-0.1877000000000002,-94.99786378593721
-0.1887000000000001,-95.39398294989942
-0.1897000000000002,-95.69107232287108
-0.1907000000000001,-96.12963282582925
-0.1917000000000001,-96.44086931179956
-0.19269999999999998,-96.83698847576176
-0.1937000000000001,-97.26140186572127
-0.19469999999999998,-97.6575210296835
-0.1957000000000001,-98.05364019364569
-0.19669999999999999,-98.4497593576079
-0.1977000000000001,-98.7892900695755
-0.1987,-99.18540923353773
-0.1997000000000001,-99.58152839749994
-0.2007,-100.02008890045809
-0.2017000000000001,-100.5010907424122
-0.2027,-100.98209258436633
-0.2037000000000001,-101.54797710431234
-0.2047,-102.11386162425833
-0.2057000000000001,-102.76462882219626
-0.2067,-103.37295468113824
-0.2077000000000001,-103.93883920108425
-0.2087,-104.50472372103027
-0.2097000000000001,-104.98572556298437
-0.2107,-105.46672740493848
-0.2117000000000001,-105.90528790789664
-0.2127,-106.30140707185885
-0.2137000000000001,-106.64093778382647
-0.2147,-106.95217426979677
-0.2157000000000001,-107.39073477275493
-0.2167,-107.78685393671715
-0.21770000000000012,-108.21126732667666
-0.2187,-108.64982782963483
-0.21970000000000012,-109.13082967158894
-0.2207,-109.56939017454708
-0.22170000000000012,-110.09283335549715
-0.2227,-110.65871787544317
-0.22370000000000012,-111.22460239538917
-0.2247,-111.83292825433115
-0.22570000000000012,-112.3563714352812
-0.2267,-112.83737327723534
-0.22770000000000012,-113.36081645818538
-0.22870000000000001,-113.84181830013951
-0.22970000000000013,-114.3228201420936
-0.23070000000000002,-114.84626332304367
-0.23170000000000013,-115.36970650399375
-0.23270000000000002,-115.93559102393975
-0.23370000000000013,-116.50147554388576
-0.23470000000000002,-117.10980140282774
-0.23570000000000013,-117.67568592277377
-0.23670000000000002,-118.3406002337103
-0.2376999999999999,-118.90648475365633
-0.23870000000000002,-119.47236927360234
-0.2396999999999999,-119.95337111555646
-0.24070000000000003,-120.43437295751058
-0.24169999999999991,-120.9153747994647
-0.24270000000000003,-121.43881798041474
-0.24369999999999992,-121.90567270937021
-0.24470000000000003,-122.42911589032028
-0.24569999999999992,-123.00914752326493
-0.24670000000000003,-123.57503204321095
-0.24769999999999992,-124.09847522416102
-0.24870000000000003,-124.66435974410705
-0.24969999999999992,-125.23024426405304
-0.25070000000000003,-125.79612878399907
-0.2516999999999999,-126.36201330394509
-0.25270000000000004,-126.97033916288706
-0.2536999999999999,-127.57866502182902
-0.25470000000000004,-128.2294322197669
-0.2556999999999999,-128.89434653070347
-0.25670000000000004,-129.5451137286414
-0.25769999999999993,-130.28076360457123
-0.25870000000000004,-131.1154432714916
-0.25969999999999993,-131.95012293841197
-0.26070000000000004,-132.7706554923337
-0.26169999999999993,-133.46386402926754
-0.26270000000000004,-134.12877834020412
-0.26369999999999993,-134.77954553814206
-0.26470000000000005,-135.43031273607997
-0.26569999999999994,-136.08107993401788
-0.26670000000000005,-136.74599424495443
-0.26769999999999994,-137.31187876490046
-0.26870000000000005,-137.87776328484648
-0.26969999999999994,-138.40120646579655
-0.27070000000000005,-138.88220830775063
-0.27169999999999994,-139.36321014970477
-0.27270000000000005,-140.05641868663866
-0.27369999999999994,-140.89109835355902
-0.27470000000000006,-141.61260111649017
-0.27569999999999995,-142.31995676642268
-0.27670000000000006,-143.0273124163552
-0.27769999999999995,-143.73466806628772
-0.27870000000000006,-144.30055258623375
-0.27969999999999995,-145.00790823616626
-0.28070000000000006,-145.57379275611228
-0.28169999999999995,-146.28114840604482
-0.28270000000000006,-146.8470329259908
-0.28369999999999995,-147.55438857592333
-0.28470000000000006,-148.12027309586935
-0.28569999999999995,-148.82762874580186
-0.28670000000000007,-149.6764555257209
-0.28769999999999996,-150.38381117565342
-0.28870000000000007,-151.37410908555893
-0.28969999999999996,-152.0814647354914
-0.29070000000000007,-152.93029151541046
-0.29169999999999996,-153.77911829532948
-0.29270000000000007,-154.3450028152755
-0.29369999999999996,-154.9108873352215
-0.2947000000000001,-155.61824298515404
-0.29569999999999996,-156.18412750510007
-0.2967000000000001,-156.75001202504606
-0.29769999999999996,-157.45736767497857
-0.2987000000000001,-158.02325219492457
-0.29969999999999997,-158.73060784485713
-0.3007000000000001,-159.43796349478964
-0.30169999999999997,-160.14531914472215
-0.3027000000000001,-160.99414592464117
-0.30369999999999997,-161.70150157457368
-0.3047000000000001,-162.5503283544927
-0.30569999999999997,-163.25768400442522
-0.3067000000000001,-163.96503965435775
-0.3077,-164.81386643427678
-0.3087000000000001,-165.6626932141958
-0.3097,-166.3700488641283
-0.3107000000000001,-167.07740451406085
-0.3117,-167.92623129397984
-0.3127000000000001,-168.63358694391238
-0.3137,-169.3409425938449
-0.3147000000000001,-169.9068271137909
-0.3157,-170.61418276372342
-0.3167000000000001,-171.32153841365593
-0.3177,-171.88742293360195
-0.3187000000000001,-172.45330745354798
-0.3197,-173.01919197349397
-0.3207000000000001,-173.58507649344
-0.3217,-174.150961013386
-0.3227000000000001,-174.71684553333202
-0.3237,-175.42420118326456
-0.3247000000000001,-176.13155683319707
-0.3257,-176.8389124831296
-0.3267000000000001,-177.6877392630486
-0.3277,-178.53656604296762
-0.3287000000000001,-179.38539282288664
-0.3297,-180.23421960280567
-0.3307000000000001,-181.08304638272472
-0.3317,-181.79040203265723
-0.3327000000000001,-182.63922881257625
-0.3337,-183.34658446250873
-0.3347000000000001,-184.05394011244127
-0.3357,-184.6198246323873
-0.3367000000000001,-185.3271802823198
-0.3377,-185.89306480226583
-0.3387000000000001,-186.45894932221185
-0.3397,-187.02483384215788
-0.3407000000000001,-187.44924723211736
-0.3417,-188.01513175206335
-0.3427000000000001,-188.58101627200938
-0.3437,-189.0054296619689
-0.3447000000000001,-189.57131418191491
-0.3457,-190.27866983184742
-0.3467000000000001,-190.98602548177996
-0.3477,-191.69338113171247
-0.3487000000000001,-192.2592656516585
-0.3497,-192.966621301591
-0.3507000000000001,-193.532505821537
-0.3517,-193.81544808151003
-0.3527000000000001,-193.9569192114965
-0.3537,-194.2398614714695
-0.3547000000000001,-194.52280373144254
-0.3557,-194.94721712140205
-0.35670000000000013,-195.65457277133459
-0.3577,-196.2204572912806
-0.35870000000000013,-197.0692840711996
-0.3597,-197.91811085111863
-0.36070000000000013,-198.90840876102413
-0.3617,-199.61576441095667
-0.3626999999999999,-200.3231200608892
-0.3637,-200.88900458083523
-0.3646999999999999,-201.4548891007812
-0.3657,-201.87930249074074
-0.3666999999999999,-202.16224475071377
-0.3677,-202.44518701068677
-0.3686999999999999,-202.7281292706598
-0.36970000000000003,-203.01107153063276
-0.3706999999999999,-203.15254266061928
-0.37170000000000003,-203.15254266061928
-0.3726999999999999,-203.29401379060576
-0.37370000000000003,-203.29401379060576
-0.3746999999999999,-203.29401379060576
-0.37570000000000003,-203.29401379060576
-0.3766999999999999,-203.29401379060576
-0.37770000000000004,-203.29401379060576
-0.3786999999999999,-203.43548492059227
-0.37970000000000004,-203.71842718056527
-0.3806999999999999,-204.0013694405383
-0.38170000000000004,-204.2843117005113
-0.38269999999999993,-204.8501962204573
-0.38370000000000004,-205.41608074040332
-0.38469999999999993,-205.98196526034934
-0.38570000000000004,-206.54784978029537
-0.38669999999999993,-205.55755187038983
-0.38570000000000004,-201.87930249074074
-0.38469999999999993,-198.3425242410781
-0.38370000000000004,-194.80574599141553
-0.38269999999999993,-191.12749661176645
-0.38170000000000004,-187.59071836210387
-0.3806999999999999,-184.19541124242778
-0.37970000000000004,-180.8001041227517
-0.3786999999999999,-177.54626813306209
-0.37770000000000004,-174.2924321433725
-0.3766999999999999,-171.18006728366944
-0.37570000000000003,-168.06770242396635
-0.3746999999999999,-165.09680869424977
-0.37370000000000003,-162.2673860945197
-0.3726999999999999,-159.43796349478964
-0.37170000000000003,-156.89148315503257
-0.3706999999999999,-154.3450028152755
-0.36970000000000003,-151.93999360550492
-0.3686999999999999,-149.53498439573437
-0.3677,-147.1299751859638
-0.3666999999999999,-144.58349484620675
-0.3657,-142.03701450644968
-0.3646999999999999,-139.6602995226764
-0.3637,-137.12796629591801
-0.3626999999999999,-134.46830905217172
-0.3617,-131.72376913043357
-0.36070000000000013,-129.10655322568326
-0.3597,-126.84301514589919
-0.35870000000000013,-124.57947706611512
-0.3577,-122.21690919534053
-0.35670000000000013,-119.86848843756455
-0.3557,-117.46347922779398
-0.3547000000000001,-115.10091135701937
-0.3537,-112.71004926024747
-0.3527000000000001,-110.40406984146746
-0.3517,-108.35273845666316
-0.3507000000000001,-106.38628974985076
-0.3497,-104.3773997040424
-0.3487000000000001,-102.28362698024215
-0.3477,-100.10497157844999
-0.3467000000000001,-97.92631617665783
-0.3457,-95.79010211386164
-0.3447000000000001,-93.69632939006138
-0.3437,-91.68743934425302
-0.3427000000000001,-89.72099063744062
-0.3417,-87.79698326962418
-0.3407000000000001,-86.01444703179425
-0.3397,-84.27435213296022
-0.3387000000000001,-82.6615812511141
-0.3377,-81.09125170826391
-0.3367000000000001,-79.56336350440966
-0.3357,-77.95059262256353
-0.3347000000000001,-76.33782174071737
-0.3337,-74.58357972888473
-0.3327000000000001,-72.80104349105478
-0.3317,-71.06094859222078
-0.3307000000000001,-69.26426524139221
-0.3297,-67.48172900356225
-0.3287000000000001,-65.64260431373769
-0.3277,-63.902509414903705
-0.3267000000000001,-62.11997317707376
-0.3257,-60.45061384323302
-0.3247000000000001,-58.79540162239092
-0.3237,-57.22507207954074
-0.3227000000000001,-55.73962521468245
-0.3217,-54.35320814081471
-0.3207000000000001,-52.95264395394832
-0.3197,-51.594521106077885
-0.3187000000000001,-50.335428049198
-0.3177,-49.076334992318124
-0.3167000000000001,-47.76065348344364
-0.3157,-46.45911908756781
-0.3147000000000001,-45.143437578693316
-0.3137,-43.84190318281749
-0.3127000000000001,-42.483780334947056
-0.3117,-41.139804600075266
-0.3107000000000001,-39.78168175220483
-0.3097,-38.46600024333035
-0.3087000000000001,-37.164465847454515
-0.3077,-35.848784338580025
-0.3067000000000001,-34.58969128170015
-0.30569999999999997,-33.330598224820264
-0.3047000000000001,-32.09979939393769
-0.30369999999999997,-30.88314767605375
-0.3027000000000001,-29.66649595816982
-0.30169999999999997,-28.53472691827779
-0.3007000000000001,-27.34636942639116
-0.29969999999999997,-26.21460038649913
-0.2987000000000001,-25.12527268560305
-0.29769999999999996,-24.035944984706973
-0.2967000000000001,-22.989058622806844
-0.29569999999999996,-21.94217226090672
-0.2947000000000001,-20.93772723800254
-0.29369999999999996,-19.93328221509837
-0.29270000000000007,-18.92883719219419
-0.29169999999999996,-17.881950830294063
-0.29070000000000007,-16.877505807389888
-0.28969999999999996,-15.87306078448571
-0.28870000000000007,-14.868615761581536
-0.28769999999999996,-13.916515056772363
-0.28670000000000007,-12.955926084164007
-0.28569999999999995,-11.996751822855511
-0.28470000000000006,-11.081433611842833
-0.28369999999999995,-10.208556739826104
-0.28270000000000006,-9.293238528813426
-0.28169999999999995,-8.4203616567967
-0.28070000000000006,-7.50504344578402
-0.27969999999999995,-6.588310523471475
-0.27870000000000006,-5.715433651454749
-0.27769999999999995,-4.800115440442069
-0.27670000000000006,-3.927238568425342
-0.27569999999999995,-3.055776407708479
-0.27470000000000006,-2.226755585987568
-0.27369999999999994,-1.3980177065266295
-0.27270000000000005,-0.6128529351015338
-0.27169999999999994,0.12863969849672777
-0.27070000000000005,0.870188920546984
-0.26969999999999994,1.655212220842093
-0.26870000000000005,2.396520941971372
-0.26769999999999994,3.1378296631006513
