Potential V vs RHE, Current mA cm-2
0.013299999999999867,-0.287893749522535
0.012299999999999978,-1.6198444383454669
0.011299999999999866,-2.389447385472047
0.010299999999999976,-2.893084608224
0.009299999999999864,-3.2594948348890447
0.008299999999999974,-3.525460559263671
0.007299999999999862,-3.7192760073451816
0.006299999999999972,-3.8734795390304706
0.00529999999999986,-4.019194802916569
0.0042999999999999705,-4.160665932903073
0.0032999999999998586,-4.26393985779322
0.0022999999999999687,-4.353066669684718
0.0012999999999998568,-4.420972812078239
0.00029999999999996696,-4.495952510971087
-0.000700000000000145,-4.582249900262854
-0.0017000000000000348,-4.6742061347540815
-0.0027000000000001467,-4.729379875448817
-0.0037000000000000366,-4.791627172642879
-0.0047000000000001485,-4.85387446983694
-0.005700000000000038,-4.906218787931947
-0.00670000000000015,-4.981198486824794
-0.00770000000000004,-5.002419156322769
-0.008700000000000152,-5.026469248420476
-0.009700000000000042,-5.075984143915751
-0.010700000000000154,-5.173599223606439
-0.011700000000000044,-5.231602386900906
-0.012700000000000156,-5.249993633799152
-0.013700000000000045,-5.275458437196722
-0.014700000000000157,-5.326388043991862
-0.015700000000000047,-5.368829382987815
-0.01670000000000016,-5.445223793180525
-0.01770000000000005,-5.479176864377286
-0.01870000000000016,-5.515959358173778
-0.01970000000000005,-5.572547810168379
-0.020700000000000163,-5.622062705663656
-0.021700000000000053,-5.680065868958122
-0.022700000000000164,-5.7437278774520495
-0.023700000000000054,-5.77485152604908
-0.024700000000000166,-5.818707576344896
-0.025700000000000056,-5.882369584838822
-0.026700000000000168,-5.924810923834773
-0.027700000000000058,-5.970081685430455
-0.02870000000000017,-6.015352447026135
-0.02970000000000006,-6.064867342521412
-0.03070000000000017,-6.132773484914934
-0.03170000000000006,-6.187947225609671
-0.03270000000000017,-6.237462121104946
-0.03370000000000006,-6.284147594000493
-0.034700000000000175,-6.336491912095499
-0.035700000000000065,-6.411471610988346
-0.03670000000000018,-6.469474774282813
-0.03770000000000007,-6.520404381077953
-0.03870000000000018,-6.565675142673635
-0.03970000000000007,-6.622263594668237
-0.04070000000000018,-6.6958285822612185
-0.04170000000000007,-6.776467126353525
-0.04270000000000018,-6.823152599249072
-0.04370000000000007,-6.869838072144618
-0.044700000000000184,-6.941988348437734
-0.045700000000000074,-7.024041603829907
-0.046700000000000186,-7.104680147922214
-0.047700000000000076,-7.159853888616951
-0.04870000000000019,-7.205124650212632
-0.04970000000000008,-7.275860215205883
-0.05070000000000019,-7.348010491499002
-0.05170000000000008,-7.437137303390498
-0.05270000000000019,-7.500799311884425
-0.05370000000000008,-7.557387763879025
-0.05470000000000019,-7.646514575770523
-0.05570000000000008,-7.754032634560266
-0.056700000000000195,-7.837500601252304
-0.057700000000000085,-7.888430208047444
-0.058700000000000196,-7.926627413143801
-0.059700000000000086,-7.9747275973392115
-0.0607000000000002,-8.061024986630978
-0.06170000000000009,-8.208154961816943
-0.0627000000000002,-8.29162292850898
-0.06370000000000009,-8.3312348449052
-0.0647000000000002,-8.403385121198317
-0.06570000000000009,-8.519391447787251
-0.0667000000000002,-8.608518259678748
-0.0677000000000001,-8.675009690772406
-0.0687000000000002,-8.759892368764307
-0.0697000000000001,-8.846189758056074
-0.07070000000000021,-8.955122528145683
-0.0717000000000001,-9.045664051337045
-0.07270000000000021,-9.11498490503043
-0.0737000000000001,-9.202697005622065
-0.07470000000000021,-9.294653240113291
-0.0757000000000001,-9.407830144102494
-0.07670000000000021,-9.49129811079453
-0.0777000000000001,-9.577595500086298
-0.07870000000000021,-9.689357692775637
-0.0797000000000001,-9.80536401936457
-0.08070000000000022,-9.931273325052558
-0.0817000000000001,-10.041620806442031
-0.08270000000000022,-10.118015216634742
-0.08370000000000011,-10.214215585025565
-0.08470000000000022,-10.323148355115173
-0.08570000000000011,-10.450472372103025
-0.08670000000000022,-10.576381677791014
-0.08770000000000011,-10.673996757481701
-0.08870000000000022,-10.78575895017104
-0.08970000000000011,-10.917327101058488
-0.09070000000000022,-11.036162850247152
-0.09170000000000011,-11.15924273333541
-0.09270000000000023,-11.259687235625828
-0.09370000000000012,-11.336081645818538
-0.09470000000000023,-11.461990951506527
-0.09570000000000012,-11.603462081493031
-0.09670000000000023,-11.723712541981559
-0.09770000000000012,-11.841133579870357
-0.09870000000000023,-11.98260470985686
-0.09970000000000012,-12.146711220641206
-0.10070000000000023,-12.276864660228789
-0.10170000000000012,-12.399944543317048
-0.10270000000000024,-12.503218468207196
-0.10370000000000013,-12.644689598193699
-0.10470000000000024,-12.790404862079797
-0.10570000000000013,-12.919143590367515
-0.10670000000000024,-13.063444142953749
-0.10770000000000013,-13.226135942438228
-0.10870000000000024,-13.385998319322978
-0.10970000000000013,-13.511907625010965
-0.11070000000000024,-13.649134621097875
-0.11170000000000013,-13.796264596283837
-0.11270000000000002,-13.929247458471151
-0.11370000000000013,-14.07779214495698
-0.11470000000000002,-14.217848563643619
-0.11570000000000014,-14.401761032626075
-0.11670000000000003,-14.57152638860988
-0.11770000000000014,-14.71299751859638
-0.11870000000000003,-14.882762874580186
-0.11970000000000014,-15.03838111756534
-0.12070000000000003,-15.236440699546446
-0.12170000000000014,-15.3920589425316
-0.12270000000000003,-15.561824298515406
-0.12370000000000014,-15.731589654499205
-0.12470000000000003,-15.87306078448571
-0.12570000000000014,-16.014531914472215
-0.12670000000000003,-16.25503283544927
-0.12770000000000015,-16.453092417430376
-0.12870000000000004,-16.622857773414182
-0.12970000000000015,-16.820917355395284
-0.13070000000000004,-17.03312405037504
-0.13170000000000015,-17.174595180361546
-0.13270000000000004,-17.316066310348052
-0.13370000000000015,-17.471684553333205
-0.13470000000000004,-17.698038361311607
-0.13570000000000015,-17.910245056291366
-0.13670000000000004,-18.13659886426977
-0.13770000000000016,-18.292217107254928
-0.13870000000000005,-18.49027668923603
-0.13970000000000016,-18.744924723211735
-0.14070000000000005,-18.985425644188794
-0.14170000000000016,-19.1834852261699
-0.14270000000000005,-19.381544808151002
-0.14370000000000016,-19.636192842126707
-0.14470000000000005,-19.904987989101066
-0.14570000000000016,-20.10304757108217
-0.14670000000000005,-20.301107153063278
-0.14770000000000016,-20.51331384804303
-0.14870000000000005,-20.683079204026836
-0.14970000000000017,-20.980168576998494
-0.15070000000000006,-21.19237527197825
-0.15170000000000017,-21.347993514963402
-0.15270000000000006,-21.602641548939108
-0.15370000000000017,-21.857289582914817
-0.15470000000000006,-22.055349164895922
-0.15570000000000017,-22.309997198871628
-0.15670000000000006,-22.508056780852733
-0.15770000000000017,-22.748557701829792
-0.15870000000000006,-22.974911509808198
-0.15970000000000018,-23.215412430785253
-0.16070000000000007,-23.48420757775961
-0.16170000000000018,-23.710561385738018
-0.16270000000000007,-24.035944984706973
-0.16370000000000018,-24.34718147067728
-0.16470000000000007,-24.587682391654337
-0.16570000000000018,-24.814036199632742
-0.16670000000000007,-25.09697845960575
-0.16770000000000018,-25.337479380582806
-0.16870000000000007,-25.57798030155986
-0.16970000000000018,-25.90336390052882
-0.17070000000000007,-26.20045327350048
-0.17170000000000019,-26.483395533473487
-0.17270000000000008,-26.752190680447846
-0.1737000000000002,-27.049280053419505
-0.17470000000000008,-27.38881076538711
-0.1757000000000002,-27.558576121370916
-0.17670000000000008,-27.799077042347974
-0.1777000000000002,-28.12446064131693
-0.17870000000000008,-28.308373110299385
-0.1797000000000002,-28.506432692280487
-0.18070000000000008,-29.044022986229205
-0.1817000000000002,-29.482583489187363
-0.18270000000000008,-29.66649595816982
-0.1837000000000002,-29.850408427152274
-0.1847000000000001,-30.10505646112798
-0.1857000000000002,-30.402145834099635
-0.1867000000000001,-30.71338232006995
-0.1877000000000002,-30.897294789052403
-0.1887000000000001,-31.20853127502271
-0.1897000000000002,-31.57635621298762
-0.1907000000000001,-31.901739811956578
-0.1917000000000001,-32.19882918492823
-0.19269999999999998,-32.48177144490124
-0.1937000000000001,-32.67983102688235
-0.19469999999999998,-32.90618483486075
-0.1957000000000001,-33.302303998822964
-0.19669999999999999,-33.57109914579732
-0.1977000000000001,-33.839894292771675
-0.1987,-34.15113077874198
-0.1997000000000001,-34.44822015171364
-0.2007,-34.717015298688004
-0.2017000000000001,-34.99995755866101
-0.2027,-35.254605592636715
-0.2037000000000001,-35.56584207860703
-0.2047,-35.94781412957058
-0.2057000000000001,-36.10343237255574
-0.2067,-36.37222751953009
-0.2077000000000001,-36.45711019752199
-0.2087,-36.740052457495004
-0.2097000000000001,-37.05128894346531
-0.2107,-37.27764275144372
-0.2117000000000001,-37.39081965543292
-0.2127,-37.57473212441538
-0.2137000000000001,-37.801085932393775
-0.2147,-37.99914551437489
-0.2157000000000001,-38.29623488734655
-0.2167,-38.49429446932764
-0.21770000000000012,-38.72064827730605
-0.2187,-38.791383842299304
-0.21970000000000012,-39.08847321527096
-0.2207,-39.159208780264215
-0.22170000000000012,-39.21579723225882
-0.2227,-39.173355893262865
-0.22370000000000012,-39.145061667265566
-0.2247,-39.20165011926017
-0.22570000000000012,-39.314827023249364
-0.2267,-39.272385684253415
-0.22770000000000012,-39.244091458256115
-0.22870000000000001,-39.272385684253415
-0.22970000000000013,-39.258238571254765
-0.23070000000000002,-39.328974136248014
-0.23170000000000013,-39.173355893262865
-0.23270000000000002,-38.791383842299304
-0.23370000000000013,-38.763089616302004
-0.23470000000000002,-38.706501164307404
-0.23570000000000013,-38.42355890433439
-0.23670000000000002,-38.154763757360044
-0.2376999999999999,-38.01329262737354
-0.23870000000000002,-37.81523304539243
-0.2396999999999999,-37.46155522042617
-0.24070000000000003,-37.00884760446935
-0.24169999999999991,-36.740052457495004
-0.24270000000000003,-36.47125731052064
-0.24369999999999992,-36.08928525955708
-0.24470000000000003,-35.55169496560837
-0.24569999999999992,-35.15557580164616
-0.24670000000000003,-34.731162411686654
-0.24769999999999992,-34.236013456733886
-0.24870000000000003,-33.698423162785176
-0.24969999999999992,-33.316451111821614
-0.25070000000000003,-32.84959638286615
-0.2516999999999999,-32.368594540912035
-0.25270000000000004,-31.94418115095253
-0.2536999999999999,-31.420737970002463
-0.25470000000000004,-30.939736128048356
-0.2556999999999999,-30.50117562509019
-0.25670000000000004,-30.03432089613473
-0.25769999999999993,-29.609907506175215
-0.25870000000000004,-29.157199890218404
-0.25969999999999993,-28.775227839254843
-0.26070000000000004,-28.393255788291288
-0.26169999999999993,-27.997136624329073
-0.26270000000000004,-27.64345879936282
-0.26369999999999993,-27.303928087395207
-0.26470000000000005,-27.06342716641815
-0.26569999999999994,-26.738043567449193
-0.26670000000000005,-26.412659968480234
-0.26769999999999994,-26.15801193450453
-0.26870000000000005,-25.931658126526123
-0.26969999999999994,-25.832628335535567
-0.27070000000000005,-25.677010092550415
-0.27169999999999994,-25.507244736566612
-0.27270000000000005,-25.37992071957876
-0.27369999999999994,-25.266743815589557
-0.27470000000000006,-25.266743815589557
-0.27569999999999995,-25.266743815589557
-0.27670000000000006,-25.252596702590903
-0.27769999999999995,-25.309185154585506
-0.27870000000000006,-25.351626493581456
-0.27969999999999995,-25.43650917157336
-0.28070000000000006,-25.521391849565262
-0.28169999999999995,-25.620421640555815
-0.28270000000000006,-25.719451431546364
-0.28369999999999995,-25.90336390052882
-0.28470000000000006,-26.129717708507226
-0.28569999999999995,-26.426807081478888
-0.28670000000000007,-26.61071955046134
-0.28769999999999996,-26.766337793446493
-0.28870000000000007,-26.992691601424898
-0.28969999999999996,-27.261486748399253
-0.29070000000000007,-27.558576121370916
-0.29169999999999996,-27.869812607341224
-0.29270000000000007,-28.209343319308836
-0.29369999999999996,-28.53472691827779
-0.2947000000000001,-28.88840474324405
-0.29569999999999996,-29.25622968120896
-0.2967000000000001,-29.539171941181966
-0.29769999999999996,-29.921143992145527
-0.2987000000000001,-30.416292947098288
-0.29969999999999997,-30.812412111060496
-0.3007000000000001,-31.180237049025404
-0.30169999999999997,-31.76026868197007
-0.3027000000000001,-32.21297629792688
-0.30369999999999997,-32.65153680088505
-0.3047000000000001,-33.06180307784591
-0.30569999999999997,-33.45792224180811
-0.3067000000000001,-33.96721830975953
-0.3077,-34.61798550769744
-0.3087000000000001,-35.11313446265021
-0.3097,-35.53754785260972
-0.3107000000000001,-36.14587371155169
-0.3117,-36.669316892501755
-0.3127000000000001,-37.206907186450465
-0.3137,-37.82938015839108
-0.3147000000000001,-38.3669704523398
-0.3157,-39.01773765027771
-0.3167000000000001,-39.56947505722508
-0.3177,-40.20609514216434
-0.3187000000000001,-40.729538323114404
-0.3197,-41.38030552105233
-0.3207000000000001,-42.03107271899024
-0.3217,-42.71013414292546
-0.3227000000000001,-43.37504845386202
-0.3237,-43.96922719980534
-0.3247000000000001,-44.535111719751356
-0.3257,-45.12929046569467
-0.3267000000000001,-45.963970132615046
-0.3277,-46.75620846053947
-0.3287000000000001,-47.40697565847737
-0.3297,-48.1426255344072
-0.3307000000000001,-48.86412829733837
-0.3317,-49.514895495276285
-0.3327000000000001,-50.179809806212845
-0.3337,-50.75984143915752
-0.3347000000000001,-51.665256671071134
-0.3357,-52.42920077299826
-0.3367000000000001,-53.03752663194023
-0.3377,-53.75902939487139
-0.3387000000000001,-54.59370906179176
-0.3397,-55.428388728712136
-0.3407000000000001,-56.19233283063926
-0.3417,-57.14018940154883
-0.3427000000000001,-57.76266237348945
-0.3437,-58.38513534543006
-0.3447000000000001,-59.17737367335449
-0.3457,-59.884729323287
-0.3467000000000001,-60.70526187720872
-0.3477,-61.412617527141244
-0.3487000000000001,-62.21900296806431
-0.3497,-63.37906623395363
-0.3507000000000001,-64.0439805448902
-0.3517,-64.70889485582677
-0.3527000000000001,-65.71333987873095
-0.3537,-66.66119644964053
-0.3547000000000001,-67.3826992125717
-0.3557,-68.17493754049613
-0.35670000000000013,-69.20767678939758
-0.3577,-69.95747377832606
-0.35870000000000013,-70.74971210625048
-0.3597,-71.6268331121668
-0.36070000000000013,-72.53224834408043
-0.3617,-73.40936934999675
-0.3626999999999999,-74.20160767792116
-0.3637,-75.14946424883075
-0.3646999999999999,-76.19635061073087
-0.3657,-76.94614759965934
-0.3666999999999999,-77.85156283157298
-0.3677,-78.74283095048794
-0.3686999999999999,-79.69068752139752
-0.36970000000000003,-81.03466325626928
-0.3706999999999999,-81.68543045420722
-0.37170000000000003,-82.61913991211814
-0.3726999999999999,-83.48211380503581
-0.37370000000000003,-84.21776368096563
-0.3746999999999999,-85.06659046088465
-0.37570000000000003,-86.07103548378883
-0.3766999999999999,-87.01889205469841
-0.37770000000000004,-87.92430728661203
-0.3786999999999999,-88.71654561453644
-0.37970000000000004,-89.74928486343794
-0.3806999999999999,-90.96593658132187
-0.38170000000000004,-91.82891047423954
-0.38269999999999993,-92.79091415814774
-0.38370000000000004,-93.72462361605868
-0.38469999999999993,-94.55930328297906
-0.38570000000000004,-95.43642428889537
-0.38669999999999993,-94.75736286496016
-0.38570000000000004,-92.67773725415857
-0.38469999999999993,-91.31961440628812
-0.38370000000000004,-90.34346360938125
-0.38269999999999993,-88.97119364851217
-0.38170000000000004,-87.72624770463094
-0.3806999999999999,-87.03303916769705
-0.37970000000000004,-85.61832786783202
-0.3786999999999999,-84.45826460194269
-0.37770000000000004,-83.029406189079
-0.3766999999999999,-81.71372468020452
-0.37570000000000003,-80.73757388329766
-0.3746999999999999,-79.53506927841237
-0.37370000000000003,-78.19109354354057
-0.3726999999999999,-77.14420718164045
-0.37170000000000003,-76.16805638473357
-0.3706999999999999,-75.17775847482805
-0.36970000000000003,-74.04598943493602
-0.3686999999999999,-72.81519060405343
-0.3677,-71.6834215641614
-0.3666999999999999,-70.73556499325183
-0.3657,-69.7735613093436
-0.3646999999999999,-68.67008649544888
-0.3637,-67.63734724654739
-0.3626999999999999,-66.85925603162164
-0.3617,-65.8972523477134
-0.36070000000000013,-64.94939577680383
-0.3597,-63.95909786689831
-0.35870000000000013,-62.91221150499819
-0.3577,-62.21900296806431
-0.35670000000000013,-61.12967526716824
-0.3557,-60.30914271324652
-0.3547000000000001,-59.31884480334099
-0.3537,-58.51245936241792
-0.3527000000000001,-57.649485469500235
-0.3517,-56.63089333359741
-0.3507000000000001,-55.76791944067975
-0.3497,-54.890798434763425
-0.3487000000000001,-53.9287947508552
-0.3477,-53.16485064892808
-0.3467000000000001,-52.30187675601041
-0.3457,-51.60866821907654
-0.3447000000000001,-51.127666377122424
-0.3437,-50.3637222751953
-0.3427000000000001,-49.75539641625335
-0.3417,-48.96315808832892
-0.3407000000000001,-48.51045047237211
-0.3397,-47.81724193543825
-0.3387000000000001,-47.053297833511124
-0.3377,-46.289353731584
-0.3367000000000001,-45.29905582167847
-0.3357,-44.39364058976485
-0.3347000000000001,-43.57310803584313
-0.3337,-42.89404661190791
-0.3327000000000001,-42.14424962297944
-0.3317,-41.47933531204288
-0.3307000000000001,-40.68709698411846
-0.3297,-39.96559422118728
-0.3287000000000001,-39.38556258824262
-0.3277,-38.678206938310105
-0.3267000000000001,-37.94255706238028
-0.3257,-37.15031873445586
-0.3247000000000001,-36.45711019752199
-0.3237,-35.87707856457733
-0.3227000000000001,-35.21216425364076
-0.3217,-34.51895571670689
-0.3207000000000001,-33.93892408376223
-0.3197,-33.330598224820264
-0.3187000000000001,-32.7222723658783
-0.3177,-32.07150516794038
-0.3167000000000001,-31.420737970002463
-0.3157,-30.699235207071297
-0.3147000000000001,-30.06261512213203
-0.3137,-29.468436376188716
-0.3127000000000001,-28.80352206525215
-0.3117,-28.294225997300735
-0.3107000000000001,-27.869812607341224
-0.3097,-27.289780974396557
-0.3087000000000001,-26.709749341451893
-0.3077,-26.11557059550858
-0.3067000000000001,-25.592127414558515
-0.30569999999999997,-25.054537120609798
-0.3047000000000001,-24.516946826661083
-0.30369999999999997,-24.078386323702922
-0.3027000000000001,-23.51250180375691
-0.30169999999999997,-23.144676865792
-0.3007000000000001,-22.564645232847337
-0.29969999999999997,-21.94217226090672
-0.2987000000000001,-21.461170418952605
-0.29769999999999996,-20.966021463999844
-0.2967000000000001,-20.48501962204573
-0.29569999999999996,-19.97572355409432
-0.2947000000000001,-19.508868825138855
-0.29369999999999996,-19.070308322180697
-0.29270000000000007,-18.546865141230633
-0.29169999999999996,-18.06586329927652
-0.29070000000000007,-17.627302796318357
-0.28969999999999996,-17.160448067362896
-0.28870000000000007,-16.70774045140608
-0.28769999999999996,-16.325768400442524
-0.28670000000000007,-15.972090575476265
-0.28569999999999995,-15.561824298515406
-0.28470000000000006,-15.10911668255859
-0.28369999999999995,-14.69885040559773
-0.28270000000000006,-14.30273124163552
-0.28169999999999995,-13.871244295176684
-0.28070000000000006,-13.548690118807457
-0.27969999999999995,-13.158229800044706
-0.27870000000000006,-12.862555138372914
-0.27769999999999995,-12.589515857498961
-0.27670000000000006,-12.237252743832567
-0.27569999999999995,-11.859524826768602
-0.27470000000000006,-11.522823537400724
-0.27369999999999994,-11.18753695933271
-0.27270000000000005,-10.823956155267396
-0.27169999999999994,-10.464619485101677
-0.27070000000000005,-10.113771082735147
-0.26969999999999994,-9.779899215967
-0.26870000000000005,-9.440368503999391
-0.26769999999999994,-9.110740771130837
-0.26670000000000005,-8.781113038262282
-0.26569999999999994,-8.47412068619157
