Sept. 16, 2024   06:18:16
Cyclic Voltammetry
File: c:/users/guazh/data/20240903_batch_252_500/2024-09-03-exp367\exp367-2024-09-16t05_51_58-arkoh\exp367_cv_sr_900mvs_efin_-1900mv.bin
Data Source:  Experiment
Instrument Model:  CHI760E
Header: CV ran at 900 mVs
Note: 

Init E (V) = -1
High E (V) = -1
Low E (V) = -1.9
Final E (V) = -1
Init P/N = N
Scan Rate (V/s) = 0.9
Segment = 3
Sample Interval (V) = 0.001
Quiet Time (sec) = 2
Sensitivity (A/V) = 0.01
Comp R (ohm) = 2.1

Results:

Channel 1:
Segment 1:

Segment 2:

Segment 3:

Potential/V, Current/A

-1.000, 3.239e-6
-1.001, 3.239e-6
-1.002, 3.239e-6
-1.003, 3.239e-6
-1.004, 3.239e-6
-1.005, 3.239e-6
-1.006, 3.239e-6
-1.007, 3.239e-6
-1.008, 3.239e-6
-1.009, 3.239e-6
-1.010, 3.239e-6
-1.011, 3.239e-6
-1.012, 3.239e-6
-1.013, 3.239e-6
-1.014, 6.322e-6
-1.015, 6.322e-6
-1.016, 3.239e-6
-1.017, 3.239e-6
-1.018, 6.322e-6
-1.019, 3.239e-6
-1.020, 3.239e-6
-1.021, 3.239e-6
-1.022, 3.239e-6
-1.023, 3.239e-6
-1.024, 3.239e-6
-1.025, 3.239e-6
-1.026, 3.239e-6
-1.027, 6.322e-6
-1.028, 6.322e-6
-1.029, 3.239e-6
-1.030, 3.239e-6
-1.031, 6.322e-6
-1.032, 3.239e-6
-1.033, 6.322e-6
-1.034, 3.239e-6
-1.035, 3.239e-6
-1.036, 6.322e-6
-1.037, 6.322e-6
-1.038, 3.239e-6
-1.039, 6.322e-6
-1.040, 6.322e-6
-1.041, 6.322e-6
-1.042, 3.239e-6
-1.043, 6.322e-6
-1.044, 6.322e-6
-1.045, 6.322e-6
-1.046, 6.322e-6
-1.047, 6.322e-6
-1.048, 6.322e-6
-1.049, 6.322e-6
-1.050, 6.322e-6
-1.051, 6.322e-6
-1.052, 6.322e-6
-1.053, 6.322e-6
-1.054, 6.322e-6
-1.055, 6.322e-6
-1.056, 6.322e-6
-1.057, 6.322e-6
-1.058, 6.322e-6
-1.059, 6.322e-6
-1.060, 6.322e-6
-1.061, 6.322e-6
-1.062, 6.322e-6
-1.063, 6.322e-6
-1.064, 6.322e-6
-1.065, 6.322e-6
-1.066, 6.322e-6
-1.067, 6.322e-6
-1.068, 6.322e-6
-1.069, 6.322e-6
-1.070, 6.322e-6
-1.071, 6.322e-6
-1.072, 6.322e-6
-1.073, 6.322e-6
-1.074, 6.322e-6
-1.075, 6.322e-6
-1.076, 6.322e-6
-1.077, 6.322e-6
-1.078, 6.322e-6
-1.079, 6.322e-6
-1.080, 6.322e-6
-1.081, 6.322e-6
-1.082, 6.322e-6
-1.083, 6.322e-6
-1.084, 6.322e-6
-1.085, 6.322e-6
-1.086, 6.322e-6
-1.087, 6.322e-6
-1.088, 6.322e-6
-1.089, 6.322e-6
-1.090, 6.322e-6
-1.091, 6.322e-6
-1.092, 6.322e-6
-1.093, 6.322e-6
-1.094, 6.322e-6
-1.095, 6.322e-6
-1.096, 6.322e-6
-1.097, 6.322e-6
-1.098, 6.322e-6
-1.099, 6.322e-6
-1.100, 6.322e-6
-1.101, 6.322e-6
-1.102, 6.322e-6
-1.103, 6.322e-6
-1.104, 6.322e-6
-1.105, 6.322e-6
-1.106, 6.322e-6
-1.107, 6.322e-6
-1.108, 6.322e-6
-1.109, 6.322e-6
-1.110, 6.322e-6
-1.111, 6.322e-6
-1.112, 9.405e-6
-1.113, 6.322e-6
-1.114, 6.322e-6
-1.115, 6.322e-6
-1.116, 6.322e-6
-1.117, 6.322e-6
-1.118, 6.322e-6
-1.119, 6.322e-6
-1.120, 9.405e-6
-1.121, 6.322e-6
-1.122, 9.405e-6
-1.123, 6.322e-6
-1.124, 9.405e-6
-1.125, 9.405e-6
-1.126, 9.405e-6
-1.127, 6.322e-6
-1.128, 6.322e-6
-1.129, 9.405e-6
-1.130, 6.322e-6
-1.131, 6.322e-6
-1.132, 6.322e-6
-1.133, 9.405e-6
-1.134, 6.322e-6
-1.135, 6.322e-6
-1.136, 9.405e-6
-1.137, 6.322e-6
-1.138, 9.405e-6
-1.139, 6.322e-6
-1.140, 6.322e-6
-1.141, 9.405e-6
-1.142, 6.322e-6
-1.143, 6.322e-6
-1.144, 6.322e-6
-1.145, 9.405e-6
-1.146, 6.322e-6
-1.147, 9.405e-6
-1.148, 9.405e-6
-1.149, 9.405e-6
-1.150, 9.405e-6
-1.151, 6.322e-6
-1.152, 9.405e-6
-1.153, 6.322e-6
-1.154, 9.405e-6
-1.155, 9.405e-6
-1.156, 6.322e-6
-1.157, 9.405e-6
-1.158, 9.405e-6
-1.159, 6.322e-6
-1.160, 9.405e-6
-1.161, 9.405e-6
-1.162, 9.405e-6
-1.163, 9.405e-6
-1.164, 9.405e-6
-1.165, 9.405e-6
-1.166, 9.405e-6
-1.167, 6.322e-6
-1.168, 9.405e-6
-1.169, 9.405e-6
-1.170, 9.405e-6
-1.171, 9.405e-6
-1.172, 9.405e-6
-1.173, 9.405e-6
-1.174, 6.322e-6
-1.175, 9.405e-6
-1.176, 9.405e-6
-1.177, 9.405e-6
-1.178, 9.405e-6
-1.179, 9.405e-6
-1.180, 9.405e-6
-1.181, 9.405e-6
-1.182, 9.405e-6
-1.183, 9.405e-6
-1.184, 9.405e-6
-1.185, 9.405e-6
-1.186, 9.405e-6
-1.187, 9.405e-6
-1.188, 9.405e-6
-1.189, 9.405e-6
-1.190, 6.322e-6
-1.191, 9.405e-6
-1.192, 9.405e-6
-1.193, 9.405e-6
-1.194, 9.405e-6
-1.195, 9.405e-6
-1.196, 9.405e-6
-1.197, 9.405e-6
-1.198, 9.405e-6
-1.199, 9.405e-6
-1.200, 9.405e-6
-1.201, 9.405e-6
-1.202, 9.405e-6
-1.203, 9.405e-6
-1.204, 9.405e-6
-1.205, 9.405e-6
-1.206, 9.405e-6
-1.207, 9.405e-6
-1.208, 9.405e-6
-1.209, 9.405e-6
-1.210, 9.405e-6
-1.211, 9.405e-6
-1.212, 9.405e-6
-1.213, 9.405e-6
-1.214, 9.405e-6
-1.215, 9.405e-6
-1.216, 9.405e-6
-1.217, 9.405e-6
-1.218, 9.405e-6
-1.219, 9.405e-6
-1.220, 9.405e-6
-1.221, 9.405e-6
-1.222, 9.405e-6
-1.223, 9.405e-6
-1.224, 9.405e-6
-1.225, 9.405e-6
-1.226, 1.249e-5
-1.227, 9.405e-6
-1.228, 9.405e-6
-1.229, 9.405e-6
-1.230, 9.405e-6
-1.231, 1.249e-5
-1.232, 9.405e-6
-1.233, 1.249e-5
-1.234, 9.405e-6
-1.235, 9.405e-6
-1.236, 9.405e-6
-1.237, 9.405e-6
-1.238, 1.249e-5
-1.239, 1.249e-5
-1.240, 1.249e-5
-1.241, 9.405e-6
-1.242, 9.405e-6
-1.243, 9.405e-6
-1.244, 9.405e-6
-1.245, 1.249e-5
-1.246, 1.249e-5
-1.247, 9.405e-6
-1.248, 1.249e-5
-1.249, 1.249e-5
-1.250, 1.249e-5
-1.251, 9.405e-6
-1.252, 1.249e-5
-1.253, 9.405e-6
-1.254, 1.249e-5
-1.255, 1.249e-5
-1.256, 1.249e-5
-1.257, 1.249e-5
-1.258, 9.405e-6
-1.259, 1.249e-5
-1.260, 1.249e-5
-1.261, 1.249e-5
-1.262, 1.249e-5
-1.263, 1.249e-5
-1.264, 9.405e-6
-1.265, 1.249e-5
-1.266, 1.249e-5
-1.267, 9.405e-6
-1.268, 1.249e-5
-1.269, 1.249e-5
-1.270, 1.249e-5
-1.271, 1.249e-5
-1.272, 1.249e-5
-1.273, 1.249e-5
-1.274, 1.249e-5
-1.275, 1.249e-5
-1.276, 1.249e-5
-1.277, 1.249e-5
-1.278, 1.249e-5
-1.279, 1.249e-5
-1.280, 1.249e-5
-1.281, 1.249e-5
-1.282, 1.249e-5
-1.283, 1.249e-5
-1.284, 1.249e-5
-1.285, 1.249e-5
-1.286, 1.249e-5
-1.287, 1.249e-5
-1.288, 1.249e-5
-1.289, 1.249e-5
-1.290, 1.249e-5
-1.291, 1.557e-5
-1.292, 1.249e-5
-1.293, 1.249e-5
-1.294, 1.249e-5
-1.295, 1.249e-5
-1.296, 1.557e-5
-1.297, 1.249e-5
-1.298, 1.249e-5
-1.299, 1.557e-5
-1.300, 1.249e-5
-1.301, 1.557e-5
-1.302, 1.249e-5
-1.303, 1.249e-5
-1.304, 1.249e-5
-1.305, 1.557e-5
-1.306, 1.557e-5
-1.307, 1.249e-5
-1.308, 1.557e-5
-1.309, 1.557e-5
-1.310, 1.557e-5
-1.311, 1.557e-5
-1.312, 1.557e-5
-1.313, 1.557e-5
-1.314, 1.557e-5
-1.315, 1.557e-5
-1.316, 1.557e-5
-1.317, 1.557e-5
-1.318, 1.557e-5
-1.319, 1.557e-5
-1.320, 1.557e-5
-1.321, 1.557e-5
-1.322, 1.557e-5
-1.323, 1.557e-5
-1.324, 1.557e-5
-1.325, 1.557e-5
-1.326, 1.557e-5
-1.327, 1.557e-5
-1.328, 1.557e-5
-1.329, 1.557e-5
-1.330, 1.557e-5
-1.331, 1.557e-5
-1.332, 1.557e-5
-1.333, 1.865e-5
-1.334, 1.557e-5
-1.335, 1.865e-5
-1.336, 1.865e-5
-1.337, 1.557e-5
-1.338, 1.865e-5
-1.339, 1.865e-5
-1.340, 1.865e-5
-1.341, 1.865e-5
-1.342, 1.865e-5
-1.343, 1.865e-5
-1.344, 1.865e-5
-1.345, 1.865e-5
-1.346, 1.865e-5
-1.347, 1.865e-5
-1.348, 1.865e-5
-1.349, 1.865e-5
-1.350, 1.865e-5
-1.351, 1.865e-5
-1.352, 1.865e-5
-1.353, 1.865e-5
-1.354, 1.865e-5
-1.355, 1.865e-5
-1.356, 1.865e-5
-1.357, 1.865e-5
-1.358, 1.865e-5
-1.359, 2.174e-5
-1.360, 2.174e-5
-1.361, 2.174e-5
-1.362, 2.174e-5
-1.363, 2.174e-5
-1.364, 2.174e-5
-1.365, 2.174e-5
-1.366, 2.174e-5
-1.367, 2.174e-5
-1.368, 2.174e-5
-1.369, 2.174e-5
-1.370, 2.174e-5
-1.371, 2.174e-5
-1.372, 2.174e-5
-1.373, 2.482e-5
-1.374, 2.174e-5
-1.375, 2.482e-5
-1.376, 2.482e-5
-1.377, 2.482e-5
-1.378, 2.482e-5
-1.379, 2.482e-5
-1.380, 2.482e-5
-1.381, 2.482e-5
-1.382, 2.482e-5
-1.383, 2.482e-5
-1.384, 2.482e-5
-1.385, 2.482e-5
-1.386, 2.482e-5
-1.387, 2.482e-5
-1.388, 2.482e-5
-1.389, 2.790e-5
-1.390, 2.790e-5
-1.391, 2.790e-5
-1.392, 2.790e-5
-1.393, 2.790e-5
-1.394, 2.790e-5
-1.395, 2.790e-5
-1.396, 3.099e-5
-1.397, 2.790e-5
-1.398, 3.099e-5
-1.399, 3.099e-5
-1.400, 3.099e-5
-1.401, 3.099e-5
-1.402, 3.099e-5
-1.403, 3.099e-5
-1.404, 3.099e-5
-1.405, 3.099e-5
-1.406, 3.099e-5
-1.407, 3.407e-5
-1.408, 3.407e-5
-1.409, 3.407e-5
-1.410, 3.715e-5
-1.411, 3.407e-5
-1.412, 3.715e-5
-1.413, 3.407e-5
-1.414, 3.407e-5
-1.415, 3.715e-5
-1.416, 3.407e-5
-1.417, 3.715e-5
-1.418, 3.715e-5
-1.419, 3.715e-5
-1.420, 3.715e-5
-1.421, 3.715e-5
-1.422, 4.024e-5
-1.423, 3.715e-5
-1.424, 4.024e-5
-1.425, 4.024e-5
-1.426, 4.024e-5
-1.427, 4.024e-5
-1.428, 4.024e-5
-1.429, 4.332e-5
-1.430, 4.332e-5
-1.431, 4.332e-5
-1.432, 4.332e-5
-1.433, 4.332e-5
-1.434, 4.332e-5
-1.435, 4.640e-5
-1.436, 4.640e-5
-1.437, 4.640e-5
-1.438, 4.640e-5
-1.439, 4.640e-5
-1.440, 4.949e-5
-1.441, 4.640e-5
-1.442, 4.640e-5
-1.443, 4.949e-5
-1.444, 4.949e-5
-1.445, 4.949e-5
-1.446, 4.949e-5
-1.447, 5.257e-5
-1.448, 5.257e-5
-1.449, 4.949e-5
-1.450, 5.257e-5
-1.451, 5.257e-5
-1.452, 5.257e-5
-1.453, 5.565e-5
-1.454, 5.565e-5
-1.455, 5.565e-5
-1.456, 5.565e-5
-1.457, 5.565e-5
-1.458, 5.873e-5
-1.459, 5.873e-5
-1.460, 5.873e-5
-1.461, 5.873e-5
-1.462, 5.873e-5
-1.463, 6.182e-5
-1.464, 6.182e-5
-1.465, 6.182e-5
-1.466, 6.182e-5
-1.467, 6.182e-5
-1.468, 6.182e-5
-1.469, 6.490e-5
-1.470, 6.490e-5
-1.471, 6.490e-5
-1.472, 6.490e-5
-1.473, 6.490e-5
-1.474, 6.798e-5
-1.475, 6.798e-5
-1.476, 6.798e-5
-1.477, 7.107e-5
-1.478, 6.798e-5
-1.479, 7.107e-5
-1.480, 7.107e-5
-1.481, 7.107e-5
-1.482, 7.107e-5
-1.483, 7.107e-5
-1.484, 7.415e-5
-1.485, 7.415e-5
-1.486, 7.723e-5
-1.487, 7.723e-5
-1.488, 7.723e-5
-1.489, 7.723e-5
-1.490, 7.723e-5
-1.491, 8.032e-5
-1.492, 8.032e-5
-1.493, 8.032e-5
-1.494, 8.032e-5
-1.495, 8.340e-5
-1.496, 8.340e-5
-1.497, 8.340e-5
-1.498, 8.340e-5
-1.499, 8.340e-5
-1.500, 8.648e-5
-1.501, 8.648e-5
-1.502, 8.648e-5
-1.503, 8.957e-5
-1.504, 8.648e-5
-1.505, 8.957e-5
-1.506, 8.957e-5
-1.507, 9.265e-5
-1.508, 9.265e-5
-1.509, 9.265e-5
-1.510, 9.573e-5
-1.511, 9.573e-5
-1.512, 9.882e-5
-1.513, 9.882e-5
-1.514, 9.882e-5
-1.515, 9.882e-5
-1.516, 9.882e-5
-1.517, 1.019e-4
-1.518, 1.019e-4
-1.519, 1.019e-4
-1.520, 1.050e-4
-1.521, 1.050e-4
-1.522, 1.050e-4
-1.523, 1.081e-4
-1.524, 1.081e-4
-1.525, 1.081e-4
-1.526, 1.081e-4
-1.527, 1.081e-4
-1.528, 1.111e-4
-1.529, 1.111e-4
-1.530, 1.111e-4
-1.531, 1.142e-4
-1.532, 1.142e-4
-1.533, 1.173e-4
-1.534, 1.173e-4
-1.535, 1.173e-4
-1.536, 1.173e-4
-1.537, 1.173e-4
-1.538, 1.204e-4
-1.539, 1.204e-4
-1.540, 1.235e-4
-1.541, 1.235e-4
-1.542, 1.266e-4
-1.543, 1.266e-4
-1.544, 1.266e-4
-1.545, 1.296e-4
-1.546, 1.296e-4
-1.547, 1.327e-4
-1.548, 1.327e-4
-1.549, 1.327e-4
-1.550, 1.358e-4
-1.551, 1.358e-4
-1.552, 1.389e-4
-1.553, 1.389e-4
-1.554, 1.389e-4
-1.555, 1.389e-4
-1.556, 1.420e-4
-1.557, 1.451e-4
-1.558, 1.451e-4
-1.559, 1.481e-4
-1.560, 1.451e-4
-1.561, 1.481e-4
-1.562, 1.481e-4
-1.563, 1.512e-4
-1.564, 1.512e-4
-1.565, 1.543e-4
-1.566, 1.574e-4
-1.567, 1.543e-4
-1.568, 1.574e-4
-1.569, 1.574e-4
-1.570, 1.605e-4
-1.571, 1.636e-4
-1.572, 1.605e-4
-1.573, 1.666e-4
-1.574, 1.636e-4
-1.575, 1.666e-4
-1.576, 1.666e-4
-1.577, 1.697e-4
-1.578, 1.728e-4
-1.579, 1.728e-4
-1.580, 1.728e-4
-1.581, 1.728e-4
-1.582, 1.759e-4
-1.583, 1.759e-4
-1.584, 1.759e-4
-1.585, 1.790e-4
-1.586, 1.821e-4
-1.587, 1.821e-4
-1.588, 1.821e-4
-1.589, 1.851e-4
-1.590, 1.913e-4
-1.591, 1.913e-4
-1.592, 1.882e-4
-1.593, 1.944e-4
-1.594, 1.975e-4
-1.595, 1.944e-4
-1.596, 1.975e-4
-1.597, 2.006e-4
-1.598, 2.036e-4
-1.599, 2.006e-4
-1.600, 2.006e-4
-1.601, 2.036e-4
-1.602, 2.067e-4
-1.603, 2.067e-4
-1.604, 2.098e-4
-1.605, 2.129e-4
-1.606, 2.129e-4
-1.607, 2.160e-4
-1.608, 2.129e-4
-1.609, 2.160e-4
-1.610, 2.191e-4
-1.611, 2.191e-4
-1.612, 2.252e-4
-1.613, 2.221e-4
-1.614, 2.252e-4
-1.615, 2.252e-4
-1.616, 2.283e-4
-1.617, 2.376e-4
-1.618, 2.252e-4
-1.619, 2.345e-4
-1.620, 2.314e-4
-1.621, 2.406e-4
-1.622, 2.376e-4
-1.623, 2.376e-4
-1.624, 2.437e-4
-1.625, 2.468e-4
-1.626, 2.499e-4
-1.627, 2.468e-4
-1.628, 2.530e-4
-1.629, 2.530e-4
-1.630, 2.591e-4
-1.631, 2.591e-4
-1.632, 2.561e-4
-1.633, 2.622e-4
-1.634, 2.591e-4
-1.635, 2.746e-4
-1.636, 2.684e-4
-1.637, 2.653e-4
-1.638, 2.715e-4
-1.639, 2.715e-4
-1.640, 2.776e-4
-1.641, 2.746e-4
-1.642, 2.776e-4
-1.643, 2.807e-4
-1.644, 2.869e-4
-1.645, 2.931e-4
-1.646, 2.931e-4
-1.647, 2.900e-4
-1.648, 2.931e-4
-1.649, 2.961e-4
-1.650, 3.023e-4
-1.651, 3.023e-4
-1.652, 3.023e-4
-1.653, 3.054e-4
-1.654, 3.115e-4
-1.655, 3.177e-4
-1.656, 3.146e-4
-1.657, 3.146e-4
-1.658, 3.177e-4
-1.659, 3.208e-4
-1.660, 3.239e-4
-1.661, 3.270e-4
-1.662, 3.270e-4
-1.663, 3.300e-4
-1.664, 3.393e-4
-1.665, 3.362e-4
-1.666, 3.393e-4
-1.667, 3.424e-4
-1.668, 3.485e-4
-1.669, 3.516e-4
-1.670, 3.516e-4
-1.671, 3.578e-4
-1.672, 3.578e-4
-1.673, 3.640e-4
-1.674, 3.640e-4
-1.675, 3.609e-4
-1.676, 3.670e-4
-1.677, 3.701e-4
-1.678, 3.763e-4
-1.679, 3.732e-4
-1.680, 3.825e-4
-1.681, 3.855e-4
-1.682, 3.917e-4
-1.683, 3.886e-4
-1.684, 3.979e-4
-1.685, 4.010e-4
-1.686, 4.102e-4
-1.687, 4.102e-4
-1.688, 4.071e-4
-1.689, 4.133e-4
-1.690, 4.164e-4
-1.691, 4.225e-4
-1.692, 4.195e-4
-1.693, 4.195e-4
-1.694, 4.287e-4
-1.695, 4.318e-4
-1.696, 4.256e-4
-1.697, 4.410e-4
-1.698, 4.472e-4
-1.699, 4.503e-4
-1.700, 4.595e-4
-1.701, 4.657e-4
-1.702, 4.595e-4
-1.703, 4.657e-4
-1.704, 4.657e-4
-1.705, 4.657e-4
-1.706, 4.750e-4
-1.707, 4.780e-4
-1.708, 4.750e-4
-1.709, 4.935e-4
-1.710, 4.935e-4
-1.711, 5.058e-4
-1.712, 5.120e-4
-1.713, 5.120e-4
-1.714, 5.150e-4
-1.715, 5.366e-4
-1.716, 5.305e-4
-1.717, 5.335e-4
-1.718, 5.489e-4
-1.719, 5.397e-4
-1.720, 5.520e-4
-1.721, 5.551e-4
-1.722, 5.613e-4
-1.723, 5.674e-4
-1.724, 5.767e-4
-1.725, 5.674e-4
-1.726, 5.859e-4
-1.727, 5.890e-4
-1.728, 5.983e-4
-1.729, 6.014e-4
-1.730, 6.014e-4
-1.731, 5.983e-4
-1.732, 6.168e-4
-1.733, 6.199e-4
-1.734, 6.291e-4
-1.735, 6.322e-4
-1.736, 6.322e-4
-1.737, 6.414e-4
-1.738, 6.507e-4
-1.739, 6.507e-4
-1.740, 6.661e-4
-1.741, 6.784e-4
-1.742, 6.754e-4
-1.743, 6.939e-4
-1.744, 6.877e-4
-1.745, 7.031e-4
-1.746, 7.031e-4
-1.747, 7.124e-4
-1.748, 7.093e-4
-1.749, 7.278e-4
-1.750, 7.339e-4
-1.751, 7.494e-4
-1.752, 7.401e-4
-1.753, 7.648e-4
-1.754, 7.740e-4
-1.755, 7.740e-4
-1.756, 7.833e-4
-1.757, 7.925e-4
-1.758, 7.925e-4
-1.759, 8.079e-4
-1.760, 8.048e-4
-1.761, 8.172e-4
-1.762, 8.203e-4
-1.763, 8.449e-4
-1.764, 8.449e-4
-1.765, 8.542e-4
-1.766, 8.696e-4
-1.767, 8.819e-4
-1.768, 8.788e-4
-1.769, 8.943e-4
-1.770, 9.004e-4
-1.771, 9.035e-4
-1.772, 9.251e-4
-1.773, 9.405e-4
-1.774, 9.405e-4
-1.775, 9.436e-4
-1.776, 9.621e-4
-1.777, 9.652e-4
-1.778, 9.775e-4
-1.779, 9.960e-4
-1.780, 1.005e-3
-1.781, 1.011e-3
-1.782, 1.033e-3
-1.783, 1.039e-3
-1.784, 1.039e-3
-1.785, 1.042e-3
-1.786, 1.061e-3
-1.787, 1.067e-3
-1.788, 1.088e-3
-1.789, 1.101e-3
-1.790, 1.107e-3
-1.791, 1.132e-3
-1.792, 1.138e-3
-1.793, 1.166e-3
-1.794, 1.172e-3
-1.795, 1.187e-3
-1.796, 1.187e-3
-1.797, 1.199e-3
-1.798, 1.224e-3
-1.799, 1.233e-3
-1.800, 1.243e-3
-1.801, 1.261e-3
-1.802, 1.280e-3
-1.803, 1.273e-3
-1.804, 1.314e-3
-1.805, 1.310e-3
-1.806, 1.341e-3
-1.807, 1.372e-3
-1.808, 1.363e-3
-1.809, 1.400e-3
-1.810, 1.409e-3
-1.811, 1.409e-3
-1.812, 1.425e-3
-1.813, 1.449e-3
-1.814, 1.465e-3
-1.815, 1.495e-3
-1.816, 1.508e-3
-1.817, 1.529e-3
-1.818, 1.548e-3
-1.819, 1.560e-3
-1.820, 1.579e-3
-1.821, 1.597e-3
-1.822, 1.616e-3
-1.823, 1.647e-3
-1.824, 1.656e-3
-1.825, 1.687e-3
-1.826, 1.696e-3
-1.827, 1.711e-3
-1.828, 1.736e-3
-1.829, 1.748e-3
-1.830, 1.767e-3
-1.831, 1.807e-3
-1.832, 1.810e-3
-1.833, 1.847e-3
-1.834, 1.859e-3
-1.835, 1.893e-3
-1.836, 1.902e-3
-1.837, 1.933e-3
-1.838, 1.967e-3
-1.839, 1.980e-3
-1.840, 2.023e-3
-1.841, 2.044e-3
-1.842, 2.050e-3
-1.843, 2.078e-3
-1.844, 2.109e-3
-1.845, 2.146e-3
-1.846, 2.174e-3
-1.847, 2.208e-3
-1.848, 2.189e-3
-1.849, 2.245e-3
-1.850, 2.260e-3
-1.851, 2.291e-3
-1.852, 2.340e-3
-1.853, 2.356e-3
-1.854, 2.402e-3
-1.855, 2.414e-3
-1.856, 2.457e-3
-1.857, 2.485e-3
-1.858, 2.525e-3
-1.859, 2.562e-3
-1.860, 2.584e-3
-1.861, 2.621e-3
-1.862, 2.633e-3
-1.863, 2.682e-3
-1.864, 2.713e-3
-1.865, 2.760e-3
-1.866, 2.778e-3
-1.867, 2.818e-3
-1.868, 2.840e-3
-1.869, 2.877e-3
-1.870, 2.904e-3
-1.871, 2.960e-3
-1.872, 2.975e-3
-1.873, 3.031e-3
-1.874, 3.043e-3
-1.875, 3.077e-3
-1.876, 3.126e-3
-1.877, 3.163e-3
-1.878, 3.197e-3
-1.879, 3.234e-3
-1.880, 3.268e-3
-1.881, 3.305e-3
-1.882, 3.336e-3
-1.883, 3.392e-3
-1.884, 3.425e-3
-1.885, 3.459e-3
-1.886, 3.515e-3
-1.887, 3.558e-3
-1.888, 3.598e-3
-1.889, 3.657e-3
-1.890, 3.691e-3
-1.891, 3.731e-3
-1.892, 3.786e-3
-1.893, 3.817e-3
-1.894, 3.869e-3
-1.895, 3.910e-3
-1.896, 3.947e-3
-1.897, 3.990e-3
-1.898, 4.051e-3
-1.899, 4.082e-3
-1.900, 4.122e-3
-1.899, 4.088e-3
-1.898, 4.076e-3
-1.897, 4.058e-3
-1.896, 4.045e-3
-1.895, 4.017e-3
-1.894, 3.990e-3
-1.893, 3.977e-3
-1.892, 3.950e-3
-1.891, 3.922e-3
-1.890, 3.925e-3
-1.889, 3.897e-3
-1.888, 3.860e-3
-1.887, 3.839e-3
-1.886, 3.817e-3
-1.885, 3.805e-3
-1.884, 3.768e-3
-1.883, 3.749e-3
-1.882, 3.715e-3
-1.881, 3.694e-3
-1.880, 3.672e-3
-1.879, 3.638e-3
-1.878, 3.614e-3
-1.877, 3.589e-3
-1.876, 3.564e-3
-1.875, 3.540e-3
-1.874, 3.506e-3
-1.873, 3.475e-3
-1.872, 3.438e-3
-1.871, 3.416e-3
-1.870, 3.404e-3
-1.869, 3.392e-3
-1.868, 3.342e-3
-1.867, 3.321e-3
-1.866, 3.296e-3
-1.865, 3.278e-3
-1.864, 3.265e-3
-1.863, 3.219e-3
-1.862, 3.200e-3
-1.861, 3.160e-3
-1.860, 3.139e-3
-1.859, 3.117e-3
-1.858, 3.108e-3
-1.857, 3.052e-3
-1.856, 3.031e-3
-1.855, 3.003e-3
-1.854, 2.966e-3
-1.853, 2.963e-3
-1.852, 2.929e-3
-1.851, 2.908e-3
-1.850, 2.880e-3
-1.849, 2.864e-3
-1.848, 2.830e-3
-1.847, 2.812e-3
-1.846, 2.787e-3
-1.845, 2.760e-3
-1.844, 2.729e-3
-1.843, 2.707e-3
-1.842, 2.679e-3
-1.841, 2.667e-3
-1.840, 2.661e-3
-1.839, 2.618e-3
-1.838, 2.596e-3
-1.837, 2.571e-3
-1.836, 2.534e-3
-1.835, 2.519e-3
-1.834, 2.494e-3
-1.833, 2.470e-3
-1.832, 2.436e-3
-1.831, 2.420e-3
-1.830, 2.396e-3
-1.829, 2.374e-3
-1.828, 2.353e-3
-1.827, 2.325e-3
-1.826, 2.312e-3
-1.825, 2.285e-3
-1.824, 2.260e-3
-1.823, 2.238e-3
-1.822, 2.217e-3
-1.821, 2.198e-3
-1.820, 2.168e-3
-1.819, 2.161e-3
-1.818, 2.143e-3
-1.817, 2.118e-3
-1.816, 2.109e-3
-1.815, 2.091e-3
-1.814, 2.054e-3
-1.813, 2.023e-3
-1.812, 2.010e-3
-1.811, 1.986e-3
-1.810, 1.967e-3
-1.809, 1.952e-3
-1.808, 1.943e-3
-1.807, 1.921e-3
-1.806, 1.896e-3
-1.805, 1.884e-3
-1.804, 1.859e-3
-1.803, 1.847e-3
-1.802, 1.832e-3
-1.801, 1.810e-3
-1.800, 1.791e-3
-1.799, 1.764e-3
-1.798, 1.751e-3
-1.797, 1.730e-3
-1.796, 1.714e-3
-1.795, 1.687e-3
-1.794, 1.671e-3
-1.793, 1.662e-3
-1.792, 1.643e-3
-1.791, 1.616e-3
-1.790, 1.610e-3
-1.789, 1.588e-3
-1.788, 1.557e-3
-1.787, 1.548e-3
-1.786, 1.539e-3
-1.785, 1.523e-3
-1.784, 1.511e-3
-1.783, 1.489e-3
-1.782, 1.480e-3
-1.781, 1.465e-3
-1.780, 1.443e-3
-1.779, 1.434e-3
-1.778, 1.412e-3
-1.777, 1.409e-3
-1.776, 1.400e-3
-1.775, 1.381e-3
-1.774, 1.354e-3
-1.773, 1.347e-3
-1.772, 1.338e-3
-1.771, 1.304e-3
-1.770, 1.304e-3
-1.769, 1.283e-3
-1.768, 1.270e-3
-1.767, 1.264e-3
-1.766, 1.255e-3
-1.765, 1.230e-3
-1.764, 1.221e-3
-1.763, 1.212e-3
-1.762, 1.203e-3
-1.761, 1.184e-3
-1.760, 1.175e-3
-1.759, 1.159e-3
-1.758, 1.156e-3
-1.757, 1.135e-3
-1.756, 1.119e-3
-1.755, 1.110e-3
-1.754, 1.098e-3
-1.753, 1.088e-3
-1.752, 1.076e-3
-1.751, 1.058e-3
-1.750, 1.051e-3
-1.749, 1.045e-3
-1.748, 1.033e-3
-1.747, 1.014e-3
-1.746, 1.014e-3
-1.745, 9.960e-4
-1.744, 9.775e-4
-1.743, 9.744e-4
-1.742, 9.683e-4
-1.741, 9.467e-4
-1.740, 9.374e-4
-1.739, 9.282e-4
-1.738, 9.251e-4
-1.737, 9.128e-4
-1.736, 9.066e-4
-1.735, 8.912e-4
-1.734, 8.788e-4
-1.733, 8.788e-4
-1.732, 8.603e-4
-1.731, 8.542e-4
-1.730, 8.511e-4
-1.729, 8.295e-4
-1.728, 8.203e-4
-1.727, 8.079e-4
-1.726, 8.079e-4
-1.725, 7.987e-4
-1.724, 7.956e-4
-1.723, 7.802e-4
-1.722, 7.648e-4
-1.721, 7.679e-4
-1.720, 7.555e-4
-1.719, 7.309e-4
-1.718, 7.339e-4
-1.717, 7.339e-4
-1.716, 7.185e-4
-1.715, 7.185e-4
-1.714, 7.062e-4
-1.713, 7.031e-4
-1.712, 6.939e-4
-1.711, 6.846e-4
-1.710, 6.754e-4
-1.709, 6.569e-4
-1.708, 6.661e-4
-1.707, 6.507e-4
-1.706, 6.445e-4
-1.705, 6.322e-4
-1.704, 6.414e-4
-1.703, 6.260e-4
-1.702, 6.168e-4
-1.701, 6.199e-4
-1.700, 6.106e-4
-1.699, 5.983e-4
-1.698, 5.983e-4
-1.697, 6.014e-4
-1.696, 5.767e-4
-1.695, 5.767e-4
-1.694, 5.705e-4
-1.693, 5.582e-4
-1.692, 5.582e-4
-1.691, 5.551e-4
-1.690, 5.366e-4
-1.689, 5.305e-4
-1.688, 5.335e-4
-1.687, 5.243e-4
-1.686, 5.120e-4
-1.685, 5.120e-4
-1.684, 5.089e-4
-1.683, 4.996e-4
-1.682, 4.904e-4
-1.681, 4.842e-4
-1.680, 4.811e-4
-1.679, 4.688e-4
-1.678, 4.750e-4
-1.677, 4.626e-4
-1.676, 4.534e-4
-1.675, 4.503e-4
-1.674, 4.472e-4
-1.673, 4.472e-4
-1.672, 4.380e-4
-1.671, 4.256e-4
-1.670, 4.318e-4
-1.669, 4.256e-4
-1.668, 4.287e-4
-1.667, 4.071e-4
-1.666, 4.133e-4
-1.665, 4.071e-4
-1.664, 3.948e-4
-1.663, 4.010e-4
-1.662, 3.917e-4
-1.661, 3.825e-4
-1.660, 3.794e-4
-1.659, 3.763e-4
-1.658, 3.794e-4
-1.657, 3.701e-4
-1.656, 3.547e-4
-1.655, 3.609e-4
-1.654, 3.640e-4
-1.653, 3.547e-4
-1.652, 3.485e-4
-1.651, 3.424e-4
-1.650, 3.424e-4
-1.649, 3.424e-4
-1.648, 3.270e-4
-1.647, 3.331e-4
-1.646, 3.300e-4
-1.645, 3.208e-4
-1.644, 3.115e-4
-1.643, 3.177e-4
-1.642, 3.054e-4
-1.641, 3.023e-4
-1.640, 3.054e-4
-1.639, 3.054e-4
-1.638, 2.992e-4
-1.637, 2.931e-4
-1.636, 2.807e-4
-1.635, 2.869e-4
-1.634, 2.807e-4
-1.633, 2.776e-4
-1.632, 2.653e-4
-1.631, 2.715e-4
-1.630, 2.746e-4
-1.629, 2.591e-4
-1.628, 2.561e-4
-1.627, 2.653e-4
-1.626, 2.622e-4
-1.625, 2.561e-4
-1.624, 2.437e-4
-1.623, 2.530e-4
-1.622, 2.468e-4
-1.621, 2.406e-4
-1.620, 2.345e-4
-1.619, 2.406e-4
-1.618, 2.314e-4
-1.617, 2.252e-4
-1.616, 2.191e-4
-1.615, 2.283e-4
-1.614, 2.221e-4
-1.613, 2.129e-4
-1.612, 2.036e-4
-1.611, 2.160e-4
-1.610, 2.098e-4
-1.609, 2.036e-4
-1.608, 1.975e-4
-1.607, 2.098e-4
-1.606, 1.975e-4
-1.605, 1.975e-4
-1.604, 1.944e-4
-1.603, 1.882e-4
-1.602, 1.944e-4
-1.601, 1.882e-4
-1.600, 1.821e-4
-1.599, 1.790e-4
-1.598, 1.851e-4
-1.597, 1.790e-4
-1.596, 1.728e-4
-1.595, 1.666e-4
-1.594, 1.759e-4
-1.593, 1.697e-4
-1.592, 1.666e-4
-1.591, 1.605e-4
-1.590, 1.574e-4
-1.589, 1.636e-4
-1.588, 1.605e-4
-1.587, 1.512e-4
-1.586, 1.451e-4
-1.585, 1.451e-4
-1.584, 1.451e-4
-1.583, 1.512e-4
-1.582, 1.451e-4
-1.581, 1.389e-4
-1.580, 1.327e-4
-1.579, 1.358e-4
-1.578, 1.389e-4
-1.577, 1.358e-4
-1.576, 1.327e-4
-1.575, 1.266e-4
-1.574, 1.266e-4
-1.573, 1.296e-4
-1.572, 1.266e-4
-1.571, 1.235e-4
-1.570, 1.204e-4
-1.569, 1.173e-4
-1.568, 1.204e-4
-1.567, 1.173e-4
-1.566, 1.142e-4
-1.565, 1.142e-4
-1.564, 1.142e-4
-1.563, 1.111e-4
-1.562, 1.081e-4
-1.561, 1.019e-4
-1.560, 1.050e-4
-1.559, 1.050e-4
-1.558, 1.050e-4
-1.557, 1.019e-4
-1.556, 9.882e-5
-1.555, 9.882e-5
-1.554, 9.573e-5
-1.553, 9.573e-5
-1.552, 9.265e-5
-1.551, 8.957e-5
-1.550, 9.265e-5
-1.549, 8.957e-5
-1.548, 8.648e-5
-1.547, 8.340e-5
-1.546, 8.340e-5
-1.545, 8.340e-5
-1.544, 8.032e-5
-1.543, 8.340e-5
-1.542, 7.723e-5
-1.541, 7.723e-5
-1.540, 7.415e-5
-1.539, 7.415e-5
-1.538, 7.415e-5
-1.537, 7.107e-5
-1.536, 7.107e-5
-1.535, 6.798e-5
-1.534, 6.798e-5
-1.533, 6.798e-5
-1.532, 6.490e-5
-1.531, 6.490e-5
-1.530, 6.490e-5
-1.529, 6.182e-5
-1.528, 6.182e-5
-1.527, 6.490e-5
-1.526, 6.182e-5
-1.525, 5.873e-5
-1.524, 5.565e-5
-1.523, 5.565e-5
-1.522, 5.565e-5
-1.521, 5.257e-5
-1.520, 5.565e-5
-1.519, 5.565e-5
-1.518, 5.565e-5
-1.517, 5.257e-5
-1.516, 4.949e-5
-1.515, 4.949e-5
-1.514, 4.949e-5
-1.513, 4.640e-5
-1.512, 4.640e-5
-1.511, 4.640e-5
-1.510, 4.332e-5
-1.509, 4.332e-5
-1.508, 4.640e-5
-1.507, 4.640e-5
-1.506, 4.332e-5
-1.505, 4.024e-5
-1.504, 4.024e-5
-1.503, 4.024e-5
-1.502, 3.715e-5
-1.501, 3.715e-5
-1.500, 3.715e-5
-1.499, 3.715e-5
-1.498, 3.715e-5
-1.497, 3.715e-5
-1.496, 3.407e-5
-1.495, 3.099e-5
-1.494, 3.099e-5
-1.493, 3.099e-5
-1.492, 3.099e-5
-1.491, 3.099e-5
-1.490, 3.099e-5
-1.489, 3.099e-5
-1.488, 2.790e-5
-1.487, 2.790e-5
-1.486, 3.099e-5
-1.485, 2.790e-5
-1.484, 2.790e-5
-1.483, 2.790e-5
-1.482, 2.482e-5
-1.481, 2.482e-5
-1.480, 2.482e-5
-1.479, 2.482e-5
-1.478, 2.482e-5
-1.477, 2.174e-5
-1.476, 2.482e-5
-1.475, 2.174e-5
-1.474, 2.482e-5
-1.473, 1.865e-5
-1.472, 1.865e-5
-1.471, 1.865e-5
-1.470, 1.865e-5
-1.469, 1.865e-5
-1.468, 1.865e-5
-1.467, 1.865e-5
-1.466, 1.865e-5
-1.465, 1.865e-5
-1.464, 1.557e-5
-1.463, 1.557e-5
-1.462, 1.557e-5
-1.461, 1.557e-5
-1.460, 1.557e-5
-1.459, 1.557e-5
-1.458, 1.557e-5
-1.457, 1.249e-5
-1.456, 1.249e-5
-1.455, 1.249e-5
-1.454, 1.249e-5
-1.453, 1.249e-5
-1.452, 1.249e-5
-1.451, 1.249e-5
-1.450, 1.249e-5
-1.449, 1.249e-5
-1.448, 1.249e-5
-1.447, 1.249e-5
-1.446, 1.249e-5
-1.445, 9.405e-6
-1.444, 9.405e-6
-1.443, 9.405e-6
-1.442, 9.405e-6
-1.441, 9.405e-6
-1.440, 6.322e-6
-1.439, 9.405e-6
-1.438, 6.322e-6
-1.437, 9.405e-6
-1.436, 6.322e-6
-1.435, 6.322e-6
-1.434, 6.322e-6
-1.433, 6.322e-6
-1.432, 6.322e-6
-1.431, 6.322e-6
-1.430, 6.322e-6
-1.429, 6.322e-6
-1.428, 6.322e-6
-1.427, 6.322e-6
-1.426, 3.239e-6
-1.425, 3.239e-6
-1.424, 3.239e-6
-1.423, 3.239e-6
-1.422, 3.239e-6
-1.421, 3.239e-6
-1.420, 3.239e-6
-1.419, 3.239e-6
-1.418, 3.239e-6
-1.417, 3.239e-6
-1.416, 3.239e-6
-1.415, 3.239e-6
-1.414, 3.239e-6
-1.413, 3.239e-6
-1.412, 3.239e-6
-1.411, 3.239e-6
-1.410, 1.559e-7
-1.409, 3.239e-6
-1.408, 1.559e-7
-1.407, 1.559e-7
-1.406, 1.559e-7
-1.405, 1.559e-7
-1.404, 1.559e-7
-1.403, 1.559e-7
-1.402, 1.559e-7
-1.401, 1.559e-7
-1.400, 1.559e-7
-1.399, 1.559e-7
-1.398, 1.559e-7
-1.397, 1.559e-7
-1.396, 1.559e-7
-1.395, 1.559e-7
-1.394, 1.559e-7
-1.393, 1.559e-7
-1.392, 1.559e-7
-1.391, 1.559e-7
-1.390, 1.559e-7
-1.389, 1.559e-7
-1.388, 1.559e-7
-1.387, 1.559e-7
-1.386, -2.927e-6
-1.385, 1.559e-7
-1.384, 1.559e-7
-1.383, -2.927e-6
-1.382, -2.927e-6
-1.381, 1.559e-7
-1.380, -2.927e-6
-1.379, -2.927e-6
-1.378, -2.927e-6
-1.377, -2.927e-6
-1.376, -2.927e-6
-1.375, -2.927e-6
-1.374, -2.927e-6
-1.373, -2.927e-6
-1.372, -2.927e-6
-1.371, -2.927e-6
-1.370, -2.927e-6
-1.369, -2.927e-6
-1.368, -2.927e-6
-1.367, -2.927e-6
-1.366, -2.927e-6
-1.365, -2.927e-6
-1.364, -2.927e-6
-1.363, -2.927e-6
-1.362, -2.927e-6
-1.361, -2.927e-6
-1.360, -2.927e-6
-1.359, -2.927e-6
-1.358, -2.927e-6
-1.357, -2.927e-6
-1.356, -2.927e-6
-1.355, -2.927e-6
-1.354, -2.927e-6
-1.353, -2.927e-6
-1.352, -2.927e-6
-1.351, -2.927e-6
-1.350, -2.927e-6
-1.349, -2.927e-6
-1.348, -6.010e-6
-1.347, -2.927e-6
-1.346, -2.927e-6
-1.345, -6.010e-6
-1.344, -2.927e-6
-1.343, -2.927e-6
-1.342, -6.010e-6
-1.341, -6.010e-6
-1.340, -6.010e-6
-1.339, -2.927e-6
-1.338, -6.010e-6
-1.337, -2.927e-6
-1.336, -6.010e-6
-1.335, -6.010e-6
-1.334, -6.010e-6
-1.333, -6.010e-6
-1.332, -2.927e-6
-1.331, -2.927e-6
-1.330, -6.010e-6
-1.329, -6.010e-6
-1.328, -6.010e-6
-1.327, -6.010e-6
-1.326, -6.010e-6
-1.325, -2.927e-6
-1.324, -2.927e-6
-1.323, -6.010e-6
-1.322, -6.010e-6
-1.321, -6.010e-6
-1.320, -6.010e-6
-1.319, -6.010e-6
-1.318, -6.010e-6
-1.317, -2.927e-6
-1.316, -6.010e-6
-1.315, -6.010e-6
-1.314, -6.010e-6
-1.313, -6.010e-6
-1.312, -6.010e-6
-1.311, -6.010e-6
-1.310, -6.010e-6
-1.309, -6.010e-6
-1.308, -6.010e-6
-1.307, -6.010e-6
-1.306, -6.010e-6
-1.305, -6.010e-6
-1.304, -6.010e-6
-1.303, -6.010e-6
-1.302, -6.010e-6
-1.301, -6.010e-6
-1.300, -6.010e-6
-1.299, -6.010e-6
-1.298, -6.010e-6
-1.297, -6.010e-6
-1.296, -6.010e-6
-1.295, -6.010e-6
-1.294, -6.010e-6
-1.293, -6.010e-6
-1.292, -6.010e-6
-1.291, -6.010e-6
-1.290, -6.010e-6
-1.289, -6.010e-6
-1.288, -6.010e-6
-1.287, -6.010e-6
-1.286, -6.010e-6
-1.285, -6.010e-6
-1.284, -6.010e-6
-1.283, -6.010e-6
-1.282, -6.010e-6
-1.281, -6.010e-6
-1.280, -6.010e-6
-1.279, -6.010e-6
-1.278, -6.010e-6
-1.277, -6.010e-6
-1.276, -6.010e-6
-1.275, -6.010e-6
-1.274, -6.010e-6
-1.273, -6.010e-6
-1.272, -6.010e-6
-1.271, -6.010e-6
-1.270, -6.010e-6
-1.269, -6.010e-6
-1.268, -6.010e-6
-1.267, -6.010e-6
-1.266, -6.010e-6
-1.265, -6.010e-6
-1.264, -6.010e-6
-1.263, -6.010e-6
-1.262, -6.010e-6
-1.261, -6.010e-6
-1.260, -6.010e-6
-1.259, -6.010e-6
-1.258, -6.010e-6
-1.257, -6.010e-6
-1.256, -6.010e-6
-1.255, -6.010e-6
-1.254, -6.010e-6
-1.253, -6.010e-6
-1.252, -6.010e-6
-1.251, -6.010e-6
-1.250, -6.010e-6
-1.249, -6.010e-6
-1.248, -6.010e-6
-1.247, -6.010e-6
-1.246, -6.010e-6
-1.245, -6.010e-6
-1.244, -6.010e-6
-1.243, -6.010e-6
-1.242, -6.010e-6
-1.241, -6.010e-6
-1.240, -6.010e-6
-1.239, -6.010e-6
-1.238, -6.010e-6
-1.237, -6.010e-6
-1.236, -6.010e-6
-1.235, -6.010e-6
-1.234, -6.010e-6
-1.233, -6.010e-6
-1.232, -6.010e-6
-1.231, -6.010e-6
-1.230, -6.010e-6
-1.229, -6.010e-6
-1.228, -6.010e-6
-1.227, -6.010e-6
-1.226, -6.010e-6
-1.225, -6.010e-6
-1.224, -6.010e-6
-1.223, -6.010e-6
-1.222, -6.010e-6
-1.221, -6.010e-6
-1.220, -6.010e-6
-1.219, -6.010e-6
-1.218, -6.010e-6
-1.217, -6.010e-6
-1.216, -6.010e-6
-1.215, -6.010e-6
-1.214, -6.010e-6
-1.213, -6.010e-6
-1.212, -6.010e-6
-1.211, -6.010e-6
-1.210, -6.010e-6
-1.209, -6.010e-6
-1.208, -6.010e-6
-1.207, -6.010e-6
-1.206, -6.010e-6
-1.205, -6.010e-6
-1.204, -6.010e-6
-1.203, -9.093e-6
-1.202, -6.010e-6
-1.201, -6.010e-6
-1.200, -6.010e-6
-1.199, -6.010e-6
-1.198, -9.093e-6
-1.197, -6.010e-6
-1.196, -9.093e-6
-1.195, -6.010e-6
-1.194, -6.010e-6
-1.193, -6.010e-6
-1.192, -6.010e-6
-1.191, -6.010e-6
-1.190, -6.010e-6
-1.189, -9.093e-6
-1.188, -6.010e-6
-1.187, -9.093e-6
-1.186, -9.093e-6
-1.185, -6.010e-6
-1.184, -9.093e-6
-1.183, -6.010e-6
-1.182, -6.010e-6
-1.181, -6.010e-6
-1.180, -6.010e-6
-1.179, -9.093e-6
-1.178, -6.010e-6
-1.177, -9.093e-6
-1.176, -9.093e-6
-1.175, -6.010e-6
-1.174, -6.010e-6
-1.173, -9.093e-6
-1.172, -9.093e-6
-1.171, -9.093e-6
-1.170, -9.093e-6
-1.169, -6.010e-6
-1.168, -9.093e-6
-1.167, -6.010e-6
-1.166, -9.093e-6
-1.165, -9.093e-6
-1.164, -6.010e-6
-1.163, -9.093e-6
-1.162, -6.010e-6
-1.161, -9.093e-6
-1.160, -6.010e-6
-1.159, -6.010e-6
-1.158, -9.093e-6
-1.157, -9.093e-6
-1.156, -9.093e-6
-1.155, -6.010e-6
-1.154, -6.010e-6
-1.153, -9.093e-6
-1.152, -9.093e-6
-1.151, -9.093e-6
-1.150, -9.093e-6
-1.149, -9.093e-6
-1.148, -9.093e-6
-1.147, -9.093e-6
-1.146, -9.093e-6
-1.145, -9.093e-6
-1.144, -6.010e-6
-1.143, -9.093e-6
-1.142, -9.093e-6
-1.141, -9.093e-6
-1.140, -9.093e-6
-1.139, -6.010e-6
-1.138, -6.010e-6
-1.137, -9.093e-6
-1.136, -6.010e-6
-1.135, -9.093e-6
-1.134, -9.093e-6
-1.133, -9.093e-6
-1.132, -6.010e-6
-1.131, -9.093e-6
-1.130, -9.093e-6
-1.129, -9.093e-6
-1.128, -9.093e-6
-1.127, -6.010e-6
-1.126, -9.093e-6
-1.125, -9.093e-6
-1.124, -9.093e-6
-1.123, -6.010e-6
-1.122, -9.093e-6
-1.121, -9.093e-6
-1.120, -9.093e-6
-1.119, -9.093e-6
-1.118, -6.010e-6
-1.117, -9.093e-6
-1.116, -9.093e-6
-1.115, -6.010e-6
-1.114, -9.093e-6
-1.113, -9.093e-6
-1.112, -9.093e-6
-1.111, -9.093e-6
-1.110, -9.093e-6
-1.109, -9.093e-6
-1.108, -9.093e-6
-1.107, -9.093e-6
-1.106, -9.093e-6
-1.105, -9.093e-6
-1.104, -9.093e-6
-1.103, -9.093e-6
-1.102, -9.093e-6
-1.101, -9.093e-6
-1.100, -9.093e-6
-1.099, -9.093e-6
-1.098, -9.093e-6
-1.097, -9.093e-6
-1.096, -9.093e-6
-1.095, -9.093e-6
-1.094, -9.093e-6
-1.093, -9.093e-6
-1.092, -9.093e-6
-1.091, -9.093e-6
-1.090, -9.093e-6
-1.089, -9.093e-6
-1.088, -9.093e-6
-1.087, -9.093e-6
-1.086, -9.093e-6
-1.085, -9.093e-6
-1.084, -9.093e-6
-1.083, -9.093e-6
-1.082, -9.093e-6
-1.081, -9.093e-6
-1.080, -9.093e-6
-1.079, -9.093e-6
-1.078, -9.093e-6
-1.077, -9.093e-6
-1.076, -9.093e-6
-1.075, -9.093e-6
-1.074, -9.093e-6
-1.073, -9.093e-6
-1.072, -9.093e-6
-1.071, -9.093e-6
-1.070, -9.093e-6
-1.069, -9.093e-6
-1.068, -9.093e-6
-1.067, -9.093e-6
-1.066, -9.093e-6
-1.065, -9.093e-6
-1.064, -9.093e-6
-1.063, -9.093e-6
-1.062, -9.093e-6
-1.061, -9.093e-6
-1.060, -9.093e-6
-1.059, -9.093e-6
-1.058, -9.093e-6
-1.057, -9.093e-6
-1.056, -9.093e-6
-1.055, -9.093e-6
-1.054, -9.093e-6
-1.053, -9.093e-6
-1.052, -9.093e-6
-1.051, -9.093e-6
-1.050, -9.093e-6
-1.049, -9.093e-6
-1.048, -9.093e-6
-1.047, -9.093e-6
-1.046, -9.093e-6
-1.045, -1.218e-5
-1.044, -9.093e-6
-1.043, -9.093e-6
-1.042, -9.093e-6
-1.041, -1.218e-5
-1.040, -9.093e-6
-1.039, -9.093e-6
-1.038, -1.218e-5
-1.037, -9.093e-6
-1.036, -1.218e-5
-1.035, -1.218e-5
-1.034, -9.093e-6
-1.033, -1.218e-5
-1.032, -9.093e-6
-1.031, -1.218e-5
-1.030, -9.093e-6
-1.029, -9.093e-6
-1.028, -1.218e-5
-1.027, -9.093e-6
-1.026, -1.218e-5
-1.025, -9.093e-6
-1.024, -1.218e-5
-1.023, -1.218e-5
-1.022, -1.218e-5
-1.021, -1.218e-5
-1.020, -1.218e-5
-1.019, -1.218e-5
-1.018, -9.093e-6
-1.017, -1.218e-5
-1.016, -9.093e-6
-1.015, -1.218e-5
-1.014, -1.218e-5
-1.013, -1.218e-5
-1.012, -1.218e-5
-1.011, -1.218e-5
-1.010, -1.218e-5
-1.009, -9.093e-6
-1.008, -1.218e-5
-1.007, -1.218e-5
-1.006, -1.218e-5
-1.005, -1.218e-5
-1.004, -1.218e-5
-1.003, -1.218e-5
-1.002, -1.218e-5
-1.001, -1.218e-5
