Sept. 16, 2024   06:16:24
Cyclic Voltammetry
File: c:/users/guazh/data/20240903_batch_252_500/2024-09-03-exp367\exp367-2024-09-16t05_51_58-arkoh\exp367_cv_sr_400mvs_efin_-1900mv.bin
Data Source:  Experiment
Instrument Model:  CHI760E
Header: CV ran at 400 mVs
Note: 

Init E (V) = -1
High E (V) = -1
Low E (V) = -1.9
Final E (V) = -1
Init P/N = N
Scan Rate (V/s) = 0.4
Segment = 3
Sample Interval (V) = 0.001
Quiet Time (sec) = 2
Sensitivity (A/V) = 0.01
Comp R (ohm) = 2.1

Results:

Channel 1:
Segment 1:

Segment 2:

Segment 3:

Potential/V, Current/A

-1.000, 3.239e-6
-1.001, 3.239e-6
-1.002, 1.559e-7
-1.003, 3.239e-6
-1.004, 3.239e-6
-1.005, 1.559e-7
-1.006, 3.239e-6
-1.007, 3.239e-6
-1.008, 3.239e-6
-1.009, 3.239e-6
-1.010, 3.239e-6
-1.011, 3.239e-6
-1.012, 3.239e-6
-1.013, 3.239e-6
-1.014, 3.239e-6
-1.015, 3.239e-6
-1.016, 3.239e-6
-1.017, 3.239e-6
-1.018, 3.239e-6
-1.019, 3.239e-6
-1.020, 3.239e-6
-1.021, 3.239e-6
-1.022, 3.239e-6
-1.023, 3.239e-6
-1.024, 3.239e-6
-1.025, 3.239e-6
-1.026, 3.239e-6
-1.027, 3.239e-6
-1.028, 3.239e-6
-1.029, 3.239e-6
-1.030, 3.239e-6
-1.031, 3.239e-6
-1.032, 3.239e-6
-1.033, 3.239e-6
-1.034, 3.239e-6
-1.035, 3.239e-6
-1.036, 3.239e-6
-1.037, 6.322e-6
-1.038, 3.239e-6
-1.039, 3.239e-6
-1.040, 3.239e-6
-1.041, 3.239e-6
-1.042, 3.239e-6
-1.043, 3.239e-6
-1.044, 3.239e-6
-1.045, 3.239e-6
-1.046, 3.239e-6
-1.047, 3.239e-6
-1.048, 3.239e-6
-1.049, 3.239e-6
-1.050, 3.239e-6
-1.051, 3.239e-6
-1.052, 3.239e-6
-1.053, 3.239e-6
-1.054, 3.239e-6
-1.055, 3.239e-6
-1.056, 3.239e-6
-1.057, 3.239e-6
-1.058, 3.239e-6
-1.059, 3.239e-6
-1.060, 3.239e-6
-1.061, 3.239e-6
-1.062, 6.322e-6
-1.063, 3.239e-6
-1.064, 3.239e-6
-1.065, 3.239e-6
-1.066, 3.239e-6
-1.067, 3.239e-6
-1.068, 3.239e-6
-1.069, 3.239e-6
-1.070, 3.239e-6
-1.071, 3.239e-6
-1.072, 3.239e-6
-1.073, 3.239e-6
-1.074, 3.239e-6
-1.075, 3.239e-6
-1.076, 6.322e-6
-1.077, 3.239e-6
-1.078, 3.239e-6
-1.079, 3.239e-6
-1.080, 3.239e-6
-1.081, 3.239e-6
-1.082, 3.239e-6
-1.083, 3.239e-6
-1.084, 3.239e-6
-1.085, 3.239e-6
-1.086, 3.239e-6
-1.087, 3.239e-6
-1.088, 3.239e-6
-1.089, 3.239e-6
-1.090, 3.239e-6
-1.091, 3.239e-6
-1.092, 3.239e-6
-1.093, 3.239e-6
-1.094, 3.239e-6
-1.095, 3.239e-6
-1.096, 6.322e-6
-1.097, 3.239e-6
-1.098, 3.239e-6
-1.099, 3.239e-6
-1.100, 3.239e-6
-1.101, 6.322e-6
-1.102, 3.239e-6
-1.103, 3.239e-6
-1.104, 6.322e-6
-1.105, 6.322e-6
-1.106, 6.322e-6
-1.107, 6.322e-6
-1.108, 3.239e-6
-1.109, 3.239e-6
-1.110, 6.322e-6
-1.111, 3.239e-6
-1.112, 3.239e-6
-1.113, 6.322e-6
-1.114, 6.322e-6
-1.115, 6.322e-6
-1.116, 3.239e-6
-1.117, 6.322e-6
-1.118, 3.239e-6
-1.119, 3.239e-6
-1.120, 3.239e-6
-1.121, 3.239e-6
-1.122, 6.322e-6
-1.123, 3.239e-6
-1.124, 3.239e-6
-1.125, 3.239e-6
-1.126, 3.239e-6
-1.127, 6.322e-6
-1.128, 6.322e-6
-1.129, 6.322e-6
-1.130, 6.322e-6
-1.131, 6.322e-6
-1.132, 6.322e-6
-1.133, 6.322e-6
-1.134, 6.322e-6
-1.135, 6.322e-6
-1.136, 6.322e-6
-1.137, 6.322e-6
-1.138, 6.322e-6
-1.139, 6.322e-6
-1.140, 6.322e-6
-1.141, 3.239e-6
-1.142, 3.239e-6
-1.143, 6.322e-6
-1.144, 6.322e-6
-1.145, 3.239e-6
-1.146, 6.322e-6
-1.147, 6.322e-6
-1.148, 6.322e-6
-1.149, 3.239e-6
-1.150, 6.322e-6
-1.151, 3.239e-6
-1.152, 3.239e-6
-1.153, 3.239e-6
-1.154, 6.322e-6
-1.155, 6.322e-6
-1.156, 3.239e-6
-1.157, 6.322e-6
-1.158, 6.322e-6
-1.159, 6.322e-6
-1.160, 6.322e-6
-1.161, 6.322e-6
-1.162, 3.239e-6
-1.163, 6.322e-6
-1.164, 6.322e-6
-1.165, 6.322e-6
-1.166, 6.322e-6
-1.167, 6.322e-6
-1.168, 6.322e-6
-1.169, 6.322e-6
-1.170, 6.322e-6
-1.171, 6.322e-6
-1.172, 6.322e-6
-1.173, 6.322e-6
-1.174, 6.322e-6
-1.175, 6.322e-6
-1.176, 6.322e-6
-1.177, 6.322e-6
-1.178, 6.322e-6
-1.179, 6.322e-6
-1.180, 6.322e-6
-1.181, 6.322e-6
-1.182, 6.322e-6
-1.183, 6.322e-6
-1.184, 6.322e-6
-1.185, 6.322e-6
-1.186, 6.322e-6
-1.187, 6.322e-6
-1.188, 6.322e-6
-1.189, 6.322e-6
-1.190, 6.322e-6
-1.191, 6.322e-6
-1.192, 6.322e-6
-1.193, 6.322e-6
-1.194, 6.322e-6
-1.195, 6.322e-6
-1.196, 6.322e-6
-1.197, 6.322e-6
-1.198, 6.322e-6
-1.199, 6.322e-6
-1.200, 6.322e-6
-1.201, 6.322e-6
-1.202, 6.322e-6
-1.203, 6.322e-6
-1.204, 6.322e-6
-1.205, 6.322e-6
-1.206, 6.322e-6
-1.207, 6.322e-6
-1.208, 6.322e-6
-1.209, 6.322e-6
-1.210, 6.322e-6
-1.211, 6.322e-6
-1.212, 6.322e-6
-1.213, 6.322e-6
-1.214, 6.322e-6
-1.215, 6.322e-6
-1.216, 6.322e-6
-1.217, 6.322e-6
-1.218, 6.322e-6
-1.219, 6.322e-6
-1.220, 6.322e-6
-1.221, 6.322e-6
-1.222, 6.322e-6
-1.223, 6.322e-6
-1.224, 6.322e-6
-1.225, 6.322e-6
-1.226, 6.322e-6
-1.227, 6.322e-6
-1.228, 6.322e-6
-1.229, 6.322e-6
-1.230, 6.322e-6
-1.231, 6.322e-6
-1.232, 6.322e-6
-1.233, 6.322e-6
-1.234, 6.322e-6
-1.235, 6.322e-6
-1.236, 6.322e-6
-1.237, 6.322e-6
-1.238, 6.322e-6
-1.239, 6.322e-6
-1.240, 6.322e-6
-1.241, 6.322e-6
-1.242, 6.322e-6
-1.243, 6.322e-6
-1.244, 9.405e-6
-1.245, 6.322e-6
-1.246, 6.322e-6
-1.247, 6.322e-6
-1.248, 6.322e-6
-1.249, 6.322e-6
-1.250, 6.322e-6
-1.251, 6.322e-6
-1.252, 6.322e-6
-1.253, 6.322e-6
-1.254, 6.322e-6
-1.255, 6.322e-6
-1.256, 6.322e-6
-1.257, 9.405e-6
-1.258, 6.322e-6
-1.259, 6.322e-6
-1.260, 9.405e-6
-1.261, 6.322e-6
-1.262, 6.322e-6
-1.263, 6.322e-6
-1.264, 9.405e-6
-1.265, 6.322e-6
-1.266, 6.322e-6
-1.267, 9.405e-6
-1.268, 6.322e-6
-1.269, 9.405e-6
-1.270, 9.405e-6
-1.271, 6.322e-6
-1.272, 6.322e-6
-1.273, 9.405e-6
-1.274, 6.322e-6
-1.275, 9.405e-6
-1.276, 9.405e-6
-1.277, 9.405e-6
-1.278, 6.322e-6
-1.279, 6.322e-6
-1.280, 6.322e-6
-1.281, 6.322e-6
-1.282, 6.322e-6
-1.283, 6.322e-6
-1.284, 9.405e-6
-1.285, 6.322e-6
-1.286, 9.405e-6
-1.287, 9.405e-6
-1.288, 9.405e-6
-1.289, 9.405e-6
-1.290, 9.405e-6
-1.291, 9.405e-6
-1.292, 9.405e-6
-1.293, 9.405e-6
-1.294, 9.405e-6
-1.295, 9.405e-6
-1.296, 9.405e-6
-1.297, 9.405e-6
-1.298, 9.405e-6
-1.299, 9.405e-6
-1.300, 9.405e-6
-1.301, 9.405e-6
-1.302, 9.405e-6
-1.303, 9.405e-6
-1.304, 9.405e-6
-1.305, 9.405e-6
-1.306, 9.405e-6
-1.307, 9.405e-6
-1.308, 9.405e-6
-1.309, 9.405e-6
-1.310, 9.405e-6
-1.311, 9.405e-6
-1.312, 9.405e-6
-1.313, 9.405e-6
-1.314, 9.405e-6
-1.315, 9.405e-6
-1.316, 9.405e-6
-1.317, 9.405e-6
-1.318, 9.405e-6
-1.319, 9.405e-6
-1.320, 9.405e-6
-1.321, 1.249e-5
-1.322, 9.405e-6
-1.323, 9.405e-6
-1.324, 1.249e-5
-1.325, 1.249e-5
-1.326, 1.249e-5
-1.327, 1.249e-5
-1.328, 9.405e-6
-1.329, 1.249e-5
-1.330, 1.249e-5
-1.331, 1.249e-5
-1.332, 1.249e-5
-1.333, 1.249e-5
-1.334, 1.249e-5
-1.335, 1.249e-5
-1.336, 1.249e-5
-1.337, 1.249e-5
-1.338, 1.249e-5
-1.339, 1.249e-5
-1.340, 1.249e-5
-1.341, 1.249e-5
-1.342, 1.249e-5
-1.343, 1.249e-5
-1.344, 1.249e-5
-1.345, 1.249e-5
-1.346, 1.249e-5
-1.347, 1.249e-5
-1.348, 1.249e-5
-1.349, 1.249e-5
-1.350, 1.249e-5
-1.351, 1.249e-5
-1.352, 1.249e-5
-1.353, 1.249e-5
-1.354, 1.249e-5
-1.355, 1.249e-5
-1.356, 1.249e-5
-1.357, 1.557e-5
-1.358, 1.557e-5
-1.359, 1.557e-5
-1.360, 1.557e-5
-1.361, 1.557e-5
-1.362, 1.557e-5
-1.363, 1.557e-5
-1.364, 1.557e-5
-1.365, 1.557e-5
-1.366, 1.557e-5
-1.367, 1.557e-5
-1.368, 1.557e-5
-1.369, 1.557e-5
-1.370, 1.557e-5
-1.371, 1.557e-5
-1.372, 1.557e-5
-1.373, 1.557e-5
-1.374, 1.557e-5
-1.375, 1.865e-5
-1.376, 1.865e-5
-1.377, 1.557e-5
-1.378, 1.865e-5
-1.379, 1.557e-5
-1.380, 1.865e-5
-1.381, 1.865e-5
-1.382, 1.865e-5
-1.383, 1.865e-5
-1.384, 1.865e-5
-1.385, 1.865e-5
-1.386, 1.865e-5
-1.387, 2.174e-5
-1.388, 1.865e-5
-1.389, 2.174e-5
-1.390, 2.174e-5
-1.391, 2.174e-5
-1.392, 2.174e-5
-1.393, 2.174e-5
-1.394, 2.174e-5
-1.395, 2.174e-5
-1.396, 2.174e-5
-1.397, 2.174e-5
-1.398, 2.174e-5
-1.399, 2.482e-5
-1.400, 2.482e-5
-1.401, 2.174e-5
-1.402, 2.482e-5
-1.403, 2.482e-5
-1.404, 2.482e-5
-1.405, 2.482e-5
-1.406, 2.482e-5
-1.407, 2.482e-5
-1.408, 2.482e-5
-1.409, 2.482e-5
-1.410, 2.790e-5
-1.411, 2.790e-5
-1.412, 2.790e-5
-1.413, 2.790e-5
-1.414, 2.790e-5
-1.415, 2.790e-5
-1.416, 2.790e-5
-1.417, 2.790e-5
-1.418, 2.790e-5
-1.419, 2.790e-5
-1.420, 3.099e-5
-1.421, 3.099e-5
-1.422, 3.099e-5
-1.423, 3.099e-5
-1.424, 3.099e-5
-1.425, 3.099e-5
-1.426, 3.407e-5
-1.427, 3.407e-5
-1.428, 3.407e-5
-1.429, 3.407e-5
-1.430, 3.407e-5
-1.431, 3.407e-5
-1.432, 3.407e-5
-1.433, 3.407e-5
-1.434, 3.407e-5
-1.435, 3.715e-5
-1.436, 3.715e-5
-1.437, 3.715e-5
-1.438, 3.715e-5
-1.439, 3.715e-5
-1.440, 3.715e-5
-1.441, 4.024e-5
-1.442, 4.024e-5
-1.443, 4.024e-5
-1.444, 4.024e-5
-1.445, 4.024e-5
-1.446, 4.332e-5
-1.447, 4.332e-5
-1.448, 4.332e-5
-1.449, 4.332e-5
-1.450, 4.332e-5
-1.451, 4.332e-5
-1.452, 4.640e-5
-1.453, 4.640e-5
-1.454, 4.640e-5
-1.455, 4.640e-5
-1.456, 4.640e-5
-1.457, 4.640e-5
-1.458, 4.640e-5
-1.459, 4.949e-5
-1.460, 4.949e-5
-1.461, 4.949e-5
-1.462, 4.949e-5
-1.463, 5.257e-5
-1.464, 5.257e-5
-1.465, 5.257e-5
-1.466, 5.257e-5
-1.467, 5.257e-5
-1.468, 5.565e-5
-1.469, 5.565e-5
-1.470, 5.565e-5
-1.471, 5.565e-5
-1.472, 5.565e-5
-1.473, 5.565e-5
-1.474, 5.873e-5
-1.475, 5.873e-5
-1.476, 5.873e-5
-1.477, 6.182e-5
-1.478, 6.182e-5
-1.479, 6.182e-5
-1.480, 6.182e-5
-1.481, 6.182e-5
-1.482, 6.182e-5
-1.483, 6.490e-5
-1.484, 6.490e-5
-1.485, 6.490e-5
-1.486, 6.798e-5
-1.487, 6.798e-5
-1.488, 6.798e-5
-1.489, 7.107e-5
-1.490, 7.107e-5
-1.491, 7.107e-5
-1.492, 7.107e-5
-1.493, 7.415e-5
-1.494, 7.415e-5
-1.495, 7.415e-5
-1.496, 7.415e-5
-1.497, 7.723e-5
-1.498, 7.723e-5
-1.499, 7.723e-5
-1.500, 8.032e-5
-1.501, 8.032e-5
-1.502, 8.032e-5
-1.503, 8.340e-5
-1.504, 8.340e-5
-1.505, 8.340e-5
-1.506, 8.340e-5
-1.507, 8.648e-5
-1.508, 8.648e-5
-1.509, 8.648e-5
-1.510, 8.957e-5
-1.511, 8.957e-5
-1.512, 8.957e-5
-1.513, 9.265e-5
-1.514, 9.265e-5
-1.515, 9.265e-5
-1.516, 9.265e-5
-1.517, 9.573e-5
-1.518, 9.573e-5
-1.519, 9.573e-5
-1.520, 9.882e-5
-1.521, 9.882e-5
-1.522, 1.019e-4
-1.523, 1.019e-4
-1.524, 1.019e-4
-1.525, 1.050e-4
-1.526, 1.050e-4
-1.527, 1.081e-4
-1.528, 1.081e-4
-1.529, 1.111e-4
-1.530, 1.111e-4
-1.531, 1.081e-4
-1.532, 1.111e-4
-1.533, 1.111e-4
-1.534, 1.142e-4
-1.535, 1.142e-4
-1.536, 1.173e-4
-1.537, 1.173e-4
-1.538, 1.173e-4
-1.539, 1.204e-4
-1.540, 1.204e-4
-1.541, 1.204e-4
-1.542, 1.235e-4
-1.543, 1.235e-4
-1.544, 1.266e-4
-1.545, 1.296e-4
-1.546, 1.296e-4
-1.547, 1.296e-4
-1.548, 1.327e-4
-1.549, 1.327e-4
-1.550, 1.358e-4
-1.551, 1.327e-4
-1.552, 1.389e-4
-1.553, 1.389e-4
-1.554, 1.389e-4
-1.555, 1.389e-4
-1.556, 1.389e-4
-1.557, 1.420e-4
-1.558, 1.420e-4
-1.559, 1.451e-4
-1.560, 1.451e-4
-1.561, 1.451e-4
-1.562, 1.481e-4
-1.563, 1.481e-4
-1.564, 1.512e-4
-1.565, 1.512e-4
-1.566, 1.543e-4
-1.567, 1.512e-4
-1.568, 1.605e-4
-1.569, 1.574e-4
-1.570, 1.605e-4
-1.571, 1.605e-4
-1.572, 1.605e-4
-1.573, 1.605e-4
-1.574, 1.636e-4
-1.575, 1.636e-4
-1.576, 1.636e-4
-1.577, 1.666e-4
-1.578, 1.697e-4
-1.579, 1.759e-4
-1.580, 1.759e-4
-1.581, 1.759e-4
-1.582, 1.759e-4
-1.583, 1.790e-4
-1.584, 1.790e-4
-1.585, 1.759e-4
-1.586, 1.821e-4
-1.587, 1.821e-4
-1.588, 1.821e-4
-1.589, 1.821e-4
-1.590, 1.851e-4
-1.591, 1.913e-4
-1.592, 1.944e-4
-1.593, 1.944e-4
-1.594, 1.944e-4
-1.595, 1.944e-4
-1.596, 1.975e-4
-1.597, 1.975e-4
-1.598, 2.036e-4
-1.599, 2.006e-4
-1.600, 2.036e-4
-1.601, 2.036e-4
-1.602, 1.975e-4
-1.603, 2.067e-4
-1.604, 2.098e-4
-1.605, 2.129e-4
-1.606, 2.160e-4
-1.607, 2.191e-4
-1.608, 2.160e-4
-1.609, 2.191e-4
-1.610, 2.160e-4
-1.611, 2.160e-4
-1.612, 2.252e-4
-1.613, 2.191e-4
-1.614, 2.221e-4
-1.615, 2.252e-4
-1.616, 2.283e-4
-1.617, 2.345e-4
-1.618, 2.376e-4
-1.619, 2.314e-4
-1.620, 2.376e-4
-1.621, 2.376e-4
-1.622, 2.406e-4
-1.623, 2.468e-4
-1.624, 2.376e-4
-1.625, 2.499e-4
-1.626, 2.468e-4
-1.627, 2.468e-4
-1.628, 2.499e-4
-1.629, 2.530e-4
-1.630, 2.591e-4
-1.631, 2.530e-4
-1.632, 2.591e-4
-1.633, 2.653e-4
-1.634, 2.653e-4
-1.635, 2.622e-4
-1.636, 2.715e-4
-1.637, 2.684e-4
-1.638, 2.715e-4
-1.639, 2.715e-4
-1.640, 2.776e-4
-1.641, 2.746e-4
-1.642, 2.838e-4
-1.643, 2.807e-4
-1.644, 2.869e-4
-1.645, 2.838e-4
-1.646, 2.992e-4
-1.647, 2.992e-4
-1.648, 2.931e-4
-1.649, 2.961e-4
-1.650, 3.023e-4
-1.651, 3.023e-4
-1.652, 2.992e-4
-1.653, 3.023e-4
-1.654, 3.085e-4
-1.655, 3.115e-4
-1.656, 3.115e-4
-1.657, 3.177e-4
-1.658, 3.208e-4
-1.659, 3.270e-4
-1.660, 3.300e-4
-1.661, 3.331e-4
-1.662, 3.331e-4
-1.663, 3.362e-4
-1.664, 3.393e-4
-1.665, 3.455e-4
-1.666, 3.424e-4
-1.667, 3.455e-4
-1.668, 3.485e-4
-1.669, 3.485e-4
-1.670, 3.547e-4
-1.671, 3.578e-4
-1.672, 3.578e-4
-1.673, 3.609e-4
-1.674, 3.670e-4
-1.675, 3.701e-4
-1.676, 3.701e-4
-1.677, 3.763e-4
-1.678, 3.763e-4
-1.679, 3.794e-4
-1.680, 3.886e-4
-1.681, 3.855e-4
-1.682, 3.948e-4
-1.683, 3.948e-4
-1.684, 4.010e-4
-1.685, 4.040e-4
-1.686, 4.102e-4
-1.687, 4.133e-4
-1.688, 4.133e-4
-1.689, 4.164e-4
-1.690, 4.256e-4
-1.691, 4.256e-4
-1.692, 4.287e-4
-1.693, 4.349e-4
-1.694, 4.318e-4
-1.695, 4.472e-4
-1.696, 4.503e-4
-1.697, 4.534e-4
-1.698, 4.472e-4
-1.699, 4.657e-4
-1.700, 4.657e-4
-1.701, 4.719e-4
-1.702, 4.750e-4
-1.703, 4.811e-4
-1.704, 4.780e-4
-1.705, 4.842e-4
-1.706, 4.935e-4
-1.707, 4.996e-4
-1.708, 4.996e-4
-1.709, 5.089e-4
-1.710, 5.150e-4
-1.711, 5.120e-4
-1.712, 5.181e-4
-1.713, 5.305e-4
-1.714, 5.243e-4
-1.715, 5.366e-4
-1.716, 5.397e-4
-1.717, 5.428e-4
-1.718, 5.489e-4
-1.719, 5.489e-4
-1.720, 5.644e-4
-1.721, 5.644e-4
-1.722, 5.674e-4
-1.723, 5.767e-4
-1.724, 5.829e-4
-1.725, 5.859e-4
-1.726, 5.983e-4
-1.727, 6.014e-4
-1.728, 6.014e-4
-1.729, 6.106e-4
-1.730, 6.137e-4
-1.731, 6.137e-4
-1.732, 6.260e-4
-1.733, 6.353e-4
-1.734, 6.414e-4
-1.735, 6.476e-4
-1.736, 6.538e-4
-1.737, 6.630e-4
-1.738, 6.661e-4
-1.739, 6.723e-4
-1.740, 6.815e-4
-1.741, 6.908e-4
-1.742, 6.939e-4
-1.743, 7.031e-4
-1.744, 7.093e-4
-1.745, 7.124e-4
-1.746, 7.154e-4
-1.747, 7.278e-4
-1.748, 7.309e-4
-1.749, 7.401e-4
-1.750, 7.494e-4
-1.751, 7.586e-4
-1.752, 7.648e-4
-1.753, 7.679e-4
-1.754, 7.802e-4
-1.755, 7.863e-4
-1.756, 7.925e-4
-1.757, 8.018e-4
-1.758, 8.110e-4
-1.759, 8.233e-4
-1.760, 8.264e-4
-1.761, 8.418e-4
-1.762, 8.542e-4
-1.763, 8.603e-4
-1.764, 8.727e-4
-1.765, 8.727e-4
-1.766, 8.819e-4
-1.767, 9.035e-4
-1.768, 9.035e-4
-1.769, 9.128e-4
-1.770, 9.220e-4
-1.771, 9.313e-4
-1.772, 9.467e-4
-1.773, 9.559e-4
-1.774, 9.683e-4
-1.775, 9.775e-4
-1.776, 9.868e-4
-1.777, 9.991e-4
-1.778, 1.011e-3
-1.779, 1.021e-3
-1.780, 1.033e-3
-1.781, 1.036e-3
-1.782, 1.048e-3
-1.783, 1.064e-3
-1.784, 1.085e-3
-1.785, 1.092e-3
-1.786, 1.110e-3
-1.787, 1.122e-3
-1.788, 1.135e-3
-1.789, 1.141e-3
-1.790, 1.159e-3
-1.791, 1.178e-3
-1.792, 1.184e-3
-1.793, 1.196e-3
-1.794, 1.215e-3
-1.795, 1.221e-3
-1.796, 1.243e-3
-1.797, 1.258e-3
-1.798, 1.277e-3
-1.799, 1.289e-3
-1.800, 1.304e-3
-1.801, 1.323e-3
-1.802, 1.332e-3
-1.803, 1.351e-3
-1.804, 1.357e-3
-1.805, 1.384e-3
-1.806, 1.412e-3
-1.807, 1.412e-3
-1.808, 1.428e-3
-1.809, 1.455e-3
-1.810, 1.468e-3
-1.811, 1.486e-3
-1.812, 1.505e-3
-1.813, 1.536e-3
-1.814, 1.554e-3
-1.815, 1.579e-3
-1.816, 1.600e-3
-1.817, 1.625e-3
-1.818, 1.640e-3
-1.819, 1.653e-3
-1.820, 1.668e-3
-1.821, 1.696e-3
-1.822, 1.705e-3
-1.823, 1.733e-3
-1.824, 1.761e-3
-1.825, 1.785e-3
-1.826, 1.801e-3
-1.827, 1.832e-3
-1.828, 1.859e-3
-1.829, 1.878e-3
-1.830, 1.893e-3
-1.831, 1.921e-3
-1.832, 1.955e-3
-1.833, 1.967e-3
-1.834, 1.995e-3
-1.835, 2.020e-3
-1.836, 2.047e-3
-1.837, 2.078e-3
-1.838, 2.109e-3
-1.839, 2.128e-3
-1.840, 2.168e-3
-1.841, 2.198e-3
-1.842, 2.223e-3
-1.843, 2.248e-3
-1.844, 2.282e-3
-1.845, 2.309e-3
-1.846, 2.334e-3
-1.847, 2.371e-3
-1.848, 2.402e-3
-1.849, 2.436e-3
-1.850, 2.457e-3
-1.851, 2.491e-3
-1.852, 2.534e-3
-1.853, 2.571e-3
-1.854, 2.602e-3
-1.855, 2.630e-3
-1.856, 2.664e-3
-1.857, 2.710e-3
-1.858, 2.744e-3
-1.859, 2.769e-3
-1.860, 2.809e-3
-1.861, 2.837e-3
-1.862, 2.886e-3
-1.863, 2.911e-3
-1.864, 2.945e-3
-1.865, 2.988e-3
-1.866, 3.022e-3
-1.867, 3.056e-3
-1.868, 3.102e-3
-1.869, 3.139e-3
-1.870, 3.160e-3
-1.871, 3.194e-3
-1.872, 3.241e-3
-1.873, 3.293e-3
-1.874, 3.336e-3
-1.875, 3.370e-3
-1.876, 3.413e-3
-1.877, 3.459e-3
-1.878, 3.493e-3
-1.879, 3.540e-3
-1.880, 3.583e-3
-1.881, 3.610e-3
-1.882, 3.654e-3
-1.883, 3.694e-3
-1.884, 3.743e-3
-1.885, 3.771e-3
-1.886, 3.817e-3
-1.887, 3.860e-3
-1.888, 3.900e-3
-1.889, 3.959e-3
-1.890, 4.008e-3
-1.891, 4.061e-3
-1.892, 4.101e-3
-1.893, 4.147e-3
-1.894, 4.199e-3
-1.895, 4.230e-3
-1.896, 4.283e-3
-1.897, 4.329e-3
-1.898, 4.372e-3
-1.899, 4.428e-3
-1.900, 4.443e-3
-1.899, 4.431e-3
-1.898, 4.412e-3
-1.897, 4.394e-3
-1.896, 4.369e-3
-1.895, 4.341e-3
-1.894, 4.310e-3
-1.893, 4.295e-3
-1.892, 4.280e-3
-1.891, 4.261e-3
-1.890, 4.227e-3
-1.889, 4.202e-3
-1.888, 4.165e-3
-1.887, 4.141e-3
-1.886, 4.113e-3
-1.885, 4.073e-3
-1.884, 4.045e-3
-1.883, 4.014e-3
-1.882, 3.993e-3
-1.881, 3.968e-3
-1.880, 3.937e-3
-1.879, 3.897e-3
-1.878, 3.882e-3
-1.877, 3.860e-3
-1.876, 3.826e-3
-1.875, 3.811e-3
-1.874, 3.777e-3
-1.873, 3.731e-3
-1.872, 3.715e-3
-1.871, 3.678e-3
-1.870, 3.660e-3
-1.869, 3.626e-3
-1.868, 3.598e-3
-1.867, 3.567e-3
-1.866, 3.536e-3
-1.865, 3.518e-3
-1.864, 3.493e-3
-1.863, 3.456e-3
-1.862, 3.435e-3
-1.861, 3.404e-3
-1.860, 3.376e-3
-1.859, 3.348e-3
-1.858, 3.314e-3
-1.857, 3.284e-3
-1.856, 3.265e-3
-1.855, 3.234e-3
-1.854, 3.200e-3
-1.853, 3.173e-3
-1.852, 3.142e-3
-1.851, 3.120e-3
-1.850, 3.096e-3
-1.849, 3.065e-3
-1.848, 3.034e-3
-1.847, 3.025e-3
-1.846, 2.997e-3
-1.845, 2.960e-3
-1.844, 2.935e-3
-1.843, 2.898e-3
-1.842, 2.880e-3
-1.841, 2.846e-3
-1.840, 2.818e-3
-1.839, 2.793e-3
-1.838, 2.772e-3
-1.837, 2.744e-3
-1.836, 2.710e-3
-1.835, 2.695e-3
-1.834, 2.664e-3
-1.833, 2.639e-3
-1.832, 2.605e-3
-1.831, 2.587e-3
-1.830, 2.562e-3
-1.829, 2.550e-3
-1.828, 2.528e-3
-1.827, 2.485e-3
-1.826, 2.454e-3
-1.825, 2.442e-3
-1.824, 2.417e-3
-1.823, 2.396e-3
-1.822, 2.371e-3
-1.821, 2.346e-3
-1.820, 2.328e-3
-1.819, 2.309e-3
-1.818, 2.285e-3
-1.817, 2.257e-3
-1.816, 2.238e-3
-1.815, 2.214e-3
-1.814, 2.183e-3
-1.813, 2.168e-3
-1.812, 2.143e-3
-1.811, 2.115e-3
-1.810, 2.103e-3
-1.809, 2.075e-3
-1.808, 2.060e-3
-1.807, 2.044e-3
-1.806, 2.020e-3
-1.805, 2.004e-3
-1.804, 1.986e-3
-1.803, 1.958e-3
-1.802, 1.943e-3
-1.801, 1.912e-3
-1.800, 1.899e-3
-1.799, 1.878e-3
-1.798, 1.856e-3
-1.797, 1.832e-3
-1.796, 1.828e-3
-1.795, 1.801e-3
-1.794, 1.782e-3
-1.793, 1.764e-3
-1.792, 1.751e-3
-1.791, 1.730e-3
-1.790, 1.711e-3
-1.789, 1.687e-3
-1.788, 1.674e-3
-1.787, 1.662e-3
-1.786, 1.647e-3
-1.785, 1.631e-3
-1.784, 1.610e-3
-1.783, 1.591e-3
-1.782, 1.579e-3
-1.781, 1.554e-3
-1.780, 1.542e-3
-1.779, 1.517e-3
-1.778, 1.511e-3
-1.777, 1.499e-3
-1.776, 1.468e-3
-1.775, 1.462e-3
-1.774, 1.440e-3
-1.773, 1.418e-3
-1.772, 1.415e-3
-1.771, 1.397e-3
-1.770, 1.381e-3
-1.769, 1.366e-3
-1.768, 1.344e-3
-1.767, 1.338e-3
-1.766, 1.326e-3
-1.765, 1.307e-3
-1.764, 1.301e-3
-1.763, 1.286e-3
-1.762, 1.277e-3
-1.761, 1.255e-3
-1.760, 1.243e-3
-1.759, 1.224e-3
-1.758, 1.221e-3
-1.757, 1.209e-3
-1.756, 1.190e-3
-1.755, 1.184e-3
-1.754, 1.162e-3
-1.753, 1.153e-3
-1.752, 1.147e-3
-1.751, 1.129e-3
-1.750, 1.116e-3
-1.749, 1.104e-3
-1.748, 1.101e-3
-1.747, 1.079e-3
-1.746, 1.076e-3
-1.745, 1.064e-3
-1.744, 1.048e-3
-1.743, 1.036e-3
-1.742, 1.027e-3
-1.741, 1.014e-3
-1.740, 1.005e-3
-1.739, 9.868e-4
-1.738, 9.806e-4
-1.737, 9.713e-4
-1.736, 9.528e-4
-1.735, 9.498e-4
-1.734, 9.405e-4
-1.733, 9.313e-4
-1.732, 9.189e-4
-1.731, 9.035e-4
-1.730, 8.973e-4
-1.729, 8.943e-4
-1.728, 8.819e-4
-1.727, 8.727e-4
-1.726, 8.634e-4
-1.725, 8.511e-4
-1.724, 8.449e-4
-1.723, 8.326e-4
-1.722, 8.295e-4
-1.721, 8.203e-4
-1.720, 8.048e-4
-1.719, 7.956e-4
-1.718, 7.863e-4
-1.717, 7.771e-4
-1.716, 7.740e-4
-1.715, 7.648e-4
-1.714, 7.586e-4
-1.713, 7.432e-4
-1.712, 7.339e-4
-1.711, 7.278e-4
-1.710, 7.247e-4
-1.709, 7.154e-4
-1.708, 7.093e-4
-1.707, 7.093e-4
-1.706, 6.908e-4
-1.705, 6.846e-4
-1.704, 6.784e-4
-1.703, 6.692e-4
-1.702, 6.630e-4
-1.701, 6.599e-4
-1.700, 6.476e-4
-1.699, 6.445e-4
-1.698, 6.384e-4
-1.697, 6.199e-4
-1.696, 6.229e-4
-1.695, 6.137e-4
-1.694, 6.075e-4
-1.693, 6.044e-4
-1.692, 5.952e-4
-1.691, 5.921e-4
-1.690, 5.798e-4
-1.689, 5.829e-4
-1.688, 5.705e-4
-1.687, 5.674e-4
-1.686, 5.613e-4
-1.685, 5.582e-4
-1.684, 5.428e-4
-1.683, 5.428e-4
-1.682, 5.366e-4
-1.681, 5.335e-4
-1.680, 5.181e-4
-1.679, 5.150e-4
-1.678, 5.058e-4
-1.677, 5.058e-4
-1.676, 5.027e-4
-1.675, 4.935e-4
-1.674, 4.842e-4
-1.673, 4.811e-4
-1.672, 4.780e-4
-1.671, 4.719e-4
-1.670, 4.657e-4
-1.669, 4.626e-4
-1.668, 4.534e-4
-1.667, 4.472e-4
-1.666, 4.410e-4
-1.665, 4.472e-4
-1.664, 4.380e-4
-1.663, 4.349e-4
-1.662, 4.256e-4
-1.661, 4.256e-4
-1.660, 4.164e-4
-1.659, 4.133e-4
-1.658, 4.102e-4
-1.657, 4.010e-4
-1.656, 3.979e-4
-1.655, 3.948e-4
-1.654, 3.917e-4
-1.653, 3.855e-4
-1.652, 3.794e-4
-1.651, 3.794e-4
-1.650, 3.794e-4
-1.649, 3.732e-4
-1.648, 3.640e-4
-1.647, 3.609e-4
-1.646, 3.578e-4
-1.645, 3.516e-4
-1.644, 3.455e-4
-1.643, 3.485e-4
-1.642, 3.424e-4
-1.641, 3.300e-4
-1.640, 3.362e-4
-1.639, 3.331e-4
-1.638, 3.208e-4
-1.637, 3.270e-4
-1.636, 3.177e-4
-1.635, 3.115e-4
-1.634, 3.146e-4
-1.633, 3.085e-4
-1.632, 3.023e-4
-1.631, 2.992e-4
-1.630, 2.900e-4
-1.629, 2.931e-4
-1.628, 2.869e-4
-1.627, 2.838e-4
-1.626, 2.838e-4
-1.625, 2.746e-4
-1.624, 2.776e-4
-1.623, 2.807e-4
-1.622, 2.715e-4
-1.621, 2.715e-4
-1.620, 2.622e-4
-1.619, 2.622e-4
-1.618, 2.561e-4
-1.617, 2.530e-4
-1.616, 2.530e-4
-1.615, 2.437e-4
-1.614, 2.468e-4
-1.613, 2.406e-4
-1.612, 2.437e-4
-1.611, 2.345e-4
-1.610, 2.345e-4
-1.609, 2.314e-4
-1.608, 2.314e-4
-1.607, 2.221e-4
-1.606, 2.221e-4
-1.605, 2.160e-4
-1.604, 2.191e-4
-1.603, 2.129e-4
-1.602, 2.129e-4
-1.601, 2.098e-4
-1.600, 2.067e-4
-1.599, 2.036e-4
-1.598, 2.006e-4
-1.597, 2.036e-4
-1.596, 1.944e-4
-1.595, 1.913e-4
-1.594, 1.975e-4
-1.593, 1.882e-4
-1.592, 1.851e-4
-1.591, 1.821e-4
-1.590, 1.851e-4
-1.589, 1.759e-4
-1.588, 1.759e-4
-1.587, 1.759e-4
-1.586, 1.697e-4
-1.585, 1.697e-4
-1.584, 1.666e-4
-1.583, 1.666e-4
-1.582, 1.636e-4
-1.581, 1.605e-4
-1.580, 1.574e-4
-1.579, 1.574e-4
-1.578, 1.543e-4
-1.577, 1.512e-4
-1.576, 1.512e-4
-1.575, 1.451e-4
-1.574, 1.451e-4
-1.573, 1.451e-4
-1.572, 1.389e-4
-1.571, 1.389e-4
-1.570, 1.420e-4
-1.569, 1.358e-4
-1.568, 1.389e-4
-1.567, 1.327e-4
-1.566, 1.296e-4
-1.565, 1.296e-4
-1.564, 1.266e-4
-1.563, 1.204e-4
-1.562, 1.296e-4
-1.561, 1.204e-4
-1.560, 1.235e-4
-1.559, 1.173e-4
-1.558, 1.142e-4
-1.557, 1.142e-4
-1.556, 1.142e-4
-1.555, 1.111e-4
-1.554, 1.081e-4
-1.553, 1.111e-4
-1.552, 1.050e-4
-1.551, 1.050e-4
-1.550, 1.050e-4
-1.549, 1.019e-4
-1.548, 9.882e-5
-1.547, 1.019e-4
-1.546, 9.882e-5
-1.545, 9.573e-5
-1.544, 9.265e-5
-1.543, 9.882e-5
-1.542, 8.957e-5
-1.541, 8.957e-5
-1.540, 8.957e-5
-1.539, 8.957e-5
-1.538, 8.648e-5
-1.537, 8.648e-5
-1.536, 8.340e-5
-1.535, 8.340e-5
-1.534, 8.032e-5
-1.533, 8.340e-5
-1.532, 7.723e-5
-1.531, 7.415e-5
-1.530, 7.723e-5
-1.529, 7.723e-5
-1.528, 7.415e-5
-1.527, 7.107e-5
-1.526, 7.107e-5
-1.525, 7.415e-5
-1.524, 7.107e-5
-1.523, 6.798e-5
-1.522, 6.490e-5
-1.521, 6.798e-5
-1.520, 6.490e-5
-1.519, 6.490e-5
-1.518, 6.490e-5
-1.517, 6.490e-5
-1.516, 6.182e-5
-1.515, 5.873e-5
-1.514, 5.873e-5
-1.513, 6.182e-5
-1.512, 5.565e-5
-1.511, 5.565e-5
-1.510, 5.565e-5
-1.509, 5.257e-5
-1.508, 5.565e-5
-1.507, 5.257e-5
-1.506, 5.257e-5
-1.505, 5.257e-5
-1.504, 4.949e-5
-1.503, 4.949e-5
-1.502, 4.640e-5
-1.501, 4.640e-5
-1.500, 4.640e-5
-1.499, 4.332e-5
-1.498, 4.332e-5
-1.497, 4.332e-5
-1.496, 4.332e-5
-1.495, 4.332e-5
-1.494, 4.024e-5
-1.493, 4.024e-5
-1.492, 3.715e-5
-1.491, 4.024e-5
-1.490, 4.024e-5
-1.489, 3.715e-5
-1.488, 3.715e-5
-1.487, 3.407e-5
-1.486, 3.407e-5
-1.485, 3.715e-5
-1.484, 3.407e-5
-1.483, 3.407e-5
-1.482, 3.099e-5
-1.481, 3.099e-5
-1.480, 3.099e-5
-1.479, 3.407e-5
-1.478, 3.099e-5
-1.477, 2.790e-5
-1.476, 2.790e-5
-1.475, 2.790e-5
-1.474, 2.790e-5
-1.473, 2.790e-5
-1.472, 2.482e-5
-1.471, 2.482e-5
-1.470, 2.482e-5
-1.469, 2.482e-5
-1.468, 2.482e-5
-1.467, 2.482e-5
-1.466, 2.174e-5
-1.465, 2.174e-5
-1.464, 2.174e-5
-1.463, 2.174e-5
-1.462, 2.174e-5
-1.461, 2.174e-5
-1.460, 2.174e-5
-1.459, 1.865e-5
-1.458, 1.865e-5
-1.457, 1.865e-5
-1.456, 1.865e-5
-1.455, 1.865e-5
-1.454, 1.865e-5
-1.453, 1.865e-5
-1.452, 1.865e-5
-1.451, 1.557e-5
-1.450, 1.557e-5
-1.449, 1.557e-5
-1.448, 1.557e-5
-1.447, 1.557e-5
-1.446, 1.557e-5
-1.445, 1.557e-5
-1.444, 1.557e-5
-1.443, 1.557e-5
-1.442, 1.249e-5
-1.441, 1.249e-5
-1.440, 1.557e-5
-1.439, 1.249e-5
-1.438, 1.249e-5
-1.437, 1.249e-5
-1.436, 1.249e-5
-1.435, 9.405e-6
-1.434, 9.405e-6
-1.433, 9.405e-6
-1.432, 9.405e-6
-1.431, 9.405e-6
-1.430, 1.249e-5
-1.429, 9.405e-6
-1.428, 9.405e-6
-1.427, 9.405e-6
-1.426, 9.405e-6
-1.425, 9.405e-6
-1.424, 9.405e-6
-1.423, 9.405e-6
-1.422, 9.405e-6
-1.421, 6.322e-6
-1.420, 9.405e-6
-1.419, 9.405e-6
-1.418, 6.322e-6
-1.417, 6.322e-6
-1.416, 6.322e-6
-1.415, 6.322e-6
-1.414, 6.322e-6
-1.413, 6.322e-6
-1.412, 6.322e-6
-1.411, 6.322e-6
-1.410, 6.322e-6
-1.409, 6.322e-6
-1.408, 6.322e-6
-1.407, 6.322e-6
-1.406, 6.322e-6
-1.405, 6.322e-6
-1.404, 3.239e-6
-1.403, 3.239e-6
-1.402, 6.322e-6
-1.401, 3.239e-6
-1.400, 3.239e-6
-1.399, 3.239e-6
-1.398, 3.239e-6
-1.397, 3.239e-6
-1.396, 3.239e-6
-1.395, 3.239e-6
-1.394, 3.239e-6
-1.393, 3.239e-6
-1.392, 3.239e-6
-1.391, 3.239e-6
-1.390, 3.239e-6
-1.389, 3.239e-6
-1.388, 3.239e-6
-1.387, 3.239e-6
-1.386, 3.239e-6
-1.385, 3.239e-6
-1.384, 3.239e-6
-1.383, 3.239e-6
-1.382, 3.239e-6
-1.381, 3.239e-6
-1.380, 3.239e-6
-1.379, 3.239e-6
-1.378, 3.239e-6
-1.377, 1.559e-7
-1.376, 3.239e-6
-1.375, 1.559e-7
-1.374, 1.559e-7
-1.373, 3.239e-6
-1.372, 1.559e-7
-1.371, 1.559e-7
-1.370, 1.559e-7
-1.369, 1.559e-7
-1.368, 1.559e-7
-1.367, 1.559e-7
-1.366, 1.559e-7
-1.365, 1.559e-7
-1.364, 1.559e-7
-1.363, 1.559e-7
-1.362, 1.559e-7
-1.361, 1.559e-7
-1.360, 1.559e-7
-1.359, 1.559e-7
-1.358, 1.559e-7
-1.357, 1.559e-7
-1.356, 1.559e-7
-1.355, 1.559e-7
-1.354, 1.559e-7
-1.353, 1.559e-7
-1.352, 1.559e-7
-1.351, 1.559e-7
-1.350, 1.559e-7
-1.349, 1.559e-7
-1.348, 1.559e-7
-1.347, 1.559e-7
-1.346, 1.559e-7
-1.345, 1.559e-7
-1.344, 1.559e-7
-1.343, 1.559e-7
-1.342, 1.559e-7
-1.341, 1.559e-7
-1.340, 1.559e-7
-1.339, 1.559e-7
-1.338, 1.559e-7
-1.337, 1.559e-7
-1.336, 1.559e-7
-1.335, 1.559e-7
-1.334, 1.559e-7
-1.333, 1.559e-7
-1.332, 1.559e-7
-1.331, 1.559e-7
-1.330, 1.559e-7
-1.329, 1.559e-7
-1.328, 1.559e-7
-1.327, 1.559e-7
-1.326, 1.559e-7
-1.325, 1.559e-7
-1.324, 1.559e-7
-1.323, 1.559e-7
-1.322, 1.559e-7
-1.321, 1.559e-7
-1.320, 1.559e-7
-1.319, 1.559e-7
-1.318, 1.559e-7
-1.317, 1.559e-7
-1.316, 1.559e-7
-1.315, 1.559e-7
-1.314, 1.559e-7
-1.313, 1.559e-7
-1.312, 1.559e-7
-1.311, 1.559e-7
-1.310, 1.559e-7
-1.309, 1.559e-7
-1.308, -2.927e-6
-1.307, 1.559e-7
-1.306, 1.559e-7
-1.305, -2.927e-6
-1.304, -2.927e-6
-1.303, -2.927e-6
-1.302, -2.927e-6
-1.301, -2.927e-6
-1.300, 1.559e-7
-1.299, -2.927e-6
-1.298, 1.559e-7
-1.297, 1.559e-7
-1.296, -2.927e-6
-1.295, -2.927e-6
-1.294, 1.559e-7
-1.293, 1.559e-7
-1.292, -2.927e-6
-1.291, -2.927e-6
-1.290, 1.559e-7
-1.289, -2.927e-6
-1.288, 1.559e-7
-1.287, -2.927e-6
-1.286, 1.559e-7
-1.285, 1.559e-7
-1.284, -2.927e-6
-1.283, 1.559e-7
-1.282, -2.927e-6
-1.281, 1.559e-7
-1.280, -2.927e-6
-1.279, -2.927e-6
-1.278, -2.927e-6
-1.277, -2.927e-6
-1.276, -2.927e-6
-1.275, -2.927e-6
-1.274, -2.927e-6
-1.273, -2.927e-6
-1.272, -2.927e-6
-1.271, -2.927e-6
-1.270, -2.927e-6
-1.269, -2.927e-6
-1.268, -2.927e-6
-1.267, 1.559e-7
-1.266, 1.559e-7
-1.265, -2.927e-6
-1.264, -2.927e-6
-1.263, -2.927e-6
-1.262, -2.927e-6
-1.261, -2.927e-6
-1.260, -2.927e-6
-1.259, 1.559e-7
-1.258, 1.559e-7
-1.257, -2.927e-6
-1.256, -2.927e-6
-1.255, -2.927e-6
-1.254, -2.927e-6
-1.253, -2.927e-6
-1.252, -2.927e-6
-1.251, -2.927e-6
-1.250, -2.927e-6
-1.249, -2.927e-6
-1.248, -2.927e-6
-1.247, -2.927e-6
-1.246, -2.927e-6
-1.245, -2.927e-6
-1.244, -2.927e-6
-1.243, -2.927e-6
-1.242, -2.927e-6
-1.241, -2.927e-6
-1.240, -2.927e-6
-1.239, -2.927e-6
-1.238, -2.927e-6
-1.237, -2.927e-6
-1.236, -2.927e-6
-1.235, -2.927e-6
-1.234, -2.927e-6
-1.233, -2.927e-6
-1.232, -2.927e-6
-1.231, -2.927e-6
-1.230, -2.927e-6
-1.229, -2.927e-6
-1.228, -2.927e-6
-1.227, -2.927e-6
-1.226, -2.927e-6
-1.225, -2.927e-6
-1.224, -2.927e-6
-1.223, 1.559e-7
-1.222, -2.927e-6
-1.221, -2.927e-6
-1.220, -2.927e-6
-1.219, -2.927e-6
-1.218, -2.927e-6
-1.217, -2.927e-6
-1.216, -2.927e-6
-1.215, -2.927e-6
-1.214, -2.927e-6
-1.213, -2.927e-6
-1.212, -2.927e-6
-1.211, -2.927e-6
-1.210, -2.927e-6
-1.209, -2.927e-6
-1.208, -2.927e-6
-1.207, -2.927e-6
-1.206, 1.559e-7
-1.205, -2.927e-6
-1.204, -2.927e-6
-1.203, -2.927e-6
-1.202, -2.927e-6
-1.201, -2.927e-6
-1.200, -2.927e-6
-1.199, -2.927e-6
-1.198, -2.927e-6
-1.197, -2.927e-6
-1.196, -2.927e-6
-1.195, -2.927e-6
-1.194, -2.927e-6
-1.193, -2.927e-6
-1.192, -2.927e-6
-1.191, -2.927e-6
-1.190, -2.927e-6
-1.189, -2.927e-6
-1.188, -2.927e-6
-1.187, -2.927e-6
-1.186, -2.927e-6
-1.185, -2.927e-6
-1.184, -2.927e-6
-1.183, -2.927e-6
-1.182, -2.927e-6
-1.181, -2.927e-6
-1.180, -2.927e-6
-1.179, -2.927e-6
-1.178, -2.927e-6
-1.177, -2.927e-6
-1.176, -2.927e-6
-1.175, -2.927e-6
-1.174, -2.927e-6
-1.173, -2.927e-6
-1.172, -2.927e-6
-1.171, -2.927e-6
-1.170, -2.927e-6
-1.169, -2.927e-6
-1.168, -2.927e-6
-1.167, -2.927e-6
-1.166, -2.927e-6
-1.165, -2.927e-6
-1.164, -2.927e-6
-1.163, -2.927e-6
-1.162, -2.927e-6
-1.161, -2.927e-6
-1.160, -2.927e-6
-1.159, -2.927e-6
-1.158, -2.927e-6
-1.157, -2.927e-6
-1.156, -2.927e-6
-1.155, -2.927e-6
-1.154, -2.927e-6
-1.153, -2.927e-6
-1.152, -2.927e-6
-1.151, -2.927e-6
-1.150, -2.927e-6
-1.149, -2.927e-6
-1.148, -2.927e-6
-1.147, -2.927e-6
-1.146, -2.927e-6
-1.145, -2.927e-6
-1.144, -2.927e-6
-1.143, -2.927e-6
-1.142, -2.927e-6
-1.141, -2.927e-6
-1.140, -2.927e-6
-1.139, -2.927e-6
-1.138, -2.927e-6
-1.137, -2.927e-6
-1.136, -2.927e-6
-1.135, -2.927e-6
-1.134, -2.927e-6
-1.133, -2.927e-6
-1.132, -2.927e-6
-1.131, -2.927e-6
-1.130, -2.927e-6
-1.129, -2.927e-6
-1.128, -2.927e-6
-1.127, -2.927e-6
-1.126, -2.927e-6
-1.125, -2.927e-6
-1.124, -2.927e-6
-1.123, -2.927e-6
-1.122, -2.927e-6
-1.121, -2.927e-6
-1.120, -2.927e-6
-1.119, -2.927e-6
-1.118, -2.927e-6
-1.117, -6.010e-6
-1.116, -2.927e-6
-1.115, -2.927e-6
-1.114, -2.927e-6
-1.113, -2.927e-6
-1.112, -2.927e-6
-1.111, -2.927e-6
-1.110, -2.927e-6
-1.109, -2.927e-6
-1.108, -2.927e-6
-1.107, -2.927e-6
-1.106, -2.927e-6
-1.105, -2.927e-6
-1.104, -2.927e-6
-1.103, -2.927e-6
-1.102, -2.927e-6
-1.101, -2.927e-6
-1.100, -2.927e-6
-1.099, -2.927e-6
-1.098, -2.927e-6
-1.097, -2.927e-6
-1.096, -2.927e-6
-1.095, -2.927e-6
-1.094, -6.010e-6
-1.093, -2.927e-6
-1.092, -2.927e-6
-1.091, -2.927e-6
-1.090, -2.927e-6
-1.089, -2.927e-6
-1.088, -2.927e-6
-1.087, -6.010e-6
-1.086, -2.927e-6
-1.085, -2.927e-6
-1.084, -2.927e-6
-1.083, -2.927e-6
-1.082, -2.927e-6
-1.081, -6.010e-6
-1.080, -2.927e-6
-1.079, -2.927e-6
-1.078, -2.927e-6
-1.077, -6.010e-6
-1.076, -2.927e-6
-1.075, -2.927e-6
-1.074, -2.927e-6
-1.073, -2.927e-6
-1.072, -6.010e-6
-1.071, -2.927e-6
-1.070, -2.927e-6
-1.069, -2.927e-6
-1.068, -2.927e-6
-1.067, -6.010e-6
-1.066, -6.010e-6
-1.065, -6.010e-6
-1.064, -6.010e-6
-1.063, -2.927e-6
-1.062, -6.010e-6
-1.061, -6.010e-6
-1.060, -6.010e-6
-1.059, -2.927e-6
-1.058, -6.010e-6
-1.057, -6.010e-6
-1.056, -6.010e-6
-1.055, -6.010e-6
-1.054, -6.010e-6
-1.053, -6.010e-6
-1.052, -6.010e-6
-1.051, -6.010e-6
-1.050, -2.927e-6
-1.049, -6.010e-6
-1.048, -6.010e-6
-1.047, -6.010e-6
-1.046, -6.010e-6
-1.045, -6.010e-6
-1.044, -6.010e-6
-1.043, -6.010e-6
-1.042, -6.010e-6
-1.041, -6.010e-6
-1.040, -6.010e-6
-1.039, -6.010e-6
-1.038, -6.010e-6
-1.037, -6.010e-6
-1.036, -6.010e-6
-1.035, -6.010e-6
-1.034, -6.010e-6
-1.033, -6.010e-6
-1.032, -6.010e-6
-1.031, -6.010e-6
-1.030, -6.010e-6
-1.029, -6.010e-6
-1.028, -6.010e-6
-1.027, -6.010e-6
-1.026, -6.010e-6
-1.025, -6.010e-6
-1.024, -6.010e-6
-1.023, -6.010e-6
-1.022, -6.010e-6
-1.021, -6.010e-6
-1.020, -6.010e-6
-1.019, -6.010e-6
-1.018, -6.010e-6
-1.017, -6.010e-6
-1.016, -6.010e-6
-1.015, -6.010e-6
-1.014, -6.010e-6
-1.013, -6.010e-6
-1.012, -6.010e-6
-1.011, -6.010e-6
-1.010, -6.010e-6
-1.009, -6.010e-6
-1.008, -6.010e-6
-1.007, -6.010e-6
-1.006, -6.010e-6
-1.005, -6.010e-6
-1.004, -6.010e-6
-1.003, -6.010e-6
-1.002, -6.010e-6
-1.001, -6.010e-6
