Mar. 15, 2025   17:08:44
Cyclic Voltammetry
File: c:/users/guazh/data/banditlqround7_x0exp891_r5/2025-03-03-exp904\exp904-2025-03-15t16_54_43-arkoh\exp904_cv_sr_200mvs_efin_-1600mv.bin
Data Source:  Experiment
Instrument Model:  CHI760E
Header: CV ran at 200 mVs
Note: 

Init E (V) = -1
High E (V) = -1
Low E (V) = -1.6
Final E (V) = -1
Init P/N = N
Scan Rate (V/s) = 0.2
Segment = 3
Sample Interval (V) = 0.001
Quiet Time (sec) = 2
Sensitivity (A/V) = 0.01
Comp R (ohm) = 1.9

Results:

Channel 1:
Segment 1:

Segment 2:

Segment 3:

Potential/V, Current/A

-1.000, 1.155e-5
-1.001, 5.178e-5
-1.002, 7.274e-5
-1.003, 8.253e-5
-1.004, 8.637e-5
-1.005, 9.342e-5
-1.006, 9.835e-5
-1.007, 9.779e-5
-1.008, 1.001e-4
-1.009, 1.054e-4
-1.010, 1.044e-4
-1.011, 1.044e-4
-1.012, 1.094e-4
-1.013, 1.097e-4
-1.014, 1.076e-4
-1.015, 1.116e-4
-1.016, 1.134e-4
-1.017, 1.115e-4
-1.018, 1.131e-4
-1.019, 1.164e-4
-1.020, 1.148e-4
-1.021, 1.143e-4
-1.022, 1.181e-4
-1.023, 1.183e-4
-1.024, 1.163e-4
-1.025, 1.193e-4
-1.026, 1.210e-4
-1.027, 1.182e-4
-1.028, 1.194e-4
-1.029, 1.228e-4
-1.030, 1.211e-4
-1.031, 1.204e-4
-1.032, 1.236e-4
-1.033, 1.240e-4
-1.034, 1.213e-4
-1.035, 1.238e-4
-1.036, 1.258e-4
-1.037, 1.229e-4
-1.038, 1.240e-4
-1.039, 1.278e-4
-1.040, 1.252e-4
-1.041, 1.244e-4
-1.042, 1.281e-4
-1.043, 1.279e-4
-1.044, 1.252e-4
-1.045, 1.275e-4
-1.046, 1.293e-4
-1.047, 1.268e-4
-1.048, 1.268e-4
-1.049, 1.310e-4
-1.050, 1.296e-4
-1.051, 1.279e-4
-1.052, 1.321e-4
-1.053, 1.316e-4
-1.054, 1.285e-4
-1.055, 1.315e-4
-1.056, 1.329e-4
-1.057, 1.304e-4
-1.058, 1.307e-4
-1.059, 1.340e-4
-1.060, 1.324e-4
-1.061, 1.305e-4
-1.062, 1.346e-4
-1.063, 1.345e-4
-1.064, 1.310e-4
-1.065, 1.346e-4
-1.066, 1.361e-4
-1.067, 1.332e-4
-1.068, 1.341e-4
-1.069, 1.369e-4
-1.070, 1.348e-4
-1.071, 1.337e-4
-1.072, 1.365e-4
-1.073, 1.373e-4
-1.074, 1.340e-4
-1.075, 1.374e-4
-1.076, 1.392e-4
-1.077, 1.360e-4
-1.078, 1.361e-4
-1.079, 1.400e-4
-1.080, 1.371e-4
-1.081, 1.358e-4
-1.082, 1.393e-4
-1.083, 1.392e-4
-1.084, 1.368e-4
-1.085, 1.398e-4
-1.086, 1.413e-4
-1.087, 1.387e-4
-1.088, 1.386e-4
-1.089, 1.421e-4
-1.090, 1.401e-4
-1.091, 1.381e-4
-1.092, 1.421e-4
-1.093, 1.418e-4
-1.094, 1.388e-4
-1.095, 1.419e-4
-1.096, 1.432e-4
-1.097, 1.404e-4
-1.098, 1.406e-4
-1.099, 1.442e-4
-1.100, 1.420e-4
-1.101, 1.408e-4
-1.102, 1.439e-4
-1.103, 1.447e-4
-1.104, 1.409e-4
-1.105, 1.440e-4
-1.106, 1.457e-4
-1.107, 1.424e-4
-1.108, 1.430e-4
-1.109, 1.461e-4
-1.110, 1.445e-4
-1.111, 1.431e-4
-1.112, 1.464e-4
-1.113, 1.468e-4
-1.114, 1.438e-4
-1.115, 1.459e-4
-1.116, 1.480e-4
-1.117, 1.448e-4
-1.118, 1.452e-4
-1.119, 1.487e-4
-1.120, 1.465e-4
-1.121, 1.453e-4
-1.122, 1.491e-4
-1.123, 1.491e-4
-1.124, 1.440e-4
-1.125, 1.420e-4
-1.126, 1.487e-4
-1.127, 1.469e-4
-1.128, 1.475e-4
-1.129, 1.515e-4
-1.130, 1.501e-4
-1.131, 1.482e-4
-1.132, 1.500e-4
-1.133, 1.507e-4
-1.134, 1.484e-4
-1.135, 1.509e-4
-1.136, 1.527e-4
-1.137, 1.499e-4
-1.138, 1.504e-4
-1.139, 1.538e-4
-1.140, 1.524e-4
-1.141, 1.503e-4
-1.142, 1.543e-4
-1.143, 1.542e-4
-1.144, 1.512e-4
-1.145, 1.537e-4
-1.146, 1.557e-4
-1.147, 1.526e-4
-1.148, 1.534e-4
-1.149, 1.570e-4
-1.150, 1.552e-4
-1.151, 1.539e-4
-1.152, 1.573e-4
-1.153, 1.577e-4
-1.154, 1.547e-4
-1.155, 1.570e-4
-1.156, 1.595e-4
-1.157, 1.563e-4
-1.158, 1.569e-4
-1.159, 1.608e-4
-1.160, 1.586e-4
-1.161, 1.573e-4
-1.162, 1.609e-4
-1.163, 1.609e-4
-1.164, 1.586e-4
-1.165, 1.605e-4
-1.166, 1.630e-4
-1.167, 1.605e-4
-1.168, 1.604e-4
-1.169, 1.645e-4
-1.170, 1.630e-4
-1.171, 1.615e-4
-1.172, 1.653e-4
-1.173, 1.655e-4
-1.174, 1.627e-4
-1.175, 1.656e-4
-1.176, 1.678e-4
-1.177, 1.654e-4
-1.178, 1.662e-4
-1.179, 1.694e-4
-1.180, 1.679e-4
-1.181, 1.661e-4
-1.182, 1.702e-4
-1.183, 1.716e-4
-1.184, 1.680e-4
-1.185, 1.708e-4
-1.186, 1.730e-4
-1.187, 1.702e-4
-1.188, 1.708e-4
-1.189, 1.753e-4
-1.190, 1.742e-4
-1.191, 1.730e-4
-1.192, 1.767e-4
-1.193, 1.770e-4
-1.194, 1.746e-4
-1.195, 1.763e-4
-1.196, 1.795e-4
-1.197, 1.771e-4
-1.198, 1.782e-4
-1.199, 1.830e-4
-1.200, 1.816e-4
-1.201, 1.801e-4
-1.202, 1.843e-4
-1.203, 1.846e-4
-1.204, 1.823e-4
-1.205, 1.847e-4
-1.206, 1.881e-4
-1.207, 1.860e-4
-1.208, 1.868e-4
-1.209, 1.912e-4
-1.210, 1.905e-4
-1.211, 1.889e-4
-1.212, 1.931e-4
-1.213, 1.935e-4
-1.214, 1.917e-4
-1.215, 1.951e-4
-1.216, 1.980e-4
-1.217, 1.964e-4
-1.218, 1.976e-4
-1.219, 2.017e-4
-1.220, 2.008e-4
-1.221, 1.996e-4
-1.222, 2.040e-4
-1.223, 2.057e-4
-1.224, 2.039e-4
-1.225, 2.078e-4
-1.226, 2.114e-4
-1.227, 2.093e-4
-1.228, 2.104e-4
-1.229, 2.160e-4
-1.230, 2.147e-4
-1.231, 2.133e-4
-1.232, 2.180e-4
-1.233, 2.201e-4
-1.234, 2.190e-4
-1.235, 2.223e-4
-1.236, 2.264e-4
-1.237, 2.246e-4
-1.238, 2.257e-4
-1.239, 2.308e-4
-1.240, 2.298e-4
-1.241, 2.296e-4
-1.242, 2.348e-4
-1.243, 2.369e-4
-1.244, 2.360e-4
-1.245, 2.394e-4
-1.246, 2.440e-4
-1.247, 2.431e-4
-1.248, 2.439e-4
-1.249, 2.495e-4
-1.250, 2.502e-4
-1.251, 2.497e-4
-1.252, 2.556e-4
-1.253, 2.583e-4
-1.254, 2.571e-4
-1.255, 2.617e-4
-1.256, 2.661e-4
-1.257, 2.653e-4
-1.258, 2.675e-4
-1.259, 2.731e-4
-1.260, 2.747e-4
-1.261, 2.749e-4
-1.262, 2.804e-4
-1.263, 2.836e-4
-1.264, 2.826e-4
-1.265, 2.874e-4
-1.266, 2.924e-4
-1.267, 2.928e-4
-1.268, 2.957e-4
-1.269, 3.018e-4
-1.270, 3.027e-4
-1.271, 3.034e-4
-1.272, 3.092e-4
-1.273, 3.132e-4
-1.274, 3.134e-4
-1.275, 3.186e-4
-1.276, 3.249e-4
-1.277, 3.251e-4
-1.278, 3.278e-4
-1.279, 3.348e-4
-1.280, 3.372e-4
-1.281, 3.387e-4
-1.282, 3.451e-4
-1.283, 3.495e-4
-1.284, 3.510e-4
-1.285, 3.560e-4
-1.286, 3.631e-4
-1.287, 3.645e-4
-1.288, 3.673e-4
-1.289, 3.754e-4
-1.290, 3.783e-4
-1.291, 3.800e-4
-1.292, 3.877e-4
-1.293, 3.927e-4
-1.294, 3.942e-4
-1.295, 4.006e-4
-1.296, 4.078e-4
-1.297, 4.097e-4
-1.298, 4.131e-4
-1.299, 4.214e-4
-1.300, 4.253e-4
-1.301, 4.276e-4
-1.302, 4.360e-4
-1.303, 4.427e-4
-1.304, 4.453e-4
-1.305, 4.526e-4
-1.306, 4.613e-4
-1.307, 4.634e-4
-1.308, 4.682e-4
-1.309, 4.771e-4
-1.310, 4.814e-4
-1.311, 4.853e-4
-1.312, 4.946e-4
-1.313, 5.025e-4
-1.314, 5.061e-4
-1.315, 5.139e-4
-1.316, 5.236e-4
-1.317, 5.266e-4
-1.318, 5.332e-4
-1.319, 5.438e-4
-1.320, 5.493e-4
-1.321, 5.544e-4
-1.322, 5.654e-4
-1.323, 5.733e-4
-1.324, 5.774e-4
-1.325, 5.863e-4
-1.326, 5.966e-4
-1.327, 6.026e-4
-1.328, 6.102e-4
-1.329, 6.222e-4
-1.330, 6.288e-4
-1.331, 6.342e-4
-1.332, 6.458e-4
-1.333, 6.548e-4
-1.334, 6.617e-4
-1.335, 6.727e-4
-1.336, 6.832e-4
-1.337, 6.900e-4
-1.338, 6.999e-4
-1.339, 7.148e-4
-1.340, 7.246e-4
-1.341, 7.308e-4
-1.342, 7.438e-4
-1.343, 7.545e-4
-1.344, 7.611e-4
-1.345, 7.728e-4
-1.346, 7.861e-4
-1.347, 7.950e-4
-1.348, 8.073e-4
-1.349, 8.231e-4
-1.350, 8.338e-4
-1.351, 8.435e-4
-1.352, 8.575e-4
-1.353, 8.697e-4
-1.354, 8.782e-4
-1.355, 8.919e-4
-1.356, 9.090e-4
-1.357, 9.214e-4
-1.358, 9.346e-4
-1.359, 9.517e-4
-1.360, 9.625e-4
-1.361, 9.731e-4
-1.362, 9.895e-4
-1.363, 1.004e-3
-1.364, 1.017e-3
-1.365, 1.033e-3
-1.366, 1.052e-3
-1.367, 1.066e-3
-1.368, 1.080e-3
-1.369, 1.099e-3
-1.370, 1.113e-3
-1.371, 1.127e-3
-1.372, 1.147e-3
-1.373, 1.166e-3
-1.374, 1.182e-3
-1.375, 1.201e-3
-1.376, 1.220e-3
-1.377, 1.236e-3
-1.378, 1.252e-3
-1.379, 1.274e-3
-1.380, 1.292e-3
-1.381, 1.308e-3
-1.382, 1.331e-3
-1.383, 1.353e-3
-1.384, 1.374e-3
-1.385, 1.392e-3
-1.386, 1.414e-3
-1.387, 1.430e-3
-1.388, 1.450e-3
-1.389, 1.477e-3
-1.390, 1.499e-3
-1.391, 1.519e-3
-1.392, 1.543e-3
-1.393, 1.565e-3
-1.394, 1.583e-3
-1.395, 1.606e-3
-1.396, 1.633e-3
-1.397, 1.655e-3
-1.398, 1.681e-3
-1.399, 1.712e-3
-1.400, 1.735e-3
-1.401, 1.757e-3
-1.402, 1.785e-3
-1.403, 1.812e-3
-1.404, 1.835e-3
-1.405, 1.862e-3
-1.406, 1.893e-3
-1.407, 1.918e-3
-1.408, 1.942e-3
-1.409, 1.973e-3
-1.410, 1.999e-3
-1.411, 2.024e-3
-1.412, 2.057e-3
-1.413, 2.084e-3
-1.414, 2.113e-3
-1.415, 2.143e-3
-1.416, 2.175e-3
-1.417, 2.201e-3
-1.418, 2.221e-3
-1.419, 2.283e-3
-1.420, 2.287e-3
-1.421, 2.329e-3
-1.422, 2.357e-3
-1.423, 2.387e-3
-1.424, 2.428e-3
-1.425, 2.451e-3
-1.426, 2.483e-3
-1.427, 2.510e-3
-1.428, 2.539e-3
-1.429, 2.556e-3
-1.430, 2.598e-3
-1.431, 2.642e-3
-1.432, 2.664e-3
-1.433, 2.712e-3
-1.434, 2.746e-3
-1.435, 2.782e-3
-1.436, 2.815e-3
-1.437, 2.843e-3
-1.438, 2.870e-3
-1.439, 2.899e-3
-1.440, 2.949e-3
-1.441, 2.981e-3
-1.442, 3.018e-3
-1.443, 3.053e-3
-1.444, 3.076e-3
-1.445, 3.098e-3
-1.446, 3.134e-3
-1.447, 3.184e-3
-1.448, 3.232e-3
-1.449, 3.266e-3
-1.450, 3.303e-3
-1.451, 3.331e-3
-1.452, 3.368e-3
-1.453, 3.403e-3
-1.454, 3.440e-3
-1.455, 3.486e-3
-1.456, 3.519e-3
-1.457, 3.561e-3
-1.458, 3.595e-3
-1.459, 3.629e-3
-1.460, 3.667e-3
-1.461, 3.699e-3
-1.462, 3.735e-3
-1.463, 3.770e-3
-1.464, 3.805e-3
-1.465, 3.849e-3
-1.466, 3.889e-3
-1.467, 3.937e-3
-1.468, 3.975e-3
-1.469, 4.011e-3
-1.470, 4.023e-3
-1.471, 4.045e-3
-1.472, 4.115e-3
-1.473, 4.152e-3
-1.474, 4.172e-3
-1.475, 4.210e-3
-1.476, 4.256e-3
-1.477, 4.293e-3
-1.478, 4.322e-3
-1.479, 4.359e-3
-1.480, 4.388e-3
-1.481, 4.424e-3
-1.482, 4.465e-3
-1.483, 4.510e-3
-1.484, 4.552e-3
-1.485, 4.598e-3
-1.486, 4.644e-3
-1.487, 4.683e-3
-1.488, 4.756e-3
-1.489, 4.793e-3
-1.490, 4.837e-3
-1.491, 4.863e-3
-1.492, 4.905e-3
-1.493, 4.958e-3
-1.494, 4.991e-3
-1.495, 5.029e-3
-1.496, 5.084e-3
-1.497, 5.115e-3
-1.498, 5.152e-3
-1.499, 5.192e-3
-1.500, 5.230e-3
-1.501, 5.271e-3
-1.502, 5.319e-3
-1.503, 5.352e-3
-1.504, 5.389e-3
-1.505, 5.432e-3
-1.506, 5.481e-3
-1.507, 5.531e-3
-1.508, 5.560e-3
-1.509, 5.600e-3
-1.510, 5.651e-3
-1.511, 5.698e-3
-1.512, 5.749e-3
-1.513, 5.786e-3
-1.514, 5.828e-3
-1.515, 5.874e-3
-1.516, 5.915e-3
-1.517, 5.958e-3
-1.518, 6.005e-3
-1.519, 6.045e-3
-1.520, 6.092e-3
-1.521, 6.120e-3
-1.522, 6.167e-3
-1.523, 6.217e-3
-1.524, 6.278e-3
-1.525, 6.303e-3
-1.526, 6.359e-3
-1.527, 6.411e-3
-1.528, 6.446e-3
-1.529, 6.487e-3
-1.530, 6.524e-3
-1.531, 6.575e-3
-1.532, 6.611e-3
-1.533, 6.637e-3
-1.534, 6.671e-3
-1.535, 6.736e-3
-1.536, 6.794e-3
-1.537, 6.817e-3
-1.538, 6.858e-3
-1.539, 6.914e-3
-1.540, 6.954e-3
-1.541, 7.002e-3
-1.542, 7.048e-3
-1.543, 7.104e-3
-1.544, 7.137e-3
-1.545, 7.171e-3
-1.546, 7.195e-3
-1.547, 7.226e-3
-1.548, 7.295e-3
-1.549, 7.328e-3
-1.550, 7.381e-3
-1.551, 7.418e-3
-1.552, 7.462e-3
-1.553, 7.510e-3
-1.554, 7.570e-3
-1.555, 7.599e-3
-1.556, 7.627e-3
-1.557, 7.685e-3
-1.558, 7.724e-3
-1.559, 7.777e-3
-1.560, 7.824e-3
-1.561, 7.837e-3
-1.562, 7.936e-3
-1.563, 7.976e-3
-1.564, 8.004e-3
-1.565, 8.051e-3
-1.566, 8.147e-3
-1.567, 8.163e-3
-1.568, 8.204e-3
-1.569, 8.253e-3
-1.570, 8.324e-3
-1.571, 8.361e-3
-1.572, 8.401e-3
-1.573, 8.444e-3
-1.574, 8.482e-3
-1.575, 8.527e-3
-1.576, 8.567e-3
-1.577, 8.588e-3
-1.578, 8.635e-3
-1.579, 8.684e-3
-1.580, 8.733e-3
-1.581, 8.759e-3
-1.582, 8.797e-3
-1.583, 8.881e-3
-1.584, 8.911e-3
-1.585, 8.978e-3
-1.586, 9.020e-3
-1.587, 9.018e-3
-1.588, 9.053e-3
-1.589, 9.125e-3
-1.590, 9.158e-3
-1.591, 9.230e-3
-1.592, 9.305e-3
-1.593, 9.400e-3
-1.594, 9.442e-3
-1.595, 9.475e-3
-1.596, 9.497e-3
-1.597, 9.524e-3
-1.598, 9.571e-3
-1.599, 9.627e-3
-1.600, 9.597e-3
-1.599, 9.504e-3
-1.598, 9.464e-3
-1.597, 9.409e-3
-1.596, 9.375e-3
-1.595, 9.299e-3
-1.594, 9.223e-3
-1.593, 9.153e-3
-1.592, 9.088e-3
-1.591, 9.017e-3
-1.590, 8.927e-3
-1.589, 8.852e-3
-1.588, 8.779e-3
-1.587, 8.734e-3
-1.586, 8.704e-3
-1.585, 8.614e-3
-1.584, 8.523e-3
-1.583, 8.471e-3
-1.582, 8.363e-3
-1.581, 8.342e-3
-1.580, 8.266e-3
-1.579, 8.205e-3
-1.578, 8.123e-3
-1.577, 8.092e-3
-1.576, 8.050e-3
-1.575, 7.985e-3
-1.574, 7.943e-3
-1.573, 7.894e-3
-1.572, 7.819e-3
-1.571, 7.752e-3
-1.570, 7.676e-3
-1.569, 7.616e-3
-1.568, 7.578e-3
-1.567, 7.513e-3
-1.566, 7.443e-3
-1.565, 7.397e-3
-1.564, 7.362e-3
-1.563, 7.302e-3
-1.562, 7.245e-3
-1.561, 7.183e-3
-1.560, 7.151e-3
-1.559, 7.078e-3
-1.558, 7.044e-3
-1.557, 6.967e-3
-1.556, 6.890e-3
-1.555, 6.876e-3
-1.554, 6.863e-3
-1.553, 6.779e-3
-1.552, 6.701e-3
-1.551, 6.672e-3
-1.550, 6.645e-3
-1.549, 6.558e-3
-1.548, 6.488e-3
-1.547, 6.441e-3
-1.546, 6.405e-3
-1.545, 6.350e-3
-1.544, 6.341e-3
-1.543, 6.258e-3
-1.542, 6.187e-3
-1.541, 6.180e-3
-1.540, 6.114e-3
-1.539, 6.052e-3
-1.538, 5.993e-3
-1.537, 5.948e-3
-1.536, 5.931e-3
-1.535, 5.870e-3
-1.534, 5.814e-3
-1.533, 5.756e-3
-1.532, 5.747e-3
-1.531, 5.681e-3
-1.530, 5.627e-3
-1.529, 5.601e-3
-1.528, 5.558e-3
-1.527, 5.511e-3
-1.526, 5.470e-3
-1.525, 5.424e-3
-1.524, 5.361e-3
-1.523, 5.315e-3
-1.522, 5.268e-3
-1.521, 5.235e-3
-1.520, 5.199e-3
-1.519, 5.145e-3
-1.518, 5.129e-3
-1.517, 5.078e-3
-1.516, 5.007e-3
-1.515, 4.970e-3
-1.514, 4.930e-3
-1.513, 4.892e-3
-1.512, 4.846e-3
-1.511, 4.807e-3
-1.510, 4.767e-3
-1.509, 4.717e-3
-1.508, 4.676e-3
-1.507, 4.637e-3
-1.506, 4.594e-3
-1.505, 4.560e-3
-1.504, 4.518e-3
-1.503, 4.469e-3
-1.502, 4.428e-3
-1.501, 4.390e-3
-1.500, 4.341e-3
-1.499, 4.302e-3
-1.498, 4.266e-3
-1.497, 4.234e-3
-1.496, 4.198e-3
-1.495, 4.172e-3
-1.494, 4.129e-3
-1.493, 4.084e-3
-1.492, 4.034e-3
-1.491, 3.998e-3
-1.490, 3.950e-3
-1.489, 3.904e-3
-1.488, 3.883e-3
-1.487, 3.865e-3
-1.486, 3.829e-3
-1.485, 3.787e-3
-1.484, 3.751e-3
-1.483, 3.705e-3
-1.482, 3.666e-3
-1.481, 3.624e-3
-1.480, 3.593e-3
-1.479, 3.560e-3
-1.478, 3.535e-3
-1.477, 3.499e-3
-1.476, 3.448e-3
-1.475, 3.411e-3
-1.474, 3.377e-3
-1.473, 3.342e-3
-1.472, 3.308e-3
-1.471, 3.279e-3
-1.470, 3.242e-3
-1.469, 3.203e-3
-1.468, 3.167e-3
-1.467, 3.138e-3
-1.466, 3.109e-3
-1.465, 3.068e-3
-1.464, 3.055e-3
-1.463, 3.015e-3
-1.462, 2.978e-3
-1.461, 2.953e-3
-1.460, 2.927e-3
-1.459, 2.885e-3
-1.458, 2.857e-3
-1.457, 2.835e-3
-1.456, 2.831e-3
-1.455, 2.789e-3
-1.454, 2.717e-3
-1.453, 2.705e-3
-1.452, 2.649e-3
-1.451, 2.640e-3
-1.450, 2.595e-3
-1.449, 2.547e-3
-1.448, 2.515e-3
-1.447, 2.493e-3
-1.446, 2.466e-3
-1.445, 2.446e-3
-1.444, 2.406e-3
-1.443, 2.377e-3
-1.442, 2.347e-3
-1.441, 2.317e-3
-1.440, 2.289e-3
-1.439, 2.281e-3
-1.438, 2.279e-3
-1.437, 2.244e-3
-1.436, 2.207e-3
-1.435, 2.185e-3
-1.434, 2.156e-3
-1.433, 2.128e-3
-1.432, 2.101e-3
-1.431, 2.079e-3
-1.430, 2.050e-3
-1.429, 2.025e-3
-1.428, 2.002e-3
-1.427, 1.976e-3
-1.426, 1.953e-3
-1.425, 1.925e-3
-1.424, 1.908e-3
-1.423, 1.880e-3
-1.422, 1.850e-3
-1.421, 1.823e-3
-1.420, 1.800e-3
-1.419, 1.776e-3
-1.418, 1.751e-3
-1.417, 1.731e-3
-1.416, 1.708e-3
-1.415, 1.682e-3
-1.414, 1.663e-3
-1.413, 1.633e-3
-1.412, 1.607e-3
-1.411, 1.588e-3
-1.410, 1.570e-3
-1.409, 1.549e-3
-1.408, 1.531e-3
-1.407, 1.512e-3
-1.406, 1.480e-3
-1.405, 1.455e-3
-1.404, 1.439e-3
-1.403, 1.418e-3
-1.402, 1.402e-3
-1.401, 1.386e-3
-1.400, 1.366e-3
-1.399, 1.343e-3
-1.398, 1.321e-3
-1.397, 1.312e-3
-1.396, 1.289e-3
-1.395, 1.261e-3
-1.394, 1.243e-3
-1.393, 1.223e-3
-1.392, 1.200e-3
-1.391, 1.183e-3
-1.390, 1.168e-3
-1.389, 1.149e-3
-1.388, 1.133e-3
-1.387, 1.115e-3
-1.386, 1.094e-3
-1.385, 1.075e-3
-1.384, 1.061e-3
-1.383, 1.041e-3
-1.382, 1.019e-3
-1.381, 1.005e-3
-1.380, 9.918e-4
-1.379, 9.733e-4
-1.378, 9.587e-4
-1.377, 9.441e-4
-1.376, 9.253e-4
-1.375, 9.078e-4
-1.374, 8.951e-4
-1.373, 8.779e-4
-1.372, 8.596e-4
-1.371, 8.478e-4
-1.370, 8.341e-4
-1.369, 8.157e-4
-1.368, 8.030e-4
-1.367, 7.887e-4
-1.366, 7.696e-4
-1.365, 7.527e-4
-1.364, 7.407e-4
-1.363, 7.290e-4
-1.362, 7.187e-4
-1.361, 7.070e-4
-1.360, 6.919e-4
-1.359, 6.718e-4
-1.358, 6.585e-4
-1.357, 6.459e-4
-1.356, 6.313e-4
-1.355, 6.196e-4
-1.354, 6.108e-4
-1.353, 5.964e-4
-1.352, 5.810e-4
-1.351, 5.766e-4
-1.350, 5.594e-4
-1.349, 5.420e-4
-1.348, 5.311e-4
-1.347, 5.219e-4
-1.346, 5.059e-4
-1.345, 4.960e-4
-1.344, 4.867e-4
-1.343, 4.738e-4
-1.342, 4.600e-4
-1.341, 4.514e-4
-1.340, 4.435e-4
-1.339, 4.288e-4
-1.338, 4.184e-4
-1.337, 4.106e-4
-1.336, 3.976e-4
-1.335, 3.872e-4
-1.334, 3.829e-4
-1.333, 3.702e-4
-1.332, 3.563e-4
-1.331, 3.473e-4
-1.330, 3.378e-4
-1.329, 3.237e-4
-1.328, 3.133e-4
-1.327, 3.114e-4
-1.326, 2.974e-4
-1.325, 2.889e-4
-1.324, 2.836e-4
-1.323, 2.731e-4
-1.322, 2.617e-4
-1.321, 2.553e-4
-1.320, 2.472e-4
-1.319, 2.348e-4
-1.318, 2.270e-4
-1.317, 2.219e-4
-1.316, 2.107e-4
-1.315, 2.011e-4
-1.314, 1.964e-4
-1.313, 1.870e-4
-1.312, 1.770e-4
-1.311, 1.720e-4
-1.310, 1.647e-4
-1.309, 1.554e-4
-1.308, 1.486e-4
-1.307, 1.435e-4
-1.306, 1.337e-4
-1.305, 1.252e-4
-1.304, 1.212e-4
-1.303, 1.131e-4
-1.302, 1.036e-4
-1.301, 9.991e-5
-1.300, 9.276e-5
-1.299, 8.337e-5
-1.298, 7.878e-5
-1.297, 7.377e-5
-1.296, 6.585e-5
-1.295, 5.840e-5
-1.294, 5.542e-5
-1.293, 4.848e-5
-1.292, 3.971e-5
-1.291, 3.864e-5
-1.290, 3.314e-5
-1.289, 2.341e-5
-1.288, 1.902e-5
-1.287, 1.573e-5
-1.286, 7.190e-6
-1.285, 9.254e-7
-1.284, -8.208e-7
-1.283, -7.411e-6
-1.282, -1.545e-5
-1.281, -1.771e-5
-1.280, -2.231e-5
-1.279, -2.997e-5
-1.278, -3.378e-5
-1.277, -3.510e-5
-1.276, -4.278e-5
-1.275, -4.864e-5
-1.274, -4.959e-5
-1.273, -5.546e-5
-1.272, -6.197e-5
-1.271, -6.404e-5
-1.270, -6.708e-5
-1.269, -7.395e-5
-1.268, -7.718e-5
-1.267, -7.878e-5
-1.266, -8.512e-5
-1.265, -9.034e-5
-1.264, -9.021e-5
-1.263, -9.517e-5
-1.262, -1.018e-4
-1.261, -1.025e-4
-1.260, -1.049e-4
-1.259, -1.117e-4
-1.258, -1.140e-4
-1.257, -1.149e-4
-1.256, -1.204e-4
-1.255, -1.249e-4
-1.254, -1.250e-4
-1.253, -1.287e-4
-1.252, -1.346e-4
-1.251, -1.343e-4
-1.250, -1.361e-4
-1.249, -1.423e-4
-1.248, -1.437e-4
-1.247, -1.436e-4
-1.246, -1.495e-4
-1.245, -1.528e-4
-1.244, -1.527e-4
-1.243, -1.557e-4
-1.242, -1.608e-4
-1.241, -1.605e-4
-1.240, -1.614e-4
-1.239, -1.667e-4
-1.238, -1.688e-4
-1.237, -1.681e-4
-1.236, -1.725e-4
-1.235, -1.761e-4
-1.234, -1.742e-4
-1.233, -1.772e-4
-1.232, -1.812e-4
-1.231, -1.814e-4
-1.230, -1.816e-4
-1.229, -1.871e-4
-1.228, -1.878e-4
-1.227, -1.861e-4
-1.226, -1.915e-4
-1.225, -1.949e-4
-1.224, -1.926e-4
-1.223, -1.953e-4
-1.222, -1.988e-4
-1.221, -1.994e-4
-1.220, -1.995e-4
-1.219, -2.018e-4
-1.218, -2.016e-4
-1.217, -2.004e-4
-1.216, -2.036e-4
-1.215, -2.064e-4
-1.214, -2.064e-4
-1.213, -2.099e-4
-1.212, -2.142e-4
-1.211, -2.124e-4
-1.210, -2.121e-4
-1.209, -2.165e-4
-1.208, -2.164e-4
-1.207, -2.147e-4
-1.206, -2.178e-4
-1.205, -2.195e-4
-1.204, -2.173e-4
-1.203, -2.190e-4
-1.202, -2.225e-4
-1.201, -2.211e-4
-1.200, -2.202e-4
-1.199, -2.241e-4
-1.198, -2.247e-4
-1.197, -2.229e-4
-1.196, -2.265e-4
-1.195, -2.282e-4
-1.194, -2.257e-4
-1.193, -2.272e-4
-1.192, -2.304e-4
-1.191, -2.285e-4
-1.190, -2.284e-4
-1.189, -2.321e-4
-1.188, -2.320e-4
-1.187, -2.297e-4
-1.186, -2.328e-4
-1.185, -2.351e-4
-1.184, -2.320e-4
-1.183, -2.332e-4
-1.182, -2.372e-4
-1.181, -2.352e-4
-1.180, -2.349e-4
-1.179, -2.382e-4
-1.178, -2.385e-4
-1.177, -2.367e-4
-1.176, -2.390e-4
-1.175, -2.404e-4
-1.174, -2.379e-4
-1.173, -2.386e-4
-1.172, -2.442e-4
-1.171, -2.414e-4
-1.170, -2.394e-4
-1.169, -2.427e-4
-1.168, -2.426e-4
-1.167, -2.398e-4
-1.166, -2.429e-4
-1.165, -2.445e-4
-1.164, -2.419e-4
-1.163, -2.430e-4
-1.162, -2.461e-4
-1.161, -2.444e-4
-1.160, -2.429e-4
-1.159, -2.467e-4
-1.158, -2.469e-4
-1.157, -2.438e-4
-1.156, -2.468e-4
-1.155, -2.487e-4
-1.154, -2.456e-4
-1.153, -2.469e-4
-1.152, -2.496e-4
-1.151, -2.488e-4
-1.150, -2.480e-4
-1.149, -2.510e-4
-1.148, -2.512e-4
-1.147, -2.480e-4
-1.146, -2.506e-4
-1.145, -2.527e-4
-1.144, -2.489e-4
-1.143, -2.499e-4
-1.142, -2.535e-4
-1.141, -2.515e-4
-1.140, -2.516e-4
-1.139, -2.568e-4
-1.138, -2.560e-4
-1.137, -2.526e-4
-1.136, -2.551e-4
-1.135, -2.573e-4
-1.134, -2.544e-4
-1.133, -2.553e-4
-1.132, -2.588e-4
-1.131, -2.563e-4
-1.130, -2.544e-4
-1.129, -2.587e-4
-1.128, -2.586e-4
-1.127, -2.559e-4
-1.126, -2.587e-4
-1.125, -2.605e-4
-1.124, -2.573e-4
-1.123, -2.581e-4
-1.122, -2.669e-4
-1.121, -2.767e-4
-1.120, -2.719e-4
-1.119, -2.721e-4
-1.118, -2.702e-4
-1.117, -2.655e-4
-1.116, -2.671e-4
-1.115, -2.683e-4
-1.114, -2.635e-4
-1.113, -2.650e-4
-1.112, -2.683e-4
-1.111, -2.685e-4
-1.110, -2.671e-4
-1.109, -2.690e-4
-1.108, -2.690e-4
-1.107, -2.663e-4
-1.106, -2.704e-4
-1.105, -2.716e-4
-1.104, -2.677e-4
-1.103, -2.685e-4
-1.102, -2.718e-4
-1.101, -2.693e-4
-1.100, -2.684e-4
-1.099, -2.718e-4
-1.098, -2.721e-4
-1.097, -2.695e-4
-1.096, -2.717e-4
-1.095, -2.740e-4
-1.094, -2.712e-4
-1.093, -2.715e-4
-1.092, -2.752e-4
-1.091, -2.730e-4
-1.090, -2.716e-4
-1.089, -2.757e-4
-1.088, -2.752e-4
-1.087, -2.730e-4
-1.086, -2.756e-4
-1.085, -2.773e-4
-1.084, -2.748e-4
-1.083, -2.761e-4
-1.082, -2.776e-4
-1.081, -2.768e-4
-1.080, -2.752e-4
-1.079, -2.784e-4
-1.078, -2.790e-4
-1.077, -2.771e-4
-1.076, -2.799e-4
-1.075, -2.821e-4
-1.074, -2.782e-4
-1.073, -2.787e-4
-1.072, -2.815e-4
-1.071, -2.792e-4
-1.070, -2.783e-4
-1.069, -2.817e-4
-1.068, -2.820e-4
-1.067, -2.796e-4
-1.066, -2.822e-4
-1.065, -2.848e-4
-1.064, -2.815e-4
-1.063, -2.820e-4
-1.062, -2.859e-4
-1.061, -2.839e-4
-1.060, -2.818e-4
-1.059, -2.851e-4
-1.058, -2.812e-4
-1.057, -2.842e-4
-1.056, -2.861e-4
-1.055, -2.879e-4
-1.054, -2.850e-4
-1.053, -2.852e-4
-1.052, -2.888e-4
-1.051, -2.874e-4
-1.050, -2.857e-4
-1.049, -2.895e-4
-1.048, -2.895e-4
-1.047, -2.863e-4
-1.046, -2.887e-4
-1.045, -2.904e-4
-1.044, -2.878e-4
-1.043, -2.887e-4
-1.042, -2.920e-4
-1.041, -2.902e-4
-1.040, -2.886e-4
-1.039, -2.923e-4
-1.038, -2.922e-4
-1.037, -2.889e-4
-1.036, -2.909e-4
-1.035, -2.931e-4
-1.034, -2.902e-4
-1.033, -2.914e-4
-1.032, -2.951e-4
-1.031, -2.932e-4
-1.030, -2.923e-4
-1.029, -2.954e-4
-1.028, -2.959e-4
-1.027, -2.921e-4
-1.026, -2.945e-4
-1.025, -2.970e-4
-1.024, -2.944e-4
-1.023, -2.947e-4
-1.022, -2.982e-4
-1.021, -2.961e-4
-1.020, -2.948e-4
-1.019, -2.989e-4
-1.018, -2.989e-4
-1.017, -2.958e-4
-1.016, -2.979e-4
-1.015, -3.002e-4
-1.014, -2.972e-4
-1.013, -2.973e-4
-1.012, -3.006e-4
-1.011, -2.990e-4
-1.010, -2.976e-4
-1.009, -3.015e-4
-1.008, -3.021e-4
-1.007, -2.991e-4
-1.006, -3.011e-4
-1.005, -3.029e-4
-1.004, -3.000e-4
-1.003, -3.000e-4
-1.002, -3.033e-4
-1.001, -3.021e-4
