Potential V vs RHE, Current mA cm-2
0.013299999999999867,-0.2202705493889862
0.012299999999999978,-1.1362961160515976
0.011299999999999866,-1.6156003044458718
0.010299999999999976,-1.92117794521672
0.009299999999999864,-2.1828995356917518
0.008299999999999974,-2.4007650758709675
0.007299999999999862,-2.576189277054232
0.006299999999999972,-2.706342716641815
0.00529999999999986,-2.794054817233447
0.0042999999999999705,-2.8379108675292635
0.0032999999999998586,-2.8803522065252145
0.0022999999999999687,-2.924208256821031
0.0012999999999998568,-3.0119203574126634
0.00029999999999996696,-3.0996324580042955
-0.000700000000000145,-3.1420737970002466
-0.0017000000000000348,-3.1420737970002466
-0.0027000000000001467,-3.1420737970002466
-0.0037000000000000366,-3.1420737970002466
-0.0047000000000001485,-3.1859298472960624
-0.005700000000000038,-3.2297858975918787
-0.00670000000000015,-3.273641947887695
-0.00770000000000004,-3.317497998183511
-0.008700000000000152,-3.273641947887695
-0.009700000000000042,-3.273641947887695
-0.010700000000000154,-3.317497998183511
-0.011700000000000044,-3.317497998183511
-0.012700000000000156,-3.403795387475278
-0.013700000000000045,-3.447651437771094
-0.014700000000000157,-3.447651437771094
-0.015700000000000047,-3.403795387475278
-0.01670000000000016,-3.403795387475278
-0.01770000000000005,-3.403795387475278
-0.01870000000000016,-3.447651437771094
-0.01970000000000005,-3.4915074880669104
-0.020700000000000163,-3.5353635383627267
-0.021700000000000053,-3.4915074880669104
-0.022700000000000164,-3.4915074880669104
-0.023700000000000054,-3.4915074880669104
-0.024700000000000166,-3.4915074880669104
-0.025700000000000056,-3.5353635383627267
-0.026700000000000168,-3.579219588658543
-0.027700000000000058,-3.579219588658543
-0.02870000000000017,-3.579219588658543
-0.02970000000000006,-3.5353635383627267
-0.03070000000000017,-3.579219588658543
-0.03170000000000006,-3.579219588658543
-0.03270000000000017,-3.623075638954359
-0.03370000000000006,-3.6655169779503103
-0.034700000000000175,-3.623075638954359
-0.035700000000000065,-3.623075638954359
-0.03670000000000018,-3.623075638954359
-0.03770000000000007,-3.623075638954359
-0.03870000000000018,-3.6655169779503103
-0.03970000000000007,-3.6655169779503103
-0.04070000000000018,-3.7093730282461257
-0.04170000000000007,-3.6655169779503103
-0.04270000000000018,-3.6655169779503103
-0.04370000000000007,-3.6655169779503103
-0.044700000000000184,-3.6655169779503103
-0.045700000000000074,-3.7093730282461257
-0.046700000000000186,-3.7532290785419424
-0.047700000000000076,-3.7093730282461257
-0.04870000000000019,-3.7532290785419424
-0.04970000000000008,-3.7093730282461257
-0.05070000000000019,-3.7093730282461257
-0.05170000000000008,-3.7093730282461257
-0.05270000000000019,-3.7532290785419424
-0.05370000000000008,-3.7970851288377587
-0.05470000000000019,-3.7970851288377587
-0.05570000000000008,-3.7532290785419424
-0.056700000000000195,-3.7532290785419424
-0.057700000000000085,-3.7532290785419424
-0.058700000000000196,-3.7532290785419424
-0.059700000000000086,-3.7970851288377587
-0.0607000000000002,-3.840941179133574
-0.06170000000000009,-3.840941179133574
-0.0627000000000002,-3.7970851288377587
-0.06370000000000009,-3.7970851288377587
-0.0647000000000002,-3.7970851288377587
-0.06570000000000009,-3.840941179133574
-0.0667000000000002,-3.840941179133574
-0.0677000000000001,-3.884797229429391
-0.0687000000000002,-3.840941179133574
-0.0697000000000001,-3.840941179133574
-0.07070000000000021,-3.840941179133574
-0.0717000000000001,-3.840941179133574
-0.07270000000000021,-3.884797229429391
-0.0737000000000001,-3.884797229429391
-0.07470000000000021,-3.884797229429391
-0.0757000000000001,-3.840941179133574
-0.07670000000000021,-3.840941179133574
-0.0777000000000001,-3.840941179133574
-0.07870000000000021,-3.884797229429391
-0.0797000000000001,-3.927238568425342
-0.08070000000000022,-3.927238568425342
-0.0817000000000001,-3.884797229429391
-0.08270000000000022,-3.884797229429391
-0.08370000000000011,-3.884797229429391
-0.08470000000000022,-3.884797229429391
-0.08570000000000011,-3.927238568425342
-0.08670000000000022,-3.971094618721158
-0.08770000000000011,-3.971094618721158
-0.08870000000000022,-3.927238568425342
-0.08970000000000011,-3.927238568425342
-0.09070000000000022,-3.927238568425342
-0.09170000000000011,-3.927238568425342
-0.09270000000000023,-3.971094618721158
-0.09370000000000012,-3.971094618721158
-0.09470000000000023,-3.971094618721158
-0.09570000000000012,-3.927238568425342
-0.09670000000000023,-3.927238568425342
-0.09770000000000012,-3.927238568425342
-0.09870000000000023,-3.971094618721158
-0.09970000000000012,-4.014950669016974
-0.10070000000000023,-4.014950669016974
-0.10170000000000012,-3.971094618721158
-0.10270000000000024,-3.971094618721158
-0.10370000000000013,-3.971094618721158
-0.10470000000000024,-4.014950669016974
-0.10570000000000013,-4.014950669016974
-0.10670000000000024,-4.014950669016974
-0.10770000000000013,-4.0588067193127895
-0.10870000000000024,-4.0588067193127895
-0.10970000000000013,-4.014950669016974
-0.11070000000000024,-4.014950669016974
-0.11170000000000013,-4.0588067193127895
-0.11270000000000002,-4.102662769608606
-0.11370000000000013,-4.102662769608606
-0.11470000000000002,-4.0588067193127895
-0.11570000000000014,-4.0588067193127895
-0.11670000000000003,-4.0588067193127895
-0.11770000000000014,-4.0588067193127895
-0.11870000000000003,-4.102662769608606
-0.11970000000000014,-4.146518819904423
-0.12070000000000003,-4.146518819904423
-0.12170000000000014,-4.146518819904423
-0.12270000000000003,-4.102662769608606
-0.12370000000000014,-4.102662769608606
-0.12470000000000003,-4.102662769608606
-0.12570000000000014,-4.146518819904423
-0.12670000000000003,-4.1889601589003735
-0.12770000000000015,-4.146518819904423
-0.12870000000000004,-4.102662769608606
-0.12970000000000015,-4.102662769608606
-0.13070000000000004,-4.102662769608606
-0.13170000000000015,-4.146518819904423
-0.13270000000000004,-4.146518819904423
-0.13370000000000015,-4.1889601589003735
-0.13470000000000004,-4.1889601589003735
-0.13570000000000015,-4.146518819904423
-0.13670000000000004,-4.146518819904423
-0.13770000000000016,-4.146518819904423
-0.13870000000000005,-4.1889601589003735
-0.13970000000000016,-4.1889601589003735
-0.14070000000000005,-4.23281620919619
-0.14170000000000016,-4.1889601589003735
-0.14270000000000005,-4.1889601589003735
-0.14370000000000016,-4.1889601589003735
-0.14470000000000005,-4.1889601589003735
-0.14570000000000016,-4.23281620919619
-0.14670000000000005,-4.276672259492005
-0.14770000000000016,-4.276672259492005
-0.14870000000000005,-4.23281620919619
-0.14970000000000017,-4.23281620919619
-0.15070000000000006,-4.1889601589003735
-0.15170000000000017,-4.1889601589003735
-0.15270000000000006,-4.23281620919619
-0.15370000000000017,-4.276672259492005
-0.15470000000000006,-4.23281620919619
-0.15570000000000017,-4.23281620919619
-0.15670000000000006,-4.23281620919619
-0.15770000000000017,-4.23281620919619
-0.15870000000000006,-4.276672259492005
-0.15970000000000018,-4.3205283097878215
-0.16070000000000007,-4.3205283097878215
-0.16170000000000018,-4.276672259492005
-0.16270000000000007,-4.23281620919619
-0.16370000000000018,-4.276672259492005
-0.16470000000000007,-4.3205283097878215
-0.16570000000000018,-4.3205283097878215
-0.16670000000000007,-4.364384360083638
-0.16770000000000018,-4.364384360083638
-0.16870000000000007,-4.364384360083638
-0.16970000000000018,-4.3205283097878215
-0.17070000000000007,-4.3205283097878215
-0.17170000000000019,-4.364384360083638
-0.17270000000000008,-4.406825699079589
-0.1737000000000002,-4.538393849967037
-0.17470000000000008,-4.582249900262854
-0.1757000000000002,-4.582249900262854
-0.17670000000000008,-4.582249900262854
-0.1777000000000002,-4.582249900262854
-0.17870000000000008,-4.582249900262854
-0.1797000000000002,-4.582249900262854
-0.18070000000000008,-4.626105950558669
-0.1817000000000002,-4.582249900262854
-0.18270000000000008,-4.582249900262854
-0.1837000000000002,-4.538393849967037
-0.1847000000000001,-4.582249900262854
-0.1857000000000002,-4.626105950558669
-0.1867000000000001,-4.668547289554621
-0.1877000000000002,-4.668547289554621
-0.1887000000000001,-4.626105950558669
-0.1897000000000002,-4.626105950558669
-0.1907000000000001,-4.626105950558669
-0.1917000000000001,-4.668547289554621
-0.19269999999999998,-4.712403339850438
-0.1937000000000001,-4.756259390146253
-0.19469999999999998,-4.712403339850438
-0.1957000000000001,-4.712403339850438
-0.19669999999999999,-4.712403339850438
-0.1977000000000001,-4.712403339850438
-0.1987,-4.756259390146253
-0.1997000000000001,-4.800115440442069
-0.2007,-4.843971490737885
-0.2017000000000001,-4.843971490737885
-0.2027,-4.843971490737885
-0.2037000000000001,-4.843971490737885
-0.2047,-4.843971490737885
-0.2057000000000001,-4.887827541033701
-0.2067,-4.974124930325469
-0.2077000000000001,-4.974124930325469
-0.2087,-4.9302688800296535
-0.2097000000000001,-4.9302688800296535
-0.2107,-4.9302688800296535
-0.2117000000000001,-4.974124930325469
-0.2127,-5.0618370309171015
-0.2137000000000001,-5.105693081212917
-0.2147,-5.105693081212917
-0.2157000000000001,-5.105693081212917
-0.2167,-5.105693081212917
-0.21770000000000012,-5.105693081212917
-0.2187,-5.149549131508733
-0.21970000000000012,-5.191990470504685
-0.2207,-5.235846520800501
-0.22170000000000012,-5.235846520800501
-0.2227,-5.235846520800501
-0.22370000000000012,-5.235846520800501
-0.2247,-5.323558621392133
-0.22570000000000012,-5.367414671687949
-0.2267,-5.411270721983764
-0.22770000000000012,-5.453712060979717
-0.22870000000000001,-5.453712060979717
-0.22970000000000013,-5.453712060979717
-0.23070000000000002,-5.453712060979717
-0.23170000000000013,-5.497568111275533
-0.23270000000000002,-5.585280211867165
-0.23370000000000013,-5.629136262162981
-0.23470000000000002,-5.629136262162981
-0.23570000000000013,-5.672992312458796
-0.23670000000000002,-5.672992312458796
-0.2376999999999999,-5.672992312458796
-0.23870000000000002,-5.759289701750564
-0.2396999999999999,-5.80314575204638
-0.24070000000000003,-5.847001802342197
-0.24169999999999991,-5.890857852638012
-0.24270000000000003,-5.890857852638012
-0.24369999999999992,-5.890857852638012
-0.24470000000000003,-5.9347139029338285
-0.24569999999999992,-6.021011292225596
-0.24670000000000003,-6.064867342521412
-0.24769999999999992,-6.108723392817228
-0.24870000000000003,-6.108723392817228
-0.24969999999999992,-6.152579443113044
-0.25070000000000003,-6.196435493408861
-0.2516999999999999,-6.238876832404812
-0.25270000000000004,-6.326588932996443
-0.2536999999999999,-6.37044498329226
-0.25470000000000004,-6.458157083883892
-0.2556999999999999,-6.458157083883892
-0.25670000000000004,-6.500598422879844
-0.25769999999999993,-6.500598422879844
-0.25870000000000004,-6.588310523471475
-0.25969999999999993,-6.6760226240631075
-0.26070000000000004,-6.719878674358924
-0.26169999999999993,-6.762320013354876
-0.26270000000000004,-6.762320013354876
-0.26369999999999993,-6.806176063650692
-0.26470000000000005,-6.850032113946507
-0.26569999999999994,-6.981600264833956
-0.26670000000000005,-7.067897654125724
-0.26769999999999994,-7.111753704421539
-0.26870000000000005,-7.155609754717355
-0.26969999999999994,-7.155609754717355
-0.27070000000000005,-7.243321855308987
-0.27169999999999994,-7.28576319430494
-0.27270000000000005,-7.4173313451923875
-0.27369999999999994,-7.461187395488204
-0.27470000000000006,-7.5474847847799715
-0.27569999999999995,-7.5474847847799715
-0.27670000000000006,-7.591340835075788
-0.27769999999999995,-7.679052935667419
-0.27870000000000006,-7.7653503249591855
-0.27969999999999995,-7.853062425550818
-0.28070000000000006,-7.940774526142452
-0.28169999999999995,-7.984630576438266
-0.28270000000000006,-8.027071915434218
-0.28369999999999995,-8.11478401602585
-0.28470000000000006,-8.202496116617484
-0.28569999999999995,-8.288793505909249
-0.28670000000000007,-8.4203616567967
-0.28769999999999996,-8.464217707092514
-0.28870000000000007,-8.55051509638428
-0.28969999999999996,-8.594371146680096
-0.29070000000000007,-8.638227196975913
-0.29169999999999996,-8.769795347863363
-0.29270000000000007,-8.85609273715513
-0.29369999999999996,-8.987660888042578
-0.2947000000000001,-9.073958277334345
-0.29569999999999996,-9.11781432763016
-0.2967000000000001,-9.161670377925978
-0.29769999999999996,-9.24938247851761
-0.2987000000000001,-9.379535918105192
-0.29969999999999997,-9.511104068992642
-0.3007000000000001,-9.59740145828441
-0.30169999999999997,-9.685113558876042
-0.3027000000000001,-9.772825659467674
-0.30369999999999997,-9.85912304875944
-0.3047000000000001,-9.946835149351072
-0.30569999999999997,-10.078403300238522
-0.3067000000000001,-10.208556739826104
-0.3077,-10.340124890713554
-0.3087000000000001,-10.382566229709504
-0.3097,-10.470278330301136
-0.3107000000000001,-10.557990430892769
-0.3117,-10.731999920776168
-0.3127000000000001,-10.863568071663616
-0.3137,-10.993721511251199
-0.3147000000000001,-11.123874950838783
-0.3157,-11.211587051430415
-0.3167000000000001,-11.299299152022046
-0.3177,-11.42945259160963
-0.3187000000000001,-11.56102074249708
-0.3197,-11.73503023238048
-0.3207000000000001,-11.86659838326793
-0.3217,-11.952895772559694
-0.3227000000000001,-12.084463923447142
-0.3237,-12.170761312738911
-0.3247000000000001,-12.346185513922174
-0.3257,-12.476338953509758
-0.3267000000000001,-12.651763154693022
-0.3277,-12.825772644576423
-0.3287000000000001,-12.955926084164007
-0.3297,-13.087494235051453
-0.3307000000000001,-13.217647674639037
-0.3317,-13.3930718758223
-0.3327000000000001,-13.567081365705702
-0.3337,-13.741090855589102
-0.3347000000000001,-13.872659006476551
-0.3357,-14.046668496359947
-0.3367000000000001,-14.175407224647667
-0.3377,-14.345172580631472
-0.3387000000000001,-14.529085049613924
-0.3397,-14.741291744593681
-0.3407000000000001,-14.925204213576137
-0.3417,-15.05252823056399
-0.3427000000000001,-15.222293586547794
-0.3437,-15.349617603535648
-0.3447000000000001,-15.533530072518102
-0.3457,-15.70329542850191
-0.3467000000000001,-15.91550212348166
-0.3477,-16.141855931460068
-0.3487000000000001,-16.269179948447924
-0.3497,-16.438945304431726
-0.3507000000000001,-16.665299112410132
-0.3517,-16.877505807389888
-0.3527000000000001,-17.103859615368293
-0.3537,-17.316066310348052
-0.3547000000000001,-17.48583166633185
-0.3557,-17.71218547431026
-0.35670000000000013,-17.881950830294063
-0.3577,-18.10830463827247
-0.35870000000000013,-18.320511333252224
-0.3597,-18.589306480226583
-0.36070000000000013,-18.80151317520634
-0.3617,-19.01371987018609
-0.3626999999999999,-19.2400736781645
-0.3637,-19.409839034148305
-0.3646999999999999,-19.537163051136158
-0.3657,-19.805958198110513
-0.3666999999999999,-19.97572355409432
-0.3677,-20.244518701068674
-0.3686999999999999,-20.683079204026836
-0.36970000000000003,-20.93772723800254
-0.3706999999999999,-21.149933932982297
-0.37170000000000003,-21.418729079956652
-0.3726999999999999,-21.67337711393236
-0.37370000000000003,-21.94217226090672
-0.3746999999999999,-22.196820294882425
-0.37570000000000003,-22.33829142486893
-0.3766999999999999,-22.67782213683654
-0.37770000000000004,-22.946617283810895
-0.3786999999999999,-23.300295108777156
-0.37970000000000004,-23.682267159740714
-0.3806999999999999,-24.035944984706973
-0.38170000000000004,-24.290593018682678
-0.38269999999999993,-24.559388165657033
-0.38370000000000004,-24.771594860636792
-0.38469999999999993,-25.0828313466071
-0.38570000000000004,-25.43650917157336
-0.38669999999999993,-25.73359854454502
-0.38770000000000004,-26.129717708507226
-0.38869999999999993,-26.38436574248293
-0.38970000000000005,-26.483395533473487
-0.39069999999999994,-26.822926245441096
-0.39170000000000005,-27.091721392415455
-0.39269999999999994,-27.38881076538711
-0.39370000000000005,-28.05372507632368
-0.39469999999999994,-28.619609596269694
-0.39570000000000005,-28.91669896924135
-0.39669999999999994,-29.27037679420761
-0.39770000000000005,-29.525024828183312
-0.39869999999999994,-29.708937297165768
-0.39970000000000006,-30.147497800123933
-0.40069999999999995,-30.487028512091538
-0.40170000000000006,-30.8407063370578
-0.40269999999999995,-31.19438416202406
-0.40370000000000006,-31.533914873991666
-0.40469999999999995,-32.01491671594578
-0.40570000000000006,-32.66568391388369
-0.40669999999999995,-33.10424441684186
-0.40770000000000006,-33.50036358080407
-0.40869999999999995,-33.85404140577033
-0.40970000000000006,-34.236013456733886
-0.41069999999999995,-34.58969128170015
-0.41170000000000007,-35.02825178465831
-0.41269999999999996,-35.50925362661242
-0.41370000000000007,-35.94781412957058
-0.41469999999999996,-36.37222751953009
-0.41570000000000007,-36.725905344496354
-0.41669999999999996,-37.164465847454515
-0.41770000000000007,-37.56058501141672
-0.41869999999999996,-38.08402819236679
-0.4197000000000001,-38.5650300343209
-0.42069999999999996,-39.08847321527096
-0.4217000000000001,-39.51288660523048
-0.42269999999999996,-39.99388844718459
-0.4237000000000001,-41.083216148080666
-0.42469999999999997,-41.606659329030734
-0.4257000000000001,-42.00277849299294
-0.42669999999999997,-42.39889765695515
-0.4277000000000001,-42.837458159913304
-0.42869999999999997,-43.31846000186743
-0.4297000000000001,-43.84190318281749
-0.43069999999999997,-44.4077877027635
-0.4317000000000001,-44.88878954471762
-0.4327,-45.32735004767578
-0.4337000000000001,-46.19032394059345
-0.4347,-46.67132578254756
-0.4357000000000001,-47.36453431948143
-0.4367,-47.067444946509774
-0.4377000000000001,-48.029448630417996
-0.4387,-48.63777448935996
-0.4397000000000001,-49.20365900930597
-0.4407,-49.76954352925199
-0.4417000000000001,-50.335428049198
-0.4427,-50.81642989115212
-0.4437000000000001,-51.25499039411028
-0.4447,-51.65110955807249
-0.4457000000000001,-52.34431809500636
-0.4467,-52.64140746797801
-0.4477000000000001,-53.39120445690648
-0.4487,-53.999530315848446
-0.4497000000000001,-54.73518019177827
-0.4507,-55.484977180706736
-0.4517000000000001,-56.05086170065276
-0.4527,-56.70162889859067
-0.4537000000000001,-56.65918755959472
-0.4547,-57.53630856551105
-0.4557000000000001,-58.35684111943277
-0.4567,-59.27640346434504
-0.4577000000000001,-59.7998466452951
-0.4587,-60.19596580925731
-0.4597000000000001,-60.59208497321952
-0.4607,-60.80429166819927
-0.4617000000000001,-61.37017618814529
-0.4627,-61.89361936909536
-0.4637000000000001,-62.501945228037314
-0.4647,-63.15271242597524
-0.4657000000000001,-63.81762673691181
-0.4667,-64.51083527384567
-0.4677000000000001,-65.5577216357458
-0.4687,-66.60460799764593
-0.4697000000000001,-66.9582858226122
-0.4707,-67.52417034255821
-0.4717000000000001,-67.82125971552985
-0.4727,-68.30226155748396
-0.4737000000000001,-68.91058741642594
-0.4747,-69.26426524139221
-0.4757000000000001,-69.74526708334632
-0.4767,-70.57994675026669
-0.4777000000000001,-71.35803796519245
-0.4787,-72.40492432709259
-0.4797000000000001,-72.80104349105478
-0.4807,-73.15472131602105
-0.48170000000000013,-74.20160767792116
-0.4827,-74.8523748758591
-0.48370000000000013,-75.6729074297808
-0.4847,-76.33782174071737
-0.48570000000000013,-77.03103027765125
-0.4867,-78.03547530055542
-0.4876999999999999,-78.72868383748929
-0.4887,-79.25212701843935
-0.4896999999999999,-79.69068752139752
-0.4907,-80.34145471933543
-0.4916999999999999,-80.9497805782774
-0.4927,-81.3458997422396
-0.4936999999999999,-81.74201890620182
-0.49470000000000003,-82.61913991211814
-0.4956999999999999,-83.18502443206415
-0.49670000000000003,-83.70846761301424
-0.4976999999999999,-84.8826779919022
-0.49870000000000003,-85.61832786783202
-0.4996999999999999,-86.32568351776455
-0.5007,-86.7076555687281
-0.5016999999999999,-87.75454193062824
-0.5027,-88.46189758056073
-0.5036999999999999,-88.80142829252836
-0.5047,-89.11266477849867
-0.5056999999999999,-90.11710980140283
-0.5067,-91.03667214631511
-0.5076999999999999,-91.46108553627462
-0.5087,-92.42308922018285
-0.5096999999999999,-92.94653240113291
-0.5107,-93.69632939006138
