Mar. 15, 2025   17:11:18
Cyclic Voltammetry
File: c:/users/guazh/data/banditlqround7_x0exp891_r5/2025-03-03-exp904\exp904-2025-03-15t16_54_43-arkoh\exp904_cv_sr_900mvs_efin_-1600mv.bin
Data Source:  Experiment
Instrument Model:  CHI760E
Header: CV ran at 900 mVs
Note: 

Init E (V) = -1
High E (V) = -1
Low E (V) = -1.6
Final E (V) = -1
Init P/N = N
Scan Rate (V/s) = 0.9
Segment = 3
Sample Interval (V) = 0.001
Quiet Time (sec) = 2
Sensitivity (A/V) = 0.01
Comp R (ohm) = 1.9

Results:

Channel 1:
Segment 1:

Segment 2:

Segment 3:

Potential/V, Current/A

-1.000, 2.174e-5
-1.001, 1.050e-4
-1.002, 1.697e-4
-1.003, 2.191e-4
-1.004, 2.561e-4
-1.005, 2.869e-4
-1.006, 3.146e-4
-1.007, 3.393e-4
-1.008, 3.609e-4
-1.009, 3.794e-4
-1.010, 3.948e-4
-1.011, 4.071e-4
-1.012, 4.195e-4
-1.013, 4.287e-4
-1.014, 4.380e-4
-1.015, 4.441e-4
-1.016, 4.503e-4
-1.017, 4.565e-4
-1.018, 4.626e-4
-1.019, 4.688e-4
-1.020, 4.719e-4
-1.021, 4.780e-4
-1.022, 4.842e-4
-1.023, 4.873e-4
-1.024, 4.935e-4
-1.025, 4.996e-4
-1.026, 4.996e-4
-1.027, 5.058e-4
-1.028, 5.058e-4
-1.029, 5.089e-4
-1.030, 5.120e-4
-1.031, 5.120e-4
-1.032, 5.150e-4
-1.033, 5.150e-4
-1.034, 5.181e-4
-1.035, 5.212e-4
-1.036, 5.243e-4
-1.037, 5.274e-4
-1.038, 5.305e-4
-1.039, 5.335e-4
-1.040, 5.335e-4
-1.041, 5.366e-4
-1.042, 5.366e-4
-1.043, 5.397e-4
-1.044, 5.397e-4
-1.045, 5.397e-4
-1.046, 5.428e-4
-1.047, 5.397e-4
-1.048, 5.428e-4
-1.049, 5.459e-4
-1.050, 5.459e-4
-1.051, 5.459e-4
-1.052, 5.489e-4
-1.053, 5.520e-4
-1.054, 5.520e-4
-1.055, 5.551e-4
-1.056, 5.551e-4
-1.057, 5.582e-4
-1.058, 5.582e-4
-1.059, 5.582e-4
-1.060, 5.582e-4
-1.061, 5.582e-4
-1.062, 5.582e-4
-1.063, 5.582e-4
-1.064, 5.582e-4
-1.065, 5.613e-4
-1.066, 5.613e-4
-1.067, 5.644e-4
-1.068, 5.644e-4
-1.069, 5.674e-4
-1.070, 5.674e-4
-1.071, 5.705e-4
-1.072, 5.705e-4
-1.073, 5.736e-4
-1.074, 5.705e-4
-1.075, 5.705e-4
-1.076, 5.705e-4
-1.077, 5.705e-4
-1.078, 5.705e-4
-1.079, 5.705e-4
-1.080, 5.705e-4
-1.081, 5.736e-4
-1.082, 5.736e-4
-1.083, 5.767e-4
-1.084, 5.767e-4
-1.085, 5.798e-4
-1.086, 5.798e-4
-1.087, 5.798e-4
-1.088, 5.798e-4
-1.089, 5.798e-4
-1.090, 5.798e-4
-1.091, 5.798e-4
-1.092, 5.798e-4
-1.093, 5.798e-4
-1.094, 5.829e-4
-1.095, 5.798e-4
-1.096, 5.829e-4
-1.097, 5.859e-4
-1.098, 5.859e-4
-1.099, 5.859e-4
-1.100, 5.921e-4
-1.101, 5.921e-4
-1.102, 5.921e-4
-1.103, 5.921e-4
-1.104, 5.921e-4
-1.105, 5.921e-4
-1.106, 5.921e-4
-1.107, 5.890e-4
-1.108, 5.921e-4
-1.109, 5.890e-4
-1.110, 5.890e-4
-1.111, 5.890e-4
-1.112, 5.921e-4
-1.113, 5.952e-4
-1.114, 5.952e-4
-1.115, 5.952e-4
-1.116, 5.983e-4
-1.117, 5.983e-4
-1.118, 5.983e-4
-1.119, 5.952e-4
-1.120, 5.983e-4
-1.121, 5.983e-4
-1.122, 5.952e-4
-1.123, 5.952e-4
-1.124, 5.983e-4
-1.125, 5.952e-4
-1.126, 5.983e-4
-1.127, 6.014e-4
-1.128, 6.014e-4
-1.129, 6.044e-4
-1.130, 6.044e-4
-1.131, 6.044e-4
-1.132, 6.044e-4
-1.133, 6.044e-4
-1.134, 6.044e-4
-1.135, 6.044e-4
-1.136, 6.044e-4
-1.137, 6.044e-4
-1.138, 6.044e-4
-1.139, 6.044e-4
-1.140, 6.044e-4
-1.141, 6.075e-4
-1.142, 6.075e-4
-1.143, 6.106e-4
-1.144, 6.106e-4
-1.145, 6.137e-4
-1.146, 6.137e-4
-1.147, 6.168e-4
-1.148, 6.137e-4
-1.149, 6.137e-4
-1.150, 6.137e-4
-1.151, 6.137e-4
-1.152, 6.137e-4
-1.153, 6.137e-4
-1.154, 6.137e-4
-1.155, 6.137e-4
-1.156, 6.168e-4
-1.157, 6.168e-4
-1.158, 6.168e-4
-1.159, 6.199e-4
-1.160, 6.199e-4
-1.161, 6.229e-4
-1.162, 6.229e-4
-1.163, 6.229e-4
-1.164, 6.229e-4
-1.165, 6.229e-4
-1.166, 6.229e-4
-1.167, 6.199e-4
-1.168, 6.199e-4
-1.169, 6.229e-4
-1.170, 6.199e-4
-1.171, 6.229e-4
-1.172, 6.229e-4
-1.173, 6.260e-4
-1.174, 6.291e-4
-1.175, 6.291e-4
-1.176, 6.291e-4
-1.177, 6.322e-4
-1.178, 6.322e-4
-1.179, 6.291e-4
-1.180, 6.322e-4
-1.181, 6.291e-4
-1.182, 6.291e-4
-1.183, 6.322e-4
-1.184, 6.322e-4
-1.185, 6.322e-4
-1.186, 6.322e-4
-1.187, 6.353e-4
-1.188, 6.384e-4
-1.189, 6.384e-4
-1.190, 6.414e-4
-1.191, 6.414e-4
-1.192, 6.414e-4
-1.193, 6.445e-4
-1.194, 6.445e-4
-1.195, 6.414e-4
-1.196, 6.445e-4
-1.197, 6.414e-4
-1.198, 6.414e-4
-1.199, 6.445e-4
-1.200, 6.414e-4
-1.201, 6.445e-4
-1.202, 6.476e-4
-1.203, 6.507e-4
-1.204, 6.507e-4
-1.205, 6.538e-4
-1.206, 6.538e-4
-1.207, 6.569e-4
-1.208, 6.569e-4
-1.209, 6.569e-4
-1.210, 6.569e-4
-1.211, 6.599e-4
-1.212, 6.599e-4
-1.213, 6.599e-4
-1.214, 6.599e-4
-1.215, 6.599e-4
-1.216, 6.630e-4
-1.217, 6.661e-4
-1.218, 6.661e-4
-1.219, 6.692e-4
-1.220, 6.723e-4
-1.221, 6.723e-4
-1.222, 6.754e-4
-1.223, 6.754e-4
-1.224, 6.754e-4
-1.225, 6.784e-4
-1.226, 6.815e-4
-1.227, 6.784e-4
-1.228, 6.815e-4
-1.229, 6.846e-4
-1.230, 6.846e-4
-1.231, 6.877e-4
-1.232, 6.908e-4
-1.233, 6.908e-4
-1.234, 6.939e-4
-1.235, 6.969e-4
-1.236, 6.969e-4
-1.237, 7.000e-4
-1.238, 7.000e-4
-1.239, 7.031e-4
-1.240, 7.031e-4
-1.241, 7.062e-4
-1.242, 7.062e-4
-1.243, 7.062e-4
-1.244, 7.093e-4
-1.245, 7.093e-4
-1.246, 7.154e-4
-1.247, 7.185e-4
-1.248, 7.216e-4
-1.249, 7.247e-4
-1.250, 7.278e-4
-1.251, 7.309e-4
-1.252, 7.339e-4
-1.253, 7.339e-4
-1.254, 7.370e-4
-1.255, 7.370e-4
-1.256, 7.401e-4
-1.257, 7.432e-4
-1.258, 7.432e-4
-1.259, 7.463e-4
-1.260, 7.463e-4
-1.261, 7.524e-4
-1.262, 7.555e-4
-1.263, 7.586e-4
-1.264, 7.617e-4
-1.265, 7.679e-4
-1.266, 7.709e-4
-1.267, 7.740e-4
-1.268, 7.771e-4
-1.269, 7.771e-4
-1.270, 7.833e-4
-1.271, 7.833e-4
-1.272, 7.863e-4
-1.273, 7.894e-4
-1.274, 7.925e-4
-1.275, 7.956e-4
-1.276, 8.018e-4
-1.277, 8.048e-4
-1.278, 8.110e-4
-1.279, 8.172e-4
-1.280, 8.233e-4
-1.281, 8.264e-4
-1.282, 8.295e-4
-1.283, 8.357e-4
-1.284, 8.388e-4
-1.285, 8.418e-4
-1.286, 8.449e-4
-1.287, 8.480e-4
-1.288, 8.542e-4
-1.289, 8.573e-4
-1.290, 8.603e-4
-1.291, 8.665e-4
-1.292, 8.727e-4
-1.293, 8.758e-4
-1.294, 8.819e-4
-1.295, 8.881e-4
-1.296, 8.943e-4
-1.297, 9.004e-4
-1.298, 9.035e-4
-1.299, 9.097e-4
-1.300, 9.128e-4
-1.301, 9.189e-4
-1.302, 9.220e-4
-1.303, 9.282e-4
-1.304, 9.343e-4
-1.305, 9.374e-4
-1.306, 9.467e-4
-1.307, 9.528e-4
-1.308, 9.590e-4
-1.309, 9.683e-4
-1.310, 9.744e-4
-1.311, 9.806e-4
-1.312, 9.868e-4
-1.313, 9.929e-4
-1.314, 9.991e-4
-1.315, 1.005e-3
-1.316, 1.011e-3
-1.317, 1.018e-3
-1.318, 1.024e-3
-1.319, 1.030e-3
-1.320, 1.036e-3
-1.321, 1.045e-3
-1.322, 1.055e-3
-1.323, 1.064e-3
-1.324, 1.073e-3
-1.325, 1.082e-3
-1.326, 1.088e-3
-1.327, 1.098e-3
-1.328, 1.104e-3
-1.329, 1.113e-3
-1.330, 1.119e-3
-1.331, 1.129e-3
-1.332, 1.138e-3
-1.333, 1.141e-3
-1.334, 1.153e-3
-1.335, 1.159e-3
-1.336, 1.169e-3
-1.337, 1.181e-3
-1.338, 1.190e-3
-1.339, 1.199e-3
-1.340, 1.209e-3
-1.341, 1.218e-3
-1.342, 1.227e-3
-1.343, 1.236e-3
-1.344, 1.246e-3
-1.345, 1.258e-3
-1.346, 1.267e-3
-1.347, 1.277e-3
-1.348, 1.289e-3
-1.349, 1.298e-3
-1.350, 1.310e-3
-1.351, 1.320e-3
-1.352, 1.332e-3
-1.353, 1.344e-3
-1.354, 1.357e-3
-1.355, 1.372e-3
-1.356, 1.384e-3
-1.357, 1.397e-3
-1.358, 1.409e-3
-1.359, 1.421e-3
-1.360, 1.434e-3
-1.361, 1.446e-3
-1.362, 1.455e-3
-1.363, 1.468e-3
-1.364, 1.483e-3
-1.365, 1.495e-3
-1.366, 1.508e-3
-1.367, 1.523e-3
-1.368, 1.536e-3
-1.369, 1.551e-3
-1.370, 1.566e-3
-1.371, 1.582e-3
-1.372, 1.594e-3
-1.373, 1.610e-3
-1.374, 1.622e-3
-1.375, 1.637e-3
-1.376, 1.650e-3
-1.377, 1.662e-3
-1.378, 1.677e-3
-1.379, 1.693e-3
-1.380, 1.708e-3
-1.381, 1.724e-3
-1.382, 1.742e-3
-1.383, 1.761e-3
-1.384, 1.779e-3
-1.385, 1.795e-3
-1.386, 1.810e-3
-1.387, 1.828e-3
-1.388, 1.847e-3
-1.389, 1.862e-3
-1.390, 1.881e-3
-1.391, 1.896e-3
-1.392, 1.915e-3
-1.393, 1.933e-3
-1.394, 1.952e-3
-1.395, 1.970e-3
-1.396, 1.992e-3
-1.397, 2.010e-3
-1.398, 2.032e-3
-1.399, 2.054e-3
-1.400, 2.072e-3
-1.401, 2.097e-3
-1.402, 2.112e-3
-1.403, 2.137e-3
-1.404, 2.155e-3
-1.405, 2.177e-3
-1.406, 2.195e-3
-1.407, 2.214e-3
-1.408, 2.235e-3
-1.409, 2.257e-3
-1.410, 2.279e-3
-1.411, 2.300e-3
-1.412, 2.322e-3
-1.413, 2.346e-3
-1.414, 2.368e-3
-1.415, 2.393e-3
-1.416, 2.414e-3
-1.417, 2.439e-3
-1.418, 2.464e-3
-1.419, 2.485e-3
-1.420, 2.510e-3
-1.421, 2.534e-3
-1.422, 2.559e-3
-1.423, 2.581e-3
-1.424, 2.605e-3
-1.425, 2.633e-3
-1.426, 2.661e-3
-1.427, 2.689e-3
-1.428, 2.716e-3
-1.429, 2.744e-3
-1.430, 2.775e-3
-1.431, 2.800e-3
-1.432, 2.830e-3
-1.433, 2.858e-3
-1.434, 2.886e-3
-1.435, 2.914e-3
-1.436, 2.941e-3
-1.437, 2.972e-3
-1.438, 3.000e-3
-1.439, 3.031e-3
-1.440, 3.062e-3
-1.441, 3.093e-3
-1.442, 3.126e-3
-1.443, 3.157e-3
-1.444, 3.194e-3
-1.445, 3.225e-3
-1.446, 3.259e-3
-1.447, 3.293e-3
-1.448, 3.324e-3
-1.449, 3.358e-3
-1.450, 3.392e-3
-1.451, 3.425e-3
-1.452, 3.459e-3
-1.453, 3.493e-3
-1.454, 3.527e-3
-1.455, 3.564e-3
-1.456, 3.601e-3
-1.457, 3.635e-3
-1.458, 3.675e-3
-1.459, 3.709e-3
-1.460, 3.749e-3
-1.461, 3.783e-3
-1.462, 3.820e-3
-1.463, 3.857e-3
-1.464, 3.891e-3
-1.465, 3.931e-3
-1.466, 3.971e-3
-1.467, 4.011e-3
-1.468, 4.051e-3
-1.469, 4.095e-3
-1.470, 4.138e-3
-1.471, 4.184e-3
-1.472, 4.227e-3
-1.473, 4.273e-3
-1.474, 4.317e-3
-1.475, 4.360e-3
-1.476, 4.403e-3
-1.477, 4.446e-3
-1.478, 4.489e-3
-1.479, 4.532e-3
-1.480, 4.572e-3
-1.481, 4.616e-3
-1.482, 4.662e-3
-1.483, 4.705e-3
-1.484, 4.745e-3
-1.485, 4.791e-3
-1.486, 4.834e-3
-1.487, 4.881e-3
-1.488, 4.924e-3
-1.489, 4.973e-3
-1.490, 5.023e-3
-1.491, 5.069e-3
-1.492, 5.115e-3
-1.493, 5.161e-3
-1.494, 5.214e-3
-1.495, 5.266e-3
-1.496, 5.315e-3
-1.497, 5.368e-3
-1.498, 5.414e-3
-1.499, 5.467e-3
-1.500, 5.516e-3
-1.501, 5.568e-3
-1.502, 5.621e-3
-1.503, 5.673e-3
-1.504, 5.725e-3
-1.505, 5.781e-3
-1.506, 5.833e-3
-1.507, 5.886e-3
-1.508, 5.938e-3
-1.509, 5.991e-3
-1.510, 6.043e-3
-1.511, 6.095e-3
-1.512, 6.148e-3
-1.513, 6.197e-3
-1.514, 6.253e-3
-1.515, 6.305e-3
-1.516, 6.361e-3
-1.517, 6.419e-3
-1.518, 6.478e-3
-1.519, 6.533e-3
-1.520, 6.589e-3
-1.521, 6.641e-3
-1.522, 6.697e-3
-1.523, 6.749e-3
-1.524, 6.798e-3
-1.525, 6.848e-3
-1.526, 6.900e-3
-1.527, 6.949e-3
-1.528, 6.999e-3
-1.529, 7.051e-3
-1.530, 7.104e-3
-1.531, 7.159e-3
-1.532, 7.215e-3
-1.533, 7.267e-3
-1.534, 7.319e-3
-1.535, 7.375e-3
-1.536, 7.427e-3
-1.537, 7.483e-3
-1.538, 7.535e-3
-1.539, 7.594e-3
-1.540, 7.649e-3
-1.541, 7.708e-3
-1.542, 7.763e-3
-1.543, 7.816e-3
-1.544, 7.874e-3
-1.545, 7.930e-3
-1.546, 7.982e-3
-1.547, 8.035e-3
-1.548, 8.090e-3
-1.549, 8.146e-3
-1.550, 8.204e-3
-1.551, 8.260e-3
-1.552, 8.318e-3
-1.553, 8.374e-3
-1.554, 8.432e-3
-1.555, 8.491e-3
-1.556, 8.550e-3
-1.557, 8.605e-3
-1.558, 8.661e-3
-1.559, 8.716e-3
-1.560, 8.765e-3
-1.561, 8.821e-3
-1.562, 8.873e-3
-1.563, 8.938e-3
-1.564, 8.997e-3
-1.565, 9.055e-3
-1.566, 9.108e-3
-1.567, 9.169e-3
-1.568, 9.225e-3
-1.569, 9.283e-3
-1.570, 9.339e-3
-1.571, 9.391e-3
-1.572, 9.447e-3
-1.573, 9.499e-3
-1.574, 9.555e-3
-1.575, 9.607e-3
-1.576, 9.666e-3
-1.577, 9.721e-3
-1.578, 9.780e-3
-1.579, 9.841e-3
-1.580, 9.900e-3
-1.581, 9.956e-3
-1.582, 1.001e-2
-1.583, 1.006e-2
-1.584, 1.011e-2
-1.585, 1.016e-2
-1.586, 1.021e-2
-1.587, 1.027e-2
-1.588, 1.032e-2
-1.589, 1.038e-2
-1.590, 1.044e-2
-1.591, 1.050e-2
-1.592, 1.056e-2
-1.593, 1.062e-2
-1.594, 1.069e-2
-1.595, 1.072e-2
-1.596, 1.077e-2
-1.597, 1.083e-2
-1.598, 1.089e-2
-1.599, 1.095e-2
-1.600, 1.093e-2
-1.599, 1.081e-2
-1.598, 1.071e-2
-1.597, 1.063e-2
-1.596, 1.055e-2
-1.595, 1.049e-2
-1.594, 1.041e-2
-1.593, 1.033e-2
-1.592, 1.026e-2
-1.591, 1.018e-2
-1.590, 1.011e-2
-1.589, 1.005e-2
-1.588, 9.974e-3
-1.587, 9.894e-3
-1.586, 9.817e-3
-1.585, 9.737e-3
-1.584, 9.672e-3
-1.583, 9.589e-3
-1.582, 9.518e-3
-1.581, 9.428e-3
-1.580, 9.348e-3
-1.579, 9.271e-3
-1.578, 9.197e-3
-1.577, 9.120e-3
-1.576, 9.043e-3
-1.575, 8.969e-3
-1.574, 8.901e-3
-1.573, 8.839e-3
-1.572, 8.772e-3
-1.571, 8.707e-3
-1.570, 8.642e-3
-1.569, 8.565e-3
-1.568, 8.503e-3
-1.567, 8.451e-3
-1.566, 8.386e-3
-1.565, 8.328e-3
-1.564, 8.281e-3
-1.563, 8.226e-3
-1.562, 8.170e-3
-1.561, 8.121e-3
-1.560, 8.075e-3
-1.559, 8.016e-3
-1.558, 7.964e-3
-1.557, 7.914e-3
-1.556, 7.865e-3
-1.555, 7.807e-3
-1.554, 7.748e-3
-1.553, 7.680e-3
-1.552, 7.625e-3
-1.551, 7.569e-3
-1.550, 7.514e-3
-1.549, 7.461e-3
-1.548, 7.406e-3
-1.547, 7.350e-3
-1.546, 7.295e-3
-1.545, 7.242e-3
-1.544, 7.184e-3
-1.543, 7.122e-3
-1.542, 7.064e-3
-1.541, 7.002e-3
-1.540, 6.943e-3
-1.539, 6.891e-3
-1.538, 6.842e-3
-1.537, 6.780e-3
-1.536, 6.728e-3
-1.535, 6.672e-3
-1.534, 6.620e-3
-1.533, 6.558e-3
-1.532, 6.499e-3
-1.531, 6.450e-3
-1.530, 6.398e-3
-1.529, 6.345e-3
-1.528, 6.287e-3
-1.527, 6.250e-3
-1.526, 6.243e-3
-1.525, 6.206e-3
-1.524, 6.151e-3
-1.523, 6.102e-3
-1.522, 6.040e-3
-1.521, 5.978e-3
-1.520, 5.929e-3
-1.519, 5.877e-3
-1.518, 5.824e-3
-1.517, 5.772e-3
-1.516, 5.725e-3
-1.515, 5.679e-3
-1.514, 5.608e-3
-1.513, 5.578e-3
-1.512, 5.528e-3
-1.511, 5.476e-3
-1.510, 5.420e-3
-1.509, 5.371e-3
-1.508, 5.328e-3
-1.507, 5.278e-3
-1.506, 5.238e-3
-1.505, 5.195e-3
-1.504, 5.155e-3
-1.503, 5.106e-3
-1.502, 5.050e-3
-1.501, 5.013e-3
-1.500, 4.970e-3
-1.499, 4.927e-3
-1.498, 4.890e-3
-1.497, 4.834e-3
-1.496, 4.788e-3
-1.495, 4.736e-3
-1.494, 4.680e-3
-1.493, 4.643e-3
-1.492, 4.594e-3
-1.491, 4.542e-3
-1.490, 4.495e-3
-1.489, 4.455e-3
-1.488, 4.415e-3
-1.487, 4.372e-3
-1.486, 4.329e-3
-1.485, 4.289e-3
-1.484, 4.246e-3
-1.483, 4.196e-3
-1.482, 4.159e-3
-1.481, 4.119e-3
-1.480, 4.082e-3
-1.479, 4.039e-3
-1.478, 3.990e-3
-1.477, 3.947e-3
-1.476, 3.903e-3
-1.475, 3.863e-3
-1.474, 3.826e-3
-1.473, 3.783e-3
-1.472, 3.743e-3
-1.471, 3.703e-3
-1.470, 3.669e-3
-1.469, 3.629e-3
-1.468, 3.595e-3
-1.467, 3.555e-3
-1.466, 3.506e-3
-1.465, 3.466e-3
-1.464, 3.416e-3
-1.463, 3.398e-3
-1.462, 3.336e-3
-1.461, 3.327e-3
-1.460, 3.274e-3
-1.459, 3.228e-3
-1.458, 3.188e-3
-1.457, 3.157e-3
-1.456, 3.111e-3
-1.455, 3.074e-3
-1.454, 3.034e-3
-1.453, 2.997e-3
-1.452, 2.960e-3
-1.451, 2.932e-3
-1.450, 2.895e-3
-1.449, 2.858e-3
-1.448, 2.821e-3
-1.447, 2.784e-3
-1.446, 2.750e-3
-1.445, 2.710e-3
-1.444, 2.676e-3
-1.443, 2.642e-3
-1.442, 2.608e-3
-1.441, 2.578e-3
-1.440, 2.544e-3
-1.439, 2.510e-3
-1.438, 2.479e-3
-1.437, 2.445e-3
-1.436, 2.411e-3
-1.435, 2.374e-3
-1.434, 2.343e-3
-1.433, 2.309e-3
-1.432, 2.275e-3
-1.431, 2.245e-3
-1.430, 2.211e-3
-1.429, 2.183e-3
-1.428, 2.152e-3
-1.427, 2.121e-3
-1.426, 2.091e-3
-1.425, 2.060e-3
-1.424, 2.029e-3
-1.423, 1.998e-3
-1.422, 1.970e-3
-1.421, 1.939e-3
-1.420, 1.909e-3
-1.419, 1.881e-3
-1.418, 1.856e-3
-1.417, 1.822e-3
-1.416, 1.795e-3
-1.415, 1.773e-3
-1.414, 1.745e-3
-1.413, 1.717e-3
-1.412, 1.690e-3
-1.411, 1.665e-3
-1.410, 1.637e-3
-1.409, 1.610e-3
-1.408, 1.579e-3
-1.407, 1.560e-3
-1.406, 1.532e-3
-1.405, 1.508e-3
-1.404, 1.480e-3
-1.403, 1.449e-3
-1.402, 1.421e-3
-1.401, 1.394e-3
-1.400, 1.369e-3
-1.399, 1.344e-3
-1.398, 1.317e-3
-1.397, 1.295e-3
-1.396, 1.270e-3
-1.395, 1.249e-3
-1.394, 1.227e-3
-1.393, 1.203e-3
-1.392, 1.178e-3
-1.391, 1.153e-3
-1.390, 1.129e-3
-1.389, 1.104e-3
-1.388, 1.082e-3
-1.387, 1.058e-3
-1.386, 1.039e-3
-1.385, 1.014e-3
-1.384, 9.929e-4
-1.383, 9.713e-4
-1.382, 9.528e-4
-1.381, 9.313e-4
-1.380, 9.066e-4
-1.379, 8.912e-4
-1.378, 8.665e-4
-1.377, 8.480e-4
-1.376, 8.264e-4
-1.375, 8.048e-4
-1.374, 7.833e-4
-1.373, 7.648e-4
-1.372, 7.432e-4
-1.371, 7.216e-4
-1.370, 7.031e-4
-1.369, 6.846e-4
-1.368, 6.661e-4
-1.367, 6.476e-4
-1.366, 6.291e-4
-1.365, 6.137e-4
-1.364, 5.952e-4
-1.363, 5.767e-4
-1.362, 5.582e-4
-1.361, 5.397e-4
-1.360, 5.212e-4
-1.359, 5.027e-4
-1.358, 4.842e-4
-1.357, 4.657e-4
-1.356, 4.472e-4
-1.355, 4.287e-4
-1.354, 4.133e-4
-1.353, 3.979e-4
-1.352, 3.825e-4
-1.351, 3.670e-4
-1.350, 3.516e-4
-1.349, 3.362e-4
-1.348, 3.208e-4
-1.347, 3.054e-4
-1.346, 2.900e-4
-1.345, 2.715e-4
-1.344, 2.591e-4
-1.343, 2.406e-4
-1.342, 2.252e-4
-1.341, 2.129e-4
-1.340, 1.975e-4
-1.339, 1.821e-4
-1.338, 1.697e-4
-1.337, 1.574e-4
-1.336, 1.451e-4
-1.335, 1.358e-4
-1.334, 1.204e-4
-1.333, 1.081e-4
-1.332, 9.573e-5
-1.331, 8.032e-5
-1.330, 6.798e-5
-1.329, 5.257e-5
-1.328, 4.332e-5
-1.327, 2.790e-5
-1.326, 1.557e-5
-1.325, 3.239e-6
-1.324, -9.093e-6
-1.323, -2.143e-5
-1.322, -3.376e-5
-1.321, -4.301e-5
-1.320, -5.534e-5
-1.319, -6.459e-5
-1.318, -7.692e-5
-1.317, -8.617e-5
-1.316, -9.850e-5
-1.315, -1.108e-4
-1.314, -1.139e-4
-1.313, -1.293e-4
-1.312, -1.448e-4
-1.311, -1.540e-4
-1.310, -1.632e-4
-1.309, -1.725e-4
-1.308, -1.817e-4
-1.307, -1.910e-4
-1.306, -2.002e-4
-1.305, -2.095e-4
-1.304, -2.187e-4
-1.303, -2.280e-4
-1.302, -2.372e-4
-1.301, -2.465e-4
-1.300, -2.557e-4
-1.299, -2.650e-4
-1.298, -2.742e-4
-1.297, -2.835e-4
-1.296, -2.927e-4
-1.295, -2.866e-4
-1.294, -2.989e-4
-1.293, -3.143e-4
-1.292, -3.236e-4
-1.291, -3.236e-4
-1.290, -3.328e-4
-1.289, -3.390e-4
-1.288, -3.482e-4
-1.287, -3.575e-4
-1.286, -3.667e-4
-1.285, -3.729e-4
-1.284, -3.852e-4
-1.283, -3.914e-4
-1.282, -4.006e-4
-1.281, -4.068e-4
-1.280, -4.161e-4
-1.279, -4.222e-4
-1.278, -4.284e-4
-1.277, -4.315e-4
-1.276, -4.376e-4
-1.275, -4.438e-4
-1.274, -4.469e-4
-1.273, -4.561e-4
-1.272, -4.592e-4
-1.271, -4.685e-4
-1.270, -4.746e-4
-1.269, -4.808e-4
-1.268, -4.870e-4
-1.267, -4.931e-4
-1.266, -4.993e-4
-1.265, -5.055e-4
-1.264, -5.116e-4
-1.263, -5.178e-4
-1.262, -5.209e-4
-1.261, -5.240e-4
-1.260, -5.301e-4
-1.259, -5.332e-4
-1.258, -5.394e-4
-1.257, -5.456e-4
-1.256, -5.486e-4
-1.255, -5.548e-4
-1.254, -5.641e-4
-1.253, -5.671e-4
-1.252, -5.733e-4
-1.251, -5.795e-4
-1.250, -5.826e-4
-1.249, -5.856e-4
-1.248, -5.918e-4
-1.247, -5.918e-4
-1.246, -5.949e-4
-1.245, -6.011e-4
-1.244, -6.041e-4
-1.243, -6.072e-4
-1.242, -6.103e-4
-1.241, -6.134e-4
-1.240, -6.195e-4
-1.239, -6.226e-4
-1.238, -6.257e-4
-1.237, -6.288e-4
-1.236, -6.350e-4
-1.235, -6.380e-4
-1.234, -6.411e-4
-1.233, -6.442e-4
-1.232, -6.442e-4
-1.231, -6.473e-4
-1.230, -6.473e-4
-1.229, -6.535e-4
-1.228, -6.565e-4
-1.227, -6.565e-4
-1.226, -6.627e-4
-1.225, -6.658e-4
-1.224, -6.689e-4
-1.223, -6.720e-4
-1.222, -6.781e-4
-1.221, -6.781e-4
-1.220, -6.812e-4
-1.219, -6.843e-4
-1.218, -6.874e-4
-1.217, -6.874e-4
-1.216, -6.935e-4
-1.215, -6.935e-4
-1.214, -6.966e-4
-1.213, -6.997e-4
-1.212, -6.997e-4
-1.211, -7.059e-4
-1.210, -7.059e-4
-1.209, -7.090e-4
-1.208, -7.120e-4
-1.207, -7.151e-4
-1.206, -7.182e-4
-1.205, -7.182e-4
-1.204, -7.213e-4
-1.203, -7.213e-4
-1.202, -7.244e-4
-1.201, -7.213e-4
-1.200, -7.244e-4
-1.199, -7.244e-4
-1.198, -7.244e-4
-1.197, -7.275e-4
-1.196, -7.305e-4
-1.195, -7.305e-4
-1.194, -7.336e-4
-1.193, -7.367e-4
-1.192, -7.398e-4
-1.191, -7.398e-4
-1.190, -7.398e-4
-1.189, -7.429e-4
-1.188, -7.429e-4
-1.187, -7.429e-4
-1.186, -7.429e-4
-1.185, -7.429e-4
-1.184, -7.460e-4
-1.183, -7.460e-4
-1.182, -7.460e-4
-1.181, -7.490e-4
-1.180, -7.521e-4
-1.179, -7.521e-4
-1.178, -7.552e-4
-1.177, -7.583e-4
-1.176, -7.614e-4
-1.175, -7.614e-4
-1.174, -7.614e-4
-1.173, -7.645e-4
-1.172, -7.645e-4
-1.171, -7.675e-4
-1.170, -7.675e-4
-1.169, -7.675e-4
-1.168, -7.706e-4
-1.167, -7.706e-4
-1.166, -7.706e-4
-1.165, -7.737e-4
-1.164, -7.768e-4
-1.163, -7.799e-4
-1.162, -7.799e-4
-1.161, -7.799e-4
-1.160, -7.799e-4
-1.159, -7.799e-4
-1.158, -7.799e-4
-1.157, -7.799e-4
-1.156, -7.799e-4
-1.155, -7.799e-4
-1.154, -7.768e-4
-1.153, -7.799e-4
-1.152, -7.799e-4
-1.151, -7.830e-4
-1.150, -7.830e-4
-1.149, -7.830e-4
-1.148, -7.860e-4
-1.147, -7.860e-4
-1.146, -7.860e-4
-1.145, -7.891e-4
-1.144, -7.891e-4
-1.143, -7.891e-4
-1.142, -7.891e-4
-1.141, -7.891e-4
-1.140, -7.891e-4
-1.139, -7.891e-4
-1.138, -7.891e-4
-1.137, -7.922e-4
-1.136, -7.922e-4
-1.135, -7.953e-4
-1.134, -7.984e-4
-1.133, -7.984e-4
-1.132, -8.015e-4
-1.131, -8.045e-4
-1.130, -8.045e-4
-1.129, -8.045e-4
-1.128, -8.045e-4
-1.127, -8.045e-4
-1.126, -8.045e-4
-1.125, -8.045e-4
-1.124, -8.076e-4
-1.123, -8.076e-4
-1.122, -8.076e-4
-1.121, -8.076e-4
-1.120, -8.107e-4
-1.119, -8.138e-4
-1.118, -8.138e-4
-1.117, -8.138e-4
-1.116, -8.169e-4
-1.115, -8.169e-4
-1.114, -8.200e-4
-1.113, -8.169e-4
-1.112, -8.169e-4
-1.111, -8.169e-4
-1.110, -8.169e-4
-1.109, -8.169e-4
-1.108, -8.200e-4
-1.107, -8.200e-4
-1.106, -8.200e-4
-1.105, -8.230e-4
-1.104, -8.230e-4
-1.103, -8.261e-4
-1.102, -8.292e-4
-1.101, -8.292e-4
-1.100, -8.323e-4
-1.099, -8.323e-4
-1.098, -8.323e-4
-1.097, -8.323e-4
-1.096, -8.323e-4
-1.095, -8.323e-4
-1.094, -8.323e-4
-1.093, -8.354e-4
-1.092, -8.354e-4
-1.091, -8.385e-4
-1.090, -8.385e-4
-1.089, -8.415e-4
-1.088, -8.446e-4
-1.087, -8.477e-4
-1.086, -8.477e-4
-1.085, -8.508e-4
-1.084, -8.508e-4
-1.083, -8.508e-4
-1.082, -8.539e-4
-1.081, -8.539e-4
-1.080, -8.539e-4
-1.079, -8.539e-4
-1.078, -8.539e-4
-1.077, -8.569e-4
-1.076, -8.569e-4
-1.075, -8.631e-4
-1.074, -8.631e-4
-1.073, -8.631e-4
-1.072, -8.662e-4
-1.071, -8.693e-4
-1.070, -8.693e-4
-1.069, -8.693e-4
-1.068, -8.693e-4
-1.067, -8.724e-4
-1.066, -8.693e-4
-1.065, -8.724e-4
-1.064, -8.724e-4
-1.063, -8.754e-4
-1.062, -8.754e-4
-1.061, -8.754e-4
-1.060, -8.785e-4
-1.059, -8.816e-4
-1.058, -8.816e-4
-1.057, -8.878e-4
-1.056, -8.878e-4
-1.055, -8.878e-4
-1.054, -8.909e-4
-1.053, -8.909e-4
-1.052, -8.939e-4
-1.051, -8.939e-4
-1.050, -8.939e-4
-1.049, -8.939e-4
-1.048, -8.939e-4
-1.047, -8.970e-4
-1.046, -9.001e-4
-1.045, -9.001e-4
-1.044, -9.032e-4
-1.043, -9.063e-4
-1.042, -9.649e-4
-1.041, -9.525e-4
-1.040, -9.248e-4
-1.039, -1.002e-3
-1.038, -9.957e-4
-1.037, -9.895e-4
-1.036, -9.864e-4
-1.035, -9.803e-4
-1.034, -9.772e-4
-1.033, -9.741e-4
-1.032, -9.710e-4
-1.031, -9.710e-4
-1.030, -9.710e-4
-1.029, -9.710e-4
-1.028, -9.710e-4
-1.027, -9.710e-4
-1.026, -9.710e-4
-1.025, -9.710e-4
-1.024, -9.710e-4
-1.023, -9.679e-4
-1.022, -9.679e-4
-1.021, -9.679e-4
-1.020, -9.710e-4
-1.019, -9.710e-4
-1.018, -9.710e-4
-1.017, -9.710e-4
-1.016, -9.710e-4
-1.015, -9.741e-4
-1.014, -9.710e-4
-1.013, -9.741e-4
-1.012, -9.772e-4
-1.011, -9.803e-4
-1.010, -9.803e-4
-1.009, -9.834e-4
-1.008, -9.834e-4
-1.007, -9.834e-4
-1.006, -9.834e-4
-1.005, -9.834e-4
-1.004, -9.834e-4
-1.003, -9.864e-4
-1.002, -9.864e-4
-1.001, -9.895e-4
