Mar. 15, 2025   17:08:18
Cyclic Voltammetry
File: c:/users/guazh/data/banditlqround7_x0exp891_r5/2025-03-03-exp904\exp904-2025-03-15t16_54_43-arkoh\exp904_cv_sr_100mvs_efin_-1600mv.bin
Data Source:  Experiment
Instrument Model:  CHI760E
Header: CV ran at 100 mVs
Note: 

Init E (V) = -1
High E (V) = -1
Low E (V) = -1.6
Final E (V) = -1
Init P/N = N
Scan Rate (V/s) = 0.1
Segment = 3
Sample Interval (V) = 0.001
Quiet Time (sec) = 2
Sensitivity (A/V) = 0.01
Comp R (ohm) = 1.9

Results:

Channel 1:
Segment 1:

Segment 2:

Segment 3:

Potential/V, Current/A

-1.000, 5.128e-6
-1.001, 3.002e-5
-1.002, 3.492e-5
-1.003, 4.091e-5
-1.004, 4.223e-5
-1.005, 4.373e-5
-1.006, 4.697e-5
-1.007, 4.570e-5
-1.008, 4.874e-5
-1.009, 4.834e-5
-1.010, 4.943e-5
-1.011, 5.129e-5
-1.012, 5.000e-5
-1.013, 5.267e-5
-1.014, 5.205e-5
-1.015, 5.271e-5
-1.016, 5.421e-5
-1.017, 5.269e-5
-1.018, 5.558e-5
-1.019, 5.442e-5
-1.020, 5.490e-5
-1.021, 5.654e-5
-1.022, 5.476e-5
-1.023, 5.782e-5
-1.024, 5.670e-5
-1.025, 5.702e-5
-1.026, 5.866e-5
-1.027, 5.661e-5
-1.028, 5.964e-5
-1.029, 5.804e-5
-1.030, 5.875e-5
-1.031, 6.016e-5
-1.032, 5.804e-5
-1.033, 6.078e-5
-1.034, 5.983e-5
-1.035, 5.981e-5
-1.036, 6.184e-5
-1.037, 5.973e-5
-1.038, 6.219e-5
-1.039, 6.126e-5
-1.040, 6.145e-5
-1.041, 6.291e-5
-1.042, 6.116e-5
-1.043, 6.341e-5
-1.044, 6.222e-5
-1.045, 6.246e-5
-1.046, 6.417e-5
-1.047, 6.259e-5
-1.048, 6.456e-5
-1.049, 6.325e-5
-1.050, 6.383e-5
-1.051, 6.534e-5
-1.052, 6.350e-5
-1.053, 6.568e-5
-1.054, 6.438e-5
-1.055, 6.517e-5
-1.056, 6.633e-5
-1.057, 6.422e-5
-1.058, 6.669e-5
-1.059, 6.516e-5
-1.060, 6.631e-5
-1.061, 6.693e-5
-1.062, 6.529e-5
-1.063, 6.810e-5
-1.064, 6.634e-5
-1.065, 6.676e-5
-1.066, 6.847e-5
-1.067, 6.620e-5
-1.068, 6.876e-5
-1.069, 6.732e-5
-1.070, 6.786e-5
-1.071, 6.954e-5
-1.072, 6.687e-5
-1.073, 6.970e-5
-1.074, 6.821e-5
-1.075, 6.912e-5
-1.076, 7.040e-5
-1.077, 6.810e-5
-1.078, 7.060e-5
-1.079, 6.916e-5
-1.080, 6.939e-5
-1.081, 7.108e-5
-1.082, 6.914e-5
-1.083, 7.158e-5
-1.084, 6.998e-5
-1.085, 7.026e-5
-1.086, 7.145e-5
-1.087, 7.000e-5
-1.088, 7.256e-5
-1.089, 7.077e-5
-1.090, 7.140e-5
-1.091, 7.232e-5
-1.092, 7.095e-5
-1.093, 7.303e-5
-1.094, 7.166e-5
-1.095, 7.256e-5
-1.096, 7.316e-5
-1.097, 7.148e-5
-1.098, 7.417e-5
-1.099, 7.237e-5
-1.100, 7.311e-5
-1.101, 7.433e-5
-1.102, 7.231e-5
-1.103, 7.539e-5
-1.104, 7.326e-5
-1.105, 7.390e-5
-1.106, 7.504e-5
-1.107, 7.321e-5
-1.108, 7.617e-5
-1.109, 7.414e-5
-1.110, 7.493e-5
-1.111, 7.624e-5
-1.112, 7.414e-5
-1.113, 7.667e-5
-1.114, 7.484e-5
-1.115, 7.569e-5
-1.116, 7.694e-5
-1.117, 7.504e-5
-1.118, 7.753e-5
-1.119, 7.609e-5
-1.120, 7.682e-5
-1.121, 7.775e-5
-1.122, 7.618e-5
-1.123, 7.860e-5
-1.124, 7.715e-5
-1.125, 7.770e-5
-1.126, 7.881e-5
-1.127, 7.715e-5
-1.128, 7.972e-5
-1.129, 7.797e-5
-1.130, 7.893e-5
-1.131, 7.969e-5
-1.132, 7.841e-5
-1.133, 8.071e-5
-1.134, 7.898e-5
-1.135, 8.010e-5
-1.136, 8.097e-5
-1.137, 7.923e-5
-1.138, 8.207e-5
-1.139, 8.022e-5
-1.140, 8.133e-5
-1.141, 8.227e-5
-1.142, 8.059e-5
-1.143, 8.333e-5
-1.144, 8.128e-5
-1.145, 8.223e-5
-1.146, 8.338e-5
-1.147, 8.161e-5
-1.148, 8.441e-5
-1.149, 8.268e-5
-1.150, 8.378e-5
-1.151, 8.499e-5
-1.152, 8.312e-5
-1.153, 8.592e-5
-1.154, 8.446e-5
-1.155, 8.523e-5
-1.156, 8.674e-5
-1.157, 8.455e-5
-1.158, 8.746e-5
-1.159, 8.602e-5
-1.160, 8.689e-5
-1.161, 8.771e-5
-1.162, 8.620e-5
-1.163, 8.919e-5
-1.164, 8.774e-5
-1.165, 8.895e-5
-1.166, 8.995e-5
-1.167, 8.841e-5
-1.168, 9.105e-5
-1.169, 8.960e-5
-1.170, 9.082e-5
-1.171, 9.174e-5
-1.172, 9.037e-5
-1.173, 9.287e-5
-1.174, 9.153e-5
-1.175, 9.296e-5
-1.176, 9.413e-5
-1.177, 9.292e-5
-1.178, 9.581e-5
-1.179, 9.393e-5
-1.180, 9.562e-5
-1.181, 9.638e-5
-1.182, 9.513e-5
-1.183, 9.819e-5
-1.184, 9.644e-5
-1.185, 9.801e-5
-1.186, 9.908e-5
-1.187, 9.783e-5
-1.188, 1.012e-4
-1.189, 9.930e-5
-1.190, 1.007e-4
-1.191, 1.022e-4
-1.192, 1.010e-4
-1.193, 1.039e-4
-1.194, 1.028e-4
-1.195, 1.040e-4
-1.196, 1.059e-4
-1.197, 1.043e-4
-1.198, 1.069e-4
-1.199, 1.062e-4
-1.200, 1.080e-4
-1.201, 1.089e-4
-1.202, 1.079e-4
-1.203, 1.109e-4
-1.204, 1.103e-4
-1.205, 1.121e-4
-1.206, 1.135e-4
-1.207, 1.127e-4
-1.208, 1.153e-4
-1.209, 1.143e-4
-1.210, 1.161e-4
-1.211, 1.176e-4
-1.212, 1.171e-4
-1.213, 1.317e-4
-1.214, 1.387e-4
-1.215, 1.301e-4
-1.216, 1.242e-4
-1.217, 1.272e-4
-1.218, 1.379e-4
-1.219, 1.293e-4
-1.220, 1.278e-4
-1.221, 1.287e-4
-1.222, 1.281e-4
-1.223, 1.315e-4
-1.224, 1.301e-4
-1.225, 1.329e-4
-1.226, 1.344e-4
-1.227, 1.344e-4
-1.228, 1.383e-4
-1.229, 1.383e-4
-1.230, 1.400e-4
-1.231, 1.419e-4
-1.232, 1.412e-4
-1.233, 1.448e-4
-1.234, 1.448e-4
-1.235, 1.475e-4
-1.236, 1.493e-4
-1.237, 1.492e-4
-1.238, 1.532e-4
-1.239, 1.533e-4
-1.240, 1.552e-4
-1.241, 1.574e-4
-1.242, 1.582e-4
-1.243, 1.624e-4
-1.244, 1.620e-4
-1.245, 1.644e-4
-1.246, 1.668e-4
-1.247, 1.680e-4
-1.248, 1.717e-4
-1.249, 1.715e-4
-1.250, 1.747e-4
-1.251, 1.773e-4
-1.252, 1.783e-4
-1.253, 1.824e-4
-1.254, 1.824e-4
-1.255, 1.860e-4
-1.256, 1.883e-4
-1.257, 1.894e-4
-1.258, 1.943e-4
-1.259, 1.944e-4
-1.260, 1.986e-4
-1.261, 2.009e-4
-1.262, 2.023e-4
-1.263, 2.075e-4
-1.264, 2.074e-4
-1.265, 2.118e-4
-1.266, 2.148e-4
-1.267, 2.161e-4
-1.268, 2.211e-4
-1.269, 2.218e-4
-1.270, 2.262e-4
-1.271, 2.296e-4
-1.272, 2.307e-4
-1.273, 2.366e-4
-1.274, 2.379e-4
-1.275, 2.421e-4
-1.276, 2.456e-4
-1.277, 2.473e-4
-1.278, 2.536e-4
-1.279, 2.556e-4
-1.280, 2.607e-4
-1.281, 2.638e-4
-1.282, 2.663e-4
-1.283, 2.727e-4
-1.284, 2.744e-4
-1.285, 2.794e-4
-1.286, 2.835e-4
-1.287, 2.867e-4
-1.288, 2.931e-4
-1.289, 2.952e-4
-1.290, 3.011e-4
-1.291, 3.061e-4
-1.292, 3.092e-4
-1.293, 3.156e-4
-1.294, 3.182e-4
-1.295, 3.251e-4
-1.296, 3.299e-4
-1.297, 3.338e-4
-1.298, 3.411e-4
-1.299, 3.444e-4
-1.300, 3.509e-4
-1.301, 3.557e-4
-1.302, 3.605e-4
-1.303, 3.692e-4
-1.304, 3.720e-4
-1.305, 3.789e-4
-1.306, 3.856e-4
-1.307, 3.906e-4
-1.308, 3.987e-4
-1.309, 4.017e-4
-1.310, 4.100e-4
-1.311, 4.182e-4
-1.312, 4.223e-4
-1.313, 4.306e-4
-1.314, 4.362e-4
-1.315, 4.455e-4
-1.316, 4.519e-4
-1.317, 4.573e-4
-1.318, 4.681e-4
-1.319, 4.737e-4
-1.320, 4.817e-4
-1.321, 4.899e-4
-1.322, 4.984e-4
-1.323, 5.081e-4
-1.324, 5.138e-4
-1.325, 5.238e-4
-1.326, 5.329e-4
-1.327, 5.409e-4
-1.328, 5.512e-4
-1.329, 5.584e-4
-1.330, 5.703e-4
-1.331, 5.797e-4
-1.332, 5.879e-4
-1.333, 5.989e-4
-1.334, 6.071e-4
-1.335, 6.208e-4
-1.336, 6.310e-4
-1.337, 6.388e-4
-1.338, 6.517e-4
-1.339, 6.623e-4
-1.340, 6.754e-4
-1.341, 6.858e-4
-1.342, 6.958e-4
-1.343, 7.105e-4
-1.344, 7.209e-4
-1.345, 7.340e-4
-1.346, 7.457e-4
-1.347, 7.575e-4
-1.348, 7.734e-4
-1.349, 7.847e-4
-1.350, 7.995e-4
-1.351, 8.131e-4
-1.352, 8.255e-4
-1.353, 8.420e-4
-1.354, 8.543e-4
-1.355, 8.711e-4
-1.356, 8.858e-4
-1.357, 8.987e-4
-1.358, 9.162e-4
-1.359, 9.296e-4
-1.360, 9.473e-4
-1.361, 9.628e-4
-1.362, 9.776e-4
-1.363, 9.945e-4
-1.364, 1.010e-3
-1.365, 1.031e-3
-1.366, 1.047e-3
-1.367, 1.064e-3
-1.368, 1.082e-3
-1.369, 1.099e-3
-1.370, 1.119e-3
-1.371, 1.136e-3
-1.372, 1.153e-3
-1.373, 1.175e-3
-1.374, 1.192e-3
-1.375, 1.211e-3
-1.376, 1.230e-3
-1.377, 1.250e-3
-1.378, 1.275e-3
-1.379, 1.293e-3
-1.380, 1.315e-3
-1.381, 1.339e-3
-1.382, 1.361e-3
-1.383, 1.381e-3
-1.384, 1.398e-3
-1.385, 1.422e-3
-1.386, 1.443e-3
-1.387, 1.449e-3
-1.388, 1.472e-3
-1.389, 1.490e-3
-1.390, 1.515e-3
-1.391, 1.539e-3
-1.392, 1.563e-3
-1.393, 1.588e-3
-1.394, 1.613e-3
-1.395, 1.635e-3
-1.396, 1.699e-3
-1.397, 1.717e-3
-1.398, 1.733e-3
-1.399, 1.741e-3
-1.400, 1.771e-3
-1.401, 1.796e-3
-1.402, 1.817e-3
-1.403, 1.835e-3
-1.404, 1.861e-3
-1.405, 1.891e-3
-1.406, 1.924e-3
-1.407, 1.962e-3
-1.408, 1.989e-3
-1.409, 2.015e-3
-1.410, 2.032e-3
-1.411, 2.068e-3
-1.412, 2.097e-3
-1.413, 2.127e-3
-1.414, 2.138e-3
-1.415, 2.170e-3
-1.416, 2.203e-3
-1.417, 2.227e-3
-1.418, 2.262e-3
-1.419, 2.287e-3
-1.420, 2.321e-3
-1.421, 2.333e-3
-1.422, 2.355e-3
-1.423, 2.393e-3
-1.424, 2.446e-3
-1.425, 2.482e-3
-1.426, 2.505e-3
-1.427, 2.526e-3
-1.428, 2.556e-3
-1.429, 2.589e-3
-1.430, 2.624e-3
-1.431, 2.652e-3
-1.432, 2.682e-3
-1.433, 2.712e-3
-1.434, 2.742e-3
-1.435, 2.784e-3
-1.436, 2.806e-3
-1.437, 2.835e-3
-1.438, 2.869e-3
-1.439, 2.902e-3
-1.440, 2.933e-3
-1.441, 2.963e-3
-1.442, 2.994e-3
-1.443, 3.026e-3
-1.444, 3.060e-3
-1.445, 3.100e-3
-1.446, 3.124e-3
-1.447, 3.149e-3
-1.448, 3.187e-3
-1.449, 3.201e-3
-1.450, 3.258e-3
-1.451, 3.294e-3
-1.452, 3.319e-3
-1.453, 3.355e-3
-1.454, 3.391e-3
-1.455, 3.426e-3
-1.456, 3.465e-3
-1.457, 3.490e-3
-1.458, 3.525e-3
-1.459, 3.559e-3
-1.460, 3.607e-3
-1.461, 3.630e-3
-1.462, 3.653e-3
-1.463, 3.697e-3
-1.464, 3.728e-3
-1.465, 3.770e-3
-1.466, 3.797e-3
-1.467, 3.831e-3
-1.468, 3.849e-3
-1.469, 3.893e-3
-1.470, 3.950e-3
-1.471, 3.975e-3
-1.472, 4.009e-3
-1.473, 4.055e-3
-1.474, 4.086e-3
-1.475, 4.122e-3
-1.476, 4.154e-3
-1.477, 4.202e-3
-1.478, 4.240e-3
-1.479, 4.267e-3
-1.480, 4.301e-3
-1.481, 4.337e-3
-1.482, 4.379e-3
-1.483, 4.414e-3
-1.484, 4.431e-3
-1.485, 4.469e-3
-1.486, 4.523e-3
-1.487, 4.549e-3
-1.488, 4.592e-3
-1.489, 4.625e-3
-1.490, 4.659e-3
-1.491, 4.706e-3
-1.492, 4.740e-3
-1.493, 4.771e-3
-1.494, 4.797e-3
-1.495, 4.840e-3
-1.496, 4.888e-3
-1.497, 4.931e-3
-1.498, 4.965e-3
-1.499, 4.995e-3
-1.500, 5.033e-3
-1.501, 5.087e-3
-1.502, 5.128e-3
-1.503, 5.144e-3
-1.504, 5.176e-3
-1.505, 5.232e-3
-1.506, 5.271e-3
-1.507, 5.298e-3
-1.508, 5.335e-3
-1.509, 5.387e-3
-1.510, 5.430e-3
-1.511, 5.458e-3
-1.512, 5.500e-3
-1.513, 5.517e-3
-1.514, 5.549e-3
-1.515, 5.619e-3
-1.516, 5.643e-3
-1.517, 5.692e-3
-1.518, 5.741e-3
-1.519, 5.752e-3
-1.520, 5.776e-3
-1.521, 5.785e-3
-1.522, 5.872e-3
-1.523, 5.925e-3
-1.524, 5.920e-3
-1.525, 5.999e-3
-1.526, 6.052e-3
-1.527, 6.063e-3
-1.528, 6.086e-3
-1.529, 6.132e-3
-1.530, 6.185e-3
-1.531, 6.229e-3
-1.532, 6.275e-3
-1.533, 6.334e-3
-1.534, 6.388e-3
-1.535, 6.428e-3
-1.536, 6.461e-3
-1.537, 6.517e-3
-1.538, 6.563e-3
-1.539, 6.569e-3
-1.540, 6.642e-3
-1.541, 6.667e-3
-1.542, 6.679e-3
-1.543, 6.757e-3
-1.544, 6.764e-3
-1.545, 6.778e-3
-1.546, 6.869e-3
-1.547, 6.883e-3
-1.548, 6.925e-3
-1.549, 6.936e-3
-1.550, 6.991e-3
-1.551, 7.024e-3
-1.552, 7.078e-3
-1.553, 7.129e-3
-1.554, 7.154e-3
-1.555, 7.208e-3
-1.556, 7.234e-3
-1.557, 7.280e-3
-1.558, 7.323e-3
-1.559, 7.341e-3
-1.560, 7.364e-3
-1.561, 7.424e-3
-1.562, 7.469e-3
-1.563, 7.511e-3
-1.564, 7.578e-3
-1.565, 7.614e-3
-1.566, 7.652e-3
-1.567, 7.670e-3
-1.568, 7.684e-3
-1.569, 7.733e-3
-1.570, 7.743e-3
-1.571, 7.776e-3
-1.572, 7.830e-3
-1.573, 7.847e-3
-1.574, 7.912e-3
-1.575, 7.980e-3
-1.576, 7.993e-3
-1.577, 8.023e-3
-1.578, 8.097e-3
-1.579, 8.093e-3
-1.580, 8.146e-3
-1.581, 8.251e-3
-1.582, 8.319e-3
-1.583, 8.328e-3
-1.584, 8.401e-3
-1.585, 8.423e-3
-1.586, 8.463e-3
-1.587, 8.504e-3
-1.588, 8.567e-3
-1.589, 8.601e-3
-1.590, 8.601e-3
-1.591, 8.658e-3
-1.592, 8.707e-3
-1.593, 8.761e-3
-1.594, 8.859e-3
-1.595, 8.858e-3
-1.596, 8.861e-3
-1.597, 8.871e-3
-1.598, 8.981e-3
-1.599, 9.017e-3
-1.600, 8.998e-3
-1.599, 8.980e-3
-1.598, 8.893e-3
-1.597, 8.833e-3
-1.596, 8.762e-3
-1.595, 8.679e-3
-1.594, 8.626e-3
-1.593, 8.638e-3
-1.592, 8.537e-3
-1.591, 8.427e-3
-1.590, 8.523e-3
-1.589, 8.413e-3
-1.588, 8.339e-3
-1.587, 8.236e-3
-1.586, 8.208e-3
-1.585, 8.129e-3
-1.584, 8.063e-3
-1.583, 8.001e-3
-1.582, 7.932e-3
-1.581, 7.823e-3
-1.580, 7.782e-3
-1.579, 7.705e-3
-1.578, 7.676e-3
-1.577, 7.607e-3
-1.576, 7.568e-3
-1.575, 7.540e-3
-1.574, 7.452e-3
-1.573, 7.371e-3
-1.572, 7.307e-3
-1.571, 7.287e-3
-1.570, 7.204e-3
-1.569, 7.161e-3
-1.568, 7.123e-3
-1.567, 7.064e-3
-1.566, 6.966e-3
-1.565, 6.892e-3
-1.564, 6.891e-3
-1.563, 6.902e-3
-1.562, 6.800e-3
-1.561, 6.759e-3
-1.560, 6.704e-3
-1.559, 6.697e-3
-1.558, 6.665e-3
-1.557, 6.580e-3
-1.556, 6.487e-3
-1.555, 6.454e-3
-1.554, 6.435e-3
-1.553, 6.375e-3
-1.552, 6.302e-3
-1.551, 6.231e-3
-1.550, 6.217e-3
-1.549, 6.174e-3
-1.548, 6.138e-3
-1.547, 6.075e-3
-1.546, 6.008e-3
-1.545, 5.966e-3
-1.544, 5.934e-3
-1.543, 5.871e-3
-1.542, 5.829e-3
-1.541, 5.768e-3
-1.540, 5.737e-3
-1.539, 5.685e-3
-1.538, 5.640e-3
-1.537, 5.584e-3
-1.536, 5.540e-3
-1.535, 5.528e-3
-1.534, 5.461e-3
-1.533, 5.428e-3
-1.532, 5.368e-3
-1.531, 5.319e-3
-1.530, 5.258e-3
-1.529, 5.197e-3
-1.528, 5.189e-3
-1.527, 5.152e-3
-1.526, 5.105e-3
-1.525, 5.050e-3
-1.524, 5.000e-3
-1.523, 4.967e-3
-1.522, 4.959e-3
-1.521, 4.910e-3
-1.520, 4.835e-3
-1.519, 4.817e-3
-1.518, 4.804e-3
-1.517, 4.780e-3
-1.516, 4.711e-3
-1.515, 4.700e-3
-1.514, 4.671e-3
-1.513, 4.644e-3
-1.512, 4.609e-3
-1.511, 4.549e-3
-1.510, 4.510e-3
-1.509, 4.461e-3
-1.508, 4.412e-3
-1.507, 4.374e-3
-1.506, 4.331e-3
-1.505, 4.330e-3
-1.504, 4.282e-3
-1.503, 4.228e-3
-1.502, 4.217e-3
-1.501, 4.177e-3
-1.500, 4.149e-3
-1.499, 4.111e-3
-1.498, 4.069e-3
-1.497, 4.012e-3
-1.496, 3.996e-3
-1.495, 3.961e-3
-1.494, 3.890e-3
-1.493, 3.868e-3
-1.492, 3.845e-3
-1.491, 3.781e-3
-1.490, 3.733e-3
-1.489, 3.715e-3
-1.488, 3.698e-3
-1.487, 3.646e-3
-1.486, 3.619e-3
-1.485, 3.582e-3
-1.484, 3.527e-3
-1.483, 3.473e-3
-1.482, 3.474e-3
-1.481, 3.434e-3
-1.480, 3.372e-3
-1.479, 3.337e-3
-1.478, 3.344e-3
-1.477, 3.291e-3
-1.476, 3.249e-3
-1.475, 3.250e-3
-1.474, 3.176e-3
-1.473, 3.161e-3
-1.472, 3.136e-3
-1.471, 3.098e-3
-1.470, 3.054e-3
-1.469, 3.036e-3
-1.468, 3.031e-3
-1.467, 2.968e-3
-1.466, 2.955e-3
-1.465, 2.926e-3
-1.464, 2.872e-3
-1.463, 2.862e-3
-1.462, 2.835e-3
-1.461, 2.774e-3
-1.460, 2.767e-3
-1.459, 2.730e-3
-1.458, 2.699e-3
-1.457, 2.681e-3
-1.456, 2.638e-3
-1.455, 2.617e-3
-1.454, 2.593e-3
-1.453, 2.578e-3
-1.452, 2.542e-3
-1.451, 2.516e-3
-1.450, 2.490e-3
-1.449, 2.451e-3
-1.448, 2.419e-3
-1.447, 2.375e-3
-1.446, 2.364e-3
-1.445, 2.322e-3
-1.444, 2.294e-3
-1.443, 2.265e-3
-1.442, 2.236e-3
-1.441, 2.235e-3
-1.440, 2.215e-3
-1.439, 2.179e-3
-1.438, 2.161e-3
-1.437, 2.140e-3
-1.436, 2.107e-3
-1.435, 2.084e-3
-1.434, 2.065e-3
-1.433, 2.038e-3
-1.432, 2.012e-3
-1.431, 1.983e-3
-1.430, 1.958e-3
-1.429, 1.936e-3
-1.428, 1.920e-3
-1.427, 1.895e-3
-1.426, 1.865e-3
-1.425, 1.849e-3
-1.424, 1.840e-3
-1.423, 1.814e-3
-1.422, 1.787e-3
-1.421, 1.761e-3
-1.420, 1.741e-3
-1.419, 1.719e-3
-1.418, 1.699e-3
-1.417, 1.680e-3
-1.416, 1.655e-3
-1.415, 1.644e-3
-1.414, 1.627e-3
-1.413, 1.606e-3
-1.412, 1.569e-3
-1.411, 1.539e-3
-1.410, 1.524e-3
-1.409, 1.501e-3
-1.408, 1.495e-3
-1.407, 1.491e-3
-1.406, 1.468e-3
-1.405, 1.440e-3
-1.404, 1.424e-3
-1.403, 1.402e-3
-1.402, 1.369e-3
-1.401, 1.365e-3
-1.400, 1.344e-3
-1.399, 1.304e-3
-1.398, 1.286e-3
-1.397, 1.282e-3
-1.396, 1.262e-3
-1.395, 1.231e-3
-1.394, 1.228e-3
-1.393, 1.205e-3
-1.392, 1.181e-3
-1.391, 1.170e-3
-1.390, 1.170e-3
-1.389, 1.148e-3
-1.388, 1.121e-3
-1.387, 1.102e-3
-1.386, 1.096e-3
-1.385, 1.080e-3
-1.384, 1.062e-3
-1.383, 1.042e-3
-1.382, 1.024e-3
-1.381, 1.008e-3
-1.380, 9.999e-4
-1.379, 9.778e-4
-1.378, 9.609e-4
-1.377, 9.466e-4
-1.376, 9.333e-4
-1.375, 9.236e-4
-1.374, 9.044e-4
-1.373, 8.891e-4
-1.372, 8.753e-4
-1.371, 8.577e-4
-1.370, 8.495e-4
-1.369, 8.315e-4
-1.368, 8.177e-4
-1.367, 8.037e-4
-1.366, 7.867e-4
-1.365, 7.771e-4
-1.364, 7.611e-4
-1.363, 7.472e-4
-1.362, 7.363e-4
-1.361, 7.230e-4
-1.360, 7.128e-4
-1.359, 6.962e-4
-1.358, 6.833e-4
-1.357, 6.738e-4
-1.356, 6.593e-4
-1.355, 6.513e-4
-1.354, 6.338e-4
-1.353, 6.228e-4
-1.352, 6.106e-4
-1.351, 5.969e-4
-1.350, 5.885e-4
-1.349, 5.762e-4
-1.348, 5.653e-4
-1.347, 5.544e-4
-1.346, 5.421e-4
-1.345, 5.330e-4
-1.344, 5.205e-4
-1.343, 5.108e-4
-1.342, 5.005e-4
-1.341, 4.907e-4
-1.340, 4.846e-4
-1.339, 4.703e-4
-1.338, 4.619e-4
-1.337, 4.501e-4
-1.336, 4.392e-4
-1.335, 4.330e-4
-1.334, 4.197e-4
-1.333, 4.120e-4
-1.332, 4.025e-4
-1.331, 3.922e-4
-1.330, 3.866e-4
-1.329, 3.750e-4
-1.328, 3.671e-4
-1.327, 3.587e-4
-1.326, 3.482e-4
-1.325, 3.421e-4
-1.324, 3.320e-4
-1.323, 3.245e-4
-1.322, 3.170e-4
-1.321, 3.064e-4
-1.320, 3.011e-4
-1.319, 2.911e-4
-1.318, 2.846e-4
-1.317, 2.779e-4
-1.316, 2.681e-4
-1.315, 2.627e-4
-1.314, 2.536e-4
-1.313, 2.474e-4
-1.312, 2.404e-4
-1.311, 2.318e-4
-1.310, 2.273e-4
-1.309, 2.186e-4
-1.308, 2.136e-4
-1.307, 2.067e-4
-1.306, 1.986e-4
-1.305, 1.937e-4
-1.304, 1.859e-4
-1.303, 1.812e-4
-1.302, 1.749e-4
-1.301, 1.675e-4
-1.300, 1.634e-4
-1.299, 1.555e-4
-1.298, 1.507e-4
-1.297, 1.448e-4
-1.296, 1.380e-4
-1.295, 1.360e-4
-1.294, 1.280e-4
-1.293, 1.234e-4
-1.292, 1.178e-4
-1.291, 1.110e-4
-1.290, 1.085e-4
-1.289, 1.007e-4
-1.288, 9.715e-5
-1.287, 9.299e-5
-1.286, 8.617e-5
-1.285, 8.400e-5
-1.284, 7.692e-5
-1.283, 7.337e-5
-1.282, 6.934e-5
-1.281, 6.305e-5
-1.280, 6.056e-5
-1.279, 5.442e-5
-1.278, 5.113e-5
-1.277, 4.790e-5
-1.276, 4.217e-5
-1.275, 4.029e-5
-1.274, 3.423e-5
-1.273, 3.116e-5
-1.272, 2.741e-5
-1.271, 2.214e-5
-1.270, 2.021e-5
-1.269, 1.484e-5
-1.268, 1.248e-5
-1.267, 9.006e-6
-1.266, 4.132e-6
-1.265, 3.017e-6
-1.264, -2.271e-6
-1.263, -4.323e-6
-1.262, -7.549e-6
-1.261, -1.198e-5
-1.260, -1.263e-5
-1.259, -1.802e-5
-1.258, -1.941e-5
-1.257, -2.262e-5
-1.256, -2.626e-5
-1.255, -2.675e-5
-1.254, -3.201e-5
-1.253, -3.307e-5
-1.252, -3.586e-5
-1.251, -3.975e-5
-1.250, -4.002e-5
-1.249, -4.485e-5
-1.248, -4.563e-5
-1.247, -4.801e-5
-1.246, -5.194e-5
-1.245, -5.128e-5
-1.244, -5.576e-5
-1.243, -5.685e-5
-1.242, -5.881e-5
-1.241, -6.256e-5
-1.240, -6.195e-5
-1.239, -6.625e-5
-1.238, -6.681e-5
-1.237, -6.831e-5
-1.236, -7.202e-5
-1.235, -7.161e-5
-1.234, -7.550e-5
-1.233, -7.573e-5
-1.232, -7.734e-5
-1.231, -8.058e-5
-1.230, -7.969e-5
-1.229, -8.418e-5
-1.228, -8.413e-5
-1.227, -8.600e-5
-1.226, -8.813e-5
-1.225, -8.715e-5
-1.224, -9.100e-5
-1.223, -9.096e-5
-1.222, -9.243e-5
-1.221, -9.440e-5
-1.220, -9.398e-5
-1.219, -9.779e-5
-1.218, -9.688e-5
-1.217, -9.839e-5
-1.216, -1.006e-4
-1.215, -9.965e-5
-1.214, -1.030e-4
-1.213, -1.021e-4
-1.212, -1.034e-4
-1.211, -1.060e-4
-1.210, -1.046e-4
-1.209, -1.080e-4
-1.208, -1.071e-4
-1.207, -1.083e-4
-1.206, -1.104e-4
-1.205, -1.089e-4
-1.204, -1.119e-4
-1.203, -1.118e-4
-1.202, -1.124e-4
-1.201, -1.147e-4
-1.200, -1.128e-4
-1.199, -1.159e-4
-1.198, -1.156e-4
-1.197, -1.166e-4
-1.196, -1.182e-4
-1.195, -1.167e-4
-1.194, -1.196e-4
-1.193, -1.185e-4
-1.192, -1.193e-4
-1.191, -1.214e-4
-1.190, -1.198e-4
-1.189, -1.227e-4
-1.188, -1.218e-4
-1.187, -1.228e-4
-1.186, -1.243e-4
-1.185, -1.232e-4
-1.184, -1.252e-4
-1.183, -1.240e-4
-1.182, -1.255e-4
-1.181, -1.268e-4
-1.180, -1.251e-4
-1.179, -1.278e-4
-1.178, -1.271e-4
-1.177, -1.277e-4
-1.176, -1.288e-4
-1.175, -1.272e-4
-1.174, -1.299e-4
-1.173, -1.286e-4
-1.172, -1.293e-4
-1.171, -1.307e-4
-1.170, -1.304e-4
-1.169, -1.329e-4
-1.168, -1.312e-4
-1.167, -1.315e-4
-1.166, -1.329e-4
-1.165, -1.310e-4
-1.164, -1.347e-4
-1.163, -1.338e-4
-1.162, -1.338e-4
-1.161, -1.361e-4
-1.160, -1.336e-4
-1.159, -1.363e-4
-1.158, -1.349e-4
-1.157, -1.348e-4
-1.156, -1.370e-4
-1.155, -1.354e-4
-1.154, -1.375e-4
-1.153, -1.361e-4
-1.152, -1.370e-4
-1.151, -1.382e-4
-1.150, -1.362e-4
-1.149, -1.388e-4
-1.148, -1.375e-4
-1.147, -1.386e-4
-1.146, -1.403e-4
-1.145, -1.384e-4
-1.144, -1.405e-4
-1.143, -1.391e-4
-1.142, -1.400e-4
-1.141, -1.411e-4
-1.140, -1.394e-4
-1.139, -1.422e-4
-1.138, -1.407e-4
-1.137, -1.417e-4
-1.136, -1.424e-4
-1.135, -1.406e-4
-1.134, -1.437e-4
-1.133, -1.417e-4
-1.132, -1.427e-4
-1.131, -1.442e-4
-1.130, -1.422e-4
-1.129, -1.449e-4
-1.128, -1.432e-4
-1.127, -1.440e-4
-1.126, -1.458e-4
-1.125, -1.436e-4
-1.124, -1.465e-4
-1.123, -1.446e-4
-1.122, -1.453e-4
-1.121, -1.468e-4
-1.120, -1.449e-4
-1.119, -1.477e-4
-1.118, -1.462e-4
-1.117, -1.467e-4
-1.116, -1.481e-4
-1.115, -1.461e-4
-1.114, -1.483e-4
-1.113, -1.483e-4
-1.112, -1.487e-4
-1.111, -1.496e-4
-1.110, -1.480e-4
-1.109, -1.501e-4
-1.108, -1.486e-4
-1.107, -1.496e-4
-1.106, -1.506e-4
-1.105, -1.490e-4
-1.104, -1.513e-4
-1.103, -1.499e-4
-1.102, -1.508e-4
-1.101, -1.510e-4
-1.100, -1.495e-4
-1.099, -1.529e-4
-1.098, -1.510e-4
-1.097, -1.518e-4
-1.096, -1.575e-4
-1.095, -1.563e-4
-1.094, -1.554e-4
-1.093, -1.522e-4
-1.092, -1.527e-4
-1.091, -1.543e-4
-1.090, -1.520e-4
-1.089, -1.553e-4
-1.088, -1.532e-4
-1.087, -1.538e-4
-1.086, -1.545e-4
-1.085, -1.527e-4
-1.084, -1.557e-4
-1.083, -1.541e-4
-1.082, -1.547e-4
-1.081, -1.559e-4
-1.080, -1.541e-4
-1.079, -1.568e-4
-1.078, -1.551e-4
-1.077, -1.555e-4
-1.076, -1.570e-4
-1.075, -1.555e-4
-1.074, -1.578e-4
-1.073, -1.561e-4
-1.072, -1.565e-4
-1.071, -1.568e-4
-1.070, -1.547e-4
-1.069, -1.594e-4
-1.068, -1.574e-4
-1.067, -1.578e-4
-1.066, -1.584e-4
-1.065, -1.572e-4
-1.064, -1.595e-4
-1.063, -1.574e-4
-1.062, -1.587e-4
-1.061, -1.585e-4
-1.060, -1.577e-4
-1.059, -1.610e-4
-1.058, -1.587e-4
-1.057, -1.597e-4
-1.056, -1.606e-4
-1.055, -1.588e-4
-1.054, -1.614e-4
-1.053, -1.594e-4
-1.052, -1.602e-4
-1.051, -1.612e-4
-1.050, -1.596e-4
-1.049, -1.622e-4
-1.048, -1.595e-4
-1.047, -1.590e-4
-1.046, -1.595e-4
-1.045, -1.579e-4
-1.044, -1.610e-4
-1.043, -1.633e-4
-1.042, -1.630e-4
-1.041, -1.645e-4
-1.040, -1.619e-4
-1.039, -1.640e-4
-1.038, -1.625e-4
-1.037, -1.630e-4
-1.036, -1.637e-4
-1.035, -1.619e-4
-1.034, -1.658e-4
-1.033, -1.634e-4
-1.032, -1.637e-4
-1.031, -1.647e-4
-1.030, -1.632e-4
-1.029, -1.653e-4
-1.028, -1.637e-4
-1.027, -1.649e-4
-1.026, -1.653e-4
-1.025, -1.635e-4
-1.024, -1.664e-4
-1.023, -1.643e-4
-1.022, -1.652e-4
-1.021, -1.664e-4
-1.020, -1.646e-4
-1.019, -1.669e-4
-1.018, -1.643e-4
-1.017, -1.660e-4
-1.016, -1.666e-4
-1.015, -1.652e-4
-1.014, -1.670e-4
-1.013, -1.647e-4
-1.012, -1.674e-4
-1.011, -1.689e-4
-1.010, -1.666e-4
-1.009, -1.698e-4
-1.008, -1.669e-4
-1.007, -1.677e-4
-1.006, -1.686e-4
-1.005, -1.667e-4
-1.004, -1.694e-4
-1.003, -1.658e-4
-1.002, -1.667e-4
-1.001, -1.673e-4
