Potential V vs RHE, Current mA cm-2
0.013299999999999867,-0.48199213986401795
0.012299999999999978,-1.7033124050375041
0.011299999999999866,-2.4446211261667834
0.010299999999999976,-2.924208256821031
0.009299999999999864,-3.317497998183511
0.008299999999999974,-3.6655169779503103
0.007299999999999862,-3.927238568425342
0.006299999999999972,-4.146518819904423
0.00529999999999986,-4.364384360083638
0.0042999999999999705,-4.538393849967037
0.0032999999999998586,-4.756259390146253
0.0022999999999999687,-4.843971490737885
0.0012999999999998568,-4.974124930325469
0.00029999999999996696,-5.0618370309171015
-0.000700000000000145,-5.105693081212917
-0.0017000000000000348,-5.191990470504685
-0.0027000000000001467,-5.279702571096316
-0.0037000000000000366,-5.323558621392133
-0.0047000000000001485,-5.411270721983764
-0.005700000000000038,-5.497568111275533
-0.00670000000000015,-5.629136262162981
-0.00770000000000004,-5.715433651454749
-0.008700000000000152,-5.80314575204638
-0.009700000000000042,-5.890857852638012
-0.010700000000000154,-5.977155241929781
-0.011700000000000044,-6.064867342521412
-0.012700000000000156,-6.108723392817228
-0.013700000000000045,-6.108723392817228
-0.014700000000000157,-6.152579443113044
-0.015700000000000047,-6.196435493408861
-0.01670000000000016,-6.238876832404812
-0.01770000000000005,-6.326588932996443
-0.01870000000000016,-6.37044498329226
-0.01970000000000005,-6.458157083883892
-0.020700000000000163,-6.54445447317566
-0.021700000000000053,-6.632166573767292
-0.022700000000000164,-6.762320013354876
-0.023700000000000054,-6.806176063650692
-0.024700000000000166,-6.893888164242324
-0.025700000000000056,-6.93774421453814
-0.026700000000000168,-6.981600264833956
-0.027700000000000058,-6.981600264833956
-0.02870000000000017,-7.024041603829907
-0.02970000000000006,-7.067897654125724
-0.03070000000000017,-7.111753704421539
-0.03170000000000006,-7.199465805013171
-0.03270000000000017,-7.243321855308987
-0.03370000000000006,-7.37347529489657
-0.034700000000000175,-7.461187395488204
-0.035700000000000065,-7.5474847847799715
-0.03670000000000018,-7.635196885371603
-0.03770000000000007,-7.679052935667419
-0.03870000000000018,-7.722908985963235
-0.03970000000000007,-7.7653503249591855
-0.04070000000000018,-7.809206375255003
-0.04170000000000007,-7.809206375255003
-0.04270000000000018,-7.853062425550818
-0.04370000000000007,-7.896918475846635
-0.044700000000000184,-7.940774526142452
-0.045700000000000074,-8.027071915434218
-0.046700000000000186,-8.11478401602585
-0.047700000000000076,-8.202496116617484
-0.04870000000000019,-8.288793505909249
-0.04970000000000008,-8.332649556205066
-0.05070000000000019,-8.4203616567967
-0.05170000000000008,-8.464217707092514
-0.05270000000000019,-8.508073757388331
-0.05370000000000008,-8.508073757388331
-0.05470000000000019,-8.55051509638428
-0.05570000000000008,-8.55051509638428
-0.056700000000000195,-8.55051509638428
-0.057700000000000085,-8.638227196975913
-0.058700000000000196,-8.68208324727173
-0.059700000000000086,-8.725939297567548
-0.0607000000000002,-8.812236686859313
-0.06170000000000009,-8.899948787450944
-0.0627000000000002,-8.943804837746763
-0.06370000000000009,-8.987660888042578
-0.0647000000000002,-9.073958277334345
-0.06570000000000009,-9.073958277334345
-0.0667000000000002,-9.073958277334345
-0.0677000000000001,-9.11781432763016
-0.0687000000000002,-9.11781432763016
-0.0697000000000001,-9.11781432763016
-0.07070000000000021,-9.11781432763016
-0.0717000000000001,-9.161670377925978
-0.07270000000000021,-9.205526428221793
-0.0737000000000001,-9.24938247851761
-0.07470000000000021,-9.293238528813426
-0.0757000000000001,-9.379535918105192
-0.07670000000000021,-9.423391968401008
-0.0777000000000001,-9.467248018696827
-0.07870000000000021,-9.467248018696827
-0.0797000000000001,-9.467248018696827
-0.08070000000000022,-9.467248018696827
-0.0817000000000001,-9.467248018696827
-0.08270000000000022,-9.423391968401008
-0.08370000000000011,-9.423391968401008
-0.08470000000000022,-9.423391968401008
-0.08570000000000011,-9.467248018696827
-0.08670000000000022,-9.511104068992642
-0.08770000000000011,-9.55496011928846
-0.08870000000000022,-9.55496011928846
-0.08970000000000011,-9.59740145828441
-0.09070000000000022,-9.641257508580225
-0.09170000000000011,-9.59740145828441
-0.09270000000000023,-9.59740145828441
-0.09370000000000012,-9.55496011928846
-0.09470000000000023,-9.55496011928846
-0.09570000000000012,-9.511104068992642
-0.09670000000000023,-9.467248018696827
-0.09770000000000012,-9.467248018696827
-0.09870000000000023,-9.467248018696827
-0.09970000000000012,-9.511104068992642
-0.10070000000000023,-9.55496011928846
-0.10170000000000012,-9.55496011928846
-0.10270000000000024,-9.55496011928846
-0.10370000000000013,-9.55496011928846
-0.10470000000000024,-9.55496011928846
-0.10570000000000013,-9.55496011928846
-0.10670000000000024,-9.467248018696827
-0.10770000000000013,-9.423391968401008
-0.10870000000000024,-9.423391968401008
-0.10970000000000013,-9.335679867809377
-0.11070000000000024,-9.335679867809377
-0.11170000000000013,-9.335679867809377
-0.11270000000000002,-9.293238528813426
-0.11370000000000013,-9.335679867809377
-0.11470000000000002,-9.293238528813426
-0.11570000000000014,-9.335679867809377
-0.11670000000000003,-9.335679867809377
-0.11770000000000014,-9.293238528813426
-0.11870000000000003,-9.293238528813426
-0.11970000000000014,-9.205526428221793
-0.12070000000000003,-9.161670377925978
-0.12170000000000014,-9.073958277334345
-0.12270000000000003,-9.031516938338395
-0.12370000000000014,-8.987660888042578
-0.12470000000000003,-8.943804837746763
-0.12570000000000014,-8.943804837746763
-0.12670000000000003,-8.943804837746763
-0.12770000000000015,-8.943804837746763
-0.12870000000000004,-8.899948787450944
-0.12970000000000015,-8.943804837746763
-0.13070000000000004,-8.899948787450944
-0.13170000000000015,-8.85609273715513
-0.13270000000000004,-8.812236686859313
-0.13370000000000015,-8.769795347863363
-0.13470000000000004,-8.68208324727173
-0.13570000000000015,-8.638227196975913
-0.13670000000000004,-8.55051509638428
-0.13770000000000016,-8.508073757388331
-0.13870000000000005,-8.508073757388331
-0.13970000000000016,-8.508073757388331
-0.14070000000000005,-8.464217707092514
-0.14170000000000016,-8.464217707092514
-0.14270000000000005,-8.464217707092514
-0.14370000000000016,-8.4203616567967
-0.14470000000000005,-8.376505606500881
-0.14570000000000016,-8.332649556205066
-0.14670000000000005,-8.288793505909249
-0.14770000000000016,-8.202496116617484
-0.14870000000000005,-8.158640066321666
-0.14970000000000017,-8.070927965730034
-0.15070000000000006,-8.070927965730034
-0.15170000000000017,-8.027071915434218
-0.15270000000000006,-8.027071915434218
-0.15370000000000017,-7.984630576438266
-0.15470000000000006,-7.984630576438266
-0.15570000000000017,-7.984630576438266
-0.15670000000000006,-7.984630576438266
-0.15770000000000017,-7.940774526142452
-0.15870000000000006,-7.896918475846635
-0.15970000000000018,-7.809206375255003
-0.16070000000000007,-7.7653503249591855
-0.16170000000000018,-7.722908985963235
-0.16270000000000007,-7.635196885371603
-0.16370000000000018,-7.591340835075788
-0.16470000000000007,-7.591340835075788
-0.16570000000000018,-7.5474847847799715
-0.16670000000000007,-7.5474847847799715
-0.16770000000000018,-7.5474847847799715
-0.16870000000000007,-7.5474847847799715
-0.16970000000000018,-7.50504344578402
-0.17070000000000007,-7.50504344578402
-0.17170000000000019,-7.50504344578402
-0.17270000000000008,-7.4173313451923875
-0.1737000000000002,-7.37347529489657
-0.17470000000000008,-7.28576319430494
-0.1757000000000002,-7.243321855308987
-0.17670000000000008,-7.199465805013171
-0.1777000000000002,-7.155609754717355
-0.17870000000000008,-7.155609754717355
-0.1797000000000002,-7.155609754717355
-0.18070000000000008,-7.155609754717355
-0.1817000000000002,-7.155609754717355
-0.18270000000000008,-7.155609754717355
-0.1837000000000002,-7.155609754717355
-0.1847000000000001,-7.111753704421539
-0.1857000000000002,-7.067897654125724
-0.1867000000000001,-7.024041603829907
-0.1877000000000002,-6.981600264833956
-0.1887000000000001,-6.93774421453814
-0.1897000000000002,-6.850032113946507
-0.1907000000000001,-6.850032113946507
-0.1917000000000001,-6.806176063650692
-0.19269999999999998,-6.806176063650692
-0.1937000000000001,-6.806176063650692
-0.19469999999999998,-6.850032113946507
-0.1957000000000001,-6.850032113946507
-0.19669999999999999,-6.850032113946507
-0.1977000000000001,-6.850032113946507
-0.1987,-6.806176063650692
-0.1997000000000001,-6.762320013354876
-0.2007,-6.719878674358924
-0.2017000000000001,-6.6760226240631075
-0.2027,-6.632166573767292
-0.2037000000000001,-6.588310523471475
-0.2047,-6.588310523471475
-0.2057000000000001,-6.54445447317566
-0.2067,-6.588310523471475
-0.2077000000000001,-6.588310523471475
-0.2087,-6.588310523471475
-0.2097000000000001,-6.632166573767292
-0.2107,-6.588310523471475
-0.2117000000000001,-6.588310523471475
-0.2127,-6.54445447317566
-0.2137000000000001,-6.500598422879844
-0.2147,-6.458157083883892
-0.2157000000000001,-6.458157083883892
-0.2167,-6.414301033588076
-0.21770000000000012,-6.37044498329226
-0.2187,-6.37044498329226
-0.21970000000000012,-6.414301033588076
-0.2207,-6.414301033588076
-0.22170000000000012,-6.414301033588076
-0.2227,-6.414301033588076
-0.22370000000000012,-6.414301033588076
-0.2247,-6.414301033588076
-0.22570000000000012,-6.37044498329226
-0.2267,-6.326588932996443
-0.22770000000000012,-6.282732882700628
-0.22870000000000001,-6.282732882700628
-0.22970000000000013,-6.238876832404812
-0.23070000000000002,-6.238876832404812
-0.23170000000000013,-6.196435493408861
-0.23270000000000002,-6.238876832404812
-0.23370000000000013,-6.238876832404812
-0.23470000000000002,-6.238876832404812
-0.23570000000000013,-6.282732882700628
-0.23670000000000002,-6.282732882700628
-0.2376999999999999,-6.238876832404812
-0.23870000000000002,-6.282732882700628
-0.2396999999999999,-6.196435493408861
-0.24070000000000003,-6.196435493408861
-0.24169999999999991,-6.152579443113044
-0.24270000000000003,-6.108723392817228
-0.24369999999999992,-6.108723392817228
-0.24470000000000003,-6.108723392817228
-0.24569999999999992,-6.064867342521412
-0.24670000000000003,-6.108723392817228
-0.24769999999999992,-6.108723392817228
-0.24870000000000003,-6.152579443113044
-0.24969999999999992,-6.196435493408861
-0.25070000000000003,-6.152579443113044
-0.2516999999999999,-6.152579443113044
-0.25270000000000004,-6.152579443113044
-0.2536999999999999,-6.108723392817228
-0.25470000000000004,-6.064867342521412
-0.2556999999999999,-6.021011292225596
-0.25670000000000004,-6.021011292225596
-0.25769999999999993,-6.021011292225596
-0.25870000000000004,-6.021011292225596
-0.25969999999999993,-6.064867342521412
-0.26070000000000004,-6.064867342521412
-0.26169999999999993,-6.108723392817228
-0.26270000000000004,-6.108723392817228
-0.26369999999999993,-6.108723392817228
-0.26470000000000005,-6.108723392817228
-0.26569999999999994,-6.108723392817228
-0.26670000000000005,-6.064867342521412
-0.26769999999999994,-6.064867342521412
-0.26870000000000005,-6.021011292225596
-0.26969999999999994,-5.977155241929781
-0.27070000000000005,-5.977155241929781
-0.27169999999999994,-6.021011292225596
-0.27270000000000005,-6.021011292225596
-0.27369999999999994,-6.064867342521412
-0.27470000000000006,-6.064867342521412
-0.27569999999999995,-6.108723392817228
-0.27670000000000006,-6.152579443113044
-0.27769999999999995,-6.108723392817228
-0.27870000000000006,-6.108723392817228
-0.27969999999999995,-6.064867342521412
-0.28070000000000006,-6.064867342521412
-0.28169999999999995,-6.064867342521412
-0.28270000000000006,-6.021011292225596
-0.28369999999999995,-6.021011292225596
-0.28470000000000006,-6.064867342521412
-0.28569999999999995,-6.064867342521412
-0.28670000000000007,-6.108723392817228
-0.28769999999999996,-6.152579443113044
-0.28870000000000007,-6.152579443113044
-0.28969999999999996,-6.196435493408861
-0.29070000000000007,-6.196435493408861
-0.29169999999999996,-6.238876832404812
-0.29270000000000007,-6.196435493408861
-0.29369999999999996,-6.196435493408861
-0.2947000000000001,-6.196435493408861
-0.29569999999999996,-6.152579443113044
-0.2967000000000001,-6.152579443113044
-0.29769999999999996,-6.196435493408861
-0.2987000000000001,-6.196435493408861
-0.29969999999999997,-6.238876832404812
-0.3007000000000001,-6.282732882700628
-0.30169999999999997,-6.326588932996443
-0.3027000000000001,-6.37044498329226
-0.30369999999999997,-6.414301033588076
-0.3047000000000001,-6.414301033588076
-0.30569999999999997,-6.414301033588076
-0.3067000000000001,-6.414301033588076
-0.3077,-6.414301033588076
-0.3087000000000001,-6.414301033588076
-0.3097,-6.37044498329226
-0.3107000000000001,-6.458157083883892
-0.3117,-6.458157083883892
-0.3127000000000001,-6.500598422879844
-0.3137,-6.54445447317566
-0.3147000000000001,-6.588310523471475
-0.3157,-6.6760226240631075
-0.3167000000000001,-6.719878674358924
-0.3177,-6.762320013354876
-0.3187000000000001,-6.762320013354876
-0.3197,-6.762320013354876
-0.3207000000000001,-6.762320013354876
-0.3217,-6.806176063650692
-0.3227000000000001,-6.806176063650692
-0.3237,-6.850032113946507
-0.3247000000000001,-6.893888164242324
-0.3257,-6.93774421453814
-0.3267000000000001,-7.024041603829907
-0.3277,-7.067897654125724
-0.3287000000000001,-7.155609754717355
-0.3297,-7.199465805013171
-0.3307000000000001,-7.28576319430494
-0.3317,-7.329619244600755
-0.3327000000000001,-7.329619244600755
-0.3337,-7.37347529489657
-0.3347000000000001,-7.4173313451923875
-0.3357,-7.461187395488204
-0.3367000000000001,-7.461187395488204
-0.3377,-7.5474847847799715
-0.3387000000000001,-7.635196885371603
-0.3397,-7.722908985963235
-0.3407000000000001,-7.809206375255003
-0.3417,-7.896918475846635
-0.3427000000000001,-7.984630576438266
-0.3437,-8.070927965730034
-0.3447000000000001,-8.158640066321666
-0.3457,-8.202496116617484
-0.3467000000000001,-8.246352166913299
-0.3477,-8.332649556205066
-0.3487000000000001,-8.376505606500881
-0.3497,-8.464217707092514
-0.3507000000000001,-8.55051509638428
-0.3517,-8.638227196975913
-0.3527000000000001,-8.769795347863363
-0.3537,-8.899948787450944
-0.3547000000000001,-8.987660888042578
-0.3557,-9.161670377925978
-0.35670000000000013,-9.293238528813426
-0.3577,-9.379535918105192
-0.35870000000000013,-9.511104068992642
-0.3597,-9.59740145828441
-0.36070000000000013,-9.685113558876042
-0.3617,-9.81668170976349
-0.3626999999999999,-9.902979099055257
-0.3637,-10.034547249942705
-0.3646999999999999,-10.208556739826104
-0.3657,-10.340124890713554
-0.3666999999999999,-10.514134380596953
-0.3677,-10.688143870480351
-0.3686999999999999,-10.906009410659568
-0.36970000000000003,-11.123874950838783
-0.3706999999999999,-11.255443101726232
-0.37170000000000003,-11.42945259160963
-0.3726999999999999,-11.56102074249708
-0.37370000000000003,-11.73503023238048
-0.3746999999999999,-11.909039722263879
-0.37570000000000003,-12.084463923447142
-0.3766999999999999,-12.258473413330542
-0.37770000000000004,-12.476338953509758
-0.3786999999999999,-12.694204493688973
-0.37970000000000004,-12.955926084164007
-0.3806999999999999,-13.217647674639037
-0.38170000000000004,-13.47936926511407
-0.38269999999999993,-13.741090855589102
-0.38370000000000004,-14.002812446064135
-0.38469999999999993,-14.26028990263957
-0.38570000000000004,-14.529085049613924
-0.38669999999999993,-14.783733083589633
-0.38770000000000004,-15.05252823056399
-0.38869999999999993,-15.307176264539699
-0.38970000000000005,-15.575971411514052
-0.39069999999999994,-15.91550212348166
-0.39170000000000005,-16.184297270456018
-0.39269999999999994,-16.580416434418233
-0.39370000000000005,-16.919947146385837
-0.39469999999999994,-17.2736249713521
-0.39570000000000005,-17.669744135314307
-0.39669999999999994,-18.06586329927652
-0.39770000000000005,-18.44783535024008
-0.39869999999999994,-18.88639585319824
-0.39970000000000006,-19.2400736781645
-0.40069999999999995,-19.678634181122664
-0.40170000000000006,-20.06060623208622
-0.40269999999999995,-20.456725396048434
-0.40370000000000006,-20.93772723800254
-0.40469999999999995,-21.418729079956652
-0.40570000000000006,-21.94217226090672
-0.40669999999999995,-22.46561544185678
-0.40770000000000006,-23.031499961802798
-0.40869999999999995,-23.597384481748815
-0.40970000000000006,-24.20571034069078
-0.41069999999999995,-24.771594860636792
-0.41170000000000007,-25.337479380582806
-0.41269999999999996,-25.959952352523427
-0.41370000000000007,-26.568278211465387
-0.41469999999999996,-27.176604070407354
-0.41570000000000007,-27.827371268345274
-0.41669999999999996,-28.478138466283188
-0.41770000000000007,-29.18549411621571
-0.41869999999999996,-29.878702653149578
-0.4197000000000001,-30.670940981073993
-0.42069999999999996,-31.449032195999767
-0.4217000000000001,-32.24127052392419
-0.42269999999999996,-33.06180307784591
-0.4237000000000001,-33.89648274476628
-0.42469999999999997,-34.75945663768395
-0.4257000000000001,-35.636577643600276
-0.42669999999999997,-36.47125731052064
-0.4277000000000001,-37.376672542434264
-0.42869999999999997,-38.253793548350586
-0.4297000000000001,-39.173355893262865
-0.43069999999999997,-40.135359577171094
-0.4317000000000001,-41.139804600075266
-0.4327,-42.130102509980794
-0.4337000000000001,-43.23357732387552
-0.4347,-44.28046368577565
-0.4357000000000001,-45.412232725667685
-0.4367,-46.544001765559706
-0.4377000000000001,-47.633329466455784
-0.4387,-48.80753984534376
-0.4397000000000001,-49.98175022423175
-0.4407,-51.127666377122424
-0.4417000000000001,-52.30187675601041
-0.4427,-53.518528473894335
-0.4437000000000001,-54.791768643772876
-0.4447,-56.05086170065276
-0.4457000000000001,-57.30995475753264
-0.4467,-58.66807760540307
-0.4477000000000001,-60.02620045327351
-0.4487,-61.412617527141244
-0.4497000000000001,-62.81318171400764
-0.4507,-64.19959878787537
-0.4517000000000001,-65.60016297474175
-0.4527,-67.08560983960004
-0.4537000000000001,-68.52861536546239
-0.4547,-69.95747377832606
-0.4557000000000001,-71.4004793041884
-0.4567,-72.8859261690467
-0.4577000000000001,-74.37137303390499
-0.4587,-75.8992612377592
-0.4597000000000001,-77.51203211960537
-0.4607,-79.08236166245555
-0.4617000000000001,-80.69513254430169
-0.4627,-82.39278610413973
-0.4637000000000001,-84.00555698598588
-0.4647,-85.66076920682796
-0.4657000000000001,-87.33012854066871
-0.4667,-88.9853407615108
-0.4677000000000001,-90.68299432134886
-0.4687,-92.33820654219093
-0.4697000000000001,-94.03586010202899
-0.4707,-95.74766077486568
-0.4717000000000001,-97.4877556736997
-0.4727,-99.27029191152963
-0.4737000000000001,-101.10941660135417
-0.4747,-102.93439417818009
-0.4757000000000001,-104.77351886800463
-0.4767,-106.59849644483052
-0.4777000000000001,-108.43762113465506
-0.4787,-110.26259871148096
-0.4797000000000001,-112.14416474030146
-0.4807,-113.96914231712736
-0.48170000000000013,-115.85070834594785
-0.4827,-117.67568592277377
-0.48370000000000013,-119.5996932905902
-0.4847,-121.43881798041474
-0.48570000000000013,-123.39111957422851
-0.4867,-123.99944543317046
-0.48570000000000013,-122.82523505428249
-0.4847,-121.86323137037427
-0.48370000000000013,-121.00025747745659
-0.4827,-120.08069513254432
-0.48170000000000013,-119.1186914486361
-0.4807,-118.11424642573192
-0.4797000000000001,-117.10980140282774
-0.4787,-116.06291504092759
-0.4777000000000001,-115.01602867902749
-0.4767,-113.92670097813141
-0.4757000000000001,-112.87981461623129
-0.4747,-111.7904869153352
-0.4737000000000001,-110.70115921443913
-0.4727,-109.654272852539
-0.4717000000000001,-108.60738649063886
-0.4707,-107.51805878974278
-0.4697000000000001,-106.4287310888467
-0.4687,-105.33940338795064
-0.4677000000000001,-104.25007568705455
-0.4667,-103.11830664716253
-0.4657000000000001,-101.97239049427183
-0.4647,-100.84062145437981
-0.4637000000000001,-99.70885241448778
-0.4627,-98.6195247135917
-0.4617000000000001,-97.4877556736997
-0.4607,-96.3984279728036
-0.4597000000000001,-95.30910027190752
