Potential V vs RHE, Current mA cm-2
0.05339999999999995,-0.04460584728474461
0.05239999999999995,-0.046062999923605595
0.051399999999999946,-0.04667132578254756
0.050399999999999945,-0.047166474737500325
0.049399999999999944,-0.047689917918450384
0.04839999999999994,-0.04821336109940045
0.04739999999999994,-0.04872265716735186
0.04639999999999994,-0.04914707055731138
0.04539999999999994,-0.049571483947270886
0.04439999999999994,-0.050010044450229045
0.04339999999999994,-0.05050519340518181
0.04239999999999994,-0.05097204813413727
0.04139999999999994,-0.05138231441109813
0.040399999999999936,-0.05179258068805899
0.039399999999999935,-0.05228772964301176
0.038399999999999934,-0.05282531993696047
0.03739999999999993,-0.05327802755291729
0.03639999999999993,-0.05367414671687949
0.03539999999999993,-0.0540702658808417
0.03439999999999993,-0.05456541483579446
0.03339999999999993,-0.05504641667774857
0.03239999999999993,-0.05549912429370539
0.03139999999999993,-0.0559235376836649
0.030399999999999927,-0.05633380396062577
0.029399999999999926,-0.05678651157658257
0.028399999999999925,-0.057295807644533986
0.027399999999999924,-0.05773436814749215
0.026399999999999924,-0.058144634424453
0.025399999999999923,-0.05858319492741117
0.024399999999999922,-0.05900760831737068
0.02339999999999992,-0.05951690438532209
0.02239999999999992,-0.05994131777528161
0.02139999999999992,-0.06036573116524111
0.020399999999999918,-0.06080429166819928
0.019399999999999917,-0.06124285217115744
0.018399999999999916,-0.061780442465106146
0.017399999999999916,-0.06223315008106296
0.016399999999999915,-0.06262926924502517
0.015399999999999914,-0.06306782974798335
0.014399999999999913,-0.0635346844769388
0.013399999999999912,-0.06408642188388616
0.012399999999999911,-0.06455327661284163
0.01139999999999991,-0.06493524866380519
0.01039999999999991,-0.06537380916676334
0.009399999999999908,-0.0658406638957188
0.008399999999999908,-0.06633581285067157
0.007399999999999907,-0.06683096180562433
0.006399999999999906,-0.0672412280825852
0.005399999999999905,-0.0676656414725447
0.004399999999999904,-0.06811834908850152
0.003399999999999903,-0.06862764515645292
0.002399999999999902,-0.06910864699840705
0.0013999999999999013,-0.06949061904937061
0.00039999999999990044,-0.06991503243933012
-0.0006000000000001005,-0.07036774005528693
-0.0016000000000001013,-0.07089118323623698
-0.0026000000000001022,-0.0713721850781911
-0.003600000000000103,-0.07178245135515196
-0.004600000000000104,-0.07217857051911417
-0.005600000000000105,-0.07263127813507098
-0.006600000000000106,-0.07314057420302239
-0.007600000000000107,-0.07360742893197786
-0.008600000000000108,-0.07400354809594006
-0.009600000000000108,-0.07439966725990228
-0.01060000000000011,-0.07488066910185638
-0.01160000000000011,-0.07536167094381051
-0.012600000000000111,-0.07584267278576462
-0.013600000000000112,-0.07622464483672817
-0.014600000000000113,-0.07660661688769173
-0.015600000000000114,-0.07704517739064991
-0.016600000000000115,-0.07755447345860131
-0.017600000000000116,-0.07797888684856082
-0.018600000000000116,-0.07837500601252304
-0.019600000000000117,-0.0787569780634866
-0.020600000000000118,-0.0791813914534461
-0.02160000000000012,-0.07964824618240157
-0.02260000000000012,-0.08005851245936244
-0.02360000000000012,-0.080440484510326
-0.024600000000000122,-0.08085075078728685
-0.025600000000000123,-0.08124686995124906
-0.026600000000000124,-0.08174201890620184
-0.027600000000000124,-0.08215228518316267
-0.028600000000000125,-0.08252011012112759
-0.029600000000000126,-0.0828879350590925
-0.030600000000000127,-0.08325575999705741
-0.03160000000000013,-0.08368017338701693
-0.03260000000000013,-0.08406214543798048
-0.03360000000000013,-0.08438752903694943
-0.03460000000000002,-0.0847412068619157
-0.03560000000000002,-0.08513732602587791
-0.03660000000000002,-0.08556173941583743
-0.03760000000000002,-0.08597200569279828
-0.03860000000000002,-0.08629738929176724
-0.039600000000000024,-0.08660862577773754
-0.040600000000000025,-0.08697645071570247
-0.041600000000000026,-0.08735842276666603
-0.04260000000000003,-0.08768380636563497
-0.04360000000000003,-0.08798089573860662
-0.04460000000000003,-0.08829213222457694
-0.04560000000000003,-0.08861751582354589
-0.04660000000000003,-0.08899948787450947
-0.04760000000000003,-0.08933901858647707
-0.04860000000000003,-0.08963610795944872
-0.04960000000000003,-0.08993319733242039
-0.050600000000000034,-0.09024443381839069
-0.051600000000000035,-0.09062640586935425
-0.052600000000000036,-0.09093764235532456
-0.053600000000000037,-0.09119229038930025
-0.05460000000000004,-0.09144693842327598
-0.05560000000000004,-0.09172988068324898
-0.05660000000000004,-0.09209770562121389
-0.05760000000000004,-0.09239479499418554
-0.05860000000000004,-0.09262114880216396
-0.05960000000000004,-0.09286164972314101
-0.06060000000000004,-0.09311629775711672
-0.061600000000000044,-0.09342753424308703
-0.06260000000000004,-0.09371047650306003
-0.06360000000000005,-0.09393683031103843
-0.06460000000000005,-0.09413488989301955
-0.06560000000000005,-0.0943753908139966
-0.06660000000000005,-0.09464418596097096
-0.06760000000000005,-0.09488468688194801
-0.06860000000000005,-0.09506859935093047
-0.06960000000000005,-0.09523836470691427
-0.07060000000000005,-0.09545057140189403
-0.07160000000000005,-0.09569107232287108
-0.07260000000000005,-0.09593157324384814
-0.07360000000000005,-0.0960871914868333
-0.07460000000000006,-0.09624280972981844
-0.07560000000000006,-0.0964267221988009
-0.07660000000000006,-0.0966530760067793
-0.07760000000000006,-0.09685113558876042
-0.07860000000000006,-0.09697845960574826
-0.07960000000000006,-0.09707748939673881
-0.08060000000000006,-0.09723310763972397
-0.08160000000000006,-0.09743116722170508
-0.08260000000000006,-0.09760093257768888
-0.08360000000000006,-0.09771410948167808
-0.08460000000000006,-0.09778484504667133
-0.08560000000000006,-0.0979121690636592
-0.08660000000000007,-0.09811022864564029
-0.08760000000000007,-0.09820925843663084
-0.08860000000000007,-0.09829414111462276
-0.08960000000000007,-0.09835072956661735
-0.09060000000000007,-0.09843561224460926
-0.09160000000000007,-0.09860537760059306
-0.09260000000000007,-0.09871855450458226
-0.09360000000000007,-0.09876099584357821
-0.09460000000000007,-0.09880343718257417
-0.09560000000000007,-0.09887417274756742
-0.09660000000000007,-0.09898734965155662
-0.09760000000000008,-0.09908637944254717
-0.09860000000000008,-0.09908637944254717
-0.09960000000000008,-0.09910052655554581
-0.10060000000000008,-0.09914296789454177
-0.10160000000000008,-0.09924199768553231
-0.10260000000000008,-0.09931273325052556
-0.10360000000000008,-0.09928443902452828
-0.10460000000000008,-0.09928443902452828
-0.10560000000000008,-0.09931273325052556
-0.10660000000000008,-0.09938346881551882
-0.10760000000000008,-0.09942591015451478
-0.10860000000000009,-0.09938346881551882
-0.10960000000000009,-0.09935517458952153
-0.11060000000000009,-0.09934102747652288
-0.11160000000000009,-0.09939761592851748
-0.11260000000000009,-0.09944005726751343
-0.11360000000000009,-0.09936932170252018
-0.11460000000000009,-0.09936932170252018
-0.11560000000000009,-0.09932688036352423
-0.11660000000000009,-0.09935517458952153
-0.1176000000000001,-0.09935517458952153
-0.1186000000000001,-0.09928443902452828
-0.1196000000000001,-0.09919955634653636
-0.1206000000000001,-0.09917126212053906
-0.1216000000000001,-0.09918540923353773
-0.1226000000000001,-0.09917126212053906
-0.1236000000000001,-0.09908637944254717
-0.1246000000000001,-0.09897320253855796
-0.1256000000000001,-0.09893076119956201
-0.1266000000000001,-0.09893076119956201
-0.1276000000000001,-0.09890246697356471
-0.1286000000000001,-0.0988175842955728
-0.1296000000000001,-0.0987044073915836
-0.1306000000000001,-0.09861952471359171
-0.1316000000000001,-0.09863367182659036
-0.1326000000000001,-0.09857708337459577
-0.1336000000000001,-0.09846390647060656
-0.1346000000000001,-0.09835072956661735
-0.1356000000000001,-0.0982516997756268
-0.1366000000000001,-0.09823755266262815
-0.1376000000000001,-0.09816681709763489
-0.1386000000000001,-0.09803949308064704
-0.1396000000000001,-0.09794046328965648
-0.1406000000000001,-0.09782728638566728
-0.14160000000000011,-0.09782728638566728
-0.14260000000000012,-0.0977424037076754
-0.14360000000000012,-0.09760093257768888
-0.14460000000000012,-0.09747360856070103
-0.14560000000000012,-0.09736043165671183
-0.14660000000000012,-0.09733213743071452
-0.14760000000000012,-0.09727554897871993
-0.14860000000000012,-0.09713407784873342
-0.14960000000000012,-0.09697845960574826
-0.15060000000000012,-0.09686528270175906
-0.15160000000000012,-0.0967945471367658
-0.15260000000000012,-0.09675210579776986
-0.15360000000000013,-0.0965964875547847
-0.15460000000000013,-0.09644086931179956
-0.15560000000000013,-0.09632769240781036
-0.15660000000000013,-0.09627110395581574
-0.15760000000000013,-0.0962003683908225
-0.15860000000000013,-0.09604475014783734
-0.15960000000000002,-0.09587498479185352
-0.16060000000000002,-0.09574766077486568
-0.16160000000000002,-0.09566277809687378
-0.16260000000000002,-0.09559204253188053
-0.16360000000000002,-0.09545057140189403
-0.16460000000000002,-0.09528080604591022
-0.16560000000000002,-0.09519592336791832
-0.16660000000000003,-0.09516762914192102
-0.16760000000000003,-0.09504030512493315
-0.16860000000000003,-0.09491298110794531
-0.16960000000000003,-0.0947432157519615
-0.17060000000000003,-0.09461589173497365
-0.17160000000000003,-0.09455930328297905
-0.17260000000000003,-0.09444612637898986
-0.17360000000000003,-0.09429050813600469
-0.17460000000000003,-0.09413488989301955
-0.17560000000000003,-0.09400756587603168
-0.17660000000000003,-0.0939226831980398
-0.17760000000000004,-0.09385194763304654
-0.17860000000000004,-0.09369632939006138
-0.17960000000000004,-0.09354071114707624
-0.18060000000000004,-0.09338509290409107
-0.18160000000000004,-0.09334265156509512
-0.18260000000000004,-0.09324362177410456
-0.18360000000000004,-0.09310215064411806
-0.18460000000000004,-0.0929465324011329
-0.18560000000000004,-0.09281920838414506
-0.18660000000000004,-0.0927484728191518
-0.18760000000000004,-0.09266359014115991
-0.18860000000000005,-0.09247967767217745
-0.18960000000000005,-0.09233820654219095
-0.19060000000000005,-0.09221088252520308
-0.19160000000000005,-0.09216844118620715
-0.19260000000000005,-0.09206941139521659
-0.19360000000000005,-0.09189964603923279
-0.19460000000000005,-0.09175817490924627
-0.19560000000000005,-0.09164499800525706
-0.19660000000000005,-0.09156011532726518
-0.19760000000000005,-0.09147523264927326
-0.19860000000000005,-0.09136205574528407
-0.19960000000000006,-0.09117814327630162
-0.20060000000000006,-0.09106496637231241
-0.20160000000000006,-0.09100837792031781
-0.20260000000000006,-0.09093764235532456
-0.20360000000000006,-0.09079617122533806
-0.20460000000000006,-0.09065470009535155
-0.20560000000000006,-0.09052737607836371
-0.20660000000000006,-0.09047078762636909
-0.20760000000000006,-0.09040005206137584
-0.20860000000000006,-0.09024443381839069
-0.20960000000000006,-0.09008881557540553
-0.21060000000000006,-0.08998978578441498
-0.21160000000000007,-0.08991905021942173
-0.21260000000000007,-0.08986246176742714
-0.21360000000000007,-0.08967854929844467
-0.21460000000000007,-0.08955122528145683
-0.21560000000000007,-0.08942390126446896
-0.21660000000000007,-0.08939560703847166
-0.21760000000000007,-0.08935316569947571
-0.21860000000000007,-0.08919754745649056
-0.21960000000000007,-0.0890419292135054
-0.22060000000000007,-0.08892875230951619
-0.22160000000000007,-0.0889004580835189
-0.22260000000000008,-0.08882972251852565
-0.22360000000000008,-0.08871654561453644
-0.22460000000000008,-0.08854678025855263
-0.22560000000000008,-0.08843360335456343
-0.22660000000000008,-0.0884194562415648
-0.22760000000000008,-0.08833457356357288
-0.22860000000000008,-0.08823554377258234
-0.22960000000000008,-0.08807992552959719
-0.23060000000000008,-0.08798089573860662
-0.23160000000000008,-0.08795260151260934
-0.23260000000000008,-0.08791016017361337
-0.23360000000000009,-0.08776868904362688
-0.2346000000000001,-0.08765551213963767
-0.2356000000000001,-0.08757062946164577
-0.2366000000000001,-0.08754233523564847
-0.2376000000000001,-0.08748574678365387
-0.2386000000000001,-0.08735842276666603
-0.2396000000000001,-0.08723109874967816
-0.2406000000000001,-0.08716036318468491
-0.2416000000000001,-0.08711792184568896
-0.2426000000000001,-0.08708962761969166
-0.2436000000000001,-0.08696230360270381
-0.2446000000000001,-0.0868491266987146
-0.2456000000000001,-0.08675009690772406
-0.2466000000000001,-0.08672180268172675
-0.2476000000000001,-0.0866793613427308
-0.2486000000000001,-0.08656618443874159
-0.2496000000000001,-0.08641056619575643
-0.2506000000000001,-0.08635397774376184
-0.2516000000000001,-0.08633983063076318
-0.2526000000000001,-0.0862832421787686
-0.2536000000000001,-0.08618421238777803
-0.2546000000000001,-0.08605688837079019
-0.2556000000000001,-0.08594371146680099
-0.2566000000000001,-0.08598615280579694
-0.2576000000000001,-0.08591541724080368
-0.2586000000000001,-0.08580224033681448
-0.2596000000000001,-0.08568906343282526
-0.2606000000000001,-0.08559003364183472
-0.2616000000000001,-0.08559003364183472
-0.2626000000000001,-0.08556173941583743
-0.2636000000000001,-0.08544856251184822
-0.2646000000000001,-0.08533538560785901
-0.2656000000000001,-0.08525050292986712
-0.2666000000000001,-0.08523635581686846
-0.2676000000000001,-0.08522220870386982
-0.2686000000000001,-0.08510903179988061
-0.2696000000000001,-0.08501000200889006
-0.2706000000000001,-0.0849392664438968
-0.2716000000000001,-0.0849109722178995
-0.2726000000000001,-0.0848826779919022
-0.2736000000000001,-0.084769501087913
-0.2746000000000001,-0.08467047129692246
-0.2756000000000001,-0.08459973573192921
-0.2766000000000001,-0.08454314727993459
-0.2776000000000001,-0.08454314727993459
-0.2786000000000001,-0.08448655882793998
-0.2796000000000001,-0.08434508769795349
-0.2806000000000001,-0.0842884992459589
-0.28160000000000013,-0.0842884992459589
-0.28260000000000013,-0.08426020501996159
-0.28360000000000013,-0.08417532234196969
-0.2846,-0.08407629255097913
-0.2856,-0.08401970409898453
-0.2866,-0.08399140987298723
-0.2876,-0.08396311564698994
-0.2886,-0.08390652719499532
-0.2896,-0.08379335029100612
-0.2906,-0.08373676183901152
-0.2916,-0.08373676183901152
-0.2926,-0.08372261472601288
-0.2936,-0.08366602627401826
-0.29460000000000003,-0.08358114359602638
-0.29560000000000003,-0.08349626091803447
-0.29660000000000003,-0.08349626091803447
-0.29760000000000003,-0.08348211380503581
-0.29860000000000003,-0.08341137824004256
-0.29960000000000003,-0.08332649556205066
-0.30060000000000003,-0.08325575999705741
-0.30160000000000003,-0.08324161288405875
-0.30260000000000004,-0.08324161288405875
-0.30360000000000004,-0.08315673020606687
-0.30460000000000004,-0.08307184752807495
-0.30560000000000004,-0.0830011119630817
-0.30660000000000004,-0.08301525907608036
-0.30760000000000004,-0.083029406189079
-0.30860000000000004,-0.08291622928508981
-0.30960000000000004,-0.08284549372009656
-0.31060000000000004,-0.08278890526810194
-0.31160000000000004,-0.08278890526810194
-0.31260000000000004,-0.0828030523811006
-0.31360000000000005,-0.08271816970310869
-0.31460000000000005,-0.08263328702511678
-0.31560000000000005,-0.08257669857312219
-0.31660000000000005,-0.08256255146012353
-0.31760000000000005,-0.08256255146012353
-0.31860000000000005,-0.08249181589513029
-0.31960000000000005,-0.08242108033013704
-0.32060000000000005,-0.08236449187814243
-0.32160000000000005,-0.08232205053914649
-0.32260000000000005,-0.08233619765214513
-0.32360000000000005,-0.08227960920015054
-0.32460000000000006,-0.08219472652215863
-0.32560000000000006,-0.08212399095716538
-0.32660000000000006,-0.08213813807016403
-0.32760000000000006,-0.08212399095716538
-0.32860000000000006,-0.08206740250517078
-0.32960000000000006,-0.08195422560118158
-0.33060000000000006,-0.08191178426218561
-0.33160000000000006,-0.08192593137518428
-0.33260000000000006,-0.08192593137518428
-0.33360000000000006,-0.08186934292318966
-0.33460000000000006,-0.08177031313219911
-0.33560000000000006,-0.08171372468020452
-0.33660000000000007,-0.08172787179320316
-0.33760000000000007,-0.08172787179320316
-0.33860000000000007,-0.08165713622820991
-0.33960000000000007,-0.08160054777621531
-0.34060000000000007,-0.08151566509822342
-0.34160000000000007,-0.08152981221122206
-0.34260000000000007,-0.08154395932422072
-0.34360000000000007,-0.08145907664622881
-0.3446000000000001,-0.0813741939682369
-0.3456000000000001,-0.08133175262924096
-0.3466000000000001,-0.08136004685523826
-0.34759999999999996,-0.08136004685523826
-0.3486000000000001,-0.08128931129024501
-0.34959999999999997,-0.0812044286122531
-0.3506000000000001,-0.0811478401602585
-0.35159999999999997,-0.08117613438625582
-0.3526000000000001,-0.08119028149925445
-0.35359999999999997,-0.08109125170826391
-0.3546000000000001,-0.08102051614327066
-0.35559999999999997,-0.08099222191727334
-0.3566000000000001,-0.08099222191727334
-0.3576,-0.081006369030272
-0.3586000000000001,-0.08096392769127606
-0.3596,-0.08087904501328413
-0.3606000000000001,-0.08082245656128956
-0.3616,-0.08083660367428819
-0.3626000000000001,-0.08083660367428819
-0.3636,-0.08079416233529225
-0.3646000000000001,-0.08072342677029899
-0.3656,-0.08066683831830439
-0.3666000000000001,-0.08068098543130305
-0.3676,-0.08069513254430169
-0.3686000000000001,-0.08063854409230709
-0.3696,-0.08055366141431519
-0.3706000000000001,-0.08052536718831789
-0.3716,-0.08053951430131655
-0.3726000000000001,-0.08055366141431519
-0.3736,-0.08048292584932194
-0.3746000000000001,-0.0804121902843287
-0.3756,-0.08036974894533275
-0.3766000000000001,-0.08038389605833138
-0.3776,-0.08038389605833138
-0.3786000000000001,-0.08034145471933543
-0.3796,-0.08025657204134354
-0.3806000000000001,-0.08019998358934893
-0.3816,-0.08022827781534624
-0.3826000000000001,-0.08027071915434218
-0.3836,-0.08018583647635028
-0.3846000000000001,-0.08012924802435568
-0.3856,-0.08007265957236107
-0.3866000000000001,-0.08008680668535972
-0.3876,-0.08012924802435568
-0.3886000000000001,-0.08005851245936244
-0.3896,-0.08000192400736782
-0.3906000000000001,-0.07995948266837187
-0.3916,-0.07997362978137053
-0.3926000000000001,-0.08001607112036647
-0.3936,-0.07995948266837187
-0.3946000000000001,-0.07988874710337862
-0.3956,-0.07986045287738132
-0.3966000000000001,-0.07987459999037998
-0.3976,-0.07988874710337862
-0.3986000000000001,-0.07984630576438266
-0.3996,-0.07977557019938941
-0.4006000000000001,-0.07973312886039347
-0.4016,-0.07973312886039347
-0.4026000000000001,-0.07976142308639078
-0.4036,-0.07973312886039347
-0.4046000000000001,-0.07966239329540022
-0.4056,-0.07961995195640426
-0.40660000000000013,-0.07963409906940291
-0.4076,-0.07966239329540022
-0.40860000000000013,-0.07961995195640426
-0.4096,-0.079549216391411
-0.41060000000000013,-0.07952092216541372
-0.4116,-0.07953506927841236
-0.41260000000000013,-0.079549216391411
-0.4136,-0.07950677505241506
-0.41460000000000014,-0.07945018660042047
-0.4156,-0.07942189237442315
-0.41660000000000014,-0.07945018660042047
-0.4176,-0.0794643337134191
-0.41860000000000014,-0.07942189237442315
-0.41960000000000003,-0.0793511568094299
-0.42060000000000014,-0.0793228625834326
-0.42160000000000003,-0.0793511568094299
-0.42260000000000014,-0.07940774526142451
-0.42360000000000003,-0.0793228625834326
-0.42460000000000014,-0.0792945683574353
-0.42560000000000003,-0.07923797990544071
-0.42660000000000015,-0.07926627413143801
-0.42760000000000004,-0.07930871547043396
-0.42860000000000015,-0.07926627413143801
-0.42960000000000004,-0.07919553856644475
-0.43060000000000015,-0.0791530972274488
-0.43160000000000004,-0.0791813914534461
-0.43260000000000015,-0.07919553856644475
-0.43360000000000004,-0.07916724434044746
-0.43460000000000015,-0.0791248030014515
-0.43560000000000004,-0.07909650877545421
-0.43660000000000015,-0.07909650877545421
