Dec. 14, 2024   22:21:15
Cyclic Voltammetry
File: c:/users/guazh/data/banditlqround7_x0exp59_r20/2024-12-09-exp662\exp662-2024-12-14t22_08_55-h2koh\exp662_cv_50mvs_efin_-1600mv.bin
Data Source:  Experiment
Instrument Model:  CHI760E
Header: CV ran at 50 mVs
Note: 

Init E (V) = -1
High E (V) = -1
Low E (V) = -1.6
Final E (V) = -1
Init P/N = N
Scan Rate (V/s) = 0.05
Segment = 7
Sample Interval (V) = 0.001
Quiet Time (sec) = 60
Sensitivity (A/V) = 0.001
Comp R (ohm) = 1.3

Results:

Channel 1:
Segment 1:

Segment 2:

Segment 3:

Segment 4:

Segment 5:

Segment 6:

Segment 7:

Potential/V, Current/A

-1.000, 1.396e-6
-1.001, 2.128e-6
-1.002, 2.575e-6
-1.003, 2.851e-6
-1.004, 2.912e-6
-1.005, 2.966e-6
-1.006, 3.111e-6
-1.007, 3.357e-6
-1.008, 3.556e-6
-1.009, 3.520e-6
-1.010, 3.520e-6
-1.011, 3.632e-6
-1.012, 3.850e-6
-1.013, 3.961e-6
-1.014, 3.956e-6
-1.015, 3.902e-6
-1.016, 3.996e-6
-1.017, 4.188e-6
-1.018, 4.378e-6
-1.019, 4.258e-6
-1.020, 4.244e-6
-1.021, 4.282e-6
-1.022, 4.493e-6
-1.023, 4.621e-6
-1.024, 4.577e-6
-1.025, 4.491e-6
-1.026, 4.607e-6
-1.027, 4.736e-6
-1.028, 4.894e-6
-1.029, 4.834e-6
-1.030, 4.749e-6
-1.031, 4.853e-6
-1.032, 5.008e-6
-1.033, 5.107e-6
-1.034, 5.043e-6
-1.035, 4.975e-6
-1.036, 5.052e-6
-1.037, 5.234e-6
-1.038, 5.359e-6
-1.039, 5.272e-6
-1.040, 5.206e-6
-1.041, 5.263e-6
-1.042, 5.456e-6
-1.043, 5.541e-6
-1.044, 5.470e-6
-1.045, 5.386e-6
-1.046, 5.482e-6
-1.047, 5.666e-6
-1.048, 5.748e-6
-1.049, 5.680e-6
-1.050, 5.646e-6
-1.051, 5.663e-6
-1.052, 5.876e-6
-1.053, 5.976e-6
-1.054, 5.893e-6
-1.055, 5.844e-6
-1.056, 5.887e-6
-1.057, 6.049e-6
-1.058, 6.198e-6
-1.059, 6.054e-6
-1.060, 6.057e-6
-1.061, 6.083e-6
-1.062, 6.267e-6
-1.063, 6.381e-6
-1.064, 6.287e-6
-1.065, 6.202e-6
-1.066, 6.295e-6
-1.067, 6.442e-6
-1.068, 6.594e-6
-1.069, 6.474e-6
-1.070, 6.446e-6
-1.071, 6.516e-6
-1.072, 6.651e-6
-1.073, 6.761e-6
-1.074, 6.695e-6
-1.075, 6.649e-6
-1.076, 6.704e-6
-1.077, 6.891e-6
-1.078, 6.994e-6
-1.079, 6.920e-6
-1.080, 6.864e-6
-1.081, 6.931e-6
-1.082, 7.075e-6
-1.083, 7.194e-6
-1.084, 7.146e-6
-1.085, 7.043e-6
-1.086, 7.112e-6
-1.087, 7.326e-6
-1.088, 7.426e-6
-1.089, 7.329e-6
-1.090, 7.271e-6
-1.091, 7.314e-6
-1.092, 7.532e-6
-1.093, 7.631e-6
-1.094, 7.540e-6
-1.095, 7.493e-6
-1.096, 7.556e-6
-1.097, 7.682e-6
-1.098, 7.877e-6
-1.099, 7.739e-6
-1.100, 7.681e-6
-1.101, 7.780e-6
-1.102, 7.932e-6
-1.103, 8.092e-6
-1.104, 7.991e-6
-1.105, 7.942e-6
-1.106, 7.991e-6
-1.107, 8.151e-6
-1.108, 8.291e-6
-1.109, 8.214e-6
-1.110, 8.140e-6
-1.111, 8.236e-6
-1.112, 8.369e-6
-1.113, 8.496e-6
-1.114, 8.453e-6
-1.115, 8.350e-6
-1.116, 8.432e-6
-1.117, 8.596e-6
-1.118, 8.737e-6
-1.119, 8.662e-6
-1.120, 8.555e-6
-1.121, 8.665e-6
-1.122, 8.843e-6
-1.123, 8.949e-6
-1.124, 8.881e-6
-1.125, 8.828e-6
-1.126, 8.874e-6
-1.127, 9.057e-6
-1.128, 9.174e-6
-1.129, 9.122e-6
-1.130, 9.049e-6
-1.131, 9.111e-6
-1.132, 9.275e-6
-1.133, 9.413e-6
-1.134, 9.314e-6
-1.135, 9.279e-6
-1.136, 9.332e-6
-1.137, 9.519e-6
-1.138, 9.623e-6
-1.139, 9.567e-6
-1.140, 9.517e-6
-1.141, 9.565e-6
-1.142, 9.749e-6
-1.143, 9.870e-6
-1.144, 9.796e-6
-1.145, 9.742e-6
-1.146, 9.835e-6
-1.147, 9.995e-6
-1.148, 1.012e-5
-1.149, 1.004e-5
-1.150, 9.947e-6
-1.151, 1.007e-5
-1.152, 1.022e-5
-1.153, 1.035e-5
-1.154, 1.028e-5
-1.155, 1.020e-5
-1.156, 1.030e-5
-1.157, 1.046e-5
-1.158, 1.061e-5
-1.159, 1.055e-5
-1.160, 1.046e-5
-1.161, 1.056e-5
-1.162, 1.070e-5
-1.163, 1.089e-5
-1.164, 1.077e-5
-1.165, 1.076e-5
-1.166, 1.080e-5
-1.167, 1.103e-5
-1.168, 1.109e-5
-1.169, 1.107e-5
-1.170, 1.101e-5
-1.171, 1.107e-5
-1.172, 1.126e-5
-1.173, 1.141e-5
-1.174, 1.132e-5
-1.175, 1.130e-5
-1.176, 1.136e-5
-1.177, 1.156e-5
-1.178, 1.170e-5
-1.179, 1.167e-5
-1.180, 1.158e-5
-1.181, 1.166e-5
-1.182, 1.185e-5
-1.183, 1.203e-5
-1.184, 1.194e-5
-1.185, 1.189e-5
-1.186, 1.198e-5
-1.187, 1.216e-5
-1.188, 1.228e-5
-1.189, 1.229e-5
-1.190, 1.220e-5
-1.191, 1.234e-5
-1.192, 1.249e-5
-1.193, 1.268e-5
-1.194, 1.262e-5
-1.195, 1.255e-5
-1.196, 1.266e-5
-1.197, 1.287e-5
-1.198, 1.301e-5
-1.199, 1.300e-5
-1.200, 1.293e-5
-1.201, 1.302e-5
-1.202, 1.324e-5
-1.203, 1.344e-5
-1.204, 1.337e-5
-1.205, 1.331e-5
-1.206, 1.343e-5
-1.207, 1.365e-5
-1.208, 1.379e-5
-1.209, 1.379e-5
-1.210, 1.378e-5
-1.211, 1.385e-5
-1.212, 1.405e-5
-1.213, 1.424e-5
-1.214, 1.420e-5
-1.215, 1.422e-5
-1.216, 1.429e-5
-1.217, 1.451e-5
-1.218, 1.473e-5
-1.219, 1.469e-5
-1.220, 1.467e-5
-1.221, 1.481e-5
-1.222, 1.502e-5
-1.223, 1.525e-5
-1.224, 1.522e-5
-1.225, 1.519e-5
-1.226, 1.533e-5
-1.227, 1.555e-5
-1.228, 1.580e-5
-1.229, 1.584e-5
-1.230, 1.579e-5
-1.231, 1.596e-5
-1.232, 1.619e-5
-1.233, 1.636e-5
-1.234, 1.641e-5
-1.235, 1.638e-5
-1.236, 1.650e-5
-1.237, 1.678e-5
-1.238, 1.699e-5
-1.239, 1.700e-5
-1.240, 1.699e-5
-1.241, 1.715e-5
-1.242, 1.744e-5
-1.243, 1.764e-5
-1.244, 1.767e-5
-1.245, 1.765e-5
-1.246, 1.782e-5
-1.247, 1.813e-5
-1.248, 1.831e-5
-1.249, 1.833e-5
-1.250, 1.842e-5
-1.251, 1.849e-5
-1.252, 1.885e-5
-1.253, 1.905e-5
-1.254, 1.910e-5
-1.255, 1.913e-5
-1.256, 1.931e-5
-1.257, 1.959e-5
-1.258, 1.985e-5
-1.259, 1.987e-5
-1.260, 1.994e-5
-1.261, 2.009e-5
-1.262, 2.042e-5
-1.263, 2.065e-5
-1.264, 2.071e-5
-1.265, 2.076e-5
-1.266, 2.092e-5
-1.267, 2.122e-5
-1.268, 2.151e-5
-1.269, 2.158e-5
-1.270, 2.162e-5
-1.271, 2.184e-5
-1.272, 2.214e-5
-1.273, 2.241e-5
-1.274, 2.251e-5
-1.275, 2.252e-5
-1.276, 2.274e-5
-1.277, 2.308e-5
-1.278, 2.338e-5
-1.279, 2.346e-5
-1.280, 2.354e-5
-1.281, 2.372e-5
-1.282, 2.407e-5
-1.283, 2.433e-5
-1.284, 2.443e-5
-1.285, 2.448e-5
-1.286, 2.469e-5
-1.287, 2.505e-5
-1.288, 2.535e-5
-1.289, 2.543e-5
-1.290, 2.553e-5
-1.291, 2.571e-5
-1.292, 2.607e-5
-1.293, 2.640e-5
-1.294, 2.652e-5
-1.295, 2.660e-5
-1.296, 2.682e-5
-1.297, 2.719e-5
-1.298, 2.753e-5
-1.299, 2.763e-5
-1.300, 2.777e-5
-1.301, 2.798e-5
-1.302, 2.831e-5
-1.303, 2.870e-5
-1.304, 2.881e-5
-1.305, 2.894e-5
-1.306, 2.919e-5
-1.307, 2.956e-5
-1.308, 2.996e-5
-1.309, 3.004e-5
-1.310, 3.016e-5
-1.311, 3.045e-5
-1.312, 3.087e-5
-1.313, 3.121e-5
-1.314, 3.144e-5
-1.315, 3.153e-5
-1.316, 3.184e-5
-1.317, 3.224e-5
-1.318, 3.262e-5
-1.319, 3.283e-5
-1.320, 3.298e-5
-1.321, 3.328e-5
-1.322, 3.375e-5
-1.323, 3.415e-5
-1.324, 3.439e-5
-1.325, 3.456e-5
-1.326, 3.493e-5
-1.327, 3.536e-5
-1.328, 3.585e-5
-1.329, 3.610e-5
-1.330, 3.637e-5
-1.331, 3.672e-5
-1.332, 3.728e-5
-1.333, 3.771e-5
-1.334, 3.808e-5
-1.335, 3.839e-5
-1.336, 3.878e-5
-1.337, 3.936e-5
-1.338, 3.998e-5
-1.339, 4.030e-5
-1.340, 4.068e-5
-1.341, 4.118e-5
-1.342, 4.185e-5
-1.343, 4.246e-5
-1.344, 4.299e-5
-1.345, 4.341e-5
-1.346, 4.405e-5
-1.347, 4.485e-5
-1.348, 4.561e-5
-1.349, 4.617e-5
-1.350, 4.679e-5
-1.351, 4.751e-5
-1.352, 4.843e-5
-1.353, 4.934e-5
-1.354, 5.014e-5
-1.355, 5.085e-5
-1.356, 5.186e-5
-1.357, 5.298e-5
-1.358, 5.404e-5
-1.359, 5.510e-5
-1.360, 5.608e-5
-1.361, 5.728e-5
-1.362, 5.867e-5
-1.363, 6.011e-5
-1.364, 6.143e-5
-1.365, 6.275e-5
-1.366, 6.430e-5
-1.367, 6.600e-5
-1.368, 6.774e-5
-1.369, 6.948e-5
-1.370, 7.121e-5
-1.371, 7.313e-5
-1.372, 7.528e-5
-1.373, 7.743e-5
-1.374, 7.961e-5
-1.375, 8.179e-5
-1.376, 8.416e-5
-1.377, 8.668e-5
-1.378, 8.937e-5
-1.379, 9.192e-5
-1.380, 9.463e-5
-1.381, 9.742e-5
-1.382, 1.005e-4
-1.383, 1.037e-4
-1.384, 1.067e-4
-1.385, 1.099e-4
-1.386, 1.133e-4
-1.387, 1.167e-4
-1.388, 1.203e-4
-1.389, 1.239e-4
-1.390, 1.275e-4
-1.391, 1.312e-4
-1.392, 1.350e-4
-1.393, 1.390e-4
-1.394, 1.429e-4
-1.395, 1.469e-4
-1.396, 1.513e-4
-1.397, 1.558e-4
-1.398, 1.604e-4
-1.399, 1.649e-4
-1.400, 1.694e-4
-1.401, 1.740e-4
-1.402, 1.790e-4
-1.403, 1.841e-4
-1.404, 1.892e-4
-1.405, 1.943e-4
-1.406, 1.997e-4
-1.407, 2.051e-4
-1.408, 2.107e-4
-1.409, 2.161e-4
-1.410, 2.216e-4
-1.411, 2.274e-4
-1.412, 2.335e-4
-1.413, 2.396e-4
-1.414, 2.457e-4
-1.415, 2.516e-4
-1.416, 2.576e-4
-1.417, 2.640e-4
-1.418, 2.707e-4
-1.419, 2.775e-4
-1.420, 2.845e-4
-1.421, 2.916e-4
-1.422, 2.988e-4
-1.423, 3.060e-4
-1.424, 3.134e-4
-1.425, 3.207e-4
-1.426, 3.284e-4
-1.427, 3.365e-4
-1.428, 3.448e-4
-1.429, 3.530e-4
-1.430, 3.612e-4
-1.431, 3.696e-4
-1.432, 3.778e-4
-1.433, 3.864e-4
-1.434, 3.951e-4
-1.435, 4.039e-4
-1.436, 4.129e-4
-1.437, 4.223e-4
-1.438, 4.320e-4
-1.439, 4.412e-4
-1.440, 4.502e-4
-1.441, 4.596e-4
-1.442, 4.691e-4
-1.443, 4.791e-4
-1.444, 4.892e-4
-1.445, 4.991e-4
-1.446, 5.094e-4
-1.447, 5.203e-4
-1.448, 5.310e-4
-1.449, 5.418e-4
-1.450, 5.524e-4
-1.451, 5.628e-4
-1.452, 5.737e-4
-1.453, 5.848e-4
-1.454, 5.954e-4
-1.455, 6.057e-4
-1.456, 6.165e-4
-1.457, 6.285e-4
-1.458, 6.408e-4
-1.459, 6.524e-4
-1.460, 6.637e-4
-1.461, 6.751e-4
-1.462, 6.874e-4
-1.463, 6.999e-4
-1.464, 7.123e-4
-1.465, 7.250e-4
-1.466, 7.377e-4
-1.467, 7.508e-4
-1.468, 7.640e-4
-1.469, 7.769e-4
-1.470, 7.896e-4
-1.471, 8.022e-4
-1.472, 8.159e-4
-1.473, 8.298e-4
-1.474, 8.430e-4
-1.475, 8.559e-4
-1.476, 8.701e-4
-1.477, 8.851e-4
-1.478, 9.001e-4
-1.479, 9.144e-4
-1.480, 9.282e-4
-1.481, 9.421e-4
-1.482, 9.570e-4
-1.483, 9.728e-4
-1.484, 9.886e-4
-1.485, 1.004e-3
-1.486, 1.020e-3
-1.487, 1.036e-3
-1.488, 1.052e-3
-1.489, 1.067e-3
-1.490, 1.083e-3
-1.491, 1.098e-3
-1.492, 1.114e-3
-1.493, 1.130e-3
-1.494, 1.147e-3
-1.495, 1.163e-3
-1.496, 1.178e-3
-1.497, 1.193e-3
-1.498, 1.209e-3
-1.499, 1.225e-3
-1.500, 1.241e-3
-1.501, 1.257e-3
-1.502, 1.274e-3
-1.503, 1.291e-3
-1.504, 1.307e-3
-1.505, 1.322e-3
-1.506, 1.337e-3
-1.507, 1.352e-3
-1.508, 1.369e-3
-1.509, 1.384e-3
-1.510, 1.398e-3
-1.511, 1.414e-3
-1.512, 1.430e-3
-1.513, 1.446e-3
-1.514, 1.460e-3
-1.515, 1.472e-3
-1.516, 1.488e-3
-1.517, 1.502e-3
-1.518, 1.517e-3
-1.519, 1.535e-3
-1.520, 1.550e-3
-1.521, 1.565e-3
-1.522, 1.580e-3
-1.523, 1.594e-3
-1.524, 1.609e-3
-1.525, 1.624e-3
-1.526, 1.640e-3
-1.527, 1.656e-3
-1.528, 1.671e-3
-1.529, 1.686e-3
-1.530, 1.701e-3
-1.531, 1.714e-3
-1.532, 1.730e-3
-1.533, 1.748e-3
-1.534, 1.764e-3
-1.535, 1.779e-3
-1.536, 1.792e-3
-1.537, 1.809e-3
-1.538, 1.824e-3
-1.539, 1.841e-3
-1.540, 1.858e-3
-1.541, 1.873e-3
-1.542, 1.886e-3
-1.543, 1.909e-3
-1.544, 1.926e-3
-1.545, 1.940e-3
-1.546, 1.958e-3
-1.547, 1.978e-3
-1.548, 2.001e-3
-1.549, 2.019e-3
-1.550, 2.040e-3
-1.551, 2.057e-3
-1.552, 2.075e-3
-1.553, 2.093e-3
-1.554, 2.112e-3
-1.555, 2.130e-3
-1.556, 2.149e-3
-1.557, 2.169e-3
-1.558, 2.191e-3
-1.559, 2.216e-3
-1.560, 2.229e-3
-1.561, 2.252e-3
-1.562, 2.277e-3
-1.563, 2.295e-3
-1.564, 2.309e-3
-1.565, 2.327e-3
-1.566, 2.339e-3
-1.567, 2.355e-3
-1.568, 2.373e-3
-1.569, 2.392e-3
-1.570, 2.414e-3
-1.571, 2.435e-3
-1.572, 2.449e-3
-1.573, 2.460e-3
-1.574, 2.476e-3
-1.575, 2.496e-3
-1.576, 2.515e-3
-1.577, 2.539e-3
-1.578, 2.563e-3
-1.579, 2.581e-3
-1.580, 2.599e-3
-1.581, 2.616e-3
-1.582, 2.635e-3
-1.583, 2.655e-3
-1.584, 2.681e-3
-1.585, 2.743e-3
-1.586, 2.776e-3
-1.587, 2.799e-3
-1.588, 2.818e-3
-1.589, 2.831e-3
-1.590, 2.849e-3
-1.591, 2.868e-3
-1.592, 2.891e-3
-1.593, 2.938e-3
-1.594, 2.964e-3
-1.595, 2.986e-3
-1.596, 3.004e-3
-1.597, 3.021e-3
-1.598, 3.039e-3
-1.599, 3.061e-3
-1.600, 3.051e-3
-1.599, 3.020e-3
-1.598, 2.983e-3
-1.597, 2.963e-3
-1.596, 2.943e-3
-1.595, 2.910e-3
-1.594, 2.878e-3
-1.593, 2.849e-3
-1.592, 2.819e-3
-1.591, 2.788e-3
-1.590, 2.755e-3
-1.589, 2.727e-3
-1.588, 2.708e-3
-1.587, 2.695e-3
-1.586, 2.686e-3
-1.585, 2.662e-3
-1.584, 2.644e-3
-1.583, 2.628e-3
-1.582, 2.614e-3
-1.581, 2.593e-3
-1.580, 2.571e-3
-1.579, 2.551e-3
-1.578, 2.527e-3
-1.577, 2.499e-3
-1.576, 2.472e-3
-1.575, 2.457e-3
-1.574, 2.439e-3
-1.573, 2.421e-3
-1.572, 2.402e-3
-1.571, 2.381e-3
-1.570, 2.353e-3
-1.569, 2.328e-3
-1.568, 2.301e-3
-1.567, 2.278e-3
-1.566, 2.255e-3
-1.565, 2.228e-3
-1.564, 2.203e-3
-1.563, 2.183e-3
-1.562, 2.167e-3
-1.561, 2.145e-3
-1.560, 2.125e-3
-1.559, 2.108e-3
-1.558, 2.085e-3
-1.557, 2.065e-3
-1.556, 2.046e-3
-1.555, 2.024e-3
-1.554, 2.000e-3
-1.553, 1.978e-3
-1.552, 1.956e-3
-1.551, 1.933e-3
-1.550, 1.910e-3
-1.549, 1.886e-3
-1.548, 1.866e-3
-1.547, 1.843e-3
-1.546, 1.820e-3
-1.545, 1.798e-3
-1.544, 1.779e-3
-1.543, 1.764e-3
-1.542, 1.745e-3
-1.541, 1.728e-3
-1.540, 1.709e-3
-1.539, 1.690e-3
-1.538, 1.672e-3
-1.537, 1.655e-3
-1.536, 1.639e-3
-1.535, 1.624e-3
-1.534, 1.612e-3
-1.533, 1.598e-3
-1.532, 1.578e-3
-1.531, 1.559e-3
-1.530, 1.539e-3
-1.529, 1.522e-3
-1.528, 1.505e-3
-1.527, 1.487e-3
-1.526, 1.469e-3
-1.525, 1.450e-3
-1.524, 1.433e-3
-1.523, 1.415e-3
-1.522, 1.395e-3
-1.521, 1.375e-3
-1.520, 1.359e-3
-1.519, 1.344e-3
-1.518, 1.326e-3
-1.517, 1.310e-3
-1.516, 1.294e-3
-1.515, 1.280e-3
-1.514, 1.266e-3
-1.513, 1.250e-3
-1.512, 1.235e-3
-1.511, 1.219e-3
-1.510, 1.205e-3
-1.509, 1.193e-3
-1.508, 1.179e-3
-1.507, 1.163e-3
-1.506, 1.147e-3
-1.505, 1.131e-3
-1.504, 1.115e-3
-1.503, 1.099e-3
-1.502, 1.084e-3
-1.501, 1.067e-3
-1.500, 1.052e-3
-1.499, 1.039e-3
-1.498, 1.026e-3
-1.497, 1.011e-3
-1.496, 9.960e-4
-1.495, 9.815e-4
-1.494, 9.671e-4
-1.493, 9.537e-4
-1.492, 9.407e-4
-1.491, 9.262e-4
-1.490, 9.102e-4
-1.489, 8.953e-4
-1.488, 8.811e-4
-1.487, 8.679e-4
-1.486, 8.548e-4
-1.485, 8.410e-4
-1.484, 8.275e-4
-1.483, 8.143e-4
-1.482, 8.000e-4
-1.481, 7.866e-4
-1.480, 7.725e-4
-1.479, 7.592e-4
-1.478, 7.467e-4
-1.477, 7.351e-4
-1.476, 7.241e-4
-1.475, 7.127e-4
-1.474, 7.015e-4
-1.473, 6.904e-4
-1.472, 6.797e-4
-1.471, 6.687e-4
-1.470, 6.578e-4
-1.469, 6.476e-4
-1.468, 6.376e-4
-1.467, 6.268e-4
-1.466, 6.156e-4
-1.465, 6.044e-4
-1.464, 5.934e-4
-1.463, 5.839e-4
-1.462, 5.747e-4
-1.461, 5.639e-4
-1.460, 5.536e-4
-1.459, 5.436e-4
-1.458, 5.337e-4
-1.457, 5.240e-4
-1.456, 5.146e-4
-1.455, 5.053e-4
-1.454, 4.958e-4
-1.453, 4.863e-4
-1.452, 4.767e-4
-1.451, 4.670e-4
-1.450, 4.573e-4
-1.449, 4.483e-4
-1.448, 4.396e-4
-1.447, 4.312e-4
-1.446, 4.235e-4
-1.445, 4.145e-4
-1.444, 4.056e-4
-1.443, 3.975e-4
-1.442, 3.897e-4
-1.441, 3.815e-4
-1.440, 3.731e-4
-1.439, 3.651e-4
-1.438, 3.582e-4
-1.437, 3.517e-4
-1.436, 3.453e-4
-1.435, 3.390e-4
-1.434, 3.326e-4
-1.433, 3.256e-4
-1.432, 3.190e-4
-1.431, 3.123e-4
-1.430, 3.055e-4
-1.429, 2.991e-4
-1.428, 2.928e-4
-1.427, 2.865e-4
-1.426, 2.801e-4
-1.425, 2.736e-4
-1.424, 2.675e-4
-1.423, 2.616e-4
-1.422, 2.557e-4
-1.421, 2.498e-4
-1.420, 2.439e-4
-1.419, 2.382e-4
-1.418, 2.329e-4
-1.417, 2.277e-4
-1.416, 2.222e-4
-1.415, 2.166e-4
-1.414, 2.116e-4
-1.413, 2.067e-4
-1.412, 2.020e-4
-1.411, 1.974e-4
-1.410, 1.928e-4
-1.409, 1.883e-4
-1.408, 1.840e-4
-1.407, 1.799e-4
-1.406, 1.758e-4
-1.405, 1.718e-4
-1.404, 1.678e-4
-1.403, 1.640e-4
-1.402, 1.603e-4
-1.401, 1.566e-4
-1.400, 1.529e-4
-1.399, 1.494e-4
-1.398, 1.460e-4
-1.397, 1.427e-4
-1.396, 1.391e-4
-1.395, 1.355e-4
-1.394, 1.321e-4
-1.393, 1.288e-4
-1.392, 1.258e-4
-1.391, 1.226e-4
-1.390, 1.193e-4
-1.389, 1.164e-4
-1.388, 1.136e-4
-1.387, 1.109e-4
-1.386, 1.081e-4
-1.385, 1.053e-4
-1.384, 1.026e-4
-1.383, 1.002e-4
-1.382, 9.771e-5
-1.381, 9.527e-5
-1.380, 9.261e-5
-1.379, 9.007e-5
-1.378, 8.760e-5
-1.377, 8.526e-5
-1.376, 8.302e-5
-1.375, 8.106e-5
-1.374, 7.921e-5
-1.373, 7.737e-5
-1.372, 7.543e-5
-1.371, 7.339e-5
-1.370, 7.136e-5
-1.369, 6.952e-5
-1.368, 6.775e-5
-1.367, 6.607e-5
-1.366, 6.429e-5
-1.365, 6.256e-5
-1.364, 6.096e-5
-1.363, 5.941e-5
-1.362, 5.793e-5
-1.361, 5.635e-5
-1.360, 5.475e-5
-1.359, 5.333e-5
-1.358, 5.197e-5
-1.357, 5.067e-5
-1.356, 4.930e-5
-1.355, 4.787e-5
-1.354, 4.657e-5
-1.353, 4.536e-5
-1.352, 4.421e-5
-1.351, 4.297e-5
-1.350, 4.163e-5
-1.349, 4.061e-5
-1.348, 3.956e-5
-1.347, 3.852e-5
-1.346, 3.743e-5
-1.345, 3.629e-5
-1.344, 3.534e-5
-1.343, 3.448e-5
-1.342, 3.362e-5
-1.341, 3.272e-5
-1.340, 3.163e-5
-1.339, 3.071e-5
-1.338, 2.996e-5
-1.337, 2.920e-5
-1.336, 2.835e-5
-1.335, 2.745e-5
-1.334, 2.668e-5
-1.333, 2.606e-5
-1.332, 2.544e-5
-1.331, 2.470e-5
-1.330, 2.395e-5
-1.329, 2.324e-5
-1.328, 2.275e-5
-1.327, 2.221e-5
-1.326, 2.153e-5
-1.325, 2.080e-5
-1.324, 2.018e-5
-1.323, 1.964e-5
-1.322, 1.919e-5
-1.321, 1.860e-5
-1.320, 1.794e-5
-1.319, 1.727e-5
-1.318, 1.672e-5
-1.317, 1.625e-5
-1.316, 1.569e-5
-1.315, 1.506e-5
-1.314, 1.461e-5
-1.313, 1.422e-5
-1.312, 1.387e-5
-1.311, 1.333e-5
-1.310, 1.277e-5
-1.309, 1.232e-5
-1.308, 1.201e-5
-1.307, 1.166e-5
-1.306, 1.127e-5
-1.305, 1.076e-5
-1.304, 1.038e-5
-1.303, 1.007e-5
-1.302, 9.778e-6
-1.301, 9.334e-6
-1.300, 8.822e-6
-1.299, 8.472e-6
-1.298, 8.269e-6
-1.297, 8.016e-6
-1.296, 7.616e-6
-1.295, 7.197e-6
-1.294, 6.831e-6
-1.293, 6.623e-6
-1.292, 6.420e-6
-1.291, 6.058e-6
-1.290, 5.639e-6
-1.289, 5.325e-6
-1.288, 5.170e-6
-1.287, 5.020e-6
-1.286, 4.620e-6
-1.285, 4.208e-6
-1.284, 3.928e-6
-1.283, 3.832e-6
-1.282, 3.769e-6
-1.281, 3.477e-6
-1.280, 3.047e-6
-1.279, 2.803e-6
-1.278, 2.601e-6
-1.277, 2.550e-6
-1.276, 2.266e-6
-1.275, 1.902e-6
-1.274, 1.640e-6
-1.273, 1.573e-6
-1.272, 1.431e-6
-1.271, 1.216e-6
-1.270, 8.838e-7
-1.269, 7.348e-7
-1.268, 6.174e-7
-1.267, 5.819e-7
-1.266, 3.372e-7
-1.265, -1.697e-8
-1.264, -2.261e-7
-1.263, -2.942e-7
-1.262, -3.830e-7
-1.261, -6.129e-7
-1.260, -8.674e-7
-1.259, -1.012e-6
-1.258, -1.082e-6
-1.257, -1.103e-6
-1.256, -1.284e-6
-1.255, -1.629e-6
-1.254, -1.801e-6
-1.253, -1.853e-6
-1.252, -1.864e-6
-1.251, -2.065e-6
-1.250, -2.393e-6
-1.249, -2.566e-6
-1.248, -2.455e-6
-1.247, -2.418e-6
-1.246, -2.613e-6
-1.245, -2.847e-6
-1.244, -2.995e-6
-1.243, -3.059e-6
-1.242, -3.094e-6
-1.241, -3.309e-6
-1.240, -3.479e-6
-1.239, -3.600e-6
-1.238, -3.626e-6
-1.237, -3.565e-6
-1.236, -3.690e-6
-1.235, -3.955e-6
-1.234, -4.094e-6
-1.233, -4.124e-6
-1.232, -4.033e-6
-1.231, -4.205e-6
-1.230, -4.409e-6
-1.229, -4.596e-6
-1.228, -4.484e-6
-1.227, -4.473e-6
-1.226, -4.592e-6
-1.225, -4.879e-6
-1.224, -4.906e-6
-1.223, -4.915e-6
-1.222, -4.884e-6
-1.221, -5.016e-6
-1.220, -5.213e-6
-1.219, -5.349e-6
-1.218, -5.253e-6
-1.217, -5.261e-6
-1.216, -5.373e-6
-1.215, -5.607e-6
-1.214, -5.695e-6
-1.213, -5.605e-6
-1.212, -5.581e-6
-1.211, -5.730e-6
-1.210, -5.910e-6
-1.209, -5.991e-6
-1.208, -5.919e-6
-1.207, -5.917e-6
-1.206, -6.065e-6
-1.205, -6.246e-6
-1.204, -6.363e-6
-1.203, -6.336e-6
-1.202, -6.227e-6
-1.201, -6.399e-6
-1.200, -6.604e-6
-1.199, -6.641e-6
-1.198, -6.584e-6
-1.197, -6.453e-6
-1.196, -6.592e-6
-1.195, -6.745e-6
-1.194, -6.834e-6
-1.193, -6.781e-6
-1.192, -6.749e-6
-1.191, -6.893e-6
-1.190, -7.096e-6
-1.189, -7.109e-6
-1.188, -7.029e-6
-1.187, -6.984e-6
-1.186, -7.108e-6
-1.185, -7.293e-6
-1.184, -7.338e-6
-1.183, -7.224e-6
-1.182, -7.219e-6
-1.181, -7.310e-6
-1.180, -7.512e-6
-1.179, -7.531e-6
-1.178, -7.434e-6
-1.177, -7.386e-6
-1.176, -7.485e-6
-1.175, -7.691e-6
-1.174, -7.771e-6
-1.173, -7.673e-6
-1.172, -7.607e-6
-1.171, -7.712e-6
-1.170, -7.860e-6
-1.169, -7.907e-6
-1.168, -7.782e-6
-1.167, -7.706e-6
-1.166, -7.860e-6
-1.165, -7.999e-6
-1.164, -8.069e-6
-1.163, -7.989e-6
-1.162, -7.909e-6
-1.161, -8.023e-6
-1.160, -8.159e-6
-1.159, -8.190e-6
-1.158, -8.127e-6
-1.157, -8.059e-6
-1.156, -8.154e-6
-1.155, -8.359e-6
-1.154, -8.354e-6
-1.153, -8.256e-6
-1.152, -8.164e-6
-1.151, -8.277e-6
-1.150, -8.506e-6
-1.149, -8.490e-6
-1.148, -8.439e-6
-1.147, -8.332e-6
-1.146, -8.458e-6
-1.145, -8.644e-6
-1.144, -8.615e-6
-1.143, -8.491e-6
-1.142, -8.441e-6
-1.141, -8.548e-6
-1.140, -8.704e-6
-1.139, -8.739e-6
-1.138, -8.625e-6
-1.137, -8.570e-6
-1.136, -8.626e-6
-1.135, -8.715e-6
-1.134, -8.734e-6
-1.133, -8.594e-6
-1.132, -8.590e-6
-1.131, -8.770e-6
-1.130, -8.895e-6
-1.129, -8.909e-6
-1.128, -8.799e-6
-1.127, -8.692e-6
-1.126, -8.847e-6
-1.125, -8.971e-6
-1.124, -9.033e-6
-1.123, -8.953e-6
-1.122, -8.856e-6
-1.121, -9.033e-6
-1.120, -9.153e-6
-1.119, -9.171e-6
-1.118, -9.059e-6
-1.117, -8.978e-6
-1.116, -9.089e-6
-1.115, -9.246e-6
-1.114, -9.269e-6
-1.113, -9.189e-6
-1.112, -9.104e-6
-1.111, -9.256e-6
-1.110, -9.387e-6
-1.109, -9.332e-6
-1.108, -9.211e-6
-1.107, -9.156e-6
-1.106, -9.312e-6
-1.105, -9.448e-6
-1.104, -9.480e-6
-1.103, -9.347e-6
-1.102, -9.316e-6
-1.101, -9.377e-6
-1.100, -9.537e-6
-1.099, -9.578e-6
-1.098, -9.419e-6
-1.097, -9.356e-6
-1.096, -9.426e-6
-1.095, -9.578e-6
-1.094, -9.616e-6
-1.093, -9.485e-6
-1.092, -9.421e-6
-1.091, -9.529e-6
-1.090, -9.665e-6
-1.089, -9.677e-6
-1.088, -9.573e-6
-1.087, -9.527e-6
-1.086, -9.679e-6
-1.085, -9.806e-6
-1.084, -9.800e-6
-1.083, -9.668e-6
-1.082, -9.576e-6
-1.081, -9.727e-6
-1.080, -9.864e-6
-1.079, -9.889e-6
-1.078, -9.773e-6
-1.077, -9.682e-6
-1.076, -9.822e-6
-1.075, -9.997e-6
-1.074, -9.956e-6
-1.073, -9.862e-6
-1.072, -9.775e-6
-1.071, -9.966e-6
-1.070, -1.013e-5
-1.069, -1.006e-5
-1.068, -9.914e-6
-1.067, -9.779e-6
-1.066, -9.886e-6
-1.065, -1.007e-5
-1.064, -1.007e-5
-1.063, -1.008e-5
-1.062, -1.004e-5
-1.061, -1.014e-5
-1.060, -1.027e-5
-1.059, -1.029e-5
-1.058, -1.014e-5
-1.057, -1.006e-5
-1.056, -1.016e-5
-1.055, -1.032e-5
-1.054, -1.035e-5
-1.053, -1.022e-5
-1.052, -1.020e-5
-1.051, -1.032e-5
-1.050, -1.043e-5
-1.049, -1.045e-5
-1.048, -1.031e-5
-1.047, -1.023e-5
-1.046, -1.040e-5
-1.045, -1.051e-5
-1.044, -1.054e-5
-1.043, -1.047e-5
-1.042, -1.035e-5
-1.041, -1.053e-5
-1.040, -1.065e-5
-1.039, -1.063e-5
-1.038, -1.055e-5
-1.037, -1.048e-5
-1.036, -1.061e-5
-1.035, -1.079e-5
-1.034, -1.080e-5
-1.033, -1.064e-5
-1.032, -1.058e-5
-1.031, -1.072e-5
-1.030, -1.092e-5
-1.029, -1.089e-5
-1.028, -1.079e-5
-1.027, -1.073e-5
-1.026, -1.090e-5
-1.025, -1.104e-5
-1.024, -1.109e-5
-1.023, -1.095e-5
-1.022, -1.092e-5
-1.021, -1.102e-5
-1.020, -1.124e-5
-1.019, -1.122e-5
-1.018, -1.112e-5
-1.017, -1.110e-5
-1.016, -1.122e-5
-1.015, -1.139e-5
-1.014, -1.142e-5
-1.013, -1.127e-5
-1.012, -1.124e-5
-1.011, -1.142e-5
-1.010, -1.158e-5
-1.009, -1.163e-5
-1.008, -1.155e-5
-1.007, -1.155e-5
-1.006, -1.172e-5
-1.005, -1.191e-5
-1.004, -1.187e-5
-1.003, -1.181e-5
-1.002, -1.175e-5
-1.001, -1.198e-5
-1.000, -8.327e-6
-1.001, -6.290e-6
-1.002, -5.212e-6
-1.003, -4.465e-6
-1.004, -3.997e-6
-1.005, -3.634e-6
-1.006, -3.155e-6
-1.007, -2.562e-6
-1.008, -2.172e-6
-1.009, -2.013e-6
-1.010, -1.816e-6
-1.011, -1.576e-6
-1.012, -1.192e-6
-1.013, -8.842e-7
-1.014, -8.201e-7
-1.015, -7.184e-7
-1.016, -5.142e-7
-1.017, -1.758e-7
-1.018, 1.152e-7
-1.019, 1.320e-7
-1.020, 1.892e-7
-1.021, 3.629e-7
-1.022, 6.569e-7
-1.023, 8.897e-7
-1.024, 8.917e-7
-1.025, 9.282e-7
-1.026, 1.096e-6
-1.027, 1.319e-6
-1.028, 1.541e-6
-1.029, 1.504e-6
-1.030, 1.499e-6
-1.031, 1.659e-6
-1.032, 1.862e-6
-1.033, 2.058e-6
-1.034, 2.023e-6
-1.035, 2.022e-6
-1.036, 2.134e-6
-1.037, 2.385e-6
-1.038, 2.514e-6
-1.039, 2.489e-6
-1.040, 2.434e-6
-1.041, 2.574e-6
-1.042, 2.775e-6
-1.043, 2.921e-6
-1.044, 2.863e-6
-1.045, 2.846e-6
-1.046, 2.931e-6
-1.047, 3.163e-6
-1.048, 3.257e-6
-1.049, 3.219e-6
-1.050, 3.182e-6
-1.051, 3.302e-6
-1.052, 3.483e-6
-1.053, 3.606e-6
-1.054, 3.554e-6
-1.055, 3.491e-6
-1.056, 3.603e-6
-1.057, 3.802e-6
-1.058, 3.942e-6
-1.059, 3.844e-6
-1.060, 3.796e-6
-1.061, 3.915e-6
-1.062, 4.090e-6
-1.063, 4.205e-6
-1.064, 4.135e-6
-1.065, 4.055e-6
-1.066, 4.195e-6
-1.067, 4.353e-6
-1.068, 4.476e-6
-1.069, 4.380e-6
-1.070, 4.327e-6
-1.071, 4.454e-6
-1.072, 4.607e-6
-1.073, 4.699e-6
-1.074, 4.645e-6
-1.075, 4.592e-6
-1.076, 4.697e-6
-1.077, 4.854e-6
-1.078, 4.936e-6
-1.079, 4.886e-6
-1.080, 4.797e-6
-1.081, 4.898e-6
-1.082, 5.110e-6
-1.083, 5.194e-6
-1.084, 5.102e-6
-1.085, 5.056e-6
-1.086, 5.151e-6
-1.087, 5.292e-6
-1.088, 5.375e-6
-1.089, 5.288e-6
-1.090, 5.234e-6
-1.091, 5.274e-6
-1.092, 5.511e-6
-1.093, 5.548e-6
-1.094, 5.512e-6
-1.095, 5.456e-6
-1.096, 5.541e-6
-1.097, 5.683e-6
-1.098, 5.816e-6
-1.099, 5.707e-6
-1.100, 5.684e-6
-1.101, 5.757e-6
-1.102, 5.936e-6
-1.103, 5.986e-6
-1.104, 5.888e-6
-1.105, 5.824e-6
-1.106, 5.930e-6
-1.107, 6.094e-6
-1.108, 6.172e-6
-1.109, 6.081e-6
-1.110, 6.016e-6
-1.111, 6.131e-6
-1.112, 6.257e-6
-1.113, 6.335e-6
-1.114, 6.254e-6
-1.115, 6.202e-6
-1.116, 6.305e-6
-1.117, 6.460e-6
-1.118, 6.502e-6
-1.119, 6.479e-6
-1.120, 6.351e-6
-1.121, 6.461e-6
-1.122, 6.646e-6
-1.123, 6.666e-6
-1.124, 6.631e-6
-1.125, 6.540e-6
-1.126, 6.610e-6
-1.127, 6.812e-6
-1.128, 6.862e-6
-1.129, 6.842e-6
-1.130, 6.799e-6
-1.131, 6.859e-6
-1.132, 7.031e-6
-1.133, 7.088e-6
-1.134, 6.959e-6
-1.135, 6.914e-6
-1.136, 6.950e-6
-1.137, 7.174e-6
-1.138, 7.251e-6
-1.139, 7.158e-6
-1.140, 7.076e-6
-1.141, 7.170e-6
-1.142, 7.335e-6
-1.143, 7.420e-6
-1.144, 7.286e-6
-1.145, 7.229e-6
-1.146, 7.307e-6
-1.147, 7.499e-6
-1.148, 7.547e-6
-1.149, 7.477e-6
-1.150, 7.361e-6
-1.151, 7.476e-6
-1.152, 7.662e-6
-1.153, 7.717e-6
-1.154, 7.670e-6
-1.155, 7.589e-6
-1.156, 7.669e-6
-1.157, 7.829e-6
-1.158, 7.858e-6
-1.159, 7.810e-6
-1.160, 7.681e-6
-1.161, 7.801e-6
-1.162, 8.012e-6
-1.163, 8.028e-6
-1.164, 7.939e-6
-1.165, 7.906e-6
-1.166, 7.982e-6
-1.167, 8.207e-6
-1.168, 8.208e-6
-1.169, 8.103e-6
-1.170, 8.056e-6
-1.171, 8.166e-6
-1.172, 8.333e-6
-1.173, 8.360e-6
-1.174, 8.307e-6
-1.175, 8.226e-6
-1.176, 8.323e-6
-1.177, 8.539e-6
-1.178, 8.605e-6
-1.179, 8.484e-6
-1.180, 8.419e-6
-1.181, 8.498e-6
-1.182, 8.641e-6
-1.183, 8.716e-6
-1.184, 8.621e-6
-1.185, 8.546e-6
-1.186, 8.680e-6
-1.187, 8.884e-6
-1.188, 8.895e-6
-1.189, 8.808e-6
-1.190, 8.744e-6
-1.191, 8.842e-6
-1.192, 9.053e-6
-1.193, 9.052e-6
-1.194, 9.001e-6
-1.195, 8.938e-6
-1.196, 9.059e-6
-1.197, 9.245e-6
-1.198, 9.272e-6
-1.199, 9.212e-6
-1.200, 9.155e-6
-1.201, 9.229e-6
-1.202, 9.467e-6
-1.203, 9.466e-6
-1.204, 9.393e-6
-1.205, 9.371e-6
-1.206, 9.446e-6
-1.207, 9.678e-6
-1.208, 9.682e-6
-1.209, 9.592e-6
-1.210, 9.574e-6
-1.211, 9.669e-6
-1.212, 9.870e-6
-1.213, 9.896e-6
-1.214, 9.828e-6
-1.215, 9.781e-6
-1.216, 9.886e-6
-1.217, 1.008e-5
-1.218, 1.015e-5
-1.219, 1.006e-5
-1.220, 1.000e-5
-1.221, 1.014e-5
-1.222, 1.032e-5
-1.223, 1.038e-5
-1.224, 1.030e-5
-1.225, 1.024e-5
-1.226, 1.035e-5
-1.227, 1.056e-5
-1.228, 1.065e-5
-1.229, 1.064e-5
-1.230, 1.056e-5
-1.231, 1.068e-5
-1.232, 1.088e-5
-1.233, 1.091e-5
-1.234, 1.086e-5
-1.235, 1.082e-5
-1.236, 1.094e-5
-1.237, 1.119e-5
-1.238, 1.121e-5
-1.239, 1.117e-5
-1.240, 1.110e-5
-1.241, 1.125e-5
-1.242, 1.148e-5
-1.243, 1.151e-5
-1.244, 1.147e-5
-1.245, 1.142e-5
-1.246, 1.158e-5
-1.247, 1.183e-5
-1.248, 1.187e-5
-1.249, 1.182e-5
-1.250, 1.182e-5
-1.251, 1.197e-5
-1.252, 1.223e-5
-1.253, 1.235e-5
-1.254, 1.224e-5
-1.255, 1.226e-5
-1.256, 1.241e-5
-1.257, 1.260e-5
-1.258, 1.272e-5
-1.259, 1.269e-5
-1.260, 1.269e-5
-1.261, 1.289e-5
-1.262, 1.310e-5
-1.263, 1.318e-5
-1.264, 1.310e-5
-1.265, 1.312e-5
-1.266, 1.327e-5
-1.267, 1.357e-5
-1.268, 1.364e-5
-1.269, 1.363e-5
-1.270, 1.362e-5
-1.271, 1.382e-5
-1.272, 1.404e-5
-1.273, 1.419e-5
-1.274, 1.417e-5
-1.275, 1.418e-5
-1.276, 1.440e-5
-1.277, 1.469e-5
-1.278, 1.479e-5
-1.279, 1.480e-5
-1.280, 1.488e-5
-1.281, 1.506e-5
-1.282, 1.535e-5
-1.283, 1.549e-5
-1.284, 1.551e-5
-1.285, 1.556e-5
-1.286, 1.576e-5
-1.287, 1.609e-5
-1.288, 1.623e-5
-1.289, 1.625e-5
-1.290, 1.634e-5
-1.291, 1.657e-5
-1.292, 1.691e-5
-1.293, 1.708e-5
-1.294, 1.710e-5
-1.295, 1.721e-5
-1.296, 1.744e-5
-1.297, 1.777e-5
-1.298, 1.799e-5
-1.299, 1.805e-5
-1.300, 1.817e-5
-1.301, 1.848e-5
-1.302, 1.880e-5
-1.303, 1.903e-5
-1.304, 1.912e-5
-1.305, 1.922e-5
-1.306, 1.962e-5
-1.307, 1.996e-5
-1.308, 2.021e-5
-1.309, 2.034e-5
-1.310, 2.055e-5
-1.311, 2.094e-5
-1.312, 2.131e-5
-1.313, 2.157e-5
-1.314, 2.178e-5
-1.315, 2.194e-5
-1.316, 2.233e-5
-1.317, 2.284e-5
-1.318, 2.308e-5
-1.319, 2.332e-5
-1.320, 2.358e-5
-1.321, 2.397e-5
-1.322, 2.450e-5
-1.323, 2.484e-5
-1.324, 2.508e-5
-1.325, 2.542e-5
-1.326, 2.587e-5
-1.327, 2.647e-5
-1.328, 2.684e-5
-1.329, 2.717e-5
-1.330, 2.754e-5
-1.331, 2.810e-5
-1.332, 2.871e-5
-1.333, 2.921e-5
-1.334, 2.959e-5
-1.335, 3.007e-5
-1.336, 3.069e-5
-1.337, 3.139e-5
-1.338, 3.194e-5
-1.339, 3.240e-5
-1.340, 3.294e-5
-1.341, 3.372e-5
-1.342, 3.450e-5
-1.343, 3.522e-5
-1.344, 3.578e-5
-1.345, 3.646e-5
-1.346, 3.730e-5
-1.347, 3.820e-5
-1.348, 3.904e-5
-1.349, 3.973e-5
-1.350, 4.056e-5
-1.351, 4.161e-5
-1.352, 4.268e-5
-1.353, 4.368e-5
-1.354, 4.458e-5
-1.355, 4.551e-5
-1.356, 4.676e-5
-1.357, 4.806e-5
-1.358, 4.926e-5
-1.359, 5.043e-5
-1.360, 5.165e-5
-1.361, 5.314e-5
-1.362, 5.466e-5
-1.363, 5.608e-5
-1.364, 5.753e-5
-1.365, 5.905e-5
-1.366, 6.087e-5
-1.367, 6.275e-5
-1.368, 6.448e-5
-1.369, 6.615e-5
-1.370, 6.793e-5
-1.371, 6.995e-5
-1.372, 7.209e-5
-1.373, 7.425e-5
-1.374, 7.638e-5
-1.375, 7.869e-5
-1.376, 8.117e-5
-1.377, 8.376e-5
-1.378, 8.635e-5
-1.379, 8.886e-5
-1.380, 9.159e-5
-1.381, 9.452e-5
-1.382, 9.758e-5
-1.383, 1.006e-4
-1.384, 1.035e-4
-1.385, 1.066e-4
-1.386, 1.101e-4
-1.387, 1.134e-4
-1.388, 1.169e-4
-1.389, 1.204e-4
-1.390, 1.241e-4
-1.391, 1.280e-4
-1.392, 1.320e-4
-1.393, 1.360e-4
-1.394, 1.401e-4
-1.395, 1.443e-4
-1.396, 1.489e-4
-1.397, 1.535e-4
-1.398, 1.582e-4
-1.399, 1.627e-4
-1.400, 1.675e-4
-1.401, 1.725e-4
-1.402, 1.778e-4
-1.403, 1.829e-4
-1.404, 1.880e-4
-1.405, 1.933e-4
-1.406, 1.988e-4
-1.407, 2.045e-4
-1.408, 2.102e-4
-1.409, 2.160e-4
-1.410, 2.221e-4
-1.411, 2.284e-4
-1.412, 2.348e-4
-1.413, 2.413e-4
-1.414, 2.478e-4
-1.415, 2.544e-4
-1.416, 2.611e-4
-1.417, 2.680e-4
-1.418, 2.749e-4
-1.419, 2.820e-4
-1.420, 2.893e-4
-1.421, 2.971e-4
-1.422, 3.049e-4
-1.423, 3.123e-4
-1.424, 3.197e-4
-1.425, 3.273e-4
-1.426, 3.354e-4
-1.427, 3.440e-4
-1.428, 3.526e-4
-1.429, 3.614e-4
-1.430, 3.701e-4
-1.431, 3.790e-4
-1.432, 3.878e-4
-1.433, 3.969e-4
-1.434, 4.062e-4
-1.435, 4.157e-4
-1.436, 4.255e-4
-1.437, 4.354e-4
-1.438, 4.451e-4
-1.439, 4.549e-4
-1.440, 4.650e-4
-1.441, 4.754e-4
-1.442, 4.858e-4
-1.443, 4.963e-4
-1.444, 5.071e-4
-1.445, 5.179e-4
-1.446, 5.290e-4
-1.447, 5.400e-4
-1.448, 5.511e-4
-1.449, 5.621e-4
-1.450, 5.735e-4
-1.451, 5.852e-4
-1.452, 5.974e-4
-1.453, 6.095e-4
-1.454, 6.214e-4
-1.455, 6.339e-4
-1.456, 6.464e-4
-1.457, 6.591e-4
-1.458, 6.717e-4
-1.459, 6.843e-4
-1.460, 6.971e-4
-1.461, 7.102e-4
-1.462, 7.235e-4
-1.463, 7.371e-4
-1.464, 7.507e-4
-1.465, 7.644e-4
-1.466, 7.780e-4
-1.467, 7.919e-4
-1.468, 8.062e-4
-1.469, 8.202e-4
-1.470, 8.347e-4
-1.471, 8.491e-4
-1.472, 8.633e-4
-1.473, 8.774e-4
-1.474, 8.918e-4
-1.475, 9.066e-4
-1.476, 9.212e-4
-1.477, 9.360e-4
-1.478, 9.514e-4
-1.479, 9.669e-4
-1.480, 9.827e-4
-1.481, 9.990e-4
-1.482, 1.015e-3
-1.483, 1.032e-3
-1.484, 1.047e-3
-1.485, 1.062e-3
-1.486, 1.079e-3
-1.487, 1.095e-3
-1.488, 1.112e-3
-1.489, 1.130e-3
-1.490, 1.148e-3
-1.491, 1.164e-3
-1.492, 1.181e-3
-1.493, 1.196e-3
-1.494, 1.212e-3
-1.495, 1.228e-3
-1.496, 1.244e-3
-1.497, 1.261e-3
-1.498, 1.279e-3
-1.499, 1.295e-3
-1.500, 1.310e-3
-1.501, 1.327e-3
-1.502, 1.344e-3
-1.503, 1.361e-3
-1.504, 1.377e-3
-1.505, 1.393e-3
-1.506, 1.408e-3
-1.507, 1.423e-3
-1.508, 1.439e-3
-1.509, 1.455e-3
-1.510, 1.472e-3
-1.511, 1.489e-3
-1.512, 1.506e-3
-1.513, 1.523e-3
-1.514, 1.538e-3
-1.515, 1.553e-3
-1.516, 1.568e-3
-1.517, 1.584e-3
-1.518, 1.599e-3
-1.519, 1.613e-3
-1.520, 1.629e-3
-1.521, 1.647e-3
-1.522, 1.664e-3
-1.523, 1.681e-3
-1.524, 1.698e-3
-1.525, 1.715e-3
-1.526, 1.735e-3
-1.527, 1.753e-3
-1.528, 1.775e-3
-1.529, 1.793e-3
-1.530, 1.811e-3
-1.531, 1.830e-3
-1.532, 1.850e-3
-1.533, 1.871e-3
-1.534, 1.891e-3
-1.535, 1.911e-3
-1.536, 1.931e-3
-1.537, 1.952e-3
-1.538, 1.971e-3
-1.539, 1.993e-3
-1.540, 2.014e-3
-1.541, 2.032e-3
-1.542, 2.052e-3
-1.543, 2.070e-3
-1.544, 2.089e-3
-1.545, 2.109e-3
-1.546, 2.128e-3
-1.547, 2.147e-3
-1.548, 2.169e-3
-1.549, 2.188e-3
-1.550, 2.209e-3
-1.551, 2.233e-3
-1.552, 2.265e-3
-1.553, 2.296e-3
-1.554, 2.319e-3
-1.555, 2.340e-3
-1.556, 2.358e-3
-1.557, 2.379e-3
-1.558, 2.402e-3
-1.559, 2.425e-3
-1.560, 2.446e-3
-1.561, 2.466e-3
-1.562, 2.488e-3
-1.563, 2.504e-3
-1.564, 2.524e-3
-1.565, 2.544e-3
-1.566, 2.569e-3
-1.567, 2.591e-3
-1.568, 2.615e-3
-1.569, 2.635e-3
-1.570, 2.654e-3
-1.571, 2.672e-3
-1.572, 2.689e-3
-1.573, 2.704e-3
-1.574, 2.723e-3
-1.575, 2.745e-3
-1.576, 2.771e-3
-1.577, 2.798e-3
-1.578, 2.830e-3
-1.579, 2.863e-3
-1.580, 2.887e-3
-1.581, 2.910e-3
-1.582, 2.937e-3
-1.583, 2.960e-3
-1.584, 2.981e-3
-1.585, 3.008e-3
-1.586, 3.028e-3
-1.587, 3.054e-3
-1.588, 3.073e-3
-1.589, 3.097e-3
-1.590, 3.125e-3
-1.591, 3.147e-3
-1.592, 3.166e-3
-1.593, 3.191e-3
-1.594, 3.222e-3
-1.595, 3.246e-3
-1.596, 3.267e-3
-1.597, 3.298e-3
-1.598, 3.326e-3
-1.599, 3.351e-3
-1.600, 3.347e-3
-1.599, 3.316e-3
-1.598, 3.288e-3
-1.597, 3.256e-3
-1.596, 3.245e-3
-1.595, 3.215e-3
-1.594, 3.191e-3
-1.593, 3.161e-3
-1.592, 3.130e-3
-1.591, 3.103e-3
-1.590, 3.072e-3
-1.589, 3.035e-3
-1.588, 3.008e-3
-1.587, 2.978e-3
-1.586, 2.942e-3
-1.585, 2.910e-3
-1.584, 2.891e-3
-1.583, 2.852e-3
-1.582, 2.834e-3
-1.581, 2.817e-3
-1.580, 2.793e-3
-1.579, 2.766e-3
-1.578, 2.739e-3
-1.577, 2.708e-3
-1.576, 2.683e-3
-1.575, 2.654e-3
-1.574, 2.625e-3
-1.573, 2.595e-3
-1.572, 2.578e-3
-1.571, 2.555e-3
-1.570, 2.532e-3
-1.569, 2.513e-3
-1.568, 2.494e-3
-1.567, 2.470e-3
-1.566, 2.441e-3
-1.565, 2.415e-3
-1.564, 2.393e-3
-1.563, 2.371e-3
-1.562, 2.343e-3
-1.561, 2.318e-3
-1.560, 2.288e-3
-1.559, 2.265e-3
-1.558, 2.245e-3
-1.557, 2.222e-3
-1.556, 2.207e-3
-1.555, 2.188e-3
-1.554, 2.163e-3
-1.553, 2.140e-3
-1.552, 2.116e-3
-1.551, 2.092e-3
-1.550, 2.066e-3
-1.549, 2.042e-3
-1.548, 2.018e-3
-1.547, 1.996e-3
-1.546, 1.968e-3
-1.545, 1.946e-3
-1.544, 1.921e-3
-1.543, 1.898e-3
-1.542, 1.877e-3
-1.541, 1.858e-3
-1.540, 1.843e-3
-1.539, 1.828e-3
-1.538, 1.809e-3
-1.537, 1.793e-3
-1.536, 1.776e-3
-1.535, 1.757e-3
-1.534, 1.740e-3
-1.533, 1.721e-3
-1.532, 1.699e-3
-1.531, 1.679e-3
-1.530, 1.660e-3
-1.529, 1.641e-3
-1.528, 1.623e-3
-1.527, 1.603e-3
-1.526, 1.580e-3
-1.525, 1.558e-3
-1.524, 1.538e-3
-1.523, 1.517e-3
-1.522, 1.494e-3
-1.521, 1.473e-3
-1.520, 1.450e-3
-1.519, 1.428e-3
-1.518, 1.415e-3
-1.517, 1.400e-3
-1.516, 1.383e-3
-1.515, 1.365e-3
-1.514, 1.349e-3
-1.513, 1.331e-3
-1.512, 1.314e-3
-1.511, 1.296e-3
-1.510, 1.280e-3
-1.509, 1.265e-3
-1.508, 1.249e-3
-1.507, 1.234e-3
-1.506, 1.218e-3
-1.505, 1.201e-3
-1.504, 1.186e-3
-1.503, 1.172e-3
-1.502, 1.157e-3
-1.501, 1.140e-3
-1.500, 1.123e-3
-1.499, 1.107e-3
-1.498, 1.092e-3
-1.497, 1.078e-3
-1.496, 1.064e-3
-1.495, 1.049e-3
-1.494, 1.034e-3
-1.493, 1.019e-3
-1.492, 1.005e-3
-1.491, 9.897e-4
-1.490, 9.750e-4
-1.489, 9.606e-4
-1.488, 9.463e-4
-1.487, 9.323e-4
-1.486, 9.176e-4
-1.485, 9.029e-4
-1.484, 8.891e-4
-1.483, 8.759e-4
-1.482, 8.634e-4
-1.481, 8.506e-4
-1.480, 8.378e-4
-1.479, 8.249e-4
-1.478, 8.123e-4
-1.477, 7.996e-4
-1.476, 7.870e-4
-1.475, 7.744e-4
-1.474, 7.604e-4
-1.473, 7.460e-4
-1.472, 7.342e-4
-1.471, 7.237e-4
-1.470, 7.128e-4
-1.469, 7.010e-4
-1.468, 6.892e-4
-1.467, 6.772e-4
-1.466, 6.653e-4
-1.465, 6.536e-4
-1.464, 6.428e-4
-1.463, 6.331e-4
-1.462, 6.221e-4
-1.461, 6.117e-4
-1.460, 6.021e-4
-1.459, 5.918e-4
-1.458, 5.813e-4
-1.457, 5.708e-4
-1.456, 5.598e-4
-1.455, 5.489e-4
-1.454, 5.388e-4
-1.453, 5.287e-4
-1.452, 5.189e-4
-1.451, 5.090e-4
-1.450, 4.992e-4
-1.449, 4.899e-4
-1.448, 4.803e-4
-1.447, 4.707e-4
-1.446, 4.614e-4
-1.445, 4.527e-4
-1.444, 4.444e-4
-1.443, 4.360e-4
-1.442, 4.274e-4
-1.441, 4.185e-4
-1.440, 4.105e-4
-1.439, 4.022e-4
-1.438, 3.938e-4
-1.437, 3.854e-4
-1.436, 3.778e-4
-1.435, 3.707e-4
-1.434, 3.625e-4
-1.433, 3.544e-4
-1.432, 3.472e-4
-1.431, 3.406e-4
-1.430, 3.338e-4
-1.429, 3.270e-4
-1.428, 3.200e-4
-1.427, 3.126e-4
-1.426, 3.052e-4
-1.425, 2.983e-4
-1.424, 2.919e-4
-1.423, 2.854e-4
-1.422, 2.793e-4
-1.421, 2.725e-4
-1.420, 2.661e-4
-1.419, 2.599e-4
-1.418, 2.540e-4
-1.417, 2.481e-4
-1.416, 2.426e-4
-1.415, 2.369e-4
-1.414, 2.313e-4
-1.413, 2.258e-4
-1.412, 2.202e-4
-1.411, 2.148e-4
-1.410, 2.098e-4
-1.409, 2.049e-4
-1.408, 2.002e-4
-1.407, 1.954e-4
-1.406, 1.907e-4
-1.405, 1.863e-4
-1.404, 1.823e-4
-1.403, 1.782e-4
-1.402, 1.740e-4
-1.401, 1.698e-4
-1.400, 1.659e-4
-1.399, 1.620e-4
-1.398, 1.581e-4
-1.397, 1.543e-4
-1.396, 1.505e-4
-1.395, 1.469e-4
-1.394, 1.435e-4
-1.393, 1.400e-4
-1.392, 1.366e-4
-1.391, 1.332e-4
-1.390, 1.300e-4
-1.389, 1.268e-4
-1.388, 1.236e-4
-1.387, 1.204e-4
-1.386, 1.173e-4
-1.385, 1.143e-4
-1.384, 1.113e-4
-1.383, 1.084e-4
-1.382, 1.056e-4
-1.381, 1.029e-4
-1.380, 1.003e-4
-1.379, 9.778e-5
-1.378, 9.520e-5
-1.377, 9.259e-5
-1.376, 9.001e-5
-1.375, 8.763e-5
-1.374, 8.538e-5
-1.373, 8.320e-5
-1.372, 8.087e-5
-1.371, 7.865e-5
-1.370, 7.662e-5
-1.369, 7.468e-5
-1.368, 7.263e-5
-1.367, 7.068e-5
-1.366, 6.873e-5
-1.365, 6.687e-5
-1.364, 6.518e-5
-1.363, 6.332e-5
-1.362, 6.152e-5
-1.361, 5.972e-5
-1.360, 5.801e-5
-1.359, 5.633e-5
-1.358, 5.475e-5
-1.357, 5.325e-5
-1.356, 5.198e-5
-1.355, 5.088e-5
-1.354, 4.996e-5
-1.353, 4.863e-5
-1.352, 4.725e-5
-1.351, 4.589e-5
-1.350, 4.469e-5
-1.349, 4.365e-5
-1.348, 4.252e-5
-1.347, 4.130e-5
-1.346, 4.018e-5
-1.345, 3.909e-5
-1.344, 3.812e-5
-1.343, 3.704e-5
-1.342, 3.588e-5
-1.341, 3.484e-5
-1.340, 3.390e-5
-1.339, 3.309e-5
-1.338, 3.215e-5
-1.337, 3.114e-5
-1.336, 3.015e-5
-1.335, 2.933e-5
-1.334, 2.854e-5
-1.333, 2.777e-5
-1.332, 2.680e-5
-1.331, 2.591e-5
-1.330, 2.524e-5
-1.329, 2.456e-5
-1.328, 2.379e-5
-1.327, 2.295e-5
-1.326, 2.200e-5
-1.325, 2.128e-5
-1.324, 2.073e-5
-1.323, 2.013e-5
-1.322, 1.951e-5
-1.321, 1.887e-5
-1.320, 1.828e-5
-1.319, 1.777e-5
-1.318, 1.715e-5
-1.317, 1.645e-5
-1.316, 1.585e-5
-1.315, 1.536e-5
-1.314, 1.500e-5
-1.313, 1.449e-5
-1.312, 1.387e-5
-1.311, 1.330e-5
-1.310, 1.289e-5
-1.309, 1.253e-5
-1.308, 1.207e-5
-1.307, 1.151e-5
-1.306, 1.107e-5
-1.305, 1.071e-5
-1.304, 1.044e-5
-1.303, 1.000e-5
-1.302, 9.465e-6
-1.301, 9.046e-6
-1.300, 8.766e-6
-1.299, 8.467e-6
-1.298, 8.125e-6
-1.297, 7.593e-6
-1.296, 7.218e-6
-1.295, 6.958e-6
-1.294, 6.768e-6
-1.293, 6.389e-6
-1.292, 5.974e-6
-1.291, 5.566e-6
-1.290, 5.360e-6
-1.289, 5.159e-6
-1.288, 4.922e-6
-1.287, 4.512e-6
-1.286, 4.128e-6
-1.285, 3.928e-6
-1.284, 3.826e-6
-1.283, 3.542e-6
-1.282, 3.206e-6
-1.281, 2.882e-6
-1.280, 2.723e-6
-1.279, 2.603e-6
-1.278, 2.340e-6
-1.277, 1.938e-6
-1.276, 1.607e-6
-1.275, 1.500e-6
-1.274, 1.469e-6
-1.273, 1.186e-6
-1.272, 9.242e-7
-1.271, 6.687e-7
-1.270, 5.079e-7
-1.269, 4.625e-7
-1.268, 2.711e-7
-1.267, -9.688e-8
-1.266, -2.735e-7
-1.265, -3.751e-7
-1.264, -3.899e-7
-1.263, -6.020e-7
-1.262, -9.128e-7
-1.261, -1.165e-6
-1.260, -1.165e-6
-1.259, -1.210e-6
-1.258, -1.370e-6
-1.257, -1.664e-6
-1.256, -1.805e-6
-1.255, -1.884e-6
-1.254, -1.889e-6
-1.253, -1.938e-6
-1.252, -2.174e-6
-1.251, -2.419e-6
-1.250, -2.407e-6
-1.249, -2.458e-6
-1.248, -2.575e-6
-1.247, -2.840e-6
-1.246, -3.056e-6
-1.245, -3.043e-6
-1.244, -3.031e-6
-1.243, -3.205e-6
-1.242, -3.424e-6
-1.241, -3.628e-6
-1.240, -3.631e-6
-1.239, -3.587e-6
-1.238, -3.777e-6
-1.237, -3.986e-6
-1.236, -4.160e-6
-1.235, -4.179e-6
-1.234, -4.081e-6
-1.233, -4.261e-6
-1.232, -4.492e-6
-1.231, -4.608e-6
-1.230, -4.660e-6
-1.229, -4.661e-6
-1.228, -4.735e-6
-1.227, -4.983e-6
-1.226, -5.118e-6
-1.225, -5.066e-6
-1.224, -4.987e-6
-1.223, -5.127e-6
-1.222, -5.325e-6
-1.221, -5.492e-6
-1.220, -5.428e-6
-1.219, -5.413e-6
-1.218, -5.529e-6
-1.217, -5.745e-6
-1.216, -5.853e-6
-1.215, -5.826e-6
-1.214, -5.772e-6
-1.213, -5.854e-6
-1.212, -6.057e-6
-1.211, -6.206e-6
-1.210, -6.124e-6
-1.209, -6.112e-6
-1.208, -6.185e-6
-1.207, -6.423e-6
-1.206, -6.587e-6
-1.205, -6.472e-6
-1.204, -6.403e-6
-1.203, -6.558e-6
-1.202, -6.706e-6
-1.201, -6.830e-6
-1.200, -6.741e-6
-1.199, -6.678e-6
-1.198, -6.801e-6
-1.197, -6.933e-6
-1.196, -6.979e-6
-1.195, -6.966e-6
-1.194, -6.837e-6
-1.193, -6.990e-6
-1.192, -7.182e-6
-1.191, -7.323e-6
-1.190, -7.270e-6
-1.189, -7.201e-6
-1.188, -7.253e-6
-1.187, -7.466e-6
-1.186, -7.520e-6
-1.185, -7.474e-6
-1.184, -7.380e-6
-1.183, -7.446e-6
-1.182, -7.639e-6
-1.181, -7.732e-6
-1.180, -7.653e-6
-1.179, -7.647e-6
-1.178, -7.716e-6
-1.177, -7.920e-6
-1.176, -7.976e-6
-1.175, -7.884e-6
-1.174, -7.822e-6
-1.173, -7.869e-6
-1.172, -8.062e-6
-1.171, -8.166e-6
-1.170, -8.022e-6
-1.169, -8.008e-6
-1.168, -8.039e-6
-1.167, -8.197e-6
-1.166, -8.303e-6
-1.165, -8.225e-6
-1.164, -8.087e-6
-1.163, -8.198e-6
-1.162, -8.379e-6
-1.161, -8.453e-6
-1.160, -8.359e-6
-1.159, -8.288e-6
-1.158, -8.393e-6
-1.157, -8.547e-6
-1.156, -8.605e-6
-1.155, -8.553e-6
-1.154, -8.429e-6
-1.153, -8.502e-6
-1.152, -8.632e-6
-1.151, -8.699e-6
-1.150, -8.670e-6
-1.149, -8.595e-6
-1.148, -8.674e-6
-1.147, -8.881e-6
-1.146, -8.840e-6
-1.145, -8.771e-6
-1.144, -8.667e-6
-1.143, -8.747e-6
-1.142, -8.977e-6
-1.141, -9.008e-6
-1.140, -8.895e-6
-1.139, -8.819e-6
-1.138, -8.881e-6
-1.137, -9.040e-6
-1.136, -9.081e-6
-1.135, -8.965e-6
-1.134, -8.906e-6
-1.133, -8.977e-6
-1.132, -9.162e-6
-1.131, -9.219e-6
-1.130, -9.138e-6
-1.129, -9.048e-6
-1.128, -9.079e-6
-1.127, -9.282e-6
-1.126, -9.323e-6
-1.125, -9.185e-6
-1.124, -9.102e-6
-1.123, -9.214e-6
-1.122, -9.374e-6
-1.121, -9.439e-6
-1.120, -9.308e-6
-1.119, -9.209e-6
-1.118, -9.270e-6
-1.117, -9.464e-6
-1.116, -9.493e-6
-1.115, -9.417e-6
-1.114, -9.276e-6
-1.113, -9.414e-6
-1.112, -9.541e-6
-1.111, -9.590e-6
-1.110, -9.518e-6
-1.109, -9.369e-6
-1.108, -9.486e-6
-1.107, -9.639e-6
-1.106, -9.668e-6
-1.105, -9.546e-6
-1.104, -9.402e-6
-1.103, -9.509e-6
-1.102, -9.674e-6
-1.101, -9.708e-6
-1.100, -9.611e-6
-1.099, -9.519e-6
-1.098, -9.636e-6
-1.097, -9.816e-6
-1.096, -9.798e-6
-1.095, -9.711e-6
-1.094, -9.619e-6
-1.093, -9.686e-6
-1.092, -9.868e-6
-1.091, -9.876e-6
-1.090, -9.766e-6
-1.089, -9.690e-6
-1.088, -9.765e-6
-1.087, -9.966e-6
-1.086, -9.968e-6
-1.085, -9.880e-6
-1.084, -9.783e-6
-1.083, -9.907e-6
-1.082, -1.009e-5
-1.081, -1.011e-5
-1.080, -9.997e-6
-1.079, -9.931e-6
-1.078, -1.001e-5
-1.077, -1.016e-5
-1.076, -1.017e-5
-1.075, -1.013e-5
-1.074, -1.001e-5
-1.073, -1.010e-5
-1.072, -1.026e-5
-1.071, -1.024e-5
-1.070, -1.022e-5
-1.069, -1.004e-5
-1.068, -1.007e-5
-1.067, -1.025e-5
-1.066, -1.028e-5
-1.065, -1.023e-5
-1.064, -1.017e-5
-1.063, -1.029e-5
-1.062, -1.052e-5
-1.061, -1.052e-5
-1.060, -1.038e-5
-1.059, -1.026e-5
-1.058, -1.037e-5
-1.057, -1.059e-5
-1.056, -1.057e-5
-1.055, -1.048e-5
-1.054, -1.042e-5
-1.053, -1.048e-5
-1.052, -1.069e-5
-1.051, -1.069e-5
-1.050, -1.057e-5
-1.049, -1.052e-5
-1.048, -1.061e-5
-1.047, -1.078e-5
-1.046, -1.084e-5
-1.045, -1.070e-5
-1.044, -1.063e-5
-1.043, -1.073e-5
-1.042, -1.090e-5
-1.041, -1.093e-5
-1.040, -1.083e-5
-1.039, -1.071e-5
-1.038, -1.087e-5
-1.037, -1.104e-5
-1.036, -1.108e-5
-1.035, -1.099e-5
-1.034, -1.089e-5
-1.033, -1.100e-5
-1.032, -1.117e-5
-1.031, -1.124e-5
-1.030, -1.117e-5
-1.029, -1.105e-5
-1.028, -1.121e-5
-1.027, -1.134e-5
-1.026, -1.134e-5
-1.025, -1.129e-5
-1.024, -1.121e-5
-1.023, -1.136e-5
-1.022, -1.154e-5
-1.021, -1.162e-5
-1.020, -1.146e-5
-1.019, -1.143e-5
-1.018, -1.153e-5
-1.017, -1.176e-5
-1.016, -1.177e-5
-1.015, -1.168e-5
-1.014, -1.164e-5
-1.013, -1.173e-5
-1.012, -1.192e-5
-1.011, -1.199e-5
-1.010, -1.187e-5
-1.009, -1.190e-5
-1.008, -1.202e-5
-1.007, -1.219e-5
-1.006, -1.224e-5
-1.005, -1.214e-5
-1.004, -1.209e-5
-1.003, -1.224e-5
-1.002, -1.246e-5
-1.001, -1.252e-5
-1.000, -8.381e-6
-1.001, -6.112e-6
-1.002, -5.228e-6
-1.003, -4.664e-6
-1.004, -4.038e-6
-1.005, -3.388e-6
-1.006, -2.847e-6
-1.007, -2.561e-6
-1.008, -2.361e-6
-1.009, -2.001e-6
-1.010, -1.543e-6
-1.011, -1.193e-6
-1.012, -1.024e-6
-1.013, -8.941e-7
-1.014, -6.869e-7
-1.015, -3.159e-7
-1.016, -4.558e-8
-1.017, 4.913e-8
-1.018, 1.162e-7
-1.019, 2.869e-7
-1.020, 6.342e-7
-1.021, 8.729e-7
-1.022, 8.907e-7
-1.023, 9.075e-7
-1.024, 1.090e-6
-1.025, 1.347e-6
-1.026, 1.591e-6
-1.027, 1.577e-6
-1.028, 1.563e-6
-1.029, 1.730e-6
-1.030, 1.962e-6
-1.031, 2.198e-6
-1.032, 2.137e-6
-1.033, 2.109e-6
-1.034, 2.242e-6
-1.035, 2.458e-6
-1.036, 2.668e-6
-1.037, 2.653e-6
-1.038, 2.580e-6
-1.039, 2.747e-6
-1.040, 2.926e-6
-1.041, 3.085e-6
-1.042, 3.061e-6
-1.043, 2.988e-6
-1.044, 3.109e-6
-1.045, 3.306e-6
-1.046, 3.498e-6
-1.047, 3.441e-6
-1.048, 3.393e-6
-1.049, 3.453e-6
-1.050, 3.719e-6
-1.051, 3.829e-6
-1.052, 3.768e-6
-1.053, 3.696e-6
-1.054, 3.811e-6
-1.055, 4.020e-6
-1.056, 4.145e-6
-1.057, 4.050e-6
-1.058, 4.013e-6
-1.059, 4.074e-6
-1.060, 4.307e-6
-1.061, 4.369e-6
-1.062, 4.322e-6
-1.063, 4.244e-6
-1.064, 4.311e-6
-1.065, 4.509e-6
-1.066, 4.697e-6
-1.067, 4.576e-6
-1.068, 4.519e-6
-1.069, 4.591e-6
-1.070, 4.768e-6
-1.071, 4.901e-6
-1.072, 4.807e-6
-1.073, 4.735e-6
-1.074, 4.853e-6
-1.075, 5.044e-6
-1.076, 5.149e-6
-1.077, 5.046e-6
-1.078, 4.972e-6
-1.079, 5.070e-6
-1.080, 5.246e-6
-1.081, 5.348e-6
-1.082, 5.294e-6
-1.083, 5.203e-6
-1.084, 5.298e-6
-1.085, 5.478e-6
-1.086, 5.585e-6
-1.087, 5.482e-6
-1.088, 5.389e-6
-1.089, 5.469e-6
-1.090, 5.698e-6
-1.091, 5.800e-6
-1.092, 5.688e-6
-1.093, 5.636e-6
-1.094, 5.725e-6
-1.095, 5.898e-6
-1.096, 6.001e-6
-1.097, 5.877e-6
-1.098, 5.788e-6
-1.099, 5.873e-6
-1.100, 6.064e-6
-1.101, 6.159e-6
-1.102, 6.053e-6
-1.103, 6.036e-6
-1.104, 6.055e-6
-1.105, 6.240e-6
-1.106, 6.362e-6
-1.107, 6.243e-6
-1.108, 6.154e-6
-1.109, 6.265e-6
-1.110, 6.434e-6
-1.111, 6.532e-6
-1.112, 6.417e-6
-1.113, 6.364e-6
-1.114, 6.466e-6
-1.115, 6.634e-6
-1.116, 6.681e-6
-1.117, 6.612e-6
-1.118, 6.510e-6
-1.119, 6.617e-6
-1.120, 6.763e-6
-1.121, 6.930e-6
-1.122, 6.801e-6
-1.123, 6.725e-6
-1.124, 6.783e-6
-1.125, 6.925e-6
-1.126, 7.023e-6
-1.127, 6.993e-6
-1.128, 6.887e-6
-1.129, 7.010e-6
-1.130, 7.159e-6
-1.131, 7.179e-6
-1.132, 7.065e-6
-1.133, 7.029e-6
-1.134, 7.083e-6
-1.135, 7.280e-6
-1.136, 7.336e-6
-1.137, 7.238e-6
-1.138, 7.177e-6
-1.139, 7.240e-6
-1.140, 7.456e-6
-1.141, 7.540e-6
-1.142, 7.397e-6
-1.143, 7.382e-6
-1.144, 7.434e-6
-1.145, 7.580e-6
-1.146, 7.678e-6
-1.147, 7.528e-6
-1.148, 7.501e-6
-1.149, 7.572e-6
-1.150, 7.764e-6
-1.151, 7.827e-6
-1.152, 7.728e-6
-1.153, 7.644e-6
-1.154, 7.731e-6
-1.155, 7.925e-6
-1.156, 7.991e-6
-1.157, 7.882e-6
-1.158, 7.790e-6
-1.159, 7.896e-6
-1.160, 8.048e-6
-1.161, 8.103e-6
-1.162, 8.038e-6
-1.163, 7.922e-6
-1.164, 8.032e-6
-1.165, 8.234e-6
-1.166, 8.290e-6
-1.167, 8.192e-6
-1.168, 8.119e-6
-1.169, 8.195e-6
-1.170, 8.444e-6
-1.171, 8.485e-6
-1.172, 8.435e-6
-1.173, 8.352e-6
-1.174, 8.440e-6
-1.175, 8.571e-6
-1.176, 8.552e-6
-1.177, 8.484e-6
-1.178, 8.423e-6
-1.179, 8.486e-6
-1.180, 8.748e-6
-1.181, 8.772e-6
-1.182, 8.726e-6
-1.183, 8.626e-6
-1.184, 8.708e-6
-1.185, 8.855e-6
-1.186, 8.932e-6
-1.187, 8.818e-6
-1.188, 8.731e-6
-1.189, 8.834e-6
-1.190, 9.029e-6
-1.191, 9.087e-6
-1.192, 9.006e-6
-1.193, 8.939e-6
-1.194, 9.027e-6
-1.195, 9.203e-6
-1.196, 9.258e-6
-1.197, 9.190e-6
-1.198, 9.087e-6
-1.199, 9.210e-6
-1.200, 9.395e-6
-1.201, 9.463e-6
-1.202, 9.360e-6
-1.203, 9.294e-6
-1.204, 9.372e-6
-1.205, 9.583e-6
-1.206, 9.619e-6
-1.207, 9.553e-6
-1.208, 9.459e-6
-1.209, 9.581e-6
-1.210, 9.757e-6
-1.211, 9.819e-6
-1.212, 9.732e-6
-1.213, 9.663e-6
-1.214, 9.763e-6
-1.215, 9.991e-6
-1.216, 1.001e-5
-1.217, 9.957e-6
-1.218, 9.904e-6
-1.219, 1.001e-5
-1.220, 1.020e-5
-1.221, 1.023e-5
-1.222, 1.016e-5
-1.223, 1.013e-5
-1.224, 1.022e-5
-1.225, 1.045e-5
-1.226, 1.052e-5
-1.227, 1.044e-5
-1.228, 1.036e-5
-1.229, 1.055e-5
-1.230, 1.066e-5
-1.231, 1.075e-5
-1.232, 1.064e-5
-1.233, 1.063e-5
-1.234, 1.076e-5
-1.235, 1.101e-5
-1.236, 1.106e-5
-1.237, 1.094e-5
-1.238, 1.087e-5
-1.239, 1.106e-5
-1.240, 1.124e-5
-1.241, 1.132e-5
-1.242, 1.123e-5
-1.243, 1.119e-5
-1.244, 1.137e-5
-1.245, 1.155e-5
-1.246, 1.163e-5
-1.247, 1.158e-5
-1.248, 1.155e-5
-1.249, 1.170e-5
-1.250, 1.196e-5
-1.251, 1.200e-5
-1.252, 1.196e-5
-1.253, 1.191e-5
-1.254, 1.205e-5
-1.255, 1.230e-5
-1.256, 1.237e-5
-1.257, 1.228e-5
-1.258, 1.233e-5
-1.259, 1.244e-5
-1.260, 1.268e-5
-1.261, 1.279e-5
-1.262, 1.271e-5
-1.263, 1.272e-5
-1.264, 1.288e-5
-1.265, 1.309e-5
-1.266, 1.324e-5
-1.267, 1.322e-5
-1.268, 1.320e-5
-1.269, 1.339e-5
-1.270, 1.363e-5
-1.271, 1.376e-5
-1.272, 1.369e-5
-1.273, 1.373e-5
-1.274, 1.393e-5
-1.275, 1.415e-5
-1.276, 1.430e-5
-1.277, 1.427e-5
-1.278, 1.428e-5
-1.279, 1.452e-5
-1.280, 1.480e-5
-1.281, 1.493e-5
-1.282, 1.490e-5
-1.283, 1.495e-5
-1.284, 1.521e-5
-1.285, 1.550e-5
-1.286, 1.560e-5
-1.287, 1.564e-5
-1.288, 1.567e-5
-1.289, 1.594e-5
-1.290, 1.625e-5
-1.291, 1.639e-5
-1.292, 1.641e-5
-1.293, 1.653e-5
-1.294, 1.679e-5
-1.295, 1.715e-5
-1.296, 1.723e-5
-1.297, 1.732e-5
-1.298, 1.745e-5
-1.299, 1.773e-5
-1.300, 1.807e-5
-1.301, 1.825e-5
-1.302, 1.834e-5
-1.303, 1.851e-5
-1.304, 1.877e-5
-1.305, 1.913e-5
-1.306, 1.942e-5
-1.307, 1.952e-5
-1.308, 1.970e-5
-1.309, 2.004e-5
-1.310, 2.043e-5
-1.311, 2.067e-5
-1.312, 2.083e-5
-1.313, 2.101e-5
-1.314, 2.141e-5
-1.315, 2.185e-5
-1.316, 2.213e-5
-1.317, 2.232e-5
-1.318, 2.256e-5
-1.319, 2.300e-5
-1.320, 2.345e-5
-1.321, 2.377e-5
-1.322, 2.402e-5
-1.323, 2.430e-5
-1.324, 2.484e-5
-1.325, 2.534e-5
-1.326, 2.572e-5
-1.327, 2.599e-5
-1.328, 2.633e-5
-1.329, 2.691e-5
-1.330, 2.748e-5
-1.331, 2.791e-5
-1.332, 2.831e-5
-1.333, 2.874e-5
-1.334, 2.936e-5
-1.335, 3.002e-5
-1.336, 3.058e-5
-1.337, 3.099e-5
-1.338, 3.152e-5
-1.339, 3.221e-5
-1.340, 3.300e-5
-1.341, 3.361e-5
-1.342, 3.415e-5
-1.343, 3.477e-5
-1.344, 3.563e-5
-1.345, 3.648e-5
-1.346, 3.725e-5
-1.347, 3.788e-5
-1.348, 3.871e-5
-1.349, 3.965e-5
-1.350, 4.072e-5
-1.351, 4.164e-5
-1.352, 4.247e-5
-1.353, 4.338e-5
-1.354, 4.458e-5
-1.355, 4.574e-5
-1.356, 4.681e-5
-1.357, 4.784e-5
-1.358, 4.897e-5
-1.359, 5.039e-5
-1.360, 5.179e-5
-1.361, 5.317e-5
-1.362, 5.447e-5
-1.363, 5.590e-5
-1.364, 5.752e-5
-1.365, 5.924e-5
-1.366, 6.082e-5
-1.367, 6.247e-5
-1.368, 6.413e-5
-1.369, 6.610e-5
-1.370, 6.818e-5
-1.371, 7.018e-5
-1.372, 7.215e-5
-1.373, 7.420e-5
-1.374, 7.650e-5
-1.375, 7.895e-5
-1.376, 8.126e-5
-1.377, 8.368e-5
-1.378, 8.617e-5
-1.379, 8.897e-5
-1.380, 9.185e-5
-1.381, 9.473e-5
-1.382, 9.746e-5
-1.383, 1.004e-4
-1.384, 1.036e-4
-1.385, 1.070e-4
-1.386, 1.103e-4
-1.387, 1.137e-4
-1.388, 1.171e-4
-1.389, 1.209e-4
-1.390, 1.247e-4
-1.391, 1.286e-4
-1.392, 1.323e-4
-1.393, 1.364e-4
-1.394, 1.406e-4
-1.395, 1.451e-4
-1.396, 1.496e-4
-1.397, 1.541e-4
-1.398, 1.588e-4
-1.399, 1.636e-4
-1.400, 1.687e-4
-1.401, 1.738e-4
-1.402, 1.788e-4
-1.403, 1.841e-4
-1.404, 1.894e-4
-1.405, 1.949e-4
-1.406, 2.006e-4
-1.407, 2.063e-4
-1.408, 2.121e-4
-1.409, 2.183e-4
-1.410, 2.246e-4
-1.411, 2.309e-4
-1.412, 2.372e-4
-1.413, 2.437e-4
-1.414, 2.506e-4
-1.415, 2.577e-4
-1.416, 2.648e-4
-1.417, 2.719e-4
-1.418, 2.792e-4
-1.419, 2.867e-4
-1.420, 2.944e-4
-1.421, 3.021e-4
-1.422, 3.100e-4
-1.423, 3.180e-4
-1.424, 3.264e-4
-1.425, 3.350e-4
-1.426, 3.436e-4
-1.427, 3.520e-4
-1.428, 3.607e-4
-1.429, 3.696e-4
-1.430, 3.790e-4
-1.431, 3.883e-4
-1.432, 3.978e-4
-1.433, 4.073e-4
-1.434, 4.173e-4
-1.435, 4.272e-4
-1.436, 4.372e-4
-1.437, 4.471e-4
-1.438, 4.573e-4
-1.439, 4.677e-4
-1.440, 4.785e-4
-1.441, 4.895e-4
-1.442, 5.003e-4
-1.443, 5.113e-4
-1.444, 5.228e-4
-1.445, 5.342e-4
-1.446, 5.457e-4
-1.447, 5.572e-4
-1.448, 5.689e-4
-1.449, 5.810e-4
-1.450, 5.933e-4
-1.451, 6.054e-4
-1.452, 6.179e-4
-1.453, 6.301e-4
-1.454, 6.428e-4
-1.455, 6.559e-4
-1.456, 6.687e-4
-1.457, 6.815e-4
-1.458, 6.941e-4
-1.459, 7.069e-4
-1.460, 7.208e-4
-1.461, 7.344e-4
-1.462, 7.480e-4
-1.463, 7.620e-4
-1.464, 7.761e-4
-1.465, 7.903e-4
-1.466, 8.045e-4
-1.467, 8.181e-4
-1.468, 8.323e-4
-1.469, 8.469e-4
-1.470, 8.619e-4
-1.471, 8.772e-4
-1.472, 8.923e-4
-1.473, 9.070e-4
-1.474, 9.224e-4
-1.475, 9.380e-4
-1.476, 9.543e-4
-1.477, 9.696e-4
-1.478, 9.851e-4
-1.479, 1.002e-3
-1.480, 1.019e-3
-1.481, 1.036e-3
-1.482, 1.052e-3
-1.483, 1.069e-3
-1.484, 1.085e-3
-1.485, 1.103e-3
-1.486, 1.120e-3
-1.487, 1.138e-3
-1.488, 1.154e-3
-1.489, 1.171e-3
-1.490, 1.189e-3
-1.491, 1.207e-3
-1.492, 1.224e-3
-1.493, 1.242e-3
-1.494, 1.261e-3
-1.495, 1.279e-3
-1.496, 1.297e-3
-1.497, 1.314e-3
-1.498, 1.332e-3
-1.499, 1.349e-3
-1.500, 1.367e-3
-1.501, 1.385e-3
-1.502, 1.402e-3
-1.503, 1.420e-3
-1.504, 1.438e-3
-1.505, 1.456e-3
-1.506, 1.472e-3
-1.507, 1.487e-3
-1.508, 1.503e-3
-1.509, 1.519e-3
-1.510, 1.537e-3
-1.511, 1.554e-3
-1.512, 1.571e-3
-1.513, 1.587e-3
-1.514, 1.602e-3
-1.515, 1.618e-3
-1.516, 1.636e-3
-1.517, 1.653e-3
-1.518, 1.672e-3
-1.519, 1.690e-3
-1.520, 1.708e-3
-1.521, 1.727e-3
-1.522, 1.745e-3
-1.523, 1.763e-3
-1.524, 1.781e-3
-1.525, 1.799e-3
-1.526, 1.819e-3
-1.527, 1.838e-3
-1.528, 1.859e-3
-1.529, 1.876e-3
-1.530, 1.895e-3
-1.531, 1.917e-3
-1.532, 1.936e-3
-1.533, 1.957e-3
-1.534, 1.979e-3
-1.535, 1.998e-3
-1.536, 2.017e-3
-1.537, 2.036e-3
-1.538, 2.069e-3
-1.539, 2.087e-3
-1.540, 2.106e-3
-1.541, 2.125e-3
-1.542, 2.146e-3
-1.543, 2.166e-3
-1.544, 2.188e-3
-1.545, 2.210e-3
-1.546, 2.233e-3
-1.547, 2.254e-3
-1.548, 2.273e-3
-1.549, 2.295e-3
-1.550, 2.316e-3
-1.551, 2.336e-3
-1.552, 2.358e-3
-1.553, 2.383e-3
-1.554, 2.407e-3
-1.555, 2.431e-3
-1.556, 2.455e-3
-1.557, 2.479e-3
-1.558, 2.502e-3
-1.559, 2.539e-3
-1.560, 2.568e-3
-1.561, 2.598e-3
-1.562, 2.626e-3
-1.563, 2.651e-3
-1.564, 2.676e-3
-1.565, 2.697e-3
-1.566, 2.713e-3
-1.567, 2.734e-3
-1.568, 2.753e-3
-1.569, 2.769e-3
-1.570, 2.790e-3
-1.571, 2.817e-3
-1.572, 2.842e-3
-1.573, 2.862e-3
-1.574, 2.904e-3
-1.575, 2.933e-3
-1.576, 2.957e-3
-1.577, 2.982e-3
-1.578, 3.013e-3
-1.579, 3.034e-3
-1.580, 3.054e-3
-1.581, 3.077e-3
-1.582, 3.105e-3
-1.583, 3.120e-3
-1.584, 3.139e-3
-1.585, 3.173e-3
-1.586, 3.205e-3
-1.587, 3.233e-3
-1.588, 3.258e-3
-1.589, 3.289e-3
-1.590, 3.313e-3
-1.591, 3.334e-3
-1.592, 3.360e-3
-1.593, 3.384e-3
-1.594, 3.409e-3
-1.595, 3.432e-3
-1.596, 3.456e-3
-1.597, 3.481e-3
-1.598, 3.500e-3
-1.599, 3.523e-3
-1.600, 3.516e-3
-1.599, 3.491e-3
-1.598, 3.445e-3
-1.597, 3.428e-3
-1.596, 3.404e-3
-1.595, 3.375e-3
-1.594, 3.346e-3
-1.593, 3.318e-3
-1.592, 3.294e-3
-1.591, 3.263e-3
-1.590, 3.232e-3
-1.589, 3.205e-3
-1.588, 3.174e-3
-1.587, 3.139e-3
-1.586, 3.107e-3
-1.585, 3.075e-3
-1.584, 3.046e-3
-1.583, 3.019e-3
-1.582, 2.994e-3
-1.581, 2.970e-3
-1.580, 2.940e-3
-1.579, 2.928e-3
-1.578, 2.903e-3
-1.577, 2.876e-3
-1.576, 2.847e-3
-1.575, 2.821e-3
-1.574, 2.791e-3
-1.573, 2.761e-3
-1.572, 2.733e-3
-1.571, 2.703e-3
-1.570, 2.668e-3
-1.569, 2.638e-3
-1.568, 2.614e-3
-1.567, 2.596e-3
-1.566, 2.571e-3
-1.565, 2.542e-3
-1.564, 2.513e-3
-1.563, 2.486e-3
-1.562, 2.456e-3
-1.561, 2.420e-3
-1.560, 2.403e-3
-1.559, 2.388e-3
-1.558, 2.372e-3
-1.557, 2.349e-3
-1.556, 2.327e-3
-1.555, 2.304e-3
-1.554, 2.284e-3
-1.553, 2.258e-3
-1.552, 2.234e-3
-1.551, 2.209e-3
-1.550, 2.183e-3
-1.549, 2.157e-3
-1.548, 2.129e-3
-1.547, 2.103e-3
-1.546, 2.075e-3
-1.545, 2.052e-3
-1.544, 2.025e-3
-1.543, 1.997e-3
-1.542, 1.973e-3
-1.541, 1.950e-3
-1.540, 1.927e-3
-1.539, 1.907e-3
-1.538, 1.886e-3
-1.537, 1.878e-3
-1.536, 1.859e-3
-1.535, 1.839e-3
-1.534, 1.820e-3
-1.533, 1.799e-3
-1.532, 1.786e-3
-1.531, 1.771e-3
-1.530, 1.752e-3
-1.529, 1.731e-3
-1.528, 1.717e-3
-1.527, 1.697e-3
-1.526, 1.678e-3
-1.525, 1.655e-3
-1.524, 1.636e-3
-1.523, 1.616e-3
-1.522, 1.596e-3
-1.521, 1.579e-3
-1.520, 1.559e-3
-1.519, 1.539e-3
-1.518, 1.524e-3
-1.517, 1.507e-3
-1.516, 1.485e-3
-1.515, 1.462e-3
-1.514, 1.443e-3
-1.513, 1.423e-3
-1.512, 1.404e-3
-1.511, 1.386e-3
-1.510, 1.369e-3
-1.509, 1.351e-3
-1.508, 1.333e-3
-1.507, 1.314e-3
-1.506, 1.296e-3
-1.505, 1.276e-3
-1.504, 1.256e-3
-1.503, 1.238e-3
-1.502, 1.221e-3
-1.501, 1.216e-3
-1.500, 1.203e-3
-1.499, 1.186e-3
-1.498, 1.171e-3
-1.497, 1.151e-3
-1.496, 1.130e-3
-1.495, 1.111e-3
-1.494, 1.094e-3
-1.493, 1.078e-3
-1.492, 1.063e-3
-1.491, 1.046e-3
-1.490, 1.030e-3
-1.489, 1.012e-3
-1.488, 9.943e-4
-1.487, 9.782e-4
-1.486, 9.631e-4
-1.485, 9.491e-4
-1.484, 9.333e-4
-1.483, 9.172e-4
-1.482, 8.998e-4
-1.481, 8.881e-4
-1.480, 8.716e-4
-1.479, 8.569e-4
-1.478, 8.424e-4
-1.477, 8.278e-4
-1.476, 8.151e-4
-1.475, 8.016e-4
-1.474, 7.884e-4
-1.473, 7.754e-4
-1.472, 7.631e-4
-1.471, 7.505e-4
-1.470, 7.393e-4
-1.469, 7.267e-4
-1.468, 7.149e-4
-1.467, 7.040e-4
-1.466, 6.941e-4
-1.465, 6.852e-4
-1.464, 6.738e-4
-1.463, 6.635e-4
-1.462, 6.527e-4
-1.461, 6.426e-4
-1.460, 6.319e-4
-1.459, 6.212e-4
-1.458, 6.099e-4
-1.457, 5.986e-4
-1.456, 5.888e-4
-1.455, 5.781e-4
-1.454, 5.676e-4
-1.453, 5.572e-4
-1.452, 5.465e-4
-1.451, 5.358e-4
-1.450, 5.257e-4
-1.449, 5.161e-4
-1.448, 5.055e-4
-1.447, 4.952e-4
-1.446, 4.856e-4
-1.445, 4.775e-4
-1.444, 4.701e-4
-1.443, 4.617e-4
-1.442, 4.528e-4
-1.441, 4.436e-4
-1.440, 4.345e-4
-1.439, 4.262e-4
-1.438, 4.174e-4
-1.437, 4.093e-4
-1.436, 4.011e-4
-1.435, 3.927e-4
-1.434, 3.841e-4
-1.433, 3.756e-4
-1.432, 3.675e-4
-1.431, 3.599e-4
-1.430, 3.520e-4
-1.429, 3.444e-4
-1.428, 3.372e-4
-1.427, 3.298e-4
-1.426, 3.228e-4
-1.425, 3.158e-4
-1.424, 3.089e-4
-1.423, 3.023e-4
-1.422, 2.956e-4
-1.421, 2.892e-4
-1.420, 2.829e-4
-1.419, 2.767e-4
-1.418, 2.706e-4
-1.417, 2.644e-4
-1.416, 2.582e-4
-1.415, 2.521e-4
-1.414, 2.463e-4
-1.413, 2.406e-4
-1.412, 2.351e-4
-1.411, 2.301e-4
-1.410, 2.247e-4
-1.409, 2.195e-4
-1.408, 2.143e-4
-1.407, 2.093e-4
-1.406, 2.045e-4
-1.405, 1.997e-4
-1.404, 1.950e-4
-1.403, 1.903e-4
-1.402, 1.862e-4
-1.401, 1.821e-4
-1.400, 1.779e-4
-1.399, 1.737e-4
-1.398, 1.692e-4
-1.397, 1.651e-4
-1.396, 1.611e-4
-1.395, 1.572e-4
-1.394, 1.534e-4
-1.393, 1.497e-4
-1.392, 1.463e-4
-1.391, 1.428e-4
-1.390, 1.393e-4
-1.389, 1.358e-4
-1.388, 1.326e-4
-1.387, 1.295e-4
-1.386, 1.264e-4
-1.385, 1.231e-4
-1.384, 1.199e-4
-1.383, 1.168e-4
-1.382, 1.139e-4
-1.381, 1.112e-4
-1.380, 1.083e-4
-1.379, 1.056e-4
-1.378, 1.030e-4
-1.377, 1.005e-4
-1.376, 9.818e-5
-1.375, 9.568e-5
-1.374, 9.322e-5
-1.373, 9.064e-5
-1.372, 8.835e-5
-1.371, 8.613e-5
-1.370, 8.394e-5
-1.369, 8.173e-5
-1.368, 7.956e-5
-1.367, 7.749e-5
-1.366, 7.572e-5
-1.365, 7.389e-5
-1.364, 7.188e-5
-1.363, 6.983e-5
-1.362, 6.817e-5
-1.361, 6.651e-5
-1.360, 6.477e-5
-1.359, 6.295e-5
-1.358, 6.117e-5
-1.357, 5.949e-5
-1.356, 5.793e-5
-1.355, 5.625e-5
-1.354, 5.470e-5
-1.353, 5.303e-5
-1.352, 5.105e-5
-1.351, 4.955e-5
-1.350, 4.838e-5
-1.349, 4.726e-5
-1.348, 4.592e-5
-1.347, 4.475e-5
-1.346, 4.380e-5
-1.345, 4.272e-5
-1.344, 4.153e-5
-1.343, 4.027e-5
-1.342, 3.923e-5
-1.341, 3.833e-5
-1.340, 3.735e-5
-1.339, 3.631e-5
-1.338, 3.527e-5
-1.337, 3.428e-5
-1.336, 3.341e-5
-1.335, 3.247e-5
-1.334, 3.143e-5
-1.333, 3.053e-5
-1.332, 2.979e-5
-1.331, 2.895e-5
-1.330, 2.816e-5
-1.329, 2.721e-5
-1.328, 2.641e-5
-1.327, 2.568e-5
-1.326, 2.505e-5
-1.325, 2.435e-5
-1.324, 2.352e-5
-1.323, 2.274e-5
-1.322, 2.214e-5
-1.321, 2.158e-5
-1.320, 2.092e-5
-1.319, 2.015e-5
-1.318, 1.944e-5
-1.317, 1.894e-5
-1.316, 1.845e-5
-1.315, 1.783e-5
-1.314, 1.711e-5
-1.313, 1.648e-5
-1.312, 1.604e-5
-1.311, 1.562e-5
-1.310, 1.506e-5
-1.309, 1.450e-5
-1.308, 1.390e-5
-1.307, 1.353e-5
-1.306, 1.319e-5
-1.305, 1.270e-5
-1.304, 1.214e-5
-1.303, 1.161e-5
-1.302, 1.122e-5
-1.301, 1.095e-5
-1.300, 1.051e-5
-1.299, 9.958e-6
-1.298, 9.489e-6
-1.297, 9.190e-6
-1.296, 9.009e-6
-1.295, 8.652e-6
-1.294, 8.095e-6
-1.293, 7.697e-6
-1.292, 7.462e-6
-1.291, 7.261e-6
-1.290, 6.840e-6
-1.289, 6.327e-6
-1.288, 5.988e-6
-1.287, 5.818e-6
-1.286, 5.653e-6
-1.285, 5.388e-6
-1.284, 4.884e-6
-1.283, 4.496e-6
-1.282, 4.226e-6
-1.281, 4.086e-6
-1.280, 3.782e-6
-1.279, 3.425e-6
-1.278, 3.031e-6
-1.277, 2.909e-6
-1.276, 2.781e-6
-1.275, 2.582e-6
-1.274, 2.240e-6
-1.273, 1.891e-6
-1.272, 1.756e-6
-1.271, 1.601e-6
-1.270, 1.336e-6
-1.269, 9.913e-7
-1.268, 6.658e-7
-1.267, 5.326e-7
-1.266, 4.852e-7
-1.265, 2.415e-7
-1.264, -6.729e-8
-1.263, -3.090e-7
-1.262, -4.659e-7
-1.261, -4.747e-7
-1.260, -6.454e-7
-1.259, -9.602e-7
-1.258, -1.189e-6
-1.257, -1.295e-6
-1.256, -1.296e-6
-1.255, -1.523e-6
-1.254, -1.841e-6
-1.253, -2.045e-6
-1.252, -2.132e-6
-1.251, -2.122e-6
-1.250, -2.283e-6
-1.249, -2.590e-6
-1.248, -2.815e-6
-1.247, -2.987e-6
-1.246, -3.031e-6
-1.245, -3.105e-6
-1.244, -3.313e-6
-1.243, -3.501e-6
-1.242, -3.594e-6
-1.241, -3.526e-6
-1.240, -3.653e-6
-1.239, -3.878e-6
-1.238, -4.092e-6
-1.237, -4.048e-6
-1.236, -3.969e-6
-1.235, -4.082e-6
-1.234, -4.352e-6
-1.233, -4.535e-6
-1.232, -4.504e-6
-1.231, -4.487e-6
-1.230, -4.651e-6
-1.229, -4.891e-6
-1.228, -5.055e-6
-1.227, -5.019e-6
-1.226, -5.012e-6
-1.225, -5.115e-6
-1.224, -5.323e-6
-1.223, -5.484e-6
-1.222, -5.443e-6
-1.221, -5.339e-6
-1.220, -5.510e-6
-1.219, -5.783e-6
-1.218, -6.012e-6
-1.217, -5.993e-6
-1.216, -5.911e-6
-1.215, -5.917e-6
-1.214, -6.137e-6
-1.213, -6.176e-6
-1.212, -6.122e-6
-1.211, -6.102e-6
-1.210, -6.216e-6
-1.209, -6.483e-6
-1.208, -6.648e-6
-1.207, -6.543e-6
-1.206, -6.468e-6
-1.205, -6.521e-6
-1.204, -6.753e-6
-1.203, -6.916e-6
-1.202, -6.826e-6
-1.201, -6.783e-6
-1.200, -6.873e-6
-1.199, -7.113e-6
-1.198, -7.269e-6
-1.197, -7.172e-6
-1.196, -7.083e-6
-1.195, -7.167e-6
-1.194, -7.380e-6
-1.193, -7.514e-6
-1.192, -7.439e-6
-1.191, -7.434e-6
-1.190, -7.503e-6
-1.189, -7.755e-6
-1.188, -7.938e-6
-1.187, -7.837e-6
-1.186, -7.737e-6
-1.185, -7.841e-6
-1.184, -7.965e-6
-1.183, -8.104e-6
-1.182, -8.011e-6
-1.181, -7.923e-6
-1.180, -7.948e-6
-1.179, -8.167e-6
-1.178, -8.306e-6
-1.177, -8.234e-6
-1.176, -8.121e-6
-1.175, -8.169e-6
-1.174, -8.406e-6
-1.173, -8.475e-6
-1.172, -8.339e-6
-1.171, -8.233e-6
-1.170, -8.298e-6
-1.169, -8.505e-6
-1.168, -8.561e-6
-1.167, -8.445e-6
-1.166, -8.368e-6
-1.165, -8.373e-6
-1.164, -8.577e-6
-1.163, -8.671e-6
-1.162, -8.580e-6
-1.161, -8.499e-6
-1.160, -8.512e-6
-1.159, -8.679e-6
-1.158, -8.781e-6
-1.157, -8.626e-6
-1.156, -8.576e-6
-1.155, -8.672e-6
-1.154, -8.880e-6
-1.153, -8.977e-6
-1.152, -8.928e-6
-1.151, -8.839e-6
-1.150, -8.877e-6
-1.149, -9.060e-6
-1.148, -9.117e-6
-1.147, -9.024e-6
-1.146, -8.885e-6
-1.145, -8.987e-6
-1.144, -9.122e-6
-1.143, -9.202e-6
-1.142, -9.136e-6
-1.141, -8.993e-6
-1.140, -9.040e-6
-1.139, -9.248e-6
-1.138, -9.303e-6
-1.137, -9.237e-6
-1.136, -9.074e-6
-1.135, -9.164e-6
-1.134, -9.349e-6
-1.133, -9.419e-6
-1.132, -9.291e-6
-1.131, -9.252e-6
-1.130, -9.279e-6
-1.129, -9.489e-6
-1.128, -9.592e-6
-1.127, -9.499e-6
-1.126, -9.381e-6
-1.125, -9.342e-6
-1.124, -9.498e-6
-1.123, -9.564e-6
-1.122, -9.475e-6
-1.121, -9.343e-6
-1.120, -9.387e-6
-1.119, -9.519e-6
-1.118, -9.683e-6
-1.117, -9.567e-6
-1.116, -9.479e-6
-1.115, -9.564e-6
-1.114, -9.731e-6
-1.113, -9.796e-6
-1.112, -9.664e-6
-1.111, -9.533e-6
-1.110, -9.633e-6
-1.109, -9.773e-6
-1.108, -9.843e-6
-1.107, -9.734e-6
-1.106, -9.642e-6
-1.105, -9.693e-6
-1.104, -9.880e-6
-1.103, -9.926e-6
-1.102, -9.823e-6
-1.101, -9.662e-6
-1.100, -9.724e-6
-1.099, -9.873e-6
-1.098, -9.958e-6
-1.097, -9.895e-6
-1.096, -9.776e-6
-1.095, -9.836e-6
-1.094, -1.007e-5
-1.093, -1.004e-5
-1.092, -9.959e-6
-1.091, -9.873e-6
-1.090, -9.943e-6
-1.089, -1.015e-5
-1.088, -1.017e-5
-1.087, -1.007e-5
-1.086, -9.979e-6
-1.085, -1.007e-5
-1.084, -1.025e-5
-1.083, -1.027e-5
-1.082, -1.014e-5
-1.081, -1.007e-5
-1.080, -1.013e-5
-1.079, -1.034e-5
-1.078, -1.036e-5
-1.077, -1.025e-5
-1.076, -1.011e-5
-1.075, -1.027e-5
-1.074, -1.040e-5
-1.073, -1.047e-5
-1.072, -1.035e-5
-1.071, -1.026e-5
-1.070, -1.033e-5
-1.069, -1.051e-5
-1.068, -1.054e-5
-1.067, -1.049e-5
-1.066, -1.034e-5
-1.065, -1.045e-5
-1.064, -1.062e-5
-1.063, -1.067e-5
-1.062, -1.058e-5
-1.061, -1.048e-5
-1.060, -1.054e-5
-1.059, -1.074e-5
-1.058, -1.076e-5
-1.057, -1.070e-5
-1.056, -1.057e-5
-1.055, -1.067e-5
-1.054, -1.084e-5
-1.053, -1.082e-5
-1.052, -1.079e-5
-1.051, -1.068e-5
-1.050, -1.076e-5
-1.049, -1.098e-5
-1.048, -1.103e-5
-1.047, -1.097e-5
-1.046, -1.094e-5
-1.045, -1.095e-5
-1.044, -1.115e-5
-1.043, -1.113e-5
-1.042, -1.103e-5
-1.041, -1.096e-5
-1.040, -1.109e-5
-1.039, -1.127e-5
-1.038, -1.129e-5
-1.037, -1.117e-5
-1.036, -1.108e-5
-1.035, -1.120e-5
-1.034, -1.138e-5
-1.033, -1.140e-5
-1.032, -1.132e-5
-1.031, -1.125e-5
-1.030, -1.135e-5
-1.029, -1.156e-5
-1.028, -1.158e-5
-1.027, -1.153e-5
-1.026, -1.143e-5
-1.025, -1.157e-5
-1.024, -1.175e-5
-1.023, -1.179e-5
-1.022, -1.171e-5
-1.021, -1.158e-5
-1.020, -1.172e-5
-1.019, -1.196e-5
-1.018, -1.196e-5
-1.017, -1.190e-5
-1.016, -1.183e-5
-1.015, -1.196e-5
-1.014, -1.221e-5
-1.013, -1.223e-5
-1.012, -1.212e-5
-1.011, -1.209e-5
-1.010, -1.218e-5
-1.009, -1.241e-5
-1.008, -1.246e-5
-1.007, -1.239e-5
-1.006, -1.235e-5
-1.005, -1.246e-5
-1.004, -1.269e-5
-1.003, -1.279e-5
-1.002, -1.270e-5
-1.001, -1.268e-5
