Dec. 14, 2024   22:26:35
Cyclic Voltammetry
File: c:/users/guazh/data/banditlqround7_x0exp59_r20/2024-12-09-exp662\exp662-2024-12-14t22_08_55-h2koh\exp662_cv_sr_100mvs_efin_-1700mv.bin
Data Source:  Experiment
Instrument Model:  CHI760E
Header: CV ran at 100 mVs
Note: 

Init E (V) = -1
High E (V) = -1
Low E (V) = -1.7
Final E (V) = -1
Init P/N = N
Scan Rate (V/s) = 0.1
Segment = 3
Sample Interval (V) = 0.001
Quiet Time (sec) = 2
Sensitivity (A/V) = 0.01
Comp R (ohm) = 1.3

Results:

Channel 1:
Segment 1:

Segment 2:

Segment 3:

Potential/V, Current/A

-1.000, 2.178e-6
-1.001, 5.405e-6
-1.002, 5.395e-6
-1.003, 6.658e-6
-1.004, 6.894e-6
-1.005, 7.023e-6
-1.006, 8.206e-6
-1.007, 7.486e-6
-1.008, 8.364e-6
-1.009, 8.542e-6
-1.010, 8.236e-6
-1.011, 9.292e-6
-1.012, 8.769e-6
-1.013, 9.469e-6
-1.014, 9.578e-6
-1.015, 9.272e-6
-1.016, 1.023e-5
-1.017, 9.450e-6
-1.018, 1.023e-5
-1.019, 1.016e-5
-1.020, 9.736e-6
-1.021, 1.080e-5
-1.022, 9.953e-6
-1.023, 1.089e-5
-1.024, 1.076e-5
-1.025, 1.050e-5
-1.026, 1.133e-5
-1.027, 1.050e-5
-1.028, 1.125e-5
-1.029, 1.113e-5
-1.030, 1.085e-5
-1.031, 1.188e-5
-1.032, 1.095e-5
-1.033, 1.165e-5
-1.034, 1.161e-5
-1.035, 1.109e-5
-1.036, 1.220e-5
-1.037, 1.129e-5
-1.038, 1.200e-5
-1.039, 1.189e-5
-1.040, 1.154e-5
-1.041, 1.234e-5
-1.042, 1.151e-5
-1.043, 1.229e-5
-1.044, 1.228e-5
-1.045, 1.169e-5
-1.046, 1.279e-5
-1.047, 1.189e-5
-1.048, 1.234e-5
-1.049, 1.248e-5
-1.050, 1.205e-5
-1.051, 1.296e-5
-1.052, 1.207e-5
-1.053, 1.271e-5
-1.054, 1.271e-5
-1.055, 1.225e-5
-1.056, 1.316e-5
-1.057, 1.223e-5
-1.058, 1.302e-5
-1.059, 1.287e-5
-1.060, 1.253e-5
-1.061, 1.330e-5
-1.062, 1.254e-5
-1.063, 1.328e-5
-1.064, 1.301e-5
-1.065, 1.261e-5
-1.066, 1.358e-5
-1.067, 1.273e-5
-1.068, 1.335e-5
-1.069, 1.330e-5
-1.070, 1.282e-5
-1.071, 1.384e-5
-1.072, 1.288e-5
-1.073, 1.353e-5
-1.074, 1.350e-5
-1.075, 1.316e-5
-1.076, 1.420e-5
-1.077, 1.313e-5
-1.078, 1.382e-5
-1.079, 1.380e-5
-1.080, 1.318e-5
-1.081, 1.410e-5
-1.082, 1.336e-5
-1.083, 1.384e-5
-1.084, 1.387e-5
-1.085, 1.346e-5
-1.086, 1.435e-5
-1.087, 1.354e-5
-1.088, 1.416e-5
-1.089, 1.406e-5
-1.090, 1.382e-5
-1.091, 1.459e-5
-1.092, 1.372e-5
-1.093, 1.442e-5
-1.094, 1.428e-5
-1.095, 1.395e-5
-1.096, 1.477e-5
-1.097, 1.385e-5
-1.098, 1.465e-5
-1.099, 1.457e-5
-1.100, 1.410e-5
-1.101, 1.499e-5
-1.102, 1.415e-5
-1.103, 1.481e-5
-1.104, 1.475e-5
-1.105, 1.429e-5
-1.106, 1.526e-5
-1.107, 1.441e-5
-1.108, 1.503e-5
-1.109, 1.489e-5
-1.110, 1.445e-5
-1.111, 1.552e-5
-1.112, 1.467e-5
-1.113, 1.520e-5
-1.114, 1.525e-5
-1.115, 1.480e-5
-1.116, 1.553e-5
-1.117, 1.487e-5
-1.118, 1.547e-5
-1.119, 1.547e-5
-1.120, 1.485e-5
-1.121, 1.579e-5
-1.122, 1.510e-5
-1.123, 1.565e-5
-1.124, 1.560e-5
-1.125, 1.508e-5
-1.126, 1.604e-5
-1.127, 1.528e-5
-1.128, 1.601e-5
-1.129, 1.589e-5
-1.130, 1.535e-5
-1.131, 1.624e-5
-1.132, 1.544e-5
-1.133, 1.617e-5
-1.134, 1.608e-5
-1.135, 1.559e-5
-1.136, 1.649e-5
-1.137, 1.571e-5
-1.138, 1.631e-5
-1.139, 1.633e-5
-1.140, 1.589e-5
-1.141, 1.678e-5
-1.142, 1.593e-5
-1.143, 1.653e-5
-1.144, 1.653e-5
-1.145, 1.604e-5
-1.146, 1.702e-5
-1.147, 1.609e-5
-1.148, 1.681e-5
-1.149, 1.677e-5
-1.150, 1.626e-5
-1.151, 1.722e-5
-1.152, 1.641e-5
-1.153, 1.707e-5
-1.154, 1.703e-5
-1.155, 1.644e-5
-1.156, 1.739e-5
-1.157, 1.671e-5
-1.158, 1.722e-5
-1.159, 1.738e-5
-1.160, 1.669e-5
-1.161, 1.777e-5
-1.162, 1.683e-5
-1.163, 1.740e-5
-1.164, 1.750e-5
-1.165, 1.694e-5
-1.166, 1.788e-5
-1.167, 1.716e-5
-1.168, 1.768e-5
-1.169, 1.784e-5
-1.170, 1.721e-5
-1.171, 1.818e-5
-1.172, 1.732e-5
-1.173, 1.784e-5
-1.174, 1.793e-5
-1.175, 1.728e-5
-1.176, 1.840e-5
-1.177, 1.753e-5
-1.178, 1.843e-5
-1.179, 1.815e-5
-1.180, 1.773e-5
-1.181, 1.862e-5
-1.182, 1.782e-5
-1.183, 1.848e-5
-1.184, 1.849e-5
-1.185, 1.780e-5
-1.186, 1.899e-5
-1.187, 1.805e-5
-1.188, 1.860e-5
-1.189, 1.871e-5
-1.190, 1.815e-5
-1.191, 1.924e-5
-1.192, 1.830e-5
-1.193, 1.890e-5
-1.194, 1.898e-5
-1.195, 1.827e-5
-1.196, 1.937e-5
-1.197, 1.857e-5
-1.198, 1.909e-5
-1.199, 1.922e-5
-1.200, 1.870e-5
-1.201, 1.961e-5
-1.202, 1.884e-5
-1.203, 1.943e-5
-1.204, 1.950e-5
-1.205, 1.890e-5
-1.206, 1.995e-5
-1.207, 1.915e-5
-1.208, 1.968e-5
-1.209, 1.961e-5
-1.210, 1.929e-5
-1.211, 2.012e-5
-1.212, 1.929e-5
-1.213, 1.994e-5
-1.214, 1.981e-5
-1.215, 1.937e-5
-1.216, 2.050e-5
-1.217, 1.968e-5
-1.218, 2.021e-5
-1.219, 2.017e-5
-1.220, 1.969e-5
-1.221, 2.067e-5
-1.222, 1.988e-5
-1.223, 2.052e-5
-1.224, 2.041e-5
-1.225, 1.983e-5
-1.226, 2.087e-5
-1.227, 2.000e-5
-1.228, 2.083e-5
-1.229, 2.090e-5
-1.230, 2.017e-5
-1.231, 2.137e-5
-1.232, 2.033e-5
-1.233, 2.102e-5
-1.234, 2.123e-5
-1.235, 2.056e-5
-1.236, 2.172e-5
-1.237, 2.070e-5
-1.238, 2.130e-5
-1.239, 2.140e-5
-1.240, 2.066e-5
-1.241, 2.199e-5
-1.242, 2.111e-5
-1.243, 2.165e-5
-1.244, 2.174e-5
-1.245, 2.117e-5
-1.246, 2.222e-5
-1.247, 2.147e-5
-1.248, 2.194e-5
-1.249, 2.210e-5
-1.250, 2.146e-5
-1.251, 2.257e-5
-1.252, 2.168e-5
-1.253, 2.242e-5
-1.254, 2.233e-5
-1.255, 2.189e-5
-1.256, 2.296e-5
-1.257, 2.201e-5
-1.258, 2.265e-5
-1.259, 2.274e-5
-1.260, 2.229e-5
-1.261, 2.333e-5
-1.262, 2.252e-5
-1.263, 2.319e-5
-1.264, 2.325e-5
-1.265, 2.258e-5
-1.266, 2.385e-5
-1.267, 2.288e-5
-1.268, 2.358e-5
-1.269, 2.374e-5
-1.270, 2.315e-5
-1.271, 2.435e-5
-1.272, 2.343e-5
-1.273, 2.400e-5
-1.274, 2.419e-5
-1.275, 2.365e-5
-1.276, 2.471e-5
-1.277, 2.399e-5
-1.278, 2.461e-5
-1.279, 2.470e-5
-1.280, 2.423e-5
-1.281, 2.537e-5
-1.282, 2.462e-5
-1.283, 2.518e-5
-1.284, 2.545e-5
-1.285, 2.489e-5
-1.286, 2.598e-5
-1.287, 2.513e-5
-1.288, 2.593e-5
-1.289, 2.618e-5
-1.290, 2.560e-5
-1.291, 2.670e-5
-1.292, 2.606e-5
-1.293, 2.669e-5
-1.294, 2.690e-5
-1.295, 2.651e-5
-1.296, 2.746e-5
-1.297, 2.680e-5
-1.298, 2.751e-5
-1.299, 2.766e-5
-1.300, 2.726e-5
-1.301, 2.858e-5
-1.302, 2.783e-5
-1.303, 2.837e-5
-1.304, 2.875e-5
-1.305, 2.821e-5
-1.306, 2.953e-5
-1.307, 2.872e-5
-1.308, 2.947e-5
-1.309, 2.997e-5
-1.310, 2.940e-5
-1.311, 3.049e-5
-1.312, 2.995e-5
-1.313, 3.079e-5
-1.314, 3.108e-5
-1.315, 3.051e-5
-1.316, 3.192e-5
-1.317, 3.131e-5
-1.318, 3.219e-5
-1.319, 3.243e-5
-1.320, 3.208e-5
-1.321, 3.356e-5
-1.322, 3.291e-5
-1.323, 3.377e-5
-1.324, 3.418e-5
-1.325, 3.375e-5
-1.326, 3.519e-5
-1.327, 3.474e-5
-1.328, 3.544e-5
-1.329, 3.578e-5
-1.330, 3.555e-5
-1.331, 3.723e-5
-1.332, 3.668e-5
-1.333, 3.752e-5
-1.334, 3.796e-5
-1.335, 3.796e-5
-1.336, 3.929e-5
-1.337, 3.880e-5
-1.338, 3.988e-5
-1.339, 4.048e-5
-1.340, 4.031e-5
-1.341, 4.180e-5
-1.342, 4.153e-5
-1.343, 4.266e-5
-1.344, 4.323e-5
-1.345, 4.314e-5
-1.346, 4.480e-5
-1.347, 4.455e-5
-1.348, 4.565e-5
-1.349, 4.639e-5
-1.350, 4.654e-5
-1.351, 4.826e-5
-1.352, 4.805e-5
-1.353, 4.926e-5
-1.354, 5.020e-5
-1.355, 5.028e-5
-1.356, 5.226e-5
-1.357, 5.226e-5
-1.358, 5.366e-5
-1.359, 5.471e-5
-1.360, 5.495e-5
-1.361, 5.684e-5
-1.362, 5.707e-5
-1.363, 5.868e-5
-1.364, 5.999e-5
-1.365, 6.038e-5
-1.366, 6.260e-5
-1.367, 6.300e-5
-1.368, 6.475e-5
-1.369, 6.621e-5
-1.370, 6.703e-5
-1.371, 6.930e-5
-1.372, 7.005e-5
-1.373, 7.222e-5
-1.374, 7.390e-5
-1.375, 7.506e-5
-1.376, 7.771e-5
-1.377, 7.868e-5
-1.378, 8.129e-5
-1.379, 8.333e-5
-1.380, 8.480e-5
-1.381, 8.803e-5
-1.382, 8.978e-5
-1.383, 9.274e-5
-1.384, 9.532e-5
-1.385, 9.742e-5
-1.386, 1.011e-4
-1.387, 1.032e-4
-1.388, 1.069e-4
-1.389, 1.101e-4
-1.390, 1.127e-4
-1.391, 1.170e-4
-1.392, 1.197e-4
-1.393, 1.240e-4
-1.394, 1.281e-4
-1.395, 1.317e-4
-1.396, 1.370e-4
-1.397, 1.407e-4
-1.398, 1.459e-4
-1.399, 1.510e-4
-1.400, 1.554e-4
-1.401, 1.616e-4
-1.402, 1.662e-4
-1.403, 1.722e-4
-1.404, 1.781e-4
-1.405, 1.837e-4
-1.406, 1.906e-4
-1.407, 1.964e-4
-1.408, 2.036e-4
-1.409, 2.103e-4
-1.410, 2.169e-4
-1.411, 2.246e-4
-1.412, 2.312e-4
-1.413, 2.393e-4
-1.414, 2.471e-4
-1.415, 2.547e-4
-1.416, 2.636e-4
-1.417, 2.711e-4
-1.418, 2.803e-4
-1.419, 2.890e-4
-1.420, 2.975e-4
-1.421, 3.076e-4
-1.422, 3.159e-4
-1.423, 3.260e-4
-1.424, 3.355e-4
-1.425, 3.451e-4
-1.426, 3.559e-4
-1.427, 3.655e-4
-1.428, 3.765e-4
-1.429, 3.871e-4
-1.430, 3.975e-4
-1.431, 4.092e-4
-1.432, 4.195e-4
-1.433, 4.316e-4
-1.434, 4.431e-4
-1.435, 4.547e-4
-1.436, 4.674e-4
-1.437, 4.789e-4
-1.438, 4.917e-4
-1.439, 5.039e-4
-1.440, 5.167e-4
-1.441, 5.302e-4
-1.442, 5.425e-4
-1.443, 5.566e-4
-1.444, 5.700e-4
-1.445, 5.837e-4
-1.446, 5.981e-4
-1.447, 6.115e-4
-1.448, 6.266e-4
-1.449, 6.405e-4
-1.450, 6.553e-4
-1.451, 6.708e-4
-1.452, 6.852e-4
-1.453, 7.014e-4
-1.454, 7.166e-4
-1.455, 7.323e-4
-1.456, 7.490e-4
-1.457, 7.643e-4
-1.458, 7.815e-4
-1.459, 7.979e-4
-1.460, 8.146e-4
-1.461, 8.325e-4
-1.462, 8.490e-4
-1.463, 8.672e-4
-1.464, 8.840e-4
-1.465, 9.017e-4
-1.466, 9.208e-4
-1.467, 9.378e-4
-1.468, 9.570e-4
-1.469, 9.750e-4
-1.470, 9.938e-4
-1.471, 1.013e-3
-1.472, 1.031e-3
-1.473, 1.051e-3
-1.474, 1.070e-3
-1.475, 1.090e-3
-1.476, 1.110e-3
-1.477, 1.129e-3
-1.478, 1.151e-3
-1.479, 1.171e-3
-1.480, 1.191e-3
-1.481, 1.212e-3
-1.482, 1.231e-3
-1.483, 1.253e-3
-1.484, 1.275e-3
-1.485, 1.296e-3
-1.486, 1.318e-3
-1.487, 1.339e-3
-1.488, 1.363e-3
-1.489, 1.385e-3
-1.490, 1.407e-3
-1.491, 1.431e-3
-1.492, 1.452e-3
-1.493, 1.476e-3
-1.494, 1.498e-3
-1.495, 1.522e-3
-1.496, 1.546e-3
-1.497, 1.569e-3
-1.498, 1.595e-3
-1.499, 1.619e-3
-1.500, 1.644e-3
-1.501, 1.669e-3
-1.502, 1.693e-3
-1.503, 1.719e-3
-1.504, 1.743e-3
-1.505, 1.769e-3
-1.506, 1.796e-3
-1.507, 1.820e-3
-1.508, 1.847e-3
-1.509, 1.871e-3
-1.510, 1.898e-3
-1.511, 1.924e-3
-1.512, 1.949e-3
-1.513, 1.976e-3
-1.514, 2.001e-3
-1.515, 2.028e-3
-1.516, 2.056e-3
-1.517, 2.081e-3
-1.518, 2.109e-3
-1.519, 2.135e-3
-1.520, 2.162e-3
-1.521, 2.190e-3
-1.522, 2.216e-3
-1.523, 2.245e-3
-1.524, 2.271e-3
-1.525, 2.297e-3
-1.526, 2.326e-3
-1.527, 2.352e-3
-1.528, 2.382e-3
-1.529, 2.409e-3
-1.530, 2.437e-3
-1.531, 2.466e-3
-1.532, 2.492e-3
-1.533, 2.521e-3
-1.534, 2.548e-3
-1.535, 2.576e-3
-1.536, 2.605e-3
-1.537, 2.633e-3
-1.538, 2.664e-3
-1.539, 2.691e-3
-1.540, 2.720e-3
-1.541, 2.750e-3
-1.542, 2.777e-3
-1.543, 2.807e-3
-1.544, 2.837e-3
-1.545, 2.867e-3
-1.546, 2.898e-3
-1.547, 2.928e-3
-1.548, 2.961e-3
-1.549, 2.993e-3
-1.550, 3.024e-3
-1.551, 3.055e-3
-1.552, 3.083e-3
-1.553, 3.118e-3
-1.554, 3.149e-3
-1.555, 3.181e-3
-1.556, 3.215e-3
-1.557, 3.243e-3
-1.558, 3.278e-3
-1.559, 3.310e-3
-1.560, 3.342e-3
-1.561, 3.373e-3
-1.562, 3.400e-3
-1.563, 3.439e-3
-1.564, 3.466e-3
-1.565, 3.496e-3
-1.566, 3.531e-3
-1.567, 3.562e-3
-1.568, 3.599e-3
-1.569, 3.635e-3
-1.570, 3.668e-3
-1.571, 3.701e-3
-1.572, 3.727e-3
-1.573, 3.753e-3
-1.574, 3.781e-3
-1.575, 3.818e-3
-1.576, 3.853e-3
-1.577, 3.885e-3
-1.578, 3.916e-3
-1.579, 3.945e-3
-1.580, 3.979e-3
-1.581, 4.010e-3
-1.582, 4.042e-3
-1.583, 4.079e-3
-1.584, 4.111e-3
-1.585, 4.147e-3
-1.586, 4.186e-3
-1.587, 4.216e-3
-1.588, 4.248e-3
-1.589, 4.279e-3
-1.590, 4.309e-3
-1.591, 4.345e-3
-1.592, 4.372e-3
-1.593, 4.411e-3
-1.594, 4.449e-3
-1.595, 4.479e-3
-1.596, 4.516e-3
-1.597, 4.549e-3
-1.598, 4.591e-3
-1.599, 4.624e-3
-1.600, 4.664e-3
-1.601, 4.701e-3
-1.602, 4.736e-3
-1.603, 4.779e-3
-1.604, 4.811e-3
-1.605, 4.848e-3
-1.606, 4.885e-3
-1.607, 4.917e-3
-1.608, 4.951e-3
-1.609, 4.987e-3
-1.610, 5.021e-3
-1.611, 5.055e-3
-1.612, 5.088e-3
-1.613, 5.127e-3
-1.614, 5.167e-3
-1.615, 5.207e-3
-1.616, 5.242e-3
-1.617, 5.279e-3
-1.618, 5.324e-3
-1.619, 5.361e-3
-1.620, 5.400e-3
-1.621, 5.445e-3
-1.622, 5.486e-3
-1.623, 5.524e-3
-1.624, 5.554e-3
-1.625, 5.588e-3
-1.626, 5.621e-3
-1.627, 5.659e-3
-1.628, 5.697e-3
-1.629, 5.743e-3
-1.630, 5.785e-3
-1.631, 5.831e-3
-1.632, 5.880e-3
-1.633, 5.924e-3
-1.634, 5.964e-3
-1.635, 6.013e-3
-1.636, 6.067e-3
-1.637, 6.098e-3
-1.638, 6.139e-3
-1.639, 6.178e-3
-1.640, 6.220e-3
-1.641, 6.255e-3
-1.642, 6.289e-3
-1.643, 6.330e-3
-1.644, 6.363e-3
-1.645, 6.404e-3
-1.646, 6.441e-3
-1.647, 6.483e-3
-1.648, 6.528e-3
-1.649, 6.566e-3
-1.650, 6.612e-3
-1.651, 6.645e-3
-1.652, 6.689e-3
-1.653, 6.744e-3
-1.654, 6.782e-3
-1.655, 6.828e-3
-1.656, 6.873e-3
-1.657, 6.903e-3
-1.658, 6.949e-3
-1.659, 7.030e-3
-1.660, 7.067e-3
-1.661, 7.099e-3
-1.662, 7.138e-3
-1.663, 7.170e-3
-1.664, 7.209e-3
-1.665, 7.257e-3
-1.666, 7.292e-3
-1.667, 7.315e-3
-1.668, 7.352e-3
-1.669, 7.405e-3
-1.670, 7.444e-3
-1.671, 7.536e-3
-1.672, 7.614e-3
-1.673, 7.670e-3
-1.674, 7.703e-3
-1.675, 7.735e-3
-1.676, 7.782e-3
-1.677, 7.812e-3
-1.678, 7.867e-3
-1.679, 7.892e-3
-1.680, 7.943e-3
-1.681, 7.999e-3
-1.682, 8.035e-3
-1.683, 8.080e-3
-1.684, 8.107e-3
-1.685, 8.138e-3
-1.686, 8.177e-3
-1.687, 8.207e-3
-1.688, 8.251e-3
-1.689, 8.294e-3
-1.690, 8.344e-3
-1.691, 8.386e-3
-1.692, 8.431e-3
-1.693, 8.469e-3
-1.694, 8.502e-3
-1.695, 8.554e-3
-1.696, 8.608e-3
-1.697, 8.651e-3
-1.698, 8.702e-3
-1.699, 8.731e-3
-1.700, 8.722e-3
-1.699, 8.647e-3
-1.698, 8.589e-3
-1.697, 8.533e-3
-1.696, 8.464e-3
-1.695, 8.416e-3
-1.694, 8.365e-3
-1.693, 8.293e-3
-1.692, 8.229e-3
-1.691, 8.159e-3
-1.690, 8.095e-3
-1.689, 8.049e-3
-1.688, 8.003e-3
-1.687, 7.963e-3
-1.686, 7.923e-3
-1.685, 7.898e-3
-1.684, 7.857e-3
-1.683, 7.803e-3
-1.682, 7.762e-3
-1.681, 7.723e-3
-1.680, 7.669e-3
-1.679, 7.612e-3
-1.678, 7.575e-3
-1.677, 7.515e-3
-1.676, 7.463e-3
-1.675, 7.416e-3
-1.674, 7.370e-3
-1.673, 7.320e-3
-1.672, 7.273e-3
-1.671, 7.221e-3
-1.670, 7.192e-3
-1.669, 7.146e-3
-1.668, 7.076e-3
-1.667, 7.018e-3
-1.666, 6.955e-3
-1.665, 6.892e-3
-1.664, 6.847e-3
-1.663, 6.802e-3
-1.662, 6.751e-3
-1.661, 6.702e-3
-1.660, 6.654e-3
-1.659, 6.612e-3
-1.658, 6.563e-3
-1.657, 6.524e-3
-1.656, 6.480e-3
-1.655, 6.455e-3
-1.654, 6.405e-3
-1.653, 6.348e-3
-1.652, 6.297e-3
-1.651, 6.251e-3
-1.650, 6.208e-3
-1.649, 6.166e-3
-1.648, 6.113e-3
-1.647, 6.064e-3
-1.646, 6.019e-3
-1.645, 5.968e-3
-1.644, 5.924e-3
-1.643, 5.876e-3
-1.642, 5.833e-3
-1.641, 5.780e-3
-1.640, 5.736e-3
-1.639, 5.691e-3
-1.638, 5.643e-3
-1.637, 5.606e-3
-1.636, 5.562e-3
-1.635, 5.515e-3
-1.634, 5.473e-3
-1.633, 5.432e-3
-1.632, 5.395e-3
-1.631, 5.345e-3
-1.630, 5.305e-3
-1.629, 5.266e-3
-1.628, 5.220e-3
-1.627, 5.191e-3
-1.626, 5.155e-3
-1.625, 5.127e-3
-1.624, 5.099e-3
-1.623, 5.062e-3
-1.622, 5.022e-3
-1.621, 4.990e-3
-1.620, 4.965e-3
-1.619, 4.931e-3
-1.618, 4.890e-3
-1.617, 4.859e-3
-1.616, 4.824e-3
-1.615, 4.781e-3
-1.614, 4.734e-3
-1.613, 4.685e-3
-1.612, 4.649e-3
-1.611, 4.608e-3
-1.610, 4.569e-3
-1.609, 4.527e-3
-1.608, 4.491e-3
-1.607, 4.451e-3
-1.606, 4.417e-3
-1.605, 4.377e-3
-1.604, 4.343e-3
-1.603, 4.307e-3
-1.602, 4.275e-3
-1.601, 4.246e-3
-1.600, 4.210e-3
-1.599, 4.176e-3
-1.598, 4.136e-3
-1.597, 4.096e-3
-1.596, 4.056e-3
-1.595, 4.023e-3
-1.594, 3.992e-3
-1.593, 3.956e-3
-1.592, 3.927e-3
-1.591, 3.891e-3
-1.590, 3.851e-3
-1.589, 3.816e-3
-1.588, 3.778e-3
-1.587, 3.745e-3
-1.586, 3.714e-3
-1.585, 3.679e-3
-1.584, 3.649e-3
-1.583, 3.608e-3
-1.582, 3.578e-3
-1.581, 3.549e-3
-1.580, 3.509e-3
-1.579, 3.480e-3
-1.578, 3.443e-3
-1.577, 3.412e-3
-1.576, 3.376e-3
-1.575, 3.339e-3
-1.574, 3.306e-3
-1.573, 3.269e-3
-1.572, 3.242e-3
-1.571, 3.217e-3
-1.570, 3.185e-3
-1.569, 3.151e-3
-1.568, 3.116e-3
-1.567, 3.086e-3
-1.566, 3.050e-3
-1.565, 3.019e-3
-1.564, 2.992e-3
-1.563, 2.962e-3
-1.562, 2.931e-3
-1.561, 2.898e-3
-1.560, 2.869e-3
-1.559, 2.839e-3
-1.558, 2.811e-3
-1.557, 2.783e-3
-1.556, 2.752e-3
-1.555, 2.720e-3
-1.554, 2.696e-3
-1.553, 2.663e-3
-1.552, 2.635e-3
-1.551, 2.608e-3
-1.550, 2.579e-3
-1.549, 2.562e-3
-1.548, 2.532e-3
-1.547, 2.504e-3
-1.546, 2.479e-3
-1.545, 2.451e-3
-1.544, 2.426e-3
-1.543, 2.397e-3
-1.542, 2.376e-3
-1.541, 2.344e-3
-1.540, 2.319e-3
-1.539, 2.294e-3
-1.538, 2.267e-3
-1.537, 2.244e-3
-1.536, 2.217e-3
-1.535, 2.190e-3
-1.534, 2.166e-3
-1.533, 2.137e-3
-1.532, 2.115e-3
-1.531, 2.089e-3
-1.530, 2.070e-3
-1.529, 2.044e-3
-1.528, 2.017e-3
-1.527, 1.999e-3
-1.526, 1.972e-3
-1.525, 1.947e-3
-1.524, 1.924e-3
-1.523, 1.898e-3
-1.522, 1.876e-3
-1.521, 1.853e-3
-1.520, 1.829e-3
-1.519, 1.809e-3
-1.518, 1.788e-3
-1.517, 1.765e-3
-1.516, 1.742e-3
-1.515, 1.719e-3
-1.514, 1.699e-3
-1.513, 1.675e-3
-1.512, 1.655e-3
-1.511, 1.632e-3
-1.510, 1.610e-3
-1.509, 1.589e-3
-1.508, 1.566e-3
-1.507, 1.544e-3
-1.506, 1.521e-3
-1.505, 1.499e-3
-1.504, 1.479e-3
-1.503, 1.458e-3
-1.502, 1.438e-3
-1.501, 1.417e-3
-1.500, 1.398e-3
-1.499, 1.378e-3
-1.498, 1.357e-3
-1.497, 1.337e-3
-1.496, 1.318e-3
-1.495, 1.297e-3
-1.494, 1.278e-3
-1.493, 1.259e-3
-1.492, 1.242e-3
-1.491, 1.223e-3
-1.490, 1.206e-3
-1.489, 1.189e-3
-1.488, 1.170e-3
-1.487, 1.154e-3
-1.486, 1.137e-3
-1.485, 1.119e-3
-1.484, 1.102e-3
-1.483, 1.085e-3
-1.482, 1.068e-3
-1.481, 1.051e-3
-1.480, 1.035e-3
-1.479, 1.018e-3
-1.478, 1.001e-3
-1.477, 9.860e-4
-1.476, 9.700e-4
-1.475, 9.544e-4
-1.474, 9.399e-4
-1.473, 9.232e-4
-1.472, 9.080e-4
-1.471, 8.921e-4
-1.470, 8.765e-4
-1.469, 8.631e-4
-1.468, 8.484e-4
-1.467, 8.346e-4
-1.466, 8.198e-4
-1.465, 8.052e-4
-1.464, 7.914e-4
-1.463, 7.768e-4
-1.462, 7.634e-4
-1.461, 7.494e-4
-1.460, 7.358e-4
-1.459, 7.232e-4
-1.458, 7.094e-4
-1.457, 6.973e-4
-1.456, 6.846e-4
-1.455, 6.712e-4
-1.454, 6.602e-4
-1.453, 6.478e-4
-1.452, 6.361e-4
-1.451, 6.241e-4
-1.450, 6.123e-4
-1.449, 6.015e-4
-1.448, 5.896e-4
-1.447, 5.787e-4
-1.446, 5.679e-4
-1.445, 5.567e-4
-1.444, 5.467e-4
-1.443, 5.354e-4
-1.442, 5.256e-4
-1.441, 5.151e-4
-1.440, 5.048e-4
-1.439, 4.958e-4
-1.438, 4.856e-4
-1.437, 4.767e-4
-1.436, 4.673e-4
-1.435, 4.578e-4
-1.434, 4.494e-4
-1.433, 4.396e-4
-1.432, 4.315e-4
-1.431, 4.219e-4
-1.430, 4.126e-4
-1.429, 4.049e-4
-1.428, 3.956e-4
-1.427, 3.869e-4
-1.426, 3.783e-4
-1.425, 3.695e-4
-1.424, 3.628e-4
-1.423, 3.549e-4
-1.422, 3.481e-4
-1.421, 3.409e-4
-1.420, 3.336e-4
-1.419, 3.273e-4
-1.418, 3.200e-4
-1.417, 3.136e-4
-1.416, 3.070e-4
-1.415, 2.999e-4
-1.414, 2.939e-4
-1.413, 2.867e-4
-1.412, 2.805e-4
-1.411, 2.743e-4
-1.410, 2.674e-4
-1.409, 2.614e-4
-1.408, 2.548e-4
-1.407, 2.489e-4
-1.406, 2.431e-4
-1.405, 2.372e-4
-1.404, 2.325e-4
-1.403, 2.267e-4
-1.402, 2.220e-4
-1.401, 2.173e-4
-1.400, 2.121e-4
-1.399, 2.079e-4
-1.398, 2.024e-4
-1.397, 1.979e-4
-1.396, 1.935e-4
-1.395, 1.883e-4
-1.394, 1.844e-4
-1.393, 1.793e-4
-1.392, 1.753e-4
-1.391, 1.712e-4
-1.390, 1.665e-4
-1.389, 1.633e-4
-1.388, 1.590e-4
-1.387, 1.552e-4
-1.386, 1.519e-4
-1.385, 1.479e-4
-1.384, 1.449e-4
-1.383, 1.411e-4
-1.382, 1.372e-4
-1.381, 1.341e-4
-1.380, 1.303e-4
-1.379, 1.278e-4
-1.378, 1.242e-4
-1.377, 1.211e-4
-1.376, 1.183e-4
-1.375, 1.150e-4
-1.374, 1.125e-4
-1.373, 1.091e-4
-1.372, 1.064e-4
-1.371, 1.042e-4
-1.370, 1.010e-4
-1.369, 9.902e-5
-1.368, 9.619e-5
-1.367, 9.378e-5
-1.366, 9.162e-5
-1.365, 8.876e-5
-1.364, 8.736e-5
-1.363, 8.459e-5
-1.362, 8.223e-5
-1.361, 8.048e-5
-1.360, 7.782e-5
-1.359, 7.661e-5
-1.358, 7.397e-5
-1.357, 7.210e-5
-1.356, 7.040e-5
-1.355, 6.770e-5
-1.354, 6.664e-5
-1.353, 6.444e-5
-1.352, 6.269e-5
-1.351, 6.116e-5
-1.350, 5.895e-5
-1.349, 5.804e-5
-1.348, 5.592e-5
-1.347, 5.442e-5
-1.346, 5.311e-5
-1.345, 5.101e-5
-1.344, 5.011e-5
-1.343, 4.835e-5
-1.342, 4.686e-5
-1.341, 4.590e-5
-1.340, 4.400e-5
-1.339, 4.334e-5
-1.338, 4.145e-5
-1.337, 4.011e-5
-1.336, 3.914e-5
-1.335, 3.728e-5
-1.334, 3.682e-5
-1.333, 3.527e-5
-1.332, 3.408e-5
-1.331, 3.303e-5
-1.330, 3.141e-5
-1.329, 3.097e-5
-1.328, 2.935e-5
-1.327, 2.833e-5
-1.326, 2.760e-5
-1.325, 2.595e-5
-1.324, 2.583e-5
-1.323, 2.426e-5
-1.322, 2.342e-5
-1.321, 2.290e-5
-1.320, 2.139e-5
-1.319, 2.124e-5
-1.318, 1.984e-5
-1.317, 1.921e-5
-1.316, 1.873e-5
-1.315, 1.716e-5
-1.314, 1.722e-5
-1.313, 1.599e-5
-1.312, 1.534e-5
-1.311, 1.498e-5
-1.310, 1.349e-5
-1.309, 1.382e-5
-1.308, 1.260e-5
-1.307, 1.186e-5
-1.306, 1.162e-5
-1.305, 1.012e-5
-1.304, 1.046e-5
-1.303, 9.410e-6
-1.302, 8.749e-6
-1.301, 8.769e-6
-1.300, 7.309e-6
-1.299, 7.615e-6
-1.298, 6.579e-6
-1.297, 5.947e-6
-1.296, 5.888e-6
-1.295, 4.724e-6
-1.294, 5.020e-6
-1.293, 3.875e-6
-1.292, 3.550e-6
-1.291, 3.422e-6
-1.290, 2.277e-6
-1.289, 2.613e-6
-1.288, 1.744e-6
-1.287, 1.162e-6
-1.286, 1.172e-6
-1.285, 5.722e-8
-1.284, 5.604e-7
-1.283, -3.275e-7
-1.282, -6.433e-7
-1.281, -5.841e-7
-1.280, -1.886e-6
-1.279, -1.294e-6
-1.278, -2.094e-6
-1.277, -2.449e-6
-1.276, -2.350e-6
-1.275, -3.495e-6
-1.274, -2.922e-6
-1.273, -3.899e-6
-1.272, -4.077e-6
-1.271, -3.938e-6
-1.270, -5.053e-6
-1.269, -4.481e-6
-1.268, -5.379e-6
-1.267, -5.774e-6
-1.266, -5.497e-6
-1.265, -6.721e-6
-1.264, -6.070e-6
-1.263, -6.967e-6
-1.262, -7.204e-6
-1.261, -6.938e-6
-1.260, -8.132e-6
-1.259, -7.431e-6
-1.258, -8.161e-6
-1.257, -8.635e-6
-1.256, -8.171e-6
-1.255, -9.266e-6
-1.254, -8.674e-6
-1.253, -9.454e-6
-1.252, -9.661e-6
-1.251, -9.424e-6
-1.250, -1.038e-5
-1.249, -9.611e-6
-1.248, -1.050e-5
-1.247, -1.067e-5
-1.246, -1.046e-5
-1.245, -1.152e-5
-1.244, -1.085e-5
-1.243, -1.163e-5
-1.242, -1.190e-5
-1.241, -1.156e-5
-1.240, -1.259e-5
-1.239, -1.175e-5
-1.238, -1.252e-5
-1.237, -1.267e-5
-1.236, -1.254e-5
-1.235, -1.350e-5
-1.234, -1.276e-5
-1.233, -1.357e-5
-1.232, -1.347e-5
-1.231, -1.329e-5
-1.230, -1.432e-5
-1.229, -1.358e-5
-1.228, -1.436e-5
-1.227, -1.437e-5
-1.226, -1.383e-5
-1.225, -1.488e-5
-1.224, -1.398e-5
-1.223, -1.472e-5
-1.222, -1.488e-5
-1.221, -1.444e-5
-1.220, -1.549e-5
-1.219, -1.472e-5
-1.218, -1.538e-5
-1.217, -1.555e-5
-1.216, -1.519e-5
-1.215, -1.616e-5
-1.214, -1.535e-5
-1.213, -1.601e-5
-1.212, -1.604e-5
-1.211, -1.566e-5
-1.210, -1.667e-5
-1.209, -1.585e-5
-1.208, -1.650e-5
-1.207, -1.651e-5
-1.206, -1.620e-5
-1.205, -1.721e-5
-1.204, -1.621e-5
-1.203, -1.706e-5
-1.202, -1.704e-5
-1.201, -1.679e-5
-1.200, -1.762e-5
-1.199, -1.665e-5
-1.198, -1.752e-5
-1.197, -1.738e-5
-1.196, -1.699e-5
-1.195, -1.792e-5
-1.194, -1.698e-5
-1.193, -1.789e-5
-1.192, -1.781e-5
-1.191, -1.733e-5
-1.190, -1.842e-5
-1.189, -1.729e-5
-1.188, -1.794e-5
-1.187, -1.811e-5
-1.186, -1.751e-5
-1.185, -1.860e-5
-1.184, -1.753e-5
-1.183, -1.817e-5
-1.182, -1.827e-5
-1.181, -1.760e-5
-1.180, -1.872e-5
-1.179, -1.774e-5
-1.178, -1.857e-5
-1.177, -1.848e-5
-1.176, -1.806e-5
-1.175, -1.901e-5
-1.174, -1.808e-5
-1.173, -1.864e-5
-1.172, -1.872e-5
-1.171, -1.822e-5
-1.170, -1.917e-5
-1.169, -1.818e-5
-1.168, -1.882e-5
-1.167, -1.878e-5
-1.166, -1.826e-5
-1.165, -1.932e-5
-1.164, -1.818e-5
-1.163, -1.890e-5
-1.162, -1.883e-5
-1.161, -1.847e-5
-1.160, -1.931e-5
-1.159, -1.825e-5
-1.158, -1.923e-5
-1.157, -1.913e-5
-1.156, -1.842e-5
-1.155, -1.958e-5
-1.154, -1.852e-5
-1.153, -1.925e-5
-1.152, -1.925e-5
-1.151, -1.866e-5
-1.150, -1.970e-5
-1.149, -1.869e-5
-1.148, -1.938e-5
-1.147, -1.921e-5
-1.146, -1.860e-5
-1.145, -1.978e-5
-1.144, -1.866e-5
-1.143, -1.921e-5
-1.142, -1.942e-5
-1.141, -1.882e-5
-1.140, -1.979e-5
-1.139, -1.888e-5
-1.138, -1.948e-5
-1.137, -1.956e-5
-1.136, -1.893e-5
-1.135, -1.980e-5
-1.134, -1.907e-5
-1.133, -1.964e-5
-1.132, -1.963e-5
-1.131, -1.920e-5
-1.130, -2.012e-5
-1.129, -1.900e-5
-1.128, -1.978e-5
-1.127, -1.976e-5
-1.126, -1.933e-5
-1.125, -2.016e-5
-1.124, -1.921e-5
-1.123, -1.972e-5
-1.122, -1.980e-5
-1.121, -1.933e-5
-1.120, -2.019e-5
-1.119, -1.918e-5
-1.118, -1.991e-5
-1.117, -1.982e-5
-1.116, -1.918e-5
-1.115, -2.019e-5
-1.114, -1.933e-5
-1.113, -2.000e-5
-1.112, -1.997e-5
-1.111, -1.943e-5
-1.110, -2.041e-5
-1.109, -1.938e-5
-1.108, -1.999e-5
-1.107, -1.996e-5
-1.106, -1.945e-5
-1.105, -2.039e-5
-1.104, -1.935e-5
-1.103, -2.007e-5
-1.102, -2.007e-5
-1.101, -1.949e-5
-1.100, -2.058e-5
-1.099, -1.941e-5
-1.098, -2.018e-5
-1.097, -2.016e-5
-1.096, -1.958e-5
-1.095, -2.049e-5
-1.094, -1.955e-5
-1.093, -2.013e-5
-1.092, -2.019e-5
-1.091, -1.974e-5
-1.090, -2.054e-5
-1.089, -1.963e-5
-1.088, -2.040e-5
-1.087, -2.046e-5
-1.086, -1.976e-5
-1.085, -2.089e-5
-1.084, -1.969e-5
-1.083, -2.032e-5
-1.082, -2.036e-5
-1.081, -1.999e-5
-1.080, -2.083e-5
-1.079, -1.971e-5
-1.078, -2.039e-5
-1.077, -2.039e-5
-1.076, -2.003e-5
-1.075, -2.101e-5
-1.074, -1.977e-5
-1.073, -2.075e-5
-1.072, -2.071e-5
-1.071, -2.000e-5
-1.070, -2.115e-5
-1.069, -2.015e-5
-1.068, -2.080e-5
-1.067, -2.079e-5
-1.066, -2.021e-5
-1.065, -2.131e-5
-1.064, -2.021e-5
-1.063, -2.079e-5
-1.062, -2.101e-5
-1.061, -2.026e-5
-1.060, -2.140e-5
-1.059, -2.039e-5
-1.058, -2.099e-5
-1.057, -2.096e-5
-1.056, -2.041e-5
-1.055, -2.143e-5
-1.054, -2.043e-5
-1.053, -2.102e-5
-1.052, -2.108e-5
-1.051, -2.079e-5
-1.050, -2.163e-5
-1.049, -2.061e-5
-1.048, -2.115e-5
-1.047, -2.123e-5
-1.046, -2.080e-5
-1.045, -2.163e-5
-1.044, -2.055e-5
-1.043, -2.127e-5
-1.042, -2.133e-5
-1.041, -2.081e-5
-1.040, -2.182e-5
-1.039, -2.082e-5
-1.038, -2.145e-5
-1.037, -2.149e-5
-1.036, -2.092e-5
-1.035, -2.201e-5
-1.034, -2.090e-5
-1.033, -2.173e-5
-1.032, -2.172e-5
-1.031, -2.115e-5
-1.030, -2.209e-5
-1.029, -2.109e-5
-1.028, -2.166e-5
-1.027, -2.192e-5
-1.026, -2.128e-5
-1.025, -2.233e-5
-1.024, -2.141e-5
-1.023, -2.201e-5
-1.022, -2.220e-5
-1.021, -2.167e-5
-1.020, -2.259e-5
-1.019, -2.184e-5
-1.018, -2.230e-5
-1.017, -2.243e-5
-1.016, -2.174e-5
-1.015, -2.296e-5
-1.014, -2.220e-5
-1.013, -2.256e-5
-1.012, -2.259e-5
-1.011, -2.221e-5
-1.010, -2.314e-5
-1.009, -2.218e-5
-1.008, -2.294e-5
-1.007, -2.305e-5
-1.006, -2.245e-5
-1.005, -2.345e-5
-1.004, -2.255e-5
-1.003, -2.328e-5
-1.002, -2.331e-5
-1.001, -2.294e-5
