Apr. 3, 2025   02:48:02
Linear Sweep Voltammetry
File: c:/users/guazh/data/banditlqround7_x0exp518_r20/2025-03-28-exp1025\regeneratedgce-2025-04-03t02_43_25-lsvinkoh\regeneratedgce_lsv_50mvs_efin_-1900mv.bin
Data Source:  Experiment
Instrument Model:  CHI760E
Header: LSV ran at 50 mVs with Efin at -1900mV
Note: 

Init E (V) = -0.6
Final E (V) = -1.9
Scan Rate (V/s) = 0.05
Sample Interval (V) = 0.001
Quiet Time (sec) = 2
Sensitivity (A/V) = 1e-4
Comp R (ohm) = 2.0

Results:

Channel 1:
Ep = -1.796V
ip = 9.909e-4A
Ah = 7.926e-4C

Potential/V, Current/A

-0.600, 1.176e-7
-0.601, 2.682e-7
-0.602, 3.028e-7
-0.603, 3.187e-7
-0.604, 3.319e-7
-0.605, 3.427e-7
-0.606, 3.523e-7
-0.607, 3.578e-7
-0.608, 3.670e-7
-0.609, 3.748e-7
-0.610, 3.825e-7
-0.611, 3.878e-7
-0.612, 3.944e-7
-0.613, 3.990e-7
-0.614, 4.076e-7
-0.615, 4.154e-7
-0.616, 4.188e-7
-0.617, 4.243e-7
-0.618, 4.269e-7
-0.619, 4.323e-7
-0.620, 4.390e-7
-0.621, 4.435e-7
-0.622, 4.481e-7
-0.623, 4.504e-7
-0.624, 4.545e-7
-0.625, 4.628e-7
-0.626, 4.651e-7
-0.627, 4.679e-7
-0.628, 4.725e-7
-0.629, 4.770e-7
-0.630, 4.833e-7
-0.631, 4.862e-7
-0.632, 4.891e-7
-0.633, 4.943e-7
-0.634, 4.975e-7
-0.635, 5.029e-7
-0.636, 5.058e-7
-0.637, 5.077e-7
-0.638, 5.124e-7
-0.639, 5.153e-7
-0.640, 5.209e-7
-0.641, 5.251e-7
-0.642, 5.265e-7
-0.643, 5.310e-7
-0.644, 5.347e-7
-0.645, 5.373e-7
-0.646, 5.418e-7
-0.647, 5.434e-7
-0.648, 5.463e-7
-0.649, 5.518e-7
-0.650, 5.558e-7
-0.651, 5.584e-7
-0.652, 5.603e-7
-0.653, 5.644e-7
-0.654, 5.664e-7
-0.655, 5.713e-7
-0.656, 5.742e-7
-0.657, 5.784e-7
-0.658, 5.787e-7
-0.659, 5.846e-7
-0.660, 5.892e-7
-0.661, 5.896e-7
-0.662, 5.915e-7
-0.663, 5.951e-7
-0.664, 5.976e-7
-0.665, 6.037e-7
-0.666, 6.076e-7
-0.667, 6.083e-7
-0.668, 6.102e-7
-0.669, 6.131e-7
-0.670, 6.181e-7
-0.671, 6.204e-7
-0.672, 6.227e-7
-0.673, 6.239e-7
-0.674, 6.276e-7
-0.675, 6.318e-7
-0.676, 6.337e-7
-0.677, 6.350e-7
-0.678, 6.393e-7
-0.679, 6.421e-7
-0.680, 6.462e-7
-0.681, 6.495e-7
-0.682, 6.506e-7
-0.683, 6.536e-7
-0.684, 6.568e-7
-0.685, 6.603e-7
-0.686, 6.632e-7
-0.687, 6.640e-7
-0.688, 6.663e-7
-0.689, 6.703e-7
-0.690, 6.736e-7
-0.691, 6.761e-7
-0.692, 6.785e-7
-0.693, 6.786e-7
-0.694, 6.844e-7
-0.695, 6.881e-7
-0.696, 6.878e-7
-0.697, 6.921e-7
-0.698, 6.924e-7
-0.699, 6.965e-7
-0.700, 7.006e-7
-0.701, 7.014e-7
-0.702, 7.040e-7
-0.703, 7.062e-7
-0.704, 7.099e-7
-0.705, 7.149e-7
-0.706, 7.140e-7
-0.707, 7.182e-7
-0.708, 7.199e-7
-0.709, 7.231e-7
-0.710, 7.279e-7
-0.711, 7.295e-7
-0.712, 7.305e-7
-0.713, 7.323e-7
-0.714, 7.353e-7
-0.715, 7.401e-7
-0.716, 7.408e-7
-0.717, 7.440e-7
-0.718, 7.471e-7
-0.719, 7.507e-7
-0.720, 7.525e-7
-0.721, 7.544e-7
-0.722, 7.548e-7
-0.723, 7.573e-7
-0.724, 7.613e-7
-0.725, 7.640e-7
-0.726, 7.662e-7
-0.727, 7.667e-7
-0.728, 7.690e-7
-0.729, 7.743e-7
-0.730, 7.766e-7
-0.731, 7.789e-7
-0.732, 7.808e-7
-0.733, 7.833e-7
-0.734, 7.871e-7
-0.735, 7.913e-7
-0.736, 7.902e-7
-0.737, 7.938e-7
-0.738, 7.957e-7
-0.739, 7.995e-7
-0.740, 8.037e-7
-0.741, 8.053e-7
-0.742, 8.083e-7
-0.743, 8.110e-7
-0.744, 8.125e-7
-0.745, 8.192e-7
-0.746, 8.185e-7
-0.747, 8.216e-7
-0.748, 8.224e-7
-0.749, 8.261e-7
-0.750, 8.304e-7
-0.751, 8.294e-7
-0.752, 8.319e-7
-0.753, 8.349e-7
-0.754, 8.376e-7
-0.755, 8.424e-7
-0.756, 8.466e-7
-0.757, 8.481e-7
-0.758, 8.482e-7
-0.759, 8.505e-7
-0.760, 8.541e-7
-0.761, 8.561e-7
-0.762, 8.579e-7
-0.763, 8.596e-7
-0.764, 8.640e-7
-0.765, 8.678e-7
-0.766, 8.701e-7
-0.767, 8.712e-7
-0.768, 8.733e-7
-0.769, 8.775e-7
-0.770, 8.807e-7
-0.771, 8.809e-7
-0.772, 8.829e-7
-0.773, 8.858e-7
-0.774, 8.900e-7
-0.775, 8.947e-7
-0.776, 8.938e-7
-0.777, 8.981e-7
-0.778, 8.981e-7
-0.779, 9.037e-7
-0.780, 9.063e-7
-0.781, 9.083e-7
-0.782, 9.106e-7
-0.783, 9.109e-7
-0.784, 9.137e-7
-0.785, 9.184e-7
-0.786, 9.182e-7
-0.787, 9.198e-7
-0.788, 9.224e-7
-0.789, 9.242e-7
-0.790, 9.302e-7
-0.791, 9.307e-7
-0.792, 9.326e-7
-0.793, 9.354e-7
-0.794, 9.380e-7
-0.795, 9.422e-7
-0.796, 9.427e-7
-0.797, 9.445e-7
-0.798, 9.478e-7
-0.799, 9.519e-7
-0.800, 9.551e-7
-0.801, 9.566e-7
-0.802, 9.579e-7
-0.803, 9.609e-7
-0.804, 9.648e-7
-0.805, 9.660e-7
-0.806, 9.679e-7
-0.807, 9.699e-7
-0.808, 9.714e-7
-0.809, 9.759e-7
-0.810, 9.787e-7
-0.811, 9.801e-7
-0.812, 9.827e-7
-0.813, 9.836e-7
-0.814, 9.884e-7
-0.815, 9.911e-7
-0.816, 9.932e-7
-0.817, 9.959e-7
-0.818, 9.970e-7
-0.819, 1.006e-6
-0.820, 1.010e-6
-0.821, 1.007e-6
-0.822, 1.009e-6
-0.823, 1.010e-6
-0.824, 1.015e-6
-0.825, 1.020e-6
-0.826, 1.021e-6
-0.827, 1.023e-6
-0.828, 1.025e-6
-0.829, 1.028e-6
-0.830, 1.032e-6
-0.831, 1.034e-6
-0.832, 1.037e-6
-0.833, 1.040e-6
-0.834, 1.041e-6
-0.835, 1.045e-6
-0.836, 1.048e-6
-0.837, 1.049e-6
-0.838, 1.054e-6
-0.839, 1.056e-6
-0.840, 1.059e-6
-0.841, 1.062e-6
-0.842, 1.063e-6
-0.843, 1.065e-6
-0.844, 1.071e-6
-0.845, 1.075e-6
-0.846, 1.076e-6
-0.847, 1.077e-6
-0.848, 1.080e-6
-0.849, 1.083e-6
-0.850, 1.086e-6
-0.851, 1.087e-6
-0.852, 1.091e-6
-0.853, 1.092e-6
-0.854, 1.097e-6
-0.855, 1.101e-6
-0.856, 1.103e-6
-0.857, 1.104e-6
-0.858, 1.105e-6
-0.859, 1.111e-6
-0.860, 1.113e-6
-0.861, 1.113e-6
-0.862, 1.115e-6
-0.863, 1.117e-6
-0.864, 1.121e-6
-0.865, 1.125e-6
-0.866, 1.125e-6
-0.867, 1.128e-6
-0.868, 1.130e-6
-0.869, 1.134e-6
-0.870, 1.140e-6
-0.871, 1.141e-6
-0.872, 1.142e-6
-0.873, 1.147e-6
-0.874, 1.149e-6
-0.875, 1.154e-6
-0.876, 1.154e-6
-0.877, 1.155e-6
-0.878, 1.158e-6
-0.879, 1.163e-6
-0.880, 1.166e-6
-0.881, 1.168e-6
-0.882, 1.171e-6
-0.883, 1.175e-6
-0.884, 1.179e-6
-0.885, 1.181e-6
-0.886, 1.183e-6
-0.887, 1.187e-6
-0.888, 1.188e-6
-0.889, 1.192e-6
-0.890, 1.195e-6
-0.891, 1.197e-6
-0.892, 1.200e-6
-0.893, 1.202e-6
-0.894, 1.207e-6
-0.895, 1.212e-6
-0.896, 1.213e-6
-0.897, 1.215e-6
-0.898, 1.218e-6
-0.899, 1.222e-6
-0.900, 1.226e-6
-0.901, 1.226e-6
-0.902, 1.231e-6
-0.903, 1.233e-6
-0.904, 1.237e-6
-0.905, 1.240e-6
-0.906, 1.242e-6
-0.907, 1.244e-6
-0.908, 1.246e-6
-0.909, 1.251e-6
-0.910, 1.255e-6
-0.911, 1.256e-6
-0.912, 1.256e-6
-0.913, 1.261e-6
-0.914, 1.263e-6
-0.915, 1.268e-6
-0.916, 1.270e-6
-0.917, 1.271e-6
-0.918, 1.276e-6
-0.919, 1.280e-6
-0.920, 1.282e-6
-0.921, 1.284e-6
-0.922, 1.287e-6
-0.923, 1.291e-6
-0.924, 1.296e-6
-0.925, 1.298e-6
-0.926, 1.301e-6
-0.927, 1.303e-6
-0.928, 1.306e-6
-0.929, 1.315e-6
-0.930, 1.316e-6
-0.931, 1.317e-6
-0.932, 1.320e-6
-0.933, 1.322e-6
-0.934, 1.328e-6
-0.935, 1.331e-6
-0.936, 1.332e-6
-0.937, 1.337e-6
-0.938, 1.339e-6
-0.939, 1.343e-6
-0.940, 1.346e-6
-0.941, 1.347e-6
-0.942, 1.351e-6
-0.943, 1.354e-6
-0.944, 1.359e-6
-0.945, 1.364e-6
-0.946, 1.363e-6
-0.947, 1.367e-6
-0.948, 1.371e-6
-0.949, 1.375e-6
-0.950, 1.378e-6
-0.951, 1.378e-6
-0.952, 1.381e-6
-0.953, 1.385e-6
-0.954, 1.389e-6
-0.955, 1.393e-6
-0.956, 1.396e-6
-0.957, 1.397e-6
-0.958, 1.403e-6
-0.959, 1.407e-6
-0.960, 1.409e-6
-0.961, 1.413e-6
-0.962, 1.416e-6
-0.963, 1.421e-6
-0.964, 1.426e-6
-0.965, 1.426e-6
-0.966, 1.428e-6
-0.967, 1.431e-6
-0.968, 1.434e-6
-0.969, 1.440e-6
-0.970, 1.441e-6
-0.971, 1.443e-6
-0.972, 1.448e-6
-0.973, 1.453e-6
-0.974, 1.457e-6
-0.975, 1.459e-6
-0.976, 1.461e-6
-0.977, 1.465e-6
-0.978, 1.468e-6
-0.979, 1.473e-6
-0.980, 1.476e-6
-0.981, 1.478e-6
-0.982, 1.482e-6
-0.983, 1.486e-6
-0.984, 1.494e-6
-0.985, 1.497e-6
-0.986, 1.499e-6
-0.987, 1.502e-6
-0.988, 1.507e-6
-0.989, 1.510e-6
-0.990, 1.515e-6
-0.991, 1.516e-6
-0.992, 1.525e-6
-0.993, 1.531e-6
-0.994, 1.537e-6
-0.995, 1.539e-6
-0.996, 1.540e-6
-0.997, 1.543e-6
-0.998, 1.547e-6
-0.999, 1.553e-6
-1.000, 1.557e-6
-1.001, 1.562e-6
-1.002, 1.563e-6
-1.003, 1.566e-6
-1.004, 1.572e-6
-1.005, 1.573e-6
-1.006, 1.577e-6
-1.007, 1.582e-6
-1.008, 1.585e-6
-1.009, 1.590e-6
-1.010, 1.591e-6
-1.011, 1.590e-6
-1.012, 1.593e-6
-1.013, 1.598e-6
-1.014, 1.604e-6
-1.015, 1.608e-6
-1.016, 1.610e-6
-1.017, 1.617e-6
-1.018, 1.626e-6
-1.019, 1.636e-6
-1.020, 1.635e-6
-1.021, 1.635e-6
-1.022, 1.642e-6
-1.023, 1.645e-6
-1.024, 1.652e-6
-1.025, 1.655e-6
-1.026, 1.655e-6
-1.027, 1.658e-6
-1.028, 1.666e-6
-1.029, 1.670e-6
-1.030, 1.675e-6
-1.031, 1.677e-6
-1.032, 1.677e-6
-1.033, 1.683e-6
-1.034, 1.690e-6
-1.035, 1.693e-6
-1.036, 1.695e-6
-1.037, 1.699e-6
-1.038, 1.703e-6
-1.039, 1.708e-6
-1.040, 1.709e-6
-1.041, 1.709e-6
-1.042, 1.711e-6
-1.043, 1.718e-6
-1.044, 1.722e-6
-1.045, 1.725e-6
-1.046, 1.730e-6
-1.047, 1.731e-6
-1.048, 1.734e-6
-1.049, 1.743e-6
-1.050, 1.745e-6
-1.051, 1.750e-6
-1.052, 1.752e-6
-1.053, 1.754e-6
-1.054, 1.759e-6
-1.055, 1.765e-6
-1.056, 1.770e-6
-1.057, 1.775e-6
-1.058, 1.779e-6
-1.059, 1.785e-6
-1.060, 1.787e-6
-1.061, 1.788e-6
-1.062, 1.794e-6
-1.063, 1.799e-6
-1.064, 1.807e-6
-1.065, 1.809e-6
-1.066, 1.808e-6
-1.067, 1.812e-6
-1.068, 1.819e-6
-1.069, 1.825e-6
-1.070, 1.830e-6
-1.071, 1.831e-6
-1.072, 1.837e-6
-1.073, 1.843e-6
-1.074, 1.846e-6
-1.075, 1.851e-6
-1.076, 1.853e-6
-1.077, 1.855e-6
-1.078, 1.862e-6
-1.079, 1.869e-6
-1.080, 1.873e-6
-1.081, 1.874e-6
-1.082, 1.872e-6
-1.083, 1.876e-6
-1.084, 1.884e-6
-1.085, 1.889e-6
-1.086, 1.895e-6
-1.087, 1.893e-6
-1.088, 1.899e-6
-1.089, 1.902e-6
-1.090, 1.902e-6
-1.091, 1.907e-6
-1.092, 1.910e-6
-1.093, 1.916e-6
-1.094, 1.921e-6
-1.095, 1.921e-6
-1.096, 1.924e-6
-1.097, 1.929e-6
-1.098, 1.936e-6
-1.099, 1.944e-6
-1.100, 1.945e-6
-1.101, 1.950e-6
-1.102, 1.955e-6
-1.103, 1.958e-6
-1.104, 1.965e-6
-1.105, 1.967e-6
-1.106, 1.970e-6
-1.107, 1.973e-6
-1.108, 1.978e-6
-1.109, 1.985e-6
-1.110, 1.988e-6
-1.111, 1.989e-6
-1.112, 1.992e-6
-1.113, 1.999e-6
-1.114, 2.001e-6
-1.115, 2.004e-6
-1.116, 2.010e-6
-1.117, 2.014e-6
-1.118, 2.015e-6
-1.119, 2.018e-6
-1.120, 2.022e-6
-1.121, 2.028e-6
-1.122, 2.030e-6
-1.123, 2.035e-6
-1.124, 2.041e-6
-1.125, 2.043e-6
-1.126, 2.045e-6
-1.127, 2.043e-6
-1.128, 2.046e-6
-1.129, 2.059e-6
-1.130, 2.060e-6
-1.131, 2.060e-6
-1.132, 2.066e-6
-1.133, 2.068e-6
-1.134, 2.075e-6
-1.135, 2.077e-6
-1.136, 2.081e-6
-1.137, 2.083e-6
-1.138, 2.085e-6
-1.139, 2.089e-6
-1.140, 2.092e-6
-1.141, 2.094e-6
-1.142, 2.096e-6
-1.143, 2.101e-6
-1.144, 2.102e-6
-1.145, 2.099e-6
-1.146, 2.100e-6
-1.147, 2.105e-6
-1.148, 2.107e-6
-1.149, 2.113e-6
-1.150, 2.117e-6
-1.151, 2.124e-6
-1.152, 2.133e-6
-1.153, 2.140e-6
-1.154, 2.142e-6
-1.155, 2.136e-6
-1.156, 2.137e-6
-1.157, 2.142e-6
-1.158, 2.143e-6
-1.159, 2.148e-6
-1.160, 2.149e-6
-1.161, 2.152e-6
-1.162, 2.151e-6
-1.163, 2.158e-6
-1.164, 2.159e-6
-1.165, 2.161e-6
-1.166, 2.166e-6
-1.167, 2.171e-6
-1.168, 2.179e-6
-1.169, 2.181e-6
-1.170, 2.183e-6
-1.171, 2.189e-6
-1.172, 2.197e-6
-1.173, 2.202e-6
-1.174, 2.206e-6
-1.175, 2.213e-6
-1.176, 2.211e-6
-1.177, 2.207e-6
-1.178, 2.221e-6
-1.179, 2.223e-6
-1.180, 2.221e-6
-1.181, 2.221e-6
-1.182, 2.223e-6
-1.183, 2.226e-6
-1.184, 2.230e-6
-1.185, 2.232e-6
-1.186, 2.235e-6
-1.187, 2.239e-6
-1.188, 2.239e-6
-1.189, 2.241e-6
-1.190, 2.246e-6
-1.191, 2.260e-6
-1.192, 2.280e-6
-1.193, 2.283e-6
-1.194, 2.269e-6
-1.195, 2.267e-6
-1.196, 2.271e-6
-1.197, 2.285e-6
-1.198, 2.281e-6
-1.199, 2.279e-6
-1.200, 2.276e-6
-1.201, 2.284e-6
-1.202, 2.283e-6
-1.203, 2.284e-6
-1.204, 2.284e-6
-1.205, 2.287e-6
-1.206, 2.298e-6
-1.207, 2.301e-6
-1.208, 2.305e-6
-1.209, 2.302e-6
-1.210, 2.298e-6
-1.211, 2.309e-6
-1.212, 2.326e-6
-1.213, 2.335e-6
-1.214, 2.340e-6
-1.215, 2.349e-6
-1.216, 2.335e-6
-1.217, 2.335e-6
-1.218, 2.353e-6
-1.219, 2.359e-6
-1.220, 2.350e-6
-1.221, 2.343e-6
-1.222, 2.337e-6
-1.223, 2.342e-6
-1.224, 2.354e-6
-1.225, 2.363e-6
-1.226, 2.359e-6
-1.227, 2.361e-6
-1.228, 2.374e-6
-1.229, 2.379e-6
-1.230, 2.368e-6
-1.231, 2.368e-6
-1.232, 2.375e-6
-1.233, 2.373e-6
-1.234, 2.370e-6
-1.235, 2.367e-6
-1.236, 2.374e-6
-1.237, 2.379e-6
-1.238, 2.374e-6
-1.239, 2.379e-6
-1.240, 2.388e-6
-1.241, 2.399e-6
-1.242, 2.409e-6
-1.243, 2.436e-6
-1.244, 2.455e-6
-1.245, 2.436e-6
-1.246, 2.428e-6
-1.247, 2.428e-6
-1.248, 2.460e-6
-1.249, 2.474e-6
-1.250, 2.480e-6
-1.251, 2.479e-6
-1.252, 2.502e-6
-1.253, 2.506e-6
-1.254, 2.497e-6
-1.255, 2.482e-6
-1.256, 2.481e-6
-1.257, 2.472e-6
-1.258, 2.476e-6
-1.259, 2.486e-6
-1.260, 2.489e-6
-1.261, 2.482e-6
-1.262, 2.455e-6
-1.263, 2.456e-6
-1.264, 2.469e-6
-1.265, 2.484e-6
-1.266, 2.480e-6
-1.267, 2.478e-6
-1.268, 2.483e-6
-1.269, 2.493e-6
-1.270, 2.491e-6
-1.271, 2.491e-6
-1.272, 2.504e-6
-1.273, 2.496e-6
-1.274, 2.515e-6
-1.275, 2.524e-6
-1.276, 2.497e-6
-1.277, 2.498e-6
-1.278, 2.492e-6
-1.279, 2.489e-6
-1.280, 2.489e-6
-1.281, 2.491e-6
-1.282, 2.492e-6
-1.283, 2.503e-6
-1.284, 2.513e-6
-1.285, 2.507e-6
-1.286, 2.504e-6
-1.287, 2.508e-6
-1.288, 2.512e-6
-1.289, 2.525e-6
-1.290, 2.530e-6
-1.291, 2.535e-6
-1.292, 2.548e-6
-1.293, 2.547e-6
-1.294, 2.551e-6
-1.295, 2.540e-6
-1.296, 2.544e-6
-1.297, 2.552e-6
-1.298, 2.555e-6
-1.299, 2.557e-6
-1.300, 2.570e-6
-1.301, 2.562e-6
-1.302, 2.559e-6
-1.303, 2.564e-6
-1.304, 2.568e-6
-1.305, 2.566e-6
-1.306, 2.566e-6
-1.307, 2.570e-6
-1.308, 2.579e-6
-1.309, 2.587e-6
-1.310, 2.599e-6
-1.311, 2.592e-6
-1.312, 2.579e-6
-1.313, 2.591e-6
-1.314, 2.601e-6
-1.315, 2.602e-6
-1.316, 2.604e-6
-1.317, 2.616e-6
-1.318, 2.618e-6
-1.319, 2.633e-6
-1.320, 2.643e-6
-1.321, 2.654e-6
-1.322, 2.661e-6
-1.323, 2.664e-6
-1.324, 2.669e-6
-1.325, 2.676e-6
-1.326, 2.670e-6
-1.327, 2.685e-6
-1.328, 2.702e-6
-1.329, 2.686e-6
-1.330, 2.676e-6
-1.331, 2.688e-6
-1.332, 2.690e-6
-1.333, 2.695e-6
-1.334, 2.707e-6
-1.335, 2.699e-6
-1.336, 2.692e-6
-1.337, 2.702e-6
-1.338, 2.705e-6
-1.339, 2.719e-6
-1.340, 2.721e-6
-1.341, 2.716e-6
-1.342, 2.729e-6
-1.343, 2.725e-6
-1.344, 2.725e-6
-1.345, 2.726e-6
-1.346, 2.726e-6
-1.347, 2.748e-6
-1.348, 2.763e-6
-1.349, 2.760e-6
-1.350, 2.781e-6
-1.351, 2.777e-6
-1.352, 2.769e-6
-1.353, 2.773e-6
-1.354, 2.789e-6
-1.355, 2.794e-6
-1.356, 2.792e-6
-1.357, 2.782e-6
-1.358, 2.776e-6
-1.359, 2.774e-6
-1.360, 2.776e-6
-1.361, 2.786e-6
-1.362, 2.778e-6
-1.363, 2.807e-6
-1.364, 2.801e-6
-1.365, 2.789e-6
-1.366, 2.794e-6
-1.367, 2.807e-6
-1.368, 2.812e-6
-1.369, 2.814e-6
-1.370, 2.816e-6
-1.371, 2.820e-6
-1.372, 2.828e-6
-1.373, 2.839e-6
-1.374, 2.860e-6
-1.375, 2.888e-6
-1.376, 2.884e-6
-1.377, 2.876e-6
-1.378, 2.875e-6
-1.379, 2.876e-6
-1.380, 2.890e-6
-1.381, 2.888e-6
-1.382, 2.896e-6
-1.383, 2.899e-6
-1.384, 2.902e-6
-1.385, 2.904e-6
-1.386, 2.907e-6
-1.387, 2.915e-6
-1.388, 2.932e-6
-1.389, 2.936e-6
-1.390, 2.927e-6
-1.391, 2.921e-6
-1.392, 2.932e-6
-1.393, 2.942e-6
-1.394, 2.941e-6
-1.395, 2.953e-6
-1.396, 2.962e-6
-1.397, 2.964e-6
-1.398, 2.978e-6
-1.399, 3.049e-6
-1.400, 3.034e-6
-1.401, 2.970e-6
-1.402, 2.970e-6
-1.403, 2.981e-6
-1.404, 2.989e-6
-1.405, 2.989e-6
-1.406, 2.993e-6
-1.407, 3.001e-6
-1.408, 3.010e-6
-1.409, 3.022e-6
-1.410, 3.033e-6
-1.411, 3.033e-6
-1.412, 3.037e-6
-1.413, 3.047e-6
-1.414, 3.052e-6
-1.415, 3.055e-6
-1.416, 3.062e-6
-1.417, 3.071e-6
-1.418, 3.078e-6
-1.419, 3.093e-6
-1.420, 3.098e-6
-1.421, 3.103e-6
-1.422, 3.110e-6
-1.423, 3.119e-6
-1.424, 3.123e-6
-1.425, 3.128e-6
-1.426, 3.145e-6
-1.427, 3.158e-6
-1.428, 3.176e-6
-1.429, 3.185e-6
-1.430, 3.194e-6
-1.431, 3.204e-6
-1.432, 3.217e-6
-1.433, 3.238e-6
-1.434, 3.223e-6
-1.435, 3.231e-6
-1.436, 3.245e-6
-1.437, 3.261e-6
-1.438, 3.269e-6
-1.439, 3.303e-6
-1.440, 3.287e-6
-1.441, 3.301e-6
-1.442, 3.296e-6
-1.443, 3.301e-6
-1.444, 3.317e-6
-1.445, 3.323e-6
-1.446, 3.339e-6
-1.447, 3.358e-6
-1.448, 3.373e-6
-1.449, 3.389e-6
-1.450, 3.405e-6
-1.451, 3.414e-6
-1.452, 3.411e-6
-1.453, 3.420e-6
-1.454, 3.431e-6
-1.455, 3.439e-6
-1.456, 3.452e-6
-1.457, 3.475e-6
-1.458, 3.488e-6
-1.459, 3.494e-6
-1.460, 3.500e-6
-1.461, 3.509e-6
-1.462, 3.521e-6
-1.463, 3.537e-6
-1.464, 3.568e-6
-1.465, 3.575e-6
-1.466, 3.596e-6
-1.467, 3.600e-6
-1.468, 3.602e-6
-1.469, 3.605e-6
-1.470, 3.618e-6
-1.471, 3.626e-6
-1.472, 3.643e-6
-1.473, 3.667e-6
-1.474, 3.681e-6
-1.475, 3.692e-6
-1.476, 3.712e-6
-1.477, 3.725e-6
-1.478, 3.741e-6
-1.479, 3.753e-6
-1.480, 3.772e-6
-1.481, 3.795e-6
-1.482, 3.810e-6
-1.483, 3.823e-6
-1.484, 3.841e-6
-1.485, 3.862e-6
-1.486, 3.908e-6
-1.487, 3.911e-6
-1.488, 3.924e-6
-1.489, 3.936e-6
-1.490, 3.948e-6
-1.491, 3.976e-6
-1.492, 4.007e-6
-1.493, 4.023e-6
-1.494, 4.043e-6
-1.495, 4.044e-6
-1.496, 4.054e-6
-1.497, 4.080e-6
-1.498, 4.098e-6
-1.499, 4.117e-6
-1.500, 4.153e-6
-1.501, 4.188e-6
-1.502, 4.200e-6
-1.503, 4.215e-6
-1.504, 4.233e-6
-1.505, 4.255e-6
-1.506, 4.279e-6
-1.507, 4.297e-6
-1.508, 4.317e-6
-1.509, 4.340e-6
-1.510, 4.368e-6
-1.511, 4.393e-6
-1.512, 4.423e-6
-1.513, 4.461e-6
-1.514, 4.495e-6
-1.515, 4.511e-6
-1.516, 4.560e-6
-1.517, 4.571e-6
-1.518, 4.579e-6
-1.519, 4.598e-6
-1.520, 4.626e-6
-1.521, 4.655e-6
-1.522, 4.684e-6
-1.523, 4.718e-6
-1.524, 4.752e-6
-1.525, 4.792e-6
-1.526, 4.812e-6
-1.527, 4.836e-6
-1.528, 4.869e-6
-1.529, 4.896e-6
-1.530, 4.925e-6
-1.531, 4.962e-6
-1.532, 4.990e-6
-1.533, 5.030e-6
-1.534, 5.077e-6
-1.535, 5.110e-6
-1.536, 5.151e-6
-1.537, 5.193e-6
-1.538, 5.231e-6
-1.539, 5.276e-6
-1.540, 5.311e-6
-1.541, 5.364e-6
-1.542, 5.412e-6
-1.543, 5.440e-6
-1.544, 5.479e-6
-1.545, 5.512e-6
-1.546, 5.555e-6
-1.547, 5.596e-6
-1.548, 5.645e-6
-1.549, 5.707e-6
-1.550, 5.779e-6
-1.551, 5.808e-6
-1.552, 5.835e-6
-1.553, 5.877e-6
-1.554, 5.907e-6
-1.555, 5.955e-6
-1.556, 5.999e-6
-1.557, 6.040e-6
-1.558, 6.087e-6
-1.559, 6.146e-6
-1.560, 6.204e-6
-1.561, 6.266e-6
-1.562, 6.333e-6
-1.563, 6.403e-6
-1.564, 6.431e-6
-1.565, 6.491e-6
-1.566, 6.547e-6
-1.567, 6.609e-6
-1.568, 6.665e-6
-1.569, 6.711e-6
-1.570, 6.775e-6
-1.571, 6.838e-6
-1.572, 6.905e-6
-1.573, 6.983e-6
-1.574, 7.058e-6
-1.575, 7.126e-6
-1.576, 7.191e-6
-1.577, 7.263e-6
-1.578, 7.337e-6
-1.579, 7.397e-6
-1.580, 7.468e-6
-1.581, 7.552e-6
-1.582, 7.646e-6
-1.583, 7.728e-6
-1.584, 7.817e-6
-1.585, 7.920e-6
-1.586, 8.008e-6
-1.587, 8.092e-6
-1.588, 8.200e-6
-1.589, 8.361e-6
-1.590, 8.472e-6
-1.591, 8.555e-6
-1.592, 8.633e-6
-1.593, 8.712e-6
-1.594, 8.836e-6
-1.595, 8.947e-6
-1.596, 9.048e-6
-1.597, 9.125e-6
-1.598, 9.237e-6
-1.599, 9.321e-6
-1.600, 9.394e-6
-1.601, 9.516e-6
-1.602, 9.663e-6
-1.603, 9.778e-6
-1.604, 9.896e-6
-1.605, 1.003e-5
-1.606, 1.015e-5
-1.607, 1.026e-5
-1.608, 1.036e-5
-1.609, 1.048e-5
-1.610, 1.060e-5
-1.611, 1.073e-5
-1.612, 1.092e-5
-1.613, 1.111e-5
-1.614, 1.126e-5
-1.615, 1.137e-5
-1.616, 1.151e-5
-1.617, 1.170e-5
-1.618, 1.184e-5
-1.619, 1.201e-5
-1.620, 1.214e-5
-1.621, 1.228e-5
-1.622, 1.243e-5
-1.623, 1.262e-5
-1.624, 1.281e-5
-1.625, 1.302e-5
-1.626, 1.320e-5
-1.627, 1.340e-5
-1.628, 1.358e-5
-1.629, 1.383e-5
-1.630, 1.408e-5
-1.631, 1.424e-5
-1.632, 1.446e-5
-1.633, 1.468e-5
-1.634, 1.498e-5
-1.635, 1.525e-5
-1.636, 1.549e-5
-1.637, 1.582e-5
-1.638, 1.626e-5
-1.639, 1.664e-5
-1.640, 1.695e-5
-1.641, 1.719e-5
-1.642, 1.750e-5
-1.643, 1.776e-5
-1.644, 1.812e-5
-1.645, 1.852e-5
-1.646, 1.882e-5
-1.647, 1.898e-5
-1.648, 1.931e-5
-1.649, 1.966e-5
-1.650, 2.005e-5
-1.651, 2.045e-5
-1.652, 2.086e-5
-1.653, 2.131e-5
-1.654, 2.171e-5
-1.655, 2.201e-5
-1.656, 2.228e-5
-1.657, 2.275e-5
-1.658, 2.335e-5
-1.659, 2.399e-5
-1.660, 2.436e-5
-1.661, 2.477e-5
-1.662, 2.534e-5
-1.663, 2.596e-5
-1.664, 2.655e-5
-1.665, 2.716e-5
-1.666, 2.787e-5
-1.667, 2.863e-5
-1.668, 2.933e-5
-1.669, 3.018e-5
-1.670, 3.107e-5
-1.671, 3.193e-5
-1.672, 3.276e-5
-1.673, 3.347e-5
-1.674, 3.422e-5
-1.675, 3.514e-5
-1.676, 3.615e-5
-1.677, 3.709e-5
-1.678, 3.777e-5
-1.679, 3.882e-5
-1.680, 4.011e-5
-1.681, 4.134e-5
-1.682, 4.280e-5
-1.683, 4.422e-5
-1.684, 4.560e-5
-1.685, 4.713e-5
-1.686, 4.871e-5
-1.687, 5.039e-5
-1.688, 5.150e-5
-1.689, 5.265e-5
-1.690, 5.448e-5
-1.691, 5.627e-5
-1.692, 5.823e-5
-1.693, 6.026e-5
-1.694, 6.215e-5
-1.695, 6.425e-5
-1.696, 6.649e-5
-1.697, 6.874e-5
-1.698, 7.108e-5
-1.699, 7.338e-5
-1.700, 7.607e-5
-1.701, 7.852e-5
-1.702, 8.091e-5
-1.703, 8.343e-5
-1.704, 8.622e-5
-1.705, 8.939e-5
-1.706, 9.247e-5
-1.707, 9.574e-5
-1.708, 9.911e-5
-1.709, 1.025e-4
-1.710, 1.058e-4
-1.711, 1.095e-4
-1.712, 1.136e-4
-1.713, 1.176e-4
-1.714, 1.222e-4
-1.715, 1.270e-4
-1.716, 1.314e-4
-1.717, 1.359e-4
-1.718, 1.399e-4
-1.719, 1.440e-4
-1.720, 1.485e-4
-1.721, 1.535e-4
-1.722, 1.589e-4
-1.723, 1.640e-4
-1.724, 1.691e-4
-1.725, 1.747e-4
-1.726, 1.806e-4
-1.727, 1.869e-4
-1.728, 1.930e-4
-1.729, 1.994e-4
-1.730, 2.060e-4
-1.731, 2.121e-4
-1.732, 2.185e-4
-1.733, 2.254e-4
-1.734, 2.322e-4
-1.735, 2.396e-4
-1.736, 2.476e-4
-1.737, 2.554e-4
-1.738, 2.630e-4
-1.739, 2.706e-4
-1.740, 2.786e-4
-1.741, 2.867e-4
-1.742, 2.952e-4
-1.743, 3.039e-4
-1.744, 3.118e-4
-1.745, 3.195e-4
-1.746, 3.283e-4
-1.747, 3.375e-4
-1.748, 3.462e-4
-1.749, 3.547e-4
-1.750, 3.635e-4
-1.751, 3.720e-4
-1.752, 3.818e-4
-1.753, 3.918e-4
-1.754, 4.026e-4
-1.755, 4.136e-4
-1.756, 4.246e-4
-1.757, 4.349e-4
-1.758, 4.442e-4
-1.759, 4.544e-4
-1.760, 4.648e-4
-1.761, 4.754e-4
-1.762, 4.864e-4
-1.763, 4.973e-4
-1.764, 5.086e-4
-1.765, 5.199e-4
-1.766, 5.314e-4
-1.767, 5.434e-4
-1.768, 5.562e-4
-1.769, 5.690e-4
-1.770, 5.810e-4
-1.771, 5.932e-4
-1.772, 6.066e-4
-1.773, 6.205e-4
-1.774, 6.346e-4
-1.775, 6.487e-4
-1.776, 6.634e-4
-1.777, 6.791e-4
-1.778, 6.947e-4
-1.779, 7.106e-4
-1.780, 7.272e-4
-1.781, 7.439e-4
-1.782, 7.605e-4
-1.783, 7.778e-4
-1.784, 7.948e-4
-1.785, 8.115e-4
-1.786, 8.291e-4
-1.787, 8.468e-4
-1.788, 8.639e-4
-1.789, 8.820e-4
-1.790, 9.011e-4
-1.791, 9.199e-4
-1.792, 9.389e-4
-1.793, 9.600e-4
-1.794, 9.803e-4
-1.795, 1.001e-3
-1.796, 1.011e-3
-1.797, 1.011e-3
-1.798, 1.011e-3
-1.799, 1.011e-3
-1.800, 1.011e-3
-1.801, 1.011e-3
-1.802, 1.011e-3
-1.803, 1.011e-3
-1.804, 1.011e-3
-1.805, 1.011e-3
-1.806, 1.011e-3
-1.807, 1.011e-3
-1.808, 1.011e-3
-1.809, 1.011e-3
-1.810, 1.011e-3
-1.811, 1.011e-3
-1.812, 1.011e-3
-1.813, 1.011e-3
-1.814, 1.011e-3
-1.815, 1.011e-3
-1.816, 1.011e-3
-1.817, 1.011e-3
-1.818, 1.011e-3
-1.819, 1.011e-3
-1.820, 1.011e-3
-1.821, 1.011e-3
-1.822, 1.011e-3
-1.823, 1.011e-3
-1.824, 1.011e-3
-1.825, 1.011e-3
-1.826, 1.011e-3
-1.827, 1.011e-3
-1.828, 1.011e-3
-1.829, 1.011e-3
-1.830, 1.011e-3
-1.831, 1.011e-3
-1.832, 1.011e-3
-1.833, 1.011e-3
-1.834, 1.011e-3
-1.835, 1.011e-3
-1.836, 1.011e-3
-1.837, 1.011e-3
-1.838, 1.011e-3
-1.839, 1.011e-3
-1.840, 1.011e-3
-1.841, 1.011e-3
-1.842, 1.011e-3
-1.843, 1.011e-3
-1.844, 1.011e-3
-1.845, 1.011e-3
-1.846, 1.011e-3
-1.847, 1.011e-3
-1.848, 1.011e-3
-1.849, 1.011e-3
-1.850, 1.011e-3
-1.851, 1.011e-3
-1.852, 1.011e-3
-1.853, 1.011e-3
-1.854, 1.011e-3
-1.855, 1.011e-3
-1.856, 1.011e-3
-1.857, 1.011e-3
-1.858, 1.011e-3
-1.859, 1.011e-3
-1.860, 1.011e-3
-1.861, 1.011e-3
-1.862, 1.011e-3
-1.863, 1.011e-3
-1.864, 1.011e-3
-1.865, 1.011e-3
-1.866, 1.011e-3
-1.867, 1.011e-3
-1.868, 1.011e-3
-1.869, 1.011e-3
-1.870, 1.011e-3
-1.871, 1.011e-3
-1.872, 1.011e-3
-1.873, 1.011e-3
-1.874, 1.011e-3
-1.875, 1.011e-3
-1.876, 1.011e-3
-1.877, 1.011e-3
-1.878, 1.011e-3
-1.879, 1.011e-3
-1.880, 1.011e-3
-1.881, 1.011e-3
-1.882, 1.011e-3
-1.883, 1.011e-3
-1.884, 1.011e-3
-1.885, 1.011e-3
-1.886, 1.011e-3
-1.887, 1.011e-3
-1.888, 1.011e-3
-1.889, 1.011e-3
-1.890, 1.011e-3
-1.891, 1.011e-3
-1.892, 1.011e-3
-1.893, 1.011e-3
-1.894, 1.011e-3
-1.895, 1.011e-3
-1.896, 1.011e-3
-1.897, 1.011e-3
-1.898, 1.011e-3
-1.899, 1.011e-3
