Sept. 10, 2024   20:50:48
Cyclic Voltammetry
File: c:/users/guazh/data/20240903_batch_252_500/2024-09-03-exp318\exp318-2024-09-10t20_24_14-arkoh\exp318_cv_sr_800mvs_efin_-2000mv.bin
Data Source:  Experiment
Instrument Model:  CHI760E
Header: CV ran at 800 mVs
Note: 

Init E (V) = -1
High E (V) = -1
Low E (V) = -2
Final E (V) = -1
Init P/N = N
Scan Rate (V/s) = 0.8
Segment = 3
Sample Interval (V) = 0.001
Quiet Time (sec) = 2
Sensitivity (A/V) = 0.01
Comp R (ohm) = 2.3

Results:

Channel 1:
Segment 1:

Segment 2:

Segment 3:

Potential/V, Current/A

-1.000, 3.239e-6
-1.001, 3.239e-6
-1.002, 3.239e-6
-1.003, 3.239e-6
-1.004, 3.239e-6
-1.005, 3.239e-6
-1.006, 3.239e-6
-1.007, 3.239e-6
-1.008, 3.239e-6
-1.009, 3.239e-6
-1.010, 3.239e-6
-1.011, 3.239e-6
-1.012, 3.239e-6
-1.013, 3.239e-6
-1.014, 3.239e-6
-1.015, 3.239e-6
-1.016, 3.239e-6
-1.017, 3.239e-6
-1.018, 6.322e-6
-1.019, 3.239e-6
-1.020, 3.239e-6
-1.021, 3.239e-6
-1.022, 3.239e-6
-1.023, 6.322e-6
-1.024, 3.239e-6
-1.025, 6.322e-6
-1.026, 3.239e-6
-1.027, 6.322e-6
-1.028, 3.239e-6
-1.029, 6.322e-6
-1.030, 3.239e-6
-1.031, 3.239e-6
-1.032, 6.322e-6
-1.033, 6.322e-6
-1.034, 3.239e-6
-1.035, 6.322e-6
-1.036, 3.239e-6
-1.037, 6.322e-6
-1.038, 3.239e-6
-1.039, 6.322e-6
-1.040, 3.239e-6
-1.041, 6.322e-6
-1.042, 3.239e-6
-1.043, 6.322e-6
-1.044, 3.239e-6
-1.045, 6.322e-6
-1.046, 6.322e-6
-1.047, 6.322e-6
-1.048, 3.239e-6
-1.049, 3.239e-6
-1.050, 3.239e-6
-1.051, 6.322e-6
-1.052, 3.239e-6
-1.053, 6.322e-6
-1.054, 6.322e-6
-1.055, 6.322e-6
-1.056, 3.239e-6
-1.057, 3.239e-6
-1.058, 3.239e-6
-1.059, 6.322e-6
-1.060, 3.239e-6
-1.061, 3.239e-6
-1.062, 3.239e-6
-1.063, 3.239e-6
-1.064, 3.239e-6
-1.065, 6.322e-6
-1.066, 3.239e-6
-1.067, 3.239e-6
-1.068, 3.239e-6
-1.069, 3.239e-6
-1.070, 3.239e-6
-1.071, 6.322e-6
-1.072, 6.322e-6
-1.073, 6.322e-6
-1.074, 6.322e-6
-1.075, 3.239e-6
-1.076, 3.239e-6
-1.077, 3.239e-6
-1.078, 6.322e-6
-1.079, 3.239e-6
-1.080, 6.322e-6
-1.081, 3.239e-6
-1.082, 6.322e-6
-1.083, 6.322e-6
-1.084, 6.322e-6
-1.085, 6.322e-6
-1.086, 6.322e-6
-1.087, 6.322e-6
-1.088, 6.322e-6
-1.089, 6.322e-6
-1.090, 3.239e-6
-1.091, 3.239e-6
-1.092, 6.322e-6
-1.093, 3.239e-6
-1.094, 6.322e-6
-1.095, 6.322e-6
-1.096, 6.322e-6
-1.097, 6.322e-6
-1.098, 3.239e-6
-1.099, 6.322e-6
-1.100, 6.322e-6
-1.101, 6.322e-6
-1.102, 6.322e-6
-1.103, 6.322e-6
-1.104, 6.322e-6
-1.105, 3.239e-6
-1.106, 6.322e-6
-1.107, 6.322e-6
-1.108, 6.322e-6
-1.109, 6.322e-6
-1.110, 6.322e-6
-1.111, 3.239e-6
-1.112, 6.322e-6
-1.113, 6.322e-6
-1.114, 6.322e-6
-1.115, 6.322e-6
-1.116, 6.322e-6
-1.117, 6.322e-6
-1.118, 6.322e-6
-1.119, 6.322e-6
-1.120, 6.322e-6
-1.121, 6.322e-6
-1.122, 6.322e-6
-1.123, 6.322e-6
-1.124, 6.322e-6
-1.125, 6.322e-6
-1.126, 6.322e-6
-1.127, 6.322e-6
-1.128, 6.322e-6
-1.129, 6.322e-6
-1.130, 6.322e-6
-1.131, 6.322e-6
-1.132, 6.322e-6
-1.133, 6.322e-6
-1.134, 6.322e-6
-1.135, 6.322e-6
-1.136, 6.322e-6
-1.137, 6.322e-6
-1.138, 6.322e-6
-1.139, 6.322e-6
-1.140, 6.322e-6
-1.141, 6.322e-6
-1.142, 6.322e-6
-1.143, 6.322e-6
-1.144, 6.322e-6
-1.145, 6.322e-6
-1.146, 6.322e-6
-1.147, 6.322e-6
-1.148, 6.322e-6
-1.149, 6.322e-6
-1.150, 6.322e-6
-1.151, 6.322e-6
-1.152, 6.322e-6
-1.153, 6.322e-6
-1.154, 6.322e-6
-1.155, 6.322e-6
-1.156, 6.322e-6
-1.157, 6.322e-6
-1.158, 6.322e-6
-1.159, 6.322e-6
-1.160, 6.322e-6
-1.161, 6.322e-6
-1.162, 6.322e-6
-1.163, 6.322e-6
-1.164, 6.322e-6
-1.165, 6.322e-6
-1.166, 6.322e-6
-1.167, 6.322e-6
-1.168, 6.322e-6
-1.169, 6.322e-6
-1.170, 6.322e-6
-1.171, 6.322e-6
-1.172, 6.322e-6
-1.173, 6.322e-6
-1.174, 6.322e-6
-1.175, 6.322e-6
-1.176, 6.322e-6
-1.177, 6.322e-6
-1.178, 6.322e-6
-1.179, 6.322e-6
-1.180, 6.322e-6
-1.181, 6.322e-6
-1.182, 6.322e-6
-1.183, 6.322e-6
-1.184, 6.322e-6
-1.185, 6.322e-6
-1.186, 6.322e-6
-1.187, 6.322e-6
-1.188, 6.322e-6
-1.189, 6.322e-6
-1.190, 6.322e-6
-1.191, 6.322e-6
-1.192, 6.322e-6
-1.193, 6.322e-6
-1.194, 6.322e-6
-1.195, 6.322e-6
-1.196, 6.322e-6
-1.197, 6.322e-6
-1.198, 6.322e-6
-1.199, 6.322e-6
-1.200, 6.322e-6
-1.201, 6.322e-6
-1.202, 6.322e-6
-1.203, 6.322e-6
-1.204, 6.322e-6
-1.205, 6.322e-6
-1.206, 6.322e-6
-1.207, 6.322e-6
-1.208, 9.405e-6
-1.209, 6.322e-6
-1.210, 6.322e-6
-1.211, 6.322e-6
-1.212, 6.322e-6
-1.213, 6.322e-6
-1.214, 9.405e-6
-1.215, 6.322e-6
-1.216, 6.322e-6
-1.217, 6.322e-6
-1.218, 9.405e-6
-1.219, 6.322e-6
-1.220, 9.405e-6
-1.221, 6.322e-6
-1.222, 9.405e-6
-1.223, 6.322e-6
-1.224, 6.322e-6
-1.225, 6.322e-6
-1.226, 9.405e-6
-1.227, 6.322e-6
-1.228, 6.322e-6
-1.229, 6.322e-6
-1.230, 6.322e-6
-1.231, 6.322e-6
-1.232, 6.322e-6
-1.233, 6.322e-6
-1.234, 9.405e-6
-1.235, 6.322e-6
-1.236, 6.322e-6
-1.237, 6.322e-6
-1.238, 6.322e-6
-1.239, 6.322e-6
-1.240, 9.405e-6
-1.241, 9.405e-6
-1.242, 9.405e-6
-1.243, 9.405e-6
-1.244, 6.322e-6
-1.245, 9.405e-6
-1.246, 6.322e-6
-1.247, 9.405e-6
-1.248, 6.322e-6
-1.249, 6.322e-6
-1.250, 9.405e-6
-1.251, 9.405e-6
-1.252, 6.322e-6
-1.253, 9.405e-6
-1.254, 9.405e-6
-1.255, 9.405e-6
-1.256, 9.405e-6
-1.257, 9.405e-6
-1.258, 6.322e-6
-1.259, 9.405e-6
-1.260, 9.405e-6
-1.261, 9.405e-6
-1.262, 9.405e-6
-1.263, 9.405e-6
-1.264, 9.405e-6
-1.265, 9.405e-6
-1.266, 9.405e-6
-1.267, 9.405e-6
-1.268, 9.405e-6
-1.269, 9.405e-6
-1.270, 9.405e-6
-1.271, 9.405e-6
-1.272, 9.405e-6
-1.273, 9.405e-6
-1.274, 9.405e-6
-1.275, 9.405e-6
-1.276, 9.405e-6
-1.277, 9.405e-6
-1.278, 9.405e-6
-1.279, 9.405e-6
-1.280, 9.405e-6
-1.281, 9.405e-6
-1.282, 9.405e-6
-1.283, 9.405e-6
-1.284, 9.405e-6
-1.285, 9.405e-6
-1.286, 9.405e-6
-1.287, 9.405e-6
-1.288, 9.405e-6
-1.289, 9.405e-6
-1.290, 9.405e-6
-1.291, 9.405e-6
-1.292, 9.405e-6
-1.293, 9.405e-6
-1.294, 9.405e-6
-1.295, 9.405e-6
-1.296, 9.405e-6
-1.297, 9.405e-6
-1.298, 9.405e-6
-1.299, 9.405e-6
-1.300, 9.405e-6
-1.301, 9.405e-6
-1.302, 9.405e-6
-1.303, 9.405e-6
-1.304, 9.405e-6
-1.305, 9.405e-6
-1.306, 9.405e-6
-1.307, 9.405e-6
-1.308, 9.405e-6
-1.309, 9.405e-6
-1.310, 9.405e-6
-1.311, 9.405e-6
-1.312, 9.405e-6
-1.313, 9.405e-6
-1.314, 9.405e-6
-1.315, 9.405e-6
-1.316, 9.405e-6
-1.317, 9.405e-6
-1.318, 9.405e-6
-1.319, 9.405e-6
-1.320, 9.405e-6
-1.321, 9.405e-6
-1.322, 9.405e-6
-1.323, 9.405e-6
-1.324, 9.405e-6
-1.325, 9.405e-6
-1.326, 9.405e-6
-1.327, 9.405e-6
-1.328, 9.405e-6
-1.329, 9.405e-6
-1.330, 9.405e-6
-1.331, 9.405e-6
-1.332, 9.405e-6
-1.333, 9.405e-6
-1.334, 1.249e-5
-1.335, 9.405e-6
-1.336, 9.405e-6
-1.337, 9.405e-6
-1.338, 1.249e-5
-1.339, 9.405e-6
-1.340, 1.249e-5
-1.341, 9.405e-6
-1.342, 9.405e-6
-1.343, 9.405e-6
-1.344, 9.405e-6
-1.345, 9.405e-6
-1.346, 9.405e-6
-1.347, 9.405e-6
-1.348, 1.249e-5
-1.349, 9.405e-6
-1.350, 9.405e-6
-1.351, 9.405e-6
-1.352, 9.405e-6
-1.353, 9.405e-6
-1.354, 1.249e-5
-1.355, 9.405e-6
-1.356, 9.405e-6
-1.357, 1.249e-5
-1.358, 9.405e-6
-1.359, 1.249e-5
-1.360, 9.405e-6
-1.361, 9.405e-6
-1.362, 9.405e-6
-1.363, 9.405e-6
-1.364, 9.405e-6
-1.365, 1.249e-5
-1.366, 9.405e-6
-1.367, 9.405e-6
-1.368, 9.405e-6
-1.369, 1.249e-5
-1.370, 1.249e-5
-1.371, 1.249e-5
-1.372, 1.249e-5
-1.373, 1.249e-5
-1.374, 1.249e-5
-1.375, 1.249e-5
-1.376, 9.405e-6
-1.377, 1.249e-5
-1.378, 9.405e-6
-1.379, 1.249e-5
-1.380, 9.405e-6
-1.381, 1.249e-5
-1.382, 1.249e-5
-1.383, 1.249e-5
-1.384, 1.249e-5
-1.385, 1.249e-5
-1.386, 9.405e-6
-1.387, 1.249e-5
-1.388, 1.249e-5
-1.389, 1.249e-5
-1.390, 9.405e-6
-1.391, 1.249e-5
-1.392, 1.249e-5
-1.393, 1.249e-5
-1.394, 1.249e-5
-1.395, 1.249e-5
-1.396, 1.249e-5
-1.397, 1.249e-5
-1.398, 1.249e-5
-1.399, 1.249e-5
-1.400, 1.249e-5
-1.401, 1.249e-5
-1.402, 1.249e-5
-1.403, 1.249e-5
-1.404, 1.249e-5
-1.405, 1.249e-5
-1.406, 1.249e-5
-1.407, 1.249e-5
-1.408, 1.249e-5
-1.409, 1.249e-5
-1.410, 1.249e-5
-1.411, 1.249e-5
-1.412, 1.249e-5
-1.413, 1.249e-5
-1.414, 1.249e-5
-1.415, 1.249e-5
-1.416, 1.249e-5
-1.417, 1.249e-5
-1.418, 1.249e-5
-1.419, 1.249e-5
-1.420, 1.249e-5
-1.421, 1.249e-5
-1.422, 1.249e-5
-1.423, 1.249e-5
-1.424, 1.249e-5
-1.425, 1.249e-5
-1.426, 1.249e-5
-1.427, 1.249e-5
-1.428, 1.249e-5
-1.429, 1.249e-5
-1.430, 1.249e-5
-1.431, 1.249e-5
-1.432, 1.249e-5
-1.433, 1.249e-5
-1.434, 1.249e-5
-1.435, 1.249e-5
-1.436, 1.249e-5
-1.437, 1.249e-5
-1.438, 1.249e-5
-1.439, 1.249e-5
-1.440, 1.557e-5
-1.441, 1.249e-5
-1.442, 1.249e-5
-1.443, 1.249e-5
-1.444, 1.249e-5
-1.445, 1.249e-5
-1.446, 1.249e-5
-1.447, 1.249e-5
-1.448, 1.249e-5
-1.449, 1.249e-5
-1.450, 1.249e-5
-1.451, 1.249e-5
-1.452, 1.249e-5
-1.453, 1.249e-5
-1.454, 1.557e-5
-1.455, 1.249e-5
-1.456, 1.557e-5
-1.457, 1.249e-5
-1.458, 1.557e-5
-1.459, 1.249e-5
-1.460, 1.249e-5
-1.461, 1.249e-5
-1.462, 1.249e-5
-1.463, 1.249e-5
-1.464, 1.249e-5
-1.465, 1.557e-5
-1.466, 1.557e-5
-1.467, 1.557e-5
-1.468, 1.249e-5
-1.469, 1.557e-5
-1.470, 1.249e-5
-1.471, 1.557e-5
-1.472, 1.249e-5
-1.473, 1.557e-5
-1.474, 1.557e-5
-1.475, 1.249e-5
-1.476, 1.249e-5
-1.477, 1.557e-5
-1.478, 1.557e-5
-1.479, 1.557e-5
-1.480, 1.557e-5
-1.481, 1.557e-5
-1.482, 1.557e-5
-1.483, 1.557e-5
-1.484, 1.249e-5
-1.485, 1.557e-5
-1.486, 1.557e-5
-1.487, 1.557e-5
-1.488, 1.557e-5
-1.489, 1.557e-5
-1.490, 1.557e-5
-1.491, 1.557e-5
-1.492, 1.557e-5
-1.493, 1.557e-5
-1.494, 1.557e-5
-1.495, 1.557e-5
-1.496, 1.557e-5
-1.497, 1.557e-5
-1.498, 1.557e-5
-1.499, 1.557e-5
-1.500, 1.557e-5
-1.501, 1.557e-5
-1.502, 1.557e-5
-1.503, 1.557e-5
-1.504, 1.557e-5
-1.505, 1.557e-5
-1.506, 1.557e-5
-1.507, 1.865e-5
-1.508, 1.557e-5
-1.509, 1.557e-5
-1.510, 1.557e-5
-1.511, 1.557e-5
-1.512, 1.557e-5
-1.513, 1.557e-5
-1.514, 1.557e-5
-1.515, 1.557e-5
-1.516, 1.557e-5
-1.517, 1.557e-5
-1.518, 1.557e-5
-1.519, 1.865e-5
-1.520, 1.865e-5
-1.521, 1.865e-5
-1.522, 1.557e-5
-1.523, 1.865e-5
-1.524, 1.557e-5
-1.525, 1.557e-5
-1.526, 1.865e-5
-1.527, 1.865e-5
-1.528, 1.865e-5
-1.529, 1.557e-5
-1.530, 1.865e-5
-1.531, 1.865e-5
-1.532, 1.865e-5
-1.533, 1.865e-5
-1.534, 1.865e-5
-1.535, 1.557e-5
-1.536, 1.865e-5
-1.537, 1.557e-5
-1.538, 1.865e-5
-1.539, 1.865e-5
-1.540, 1.865e-5
-1.541, 1.865e-5
-1.542, 1.865e-5
-1.543, 1.865e-5
-1.544, 1.865e-5
-1.545, 1.865e-5
-1.546, 1.865e-5
-1.547, 1.865e-5
-1.548, 1.865e-5
-1.549, 1.865e-5
-1.550, 1.865e-5
-1.551, 1.865e-5
-1.552, 1.865e-5
-1.553, 1.865e-5
-1.554, 1.865e-5
-1.555, 1.865e-5
-1.556, 1.865e-5
-1.557, 1.865e-5
-1.558, 2.174e-5
-1.559, 1.865e-5
-1.560, 2.174e-5
-1.561, 1.865e-5
-1.562, 1.865e-5
-1.563, 2.174e-5
-1.564, 2.174e-5
-1.565, 2.174e-5
-1.566, 2.174e-5
-1.567, 2.174e-5
-1.568, 2.174e-5
-1.569, 2.174e-5
-1.570, 2.174e-5
-1.571, 2.174e-5
-1.572, 2.174e-5
-1.573, 2.174e-5
-1.574, 2.174e-5
-1.575, 2.174e-5
-1.576, 2.174e-5
-1.577, 2.174e-5
-1.578, 2.174e-5
-1.579, 2.174e-5
-1.580, 2.174e-5
-1.581, 2.174e-5
-1.582, 2.174e-5
-1.583, 2.174e-5
-1.584, 2.174e-5
-1.585, 2.482e-5
-1.586, 2.482e-5
-1.587, 2.482e-5
-1.588, 2.482e-5
-1.589, 2.482e-5
-1.590, 2.482e-5
-1.591, 2.482e-5
-1.592, 2.482e-5
-1.593, 2.482e-5
-1.594, 2.482e-5
-1.595, 2.482e-5
-1.596, 2.482e-5
-1.597, 2.790e-5
-1.598, 2.482e-5
-1.599, 2.790e-5
-1.600, 2.482e-5
-1.601, 2.790e-5
-1.602, 2.790e-5
-1.603, 2.790e-5
-1.604, 2.790e-5
-1.605, 2.790e-5
-1.606, 2.790e-5
-1.607, 2.790e-5
-1.608, 2.790e-5
-1.609, 2.790e-5
-1.610, 2.790e-5
-1.611, 2.790e-5
-1.612, 2.790e-5
-1.613, 3.099e-5
-1.614, 3.099e-5
-1.615, 3.099e-5
-1.616, 3.099e-5
-1.617, 3.099e-5
-1.618, 3.099e-5
-1.619, 3.099e-5
-1.620, 3.099e-5
-1.621, 3.099e-5
-1.622, 3.407e-5
-1.623, 3.407e-5
-1.624, 3.099e-5
-1.625, 3.407e-5
-1.626, 3.407e-5
-1.627, 3.407e-5
-1.628, 3.407e-5
-1.629, 3.407e-5
-1.630, 3.407e-5
-1.631, 3.715e-5
-1.632, 3.715e-5
-1.633, 3.715e-5
-1.634, 3.715e-5
-1.635, 3.715e-5
-1.636, 3.715e-5
-1.637, 4.024e-5
-1.638, 3.715e-5
-1.639, 4.024e-5
-1.640, 4.024e-5
-1.641, 4.024e-5
-1.642, 4.024e-5
-1.643, 4.024e-5
-1.644, 4.024e-5
-1.645, 4.024e-5
-1.646, 4.332e-5
-1.647, 4.332e-5
-1.648, 4.332e-5
-1.649, 4.332e-5
-1.650, 4.332e-5
-1.651, 4.332e-5
-1.652, 4.640e-5
-1.653, 4.640e-5
-1.654, 4.640e-5
-1.655, 4.640e-5
-1.656, 4.949e-5
-1.657, 4.640e-5
-1.658, 4.949e-5
-1.659, 4.949e-5
-1.660, 4.949e-5
-1.661, 4.949e-5
-1.662, 5.257e-5
-1.663, 5.257e-5
-1.664, 5.257e-5
-1.665, 5.257e-5
-1.666, 5.565e-5
-1.667, 5.565e-5
-1.668, 5.565e-5
-1.669, 5.565e-5
-1.670, 5.565e-5
-1.671, 5.565e-5
-1.672, 5.873e-5
-1.673, 5.873e-5
-1.674, 5.873e-5
-1.675, 5.873e-5
-1.676, 6.182e-5
-1.677, 6.182e-5
-1.678, 6.182e-5
-1.679, 6.182e-5
-1.680, 6.490e-5
-1.681, 6.490e-5
-1.682, 6.490e-5
-1.683, 6.490e-5
-1.684, 6.798e-5
-1.685, 6.798e-5
-1.686, 6.798e-5
-1.687, 6.798e-5
-1.688, 7.107e-5
-1.689, 7.107e-5
-1.690, 7.107e-5
-1.691, 7.415e-5
-1.692, 7.415e-5
-1.693, 7.415e-5
-1.694, 7.723e-5
-1.695, 7.723e-5
-1.696, 7.723e-5
-1.697, 8.032e-5
-1.698, 8.032e-5
-1.699, 8.032e-5
-1.700, 8.340e-5
-1.701, 8.340e-5
-1.702, 8.340e-5
-1.703, 8.648e-5
-1.704, 8.648e-5
-1.705, 8.648e-5
-1.706, 8.957e-5
-1.707, 9.265e-5
-1.708, 9.265e-5
-1.709, 9.573e-5
-1.710, 9.265e-5
-1.711, 9.573e-5
-1.712, 9.573e-5
-1.713, 9.882e-5
-1.714, 9.882e-5
-1.715, 1.019e-4
-1.716, 1.019e-4
-1.717, 1.019e-4
-1.718, 1.050e-4
-1.719, 1.050e-4
-1.720, 1.081e-4
-1.721, 1.081e-4
-1.722, 1.111e-4
-1.723, 1.111e-4
-1.724, 1.142e-4
-1.725, 1.142e-4
-1.726, 1.173e-4
-1.727, 1.173e-4
-1.728, 1.204e-4
-1.729, 1.204e-4
-1.730, 1.204e-4
-1.731, 1.235e-4
-1.732, 1.266e-4
-1.733, 1.266e-4
-1.734, 1.296e-4
-1.735, 1.327e-4
-1.736, 1.327e-4
-1.737, 1.358e-4
-1.738, 1.358e-4
-1.739, 1.389e-4
-1.740, 1.389e-4
-1.741, 1.420e-4
-1.742, 1.451e-4
-1.743, 1.481e-4
-1.744, 1.481e-4
-1.745, 1.512e-4
-1.746, 1.512e-4
-1.747, 1.543e-4
-1.748, 1.574e-4
-1.749, 1.574e-4
-1.750, 1.605e-4
-1.751, 1.636e-4
-1.752, 1.666e-4
-1.753, 1.697e-4
-1.754, 1.697e-4
-1.755, 1.728e-4
-1.756, 1.759e-4
-1.757, 1.790e-4
-1.758, 1.821e-4
-1.759, 1.821e-4
-1.760, 1.851e-4
-1.761, 1.882e-4
-1.762, 1.913e-4
-1.763, 1.913e-4
-1.764, 1.975e-4
-1.765, 1.975e-4
-1.766, 2.006e-4
-1.767, 2.036e-4
-1.768, 2.098e-4
-1.769, 2.129e-4
-1.770, 2.160e-4
-1.771, 2.160e-4
-1.772, 2.191e-4
-1.773, 2.252e-4
-1.774, 2.283e-4
-1.775, 2.283e-4
-1.776, 2.345e-4
-1.777, 2.376e-4
-1.778, 2.406e-4
-1.779, 2.437e-4
-1.780, 2.468e-4
-1.781, 2.499e-4
-1.782, 2.561e-4
-1.783, 2.591e-4
-1.784, 2.622e-4
-1.785, 2.653e-4
-1.786, 2.715e-4
-1.787, 2.746e-4
-1.788, 2.776e-4
-1.789, 2.807e-4
-1.790, 2.869e-4
-1.791, 2.931e-4
-1.792, 2.961e-4
-1.793, 2.992e-4
-1.794, 3.054e-4
-1.795, 3.085e-4
-1.796, 3.146e-4
-1.797, 3.177e-4
-1.798, 3.239e-4
-1.799, 3.270e-4
-1.800, 3.331e-4
-1.801, 3.393e-4
-1.802, 3.424e-4
-1.803, 3.485e-4
-1.804, 3.547e-4
-1.805, 3.609e-4
-1.806, 3.640e-4
-1.807, 3.732e-4
-1.808, 3.763e-4
-1.809, 3.825e-4
-1.810, 3.886e-4
-1.811, 3.948e-4
-1.812, 4.010e-4
-1.813, 4.071e-4
-1.814, 4.133e-4
-1.815, 4.195e-4
-1.816, 4.256e-4
-1.817, 4.318e-4
-1.818, 4.410e-4
-1.819, 4.472e-4
-1.820, 4.565e-4
-1.821, 4.626e-4
-1.822, 4.688e-4
-1.823, 4.780e-4
-1.824, 4.842e-4
-1.825, 4.935e-4
-1.826, 4.996e-4
-1.827, 5.120e-4
-1.828, 5.181e-4
-1.829, 5.243e-4
-1.830, 5.335e-4
-1.831, 5.428e-4
-1.832, 5.520e-4
-1.833, 5.582e-4
-1.834, 5.674e-4
-1.835, 5.767e-4
-1.836, 5.859e-4
-1.837, 5.952e-4
-1.838, 6.044e-4
-1.839, 6.168e-4
-1.840, 6.260e-4
-1.841, 6.353e-4
-1.842, 6.476e-4
-1.843, 6.599e-4
-1.844, 6.692e-4
-1.845, 6.815e-4
-1.846, 6.908e-4
-1.847, 7.031e-4
-1.848, 7.124e-4
-1.849, 7.247e-4
-1.850, 7.370e-4
-1.851, 7.463e-4
-1.852, 7.617e-4
-1.853, 7.709e-4
-1.854, 7.863e-4
-1.855, 7.956e-4
-1.856, 8.110e-4
-1.857, 8.233e-4
-1.858, 8.388e-4
-1.859, 8.511e-4
-1.860, 8.665e-4
-1.861, 8.819e-4
-1.862, 8.943e-4
-1.863, 9.097e-4
-1.864, 9.251e-4
-1.865, 9.405e-4
-1.866, 9.559e-4
-1.867, 9.713e-4
-1.868, 9.868e-4
-1.869, 1.002e-3
-1.870, 1.018e-3
-1.871, 1.033e-3
-1.872, 1.048e-3
-1.873, 1.064e-3
-1.874, 1.085e-3
-1.875, 1.101e-3
-1.876, 1.119e-3
-1.877, 1.138e-3
-1.878, 1.156e-3
-1.879, 1.175e-3
-1.880, 1.193e-3
-1.881, 1.212e-3
-1.882, 1.230e-3
-1.883, 1.249e-3
-1.884, 1.270e-3
-1.885, 1.289e-3
-1.886, 1.307e-3
-1.887, 1.326e-3
-1.888, 1.347e-3
-1.889, 1.369e-3
-1.890, 1.391e-3
-1.891, 1.412e-3
-1.892, 1.434e-3
-1.893, 1.455e-3
-1.894, 1.480e-3
-1.895, 1.502e-3
-1.896, 1.523e-3
-1.897, 1.545e-3
-1.898, 1.569e-3
-1.899, 1.594e-3
-1.900, 1.619e-3
-1.901, 1.643e-3
-1.902, 1.668e-3
-1.903, 1.693e-3
-1.904, 1.717e-3
-1.905, 1.742e-3
-1.906, 1.767e-3
-1.907, 1.791e-3
-1.908, 1.816e-3
-1.909, 1.844e-3
-1.910, 1.869e-3
-1.911, 1.896e-3
-1.912, 1.924e-3
-1.913, 1.952e-3
-1.914, 1.980e-3
-1.915, 2.007e-3
-1.916, 2.035e-3
-1.917, 2.066e-3
-1.918, 2.094e-3
-1.919, 2.121e-3
-1.920, 2.152e-3
-1.921, 2.183e-3
-1.922, 2.208e-3
-1.923, 2.238e-3
-1.924, 2.269e-3
-1.925, 2.300e-3
-1.926, 2.328e-3
-1.927, 2.359e-3
-1.928, 2.390e-3
-1.929, 2.420e-3
-1.930, 2.451e-3
-1.931, 2.485e-3
-1.932, 2.516e-3
-1.933, 2.550e-3
-1.934, 2.584e-3
-1.935, 2.618e-3
-1.936, 2.652e-3
-1.937, 2.686e-3
-1.938, 2.719e-3
-1.939, 2.753e-3
-1.940, 2.787e-3
-1.941, 2.821e-3
-1.942, 2.855e-3
-1.943, 2.889e-3
-1.944, 2.923e-3
-1.945, 2.960e-3
-1.946, 2.994e-3
-1.947, 3.031e-3
-1.948, 3.065e-3
-1.949, 3.102e-3
-1.950, 3.142e-3
-1.951, 3.179e-3
-1.952, 3.219e-3
-1.953, 3.256e-3
-1.954, 3.293e-3
-1.955, 3.330e-3
-1.956, 3.367e-3
-1.957, 3.401e-3
-1.958, 3.438e-3
-1.959, 3.478e-3
-1.960, 3.512e-3
-1.961, 3.552e-3
-1.962, 3.589e-3
-1.963, 3.626e-3
-1.964, 3.663e-3
-1.965, 3.703e-3
-1.966, 3.743e-3
-1.967, 3.780e-3
-1.968, 3.820e-3
-1.969, 3.860e-3
-1.970, 3.897e-3
-1.971, 3.937e-3
-1.972, 3.980e-3
-1.973, 4.024e-3
-1.974, 4.067e-3
-1.975, 4.110e-3
-1.976, 4.153e-3
-1.977, 4.196e-3
-1.978, 4.239e-3
-1.979, 4.280e-3
-1.980, 4.320e-3
-1.981, 4.357e-3
-1.982, 4.394e-3
-1.983, 4.434e-3
-1.984, 4.477e-3
-1.985, 4.520e-3
-1.986, 4.563e-3
-1.987, 4.606e-3
-1.988, 4.649e-3
-1.989, 4.693e-3
-1.990, 4.736e-3
-1.991, 4.779e-3
-1.992, 4.819e-3
-1.993, 4.862e-3
-1.994, 4.905e-3
-1.995, 4.945e-3
-1.996, 4.986e-3
-1.997, 5.029e-3
-1.998, 5.072e-3
-1.999, 5.112e-3
-2.000, 5.124e-3
-1.999, 5.081e-3
-1.998, 5.041e-3
-1.997, 4.995e-3
-1.996, 4.952e-3
-1.995, 4.908e-3
-1.994, 4.868e-3
-1.993, 4.831e-3
-1.992, 4.794e-3
-1.991, 4.764e-3
-1.990, 4.733e-3
-1.989, 4.702e-3
-1.988, 4.665e-3
-1.987, 4.628e-3
-1.986, 4.591e-3
-1.985, 4.551e-3
-1.984, 4.511e-3
-1.983, 4.468e-3
-1.982, 4.431e-3
-1.981, 4.387e-3
-1.980, 4.350e-3
-1.979, 4.310e-3
-1.978, 4.270e-3
-1.977, 4.227e-3
-1.976, 4.187e-3
-1.975, 4.147e-3
-1.974, 4.104e-3
-1.973, 4.061e-3
-1.972, 4.011e-3
-1.971, 3.965e-3
-1.970, 3.919e-3
-1.969, 3.879e-3
-1.968, 3.836e-3
-1.967, 3.795e-3
-1.966, 3.755e-3
-1.965, 3.718e-3
-1.964, 3.678e-3
-1.963, 3.641e-3
-1.962, 3.601e-3
-1.961, 3.567e-3
-1.960, 3.530e-3
-1.959, 3.493e-3
-1.958, 3.453e-3
-1.957, 3.419e-3
-1.956, 3.385e-3
-1.955, 3.367e-3
-1.954, 3.336e-3
-1.953, 3.302e-3
-1.952, 3.268e-3
-1.951, 3.231e-3
-1.950, 3.197e-3
-1.949, 3.167e-3
-1.948, 3.133e-3
-1.947, 3.102e-3
-1.946, 3.071e-3
-1.945, 3.040e-3
-1.944, 3.012e-3
-1.943, 2.985e-3
-1.942, 2.951e-3
-1.941, 2.917e-3
-1.940, 2.883e-3
-1.939, 2.852e-3
-1.938, 2.821e-3
-1.937, 2.793e-3
-1.936, 2.766e-3
-1.935, 2.738e-3
-1.934, 2.710e-3
-1.933, 2.682e-3
-1.932, 2.652e-3
-1.931, 2.624e-3
-1.930, 2.593e-3
-1.929, 2.565e-3
-1.928, 2.534e-3
-1.927, 2.510e-3
-1.926, 2.482e-3
-1.925, 2.457e-3
-1.924, 2.433e-3
-1.923, 2.405e-3
-1.922, 2.380e-3
-1.921, 2.353e-3
-1.920, 2.328e-3
-1.919, 2.300e-3
-1.918, 2.272e-3
-1.917, 2.248e-3
-1.916, 2.223e-3
-1.915, 2.198e-3
-1.914, 2.177e-3
-1.913, 2.152e-3
-1.912, 2.131e-3
-1.911, 2.103e-3
-1.910, 2.075e-3
-1.909, 2.050e-3
-1.908, 2.026e-3
-1.907, 2.004e-3
-1.906, 1.986e-3
-1.905, 1.961e-3
-1.904, 1.939e-3
-1.903, 1.915e-3
-1.902, 1.896e-3
-1.901, 1.872e-3
-1.900, 1.850e-3
-1.899, 1.825e-3
-1.898, 1.804e-3
-1.897, 1.782e-3
-1.896, 1.770e-3
-1.895, 1.748e-3
-1.894, 1.730e-3
-1.893, 1.708e-3
-1.892, 1.690e-3
-1.891, 1.668e-3
-1.890, 1.647e-3
-1.889, 1.622e-3
-1.888, 1.603e-3
-1.887, 1.579e-3
-1.886, 1.560e-3
-1.885, 1.542e-3
-1.884, 1.523e-3
-1.883, 1.505e-3
-1.882, 1.486e-3
-1.881, 1.468e-3
-1.880, 1.449e-3
-1.879, 1.431e-3
-1.878, 1.412e-3
-1.877, 1.394e-3
-1.876, 1.378e-3
-1.875, 1.360e-3
-1.874, 1.341e-3
-1.873, 1.323e-3
-1.872, 1.304e-3
-1.871, 1.289e-3
-1.870, 1.270e-3
-1.869, 1.255e-3
-1.868, 1.240e-3
-1.867, 1.224e-3
-1.866, 1.206e-3
-1.865, 1.193e-3
-1.864, 1.178e-3
-1.863, 1.162e-3
-1.862, 1.147e-3
-1.861, 1.132e-3
-1.860, 1.116e-3
-1.859, 1.101e-3
-1.858, 1.085e-3
-1.857, 1.073e-3
-1.856, 1.058e-3
-1.855, 1.045e-3
-1.854, 1.036e-3
-1.853, 1.027e-3
-1.852, 1.011e-3
-1.851, 9.991e-4
-1.850, 9.837e-4
-1.849, 9.713e-4
-1.848, 9.590e-4
-1.847, 9.467e-4
-1.846, 9.313e-4
-1.845, 9.189e-4
-1.844, 9.066e-4
-1.843, 8.943e-4
-1.842, 8.788e-4
-1.841, 8.696e-4
-1.840, 8.573e-4
-1.839, 8.480e-4
-1.838, 8.357e-4
-1.837, 8.233e-4
-1.836, 8.110e-4
-1.835, 8.018e-4
-1.834, 7.894e-4
-1.833, 7.771e-4
-1.832, 7.679e-4
-1.831, 7.555e-4
-1.830, 7.463e-4
-1.829, 7.339e-4
-1.828, 7.247e-4
-1.827, 7.154e-4
-1.826, 7.062e-4
-1.825, 6.939e-4
-1.824, 6.846e-4
-1.823, 6.754e-4
-1.822, 6.661e-4
-1.821, 6.569e-4
-1.820, 6.476e-4
-1.819, 6.384e-4
-1.818, 6.291e-4
-1.817, 6.199e-4
-1.816, 6.106e-4
-1.815, 6.014e-4
-1.814, 5.952e-4
-1.813, 5.859e-4
-1.812, 5.767e-4
-1.811, 5.705e-4
-1.810, 5.613e-4
-1.809, 5.520e-4
-1.808, 5.428e-4
-1.807, 5.366e-4
-1.806, 5.274e-4
-1.805, 5.212e-4
-1.804, 5.120e-4
-1.803, 5.058e-4
-1.802, 4.996e-4
-1.801, 4.904e-4
-1.800, 4.842e-4
-1.799, 4.780e-4
-1.798, 4.688e-4
-1.797, 4.626e-4
-1.796, 4.565e-4
-1.795, 4.503e-4
-1.794, 4.441e-4
-1.793, 4.349e-4
-1.792, 4.287e-4
-1.791, 4.225e-4
-1.790, 4.164e-4
-1.789, 4.102e-4
-1.788, 4.040e-4
-1.787, 3.979e-4
-1.786, 3.948e-4
-1.785, 3.855e-4
-1.784, 3.794e-4
-1.783, 3.732e-4
-1.782, 3.701e-4
-1.781, 3.640e-4
-1.780, 3.578e-4
-1.779, 3.516e-4
-1.778, 3.485e-4
-1.777, 3.424e-4
-1.776, 3.362e-4
-1.775, 3.300e-4
-1.774, 3.270e-4
-1.773, 3.208e-4
-1.772, 3.177e-4
-1.771, 3.115e-4
-1.770, 3.085e-4
-1.769, 3.023e-4
-1.768, 2.992e-4
-1.767, 2.931e-4
-1.766, 2.900e-4
-1.765, 2.838e-4
-1.764, 2.807e-4
-1.763, 2.746e-4
-1.762, 2.715e-4
-1.761, 2.684e-4
-1.760, 2.653e-4
-1.759, 2.591e-4
-1.758, 2.530e-4
-1.757, 2.530e-4
-1.756, 2.468e-4
-1.755, 2.437e-4
-1.754, 2.406e-4
-1.753, 2.376e-4
-1.752, 2.314e-4
-1.751, 2.283e-4
-1.750, 2.252e-4
-1.749, 2.221e-4
-1.748, 2.191e-4
-1.747, 2.129e-4
-1.746, 2.098e-4
-1.745, 2.067e-4
-1.744, 2.036e-4
-1.743, 2.006e-4
-1.742, 1.975e-4
-1.741, 1.944e-4
-1.740, 1.913e-4
-1.739, 1.882e-4
-1.738, 1.851e-4
-1.737, 1.821e-4
-1.736, 1.790e-4
-1.735, 1.790e-4
-1.734, 1.728e-4
-1.733, 1.728e-4
-1.732, 1.697e-4
-1.731, 1.666e-4
-1.730, 1.605e-4
-1.729, 1.605e-4
-1.728, 1.574e-4
-1.727, 1.574e-4
-1.726, 1.512e-4
-1.725, 1.512e-4
-1.724, 1.481e-4
-1.723, 1.451e-4
-1.722, 1.420e-4
-1.721, 1.420e-4
-1.720, 1.389e-4
-1.719, 1.358e-4
-1.718, 1.327e-4
-1.717, 1.327e-4
-1.716, 1.296e-4
-1.715, 1.266e-4
-1.714, 1.235e-4
-1.713, 1.235e-4
-1.712, 1.204e-4
-1.711, 1.204e-4
-1.710, 1.173e-4
-1.709, 1.142e-4
-1.708, 1.142e-4
-1.707, 1.111e-4
-1.706, 1.111e-4
-1.705, 1.081e-4
-1.704, 1.050e-4
-1.703, 1.050e-4
-1.702, 1.019e-4
-1.701, 1.019e-4
-1.700, 9.882e-5
-1.699, 9.882e-5
-1.698, 9.573e-5
-1.697, 9.573e-5
-1.696, 9.265e-5
-1.695, 9.265e-5
-1.694, 8.957e-5
-1.693, 8.957e-5
-1.692, 8.648e-5
-1.691, 8.340e-5
-1.690, 8.340e-5
-1.689, 8.340e-5
-1.688, 8.032e-5
-1.687, 8.032e-5
-1.686, 7.723e-5
-1.685, 7.723e-5
-1.684, 7.415e-5
-1.683, 7.415e-5
-1.682, 7.415e-5
-1.681, 7.107e-5
-1.680, 7.107e-5
-1.679, 6.798e-5
-1.678, 6.798e-5
-1.677, 6.490e-5
-1.676, 6.490e-5
-1.675, 6.490e-5
-1.674, 6.182e-5
-1.673, 6.182e-5
-1.672, 6.182e-5
-1.671, 5.873e-5
-1.670, 5.873e-5
-1.669, 5.565e-5
-1.668, 5.565e-5
-1.667, 5.565e-5
-1.666, 5.565e-5
-1.665, 5.257e-5
-1.664, 5.257e-5
-1.663, 5.257e-5
-1.662, 4.949e-5
-1.661, 4.949e-5
-1.660, 4.949e-5
-1.659, 4.949e-5
-1.658, 4.640e-5
-1.657, 4.640e-5
-1.656, 4.640e-5
-1.655, 4.332e-5
-1.654, 4.332e-5
-1.653, 4.332e-5
-1.652, 4.332e-5
-1.651, 4.024e-5
-1.650, 4.024e-5
-1.649, 4.024e-5
-1.648, 4.024e-5
-1.647, 4.024e-5
-1.646, 3.715e-5
-1.645, 3.715e-5
-1.644, 3.715e-5
-1.643, 3.407e-5
-1.642, 3.407e-5
-1.641, 3.407e-5
-1.640, 3.407e-5
-1.639, 3.407e-5
-1.638, 3.099e-5
-1.637, 3.099e-5
-1.636, 3.099e-5
-1.635, 3.099e-5
-1.634, 2.790e-5
-1.633, 2.790e-5
-1.632, 2.790e-5
-1.631, 2.790e-5
-1.630, 2.790e-5
-1.629, 2.482e-5
-1.628, 2.482e-5
-1.627, 2.482e-5
-1.626, 2.482e-5
-1.625, 2.482e-5
-1.624, 2.174e-5
-1.623, 2.174e-5
-1.622, 2.174e-5
-1.621, 2.174e-5
-1.620, 2.174e-5
-1.619, 2.174e-5
-1.618, 1.865e-5
-1.617, 1.865e-5
-1.616, 1.865e-5
-1.615, 1.865e-5
-1.614, 1.865e-5
-1.613, 1.865e-5
-1.612, 1.557e-5
-1.611, 1.557e-5
-1.610, 1.557e-5
-1.609, 1.557e-5
-1.608, 1.557e-5
-1.607, 1.557e-5
-1.606, 1.557e-5
-1.605, 1.557e-5
-1.604, 1.557e-5
-1.603, 1.557e-5
-1.602, 1.249e-5
-1.601, 1.249e-5
-1.600, 1.249e-5
-1.599, 1.249e-5
-1.598, 1.249e-5
-1.597, 1.249e-5
-1.596, 9.405e-6
-1.595, 1.249e-5
-1.594, 9.405e-6
-1.593, 1.249e-5
-1.592, 9.405e-6
-1.591, 9.405e-6
-1.590, 9.405e-6
-1.589, 9.405e-6
-1.588, 9.405e-6
-1.587, 9.405e-6
-1.586, 9.405e-6
-1.585, 9.405e-6
-1.584, 6.322e-6
-1.583, 9.405e-6
-1.582, 6.322e-6
-1.581, 6.322e-6
-1.580, 6.322e-6
-1.579, 6.322e-6
-1.578, 6.322e-6
-1.577, 6.322e-6
-1.576, 6.322e-6
-1.575, 6.322e-6
-1.574, 6.322e-6
-1.573, 6.322e-6
-1.572, 6.322e-6
-1.571, 3.239e-6
-1.570, 3.239e-6
-1.569, 3.239e-6
-1.568, 3.239e-6
-1.567, 3.239e-6
-1.566, 3.239e-6
-1.565, 3.239e-6
-1.564, 3.239e-6
-1.563, 3.239e-6
-1.562, 3.239e-6
-1.561, 3.239e-6
-1.560, 3.239e-6
-1.559, 3.239e-6
-1.558, 1.559e-7
-1.557, 1.559e-7
-1.556, 1.559e-7
-1.555, 1.559e-7
-1.554, 1.559e-7
-1.553, 1.559e-7
-1.552, 1.559e-7
-1.551, 1.559e-7
-1.550, 1.559e-7
-1.549, 1.559e-7
-1.548, 1.559e-7
-1.547, 1.559e-7
-1.546, 1.559e-7
-1.545, 1.559e-7
-1.544, 1.559e-7
-1.543, 1.559e-7
-1.542, 1.559e-7
-1.541, 1.559e-7
-1.540, 1.559e-7
-1.539, 1.559e-7
-1.538, 1.559e-7
-1.537, -2.927e-6
-1.536, -2.927e-6
-1.535, 1.559e-7
-1.534, 1.559e-7
-1.533, 1.559e-7
-1.532, 1.559e-7
-1.531, -2.927e-6
-1.530, 1.559e-7
-1.529, -2.927e-6
-1.528, -2.927e-6
-1.527, 1.559e-7
-1.526, -2.927e-6
-1.525, -2.927e-6
-1.524, -2.927e-6
-1.523, -2.927e-6
-1.522, -2.927e-6
-1.521, -2.927e-6
-1.520, -2.927e-6
-1.519, -2.927e-6
-1.518, -2.927e-6
-1.517, -2.927e-6
-1.516, -2.927e-6
-1.515, -2.927e-6
-1.514, -2.927e-6
-1.513, -2.927e-6
-1.512, -2.927e-6
-1.511, -2.927e-6
-1.510, -2.927e-6
-1.509, -2.927e-6
-1.508, -2.927e-6
-1.507, -2.927e-6
-1.506, -2.927e-6
-1.505, -6.010e-6
-1.504, -2.927e-6
-1.503, -2.927e-6
-1.502, -2.927e-6
-1.501, -2.927e-6
-1.500, -2.927e-6
-1.499, -2.927e-6
-1.498, -2.927e-6
-1.497, -6.010e-6
-1.496, -6.010e-6
-1.495, -2.927e-6
-1.494, -2.927e-6
-1.493, -2.927e-6
-1.492, -6.010e-6
-1.491, -2.927e-6
-1.490, -2.927e-6
-1.489, -6.010e-6
-1.488, -6.010e-6
-1.487, -2.927e-6
-1.486, -6.010e-6
-1.485, -2.927e-6
-1.484, -6.010e-6
-1.483, -6.010e-6
-1.482, -6.010e-6
-1.481, -6.010e-6
-1.480, -6.010e-6
-1.479, -2.927e-6
-1.478, -6.010e-6
-1.477, -6.010e-6
-1.476, -6.010e-6
-1.475, -2.927e-6
-1.474, -6.010e-6
-1.473, -6.010e-6
-1.472, -6.010e-6
-1.471, -6.010e-6
-1.470, -6.010e-6
-1.469, -6.010e-6
-1.468, -6.010e-6
-1.467, -6.010e-6
-1.466, -6.010e-6
-1.465, -6.010e-6
-1.464, -6.010e-6
-1.463, -6.010e-6
-1.462, -6.010e-6
-1.461, -6.010e-6
-1.460, -6.010e-6
-1.459, -6.010e-6
-1.458, -6.010e-6
-1.457, -6.010e-6
-1.456, -6.010e-6
-1.455, -2.927e-6
-1.454, -6.010e-6
-1.453, -6.010e-6
-1.452, -6.010e-6
-1.451, -6.010e-6
-1.450, -6.010e-6
-1.449, -6.010e-6
-1.448, -6.010e-6
-1.447, -6.010e-6
-1.446, -6.010e-6
-1.445, -6.010e-6
-1.444, -6.010e-6
-1.443, -6.010e-6
-1.442, -6.010e-6
-1.441, -6.010e-6
-1.440, -6.010e-6
-1.439, -6.010e-6
-1.438, -6.010e-6
-1.437, -6.010e-6
-1.436, -6.010e-6
-1.435, -6.010e-6
-1.434, -6.010e-6
-1.433, -6.010e-6
-1.432, -6.010e-6
-1.431, -6.010e-6
-1.430, -6.010e-6
-1.429, -6.010e-6
-1.428, -6.010e-6
-1.427, -6.010e-6
-1.426, -6.010e-6
-1.425, -6.010e-6
-1.424, -6.010e-6
-1.423, -6.010e-6
-1.422, -6.010e-6
-1.421, -6.010e-6
-1.420, -6.010e-6
-1.419, -6.010e-6
-1.418, -6.010e-6
-1.417, -6.010e-6
-1.416, -6.010e-6
-1.415, -6.010e-6
-1.414, -6.010e-6
-1.413, -6.010e-6
-1.412, -6.010e-6
-1.411, -6.010e-6
-1.410, -6.010e-6
-1.409, -6.010e-6
-1.408, -6.010e-6
-1.407, -6.010e-6
-1.406, -6.010e-6
-1.405, -6.010e-6
-1.404, -6.010e-6
-1.403, -6.010e-6
-1.402, -6.010e-6
-1.401, -6.010e-6
-1.400, -6.010e-6
-1.399, -6.010e-6
-1.398, -6.010e-6
-1.397, -6.010e-6
-1.396, -6.010e-6
-1.395, -6.010e-6
-1.394, -6.010e-6
-1.393, -6.010e-6
-1.392, -6.010e-6
-1.391, -6.010e-6
-1.390, -6.010e-6
-1.389, -6.010e-6
-1.388, -6.010e-6
-1.387, -6.010e-6
-1.386, -6.010e-6
-1.385, -6.010e-6
-1.384, -6.010e-6
-1.383, -6.010e-6
-1.382, -6.010e-6
-1.381, -6.010e-6
-1.380, -6.010e-6
-1.379, -6.010e-6
-1.378, -6.010e-6
-1.377, -6.010e-6
-1.376, -6.010e-6
-1.375, -6.010e-6
-1.374, -6.010e-6
-1.373, -6.010e-6
-1.372, -6.010e-6
-1.371, -6.010e-6
-1.370, -6.010e-6
-1.369, -6.010e-6
-1.368, -6.010e-6
-1.367, -6.010e-6
-1.366, -6.010e-6
-1.365, -6.010e-6
-1.364, -6.010e-6
-1.363, -6.010e-6
-1.362, -6.010e-6
-1.361, -6.010e-6
-1.360, -6.010e-6
-1.359, -6.010e-6
-1.358, -6.010e-6
-1.357, -6.010e-6
-1.356, -6.010e-6
-1.355, -6.010e-6
-1.354, -6.010e-6
-1.353, -6.010e-6
-1.352, -6.010e-6
-1.351, -6.010e-6
-1.350, -6.010e-6
-1.349, -6.010e-6
-1.348, -6.010e-6
-1.347, -6.010e-6
-1.346, -6.010e-6
-1.345, -6.010e-6
-1.344, -6.010e-6
-1.343, -6.010e-6
-1.342, -6.010e-6
-1.341, -6.010e-6
-1.340, -6.010e-6
-1.339, -6.010e-6
-1.338, -6.010e-6
-1.337, -6.010e-6
-1.336, -6.010e-6
-1.335, -6.010e-6
-1.334, -6.010e-6
-1.333, -6.010e-6
-1.332, -6.010e-6
-1.331, -6.010e-6
-1.330, -6.010e-6
-1.329, -6.010e-6
-1.328, -6.010e-6
-1.327, -6.010e-6
-1.326, -6.010e-6
-1.325, -6.010e-6
-1.324, -6.010e-6
-1.323, -6.010e-6
-1.322, -6.010e-6
-1.321, -6.010e-6
-1.320, -6.010e-6
-1.319, -6.010e-6
-1.318, -6.010e-6
-1.317, -6.010e-6
-1.316, -6.010e-6
-1.315, -6.010e-6
-1.314, -6.010e-6
-1.313, -6.010e-6
-1.312, -6.010e-6
-1.311, -6.010e-6
-1.310, -6.010e-6
-1.309, -6.010e-6
-1.308, -6.010e-6
-1.307, -6.010e-6
-1.306, -6.010e-6
-1.305, -6.010e-6
-1.304, -6.010e-6
-1.303, -6.010e-6
-1.302, -6.010e-6
-1.301, -6.010e-6
-1.300, -6.010e-6
-1.299, -6.010e-6
-1.298, -6.010e-6
-1.297, -6.010e-6
-1.296, -6.010e-6
-1.295, -6.010e-6
-1.294, -6.010e-6
-1.293, -6.010e-6
-1.292, -6.010e-6
-1.291, -6.010e-6
-1.290, -6.010e-6
-1.289, -6.010e-6
-1.288, -6.010e-6
-1.287, -6.010e-6
-1.286, -6.010e-6
-1.285, -6.010e-6
-1.284, -6.010e-6
-1.283, -6.010e-6
-1.282, -6.010e-6
-1.281, -6.010e-6
-1.280, -6.010e-6
-1.279, -6.010e-6
-1.278, -6.010e-6
-1.277, -6.010e-6
-1.276, -6.010e-6
-1.275, -6.010e-6
-1.274, -6.010e-6
-1.273, -6.010e-6
-1.272, -6.010e-6
-1.271, -6.010e-6
-1.270, -6.010e-6
-1.269, -6.010e-6
-1.268, -6.010e-6
-1.267, -6.010e-6
-1.266, -6.010e-6
-1.265, -6.010e-6
-1.264, -6.010e-6
-1.263, -6.010e-6
-1.262, -6.010e-6
-1.261, -6.010e-6
-1.260, -6.010e-6
-1.259, -6.010e-6
-1.258, -6.010e-6
-1.257, -6.010e-6
-1.256, -6.010e-6
-1.255, -6.010e-6
-1.254, -6.010e-6
-1.253, -6.010e-6
-1.252, -6.010e-6
-1.251, -6.010e-6
-1.250, -6.010e-6
-1.249, -6.010e-6
-1.248, -6.010e-6
-1.247, -6.010e-6
-1.246, -6.010e-6
-1.245, -6.010e-6
-1.244, -6.010e-6
-1.243, -6.010e-6
-1.242, -6.010e-6
-1.241, -6.010e-6
-1.240, -6.010e-6
-1.239, -6.010e-6
-1.238, -6.010e-6
-1.237, -6.010e-6
-1.236, -6.010e-6
-1.235, -6.010e-6
-1.234, -6.010e-6
-1.233, -6.010e-6
-1.232, -6.010e-6
-1.231, -6.010e-6
-1.230, -6.010e-6
-1.229, -6.010e-6
-1.228, -6.010e-6
-1.227, -6.010e-6
-1.226, -6.010e-6
-1.225, -6.010e-6
-1.224, -6.010e-6
-1.223, -6.010e-6
-1.222, -6.010e-6
-1.221, -6.010e-6
-1.220, -6.010e-6
-1.219, -6.010e-6
-1.218, -6.010e-6
-1.217, -6.010e-6
-1.216, -6.010e-6
-1.215, -6.010e-6
-1.214, -6.010e-6
-1.213, -6.010e-6
-1.212, -6.010e-6
-1.211, -6.010e-6
-1.210, -6.010e-6
-1.209, -6.010e-6
-1.208, -6.010e-6
-1.207, -6.010e-6
-1.206, -6.010e-6
-1.205, -6.010e-6
-1.204, -6.010e-6
-1.203, -6.010e-6
-1.202, -6.010e-6
-1.201, -6.010e-6
-1.200, -6.010e-6
-1.199, -6.010e-6
-1.198, -6.010e-6
-1.197, -6.010e-6
-1.196, -6.010e-6
-1.195, -6.010e-6
-1.194, -6.010e-6
-1.193, -6.010e-6
-1.192, -6.010e-6
-1.191, -6.010e-6
-1.190, -6.010e-6
-1.189, -6.010e-6
-1.188, -6.010e-6
-1.187, -6.010e-6
-1.186, -6.010e-6
-1.185, -6.010e-6
-1.184, -6.010e-6
-1.183, -6.010e-6
-1.182, -6.010e-6
-1.181, -6.010e-6
-1.180, -6.010e-6
-1.179, -6.010e-6
-1.178, -6.010e-6
-1.177, -6.010e-6
-1.176, -6.010e-6
-1.175, -6.010e-6
-1.174, -6.010e-6
-1.173, -6.010e-6
-1.172, -6.010e-6
-1.171, -6.010e-6
-1.170, -6.010e-6
-1.169, -6.010e-6
-1.168, -6.010e-6
-1.167, -6.010e-6
-1.166, -2.927e-6
-1.165, -6.010e-6
-1.164, -6.010e-6
-1.163, -6.010e-6
-1.162, -6.010e-6
-1.161, -6.010e-6
-1.160, -6.010e-6
-1.159, -6.010e-6
-1.158, -6.010e-6
-1.157, -6.010e-6
-1.156, -6.010e-6
-1.155, -6.010e-6
-1.154, -6.010e-6
-1.153, -6.010e-6
-1.152, -6.010e-6
-1.151, -6.010e-6
-1.150, -6.010e-6
-1.149, -6.010e-6
-1.148, -6.010e-6
-1.147, -6.010e-6
-1.146, -6.010e-6
-1.145, -6.010e-6
-1.144, -6.010e-6
-1.143, -6.010e-6
-1.142, -6.010e-6
-1.141, -6.010e-6
-1.140, -6.010e-6
-1.139, -6.010e-6
-1.138, -6.010e-6
-1.137, -6.010e-6
-1.136, -6.010e-6
-1.135, -6.010e-6
-1.134, -6.010e-6
-1.133, -6.010e-6
-1.132, -6.010e-6
-1.131, -6.010e-6
-1.130, -6.010e-6
-1.129, -6.010e-6
-1.128, -6.010e-6
-1.127, -6.010e-6
-1.126, -6.010e-6
-1.125, -6.010e-6
-1.124, -6.010e-6
-1.123, -6.010e-6
-1.122, -6.010e-6
-1.121, -6.010e-6
-1.120, -6.010e-6
-1.119, -6.010e-6
-1.118, -6.010e-6
-1.117, -6.010e-6
-1.116, -6.010e-6
-1.115, -6.010e-6
-1.114, -6.010e-6
-1.113, -6.010e-6
-1.112, -6.010e-6
-1.111, -6.010e-6
-1.110, -6.010e-6
-1.109, -6.010e-6
-1.108, -6.010e-6
-1.107, -6.010e-6
-1.106, -6.010e-6
-1.105, -6.010e-6
-1.104, -6.010e-6
-1.103, -6.010e-6
-1.102, -6.010e-6
-1.101, -6.010e-6
-1.100, -6.010e-6
-1.099, -6.010e-6
-1.098, -6.010e-6
-1.097, -6.010e-6
-1.096, -6.010e-6
-1.095, -6.010e-6
-1.094, -6.010e-6
-1.093, -6.010e-6
-1.092, -6.010e-6
-1.091, -6.010e-6
-1.090, -6.010e-6
-1.089, -6.010e-6
-1.088, -6.010e-6
-1.087, -6.010e-6
-1.086, -6.010e-6
-1.085, -6.010e-6
-1.084, -6.010e-6
-1.083, -6.010e-6
-1.082, -6.010e-6
-1.081, -6.010e-6
-1.080, -6.010e-6
-1.079, -6.010e-6
-1.078, -6.010e-6
-1.077, -6.010e-6
-1.076, -6.010e-6
-1.075, -6.010e-6
-1.074, -6.010e-6
-1.073, -6.010e-6
-1.072, -6.010e-6
-1.071, -6.010e-6
-1.070, -6.010e-6
-1.069, -6.010e-6
-1.068, -6.010e-6
-1.067, -6.010e-6
-1.066, -6.010e-6
-1.065, -6.010e-6
-1.064, -6.010e-6
-1.063, -6.010e-6
-1.062, -6.010e-6
-1.061, -6.010e-6
-1.060, -6.010e-6
-1.059, -6.010e-6
-1.058, -6.010e-6
-1.057, -6.010e-6
-1.056, -6.010e-6
-1.055, -6.010e-6
-1.054, -6.010e-6
-1.053, -6.010e-6
-1.052, -6.010e-6
-1.051, -6.010e-6
-1.050, -6.010e-6
-1.049, -6.010e-6
-1.048, -6.010e-6
-1.047, -9.093e-6
-1.046, -6.010e-6
-1.045, -6.010e-6
-1.044, -6.010e-6
-1.043, -6.010e-6
-1.042, -6.010e-6
-1.041, -6.010e-6
-1.040, -6.010e-6
-1.039, -6.010e-6
-1.038, -6.010e-6
-1.037, -6.010e-6
-1.036, -6.010e-6
-1.035, -6.010e-6
-1.034, -6.010e-6
-1.033, -6.010e-6
-1.032, -6.010e-6
-1.031, -6.010e-6
-1.030, -6.010e-6
-1.029, -6.010e-6
-1.028, -6.010e-6
-1.027, -6.010e-6
-1.026, -6.010e-6
-1.025, -6.010e-6
-1.024, -6.010e-6
-1.023, -6.010e-6
-1.022, -9.093e-6
-1.021, -6.010e-6
-1.020, -6.010e-6
-1.019, -6.010e-6
-1.018, -6.010e-6
-1.017, -6.010e-6
-1.016, -6.010e-6
-1.015, -6.010e-6
-1.014, -6.010e-6
-1.013, -6.010e-6
-1.012, -6.010e-6
-1.011, -6.010e-6
-1.010, -6.010e-6
-1.009, -6.010e-6
-1.008, -6.010e-6
-1.007, -6.010e-6
-1.006, -6.010e-6
-1.005, -6.010e-6
-1.004, -6.010e-6
-1.003, -6.010e-6
-1.002, -9.093e-6
-1.001, -6.010e-6
