Sept. 10, 2024   20:47:11
Cyclic Voltammetry
File: c:/users/guazh/data/20240903_batch_252_500/2024-09-03-exp318\exp318-2024-09-10t20_24_14-arkoh\exp318_cv_sr_50mvs_efin_-2000mv.bin
Data Source:  Experiment
Instrument Model:  CHI760E
Header: CV ran at 50 mVs
Note: 

Init E (V) = -1
High E (V) = -1
Low E (V) = -2
Final E (V) = -1
Init P/N = N
Scan Rate (V/s) = 0.05
Segment = 3
Sample Interval (V) = 0.001
Quiet Time (sec) = 2
Sensitivity (A/V) = 0.01
Comp R (ohm) = 2.3

Results:

Channel 1:
Segment 1:

Segment 2:

Segment 3:

Potential/V, Current/A

-1.000, 4.716e-7
-1.001, 6.196e-7
-1.002, 5.505e-7
-1.003, 6.689e-7
-1.004, 5.900e-7
-1.005, 6.393e-7
-1.006, 6.689e-7
-1.007, 6.393e-7
-1.008, 6.196e-7
-1.009, 6.886e-7
-1.010, 6.590e-7
-1.011, 7.774e-7
-1.012, 7.182e-7
-1.013, 7.380e-7
-1.014, 7.676e-7
-1.015, 7.380e-7
-1.016, 7.281e-7
-1.017, 7.182e-7
-1.018, 7.380e-7
-1.019, 7.577e-7
-1.020, 7.281e-7
-1.021, 8.070e-7
-1.022, 6.985e-7
-1.023, 6.886e-7
-1.024, 8.169e-7
-1.025, 8.366e-7
-1.026, 7.873e-7
-1.027, 8.958e-7
-1.028, 9.057e-7
-1.029, 7.972e-7
-1.030, 8.070e-7
-1.031, 7.972e-7
-1.032, 7.478e-7
-1.033, 7.873e-7
-1.034, 8.366e-7
-1.035, 8.465e-7
-1.036, 8.662e-7
-1.037, 7.774e-7
-1.038, 8.564e-7
-1.039, 8.860e-7
-1.040, 8.860e-7
-1.041, 9.452e-7
-1.042, 8.268e-7
-1.043, 9.254e-7
-1.044, 8.860e-7
-1.045, 8.860e-7
-1.046, 9.353e-7
-1.047, 8.366e-7
-1.048, 8.761e-7
-1.049, 9.057e-7
-1.050, 9.846e-7
-1.051, 9.945e-7
-1.052, 9.353e-7
-1.053, 1.034e-6
-1.054, 9.550e-7
-1.055, 9.945e-7
-1.056, 1.004e-6
-1.057, 8.860e-7
-1.058, 9.748e-7
-1.059, 1.014e-6
-1.060, 9.057e-7
-1.061, 9.748e-7
-1.062, 9.254e-7
-1.063, 1.054e-6
-1.064, 9.846e-7
-1.065, 1.014e-6
-1.066, 1.024e-6
-1.067, 1.014e-6
-1.068, 1.054e-6
-1.069, 1.014e-6
-1.070, 9.748e-7
-1.071, 9.846e-7
-1.072, 9.353e-7
-1.073, 9.156e-7
-1.074, 9.748e-7
-1.075, 1.014e-6
-1.076, 1.054e-6
-1.077, 9.452e-7
-1.078, 1.064e-6
-1.079, 1.024e-6
-1.080, 9.945e-7
-1.081, 1.054e-6
-1.082, 9.254e-7
-1.083, 1.064e-6
-1.084, 1.014e-6
-1.085, 1.014e-6
-1.086, 1.004e-6
-1.087, 8.761e-7
-1.088, 1.123e-6
-1.089, 1.093e-6
-1.090, 1.093e-6
-1.091, 1.044e-6
-1.092, 9.748e-7
-1.093, 9.846e-7
-1.094, 1.034e-6
-1.095, 1.093e-6
-1.096, 1.083e-6
-1.097, 1.093e-6
-1.098, 1.014e-6
-1.099, 1.073e-6
-1.100, 1.044e-6
-1.101, 1.152e-6
-1.102, 1.004e-6
-1.103, 1.113e-6
-1.104, 1.182e-6
-1.105, 1.113e-6
-1.106, 1.054e-6
-1.107, 1.024e-6
-1.108, 1.054e-6
-1.109, 1.064e-6
-1.110, 1.093e-6
-1.111, 1.113e-6
-1.112, 1.034e-6
-1.113, 1.093e-6
-1.114, 1.212e-6
-1.115, 1.162e-6
-1.116, 1.103e-6
-1.117, 1.054e-6
-1.118, 1.103e-6
-1.119, 1.064e-6
-1.120, 1.133e-6
-1.121, 1.231e-6
-1.122, 1.093e-6
-1.123, 1.004e-6
-1.124, 1.103e-6
-1.125, 1.123e-6
-1.126, 1.152e-6
-1.127, 1.152e-6
-1.128, 1.202e-6
-1.129, 1.152e-6
-1.130, 1.162e-6
-1.131, 1.261e-6
-1.132, 1.044e-6
-1.133, 1.182e-6
-1.134, 1.142e-6
-1.135, 1.103e-6
-1.136, 1.113e-6
-1.137, 1.044e-6
-1.138, 1.093e-6
-1.139, 1.133e-6
-1.140, 1.093e-6
-1.141, 1.142e-6
-1.142, 1.123e-6
-1.143, 1.241e-6
-1.144, 1.162e-6
-1.145, 1.182e-6
-1.146, 1.271e-6
-1.147, 1.142e-6
-1.148, 1.172e-6
-1.149, 1.192e-6
-1.150, 1.123e-6
-1.151, 1.113e-6
-1.152, 1.192e-6
-1.153, 1.221e-6
-1.154, 1.162e-6
-1.155, 1.202e-6
-1.156, 1.271e-6
-1.157, 1.083e-6
-1.158, 1.162e-6
-1.159, 1.182e-6
-1.160, 1.192e-6
-1.161, 1.212e-6
-1.162, 1.221e-6
-1.163, 1.162e-6
-1.164, 1.192e-6
-1.165, 1.192e-6
-1.166, 1.369e-6
-1.167, 1.202e-6
-1.168, 1.212e-6
-1.169, 1.182e-6
-1.170, 1.142e-6
-1.171, 1.221e-6
-1.172, 1.221e-6
-1.173, 1.182e-6
-1.174, 1.162e-6
-1.175, 1.054e-6
-1.176, 1.241e-6
-1.177, 1.152e-6
-1.178, 1.281e-6
-1.179, 1.251e-6
-1.180, 1.152e-6
-1.181, 1.300e-6
-1.182, 1.241e-6
-1.183, 1.221e-6
-1.184, 1.281e-6
-1.185, 1.261e-6
-1.186, 1.251e-6
-1.187, 1.182e-6
-1.188, 1.192e-6
-1.189, 1.212e-6
-1.190, 1.152e-6
-1.191, 1.261e-6
-1.192, 1.241e-6
-1.193, 1.231e-6
-1.194, 1.162e-6
-1.195, 1.202e-6
-1.196, 1.182e-6
-1.197, 1.300e-6
-1.198, 1.290e-6
-1.199, 1.281e-6
-1.200, 1.182e-6
-1.201, 1.241e-6
-1.202, 1.221e-6
-1.203, 1.281e-6
-1.204, 1.290e-6
-1.205, 1.320e-6
-1.206, 1.350e-6
-1.207, 1.202e-6
-1.208, 1.241e-6
-1.209, 1.261e-6
-1.210, 1.251e-6
-1.211, 1.320e-6
-1.212, 1.202e-6
-1.213, 1.281e-6
-1.214, 1.271e-6
-1.215, 1.271e-6
-1.216, 1.310e-6
-1.217, 1.281e-6
-1.218, 1.231e-6
-1.219, 1.241e-6
-1.220, 1.212e-6
-1.221, 1.310e-6
-1.222, 1.192e-6
-1.223, 1.251e-6
-1.224, 1.261e-6
-1.225, 1.251e-6
-1.226, 1.350e-6
-1.227, 1.212e-6
-1.228, 1.241e-6
-1.229, 1.350e-6
-1.230, 1.409e-6
-1.231, 1.409e-6
-1.232, 1.330e-6
-1.233, 1.369e-6
-1.234, 1.320e-6
-1.235, 1.281e-6
-1.236, 1.340e-6
-1.237, 1.300e-6
-1.238, 1.340e-6
-1.239, 1.379e-6
-1.240, 1.350e-6
-1.241, 1.261e-6
-1.242, 1.281e-6
-1.243, 1.350e-6
-1.244, 1.429e-6
-1.245, 1.320e-6
-1.246, 1.369e-6
-1.247, 1.251e-6
-1.248, 1.399e-6
-1.249, 1.310e-6
-1.250, 1.360e-6
-1.251, 1.369e-6
-1.252, 1.310e-6
-1.253, 1.310e-6
-1.254, 1.290e-6
-1.255, 1.290e-6
-1.256, 1.330e-6
-1.257, 1.369e-6
-1.258, 1.399e-6
-1.259, 1.360e-6
-1.260, 1.379e-6
-1.261, 1.340e-6
-1.262, 1.350e-6
-1.263, 1.369e-6
-1.264, 1.330e-6
-1.265, 1.399e-6
-1.266, 1.399e-6
-1.267, 1.379e-6
-1.268, 1.429e-6
-1.269, 1.350e-6
-1.270, 1.369e-6
-1.271, 1.399e-6
-1.272, 1.369e-6
-1.273, 1.340e-6
-1.274, 1.369e-6
-1.275, 1.350e-6
-1.276, 1.369e-6
-1.277, 1.409e-6
-1.278, 1.350e-6
-1.279, 1.310e-6
-1.280, 1.389e-6
-1.281, 1.468e-6
-1.282, 1.399e-6
-1.283, 1.379e-6
-1.284, 1.369e-6
-1.285, 1.409e-6
-1.286, 1.488e-6
-1.287, 1.488e-6
-1.288, 1.360e-6
-1.289, 1.389e-6
-1.290, 1.360e-6
-1.291, 1.478e-6
-1.292, 1.369e-6
-1.293, 1.438e-6
-1.294, 1.389e-6
-1.295, 1.399e-6
-1.296, 1.458e-6
-1.297, 1.488e-6
-1.298, 1.409e-6
-1.299, 1.399e-6
-1.300, 1.547e-6
-1.301, 1.438e-6
-1.302, 1.419e-6
-1.303, 1.360e-6
-1.304, 1.330e-6
-1.305, 1.438e-6
-1.306, 1.468e-6
-1.307, 1.448e-6
-1.308, 1.429e-6
-1.309, 1.409e-6
-1.310, 1.389e-6
-1.311, 1.478e-6
-1.312, 1.389e-6
-1.313, 1.527e-6
-1.314, 1.438e-6
-1.315, 1.389e-6
-1.316, 1.508e-6
-1.317, 1.419e-6
-1.318, 1.527e-6
-1.319, 1.468e-6
-1.320, 1.468e-6
-1.321, 1.458e-6
-1.322, 1.399e-6
-1.323, 1.498e-6
-1.324, 1.468e-6
-1.325, 1.458e-6
-1.326, 1.557e-6
-1.327, 1.498e-6
-1.328, 1.468e-6
-1.329, 1.448e-6
-1.330, 1.488e-6
-1.331, 1.498e-6
-1.332, 1.577e-6
-1.333, 1.557e-6
-1.334, 1.508e-6
-1.335, 1.448e-6
-1.336, 1.537e-6
-1.337, 1.478e-6
-1.338, 1.527e-6
-1.339, 1.498e-6
-1.340, 1.508e-6
-1.341, 1.508e-6
-1.342, 1.488e-6
-1.343, 1.547e-6
-1.344, 1.527e-6
-1.345, 1.586e-6
-1.346, 1.665e-6
-1.347, 1.557e-6
-1.348, 1.577e-6
-1.349, 1.577e-6
-1.350, 1.577e-6
-1.351, 1.596e-6
-1.352, 1.419e-6
-1.353, 1.557e-6
-1.354, 1.508e-6
-1.355, 1.537e-6
-1.356, 1.557e-6
-1.357, 1.636e-6
-1.358, 1.596e-6
-1.359, 1.537e-6
-1.360, 1.547e-6
-1.361, 1.646e-6
-1.362, 1.626e-6
-1.363, 1.596e-6
-1.364, 1.577e-6
-1.365, 1.577e-6
-1.366, 1.646e-6
-1.367, 1.517e-6
-1.368, 1.567e-6
-1.369, 1.567e-6
-1.370, 1.636e-6
-1.371, 1.685e-6
-1.372, 1.606e-6
-1.373, 1.586e-6
-1.374, 1.577e-6
-1.375, 1.646e-6
-1.376, 1.626e-6
-1.377, 1.646e-6
-1.378, 1.547e-6
-1.379, 1.626e-6
-1.380, 1.577e-6
-1.381, 1.626e-6
-1.382, 1.508e-6
-1.383, 1.675e-6
-1.384, 1.567e-6
-1.385, 1.646e-6
-1.386, 1.705e-6
-1.387, 1.636e-6
-1.388, 1.685e-6
-1.389, 1.606e-6
-1.390, 1.606e-6
-1.391, 1.685e-6
-1.392, 1.577e-6
-1.393, 1.685e-6
-1.394, 1.705e-6
-1.395, 1.725e-6
-1.396, 1.656e-6
-1.397, 1.675e-6
-1.398, 1.705e-6
-1.399, 1.665e-6
-1.400, 1.636e-6
-1.401, 1.734e-6
-1.402, 1.636e-6
-1.403, 1.636e-6
-1.404, 1.734e-6
-1.405, 1.725e-6
-1.406, 1.715e-6
-1.407, 1.636e-6
-1.408, 1.764e-6
-1.409, 1.725e-6
-1.410, 1.725e-6
-1.411, 1.803e-6
-1.412, 1.705e-6
-1.413, 1.744e-6
-1.414, 1.705e-6
-1.415, 1.734e-6
-1.416, 1.794e-6
-1.417, 1.734e-6
-1.418, 1.715e-6
-1.419, 1.803e-6
-1.420, 1.744e-6
-1.421, 1.813e-6
-1.422, 1.725e-6
-1.423, 1.803e-6
-1.424, 1.725e-6
-1.425, 1.784e-6
-1.426, 1.833e-6
-1.427, 1.734e-6
-1.428, 1.833e-6
-1.429, 1.764e-6
-1.430, 1.843e-6
-1.431, 1.794e-6
-1.432, 1.823e-6
-1.433, 1.784e-6
-1.434, 1.912e-6
-1.435, 1.981e-6
-1.436, 1.991e-6
-1.437, 1.942e-6
-1.438, 1.942e-6
-1.439, 1.833e-6
-1.440, 1.971e-6
-1.441, 1.961e-6
-1.442, 1.981e-6
-1.443, 2.011e-6
-1.444, 2.001e-6
-1.445, 1.961e-6
-1.446, 1.971e-6
-1.447, 1.971e-6
-1.448, 2.001e-6
-1.449, 2.021e-6
-1.450, 1.942e-6
-1.451, 2.001e-6
-1.452, 1.981e-6
-1.453, 2.119e-6
-1.454, 2.080e-6
-1.455, 2.050e-6
-1.456, 2.119e-6
-1.457, 2.050e-6
-1.458, 2.109e-6
-1.459, 2.188e-6
-1.460, 2.178e-6
-1.461, 2.099e-6
-1.462, 2.129e-6
-1.463, 2.218e-6
-1.464, 2.159e-6
-1.465, 2.257e-6
-1.466, 2.238e-6
-1.467, 2.238e-6
-1.468, 2.228e-6
-1.469, 2.257e-6
-1.470, 2.198e-6
-1.471, 2.198e-6
-1.472, 2.287e-6
-1.473, 2.307e-6
-1.474, 2.277e-6
-1.475, 2.247e-6
-1.476, 2.346e-6
-1.477, 2.218e-6
-1.478, 2.346e-6
-1.479, 2.366e-6
-1.480, 2.494e-6
-1.481, 2.573e-6
-1.482, 2.326e-6
-1.483, 2.474e-6
-1.484, 2.425e-6
-1.485, 2.524e-6
-1.486, 2.583e-6
-1.487, 2.484e-6
-1.488, 2.652e-6
-1.489, 2.534e-6
-1.490, 2.613e-6
-1.491, 2.691e-6
-1.492, 2.751e-6
-1.493, 2.701e-6
-1.494, 2.701e-6
-1.495, 2.751e-6
-1.496, 2.790e-6
-1.497, 2.672e-6
-1.498, 2.810e-6
-1.499, 2.859e-6
-1.500, 2.928e-6
-1.501, 2.928e-6
-1.502, 2.938e-6
-1.503, 2.918e-6
-1.504, 2.948e-6
-1.505, 3.017e-6
-1.506, 3.135e-6
-1.507, 3.106e-6
-1.508, 3.155e-6
-1.509, 3.175e-6
-1.510, 3.145e-6
-1.511, 3.333e-6
-1.512, 3.234e-6
-1.513, 3.352e-6
-1.514, 3.323e-6
-1.515, 3.382e-6
-1.516, 3.441e-6
-1.517, 3.471e-6
-1.518, 3.510e-6
-1.519, 3.500e-6
-1.520, 3.540e-6
-1.521, 3.629e-6
-1.522, 3.570e-6
-1.523, 3.668e-6
-1.524, 3.806e-6
-1.525, 3.905e-6
-1.526, 3.935e-6
-1.527, 4.004e-6
-1.528, 4.112e-6
-1.529, 4.004e-6
-1.530, 4.260e-6
-1.531, 4.339e-6
-1.532, 4.132e-6
-1.533, 4.418e-6
-1.534, 4.398e-6
-1.535, 4.388e-6
-1.536, 4.487e-6
-1.537, 4.655e-6
-1.538, 4.655e-6
-1.539, 4.753e-6
-1.540, 4.901e-6
-1.541, 4.862e-6
-1.542, 4.941e-6
-1.543, 5.118e-6
-1.544, 5.049e-6
-1.545, 5.168e-6
-1.546, 5.365e-6
-1.547, 5.316e-6
-1.548, 5.454e-6
-1.549, 5.562e-6
-1.550, 5.543e-6
-1.551, 5.671e-6
-1.552, 5.730e-6
-1.553, 5.809e-6
-1.554, 5.967e-6
-1.555, 6.105e-6
-1.556, 6.243e-6
-1.557, 6.223e-6
-1.558, 6.401e-6
-1.559, 6.500e-6
-1.560, 6.490e-6
-1.561, 6.618e-6
-1.562, 6.707e-6
-1.563, 6.825e-6
-1.564, 6.865e-6
-1.565, 7.102e-6
-1.566, 7.161e-6
-1.567, 7.319e-6
-1.568, 7.378e-6
-1.569, 7.467e-6
-1.570, 7.634e-6
-1.571, 7.782e-6
-1.572, 7.901e-6
-1.573, 8.049e-6
-1.574, 8.088e-6
-1.575, 8.345e-6
-1.576, 8.463e-6
-1.577, 8.621e-6
-1.578, 8.729e-6
-1.579, 8.779e-6
-1.580, 8.907e-6
-1.581, 9.104e-6
-1.582, 9.252e-6
-1.583, 9.538e-6
-1.584, 9.607e-6
-1.585, 9.795e-6
-1.586, 9.943e-6
-1.587, 1.011e-5
-1.588, 1.037e-5
-1.589, 1.048e-5
-1.590, 1.059e-5
-1.591, 1.086e-5
-1.592, 1.092e-5
-1.593, 1.118e-5
-1.594, 1.131e-5
-1.595, 1.145e-5
-1.596, 1.174e-5
-1.597, 1.181e-5
-1.598, 1.205e-5
-1.599, 1.230e-5
-1.600, 1.260e-5
-1.601, 1.288e-5
-1.602, 1.304e-5
-1.603, 1.330e-5
-1.604, 1.346e-5
-1.605, 1.376e-5
-1.606, 1.392e-5
-1.607, 1.414e-5
-1.608, 1.440e-5
-1.609, 1.462e-5
-1.610, 1.492e-5
-1.611, 1.522e-5
-1.612, 1.538e-5
-1.613, 1.577e-5
-1.614, 1.603e-5
-1.615, 1.630e-5
-1.616, 1.659e-5
-1.617, 1.680e-5
-1.618, 1.723e-5
-1.619, 1.752e-5
-1.620, 1.782e-5
-1.621, 1.810e-5
-1.622, 1.842e-5
-1.623, 1.884e-5
-1.624, 1.904e-5
-1.625, 1.938e-5
-1.626, 1.975e-5
-1.627, 1.995e-5
-1.628, 2.035e-5
-1.629, 2.079e-5
-1.630, 2.111e-5
-1.631, 2.159e-5
-1.632, 2.199e-5
-1.633, 2.238e-5
-1.634, 2.278e-5
-1.635, 2.320e-5
-1.636, 2.365e-5
-1.637, 2.397e-5
-1.638, 2.455e-5
-1.639, 2.507e-5
-1.640, 2.545e-5
-1.641, 2.597e-5
-1.642, 2.635e-5
-1.643, 2.694e-5
-1.644, 2.737e-5
-1.645, 2.787e-5
-1.646, 2.845e-5
-1.647, 2.889e-5
-1.648, 2.943e-5
-1.649, 2.989e-5
-1.650, 3.051e-5
-1.651, 3.111e-5
-1.652, 3.166e-5
-1.653, 3.225e-5
-1.654, 3.269e-5
-1.655, 3.337e-5
-1.656, 3.392e-5
-1.657, 3.470e-5
-1.658, 3.520e-5
-1.659, 3.580e-5
-1.660, 3.636e-5
-1.661, 3.711e-5
-1.662, 3.784e-5
-1.663, 3.854e-5
-1.664, 3.925e-5
-1.665, 3.999e-5
-1.666, 4.086e-5
-1.667, 4.140e-5
-1.668, 4.226e-5
-1.669, 4.286e-5
-1.670, 4.374e-5
-1.671, 4.442e-5
-1.672, 4.526e-5
-1.673, 4.606e-5
-1.674, 4.692e-5
-1.675, 4.773e-5
-1.676, 4.862e-5
-1.677, 4.953e-5
-1.678, 5.048e-5
-1.679, 5.143e-5
-1.680, 5.237e-5
-1.681, 5.329e-5
-1.682, 5.419e-5
-1.683, 5.528e-5
-1.684, 5.621e-5
-1.685, 5.721e-5
-1.686, 5.826e-5
-1.687, 5.925e-5
-1.688, 6.044e-5
-1.689, 6.145e-5
-1.690, 6.260e-5
-1.691, 6.378e-5
-1.692, 6.486e-5
-1.693, 6.608e-5
-1.694, 6.730e-5
-1.695, 6.853e-5
-1.696, 6.983e-5
-1.697, 7.114e-5
-1.698, 7.248e-5
-1.699, 7.375e-5
-1.700, 7.505e-5
-1.701, 7.647e-5
-1.702, 7.789e-5
-1.703, 7.924e-5
-1.704, 8.055e-5
-1.705, 8.202e-5
-1.706, 8.359e-5
-1.707, 8.505e-5
-1.708, 8.658e-5
-1.709, 8.825e-5
-1.710, 8.971e-5
-1.711, 9.144e-5
-1.712, 9.313e-5
-1.713, 9.501e-5
-1.714, 9.667e-5
-1.715, 9.849e-5
-1.716, 1.005e-4
-1.717, 1.023e-4
-1.718, 1.041e-4
-1.719, 1.060e-4
-1.720, 1.079e-4
-1.721, 1.100e-4
-1.722, 1.119e-4
-1.723, 1.140e-4
-1.724, 1.161e-4
-1.725, 1.181e-4
-1.726, 1.204e-4
-1.727, 1.226e-4
-1.728, 1.249e-4
-1.729, 1.272e-4
-1.730, 1.297e-4
-1.731, 1.321e-4
-1.732, 1.344e-4
-1.733, 1.368e-4
-1.734, 1.394e-4
-1.735, 1.421e-4
-1.736, 1.447e-4
-1.737, 1.474e-4
-1.738, 1.502e-4
-1.739, 1.529e-4
-1.740, 1.557e-4
-1.741, 1.588e-4
-1.742, 1.616e-4
-1.743, 1.647e-4
-1.744, 1.677e-4
-1.745, 1.709e-4
-1.746, 1.741e-4
-1.747, 1.774e-4
-1.748, 1.808e-4
-1.749, 1.841e-4
-1.750, 1.875e-4
-1.751, 1.911e-4
-1.752, 1.945e-4
-1.753, 1.983e-4
-1.754, 2.020e-4
-1.755, 2.059e-4
-1.756, 2.097e-4
-1.757, 2.136e-4
-1.758, 2.179e-4
-1.759, 2.219e-4
-1.760, 2.262e-4
-1.761, 2.302e-4
-1.762, 2.341e-4
-1.763, 2.382e-4
-1.764, 2.426e-4
-1.765, 2.470e-4
-1.766, 2.519e-4
-1.767, 2.564e-4
-1.768, 2.613e-4
-1.769, 2.669e-4
-1.770, 2.725e-4
-1.771, 2.776e-4
-1.772, 2.829e-4
-1.773, 2.884e-4
-1.774, 2.940e-4
-1.775, 2.997e-4
-1.776, 3.056e-4
-1.777, 3.116e-4
-1.778, 3.173e-4
-1.779, 3.235e-4
-1.780, 3.298e-4
-1.781, 3.359e-4
-1.782, 3.421e-4
-1.783, 3.488e-4
-1.784, 3.557e-4
-1.785, 3.628e-4
-1.786, 3.700e-4
-1.787, 3.773e-4
-1.788, 3.846e-4
-1.789, 3.919e-4
-1.790, 3.992e-4
-1.791, 4.065e-4
-1.792, 4.131e-4
-1.793, 4.204e-4
-1.794, 4.279e-4
-1.795, 4.360e-4
-1.796, 4.444e-4
-1.797, 4.528e-4
-1.798, 4.628e-4
-1.799, 4.737e-4
-1.800, 4.828e-4
-1.801, 4.926e-4
-1.802, 5.023e-4
-1.803, 5.122e-4
-1.804, 5.224e-4
-1.805, 5.327e-4
-1.806, 5.436e-4
-1.807, 5.538e-4
-1.808, 5.645e-4
-1.809, 5.749e-4
-1.810, 5.846e-4
-1.811, 5.931e-4
-1.812, 6.036e-4
-1.813, 6.152e-4
-1.814, 6.277e-4
-1.815, 6.433e-4
-1.816, 6.565e-4
-1.817, 6.696e-4
-1.818, 6.826e-4
-1.819, 6.957e-4
-1.820, 7.096e-4
-1.821, 7.232e-4
-1.822, 7.381e-4
-1.823, 7.527e-4
-1.824, 7.670e-4
-1.825, 7.787e-4
-1.826, 7.929e-4
-1.827, 8.062e-4
-1.828, 8.223e-4
-1.829, 8.402e-4
-1.830, 8.568e-4
-1.831, 8.736e-4
-1.832, 8.908e-4
-1.833, 9.078e-4
-1.834, 9.255e-4
-1.835, 9.442e-4
-1.836, 9.639e-4
-1.837, 9.819e-4
-1.838, 1.002e-3
-1.839, 1.015e-3
-1.840, 1.025e-3
-1.841, 1.040e-3
-1.842, 1.058e-3
-1.843, 1.077e-3
-1.844, 1.102e-3
-1.845, 1.130e-3
-1.846, 1.152e-3
-1.847, 1.174e-3
-1.848, 1.196e-3
-1.849, 1.217e-3
-1.850, 1.240e-3
-1.851, 1.263e-3
-1.852, 1.290e-3
-1.853, 1.312e-3
-1.854, 1.331e-3
-1.855, 1.353e-3
-1.856, 1.363e-3
-1.857, 1.378e-3
-1.858, 1.400e-3
-1.859, 1.434e-3
-1.860, 1.473e-3
-1.861, 1.501e-3
-1.862, 1.528e-3
-1.863, 1.554e-3
-1.864, 1.582e-3
-1.865, 1.613e-3
-1.866, 1.643e-3
-1.867, 1.672e-3
-1.868, 1.706e-3
-1.869, 1.728e-3
-1.870, 1.750e-3
-1.871, 1.774e-3
-1.872, 1.805e-3
-1.873, 1.835e-3
-1.874, 1.867e-3
-1.875, 1.898e-3
-1.876, 1.932e-3
-1.877, 1.966e-3
-1.878, 1.998e-3
-1.879, 2.028e-3
-1.880, 2.065e-3
-1.881, 2.099e-3
-1.882, 2.108e-3
-1.883, 2.111e-3
-1.884, 2.138e-3
-1.885, 2.169e-3
-1.886, 2.197e-3
-1.887, 2.221e-3
-1.888, 2.252e-3
-1.889, 2.305e-3
-1.890, 2.403e-3
-1.891, 2.442e-3
-1.892, 2.478e-3
-1.893, 2.514e-3
-1.894, 2.556e-3
-1.895, 2.598e-3
-1.896, 2.641e-3
-1.897, 2.684e-3
-1.898, 2.720e-3
-1.899, 2.752e-3
-1.900, 2.782e-3
-1.901, 2.816e-3
-1.902, 2.854e-3
-1.903, 2.891e-3
-1.904, 2.936e-3
-1.905, 2.982e-3
-1.906, 3.031e-3
-1.907, 3.078e-3
-1.908, 3.122e-3
-1.909, 3.166e-3
-1.910, 3.204e-3
-1.911, 3.251e-3
-1.912, 3.275e-3
-1.913, 3.303e-3
-1.914, 3.340e-3
-1.915, 3.374e-3
-1.916, 3.417e-3
-1.917, 3.462e-3
-1.918, 3.511e-3
-1.919, 3.568e-3
-1.920, 3.630e-3
-1.921, 3.686e-3
-1.922, 3.732e-3
-1.923, 3.773e-3
-1.924, 3.795e-3
-1.925, 3.795e-3
-1.926, 3.809e-3
-1.927, 3.829e-3
-1.928, 3.880e-3
-1.929, 3.976e-3
-1.930, 4.033e-3
-1.931, 4.087e-3
-1.932, 4.139e-3
-1.933, 4.193e-3
-1.934, 4.252e-3
-1.935, 4.305e-3
-1.936, 4.363e-3
-1.937, 4.422e-3
-1.938, 4.470e-3
-1.939, 4.480e-3
-1.940, 4.479e-3
-1.941, 4.464e-3
-1.942, 4.475e-3
-1.943, 4.514e-3
-1.944, 4.566e-3
-1.945, 4.701e-3
-1.946, 4.788e-3
-1.947, 4.852e-3
-1.948, 4.910e-3
-1.949, 4.967e-3
-1.950, 5.022e-3
-1.951, 5.091e-3
-1.952, 5.179e-3
-1.953, 5.250e-3
-1.954, 5.266e-3
-1.955, 5.308e-3
-1.956, 5.324e-3
-1.957, 5.319e-3
-1.958, 5.359e-3
-1.959, 5.428e-3
-1.960, 5.494e-3
-1.961, 5.560e-3
-1.962, 5.627e-3
-1.963, 5.689e-3
-1.964, 5.751e-3
-1.965, 5.810e-3
-1.966, 5.894e-3
-1.967, 5.944e-3
-1.968, 5.999e-3
-1.969, 6.005e-3
-1.970, 5.967e-3
-1.971, 5.912e-3
-1.972, 5.915e-3
-1.973, 5.954e-3
-1.974, 5.998e-3
-1.975, 6.121e-3
-1.976, 6.305e-3
-1.977, 6.391e-3
-1.978, 6.460e-3
-1.979, 6.524e-3
-1.980, 6.595e-3
-1.981, 6.658e-3
-1.982, 6.722e-3
-1.983, 6.826e-3
-1.984, 6.895e-3
-1.985, 6.913e-3
-1.986, 6.859e-3
-1.987, 6.874e-3
-1.988, 6.892e-3
-1.989, 6.974e-3
-1.990, 7.040e-3
-1.991, 7.103e-3
-1.992, 7.174e-3
-1.993, 7.236e-3
-1.994, 7.300e-3
-1.995, 7.355e-3
-1.996, 7.413e-3
-1.997, 7.498e-3
-1.998, 7.514e-3
-1.999, 7.492e-3
-2.000, 7.438e-3
-1.999, 7.318e-3
-1.998, 7.262e-3
-1.997, 7.204e-3
-1.996, 7.143e-3
-1.995, 7.102e-3
-1.994, 7.064e-3
-1.993, 7.022e-3
-1.992, 6.963e-3
-1.991, 6.904e-3
-1.990, 6.876e-3
-1.989, 6.809e-3
-1.988, 6.731e-3
-1.987, 6.555e-3
-1.986, 6.363e-3
-1.985, 6.233e-3
-1.984, 6.159e-3
-1.983, 6.095e-3
-1.982, 6.035e-3
-1.981, 5.991e-3
-1.980, 6.088e-3
-1.979, 6.099e-3
-1.978, 6.071e-3
-1.977, 6.033e-3
-1.976, 5.997e-3
-1.975, 5.970e-3
-1.974, 5.939e-3
-1.973, 5.870e-3
-1.972, 5.846e-3
-1.971, 5.792e-3
-1.970, 5.697e-3
-1.969, 5.618e-3
-1.968, 5.566e-3
-1.967, 5.509e-3
-1.966, 5.458e-3
-1.965, 5.430e-3
-1.964, 5.392e-3
-1.963, 5.364e-3
-1.962, 5.326e-3
-1.961, 5.291e-3
-1.960, 5.246e-3
-1.959, 5.247e-3
-1.958, 5.204e-3
-1.957, 5.133e-3
-1.956, 4.997e-3
-1.955, 4.910e-3
-1.954, 4.802e-3
-1.953, 4.733e-3
-1.952, 4.699e-3
-1.951, 4.762e-3
-1.950, 4.746e-3
-1.949, 4.732e-3
-1.948, 4.720e-3
-1.947, 4.688e-3
-1.946, 4.663e-3
-1.945, 4.634e-3
-1.944, 4.585e-3
-1.943, 4.556e-3
-1.942, 4.516e-3
-1.941, 4.442e-3
-1.940, 4.391e-3
-1.939, 4.342e-3
-1.938, 4.298e-3
-1.937, 4.265e-3
-1.936, 4.226e-3
-1.935, 4.184e-3
-1.934, 4.150e-3
-1.933, 4.117e-3
-1.932, 4.084e-3
-1.931, 4.049e-3
-1.930, 4.017e-3
-1.929, 3.973e-3
-1.928, 3.912e-3
-1.927, 3.871e-3
-1.926, 3.841e-3
-1.925, 3.804e-3
-1.924, 3.768e-3
-1.923, 3.732e-3
-1.922, 3.696e-3
-1.921, 3.663e-3
-1.920, 3.626e-3
-1.919, 3.595e-3
-1.918, 3.562e-3
-1.917, 3.515e-3
-1.916, 3.474e-3
-1.915, 3.441e-3
-1.914, 3.409e-3
-1.913, 3.376e-3
-1.912, 3.345e-3
-1.911, 3.316e-3
-1.910, 3.287e-3
-1.909, 3.257e-3
-1.908, 3.227e-3
-1.907, 3.197e-3
-1.906, 3.160e-3
-1.905, 3.097e-3
-1.904, 3.040e-3
-1.903, 2.972e-3
-1.902, 2.930e-3
-1.901, 2.889e-3
-1.900, 2.853e-3
-1.899, 2.818e-3
-1.898, 2.787e-3
-1.897, 2.755e-3
-1.896, 2.725e-3
-1.895, 2.748e-3
-1.894, 2.764e-3
-1.893, 2.731e-3
-1.892, 2.697e-3
-1.891, 2.673e-3
-1.890, 2.656e-3
-1.889, 2.634e-3
-1.888, 2.613e-3
-1.887, 2.586e-3
-1.886, 2.540e-3
-1.885, 2.499e-3
-1.884, 2.450e-3
-1.883, 2.423e-3
-1.882, 2.392e-3
-1.881, 2.363e-3
-1.880, 2.348e-3
-1.879, 2.329e-3
-1.878, 2.299e-3
-1.877, 2.275e-3
-1.876, 2.252e-3
-1.875, 2.230e-3
-1.874, 2.207e-3
-1.873, 2.182e-3
-1.872, 2.165e-3
-1.871, 2.133e-3
-1.870, 2.103e-3
-1.869, 2.062e-3
-1.868, 2.027e-3
-1.867, 1.999e-3
-1.866, 1.973e-3
-1.865, 1.961e-3
-1.864, 1.937e-3
-1.863, 1.916e-3
-1.862, 1.893e-3
-1.861, 1.871e-3
-1.860, 1.850e-3
-1.859, 1.831e-3
-1.858, 1.812e-3
-1.857, 1.784e-3
-1.856, 1.776e-3
-1.855, 1.750e-3
-1.854, 1.722e-3
-1.853, 1.701e-3
-1.852, 1.681e-3
-1.851, 1.662e-3
-1.850, 1.637e-3
-1.849, 1.614e-3
-1.848, 1.595e-3
-1.847, 1.573e-3
-1.846, 1.551e-3
-1.845, 1.532e-3
-1.844, 1.513e-3
-1.843, 1.495e-3
-1.842, 1.471e-3
-1.841, 1.447e-3
-1.840, 1.427e-3
-1.839, 1.408e-3
-1.838, 1.389e-3
-1.837, 1.372e-3
-1.836, 1.354e-3
-1.835, 1.337e-3
-1.834, 1.319e-3
-1.833, 1.304e-3
-1.832, 1.286e-3
-1.831, 1.268e-3
-1.830, 1.243e-3
-1.829, 1.218e-3
-1.828, 1.196e-3
-1.827, 1.179e-3
-1.826, 1.162e-3
-1.825, 1.146e-3
-1.824, 1.137e-3
-1.823, 1.128e-3
-1.822, 1.112e-3
-1.821, 1.095e-3
-1.820, 1.080e-3
-1.819, 1.065e-3
-1.818, 1.052e-3
-1.817, 1.039e-3
-1.816, 1.023e-3
-1.815, 1.010e-3
-1.814, 9.934e-4
-1.813, 9.772e-4
-1.812, 9.607e-4
-1.811, 9.472e-4
-1.810, 9.343e-4
-1.809, 9.212e-4
-1.808, 9.082e-4
-1.807, 8.951e-4
-1.806, 8.823e-4
-1.805, 8.703e-4
-1.804, 8.581e-4
-1.803, 8.471e-4
-1.802, 8.357e-4
-1.801, 8.236e-4
-1.800, 8.085e-4
-1.799, 7.935e-4
-1.798, 7.814e-4
-1.797, 7.710e-4
-1.796, 7.613e-4
-1.795, 7.501e-4
-1.794, 7.385e-4
-1.793, 7.274e-4
-1.792, 7.170e-4
-1.791, 7.071e-4
-1.790, 6.970e-4
-1.789, 6.865e-4
-1.788, 6.768e-4
-1.787, 6.668e-4
-1.786, 6.553e-4
-1.785, 6.447e-4
-1.784, 6.341e-4
-1.783, 6.246e-4
-1.782, 6.164e-4
-1.781, 6.071e-4
-1.780, 5.981e-4
-1.779, 5.888e-4
-1.778, 5.800e-4
-1.777, 5.714e-4
-1.776, 5.632e-4
-1.775, 5.553e-4
-1.774, 5.470e-4
-1.773, 5.385e-4
-1.772, 5.298e-4
-1.771, 5.199e-4
-1.770, 5.108e-4
-1.769, 5.026e-4
-1.768, 4.951e-4
-1.767, 4.879e-4
-1.766, 4.803e-4
-1.765, 4.728e-4
-1.764, 4.656e-4
-1.763, 4.604e-4
-1.762, 4.537e-4
-1.761, 4.461e-4
-1.760, 4.390e-4
-1.759, 4.321e-4
-1.758, 4.258e-4
-1.757, 4.196e-4
-1.756, 4.135e-4
-1.755, 4.078e-4
-1.754, 4.011e-4
-1.753, 3.947e-4
-1.752, 3.884e-4
-1.751, 3.819e-4
-1.750, 3.757e-4
-1.749, 3.704e-4
-1.748, 3.644e-4
-1.747, 3.587e-4
-1.746, 3.528e-4
-1.745, 3.470e-4
-1.744, 3.412e-4
-1.743, 3.359e-4
-1.742, 3.309e-4
-1.741, 3.259e-4
-1.740, 3.211e-4
-1.739, 3.158e-4
-1.738, 3.105e-4
-1.737, 3.051e-4
-1.736, 3.000e-4
-1.735, 2.955e-4
-1.734, 2.909e-4
-1.733, 2.862e-4
-1.732, 2.816e-4
-1.731, 2.771e-4
-1.730, 2.727e-4
-1.729, 2.684e-4
-1.728, 2.641e-4
-1.727, 2.601e-4
-1.726, 2.558e-4
-1.725, 2.516e-4
-1.724, 2.473e-4
-1.723, 2.431e-4
-1.722, 2.391e-4
-1.721, 2.351e-4
-1.720, 2.314e-4
-1.719, 2.278e-4
-1.718, 2.245e-4
-1.717, 2.210e-4
-1.716, 2.174e-4
-1.715, 2.137e-4
-1.714, 2.100e-4
-1.713, 2.066e-4
-1.712, 2.034e-4
-1.711, 2.002e-4
-1.710, 1.970e-4
-1.709, 1.938e-4
-1.708, 1.904e-4
-1.707, 1.873e-4
-1.706, 1.840e-4
-1.705, 1.810e-4
-1.704, 1.779e-4
-1.703, 1.751e-4
-1.702, 1.724e-4
-1.701, 1.695e-4
-1.700, 1.666e-4
-1.699, 1.637e-4
-1.698, 1.609e-4
-1.697, 1.583e-4
-1.696, 1.557e-4
-1.695, 1.533e-4
-1.694, 1.509e-4
-1.693, 1.483e-4
-1.692, 1.458e-4
-1.691, 1.434e-4
-1.690, 1.408e-4
-1.689, 1.384e-4
-1.688, 1.361e-4
-1.687, 1.339e-4
-1.686, 1.316e-4
-1.685, 1.295e-4
-1.684, 1.272e-4
-1.683, 1.251e-4
-1.682, 1.231e-4
-1.681, 1.210e-4
-1.680, 1.191e-4
-1.679, 1.171e-4
-1.678, 1.152e-4
-1.677, 1.131e-4
-1.676, 1.111e-4
-1.675, 1.095e-4
-1.674, 1.075e-4
-1.673, 1.057e-4
-1.672, 1.039e-4
-1.671, 1.022e-4
-1.670, 1.005e-4
-1.669, 9.880e-5
-1.668, 9.700e-5
-1.667, 9.534e-5
-1.666, 9.372e-5
-1.665, 9.214e-5
-1.664, 9.049e-5
-1.663, 8.907e-5
-1.662, 8.780e-5
-1.661, 8.630e-5
-1.660, 8.472e-5
-1.659, 8.314e-5
-1.658, 8.172e-5
-1.657, 8.034e-5
-1.656, 7.896e-5
-1.655, 7.764e-5
-1.654, 7.622e-5
-1.653, 7.486e-5
-1.652, 7.358e-5
-1.651, 7.220e-5
-1.650, 7.107e-5
-1.649, 6.980e-5
-1.648, 6.862e-5
-1.647, 6.754e-5
-1.646, 6.639e-5
-1.645, 6.514e-5
-1.644, 6.393e-5
-1.643, 6.286e-5
-1.642, 6.176e-5
-1.641, 6.071e-5
-1.640, 5.969e-5
-1.639, 5.849e-5
-1.638, 5.728e-5
-1.637, 5.629e-5
-1.636, 5.522e-5
-1.635, 5.441e-5
-1.634, 5.339e-5
-1.633, 5.248e-5
-1.632, 5.162e-5
-1.631, 5.066e-5
-1.630, 4.984e-5
-1.629, 4.880e-5
-1.628, 4.798e-5
-1.627, 4.720e-5
-1.626, 4.623e-5
-1.625, 4.543e-5
-1.624, 4.461e-5
-1.623, 4.368e-5
-1.622, 4.291e-5
-1.621, 4.218e-5
-1.620, 4.137e-5
-1.619, 4.065e-5
-1.618, 3.982e-5
-1.617, 3.920e-5
-1.616, 3.849e-5
-1.615, 3.783e-5
-1.614, 3.704e-5
-1.613, 3.633e-5
-1.612, 3.564e-5
-1.611, 3.497e-5
-1.610, 3.438e-5
-1.609, 3.368e-5
-1.608, 3.305e-5
-1.607, 3.244e-5
-1.606, 3.184e-5
-1.605, 3.128e-5
-1.604, 3.069e-5
-1.603, 3.008e-5
-1.602, 2.953e-5
-1.601, 2.891e-5
-1.600, 2.846e-5
-1.599, 2.790e-5
-1.598, 2.736e-5
-1.597, 2.676e-5
-1.596, 2.625e-5
-1.595, 2.586e-5
-1.594, 2.535e-5
-1.593, 2.482e-5
-1.592, 2.432e-5
-1.591, 2.371e-5
-1.590, 2.335e-5
-1.589, 2.298e-5
-1.588, 2.245e-5
-1.587, 2.208e-5
-1.586, 2.165e-5
-1.585, 2.122e-5
-1.584, 2.082e-5
-1.583, 2.043e-5
-1.582, 2.005e-5
-1.581, 1.962e-5
-1.580, 1.926e-5
-1.579, 1.877e-5
-1.578, 1.853e-5
-1.577, 1.816e-5
-1.576, 1.776e-5
-1.575, 1.744e-5
-1.574, 1.699e-5
-1.573, 1.676e-5
-1.572, 1.641e-5
-1.571, 1.601e-5
-1.570, 1.576e-5
-1.569, 1.545e-5
-1.568, 1.507e-5
-1.567, 1.484e-5
-1.566, 1.453e-5
-1.565, 1.425e-5
-1.564, 1.394e-5
-1.563, 1.367e-5
-1.562, 1.344e-5
-1.561, 1.319e-5
-1.560, 1.290e-5
-1.559, 1.262e-5
-1.558, 1.216e-5
-1.557, 1.214e-5
-1.556, 1.184e-5
-1.555, 1.169e-5
-1.554, 1.142e-5
-1.553, 1.131e-5
-1.552, 1.106e-5
-1.551, 1.068e-5
-1.550, 1.064e-5
-1.549, 1.033e-5
-1.548, 1.020e-5
-1.547, 1.006e-5
-1.546, 9.716e-6
-1.545, 9.637e-6
-1.544, 9.361e-6
-1.543, 9.144e-6
-1.542, 8.927e-6
-1.541, 8.720e-6
-1.540, 8.729e-6
-1.539, 8.414e-6
-1.538, 8.295e-6
-1.537, 8.049e-6
-1.536, 7.881e-6
-1.535, 7.802e-6
-1.534, 7.585e-6
-1.533, 7.506e-6
-1.532, 7.299e-6
-1.531, 7.151e-6
-1.530, 7.042e-6
-1.529, 6.904e-6
-1.528, 6.727e-6
-1.527, 6.638e-6
-1.526, 6.431e-6
-1.525, 6.411e-6
-1.524, 6.214e-6
-1.523, 6.046e-6
-1.522, 5.977e-6
-1.521, 5.799e-6
-1.520, 5.740e-6
-1.519, 5.523e-6
-1.518, 5.582e-6
-1.517, 5.326e-6
-1.516, 5.128e-6
-1.515, 5.178e-6
-1.514, 4.990e-6
-1.513, 4.901e-6
-1.512, 4.832e-6
-1.511, 4.734e-6
-1.510, 4.586e-6
-1.509, 4.418e-6
-1.508, 4.438e-6
-1.507, 4.309e-6
-1.506, 4.161e-6
-1.505, 4.181e-6
-1.504, 4.023e-6
-1.503, 3.954e-6
-1.502, 3.865e-6
-1.501, 3.816e-6
-1.500, 3.796e-6
-1.499, 3.727e-6
-1.498, 3.570e-6
-1.497, 3.461e-6
-1.496, 3.412e-6
-1.495, 3.412e-6
-1.494, 3.264e-6
-1.493, 3.224e-6
-1.492, 3.185e-6
-1.491, 3.096e-6
-1.490, 3.135e-6
-1.489, 2.899e-6
-1.488, 2.830e-6
-1.487, 2.908e-6
-1.486, 2.889e-6
-1.485, 2.830e-6
-1.484, 2.603e-6
-1.483, 2.583e-6
-1.482, 2.534e-6
-1.481, 2.465e-6
-1.480, 2.465e-6
-1.479, 2.356e-6
-1.478, 2.336e-6
-1.477, 2.317e-6
-1.476, 2.159e-6
-1.475, 2.109e-6
-1.474, 2.090e-6
-1.473, 2.129e-6
-1.472, 2.040e-6
-1.471, 1.942e-6
-1.470, 1.932e-6
-1.469, 1.882e-6
-1.468, 1.902e-6
-1.467, 1.882e-6
-1.466, 1.863e-6
-1.465, 1.784e-6
-1.464, 1.685e-6
-1.463, 1.685e-6
-1.462, 1.685e-6
-1.461, 1.557e-6
-1.460, 1.675e-6
-1.459, 1.478e-6
-1.458, 1.498e-6
-1.457, 1.419e-6
-1.456, 1.429e-6
-1.455, 1.429e-6
-1.454, 1.409e-6
-1.453, 1.350e-6
-1.452, 1.320e-6
-1.451, 1.202e-6
-1.450, 1.290e-6
-1.449, 1.241e-6
-1.448, 1.261e-6
-1.447, 1.162e-6
-1.446, 1.054e-6
-1.445, 1.142e-6
-1.444, 1.162e-6
-1.443, 1.073e-6
-1.442, 1.064e-6
-1.441, 1.083e-6
-1.440, 1.073e-6
-1.439, 9.452e-7
-1.438, 1.034e-6
-1.437, 9.748e-7
-1.436, 9.254e-7
-1.435, 9.945e-7
-1.434, 9.550e-7
-1.433, 8.070e-7
-1.432, 7.873e-7
-1.431, 7.577e-7
-1.430, 8.070e-7
-1.429, 7.676e-7
-1.428, 7.478e-7
-1.427, 6.196e-7
-1.426, 6.590e-7
-1.425, 7.577e-7
-1.424, 6.788e-7
-1.423, 6.294e-7
-1.422, 6.985e-7
-1.421, 6.196e-7
-1.420, 6.492e-7
-1.419, 5.998e-7
-1.418, 5.900e-7
-1.417, 4.815e-7
-1.416, 5.998e-7
-1.415, 5.604e-7
-1.414, 5.012e-7
-1.413, 5.998e-7
-1.412, 5.407e-7
-1.411, 5.012e-7
-1.410, 5.801e-7
-1.409, 4.124e-7
-1.408, 4.815e-7
-1.407, 3.236e-7
-1.406, 4.913e-7
-1.405, 4.124e-7
-1.404, 3.532e-7
-1.403, 3.927e-7
-1.402, 3.433e-7
-1.401, 4.223e-7
-1.400, 3.828e-7
-1.399, 3.927e-7
-1.398, 4.124e-7
-1.397, 3.828e-7
-1.396, 3.631e-7
-1.395, 3.137e-7
-1.394, 3.335e-7
-1.393, 3.335e-7
-1.392, 3.532e-7
-1.391, 3.927e-7
-1.390, 3.039e-7
-1.389, 2.052e-7
-1.388, 2.940e-7
-1.387, 2.545e-7
-1.386, 2.940e-7
-1.385, 3.729e-7
-1.384, 2.447e-7
-1.383, 2.940e-7
-1.382, 2.841e-7
-1.381, 2.841e-7
-1.380, 3.828e-7
-1.379, 2.249e-7
-1.378, 2.249e-7
-1.377, 2.644e-7
-1.376, 2.348e-7
-1.375, 2.249e-7
-1.374, 2.743e-7
-1.373, 2.644e-7
-1.372, 2.052e-7
-1.371, 1.657e-7
-1.370, 2.644e-7
-1.369, 7.695e-8
-1.368, 1.164e-7
-1.367, 1.756e-7
-1.366, 1.855e-7
-1.365, 2.940e-7
-1.364, 1.559e-7
-1.363, 1.263e-7
-1.362, 1.164e-7
-1.361, 1.164e-7
-1.360, 1.657e-7
-1.359, 1.460e-7
-1.358, 6.709e-8
-1.357, 1.657e-7
-1.356, 5.722e-8
-1.355, 2.249e-7
-1.354, 1.066e-7
-1.353, 9.669e-8
-1.352, 1.066e-7
-1.351, 1.362e-7
-1.350, 1.756e-7
-1.349, 1.460e-7
-1.348, 1.460e-7
-1.347, 1.460e-7
-1.346, 5.722e-8
-1.345, 2.348e-7
-1.344, 6.709e-8
-1.343, 7.695e-8
-1.342, 7.695e-8
-1.341, 9.669e-8
-1.340, 1.657e-7
-1.339, 4.736e-8
-1.338, 9.669e-8
-1.337, 5.722e-8
-1.336, 4.736e-8
-1.335, 1.263e-7
-1.334, 2.762e-8
-1.333, 8.682e-8
-1.332, 9.669e-8
-1.331, 7.893e-9
-1.330, 1.164e-7
-1.329, 3.749e-8
-1.328, 8.682e-8
-1.327, 6.709e-8
-1.326, 8.682e-8
-1.325, 3.749e-8
-1.324, 1.776e-8
-1.323, 2.762e-8
-1.322, -1.973e-9
-1.321, -1.973e-9
-1.320, 5.722e-8
-1.319, -1.184e-8
-1.318, 1.776e-8
-1.317, -3.157e-8
-1.316, -6.117e-8
-1.315, -1.973e-9
-1.314, -1.973e-9
-1.313, 6.709e-8
-1.312, -2.171e-8
-1.311, -5.130e-8
-1.310, 7.893e-9
-1.309, -7.103e-8
-1.308, 4.736e-8
-1.307, -9.077e-8
-1.306, -8.090e-8
-1.305, 1.776e-8
-1.304, -3.157e-8
-1.303, 7.893e-9
-1.302, -1.598e-7
-1.301, -1.302e-7
-1.300, -7.103e-8
-1.299, -1.105e-7
-1.298, -5.130e-8
-1.297, -1.105e-7
-1.296, -9.077e-8
-1.295, -4.144e-8
-1.294, -1.204e-7
-1.293, -2.171e-8
-1.292, -9.077e-8
-1.291, -7.103e-8
-1.290, -5.130e-8
-1.289, -1.105e-7
-1.288, -8.090e-8
-1.287, -1.500e-7
-1.286, -3.157e-8
-1.285, -4.144e-8
-1.284, -1.796e-7
-1.283, -1.302e-7
-1.282, -7.103e-8
-1.281, 7.893e-9
-1.280, -1.598e-7
-1.279, -1.697e-7
-1.278, -1.598e-7
-1.277, -1.006e-7
-1.276, -1.204e-7
-1.275, -1.598e-7
-1.274, -1.598e-7
-1.273, -1.796e-7
-1.272, -1.204e-7
-1.271, -1.697e-7
-1.270, -3.157e-8
-1.269, -6.117e-8
-1.268, -1.006e-7
-1.267, -1.796e-7
-1.266, -1.993e-7
-1.265, -1.401e-7
-1.264, -1.302e-7
-1.263, -1.105e-7
-1.262, -1.796e-7
-1.261, -2.092e-7
-1.260, -1.105e-7
-1.259, -1.500e-7
-1.258, -1.302e-7
-1.257, -2.092e-7
-1.256, -1.401e-7
-1.255, -1.598e-7
-1.254, -2.486e-7
-1.253, -1.105e-7
-1.252, -1.598e-7
-1.251, -1.500e-7
-1.250, -1.894e-7
-1.249, -1.302e-7
-1.248, -1.697e-7
-1.247, -1.204e-7
-1.246, -1.401e-7
-1.245, -1.105e-7
-1.244, -1.993e-7
-1.243, -1.006e-7
-1.242, -1.697e-7
-1.241, -2.980e-7
-1.240, -1.598e-7
-1.239, -2.684e-7
-1.238, -1.598e-7
-1.237, -1.697e-7
-1.236, -1.894e-7
-1.235, -2.092e-7
-1.234, -1.401e-7
-1.233, -1.500e-7
-1.232, -2.684e-7
-1.231, -2.388e-7
-1.230, -1.697e-7
-1.229, -3.473e-7
-1.228, -2.486e-7
-1.227, -2.782e-7
-1.226, -3.670e-7
-1.225, -3.177e-7
-1.224, -3.275e-7
-1.223, -3.177e-7
-1.222, -2.486e-7
-1.221, -3.078e-7
-1.220, -2.782e-7
-1.219, -3.177e-7
-1.218, -1.697e-7
-1.217, -2.782e-7
-1.216, -3.374e-7
-1.215, -2.585e-7
-1.214, -3.177e-7
-1.213, -3.078e-7
-1.212, -2.585e-7
-1.211, -3.571e-7
-1.210, -3.078e-7
-1.209, -2.585e-7
-1.208, -2.486e-7
-1.207, -2.585e-7
-1.206, -3.670e-7
-1.205, -2.980e-7
-1.204, -2.980e-7
-1.203, -3.473e-7
-1.202, -3.177e-7
-1.201, -3.670e-7
-1.200, -3.670e-7
-1.199, -3.571e-7
-1.198, -3.275e-7
-1.197, -3.374e-7
-1.196, -3.374e-7
-1.195, -3.867e-7
-1.194, -3.867e-7
-1.193, -3.078e-7
-1.192, -3.275e-7
-1.191, -3.670e-7
-1.190, -2.684e-7
-1.189, -4.558e-7
-1.188, -3.177e-7
-1.187, -3.867e-7
-1.186, -2.881e-7
-1.185, -3.275e-7
-1.184, -3.769e-7
-1.183, -2.585e-7
-1.182, -3.571e-7
-1.181, -3.275e-7
-1.180, -3.473e-7
-1.179, -3.177e-7
-1.178, -3.275e-7
-1.177, -4.262e-7
-1.176, -3.867e-7
-1.175, -3.867e-7
-1.174, -3.867e-7
-1.173, -2.782e-7
-1.172, -3.670e-7
-1.171, -3.571e-7
-1.170, -3.078e-7
-1.169, -3.670e-7
-1.168, -2.881e-7
-1.167, -4.361e-7
-1.166, -3.769e-7
-1.165, -2.980e-7
-1.164, -4.459e-7
-1.163, -2.980e-7
-1.162, -3.275e-7
-1.161, -4.459e-7
-1.160, -3.966e-7
-1.159, -3.571e-7
-1.158, -3.670e-7
-1.157, -3.670e-7
-1.156, -3.670e-7
-1.155, -3.670e-7
-1.154, -4.065e-7
-1.153, -2.782e-7
-1.152, -3.374e-7
-1.151, -3.275e-7
-1.150, -3.769e-7
-1.149, -3.275e-7
-1.148, -2.388e-7
-1.147, -3.473e-7
-1.146, -3.769e-7
-1.145, -3.670e-7
-1.144, -3.571e-7
-1.143, -3.078e-7
-1.142, -2.684e-7
-1.141, -2.782e-7
-1.140, -3.275e-7
-1.139, -3.769e-7
-1.138, -2.881e-7
-1.137, -3.374e-7
-1.136, -3.374e-7
-1.135, -3.374e-7
-1.134, -3.275e-7
-1.133, -2.782e-7
-1.132, -3.275e-7
-1.131, -2.486e-7
-1.130, -3.078e-7
-1.129, -2.782e-7
-1.128, -3.078e-7
-1.127, -3.966e-7
-1.126, -3.670e-7
-1.125, -2.881e-7
-1.124, -3.571e-7
-1.123, -3.670e-7
-1.122, -3.473e-7
-1.121, -2.881e-7
-1.120, -2.585e-7
-1.119, -2.585e-7
-1.118, -2.980e-7
-1.117, -3.670e-7
-1.116, -3.670e-7
-1.115, -3.374e-7
-1.114, -2.585e-7
-1.113, -2.684e-7
-1.112, -2.881e-7
-1.111, -3.670e-7
-1.110, -2.684e-7
-1.109, -2.881e-7
-1.108, -2.190e-7
-1.107, -3.966e-7
-1.106, -3.473e-7
-1.105, -2.881e-7
-1.104, -3.769e-7
-1.103, -2.486e-7
-1.102, -3.769e-7
-1.101, -2.881e-7
-1.100, -3.867e-7
-1.099, -3.078e-7
-1.098, -4.262e-7
-1.097, -3.670e-7
-1.096, -2.289e-7
-1.095, -3.078e-7
-1.094, -3.473e-7
-1.093, -3.275e-7
-1.092, -3.769e-7
-1.091, -2.980e-7
-1.090, -3.078e-7
-1.089, -2.684e-7
-1.088, -3.177e-7
-1.087, -2.684e-7
-1.086, -3.177e-7
-1.085, -3.275e-7
-1.084, -3.275e-7
-1.083, -3.374e-7
-1.082, -3.275e-7
-1.081, -2.881e-7
-1.080, -3.374e-7
-1.079, -3.078e-7
-1.078, -2.881e-7
-1.077, -3.177e-7
-1.076, -2.881e-7
-1.075, -3.966e-7
-1.074, -3.275e-7
-1.073, -2.190e-7
-1.072, -2.782e-7
-1.071, -2.980e-7
-1.070, -3.374e-7
-1.069, -3.473e-7
-1.068, -3.670e-7
-1.067, -3.571e-7
-1.066, -2.684e-7
-1.065, -3.177e-7
-1.064, -3.670e-7
-1.063, -2.684e-7
-1.062, -3.473e-7
-1.061, -3.374e-7
-1.060, -2.980e-7
-1.059, -2.980e-7
-1.058, -2.881e-7
-1.057, -2.684e-7
-1.056, -3.275e-7
-1.055, -2.980e-7
-1.054, -3.078e-7
-1.053, -2.388e-7
-1.052, -2.782e-7
-1.051, -2.684e-7
-1.050, -4.065e-7
-1.049, -4.262e-7
-1.048, -3.177e-7
-1.047, -4.163e-7
-1.046, -3.177e-7
-1.045, -3.571e-7
-1.044, -3.571e-7
-1.043, -3.571e-7
-1.042, -3.275e-7
-1.041, -3.374e-7
-1.040, -2.881e-7
-1.039, -3.078e-7
-1.038, -2.782e-7
-1.037, -3.571e-7
-1.036, -3.473e-7
-1.035, -4.163e-7
-1.034, -3.966e-7
-1.033, -3.966e-7
-1.032, -2.980e-7
-1.031, -3.769e-7
-1.030, -4.262e-7
-1.029, -3.670e-7
-1.028, -3.473e-7
-1.027, -3.473e-7
-1.026, -3.177e-7
-1.025, -3.374e-7
-1.024, -4.755e-7
-1.023, -4.262e-7
-1.022, -4.657e-7
-1.021, -4.657e-7
-1.020, -4.854e-7
-1.019, -4.558e-7
-1.018, -4.262e-7
-1.017, -4.262e-7
-1.016, -4.065e-7
-1.015, -4.657e-7
-1.014, -4.953e-7
-1.013, -4.163e-7
-1.012, -4.361e-7
-1.011, -4.065e-7
-1.010, -5.446e-7
-1.009, -6.137e-7
-1.008, -4.558e-7
-1.007, -4.854e-7
-1.006, -4.459e-7
-1.005, -4.459e-7
-1.004, -5.150e-7
-1.003, -4.854e-7
-1.002, -5.347e-7
-1.001, -4.361e-7
