Potential V vs RHE, Current mA cm-2
0.013299999999999867,16.099414592464115
0.012299999999999978,14.783733083589633
0.011299999999999866,13.562837231806107
0.010299999999999976,12.384382719018532
0.009299999999999864,11.33891106841827
0.008299999999999974,10.292024706518141
0.007299999999999862,9.287579683613965
0.006299999999999972,8.242108033013702
0.00529999999999986,7.237663010109527
0.0042999999999999705,6.1907766482094
0.0032999999999998586,5.18774633660509
0.0022999999999999687,4.140859974704963
0.0012999999999998568,3.0939736128048354
0.00029999999999996696,2.048501962204573
-0.000700000000000145,1.0446228238203432
-0.0017000000000000348,0.04140859974704963
-0.0027000000000001467,-0.9181476336124089
-0.0037000000000000366,-1.8334658446250875
-0.0047000000000001485,-2.706342716641815
-0.005700000000000038,-3.579219588658543
-0.00670000000000015,-4.406825699079589
-0.00770000000000004,-5.235846520800501
-0.008700000000000152,-6.064867342521412
-0.009700000000000042,-6.93774421453814
-0.010700000000000154,-7.809206375255003
-0.011700000000000044,-8.68208324727173
-0.012700000000000156,-9.59740145828441
-0.013700000000000045,-10.514134380596953
-0.014700000000000157,-11.42945259160963
-0.015700000000000047,-12.302329463626359
-0.01670000000000016,-13.217647674639037
-0.01770000000000005,-14.046668496359947
-0.01870000000000016,-14.826174422585586
-0.01970000000000005,-15.618412750510005
-0.020700000000000163,-16.396503965435777
-0.021700000000000053,-17.146300954364243
-0.022700000000000164,-17.839509491298113
-0.023700000000000054,-18.589306480226583
-0.024700000000000166,-19.367397695152352
-0.025700000000000056,-20.159636023076775
-0.026700000000000168,-20.93772723800254
-0.027700000000000058,-21.814848243918867
-0.02870000000000017,-22.67782213683654
-0.02970000000000006,-23.51250180375691
-0.03070000000000017,-24.34718147067728
-0.03170000000000006,-25.167714024599
-0.03270000000000017,-26.002393691519377
-0.03370000000000006,-26.738043567449193
-0.034700000000000175,-27.43125210438306
-0.035700000000000065,-28.18104909331153
-0.03670000000000018,-28.8742576302454
-0.03770000000000007,-29.525024828183312
-0.03870000000000018,-30.232380478115836
-0.03970000000000007,-30.925589015049702
-0.04070000000000018,-31.661238890979522
-0.04170000000000007,-32.45347721890394
-0.04270000000000018,-33.18912709483376
-0.04370000000000007,-34.02380676175414
-0.044700000000000184,-34.8018979766799
-0.045700000000000074,-35.594136304604326
-0.046700000000000186,-36.37222751953009
-0.047700000000000076,-37.122024508458566
-0.04870000000000019,-37.81523304539243
-0.04970000000000008,-38.522588695324956
-0.05070000000000019,-39.173355893262865
-0.05170000000000008,-39.78168175220483
-0.05270000000000019,-40.43244895014274
-0.05370000000000008,-41.083216148080666
-0.05470000000000019,-41.83301313700913
-0.05570000000000008,-42.526221673943
-0.056700000000000195,-43.27601866287147
-0.057700000000000085,-44.054109877797245
-0.058700000000000196,-44.80390686672572
-0.059700000000000086,-45.624439420647434
-0.0607000000000002,-46.37423640957591
-0.06170000000000009,-47.15232762450167
-0.0627000000000002,-47.84553616143554
-0.06370000000000009,-48.55289181136806
-0.0647000000000002,-49.24610034830193
-0.06570000000000009,-49.89686754623985
-0.0667000000000002,-50.50519340518181
-0.0677000000000001,-51.127666377122424
-0.0687000000000002,-51.82087491405629
-0.0697000000000001,-52.514083450990164
-0.07070000000000021,-53.22143910092268
-0.0717000000000001,-53.91464763785655
-0.07270000000000021,-54.65029751378637
-0.0737000000000001,-55.400094502714836
-0.07470000000000021,-56.1781857176406
-0.0757000000000001,-56.927982706569075
-0.07670000000000021,-57.62119124350295
-0.0777000000000001,-58.35684111943277
-0.07870000000000021,-59.02175543036933
-0.0797000000000001,-59.67252262830725
-0.08070000000000022,-60.32328982624517
-0.0817000000000001,-60.93161568518713
-0.08270000000000022,-61.53994154412909
-0.08370000000000011,-62.20485585506566
-0.08470000000000022,-62.855623053003576
-0.08570000000000011,-63.54883158993744
-0.08670000000000022,-64.25618723986996
-0.08770000000000011,-64.99183711579978
-0.08870000000000022,-65.76992833072556
-0.08970000000000011,-66.56216665864997
-0.09070000000000022,-67.2978165345798
-0.09170000000000011,-68.04761352350828
-0.09270000000000023,-68.74082206044213
-0.09370000000000012,-69.43403059737601
-0.09470000000000023,-70.14138624730852
-0.09570000000000012,-70.79215344524643
-0.09670000000000023,-71.35803796519245
-0.09770000000000012,-72.00880516313036
-0.09870000000000023,-72.67371947406694
-0.09970000000000012,-73.3669280110008
-0.10070000000000023,-74.06013654793468
-0.10170000000000012,-74.80993353686314
-0.10270000000000024,-75.50314207379701
-0.10370000000000013,-76.23879194972683
-0.10470000000000024,-77.0734716166472
-0.10570000000000013,-77.76668015358106
-0.10670000000000024,-78.51647714250953
-0.10770000000000013,-79.25212701843935
-0.10870000000000024,-79.90289421637728
-0.10970000000000013,-80.56780852731384
-0.11070000000000024,-81.1761343862558
-0.11170000000000013,-81.78446024519776
-0.11270000000000002,-82.39278610413973
-0.11370000000000013,-83.04355330207765
-0.11470000000000002,-83.75090895201016
-0.11570000000000014,-84.44411748894404
-0.11670000000000003,-85.13732602587791
-0.11770000000000014,-85.92956435380233
-0.11870000000000003,-86.75009690772404
-0.11970000000000014,-87.58477657464444
-0.12070000000000003,-88.37701490256885
-0.12170000000000014,-89.15510611749461
-0.12270000000000003,-89.94734444541903
-0.12370000000000014,-90.68299432134886
-0.12470000000000003,-91.37620285828272
-0.12570000000000014,-91.98452871722468
-0.12670000000000003,-92.64944302816124
-0.12770000000000015,-93.25776888710321
-0.12870000000000004,-93.95097742403709
-0.12970000000000015,-94.601744621975
-0.13070000000000004,-95.35154161090348
-0.13170000000000015,-96.04475014783733
-0.13270000000000004,-96.83698847576176
-0.13370000000000015,-97.6575210296835
-0.13470000000000004,-98.4497593576079
-0.13570000000000015,-99.14296789454177
-0.13670000000000004,-99.87861777047159
-0.13770000000000016,-100.62841475940007
-0.13870000000000005,-101.32162329633393
-0.13970000000000016,-101.92994915527588
-0.14070000000000005,-102.63730480520842
-0.14170000000000016,-103.24563066415038
-0.14270000000000005,-103.89639786208829
-0.14370000000000016,-104.5471650600262
-0.14470000000000005,-105.21207937096277
-0.14570000000000016,-105.94772924689259
-0.14670000000000005,-106.64093778382647
-0.14770000000000016,-107.4331761117509
-0.14870000000000005,-108.21126732667666
-0.14970000000000017,-109.08838833259297
-0.15070000000000006,-109.78159686952685
-0.15170000000000017,-110.57383519745127
-0.15270000000000006,-111.26704373438514
-0.15370000000000017,-111.91781093232305
-0.15470000000000006,-112.58272524325962
-0.15570000000000017,-113.23349244119754
-0.15670000000000006,-113.84181830013951
-0.15770000000000017,-114.45014415908147
-0.15870000000000006,-115.10091135701937
-0.15970000000000018,-115.76582566795594
-0.16070000000000007,-116.54391688288172
-0.16170000000000018,-117.25127253281424
-0.16270000000000007,-118.02936374774
-0.16370000000000018,-118.86404341466037
-0.16470000000000007,-119.72701730757805
-0.16570000000000018,-120.51925563550247
-0.16670000000000007,-121.29734685042824
-0.16770000000000018,-122.1320265173486
-0.16870000000000007,-122.91011773227437
-0.16970000000000018,-123.65991472120285
-0.17070000000000007,-124.31068191914078
-0.17170000000000019,-125.00389045607463
-0.17270000000000008,-125.6688047670112
-0.1737000000000002,-126.3195719649491
-0.17470000000000008,-127.05522184087894
-0.1757000000000002,-127.80501882980741
-0.17670000000000008,-128.54066870573723
-0.1777000000000002,-129.27631858166706
-0.17870000000000008,-130.06855690959148
-0.1797000000000002,-130.9456779155078
-0.18070000000000008,-131.68132779143764
-0.1817000000000002,-132.41697766736743
-0.18270000000000008,-133.1667746562959
-0.1837000000000002,-133.8599831932298
-0.1847000000000001,-134.56733884316228
-0.1857000000000002,-135.17566470210423
-0.1867000000000001,-135.86887323903812
-0.1877000000000002,-136.47719909798008
-0.1887000000000001,-135.78399056104624
-0.1897000000000002,-134.46830905217172
-0.1907000000000001,-134.9068695551299
-0.1917000000000001,-135.5576367530678
-0.19269999999999998,-136.3923164199882
-0.1937000000000001,-137.08552495692206
-0.19469999999999998,-137.87776328484648
-0.1957000000000001,-138.65585449977226
-0.19669999999999999,-139.44809282769666
-0.1977000000000001,-140.22618404262244
-0.1987,-140.9759810315509
-0.1997000000000001,-141.61260111649017
-0.2007,-142.31995676642268
-0.2017000000000001,-143.0273124163552
-0.2027,-143.73466806628772
-0.2037000000000001,-144.44202371622026
-0.2047,-145.00790823616626
-0.2057000000000001,-145.85673501608528
-0.2067,-146.5640906660178
-0.2077000000000001,-147.27144631595033
-0.2087,-147.4129174459368
-0.2097000000000001,-147.83733083589632
-0.2107,-148.54468648582886
-0.2117000000000001,-149.25204213576137
-0.2127,-149.6764555257209
-0.2137000000000001,-150.24234004566688
-0.2147,-150.8082245656129
-0.2157000000000001,-151.5155802155454
-0.2167,-152.22293586547795
-0.21770000000000012,-153.07176264539694
-0.2187,-153.920589425316
-0.21970000000000012,-154.76941620523502
-0.2207,-155.75971411514055
-0.22170000000000012,-156.46706976507306
-0.2227,-157.31589654499206
-0.22370000000000012,-158.1647233249111
-0.2247,-158.87207897484362
-0.22570000000000012,-159.57943462477613
-0.2267,-160.42826140469515
-0.22770000000000012,-160.8526747946547
-0.22870000000000001,-161.41855931460069
-0.22970000000000013,-161.9844438345467
-0.23070000000000002,-162.6917994844792
-0.23170000000000013,-163.25768400442522
-0.23270000000000002,-163.82356852437124
-0.23370000000000013,-164.81386643427678
-0.23470000000000002,-165.6626932141958
-0.23570000000000013,-166.51151999411482
-0.23670000000000002,-167.21887564404733
-0.2376999999999999,-167.92623129397984
-0.23870000000000002,-168.77505807389886
-0.2396999999999999,-169.48241372383137
-0.24070000000000003,-170.18976937376394
-0.24169999999999991,-170.89712502369645
-0.24270000000000003,-171.74595180361547
-0.24369999999999992,-172.31183632356147
-0.24470000000000003,-172.87772084350746
-0.24569999999999992,-173.44360536345349
-0.24670000000000003,-174.0094898833995
-0.24769999999999992,-174.57537440334553
-0.24870000000000003,-175.28273005327804
-0.24969999999999992,-175.99008570321055
-0.25070000000000003,-176.6974413531431
-0.2516999999999999,-177.4047970030756
-0.25270000000000004,-178.25362378299462
-0.2536999999999999,-178.96097943292713
-0.25470000000000004,-179.80980621284618
-0.2556999999999999,-180.37569073279218
-0.25670000000000004,-180.94157525273818
-0.25769999999999993,-181.64893090267074
-0.25870000000000004,-181.93187316264374
-0.25969999999999993,-182.78069994256273
-0.26070000000000004,-183.62952672248176
-0.26169999999999993,-184.47835350240078
-0.26270000000000004,-185.3271802823198
-0.26369999999999993,-186.31747819222534
-0.26470000000000005,-187.16630497214436
-0.26569999999999994,-187.87366062207687
-0.26670000000000005,-188.58101627200938
-0.26769999999999994,-189.1469007919554
-0.26870000000000005,-189.8542564418879
-0.26969999999999994,-190.42014096183394
-0.27070000000000005,-191.12749661176645
-0.27169999999999994,-191.551910001726
-0.27270000000000005,-192.2592656516585
-0.27369999999999994,-192.82515017160452
-0.27470000000000006,-193.532505821537
-0.27569999999999995,-194.09839034148303
-0.27670000000000006,-194.80574599141553
-0.27769999999999995,-195.37163051136156
-0.27870000000000006,-196.0789861612941
-0.27969999999999995,-196.7863418112266
-0.28070000000000006,-197.63516859114563
-0.28169999999999995,-198.48399537106465
-0.28270000000000006,-199.47429328097016
-0.28369999999999995,-200.6060623208622
-0.28470000000000006,-201.87930249074074
-0.28569999999999995,-202.7281292706598
-0.28670000000000007,-203.57695605057876
-0.28769999999999996,-204.2843117005113
-0.28870000000000007,-205.13313848043032
-0.28969999999999996,-205.98196526034934
-0.29070000000000007,-206.83079204026836
-0.29169999999999996,-207.67961882018741
-0.29270000000000007,-208.3869744701199
-0.29369999999999996,-209.0943301200524
-0.2947000000000001,-209.8016857699849
-0.29569999999999996,-210.50904141991748
-0.2967000000000001,-211.21639706985
-0.29769999999999996,-211.9237527197825
-0.2987000000000001,-212.631108369715
-0.29969999999999997,-213.33846401964755
-0.3007000000000001,-214.04581966958003
-0.30169999999999997,-214.75317531951256
-0.3027000000000001,-215.4605309694451
-0.30369999999999997,-216.0264154893911
-0.3047000000000001,-216.73377113932364
-0.30569999999999997,-217.29965565926966
-0.3067000000000001,-217.86554017921566
-0.3077,-218.28995356917517
-0.3087000000000001,-218.85583808912116
-0.3097,-219.42172260906716
-0.3107000000000001,-219.98760712901318
-0.3117,-220.6949627789457
-0.3127000000000001,-221.40231842887826
-0.3137,-221.96820294882426
-0.3147000000000001,-222.53408746877028
-0.3157,-223.2414431187028
-0.3167000000000001,-223.9487987686353
-0.3177,-224.65615441856778
-0.3187000000000001,-225.22203893851383
-0.3197,-225.78792345845983
-0.3207000000000001,-226.35380797840588
-0.3217,-227.06116362833836
-0.3227000000000001,-227.4855770182979
-0.3237,-228.1929326682304
-0.3247000000000001,-228.90028831816295
-0.3257,-229.46617283810895
-0.3267000000000001,-229.89058622806846
-0.3277,-230.59794187800094
-0.3287000000000001,-231.3052975279335
-0.3297,-232.01265317786604
-0.3307000000000001,-232.72000882779852
-0.3317,-233.4273644777311
-0.3327000000000001,-233.99324899767706
-0.3337,-234.7006046476096
-0.3347000000000001,-235.26648916755556
-0.3357,-235.83237368750162
-0.3367000000000001,-236.3982582074476
-0.3377,-236.82267159740715
-0.3387000000000001,-237.38855611735315
-0.3397,-238.0959117672857
-0.3407000000000001,-238.8032674172182
-0.3417,-239.36915193716422
-0.3427000000000001,-240.0765075870967
-0.3437,-240.64239210704275
-0.3447000000000001,-241.34974775697523
-0.3457,-241.9156322769213
-0.3467000000000001,-242.48151679686728
-0.3477,-243.04740131681334
-0.3487000000000001,-243.47181470677282
-0.3497,-244.03769922671884
-0.3507000000000001,-244.60358374666484
-0.3517,-245.02799713662432
-0.3527000000000001,-245.59388165657037
-0.3537,-246.30123730650286
-0.3547000000000001,-247.0085929564354
-0.3557,-247.57447747638145
-0.35670000000000013,-248.28183312631393
-0.3577,-248.84771764625998
-0.35870000000000013,-249.41360216620598
-0.3597,-250.1209578161385
-0.36070000000000013,-250.6868423360845
-0.3617,-251.39419798601702
-0.3626999999999999,-251.81861137597656
-0.3637,-252.38449589592256
-0.3646999999999999,-252.80890928588207
-0.3657,-253.37479380582806
-0.3666999999999999,-253.79920719578757
-0.3677,-254.2236205857471
-0.3686999999999999,-254.64803397570657
-0.36970000000000003,-255.21391849565262
-0.3706999999999999,-255.63833188561213
-0.37170000000000003,-256.0627452755717
-0.3726999999999999,-256.62862979551767
-0.37370000000000003,-257.1945143154637
-0.3746999999999999,-257.90186996539614
-0.37570000000000003,-258.4677544853422
-0.3766999999999999,-258.8921678753017
-0.37770000000000004,-259.59952352523425
-0.3786999999999999,-260.02393691519376
-0.37970000000000004,-260.58982143513975
-0.3806999999999999,-261.1557059550858
-0.38170000000000004,-261.7215904750318
-0.38269999999999993,-262.2874749949778
-0.38370000000000004,-262.8533595149238
-0.38469999999999993,-263.27777290488336
-0.38570000000000004,-263.98512855481584
-0.38669999999999993,-263.41924403486985
-0.38570000000000004,-261.1557059550858
-0.38469999999999993,-258.8921678753017
-0.38370000000000004,-256.77010092550415
-0.38269999999999993,-254.64803397570657
-0.38170000000000004,-252.52596702590907
-0.3806999999999999,-250.545371206098
-0.37970000000000004,-248.42330425630044
-0.3786999999999999,-246.4427084364894
-0.37770000000000004,-244.32064148669184
-0.3766999999999999,-242.34004566688077
-0.37570000000000003,-240.35944984706975
-0.3746999999999999,-238.5203251572452
-0.37370000000000003,-236.53972933743412
-0.3726999999999999,-234.7006046476096
-0.37170000000000003,-232.86147995778504
-0.3706999999999999,-231.0223552679605
-0.36970000000000003,-229.32470170812243
-0.3686999999999999,-227.7685192782709
-0.3677,-226.35380797840588
-0.3666999999999999,-226.21233684841937
-0.3657,-225.78792345845983
-0.3646999999999999,-224.65615441856778
-0.3637,-223.2414431187028
-0.3626999999999999,-221.96820294882426
-0.3617,-220.5534916489592
-0.36070000000000013,-218.71436695913465
-0.3597,-217.15818452928315
-0.35870000000000013,-215.4605309694451
-0.3577,-213.76287740960703
-0.35670000000000013,-211.782281589796
-0.3557,-210.08462802995794
-0.3547000000000001,-208.3869744701199
-0.3537,-206.83079204026836
-0.3527000000000001,-204.9916673504438
-0.3517,-203.29401379060576
-0.3507000000000001,-201.59636023076774
-0.3497,-199.75723554094319
-0.3487000000000001,-198.05958198110514
-0.3477,-196.3619284212671
-0.3467000000000001,-194.80574599141553
-0.3457,-193.10809243157752
-0.3447000000000001,-191.41043887173947
-0.3437,-189.71278531190143
-0.3427000000000001,-188.15660288204987
-0.3417,-186.45894932221185
-0.3407000000000001,-184.9027668923603
-0.3397,-183.34658446250873
-0.3387000000000001,-181.79040203265723
-0.3377,-180.23421960280567
-0.3367000000000001,-178.81950830294062
-0.3357,-177.2633258730891
-0.3347000000000001,-175.84861457322407
-0.3337,-174.2924321433725
-0.3327000000000001,-172.87772084350746
-0.3317,-171.32153841365593
-0.3307000000000001,-169.9068271137909
-0.3297,-168.35064468393938
-0.3287000000000001,-166.79446225408785
-0.3277,-165.3797509542228
-0.3267000000000001,-163.68209739438475
-0.3257,-162.12591496453322
-0.3247000000000001,-160.5697325346817
-0.3237,-158.87207897484362
-0.3227000000000001,-157.17442541500557
-0.3217,-155.47677185516753
-0.3207000000000001,-153.77911829532948
-0.3197,-152.22293586547795
-0.3187000000000001,-150.5252823056399
-0.3177,-148.12027309586935
-0.3167000000000001,-144.58349484620675
-0.3157,-140.93353969255494
-0.3147000000000001,-138.52853048278442
-0.3137,-137.00064227893017
-0.3127000000000001,-134.9068695551299
-0.3117,-133.69021783724597
-0.3107000000000001,-134.08633700120816
-0.3097,-133.2516573342878
-0.3087000000000001,-132.33209498937555
-0.3077,-131.46912109645783
-0.3067000000000001,-130.5495587515456
-0.30569999999999997,-129.5451137286414
-0.3047000000000001,-128.62555138372915
-0.30369999999999997,-127.62110636082497
-0.3027000000000001,-126.6732497899154
-0.30169999999999997,-125.88101146199097
-0.3007000000000001,-124.74924242209892
-0.29969999999999997,-123.6174733822069
-0.2987000000000001,-122.38667455132433
-0.29769999999999996,-121.33978818942418
-0.2967000000000001,-120.39193161851462
-0.29569999999999996,-119.20357412662798
-0.2947000000000001,-118.02936374774
-0.29369999999999996,-116.85515336885203
-0.29270000000000007,-115.5819131989735
-0.29169999999999996,-114.36526148108955
-0.29070000000000007,-113.14860976320564
-0.28969999999999996,-111.8753695933271
-0.28870000000000007,-110.53139385845533
-0.28769999999999996,-109.21571234958083
-0.28670000000000007,-107.914177953705
-0.28569999999999995,-106.59849644483052
-0.28470000000000006,-105.38184472694657
-0.28369999999999995,-104.12275167006669
-0.28270000000000006,-102.97683551717601
-0.28169999999999995,-101.80262513828804
-0.28070000000000006,-100.670856098396
-0.27969999999999995,-99.58152839749994
-0.27870000000000006,-98.49220069660386
-0.27769999999999995,-97.40287299570777
-0.27670000000000006,-96.31354529481169
-0.27569999999999995,-95.22421759391563
-0.27470000000000006,-94.21977257101145
-0.27369999999999994,-93.21532754810727
-0.27270000000000005,-92.2108825252031
-0.27169999999999994,-91.07911348531105
-0.27070000000000005,-89.98978578441499
-0.26969999999999994,-88.8438696315243
-0.26870000000000005,-87.58477657464444
-0.26769999999999994,-86.45300753475239
