Potential V vs RHE, Current mA cm-2
0.013299999999999867,20.230371588070028
0.012299999999999978,19.056161209182044
0.011299999999999866,18.05171618627787
0.010299999999999976,16.962388485381787
0.009299999999999864,15.78817810649381
0.008299999999999974,14.61396772760583
0.007299999999999862,13.562837231806107
0.006299999999999972,12.646104309493563
0.00529999999999986,11.818498199072517
0.0042999999999999705,10.94562132705579
0.0032999999999998586,10.03030311604311
0.0022999999999999687,8.983416754142983
0.0012999999999998568,7.936530392242855
0.00029999999999996696,7.019797469930312
-0.000700000000000145,6.234632698505217
-0.0017000000000000348,5.537180027671754
-0.0027000000000001467,4.752015256246658
-0.0037000000000000366,3.8366970452339793
-0.0047000000000001485,2.8761080726256196
-0.005700000000000038,1.9607898616129409
-0.00670000000000015,1.175483619057859
-0.00770000000000004,0.5211796428702795
-0.008700000000000152,-0.1330535977523067
-0.009700000000000042,-0.8745745255765657
-0.010700000000000154,-1.7471684553333202
-0.011700000000000044,-2.706342716641815
-0.012700000000000156,-3.4915074880669104
-0.013700000000000045,-4.146518819904423
-0.014700000000000157,-4.800115440442069
-0.015700000000000047,-5.411270721983764
-0.01670000000000016,-6.108723392817228
-0.01770000000000005,-6.93774421453814
-0.01870000000000016,-7.7653503249591855
-0.01970000000000005,-8.55051509638428
-0.020700000000000163,-9.205526428221793
-0.021700000000000053,-9.728969609171857
-0.022700000000000164,-10.340124890713554
-0.023700000000000054,-11.081433611842833
-0.024700000000000166,-11.86659838326793
-0.025700000000000056,-12.651763154693022
-0.026700000000000168,-13.30535977523067
-0.027700000000000058,-13.828802956180734
-0.02870000000000017,-14.30273124163552
-0.02970000000000006,-14.925204213576137
-0.03070000000000017,-15.78817810649381
-0.03170000000000006,-16.70774045140608
-0.03270000000000017,-17.358507649344002
-0.03370000000000006,-17.797068152302163
-0.034700000000000175,-18.27806999425627
-0.035700000000000065,-18.843954514202288
-0.03670000000000018,-19.49472171214021
-0.03770000000000007,-20.329401379060574
-0.03870000000000018,-21.149933932982297
-0.03970000000000007,-21.899730921910766
-0.04070000000000018,-22.46561544185678
-0.04170000000000007,-22.72026347583249
-0.04270000000000018,-23.51250180375691
-0.04370000000000007,-24.24815167968673
-0.044700000000000184,-24.997948668615198
-0.045700000000000074,-25.60627452755716
-0.046700000000000186,-26.17215904750318
-0.047700000000000076,-26.61071955046134
-0.04870000000000019,-27.134162731411404
-0.04970000000000008,-27.700047251357418
-0.05070000000000019,-28.393255788291288
-0.05170000000000008,-29.14305277721976
-0.05270000000000019,-29.708937297165768
-0.05370000000000008,-30.232380478115836
-0.05470000000000019,-30.670940981073993
-0.05570000000000008,-31.137795710029454
-0.056700000000000195,-31.76026868197007
-0.057700000000000085,-32.49591855789989
-0.058700000000000196,-33.18912709483376
-0.059700000000000086,-33.81160006677438
-0.0607000000000002,-34.02380676175414
-0.06170000000000009,-33.85404140577033
-0.0627000000000002,-34.278454795729836
-0.06370000000000009,-35.02825178465831
-0.0647000000000002,-36.03269680756248
-0.06570000000000009,-37.206907186450465
-0.0667000000000002,-37.73035036740053
-0.0677000000000001,-37.77279170639648
-0.0687000000000002,-38.253793548350586
-0.0697000000000001,-38.90456074628851
-0.07070000000000021,-39.47044526623452
-0.0717000000000001,-40.092918238175145
-0.07270000000000021,-40.616361419125205
-0.0737000000000001,-41.22468727806717
-0.07470000000000021,-41.66324778102533
-0.0757000000000001,-42.087661170984845
-0.07670000000000021,-42.526221673943
-0.0777000000000001,-43.134547532884966
-0.07870000000000021,-43.96922719980534
-0.0797000000000001,-44.74731841473111
-0.08070000000000022,-45.27076159568118
-0.0817000000000001,-45.666880759643384
-0.08270000000000022,-46.19032394059345
-0.08370000000000011,-46.84109113853137
-0.08470000000000022,-47.633329466455784
-0.08570000000000011,-48.2840966643937
-0.08670000000000022,-48.84998118433972
-0.08770000000000011,-49.28854168729788
-0.08870000000000022,-49.81198486824794
-0.08970000000000011,-50.42031072718991
-0.09070000000000022,-51.17010771611838
-0.09170000000000011,-51.86331625305225
-0.09270000000000023,-52.514083450990164
-0.09370000000000012,-53.079967970936174
-0.09470000000000023,-53.56096981289029
-0.09570000000000012,-54.0419716548444
-0.09670000000000023,-54.69273885278232
-0.09770000000000012,-55.400094502714836
-0.09870000000000023,-56.05086170065276
-0.09970000000000012,-56.74407023758662
-0.10070000000000023,-57.22507207954074
-0.10170000000000012,-57.66363258249889
-0.10270000000000024,-58.017310407465146
-0.10370000000000013,-58.583194927411164
-0.10470000000000024,-59.27640346434504
-0.10570000000000013,-60.06864179226946
-0.10670000000000024,-60.67696765121143
-0.10770000000000013,-61.15796949316553
-0.10870000000000024,-61.63897133511965
-0.10970000000000013,-62.24729719406162
-0.11070000000000024,-62.94050573099548
-0.11170000000000013,-63.633714267929356
-0.11270000000000002,-64.15715744887942
-0.11370000000000013,-64.55327661284163
-0.11470000000000002,-64.90695443780788
-0.11570000000000014,-65.34551494076604
-0.11670000000000003,-65.99628213870396
-0.11770000000000014,-66.68949067563783
-0.11870000000000003,-67.43928766456631
-0.11970000000000014,-68.0900548625042
-0.12070000000000003,-68.65593938245023
-0.12170000000000014,-69.13694122440434
-0.12270000000000003,-69.6603844053544
-0.12370000000000014,-70.14138624730852
-0.12470000000000003,-70.79215344524643
-0.12570000000000014,-71.44292064318435
-0.12670000000000003,-72.05124650212633
-0.12770000000000015,-72.48980700508447
-0.12870000000000004,-72.8859261690467
-0.12970000000000015,-73.45181068899271
-0.13070000000000004,-74.20160767792116
-0.13170000000000015,-74.93725755385098
-0.13270000000000004,-75.5880247517889
-0.13370000000000015,-76.06902659374302
-0.13470000000000004,-76.50758709670117
-0.13570000000000015,-77.03103027765125
-0.13670000000000004,-77.63935613659322
-0.13770000000000016,-78.38915312552167
-0.13870000000000005,-79.0399203234596
-0.13970000000000016,-79.56336350440966
-0.14070000000000005,-80.04436534636378
-0.14170000000000016,-80.42633739732734
-0.14270000000000005,-80.9497805782774
-0.14370000000000016,-81.61469488921396
-0.14470000000000005,-82.35034476514379
-0.14570000000000016,-83.14258309306821
-0.14670000000000005,-83.70846761301424
-0.14770000000000016,-84.13288100297372
-0.14870000000000005,-84.57144150593189
-0.14970000000000017,-85.13732602587791
-0.15070000000000006,-85.88712301480638
-0.15170000000000017,-86.6227728907362
-0.15270000000000006,-87.33012854066871
-0.15370000000000017,-87.85357172161878
-0.15470000000000006,-88.27798511157829
-0.15570000000000017,-88.71654561453644
-0.15670000000000006,-89.36731281247435
-0.15770000000000017,-90.07466846240689
-0.15870000000000006,-90.81031833833671
-0.15970000000000018,-91.33376151928677
-0.16070000000000007,-91.77232202224494
-0.16170000000000018,-92.12599984721119
-0.16270000000000007,-92.6070016891653
-0.16370000000000018,-93.25776888710321
-0.16470000000000007,-93.99341876303303
-0.16570000000000018,-94.601744621975
-0.16670000000000007,-95.22421759391563
-0.16770000000000018,-95.69107232287108
-0.16870000000000007,-96.21451550382113
-0.16970000000000018,-96.73795868477121
-0.17070000000000007,-97.40287299570777
-0.17170000000000019,-98.13852287163759
-0.17270000000000008,-98.88831986056607
-0.1737000000000002,-99.41176304151614
-0.17470000000000008,-99.7937350924797
-0.1757000000000002,-100.23229559543785
-0.17670000000000008,-100.71329743739196
-0.1777000000000002,-101.40650597432582
-0.17870000000000008,-102.07142028526239
-0.1797000000000002,-102.67974614420436
-0.18070000000000008,-103.11830664716253
-0.1817000000000002,-103.54272003712204
-0.18270000000000008,-104.02372187907615
-0.1837000000000002,-104.73107752900866
-0.1847000000000001,-105.50916874393444
-0.1857000000000002,-106.2589657328629
-0.1867000000000001,-106.86729159180487
-0.1877000000000002,-107.4331761117509
-0.1887000000000001,-107.87173661470905
-0.1897000000000002,-108.39517979565912
-0.1907000000000001,-109.00350565460108
-0.1917000000000001,-109.654272852539
-0.19269999999999998,-110.3050400504769
-0.1937000000000001,-110.78604189243102
-0.19469999999999998,-111.26704373438514
-0.1957000000000001,-111.74804557633925
-0.19669999999999999,-112.3563714352812
-0.1977000000000001,-113.06372708521374
-0.1987,-113.71449428315165
-0.1997000000000001,-114.23793746410173
-0.2007,-114.67649796705987
-0.2017000000000001,-115.05847001802343
-0.2027,-115.53947185997755
-0.2037000000000001,-116.14779771891952
-0.2047,-116.85515336885203
-0.2057000000000001,-117.46347922779398
-0.2067,-117.98692240874406
-0.2077000000000001,-118.3406002337103
-0.2087,-118.82160207566443
-0.2097000000000001,-119.16113278763203
-0.2107,-119.81189998556997
-0.2117000000000001,-120.39193161851462
-0.2127,-120.77390366947817
-0.2137000000000001,-121.17002283344038
-0.2147,-121.60858333639854
-0.2157000000000001,-122.08958517835266
-0.2167,-122.61302835930273
-0.21770000000000012,-123.2213542182447
-0.2187,-123.87212141618261
-0.21970000000000012,-124.48044727512458
-0.2207,-124.87656643908679
-0.22170000000000012,-125.23024426405304
-0.2227,-125.6688047670112
-0.22370000000000012,-126.23468928695722
-0.2247,-126.88545648489513
-0.22570000000000012,-127.4937823438371
-0.2267,-127.93234284679528
-0.22770000000000012,-128.37090334975343
-0.22870000000000001,-128.752875400717
-0.22970000000000013,-129.27631858166706
-0.23070000000000002,-129.9412328926036
-0.23170000000000013,-130.63444142953747
-0.23270000000000002,-131.32764996647134
-0.23370000000000013,-132.6857728143418
-0.23470000000000002,-134.12877834020412
-0.23570000000000013,-134.86442821613394
-0.23670000000000002,-135.51519541407185
-0.2376999999999999,-136.03863859502192
-0.23870000000000002,-136.66111156696255
-0.2396999999999999,-137.1845547479126
-0.24070000000000003,-137.65140947686808
-0.24169999999999991,-138.04752864083028
-0.24270000000000003,-138.48608914378846
-0.24369999999999992,-138.96709098574257
-0.24470000000000003,-139.61785818368048
-0.24569999999999992,-140.14130136463055
-0.24670000000000003,-140.5798618675887
-0.24769999999999992,-140.93353969255494
-0.24870000000000003,-141.27307040452254
-0.24969999999999992,-141.75407224647665
-0.25070000000000003,-142.17848563643616
-0.2516999999999999,-142.7443701563822
-0.25270000000000004,-143.16878354634173
-0.2536999999999999,-143.5931969363012
-0.25470000000000004,-144.01761032626072
-0.2556999999999999,-144.44202371622026
-0.25670000000000004,-145.00790823616626
-0.25769999999999993,-145.57379275611228
-0.25870000000000004,-146.28114840604482
-0.25969999999999993,-146.8470329259908
-0.26070000000000004,-147.1299751859638
-0.26169999999999993,-147.27144631595033
-0.26270000000000004,-147.55438857592333
-0.26369999999999993,-147.97880196588284
-0.26470000000000005,-148.54468648582886
-0.26569999999999994,-149.1105710057749
-0.26670000000000005,-149.53498439573437
-0.26769999999999994,-149.95939778569388
-0.26870000000000005,-150.38381117565342
-0.26969999999999994,-150.94969569559944
-0.27070000000000005,-151.5155802155454
-0.27169999999999994,-152.0814647354914
-0.27270000000000005,-152.50587812545095
-0.27369999999999994,-152.64734925543743
-0.27470000000000006,-152.78882038542397
-0.27569999999999995,-152.93029151541046
-0.27670000000000006,-153.49617603535648
-0.27769999999999995,-154.0620605553025
-0.27870000000000006,-154.6279450752485
-0.27969999999999995,-154.9108873352215
-0.28070000000000006,-155.33530072518104
-0.28169999999999995,-155.47677185516753
-0.28270000000000006,-155.75971411514055
-0.28369999999999995,-156.32559863508658
-0.28470000000000006,-156.89148315503257
-0.28569999999999995,-157.59883880496508
-0.28670000000000007,-158.1647233249111
-0.28769999999999996,-158.4476655848841
-0.28870000000000007,-158.87207897484362
-0.28969999999999996,-159.29649236480313
-0.29070000000000007,-159.86237688474912
-0.29169999999999996,-160.42826140469515
-0.29270000000000007,-160.71120366466818
-0.29369999999999996,-160.8526747946547
-0.2947000000000001,-160.99414592464117
-0.29569999999999996,-161.2770881846142
-0.2967000000000001,-161.5600304445872
-0.29769999999999996,-162.12591496453322
-0.2987000000000001,-162.6917994844792
-0.29969999999999997,-162.6917994844792
-0.3007000000000001,-162.8332706144657
-0.30169999999999997,-162.97474174445222
-0.3027000000000001,-163.25768400442522
-0.30369999999999997,-163.68209739438475
-0.3047000000000001,-164.24798191433075
-0.30569999999999997,-164.67239530429026
-0.3067000000000001,-164.9553375642633
-0.3077,-165.2382798242363
-0.3087000000000001,-165.5212220842093
-0.3097,-165.2382798242363
-0.3107000000000001,-166.0871066041553
-0.3117,-167.07740451406085
-0.3127000000000001,-167.50181790402033
-0.3137,-167.6432890340068
-0.3147000000000001,-167.78476016399335
-0.3157,-167.6432890340068
-0.3167000000000001,-167.50181790402033
-0.3177,-168.35064468393938
-0.3187000000000001,-168.91652920388537
-0.3197,-168.91652920388537
-0.3207000000000001,-169.3409425938449
-0.3217,-170.0482982437774
-0.3227000000000001,-170.33124050375042
-0.3237,-170.33124050375042
-0.3247000000000001,-170.18976937376394
-0.3257,-170.0482982437774
-0.3267000000000001,-169.9068271137909
-0.3277,-170.18976937376394
-0.3287000000000001,-170.33124050375042
-0.3297,-170.75565389370993
-0.3307000000000001,-171.60448067362896
-0.3317,-172.45330745354798
-0.3327000000000001,-172.31183632356147
-0.3337,-171.60448067362896
-0.3347000000000001,-171.46300954364247
-0.3357,-171.46300954364247
-0.3367000000000001,-171.32153841365593
-0.3377,-170.47271163373694
-0.3387000000000001,-171.46300954364247
-0.3397,-172.17036519357498
-0.3407000000000001,-172.59477858353446
-0.3417,-172.0288940635885
-0.3427000000000001,-172.0288940635885
-0.3437,-172.73624971352098
-0.3447000000000001,-174.150961013386
-0.3457,-174.43390327335902
-0.3467000000000001,-173.16066310348046
-0.3477,-173.01919197349397
-0.3487000000000001,-173.16066310348046
-0.3497,-174.43390327335902
-0.3507000000000001,-175.84861457322407
-0.3517,-177.1218547431026
-0.3527000000000001,-179.24392169290016
-0.3537,-180.37569073279218
-0.3547000000000001,-181.08304638272472
-0.3557,-181.5074597726842
-0.35670000000000013,-181.79040203265723
-0.3577,-182.21481542261674
-0.35870000000000013,-182.63922881257625
-0.3597,-183.06364220253573
-0.36070000000000013,-183.20511333252225
-0.3617,-182.78069994256273
-0.3626999999999999,-182.07334429263022
-0.3637,-182.63922881257625
-0.3646999999999999,-183.06364220253573
-0.3657,-183.48805559249527
-0.3666999999999999,-183.77099785246824
-0.3677,-184.33688237241427
-0.3686999999999999,-184.9027668923603
-0.36970000000000003,-185.6101225422928
-0.3706999999999999,-186.17600706223882
-0.37170000000000003,-186.74189158218485
-0.3726999999999999,-186.74189158218485
-0.37370000000000003,-186.74189158218485
-0.3746999999999999,-186.74189158218485
-0.37570000000000003,-185.89306480226583
-0.3766999999999999,-187.87366062207687
-0.37770000000000004,-187.30777610213087
-0.3786999999999999,-187.30777610213087
-0.37970000000000004,-188.01513175206335
-0.3806999999999999,-188.29807401203638
-0.38170000000000004,-188.4395451420229
-0.38269999999999993,-188.4395451420229
-0.38370000000000004,-188.58101627200938
-0.38469999999999993,-189.0054296619689
-0.38570000000000004,-189.1469007919554
-0.38669999999999993,-188.29807401203638
-0.38570000000000004,-185.46865141230631
-0.38469999999999993,-182.78069994256273
-0.38370000000000004,-180.23421960280567
-0.38269999999999993,-177.9706815230216
-0.38170000000000004,-175.84861457322407
-0.3806999999999999,-173.72654762342648
-0.37970000000000004,-171.60448067362896
-0.3786999999999999,-169.3409425938449
-0.37770000000000004,-167.07740451406085
-0.3766999999999999,-164.24798191433075
-0.37570000000000003,-157.7403099349516
-0.3746999999999999,-155.90118524512707
-0.37370000000000003,-154.3450028152755
-0.3726999999999999,-152.78882038542397
-0.37170000000000003,-150.8082245656129
-0.3706999999999999,-148.82762874580186
-0.36970000000000003,-147.1299751859638
-0.3686999999999999,-145.85673501608528
-0.3677,-144.44202371622026
-0.3666999999999999,-142.7443701563822
-0.3657,-140.79206856256846
-0.3646999999999999,-139.27832747171286
-0.3637,-138.52853048278442
-0.3626999999999999,-137.3543201038964
-0.3617,-135.99619725602597
-0.36070000000000013,-134.34098503518388
-0.3597,-132.03500561640385
-0.35870000000000013,-130.50711741254963
-0.3577,-129.0641118866873
-0.35670000000000013,-127.97478418579122
-0.3557,-126.75813246790726
-0.3547000000000001,-125.272685603049
-0.3537,-124.09847522416102
-0.3527000000000001,-122.74035237629057
-0.3517,-121.2549055114323
-0.3507000000000001,-119.81189998556997
-0.3497,-118.42548291170223
-0.3487000000000001,-117.06736006383179
-0.3477,-115.72338432896
-0.3467000000000001,-114.23793746410173
-0.3457,-112.66760792125153
-0.3447000000000001,-111.13971971739728
-0.3437,-109.73915553053091
-0.3427000000000001,-108.56494515164292
-0.3417,-107.73026548472255
-0.3407000000000001,-106.82485025280893
-0.3397,-105.11304957997223
-0.3387000000000001,-103.50027869812607
-0.3377,-102.1563029632543
-0.3367000000000001,-101.02453392336226
-0.3357,-100.23229559543785
-0.3347000000000001,-99.41176304151614
-0.3337,-98.40731801861195
-0.3327000000000001,-97.00675383174556
-0.3317,-95.56374830588322
-0.3307000000000001,-94.13488989301955
-0.3297,-92.81920838414506
-0.3287000000000001,-91.72988068324898
-0.3277,-90.59811164335694
-0.3267000000000001,-89.32487147347842
-0.3257,-87.93845439961068
-0.3247000000000001,-86.5378902127443
-0.3237,-85.32123849486035
-0.3227000000000001,-84.13288100297372
-0.3217,-83.0011119630817
-0.3207000000000001,-81.82690158419373
-0.3197,-80.61024986630979
-0.3187000000000001,-79.25212701843935
-0.3177,-77.99303396155948
-0.3167000000000001,-76.9037062606634
-0.3157,-75.94170257675518
-0.3147000000000001,-74.97969889284694
-0.3137,-73.89037119195086
-0.3127000000000001,-72.63127813507097
-0.3117,-71.35803796519245
-0.3107000000000001,-70.14138624730852
-0.3097,-69.1793825634003
-0.3087000000000001,-68.21737887949207
-0.3077,-67.25537519558385
-0.3067000000000001,-66.12360615569182
-0.30569999999999997,-64.94939577680383
-0.3047000000000001,-63.77518539791585
-0.30369999999999997,-62.68585769701977
-0.3027000000000001,-61.7662953521075
-0.30169999999999997,-60.84673300719523
-0.3007000000000001,-59.884729323287
-0.29969999999999997,-58.83784296138688
-0.2987000000000001,-57.70607392149485
-0.29769999999999996,-56.61674622059877
-0.2967000000000001,-55.65474253669055
-0.29569999999999996,-54.791768643772876
-0.2947000000000001,-53.872206298860604
-0.29369999999999996,-52.78287859796452
-0.29270000000000007,-51.69355089706845
-0.29169999999999996,-50.50519340518181
-0.29070000000000007,-49.50074838227763
-0.28969999999999996,-48.63777448935996
-0.28870000000000007,-47.84553616143554
-0.28769999999999996,-47.02500360751382
-0.28670000000000007,-46.062999923605595
-0.28569999999999995,-44.93123088371356
-0.28470000000000006,-43.84190318281749
-0.28369999999999995,-42.87989949890926
-0.28270000000000006,-42.130102509980794
-0.28169999999999995,-41.39445263405098
-0.28070000000000006,-40.616361419125205
-0.27969999999999995,-39.61191639622103
-0.27870000000000006,-38.607471373316855
-0.27769999999999995,-37.645467689408626
-0.27670000000000006,-36.81078802248826
-0.27569999999999995,-36.11757948555439
-0.27470000000000006,-35.38192960962457
-0.27369999999999994,-34.50480860370825
-0.27270000000000005,-33.50036358080407
-0.27169999999999994,-32.45347721890394
-0.27070000000000005,-31.533914873991666
-0.26969999999999994,-30.8407063370578
-0.26870000000000005,-30.147497800123933
-0.26769999999999994,-29.35525947219951
-0.26670000000000005,-28.435697127287238
