Potential V vs RHE, Current mA cm-2
0.013299999999999867,22.097790503891872
0.012299999999999978,21.036757028993097
0.011299999999999866,20.159636023076775
0.010299999999999976,18.97127853119014
0.009299999999999864,17.980980621284615
0.008299999999999974,17.259477858353446
0.007299999999999862,16.25503283544927
0.006299999999999972,15.222293586547794
0.00529999999999986,14.57152638860988
0.0042999999999999705,13.776458638085728
0.0032999999999998586,12.77767246038101
0.0022999999999999687,12.087293346046872
0.0012999999999998568,11.439355570708686
0.00029999999999996696,10.45754592860235
-0.000700000000000145,9.678040002376715
-0.0017000000000000348,9.172988068324898
-0.0027000000000001467,8.351040803103311
-0.0037000000000000366,7.48806691018564
-0.0047000000000001485,6.977356130934361
-0.005700000000000038,6.309612397398063
-0.00670000000000015,5.42400312368255
-0.00770000000000004,4.887827541033701
-0.008700000000000152,4.371457916582963
-0.009700000000000042,3.5169722914644814
-0.010700000000000154,2.8393255788291283
-0.011700000000000044,2.417741611469348
-0.012700000000000156,1.6863358694391237
-0.013700000000000045,0.9280506127114639
-0.014700000000000157,0.5118425482911703
-0.015700000000000047,-0.06054964363422357
-0.01670000000000016,-0.8795260151260933
-0.01770000000000005,-1.3632158085499495
-0.01870000000000016,-1.7952686395287314
-0.01970000000000005,-2.5733598544545018
-0.020700000000000163,-3.1703680229975473
-0.021700000000000053,-3.515557580164616
-0.022700000000000164,-4.191789581500104
-0.023700000000000054,-4.876509850634781
-0.024700000000000166,-5.2259435417014455
-0.025700000000000056,-5.75504556785097
-0.026700000000000168,-6.507671979379168
-0.027700000000000058,-6.947647193637194
-0.02870000000000017,-7.323960399401294
-0.02970000000000006,-8.046877873632328
-0.03070000000000017,-8.584468167581042
-0.03170000000000006,-8.887216385752161
-0.03270000000000017,-9.521007048091697
-0.03370000000000006,-10.184506647728398
-0.034700000000000175,-10.481596020700055
-0.035700000000000065,-10.95976844005444
-0.03670000000000018,-11.667124089986958
-0.03770000000000007,-12.073146233048224
-0.03870000000000018,-12.440971171013134
-0.03970000000000007,-13.14549739834592
-0.04070000000000018,-13.654793466297335
-0.04170000000000007,-13.916515056772363
-0.04270000000000018,-14.486643710617974
-0.04370000000000007,-15.10911668255859
-0.044700000000000184,-15.406206055530248
-0.045700000000000074,-15.87306078448571
-0.046700000000000186,-16.580416434418233
-0.047700000000000076,-16.919947146385837
-0.04870000000000019,-17.217036519357496
-0.04970000000000008,-17.867803717295413
-0.05070000000000019,-18.348805559249524
-0.05170000000000008,-18.617600706223882
-0.05270000000000019,-19.22592656516585
-0.05370000000000008,-19.862546650105116
-0.05470000000000019,-20.10304757108217
-0.05570000000000008,-20.51331384804303
-0.056700000000000195,-21.16408104598095
-0.057700000000000085,-21.51775887094721
-0.058700000000000196,-21.843142469916167
-0.059700000000000086,-22.550498119848687
-0.0607000000000002,-22.960764396809545
-0.06170000000000009,-23.045647074801447
-0.0627000000000002,-23.55494314275286
-0.06370000000000009,-24.17741611469348
-0.0647000000000002,-24.601829504652986
-0.06570000000000009,-25.167714024599
-0.0667000000000002,-25.719451431546364
-0.0677000000000001,-25.974099465522073
-0.0687000000000002,-26.14386482150588
-0.0697000000000001,-26.709749341451893
-0.07070000000000021,-27.31807520039386
-0.0717000000000001,-27.742488590353368
-0.07270000000000021,-28.32252022329803
-0.0737000000000001,-28.8459634042481
-0.07470000000000021,-28.987434534234602
-0.0757000000000001,-29.38355369819681
-0.07670000000000021,-30.02017378313608
-0.0777000000000001,-30.45873428609424
-0.07870000000000021,-30.8690005630551
-0.0797000000000001,-31.49147353499572
-0.08070000000000022,-31.930034037953877
-0.0817000000000001,-32.09979939393769
-0.08270000000000022,-32.6373896878864
-0.08370000000000011,-33.245715546828364
-0.08470000000000022,-33.54280491980002
-0.08570000000000011,-34.03795387475279
-0.08670000000000022,-34.6887210726907
-0.08770000000000011,-34.92922199366775
-0.08870000000000022,-35.169722914644815
-0.08970000000000011,-35.721460321592176
-0.09070000000000022,-36.18831505054764
-0.09170000000000011,-36.44296308452335
-0.09270000000000023,-37.00884760446935
-0.09370000000000012,-37.57473212441538
-0.09470000000000023,-37.77279170639648
-0.09570000000000012,-38.197205096355994
-0.09670000000000023,-38.90456074628851
-0.09770000000000012,-39.244091458256115
-0.09870000000000023,-39.52703371822913
-0.09970000000000012,-40.177800916167044
-0.10070000000000023,-40.616361419125205
-0.10170000000000012,-40.828568114104954
-0.10270000000000024,-41.39445263405098
-0.10370000000000013,-41.97448426699564
-0.10470000000000024,-42.229132300971344
-0.10570000000000013,-42.738428368922754
-0.10670000000000024,-43.48822535785123
-0.10770000000000013,-43.79946184382153
-0.10870000000000024,-44.011668538801295
-0.10970000000000013,-44.54925883275
-0.11070000000000024,-45.05855490070142
-0.11170000000000013,-45.412232725667685
-0.11270000000000002,-46.02055858460964
-0.11370000000000013,-46.44497197456916
-0.11470000000000002,-46.61473733055296
-0.11570000000000014,-47.03915072051247
-0.11670000000000003,-47.77480059644228
-0.11770000000000014,-48.156772647405845
-0.11870000000000003,-48.48215624637481
-0.11970000000000014,-49.104629218315424
-0.12070000000000003,-49.543189721273585
-0.12170000000000014,-49.78369064225064
-0.12270000000000003,-50.3637222751953
-0.12370000000000014,-50.92960679514132
-0.12470000000000003,-51.15596060311972
-0.12570000000000014,-51.594521106077885
-0.12670000000000003,-52.2735825300131
-0.12770000000000015,-52.57067190298476
-0.12870000000000004,-52.83946704995912
-0.12970000000000015,-53.476087134898386
-0.13070000000000004,-53.91464763785655
-0.13170000000000015,-54.02782454184575
-0.13270000000000004,-54.57956194879311
-0.13370000000000015,-55.21618203373238
-0.13470000000000004,-55.59815408469595
-0.13570000000000015,-56.008420361656796
-0.13670000000000004,-56.46112797761361
-0.13770000000000016,-56.70162889859067
-0.13870000000000005,-56.998718271562325
-0.13970000000000016,-57.76266237348945
-0.14070000000000005,-58.34269400643411
-0.14170000000000016,-58.583194927411164
-0.14270000000000005,-59.12078522135989
-0.14370000000000016,-59.64422840230995
-0.14470000000000005,-59.842287984291055
-0.14570000000000016,-60.30914271324652
-0.14670000000000005,-61.03064547617768
-0.14770000000000016,-61.35602907514664
-0.14870000000000005,-61.58238288312505
-0.14970000000000017,-62.03509049908186
-0.15070000000000006,-62.44535677604272
-0.15170000000000017,-62.629269245025185
-0.15270000000000006,-63.280036442963095
-0.15370000000000017,-63.98739209289561
-0.15470000000000006,-64.19959878787537
-0.15570000000000017,-64.53912949984297
-0.15670000000000006,-65.02013134179708
-0.15770000000000017,-65.31722071476874
-0.15870000000000006,-65.64260431373769
-0.15970000000000018,-66.44898975466076
-0.16070000000000007,-66.98658004860948
-0.16170000000000018,-67.128051178596
-0.16270000000000007,-67.51002322955955
-0.16370000000000018,-68.0900548625042
-0.16470000000000007,-68.35885000947859
-0.16570000000000018,-68.86814607742998
-0.16670000000000007,-69.6603844053544
-0.16770000000000018,-69.98576800432336
-0.16870000000000007,-70.21212181230177
-0.16970000000000018,-70.56579963726803
-0.17070000000000007,-70.87703612323833
-0.17170000000000019,-71.2024197222073
-0.17270000000000008,-71.8814811461425
-0.1737000000000002,-72.50395411808313
-0.17470000000000008,-72.77274926505748
-0.1757000000000002,-73.14057420302241
-0.17670000000000008,-73.66401738397246
-0.1777000000000002,-73.72060583596706
-0.17870000000000008,-74.04598943493602
-0.1797000000000002,-74.75334508486853
-0.18070000000000008,-75.17775847482805
-0.1817000000000002,-75.33337671781321
-0.18270000000000008,-75.84267278576462
-0.1837000000000002,-76.45099864470659
-0.1847000000000001,-76.71979379168094
-0.1857000000000002,-77.11591295564315
-0.1867000000000001,-77.65350324959186
-0.1877000000000002,-77.85156283157298
-0.1887000000000001,-78.07791663955136
-0.1897000000000002,-78.65794827249603
-0.1907000000000001,-79.02577321046095
-0.1917000000000001,-79.16724434044745
-0.19269999999999998,-79.59165773040696
-0.1937000000000001,-80.07265957236108
-0.19469999999999998,-80.32730760633679
-0.1957000000000001,-80.7800152222936
-0.19669999999999999,-81.45907664622881
-0.1977000000000001,-81.67128334120858
-0.1987,-81.58640066321666
-0.1997000000000001,-81.95422560118158
-0.2007,-82.33619765214513
-0.2017000000000001,-82.71816970310869
-0.2027,-83.59529070902502
-0.2037000000000001,-84.26020501996159
-0.2047,-84.35923481095215
-0.2057000000000001,-84.52900016693594
-0.2067,-84.86853087890354
-0.2077000000000001,-84.86853087890354
-0.2087,-85.25050292986711
-0.2097000000000001,-86.19835950077669
-0.2107,-86.6793613427308
-0.2117000000000001,-86.79253824672
-0.2127,-86.93400937670651
-0.2137000000000001,-87.30183431467142
-0.2147,-87.69795347863361
-0.2157000000000001,-88.10821975559449
-0.2167,-88.71654561453644
-0.21770000000000012,-88.97119364851217
-0.2187,-89.08437055250135
-0.21970000000000012,-89.57951950745412
-0.2207,-89.84831465442848
-0.22170000000000012,-89.90490310642309
-0.2227,-90.30102227038529
-0.22370000000000012,-90.68299432134886
-0.2247,-90.5273760783637
-0.22570000000000012,-90.90934812932726
-0.2267,-91.40449708428001
-0.22770000000000012,-91.60255666626112
-0.22870000000000001,-91.97038160422603
-0.22970000000000013,-92.70603148015586
-0.23070000000000002,-92.98897374012887
-0.23170000000000013,-93.11629775711671
-0.23270000000000002,-93.51241692107894
-0.23370000000000013,-93.90853608504113
-0.23470000000000002,-94.17733123201549
-0.23570000000000013,-94.64418596097094
-0.23670000000000002,-95.18177625491967
-0.2376999999999999,-95.36568872390212
-0.23870000000000002,-95.42227717589672
-0.2396999999999999,-95.26665893291157
-0.24070000000000003,-95.16762914192103
-0.24169999999999991,-95.06859935093047
-0.24270000000000003,-95.59204253188052
-0.24369999999999992,-96.17207416482519
-0.24470000000000003,-96.31354529481169
-0.24569999999999992,-96.63892889378066
-0.24670000000000003,-97.09163650973747
-0.24769999999999992,-97.16237207473071
-0.24870000000000003,-97.19066630072803
-0.24969999999999992,-97.58678546469022
-0.25070000000000003,-98.2799940016241
-0.2516999999999999,-98.35072956661735
-0.25270000000000004,-98.80343718257416
-0.2536999999999999,-99.21370345953503
-0.25470000000000004,-99.18540923353773
-0.2556999999999999,-99.41176304151614
-0.25670000000000004,-99.90691199646888
-0.25769999999999993,-100.06253023945405
-0.25870000000000004,-100.21814848243919
-0.25969999999999993,-100.65670898539736
-0.26070000000000004,-100.89720990637443
-0.26169999999999993,-100.93965124537037
-0.26270000000000004,-101.46309442632044
-0.26369999999999993,-102.02897894626645
-0.26470000000000005,-101.78847802528938
-0.26569999999999994,-101.49138865231772
-0.26670000000000005,-101.83091936428535
-0.26769999999999994,-102.34021543223676
-0.26870000000000005,-102.82121727419087
-0.26969999999999994,-103.37295468113824
-0.27070000000000005,-103.5285729241234
-0.27169999999999994,-103.16074798615847
-0.27270000000000005,-103.35880756813957
-0.27369999999999994,-103.7266325061045
-0.27470000000000006,-103.74077961910314
-0.27569999999999995,-104.0378689920748
-0.27670000000000006,-104.56131217302486
-0.27769999999999995,-104.71693041601002
-0.27870000000000006,-104.71693041601002
-0.27969999999999995,-105.01401978898167
-0.28070000000000006,-105.11304957997223
-0.28169999999999995,-105.08475535397493
-0.28270000000000006,-105.65063987392094
-0.28369999999999995,-106.2023772808683
-0.28470000000000006,-106.13164171587505
-0.28569999999999995,-106.24481861986426
-0.28670000000000007,-106.49946665383996
-0.28769999999999996,-106.51361376683862
-0.28870000000000007,-106.81070313981027
-0.28969999999999996,-107.40488188575358
-0.29070000000000007,-107.67367703272794
-0.29169999999999996,-107.631235693732
-0.29270000000000007,-107.8292952757131
-0.29369999999999996,-108.04150197069285
-0.2947000000000001,-108.0273548576942
-0.29569999999999996,-108.33859134366452
-0.2967000000000001,-108.81959318561863
-0.29769999999999996,-108.80544607261997
-0.2987000000000001,-108.81959318561863
-0.29969999999999997,-109.34303636656868
-0.3007000000000001,-109.47036038355654
-0.30169999999999997,-109.49865460955384
-0.3027000000000001,-109.89477377351605
-0.30369999999999997,-110.2767458244796
-0.3047000000000001,-109.75330264352955
-0.30569999999999997,-109.41377193156194
-0.3067000000000001,-109.6259786265417
-0.3077,-109.42791904456058
-0.3087000000000001,-109.55524306154844
-0.3097,-110.63042364944587
-0.3107000000000001,-111.11142549139997
-0.3117,-111.06898415240403
-0.3127000000000001,-111.13971971739728
-0.3137,-111.38022063837434
-0.3147000000000001,-111.43680909036894
-0.3157,-111.7056042373433
-0.3167000000000001,-112.14416474030146
-0.3177,-112.17245896629876
-0.3187000000000001,-112.22904741829338
-0.3197,-112.55443101726232
-0.3207000000000001,-112.73834348624479
-0.3217,-112.71004926024747
-0.3227000000000001,-112.96469729422319
-0.3237,-113.31837511918944
-0.3247000000000001,-112.95055018122453
-0.3257,-113.17690398920294
-0.3267000000000001,-113.57302315316515
-0.3277,-113.70034717015301
-0.3287000000000001,-113.81352407414221
-0.3297,-114.1247605601125
-0.3307000000000001,-114.25208457710036
-0.3317,-114.36526148108955
-0.3327000000000001,-114.84626332304367
-0.3337,-115.11505847001803
-0.3347000000000001,-114.91699888803693
-0.3357,-114.81796909704637
-0.3367000000000001,-115.17164692201266
-0.3377,-115.29897093900047
-0.3387000000000001,-115.56776608597484
-0.3397,-116.06291504092759
-0.3407000000000001,-116.21853328391276
-0.3417,-116.16194483191815
-0.3427000000000001,-116.51562265688442
-0.3437,-116.86930048185067
-0.3447000000000001,-116.82685914285472
-0.3457,-117.13809562882503
-0.3467000000000001,-117.67568592277377
-0.3477,-117.67568592277377
-0.3487000000000001,-117.59080324478184
-0.3497,-117.81715705276027
-0.3507000000000001,-117.84545127875757
-0.3517,-117.95862818274676
-0.3527000000000001,-118.59524826768603
-0.3537,-119.09039722263879
-0.3547000000000001,-119.00551454464687
-0.3557,-119.04795588364286
-0.35670000000000013,-119.2601625786226
-0.3577,-119.2601625786226
-0.35870000000000013,-119.47236927360234
-0.3597,-119.99581245455242
-0.36070000000000013,-120.27875471452542
-0.3617,-120.29290182752408
-0.3626999999999999,-120.50510852250382
-0.3637,-120.90122768646604
-0.3646999999999999,-121.0851401554485
-0.3657,-121.33978818942418
-0.3666999999999999,-121.72176024038777
-0.3677,-121.80664291837965
-0.3686999999999999,-121.89152559637157
-0.36970000000000003,-122.14617363034726
-0.3706999999999999,-122.37252743832566
-0.37170000000000003,-122.45741011631759
-0.3726999999999999,-122.95255907127036
-0.37370000000000003,-123.32038400923526
-0.3746999999999999,-123.26379555724066
-0.37570000000000003,-123.4760022522204
-0.3766999999999999,-123.87212141618261
-0.37770000000000004,-123.97115120717316
-0.3786999999999999,-124.14091656315696
-0.37970000000000004,-124.66435974410705
-0.3806999999999999,-124.86241932608814
-0.38170000000000004,-124.94730200408004
-0.38269999999999993,-125.3858625070382
-0.38370000000000004,-125.62636342801528
-0.38469999999999993,-125.555627863022
-0.38570000000000004,-125.98004125298151
-0.38669999999999993,-125.37171539403954
-0.38570000000000004,-122.98085329726763
-0.38469999999999993,-120.77390366947817
-0.38370000000000004,-119.06210299664149
-0.38269999999999993,-117.10980140282774
-0.38170000000000004,-115.14335269601534
-0.3806999999999999,-113.62961160515974
-0.37970000000000004,-112.05928206230955
-0.3786999999999999,-110.1918631464877
-0.37770000000000004,-108.56494515164292
-0.3766999999999999,-107.05120406078733
-0.37570000000000003,-105.39599183994524
-0.3746999999999999,-103.88225074908964
-0.37370000000000003,-102.70804037020166
-0.3726999999999999,-101.26503484433933
-0.37170000000000003,-99.6522639624932
-0.3706999999999999,-98.43561224460926
-0.36970000000000003,-97.04919517074151
-0.3686999999999999,-95.37983583690077
-0.3677,-94.07830144102493
-0.3666999999999999,-93.04556219212347
-0.3657,-91.85720470023682
-0.3646999999999999,-90.6405529823529
-0.3637,-89.59366662045278
-0.3626999999999999,-88.23554377258235
-0.3617,-86.7359497947254
-0.36070000000000013,-85.68906343282526
-0.3597,-84.67047129692244
-0.35870000000000013,-83.51040803103311
-0.3577,-82.44937455613434
-0.35670000000000013,-81.40248819423421
-0.3557,-80.00192400736783
-0.3547000000000001,-78.7569780634866
-0.3537,-77.92229839656622
-0.3527000000000001,-76.84711780866878
-0.3517,-75.5880247517889
-0.3507000000000001,-74.64016818087934
-0.3497,-73.63572315797516
-0.3487000000000001,-72.34833587509796
-0.3477,-71.4004793041884
-0.3467000000000001,-70.57994675026669
-0.3457,-69.3774421453814
-0.3447000000000001,-68.25982021848802
-0.3437,-67.55246456855551
-0.3427000000000001,-66.56216665864997
-0.3417,-65.34551494076604
-0.3407000000000001,-64.46839393484973
-0.3397,-63.59127292893339
-0.3387000000000001,-62.44535677604272
-0.3377,-61.5965299961237
-0.3367000000000001,-60.889174346191176
-0.3357,-59.72911108030185
-0.3347000000000001,-58.66807760540307
-0.3337,-58.017310407465146
-0.3327000000000001,-57.21092496654208
-0.3317,-56.14989149164331
-0.3307000000000001,-55.385947389716186
-0.3297,-54.537120609797164
-0.3287000000000001,-53.39120445690648
-0.3277,-52.59896612898206
-0.3267000000000001,-51.990640270040096
-0.3257,-51.000342360134574
-0.3247000000000001,-50.038338676226346
-0.3237,-49.41586570428573
-0.3227000000000001,-48.55289181136806
-0.3217,-47.49185833646928
-0.3207000000000001,-46.79864979953541
-0.3197,-46.119588375600195
-0.3187000000000001,-45.086849126698716
-0.3177,-44.36534636376755
-0.3167000000000001,-43.79946184382153
-0.3157,-42.82331104691466
-0.3147000000000001,-41.87545447600508
-0.3137,-41.281275730061765
-0.3127000000000001,-40.51733162813464
-0.3117,-39.640210622218326
-0.3107000000000001,-39.08847321527096
-0.3097,-38.4518531303317
-0.3087000000000001,-37.43326099442887
-0.3077,-36.725905344496354
-0.3067000000000001,-36.21660927654494
-0.30569999999999997,-35.339488270628614
-0.3047000000000001,-34.51895571670689
-0.30369999999999997,-34.03795387475279
-0.3027000000000001,-33.288156885824314
-0.30169999999999997,-32.354447427913385
-0.3007000000000001,-31.76026868197007
-0.29969999999999997,-31.180237049025404
-0.2987000000000001,-30.317263156107735
-0.29769999999999996,-29.708937297165768
-0.2967000000000001,-29.31281813320356
-0.29569999999999996,-28.478138466283188
-0.2947000000000001,-27.700047251357418
-0.29369999999999996,-27.303928087395207
-0.29270000000000007,-26.59657243746269
-0.29169999999999996,-25.648715866553115
-0.29070000000000007,-25.111125572604404
-0.28969999999999996,-24.686712182644893
-0.28870000000000007,-24.035944984706973
-0.28769999999999996,-23.51250180375691
-0.28670000000000007,-23.073941300798747
-0.28569999999999995,-22.182673181883775
-0.28470000000000006,-21.376287740960702
-0.28369999999999995,-21.022609915994444
-0.28270000000000006,-20.44257828304978
-0.28169999999999995,-19.664487068124007
-0.28070000000000006,-19.211779452167196
-0.27969999999999995,-18.702483384215785
-0.27870000000000006,-17.839509491298113
-0.27769999999999995,-17.3302134233467
-0.27670000000000006,-17.03312405037504
-0.27569999999999995,-16.29747417444522
-0.27470000000000006,-15.618412750510005
-0.27369999999999994,-15.293029151541045
-0.27270000000000005,-14.684703292599082
-0.27169999999999994,-13.926418035871421
-0.27070000000000005,-13.54444598490786
-0.26969999999999994,-13.110129615849296
-0.26870000000000005,-12.323550133124334
-0.26769999999999994,-11.807180508673596
-0.26670000000000005,-11.449258549807741
