Apr. 20, 2025   10:53:47
Cyclic Voltammetry
File: c:/users/guazh/data/banditlqround7_x0exp590_r20/2025-04-16-exp1136\exp1136-2025-04-20t10_42_34-h2koh\exp1136_cv_sr_500mvs_efin_-1500mv.bin
Data Source:  Experiment
Instrument Model:  CHI760E
Header: CV ran at 500 mVs
Note: 

Init E (V) = -1
High E (V) = -1
Low E (V) = -1.5
Final E (V) = -1
Init P/N = N
Scan Rate (V/s) = 0.5
Segment = 3
Sample Interval (V) = 0.001
Quiet Time (sec) = 2
Sensitivity (A/V) = 0.01
Comp R (ohm) = 1.5

Results:

Channel 1:
Segment 1:

Segment 2:

Segment 3:

Potential/V, Current/A

-1.000, 3.715e-5
-1.001, 8.032e-5
-1.002, 9.265e-5
-1.003, 1.050e-4
-1.004, 1.204e-4
-1.005, 1.327e-4
-1.006, 1.389e-4
-1.007, 1.358e-4
-1.008, 1.235e-4
-1.009, 1.142e-4
-1.010, 1.081e-4
-1.011, 1.111e-4
-1.012, 1.235e-4
-1.013, 1.358e-4
-1.014, 1.420e-4
-1.015, 1.420e-4
-1.016, 1.327e-4
-1.017, 1.204e-4
-1.018, 1.111e-4
-1.019, 1.111e-4
-1.020, 1.204e-4
-1.021, 1.358e-4
-1.022, 1.420e-4
-1.023, 1.420e-4
-1.024, 1.358e-4
-1.025, 1.266e-4
-1.026, 1.142e-4
-1.027, 1.111e-4
-1.028, 1.204e-4
-1.029, 1.296e-4
-1.030, 1.420e-4
-1.031, 1.451e-4
-1.032, 1.389e-4
-1.033, 1.296e-4
-1.034, 1.173e-4
-1.035, 1.111e-4
-1.036, 1.173e-4
-1.037, 1.266e-4
-1.038, 1.389e-4
-1.039, 1.451e-4
-1.040, 1.420e-4
-1.041, 1.327e-4
-1.042, 1.204e-4
-1.043, 1.142e-4
-1.044, 1.142e-4
-1.045, 1.235e-4
-1.046, 1.358e-4
-1.047, 1.451e-4
-1.048, 1.451e-4
-1.049, 1.389e-4
-1.050, 1.266e-4
-1.051, 1.173e-4
-1.052, 1.142e-4
-1.053, 1.204e-4
-1.054, 1.327e-4
-1.055, 1.420e-4
-1.056, 1.481e-4
-1.057, 1.420e-4
-1.058, 1.327e-4
-1.059, 1.204e-4
-1.060, 1.173e-4
-1.061, 1.173e-4
-1.062, 1.296e-4
-1.063, 1.420e-4
-1.064, 1.481e-4
-1.065, 1.451e-4
-1.066, 1.358e-4
-1.067, 1.266e-4
-1.068, 1.173e-4
-1.069, 1.173e-4
-1.070, 1.266e-4
-1.071, 1.389e-4
-1.072, 1.481e-4
-1.073, 1.512e-4
-1.074, 1.420e-4
-1.075, 1.327e-4
-1.076, 1.235e-4
-1.077, 1.173e-4
-1.078, 1.266e-4
-1.079, 1.358e-4
-1.080, 1.481e-4
-1.081, 1.512e-4
-1.082, 1.451e-4
-1.083, 1.358e-4
-1.084, 1.266e-4
-1.085, 1.204e-4
-1.086, 1.235e-4
-1.087, 1.358e-4
-1.088, 1.481e-4
-1.089, 1.543e-4
-1.090, 1.512e-4
-1.091, 1.420e-4
-1.092, 1.327e-4
-1.093, 1.235e-4
-1.094, 1.235e-4
-1.095, 1.327e-4
-1.096, 1.451e-4
-1.097, 1.543e-4
-1.098, 1.543e-4
-1.099, 1.481e-4
-1.100, 1.358e-4
-1.101, 1.296e-4
-1.102, 1.235e-4
-1.103, 1.327e-4
-1.104, 1.420e-4
-1.105, 1.574e-4
-1.106, 1.605e-4
-1.107, 1.543e-4
-1.108, 1.451e-4
-1.109, 1.327e-4
-1.110, 1.296e-4
-1.111, 1.327e-4
-1.112, 1.420e-4
-1.113, 1.543e-4
-1.114, 1.605e-4
-1.115, 1.605e-4
-1.116, 1.481e-4
-1.117, 1.389e-4
-1.118, 1.327e-4
-1.119, 1.327e-4
-1.120, 1.420e-4
-1.121, 1.543e-4
-1.122, 1.636e-4
-1.123, 1.636e-4
-1.124, 1.574e-4
-1.125, 1.481e-4
-1.126, 1.358e-4
-1.127, 1.327e-4
-1.128, 1.420e-4
-1.129, 1.512e-4
-1.130, 1.636e-4
-1.131, 1.666e-4
-1.132, 1.636e-4
-1.133, 1.512e-4
-1.134, 1.420e-4
-1.135, 1.358e-4
-1.136, 1.420e-4
-1.137, 1.512e-4
-1.138, 1.636e-4
-1.139, 1.697e-4
-1.140, 1.697e-4
-1.141, 1.605e-4
-1.142, 1.481e-4
-1.143, 1.420e-4
-1.144, 1.420e-4
-1.145, 1.512e-4
-1.146, 1.636e-4
-1.147, 1.728e-4
-1.148, 1.728e-4
-1.149, 1.666e-4
-1.150, 1.543e-4
-1.151, 1.451e-4
-1.152, 1.420e-4
-1.153, 1.512e-4
-1.154, 1.605e-4
-1.155, 1.728e-4
-1.156, 1.790e-4
-1.157, 1.728e-4
-1.158, 1.636e-4
-1.159, 1.512e-4
-1.160, 1.481e-4
-1.161, 1.512e-4
-1.162, 1.605e-4
-1.163, 1.728e-4
-1.164, 1.821e-4
-1.165, 1.790e-4
-1.166, 1.697e-4
-1.167, 1.605e-4
-1.168, 1.512e-4
-1.169, 1.512e-4
-1.170, 1.605e-4
-1.171, 1.728e-4
-1.172, 1.821e-4
-1.173, 1.851e-4
-1.174, 1.790e-4
-1.175, 1.666e-4
-1.176, 1.574e-4
-1.177, 1.543e-4
-1.178, 1.636e-4
-1.179, 1.728e-4
-1.180, 1.851e-4
-1.181, 1.882e-4
-1.182, 1.851e-4
-1.183, 1.759e-4
-1.184, 1.605e-4
-1.185, 1.574e-4
-1.186, 1.605e-4
-1.187, 1.728e-4
-1.188, 1.851e-4
-1.189, 1.913e-4
-1.190, 1.882e-4
-1.191, 1.821e-4
-1.192, 1.697e-4
-1.193, 1.636e-4
-1.194, 1.636e-4
-1.195, 1.728e-4
-1.196, 1.851e-4
-1.197, 1.944e-4
-1.198, 1.975e-4
-1.199, 1.882e-4
-1.200, 1.759e-4
-1.201, 1.697e-4
-1.202, 1.666e-4
-1.203, 1.728e-4
-1.204, 1.851e-4
-1.205, 1.944e-4
-1.206, 2.006e-4
-1.207, 1.944e-4
-1.208, 1.851e-4
-1.209, 1.728e-4
-1.210, 1.697e-4
-1.211, 1.728e-4
-1.212, 1.851e-4
-1.213, 1.975e-4
-1.214, 2.036e-4
-1.215, 2.006e-4
-1.216, 1.913e-4
-1.217, 1.821e-4
-1.218, 1.759e-4
-1.219, 1.759e-4
-1.220, 1.851e-4
-1.221, 1.944e-4
-1.222, 2.067e-4
-1.223, 2.067e-4
-1.224, 2.006e-4
-1.225, 1.913e-4
-1.226, 1.790e-4
-1.227, 1.790e-4
-1.228, 1.851e-4
-1.229, 1.975e-4
-1.230, 2.067e-4
-1.231, 2.129e-4
-1.232, 2.067e-4
-1.233, 1.975e-4
-1.234, 1.851e-4
-1.235, 1.821e-4
-1.236, 1.851e-4
-1.237, 1.975e-4
-1.238, 2.067e-4
-1.239, 2.129e-4
-1.240, 2.129e-4
-1.241, 2.036e-4
-1.242, 1.944e-4
-1.243, 1.882e-4
-1.244, 1.882e-4
-1.245, 1.975e-4
-1.246, 2.067e-4
-1.247, 2.191e-4
-1.248, 2.191e-4
-1.249, 2.129e-4
-1.250, 2.006e-4
-1.251, 1.913e-4
-1.252, 1.913e-4
-1.253, 1.975e-4
-1.254, 2.067e-4
-1.255, 2.191e-4
-1.256, 2.221e-4
-1.257, 2.191e-4
-1.258, 2.098e-4
-1.259, 1.975e-4
-1.260, 1.944e-4
-1.261, 1.975e-4
-1.262, 2.098e-4
-1.263, 2.221e-4
-1.264, 2.252e-4
-1.265, 2.252e-4
-1.266, 2.160e-4
-1.267, 2.067e-4
-1.268, 2.006e-4
-1.269, 2.006e-4
-1.270, 2.098e-4
-1.271, 2.191e-4
-1.272, 2.283e-4
-1.273, 2.314e-4
-1.274, 2.252e-4
-1.275, 2.129e-4
-1.276, 2.067e-4
-1.277, 2.036e-4
-1.278, 2.098e-4
-1.279, 2.221e-4
-1.280, 2.345e-4
-1.281, 2.345e-4
-1.282, 2.314e-4
-1.283, 2.221e-4
-1.284, 2.129e-4
-1.285, 2.067e-4
-1.286, 2.129e-4
-1.287, 2.221e-4
-1.288, 2.345e-4
-1.289, 2.406e-4
-1.290, 2.406e-4
-1.291, 2.314e-4
-1.292, 2.221e-4
-1.293, 2.160e-4
-1.294, 2.160e-4
-1.295, 2.252e-4
-1.296, 2.345e-4
-1.297, 2.437e-4
-1.298, 2.468e-4
-1.299, 2.406e-4
-1.300, 2.314e-4
-1.301, 2.221e-4
-1.302, 2.221e-4
-1.303, 2.283e-4
-1.304, 2.376e-4
-1.305, 2.499e-4
-1.306, 2.530e-4
-1.307, 2.499e-4
-1.308, 2.406e-4
-1.309, 2.314e-4
-1.310, 2.283e-4
-1.311, 2.345e-4
-1.312, 2.437e-4
-1.313, 2.561e-4
-1.314, 2.591e-4
-1.315, 2.591e-4
-1.316, 2.530e-4
-1.317, 2.437e-4
-1.318, 2.376e-4
-1.319, 2.376e-4
-1.320, 2.499e-4
-1.321, 2.591e-4
-1.322, 2.684e-4
-1.323, 2.715e-4
-1.324, 2.653e-4
-1.325, 2.591e-4
-1.326, 2.499e-4
-1.327, 2.499e-4
-1.328, 2.561e-4
-1.329, 2.684e-4
-1.330, 2.807e-4
-1.331, 2.838e-4
-1.332, 2.807e-4
-1.333, 2.746e-4
-1.334, 2.653e-4
-1.335, 2.622e-4
-1.336, 2.684e-4
-1.337, 2.807e-4
-1.338, 2.931e-4
-1.339, 2.992e-4
-1.340, 2.992e-4
-1.341, 2.931e-4
-1.342, 2.838e-4
-1.343, 2.807e-4
-1.344, 2.838e-4
-1.345, 2.931e-4
-1.346, 3.085e-4
-1.347, 3.146e-4
-1.348, 3.177e-4
-1.349, 3.146e-4
-1.350, 3.085e-4
-1.351, 3.023e-4
-1.352, 3.023e-4
-1.353, 3.115e-4
-1.354, 3.239e-4
-1.355, 3.362e-4
-1.356, 3.455e-4
-1.357, 3.424e-4
-1.358, 3.362e-4
-1.359, 3.331e-4
-1.360, 3.300e-4
-1.361, 3.393e-4
-1.362, 3.485e-4
-1.363, 3.640e-4
-1.364, 3.732e-4
-1.365, 3.763e-4
-1.366, 3.732e-4
-1.367, 3.670e-4
-1.368, 3.670e-4
-1.369, 3.732e-4
-1.370, 3.855e-4
-1.371, 4.010e-4
-1.372, 4.133e-4
-1.373, 4.195e-4
-1.374, 4.164e-4
-1.375, 4.133e-4
-1.376, 4.133e-4
-1.377, 4.164e-4
-1.378, 4.287e-4
-1.379, 4.441e-4
-1.380, 4.626e-4
-1.381, 4.719e-4
-1.382, 4.780e-4
-1.383, 4.780e-4
-1.384, 4.750e-4
-1.385, 4.780e-4
-1.386, 4.935e-4
-1.387, 5.089e-4
-1.388, 5.305e-4
-1.389, 5.459e-4
-1.390, 5.520e-4
-1.391, 5.582e-4
-1.392, 5.613e-4
-1.393, 5.674e-4
-1.394, 5.798e-4
-1.395, 5.983e-4
-1.396, 6.229e-4
-1.397, 6.414e-4
-1.398, 6.599e-4
-1.399, 6.723e-4
-1.400, 6.784e-4
-1.401, 6.877e-4
-1.402, 7.031e-4
-1.403, 7.278e-4
-1.404, 7.555e-4
-1.405, 7.863e-4
-1.406, 8.141e-4
-1.407, 8.357e-4
-1.408, 8.573e-4
-1.409, 8.727e-4
-1.410, 8.973e-4
-1.411, 9.313e-4
-1.412, 9.713e-4
-1.413, 1.014e-3
-1.414, 1.058e-3
-1.415, 1.098e-3
-1.416, 1.135e-3
-1.417, 1.172e-3
-1.418, 1.212e-3
-1.419, 1.258e-3
-1.420, 1.317e-3
-1.421, 1.381e-3
-1.422, 1.449e-3
-1.423, 1.517e-3
-1.424, 1.582e-3
-1.425, 1.643e-3
-1.426, 1.708e-3
-1.427, 1.779e-3
-1.428, 1.859e-3
-1.429, 1.949e-3
-1.430, 2.047e-3
-1.431, 2.146e-3
-1.432, 2.242e-3
-1.433, 2.337e-3
-1.434, 2.430e-3
-1.435, 2.525e-3
-1.436, 2.627e-3
-1.437, 2.741e-3
-1.438, 2.864e-3
-1.439, 2.988e-3
-1.440, 3.111e-3
-1.441, 3.228e-3
-1.442, 3.336e-3
-1.443, 3.444e-3
-1.444, 3.552e-3
-1.445, 3.666e-3
-1.446, 3.789e-3
-1.447, 3.922e-3
-1.448, 4.048e-3
-1.449, 4.165e-3
-1.450, 4.273e-3
-1.451, 4.375e-3
-1.452, 4.474e-3
-1.453, 4.579e-3
-1.454, 4.696e-3
-1.455, 4.816e-3
-1.456, 4.936e-3
-1.457, 5.044e-3
-1.458, 5.140e-3
-1.459, 5.232e-3
-1.460, 5.322e-3
-1.461, 5.417e-3
-1.462, 5.522e-3
-1.463, 5.639e-3
-1.464, 5.756e-3
-1.465, 5.873e-3
-1.466, 5.975e-3
-1.467, 6.071e-3
-1.468, 6.157e-3
-1.469, 6.250e-3
-1.470, 6.351e-3
-1.471, 6.469e-3
-1.472, 6.589e-3
-1.473, 6.712e-3
-1.474, 6.826e-3
-1.475, 6.922e-3
-1.476, 7.011e-3
-1.477, 7.101e-3
-1.478, 7.199e-3
-1.479, 7.307e-3
-1.480, 7.427e-3
-1.481, 7.551e-3
-1.482, 7.665e-3
-1.483, 7.770e-3
-1.484, 7.865e-3
-1.485, 7.955e-3
-1.486, 8.056e-3
-1.487, 8.164e-3
-1.488, 8.288e-3
-1.489, 8.420e-3
-1.490, 8.543e-3
-1.491, 8.658e-3
-1.492, 8.759e-3
-1.493, 8.852e-3
-1.494, 8.954e-3
-1.495, 9.064e-3
-1.496, 9.188e-3
-1.497, 9.323e-3
-1.498, 9.459e-3
-1.499, 9.582e-3
-1.500, 9.604e-3
-1.499, 9.487e-3
-1.498, 9.373e-3
-1.497, 9.265e-3
-1.496, 9.169e-3
-1.495, 9.080e-3
-1.494, 8.994e-3
-1.493, 8.898e-3
-1.492, 8.787e-3
-1.491, 8.667e-3
-1.490, 8.543e-3
-1.489, 8.423e-3
-1.488, 8.318e-3
-1.487, 8.226e-3
-1.486, 8.140e-3
-1.485, 8.047e-3
-1.484, 7.945e-3
-1.483, 7.831e-3
-1.482, 7.711e-3
-1.481, 7.597e-3
-1.480, 7.501e-3
-1.479, 7.412e-3
-1.478, 7.332e-3
-1.477, 7.252e-3
-1.476, 7.162e-3
-1.475, 7.057e-3
-1.474, 6.943e-3
-1.473, 6.832e-3
-1.472, 6.728e-3
-1.471, 6.641e-3
-1.470, 6.561e-3
-1.469, 6.484e-3
-1.468, 6.401e-3
-1.467, 6.305e-3
-1.466, 6.200e-3
-1.465, 6.095e-3
-1.464, 6.000e-3
-1.463, 5.914e-3
-1.462, 5.840e-3
-1.461, 5.766e-3
-1.460, 5.685e-3
-1.459, 5.599e-3
-1.458, 5.500e-3
-1.457, 5.396e-3
-1.456, 5.300e-3
-1.455, 5.211e-3
-1.454, 5.137e-3
-1.453, 5.066e-3
-1.452, 4.995e-3
-1.451, 4.915e-3
-1.450, 4.825e-3
-1.449, 4.730e-3
-1.448, 4.634e-3
-1.447, 4.551e-3
-1.446, 4.477e-3
-1.445, 4.412e-3
-1.444, 4.350e-3
-1.443, 4.280e-3
-1.442, 4.199e-3
-1.441, 4.113e-3
-1.440, 4.027e-3
-1.439, 3.947e-3
-1.438, 3.876e-3
-1.437, 3.817e-3
-1.436, 3.758e-3
-1.435, 3.697e-3
-1.434, 3.626e-3
-1.433, 3.552e-3
-1.432, 3.472e-3
-1.431, 3.398e-3
-1.430, 3.330e-3
-1.429, 3.278e-3
-1.428, 3.222e-3
-1.427, 3.167e-3
-1.426, 3.105e-3
-1.425, 3.037e-3
-1.424, 2.963e-3
-1.423, 2.892e-3
-1.422, 2.830e-3
-1.421, 2.778e-3
-1.420, 2.732e-3
-1.419, 2.682e-3
-1.418, 2.630e-3
-1.417, 2.568e-3
-1.416, 2.504e-3
-1.415, 2.439e-3
-1.414, 2.380e-3
-1.413, 2.331e-3
-1.412, 2.291e-3
-1.411, 2.248e-3
-1.410, 2.205e-3
-1.409, 2.149e-3
-1.408, 2.094e-3
-1.407, 2.035e-3
-1.406, 1.980e-3
-1.405, 1.939e-3
-1.404, 1.899e-3
-1.403, 1.865e-3
-1.402, 1.825e-3
-1.401, 1.779e-3
-1.400, 1.733e-3
-1.399, 1.680e-3
-1.398, 1.631e-3
-1.397, 1.594e-3
-1.396, 1.557e-3
-1.395, 1.529e-3
-1.394, 1.499e-3
-1.393, 1.458e-3
-1.392, 1.418e-3
-1.391, 1.372e-3
-1.390, 1.329e-3
-1.389, 1.295e-3
-1.388, 1.264e-3
-1.387, 1.243e-3
-1.386, 1.215e-3
-1.385, 1.187e-3
-1.384, 1.150e-3
-1.383, 1.110e-3
-1.382, 1.073e-3
-1.381, 1.039e-3
-1.380, 1.018e-3
-1.379, 9.960e-4
-1.378, 9.775e-4
-1.377, 9.528e-4
-1.376, 9.220e-4
-1.375, 8.881e-4
-1.374, 8.542e-4
-1.373, 8.295e-4
-1.372, 8.048e-4
-1.371, 7.894e-4
-1.370, 7.740e-4
-1.369, 7.555e-4
-1.368, 7.309e-4
-1.367, 7.031e-4
-1.366, 6.723e-4
-1.365, 6.476e-4
-1.364, 6.291e-4
-1.363, 6.168e-4
-1.362, 6.075e-4
-1.361, 5.921e-4
-1.360, 5.767e-4
-1.359, 5.520e-4
-1.358, 5.274e-4
-1.357, 5.027e-4
-1.356, 4.873e-4
-1.355, 4.750e-4
-1.354, 4.688e-4
-1.353, 4.595e-4
-1.352, 4.472e-4
-1.351, 4.287e-4
-1.350, 4.071e-4
-1.349, 3.886e-4
-1.348, 3.701e-4
-1.347, 3.609e-4
-1.346, 3.578e-4
-1.345, 3.547e-4
-1.344, 3.424e-4
-1.343, 3.300e-4
-1.342, 3.115e-4
-1.341, 2.900e-4
-1.340, 2.776e-4
-1.339, 2.684e-4
-1.338, 2.653e-4
-1.337, 2.653e-4
-1.336, 2.591e-4
-1.335, 2.468e-4
-1.334, 2.345e-4
-1.333, 2.160e-4
-1.332, 2.006e-4
-1.331, 1.944e-4
-1.330, 1.944e-4
-1.329, 1.944e-4
-1.328, 1.913e-4
-1.327, 1.851e-4
-1.326, 1.728e-4
-1.325, 1.574e-4
-1.324, 1.420e-4
-1.323, 1.327e-4
-1.322, 1.327e-4
-1.321, 1.327e-4
-1.320, 1.358e-4
-1.319, 1.327e-4
-1.318, 1.235e-4
-1.317, 1.111e-4
-1.316, 9.573e-5
-1.315, 8.648e-5
-1.314, 8.648e-5
-1.313, 8.648e-5
-1.312, 9.265e-5
-1.311, 8.957e-5
-1.310, 8.340e-5
-1.309, 7.107e-5
-1.308, 5.873e-5
-1.307, 4.949e-5
-1.306, 4.640e-5
-1.305, 4.949e-5
-1.304, 5.565e-5
-1.303, 5.565e-5
-1.302, 5.257e-5
-1.301, 4.332e-5
-1.300, 3.099e-5
-1.299, 1.865e-5
-1.298, 1.557e-5
-1.297, 1.557e-5
-1.296, 2.174e-5
-1.295, 2.790e-5
-1.294, 2.790e-5
-1.293, 1.865e-5
-1.292, 6.322e-6
-1.291, -2.927e-6
-1.290, -9.093e-6
-1.289, -9.093e-6
-1.288, -2.927e-6
-1.287, 3.239e-6
-1.286, 3.239e-6
-1.285, 1.559e-7
-1.284, -1.218e-5
-1.283, -2.143e-5
-1.282, -2.759e-5
-1.281, -3.068e-5
-1.280, -2.451e-5
-1.279, -1.834e-5
-1.278, -1.526e-5
-1.277, -1.526e-5
-1.276, -2.451e-5
-1.275, -3.376e-5
-1.274, -4.301e-5
-1.273, -4.609e-5
-1.272, -4.301e-5
-1.271, -3.376e-5
-1.270, -2.759e-5
-1.269, -2.759e-5
-1.268, -3.684e-5
-1.267, -4.609e-5
-1.266, -5.534e-5
-1.265, -6.151e-5
-1.264, -5.842e-5
-1.263, -5.226e-5
-1.262, -4.301e-5
-1.261, -3.992e-5
-1.260, -4.609e-5
-1.259, -5.534e-5
-1.258, -6.459e-5
-1.257, -7.076e-5
-1.256, -7.076e-5
-1.255, -6.459e-5
-1.254, -5.534e-5
-1.253, -4.917e-5
-1.252, -5.226e-5
-1.251, -5.842e-5
-1.250, -7.076e-5
-1.249, -8.000e-5
-1.248, -8.000e-5
-1.247, -7.384e-5
-1.246, -6.767e-5
-1.245, -6.151e-5
-1.244, -6.151e-5
-1.243, -6.459e-5
-1.242, -7.384e-5
-1.241, -8.617e-5
-1.240, -8.925e-5
-1.239, -8.617e-5
-1.238, -7.692e-5
-1.237, -6.767e-5
-1.236, -6.459e-5
-1.235, -7.076e-5
-1.234, -7.692e-5
-1.233, -8.925e-5
-1.232, -9.542e-5
-1.231, -9.542e-5
-1.230, -8.925e-5
-1.229, -8.000e-5
-1.228, -7.384e-5
-1.227, -7.384e-5
-1.226, -8.309e-5
-1.225, -9.234e-5
-1.224, -1.016e-4
-1.223, -1.016e-4
-1.222, -9.850e-5
-1.221, -8.925e-5
-1.220, -8.000e-5
-1.219, -7.692e-5
-1.218, -8.309e-5
-1.217, -9.542e-5
-1.216, -1.047e-4
-1.215, -1.078e-4
-1.214, -1.047e-4
-1.213, -9.542e-5
-1.212, -8.617e-5
-1.211, -8.309e-5
-1.210, -8.617e-5
-1.209, -9.542e-5
-1.208, -1.047e-4
-1.207, -1.139e-4
-1.206, -1.108e-4
-1.205, -1.047e-4
-1.204, -9.542e-5
-1.203, -8.925e-5
-1.202, -8.617e-5
-1.201, -9.850e-5
-1.200, -1.078e-4
-1.199, -1.170e-4
-1.198, -1.201e-4
-1.197, -1.108e-4
-1.196, -1.047e-4
-1.195, -9.234e-5
-1.194, -9.234e-5
-1.193, -9.850e-5
-1.192, -1.078e-4
-1.191, -1.201e-4
-1.190, -1.232e-4
-1.189, -1.201e-4
-1.188, -1.108e-4
-1.187, -1.016e-4
-1.186, -9.542e-5
-1.185, -9.850e-5
-1.184, -1.078e-4
-1.183, -1.201e-4
-1.182, -1.263e-4
-1.181, -1.263e-4
-1.180, -1.201e-4
-1.179, -1.078e-4
-1.178, -1.016e-4
-1.177, -1.016e-4
-1.176, -1.078e-4
-1.175, -1.201e-4
-1.174, -1.293e-4
-1.173, -1.324e-4
-1.172, -1.263e-4
-1.171, -1.139e-4
-1.170, -1.047e-4
-1.169, -1.047e-4
-1.168, -1.078e-4
-1.167, -1.201e-4
-1.166, -1.324e-4
-1.165, -1.355e-4
-1.164, -1.324e-4
-1.163, -1.232e-4
-1.162, -1.108e-4
-1.161, -1.078e-4
-1.160, -1.108e-4
-1.159, -1.201e-4
-1.158, -1.324e-4
-1.157, -1.386e-4
-1.156, -1.386e-4
-1.155, -1.293e-4
-1.154, -1.201e-4
-1.153, -1.139e-4
-1.152, -1.108e-4
-1.151, -1.201e-4
-1.150, -1.324e-4
-1.149, -1.417e-4
-1.148, -1.448e-4
-1.147, -1.386e-4
-1.146, -1.263e-4
-1.145, -1.170e-4
-1.144, -1.139e-4
-1.143, -1.201e-4
-1.142, -1.324e-4
-1.141, -1.417e-4
-1.140, -1.478e-4
-1.139, -1.448e-4
-1.138, -1.324e-4
-1.137, -1.232e-4
-1.136, -1.170e-4
-1.135, -1.201e-4
-1.134, -1.293e-4
-1.133, -1.417e-4
-1.132, -1.509e-4
-1.131, -1.509e-4
-1.130, -1.417e-4
-1.129, -1.324e-4
-1.128, -1.232e-4
-1.127, -1.232e-4
-1.126, -1.293e-4
-1.125, -1.417e-4
-1.124, -1.540e-4
-1.123, -1.540e-4
-1.122, -1.478e-4
-1.121, -1.386e-4
-1.120, -1.263e-4
-1.119, -1.263e-4
-1.118, -1.293e-4
-1.117, -1.417e-4
-1.116, -1.540e-4
-1.115, -1.602e-4
-1.114, -1.571e-4
-1.113, -1.478e-4
-1.112, -1.355e-4
-1.111, -1.293e-4
-1.110, -1.324e-4
-1.109, -1.417e-4
-1.108, -1.540e-4
-1.107, -1.602e-4
-1.106, -1.602e-4
-1.105, -1.540e-4
-1.104, -1.417e-4
-1.103, -1.324e-4
-1.102, -1.324e-4
-1.101, -1.417e-4
-1.100, -1.540e-4
-1.099, -1.632e-4
-1.098, -1.663e-4
-1.097, -1.602e-4
-1.096, -1.509e-4
-1.095, -1.386e-4
-1.094, -1.355e-4
-1.093, -1.417e-4
-1.092, -1.509e-4
-1.091, -1.663e-4
-1.090, -1.694e-4
-1.089, -1.663e-4
-1.088, -1.571e-4
-1.087, -1.448e-4
-1.086, -1.417e-4
-1.085, -1.417e-4
-1.084, -1.540e-4
-1.083, -1.632e-4
-1.082, -1.725e-4
-1.081, -1.725e-4
-1.080, -1.632e-4
-1.079, -1.540e-4
-1.078, -1.448e-4
-1.077, -1.448e-4
-1.076, -1.540e-4
-1.075, -1.663e-4
-1.074, -1.725e-4
-1.073, -1.787e-4
-1.072, -1.725e-4
-1.071, -1.632e-4
-1.070, -1.509e-4
-1.069, -1.478e-4
-1.068, -1.540e-4
-1.067, -1.632e-4
-1.066, -1.756e-4
-1.065, -1.817e-4
-1.064, -1.787e-4
-1.063, -1.694e-4
-1.062, -1.571e-4
-1.061, -1.509e-4
-1.060, -1.540e-4
-1.059, -1.632e-4
-1.058, -1.756e-4
-1.057, -1.848e-4
-1.056, -1.848e-4
-1.055, -1.787e-4
-1.054, -1.663e-4
-1.053, -1.571e-4
-1.052, -1.571e-4
-1.051, -1.632e-4
-1.050, -1.787e-4
-1.049, -1.879e-4
-1.048, -1.910e-4
-1.047, -1.848e-4
-1.046, -1.756e-4
-1.045, -1.632e-4
-1.044, -1.602e-4
-1.043, -1.663e-4
-1.042, -1.756e-4
-1.041, -1.879e-4
-1.040, -1.941e-4
-1.039, -1.941e-4
-1.038, -1.817e-4
-1.037, -1.694e-4
-1.036, -1.663e-4
-1.035, -1.663e-4
-1.034, -1.787e-4
-1.033, -1.910e-4
-1.032, -2.002e-4
-1.031, -2.002e-4
-1.030, -1.910e-4
-1.029, -1.787e-4
-1.028, -1.725e-4
-1.027, -1.694e-4
-1.026, -1.787e-4
-1.025, -1.910e-4
-1.024, -2.033e-4
-1.023, -2.064e-4
-1.022, -2.002e-4
-1.021, -1.879e-4
-1.020, -1.787e-4
-1.019, -1.756e-4
-1.018, -1.787e-4
-1.017, -1.910e-4
-1.016, -2.064e-4
-1.015, -2.126e-4
-1.014, -2.095e-4
-1.013, -2.002e-4
-1.012, -1.848e-4
-1.011, -1.817e-4
-1.010, -1.817e-4
-1.009, -1.910e-4
-1.008, -2.064e-4
-1.007, -2.157e-4
-1.006, -2.187e-4
-1.005, -2.095e-4
-1.004, -1.972e-4
-1.003, -1.879e-4
-1.002, -1.848e-4
-1.001, -1.941e-4
