Oct. 25, 2024   18:10:04
Cyclic Voltammetry
File: c:/users/guazh/data/banditlqv2round1/2024-10-24-exp598\exp598-2024-10-25t17_46_36-h2koh\exp598_cv_sr_50mvs_efin_-2100mv.bin
Data Source:  Experiment
Instrument Model:  CHI760E
Header: CV ran at 50 mVs
Note: 

Init E (V) = -1
High E (V) = -1
Low E (V) = -2.1
Final E (V) = -1
Init P/N = N
Scan Rate (V/s) = 0.05
Segment = 3
Sample Interval (V) = 0.001
Quiet Time (sec) = 2
Sensitivity (A/V) = 0.01
Comp R (ohm) = 0.9

Results:

Channel 1:
Segment 1:

Segment 2:

Segment 3:

Potential/V, Current/A

-1.000, -4.953e-7
-1.001, -3.670e-7
-1.002, -4.558e-7
-1.003, -4.065e-7
-1.004, -4.361e-7
-1.005, -3.670e-7
-1.006, -3.275e-7
-1.007, -3.374e-7
-1.008, -3.177e-7
-1.009, -3.571e-7
-1.010, -3.670e-7
-1.011, -2.881e-7
-1.012, -2.486e-7
-1.013, -2.486e-7
-1.014, -2.388e-7
-1.015, -2.486e-7
-1.016, -2.585e-7
-1.017, -3.177e-7
-1.018, -2.289e-7
-1.019, -1.993e-7
-1.020, -2.486e-7
-1.021, -1.598e-7
-1.022, -2.486e-7
-1.023, -1.401e-7
-1.024, -1.302e-7
-1.025, -1.105e-7
-1.026, -1.105e-7
-1.027, -9.077e-8
-1.028, -1.973e-9
-1.029, -9.077e-8
-1.030, -9.077e-8
-1.031, -1.184e-8
-1.032, -7.103e-8
-1.033, -1.184e-8
-1.034, -9.077e-8
-1.035, -9.077e-8
-1.036, -6.117e-8
-1.037, 7.893e-9
-1.038, 1.263e-7
-1.039, 4.736e-8
-1.040, 2.762e-8
-1.041, 7.893e-9
-1.042, -3.157e-8
-1.043, 5.722e-8
-1.044, 2.762e-8
-1.045, 2.762e-8
-1.046, 5.722e-8
-1.047, -1.184e-8
-1.048, 7.695e-8
-1.049, 6.709e-8
-1.050, 8.682e-8
-1.051, 1.657e-7
-1.052, 1.460e-7
-1.053, 1.460e-7
-1.054, 8.682e-8
-1.055, 9.669e-8
-1.056, 1.559e-7
-1.057, 1.164e-7
-1.058, 1.756e-7
-1.059, 1.855e-7
-1.060, 1.657e-7
-1.061, 8.682e-8
-1.062, 1.066e-7
-1.063, 2.249e-7
-1.064, 2.052e-7
-1.065, 2.052e-7
-1.066, 2.348e-7
-1.067, 1.460e-7
-1.068, 1.559e-7
-1.069, 2.447e-7
-1.070, 2.249e-7
-1.071, 2.743e-7
-1.072, 2.348e-7
-1.073, 1.855e-7
-1.074, 1.953e-7
-1.075, 2.151e-7
-1.076, 3.137e-7
-1.077, 2.743e-7
-1.078, 3.828e-7
-1.079, 2.348e-7
-1.080, 2.447e-7
-1.081, 2.841e-7
-1.082, 2.348e-7
-1.083, 3.927e-7
-1.084, 2.841e-7
-1.085, 3.236e-7
-1.086, 4.124e-7
-1.087, 3.039e-7
-1.088, 3.631e-7
-1.089, 3.532e-7
-1.090, 3.137e-7
-1.091, 3.433e-7
-1.092, 2.743e-7
-1.093, 3.927e-7
-1.094, 3.137e-7
-1.095, 3.532e-7
-1.096, 3.137e-7
-1.097, 2.841e-7
-1.098, 3.335e-7
-1.099, 3.828e-7
-1.100, 3.532e-7
-1.101, 4.519e-7
-1.102, 3.433e-7
-1.103, 4.913e-7
-1.104, 4.617e-7
-1.105, 5.505e-7
-1.106, 4.815e-7
-1.107, 4.223e-7
-1.108, 4.420e-7
-1.109, 4.025e-7
-1.110, 4.519e-7
-1.111, 4.617e-7
-1.112, 3.631e-7
-1.113, 4.420e-7
-1.114, 5.012e-7
-1.115, 4.716e-7
-1.116, 5.703e-7
-1.117, 4.716e-7
-1.118, 5.308e-7
-1.119, 4.815e-7
-1.120, 4.420e-7
-1.121, 5.801e-7
-1.122, 4.716e-7
-1.123, 5.505e-7
-1.124, 5.111e-7
-1.125, 4.913e-7
-1.126, 5.111e-7
-1.127, 4.223e-7
-1.128, 6.886e-7
-1.129, 5.801e-7
-1.130, 6.097e-7
-1.131, 5.407e-7
-1.132, 5.407e-7
-1.133, 5.111e-7
-1.134, 5.998e-7
-1.135, 5.703e-7
-1.136, 5.801e-7
-1.137, 5.308e-7
-1.138, 5.111e-7
-1.139, 6.294e-7
-1.140, 6.492e-7
-1.141, 6.689e-7
-1.142, 6.196e-7
-1.143, 5.505e-7
-1.144, 6.590e-7
-1.145, 6.294e-7
-1.146, 6.985e-7
-1.147, 5.505e-7
-1.148, 6.196e-7
-1.149, 6.097e-7
-1.150, 6.097e-7
-1.151, 6.393e-7
-1.152, 6.985e-7
-1.153, 7.182e-7
-1.154, 6.985e-7
-1.155, 6.886e-7
-1.156, 6.196e-7
-1.157, 6.393e-7
-1.158, 6.689e-7
-1.159, 6.294e-7
-1.160, 6.590e-7
-1.161, 7.182e-7
-1.162, 6.196e-7
-1.163, 7.084e-7
-1.164, 6.886e-7
-1.165, 7.577e-7
-1.166, 6.788e-7
-1.167, 6.985e-7
-1.168, 7.084e-7
-1.169, 7.182e-7
-1.170, 6.393e-7
-1.171, 7.972e-7
-1.172, 7.380e-7
-1.173, 6.886e-7
-1.174, 7.577e-7
-1.175, 7.577e-7
-1.176, 6.788e-7
-1.177, 6.492e-7
-1.178, 7.774e-7
-1.179, 7.873e-7
-1.180, 8.564e-7
-1.181, 7.873e-7
-1.182, 7.577e-7
-1.183, 7.182e-7
-1.184, 8.070e-7
-1.185, 7.478e-7
-1.186, 8.169e-7
-1.187, 7.873e-7
-1.188, 7.774e-7
-1.189, 8.268e-7
-1.190, 7.676e-7
-1.191, 7.478e-7
-1.192, 7.182e-7
-1.193, 7.774e-7
-1.194, 8.564e-7
-1.195, 7.873e-7
-1.196, 7.774e-7
-1.197, 8.465e-7
-1.198, 7.676e-7
-1.199, 8.169e-7
-1.200, 8.268e-7
-1.201, 7.972e-7
-1.202, 8.268e-7
-1.203, 8.958e-7
-1.204, 8.860e-7
-1.205, 8.662e-7
-1.206, 7.774e-7
-1.207, 8.268e-7
-1.208, 8.662e-7
-1.209, 9.156e-7
-1.210, 9.057e-7
-1.211, 8.958e-7
-1.212, 8.958e-7
-1.213, 8.662e-7
-1.214, 9.254e-7
-1.215, 8.958e-7
-1.216, 9.846e-7
-1.217, 7.873e-7
-1.218, 9.156e-7
-1.219, 8.662e-7
-1.220, 9.057e-7
-1.221, 9.057e-7
-1.222, 8.761e-7
-1.223, 8.958e-7
-1.224, 9.748e-7
-1.225, 8.268e-7
-1.226, 9.254e-7
-1.227, 8.958e-7
-1.228, 1.014e-6
-1.229, 1.034e-6
-1.230, 1.083e-6
-1.231, 1.024e-6
-1.232, 1.044e-6
-1.233, 1.044e-6
-1.234, 9.748e-7
-1.235, 1.093e-6
-1.236, 1.014e-6
-1.237, 1.054e-6
-1.238, 1.073e-6
-1.239, 1.103e-6
-1.240, 9.945e-7
-1.241, 1.044e-6
-1.242, 1.113e-6
-1.243, 1.064e-6
-1.244, 1.142e-6
-1.245, 1.034e-6
-1.246, 1.034e-6
-1.247, 1.044e-6
-1.248, 1.044e-6
-1.249, 1.093e-6
-1.250, 1.044e-6
-1.251, 1.083e-6
-1.252, 1.083e-6
-1.253, 9.945e-7
-1.254, 1.113e-6
-1.255, 1.133e-6
-1.256, 1.182e-6
-1.257, 1.044e-6
-1.258, 1.123e-6
-1.259, 1.073e-6
-1.260, 1.073e-6
-1.261, 1.103e-6
-1.262, 1.064e-6
-1.263, 1.073e-6
-1.264, 1.142e-6
-1.265, 1.123e-6
-1.266, 1.103e-6
-1.267, 1.152e-6
-1.268, 1.113e-6
-1.269, 1.093e-6
-1.270, 1.093e-6
-1.271, 1.133e-6
-1.272, 1.192e-6
-1.273, 1.103e-6
-1.274, 1.142e-6
-1.275, 1.192e-6
-1.276, 1.162e-6
-1.277, 1.123e-6
-1.278, 1.202e-6
-1.279, 1.192e-6
-1.280, 1.202e-6
-1.281, 1.221e-6
-1.282, 1.162e-6
-1.283, 1.241e-6
-1.284, 1.261e-6
-1.285, 1.221e-6
-1.286, 1.231e-6
-1.287, 1.231e-6
-1.288, 1.212e-6
-1.289, 1.271e-6
-1.290, 1.212e-6
-1.291, 1.212e-6
-1.292, 1.212e-6
-1.293, 1.212e-6
-1.294, 1.290e-6
-1.295, 1.231e-6
-1.296, 1.340e-6
-1.297, 1.192e-6
-1.298, 1.221e-6
-1.299, 1.290e-6
-1.300, 1.212e-6
-1.301, 1.192e-6
-1.302, 1.212e-6
-1.303, 1.300e-6
-1.304, 1.281e-6
-1.305, 1.192e-6
-1.306, 1.330e-6
-1.307, 1.310e-6
-1.308, 1.152e-6
-1.309, 1.330e-6
-1.310, 1.212e-6
-1.311, 1.271e-6
-1.312, 1.261e-6
-1.313, 1.330e-6
-1.314, 1.290e-6
-1.315, 1.300e-6
-1.316, 1.379e-6
-1.317, 1.251e-6
-1.318, 1.202e-6
-1.319, 1.350e-6
-1.320, 1.340e-6
-1.321, 1.281e-6
-1.322, 1.290e-6
-1.323, 1.369e-6
-1.324, 1.281e-6
-1.325, 1.300e-6
-1.326, 1.241e-6
-1.327, 1.360e-6
-1.328, 1.290e-6
-1.329, 1.350e-6
-1.330, 1.251e-6
-1.331, 1.330e-6
-1.332, 1.369e-6
-1.333, 1.369e-6
-1.334, 1.429e-6
-1.335, 1.419e-6
-1.336, 1.360e-6
-1.337, 1.399e-6
-1.338, 1.379e-6
-1.339, 1.340e-6
-1.340, 1.369e-6
-1.341, 1.350e-6
-1.342, 1.369e-6
-1.343, 1.399e-6
-1.344, 1.508e-6
-1.345, 1.350e-6
-1.346, 1.369e-6
-1.347, 1.360e-6
-1.348, 1.379e-6
-1.349, 1.389e-6
-1.350, 1.409e-6
-1.351, 1.419e-6
-1.352, 1.399e-6
-1.353, 1.360e-6
-1.354, 1.557e-6
-1.355, 1.379e-6
-1.356, 1.438e-6
-1.357, 1.438e-6
-1.358, 1.419e-6
-1.359, 1.517e-6
-1.360, 1.438e-6
-1.361, 1.508e-6
-1.362, 1.478e-6
-1.363, 1.448e-6
-1.364, 1.448e-6
-1.365, 1.458e-6
-1.366, 1.419e-6
-1.367, 1.419e-6
-1.368, 1.488e-6
-1.369, 1.596e-6
-1.370, 1.557e-6
-1.371, 1.547e-6
-1.372, 1.508e-6
-1.373, 1.468e-6
-1.374, 1.537e-6
-1.375, 1.350e-6
-1.376, 1.537e-6
-1.377, 1.448e-6
-1.378, 1.557e-6
-1.379, 1.547e-6
-1.380, 1.399e-6
-1.381, 1.547e-6
-1.382, 1.468e-6
-1.383, 1.537e-6
-1.384, 1.596e-6
-1.385, 1.626e-6
-1.386, 1.547e-6
-1.387, 1.517e-6
-1.388, 1.517e-6
-1.389, 1.547e-6
-1.390, 1.577e-6
-1.391, 1.577e-6
-1.392, 1.517e-6
-1.393, 1.498e-6
-1.394, 1.547e-6
-1.395, 1.596e-6
-1.396, 1.656e-6
-1.397, 1.596e-6
-1.398, 1.537e-6
-1.399, 1.596e-6
-1.400, 1.557e-6
-1.401, 1.626e-6
-1.402, 1.586e-6
-1.403, 1.616e-6
-1.404, 1.675e-6
-1.405, 1.626e-6
-1.406, 1.577e-6
-1.407, 1.656e-6
-1.408, 1.685e-6
-1.409, 1.646e-6
-1.410, 1.665e-6
-1.411, 1.665e-6
-1.412, 1.675e-6
-1.413, 1.656e-6
-1.414, 1.646e-6
-1.415, 1.675e-6
-1.416, 1.586e-6
-1.417, 1.616e-6
-1.418, 1.646e-6
-1.419, 1.803e-6
-1.420, 1.695e-6
-1.421, 1.774e-6
-1.422, 1.695e-6
-1.423, 1.725e-6
-1.424, 1.794e-6
-1.425, 1.665e-6
-1.426, 1.636e-6
-1.427, 1.725e-6
-1.428, 1.725e-6
-1.429, 1.774e-6
-1.430, 1.586e-6
-1.431, 1.665e-6
-1.432, 1.646e-6
-1.433, 1.685e-6
-1.434, 1.813e-6
-1.435, 1.813e-6
-1.436, 1.932e-6
-1.437, 1.843e-6
-1.438, 1.843e-6
-1.439, 1.863e-6
-1.440, 1.843e-6
-1.441, 1.744e-6
-1.442, 1.734e-6
-1.443, 1.813e-6
-1.444, 1.794e-6
-1.445, 1.784e-6
-1.446, 1.823e-6
-1.447, 1.863e-6
-1.448, 1.863e-6
-1.449, 1.853e-6
-1.450, 1.823e-6
-1.451, 1.892e-6
-1.452, 1.853e-6
-1.453, 1.843e-6
-1.454, 1.853e-6
-1.455, 1.882e-6
-1.456, 1.892e-6
-1.457, 1.932e-6
-1.458, 1.853e-6
-1.459, 1.882e-6
-1.460, 1.892e-6
-1.461, 1.863e-6
-1.462, 2.021e-6
-1.463, 1.833e-6
-1.464, 1.981e-6
-1.465, 1.902e-6
-1.466, 1.902e-6
-1.467, 1.991e-6
-1.468, 1.932e-6
-1.469, 2.001e-6
-1.470, 1.813e-6
-1.471, 1.833e-6
-1.472, 1.873e-6
-1.473, 1.971e-6
-1.474, 1.991e-6
-1.475, 2.040e-6
-1.476, 1.912e-6
-1.477, 2.011e-6
-1.478, 1.932e-6
-1.479, 1.991e-6
-1.480, 1.922e-6
-1.481, 1.961e-6
-1.482, 2.109e-6
-1.483, 1.961e-6
-1.484, 1.991e-6
-1.485, 2.090e-6
-1.486, 2.129e-6
-1.487, 2.050e-6
-1.488, 2.080e-6
-1.489, 2.050e-6
-1.490, 2.099e-6
-1.491, 1.971e-6
-1.492, 2.060e-6
-1.493, 2.090e-6
-1.494, 2.129e-6
-1.495, 2.040e-6
-1.496, 2.030e-6
-1.497, 2.011e-6
-1.498, 2.070e-6
-1.499, 2.159e-6
-1.500, 2.119e-6
-1.501, 2.159e-6
-1.502, 2.149e-6
-1.503, 2.060e-6
-1.504, 2.228e-6
-1.505, 2.178e-6
-1.506, 2.149e-6
-1.507, 2.208e-6
-1.508, 2.159e-6
-1.509, 2.198e-6
-1.510, 2.198e-6
-1.511, 2.198e-6
-1.512, 2.257e-6
-1.513, 2.257e-6
-1.514, 2.238e-6
-1.515, 2.169e-6
-1.516, 2.218e-6
-1.517, 2.228e-6
-1.518, 2.238e-6
-1.519, 2.257e-6
-1.520, 2.198e-6
-1.521, 2.247e-6
-1.522, 2.277e-6
-1.523, 2.159e-6
-1.524, 2.336e-6
-1.525, 2.267e-6
-1.526, 2.277e-6
-1.527, 2.346e-6
-1.528, 2.277e-6
-1.529, 2.366e-6
-1.530, 2.238e-6
-1.531, 2.366e-6
-1.532, 2.307e-6
-1.533, 2.346e-6
-1.534, 2.425e-6
-1.535, 2.277e-6
-1.536, 2.415e-6
-1.537, 2.435e-6
-1.538, 2.405e-6
-1.539, 2.386e-6
-1.540, 2.504e-6
-1.541, 2.386e-6
-1.542, 2.494e-6
-1.543, 2.465e-6
-1.544, 2.524e-6
-1.545, 2.494e-6
-1.546, 2.465e-6
-1.547, 2.455e-6
-1.548, 2.524e-6
-1.549, 2.553e-6
-1.550, 2.534e-6
-1.551, 2.484e-6
-1.552, 2.672e-6
-1.553, 2.524e-6
-1.554, 2.563e-6
-1.555, 2.642e-6
-1.556, 2.543e-6
-1.557, 2.543e-6
-1.558, 2.534e-6
-1.559, 2.682e-6
-1.560, 2.583e-6
-1.561, 2.711e-6
-1.562, 2.780e-6
-1.563, 2.662e-6
-1.564, 2.691e-6
-1.565, 2.672e-6
-1.566, 2.731e-6
-1.567, 2.701e-6
-1.568, 2.790e-6
-1.569, 2.830e-6
-1.570, 2.691e-6
-1.571, 2.701e-6
-1.572, 2.770e-6
-1.573, 2.711e-6
-1.574, 2.859e-6
-1.575, 2.859e-6
-1.576, 2.839e-6
-1.577, 2.879e-6
-1.578, 2.849e-6
-1.579, 2.899e-6
-1.580, 2.830e-6
-1.581, 2.958e-6
-1.582, 2.918e-6
-1.583, 2.830e-6
-1.584, 2.938e-6
-1.585, 2.869e-6
-1.586, 2.908e-6
-1.587, 3.076e-6
-1.588, 3.047e-6
-1.589, 3.086e-6
-1.590, 3.145e-6
-1.591, 3.086e-6
-1.592, 3.126e-6
-1.593, 3.096e-6
-1.594, 3.224e-6
-1.595, 3.135e-6
-1.596, 3.116e-6
-1.597, 3.204e-6
-1.598, 3.234e-6
-1.599, 3.234e-6
-1.600, 3.264e-6
-1.601, 3.303e-6
-1.602, 3.372e-6
-1.603, 3.333e-6
-1.604, 3.471e-6
-1.605, 3.372e-6
-1.606, 3.422e-6
-1.607, 3.392e-6
-1.608, 3.491e-6
-1.609, 3.491e-6
-1.610, 3.441e-6
-1.611, 3.560e-6
-1.612, 3.629e-6
-1.613, 3.520e-6
-1.614, 3.609e-6
-1.615, 3.688e-6
-1.616, 3.658e-6
-1.617, 3.609e-6
-1.618, 3.658e-6
-1.619, 3.747e-6
-1.620, 3.668e-6
-1.621, 3.698e-6
-1.622, 3.757e-6
-1.623, 3.836e-6
-1.624, 3.865e-6
-1.625, 3.915e-6
-1.626, 4.013e-6
-1.627, 3.964e-6
-1.628, 3.935e-6
-1.629, 4.063e-6
-1.630, 4.073e-6
-1.631, 4.092e-6
-1.632, 4.112e-6
-1.633, 4.152e-6
-1.634, 4.260e-6
-1.635, 4.152e-6
-1.636, 4.250e-6
-1.637, 4.280e-6
-1.638, 4.369e-6
-1.639, 4.546e-6
-1.640, 4.546e-6
-1.641, 4.497e-6
-1.642, 4.645e-6
-1.643, 4.467e-6
-1.644, 4.793e-6
-1.645, 4.744e-6
-1.646, 4.694e-6
-1.647, 4.753e-6
-1.648, 4.803e-6
-1.649, 4.852e-6
-1.650, 4.862e-6
-1.651, 5.000e-6
-1.652, 5.030e-6
-1.653, 5.059e-6
-1.654, 5.148e-6
-1.655, 5.178e-6
-1.656, 5.158e-6
-1.657, 5.266e-6
-1.658, 5.336e-6
-1.659, 5.395e-6
-1.660, 5.454e-6
-1.661, 5.454e-6
-1.662, 5.503e-6
-1.663, 5.434e-6
-1.664, 5.641e-6
-1.665, 5.740e-6
-1.666, 5.720e-6
-1.667, 5.849e-6
-1.668, 5.898e-6
-1.669, 5.947e-6
-1.670, 5.947e-6
-1.671, 6.006e-6
-1.672, 6.135e-6
-1.673, 6.115e-6
-1.674, 6.312e-6
-1.675, 6.283e-6
-1.676, 6.431e-6
-1.677, 6.549e-6
-1.678, 6.539e-6
-1.679, 6.727e-6
-1.680, 6.687e-6
-1.681, 6.845e-6
-1.682, 6.884e-6
-1.683, 6.875e-6
-1.684, 7.131e-6
-1.685, 7.092e-6
-1.686, 7.151e-6
-1.687, 7.259e-6
-1.688, 7.319e-6
-1.689, 7.476e-6
-1.690, 7.565e-6
-1.691, 7.595e-6
-1.692, 7.743e-6
-1.693, 7.772e-6
-1.694, 7.960e-6
-1.695, 7.999e-6
-1.696, 8.147e-6
-1.697, 8.187e-6
-1.698, 8.384e-6
-1.699, 8.512e-6
-1.700, 8.512e-6
-1.701, 8.621e-6
-1.702, 8.808e-6
-1.703, 8.887e-6
-1.704, 9.124e-6
-1.705, 9.183e-6
-1.706, 9.302e-6
-1.707, 9.430e-6
-1.708, 9.509e-6
-1.709, 9.677e-6
-1.710, 9.825e-6
-1.711, 1.000e-5
-1.712, 1.006e-5
-1.713, 1.026e-5
-1.714, 1.039e-5
-1.715, 1.054e-5
-1.716, 1.076e-5
-1.717, 1.090e-5
-1.718, 1.109e-5
-1.719, 1.122e-5
-1.720, 1.133e-5
-1.721, 1.155e-5
-1.722, 1.178e-5
-1.723, 1.182e-5
-1.724, 1.217e-5
-1.725, 1.226e-5
-1.726, 1.249e-5
-1.727, 1.270e-5
-1.728, 1.288e-5
-1.729, 1.319e-5
-1.730, 1.328e-5
-1.731, 1.355e-5
-1.732, 1.379e-5
-1.733, 1.394e-5
-1.734, 1.430e-5
-1.735, 1.456e-5
-1.736, 1.472e-5
-1.737, 1.502e-5
-1.738, 1.517e-5
-1.739, 1.545e-5
-1.740, 1.577e-5
-1.741, 1.609e-5
-1.742, 1.646e-5
-1.743, 1.664e-5
-1.744, 1.708e-5
-1.745, 1.729e-5
-1.746, 1.752e-5
-1.747, 1.788e-5
-1.748, 1.819e-5
-1.749, 1.853e-5
-1.750, 1.884e-5
-1.751, 1.921e-5
-1.752, 1.952e-5
-1.753, 1.992e-5
-1.754, 2.044e-5
-1.755, 2.072e-5
-1.756, 2.115e-5
-1.757, 2.160e-5
-1.758, 2.192e-5
-1.759, 2.250e-5
-1.760, 2.284e-5
-1.761, 2.331e-5
-1.762, 2.380e-5
-1.763, 2.426e-5
-1.764, 2.478e-5
-1.765, 2.525e-5
-1.766, 2.568e-5
-1.767, 2.641e-5
-1.768, 2.683e-5
-1.769, 2.743e-5
-1.770, 2.795e-5
-1.771, 2.862e-5
-1.772, 2.914e-5
-1.773, 2.980e-5
-1.774, 3.048e-5
-1.775, 3.104e-5
-1.776, 3.165e-5
-1.777, 3.237e-5
-1.778, 3.296e-5
-1.779, 3.383e-5
-1.780, 3.456e-5
-1.781, 3.523e-5
-1.782, 3.602e-5
-1.783, 3.675e-5
-1.784, 3.755e-5
-1.785, 3.830e-5
-1.786, 3.921e-5
-1.787, 4.005e-5
-1.788, 4.086e-5
-1.789, 4.180e-5
-1.790, 4.275e-5
-1.791, 4.363e-5
-1.792, 4.459e-5
-1.793, 4.566e-5
-1.794, 4.668e-5
-1.795, 4.778e-5
-1.796, 4.874e-5
-1.797, 4.989e-5
-1.798, 5.087e-5
-1.799, 5.206e-5
-1.800, 5.311e-5
-1.801, 5.436e-5
-1.802, 5.560e-5
-1.803, 5.673e-5
-1.804, 5.807e-5
-1.805, 5.936e-5
-1.806, 6.073e-5
-1.807, 6.202e-5
-1.808, 6.350e-5
-1.809, 6.491e-5
-1.810, 6.636e-5
-1.811, 6.776e-5
-1.812, 6.932e-5
-1.813, 7.075e-5
-1.814, 7.244e-5
-1.815, 7.404e-5
-1.816, 7.565e-5
-1.817, 7.735e-5
-1.818, 7.915e-5
-1.819, 8.105e-5
-1.820, 8.291e-5
-1.821, 8.465e-5
-1.822, 8.668e-5
-1.823, 8.854e-5
-1.824, 9.058e-5
-1.825, 9.266e-5
-1.826, 9.468e-5
-1.827, 9.683e-5
-1.828, 9.900e-5
-1.829, 1.012e-4
-1.830, 1.036e-4
-1.831, 1.059e-4
-1.832, 1.083e-4
-1.833, 1.106e-4
-1.834, 1.131e-4
-1.835, 1.156e-4
-1.836, 1.182e-4
-1.837, 1.208e-4
-1.838, 1.235e-4
-1.839, 1.262e-4
-1.840, 1.290e-4
-1.841, 1.319e-4
-1.842, 1.348e-4
-1.843, 1.378e-4
-1.844, 1.409e-4
-1.845, 1.441e-4
-1.846, 1.472e-4
-1.847, 1.504e-4
-1.848, 1.538e-4
-1.849, 1.572e-4
-1.850, 1.605e-4
-1.851, 1.640e-4
-1.852, 1.676e-4
-1.853, 1.712e-4
-1.854, 1.749e-4
-1.855, 1.786e-4
-1.856, 1.825e-4
-1.857, 1.864e-4
-1.858, 1.904e-4
-1.859, 1.945e-4
-1.860, 1.986e-4
-1.861, 2.028e-4
-1.862, 2.070e-4
-1.863, 2.113e-4
-1.864, 2.158e-4
-1.865, 2.202e-4
-1.866, 2.247e-4
-1.867, 2.292e-4
-1.868, 2.339e-4
-1.869, 2.388e-4
-1.870, 2.437e-4
-1.871, 2.486e-4
-1.872, 2.537e-4
-1.873, 2.588e-4
-1.874, 2.641e-4
-1.875, 2.695e-4
-1.876, 2.750e-4
-1.877, 2.803e-4
-1.878, 2.858e-4
-1.879, 2.916e-4
-1.880, 2.974e-4
-1.881, 3.033e-4
-1.882, 3.094e-4
-1.883, 3.153e-4
-1.884, 3.215e-4
-1.885, 3.279e-4
-1.886, 3.342e-4
-1.887, 3.407e-4
-1.888, 3.473e-4
-1.889, 3.540e-4
-1.890, 3.607e-4
-1.891, 3.676e-4
-1.892, 3.747e-4
-1.893, 3.816e-4
-1.894, 3.890e-4
-1.895, 3.963e-4
-1.896, 4.036e-4
-1.897, 4.110e-4
-1.898, 4.184e-4
-1.899, 4.261e-4
-1.900, 4.339e-4
-1.901, 4.418e-4
-1.902, 4.499e-4
-1.903, 4.582e-4
-1.904, 4.666e-4
-1.905, 4.750e-4
-1.906, 4.835e-4
-1.907, 4.921e-4
-1.908, 5.008e-4
-1.909, 5.099e-4
-1.910, 5.190e-4
-1.911, 5.281e-4
-1.912, 5.373e-4
-1.913, 5.468e-4
-1.914, 5.565e-4
-1.915, 5.661e-4
-1.916, 5.760e-4
-1.917, 5.858e-4
-1.918, 5.956e-4
-1.919, 6.057e-4
-1.920, 6.161e-4
-1.921, 6.266e-4
-1.922, 6.372e-4
-1.923, 6.477e-4
-1.924, 6.588e-4
-1.925, 6.699e-4
-1.926, 6.811e-4
-1.927, 6.923e-4
-1.928, 7.038e-4
-1.929, 7.154e-4
-1.930, 7.274e-4
-1.931, 7.391e-4
-1.932, 7.512e-4
-1.933, 7.634e-4
-1.934, 7.759e-4
-1.935, 7.886e-4
-1.936, 8.013e-4
-1.937, 8.142e-4
-1.938, 8.275e-4
-1.939, 8.408e-4
-1.940, 8.545e-4
-1.941, 8.677e-4
-1.942, 8.816e-4
-1.943, 8.948e-4
-1.944, 9.089e-4
-1.945, 9.235e-4
-1.946, 9.378e-4
-1.947, 9.523e-4
-1.948, 9.666e-4
-1.949, 9.817e-4
-1.950, 9.969e-4
-1.951, 1.012e-3
-1.952, 1.027e-3
-1.953, 1.043e-3
-1.954, 1.059e-3
-1.955, 1.075e-3
-1.956, 1.091e-3
-1.957, 1.107e-3
-1.958, 1.123e-3
-1.959, 1.141e-3
-1.960, 1.157e-3
-1.961, 1.175e-3
-1.962, 1.192e-3
-1.963, 1.208e-3
-1.964, 1.225e-3
-1.965, 1.243e-3
-1.966, 1.261e-3
-1.967, 1.279e-3
-1.968, 1.298e-3
-1.969, 1.316e-3
-1.970, 1.335e-3
-1.971, 1.355e-3
-1.972, 1.374e-3
-1.973, 1.393e-3
-1.974, 1.412e-3
-1.975, 1.432e-3
-1.976, 1.452e-3
-1.977, 1.473e-3
-1.978, 1.494e-3
-1.979, 1.514e-3
-1.980, 1.536e-3
-1.981, 1.556e-3
-1.982, 1.578e-3
-1.983, 1.600e-3
-1.984, 1.621e-3
-1.985, 1.644e-3
-1.986, 1.667e-3
-1.987, 1.690e-3
-1.988, 1.712e-3
-1.989, 1.736e-3
-1.990, 1.760e-3
-1.991, 1.783e-3
-1.992, 1.807e-3
-1.993, 1.830e-3
-1.994, 1.854e-3
-1.995, 1.880e-3
-1.996, 1.905e-3
-1.997, 1.932e-3
-1.998, 1.957e-3
-1.999, 1.983e-3
-2.000, 2.008e-3
-2.001, 2.034e-3
-2.002, 2.061e-3
-2.003, 2.086e-3
-2.004, 2.114e-3
-2.005, 2.140e-3
-2.006, 2.168e-3
-2.007, 2.195e-3
-2.008, 2.221e-3
-2.009, 2.250e-3
-2.010, 2.277e-3
-2.011, 2.306e-3
-2.012, 2.332e-3
-2.013, 2.361e-3
-2.014, 2.390e-3
-2.015, 2.419e-3
-2.016, 2.449e-3
-2.017, 2.478e-3
-2.018, 2.508e-3
-2.019, 2.537e-3
-2.020, 2.567e-3
-2.021, 2.598e-3
-2.022, 2.627e-3
-2.023, 2.658e-3
-2.024, 2.688e-3
-2.025, 2.719e-3
-2.026, 2.751e-3
-2.027, 2.780e-3
-2.028, 2.812e-3
-2.029, 2.843e-3
-2.030, 2.876e-3
-2.031, 2.908e-3
-2.032, 2.941e-3
-2.033, 2.973e-3
-2.034, 3.005e-3
-2.035, 3.040e-3
-2.036, 3.072e-3
-2.037, 3.106e-3
-2.038, 3.140e-3
-2.039, 3.173e-3
-2.040, 3.209e-3
-2.041, 3.242e-3
-2.042, 3.280e-3
-2.043, 3.315e-3
-2.044, 3.351e-3
-2.045, 3.387e-3
-2.046, 3.422e-3
-2.047, 3.458e-3
-2.048, 3.492e-3
-2.049, 3.530e-3
-2.050, 3.565e-3
-2.051, 3.601e-3
-2.052, 3.638e-3
-2.053, 3.672e-3
-2.054, 3.710e-3
-2.055, 3.745e-3
-2.056, 3.783e-3
-2.057, 3.820e-3
-2.058, 3.857e-3
-2.059, 3.896e-3
-2.060, 3.932e-3
-2.061, 3.974e-3
-2.062, 4.011e-3
-2.063, 4.049e-3
-2.064, 4.088e-3
-2.065, 4.126e-3
-2.066, 4.168e-3
-2.067, 4.204e-3
-2.068, 4.245e-3
-2.069, 4.284e-3
-2.070, 4.323e-3
-2.071, 4.365e-3
-2.072, 4.402e-3
-2.073, 4.444e-3
-2.074, 4.483e-3
-2.075, 4.524e-3
-2.076, 4.566e-3
-2.077, 4.604e-3
-2.078, 4.648e-3
-2.079, 4.686e-3
-2.080, 4.729e-3
-2.081, 4.769e-3
-2.082, 4.809e-3
-2.083, 4.852e-3
-2.084, 4.892e-3
-2.085, 4.937e-3
-2.086, 4.977e-3
-2.087, 5.022e-3
-2.088, 5.065e-3
-2.089, 5.108e-3
-2.090, 5.152e-3
-2.091, 5.191e-3
-2.092, 5.237e-3
-2.093, 5.277e-3
-2.094, 5.319e-3
-2.095, 5.363e-3
-2.096, 5.404e-3
-2.097, 5.450e-3
-2.098, 5.495e-3
-2.099, 5.544e-3
-2.100, 5.542e-3
-2.099, 5.491e-3
-2.098, 5.447e-3
-2.097, 5.401e-3
-2.096, 5.365e-3
-2.095, 5.307e-3
-2.094, 5.256e-3
-2.093, 5.204e-3
-2.092, 5.156e-3
-2.091, 5.110e-3
-2.090, 5.055e-3
-2.089, 5.009e-3
-2.088, 4.957e-3
-2.087, 4.905e-3
-2.086, 4.857e-3
-2.085, 4.811e-3
-2.084, 4.771e-3
-2.083, 4.732e-3
-2.082, 4.687e-3
-2.081, 4.647e-3
-2.080, 4.611e-3
-2.079, 4.576e-3
-2.078, 4.527e-3
-2.077, 4.483e-3
-2.076, 4.438e-3
-2.075, 4.388e-3
-2.074, 4.351e-3
-2.073, 4.304e-3
-2.072, 4.269e-3
-2.071, 4.233e-3
-2.070, 4.192e-3
-2.069, 4.163e-3
-2.068, 4.123e-3
-2.067, 4.090e-3
-2.066, 4.049e-3
-2.065, 4.011e-3
-2.064, 3.973e-3
-2.063, 3.931e-3
-2.062, 3.894e-3
-2.061, 3.849e-3
-2.060, 3.813e-3
-2.059, 3.769e-3
-2.058, 3.729e-3
-2.057, 3.690e-3
-2.056, 3.648e-3
-2.055, 3.613e-3
-2.054, 3.570e-3
-2.053, 3.537e-3
-2.052, 3.497e-3
-2.051, 3.460e-3
-2.050, 3.426e-3
-2.049, 3.387e-3
-2.048, 3.354e-3
-2.047, 3.314e-3
-2.046, 3.280e-3
-2.045, 3.244e-3
-2.044, 3.208e-3
-2.043, 3.176e-3
-2.042, 3.137e-3
-2.041, 3.106e-3
-2.040, 3.069e-3
-2.039, 3.035e-3
-2.038, 3.004e-3
-2.037, 2.969e-3
-2.036, 2.942e-3
-2.035, 2.908e-3
-2.034, 2.879e-3
-2.033, 2.845e-3
-2.032, 2.811e-3
-2.031, 2.781e-3
-2.030, 2.747e-3
-2.029, 2.722e-3
-2.028, 2.691e-3
-2.027, 2.662e-3
-2.026, 2.635e-3
-2.025, 2.604e-3
-2.024, 2.580e-3
-2.023, 2.549e-3
-2.022, 2.522e-3
-2.021, 2.493e-3
-2.020, 2.462e-3
-2.019, 2.438e-3
-2.018, 2.406e-3
-2.017, 2.382e-3
-2.016, 2.352e-3
-2.015, 2.326e-3
-2.014, 2.302e-3
-2.013, 2.270e-3
-2.012, 2.249e-3
-2.011, 2.220e-3
-2.010, 2.198e-3
-2.009, 2.172e-3
-2.008, 2.146e-3
-2.007, 2.125e-3
-2.006, 2.097e-3
-2.005, 2.078e-3
-2.004, 2.051e-3
-2.003, 2.029e-3
-2.002, 2.006e-3
-2.001, 1.981e-3
-2.000, 1.962e-3
-1.999, 1.936e-3
-1.998, 1.917e-3
-1.997, 1.892e-3
-1.996, 1.870e-3
-1.995, 1.852e-3
-1.994, 1.829e-3
-1.993, 1.812e-3
-1.992, 1.791e-3
-1.991, 1.772e-3
-1.990, 1.751e-3
-1.989, 1.730e-3
-1.988, 1.713e-3
-1.987, 1.692e-3
-1.986, 1.674e-3
-1.985, 1.654e-3
-1.984, 1.635e-3
-1.983, 1.615e-3
-1.982, 1.594e-3
-1.981, 1.577e-3
-1.980, 1.557e-3
-1.979, 1.540e-3
-1.978, 1.520e-3
-1.977, 1.502e-3
-1.976, 1.485e-3
-1.975, 1.467e-3
-1.974, 1.451e-3
-1.973, 1.432e-3
-1.972, 1.415e-3
-1.971, 1.398e-3
-1.970, 1.381e-3
-1.969, 1.367e-3
-1.968, 1.351e-3
-1.967, 1.335e-3
-1.966, 1.318e-3
-1.965, 1.303e-3
-1.964, 1.287e-3
-1.963, 1.270e-3
-1.962, 1.255e-3
-1.961, 1.239e-3
-1.960, 1.225e-3
-1.959, 1.210e-3
-1.958, 1.196e-3
-1.957, 1.181e-3
-1.956, 1.166e-3
-1.955, 1.152e-3
-1.954, 1.137e-3
-1.953, 1.123e-3
-1.952, 1.109e-3
-1.951, 1.094e-3
-1.950, 1.082e-3
-1.949, 1.067e-3
-1.948, 1.054e-3
-1.947, 1.040e-3
-1.946, 1.027e-3
-1.945, 1.015e-3
-1.944, 1.002e-3
-1.943, 9.911e-4
-1.942, 9.787e-4
-1.941, 9.663e-4
-1.940, 9.537e-4
-1.939, 9.412e-4
-1.938, 9.295e-4
-1.937, 9.170e-4
-1.936, 9.054e-4
-1.935, 8.936e-4
-1.934, 8.822e-4
-1.933, 8.707e-4
-1.932, 8.587e-4
-1.931, 8.481e-4
-1.930, 8.368e-4
-1.929, 8.258e-4
-1.928, 8.144e-4
-1.927, 8.035e-4
-1.926, 7.929e-4
-1.925, 7.824e-4
-1.924, 7.722e-4
-1.923, 7.617e-4
-1.922, 7.514e-4
-1.921, 7.413e-4
-1.920, 7.316e-4
-1.919, 7.221e-4
-1.918, 7.121e-4
-1.917, 7.025e-4
-1.916, 6.928e-4
-1.915, 6.836e-4
-1.914, 6.742e-4
-1.913, 6.649e-4
-1.912, 6.561e-4
-1.911, 6.470e-4
-1.910, 6.382e-4
-1.909, 6.294e-4
-1.908, 6.208e-4
-1.907, 6.123e-4
-1.906, 6.040e-4
-1.905, 5.961e-4
-1.904, 5.879e-4
-1.903, 5.797e-4
-1.902, 5.716e-4
-1.901, 5.637e-4
-1.900, 5.560e-4
-1.899, 5.479e-4
-1.898, 5.406e-4
-1.897, 5.329e-4
-1.896, 5.255e-4
-1.895, 5.182e-4
-1.894, 5.106e-4
-1.893, 5.035e-4
-1.892, 4.961e-4
-1.891, 4.890e-4
-1.890, 4.820e-4
-1.889, 4.751e-4
-1.888, 4.684e-4
-1.887, 4.615e-4
-1.886, 4.550e-4
-1.885, 4.482e-4
-1.884, 4.415e-4
-1.883, 4.350e-4
-1.882, 4.287e-4
-1.881, 4.227e-4
-1.880, 4.167e-4
-1.879, 4.107e-4
-1.878, 4.047e-4
-1.877, 3.988e-4
-1.876, 3.930e-4
-1.875, 3.871e-4
-1.874, 3.813e-4
-1.873, 3.756e-4
-1.872, 3.699e-4
-1.871, 3.645e-4
-1.870, 3.592e-4
-1.869, 3.538e-4
-1.868, 3.481e-4
-1.867, 3.430e-4
-1.866, 3.378e-4
-1.865, 3.328e-4
-1.864, 3.278e-4
-1.863, 3.227e-4
-1.862, 3.177e-4
-1.861, 3.128e-4
-1.860, 3.082e-4
-1.859, 3.035e-4
-1.858, 2.989e-4
-1.857, 2.942e-4
-1.856, 2.895e-4
-1.855, 2.850e-4
-1.854, 2.806e-4
-1.853, 2.763e-4
-1.852, 2.719e-4
-1.851, 2.678e-4
-1.850, 2.638e-4
-1.849, 2.595e-4
-1.848, 2.554e-4
-1.847, 2.513e-4
-1.846, 2.474e-4
-1.845, 2.435e-4
-1.844, 2.396e-4
-1.843, 2.358e-4
-1.842, 2.321e-4
-1.841, 2.283e-4
-1.840, 2.247e-4
-1.839, 2.213e-4
-1.838, 2.179e-4
-1.837, 2.143e-4
-1.836, 2.109e-4
-1.835, 2.076e-4
-1.834, 2.043e-4
-1.833, 2.011e-4
-1.832, 1.977e-4
-1.831, 1.945e-4
-1.830, 1.913e-4
-1.829, 1.883e-4
-1.828, 1.852e-4
-1.827, 1.820e-4
-1.826, 1.791e-4
-1.825, 1.763e-4
-1.824, 1.735e-4
-1.823, 1.705e-4
-1.822, 1.677e-4
-1.821, 1.650e-4
-1.820, 1.623e-4
-1.819, 1.596e-4
-1.818, 1.567e-4
-1.817, 1.540e-4
-1.816, 1.517e-4
-1.815, 1.491e-4
-1.814, 1.465e-4
-1.813, 1.441e-4
-1.812, 1.417e-4
-1.811, 1.392e-4
-1.810, 1.369e-4
-1.809, 1.346e-4
-1.808, 1.322e-4
-1.807, 1.299e-4
-1.806, 1.277e-4
-1.805, 1.255e-4
-1.804, 1.233e-4
-1.803, 1.213e-4
-1.802, 1.191e-4
-1.801, 1.172e-4
-1.800, 1.153e-4
-1.799, 1.131e-4
-1.798, 1.113e-4
-1.797, 1.094e-4
-1.796, 1.075e-4
-1.795, 1.057e-4
-1.794, 1.038e-4
-1.793, 1.021e-4
-1.792, 1.001e-4
-1.791, 9.841e-5
-1.790, 9.672e-5
-1.789, 9.505e-5
-1.788, 9.330e-5
-1.787, 9.171e-5
-1.786, 9.007e-5
-1.785, 8.855e-5
-1.784, 8.691e-5
-1.783, 8.537e-5
-1.782, 8.387e-5
-1.781, 8.237e-5
-1.780, 8.090e-5
-1.779, 7.931e-5
-1.778, 7.791e-5
-1.777, 7.653e-5
-1.776, 7.518e-5
-1.775, 7.387e-5
-1.774, 7.258e-5
-1.773, 7.123e-5
-1.772, 6.995e-5
-1.771, 6.870e-5
-1.770, 6.744e-5
-1.769, 6.622e-5
-1.768, 6.514e-5
-1.767, 6.382e-5
-1.766, 6.270e-5
-1.765, 6.160e-5
-1.764, 6.054e-5
-1.763, 5.928e-5
-1.762, 5.820e-5
-1.761, 5.724e-5
-1.760, 5.611e-5
-1.759, 5.510e-5
-1.758, 5.416e-5
-1.757, 5.316e-5
-1.756, 5.217e-5
-1.755, 5.133e-5
-1.754, 5.028e-5
-1.753, 4.935e-5
-1.752, 4.839e-5
-1.751, 4.759e-5
-1.750, 4.667e-5
-1.749, 4.575e-5
-1.748, 4.502e-5
-1.747, 4.403e-5
-1.746, 4.325e-5
-1.745, 4.249e-5
-1.744, 4.162e-5
-1.743, 4.085e-5
-1.742, 4.000e-5
-1.741, 3.945e-5
-1.740, 3.861e-5
-1.739, 3.790e-5
-1.738, 3.714e-5
-1.737, 3.654e-5
-1.736, 3.580e-5
-1.735, 3.521e-5
-1.734, 3.448e-5
-1.733, 3.382e-5
-1.732, 3.323e-5
-1.731, 3.253e-5
-1.730, 3.199e-5
-1.729, 3.130e-5
-1.728, 3.069e-5
-1.727, 3.005e-5
-1.726, 2.961e-5
-1.725, 2.904e-5
-1.724, 2.844e-5
-1.723, 2.791e-5
-1.722, 2.734e-5
-1.721, 2.686e-5
-1.720, 2.633e-5
-1.719, 2.581e-5
-1.718, 2.539e-5
-1.717, 2.483e-5
-1.716, 2.434e-5
-1.715, 2.382e-5
-1.714, 2.340e-5
-1.713, 2.298e-5
-1.712, 2.238e-5
-1.711, 2.211e-5
-1.710, 2.161e-5
-1.709, 2.117e-5
-1.708, 2.077e-5
-1.707, 2.038e-5
-1.706, 1.997e-5
-1.705, 1.961e-5
-1.704, 1.921e-5
-1.703, 1.885e-5
-1.702, 1.848e-5
-1.701, 1.815e-5
-1.700, 1.782e-5
-1.699, 1.740e-5
-1.698, 1.715e-5
-1.697, 1.675e-5
-1.696, 1.643e-5
-1.695, 1.608e-5
-1.694, 1.580e-5
-1.693, 1.559e-5
-1.692, 1.522e-5
-1.691, 1.497e-5
-1.690, 1.458e-5
-1.689, 1.420e-5
-1.688, 1.406e-5
-1.687, 1.373e-5
-1.686, 1.350e-5
-1.685, 1.323e-5
-1.684, 1.302e-5
-1.683, 1.280e-5
-1.682, 1.244e-5
-1.681, 1.231e-5
-1.680, 1.203e-5
-1.679, 1.179e-5
-1.678, 1.161e-5
-1.677, 1.127e-5
-1.676, 1.125e-5
-1.675, 1.085e-5
-1.674, 1.076e-5
-1.673, 1.054e-5
-1.672, 1.028e-5
-1.671, 1.014e-5
-1.670, 9.874e-6
-1.669, 9.736e-6
-1.668, 9.617e-6
-1.667, 9.351e-6
-1.666, 9.242e-6
-1.665, 9.104e-6
-1.664, 8.749e-6
-1.663, 8.581e-6
-1.662, 8.394e-6
-1.661, 8.345e-6
-1.660, 8.167e-6
-1.659, 7.920e-6
-1.658, 7.782e-6
-1.657, 7.664e-6
-1.656, 7.575e-6
-1.655, 7.457e-6
-1.654, 7.259e-6
-1.653, 7.210e-6
-1.652, 6.944e-6
-1.651, 6.845e-6
-1.650, 6.707e-6
-1.649, 6.559e-6
-1.648, 6.440e-6
-1.647, 6.362e-6
-1.646, 6.273e-6
-1.645, 6.036e-6
-1.644, 6.056e-6
-1.643, 5.819e-6
-1.642, 5.710e-6
-1.641, 5.631e-6
-1.640, 5.523e-6
-1.639, 5.405e-6
-1.638, 5.316e-6
-1.637, 5.118e-6
-1.636, 5.020e-6
-1.635, 5.000e-6
-1.634, 4.813e-6
-1.633, 4.714e-6
-1.632, 4.596e-6
-1.631, 4.625e-6
-1.630, 4.438e-6
-1.629, 4.388e-6
-1.628, 4.280e-6
-1.627, 4.201e-6
-1.626, 4.112e-6
-1.625, 4.063e-6
-1.624, 3.915e-6
-1.623, 3.925e-6
-1.622, 3.796e-6
-1.621, 3.816e-6
-1.620, 3.688e-6
-1.619, 3.520e-6
-1.618, 3.629e-6
-1.617, 3.491e-6
-1.616, 3.392e-6
-1.615, 3.343e-6
-1.614, 3.224e-6
-1.613, 3.155e-6
-1.612, 3.126e-6
-1.611, 3.086e-6
-1.610, 3.017e-6
-1.609, 2.968e-6
-1.608, 2.839e-6
-1.607, 2.800e-6
-1.606, 2.820e-6
-1.605, 2.760e-6
-1.604, 2.682e-6
-1.603, 2.632e-6
-1.602, 2.573e-6
-1.601, 2.543e-6
-1.600, 2.415e-6
-1.599, 2.494e-6
-1.598, 2.425e-6
-1.597, 2.277e-6
-1.596, 2.317e-6
-1.595, 2.238e-6
-1.594, 2.208e-6
-1.593, 2.188e-6
-1.592, 2.188e-6
-1.591, 2.129e-6
-1.590, 2.080e-6
-1.589, 2.030e-6
-1.588, 2.030e-6
-1.587, 1.863e-6
-1.586, 1.794e-6
-1.585, 1.823e-6
-1.584, 1.784e-6
-1.583, 1.744e-6
-1.582, 1.764e-6
-1.581, 1.685e-6
-1.580, 1.577e-6
-1.579, 1.646e-6
-1.578, 1.557e-6
-1.577, 1.527e-6
-1.576, 1.577e-6
-1.575, 1.448e-6
-1.574, 1.340e-6
-1.573, 1.438e-6
-1.572, 1.330e-6
-1.571, 1.369e-6
-1.570, 1.360e-6
-1.569, 1.300e-6
-1.568, 1.310e-6
-1.567, 1.320e-6
-1.566, 1.350e-6
-1.565, 1.221e-6
-1.564, 1.172e-6
-1.563, 1.251e-6
-1.562, 1.073e-6
-1.561, 1.103e-6
-1.560, 1.133e-6
-1.559, 9.945e-7
-1.558, 1.083e-6
-1.557, 9.748e-7
-1.556, 1.064e-6
-1.555, 9.353e-7
-1.554, 1.044e-6
-1.553, 9.156e-7
-1.552, 8.662e-7
-1.551, 9.748e-7
-1.550, 9.353e-7
-1.549, 8.268e-7
-1.548, 7.972e-7
-1.547, 8.070e-7
-1.546, 7.972e-7
-1.545, 7.676e-7
-1.544, 7.577e-7
-1.543, 7.478e-7
-1.542, 6.689e-7
-1.541, 7.478e-7
-1.540, 7.478e-7
-1.539, 6.985e-7
-1.538, 6.492e-7
-1.537, 6.294e-7
-1.536, 6.788e-7
-1.535, 5.308e-7
-1.534, 6.196e-7
-1.533, 5.604e-7
-1.532, 5.505e-7
-1.531, 5.703e-7
-1.530, 6.196e-7
-1.529, 5.111e-7
-1.528, 5.703e-7
-1.527, 5.505e-7
-1.526, 5.209e-7
-1.525, 4.716e-7
-1.524, 4.913e-7
-1.523, 4.913e-7
-1.522, 3.532e-7
-1.521, 4.321e-7
-1.520, 4.321e-7
-1.519, 3.631e-7
-1.518, 3.828e-7
-1.517, 2.841e-7
-1.516, 3.927e-7
-1.515, 4.716e-7
-1.514, 3.236e-7
-1.513, 3.137e-7
-1.512, 4.223e-7
-1.511, 2.447e-7
-1.510, 2.052e-7
-1.509, 2.052e-7
-1.508, 3.335e-7
-1.507, 2.151e-7
-1.506, 3.433e-7
-1.505, 2.348e-7
-1.504, 2.545e-7
-1.503, 2.249e-7
-1.502, 1.855e-7
-1.501, 2.743e-7
-1.500, 3.039e-7
-1.499, 2.545e-7
-1.498, 1.559e-7
-1.497, 2.348e-7
-1.496, 1.657e-7
-1.495, 1.164e-7
-1.494, 6.709e-8
-1.493, 1.559e-7
-1.492, 1.559e-7
-1.491, 1.066e-7
-1.490, 6.709e-8
-1.489, 1.066e-7
-1.488, 1.460e-7
-1.487, 1.953e-7
-1.486, 2.151e-7
-1.485, 5.722e-8
-1.484, 1.066e-7
-1.483, -1.973e-9
-1.482, 1.559e-7
-1.481, 6.709e-8
-1.480, 1.066e-7
-1.479, 9.669e-8
-1.478, 5.722e-8
-1.477, -1.973e-9
-1.476, 7.695e-8
-1.475, 8.682e-8
-1.474, 7.893e-9
-1.473, 5.722e-8
-1.472, -6.117e-8
-1.471, 1.776e-8
-1.470, 1.776e-8
-1.469, 3.749e-8
-1.468, -6.117e-8
-1.467, -5.130e-8
-1.466, 4.736e-8
-1.465, 2.762e-8
-1.464, -1.973e-9
-1.463, 2.762e-8
-1.462, -6.117e-8
-1.461, 1.776e-8
-1.460, -2.171e-8
-1.459, -8.090e-8
-1.458, -1.973e-9
-1.457, -7.103e-8
-1.456, -6.117e-8
-1.455, -8.090e-8
-1.454, -9.077e-8
-1.453, -6.117e-8
-1.452, -1.401e-7
-1.451, -8.090e-8
-1.450, -1.598e-7
-1.449, -1.105e-7
-1.448, -7.103e-8
-1.447, -1.598e-7
-1.446, -1.105e-7
-1.445, -2.092e-7
-1.444, -1.796e-7
-1.443, -1.697e-7
-1.442, -1.302e-7
-1.441, -1.796e-7
-1.440, -1.697e-7
-1.439, -1.894e-7
-1.438, -1.006e-7
-1.437, -1.697e-7
-1.436, -1.006e-7
-1.435, -1.993e-7
-1.434, -1.697e-7
-1.433, -2.980e-7
-1.432, -2.585e-7
-1.431, -1.993e-7
-1.430, -1.796e-7
-1.429, -2.289e-7
-1.428, -1.993e-7
-1.427, -2.486e-7
-1.426, -2.289e-7
-1.425, -1.894e-7
-1.424, -2.585e-7
-1.423, -1.796e-7
-1.422, -2.289e-7
-1.421, -2.782e-7
-1.420, -2.684e-7
-1.419, -2.684e-7
-1.418, -2.782e-7
-1.417, -3.769e-7
-1.416, -2.190e-7
-1.415, -3.177e-7
-1.414, -2.881e-7
-1.413, -2.585e-7
-1.412, -3.078e-7
-1.411, -2.684e-7
-1.410, -3.078e-7
-1.409, -3.670e-7
-1.408, -1.894e-7
-1.407, -3.571e-7
-1.406, -2.881e-7
-1.405, -3.177e-7
-1.404, -2.585e-7
-1.403, -3.769e-7
-1.402, -3.275e-7
-1.401, -2.782e-7
-1.400, -3.177e-7
-1.399, -3.275e-7
-1.398, -3.078e-7
-1.397, -3.275e-7
-1.396, -3.177e-7
-1.395, -3.177e-7
-1.394, -4.163e-7
-1.393, -3.275e-7
-1.392, -3.473e-7
-1.391, -3.571e-7
-1.390, -3.078e-7
-1.389, -3.966e-7
-1.388, -3.769e-7
-1.387, -3.177e-7
-1.386, -3.473e-7
-1.385, -4.262e-7
-1.384, -4.065e-7
-1.383, -3.374e-7
-1.382, -4.163e-7
-1.381, -4.262e-7
-1.380, -4.361e-7
-1.379, -3.769e-7
-1.378, -4.065e-7
-1.377, -4.065e-7
-1.376, -4.657e-7
-1.375, -3.867e-7
-1.374, -3.374e-7
-1.373, -3.867e-7
-1.372, -4.065e-7
-1.371, -3.670e-7
-1.370, -3.867e-7
-1.369, -4.558e-7
-1.368, -4.163e-7
-1.367, -4.262e-7
-1.366, -3.670e-7
-1.365, -3.966e-7
-1.364, -3.275e-7
-1.363, -5.051e-7
-1.362, -4.459e-7
-1.361, -4.065e-7
-1.360, -3.571e-7
-1.359, -4.854e-7
-1.358, -4.163e-7
-1.357, -4.854e-7
-1.356, -5.150e-7
-1.355, -4.755e-7
-1.354, -3.769e-7
-1.353, -4.755e-7
-1.352, -5.150e-7
-1.351, -4.755e-7
-1.350, -4.459e-7
-1.349, -4.558e-7
-1.348, -3.769e-7
-1.347, -4.459e-7
-1.346, -4.163e-7
-1.345, -4.459e-7
-1.344, -5.249e-7
-1.343, -5.051e-7
-1.342, -5.150e-7
-1.341, -5.150e-7
-1.340, -4.361e-7
-1.339, -4.459e-7
-1.338, -4.953e-7
-1.337, -5.051e-7
-1.336, -4.163e-7
-1.335, -4.459e-7
-1.334, -4.262e-7
-1.333, -5.150e-7
-1.332, -4.755e-7
-1.331, -4.558e-7
-1.330, -4.953e-7
-1.329, -5.347e-7
-1.328, -5.249e-7
-1.327, -5.150e-7
-1.326, -4.854e-7
-1.325, -4.558e-7
-1.324, -5.051e-7
-1.323, -4.755e-7
-1.322, -5.249e-7
-1.321, -5.150e-7
-1.320, -4.459e-7
-1.319, -4.657e-7
-1.318, -5.051e-7
-1.317, -4.854e-7
-1.316, -4.459e-7
-1.315, -5.150e-7
-1.314, -5.150e-7
-1.313, -4.755e-7
-1.312, -5.249e-7
-1.311, -4.558e-7
-1.310, -5.643e-7
-1.309, -5.742e-7
-1.308, -4.953e-7
-1.307, -4.657e-7
-1.306, -5.446e-7
-1.305, -5.051e-7
-1.304, -5.841e-7
-1.303, -5.051e-7
-1.302, -5.249e-7
-1.301, -5.150e-7
-1.300, -5.545e-7
-1.299, -5.939e-7
-1.298, -5.051e-7
-1.297, -5.249e-7
-1.296, -5.051e-7
-1.295, -5.545e-7
-1.294, -5.643e-7
-1.293, -4.558e-7
-1.292, -5.249e-7
-1.291, -4.755e-7
-1.290, -5.051e-7
-1.289, -5.249e-7
-1.288, -4.953e-7
-1.287, -5.446e-7
-1.286, -5.249e-7
-1.285, -5.051e-7
-1.284, -5.446e-7
-1.283, -5.841e-7
-1.282, -5.150e-7
-1.281, -4.953e-7
-1.280, -5.742e-7
-1.279, -6.038e-7
-1.278, -5.249e-7
-1.277, -5.742e-7
-1.276, -5.742e-7
-1.275, -5.249e-7
-1.274, -6.038e-7
-1.273, -5.841e-7
-1.272, -6.137e-7
-1.271, -5.249e-7
-1.270, -5.446e-7
-1.269, -5.545e-7
-1.268, -5.150e-7
-1.267, -6.531e-7
-1.266, -6.630e-7
-1.265, -6.038e-7
-1.264, -6.137e-7
-1.263, -6.235e-7
-1.262, -5.643e-7
-1.261, -5.841e-7
-1.260, -5.742e-7
-1.259, -6.531e-7
-1.258, -5.150e-7
-1.257, -6.334e-7
-1.256, -6.038e-7
-1.255, -5.446e-7
-1.254, -6.729e-7
-1.253, -6.235e-7
-1.252, -6.038e-7
-1.251, -6.235e-7
-1.250, -6.334e-7
-1.249, -5.643e-7
-1.248, -5.249e-7
-1.247, -6.433e-7
-1.246, -6.531e-7
-1.245, -5.249e-7
-1.244, -6.531e-7
-1.243, -6.038e-7
-1.242, -6.137e-7
-1.241, -6.235e-7
-1.240, -6.235e-7
-1.239, -5.939e-7
-1.238, -6.926e-7
-1.237, -6.334e-7
-1.236, -6.334e-7
-1.235, -6.433e-7
-1.234, -6.038e-7
-1.233, -5.643e-7
-1.232, -5.742e-7
-1.231, -5.939e-7
-1.230, -6.827e-7
-1.229, -7.617e-7
-1.228, -7.025e-7
-1.227, -7.321e-7
-1.226, -7.419e-7
-1.225, -7.617e-7
-1.224, -7.123e-7
-1.223, -6.531e-7
-1.222, -7.814e-7
-1.221, -7.025e-7
-1.220, -7.518e-7
-1.219, -7.617e-7
-1.218, -7.715e-7
-1.217, -7.419e-7
-1.216, -8.208e-7
-1.215, -7.419e-7
-1.214, -6.926e-7
-1.213, -7.617e-7
-1.212, -7.222e-7
-1.211, -6.531e-7
-1.210, -6.827e-7
-1.209, -7.123e-7
-1.208, -7.419e-7
-1.207, -7.419e-7
-1.206, -5.939e-7
-1.205, -6.926e-7
-1.204, -7.419e-7
-1.203, -6.729e-7
-1.202, -8.307e-7
-1.201, -6.926e-7
-1.200, -8.011e-7
-1.199, -7.123e-7
-1.198, -7.222e-7
-1.197, -7.617e-7
-1.196, -8.110e-7
-1.195, -7.025e-7
-1.194, -7.123e-7
-1.193, -7.025e-7
-1.192, -7.321e-7
-1.191, -7.715e-7
-1.190, -7.715e-7
-1.189, -7.617e-7
-1.188, -6.729e-7
-1.187, -8.307e-7
-1.186, -8.011e-7
-1.185, -7.025e-7
-1.184, -7.321e-7
-1.183, -7.025e-7
-1.182, -7.617e-7
-1.181, -7.222e-7
-1.180, -7.321e-7
-1.179, -7.715e-7
-1.178, -8.011e-7
-1.177, -7.321e-7
-1.176, -8.110e-7
-1.175, -7.912e-7
-1.174, -8.603e-7
-1.173, -7.912e-7
-1.172, -7.419e-7
-1.171, -7.518e-7
-1.170, -7.222e-7
-1.169, -8.208e-7
-1.168, -8.406e-7
-1.167, -8.603e-7
-1.166, -7.419e-7
-1.165, -7.222e-7
-1.164, -8.307e-7
-1.163, -7.123e-7
-1.162, -8.406e-7
-1.161, -8.307e-7
-1.160, -7.518e-7
-1.159, -8.208e-7
-1.158, -7.321e-7
-1.157, -7.321e-7
-1.156, -8.110e-7
-1.155, -8.110e-7
-1.154, -8.406e-7
-1.153, -7.222e-7
-1.152, -8.800e-7
-1.151, -8.307e-7
-1.150, -8.110e-7
-1.149, -8.208e-7
-1.148, -7.912e-7
-1.147, -8.110e-7
-1.146, -7.518e-7
-1.145, -7.814e-7
-1.144, -8.504e-7
-1.143, -7.617e-7
-1.142, -7.814e-7
-1.141, -7.912e-7
-1.140, -7.617e-7
-1.139, -8.406e-7
-1.138, -8.011e-7
-1.137, -8.702e-7
-1.136, -8.504e-7
-1.135, -8.208e-7
-1.134, -7.912e-7
-1.133, -7.814e-7
-1.132, -8.504e-7
-1.131, -8.011e-7
-1.130, -9.096e-7
-1.129, -8.998e-7
-1.128, -7.321e-7
-1.127, -8.899e-7
-1.126, -8.110e-7
-1.125, -8.504e-7
-1.124, -8.307e-7
-1.123, -8.504e-7
-1.122, -8.504e-7
-1.121, -7.321e-7
-1.120, -8.603e-7
-1.119, -8.899e-7
-1.118, -7.617e-7
-1.117, -8.603e-7
-1.116, -8.011e-7
-1.115, -8.406e-7
-1.114, -8.800e-7
-1.113, -8.307e-7
-1.112, -8.702e-7
-1.111, -8.307e-7
-1.110, -8.899e-7
-1.109, -8.208e-7
-1.108, -8.800e-7
-1.107, -8.998e-7
-1.106, -8.110e-7
-1.105, -8.110e-7
-1.104, -8.406e-7
-1.103, -8.603e-7
-1.102, -8.504e-7
-1.101, -8.800e-7
-1.100, -8.307e-7
-1.099, -9.886e-7
-1.098, -8.603e-7
-1.097, -8.702e-7
-1.096, -7.715e-7
-1.095, -9.096e-7
-1.094, -9.491e-7
-1.093, -8.504e-7
-1.092, -9.195e-7
-1.091, -8.307e-7
-1.090, -8.307e-7
-1.089, -8.998e-7
-1.088, -9.886e-7
-1.087, -9.294e-7
-1.086, -9.590e-7
-1.085, -8.406e-7
-1.084, -8.899e-7
-1.083, -9.491e-7
-1.082, -8.603e-7
-1.081, -8.504e-7
-1.080, -8.800e-7
-1.079, -9.392e-7
-1.078, -8.110e-7
-1.077, -8.110e-7
-1.076, -8.603e-7
-1.075, -9.491e-7
-1.074, -9.096e-7
-1.073, -9.294e-7
-1.072, -8.800e-7
-1.071, -9.294e-7
-1.070, -9.195e-7
-1.069, -9.688e-7
-1.068, -9.294e-7
-1.067, -9.491e-7
-1.066, -8.800e-7
-1.065, -8.998e-7
-1.064, -9.392e-7
-1.063, -9.195e-7
-1.062, -9.491e-7
-1.061, -8.702e-7
-1.060, -9.491e-7
-1.059, -1.008e-6
-1.058, -8.307e-7
-1.057, -8.899e-7
-1.056, -8.998e-7
-1.055, -9.392e-7
-1.054, -9.688e-7
-1.053, -8.702e-7
-1.052, -9.590e-7
-1.051, -8.603e-7
-1.050, -9.984e-7
-1.049, -9.886e-7
-1.048, -8.603e-7
-1.047, -8.702e-7
-1.046, -9.392e-7
-1.045, -9.392e-7
-1.044, -8.998e-7
-1.043, -8.998e-7
-1.042, -8.702e-7
-1.041, -8.800e-7
-1.040, -8.800e-7
-1.039, -9.886e-7
-1.038, -8.998e-7
-1.037, -9.688e-7
-1.036, -9.195e-7
-1.035, -9.294e-7
-1.034, -8.702e-7
-1.033, -9.392e-7
-1.032, -8.998e-7
-1.031, -9.688e-7
-1.030, -9.787e-7
-1.029, -9.787e-7
-1.028, -9.294e-7
-1.027, -1.008e-6
-1.026, -9.195e-7
-1.025, -8.998e-7
-1.024, -1.067e-6
-1.023, -1.048e-6
-1.022, -1.097e-6
-1.021, -1.018e-6
-1.020, -9.886e-7
-1.019, -1.028e-6
-1.018, -9.590e-7
-1.017, -9.984e-7
-1.016, -9.392e-7
-1.015, -9.886e-7
-1.014, -1.067e-6
-1.013, -9.787e-7
-1.012, -9.491e-7
-1.011, -1.067e-6
-1.010, -1.018e-6
-1.009, -1.048e-6
-1.008, -1.038e-6
-1.007, -1.097e-6
-1.006, -1.008e-6
-1.005, -9.491e-7
-1.004, -1.058e-6
-1.003, -9.392e-7
-1.002, -9.590e-7
-1.001, -1.008e-6
