Potential V vs RHE, Current mA cm-2
0.013299999999999867,0.08502414912188871
0.012299999999999978,-1.2671569112891135
0.011299999999999866,-2.226755585987568
0.010299999999999976,-2.968064307116847
0.009299999999999864,-3.7532290785419424
0.008299999999999974,-4.494537799671222
0.007299999999999862,-5.105693081212917
0.006299999999999972,-5.5414241615713475
0.00529999999999986,-5.847001802342197
0.0042999999999999705,-6.282732882700628
0.0032999999999998586,-6.719878674358924
0.0022999999999999687,-7.111753704421539
0.0012999999999998568,-7.329619244600755
0.00029999999999996696,-7.461187395488204
-0.000700000000000145,-7.722908985963235
-0.0017000000000000348,-8.027071915434218
-0.0027000000000001467,-8.246352166913299
-0.0037000000000000366,-8.332649556205066
-0.0047000000000001485,-8.376505606500881
-0.005700000000000038,-8.55051509638428
-0.00670000000000015,-8.812236686859313
-0.00770000000000004,-8.987660888042578
-0.008700000000000152,-9.031516938338395
-0.009700000000000042,-9.073958277334345
-0.010700000000000154,-9.205526428221793
-0.011700000000000044,-9.423391968401008
-0.012700000000000156,-9.55496011928846
-0.013700000000000045,-9.511104068992642
-0.014700000000000157,-9.467248018696827
-0.015700000000000047,-9.59740145828441
-0.01670000000000016,-9.81668170976349
-0.01770000000000005,-9.902979099055257
-0.01870000000000016,-9.81668170976349
-0.01970000000000005,-9.772825659467674
-0.020700000000000163,-9.81668170976349
-0.021700000000000053,-9.99069119964689
-0.022700000000000164,-10.078403300238522
-0.023700000000000054,-9.99069119964689
-0.024700000000000166,-9.99069119964689
-0.025700000000000056,-10.034547249942705
-0.026700000000000168,-10.164700689530287
-0.027700000000000058,-10.296268840417738
-0.02870000000000017,-10.208556739826104
-0.02970000000000006,-10.164700689530287
-0.03070000000000017,-10.25241279012192
-0.03170000000000006,-10.382566229709504
-0.03270000000000017,-10.470278330301136
-0.03370000000000006,-10.382566229709504
-0.034700000000000175,-10.340124890713554
-0.035700000000000065,-10.382566229709504
-0.03670000000000018,-10.557990430892769
-0.03770000000000007,-10.644287820184536
-0.03870000000000018,-10.601846481188586
-0.03970000000000007,-10.514134380596953
-0.04070000000000018,-10.557990430892769
-0.04170000000000007,-10.688143870480351
-0.04270000000000018,-10.775855971071984
-0.04370000000000007,-10.688143870480351
-0.044700000000000184,-10.601846481188586
-0.045700000000000074,-10.731999920776168
-0.046700000000000186,-10.863568071663616
-0.047700000000000076,-10.949865460955383
-0.04870000000000019,-10.906009410659568
-0.04970000000000008,-10.819712021367803
-0.05070000000000019,-10.863568071663616
-0.05170000000000008,-11.037577561547016
-0.05270000000000019,-11.081433611842833
-0.05370000000000008,-10.993721511251199
-0.05470000000000019,-10.906009410659568
-0.05570000000000008,-10.993721511251199
-0.056700000000000195,-11.123874950838783
-0.057700000000000085,-11.123874950838783
-0.058700000000000196,-11.037577561547016
-0.059700000000000086,-10.993721511251199
-0.0607000000000002,-11.037577561547016
-0.06170000000000009,-11.1677310011346
-0.0627000000000002,-11.1677310011346
-0.06370000000000009,-11.081433611842833
-0.0647000000000002,-11.037577561547016
-0.06570000000000009,-11.081433611842833
-0.0667000000000002,-11.1677310011346
-0.0677000000000001,-11.255443101726232
-0.0687000000000002,-11.1677310011346
-0.0697000000000001,-11.123874950838783
-0.07070000000000021,-11.211587051430415
-0.0717000000000001,-11.385596541313816
-0.07270000000000021,-11.473308641905447
-0.0737000000000001,-11.473308641905447
-0.07470000000000021,-11.42945259160963
-0.0757000000000001,-11.473308641905447
-0.07670000000000021,-11.604876792792895
-0.0777000000000001,-11.691174182084664
-0.07870000000000021,-11.604876792792895
-0.0797000000000001,-11.473308641905447
-0.08070000000000022,-11.56102074249708
-0.0817000000000001,-11.691174182084664
-0.08270000000000022,-11.73503023238048
-0.08370000000000011,-11.647318131788847
-0.08470000000000022,-11.56102074249708
-0.08570000000000011,-11.604876792792895
-0.08670000000000022,-11.82274233297211
-0.08770000000000011,-11.909039722263879
-0.08870000000000022,-11.86659838326793
-0.08970000000000011,-11.778886282676295
-0.09070000000000022,-11.82274233297211
-0.09170000000000011,-11.952895772559694
-0.09270000000000023,-11.952895772559694
-0.09370000000000012,-11.86659838326793
-0.09470000000000023,-11.82274233297211
-0.09570000000000012,-11.86659838326793
-0.09670000000000023,-11.996751822855511
-0.09770000000000012,-12.084463923447142
-0.09870000000000023,-11.996751822855511
-0.09970000000000012,-11.909039722263879
-0.10070000000000023,-11.996751822855511
-0.10170000000000012,-12.12831997374296
-0.10270000000000024,-12.214617363034726
-0.10370000000000013,-12.170761312738911
-0.10470000000000024,-12.084463923447142
-0.10570000000000013,-12.12831997374296
-0.10670000000000024,-12.258473413330542
-0.10770000000000013,-12.302329463626359
-0.10870000000000024,-12.214617363034726
-0.10970000000000013,-12.12831997374296
-0.11070000000000024,-12.214617363034726
-0.11170000000000013,-12.346185513922174
-0.11270000000000002,-12.390041564217992
-0.11370000000000013,-12.302329463626359
-0.11470000000000002,-12.258473413330542
-0.11570000000000014,-12.302329463626359
-0.11670000000000003,-12.476338953509758
-0.11770000000000014,-12.520195003805576
-0.11870000000000003,-12.520195003805576
-0.11970000000000014,-12.432482903213943
-0.12070000000000003,-12.432482903213943
-0.12170000000000014,-12.56405105410139
-0.12270000000000003,-12.607907104397206
-0.12370000000000014,-12.520195003805576
-0.12470000000000003,-12.432482903213943
-0.12570000000000014,-12.476338953509758
-0.12670000000000003,-12.607907104397206
-0.12770000000000015,-12.694204493688973
-0.12870000000000004,-12.607907104397206
-0.12970000000000015,-12.520195003805576
-0.13070000000000004,-12.56405105410139
-0.13170000000000015,-12.73806054398479
-0.13270000000000004,-12.825772644576423
-0.13370000000000015,-12.781916594280606
-0.13470000000000004,-12.694204493688973
-0.13570000000000015,-12.73806054398479
-0.13670000000000004,-12.869628694872238
-0.13770000000000016,-12.955926084164007
-0.13870000000000005,-12.869628694872238
-0.13970000000000016,-12.73806054398479
-0.14070000000000005,-12.825772644576423
-0.14170000000000016,-12.955926084164007
-0.14270000000000005,-12.99978213445982
-0.14370000000000016,-12.913484745168056
-0.14470000000000005,-12.781916594280606
-0.14570000000000016,-12.825772644576423
-0.14670000000000005,-12.955926084164007
-0.14770000000000016,-13.043638184755638
-0.14870000000000005,-12.955926084164007
-0.14970000000000017,-12.913484745168056
-0.15070000000000006,-12.955926084164007
-0.15170000000000017,-13.13135028534727
-0.15270000000000006,-13.175206335643086
-0.15370000000000017,-13.13135028534727
-0.15470000000000006,-13.043638184755638
-0.15570000000000017,-13.087494235051453
-0.15670000000000006,-13.261503724934855
-0.15770000000000017,-13.30535977523067
-0.15870000000000006,-13.217647674639037
-0.15970000000000018,-13.175206335643086
-0.16070000000000007,-13.217647674639037
-0.16170000000000018,-13.349215825526485
-0.16270000000000007,-13.436927926118118
-0.16370000000000018,-13.349215825526485
-0.16470000000000007,-13.217647674639037
-0.16570000000000018,-13.261503724934855
-0.16670000000000007,-13.436927926118118
-0.16770000000000018,-13.47936926511407
-0.16870000000000007,-13.436927926118118
-0.16970000000000018,-13.349215825526485
-0.17070000000000007,-13.436927926118118
-0.17170000000000019,-13.567081365705702
-0.17270000000000008,-13.654793466297335
-0.1737000000000002,-13.567081365705702
-0.17470000000000008,-13.523225315409885
-0.1757000000000002,-13.567081365705702
-0.17670000000000008,-13.741090855589102
-0.1777000000000002,-13.741090855589102
-0.17870000000000008,-13.654793466297335
-0.1797000000000002,-13.567081365705702
-0.18070000000000008,-13.654793466297335
-0.1817000000000002,-13.784946905884919
-0.18270000000000008,-13.872659006476551
-0.1837000000000002,-13.784946905884919
-0.1847000000000001,-13.698649516593148
-0.1857000000000002,-13.741090855589102
-0.1867000000000001,-13.872659006476551
-0.1877000000000002,-13.960371107068182
-0.1887000000000001,-13.916515056772363
-0.1897000000000002,-13.828802956180734
-0.1907000000000001,-13.916515056772363
-0.1917000000000001,-14.090524546655764
-0.19269999999999998,-14.175407224647667
-0.1937000000000001,-14.090524546655764
-0.19469999999999998,-14.002812446064135
-0.1957000000000001,-14.046668496359947
-0.19669999999999999,-14.175407224647667
-0.1977000000000001,-14.217848563643619
-0.1987,-14.175407224647667
-0.1997000000000001,-14.090524546655764
-0.2007,-14.175407224647667
-0.2017000000000001,-14.30273124163552
-0.2027,-14.401761032626075
-0.2037000000000001,-14.345172580631472
-0.2047,-14.26028990263957
-0.2057000000000001,-14.30273124163552
-0.2067,-14.486643710617974
-0.2077000000000001,-14.61396772760583
-0.2087,-14.529085049613924
-0.2097000000000001,-14.444202371622024
-0.2107,-14.486643710617974
-0.2117000000000001,-14.65640906660178
-0.2127,-14.783733083589633
-0.2137000000000001,-14.741291744593681
-0.2147,-14.69885040559773
-0.2157000000000001,-14.826174422585586
-0.2167,-14.967645552572087
-0.21770000000000012,-14.967645552572087
-0.2187,-14.868615761581536
-0.21970000000000012,-14.783733083589633
-0.2207,-14.826174422585586
-0.22170000000000012,-15.01008689156804
-0.2227,-15.094969569559943
-0.22370000000000012,-15.05252823056399
-0.2247,-15.05252823056399
-0.22570000000000012,-15.179852247551842
-0.2267,-15.307176264539699
-0.22770000000000012,-15.448647394526201
-0.22870000000000001,-15.349617603535648
-0.22970000000000013,-15.264734925543747
-0.23070000000000002,-15.349617603535648
-0.23170000000000013,-15.533530072518102
-0.23270000000000002,-15.618412750510005
-0.23370000000000013,-15.575971411514052
-0.23470000000000002,-15.575971411514052
-0.23570000000000013,-15.660854089505953
-0.23670000000000002,-15.830619445489761
-0.2376999999999999,-16.014531914472215
-0.23870000000000002,-16.014531914472215
-0.2396999999999999,-15.972090575476265
-0.24070000000000003,-16.099414592464115
-0.24169999999999991,-16.269179948447924
-0.24270000000000003,-16.354062626439823
-0.24369999999999992,-16.354062626439823
-0.24470000000000003,-16.269179948447924
-0.24569999999999992,-16.396503965435777
-0.24670000000000003,-16.622857773414182
-0.24769999999999992,-16.750181790402035
-0.24870000000000003,-16.750181790402035
-0.24969999999999992,-16.792623129397985
-0.25070000000000003,-16.919947146385837
-0.2516999999999999,-17.146300954364243
-0.25270000000000004,-17.2736249713521
-0.2536999999999999,-17.2736249713521
-0.25470000000000004,-17.2736249713521
-0.2556999999999999,-17.358507649344002
-0.25670000000000004,-17.584861457322408
-0.25769999999999993,-17.797068152302163
-0.25870000000000004,-17.839509491298113
-0.25969999999999993,-17.924392169290012
-0.26070000000000004,-18.10830463827247
-0.26169999999999993,-18.320511333252224
-0.26270000000000004,-18.49027668923603
-0.26369999999999993,-18.53271802823198
-0.26470000000000005,-18.589306480226583
-0.26569999999999994,-18.80151317520634
-0.26670000000000005,-19.155191000172596
-0.26769999999999994,-19.367397695152352
-0.26870000000000005,-19.452280373144255
-0.26969999999999994,-19.49472171214021
-0.27070000000000005,-19.678634181122664
-0.27169999999999994,-19.97572355409432
-0.27270000000000005,-20.202077362072725
-0.27369999999999994,-20.329401379060574
-0.27470000000000006,-20.499166735044383
-0.27569999999999995,-20.76796188201874
-0.27670000000000006,-21.107492593986347
-0.27769999999999995,-21.418729079956652
-0.27870000000000006,-21.58849443594046
-0.27969999999999995,-21.729965565926964
-0.28070000000000006,-21.98461359990267
-0.28169999999999995,-22.38073276386488
-0.28270000000000006,-22.63538079784059
-0.28369999999999995,-22.861734605818995
-0.28470000000000006,-23.031499961802798
-0.28569999999999995,-23.342736447773106
-0.28670000000000007,-23.724708498736668
-0.28769999999999996,-24.078386323702922
-0.28870000000000007,-24.24815167968673
-0.28969999999999996,-24.474505487665134
-0.29070000000000007,-24.814036199632742
-0.29169999999999996,-25.337479380582806
-0.29270000000000007,-25.81848122253692
-0.29369999999999996,-26.17215904750318
-0.2947000000000001,-26.483395533473487
-0.29569999999999996,-26.86536758443705
-0.2967000000000001,-27.38881076538711
-0.29769999999999996,-27.827371268345274
-0.2987000000000001,-28.09616641531963
-0.29969999999999997,-28.478138466283188
-0.3007000000000001,-29.001581647233255
-0.30169999999999997,-29.66649595816982
-0.3027000000000001,-30.232380478115836
-0.30369999999999997,-30.571911190083444
-0.3047000000000001,-31.010471693041605
-0.30569999999999997,-31.57635621298762
-0.3067000000000001,-32.184682071929586
-0.3077,-32.807155043870196
-0.3087000000000001,-33.330598224820264
-0.3097,-33.89648274476628
-0.3107000000000001,-34.5472499427042
-0.3117,-35.282899818634014
-0.3127000000000001,-35.99025546856653
-0.3137,-36.5136986495166
-0.3147000000000001,-36.95225915247476
-0.3157,-37.645467689408626
-0.3167000000000001,-38.522588695324956
-0.3177,-39.42800392723857
-0.3187000000000001,-40.177800916167044
-0.3197,-40.91345079209687
-0.3207000000000001,-41.83301313700913
-0.3217,-42.79501682091736
-0.3227000000000001,-43.657990713835034
-0.3237,-44.36534636376755
-0.3247000000000001,-45.10099623969737
-0.3257,-45.97811724561369
-0.3267000000000001,-46.982562268517874
-0.3277,-47.84553616143554
-0.3287000000000001,-48.63777448935996
-0.3297,-49.458307043281685
-0.3307000000000001,-50.46275206618586
-0.3317,-51.65110955807249
-0.3327000000000001,-52.74043725896857
-0.3337,-53.7873236208687
-0.3347000000000001,-54.834209982768826
-0.3357,-55.96597902266086
-0.3367000000000001,-57.097748062552874
-0.3377,-58.22951710244491
-0.3387000000000001,-59.23396212534908
-0.3397,-60.23840714825326
-0.3407000000000001,-61.37017618814529
-0.3417,-62.64341635802381
-0.3427000000000001,-63.902509414903705
-0.3437,-65.0767197937917
-0.3447000000000001,-66.20848883368372
-0.3457,-67.34025787357575
-0.3467000000000001,-68.69838072144618
-0.3477,-70.09894490831257
-0.3487000000000001,-71.27315528720055
-0.3497,-72.44736566608852
-0.3507000000000001,-73.72060583596706
-0.3517,-75.33337671781321
-0.3527000000000001,-76.9037062606634
-0.3537,-78.20524065653922
-0.3547000000000001,-79.52092216541372
-0.3557,-81.13369304725985
-0.35670000000000013,-82.87378794609386
-0.3577,-84.40167614994809
-0.35870000000000013,-85.61832786783202
-0.3597,-86.7076555687281
-0.36070000000000013,-87.98089573860662
-0.3617,-89.32487147347842
-0.3626999999999999,-90.55567030436099
-0.3637,-91.64499800525708
-0.3646999999999999,-92.86164972314101
-0.3657,-94.38953792699526
-0.3666999999999999,-95.91742613084948
-0.3677,-97.31799031771587
-0.3686999999999999,-98.57708337459576
-0.36970000000000003,-99.87861777047159
-0.3706999999999999,-101.3640646353299
-0.37170000000000003,-103.01927685617197
-0.3726999999999999,-104.68863619001272
-0.37370000000000003,-106.11749460287639
-0.3746999999999999,-107.47561745074682
-0.37570000000000003,-108.87618163761321
-0.3766999999999999,-110.34748138947285
-0.37770000000000004,-111.8753695933271
-0.3786999999999999,-113.23349244119754
-0.37970000000000004,-114.63405662806393
-0.3806999999999999,-116.14779771891952
-0.38170000000000004,-117.77471571376431
-0.38269999999999993,-119.20357412662798
-0.38370000000000004,-120.43437295751058
-0.38469999999999993,-121.77834869238235
-0.38570000000000004,-123.3062368962366
-0.38669999999999993,-123.91456275517855
-0.38570000000000004,-122.82523505428249
-0.38469999999999993,-121.86323137037427
-0.38370000000000004,-120.85878634747009
-0.38269999999999993,-119.95337111555646
-0.38170000000000004,-119.07625010964013
-0.3806999999999999,-118.11424642573192
-0.37970000000000004,-117.15224274182368
-0.3786999999999999,-116.24682750991008
-0.37770000000000004,-115.4121478429897
-0.3766999999999999,-114.67649796705987
-0.37570000000000003,-113.71449428315165
-0.3746999999999999,-112.58272524325962
-0.37370000000000003,-111.35192641237703
-0.3726999999999999,-110.3050400504769
-0.37170000000000003,-109.44206615755924
-0.3706999999999999,-108.48006247365102
-0.36970000000000003,-107.34829343375898
-0.3686999999999999,-106.15993594187235
-0.3677,-105.25452070995874
-0.3666999999999999,-104.46228238203432
-0.3657,-103.54272003712204
-0.3646999999999999,-102.45339233622596
-0.3637,-101.40650597432582
-0.3626999999999999,-100.62841475940007
-0.3617,-99.75129375348374
-0.36070000000000013,-98.7044073915836
-0.3597,-97.4877556736997
-0.35870000000000013,-96.3984279728036
-0.3577,-95.52130696688728
-0.35670000000000013,-94.78565709095746
-0.3557,-93.82365340704924
-0.3547000000000001,-92.86164972314101
-0.3537,-91.85720470023682
-0.3527000000000001,-90.76787699934074
-0.3517,-89.76343197643658
-0.3507000000000001,-88.5892215975486
-0.3497,-87.33012854066871
-0.3487000000000001,-86.14177104878208
-0.3477,-85.23635581686847
-0.3467000000000001,-84.35923481095215
-0.3457,-83.39723112704392
-0.3447000000000001,-82.35034476514379
-0.3437,-81.3458997422396
-0.3427000000000001,-80.42633739732734
-0.3417,-79.52092216541372
-0.3407000000000001,-78.47403580351359
-0.3397,-77.42714944161345
-0.3387000000000001,-76.42270441870929
-0.3377,-75.63046609078486
-0.3367000000000001,-74.93725755385098
-0.3357,-74.0176952089387
-0.3347000000000001,-72.8859261690467
-0.3337,-71.66927445116276
-0.3327000000000001,-70.62238808926263
-0.3317,-69.8301497613382
-0.3307000000000001,-68.96717586842054
-0.3297,-67.96273084551636
-0.3287000000000001,-66.91584448361623
-0.3277,-65.99628213870396
-0.3267000000000001,-65.11916113278764
-0.3257,-64.25618723986996
-0.3247000000000001,-63.251742216965795
-0.3237,-62.28973853305756
-0.3227000000000001,-61.455058866137186
-0.3217,-60.63452631221547
-0.3207000000000001,-59.7149639673032
-0.3197,-58.71051894439902
-0.3187000000000001,-57.70607392149485
-0.3177,-56.88554136757313
-0.3167000000000001,-56.1781857176406
-0.3157,-55.25862337272834
-0.3147000000000001,-54.31076680181876
-0.3137,-53.348763117910536
-0.3127000000000001,-52.55652478998611
-0.3117,-51.86331625305225
-0.3107000000000001,-51.071077925127824
-0.3097,-50.20810403221015
-0.3087000000000001,-49.28854168729788
-0.3077,-48.41142068138156
-0.3067000000000001,-47.633329466455784
-0.30569999999999997,-46.79864979953541
-0.3047000000000001,-45.89323456762179
-0.30369999999999997,-44.93123088371356
-0.3027000000000001,-44.096551216793195
-0.30169999999999997,-43.44578401885527
-0.3007000000000001,-42.653545690930855
-0.29969999999999997,-41.74813045901723
-0.2987000000000001,-40.87100945310091
-0.29769999999999996,-40.092918238175145
-0.2967000000000001,-39.42800392723857
-0.29569999999999996,-38.692354051308754
-0.2947000000000001,-37.85767438438838
-0.29369999999999996,-37.037141830466666
-0.29270000000000007,-36.28734484153819
-0.29169999999999996,-35.594136304604326
-0.29070000000000007,-34.90092776767045
-0.28969999999999996,-34.06624810075008
-0.28870000000000007,-33.288156885824314
-0.28769999999999996,-32.62324257488775
-0.28670000000000007,-32.01491671594578
-0.28569999999999995,-31.36414951800786
-0.28470000000000006,-30.529469851087494
-0.28369999999999995,-29.66649595816982
-0.28270000000000006,-28.91669896924135
-0.28169999999999995,-28.393255788291288
-0.28070000000000006,-27.827371268345274
-0.27969999999999995,-27.091721392415455
-0.27870000000000006,-26.38436574248293
-0.27769999999999995,-25.77603988354097
-0.27670000000000006,-25.167714024599
-0.27569999999999995,-24.474505487665134
-0.27470000000000006,-23.724708498736668
-0.27369999999999994,-22.989058622806844
-0.27270000000000005,-22.46561544185678
-0.27169999999999994,-22.069496277894572
-0.27070000000000005,-21.503611757948562
-0.26969999999999994,-20.810403221014692
-0.26870000000000005,-20.06060623208622
