Sept. 24, 2024   23:35:57
Linear Sweep Voltammetry
File: c:/users/guazh/data/20240922_batch_417_500/2024-09-22-exp439\pre-regen-2024-09-24t23_32_53-lsvinphos\pre-regen_lsv_50mvs_efin_-1900mv.bin
Data Source:  Experiment
Instrument Model:  CHI760E
Header: LSV ran at 50 mVs with Efin at -1900mV
Note: 

Init E (V) = -0.6
Final E (V) = -1.9
Scan Rate (V/s) = 0.05
Sample Interval (V) = 0.001
Quiet Time (sec) = 2
Sensitivity (A/V) = 1e-4
Comp R (ohm) = 9.5

Results:

Channel 1:

Potential/V, Current/A

-0.600, 1.208e-5
-0.601, 1.223e-5
-0.602, 1.230e-5
-0.603, 1.235e-5
-0.604, 1.240e-5
-0.605, 1.243e-5
-0.606, 1.247e-5
-0.607, 1.250e-5
-0.608, 1.254e-5
-0.609, 1.257e-5
-0.610, 1.260e-5
-0.611, 1.263e-5
-0.612, 1.265e-5
-0.613, 1.268e-5
-0.614, 1.271e-5
-0.615, 1.274e-5
-0.616, 1.277e-5
-0.617, 1.279e-5
-0.618, 1.281e-5
-0.619, 1.283e-5
-0.620, 1.286e-5
-0.621, 1.288e-5
-0.622, 1.290e-5
-0.623, 1.293e-5
-0.624, 1.295e-5
-0.625, 1.297e-5
-0.626, 1.299e-5
-0.627, 1.302e-5
-0.628, 1.304e-5
-0.629, 1.306e-5
-0.630, 1.309e-5
-0.631, 1.311e-5
-0.632, 1.313e-5
-0.633, 1.314e-5
-0.634, 1.316e-5
-0.635, 1.318e-5
-0.636, 1.319e-5
-0.637, 1.321e-5
-0.638, 1.323e-5
-0.639, 1.325e-5
-0.640, 1.327e-5
-0.641, 1.329e-5
-0.642, 1.331e-5
-0.643, 1.332e-5
-0.644, 1.334e-5
-0.645, 1.336e-5
-0.646, 1.337e-5
-0.647, 1.339e-5
-0.648, 1.340e-5
-0.649, 1.341e-5
-0.650, 1.343e-5
-0.651, 1.344e-5
-0.652, 1.346e-5
-0.653, 1.347e-5
-0.654, 1.349e-5
-0.655, 1.350e-5
-0.656, 1.351e-5
-0.657, 1.352e-5
-0.658, 1.354e-5
-0.659, 1.355e-5
-0.660, 1.356e-5
-0.661, 1.357e-5
-0.662, 1.358e-5
-0.663, 1.359e-5
-0.664, 1.360e-5
-0.665, 1.361e-5
-0.666, 1.362e-5
-0.667, 1.363e-5
-0.668, 1.364e-5
-0.669, 1.365e-5
-0.670, 1.366e-5
-0.671, 1.367e-5
-0.672, 1.369e-5
-0.673, 1.369e-5
-0.674, 1.370e-5
-0.675, 1.370e-5
-0.676, 1.371e-5
-0.677, 1.371e-5
-0.678, 1.372e-5
-0.679, 1.373e-5
-0.680, 1.373e-5
-0.681, 1.374e-5
-0.682, 1.374e-5
-0.683, 1.375e-5
-0.684, 1.375e-5
-0.685, 1.376e-5
-0.686, 1.376e-5
-0.687, 1.376e-5
-0.688, 1.377e-5
-0.689, 1.377e-5
-0.690, 1.378e-5
-0.691, 1.378e-5
-0.692, 1.379e-5
-0.693, 1.379e-5
-0.694, 1.380e-5
-0.695, 1.380e-5
-0.696, 1.380e-5
-0.697, 1.380e-5
-0.698, 1.380e-5
-0.699, 1.381e-5
-0.700, 1.381e-5
-0.701, 1.380e-5
-0.702, 1.381e-5
-0.703, 1.381e-5
-0.704, 1.381e-5
-0.705, 1.381e-5
-0.706, 1.381e-5
-0.707, 1.381e-5
-0.708, 1.381e-5
-0.709, 1.381e-5
-0.710, 1.381e-5
-0.711, 1.381e-5
-0.712, 1.381e-5
-0.713, 1.381e-5
-0.714, 1.381e-5
-0.715, 1.381e-5
-0.716, 1.380e-5
-0.717, 1.380e-5
-0.718, 1.379e-5
-0.719, 1.378e-5
-0.720, 1.379e-5
-0.721, 1.378e-5
-0.722, 1.378e-5
-0.723, 1.378e-5
-0.724, 1.377e-5
-0.725, 1.377e-5
-0.726, 1.376e-5
-0.727, 1.376e-5
-0.728, 1.376e-5
-0.729, 1.375e-5
-0.730, 1.374e-5
-0.731, 1.374e-5
-0.732, 1.373e-5
-0.733, 1.372e-5
-0.734, 1.372e-5
-0.735, 1.371e-5
-0.736, 1.370e-5
-0.737, 1.370e-5
-0.738, 1.369e-5
-0.739, 1.368e-5
-0.740, 1.368e-5
-0.741, 1.367e-5
-0.742, 1.366e-5
-0.743, 1.365e-5
-0.744, 1.364e-5
-0.745, 1.363e-5
-0.746, 1.362e-5
-0.747, 1.362e-5
-0.748, 1.361e-5
-0.749, 1.360e-5
-0.750, 1.359e-5
-0.751, 1.357e-5
-0.752, 1.356e-5
-0.753, 1.355e-5
-0.754, 1.354e-5
-0.755, 1.353e-5
-0.756, 1.353e-5
-0.757, 1.352e-5
-0.758, 1.352e-5
-0.759, 1.350e-5
-0.760, 1.349e-5
-0.761, 1.347e-5
-0.762, 1.346e-5
-0.763, 1.345e-5
-0.764, 1.344e-5
-0.765, 1.343e-5
-0.766, 1.341e-5
-0.767, 1.340e-5
-0.768, 1.339e-5
-0.769, 1.338e-5
-0.770, 1.337e-5
-0.771, 1.336e-5
-0.772, 1.335e-5
-0.773, 1.334e-5
-0.774, 1.333e-5
-0.775, 1.332e-5
-0.776, 1.331e-5
-0.777, 1.330e-5
-0.778, 1.328e-5
-0.779, 1.327e-5
-0.780, 1.326e-5
-0.781, 1.325e-5
-0.782, 1.323e-5
-0.783, 1.322e-5
-0.784, 1.322e-5
-0.785, 1.321e-5
-0.786, 1.320e-5
-0.787, 1.319e-5
-0.788, 1.318e-5
-0.789, 1.317e-5
-0.790, 1.316e-5
-0.791, 1.314e-5
-0.792, 1.313e-5
-0.793, 1.311e-5
-0.794, 1.310e-5
-0.795, 1.309e-5
-0.796, 1.308e-5
-0.797, 1.306e-5
-0.798, 1.305e-5
-0.799, 1.303e-5
-0.800, 1.302e-5
-0.801, 1.301e-5
-0.802, 1.299e-5
-0.803, 1.299e-5
-0.804, 1.297e-5
-0.805, 1.295e-5
-0.806, 1.294e-5
-0.807, 1.293e-5
-0.808, 1.291e-5
-0.809, 1.290e-5
-0.810, 1.289e-5
-0.811, 1.288e-5
-0.812, 1.288e-5
-0.813, 1.287e-5
-0.814, 1.286e-5
-0.815, 1.285e-5
-0.816, 1.283e-5
-0.817, 1.282e-5
-0.818, 1.281e-5
-0.819, 1.281e-5
-0.820, 1.280e-5
-0.821, 1.278e-5
-0.822, 1.277e-5
-0.823, 1.276e-5
-0.824, 1.275e-5
-0.825, 1.274e-5
-0.826, 1.274e-5
-0.827, 1.273e-5
-0.828, 1.272e-5
-0.829, 1.271e-5
-0.830, 1.271e-5
-0.831, 1.271e-5
-0.832, 1.271e-5
-0.833, 1.270e-5
-0.834, 1.270e-5
-0.835, 1.269e-5
-0.836, 1.268e-5
-0.837, 1.268e-5
-0.838, 1.267e-5
-0.839, 1.265e-5
-0.840, 1.265e-5
-0.841, 1.263e-5
-0.842, 1.263e-5
-0.843, 1.262e-5
-0.844, 1.262e-5
-0.845, 1.262e-5
-0.846, 1.261e-5
-0.847, 1.261e-5
-0.848, 1.259e-5
-0.849, 1.258e-5
-0.850, 1.258e-5
-0.851, 1.258e-5
-0.852, 1.257e-5
-0.853, 1.256e-5
-0.854, 1.256e-5
-0.855, 1.255e-5
-0.856, 1.256e-5
-0.857, 1.256e-5
-0.858, 1.254e-5
-0.859, 1.254e-5
-0.860, 1.254e-5
-0.861, 1.253e-5
-0.862, 1.253e-5
-0.863, 1.253e-5
-0.864, 1.253e-5
-0.865, 1.252e-5
-0.866, 1.251e-5
-0.867, 1.251e-5
-0.868, 1.250e-5
-0.869, 1.250e-5
-0.870, 1.250e-5
-0.871, 1.249e-5
-0.872, 1.249e-5
-0.873, 1.248e-5
-0.874, 1.248e-5
-0.875, 1.248e-5
-0.876, 1.248e-5
-0.877, 1.248e-5
-0.878, 1.248e-5
-0.879, 1.247e-5
-0.880, 1.246e-5
-0.881, 1.245e-5
-0.882, 1.246e-5
-0.883, 1.246e-5
-0.884, 1.245e-5
-0.885, 1.246e-5
-0.886, 1.246e-5
-0.887, 1.246e-5
-0.888, 1.245e-5
-0.889, 1.244e-5
-0.890, 1.243e-5
-0.891, 1.244e-5
-0.892, 1.244e-5
-0.893, 1.244e-5
-0.894, 1.244e-5
-0.895, 1.243e-5
-0.896, 1.242e-5
-0.897, 1.242e-5
-0.898, 1.242e-5
-0.899, 1.242e-5
-0.900, 1.242e-5
-0.901, 1.242e-5
-0.902, 1.242e-5
-0.903, 1.242e-5
-0.904, 1.243e-5
-0.905, 1.243e-5
-0.906, 1.243e-5
-0.907, 1.244e-5
-0.908, 1.245e-5
-0.909, 1.245e-5
-0.910, 1.245e-5
-0.911, 1.246e-5
-0.912, 1.247e-5
-0.913, 1.248e-5
-0.914, 1.249e-5
-0.915, 1.250e-5
-0.916, 1.250e-5
-0.917, 1.250e-5
-0.918, 1.250e-5
-0.919, 1.250e-5
-0.920, 1.251e-5
-0.921, 1.252e-5
-0.922, 1.252e-5
-0.923, 1.253e-5
-0.924, 1.253e-5
-0.925, 1.253e-5
-0.926, 1.254e-5
-0.927, 1.255e-5
-0.928, 1.255e-5
-0.929, 1.256e-5
-0.930, 1.255e-5
-0.931, 1.256e-5
-0.932, 1.256e-5
-0.933, 1.257e-5
-0.934, 1.258e-5
-0.935, 1.258e-5
-0.936, 1.259e-5
-0.937, 1.260e-5
-0.938, 1.261e-5
-0.939, 1.262e-5
-0.940, 1.262e-5
-0.941, 1.263e-5
-0.942, 1.263e-5
-0.943, 1.264e-5
-0.944, 1.265e-5
-0.945, 1.267e-5
-0.946, 1.267e-5
-0.947, 1.269e-5
-0.948, 1.271e-5
-0.949, 1.272e-5
-0.950, 1.275e-5
-0.951, 1.276e-5
-0.952, 1.278e-5
-0.953, 1.280e-5
-0.954, 1.281e-5
-0.955, 1.283e-5
-0.956, 1.285e-5
-0.957, 1.287e-5
-0.958, 1.289e-5
-0.959, 1.292e-5
-0.960, 1.294e-5
-0.961, 1.296e-5
-0.962, 1.299e-5
-0.963, 1.301e-5
-0.964, 1.304e-5
-0.965, 1.306e-5
-0.966, 1.309e-5
-0.967, 1.312e-5
-0.968, 1.315e-5
-0.969, 1.318e-5
-0.970, 1.321e-5
-0.971, 1.325e-5
-0.972, 1.328e-5
-0.973, 1.331e-5
-0.974, 1.335e-5
-0.975, 1.338e-5
-0.976, 1.342e-5
-0.977, 1.345e-5
-0.978, 1.349e-5
-0.979, 1.352e-5
-0.980, 1.356e-5
-0.981, 1.363e-5
-0.982, 1.366e-5
-0.983, 1.368e-5
-0.984, 1.372e-5
-0.985, 1.375e-5
-0.986, 1.379e-5
-0.987, 1.382e-5
-0.988, 1.385e-5
-0.989, 1.388e-5
-0.990, 1.392e-5
-0.991, 1.395e-5
-0.992, 1.399e-5
-0.993, 1.402e-5
-0.994, 1.405e-5
-0.995, 1.409e-5
-0.996, 1.412e-5
-0.997, 1.415e-5
-0.998, 1.418e-5
-0.999, 1.421e-5
-1.000, 1.424e-5
-1.001, 1.428e-5
-1.002, 1.431e-5
-1.003, 1.434e-5
-1.004, 1.436e-5
-1.005, 1.439e-5
-1.006, 1.442e-5
-1.007, 1.445e-5
-1.008, 1.448e-5
-1.009, 1.450e-5
-1.010, 1.452e-5
-1.011, 1.456e-5
-1.012, 1.458e-5
-1.013, 1.460e-5
-1.014, 1.463e-5
-1.015, 1.466e-5
-1.016, 1.468e-5
-1.017, 1.470e-5
-1.018, 1.472e-5
-1.019, 1.475e-5
-1.020, 1.477e-5
-1.021, 1.479e-5
-1.022, 1.481e-5
-1.023, 1.484e-5
-1.024, 1.486e-5
-1.025, 1.489e-5
-1.026, 1.492e-5
-1.027, 1.494e-5
-1.028, 1.496e-5
-1.029, 1.499e-5
-1.030, 1.501e-5
-1.031, 1.503e-5
-1.032, 1.506e-5
-1.033, 1.508e-5
-1.034, 1.509e-5
-1.035, 1.512e-5
-1.036, 1.514e-5
-1.037, 1.517e-5
-1.038, 1.519e-5
-1.039, 1.521e-5
-1.040, 1.523e-5
-1.041, 1.525e-5
-1.042, 1.527e-5
-1.043, 1.530e-5
-1.044, 1.533e-5
-1.045, 1.536e-5
-1.046, 1.539e-5
-1.047, 1.541e-5
-1.048, 1.544e-5
-1.049, 1.547e-5
-1.050, 1.549e-5
-1.051, 1.553e-5
-1.052, 1.556e-5
-1.053, 1.559e-5
-1.054, 1.563e-5
-1.055, 1.567e-5
-1.056, 1.570e-5
-1.057, 1.572e-5
-1.058, 1.575e-5
-1.059, 1.579e-5
-1.060, 1.581e-5
-1.061, 1.585e-5
-1.062, 1.589e-5
-1.063, 1.593e-5
-1.064, 1.598e-5
-1.065, 1.603e-5
-1.066, 1.605e-5
-1.067, 1.609e-5
-1.068, 1.613e-5
-1.069, 1.616e-5
-1.070, 1.621e-5
-1.071, 1.625e-5
-1.072, 1.629e-5
-1.073, 1.634e-5
-1.074, 1.638e-5
-1.075, 1.643e-5
-1.076, 1.648e-5
-1.077, 1.652e-5
-1.078, 1.657e-5
-1.079, 1.661e-5
-1.080, 1.665e-5
-1.081, 1.670e-5
-1.082, 1.675e-5
-1.083, 1.679e-5
-1.084, 1.684e-5
-1.085, 1.689e-5
-1.086, 1.694e-5
-1.087, 1.698e-5
-1.088, 1.704e-5
-1.089, 1.709e-5
-1.090, 1.715e-5
-1.091, 1.719e-5
-1.092, 1.724e-5
-1.093, 1.729e-5
-1.094, 1.734e-5
-1.095, 1.738e-5
-1.096, 1.742e-5
-1.097, 1.748e-5
-1.098, 1.753e-5
-1.099, 1.758e-5
-1.100, 1.763e-5
-1.101, 1.768e-5
-1.102, 1.774e-5
-1.103, 1.779e-5
-1.104, 1.786e-5
-1.105, 1.792e-5
-1.106, 1.796e-5
-1.107, 1.800e-5
-1.108, 1.806e-5
-1.109, 1.811e-5
-1.110, 1.817e-5
-1.111, 1.821e-5
-1.112, 1.826e-5
-1.113, 1.832e-5
-1.114, 1.838e-5
-1.115, 1.844e-5
-1.116, 1.849e-5
-1.117, 1.855e-5
-1.118, 1.859e-5
-1.119, 1.866e-5
-1.120, 1.872e-5
-1.121, 1.877e-5
-1.122, 1.883e-5
-1.123, 1.889e-5
-1.124, 1.896e-5
-1.125, 1.903e-5
-1.126, 1.908e-5
-1.127, 1.913e-5
-1.128, 1.919e-5
-1.129, 1.925e-5
-1.130, 1.931e-5
-1.131, 1.938e-5
-1.132, 1.945e-5
-1.133, 1.951e-5
-1.134, 1.957e-5
-1.135, 1.963e-5
-1.136, 1.970e-5
-1.137, 1.976e-5
-1.138, 1.982e-5
-1.139, 1.989e-5
-1.140, 1.995e-5
-1.141, 2.001e-5
-1.142, 2.008e-5
-1.143, 2.013e-5
-1.144, 2.019e-5
-1.145, 2.025e-5
-1.146, 2.030e-5
-1.147, 2.036e-5
-1.148, 2.044e-5
-1.149, 2.051e-5
-1.150, 2.059e-5
-1.151, 2.066e-5
-1.152, 2.072e-5
-1.153, 2.078e-5
-1.154, 2.084e-5
-1.155, 2.090e-5
-1.156, 2.095e-5
-1.157, 2.101e-5
-1.158, 2.108e-5
-1.159, 2.113e-5
-1.160, 2.119e-5
-1.161, 2.124e-5
-1.162, 2.131e-5
-1.163, 2.137e-5
-1.164, 2.143e-5
-1.165, 2.150e-5
-1.166, 2.158e-5
-1.167, 2.164e-5
-1.168, 2.171e-5
-1.169, 2.179e-5
-1.170, 2.186e-5
-1.171, 2.191e-5
-1.172, 2.195e-5
-1.173, 2.201e-5
-1.174, 2.209e-5
-1.175, 2.216e-5
-1.176, 2.222e-5
-1.177, 2.228e-5
-1.178, 2.234e-5
-1.179, 2.239e-5
-1.180, 2.245e-5
-1.181, 2.250e-5
-1.182, 2.256e-5
-1.183, 2.262e-5
-1.184, 2.268e-5
-1.185, 2.273e-5
-1.186, 2.280e-5
-1.187, 2.287e-5
-1.188, 2.295e-5
-1.189, 2.304e-5
-1.190, 2.310e-5
-1.191, 2.317e-5
-1.192, 2.322e-5
-1.193, 2.326e-5
-1.194, 2.331e-5
-1.195, 2.337e-5
-1.196, 2.344e-5
-1.197, 2.351e-5
-1.198, 2.357e-5
-1.199, 2.366e-5
-1.200, 2.373e-5
-1.201, 2.381e-5
-1.202, 2.387e-5
-1.203, 2.393e-5
-1.204, 2.401e-5
-1.205, 2.409e-5
-1.206, 2.414e-5
-1.207, 2.420e-5
-1.208, 2.427e-5
-1.209, 2.432e-5
-1.210, 2.438e-5
-1.211, 2.443e-5
-1.212, 2.450e-5
-1.213, 2.458e-5
-1.214, 2.464e-5
-1.215, 2.470e-5
-1.216, 2.477e-5
-1.217, 2.486e-5
-1.218, 2.492e-5
-1.219, 2.498e-5
-1.220, 2.504e-5
-1.221, 2.506e-5
-1.222, 2.510e-5
-1.223, 2.515e-5
-1.224, 2.521e-5
-1.225, 2.529e-5
-1.226, 2.535e-5
-1.227, 2.542e-5
-1.228, 2.546e-5
-1.229, 2.554e-5
-1.230, 2.562e-5
-1.231, 2.567e-5
-1.232, 2.572e-5
-1.233, 2.578e-5
-1.234, 2.585e-5
-1.235, 2.595e-5
-1.236, 2.604e-5
-1.237, 2.611e-5
-1.238, 2.618e-5
-1.239, 2.622e-5
-1.240, 2.629e-5
-1.241, 2.635e-5
-1.242, 2.642e-5
-1.243, 2.648e-5
-1.244, 2.650e-5
-1.245, 2.656e-5
-1.246, 2.662e-5
-1.247, 2.668e-5
-1.248, 2.675e-5
-1.249, 2.680e-5
-1.250, 2.689e-5
-1.251, 2.698e-5
-1.252, 2.706e-5
-1.253, 2.714e-5
-1.254, 2.720e-5
-1.255, 2.728e-5
-1.256, 2.738e-5
-1.257, 2.747e-5
-1.258, 2.754e-5
-1.259, 2.763e-5
-1.260, 2.772e-5
-1.261, 2.779e-5
-1.262, 2.785e-5
-1.263, 2.793e-5
-1.264, 2.803e-5
-1.265, 2.813e-5
-1.266, 2.822e-5
-1.267, 2.829e-5
-1.268, 2.837e-5
-1.269, 2.847e-5
-1.270, 2.858e-5
-1.271, 2.869e-5
-1.272, 2.881e-5
-1.273, 2.892e-5
-1.274, 2.900e-5
-1.275, 2.909e-5
-1.276, 2.919e-5
-1.277, 2.930e-5
-1.278, 2.940e-5
-1.279, 2.950e-5
-1.280, 2.963e-5
-1.281, 2.976e-5
-1.282, 2.990e-5
-1.283, 3.004e-5
-1.284, 3.015e-5
-1.285, 3.026e-5
-1.286, 3.039e-5
-1.287, 3.053e-5
-1.288, 3.067e-5
-1.289, 3.083e-5
-1.290, 3.095e-5
-1.291, 3.106e-5
-1.292, 3.120e-5
-1.293, 3.135e-5
-1.294, 3.150e-5
-1.295, 3.166e-5
-1.296, 3.180e-5
-1.297, 3.197e-5
-1.298, 3.214e-5
-1.299, 3.231e-5
-1.300, 3.247e-5
-1.301, 3.263e-5
-1.302, 3.281e-5
-1.303, 3.299e-5
-1.304, 3.316e-5
-1.305, 3.335e-5
-1.306, 3.354e-5
-1.307, 3.371e-5
-1.308, 3.389e-5
-1.309, 3.409e-5
-1.310, 3.429e-5
-1.311, 3.448e-5
-1.312, 3.464e-5
-1.313, 3.481e-5
-1.314, 3.502e-5
-1.315, 3.521e-5
-1.316, 3.541e-5
-1.317, 3.563e-5
-1.318, 3.582e-5
-1.319, 3.602e-5
-1.320, 3.620e-5
-1.321, 3.643e-5
-1.322, 3.667e-5
-1.323, 3.688e-5
-1.324, 3.710e-5
-1.325, 3.731e-5
-1.326, 3.754e-5
-1.327, 3.776e-5
-1.328, 3.796e-5
-1.329, 3.818e-5
-1.330, 3.839e-5
-1.331, 3.862e-5
-1.332, 3.883e-5
-1.333, 3.901e-5
-1.334, 3.921e-5
-1.335, 3.944e-5
-1.336, 3.968e-5
-1.337, 3.991e-5
-1.338, 4.012e-5
-1.339, 4.036e-5
-1.340, 4.058e-5
-1.341, 4.082e-5
-1.342, 4.101e-5
-1.343, 4.122e-5
-1.344, 4.144e-5
-1.345, 4.165e-5
-1.346, 4.185e-5
-1.347, 4.208e-5
-1.348, 4.234e-5
-1.349, 4.258e-5
-1.350, 4.280e-5
-1.351, 4.301e-5
-1.352, 4.326e-5
-1.353, 4.348e-5
-1.354, 4.368e-5
-1.355, 4.388e-5
-1.356, 4.412e-5
-1.357, 4.436e-5
-1.358, 4.457e-5
-1.359, 4.480e-5
-1.360, 4.502e-5
-1.361, 4.524e-5
-1.362, 4.548e-5
-1.363, 4.570e-5
-1.364, 4.593e-5
-1.365, 4.612e-5
-1.366, 4.634e-5
-1.367, 4.657e-5
-1.368, 4.676e-5
-1.369, 4.697e-5
-1.370, 4.721e-5
-1.371, 4.746e-5
-1.372, 4.770e-5
-1.373, 4.791e-5
-1.374, 4.814e-5
-1.375, 4.834e-5
-1.376, 4.855e-5
-1.377, 4.877e-5
-1.378, 4.900e-5
-1.379, 4.924e-5
-1.380, 4.947e-5
-1.381, 4.972e-5
-1.382, 4.992e-5
-1.383, 5.016e-5
-1.384, 5.039e-5
-1.385, 5.061e-5
-1.386, 5.086e-5
-1.387, 5.107e-5
-1.388, 5.127e-5
-1.389, 5.152e-5
-1.390, 5.173e-5
-1.391, 5.198e-5
-1.392, 5.216e-5
-1.393, 5.238e-5
-1.394, 5.262e-5
-1.395, 5.285e-5
-1.396, 5.307e-5
-1.397, 5.325e-5
-1.398, 5.345e-5
-1.399, 5.367e-5
-1.400, 5.385e-5
-1.401, 5.404e-5
-1.402, 5.424e-5
-1.403, 5.445e-5
-1.404, 5.466e-5
-1.405, 5.487e-5
-1.406, 5.508e-5
-1.407, 5.528e-5
-1.408, 5.549e-5
-1.409, 5.571e-5
-1.410, 5.592e-5
-1.411, 5.615e-5
-1.412, 5.639e-5
-1.413, 5.661e-5
-1.414, 5.685e-5
-1.415, 5.711e-5
-1.416, 5.737e-5
-1.417, 5.758e-5
-1.418, 5.778e-5
-1.419, 5.802e-5
-1.420, 5.827e-5
-1.421, 5.850e-5
-1.422, 5.872e-5
-1.423, 5.892e-5
-1.424, 5.918e-5
-1.425, 5.943e-5
-1.426, 5.969e-5
-1.427, 5.996e-5
-1.428, 6.015e-5
-1.429, 6.039e-5
-1.430, 6.064e-5
-1.431, 6.091e-5
-1.432, 6.116e-5
-1.433, 6.137e-5
-1.434, 6.162e-5
-1.435, 6.186e-5
-1.436, 6.213e-5
-1.437, 6.239e-5
-1.438, 6.268e-5
-1.439, 6.294e-5
-1.440, 6.320e-5
-1.441, 6.347e-5
-1.442, 6.373e-5
-1.443, 6.400e-5
-1.444, 6.427e-5
-1.445, 6.454e-5
-1.446, 6.480e-5
-1.447, 6.505e-5
-1.448, 6.532e-5
-1.449, 6.559e-5
-1.450, 6.588e-5
-1.451, 6.619e-5
-1.452, 6.644e-5
-1.453, 6.672e-5
-1.454, 6.704e-5
-1.455, 6.733e-5
-1.456, 6.761e-5
-1.457, 6.794e-5
-1.458, 6.830e-5
-1.459, 6.859e-5
-1.460, 6.890e-5
-1.461, 6.924e-5
-1.462, 6.959e-5
-1.463, 6.999e-5
-1.464, 7.035e-5
-1.465, 7.069e-5
-1.466, 7.105e-5
-1.467, 7.142e-5
-1.468, 7.178e-5
-1.469, 7.210e-5
-1.470, 7.248e-5
-1.471, 7.283e-5
-1.472, 7.317e-5
-1.473, 7.352e-5
-1.474, 7.390e-5
-1.475, 7.425e-5
-1.476, 7.464e-5
-1.477, 7.509e-5
-1.478, 7.549e-5
-1.479, 7.588e-5
-1.480, 7.629e-5
-1.481, 7.667e-5
-1.482, 7.705e-5
-1.483, 7.745e-5
-1.484, 7.785e-5
-1.485, 7.827e-5
-1.486, 7.866e-5
-1.487, 7.907e-5
-1.488, 7.948e-5
-1.489, 7.991e-5
-1.490, 8.035e-5
-1.491, 8.076e-5
-1.492, 8.118e-5
-1.493, 8.164e-5
-1.494, 8.214e-5
-1.495, 8.260e-5
-1.496, 8.307e-5
-1.497, 8.351e-5
-1.498, 8.401e-5
-1.499, 8.448e-5
-1.500, 8.493e-5
-1.501, 8.537e-5
-1.502, 8.586e-5
-1.503, 8.637e-5
-1.504, 8.687e-5
-1.505, 8.739e-5
-1.506, 8.787e-5
-1.507, 8.834e-5
-1.508, 8.884e-5
-1.509, 8.934e-5
-1.510, 8.986e-5
-1.511, 9.037e-5
-1.512, 9.090e-5
-1.513, 9.143e-5
-1.514, 9.196e-5
-1.515, 9.248e-5
-1.516, 9.300e-5
-1.517, 9.353e-5
-1.518, 9.402e-5
-1.519, 9.456e-5
-1.520, 9.512e-5
-1.521, 9.567e-5
-1.522, 9.625e-5
-1.523, 9.679e-5
-1.524, 9.733e-5
-1.525, 9.792e-5
-1.526, 9.846e-5
-1.527, 9.901e-5
-1.528, 9.961e-5
-1.529, 1.002e-4
-1.530, 1.007e-4
-1.531, 1.014e-4
-1.532, 1.020e-4
-1.533, 1.026e-4
-1.534, 1.032e-4
-1.535, 1.037e-4
-1.536, 1.043e-4
-1.537, 1.049e-4
-1.538, 1.055e-4
-1.539, 1.062e-4
-1.540, 1.068e-4
-1.541, 1.074e-4
-1.542, 1.081e-4
-1.543, 1.087e-4
-1.544, 1.093e-4
-1.545, 1.100e-4
-1.546, 1.106e-4
-1.547, 1.113e-4
-1.548, 1.119e-4
-1.549, 1.125e-4
-1.550, 1.131e-4
-1.551, 1.138e-4
-1.552, 1.144e-4
-1.553, 1.151e-4
-1.554, 1.158e-4
-1.555, 1.165e-4
-1.556, 1.172e-4
-1.557, 1.178e-4
-1.558, 1.185e-4
-1.559, 1.192e-4
-1.560, 1.199e-4
-1.561, 1.206e-4
-1.562, 1.213e-4
-1.563, 1.220e-4
-1.564, 1.227e-4
-1.565, 1.234e-4
-1.566, 1.240e-4
-1.567, 1.247e-4
-1.568, 1.254e-4
-1.569, 1.261e-4
-1.570, 1.268e-4
-1.571, 1.275e-4
-1.572, 1.282e-4
-1.573, 1.289e-4
-1.574, 1.297e-4
-1.575, 1.304e-4
-1.576, 1.311e-4
-1.577, 1.318e-4
-1.578, 1.326e-4
-1.579, 1.333e-4
-1.580, 1.340e-4
-1.581, 1.347e-4
-1.582, 1.355e-4
-1.583, 1.362e-4
-1.584, 1.370e-4
-1.585, 1.377e-4
-1.586, 1.384e-4
-1.587, 1.392e-4
-1.588, 1.399e-4
-1.589, 1.407e-4
-1.590, 1.415e-4
-1.591, 1.422e-4
-1.592, 1.430e-4
-1.593, 1.438e-4
-1.594, 1.445e-4
-1.595, 1.452e-4
-1.596, 1.460e-4
-1.597, 1.467e-4
-1.598, 1.475e-4
-1.599, 1.482e-4
-1.600, 1.490e-4
-1.601, 1.497e-4
-1.602, 1.506e-4
-1.603, 1.514e-4
-1.604, 1.521e-4
-1.605, 1.528e-4
-1.606, 1.537e-4
-1.607, 1.544e-4
-1.608, 1.552e-4
-1.609, 1.560e-4
-1.610, 1.568e-4
-1.611, 1.576e-4
-1.612, 1.584e-4
-1.613, 1.592e-4
-1.614, 1.599e-4
-1.615, 1.607e-4
-1.616, 1.615e-4
-1.617, 1.623e-4
-1.618, 1.632e-4
-1.619, 1.640e-4
-1.620, 1.649e-4
-1.621, 1.657e-4
-1.622, 1.665e-4
-1.623, 1.673e-4
-1.624, 1.682e-4
-1.625, 1.691e-4
-1.626, 1.699e-4
-1.627, 1.707e-4
-1.628, 1.716e-4
-1.629, 1.725e-4
-1.630, 1.734e-4
-1.631, 1.744e-4
-1.632, 1.753e-4
-1.633, 1.762e-4
-1.634, 1.771e-4
-1.635, 1.780e-4
-1.636, 1.789e-4
-1.637, 1.797e-4
-1.638, 1.807e-4
-1.639, 1.818e-4
-1.640, 1.828e-4
-1.641, 1.838e-4
-1.642, 1.847e-4
-1.643, 1.858e-4
-1.644, 1.868e-4
-1.645, 1.878e-4
-1.646, 1.888e-4
-1.647, 1.899e-4
-1.648, 1.910e-4
-1.649, 1.921e-4
-1.650, 1.932e-4
-1.651, 1.943e-4
-1.652, 1.954e-4
-1.653, 1.966e-4
-1.654, 1.978e-4
-1.655, 1.991e-4
-1.656, 2.003e-4
-1.657, 2.015e-4
-1.658, 2.027e-4
-1.659, 2.040e-4
-1.660, 2.052e-4
-1.661, 2.065e-4
-1.662, 2.078e-4
-1.663, 2.091e-4
-1.664, 2.104e-4
-1.665, 2.118e-4
-1.666, 2.132e-4
-1.667, 2.146e-4
-1.668, 2.161e-4
-1.669, 2.176e-4
-1.670, 2.191e-4
-1.671, 2.206e-4
-1.672, 2.221e-4
-1.673, 2.237e-4
-1.674, 2.252e-4
-1.675, 2.267e-4
-1.676, 2.282e-4
-1.677, 2.298e-4
-1.678, 2.314e-4
-1.679, 2.331e-4
-1.680, 2.346e-4
-1.681, 2.363e-4
-1.682, 2.379e-4
-1.683, 2.397e-4
-1.684, 2.414e-4
-1.685, 2.431e-4
-1.686, 2.449e-4
-1.687, 2.467e-4
-1.688, 2.485e-4
-1.689, 2.503e-4
-1.690, 2.522e-4
-1.691, 2.541e-4
-1.692, 2.560e-4
-1.693, 2.580e-4
-1.694, 2.599e-4
-1.695, 2.619e-4
-1.696, 2.639e-4
-1.697, 2.659e-4
-1.698, 2.679e-4
-1.699, 2.700e-4
-1.700, 2.720e-4
-1.701, 2.741e-4
-1.702, 2.761e-4
-1.703, 2.783e-4
-1.704, 2.803e-4
-1.705, 2.824e-4
-1.706, 2.846e-4
-1.707, 2.868e-4
-1.708, 2.890e-4
-1.709, 2.912e-4
-1.710, 2.934e-4
-1.711, 2.957e-4
-1.712, 2.980e-4
-1.713, 3.003e-4
-1.714, 3.026e-4
-1.715, 3.050e-4
-1.716, 3.073e-4
-1.717, 3.097e-4
-1.718, 3.120e-4
-1.719, 3.144e-4
-1.720, 3.168e-4
-1.721, 3.192e-4
-1.722, 3.217e-4
-1.723, 3.242e-4
-1.724, 3.267e-4
-1.725, 3.291e-4
-1.726, 3.318e-4
-1.727, 3.345e-4
-1.728, 3.371e-4
-1.729, 3.397e-4
-1.730, 3.424e-4
-1.731, 3.450e-4
-1.732, 3.478e-4
-1.733, 3.505e-4
-1.734, 3.532e-4
-1.735, 3.560e-4
-1.736, 3.588e-4
-1.737, 3.616e-4
-1.738, 3.642e-4
-1.739, 3.670e-4
-1.740, 3.699e-4
-1.741, 3.729e-4
-1.742, 3.759e-4
-1.743, 3.789e-4
-1.744, 3.819e-4
-1.745, 3.848e-4
-1.746, 3.878e-4
-1.747, 3.909e-4
-1.748, 3.939e-4
-1.749, 3.970e-4
-1.750, 4.001e-4
-1.751, 4.032e-4
-1.752, 4.063e-4
-1.753, 4.095e-4
-1.754, 4.126e-4
-1.755, 4.159e-4
-1.756, 4.191e-4
-1.757, 4.223e-4
-1.758, 4.255e-4
-1.759, 4.287e-4
-1.760, 4.320e-4
-1.761, 4.353e-4
-1.762, 4.386e-4
-1.763, 4.419e-4
-1.764, 4.453e-4
-1.765, 4.487e-4
-1.766, 4.523e-4
-1.767, 4.558e-4
-1.768, 4.593e-4
-1.769, 4.627e-4
-1.770, 4.662e-4
-1.771, 4.697e-4
-1.772, 4.732e-4
-1.773, 4.768e-4
-1.774, 4.805e-4
-1.775, 4.842e-4
-1.776, 4.879e-4
-1.777, 4.916e-4
-1.778, 4.952e-4
-1.779, 4.990e-4
-1.780, 5.028e-4
-1.781, 5.066e-4
-1.782, 5.103e-4
-1.783, 5.140e-4
-1.784, 5.179e-4
-1.785, 5.217e-4
-1.786, 5.256e-4
-1.787, 5.296e-4
-1.788, 5.336e-4
-1.789, 5.376e-4
-1.790, 5.418e-4
-1.791, 5.459e-4
-1.792, 5.499e-4
-1.793, 5.539e-4
-1.794, 5.579e-4
-1.795, 5.620e-4
-1.796, 5.662e-4
-1.797, 5.704e-4
-1.798, 5.747e-4
-1.799, 5.790e-4
-1.800, 5.832e-4
-1.801, 5.875e-4
-1.802, 5.918e-4
-1.803, 5.960e-4
-1.804, 6.002e-4
-1.805, 6.045e-4
-1.806, 6.089e-4
-1.807, 6.133e-4
-1.808, 6.177e-4
-1.809, 6.222e-4
-1.810, 6.267e-4
-1.811, 6.311e-4
-1.812, 6.356e-4
-1.813, 6.401e-4
-1.814, 6.445e-4
-1.815, 6.490e-4
-1.816, 6.536e-4
-1.817, 6.583e-4
-1.818, 6.630e-4
-1.819, 6.677e-4
-1.820, 6.724e-4
-1.821, 6.770e-4
-1.822, 6.817e-4
-1.823, 6.865e-4
-1.824, 6.913e-4
-1.825, 6.961e-4
-1.826, 7.009e-4
-1.827, 7.057e-4
-1.828, 7.106e-4
-1.829, 7.154e-4
-1.830, 7.201e-4
-1.831, 7.249e-4
-1.832, 7.298e-4
-1.833, 7.347e-4
-1.834, 7.397e-4
-1.835, 7.449e-4
-1.836, 7.499e-4
-1.837, 7.550e-4
-1.838, 7.601e-4
-1.839, 7.652e-4
-1.840, 7.704e-4
-1.841, 7.755e-4
-1.842, 7.807e-4
-1.843, 7.860e-4
-1.844, 7.913e-4
-1.845, 7.966e-4
-1.846, 8.019e-4
-1.847, 8.072e-4
-1.848, 8.126e-4
-1.849, 8.179e-4
-1.850, 8.233e-4
-1.851, 8.286e-4
-1.852, 8.340e-4
-1.853, 8.394e-4
-1.854, 8.449e-4
-1.855, 8.504e-4
-1.856, 8.560e-4
-1.857, 8.615e-4
-1.858, 8.671e-4
-1.859, 8.727e-4
-1.860, 8.782e-4
-1.861, 8.837e-4
-1.862, 8.893e-4
-1.863, 8.949e-4
-1.864, 9.005e-4
-1.865, 9.063e-4
-1.866, 9.121e-4
-1.867, 9.179e-4
-1.868, 9.237e-4
-1.869, 9.294e-4
-1.870, 9.351e-4
-1.871, 9.409e-4
-1.872, 9.468e-4
-1.873, 9.527e-4
-1.874, 9.585e-4
-1.875, 9.644e-4
-1.876, 9.705e-4
-1.877, 9.765e-4
-1.878, 9.825e-4
-1.879, 9.885e-4
-1.880, 9.946e-4
-1.881, 1.001e-3
-1.882, 1.007e-3
-1.883, 1.011e-3
-1.884, 1.011e-3
-1.885, 1.011e-3
-1.886, 1.011e-3
-1.887, 1.011e-3
-1.888, 1.011e-3
-1.889, 1.011e-3
-1.890, 1.011e-3
-1.891, 1.011e-3
-1.892, 1.011e-3
-1.893, 1.011e-3
-1.894, 1.011e-3
-1.895, 1.011e-3
-1.896, 1.011e-3
-1.897, 1.011e-3
-1.898, 1.011e-3
-1.899, 1.011e-3
