Dec. 18, 2024   04:22:34
Linear Sweep Voltammetry
File: c:/users/guazh/data/banditlqround7_x0exp667_r5/2024-12-16-exp687\pre-regen-2024-12-18t04_19_28-lsvinphos\pre-regen_lsv_50mvs_efin_-1900mv.bin
Data Source:  Experiment
Instrument Model:  CHI760E
Header: LSV ran at 50 mVs with Efin at -1900mV
Note: 

Init E (V) = -0.6
Final E (V) = -1.9
Scan Rate (V/s) = 0.05
Sample Interval (V) = 0.001
Quiet Time (sec) = 2
Sensitivity (A/V) = 1e-4
Comp R (ohm) = 8.2

Results:

Channel 1:
Ep = -1.521V
ip = 5.025e-4A
Ah = 4.374e-4C

Potential/V, Current/A

-0.600, -2.210e-6
-0.601, -1.663e-6
-0.602, -1.360e-6
-0.603, -1.171e-6
-0.604, -1.030e-6
-0.605, -9.152e-7
-0.606, -8.100e-7
-0.607, -7.122e-7
-0.608, -6.115e-7
-0.609, -5.243e-7
-0.610, -4.512e-7
-0.611, -3.746e-7
-0.612, -3.004e-7
-0.613, -2.266e-7
-0.614, -1.568e-7
-0.615, -9.197e-8
-0.616, -3.504e-8
-0.617, 2.691e-8
-0.618, 8.927e-8
-0.619, 1.503e-7
-0.620, 2.005e-7
-0.621, 2.518e-7
-0.622, 3.079e-7
-0.623, 3.640e-7
-0.624, 4.156e-7
-0.625, 4.629e-7
-0.626, 5.041e-7
-0.627, 5.573e-7
-0.628, 6.055e-7
-0.629, 6.469e-7
-0.630, 6.884e-7
-0.631, 7.258e-7
-0.632, 7.695e-7
-0.633, 8.191e-7
-0.634, 8.561e-7
-0.635, 8.949e-7
-0.636, 9.293e-7
-0.637, 9.693e-7
-0.638, 1.014e-6
-0.639, 1.052e-6
-0.640, 1.084e-6
-0.641, 1.117e-6
-0.642, 1.150e-6
-0.643, 1.192e-6
-0.644, 1.224e-6
-0.645, 1.252e-6
-0.646, 1.284e-6
-0.647, 1.319e-6
-0.648, 1.361e-6
-0.649, 1.392e-6
-0.650, 1.415e-6
-0.651, 1.444e-6
-0.652, 1.478e-6
-0.653, 1.516e-6
-0.654, 1.546e-6
-0.655, 1.570e-6
-0.656, 1.599e-6
-0.657, 1.630e-6
-0.658, 1.662e-6
-0.659, 1.694e-6
-0.660, 1.720e-6
-0.661, 1.745e-6
-0.662, 1.775e-6
-0.663, 1.806e-6
-0.664, 1.835e-6
-0.665, 1.860e-6
-0.666, 1.889e-6
-0.667, 1.915e-6
-0.668, 1.946e-6
-0.669, 1.973e-6
-0.670, 1.995e-6
-0.671, 2.016e-6
-0.672, 2.045e-6
-0.673, 2.079e-6
-0.674, 2.104e-6
-0.675, 2.128e-6
-0.676, 2.149e-6
-0.677, 2.176e-6
-0.678, 2.210e-6
-0.679, 2.233e-6
-0.680, 2.254e-6
-0.681, 2.279e-6
-0.682, 2.303e-6
-0.683, 2.337e-6
-0.684, 2.364e-6
-0.685, 2.384e-6
-0.686, 2.409e-6
-0.687, 2.434e-6
-0.688, 2.464e-6
-0.689, 2.490e-6
-0.690, 2.510e-6
-0.691, 2.532e-6
-0.692, 2.561e-6
-0.693, 2.593e-6
-0.694, 2.623e-6
-0.695, 2.643e-6
-0.696, 2.664e-6
-0.697, 2.695e-6
-0.698, 2.721e-6
-0.699, 2.749e-6
-0.700, 2.772e-6
-0.701, 2.796e-6
-0.702, 2.827e-6
-0.703, 2.857e-6
-0.704, 2.883e-6
-0.705, 2.906e-6
-0.706, 2.925e-6
-0.707, 2.959e-6
-0.708, 2.990e-6
-0.709, 3.017e-6
-0.710, 3.043e-6
-0.711, 3.064e-6
-0.712, 3.095e-6
-0.713, 3.132e-6
-0.714, 3.156e-6
-0.715, 3.184e-6
-0.716, 3.207e-6
-0.717, 3.238e-6
-0.718, 3.274e-6
-0.719, 3.302e-6
-0.720, 3.325e-6
-0.721, 3.353e-6
-0.722, 3.383e-6
-0.723, 3.419e-6
-0.724, 3.452e-6
-0.725, 3.476e-6
-0.726, 3.501e-6
-0.727, 3.532e-6
-0.728, 3.570e-6
-0.729, 3.603e-6
-0.730, 3.631e-6
-0.731, 3.658e-6
-0.732, 3.693e-6
-0.733, 3.732e-6
-0.734, 3.767e-6
-0.735, 3.794e-6
-0.736, 3.824e-6
-0.737, 3.859e-6
-0.738, 3.897e-6
-0.739, 3.932e-6
-0.740, 3.958e-6
-0.741, 3.989e-6
-0.742, 4.030e-6
-0.743, 4.070e-6
-0.744, 4.105e-6
-0.745, 4.137e-6
-0.746, 4.164e-6
-0.747, 4.204e-6
-0.748, 4.244e-6
-0.749, 4.279e-6
-0.750, 4.312e-6
-0.751, 4.344e-6
-0.752, 4.384e-6
-0.753, 4.428e-6
-0.754, 4.466e-6
-0.755, 4.503e-6
-0.756, 4.535e-6
-0.757, 4.576e-6
-0.758, 4.622e-6
-0.759, 4.662e-6
-0.760, 4.697e-6
-0.761, 4.732e-6
-0.762, 4.774e-6
-0.763, 4.819e-6
-0.764, 4.859e-6
-0.765, 4.900e-6
-0.766, 4.939e-6
-0.767, 4.977e-6
-0.768, 5.034e-6
-0.769, 5.078e-6
-0.770, 5.110e-6
-0.771, 5.145e-6
-0.772, 5.186e-6
-0.773, 5.233e-6
-0.774, 5.279e-6
-0.775, 5.317e-6
-0.776, 5.358e-6
-0.777, 5.407e-6
-0.778, 5.455e-6
-0.779, 5.505e-6
-0.780, 5.542e-6
-0.781, 5.584e-6
-0.782, 5.633e-6
-0.783, 5.677e-6
-0.784, 5.724e-6
-0.785, 5.767e-6
-0.786, 5.806e-6
-0.787, 5.858e-6
-0.788, 5.905e-6
-0.789, 5.951e-6
-0.790, 5.995e-6
-0.791, 6.033e-6
-0.792, 6.083e-6
-0.793, 6.138e-6
-0.794, 6.184e-6
-0.795, 6.229e-6
-0.796, 6.266e-6
-0.797, 6.315e-6
-0.798, 6.370e-6
-0.799, 6.414e-6
-0.800, 6.460e-6
-0.801, 6.505e-6
-0.802, 6.553e-6
-0.803, 6.611e-6
-0.804, 6.656e-6
-0.805, 6.698e-6
-0.806, 6.742e-6
-0.807, 6.790e-6
-0.808, 6.848e-6
-0.809, 6.901e-6
-0.810, 6.945e-6
-0.811, 6.989e-6
-0.812, 7.039e-6
-0.813, 7.094e-6
-0.814, 7.146e-6
-0.815, 7.188e-6
-0.816, 7.231e-6
-0.817, 7.277e-6
-0.818, 7.330e-6
-0.819, 7.389e-6
-0.820, 7.448e-6
-0.821, 7.479e-6
-0.822, 7.530e-6
-0.823, 7.581e-6
-0.824, 7.630e-6
-0.825, 7.675e-6
-0.826, 7.720e-6
-0.827, 7.770e-6
-0.828, 7.823e-6
-0.829, 7.874e-6
-0.830, 7.918e-6
-0.831, 7.964e-6
-0.832, 8.015e-6
-0.833, 8.070e-6
-0.834, 8.118e-6
-0.835, 8.168e-6
-0.836, 8.207e-6
-0.837, 8.261e-6
-0.838, 8.322e-6
-0.839, 8.370e-6
-0.840, 8.417e-6
-0.841, 8.461e-6
-0.842, 8.515e-6
-0.843, 8.565e-6
-0.844, 8.617e-6
-0.845, 8.666e-6
-0.846, 8.711e-6
-0.847, 8.758e-6
-0.848, 8.817e-6
-0.849, 8.870e-6
-0.850, 8.911e-6
-0.851, 8.958e-6
-0.852, 9.004e-6
-0.853, 9.054e-6
-0.854, 9.105e-6
-0.855, 9.145e-6
-0.856, 9.188e-6
-0.857, 9.240e-6
-0.858, 9.296e-6
-0.859, 9.352e-6
-0.860, 9.400e-6
-0.861, 9.439e-6
-0.862, 9.492e-6
-0.863, 9.546e-6
-0.864, 9.593e-6
-0.865, 9.639e-6
-0.866, 9.684e-6
-0.867, 9.735e-6
-0.868, 9.788e-6
-0.869, 9.841e-6
-0.870, 9.893e-6
-0.871, 9.946e-6
-0.872, 9.990e-6
-0.873, 1.005e-5
-0.874, 1.009e-5
-0.875, 1.014e-5
-0.876, 1.017e-5
-0.877, 1.022e-5
-0.878, 1.028e-5
-0.879, 1.033e-5
-0.880, 1.036e-5
-0.881, 1.041e-5
-0.882, 1.046e-5
-0.883, 1.052e-5
-0.884, 1.057e-5
-0.885, 1.061e-5
-0.886, 1.065e-5
-0.887, 1.070e-5
-0.888, 1.076e-5
-0.889, 1.080e-5
-0.890, 1.084e-5
-0.891, 1.089e-5
-0.892, 1.094e-5
-0.893, 1.100e-5
-0.894, 1.105e-5
-0.895, 1.109e-5
-0.896, 1.114e-5
-0.897, 1.118e-5
-0.898, 1.123e-5
-0.899, 1.129e-5
-0.900, 1.133e-5
-0.901, 1.138e-5
-0.902, 1.143e-5
-0.903, 1.148e-5
-0.904, 1.153e-5
-0.905, 1.157e-5
-0.906, 1.161e-5
-0.907, 1.166e-5
-0.908, 1.172e-5
-0.909, 1.177e-5
-0.910, 1.181e-5
-0.911, 1.185e-5
-0.912, 1.190e-5
-0.913, 1.196e-5
-0.914, 1.201e-5
-0.915, 1.205e-5
-0.916, 1.208e-5
-0.917, 1.212e-5
-0.918, 1.218e-5
-0.919, 1.222e-5
-0.920, 1.227e-5
-0.921, 1.231e-5
-0.922, 1.236e-5
-0.923, 1.241e-5
-0.924, 1.246e-5
-0.925, 1.251e-5
-0.926, 1.255e-5
-0.927, 1.260e-5
-0.928, 1.265e-5
-0.929, 1.270e-5
-0.930, 1.275e-5
-0.931, 1.280e-5
-0.932, 1.284e-5
-0.933, 1.289e-5
-0.934, 1.295e-5
-0.935, 1.299e-5
-0.936, 1.304e-5
-0.937, 1.308e-5
-0.938, 1.314e-5
-0.939, 1.319e-5
-0.940, 1.323e-5
-0.941, 1.327e-5
-0.942, 1.332e-5
-0.943, 1.338e-5
-0.944, 1.343e-5
-0.945, 1.347e-5
-0.946, 1.352e-5
-0.947, 1.357e-5
-0.948, 1.363e-5
-0.949, 1.368e-5
-0.950, 1.373e-5
-0.951, 1.376e-5
-0.952, 1.380e-5
-0.953, 1.386e-5
-0.954, 1.390e-5
-0.955, 1.395e-5
-0.956, 1.399e-5
-0.957, 1.404e-5
-0.958, 1.410e-5
-0.959, 1.414e-5
-0.960, 1.419e-5
-0.961, 1.423e-5
-0.962, 1.428e-5
-0.963, 1.434e-5
-0.964, 1.439e-5
-0.965, 1.445e-5
-0.966, 1.449e-5
-0.967, 1.453e-5
-0.968, 1.459e-5
-0.969, 1.464e-5
-0.970, 1.469e-5
-0.971, 1.474e-5
-0.972, 1.479e-5
-0.973, 1.485e-5
-0.974, 1.491e-5
-0.975, 1.495e-5
-0.976, 1.500e-5
-0.977, 1.505e-5
-0.978, 1.510e-5
-0.979, 1.516e-5
-0.980, 1.520e-5
-0.981, 1.526e-5
-0.982, 1.531e-5
-0.983, 1.536e-5
-0.984, 1.542e-5
-0.985, 1.546e-5
-0.986, 1.551e-5
-0.987, 1.556e-5
-0.988, 1.562e-5
-0.989, 1.568e-5
-0.990, 1.573e-5
-0.991, 1.578e-5
-0.992, 1.584e-5
-0.993, 1.591e-5
-0.994, 1.595e-5
-0.995, 1.601e-5
-0.996, 1.605e-5
-0.997, 1.611e-5
-0.998, 1.617e-5
-0.999, 1.622e-5
-1.000, 1.628e-5
-1.001, 1.633e-5
-1.002, 1.639e-5
-1.003, 1.645e-5
-1.004, 1.651e-5
-1.005, 1.656e-5
-1.006, 1.662e-5
-1.007, 1.667e-5
-1.008, 1.674e-5
-1.009, 1.680e-5
-1.010, 1.685e-5
-1.011, 1.690e-5
-1.012, 1.695e-5
-1.013, 1.702e-5
-1.014, 1.709e-5
-1.015, 1.715e-5
-1.016, 1.720e-5
-1.017, 1.726e-5
-1.018, 1.733e-5
-1.019, 1.739e-5
-1.020, 1.745e-5
-1.021, 1.751e-5
-1.022, 1.757e-5
-1.023, 1.765e-5
-1.024, 1.771e-5
-1.025, 1.778e-5
-1.026, 1.783e-5
-1.027, 1.789e-5
-1.028, 1.796e-5
-1.029, 1.803e-5
-1.030, 1.809e-5
-1.031, 1.815e-5
-1.032, 1.821e-5
-1.033, 1.829e-5
-1.034, 1.836e-5
-1.035, 1.844e-5
-1.036, 1.850e-5
-1.037, 1.857e-5
-1.038, 1.865e-5
-1.039, 1.872e-5
-1.040, 1.879e-5
-1.041, 1.887e-5
-1.042, 1.894e-5
-1.043, 1.902e-5
-1.044, 1.910e-5
-1.045, 1.917e-5
-1.046, 1.924e-5
-1.047, 1.932e-5
-1.048, 1.941e-5
-1.049, 1.950e-5
-1.050, 1.957e-5
-1.051, 1.965e-5
-1.052, 1.975e-5
-1.053, 1.983e-5
-1.054, 1.992e-5
-1.055, 2.000e-5
-1.056, 2.008e-5
-1.057, 2.017e-5
-1.058, 2.026e-5
-1.059, 2.036e-5
-1.060, 2.045e-5
-1.061, 2.054e-5
-1.062, 2.064e-5
-1.063, 2.075e-5
-1.064, 2.086e-5
-1.065, 2.096e-5
-1.066, 2.105e-5
-1.067, 2.116e-5
-1.068, 2.128e-5
-1.069, 2.139e-5
-1.070, 2.151e-5
-1.071, 2.161e-5
-1.072, 2.174e-5
-1.073, 2.185e-5
-1.074, 2.197e-5
-1.075, 2.210e-5
-1.076, 2.224e-5
-1.077, 2.236e-5
-1.078, 2.249e-5
-1.079, 2.263e-5
-1.080, 2.276e-5
-1.081, 2.291e-5
-1.082, 2.305e-5
-1.083, 2.320e-5
-1.084, 2.336e-5
-1.085, 2.351e-5
-1.086, 2.366e-5
-1.087, 2.382e-5
-1.088, 2.399e-5
-1.089, 2.417e-5
-1.090, 2.433e-5
-1.091, 2.449e-5
-1.092, 2.466e-5
-1.093, 2.485e-5
-1.094, 2.503e-5
-1.095, 2.520e-5
-1.096, 2.538e-5
-1.097, 2.558e-5
-1.098, 2.577e-5
-1.099, 2.597e-5
-1.100, 2.617e-5
-1.101, 2.637e-5
-1.102, 2.659e-5
-1.103, 2.680e-5
-1.104, 2.702e-5
-1.105, 2.723e-5
-1.106, 2.745e-5
-1.107, 2.768e-5
-1.108, 2.790e-5
-1.109, 2.813e-5
-1.110, 2.837e-5
-1.111, 2.861e-5
-1.112, 2.885e-5
-1.113, 2.911e-5
-1.114, 2.937e-5
-1.115, 2.962e-5
-1.116, 2.988e-5
-1.117, 3.014e-5
-1.118, 3.042e-5
-1.119, 3.071e-5
-1.120, 3.099e-5
-1.121, 3.128e-5
-1.122, 3.156e-5
-1.123, 3.188e-5
-1.124, 3.220e-5
-1.125, 3.251e-5
-1.126, 3.284e-5
-1.127, 3.317e-5
-1.128, 3.352e-5
-1.129, 3.387e-5
-1.130, 3.422e-5
-1.131, 3.458e-5
-1.132, 3.496e-5
-1.133, 3.535e-5
-1.134, 3.575e-5
-1.135, 3.615e-5
-1.136, 3.657e-5
-1.137, 3.700e-5
-1.138, 3.746e-5
-1.139, 3.792e-5
-1.140, 3.839e-5
-1.141, 3.887e-5
-1.142, 3.936e-5
-1.143, 3.988e-5
-1.144, 4.042e-5
-1.145, 4.098e-5
-1.146, 4.152e-5
-1.147, 4.210e-5
-1.148, 4.271e-5
-1.149, 4.332e-5
-1.150, 4.393e-5
-1.151, 4.456e-5
-1.152, 4.523e-5
-1.153, 4.592e-5
-1.154, 4.662e-5
-1.155, 4.734e-5
-1.156, 4.807e-5
-1.157, 4.882e-5
-1.158, 4.960e-5
-1.159, 5.039e-5
-1.160, 5.119e-5
-1.161, 5.199e-5
-1.162, 5.282e-5
-1.163, 5.367e-5
-1.164, 5.452e-5
-1.165, 5.539e-5
-1.166, 5.628e-5
-1.167, 5.714e-5
-1.168, 5.804e-5
-1.169, 5.893e-5
-1.170, 5.980e-5
-1.171, 6.071e-5
-1.172, 6.161e-5
-1.173, 6.254e-5
-1.174, 6.346e-5
-1.175, 6.436e-5
-1.176, 6.526e-5
-1.177, 6.618e-5
-1.178, 6.712e-5
-1.179, 6.805e-5
-1.180, 6.897e-5
-1.181, 6.991e-5
-1.182, 7.088e-5
-1.183, 7.184e-5
-1.184, 7.281e-5
-1.185, 7.376e-5
-1.186, 7.474e-5
-1.187, 7.572e-5
-1.188, 7.672e-5
-1.189, 7.774e-5
-1.190, 7.873e-5
-1.191, 7.972e-5
-1.192, 8.075e-5
-1.193, 8.179e-5
-1.194, 8.284e-5
-1.195, 8.391e-5
-1.196, 8.494e-5
-1.197, 8.598e-5
-1.198, 8.707e-5
-1.199, 8.818e-5
-1.200, 8.928e-5
-1.201, 9.040e-5
-1.202, 9.150e-5
-1.203, 9.261e-5
-1.204, 9.373e-5
-1.205, 9.488e-5
-1.206, 9.605e-5
-1.207, 9.719e-5
-1.208, 9.837e-5
-1.209, 9.955e-5
-1.210, 1.007e-4
-1.211, 1.019e-4
-1.212, 1.031e-4
-1.213, 1.043e-4
-1.214, 1.055e-4
-1.215, 1.067e-4
-1.216, 1.080e-4
-1.217, 1.092e-4
-1.218, 1.105e-4
-1.219, 1.118e-4
-1.220, 1.131e-4
-1.221, 1.144e-4
-1.222, 1.156e-4
-1.223, 1.169e-4
-1.224, 1.182e-4
-1.225, 1.195e-4
-1.226, 1.208e-4
-1.227, 1.221e-4
-1.228, 1.234e-4
-1.229, 1.248e-4
-1.230, 1.262e-4
-1.231, 1.275e-4
-1.232, 1.289e-4
-1.233, 1.302e-4
-1.234, 1.316e-4
-1.235, 1.330e-4
-1.236, 1.343e-4
-1.237, 1.357e-4
-1.238, 1.371e-4
-1.239, 1.385e-4
-1.240, 1.399e-4
-1.241, 1.414e-4
-1.242, 1.429e-4
-1.243, 1.444e-4
-1.244, 1.459e-4
-1.245, 1.474e-4
-1.246, 1.488e-4
-1.247, 1.503e-4
-1.248, 1.517e-4
-1.249, 1.532e-4
-1.250, 1.546e-4
-1.251, 1.560e-4
-1.252, 1.574e-4
-1.253, 1.589e-4
-1.254, 1.605e-4
-1.255, 1.620e-4
-1.256, 1.634e-4
-1.257, 1.650e-4
-1.258, 1.665e-4
-1.259, 1.680e-4
-1.260, 1.696e-4
-1.261, 1.711e-4
-1.262, 1.726e-4
-1.263, 1.742e-4
-1.264, 1.757e-4
-1.265, 1.773e-4
-1.266, 1.789e-4
-1.267, 1.805e-4
-1.268, 1.821e-4
-1.269, 1.837e-4
-1.270, 1.853e-4
-1.271, 1.869e-4
-1.272, 1.883e-4
-1.273, 1.899e-4
-1.274, 1.915e-4
-1.275, 1.931e-4
-1.276, 1.947e-4
-1.277, 1.964e-4
-1.278, 1.981e-4
-1.279, 1.998e-4
-1.280, 2.015e-4
-1.281, 2.032e-4
-1.282, 2.049e-4
-1.283, 2.066e-4
-1.284, 2.083e-4
-1.285, 2.099e-4
-1.286, 2.116e-4
-1.287, 2.134e-4
-1.288, 2.152e-4
-1.289, 2.169e-4
-1.290, 2.187e-4
-1.291, 2.205e-4
-1.292, 2.222e-4
-1.293, 2.240e-4
-1.294, 2.258e-4
-1.295, 2.277e-4
-1.296, 2.295e-4
-1.297, 2.314e-4
-1.298, 2.332e-4
-1.299, 2.350e-4
-1.300, 2.369e-4
-1.301, 2.389e-4
-1.302, 2.408e-4
-1.303, 2.427e-4
-1.304, 2.446e-4
-1.305, 2.465e-4
-1.306, 2.485e-4
-1.307, 2.506e-4
-1.308, 2.527e-4
-1.309, 2.548e-4
-1.310, 2.568e-4
-1.311, 2.588e-4
-1.312, 2.608e-4
-1.313, 2.629e-4
-1.314, 2.649e-4
-1.315, 2.669e-4
-1.316, 2.689e-4
-1.317, 2.710e-4
-1.318, 2.732e-4
-1.319, 2.752e-4
-1.320, 2.774e-4
-1.321, 2.795e-4
-1.322, 2.817e-4
-1.323, 2.839e-4
-1.324, 2.860e-4
-1.325, 2.882e-4
-1.326, 2.904e-4
-1.327, 2.925e-4
-1.328, 2.948e-4
-1.329, 2.969e-4
-1.330, 2.992e-4
-1.331, 3.014e-4
-1.332, 3.036e-4
-1.333, 3.058e-4
-1.334, 3.080e-4
-1.335, 3.102e-4
-1.336, 3.124e-4
-1.337, 3.146e-4
-1.338, 3.168e-4
-1.339, 3.190e-4
-1.340, 3.211e-4
-1.341, 3.232e-4
-1.342, 3.255e-4
-1.343, 3.277e-4
-1.344, 3.298e-4
-1.345, 3.319e-4
-1.346, 3.339e-4
-1.347, 3.361e-4
-1.348, 3.382e-4
-1.349, 3.404e-4
-1.350, 3.426e-4
-1.351, 3.446e-4
-1.352, 3.467e-4
-1.353, 3.486e-4
-1.354, 3.505e-4
-1.355, 3.525e-4
-1.356, 3.544e-4
-1.357, 3.563e-4
-1.358, 3.580e-4
-1.359, 3.598e-4
-1.360, 3.615e-4
-1.361, 3.633e-4
-1.362, 3.649e-4
-1.363, 3.665e-4
-1.364, 3.681e-4
-1.365, 3.698e-4
-1.366, 3.715e-4
-1.367, 3.731e-4
-1.368, 3.747e-4
-1.369, 3.761e-4
-1.370, 3.775e-4
-1.371, 3.789e-4
-1.372, 3.803e-4
-1.373, 3.815e-4
-1.374, 3.828e-4
-1.375, 3.840e-4
-1.376, 3.852e-4
-1.377, 3.863e-4
-1.378, 3.874e-4
-1.379, 3.885e-4
-1.380, 3.896e-4
-1.381, 3.906e-4
-1.382, 3.916e-4
-1.383, 3.924e-4
-1.384, 3.931e-4
-1.385, 3.938e-4
-1.386, 3.948e-4
-1.387, 3.958e-4
-1.388, 3.968e-4
-1.389, 3.977e-4
-1.390, 3.984e-4
-1.391, 3.992e-4
-1.392, 3.999e-4
-1.393, 4.006e-4
-1.394, 4.014e-4
-1.395, 4.021e-4
-1.396, 4.028e-4
-1.397, 4.036e-4
-1.398, 4.044e-4
-1.399, 4.051e-4
-1.400, 4.059e-4
-1.401, 4.067e-4
-1.402, 4.074e-4
-1.403, 4.083e-4
-1.404, 4.090e-4
-1.405, 4.098e-4
-1.406, 4.108e-4
-1.407, 4.117e-4
-1.408, 4.127e-4
-1.409, 4.137e-4
-1.410, 4.148e-4
-1.411, 4.158e-4
-1.412, 4.170e-4
-1.413, 4.181e-4
-1.414, 4.193e-4
-1.415, 4.207e-4
-1.416, 4.220e-4
-1.417, 4.235e-4
-1.418, 4.251e-4
-1.419, 4.269e-4
-1.420, 4.286e-4
-1.421, 4.305e-4
-1.422, 4.325e-4
-1.423, 4.346e-4
-1.424, 4.370e-4
-1.425, 4.396e-4
-1.426, 4.422e-4
-1.427, 4.449e-4
-1.428, 4.477e-4
-1.429, 4.506e-4
-1.430, 4.537e-4
-1.431, 4.568e-4
-1.432, 4.601e-4
-1.433, 4.636e-4
-1.434, 4.672e-4
-1.435, 4.709e-4
-1.436, 4.747e-4
-1.437, 4.786e-4
-1.438, 4.827e-4
-1.439, 4.870e-4
-1.440, 4.913e-4
-1.441, 4.955e-4
-1.442, 5.000e-4
-1.443, 5.047e-4
-1.444, 5.093e-4
-1.445, 5.141e-4
-1.446, 5.190e-4
-1.447, 5.241e-4
-1.448, 5.293e-4
-1.449, 5.345e-4
-1.450, 5.396e-4
-1.451, 5.449e-4
-1.452, 5.502e-4
-1.453, 5.557e-4
-1.454, 5.612e-4
-1.455, 5.668e-4
-1.456, 5.726e-4
-1.457, 5.784e-4
-1.458, 5.842e-4
-1.459, 5.902e-4
-1.460, 5.961e-4
-1.461, 6.019e-4
-1.462, 6.079e-4
-1.463, 6.138e-4
-1.464, 6.198e-4
-1.465, 6.260e-4
-1.466, 6.322e-4
-1.467, 6.385e-4
-1.468, 6.448e-4
-1.469, 6.510e-4
-1.470, 6.573e-4
-1.471, 6.636e-4
-1.472, 6.701e-4
-1.473, 6.765e-4
-1.474, 6.830e-4
-1.475, 6.896e-4
-1.476, 6.961e-4
-1.477, 7.027e-4
-1.478, 7.094e-4
-1.479, 7.161e-4
-1.480, 7.229e-4
-1.481, 7.298e-4
-1.482, 7.366e-4
-1.483, 7.434e-4
-1.484, 7.502e-4
-1.485, 7.573e-4
-1.486, 7.644e-4
-1.487, 7.712e-4
-1.488, 7.780e-4
-1.489, 7.847e-4
-1.490, 7.917e-4
-1.491, 7.987e-4
-1.492, 8.057e-4
-1.493, 8.128e-4
-1.494, 8.199e-4
-1.495, 8.271e-4
-1.496, 8.344e-4
-1.497, 8.415e-4
-1.498, 8.487e-4
-1.499, 8.557e-4
-1.500, 8.625e-4
-1.501, 8.694e-4
-1.502, 8.764e-4
-1.503, 8.835e-4
-1.504, 8.910e-4
-1.505, 8.984e-4
-1.506, 9.057e-4
-1.507, 9.128e-4
-1.508, 9.199e-4
-1.509, 9.271e-4
-1.510, 9.352e-4
-1.511, 9.425e-4
-1.512, 9.496e-4
-1.513, 9.569e-4
-1.514, 9.646e-4
-1.515, 9.722e-4
-1.516, 9.791e-4
-1.517, 9.863e-4
-1.518, 9.936e-4
-1.519, 1.001e-3
-1.520, 1.008e-3
-1.521, 1.011e-3
-1.522, 1.011e-3
-1.523, 1.011e-3
-1.524, 1.011e-3
-1.525, 1.011e-3
-1.526, 1.011e-3
-1.527, 1.011e-3
-1.528, 1.011e-3
-1.529, 1.011e-3
-1.530, 1.011e-3
-1.531, 1.011e-3
-1.532, 1.011e-3
-1.533, 1.011e-3
-1.534, 1.011e-3
-1.535, 1.011e-3
-1.536, 1.011e-3
-1.537, 1.011e-3
-1.538, 1.011e-3
-1.539, 1.011e-3
-1.540, 1.011e-3
-1.541, 1.011e-3
-1.542, 1.011e-3
-1.543, 1.011e-3
-1.544, 1.011e-3
-1.545, 1.011e-3
-1.546, 1.011e-3
-1.547, 1.011e-3
-1.548, 1.011e-3
-1.549, 1.011e-3
-1.550, 1.011e-3
-1.551, 1.011e-3
-1.552, 1.011e-3
-1.553, 1.011e-3
-1.554, 1.011e-3
-1.555, 1.011e-3
-1.556, 1.011e-3
-1.557, 1.011e-3
-1.558, 1.011e-3
-1.559, 1.011e-3
-1.560, 1.011e-3
-1.561, 1.011e-3
-1.562, 1.011e-3
-1.563, 1.011e-3
-1.564, 1.011e-3
-1.565, 1.011e-3
-1.566, 1.011e-3
-1.567, 1.011e-3
-1.568, 1.011e-3
-1.569, 1.011e-3
-1.570, 1.011e-3
-1.571, 1.011e-3
-1.572, 1.011e-3
-1.573, 1.011e-3
-1.574, 1.011e-3
-1.575, 1.011e-3
-1.576, 1.011e-3
-1.577, 1.011e-3
-1.578, 1.011e-3
-1.579, 1.011e-3
-1.580, 1.011e-3
-1.581, 1.011e-3
-1.582, 1.011e-3
-1.583, 1.011e-3
-1.584, 1.011e-3
-1.585, 1.011e-3
-1.586, 1.011e-3
-1.587, 1.011e-3
-1.588, 1.011e-3
-1.589, 1.011e-3
-1.590, 1.011e-3
-1.591, 1.011e-3
-1.592, 1.011e-3
-1.593, 1.011e-3
-1.594, 1.011e-3
-1.595, 1.011e-3
-1.596, 1.011e-3
-1.597, 1.011e-3
-1.598, 1.011e-3
-1.599, 1.011e-3
-1.600, 1.011e-3
-1.601, 1.011e-3
-1.602, 1.011e-3
-1.603, 1.011e-3
-1.604, 1.011e-3
-1.605, 1.011e-3
-1.606, 1.011e-3
-1.607, 1.011e-3
-1.608, 1.011e-3
-1.609, 1.011e-3
-1.610, 1.011e-3
-1.611, 1.011e-3
-1.612, 1.011e-3
-1.613, 1.011e-3
-1.614, 1.011e-3
-1.615, 1.011e-3
-1.616, 1.011e-3
-1.617, 1.011e-3
-1.618, 1.011e-3
-1.619, 1.011e-3
-1.620, 1.011e-3
-1.621, 1.011e-3
-1.622, 1.011e-3
-1.623, 1.011e-3
-1.624, 1.011e-3
-1.625, 1.011e-3
-1.626, 1.011e-3
-1.627, 1.011e-3
-1.628, 1.011e-3
-1.629, 1.011e-3
-1.630, 1.011e-3
-1.631, 1.011e-3
-1.632, 1.011e-3
-1.633, 1.011e-3
-1.634, 1.011e-3
-1.635, 1.011e-3
-1.636, 1.011e-3
-1.637, 1.011e-3
-1.638, 1.011e-3
-1.639, 1.011e-3
-1.640, 1.011e-3
-1.641, 1.011e-3
-1.642, 1.011e-3
-1.643, 1.011e-3
-1.644, 1.011e-3
-1.645, 1.011e-3
-1.646, 1.011e-3
-1.647, 1.011e-3
-1.648, 1.011e-3
-1.649, 1.011e-3
-1.650, 1.011e-3
-1.651, 1.011e-3
-1.652, 1.011e-3
-1.653, 1.011e-3
-1.654, 1.011e-3
-1.655, 1.011e-3
-1.656, 1.011e-3
-1.657, 1.011e-3
-1.658, 1.011e-3
-1.659, 1.011e-3
-1.660, 1.011e-3
-1.661, 1.011e-3
-1.662, 1.011e-3
-1.663, 1.011e-3
-1.664, 1.011e-3
-1.665, 1.011e-3
-1.666, 1.011e-3
-1.667, 1.011e-3
-1.668, 1.011e-3
-1.669, 1.011e-3
-1.670, 1.011e-3
-1.671, 1.011e-3
-1.672, 1.011e-3
-1.673, 1.011e-3
-1.674, 1.011e-3
-1.675, 1.011e-3
-1.676, 1.011e-3
-1.677, 1.011e-3
-1.678, 1.011e-3
-1.679, 1.011e-3
-1.680, 1.011e-3
-1.681, 1.011e-3
-1.682, 1.011e-3
-1.683, 1.011e-3
-1.684, 1.011e-3
-1.685, 1.011e-3
-1.686, 1.011e-3
-1.687, 1.011e-3
-1.688, 1.011e-3
-1.689, 1.011e-3
-1.690, 1.011e-3
-1.691, 1.011e-3
-1.692, 1.011e-3
-1.693, 1.011e-3
-1.694, 1.011e-3
-1.695, 1.011e-3
-1.696, 1.011e-3
-1.697, 1.011e-3
-1.698, 1.011e-3
-1.699, 1.011e-3
-1.700, 1.011e-3
-1.701, 1.011e-3
-1.702, 1.011e-3
-1.703, 1.011e-3
-1.704, 1.011e-3
-1.705, 1.011e-3
-1.706, 1.011e-3
-1.707, 1.011e-3
-1.708, 1.011e-3
-1.709, 1.011e-3
-1.710, 1.011e-3
-1.711, 1.011e-3
-1.712, 1.011e-3
-1.713, 1.011e-3
-1.714, 1.011e-3
-1.715, 1.011e-3
-1.716, 1.011e-3
-1.717, 1.011e-3
-1.718, 1.011e-3
-1.719, 1.011e-3
-1.720, 1.011e-3
-1.721, 1.011e-3
-1.722, 1.011e-3
-1.723, 1.011e-3
-1.724, 1.011e-3
-1.725, 1.011e-3
-1.726, 1.011e-3
-1.727, 1.011e-3
-1.728, 1.011e-3
-1.729, 1.011e-3
-1.730, 1.011e-3
-1.731, 1.011e-3
-1.732, 1.011e-3
-1.733, 1.011e-3
-1.734, 1.011e-3
-1.735, 1.011e-3
-1.736, 1.011e-3
-1.737, 1.011e-3
-1.738, 1.011e-3
-1.739, 1.011e-3
-1.740, 1.011e-3
-1.741, 1.011e-3
-1.742, 1.011e-3
-1.743, 1.011e-3
-1.744, 1.011e-3
-1.745, 1.011e-3
-1.746, 1.011e-3
-1.747, 1.011e-3
-1.748, 1.011e-3
-1.749, 1.011e-3
-1.750, 1.011e-3
-1.751, 1.011e-3
-1.752, 1.011e-3
-1.753, 1.011e-3
-1.754, 1.011e-3
-1.755, 1.011e-3
-1.756, 1.011e-3
-1.757, 1.011e-3
-1.758, 1.011e-3
-1.759, 1.011e-3
-1.760, 1.011e-3
-1.761, 1.011e-3
-1.762, 1.011e-3
-1.763, 1.011e-3
-1.764, 1.011e-3
-1.765, 1.011e-3
-1.766, 1.011e-3
-1.767, 1.011e-3
-1.768, 1.011e-3
-1.769, 1.011e-3
-1.770, 1.011e-3
-1.771, 1.011e-3
-1.772, 1.011e-3
-1.773, 1.011e-3
-1.774, 1.011e-3
-1.775, 1.011e-3
-1.776, 1.011e-3
-1.777, 1.011e-3
-1.778, 1.011e-3
-1.779, 1.011e-3
-1.780, 1.011e-3
-1.781, 1.011e-3
-1.782, 1.011e-3
-1.783, 1.011e-3
-1.784, 1.011e-3
-1.785, 1.011e-3
-1.786, 1.011e-3
-1.787, 1.011e-3
-1.788, 1.011e-3
-1.789, 1.011e-3
-1.790, 1.011e-3
-1.791, 1.011e-3
-1.792, 1.011e-3
-1.793, 1.011e-3
-1.794, 1.011e-3
-1.795, 1.011e-3
-1.796, 1.011e-3
-1.797, 1.011e-3
-1.798, 1.011e-3
-1.799, 1.011e-3
-1.800, 1.011e-3
-1.801, 1.011e-3
-1.802, 1.011e-3
-1.803, 1.011e-3
-1.804, 1.011e-3
-1.805, 1.011e-3
-1.806, 1.011e-3
-1.807, 1.011e-3
-1.808, 1.011e-3
-1.809, 1.011e-3
-1.810, 1.011e-3
-1.811, 1.011e-3
-1.812, 1.011e-3
-1.813, 1.011e-3
-1.814, 1.011e-3
-1.815, 1.011e-3
-1.816, 1.011e-3
-1.817, 1.011e-3
-1.818, 1.011e-3
-1.819, 1.011e-3
-1.820, 1.011e-3
-1.821, 1.011e-3
-1.822, 1.011e-3
-1.823, 1.011e-3
-1.824, 1.011e-3
-1.825, 1.011e-3
-1.826, 1.011e-3
-1.827, 1.011e-3
-1.828, 1.011e-3
-1.829, 1.011e-3
-1.830, 1.011e-3
-1.831, 1.011e-3
-1.832, 1.011e-3
-1.833, 1.011e-3
-1.834, 1.011e-3
-1.835, 1.011e-3
-1.836, 1.011e-3
-1.837, 1.011e-3
-1.838, 1.011e-3
-1.839, 1.011e-3
-1.840, 1.011e-3
-1.841, 1.011e-3
-1.842, 1.011e-3
-1.843, 1.011e-3
-1.844, 1.011e-3
-1.845, 1.011e-3
-1.846, 1.011e-3
-1.847, 1.011e-3
-1.848, 1.011e-3
-1.849, 1.011e-3
-1.850, 1.011e-3
-1.851, 1.011e-3
-1.852, 1.011e-3
-1.853, 1.011e-3
-1.854, 1.011e-3
-1.855, 1.011e-3
-1.856, 1.011e-3
-1.857, 1.011e-3
-1.858, 1.011e-3
-1.859, 1.011e-3
-1.860, 1.011e-3
-1.861, 1.011e-3
-1.862, 1.011e-3
-1.863, 1.011e-3
-1.864, 1.011e-3
-1.865, 1.011e-3
-1.866, 1.011e-3
-1.867, 1.011e-3
-1.868, 1.011e-3
-1.869, 1.011e-3
-1.870, 1.011e-3
-1.871, 1.011e-3
-1.872, 1.011e-3
-1.873, 1.011e-3
-1.874, 1.011e-3
-1.875, 1.011e-3
-1.876, 1.011e-3
-1.877, 1.011e-3
-1.878, 1.011e-3
-1.879, 1.011e-3
-1.880, 1.011e-3
-1.881, 1.011e-3
-1.882, 1.011e-3
-1.883, 1.011e-3
-1.884, 1.011e-3
-1.885, 1.011e-3
-1.886, 1.011e-3
-1.887, 1.011e-3
-1.888, 1.011e-3
-1.889, 1.011e-3
-1.890, 1.011e-3
-1.891, 1.011e-3
-1.892, 1.011e-3
-1.893, 1.011e-3
-1.894, 1.011e-3
-1.895, 1.011e-3
-1.896, 1.011e-3
-1.897, 1.011e-3
-1.898, 1.011e-3
-1.899, 1.011e-3
