Potential V vs RHE, Current mA cm-2
0.013299999999999867,-0.26384365742482935
0.012299999999999978,-1.4854468648582886
0.011299999999999866,-2.618630616050183
0.010299999999999976,-3.7532290785419424
0.009299999999999864,-4.800115440442069
0.008299999999999974,-5.80314575204638
0.007299999999999862,-6.762320013354876
0.006299999999999972,-7.635196885371603
0.00529999999999986,-8.464217707092514
0.0042999999999999705,-9.293238528813426
0.0032999999999998586,-10.120844639234473
0.0022999999999999687,-10.949865460955383
0.0012999999999998568,-11.778886282676295
0.00029999999999996696,-12.56405105410139
-0.000700000000000145,-13.217647674639037
-0.0017000000000000348,-13.828802956180734
-0.0027000000000001467,-14.345172580631472
-0.0037000000000000366,-14.868615761581536
-0.0047000000000001485,-15.448647394526201
-0.005700000000000038,-15.972090575476265
-0.00670000000000015,-16.53797509542228
-0.00770000000000004,-17.061418276372343
-0.008700000000000152,-17.584861457322408
-0.009700000000000042,-18.06586329927652
-0.010700000000000154,-18.53271802823198
-0.011700000000000044,-18.97127853119014
-0.012700000000000156,-19.409839034148305
-0.013700000000000045,-19.805958198110513
-0.014700000000000157,-20.244518701068674
-0.015700000000000047,-20.626490752032236
-0.01670000000000016,-20.980168576998494
-0.01770000000000005,-21.376287740960702
-0.01870000000000016,-21.67337711393236
-0.01970000000000005,-21.98461359990267
-0.020700000000000163,-22.196820294882425
-0.021700000000000053,-22.42317410286083
-0.022700000000000164,-22.63538079784059
-0.023700000000000054,-22.946617283810895
-0.024700000000000166,-23.385177786769056
-0.025700000000000056,-23.767149837732617
-0.026700000000000168,-24.078386323702922
-0.027700000000000058,-24.290593018682678
-0.02870000000000017,-24.474505487665134
-0.02970000000000006,-24.559388165657033
-0.03070000000000017,-24.64427084364894
-0.03170000000000006,-24.814036199632742
-0.03270000000000017,-24.997948668615198
-0.03370000000000006,-25.252596702590903
-0.034700000000000175,-25.43650917157336
-0.035700000000000065,-25.563833188561212
-0.03670000000000018,-25.691157205549064
-0.03770000000000007,-25.81848122253692
-0.03870000000000018,-25.959952352523427
-0.03970000000000007,-26.17215904750318
-0.04070000000000018,-26.38436574248293
-0.04170000000000007,-26.568278211465387
-0.04270000000000018,-26.69560222845324
-0.04370000000000007,-26.822926245441096
-0.044700000000000184,-26.907808923433
-0.045700000000000074,-27.049280053419505
-0.046700000000000186,-27.176604070407354
-0.047700000000000076,-27.261486748399253
-0.04870000000000019,-27.34636942639116
-0.04970000000000008,-27.43125210438306
-0.05070000000000019,-27.572723234369565
-0.05170000000000008,-27.742488590353368
-0.05270000000000019,-27.954695285333123
-0.05370000000000008,-28.13860775431558
-0.05470000000000019,-28.18104909331153
-0.05570000000000008,-28.18104909331153
-0.056700000000000195,-28.09616641531963
-0.057700000000000085,-28.011283737327723
-0.058700000000000196,-28.05372507632368
-0.059700000000000086,-28.09616641531963
-0.0607000000000002,-28.18104909331153
-0.06170000000000009,-28.265931771303435
-0.0627000000000002,-28.350814449295335
-0.06370000000000009,-28.393255788291288
-0.0647000000000002,-28.478138466283188
-0.06570000000000009,-28.619609596269694
-0.0667000000000002,-28.746933613257543
-0.0677000000000001,-28.831816291249446
-0.0687000000000002,-28.8742576302454
-0.0697000000000001,-28.8742576302454
-0.07070000000000021,-28.91669896924135
-0.0717000000000001,-28.959140308237306
-0.07270000000000021,-29.058170099227848
-0.0737000000000001,-29.14305277721976
-0.07470000000000021,-29.100611438223805
-0.0757000000000001,-29.058170099227848
-0.07670000000000021,-28.91669896924135
-0.0777000000000001,-28.959140308237306
-0.07870000000000021,-29.100611438223805
-0.0797000000000001,-29.35525947219951
-0.08070000000000022,-29.581613280177915
-0.0817000000000001,-29.66649595816982
-0.08270000000000022,-29.62405461917387
-0.08370000000000011,-29.525024828183312
-0.08470000000000022,-29.39770081119546
-0.08570000000000011,-29.31281813320356
-0.08670000000000022,-29.27037679420761
-0.08770000000000011,-29.31281813320356
-0.08870000000000022,-29.35525947219951
-0.08970000000000011,-29.35525947219951
-0.09070000000000022,-29.39770081119546
-0.09170000000000011,-29.39770081119546
-0.09270000000000023,-29.482583489187363
-0.09370000000000012,-29.525024828183312
-0.09470000000000023,-29.581613280177915
-0.09570000000000012,-29.581613280177915
-0.09670000000000023,-29.581613280177915
-0.09770000000000012,-29.62405461917387
-0.09870000000000023,-29.708937297165768
-0.09970000000000012,-29.793819975157668
-0.10070000000000023,-29.836261314153624
-0.10170000000000012,-29.836261314153624
-0.10270000000000024,-29.793819975157668
-0.10370000000000013,-29.751378636161718
-0.10470000000000024,-29.836261314153624
-0.10570000000000013,-29.921143992145527
-0.10670000000000024,-30.04846800913338
-0.10770000000000013,-30.147497800123933
-0.10870000000000024,-30.10505646112798
-0.10970000000000013,-29.921143992145527
-0.11070000000000024,-29.793819975157668
-0.11170000000000013,-29.708937297165768
-0.11270000000000002,-29.708937297165768
-0.11370000000000013,-29.836261314153624
-0.11470000000000002,-29.921143992145527
-0.11570000000000014,-29.96358533114148
-0.11670000000000003,-29.96358533114148
-0.11770000000000014,-29.921143992145527
-0.11870000000000003,-29.921143992145527
-0.11970000000000014,-29.921143992145527
-0.12070000000000003,-30.00602667013743
-0.12170000000000014,-30.10505646112798
-0.12270000000000003,-30.189939139119886
-0.12370000000000014,-30.189939139119886
-0.12470000000000003,-30.189939139119886
-0.12570000000000014,-30.232380478115836
-0.12670000000000003,-30.232380478115836
-0.12770000000000015,-30.274821817111786
-0.12870000000000004,-30.232380478115836
-0.12970000000000015,-30.189939139119886
-0.13070000000000004,-30.10505646112798
-0.13170000000000015,-30.04846800913338
-0.13270000000000004,-30.04846800913338
-0.13370000000000015,-30.147497800123933
-0.13470000000000004,-30.232380478115836
-0.13570000000000015,-30.317263156107735
-0.13670000000000004,-30.359704495103685
-0.13770000000000016,-30.359704495103685
-0.13870000000000005,-30.359704495103685
-0.13970000000000016,-30.402145834099635
-0.14070000000000005,-30.402145834099635
-0.14170000000000016,-30.444587173095588
-0.14270000000000005,-30.444587173095588
-0.14370000000000016,-30.402145834099635
-0.14470000000000005,-30.402145834099635
-0.14570000000000016,-30.487028512091538
-0.14670000000000005,-30.571911190083444
-0.14770000000000016,-30.614352529079397
-0.14870000000000005,-30.571911190083444
-0.14970000000000017,-30.529469851087494
-0.15070000000000006,-30.402145834099635
-0.15170000000000017,-30.317263156107735
-0.15270000000000006,-30.274821817111786
-0.15370000000000017,-30.274821817111786
-0.15470000000000006,-30.444587173095588
-0.15570000000000017,-30.670940981073993
-0.15670000000000006,-30.79826499806185
-0.15770000000000017,-30.925589015049702
-0.15870000000000006,-30.925589015049702
-0.15970000000000018,-30.925589015049702
-0.16070000000000007,-30.88314767605375
-0.16170000000000018,-30.8407063370578
-0.16270000000000007,-30.8407063370578
-0.16370000000000018,-30.88314767605375
-0.16470000000000007,-30.925589015049702
-0.16570000000000018,-30.968030354045652
-0.16670000000000007,-30.968030354045652
-0.16770000000000018,-30.925589015049702
-0.16870000000000007,-30.925589015049702
-0.16970000000000018,-30.968030354045652
-0.17070000000000007,-31.052913032037555
-0.17170000000000019,-31.137795710029454
-0.17270000000000008,-31.19438416202406
-0.1737000000000002,-31.23682550102001
-0.17470000000000008,-31.23682550102001
-0.1757000000000002,-31.23682550102001
-0.17670000000000008,-31.23682550102001
-0.1777000000000002,-31.23682550102001
-0.17870000000000008,-31.23682550102001
-0.1797000000000002,-31.321708179011907
-0.18070000000000008,-31.36414951800786
-0.1817000000000002,-31.449032195999767
-0.18270000000000008,-31.49147353499572
-0.1837000000000002,-31.533914873991666
-0.1847000000000001,-31.57635621298762
-0.1857000000000002,-31.618797551983565
-0.1867000000000001,-31.717827342974125
-0.1877000000000002,-31.802710020966025
-0.1887000000000001,-31.887592698957924
-0.1897000000000002,-31.972475376949827
-0.1907000000000001,-32.01491671594578
-0.1917000000000001,-31.972475376949827
-0.19269999999999998,-31.887592698957924
-0.1937000000000001,-31.84515135996197
-0.19469999999999998,-31.84515135996197
-0.1957000000000001,-31.972475376949827
-0.19669999999999999,-32.184682071929586
-0.1977000000000001,-32.45347721890394
-0.1987,-32.70812525287965
-0.1997000000000001,-32.764713704874254
-0.2007,-32.764713704874254
-0.2017000000000001,-32.62324257488775
-0.2027,-32.49591855789989
-0.2037000000000001,-32.49591855789989
-0.2047,-32.58080123589179
-0.2057000000000001,-32.66568391388369
-0.2067,-32.807155043870196
-0.2077000000000001,-32.892037721862096
-0.2087,-32.93447906085806
-0.2097000000000001,-32.97692039985401
-0.2107,-33.10424441684186
-0.2117000000000001,-33.18912709483376
-0.2127,-33.330598224820264
-0.2137000000000001,-33.41548090281216
-0.2147,-33.54280491980002
-0.2157000000000001,-33.670128936787876
-0.2167,-33.81160006677438
-0.21770000000000012,-33.93892408376223
-0.2187,-34.06624810075008
-0.21970000000000012,-34.15113077874198
-0.2207,-34.193572117737936
-0.22170000000000012,-34.236013456733886
-0.2227,-34.377484586720385
-0.22370000000000012,-34.632132620696105
-0.2247,-34.90092776767045
-0.22570000000000012,-35.11313446265021
-0.2267,-35.198017140642115
-0.22770000000000012,-35.198017140642115
-0.22870000000000001,-35.11313446265021
-0.22970000000000013,-35.07069312365426
-0.23070000000000002,-35.11313446265021
-0.23170000000000013,-35.282899818634014
-0.23270000000000002,-35.46681228761647
-0.23370000000000013,-35.679018982596226
-0.23470000000000002,-35.848784338580025
-0.23570000000000013,-36.03269680756248
-0.23670000000000002,-36.20246216354629
-0.2376999999999999,-36.37222751953009
-0.23870000000000002,-36.5985813275085
-0.2396999999999999,-36.768346683492304
-0.24070000000000003,-36.95225915247476
-0.24169999999999991,-37.122024508458566
-0.24270000000000003,-37.291789864442364
-0.24369999999999992,-37.51814367242077
-0.24470000000000003,-37.77279170639648
-0.24569999999999992,-38.04158685337084
-0.24670000000000003,-38.253793548350586
-0.24769999999999992,-38.33867622634249
-0.24870000000000003,-38.42355890433439
-0.24969999999999992,-38.46600024333035
-0.25070000000000003,-38.5650300343209
-0.2516999999999999,-38.734795390304704
-0.25270000000000004,-38.98944342428042
-0.2536999999999999,-39.258238571254765
-0.25470000000000004,-39.56947505722508
-0.2556999999999999,-39.86656443019674
-0.25670000000000004,-40.135359577171094
-0.25769999999999993,-40.3900076111468
-0.25870000000000004,-40.65880275812115
-0.25969999999999993,-40.91345079209687
-0.26070000000000004,-41.139804600075266
-0.26169999999999993,-41.39445263405098
-0.26270000000000004,-41.56421799003478
-0.26369999999999993,-41.83301313700913
-0.26470000000000005,-42.087661170984845
-0.26569999999999994,-42.39889765695515
-0.26670000000000005,-42.71013414292546
-0.26769999999999994,-42.96478217690117
-0.26870000000000005,-43.23357732387552
-0.26969999999999994,-43.48822535785123
-0.27070000000000005,-43.84190318281749
-0.27169999999999994,-44.3229050247716
-0.27270000000000005,-44.80390686672572
-0.27369999999999994,-45.22832025668522
-0.27470000000000006,-45.53955674265553
-0.27569999999999995,-45.79420477663124
-0.27670000000000006,-45.93567590661774
-0.27769999999999995,-46.062999923605595
-0.27870000000000006,-46.27520661858535
-0.27969999999999995,-46.628884443551605
-0.28070000000000006,-47.10988628550572
-0.28169999999999995,-47.590888127459834
-0.28270000000000006,-48.029448630417996
-0.28369999999999995,-48.41142068138156
-0.28470000000000006,-48.80753984534376
-0.28569999999999995,-49.24610034830193
-0.28670000000000007,-49.642219512264134
-0.28769999999999996,-50.0807800152223
-0.28870000000000007,-50.42031072718991
-0.28969999999999996,-50.73154721316022
-0.29070000000000007,-50.98619524713592
-0.29169999999999996,-51.424755750094086
-0.29270000000000007,-52.033081609036046
-0.29369999999999996,-52.69799591997262
-0.2947000000000001,-53.22143910092268
-0.29569999999999996,-53.603411151886235
-0.2967000000000001,-53.9570889768525
-0.29769999999999996,-54.2117370108282
-0.2987000000000001,-54.56541483579447
-0.29969999999999997,-54.961533999756675
-0.3007000000000001,-55.527418519702685
-0.30169999999999997,-56.13574437864466
-0.3027000000000001,-56.70162889859067
-0.30369999999999997,-57.182630740544774
-0.3047000000000001,-57.62119124350295
-0.30569999999999997,-58.05975174646111
-0.3067000000000001,-58.498312249419264
-0.3077,-59.02175543036933
-0.3087000000000001,-59.54519861131939
-0.3097,-60.06864179226946
-0.3107000000000001,-60.67696765121143
-0.3117,-61.28529351015339
-0.3127000000000001,-61.851178030099405
-0.3137,-62.37462121104946
-0.3147000000000001,-62.855623053003576
-0.3157,-63.37906623395363
-0.3167000000000001,-63.902509414903705
-0.3177,-64.46839393484973
-0.3187000000000001,-65.03427845479574
-0.3197,-65.7274869917296
-0.3207000000000001,-66.56216665864997
-0.3217,-67.43928766456631
-0.3227000000000001,-68.17493754049613
-0.3237,-68.74082206044213
-0.3247000000000001,-69.13694122440434
-0.3257,-69.53306038836655
-0.3267000000000001,-69.8301497613382
-0.3277,-70.22626892530042
-0.3287000000000001,-70.74971210625048
-0.3297,-71.44292064318435
-0.3307000000000001,-72.27760031010472
-0.3317,-73.0556915250305
-0.3327000000000001,-73.80548851395896
-0.3337,-74.45625571189689
-0.3347000000000001,-75.1070229098348
-0.3357,-75.77193722077136
-0.3367000000000001,-76.46514575770523
-0.3377,-77.20079563363505
-0.3387000000000001,-77.90815128356756
-0.3397,-78.60135982050144
-0.3407000000000001,-79.25212701843935
-0.3417,-79.7755701993894
-0.3427000000000001,-80.29901338033947
-0.3437,-80.82245656128954
-0.3447000000000001,-81.51566509822342
-0.3457,-82.47766878213164
-0.3467000000000001,-83.60943782202366
-0.3477,-84.7129126359184
-0.3487000000000001,-85.53344518984011
-0.3497,-86.18421238777805
-0.3507000000000001,-86.6227728907362
-0.3517,-86.93400937670651
-0.3527000000000001,-87.33012854066871
-0.3537,-87.93845439961068
-0.3547000000000001,-88.6741042755405
-0.3557,-89.50878394246087
-0.35670000000000013,-90.32931649638259
-0.3577,-91.03667214631511
-0.35870000000000013,-91.77232202224494
-0.3597,-92.50797189817473
-0.36070000000000013,-93.34265156509512
-0.3617,-94.21977257101145
-0.3626999999999999,-95.08274646392913
-0.3637,-95.91742613084948
-0.3646999999999999,-96.79454713676581
-0.3657,-97.6575210296835
-0.3666999999999999,-98.5346420355998
-0.3677,-99.35517458952152
-0.3686999999999999,-100.18985425644189
-0.36970000000000003,-100.79818011538387
-0.3706999999999999,-101.19429927934607
-0.37170000000000003,-101.63285978230424
-0.3726999999999999,-102.5524221272165
-0.37370000000000003,-103.98128054008019
-0.3746999999999999,-105.63649276092228
-0.37570000000000003,-106.95217426979677
-0.3766999999999999,-107.73026548472255
-0.37770000000000004,-108.1688259876807
-0.3786999999999999,-108.3102971176672
-0.37970000000000004,-108.56494515164292
-0.3806999999999999,-109.04594699359701
-0.38170000000000004,-109.8240382085228
-0.38269999999999993,-110.78604189243102
-0.38370000000000004,-111.7056042373433
-0.38469999999999993,-112.54028390426367
-0.38570000000000004,-113.36081645818538
-0.38669999999999993,-113.40325779718134
-0.38570000000000004,-112.01684072331359
-0.38469999999999993,-110.74360055343507
-0.38370000000000004,-109.4845074965552
-0.38269999999999993,-108.12638464868475
-0.38170000000000004,-106.78240891381296
-0.3806999999999999,-105.59405142192634
-0.37970000000000004,-104.50472372103027
-0.3786999999999999,-103.59930848911664
-0.37770000000000004,-102.63730480520842
-0.3766999999999999,-101.50553576531638
-0.37570000000000003,-100.23229559543785
-0.3746999999999999,-98.88831986056607
-0.37370000000000003,-97.78484504667132
-0.3726999999999999,-97.04919517074151
-0.37170000000000003,-96.4833106507955
-0.3706999999999999,-95.74766077486568
-0.36970000000000003,-94.7432157519615
-0.3686999999999999,-93.46997558208298
-0.3677,-92.08355850821525
-0.3666999999999999,-90.7254356603448
-0.3657,-89.63610795944872
-0.3646999999999999,-88.80142829252836
-0.3637,-88.10821975559449
-0.3626999999999999,-87.37256987966467
-0.3617,-86.5378902127443
-0.36070000000000013,-85.66076920682796
-0.3597,-84.84023665290624
-0.35870000000000013,-84.04799832498183
-0.3577,-83.26990711005605
-0.35670000000000013,-82.43522744313569
-0.3557,-81.51566509822342
-0.3547000000000001,-80.52536718831789
-0.3537,-79.60580484340561
-0.3527000000000001,-78.8135665154812
-0.3517,-78.16279931754329
-0.3507000000000001,-77.51203211960537
-0.3497,-76.7622351306769
-0.3487000000000001,-75.71534876877676
-0.3477,-74.58357972888473
-0.3467000000000001,-73.3669280110008
-0.3457,-72.36248298809663
-0.3447000000000001,-71.58439177317086
-0.3437,-70.91947746223428
-0.3427000000000001,-70.31115160329232
-0.3417,-69.6603844053544
-0.3407000000000001,-68.86814607742998
-0.3397,-68.0051721845123
-0.3387000000000001,-67.128051178596
-0.3377,-66.29337151167562
-0.3367000000000001,-65.4728389577539
-0.3357,-64.59571795183757
-0.3347000000000001,-63.732744058919906
-0.3337,-62.89806439199953
-0.3327000000000001,-62.02094338608321
-0.3317,-61.20041083216149
-0.3307000000000001,-60.45061384323302
-0.3297,-59.67252262830725
-0.3287000000000001,-58.79540162239092
-0.3277,-57.974869068469204
-0.3267000000000001,-57.14018940154883
-0.3257,-56.44698086461496
-0.3247000000000001,-55.96597902266086
-0.3237,-55.357653163718886
-0.3227000000000001,-54.69273885278232
-0.3217,-53.872206298860604
-0.3207000000000001,-52.86776127595642
-0.3197,-51.86331625305225
-0.3187000000000001,-50.81642989115212
-0.3177,-49.939308885235796
-0.3167000000000001,-49.20365900930597
-0.3157,-48.59533315036401
-0.3147000000000001,-47.987007291422046
-0.3137,-47.32209298048547
-0.3127000000000001,-46.628884443551605
-0.3117,-45.89323456762179
-0.3107000000000001,-45.05855490070142
-0.3097,-44.3229050247716
-0.3087000000000001,-43.57310803584313
-0.3077,-42.79501682091736
-0.3067000000000001,-42.087661170984845
-0.30569999999999997,-41.39445263405098
-0.3047000000000001,-40.701244097117105
-0.30369999999999997,-40.03632978618054
-0.3027000000000001,-39.258238571254765
-0.30169999999999997,-38.46600024333035
-0.3007000000000001,-37.645467689408626
-0.29969999999999997,-36.768346683492304
-0.2987000000000001,-36.03269680756248
-0.29769999999999996,-35.282899818634014
-0.2967000000000001,-34.67457395969205
-0.29569999999999996,-34.06624810075008
-0.2947000000000001,-33.41548090281216
-0.29369999999999996,-32.764713704874254
-0.29270000000000007,-32.05735805494172
-0.29169999999999996,-31.321708179011907
-0.29070000000000007,-30.670940981073993
-0.28969999999999996,-29.96358533114148
-0.28870000000000007,-29.27037679420761
-0.28769999999999996,-28.619609596269694
-0.28670000000000007,-27.869812607341224
-0.28569999999999995,-27.176604070407354
-0.28470000000000006,-26.525836872469437
-0.28369999999999995,-25.86092256153287
-0.28270000000000006,-25.210155363594954
-0.28169999999999995,-24.559388165657033
-0.28070000000000006,-23.86617962872317
-0.27969999999999995,-23.2012653177866
-0.27870000000000006,-22.63538079784059
-0.27769999999999995,-22.027054938898623
-0.27670000000000006,-21.461170418952605
-0.27569999999999995,-20.810403221014692
-0.27470000000000006,-20.202077362072725
-0.27369999999999994,-19.49472171214021
-0.27270000000000005,-18.80151317520634
-0.27169999999999994,-18.10830463827247
-0.27070000000000005,-17.4433903273359
-0.26969999999999994,-16.835064468393938
-0.26870000000000005,-16.269179948447924
-0.26769999999999994,-15.70329542850191
-0.26670000000000005,-15.137410908555893
