Potential V vs RHE, Current mA cm-2
0.013299999999999867,-0.30755823659065895
0.012299999999999978,-1.4854468648582886
0.011299999999999866,-2.618630616050183
0.010299999999999976,-3.579219588658543
0.009299999999999864,-4.494537799671222
0.008299999999999974,-5.367414671687949
0.007299999999999862,-6.196435493408861
0.006299999999999972,-6.893888164242324
0.00529999999999986,-7.591340835075788
0.0042999999999999705,-8.288793505909249
0.0032999999999998586,-8.943804837746763
0.0022999999999999687,-9.511104068992642
0.0012999999999998568,-10.034547249942705
0.00029999999999996696,-10.514134380596953
-0.000700000000000145,-11.037577561547016
-0.0017000000000000348,-11.42945259160963
-0.0027000000000001467,-11.86659838326793
-0.0037000000000000366,-12.302329463626359
-0.0047000000000001485,-12.73806054398479
-0.005700000000000038,-13.043638184755638
-0.00670000000000015,-13.349215825526485
-0.00770000000000004,-13.567081365705702
-0.008700000000000152,-13.784946905884919
-0.009700000000000042,-13.960371107068182
-0.010700000000000154,-14.26028990263957
-0.011700000000000044,-14.61396772760583
-0.012700000000000156,-14.868615761581536
-0.013700000000000045,-15.05252823056399
-0.014700000000000157,-15.179852247551842
-0.015700000000000047,-15.3920589425316
-0.01670000000000016,-15.618412750510005
-0.01770000000000005,-15.70329542850191
-0.01870000000000016,-15.78817810649381
-0.01970000000000005,-16.014531914472215
-0.020700000000000163,-16.311621287443874
-0.021700000000000053,-16.495533756426326
-0.022700000000000164,-16.53797509542228
-0.023700000000000054,-16.53797509542228
-0.024700000000000166,-16.53797509542228
-0.025700000000000056,-16.580416434418233
-0.026700000000000168,-16.665299112410132
-0.027700000000000058,-16.877505807389888
-0.02870000000000017,-17.018976937376394
-0.02970000000000006,-17.018976937376394
-0.03070000000000017,-17.061418276372343
-0.03170000000000006,-17.188742293360193
-0.03270000000000017,-17.2736249713521
-0.03370000000000006,-17.2736249713521
-0.034700000000000175,-17.2736249713521
-0.035700000000000065,-17.4433903273359
-0.03670000000000018,-17.669744135314307
-0.03770000000000007,-17.71218547431026
-0.03870000000000018,-17.627302796318357
-0.03970000000000007,-17.542420118326454
-0.04070000000000018,-17.584861457322408
-0.04170000000000007,-17.584861457322408
-0.04270000000000018,-17.627302796318357
-0.04370000000000007,-17.71218547431026
-0.044700000000000184,-17.75462681330621
-0.045700000000000074,-17.75462681330621
-0.046700000000000186,-17.797068152302163
-0.047700000000000076,-17.881950830294063
-0.04870000000000019,-17.966833508285966
-0.04970000000000008,-17.881950830294063
-0.05070000000000019,-17.881950830294063
-0.05170000000000008,-18.06586329927652
-0.05270000000000019,-18.15074597726842
-0.05370000000000008,-18.10830463827247
-0.05470000000000019,-18.009274847281915
-0.05570000000000008,-17.924392169290012
-0.056700000000000195,-17.924392169290012
-0.057700000000000085,-17.966833508285966
-0.058700000000000196,-18.009274847281915
-0.059700000000000086,-18.06586329927652
-0.0607000000000002,-18.10830463827247
-0.06170000000000009,-18.10830463827247
-0.0627000000000002,-18.10830463827247
-0.06370000000000009,-18.15074597726842
-0.0647000000000002,-18.19318731626437
-0.06570000000000009,-18.23562865526032
-0.0667000000000002,-18.19318731626437
-0.0677000000000001,-18.19318731626437
-0.0687000000000002,-18.15074597726842
-0.0697000000000001,-18.10830463827247
-0.07070000000000021,-18.15074597726842
-0.0717000000000001,-18.19318731626437
-0.07270000000000021,-18.23562865526032
-0.0737000000000001,-18.23562865526032
-0.07470000000000021,-18.15074597726842
-0.0757000000000001,-18.15074597726842
-0.07670000000000021,-18.23562865526032
-0.0777000000000001,-18.27806999425627
-0.07870000000000021,-18.23562865526032
-0.0797000000000001,-18.10830463827247
-0.08070000000000022,-18.10830463827247
-0.0817000000000001,-18.23562865526032
-0.08270000000000022,-18.44783535024008
-0.08370000000000011,-18.49027668923603
-0.08470000000000022,-18.40539401124413
-0.08570000000000011,-18.320511333252224
-0.08670000000000022,-18.23562865526032
-0.08770000000000011,-18.19318731626437
-0.08870000000000022,-18.19318731626437
-0.08970000000000011,-18.23562865526032
-0.09070000000000022,-18.27806999425627
-0.09170000000000011,-18.320511333252224
-0.09270000000000023,-18.320511333252224
-0.09370000000000012,-18.362952672248177
-0.09470000000000023,-18.362952672248177
-0.09570000000000012,-18.320511333252224
-0.09670000000000023,-18.27806999425627
-0.09770000000000012,-18.362952672248177
-0.09870000000000023,-18.49027668923603
-0.09970000000000012,-18.49027668923603
-0.10070000000000023,-18.44783535024008
-0.10170000000000012,-18.362952672248177
-0.10270000000000024,-18.362952672248177
-0.10370000000000013,-18.27806999425627
-0.10470000000000024,-18.23562865526032
-0.10570000000000013,-18.27806999425627
-0.10670000000000024,-18.362952672248177
-0.10770000000000013,-18.40539401124413
-0.10870000000000024,-18.40539401124413
-0.10970000000000013,-18.40539401124413
-0.11070000000000024,-18.44783535024008
-0.11170000000000013,-18.44783535024008
-0.11270000000000002,-18.362952672248177
-0.11370000000000013,-18.40539401124413
-0.11470000000000002,-18.589306480226583
-0.11570000000000014,-18.716630497214435
-0.11670000000000003,-18.631747819222536
-0.11770000000000014,-18.589306480226583
-0.11870000000000003,-18.44783535024008
-0.11970000000000014,-18.362952672248177
-0.12070000000000003,-18.320511333252224
-0.12170000000000014,-18.40539401124413
-0.12270000000000003,-18.53271802823198
-0.12370000000000014,-18.53271802823198
-0.12470000000000003,-18.49027668923603
-0.12570000000000014,-18.53271802823198
-0.12670000000000003,-18.631747819222536
-0.12770000000000015,-18.631747819222536
-0.12870000000000004,-18.589306480226583
-0.12970000000000015,-18.53271802823198
-0.13070000000000004,-18.674189158218486
-0.13170000000000015,-18.843954514202288
-0.13270000000000004,-18.843954514202288
-0.13370000000000015,-18.759071836210385
-0.13470000000000004,-18.631747819222536
-0.13570000000000015,-18.589306480226583
-0.13670000000000004,-18.53271802823198
-0.13770000000000016,-18.631747819222536
-0.13870000000000005,-18.716630497214435
-0.13970000000000016,-18.759071836210385
-0.14070000000000005,-18.759071836210385
-0.14170000000000016,-18.80151317520634
-0.14270000000000005,-18.88639585319824
-0.14370000000000016,-18.92883719219419
-0.14470000000000005,-18.843954514202288
-0.14570000000000016,-18.759071836210385
-0.14670000000000005,-18.843954514202288
-0.14770000000000016,-19.056161209182044
-0.14870000000000005,-19.155191000172596
-0.14970000000000017,-19.112749661176647
-0.15070000000000006,-19.056161209182044
-0.15170000000000017,-18.97127853119014
-0.15270000000000006,-18.88639585319824
-0.15370000000000017,-18.88639585319824
-0.15470000000000006,-18.97127853119014
-0.15570000000000017,-19.056161209182044
-0.15670000000000006,-19.112749661176647
-0.15770000000000017,-19.155191000172596
-0.15870000000000006,-19.197632339168546
-0.15970000000000018,-19.2400736781645
-0.16070000000000007,-19.2400736781645
-0.16170000000000018,-19.2400736781645
-0.16270000000000007,-19.28251501716045
-0.16370000000000018,-19.452280373144255
-0.16470000000000007,-19.579604390132108
-0.16570000000000018,-19.579604390132108
-0.16670000000000007,-19.49472171214021
-0.16770000000000018,-19.49472171214021
-0.16870000000000007,-19.452280373144255
-0.16970000000000018,-19.367397695152352
-0.17070000000000007,-19.452280373144255
-0.17170000000000019,-19.678634181122664
-0.17270000000000008,-19.763516859114564
-0.1737000000000002,-19.721075520118614
-0.17470000000000008,-19.721075520118614
-0.1757000000000002,-19.805958198110513
-0.17670000000000008,-19.890840876102416
-0.1777000000000002,-19.848399537106463
-0.17870000000000008,-19.848399537106463
-0.1797000000000002,-20.01816489309027
-0.18070000000000008,-20.244518701068674
-0.1817000000000002,-20.329401379060574
-0.18270000000000008,-20.286960040064624
-0.1837000000000002,-20.286960040064624
-0.1847000000000001,-20.202077362072725
-0.1857000000000002,-20.10304757108217
-0.1867000000000001,-20.202077362072725
-0.1877000000000002,-20.414284057052477
-0.1887000000000001,-20.499166735044383
-0.1897000000000002,-20.541608074040333
-0.1907000000000001,-20.584049413036283
-0.1917000000000001,-20.76796188201874
-0.19269999999999998,-20.85284456001064
-0.1937000000000001,-20.810403221014692
-0.19469999999999998,-20.810403221014692
-0.1957000000000001,-20.980168576998494
-0.19669999999999999,-21.248963723972853
-0.1977000000000001,-21.376287740960702
-0.1987,-21.418729079956652
-0.1997000000000001,-21.376287740960702
-0.2007,-21.333846401964752
-0.2017000000000001,-21.376287740960702
-0.2027,-21.461170418952605
-0.2037000000000001,-21.58849443594046
-0.2047,-21.772406904922917
-0.2057000000000001,-21.857289582914817
-0.2067,-21.94217226090672
-0.2077000000000001,-22.111937616890522
-0.2087,-22.295850085872978
-0.2097000000000001,-22.33829142486893
-0.2107,-22.295850085872978
-0.2117000000000001,-22.508056780852733
-0.2127,-22.904175944814945
-0.2137000000000001,-23.073941300798747
-0.2147,-23.073941300798747
-0.2157000000000001,-23.073941300798747
-0.2167,-23.15882397879065
-0.21770000000000012,-23.24370665678255
-0.2187,-23.300295108777156
-0.21970000000000012,-23.427619125765005
-0.2207,-23.682267159740714
-0.22170000000000012,-23.908620967719123
-0.2227,-24.035944984706973
-0.22370000000000012,-24.20571034069078
-0.2247,-24.389622809673234
-0.22570000000000012,-24.516946826661083
-0.2267,-24.601829504652986
-0.22770000000000012,-24.771594860636792
-0.22870000000000001,-25.210155363594954
-0.22970000000000013,-25.43650917157336
-0.23070000000000002,-25.521391849565262
-0.23170000000000013,-25.563833188561212
-0.23270000000000002,-25.691157205549064
-0.23370000000000013,-25.81848122253692
-0.23470000000000002,-25.91751101352747
-0.23570000000000013,-26.17215904750318
-0.23670000000000002,-26.568278211465387
-0.2376999999999999,-26.822926245441096
-0.23870000000000002,-26.9643973754276
-0.2396999999999999,-27.134162731411404
-0.24070000000000003,-27.43125210438306
-0.24169999999999991,-27.700047251357418
-0.24270000000000003,-27.78492992934932
-0.24369999999999992,-28.011283737327723
-0.24470000000000003,-28.435697127287238
-0.24569999999999992,-28.8742576302454
-0.24670000000000003,-29.100611438223805
-0.24769999999999992,-29.22793545521166
-0.24870000000000003,-29.35525947219951
-0.24969999999999992,-29.482583489187363
-0.25070000000000003,-29.62405461917387
-0.2516999999999999,-30.00602667013743
-0.25270000000000004,-30.487028512091538
-0.2536999999999999,-30.8407063370578
-0.25470000000000004,-31.010471693041605
-0.2556999999999999,-31.321708179011907
-0.25670000000000004,-31.717827342974125
-0.25769999999999993,-32.05735805494172
-0.25870000000000004,-32.184682071929586
-0.25969999999999993,-32.368594540912035
-0.26070000000000004,-32.93447906085806
-0.26169999999999993,-33.58524625879597
-0.26270000000000004,-34.02380676175414
-0.26369999999999993,-34.236013456733886
-0.26470000000000005,-34.377484586720385
-0.26569999999999994,-34.50480860370825
-0.26670000000000005,-34.75945663768395
-0.26769999999999994,-35.15557580164616
-0.26870000000000005,-35.636577643600276
-0.26969999999999994,-36.11757948555439
-0.27070000000000005,-36.5136986495166
-0.27169999999999994,-36.89567070048016
-0.27270000000000005,-37.376672542434264
-0.27369999999999994,-37.85767438438838
-0.27470000000000006,-38.08402819236679
-0.27569999999999995,-38.38111756533845
-0.27670000000000006,-39.046031876275016
-0.27769999999999995,-39.739240413208876
-0.27870000000000006,-40.220242255162994
-0.27969999999999995,-40.3900076111468
-0.28070000000000006,-40.616361419125205
-0.28169999999999995,-40.95589213109281
-0.28270000000000006,-41.352011295055014
-0.28369999999999995,-41.79057179801318
-0.28470000000000006,-42.3564563179592
-0.28569999999999995,-43.007223515897124
-0.28670000000000007,-43.48822535785123
-0.28769999999999996,-43.88434452181344
-0.28870000000000007,-44.4077877027635
-0.28969999999999996,-44.93123088371356
-0.29070000000000007,-45.32735004767578
-0.29169999999999996,-45.85079322862584
-0.29270000000000007,-46.628884443551605
-0.29369999999999996,-47.32209298048547
-0.2947000000000001,-47.76065348344364
-0.29569999999999996,-48.029448630417996
-0.2967000000000001,-48.32653800338966
-0.29769999999999996,-48.76509850634781
-0.2987000000000001,-49.28854168729788
-0.29969999999999997,-49.939308885235796
-0.3007000000000001,-50.68910587416426
-0.30169999999999997,-51.424755750094086
-0.3027000000000001,-51.90575759204819
-0.30369999999999997,-52.30187675601041
-0.3047000000000001,-52.91020261495237
-0.30569999999999997,-53.56096981289029
-0.3067000000000001,-54.31076680181876
-0.3077,-54.876651321764776
-0.3087000000000001,-55.31521182472294
-0.3097,-55.838655005673
-0.3107000000000001,-56.489422203610914
-0.3117,-57.14018940154883
-0.3127000000000001,-57.87583927747865
-0.3137,-58.54075358841522
-0.3147000000000001,-58.97931409137338
-0.3157,-59.44616882032884
-0.3167000000000001,-60.19596580925731
-0.3177,-60.974057024183075
-0.3187000000000001,-61.5965299961237
-0.3197,-62.24729719406162
-0.3207000000000001,-62.98294706999144
-0.3217,-63.633714267929356
-0.3227000000000001,-64.19959878787537
-0.3237,-64.72304196882543
-0.3247000000000001,-65.3030736017701
-0.3257,-65.99628213870396
-0.3267000000000001,-66.87340314462028
-0.3277,-67.693935698542
-0.3287000000000001,-68.38714423547587
-0.3297,-69.05205854641244
-0.3307000000000001,-69.61794306635846
-0.3317,-70.18382758630447
-0.3327000000000001,-71.0043601402262
-0.3337,-72.05124650212633
-0.3347000000000001,-72.84348483005074
-0.3357,-73.3669280110008
-0.3367000000000001,-73.89037119195086
-0.3377,-74.54113838988879
-0.3387000000000001,-75.29093537881725
-0.3397,-76.02658525474708
-0.3407000000000001,-76.71979379168094
-0.3417,-77.55447345860131
-0.3427000000000001,-78.33256467352709
-0.3437,-79.0399203234596
-0.3447000000000001,-79.7755701993894
-0.3457,-80.56780852731384
-0.3467000000000001,-81.30345840324367
-0.3477,-81.91178426218562
-0.3487000000000001,-82.70402259011003
-0.3497,-83.92067430799398
-0.3507000000000001,-85.052443347886
-0.3517,-85.75979899781852
-0.3527000000000001,-86.18421238777805
-0.3537,-86.41056619575643
-0.3547000000000001,-86.84912669871461
-0.3557,-87.79698326962418
-0.35670000000000013,-89.02778210050676
-0.3577,-90.20199247939475
-0.35870000000000013,-91.03667214631511
-0.3597,-91.64499800525708
-0.36070000000000013,-92.29576520319499
-0.3617,-93.17288620911131
-0.3626999999999999,-94.26221391000739
-0.3637,-95.22421759391563
-0.3646999999999999,-95.87498479185354
-0.3657,-96.3984279728036
-0.3666999999999999,-96.96431249274961
-0.3677,-97.69996236867944
-0.3686999999999999,-98.74684873057957
-0.36970000000000003,-99.75129375348374
-0.3706999999999999,-100.58597342040412
-0.37170000000000003,-101.50553576531638
-0.3726999999999999,-102.36850965823406
-0.37370000000000003,-103.16074798615847
-0.3746999999999999,-103.81151518409638
-0.37570000000000003,-104.3773997040424
-0.3766999999999999,-105.33940338795064
-0.37770000000000004,-106.64093778382647
-0.3786999999999999,-107.8292952757131
-0.37970000000000004,-108.77715184662266
-0.3806999999999999,-109.52694883555114
-0.38170000000000004,-110.05039201650122
-0.38269999999999993,-110.57383519745127
-0.38370000000000004,-111.3094850733811
-0.38469999999999993,-112.27148875728932
-0.38570000000000004,-113.23349244119754
-0.38669999999999993,-113.31837511918944
-0.38570000000000004,-111.83292825433115
-0.38469999999999993,-110.57383519745127
-0.38370000000000004,-109.25815368857677
-0.38269999999999993,-107.914177953705
-0.38170000000000004,-106.64093778382647
-0.3806999999999999,-105.42428606594254
-0.37970000000000004,-104.81596020700057
-0.3786999999999999,-104.46228238203432
-0.37770000000000004,-103.64174982811258
-0.3766999999999999,-102.28362698024215
-0.37570000000000003,-100.75573877638791
-0.3746999999999999,-99.18540923353773
-0.37370000000000003,-98.01119885464975
-0.3726999999999999,-97.40287299570777
-0.37170000000000003,-97.00675383174556
-0.3706999999999999,-96.35598663380765
-0.36970000000000003,-95.26665893291157
-0.3686999999999999,-94.21977257101145
-0.3677,-93.38509290409107
-0.3666999999999999,-92.4655305591788
-0.3657,-91.51767398826922
-0.3646999999999999,-90.93764235532454
-0.3637,-90.32931649638259
-0.3626999999999999,-89.36731281247435
-0.3617,-88.19310243358639
-0.36070000000000013,-86.97645071570246
-0.3597,-85.97200569279828
-0.35870000000000013,-85.09488468688197
-0.3577,-84.27435213296022
-0.35670000000000013,-83.56699648302772
-0.3557,-82.78890526810196
-0.3547000000000001,-81.91178426218562
-0.3537,-81.3458997422396
-0.3527000000000001,-80.82245656128954
-0.3517,-79.86045287738132
-0.3507000000000001,-78.55891848150549
-0.3497,-77.20079563363505
-0.3487000000000001,-76.11146793273898
-0.3477,-75.6729074297808
-0.3467000000000001,-75.4182593958051
-0.3457,-74.8523748758591
-0.3447000000000001,-74.0176952089387
-0.3437,-73.01325018603454
-0.3427000000000001,-72.00880516313036
-0.3417,-71.06094859222078
-0.3407000000000001,-70.05650356931662
-0.3397,-69.0096172074165
-0.3387000000000001,-68.44373268747047
-0.3377,-68.04761352350828
-0.3367000000000001,-67.43928766456631
-0.3357,-66.64704933664189
-0.3347000000000001,-65.68504565273366
-0.3337,-64.55327661284163
-0.3327000000000001,-63.46394891194555
-0.3317,-62.64341635802381
-0.3307000000000001,-62.02094338608321
-0.3297,-61.37017618814529
-0.3287000000000001,-60.63452631221547
-0.3277,-59.92717066228296
-0.3267000000000001,-59.31884480334099
-0.3257,-58.583194927411164
-0.3247000000000001,-57.57874990450699
-0.3237,-56.53186354260687
-0.3227000000000001,-55.838655005673
-0.3217,-55.484977180706736
-0.3207000000000001,-54.961533999756675
-0.3197,-54.08441299384035
-0.3187000000000001,-53.03752663194023
-0.3177,-51.990640270040096
-0.3167000000000001,-51.071077925127824
-0.3157,-50.29298671020206
-0.3147000000000001,-49.76954352925199
-0.3137,-49.24610034830193
-0.3127000000000001,-48.51045047237211
-0.3117,-47.67577080545174
-0.3107000000000001,-47.02500360751382
-0.3097,-46.37423640957591
-0.3087000000000001,-45.497115403659585
-0.3077,-44.74731841473111
-0.3067000000000001,-44.3229050247716
-0.30569999999999997,-43.75702050482558
-0.3047000000000001,-42.92234083790521
-0.30369999999999997,-41.91789581500104
-0.3027000000000001,-41.083216148080666
-0.30169999999999997,-40.4748902891387
-0.3007000000000001,-39.78168175220483
-0.29969999999999997,-39.08847321527096
-0.2987000000000001,-38.46600024333035
-0.29769999999999996,-37.85767438438838
-0.2967000000000001,-37.164465847454515
-0.29569999999999996,-36.5136986495166
-0.2947000000000001,-35.90537279057463
-0.29369999999999996,-35.32534115762997
-0.29270000000000007,-34.50480860370825
-0.29169999999999996,-33.670128936787876
-0.29070000000000007,-32.97692039985401
-0.28969999999999996,-32.41103587990799
-0.28870000000000007,-31.802710020966025
-0.28769999999999996,-31.23682550102001
-0.28670000000000007,-30.614352529079397
-0.28569999999999995,-29.96358533114148
-0.28470000000000006,-29.27037679420761
-0.28369999999999995,-28.53472691827779
-0.28270000000000006,-27.912253946337174
-0.28169999999999995,-27.487840556377662
-0.28070000000000006,-26.907808923433
-0.27969999999999995,-26.21460038649913
-0.27870000000000006,-25.478950510569312
-0.27769999999999995,-24.771594860636792
-0.27670000000000006,-24.20571034069078
-0.27569999999999995,-23.682267159740714
-0.27470000000000006,-23.1163826397947
-0.27369999999999994,-22.550498119848687
-0.27270000000000005,-21.94217226090672
-0.27169999999999994,-21.333846401964752
-0.27070000000000005,-20.76796188201874
-0.26969999999999994,-20.244518701068674
-0.26870000000000005,-19.636192842126707
-0.26769999999999994,-18.97127853119014
-0.26670000000000005,-18.44783535024008
