Potential V vs RHE, Current mA cm-2
0.013299999999999867,-0.404748902891387
0.012299999999999978,-1.5377911829532949
0.011299999999999866,-2.4318887244679983
0.010299999999999976,-3.0982177467044303
0.009299999999999864,-3.690981781347881
0.008299999999999974,-4.150762953804017
0.007299999999999862,-4.486049531872031
0.006299999999999972,-4.815677264740584
0.00529999999999986,-5.026469248420476
0.0042999999999999705,-5.2514083450990166
0.0032999999999998586,-5.449467927080121
0.0022999999999999687,-5.530106471172428
0.0012999999999998568,-5.675821735058527
0.00029999999999996696,-5.742313166152184
-0.000700000000000145,-5.866807760540307
-0.0017000000000000348,-5.897931409137338
-0.0027000000000001467,-5.951690438532209
-0.0037000000000000366,-6.005449467927082
-0.0047000000000001485,-6.018181869625866
-0.005700000000000038,-6.097405702418309
-0.00670000000000015,-6.094576279818578
-0.00770000000000004,-6.110138104117093
-0.008700000000000152,-6.149750020513314
-0.009700000000000042,-6.139847041414258
-0.010700000000000154,-6.197850204708726
-0.011700000000000044,-6.226144430706027
-0.012700000000000156,-6.178044246510615
-0.013700000000000045,-6.226144430706027
-0.014700000000000157,-6.196435493408861
-0.015700000000000047,-6.238876832404812
-0.01670000000000016,-6.272829903601573
-0.01770000000000005,-6.231803275905486
-0.01870000000000016,-6.244535677604272
-0.01970000000000005,-6.238876832404812
-0.020700000000000163,-6.253023945403462
-0.021700000000000053,-6.292635861799683
-0.022700000000000164,-6.279903460100898
-0.023700000000000054,-6.254438656703328
-0.024700000000000166,-6.262926924502518
-0.025700000000000056,-6.253023945403462
-0.026700000000000168,-6.281318171400763
-0.027700000000000058,-6.312441819997794
-0.02870000000000017,-6.260097501902788
-0.02970000000000006,-6.279903460100898
-0.03070000000000017,-6.271415192301707
-0.03170000000000006,-6.285562305300359
-0.03270000000000017,-6.31385653129766
-0.03370000000000006,-6.260097501902788
-0.034700000000000175,-6.289806439199953
-0.035700000000000065,-6.303953552198603
-0.03670000000000018,-6.270000481001842
-0.03770000000000007,-6.294050573099549
-0.03870000000000018,-6.296879995699278
-0.03970000000000007,-6.281318171400763
-0.04070000000000018,-6.3081976860981985
-0.04170000000000007,-6.274244614901438
-0.04270000000000018,-6.291221150499819
-0.04370000000000007,-6.311027108697928
-0.044700000000000184,-6.260097501902788
-0.045700000000000074,-6.323759510396714
-0.046700000000000186,-6.306782974798334
-0.047700000000000076,-6.277074037501167
-0.04870000000000019,-6.306782974798334
-0.04970000000000008,-6.265756347102247
-0.05070000000000019,-6.326588932996443
-0.05170000000000008,-6.322344799096849
-0.05270000000000019,-6.264341635802381
-0.05370000000000008,-6.311027108697928
-0.05470000000000019,-6.2756593262013025
-0.05570000000000008,-6.306782974798334
-0.056700000000000195,-6.342150757294959
-0.057700000000000085,-6.285562305300359
-0.058700000000000196,-6.306782974798334
-0.059700000000000086,-6.281318171400763
-0.0607000000000002,-6.296879995699278
-0.06170000000000009,-6.332247778195904
-0.0627000000000002,-6.3407360459950945
-0.06370000000000009,-6.299709418299008
-0.0647000000000002,-6.312441819997794
-0.06570000000000009,-6.303953552198603
-0.0667000000000002,-6.32517422169658
-0.0677000000000001,-6.35063902509415
-0.0687000000000002,-6.286977016600223
-0.0697000000000001,-6.31951537649712
-0.07070000000000021,-6.3152712425975235
-0.0717000000000001,-6.332247778195904
-0.07270000000000021,-6.329418355596174
-0.0737000000000001,-6.311027108697928
-0.07470000000000021,-6.335077200795634
-0.0757000000000001,-6.31951537649712
-0.07670000000000021,-6.35063902509415
-0.0777000000000001,-6.312441819997794
-0.07870000000000021,-6.3534684476938805
-0.0797000000000001,-6.336491912095499
-0.08070000000000022,-6.32517422169658
-0.0817000000000001,-6.374689117191855
-0.08270000000000022,-6.34780960249442
-0.08370000000000011,-6.35629787029361
-0.08470000000000022,-6.335077200795634
-0.08570000000000011,-6.352053736394015
-0.08670000000000022,-6.384592096290911
-0.08770000000000011,-6.393080364090101
-0.08870000000000022,-6.342150757294959
-0.08970000000000011,-6.371859694592125
-0.09070000000000022,-6.3647861380928
-0.09170000000000011,-6.391665652790236
-0.09270000000000023,-6.418545167487672
-0.09370000000000012,-6.360542004193205
-0.09470000000000023,-6.414301033588076
-0.09570000000000012,-6.39025094149037
-0.09670000000000023,-6.402983343189156
-0.09770000000000012,-6.414301033588076
-0.09870000000000023,-6.410056899688482
-0.09970000000000012,-6.436936414385917
-0.10070000000000023,-6.431277569186457
-0.10170000000000012,-6.410056899688482
-0.10270000000000024,-6.465230640383218
-0.10370000000000013,-6.455327661284162
-0.10470000000000024,-6.451083527384568
-0.10570000000000013,-6.500598422879844
-0.10670000000000024,-6.421374590087401
-0.10770000000000013,-6.503427845479574
-0.10870000000000024,-6.475133619482273
-0.10970000000000013,-6.496354288980249
-0.11070000000000024,-6.545869184475525
-0.11170000000000013,-6.4793777533818675
-0.11270000000000002,-6.527477937577279
-0.11370000000000013,-6.511916113278764
-0.11470000000000002,-6.540210339276065
-0.11570000000000014,-6.6095311929694525
-0.11670000000000003,-6.5317220714768744
-0.11770000000000014,-6.591139946071206
-0.11870000000000003,-6.578407544372421
-0.11970000000000014,-6.591139946071206
-0.12070000000000003,-6.661875511064458
-0.12170000000000014,-6.574163410472826
-0.12270000000000003,-6.630751862467427
-0.12370000000000014,-6.6364107076668875
-0.12470000000000003,-6.6491431093656725
-0.12570000000000014,-6.7085609839600036
-0.12670000000000003,-6.657631377164862
-0.12770000000000015,-6.719878674358924
-0.12870000000000004,-6.694413870961354
-0.12970000000000015,-6.738269921257169
-0.13070000000000004,-6.780711260253121
-0.13170000000000015,-6.7410993438569
-0.13270000000000004,-6.810420197550286
-0.13370000000000015,-6.770808281154065
-0.13470000000000004,-6.834470289647991
-0.13570000000000015,-6.872667494744348
-0.13670000000000004,-6.813249620150017
-0.13770000000000016,-6.893888164242324
-0.13870000000000005,-6.882570473843404
-0.13970000000000016,-6.940573637137869
-0.14070000000000005,-6.970282574435036
-0.14170000000000016,-6.923597101539489
-0.14270000000000005,-7.016968047330582
-0.14370000000000016,-7.008479779531392
-0.14470000000000005,-7.009894490831256
-0.14570000000000016,-7.097606591422889
-0.14670000000000005,-7.0891183236236985
-0.14770000000000016,-7.132974373919516
-0.14870000000000005,-7.174001001615601
-0.14970000000000017,-7.154195043417491
-0.15070000000000006,-7.241907144009123
-0.15170000000000017,-7.232004164910067
-0.15270000000000006,-7.258883679607503
-0.15370000000000017,-7.35649875929819
-0.15470000000000006,-7.331033955900621
-0.15570000000000017,-7.374890006196437
-0.15670000000000006,-7.396110675694412
-0.15770000000000017,-7.439966725990228
-0.15870000000000006,-7.5474847847799715
-0.15970000000000018,-7.520605270082535
-0.16070000000000007,-7.560217186478756
-0.16170000000000018,-7.616805638473357
-0.16270000000000007,-7.655002843569713
-0.16370000000000018,-7.721494274663371
-0.16470000000000007,-7.749788500660671
-0.16570000000000018,-7.837500601252304
-0.16670000000000007,-7.855891848150549
-0.16770000000000018,-7.92096856794434
-0.16870000000000007,-7.945018660042045
-0.16970000000000018,-8.010095379835839
-0.17070000000000007,-8.08648979002855
-0.17170000000000019,-8.089319212628281
-0.17270000000000008,-8.240693321713838
-0.1737000000000002,-8.233619765214515
-0.17470000000000008,-8.298696485008303
-0.1757000000000002,-8.362358493502233
-0.17670000000000008,-8.404799832498183
-0.1777000000000002,-8.557588652883606
-0.17870000000000008,-8.584468167581042
-0.1797000000000002,-8.601444703179425
-0.18070000000000008,-8.735842276666602
-0.1817000000000002,-8.742915833165926
-0.18270000000000008,-8.931072436047977
-0.1837000000000002,-8.942390126446897
-0.1847000000000001,-9.013125691440148
-0.1857000000000002,-9.15459682142665
-0.1867000000000001,-9.148937976227192
-0.1877000000000002,-9.375291784205599
-0.1887000000000001,-9.393683031103844
-0.1897000000000002,-9.494127533394261
-0.1907000000000001,-9.618622127782384
-0.1917000000000001,-9.639842797280359
-0.19269999999999998,-9.849220069660385
-0.1937000000000001,-9.945420438051208
-0.19469999999999998,-9.958152839749992
-0.1957000000000001,-10.154797710431232
-0.19669999999999999,-10.195824338127318
-0.1977000000000001,-10.402372187907615
-0.1987,-10.541013895294387
-0.1997000000000001,-10.538184472694656
-0.2007,-10.780100104971579
-0.2017000000000001,-10.860738649063887
-0.2027,-11.029089293747825
-0.2037000000000001,-11.166316289834736
-0.2047,-11.276663771224207
-0.2057000000000001,-11.487455754904099
-0.2067,-11.58082670069519
-0.2077000000000001,-11.78030099397616
-0.2087,-11.884989630166173
-0.2097000000000001,-12.10285517034539
-0.2107,-12.252814568131082
-0.2117000000000001,-12.445215304912727
-0.2127,-12.578198167100041
-0.2137000000000001,-12.772013615181551
-0.2147,-12.950267238964546
-0.2157000000000001,-13.161059222644436
-0.2167,-13.434098503518388
-0.21770000000000012,-13.550104830107323
-0.2187,-13.775043926785862
-0.21970000000000012,-13.943394571469803
-0.2207,-14.203701450644967
-0.22170000000000012,-14.430055258623375
-0.2227,-14.57152638860988
-0.22370000000000012,-14.826174422585586
-0.2247,-15.03838111756534
-0.22570000000000012,-15.321323377538347
-0.2267,-15.604265637511356
-0.22770000000000012,-15.74573676749786
-0.22870000000000001,-16.099414592464115
-0.22970000000000013,-16.24088572245062
-0.23070000000000002,-16.637004886412832
-0.23170000000000013,-16.820917355395284
-0.23270000000000002,-17.061418276372343
-0.23370000000000013,-17.40094898833995
-0.23470000000000002,-17.599008570321057
-0.23570000000000013,-18.009274847281915
-0.23670000000000002,-18.306364220253574
-0.2376999999999999,-18.518570915233333
-0.23870000000000002,-18.872248740199588
-0.2396999999999999,-19.112749661176647
-0.24070000000000003,-19.537163051136158
-0.24169999999999991,-19.890840876102416
-0.24270000000000003,-20.159636023076775
-0.24369999999999992,-20.47087250904708
-0.24470000000000003,-20.810403221014692
-0.24569999999999992,-21.16408104598095
-0.24670000000000003,-21.659230000933714
-0.24769999999999992,-21.99876071290132
-0.24870000000000003,-22.210967407881075
-0.24969999999999992,-22.67782213683654
-0.25070000000000003,-23.059794187800097
-0.2516999999999999,-23.526648916755562
-0.25270000000000004,-23.852032515724517
-0.2536999999999999,-24.21985745368943
-0.25470000000000004,-24.67256506964624
-0.2556999999999999,-24.997948668615198
-0.25670000000000004,-25.592127414558515
-0.25769999999999993,-25.90336390052882
-0.25870000000000004,-26.356071516485635
-0.25969999999999993,-26.738043567449193
-0.26070000000000004,-27.14830984441005
-0.26169999999999993,-27.813224155346617
-0.26270000000000004,-28.19519620631018
-0.26369999999999993,-28.56302114427509
-0.26470000000000005,-29.100611438223805
-0.26569999999999994,-29.454289263190066
-0.26670000000000005,-30.21823336511718
-0.26769999999999994,-30.656793868075347
-0.26870000000000005,-30.953883241047
-0.26969999999999994,-31.604650438984915
-0.27070000000000005,-31.986622489948477
-0.27169999999999994,-32.693978139881004
-0.27270000000000005,-33.01936173884996
-0.27369999999999994,-33.55695203279867
-0.27470000000000006,-34.193572117737936
-0.27569999999999995,-34.702868185689354
-0.27670000000000006,-35.169722914644815
-0.27769999999999995,-35.79219588658543
-0.27870000000000006,-36.41466885852605
-0.27969999999999995,-36.83908224848555
-0.28070000000000006,-37.617173463411326
-0.28169999999999995,-37.92840994938163
-0.28270000000000006,-38.692354051308754
-0.28369999999999995,-39.20165011926017
-0.28470000000000006,-39.82412309120078
-0.28569999999999995,-40.51733162813464
-0.28670000000000007,-40.87100945310091
-0.28769999999999996,-41.66324778102533
-0.28870000000000007,-42.087661170984845
-0.28969999999999996,-42.87989949890926
-0.29070000000000007,-43.61554937483908
-0.29169999999999996,-43.92678586080939
-0.29270000000000007,-44.83220109272301
-0.29369999999999996,-45.29905582167847
-0.2947000000000001,-46.119588375600195
-0.29569999999999996,-46.60059021755431
-0.2967000000000001,-47.26550452849088
-0.29769999999999996,-48.057742856415295
-0.2987000000000001,-48.581186037365356
-0.29969999999999997,-49.514895495276285
-0.3007000000000001,-49.86857332024254
-0.30169999999999997,-50.80228277815347
-0.3027000000000001,-51.29743173310623
-0.30369999999999997,-51.948198931044146
-0.3047000000000001,-53.094115083934824
-0.30569999999999997,-53.419498682903786
-0.3067000000000001,-54.1268543328363
-0.3077,-54.791768643772876
-0.3087000000000001,-55.484977180706736
-0.3097,-56.57430488160282
-0.3107000000000001,-57.23921919253939
-0.3117,-57.550455678509685
-0.3127000000000001,-58.569047814412514
-0.3137,-59.09249099536258
-0.3147000000000001,-60.06864179226946
-0.3157,-61.11552815416958
-0.3167000000000001,-61.228705058158795
-0.3177,-62.30388564605621
-0.3187000000000001,-62.74244614901438
-0.3197,-63.64786138092801
-0.3207000000000001,-64.80792464681733
-0.3217,-65.3596620537647
-0.3227000000000001,-65.91139946071206
-0.3237,-66.71778490163513
-0.3247000000000001,-67.43928766456631
-0.3257,-68.69838072144618
-0.3267000000000001,-69.46232482337331
-0.3277,-69.6603844053544
-0.3287000000000001,-70.82044767124374
-0.3297,-71.28730240019921
-0.3307000000000001,-72.67371947406694
-0.3317,-73.12642709002374
-0.3327000000000001,-73.81963562695762
-0.3337,-74.9089633278537
-0.3347000000000001,-75.2484940398213
-0.3357,-76.80467646967284
-0.3367000000000001,-76.91785337366204
-0.3377,-78.20524065653922
-0.3387000000000001,-78.79941940248254
-0.3397,-79.42189237442317
-0.3407000000000001,-81.03466325626928
-0.3417,-80.9780748042747
-0.3427000000000001,-82.22302074815593
-0.3437,-82.9162292850898
-0.3447000000000001,-83.60943782202366
-0.3457,-85.33538560785901
-0.3467000000000001,-85.10903179988061
-0.3477,-86.41056619575643
-0.3487000000000001,-87.06133339369435
-0.3497,-87.74039481762958
-0.3507000000000001,-89.33901858647707
-0.3517,-89.87660888042578
-0.3527000000000001,-90.54152319136236
-0.3537,-91.36205574528407
-0.3547000000000001,-92.04111716921928
-0.3557,-93.39924001708972
-0.35670000000000013,-94.4885677179858
-0.3577,-94.4319792659912
-0.35870000000000013,-95.84669056585624
-0.3597,-96.20036839082249
-0.36070000000000013,-97.50190278669832
-0.3617,-98.83173140857146
-0.3626999999999999,-98.647818939589
-0.3637,-100.2464427084365
-0.3646999999999999,-100.88306279337576
-0.3657,-101.78847802528938
-0.3666999999999999,-102.63730480520842
-0.3677,-103.47198447212878
-0.3686999999999999,-104.63204773801812
-0.36970000000000003,-105.16963803196683
-0.3706999999999999,-106.4287310888467
-0.37170000000000003,-106.68337912282242
-0.3726999999999999,-108.2537086656726
-0.37370000000000003,-108.55079803864427
-0.3746999999999999,-110.1352746944931
-0.37570000000000003,-110.53139385845533
-0.3766999999999999,-111.21045528239053
-0.37770000000000004,-112.3563714352812
-0.3786999999999999,-112.72419637324612
-0.37970000000000004,-114.64820374106257
-0.3806999999999999,-114.98773445303017
-0.38170000000000004,-116.04876792792896
-0.38269999999999993,-116.84100625585339
-0.38370000000000004,-117.44933211479534
-0.38469999999999993,-119.00551454464687
-0.38570000000000004,-118.99136743164823
-0.38669999999999993,-119.1469856746334
-0.38570000000000004,-117.53421479278724
-0.38469999999999993,-116.13365060592085
-0.38370000000000004,-115.99217947593435
-0.38269999999999993,-114.0681721081179
-0.38170000000000004,-113.41740491017998
-0.3806999999999999,-111.96025227131899
-0.37970000000000004,-111.01239570040943
-0.3786999999999999,-110.82848323142699
-0.37770000000000004,-109.07424121959433
-0.3766999999999999,-107.78685393671715
-0.37570000000000003,-107.20682230377247
-0.3746999999999999,-106.13164171587505
-0.37370000000000003,-106.01846481188585
-0.3726999999999999,-104.1793401220613
-0.37170000000000003,-103.51442581112472
-0.3706999999999999,-102.3826567712327
-0.36970000000000003,-101.18015216634743
-0.3686999999999999,-100.85476856737846
-0.3677,-99.02979099055257
-0.3666999999999999,-98.7044073915836
-0.3657,-97.11993073573475
-0.3646999999999999,-96.3701337468063
-0.3637,-96.07304437383463
-0.3626999999999999,-94.10659566702225
-0.3617,-93.68218227706274
-0.36070000000000013,-92.25332386419905
-0.3597,-91.67329223125436
-0.35870000000000013,-91.29132018029082
-0.3577,-89.19754745649055
-0.35670000000000013,-88.94289942251486
-0.3557,-87.72624770463094
-0.3547000000000001,-87.14621607168625
-0.3537,-86.14177104878208
-0.3527000000000001,-84.86853087890354
-0.3517,-84.37338192395079
-0.3507000000000001,-82.9162292850898
-0.3497,-82.67572836411274
-0.3487000000000001,-81.50151798522475
-0.3477,-80.58195564031249
-0.3467000000000001,-79.84630576438266
-0.3457,-78.65794827249603
-0.3447000000000001,-78.19109354354057
-0.3437,-77.62520902359456
-0.3427000000000001,-75.98414391575112
-0.3417,-75.47484784779972
-0.3407000000000001,-74.35722592090633
-0.3397,-73.66401738397246
-0.3387000000000001,-73.43766357599405
-0.3377,-71.89562825914116
-0.3367000000000001,-71.24486106120324
-0.3357,-70.24041603829907
-0.3347000000000001,-69.44817771037465
-0.3337,-68.85399896443133
-0.3327000000000001,-68.25982021848802
-0.3317,-66.80266757962703
-0.3307000000000001,-66.29337151167562
-0.3297,-65.16160247178358
-0.3287000000000001,-64.56742372584027
-0.3277,-64.28448146586726
-0.3267000000000001,-62.841475940004926
-0.3257,-62.233150081062966
-0.3247000000000001,-61.18626371916283
-0.3237,-60.50720229522762
-0.3227000000000001,-60.21011292225596
-0.3217,-59.09249099536258
-0.3207000000000001,-58.07389885945976
-0.3197,-57.408984548523186
-0.3187000000000001,-56.475275090612264
-0.3177,-56.164038604641945
-0.3167000000000001,-55.15959358173778
-0.3157,-54.18344278483091
-0.3147000000000001,-53.63170537788354
-0.3137,-52.88190838895507
-0.3127000000000001,-52.033081609036046
-0.3117,-51.424755750094086
-0.3107000000000001,-50.63251742216966
-0.3097,-49.95345599823444
-0.3087000000000001,-49.18951189630732
-0.3077,-48.66606871535726
-0.3067000000000001,-47.67577080545174
-0.30569999999999997,-47.20891607649628
-0.3047000000000001,-46.3176479575813
-0.30369999999999997,-45.78005766363259
-0.3027000000000001,-45.22832025668522
-0.30169999999999997,-44.054109877797245
-0.3007000000000001,-43.629696487837734
-0.29969999999999997,-42.80916393391601
-0.2987000000000001,-42.243279413969994
-0.29769999999999996,-41.53592376403748
-0.2967000000000001,-40.75783254911171
-0.29569999999999996,-40.177800916167044
-0.2947000000000001,-39.35726836224533
-0.29369999999999996,-38.791383842299304
-0.29270000000000007,-38.43770601733305
-0.29169999999999996,-37.44740810742752
-0.29070000000000007,-36.89567070048016
-0.28969999999999996,-36.10343237255574
-0.28870000000000007,-35.608283417602976
-0.28769999999999996,-35.367782496625914
-0.28670000000000007,-34.207719230736586
-0.28569999999999995,-33.755011614779775
-0.28470000000000006,-33.00521462585131
-0.28369999999999995,-32.41103587990799
-0.28270000000000006,-32.09979939393769
-0.28169999999999995,-31.20853127502271
-0.28070000000000006,-30.699235207071297
-0.27969999999999995,-30.06261512213203
-0.27870000000000006,-29.34111235920086
-0.27769999999999995,-29.114758551222454
-0.27670000000000006,-28.22349043230748
-0.27569999999999995,-27.78492992934932
-0.27470000000000006,-27.1058685054141
-0.27369999999999994,-26.511689759470787
-0.27270000000000005,-26.21460038649913
-0.27169999999999994,-25.45065628457201
-0.27070000000000005,-25.012095781613848
-0.26969999999999994,-24.40376992267188
-0.26870000000000005,-23.83788540272587
-0.26769999999999994,-23.44176623876366
-0.26670000000000005,-22.87588171881764
-0.26569999999999994,-22.225114520879725
-0.26470000000000005,-21.828995356917517
