Sept. 29, 2024   03:54:33
Cyclic Voltammetry
File: c:/users/guazh/data/20240922_batch_417_500/2024-09-22-exp478\exp478-2024-09-29t03_29_45-h2koh\exp478_cv_sr_200mvs_efin_-2000mv.bin
Data Source:  Experiment
Instrument Model:  CHI760E
Header: CV ran at 200 mVs
Note: 

Init E (V) = -1
High E (V) = -1
Low E (V) = -2
Final E (V) = -1
Init P/N = N
Scan Rate (V/s) = 0.2
Segment = 3
Sample Interval (V) = 0.001
Quiet Time (sec) = 2
Sensitivity (A/V) = 0.01
Comp R (ohm) = 3.1

Results:

Channel 1:
Segment 1:

Segment 2:

Segment 3:

Potential/V, Current/A

-1.000, -8.307e-7
-1.001, -9.984e-7
-1.002, -9.491e-7
-1.003, -7.715e-7
-1.004, -9.195e-7
-1.005, -5.347e-7
-1.006, -6.334e-7
-1.007, -8.011e-7
-1.008, -6.235e-7
-1.009, -8.504e-7
-1.010, -5.446e-7
-1.011, -4.953e-7
-1.012, -3.966e-7
-1.013, -4.657e-7
-1.014, -4.854e-7
-1.015, -6.235e-7
-1.016, -6.038e-7
-1.017, -5.643e-7
-1.018, -2.585e-7
-1.019, -6.235e-7
-1.020, -1.302e-7
-1.021, -4.163e-7
-1.022, -3.867e-7
-1.023, -5.643e-7
-1.024, -4.953e-7
-1.025, -2.190e-7
-1.026, -2.388e-7
-1.027, -3.157e-8
-1.028, -3.157e-8
-1.029, -4.755e-7
-1.030, -1.105e-7
-1.031, -1.993e-7
-1.032, -1.894e-7
-1.033, -1.401e-7
-1.034, -2.486e-7
-1.035, 2.052e-7
-1.036, -1.697e-7
-1.037, -1.006e-7
-1.038, 3.749e-8
-1.039, -6.117e-8
-1.040, -1.006e-7
-1.041, -5.130e-8
-1.042, -1.401e-7
-1.043, -1.184e-8
-1.044, 6.709e-8
-1.045, -2.171e-8
-1.046, -9.077e-8
-1.047, 1.164e-7
-1.048, 2.545e-7
-1.049, -1.184e-8
-1.050, 3.631e-7
-1.051, 7.893e-9
-1.052, -1.184e-8
-1.053, 5.722e-8
-1.054, 6.709e-8
-1.055, 2.940e-7
-1.056, 2.249e-7
-1.057, 2.348e-7
-1.058, 1.756e-7
-1.059, 2.762e-8
-1.060, 1.460e-7
-1.061, 3.039e-7
-1.062, 7.695e-8
-1.063, 4.420e-7
-1.064, 3.236e-7
-1.065, 4.815e-7
-1.066, 2.447e-7
-1.067, 2.151e-7
-1.068, 2.447e-7
-1.069, 9.669e-8
-1.070, 5.209e-7
-1.071, 5.209e-7
-1.072, 4.420e-7
-1.073, 3.927e-7
-1.074, 4.321e-7
-1.075, 3.631e-7
-1.076, 4.617e-7
-1.077, 5.703e-7
-1.078, 6.294e-7
-1.079, 6.097e-7
-1.080, 4.124e-7
-1.081, 7.577e-7
-1.082, 5.012e-7
-1.083, 5.111e-7
-1.084, 4.420e-7
-1.085, 4.815e-7
-1.086, 4.519e-7
-1.087, 5.801e-7
-1.088, 6.492e-7
-1.089, 5.407e-7
-1.090, 6.590e-7
-1.091, 6.788e-7
-1.092, 5.209e-7
-1.093, 6.196e-7
-1.094, 8.169e-7
-1.095, 8.860e-7
-1.096, 6.590e-7
-1.097, 4.815e-7
-1.098, 8.268e-7
-1.099, 6.590e-7
-1.100, 9.057e-7
-1.101, 9.353e-7
-1.102, 6.886e-7
-1.103, 7.182e-7
-1.104, 9.156e-7
-1.105, 7.774e-7
-1.106, 6.788e-7
-1.107, 6.985e-7
-1.108, 8.761e-7
-1.109, 5.407e-7
-1.110, 6.590e-7
-1.111, 1.024e-6
-1.112, 4.420e-7
-1.113, 8.860e-7
-1.114, 8.761e-7
-1.115, 1.073e-6
-1.116, 6.590e-7
-1.117, 9.156e-7
-1.118, 9.452e-7
-1.119, 6.393e-7
-1.120, 9.156e-7
-1.121, 8.465e-7
-1.122, 8.366e-7
-1.123, 1.093e-6
-1.124, 9.649e-7
-1.125, 1.073e-6
-1.126, 7.774e-7
-1.127, 8.564e-7
-1.128, 1.212e-6
-1.129, 8.070e-7
-1.130, 1.478e-6
-1.131, 1.024e-6
-1.132, 1.103e-6
-1.133, 1.064e-6
-1.134, 8.761e-7
-1.135, 1.014e-6
-1.136, 1.093e-6
-1.137, 9.156e-7
-1.138, 1.360e-6
-1.139, 9.649e-7
-1.140, 1.241e-6
-1.141, 1.212e-6
-1.142, 8.564e-7
-1.143, 1.221e-6
-1.144, 9.550e-7
-1.145, 1.182e-6
-1.146, 1.389e-6
-1.147, 1.261e-6
-1.148, 1.221e-6
-1.149, 9.452e-7
-1.150, 1.152e-6
-1.151, 1.330e-6
-1.152, 1.202e-6
-1.153, 1.320e-6
-1.154, 1.231e-6
-1.155, 1.251e-6
-1.156, 1.320e-6
-1.157, 1.054e-6
-1.158, 1.429e-6
-1.159, 1.103e-6
-1.160, 1.350e-6
-1.161, 1.369e-6
-1.162, 1.350e-6
-1.163, 1.192e-6
-1.164, 1.133e-6
-1.165, 1.300e-6
-1.166, 1.438e-6
-1.167, 1.133e-6
-1.168, 1.656e-6
-1.169, 1.202e-6
-1.170, 1.468e-6
-1.171, 1.577e-6
-1.172, 1.261e-6
-1.173, 1.577e-6
-1.174, 1.231e-6
-1.175, 1.448e-6
-1.176, 1.350e-6
-1.177, 1.369e-6
-1.178, 1.695e-6
-1.179, 1.271e-6
-1.180, 1.478e-6
-1.181, 1.429e-6
-1.182, 1.498e-6
-1.183, 1.586e-6
-1.184, 1.478e-6
-1.185, 1.646e-6
-1.186, 1.508e-6
-1.187, 1.626e-6
-1.188, 1.537e-6
-1.189, 1.508e-6
-1.190, 1.725e-6
-1.191, 1.754e-6
-1.192, 1.586e-6
-1.193, 1.813e-6
-1.194, 1.350e-6
-1.195, 1.794e-6
-1.196, 1.429e-6
-1.197, 1.705e-6
-1.198, 1.725e-6
-1.199, 1.547e-6
-1.200, 1.705e-6
-1.201, 1.695e-6
-1.202, 1.508e-6
-1.203, 1.803e-6
-1.204, 1.665e-6
-1.205, 1.823e-6
-1.206, 1.744e-6
-1.207, 1.537e-6
-1.208, 1.922e-6
-1.209, 1.626e-6
-1.210, 1.981e-6
-1.211, 1.853e-6
-1.212, 1.725e-6
-1.213, 1.942e-6
-1.214, 1.567e-6
-1.215, 1.774e-6
-1.216, 1.873e-6
-1.217, 1.813e-6
-1.218, 2.080e-6
-1.219, 1.636e-6
-1.220, 1.961e-6
-1.221, 2.060e-6
-1.222, 1.715e-6
-1.223, 2.169e-6
-1.224, 1.705e-6
-1.225, 1.981e-6
-1.226, 1.715e-6
-1.227, 2.021e-6
-1.228, 1.991e-6
-1.229, 1.843e-6
-1.230, 2.050e-6
-1.231, 2.159e-6
-1.232, 2.080e-6
-1.233, 2.159e-6
-1.234, 1.882e-6
-1.235, 2.070e-6
-1.236, 2.139e-6
-1.237, 1.764e-6
-1.238, 2.356e-6
-1.239, 2.040e-6
-1.240, 2.109e-6
-1.241, 2.247e-6
-1.242, 2.178e-6
-1.243, 2.099e-6
-1.244, 2.080e-6
-1.245, 2.178e-6
-1.246, 2.208e-6
-1.247, 2.011e-6
-1.248, 2.494e-6
-1.249, 2.149e-6
-1.250, 2.494e-6
-1.251, 2.317e-6
-1.252, 2.119e-6
-1.253, 2.376e-6
-1.254, 2.149e-6
-1.255, 2.415e-6
-1.256, 2.149e-6
-1.257, 2.267e-6
-1.258, 2.415e-6
-1.259, 2.001e-6
-1.260, 2.386e-6
-1.261, 2.386e-6
-1.262, 2.267e-6
-1.263, 2.415e-6
-1.264, 2.326e-6
-1.265, 2.386e-6
-1.266, 2.455e-6
-1.267, 2.228e-6
-1.268, 2.346e-6
-1.269, 2.060e-6
-1.270, 2.474e-6
-1.271, 2.613e-6
-1.272, 2.494e-6
-1.273, 2.346e-6
-1.274, 2.415e-6
-1.275, 2.356e-6
-1.276, 2.366e-6
-1.277, 2.336e-6
-1.278, 2.494e-6
-1.279, 2.040e-6
-1.280, 2.701e-6
-1.281, 2.593e-6
-1.282, 2.317e-6
-1.283, 2.484e-6
-1.284, 2.662e-6
-1.285, 2.622e-6
-1.286, 2.484e-6
-1.287, 2.731e-6
-1.288, 2.899e-6
-1.289, 2.435e-6
-1.290, 2.593e-6
-1.291, 2.593e-6
-1.292, 2.553e-6
-1.293, 2.632e-6
-1.294, 2.553e-6
-1.295, 2.859e-6
-1.296, 2.682e-6
-1.297, 2.386e-6
-1.298, 2.721e-6
-1.299, 2.425e-6
-1.300, 2.780e-6
-1.301, 2.978e-6
-1.302, 2.830e-6
-1.303, 2.820e-6
-1.304, 2.474e-6
-1.305, 2.682e-6
-1.306, 2.662e-6
-1.307, 2.810e-6
-1.308, 2.918e-6
-1.309, 2.751e-6
-1.310, 2.780e-6
-1.311, 2.928e-6
-1.312, 2.770e-6
-1.313, 2.978e-6
-1.314, 2.820e-6
-1.315, 2.948e-6
-1.316, 2.830e-6
-1.317, 2.691e-6
-1.318, 2.632e-6
-1.319, 2.741e-6
-1.320, 2.958e-6
-1.321, 3.116e-6
-1.322, 2.908e-6
-1.323, 2.928e-6
-1.324, 2.918e-6
-1.325, 3.007e-6
-1.326, 3.066e-6
-1.327, 2.741e-6
-1.328, 2.997e-6
-1.329, 2.810e-6
-1.330, 2.987e-6
-1.331, 3.303e-6
-1.332, 2.662e-6
-1.333, 3.007e-6
-1.334, 2.997e-6
-1.335, 3.283e-6
-1.336, 2.968e-6
-1.337, 3.254e-6
-1.338, 3.155e-6
-1.339, 3.047e-6
-1.340, 3.165e-6
-1.341, 3.313e-6
-1.342, 3.066e-6
-1.343, 3.362e-6
-1.344, 3.076e-6
-1.345, 3.185e-6
-1.346, 3.323e-6
-1.347, 3.106e-6
-1.348, 3.461e-6
-1.349, 3.106e-6
-1.350, 3.224e-6
-1.351, 3.451e-6
-1.352, 3.254e-6
-1.353, 3.175e-6
-1.354, 3.264e-6
-1.355, 3.491e-6
-1.356, 3.343e-6
-1.357, 3.027e-6
-1.358, 3.816e-6
-1.359, 3.135e-6
-1.360, 3.599e-6
-1.361, 3.175e-6
-1.362, 3.323e-6
-1.363, 3.560e-6
-1.364, 3.313e-6
-1.365, 3.422e-6
-1.366, 3.343e-6
-1.367, 3.392e-6
-1.368, 3.678e-6
-1.369, 3.412e-6
-1.370, 3.895e-6
-1.371, 3.688e-6
-1.372, 3.343e-6
-1.373, 3.737e-6
-1.374, 3.471e-6
-1.375, 3.382e-6
-1.376, 3.441e-6
-1.377, 3.481e-6
-1.378, 3.708e-6
-1.379, 3.540e-6
-1.380, 3.520e-6
-1.381, 3.856e-6
-1.382, 3.895e-6
-1.383, 3.816e-6
-1.384, 3.678e-6
-1.385, 3.816e-6
-1.386, 3.589e-6
-1.387, 3.648e-6
-1.388, 4.152e-6
-1.389, 3.658e-6
-1.390, 3.905e-6
-1.391, 3.905e-6
-1.392, 3.708e-6
-1.393, 3.796e-6
-1.394, 3.826e-6
-1.395, 3.856e-6
-1.396, 3.895e-6
-1.397, 3.856e-6
-1.398, 3.787e-6
-1.399, 3.826e-6
-1.400, 4.063e-6
-1.401, 3.954e-6
-1.402, 3.885e-6
-1.403, 3.994e-6
-1.404, 3.836e-6
-1.405, 4.073e-6
-1.406, 3.915e-6
-1.407, 3.944e-6
-1.408, 4.161e-6
-1.409, 4.073e-6
-1.410, 4.290e-6
-1.411, 4.319e-6
-1.412, 3.885e-6
-1.413, 4.300e-6
-1.414, 3.885e-6
-1.415, 4.536e-6
-1.416, 4.122e-6
-1.417, 4.329e-6
-1.418, 4.240e-6
-1.419, 4.053e-6
-1.420, 4.379e-6
-1.421, 4.497e-6
-1.422, 4.171e-6
-1.423, 4.704e-6
-1.424, 4.467e-6
-1.425, 4.625e-6
-1.426, 4.497e-6
-1.427, 4.329e-6
-1.428, 4.586e-6
-1.429, 4.418e-6
-1.430, 4.546e-6
-1.431, 4.576e-6
-1.432, 4.566e-6
-1.433, 4.507e-6
-1.434, 4.596e-6
-1.435, 4.684e-6
-1.436, 4.665e-6
-1.437, 4.724e-6
-1.438, 4.862e-6
-1.439, 4.615e-6
-1.440, 4.961e-6
-1.441, 5.030e-6
-1.442, 4.872e-6
-1.443, 4.803e-6
-1.444, 4.665e-6
-1.445, 5.010e-6
-1.446, 4.832e-6
-1.447, 5.188e-6
-1.448, 5.168e-6
-1.449, 5.178e-6
-1.450, 5.138e-6
-1.451, 5.286e-6
-1.452, 5.049e-6
-1.453, 5.128e-6
-1.454, 5.197e-6
-1.455, 5.454e-6
-1.456, 5.513e-6
-1.457, 5.345e-6
-1.458, 5.336e-6
-1.459, 5.178e-6
-1.460, 5.424e-6
-1.461, 5.671e-6
-1.462, 5.493e-6
-1.463, 5.631e-6
-1.464, 5.631e-6
-1.465, 5.444e-6
-1.466, 5.592e-6
-1.467, 5.730e-6
-1.468, 5.908e-6
-1.469, 5.898e-6
-1.470, 6.135e-6
-1.471, 6.164e-6
-1.472, 5.760e-6
-1.473, 6.026e-6
-1.474, 5.927e-6
-1.475, 6.342e-6
-1.476, 6.263e-6
-1.477, 6.302e-6
-1.478, 6.283e-6
-1.479, 6.342e-6
-1.480, 6.588e-6
-1.481, 6.559e-6
-1.482, 6.371e-6
-1.483, 6.786e-6
-1.484, 6.529e-6
-1.485, 6.697e-6
-1.486, 6.786e-6
-1.487, 6.954e-6
-1.488, 7.032e-6
-1.489, 6.865e-6
-1.490, 6.914e-6
-1.491, 7.190e-6
-1.492, 7.161e-6
-1.493, 7.062e-6
-1.494, 7.180e-6
-1.495, 7.368e-6
-1.496, 7.328e-6
-1.497, 7.407e-6
-1.498, 7.950e-6
-1.499, 7.348e-6
-1.500, 7.723e-6
-1.501, 7.753e-6
-1.502, 7.654e-6
-1.503, 7.733e-6
-1.504, 7.980e-6
-1.505, 8.177e-6
-1.506, 8.049e-6
-1.507, 8.098e-6
-1.508, 8.078e-6
-1.509, 8.187e-6
-1.510, 8.414e-6
-1.511, 8.631e-6
-1.512, 8.581e-6
-1.513, 8.769e-6
-1.514, 8.808e-6
-1.515, 9.104e-6
-1.516, 8.887e-6
-1.517, 8.986e-6
-1.518, 8.996e-6
-1.519, 9.223e-6
-1.520, 9.499e-6
-1.521, 9.568e-6
-1.522, 9.627e-6
-1.523, 9.785e-6
-1.524, 9.657e-6
-1.525, 1.023e-5
-1.526, 9.913e-6
-1.527, 1.040e-5
-1.528, 1.033e-5
-1.529, 1.011e-5
-1.530, 1.050e-5
-1.531, 1.085e-5
-1.532, 1.055e-5
-1.533, 1.106e-5
-1.534, 1.100e-5
-1.535, 1.147e-5
-1.536, 1.128e-5
-1.537, 1.154e-5
-1.538, 1.176e-5
-1.539, 1.161e-5
-1.540, 1.197e-5
-1.541, 1.245e-5
-1.542, 1.213e-5
-1.543, 1.243e-5
-1.544, 1.252e-5
-1.545, 1.267e-5
-1.546, 1.292e-5
-1.547, 1.293e-5
-1.548, 1.339e-5
-1.549, 1.318e-5
-1.550, 1.358e-5
-1.551, 1.383e-5
-1.552, 1.380e-5
-1.553, 1.387e-5
-1.554, 1.434e-5
-1.555, 1.458e-5
-1.556, 1.446e-5
-1.557, 1.496e-5
-1.558, 1.513e-5
-1.559, 1.518e-5
-1.560, 1.554e-5
-1.561, 1.573e-5
-1.562, 1.588e-5
-1.563, 1.610e-5
-1.564, 1.641e-5
-1.565, 1.662e-5
-1.566, 1.676e-5
-1.567, 1.695e-5
-1.568, 1.729e-5
-1.569, 1.733e-5
-1.570, 1.798e-5
-1.571, 1.806e-5
-1.572, 1.842e-5
-1.573, 1.827e-5
-1.574, 1.875e-5
-1.575, 1.922e-5
-1.576, 1.915e-5
-1.577, 1.948e-5
-1.578, 2.015e-5
-1.579, 2.005e-5
-1.580, 2.063e-5
-1.581, 2.100e-5
-1.582, 2.099e-5
-1.583, 2.134e-5
-1.584, 2.154e-5
-1.585, 2.195e-5
-1.586, 2.233e-5
-1.587, 2.268e-5
-1.588, 2.312e-5
-1.589, 2.321e-5
-1.590, 2.356e-5
-1.591, 2.414e-5
-1.592, 2.419e-5
-1.593, 2.461e-5
-1.594, 2.524e-5
-1.595, 2.562e-5
-1.596, 2.568e-5
-1.597, 2.632e-5
-1.598, 2.688e-5
-1.599, 2.711e-5
-1.600, 2.766e-5
-1.601, 2.805e-5
-1.602, 2.835e-5
-1.603, 2.872e-5
-1.604, 2.896e-5
-1.605, 2.968e-5
-1.606, 3.010e-5
-1.607, 3.060e-5
-1.608, 3.127e-5
-1.609, 3.161e-5
-1.610, 3.205e-5
-1.611, 3.271e-5
-1.612, 3.296e-5
-1.613, 3.357e-5
-1.614, 3.404e-5
-1.615, 3.484e-5
-1.616, 3.503e-5
-1.617, 3.584e-5
-1.618, 3.653e-5
-1.619, 3.654e-5
-1.620, 3.760e-5
-1.621, 3.815e-5
-1.622, 3.881e-5
-1.623, 3.940e-5
-1.624, 3.987e-5
-1.625, 4.079e-5
-1.626, 4.128e-5
-1.627, 4.177e-5
-1.628, 4.273e-5
-1.629, 4.314e-5
-1.630, 4.405e-5
-1.631, 4.466e-5
-1.632, 4.528e-5
-1.633, 4.575e-5
-1.634, 4.664e-5
-1.635, 4.744e-5
-1.636, 4.800e-5
-1.637, 4.876e-5
-1.638, 5.013e-5
-1.639, 5.078e-5
-1.640, 5.159e-5
-1.641, 5.265e-5
-1.642, 5.325e-5
-1.643, 5.405e-5
-1.644, 5.504e-5
-1.645, 5.610e-5
-1.646, 5.697e-5
-1.647, 5.749e-5
-1.648, 5.860e-5
-1.649, 5.934e-5
-1.650, 6.052e-5
-1.651, 6.146e-5
-1.652, 6.259e-5
-1.653, 6.347e-5
-1.654, 6.447e-5
-1.655, 6.581e-5
-1.656, 6.645e-5
-1.657, 6.749e-5
-1.658, 6.889e-5
-1.659, 7.006e-5
-1.660, 7.111e-5
-1.661, 7.221e-5
-1.662, 7.339e-5
-1.663, 7.444e-5
-1.664, 7.544e-5
-1.665, 7.717e-5
-1.666, 7.799e-5
-1.667, 7.957e-5
-1.668, 8.087e-5
-1.669, 8.181e-5
-1.670, 8.322e-5
-1.671, 8.488e-5
-1.672, 8.587e-5
-1.673, 8.757e-5
-1.674, 8.873e-5
-1.675, 9.054e-5
-1.676, 9.174e-5
-1.677, 9.300e-5
-1.678, 9.480e-5
-1.679, 9.628e-5
-1.680, 9.762e-5
-1.681, 9.939e-5
-1.682, 1.008e-4
-1.683, 1.026e-4
-1.684, 1.042e-4
-1.685, 1.060e-4
-1.686, 1.075e-4
-1.687, 1.094e-4
-1.688, 1.113e-4
-1.689, 1.129e-4
-1.690, 1.151e-4
-1.691, 1.168e-4
-1.692, 1.185e-4
-1.693, 1.202e-4
-1.694, 1.222e-4
-1.695, 1.247e-4
-1.696, 1.262e-4
-1.697, 1.286e-4
-1.698, 1.308e-4
-1.699, 1.325e-4
-1.700, 1.345e-4
-1.701, 1.374e-4
-1.702, 1.395e-4
-1.703, 1.417e-4
-1.704, 1.440e-4
-1.705, 1.466e-4
-1.706, 1.488e-4
-1.707, 1.511e-4
-1.708, 1.536e-4
-1.709, 1.560e-4
-1.710, 1.587e-4
-1.711, 1.615e-4
-1.712, 1.639e-4
-1.713, 1.663e-4
-1.714, 1.691e-4
-1.715, 1.721e-4
-1.716, 1.748e-4
-1.717, 1.779e-4
-1.718, 1.806e-4
-1.719, 1.834e-4
-1.720, 1.864e-4
-1.721, 1.897e-4
-1.722, 1.927e-4
-1.723, 1.958e-4
-1.724, 1.988e-4
-1.725, 2.024e-4
-1.726, 2.053e-4
-1.727, 2.086e-4
-1.728, 2.122e-4
-1.729, 2.155e-4
-1.730, 2.191e-4
-1.731, 2.226e-4
-1.732, 2.264e-4
-1.733, 2.297e-4
-1.734, 2.337e-4
-1.735, 2.378e-4
-1.736, 2.413e-4
-1.737, 2.452e-4
-1.738, 2.496e-4
-1.739, 2.532e-4
-1.740, 2.574e-4
-1.741, 2.621e-4
-1.742, 2.664e-4
-1.743, 2.707e-4
-1.744, 2.747e-4
-1.745, 2.795e-4
-1.746, 2.837e-4
-1.747, 2.884e-4
-1.748, 2.935e-4
-1.749, 2.979e-4
-1.750, 3.027e-4
-1.751, 3.079e-4
-1.752, 3.126e-4
-1.753, 3.177e-4
-1.754, 3.228e-4
-1.755, 3.287e-4
-1.756, 3.337e-4
-1.757, 3.387e-4
-1.758, 3.447e-4
-1.759, 3.508e-4
-1.760, 3.565e-4
-1.761, 3.623e-4
-1.762, 3.680e-4
-1.763, 3.736e-4
-1.764, 3.800e-4
-1.765, 3.870e-4
-1.766, 3.927e-4
-1.767, 3.987e-4
-1.768, 4.050e-4
-1.769, 4.114e-4
-1.770, 4.185e-4
-1.771, 4.259e-4
-1.772, 4.327e-4
-1.773, 4.392e-4
-1.774, 4.453e-4
-1.775, 4.528e-4
-1.776, 4.605e-4
-1.777, 4.687e-4
-1.778, 4.767e-4
-1.779, 4.838e-4
-1.780, 4.911e-4
-1.781, 5.003e-4
-1.782, 5.087e-4
-1.783, 5.169e-4
-1.784, 5.249e-4
-1.785, 5.339e-4
-1.786, 5.420e-4
-1.787, 5.510e-4
-1.788, 5.611e-4
-1.789, 5.696e-4
-1.790, 5.783e-4
-1.791, 5.877e-4
-1.792, 5.972e-4
-1.793, 6.068e-4
-1.794, 6.168e-4
-1.795, 6.267e-4
-1.796, 6.358e-4
-1.797, 6.466e-4
-1.798, 6.580e-4
-1.799, 6.680e-4
-1.800, 6.784e-4
-1.801, 6.894e-4
-1.802, 7.007e-4
-1.803, 7.123e-4
-1.804, 7.236e-4
-1.805, 7.357e-4
-1.806, 7.472e-4
-1.807, 7.591e-4
-1.808, 7.721e-4
-1.809, 7.840e-4
-1.810, 7.960e-4
-1.811, 8.092e-4
-1.812, 8.220e-4
-1.813, 8.354e-4
-1.814, 8.499e-4
-1.815, 8.634e-4
-1.816, 8.753e-4
-1.817, 8.888e-4
-1.818, 9.038e-4
-1.819, 9.184e-4
-1.820, 9.324e-4
-1.821, 9.466e-4
-1.822, 9.615e-4
-1.823, 9.761e-4
-1.824, 9.914e-4
-1.825, 1.008e-3
-1.826, 1.022e-3
-1.827, 1.036e-3
-1.828, 1.053e-3
-1.829, 1.069e-3
-1.830, 1.085e-3
-1.831, 1.102e-3
-1.832, 1.118e-3
-1.833, 1.134e-3
-1.834, 1.151e-3
-1.835, 1.169e-3
-1.836, 1.186e-3
-1.837, 1.202e-3
-1.838, 1.219e-3
-1.839, 1.236e-3
-1.840, 1.253e-3
-1.841, 1.272e-3
-1.842, 1.291e-3
-1.843, 1.310e-3
-1.844, 1.330e-3
-1.845, 1.350e-3
-1.846, 1.368e-3
-1.847, 1.389e-3
-1.848, 1.410e-3
-1.849, 1.431e-3
-1.850, 1.452e-3
-1.851, 1.472e-3
-1.852, 1.492e-3
-1.853, 1.512e-3
-1.854, 1.532e-3
-1.855, 1.554e-3
-1.856, 1.575e-3
-1.857, 1.595e-3
-1.858, 1.615e-3
-1.859, 1.636e-3
-1.860, 1.658e-3
-1.861, 1.685e-3
-1.862, 1.705e-3
-1.863, 1.719e-3
-1.864, 1.746e-3
-1.865, 1.778e-3
-1.866, 1.803e-3
-1.867, 1.825e-3
-1.868, 1.843e-3
-1.869, 1.865e-3
-1.870, 1.894e-3
-1.871, 1.920e-3
-1.872, 1.944e-3
-1.873, 1.962e-3
-1.874, 1.976e-3
-1.875, 2.001e-3
-1.876, 2.031e-3
-1.877, 2.062e-3
-1.878, 2.091e-3
-1.879, 2.109e-3
-1.880, 2.127e-3
-1.881, 2.155e-3
-1.882, 2.189e-3
-1.883, 2.216e-3
-1.884, 2.240e-3
-1.885, 2.263e-3
-1.886, 2.289e-3
-1.887, 2.318e-3
-1.888, 2.347e-3
-1.889, 2.378e-3
-1.890, 2.404e-3
-1.891, 2.433e-3
-1.892, 2.460e-3
-1.893, 2.487e-3
-1.894, 2.516e-3
-1.895, 2.544e-3
-1.896, 2.570e-3
-1.897, 2.599e-3
-1.898, 2.631e-3
-1.899, 2.660e-3
-1.900, 2.689e-3
-1.901, 2.719e-3
-1.902, 2.749e-3
-1.903, 2.779e-3
-1.904, 2.811e-3
-1.905, 2.843e-3
-1.906, 2.871e-3
-1.907, 2.900e-3
-1.908, 2.936e-3
-1.909, 2.968e-3
-1.910, 2.998e-3
-1.911, 3.025e-3
-1.912, 3.048e-3
-1.913, 3.077e-3
-1.914, 3.112e-3
-1.915, 3.146e-3
-1.916, 3.174e-3
-1.917, 3.201e-3
-1.918, 3.234e-3
-1.919, 3.268e-3
-1.920, 3.301e-3
-1.921, 3.334e-3
-1.922, 3.366e-3
-1.923, 3.399e-3
-1.924, 3.434e-3
-1.925, 3.469e-3
-1.926, 3.500e-3
-1.927, 3.531e-3
-1.928, 3.566e-3
-1.929, 3.599e-3
-1.930, 3.631e-3
-1.931, 3.667e-3
-1.932, 3.700e-3
-1.933, 3.733e-3
-1.934, 3.768e-3
-1.935, 3.802e-3
-1.936, 3.835e-3
-1.937, 3.868e-3
-1.938, 3.906e-3
-1.939, 3.945e-3
-1.940, 3.985e-3
-1.941, 4.023e-3
-1.942, 4.057e-3
-1.943, 4.087e-3
-1.944, 4.120e-3
-1.945, 4.158e-3
-1.946, 4.191e-3
-1.947, 4.224e-3
-1.948, 4.257e-3
-1.949, 4.286e-3
-1.950, 4.315e-3
-1.951, 4.350e-3
-1.952, 4.382e-3
-1.953, 4.419e-3
-1.954, 4.464e-3
-1.955, 4.496e-3
-1.956, 4.521e-3
-1.957, 4.551e-3
-1.958, 4.585e-3
-1.959, 4.631e-3
-1.960, 4.674e-3
-1.961, 4.708e-3
-1.962, 4.745e-3
-1.963, 4.777e-3
-1.964, 4.817e-3
-1.965, 4.860e-3
-1.966, 4.890e-3
-1.967, 4.919e-3
-1.968, 4.955e-3
-1.969, 4.995e-3
-1.970, 5.034e-3
-1.971, 5.068e-3
-1.972, 5.100e-3
-1.973, 5.140e-3
-1.974, 5.181e-3
-1.975, 5.222e-3
-1.976, 5.259e-3
-1.977, 5.294e-3
-1.978, 5.344e-3
-1.979, 5.395e-3
-1.980, 5.438e-3
-1.981, 5.482e-3
-1.982, 5.517e-3
-1.983, 5.553e-3
-1.984, 5.598e-3
-1.985, 5.643e-3
-1.986, 5.687e-3
-1.987, 5.725e-3
-1.988, 5.758e-3
-1.989, 5.790e-3
-1.990, 5.823e-3
-1.991, 5.857e-3
-1.992, 5.892e-3
-1.993, 5.922e-3
-1.994, 5.960e-3
-1.995, 6.001e-3
-1.996, 6.035e-3
-1.997, 6.064e-3
-1.998, 6.095e-3
-1.999, 6.132e-3
-2.000, 6.147e-3
-1.999, 6.136e-3
-1.998, 6.118e-3
-1.997, 6.089e-3
-1.996, 6.056e-3
-1.995, 6.022e-3
-1.994, 5.993e-3
-1.993, 5.965e-3
-1.992, 5.935e-3
-1.991, 5.900e-3
-1.990, 5.864e-3
-1.989, 5.829e-3
-1.988, 5.793e-3
-1.987, 5.755e-3
-1.986, 5.721e-3
-1.985, 5.692e-3
-1.984, 5.660e-3
-1.983, 5.626e-3
-1.982, 5.592e-3
-1.981, 5.556e-3
-1.980, 5.523e-3
-1.979, 5.492e-3
-1.978, 5.456e-3
-1.977, 5.412e-3
-1.976, 5.371e-3
-1.975, 5.335e-3
-1.974, 5.300e-3
-1.973, 5.261e-3
-1.972, 5.221e-3
-1.971, 5.181e-3
-1.970, 5.148e-3
-1.969, 5.115e-3
-1.968, 5.076e-3
-1.967, 5.031e-3
-1.966, 5.006e-3
-1.965, 4.975e-3
-1.964, 4.920e-3
-1.963, 4.876e-3
-1.962, 4.844e-3
-1.961, 4.818e-3
-1.960, 4.800e-3
-1.959, 4.760e-3
-1.958, 4.710e-3
-1.957, 4.668e-3
-1.956, 4.635e-3
-1.955, 4.615e-3
-1.954, 4.584e-3
-1.953, 4.542e-3
-1.952, 4.503e-3
-1.951, 4.464e-3
-1.950, 4.430e-3
-1.949, 4.402e-3
-1.948, 4.357e-3
-1.947, 4.312e-3
-1.946, 4.280e-3
-1.945, 4.255e-3
-1.944, 4.228e-3
-1.943, 4.202e-3
-1.942, 4.172e-3
-1.941, 4.132e-3
-1.940, 4.087e-3
-1.939, 4.065e-3
-1.938, 4.040e-3
-1.937, 4.013e-3
-1.936, 3.981e-3
-1.935, 3.943e-3
-1.934, 3.910e-3
-1.933, 3.882e-3
-1.932, 3.857e-3
-1.931, 3.828e-3
-1.930, 3.792e-3
-1.929, 3.760e-3
-1.928, 3.732e-3
-1.927, 3.702e-3
-1.926, 3.672e-3
-1.925, 3.640e-3
-1.924, 3.606e-3
-1.923, 3.578e-3
-1.922, 3.553e-3
-1.921, 3.523e-3
-1.920, 3.489e-3
-1.919, 3.454e-3
-1.918, 3.421e-3
-1.917, 3.393e-3
-1.916, 3.366e-3
-1.915, 3.336e-3
-1.914, 3.302e-3
-1.913, 3.266e-3
-1.912, 3.238e-3
-1.911, 3.211e-3
-1.910, 3.182e-3
-1.909, 3.158e-3
-1.908, 3.128e-3
-1.907, 3.097e-3
-1.906, 3.073e-3
-1.905, 3.049e-3
-1.904, 3.022e-3
-1.903, 2.992e-3
-1.902, 2.962e-3
-1.901, 2.933e-3
-1.900, 2.907e-3
-1.899, 2.881e-3
-1.898, 2.854e-3
-1.897, 2.821e-3
-1.896, 2.793e-3
-1.895, 2.768e-3
-1.894, 2.742e-3
-1.893, 2.716e-3
-1.892, 2.689e-3
-1.891, 2.661e-3
-1.890, 2.637e-3
-1.889, 2.616e-3
-1.888, 2.591e-3
-1.887, 2.563e-3
-1.886, 2.537e-3
-1.885, 2.517e-3
-1.884, 2.496e-3
-1.883, 2.473e-3
-1.882, 2.448e-3
-1.881, 2.422e-3
-1.880, 2.399e-3
-1.879, 2.380e-3
-1.878, 2.357e-3
-1.877, 2.331e-3
-1.876, 2.306e-3
-1.875, 2.283e-3
-1.874, 2.260e-3
-1.873, 2.237e-3
-1.872, 2.214e-3
-1.871, 2.188e-3
-1.870, 2.162e-3
-1.869, 2.141e-3
-1.868, 2.119e-3
-1.867, 2.096e-3
-1.866, 2.073e-3
-1.865, 2.051e-3
-1.864, 2.029e-3
-1.863, 2.008e-3
-1.862, 1.988e-3
-1.861, 1.966e-3
-1.860, 1.944e-3
-1.859, 1.923e-3
-1.858, 1.903e-3
-1.857, 1.882e-3
-1.856, 1.861e-3
-1.855, 1.841e-3
-1.854, 1.822e-3
-1.853, 1.802e-3
-1.852, 1.785e-3
-1.851, 1.765e-3
-1.850, 1.745e-3
-1.849, 1.727e-3
-1.848, 1.708e-3
-1.847, 1.689e-3
-1.846, 1.669e-3
-1.845, 1.651e-3
-1.844, 1.630e-3
-1.843, 1.610e-3
-1.842, 1.592e-3
-1.841, 1.573e-3
-1.840, 1.554e-3
-1.839, 1.537e-3
-1.838, 1.519e-3
-1.837, 1.501e-3
-1.836, 1.483e-3
-1.835, 1.467e-3
-1.834, 1.450e-3
-1.833, 1.432e-3
-1.832, 1.417e-3
-1.831, 1.400e-3
-1.830, 1.383e-3
-1.829, 1.369e-3
-1.828, 1.353e-3
-1.827, 1.336e-3
-1.826, 1.320e-3
-1.825, 1.305e-3
-1.824, 1.288e-3
-1.823, 1.272e-3
-1.822, 1.258e-3
-1.821, 1.243e-3
-1.820, 1.227e-3
-1.819, 1.213e-3
-1.818, 1.199e-3
-1.817, 1.185e-3
-1.816, 1.171e-3
-1.815, 1.157e-3
-1.814, 1.142e-3
-1.813, 1.127e-3
-1.812, 1.114e-3
-1.811, 1.099e-3
-1.810, 1.085e-3
-1.809, 1.072e-3
-1.808, 1.059e-3
-1.807, 1.044e-3
-1.806, 1.031e-3
-1.805, 1.019e-3
-1.804, 1.005e-3
-1.803, 9.923e-4
-1.802, 9.803e-4
-1.801, 9.670e-4
-1.800, 9.549e-4
-1.799, 9.433e-4
-1.798, 9.308e-4
-1.797, 9.182e-4
-1.796, 9.061e-4
-1.795, 8.949e-4
-1.794, 8.823e-4
-1.793, 8.711e-4
-1.792, 8.601e-4
-1.791, 8.480e-4
-1.790, 8.368e-4
-1.789, 8.262e-4
-1.788, 8.147e-4
-1.787, 8.032e-4
-1.786, 7.925e-4
-1.785, 7.821e-4
-1.784, 7.714e-4
-1.783, 7.607e-4
-1.782, 7.510e-4
-1.781, 7.408e-4
-1.780, 7.305e-4
-1.779, 7.213e-4
-1.778, 7.114e-4
-1.777, 7.006e-4
-1.776, 6.913e-4
-1.775, 6.824e-4
-1.774, 6.723e-4
-1.773, 6.627e-4
-1.772, 6.537e-4
-1.771, 6.440e-4
-1.770, 6.355e-4
-1.769, 6.275e-4
-1.768, 6.182e-4
-1.767, 6.085e-4
-1.766, 5.996e-4
-1.765, 5.915e-4
-1.764, 5.830e-4
-1.763, 5.749e-4
-1.762, 5.667e-4
-1.761, 5.584e-4
-1.760, 5.506e-4
-1.759, 5.433e-4
-1.758, 5.357e-4
-1.757, 5.275e-4
-1.756, 5.200e-4
-1.755, 5.125e-4
-1.754, 5.050e-4
-1.753, 4.977e-4
-1.752, 4.909e-4
-1.751, 4.830e-4
-1.750, 4.758e-4
-1.749, 4.689e-4
-1.748, 4.619e-4
-1.747, 4.545e-4
-1.746, 4.478e-4
-1.745, 4.417e-4
-1.744, 4.347e-4
-1.743, 4.289e-4
-1.742, 4.228e-4
-1.741, 4.164e-4
-1.740, 4.100e-4
-1.739, 4.041e-4
-1.738, 3.980e-4
-1.737, 3.919e-4
-1.736, 3.863e-4
-1.735, 3.808e-4
-1.734, 3.741e-4
-1.733, 3.682e-4
-1.732, 3.632e-4
-1.731, 3.570e-4
-1.730, 3.514e-4
-1.729, 3.464e-4
-1.728, 3.408e-4
-1.727, 3.356e-4
-1.726, 3.305e-4
-1.725, 3.258e-4
-1.724, 3.205e-4
-1.723, 3.151e-4
-1.722, 3.106e-4
-1.721, 3.053e-4
-1.720, 3.009e-4
-1.719, 2.963e-4
-1.718, 2.915e-4
-1.717, 2.868e-4
-1.716, 2.820e-4
-1.715, 2.781e-4
-1.714, 2.733e-4
-1.713, 2.689e-4
-1.712, 2.650e-4
-1.711, 2.604e-4
-1.710, 2.563e-4
-1.709, 2.523e-4
-1.708, 2.482e-4
-1.707, 2.441e-4
-1.706, 2.402e-4
-1.705, 2.369e-4
-1.704, 2.330e-4
-1.703, 2.290e-4
-1.702, 2.255e-4
-1.701, 2.215e-4
-1.700, 2.180e-4
-1.699, 2.147e-4
-1.698, 2.110e-4
-1.697, 2.076e-4
-1.696, 2.041e-4
-1.695, 2.011e-4
-1.694, 1.975e-4
-1.693, 1.943e-4
-1.692, 1.913e-4
-1.691, 1.878e-4
-1.690, 1.851e-4
-1.689, 1.817e-4
-1.688, 1.788e-4
-1.687, 1.760e-4
-1.686, 1.728e-4
-1.685, 1.702e-4
-1.684, 1.672e-4
-1.683, 1.642e-4
-1.682, 1.620e-4
-1.681, 1.588e-4
-1.680, 1.561e-4
-1.679, 1.537e-4
-1.678, 1.511e-4
-1.677, 1.484e-4
-1.676, 1.457e-4
-1.675, 1.437e-4
-1.674, 1.409e-4
-1.673, 1.385e-4
-1.672, 1.363e-4
-1.671, 1.337e-4
-1.670, 1.318e-4
-1.669, 1.295e-4
-1.668, 1.273e-4
-1.667, 1.252e-4
-1.666, 1.229e-4
-1.665, 1.208e-4
-1.664, 1.186e-4
-1.663, 1.166e-4
-1.662, 1.148e-4
-1.661, 1.125e-4
-1.660, 1.106e-4
-1.659, 1.088e-4
-1.658, 1.066e-4
-1.657, 1.050e-4
-1.656, 1.030e-4
-1.655, 1.015e-4
-1.654, 9.927e-5
-1.653, 9.773e-5
-1.652, 9.632e-5
-1.651, 9.424e-5
-1.650, 9.268e-5
-1.649, 9.154e-5
-1.648, 8.940e-5
-1.647, 8.780e-5
-1.646, 8.633e-5
-1.645, 8.494e-5
-1.644, 8.316e-5
-1.643, 8.192e-5
-1.642, 8.083e-5
-1.641, 7.910e-5
-1.640, 7.779e-5
-1.639, 7.634e-5
-1.638, 7.457e-5
-1.637, 7.343e-5
-1.636, 7.209e-5
-1.635, 7.086e-5
-1.634, 6.943e-5
-1.633, 6.805e-5
-1.632, 6.702e-5
-1.631, 6.578e-5
-1.630, 6.463e-5
-1.629, 6.374e-5
-1.628, 6.221e-5
-1.627, 6.140e-5
-1.626, 6.002e-5
-1.625, 5.908e-5
-1.624, 5.772e-5
-1.623, 5.669e-5
-1.622, 5.569e-5
-1.621, 5.454e-5
-1.620, 5.362e-5
-1.619, 5.294e-5
-1.618, 5.159e-5
-1.617, 5.069e-5
-1.616, 4.974e-5
-1.615, 4.898e-5
-1.614, 4.785e-5
-1.613, 4.687e-5
-1.612, 4.617e-5
-1.611, 4.540e-5
-1.610, 4.440e-5
-1.609, 4.368e-5
-1.608, 4.272e-5
-1.607, 4.192e-5
-1.606, 4.108e-5
-1.605, 4.046e-5
-1.604, 3.948e-5
-1.603, 3.862e-5
-1.602, 3.820e-5
-1.601, 3.740e-5
-1.600, 3.663e-5
-1.599, 3.602e-5
-1.598, 3.523e-5
-1.597, 3.446e-5
-1.596, 3.376e-5
-1.595, 3.333e-5
-1.594, 3.257e-5
-1.593, 3.204e-5
-1.592, 3.155e-5
-1.591, 3.054e-5
-1.590, 3.006e-5
-1.589, 2.959e-5
-1.588, 2.895e-5
-1.587, 2.838e-5
-1.586, 2.762e-5
-1.585, 2.712e-5
-1.584, 2.653e-5
-1.583, 2.584e-5
-1.582, 2.582e-5
-1.581, 2.497e-5
-1.580, 2.447e-5
-1.579, 2.409e-5
-1.578, 2.339e-5
-1.577, 2.282e-5
-1.576, 2.240e-5
-1.575, 2.203e-5
-1.574, 2.154e-5
-1.573, 2.104e-5
-1.572, 2.075e-5
-1.571, 2.036e-5
-1.570, 2.002e-5
-1.569, 1.963e-5
-1.568, 1.888e-5
-1.567, 1.869e-5
-1.566, 1.819e-5
-1.565, 1.799e-5
-1.564, 1.747e-5
-1.563, 1.699e-5
-1.562, 1.685e-5
-1.561, 1.620e-5
-1.560, 1.598e-5
-1.559, 1.580e-5
-1.558, 1.531e-5
-1.557, 1.482e-5
-1.556, 1.476e-5
-1.555, 1.447e-5
-1.554, 1.394e-5
-1.553, 1.381e-5
-1.552, 1.359e-5
-1.551, 1.307e-5
-1.550, 1.299e-5
-1.549, 1.262e-5
-1.548, 1.206e-5
-1.547, 1.183e-5
-1.546, 1.165e-5
-1.545, 1.158e-5
-1.544, 1.121e-5
-1.543, 1.088e-5
-1.542, 1.082e-5
-1.541, 1.034e-5
-1.540, 1.035e-5
-1.539, 9.933e-6
-1.538, 9.746e-6
-1.537, 9.667e-6
-1.536, 9.459e-6
-1.535, 9.006e-6
-1.534, 8.690e-6
-1.533, 8.414e-6
-1.532, 8.611e-6
-1.531, 7.999e-6
-1.530, 8.039e-6
-1.529, 7.960e-6
-1.528, 7.407e-6
-1.527, 7.378e-6
-1.526, 7.486e-6
-1.525, 7.052e-6
-1.524, 6.687e-6
-1.523, 6.411e-6
-1.522, 6.658e-6
-1.521, 6.184e-6
-1.520, 6.283e-6
-1.519, 5.987e-6
-1.518, 5.730e-6
-1.517, 5.513e-6
-1.516, 5.533e-6
-1.515, 5.533e-6
-1.514, 5.414e-6
-1.513, 5.227e-6
-1.512, 5.010e-6
-1.511, 4.615e-6
-1.510, 4.576e-6
-1.509, 4.704e-6
-1.508, 4.122e-6
-1.507, 4.152e-6
-1.506, 4.043e-6
-1.505, 4.132e-6
-1.504, 3.491e-6
-1.503, 3.530e-6
-1.502, 3.668e-6
-1.501, 3.441e-6
-1.500, 3.362e-6
-1.499, 3.422e-6
-1.498, 3.047e-6
-1.497, 2.938e-6
-1.496, 2.701e-6
-1.495, 2.691e-6
-1.494, 2.534e-6
-1.493, 2.701e-6
-1.492, 2.603e-6
-1.491, 2.346e-6
-1.490, 2.178e-6
-1.489, 2.277e-6
-1.488, 1.764e-6
-1.487, 2.109e-6
-1.486, 1.873e-6
-1.485, 2.011e-6
-1.484, 1.616e-6
-1.483, 1.517e-6
-1.482, 1.734e-6
-1.481, 1.202e-6
-1.480, 1.389e-6
-1.479, 1.429e-6
-1.478, 1.014e-6
-1.477, 1.093e-6
-1.476, 1.064e-6
-1.475, 1.024e-6
-1.474, 8.465e-7
-1.473, 8.070e-7
-1.472, 1.054e-6
-1.471, 6.393e-7
-1.470, 5.308e-7
-1.469, 6.294e-7
-1.468, 4.913e-7
-1.467, 4.420e-7
-1.466, 2.151e-7
-1.465, 4.124e-7
-1.464, 1.953e-7
-1.463, 2.151e-7
-1.462, 1.657e-7
-1.461, 2.249e-7
-1.460, -1.302e-7
-1.459, 1.756e-7
-1.458, -1.184e-8
-1.457, -1.894e-7
-1.456, -1.401e-7
-1.455, 1.776e-8
-1.454, -2.980e-7
-1.453, -6.334e-7
-1.452, 7.893e-9
-1.451, -6.038e-7
-1.450, -1.993e-7
-1.449, -4.854e-7
-1.448, -4.065e-7
-1.447, -6.038e-7
-1.446, -8.702e-7
-1.445, -5.643e-7
-1.444, -7.025e-7
-1.443, -6.334e-7
-1.442, -4.065e-7
-1.441, -1.137e-6
-1.440, -5.841e-7
-1.439, -5.841e-7
-1.438, -1.097e-6
-1.437, -9.096e-7
-1.436, -1.146e-6
-1.435, -8.011e-7
-1.434, -1.018e-6
-1.433, -1.324e-6
-1.432, -1.127e-6
-1.431, -1.363e-6
-1.430, -1.137e-6
-1.429, -1.117e-6
-1.428, -1.373e-6
-1.427, -1.255e-6
-1.426, -1.206e-6
-1.425, -1.137e-6
-1.424, -1.433e-6
-1.423, -1.482e-6
-1.422, -1.314e-6
-1.421, -1.827e-6
-1.420, -1.452e-6
-1.419, -1.659e-6
-1.418, -1.640e-6
-1.417, -1.650e-6
-1.416, -1.827e-6
-1.415, -1.620e-6
-1.414, -1.768e-6
-1.413, -1.738e-6
-1.412, -1.561e-6
-1.411, -1.709e-6
-1.410, -1.936e-6
-1.409, -1.571e-6
-1.408, -1.798e-6
-1.407, -1.867e-6
-1.406, -1.857e-6
-1.405, -1.590e-6
-1.404, -1.867e-6
-1.403, -1.946e-6
-1.402, -1.798e-6
-1.401, -2.143e-6
-1.400, -1.965e-6
-1.399, -1.867e-6
-1.398, -1.955e-6
-1.397, -1.709e-6
-1.396, -2.192e-6
-1.395, -1.926e-6
-1.394, -2.113e-6
-1.393, -2.242e-6
-1.392, -2.084e-6
-1.391, -2.291e-6
-1.390, -2.123e-6
-1.389, -1.847e-6
-1.388, -2.094e-6
-1.387, -2.153e-6
-1.386, -2.123e-6
-1.385, -2.222e-6
-1.384, -2.390e-6
-1.383, -2.399e-6
-1.382, -2.192e-6
-1.381, -2.340e-6
-1.380, -2.222e-6
-1.379, -2.064e-6
-1.378, -2.390e-6
-1.377, -2.291e-6
-1.376, -2.202e-6
-1.375, -2.301e-6
-1.374, -2.360e-6
-1.373, -2.340e-6
-1.372, -2.222e-6
-1.371, -2.863e-6
-1.370, -2.508e-6
-1.369, -2.498e-6
-1.368, -2.626e-6
-1.367, -2.429e-6
-1.366, -2.498e-6
-1.365, -2.320e-6
-1.364, -2.419e-6
-1.363, -2.616e-6
-1.362, -2.320e-6
-1.361, -2.508e-6
-1.360, -2.320e-6
-1.359, -2.360e-6
-1.358, -2.498e-6
-1.357, -2.636e-6
-1.356, -2.843e-6
-1.355, -2.666e-6
-1.354, -2.676e-6
-1.353, -2.488e-6
-1.352, -2.528e-6
-1.351, -2.666e-6
-1.350, -2.636e-6
-1.349, -2.616e-6
-1.348, -2.567e-6
-1.347, -2.686e-6
-1.346, -2.666e-6
-1.345, -2.557e-6
-1.344, -2.804e-6
-1.343, -2.814e-6
-1.342, -2.774e-6
-1.341, -2.912e-6
-1.340, -2.705e-6
-1.339, -2.616e-6
-1.338, -2.715e-6
-1.337, -2.597e-6
-1.336, -2.656e-6
-1.335, -2.498e-6
-1.334, -2.646e-6
-1.333, -2.804e-6
-1.332, -2.547e-6
-1.331, -2.952e-6
-1.330, -2.715e-6
-1.329, -2.666e-6
-1.328, -2.942e-6
-1.327, -2.774e-6
-1.326, -2.863e-6
-1.325, -2.557e-6
-1.324, -2.794e-6
-1.323, -2.567e-6
-1.322, -2.528e-6
-1.321, -2.774e-6
-1.320, -2.725e-6
-1.319, -2.922e-6
-1.318, -2.893e-6
-1.317, -2.853e-6
-1.316, -2.794e-6
-1.315, -2.715e-6
-1.314, -2.814e-6
-1.313, -2.804e-6
-1.312, -3.001e-6
-1.311, -2.952e-6
-1.310, -2.814e-6
-1.309, -2.735e-6
-1.308, -2.893e-6
-1.307, -2.863e-6
-1.306, -2.922e-6
-1.305, -3.139e-6
-1.304, -2.903e-6
-1.303, -3.100e-6
-1.302, -2.932e-6
-1.301, -3.070e-6
-1.300, -2.597e-6
-1.299, -2.883e-6
-1.298, -3.179e-6
-1.297, -2.922e-6
-1.296, -3.090e-6
-1.295, -2.981e-6
-1.294, -2.972e-6
-1.293, -2.962e-6
-1.292, -2.745e-6
-1.291, -2.991e-6
-1.290, -2.804e-6
-1.289, -2.912e-6
-1.288, -3.179e-6
-1.287, -3.110e-6
-1.286, -2.972e-6
-1.285, -2.853e-6
-1.284, -2.991e-6
-1.283, -2.991e-6
-1.282, -3.149e-6
-1.281, -3.179e-6
-1.280, -3.041e-6
-1.279, -2.972e-6
-1.278, -3.090e-6
-1.277, -3.021e-6
-1.276, -3.129e-6
-1.275, -3.139e-6
-1.274, -3.159e-6
-1.273, -3.258e-6
-1.272, -2.646e-6
-1.271, -3.060e-6
-1.270, -3.070e-6
-1.269, -3.080e-6
-1.268, -3.228e-6
-1.267, -3.021e-6
-1.266, -3.080e-6
-1.265, -2.932e-6
-1.264, -3.021e-6
-1.263, -3.287e-6
-1.262, -3.100e-6
-1.261, -2.962e-6
-1.260, -3.179e-6
-1.259, -3.031e-6
-1.258, -3.307e-6
-1.257, -3.021e-6
-1.256, -3.268e-6
-1.255, -2.991e-6
-1.254, -3.307e-6
-1.253, -3.376e-6
-1.252, -3.169e-6
-1.251, -3.287e-6
-1.250, -3.051e-6
-1.249, -3.051e-6
-1.248, -3.110e-6
-1.247, -3.199e-6
-1.246, -3.011e-6
-1.245, -3.139e-6
-1.244, -3.120e-6
-1.243, -3.386e-6
-1.242, -2.922e-6
-1.241, -3.317e-6
-1.240, -3.179e-6
-1.239, -3.129e-6
-1.238, -3.139e-6
-1.237, -3.051e-6
-1.236, -3.169e-6
-1.235, -3.021e-6
-1.234, -3.208e-6
-1.233, -3.070e-6
-1.232, -2.952e-6
-1.231, -3.277e-6
-1.230, -3.011e-6
-1.229, -3.159e-6
-1.228, -3.425e-6
-1.227, -3.396e-6
-1.226, -3.524e-6
-1.225, -3.169e-6
-1.224, -3.416e-6
-1.223, -3.208e-6
-1.222, -3.435e-6
-1.221, -3.386e-6
-1.220, -3.356e-6
-1.219, -3.366e-6
-1.218, -3.199e-6
-1.217, -3.366e-6
-1.216, -3.504e-6
-1.215, -3.287e-6
-1.214, -3.564e-6
-1.213, -3.396e-6
-1.212, -3.139e-6
-1.211, -3.524e-6
-1.210, -3.297e-6
-1.209, -3.268e-6
-1.208, -3.416e-6
-1.207, -3.248e-6
-1.206, -3.721e-6
-1.205, -3.465e-6
-1.204, -3.277e-6
-1.203, -3.445e-6
-1.202, -3.169e-6
-1.201, -3.623e-6
-1.200, -3.435e-6
-1.199, -3.435e-6
-1.198, -3.643e-6
-1.197, -3.534e-6
-1.196, -3.465e-6
-1.195, -3.307e-6
-1.194, -3.435e-6
-1.193, -3.564e-6
-1.192, -3.268e-6
-1.191, -3.603e-6
-1.190, -3.751e-6
-1.189, -3.544e-6
-1.188, -3.287e-6
-1.187, -3.485e-6
-1.186, -3.425e-6
-1.185, -3.475e-6
-1.184, -3.455e-6
-1.183, -3.416e-6
-1.182, -3.524e-6
-1.181, -3.672e-6
-1.180, -3.376e-6
-1.179, -3.258e-6
-1.178, -3.731e-6
-1.177, -3.583e-6
-1.176, -3.603e-6
-1.175, -3.475e-6
-1.174, -3.840e-6
-1.173, -3.504e-6
-1.172, -3.297e-6
-1.171, -3.771e-6
-1.170, -3.416e-6
-1.169, -3.386e-6
-1.168, -3.347e-6
-1.167, -3.495e-6
-1.166, -3.643e-6
-1.165, -3.228e-6
-1.164, -3.514e-6
-1.163, -3.435e-6
-1.162, -3.485e-6
-1.161, -3.869e-6
-1.160, -3.416e-6
-1.159, -3.564e-6
-1.158, -3.593e-6
-1.157, -3.514e-6
-1.156, -3.702e-6
-1.155, -3.652e-6
-1.154, -3.682e-6
-1.153, -3.672e-6
-1.152, -3.603e-6
-1.151, -3.869e-6
-1.150, -3.593e-6
-1.149, -3.682e-6
-1.148, -3.978e-6
-1.147, -3.583e-6
-1.146, -3.761e-6
-1.145, -3.544e-6
-1.144, -3.534e-6
-1.143, -3.741e-6
-1.142, -3.583e-6
-1.141, -3.731e-6
-1.140, -3.741e-6
-1.139, -3.662e-6
-1.138, -3.869e-6
-1.137, -3.771e-6
-1.136, -3.781e-6
-1.135, -3.435e-6
-1.134, -3.475e-6
-1.133, -3.840e-6
-1.132, -3.613e-6
-1.131, -3.988e-6
-1.130, -3.830e-6
-1.129, -3.800e-6
-1.128, -3.761e-6
-1.127, -3.820e-6
-1.126, -3.850e-6
-1.125, -3.869e-6
-1.124, -3.968e-6
-1.123, -3.800e-6
-1.122, -3.810e-6
-1.121, -3.978e-6
-1.120, -3.820e-6
-1.119, -3.692e-6
-1.118, -3.968e-6
-1.117, -3.899e-6
-1.116, -3.879e-6
-1.115, -3.800e-6
-1.114, -3.771e-6
-1.113, -4.037e-6
-1.112, -3.741e-6
-1.111, -4.027e-6
-1.110, -3.889e-6
-1.109, -3.830e-6
-1.108, -3.860e-6
-1.107, -3.899e-6
-1.106, -4.146e-6
-1.105, -3.751e-6
-1.104, -3.860e-6
-1.103, -4.008e-6
-1.102, -3.889e-6
-1.101, -4.175e-6
-1.100, -4.037e-6
-1.099, -3.929e-6
-1.098, -3.988e-6
-1.097, -3.998e-6
-1.096, -4.165e-6
-1.095, -3.988e-6
-1.094, -4.116e-6
-1.093, -4.008e-6
-1.092, -3.869e-6
-1.091, -4.096e-6
-1.090, -3.810e-6
-1.089, -3.761e-6
-1.088, -4.175e-6
-1.087, -4.067e-6
-1.086, -4.215e-6
-1.085, -3.810e-6
-1.084, -3.968e-6
-1.083, -3.968e-6
-1.082, -3.938e-6
-1.081, -4.195e-6
-1.080, -4.077e-6
-1.079, -3.800e-6
-1.078, -4.343e-6
-1.077, -3.840e-6
-1.076, -4.294e-6
-1.075, -4.027e-6
-1.074, -4.096e-6
-1.073, -3.988e-6
-1.072, -3.958e-6
-1.071, -4.323e-6
-1.070, -3.879e-6
-1.069, -3.978e-6
-1.068, -4.106e-6
-1.067, -4.165e-6
-1.066, -4.195e-6
-1.065, -4.165e-6
-1.064, -4.017e-6
-1.063, -4.156e-6
-1.062, -4.126e-6
-1.061, -3.978e-6
-1.060, -3.988e-6
-1.059, -4.057e-6
-1.058, -4.234e-6
-1.057, -4.096e-6
-1.056, -4.392e-6
-1.055, -4.175e-6
-1.054, -4.205e-6
-1.053, -4.215e-6
-1.052, -3.840e-6
-1.051, -4.304e-6
-1.050, -4.037e-6
-1.049, -4.254e-6
-1.048, -4.234e-6
-1.047, -4.146e-6
-1.046, -3.958e-6
-1.045, -4.017e-6
-1.044, -4.086e-6
-1.043, -4.353e-6
-1.042, -4.126e-6
-1.041, -4.412e-6
-1.040, -4.294e-6
-1.039, -4.156e-6
-1.038, -4.244e-6
-1.037, -4.264e-6
-1.036, -4.392e-6
-1.035, -4.215e-6
-1.034, -4.402e-6
-1.033, -4.432e-6
-1.032, -4.077e-6
-1.031, -4.412e-6
-1.030, -4.373e-6
-1.029, -4.077e-6
-1.028, -4.432e-6
-1.027, -4.175e-6
-1.026, -4.274e-6
-1.025, -4.442e-6
-1.024, -4.304e-6
-1.023, -4.530e-6
-1.022, -4.274e-6
-1.021, -4.382e-6
-1.020, -4.294e-6
-1.019, -4.195e-6
-1.018, -4.521e-6
-1.017, -4.304e-6
-1.016, -4.481e-6
-1.015, -4.254e-6
-1.014, -4.580e-6
-1.013, -4.402e-6
-1.012, -4.254e-6
-1.011, -4.639e-6
-1.010, -4.452e-6
-1.009, -4.432e-6
-1.008, -4.412e-6
-1.007, -4.442e-6
-1.006, -4.629e-6
-1.005, -4.333e-6
-1.004, -4.491e-6
-1.003, -4.501e-6
-1.002, -4.382e-6
-1.001, -4.481e-6
