Potential V vs RHE, Current mA cm-2
0.4132999999999999,-0.04357310803584313
0.4122999999999999,-0.046529854652561056
0.4112999999999999,-0.048029448630418
0.4102999999999999,-0.04890656963633432
0.4092999999999999,-0.04943001281728438
0.4082999999999999,-0.049811984868247935
0.4072999999999999,-0.05015151558021554
0.4062999999999999,-0.05040616361419126
0.4052999999999999,-0.05060422319617236
0.4042999999999999,-0.05068910587416426
0.4032999999999999,-0.05064666453516831
0.4022999999999999,-0.05054763474417776
0.4012999999999999,-0.050377869388193955
0.4002999999999999,-0.050208104032210155
0.3992999999999999,-0.050052485789225
0.3982999999999999,-0.04989686754623984
0.3972999999999999,-0.049741249303254687
0.3962999999999999,-0.04971295507725739
0.3952999999999999,-0.04958563106026953
0.3942999999999999,-0.04950074838227764
0.39329999999999987,-0.04934513013929248
0.39229999999999987,-0.04916121767031002
0.39129999999999987,-0.04896315808832892
0.39029999999999987,-0.04869436294135456
0.38929999999999987,-0.04842556779438021
0.38829999999999987,-0.04821336109940045
0.38729999999999987,-0.04795871306542474
0.38629999999999987,-0.04781724193543824
0.38529999999999986,-0.04766162369245308
0.38429999999999986,-0.047548446788463886
0.38329999999999986,-0.04742112277147603
0.38229999999999986,-0.04718062185049897
0.38129999999999986,-0.04692597381652327
0.38029999999999986,-0.04668547289554621
0.37929999999999986,-0.0464874133135651
0.37829999999999986,-0.04628935373158401
0.37729999999999986,-0.04599226435861234
0.37629999999999986,-0.045765910550633934
0.37529999999999986,-0.04559614519465013
0.37429999999999986,-0.04544052695166498
0.37329999999999985,-0.045327350047675775
0.37229999999999985,-0.04517173180469062
0.37129999999999985,-0.04505855490070142
0.37029999999999985,-0.04497367222270952
0.36929999999999985,-0.044860495318720314
0.36829999999999985,-0.04471902418873381
0.36729999999999985,-0.044591700171745956
0.36629999999999985,-0.044421934815762155
0.36529999999999985,-0.04423802234677969
0.36429999999999985,-0.044054109877797246
0.36329999999999985,-0.043870197408814794
0.36229999999999984,-0.04370043205283098
0.36129999999999984,-0.04364384360083638
0.36029999999999984,-0.04355896092284448
0.35929999999999984,-0.04353066669684717
0.35829999999999984,-0.04344578401885528
0.35729999999999984,-0.04331846000186742
0.35629999999999984,-0.043219430210876875
0.35529999999999984,-0.043120400419886316
0.35429999999999984,-0.04307795908089037
0.35329999999999984,-0.042922340837905214
0.35229999999999984,-0.042780869707918716
0.35129999999999983,-0.04271013414292545
0.35029999999999983,-0.04261110435193491
0.34929999999999983,-0.042526221673943
0.34829999999999983,-0.0424979274479457
0.34729999999999983,-0.0424979274479457
0.34629999999999983,-0.04251207456094436
0.34529999999999983,-0.04248378033494705
0.34429999999999983,-0.04248378033494705
0.3432999999999998,-0.04251207456094436
0.3422999999999998,-0.04242719188295245
0.3412999999999998,-0.0423564563179592
0.3402999999999998,-0.04228572075296595
0.3392999999999998,-0.042214985187972696
0.3382999999999998,-0.04215839673597809
0.3372999999999998,-0.04208766117098484
0.3362999999999998,-0.04204521983198889
0.3352999999999998,-0.04205936694498754
0.3342999999999998,-0.04205936694498754
0.3332999999999998,-0.04211595539698214
0.3322999999999998,-0.042186690961975394
0.3312999999999998,-0.04224327941396999
0.3302999999999998,-0.04225742652696864
0.3292999999999998,-0.04222913230097135
0.3282999999999998,-0.04225742652696864
0.3272999999999998,-0.042200838074974045
0.3262999999999998,-0.042130102509980796
0.3252999999999999,-0.042016925605991594
0.3242999999999999,-0.042002778492992936
0.3232999999999999,-0.042002778492992936
0.3222999999999999,-0.04208766117098484
0.3212999999999999,-0.042214985187972696
0.3202999999999999,-0.04228572075296595
0.3192999999999999,-0.04239889765695515
0.3182999999999999,-0.0424130447699538
0.3172999999999999,-0.0424130447699538
0.3162999999999999,-0.0424130447699538
0.3152999999999999,-0.0423564563179592
0.3142999999999999,-0.042299867865964604
0.3132999999999999,-0.04225742652696864
0.3122999999999999,-0.04225742652696864
0.3112999999999999,-0.04234230920496055
0.3102999999999999,-0.0423847505439565
0.3092999999999999,-0.04239889765695515
0.3082999999999999,-0.04239889765695515
0.3072999999999999,-0.04245548610894975
0.3062999999999999,-0.042554515899940304
0.3052999999999999,-0.04259695723893625
0.3042999999999999,-0.04262525146493356
0.3032999999999999,-0.042639398577932204
0.3022999999999999,-0.042526221673943
0.3012999999999999,-0.0424696332219484
0.3002999999999999,-0.0423847505439565
0.2992999999999999,-0.04237060343095785
0.2982999999999999,-0.04239889765695515
0.2972999999999999,-0.0424130447699538
0.2962999999999999,-0.04245548610894975
0.2952999999999999,-0.0424979274479457
0.2942999999999999,-0.0424979274479457
0.2932999999999999,-0.04254036878694165
0.2922999999999999,-0.04262525146493356
0.2912999999999999,-0.04268183991692816
0.2902999999999999,-0.04271013414292545
0.2892999999999999,-0.042653545690930855
0.2882999999999999,-0.04261110435193491
0.2872999999999999,-0.042568663012938955
0.2862999999999999,-0.04254036878694165
0.2852999999999999,-0.04254036878694165
0.2842999999999999,-0.042639398577932204
0.2832999999999999,-0.04275257548192141
0.2822999999999999,-0.042809163933916004
0.2812999999999999,-0.042823311046914656
0.2802999999999999,-0.04279501682091736
0.2792999999999999,-0.042780869707918716
0.2782999999999999,-0.04272428125592411
0.2772999999999999,-0.04272428125592411
0.2762999999999999,-0.042738428368922755
0.2752999999999999,-0.04268183991692816
0.2742999999999999,-0.04271013414292545
0.2732999999999999,-0.04279501682091736
0.2722999999999999,-0.04290819372490656
0.2712999999999999,-0.04296478217690116
0.2702999999999999,-0.04299307640289847
0.2692999999999999,-0.04300722351589712
0.26829999999999987,-0.043021370628895765
0.26729999999999987,-0.04296478217690116
0.26629999999999987,-0.04299307640289847
0.26529999999999987,-0.042936487950903865
0.26429999999999987,-0.04289404661190791
0.26329999999999987,-0.042922340837905214
0.26229999999999987,-0.04299307640289847
0.26129999999999987,-0.043092106193889014
0.26029999999999986,-0.04314869464588362
0.25929999999999986,-0.04316284175888227
0.25829999999999986,-0.04317698887188092
0.25729999999999986,-0.04317698887188092
0.25629999999999986,-0.04316284175888227
0.25529999999999986,-0.04314869464588362
0.25429999999999986,-0.04313454753288497
0.25329999999999986,-0.043106253306887665
0.25229999999999986,-0.04313454753288497
0.25129999999999986,-0.04316284175888227
0.25029999999999986,-0.043219430210876875
0.24929999999999986,-0.04326187154987282
0.24829999999999985,-0.04334675422786472
0.24729999999999985,-0.04341748979285798
0.24629999999999985,-0.04348822535785123
0.24529999999999985,-0.04358725514884178
0.24429999999999985,-0.04365799071383503
0.24329999999999985,-0.043742873391826934
0.24229999999999985,-0.043827756069818834
0.24129999999999985,-0.04389849163481209
0.24029999999999985,-0.04398337431280399
0.23929999999999985,-0.04411069832979184
0.23829999999999985,-0.04425216945977835
0.23729999999999984,-0.04456340594574865
0.23629999999999984,-0.04505855490070142
0.23529999999999984,-0.04538393849967037
0.23429999999999984,-0.04558199808165148
0.23329999999999984,-0.04580835188962989
0.23229999999999984,-0.04587908745462314
0.23129999999999984,-0.046162029714596146
0.23029999999999984,-0.046444971974569156
0.22929999999999984,-0.04677035557353812
0.22829999999999984,-0.04715232762450167
0.22729999999999984,-0.047520152562466576
0.22629999999999983,-0.04794456595242609
0.22529999999999983,-0.04841142068138156
0.22429999999999983,-0.048892422523335664
0.22329999999999983,-0.049458307043281684
0.22229999999999983,-0.05003833867622635
0.22129999999999983,-0.05061837030917101
0.22029999999999983,-0.05115596060311973
0.21929999999999983,-0.051651109558072485
0.21829999999999983,-0.05218869985202121
0.21729999999999983,-0.052584819015983414
0.21629999999999983,-0.05305167374493888
0.21529999999999982,-0.053546822699891646
0.21429999999999982,-0.05405611876784306
0.21329999999999982,-0.05456541483579446
0.21229999999999982,-0.05506056379074723
0.21129999999999982,-0.055541565632701344
0.21029999999999982,-0.05593768479666354
0.20929999999999982,-0.05643283375161631
0.20829999999999982,-0.057069453836555574
0.20729999999999982,-0.05767777969549755
0.20629999999999982,-0.057974869068469215
0.20529999999999982,-0.05828610555443951
0.20429999999999982,-0.058215369989446264
0.20329999999999981,-0.05822951710244491
0.2022999999999998,-0.058526606475416576
0.2012999999999998,-0.059106638108361226
0.20029999999999992,-0.0598281408712924
0.19929999999999992,-0.06021011292225596
0.19829999999999992,-0.060507202295227616
0.19729999999999992,-0.06067696765121142
0.19629999999999992,-0.06091746857218847
0.19529999999999992,-0.06117211660616418
0.19429999999999992,-0.06118626371916283
0.19329999999999992,-0.06121455794516014
0.19229999999999992,-0.06125699928415609
0.19129999999999991,-0.06146920597913584
0.1902999999999999,-0.061752148239108844
0.1892999999999999,-0.061879472256096704
0.1882999999999999,-0.06210582606407511
0.1872999999999999,-0.062360474098050823
0.1862999999999999,-0.06270000481001843
0.1852999999999999,-0.06305368263498468
0.1842999999999999,-0.06335077200795634
0.1832999999999999,-0.06360542004193205
0.1822999999999999,-0.06377518539791585
0.1812999999999999,-0.06394495075389965
0.1802999999999999,-0.06410056899688482
0.1792999999999999,-0.06431277569186457
0.1782999999999999,-0.06451083527384567
0.1772999999999999,-0.06475133619482273
0.1762999999999999,-0.06503427845479573
0.1752999999999999,-0.06531722071476874
0.1742999999999999,-0.06557186874874445
0.1732999999999999,-0.06579822255672285
0.1722999999999999,-0.06598213502570531
0.1712999999999999,-0.06642069552866348
0.1702999999999999,-0.06664704933664188
0.1692999999999999,-0.0668168146926257
0.1682999999999999,-0.06702902138760544
0.1672999999999999,-0.06719878674358926
0.1662999999999999,-0.06748172900356225
0.1652999999999999,-0.0677505241505366
0.1642999999999999,-0.06790614239352176
0.1632999999999999,-0.06816079042749747
0.1622999999999999,-0.06841543846147317
0.1612999999999999,-0.06872667494744349
0.1602999999999999,-0.06899547009441785
0.1592999999999999,-0.06925011812839355
0.15829999999999989,-0.06953306038836657
0.15729999999999988,-0.06973111997034764
0.15629999999999988,-0.0699433266653274
0.15529999999999988,-0.07015553336030717
0.15429999999999988,-0.07038188716828557
0.15329999999999988,-0.07067897654125724
0.15229999999999988,-0.07091947746223429
0.15129999999999988,-0.07117412549621
0.15029999999999988,-0.07135803796519245
0.14929999999999988,-0.0716551273381641
0.14829999999999988,-0.07196636382413442
0.14729999999999988,-0.07223515897110877
0.14629999999999987,-0.07254639545707908
0.14529999999999987,-0.07290007328204533
0.14429999999999987,-0.0732254568810143
0.14329999999999987,-0.07357913470598056
0.14229999999999987,-0.07386207696595355
0.14129999999999987,-0.07414501922592658
0.14029999999999987,-0.07447040282489553
0.13929999999999987,-0.0747957864238645
0.13829999999999987,-0.0750787286838375
0.13729999999999987,-0.0754465536218024
0.13629999999999987,-0.07587096701176191
0.13529999999999986,-0.07626708617572413
0.13429999999999986,-0.07667735245268498
0.13329999999999986,-0.0770734716166472
0.13229999999999986,-0.07741300232861481
0.13129999999999986,-0.07776668015358107
0.13029999999999986,-0.07810621086554868
0.12929999999999986,-0.07844574157751628
0.12829999999999986,-0.07881356651548119
0.12729999999999986,-0.0792096856794434
0.12629999999999986,-0.07961995195640426
0.12529999999999986,-0.08003021823336513
0.12429999999999986,-0.08053951430131655
0.12329999999999985,-0.0809780748042747
0.12229999999999985,-0.08138834108123556
0.12129999999999985,-0.08182690158419371
0.12029999999999985,-0.08225131497415322
0.11929999999999985,-0.08261913991211814
0.11829999999999985,-0.083029406189079
0.11729999999999985,-0.08343967246603987
0.11629999999999985,-0.08389238008199668
0.11529999999999985,-0.08431679347195618
0.11429999999999985,-0.08475535397491435
0.11329999999999985,-0.08527879715586441
0.11229999999999984,-0.08578809322381582
0.11129999999999984,-0.08632568351776454
0.11029999999999984,-0.08679253824672
0.10929999999999984,-0.08725939297567546
0.10829999999999984,-0.08772624770463092
0.10729999999999984,-0.08813651398159178
0.10629999999999984,-0.08860336871054725
0.10529999999999984,-0.08908437055250136
0.10429999999999984,-0.08960781373345142
0.10329999999999984,-0.09015955114039878
0.10229999999999984,-0.0906971414343475
0.10129999999999983,-0.09130546729328948
0.10029999999999983,-0.09206941139521659
0.09929999999999983,-0.09264944302816126
0.09829999999999983,-0.09328606311310052
0.09729999999999983,-0.09389438897204248
0.09629999999999983,-0.09451686194398311
0.09529999999999983,-0.09515348202892236
0.09429999999999983,-0.09591742613084948
0.09329999999999983,-0.0966813702327766
0.09229999999999983,-0.09719066630072802
0.09129999999999983,-0.09771410948167808
0.09029999999999982,-0.0983082882276214
0.08929999999999982,-0.09907223232954852
0.08829999999999982,-0.0997654408664824
0.08729999999999982,-0.10054353208140815
0.08629999999999982,-0.10126503484433932
0.08529999999999982,-0.1019016549292786
0.08429999999999982,-0.10262315769220977
0.08329999999999982,-0.10333051334214227
0.08229999999999982,-0.1040944574440694
0.08129999999999982,-0.10492913711098976
0.08029999999999982,-0.10574966966491149
0.07929999999999982,-0.10659849644483052
0.07829999999999981,-0.10736244054675763
0.07729999999999981,-0.10811223753568612
0.07629999999999981,-0.10894691720260646
0.07529999999999992,-0.10983818532152145
0.07429999999999992,-0.11074360055343507
0.07329999999999992,-0.11160657444635275
0.07229999999999992,-0.11249784256526771
0.07129999999999992,-0.11343155202317864
0.07029999999999992,-0.1142379374641017
0.06929999999999992,-0.11505847001802343
0.06829999999999992,-0.1159214439109411
0.06729999999999992,-0.11677027069086011
0.06629999999999991,-0.11763324458377779
0.06529999999999991,-0.11842548291170223
0.06429999999999991,-0.11931675103061717
0.06329999999999991,-0.12030704894052272
0.06229999999999991,-0.12129734685042824
0.06129999999999991,-0.12224520342133782
0.06029999999999991,-0.12322135421824468
0.05929999999999991,-0.12425409346714618
0.05829999999999991,-0.12532927405504357
0.05729999999999991,-0.1263195719649491
0.056299999999999906,-0.12739475255284655
0.055299999999999905,-0.12839919757575072
0.054299999999999904,-0.1293470541466603
0.0532999999999999,-0.13039394050856043
0.0522999999999999,-0.1313700913054673
0.0512999999999999,-0.1322896536503796
0.0502999999999999,-0.13335068712527834
0.0492999999999999,-0.13451075039116767
0.0482999999999999,-0.13568496077005568
0.0472999999999999,-0.13680258269694906
0.0462999999999999,-0.13784946905884918
0.045299999999999896,-0.1389529438727439
0.044299999999999895,-0.1402261840426224
0.043299999999999894,-0.14161260111649018
0.04229999999999989,-0.1427443701563822
0.04129999999999989,-0.14387613919627423
0.04029999999999989,-0.14514937936615277
0.03929999999999989,-0.14642261953603128
0.03829999999999989,-0.14755438857592332
0.03729999999999989,-0.14868615761581536
0.03629999999999989,-0.1501008689156804
0.03529999999999989,-0.1513741090855589
0.034299999999999886,-0.15278882038542396
0.033299999999999885,-0.1540620605553025
0.032299999999999884,-0.155335300725181
0.031299999999999883,-0.15646706976507307
0.030299999999999883,-0.15774030993495158
0.02929999999999988,-0.15901355010483012
0.02829999999999988,-0.16028679027470866
0.02729999999999988,-0.16141855931460067
0.02629999999999988,-0.1626917994844792
0.025299999999999878,-0.16396503965435774
0.024299999999999877,-0.16495533756426325
0.023299999999999876,-0.16608710660415532
0.022299999999999875,-0.16750181790402036
0.021299999999999875,-0.16877505807389886
0.020299999999999874,-0.17004829824377743
0.019299999999999873,-0.17118006728366944
0.018299999999999872,-0.17231183632356148
0.01729999999999987,-0.1737265476234265
0.01629999999999987,-0.17528273005327805
0.01529999999999987,-0.17641449909317006
0.014299999999999868,-0.17768773926304862
0.013299999999999867,-0.17896097943292713
0.012299999999999978,-0.18023421960280567
0.011299999999999866,-0.18164893090267073
0.010299999999999976,-0.18306364220253574
0.009299999999999864,-0.1843368823724143
0.008299999999999974,-0.1860345359322523
0.007299999999999862,-0.18744924723211737
0.006299999999999972,-0.18858101627200938
0.00529999999999986,-0.1899957275718744
0.0042999999999999705,-0.19141043887173945
0.0032999999999998586,-0.19282515017160448
0.0022999999999999687,-0.19438133260145604
0.0012999999999998568,-0.19579604390132105
0.00029999999999996696,-0.1973522263311726
-0.000700000000000145,-0.19876693763103764
-0.0017000000000000348,-0.20018164893090268
-0.0027000000000001467,-0.20145488910078121
-0.0037000000000000366,-0.20301107153063278
-0.0047000000000001485,-0.20470872509047083
-0.005700000000000038,-0.2065478497802954
-0.00670000000000015,-0.2082455033401334
-0.00770000000000004,-0.20966021463999845
-0.008700000000000152,-0.21135786819983648
-0.009700000000000042,-0.21291405062968802
-0.010700000000000154,-0.21447023305953958
-0.011700000000000044,-0.2160264154893911
-0.012700000000000156,-0.21715818452928315
-0.013700000000000045,-0.21857289582914816
-0.014700000000000157,-0.22012907825899972
-0.015700000000000047,-0.22196820294882427
-0.01670000000000016,-0.22338291424868928
-0.01770000000000005,-0.22479762554855431
-0.01870000000000016,-0.22649527910839237
-0.01970000000000005,-0.2276270481482844
-0.020700000000000163,-0.2293247017081224
-0.021700000000000053,-0.23088088413797397
-0.022700000000000164,-0.232578537697812
-0.023700000000000054,-0.23427619125765006
-0.024700000000000166,-0.2359738448174881
-0.025700000000000056,-0.23767149837732615
-0.026700000000000168,-0.2392276808071777
-0.027700000000000058,-0.24163269001694826
-0.02870000000000017,-0.24361328583675934
-0.02970000000000006,-0.24531093939659734
-0.03070000000000017,-0.2471500640864219
-0.03170000000000006,-0.24898918877624646
-0.03270000000000017,-0.250828313466071
-0.03370000000000006,-0.2535162649358146
-0.034700000000000175,-0.25592127414558513
-0.035700000000000065,-0.2580433410953827
-0.03670000000000018,-0.25988246578520724
-0.03770000000000007,-0.2621460038649913
-0.03870000000000018,-0.26455101307476186
-0.03970000000000007,-0.2666730800245595
-0.04070000000000018,-0.2689366181043435
-0.04170000000000007,-0.27105868505414105
-0.04270000000000018,-0.27303928087395213
-0.04370000000000007,-0.27558576121370915
-0.044700000000000184,-0.27841518381343927
-0.045700000000000074,-0.2806787218932233
-0.046700000000000186,-0.28280078884302084
-0.047700000000000076,-0.28506432692280487
-0.04870000000000019,-0.2871863938726024
-0.04970000000000008,-0.28973287421235955
-0.05070000000000019,-0.29199641229214357
-0.05170000000000008,-0.29482583489187364
-0.05270000000000019,-0.29793819975157676
-0.05370000000000008,-0.3004846800913338
-0.05470000000000019,-0.3035970449510369
-0.05570000000000008,-0.3064264675507669
-0.056700000000000195,-0.30883147676053746
-0.057700000000000085,-0.31123648597030806
-0.058700000000000196,-0.31406590857003813
-0.059700000000000086,-0.31632944664982215
-0.0607000000000002,-0.3184515135996197
-0.06170000000000009,-0.32128093619934983
-0.0627000000000002,-0.3251006567089854
-0.06370000000000009,-0.32821302156868853
-0.0647000000000002,-0.3313253864283916
-0.06570000000000009,-0.3348621646780542
-0.0667000000000002,-0.3379745295377573
-0.0677000000000001,-0.34122836552744684
-0.0687000000000002,-0.34490661490709595
-0.0697000000000001,-0.34844339315675854
-0.07070000000000021,-0.3519801714064211
-0.0717000000000001,-0.3552340073961107
-0.07270000000000021,-0.3600440258156518
