Potential V vs RHE, Current mA cm-2
0.013299999999999867,0.5596597902266085
0.012299999999999978,-0.6275659326201303
0.011299999999999866,-1.3183694603442275
0.010299999999999976,-1.8037569073279218
0.009299999999999864,-2.2182673181883774
0.008299999999999974,-2.5747745657543666
0.007299999999999862,-2.864790382226699
0.006299999999999972,-3.0586058303082093
0.00529999999999986,-3.232615320191609
0.0042999999999999705,-3.440577881271769
0.0032999999999998586,-3.6400521745527397
0.0022999999999999687,-3.8098175305365434
0.0012999999999998568,-3.9215797232258818
0.00029999999999996696,-4.0319272046153545
-0.000700000000000145,-4.171983623301993
-0.0017000000000000348,-4.338919556686067
-0.0027000000000001467,-4.46058472847446
-0.0037000000000000366,-4.5369791386671725
-0.0047000000000001485,-4.613373548859885
-0.005700000000000038,-4.733624009348413
-0.00670000000000015,-4.876509850634781
-0.00770000000000004,-4.979783775524929
-0.008700000000000152,-5.044860495318721
-0.009700000000000042,-5.108522503812647
-0.010700000000000154,-5.223114119101715
-0.011700000000000044,-5.344779290890109
-0.012700000000000156,-5.448053215780256
-0.013700000000000045,-5.479176864377286
-0.014700000000000157,-5.5272770485726985
-0.015700000000000047,-5.6192332830639256
-0.01670000000000016,-5.757874990450699
-0.01770000000000005,-5.859734204040981
-0.01870000000000016,-5.892272563937878
-0.01970000000000005,-5.940372748133289
-0.020700000000000163,-6.033743693924381
-0.021700000000000053,-6.155408865712774
-0.022700000000000164,-6.247365100204002
-0.023700000000000054,-6.277074037501167
-0.024700000000000166,-6.326588932996443
-0.025700000000000056,-6.425618723986997
-0.026700000000000168,-6.534551494076605
-0.027700000000000058,-6.618019460768641
-0.02870000000000017,-6.664704933664188
-0.02970000000000006,-6.717049251759194
-0.03070000000000017,-6.818908465349477
-0.03170000000000006,-6.940573637137869
-0.03270000000000017,-7.022626892530043
-0.03370000000000006,-7.062238808926263
-0.034700000000000175,-7.106094859222079
-0.035700000000000065,-7.216442340611552
-0.03670000000000018,-7.343766357599406
-0.03770000000000007,-7.425819612991578
-0.03870000000000018,-7.4767492197867185
-0.03970000000000007,-7.53050824918159
-0.04070000000000018,-7.623879194972683
-0.04170000000000007,-7.755447345860131
-0.04270000000000018,-7.836085889952438
-0.04370000000000007,-7.889844919347309
-0.044700000000000184,-7.950677505241506
-0.045700000000000074,-8.052536718831789
-0.046700000000000186,-8.199666694017752
-0.047700000000000076,-8.284549372009655
-0.04870000000000019,-8.339723112704391
-0.04970000000000008,-8.396311564698992
-0.05070000000000019,-8.491097221789948
-0.05170000000000008,-8.628324217876859
-0.05270000000000019,-8.727354008867412
-0.05370000000000008,-8.791016017361338
-0.05470000000000019,-8.87306927275351
-0.05570000000000008,-8.980587331543253
-0.056700000000000195,-9.123473172829621
-0.057700000000000085,-9.218258829920579
-0.058700000000000196,-9.26635901411599
-0.059700000000000086,-9.359729959907083
-0.0607000000000002,-9.48280984299534
-0.06170000000000009,-9.63701337468063
-0.0627000000000002,-9.760093257768888
-0.06370000000000009,-9.818096421063354
-0.0647000000000002,-9.898734965155663
-0.06570000000000009,-10.040206095142164
-0.0667000000000002,-10.185921359028264
-0.0677000000000001,-10.299098263017466
-0.0687000000000002,-10.37832209580991
-0.0697000000000001,-10.470278330301136
-0.07070000000000021,-10.606090615088178
-0.0717000000000001,-10.760294146773468
-0.07270000000000021,-10.869226916863076
-0.0737000000000001,-10.95410959485498
-0.07470000000000021,-11.038992272846881
-0.0757000000000001,-11.198854649731631
-0.07670000000000021,-11.36437587181584
-0.0777000000000001,-11.490285177503829
-0.07870000000000021,-11.582241411995057
-0.0797000000000001,-11.688344759484933
-0.08070000000000022,-11.845377713769953
-0.0817000000000001,-12.015143069753755
-0.08270000000000022,-12.131149396342689
-0.08370000000000011,-12.228764476033378
-0.08470000000000022,-12.34760022522204
-0.08570000000000011,-12.500389045607465
-0.08670000000000022,-12.672983824190998
-0.08770000000000011,-12.831431489775884
-0.08870000000000022,-12.953096661564276
-0.08970000000000011,-13.06061472035402
-0.09070000000000022,-13.189353448641736
-0.09170000000000011,-13.340727557727297
-0.09270000000000023,-13.469466286015015
-0.09370000000000012,-13.596790303002868
-0.09470000000000023,-13.734017299089775
-0.09570000000000012,-13.941979860169937
-0.09670000000000023,-14.161260111649016
-0.09770000000000012,-14.288584128636872
-0.09870000000000023,-14.387613919627421
-0.09970000000000012,-14.529085049613924
-0.10070000000000023,-14.71299751859638
-0.10170000000000012,-14.911057100577487
-0.10270000000000024,-15.06667534356264
-0.10370000000000013,-15.193999360550496
-0.10470000000000024,-15.335470490536997
-0.10570000000000013,-15.547677185516752
-0.10670000000000024,-15.731589654499205
-0.10770000000000013,-15.901355010483012
-0.10870000000000024,-16.04282614046952
-0.10970000000000013,-16.19844438345467
-0.11070000000000024,-16.396503965435777
-0.11170000000000013,-16.60871066041553
-0.11270000000000002,-16.778476016399335
-0.11370000000000013,-16.93409425938449
-0.11470000000000002,-17.07556538937099
-0.11570000000000014,-17.28777208435075
-0.11670000000000003,-17.514125892329155
-0.11770000000000014,-17.683891248312957
-0.11870000000000003,-17.825362378299463
-0.11970000000000014,-17.980980621284615
-0.12070000000000003,-18.207334429263025
-0.12170000000000014,-18.461982463238726
-0.12270000000000003,-18.631747819222536
-0.12370000000000014,-18.78736606220769
-0.12470000000000003,-18.97127853119014
-0.12570000000000014,-19.211779452167196
-0.12670000000000003,-19.452280373144255
-0.12770000000000015,-19.622045729128057
-0.12870000000000004,-19.763516859114564
-0.12970000000000015,-19.93328221509837
-0.13070000000000004,-20.159636023076775
-0.13170000000000015,-20.42843117005113
-0.13270000000000004,-20.612343639033586
-0.13370000000000015,-20.78210899501739
-0.13470000000000004,-20.994315689997144
-0.13570000000000015,-21.248963723972853
-0.13670000000000004,-21.51775887094721
-0.13770000000000016,-21.67337711393236
-0.13870000000000005,-21.814848243918867
-0.13970000000000016,-22.04120205189727
-0.14070000000000005,-22.309997198871628
-0.14170000000000016,-22.564645232847337
-0.14270000000000005,-22.790999040825742
-0.14370000000000016,-22.946617283810895
-0.14470000000000005,-23.15882397879065
-0.14570000000000016,-23.427619125765005
-0.14670000000000005,-23.696414272739364
-0.14770000000000016,-23.92276808071777
-0.14870000000000005,-24.120827662698876
-0.14970000000000017,-24.33303435767863
-0.15070000000000006,-24.601829504652986
-0.15170000000000017,-24.870624651627345
-0.15270000000000006,-25.09697845960575
-0.15370000000000017,-25.280890928588207
-0.15470000000000006,-25.507244736566612
-0.15570000000000017,-25.80433410953827
-0.15670000000000006,-26.101423482509926
-0.15770000000000017,-26.356071516485635
-0.15870000000000006,-26.568278211465387
-0.15970000000000018,-26.837073358439746
-0.16070000000000007,-27.1058685054141
-0.16170000000000018,-27.40295787838576
-0.16270000000000007,-27.65760591236147
-0.16370000000000018,-27.898106833338524
-0.16470000000000007,-28.15275486731423
-0.16570000000000018,-28.44984424028589
-0.16670000000000007,-28.80352206525215
-0.16770000000000018,-29.072317212226505
-0.16870000000000007,-29.32696524620221
-0.16970000000000018,-29.72308441016442
-0.17070000000000007,-30.11920357412663
-0.17170000000000019,-30.345557382105042
-0.17270000000000008,-30.54361696408614
-0.1737000000000002,-30.769970772064546
-0.17470000000000008,-31.109501484032155
-0.1757000000000002,-31.47732642199707
-0.17670000000000008,-31.83100424696332
-0.1777000000000002,-32.07150516794038
-0.17870000000000008,-32.340300314914735
-0.1797000000000002,-32.693978139881004
-0.18070000000000008,-33.06180307784591
-0.1817000000000002,-33.50036358080407
-0.18270000000000008,-33.85404140577033
-0.1837000000000002,-34.13698366574334
-0.1847000000000001,-34.47651437771095
-0.1857000000000002,-34.84433931567585
-0.1867000000000001,-35.198017140642115
-0.1877000000000002,-35.55169496560837
-0.1887000000000001,-35.848784338580025
-0.1897000000000002,-36.230756389543586
-0.1907000000000001,-36.64102266650445
-0.1917000000000001,-37.07958316946261
-0.19269999999999998,-37.46155522042617
-0.1937000000000001,-37.82938015839108
-0.19469999999999998,-38.23964643535194
-0.1957000000000001,-38.734795390304704
-0.19669999999999999,-39.130914554266916
-0.1977000000000001,-39.48459237923317
-0.1987,-39.92315288219133
-0.1997000000000001,-40.33341915915219
-0.2007,-40.75783254911171
-0.2017000000000001,-41.23883439106582
-0.2027,-41.66324778102533
-0.2037000000000001,-42.073514057986195
-0.2047,-42.4696332219484
-0.2057000000000001,-42.92234083790521
-0.2067,-43.41748979285798
-0.2077000000000001,-43.85605029581614
-0.2087,-44.3229050247716
-0.2097000000000001,-44.80390686672572
-0.2107,-45.35564427367308
-0.2117000000000001,-45.83664611562718
-0.2127,-46.02055858460964
-0.2137000000000001,-46.3176479575813
-0.2147,-46.85523825153001
-0.2157000000000001,-47.46356411047198
-0.2167,-48.057742856415295
-0.21770000000000012,-48.63777448935996
-0.2187,-49.13292344431272
-0.21970000000000012,-49.642219512264134
-0.2207,-50.12322135421825
-0.22170000000000012,-50.61837030917101
-0.2227,-51.085225038126474
-0.22370000000000012,-51.55207976708194
-0.2247,-52.11796428702795
-0.22570000000000012,-52.74043725896857
-0.2267,-53.32046889191324
-0.22770000000000012,-53.815617846866
-0.22870000000000001,-54.2966196888201
-0.22970000000000013,-54.82006286977017
-0.23070000000000002,-55.400094502714836
-0.23170000000000013,-55.96597902266086
-0.23270000000000002,-56.546010655605514
-0.23370000000000013,-57.182630740544774
-0.23470000000000002,-57.8051037124854
-0.23570000000000013,-58.34269400643411
-0.23670000000000002,-58.82369584838823
-0.2376999999999999,-59.36128614233694
-0.23870000000000002,-59.842287984291055
-0.2396999999999999,-60.37987827823977
-0.24070000000000003,-60.93161568518713
-0.24169999999999991,-61.525794431130436
-0.24270000000000003,-62.06338472507916
-0.24369999999999992,-62.58682790602922
-0.24470000000000003,-63.15271242597524
-0.24569999999999992,-63.5063902509415
-0.24670000000000003,-64.05812765788886
-0.24769999999999992,-64.36936414385917
-0.24870000000000003,-64.77963042082003
-0.24969999999999992,-65.48698607075255
-0.25070000000000003,-66.02457636470128
-0.2516999999999999,-66.70363778863647
-0.25270000000000004,-67.2695223085825
-0.2536999999999999,-67.70808281154066
-0.25470000000000004,-68.0900548625042
-0.2556999999999999,-68.55690959145967
-0.25670000000000004,-69.0096172074165
-0.25769999999999993,-69.3774421453814
-0.25870000000000004,-69.8301497613382
-0.25969999999999993,-70.43847562028017
-0.26070000000000004,-71.01850725322484
-0.26169999999999993,-71.57024466017221
-0.26270000000000004,-71.7965984681506
-0.26369999999999993,-72.03709938912766
-0.26470000000000005,-72.43321855308989
-0.26569999999999994,-72.8859261690467
-0.26670000000000005,-73.40936934999675
-0.26769999999999994,-73.76304717496302
-0.26870000000000005,-74.13087211292792
-0.26969999999999994,-74.54113838988879
-0.27070000000000005,-74.95140466684964
-0.27169999999999994,-75.2484940398213
-0.27270000000000005,-75.48899496079835
-0.27369999999999994,-75.64461320378352
-0.27470000000000006,-75.92755546375653
-0.27569999999999995,-76.26708617572413
-0.27670000000000006,-76.46514575770523
-0.27769999999999995,-76.66320533968634
-0.27870000000000006,-76.80467646967284
-0.27969999999999995,-77.0168831646526
-0.28070000000000006,-77.32811965062291
-0.28169999999999995,-77.49788500660672
-0.28270000000000006,-77.58276768459861
-0.28369999999999995,-77.7242388145851
-0.28470000000000006,-77.8940041705689
-0.28569999999999995,-78.07791663955136
-0.28670000000000007,-78.24768199553519
-0.28769999999999996,-78.24768199553519
-0.28870000000000007,-78.27597622153247
-0.28969999999999996,-78.31841756052843
-0.29070000000000007,-78.30427044752979
-0.29169999999999996,-78.40330023852034
-0.29270000000000007,-78.44574157751629
-0.29369999999999996,-78.20524065653922
-0.2947000000000001,-78.31841756052843
-0.29569999999999996,-78.41744735151899
-0.2967000000000001,-78.31841756052843
-0.29769999999999996,-78.21938776953787
-0.2987000000000001,-78.07791663955136
-0.29969999999999997,-77.92229839656622
-0.3007000000000001,-77.80912149257702
-0.30169999999999997,-77.63935613659322
-0.3027000000000001,-77.35641387662021
-0.30369999999999997,-77.0734716166472
-0.3047000000000001,-76.88955914766474
-0.30569999999999997,-76.69149956568363
-0.3067000000000001,-76.45099864470659
-0.3077,-76.16805638473357
-0.3087000000000001,-75.77193722077136
-0.3097,-75.4182593958051
-0.3107000000000001,-75.19190558782671
-0.3117,-74.93725755385098
-0.3127000000000001,-74.69675663287394
-0.3137,-74.22990190391847
-0.3147000000000001,-73.59328181897921
-0.3157,-73.2820453330089
-0.3167000000000001,-72.98495596003725
-0.3177,-72.56054257007773
-0.3187000000000001,-72.15027629311687
-0.3197,-71.72586290315735
-0.3207000000000001,-71.27315528720055
-0.3217,-70.8345947842424
-0.3227000000000001,-70.25456315129772
-0.3237,-69.71697285734902
-0.3247000000000001,-69.30670658038814
-0.3257,-68.89644030342728
-0.3267000000000001,-68.33055578348127
-0.3277,-67.79296548953256
-0.3287000000000001,-67.22708096958654
-0.3297,-66.74607912763243
-0.3307000000000001,-66.33581285067157
-0.3317,-65.8972523477134
-0.3327000000000001,-65.37380916676335
-0.3337,-64.92110155080654
-0.3347000000000001,-64.59571795183757
-0.3357,-64.24204012687132
-0.3367000000000001,-63.8459209629091
-0.3377,-63.46394891194555
-0.3387000000000001,-63.08197686098199
-0.3397,-62.841475940004926
-0.3407000000000001,-62.64341635802381
-0.3417,-62.38876832404812
-0.3427000000000001,-62.233150081062966
-0.3437,-62.14826740307106
-0.3447000000000001,-62.11997317707376
-0.3457,-62.30388564605621
-0.3467000000000001,-62.006796273084554
-0.3477,-61.87947225609671
-0.3487000000000001,-61.87947225609671
-0.3497,-61.9926491600859
-0.3507000000000001,-62.13412029007241
-0.3517,-62.30388564605621
-0.3527000000000001,-62.459503889041365
-0.3537,-62.61512213202652
-0.3547000000000001,-62.855623053003576
-0.3557,-63.13856531297658
-0.35670000000000013,-63.39321334695229
-0.3577,-63.6761556069253
-0.35870000000000013,-64.02983343189156
-0.3597,-64.42595259585376
-0.36070000000000013,-64.83621887281464
-0.3617,-65.2464851497755
-0.3626999999999999,-65.62845720073905
-0.3637,-66.05287059069857
-0.3646999999999999,-66.54801954565133
-0.3657,-67.07146272660138
-0.3666999999999999,-67.6656414725447
-0.3677,-68.17493754049613
-0.3686999999999999,-68.79741051243674
-0.36970000000000003,-69.41988348437735
-0.3706999999999999,-70.08479779531392
-0.37170000000000003,-70.70727076725453
-0.3726999999999999,-71.28730240019921
-0.37370000000000003,-71.92392248513846
-0.3746999999999999,-72.64542524806963
-0.37570000000000003,-73.31033955900621
-0.3766999999999999,-73.98940098294142
-0.37770000000000004,-74.68260951987529
-0.3786999999999999,-75.4182593958051
-0.37970000000000004,-76.19635061073087
-0.3806999999999999,-77.03103027765125
-0.38170000000000004,-77.68179747558916
-0.38269999999999993,-78.20524065653922
-0.38370000000000004,-78.96918475846634
-0.38469999999999993,-79.7755701993894
-0.38570000000000004,-80.69513254430169
-0.38669999999999993,-79.78971731238806
-0.38570000000000004,-77.61106191059591
-0.38469999999999993,-75.81437855976732
-0.38370000000000004,-74.32893169490903
-0.38269999999999993,-72.84348483005074
-0.38170000000000004,-71.6268331121668
-0.3806999999999999,-70.43847562028017
-0.37970000000000004,-69.27841235439085
-0.3786999999999999,-68.17493754049613
-0.37770000000000004,-67.00072716160814
-0.3766999999999999,-65.76992833072556
-0.37570000000000003,-64.56742372584027
-0.3746999999999999,-63.40736045995095
-0.37370000000000003,-62.31803275905487
-0.3726999999999999,-61.228705058158795
-0.37170000000000003,-60.16767158326001
-0.3706999999999999,-59.09249099536258
-0.36970000000000003,-57.96072195547055
-0.3686999999999999,-56.956276932566375
-0.3677,-56.03671458765411
-0.3666999999999999,-55.032269564749924
-0.3657,-53.971236089851146
-0.3646999999999999,-52.938496840949675
-0.3637,-52.0189344960374
-0.3626999999999999,-51.042783699130524
-0.3617,-50.0807800152223
-0.36070000000000013,-49.13292344431272
-0.3597,-48.2275082123991
-0.35870000000000013,-47.32209298048547
-0.3577,-46.45911908756781
-0.35670000000000013,-45.53955674265553
-0.3557,-44.634141510741905
-0.3547000000000001,-43.79946184382153
-0.3537,-42.89404661190791
-0.3527000000000001,-42.03107271899024
-0.3517,-41.22468727806717
-0.3507000000000001,-40.460743176140056
-0.3497,-39.61191639622103
-0.3487000000000001,-38.81967806829661
-0.3477,-38.08402819236679
-0.3467000000000001,-37.291789864442364
-0.3457,-36.48540442351929
-0.3447000000000001,-35.74975454758948
-0.3437,-35.014104671659666
-0.3427000000000001,-34.34919036072309
-0.3417,-33.61354048479327
-0.3407000000000001,-32.821302156868846
-0.3397,-32.14224073293363
-0.3387000000000001,-31.519767760993016
-0.3377,-30.854853450056453
-0.3367000000000001,-30.11920357412663
-0.3357,-29.411847924194117
-0.3347000000000001,-28.732786500258893
-0.3337,-28.12446064131693
-0.3327000000000001,-27.459546330380363
-0.3317,-26.837073358439746
-0.3307000000000001,-26.15801193450453
-0.3297,-25.549686075562565
-0.3287000000000001,-24.969654442617898
-0.3277,-24.37547569667458
-0.3267000000000001,-23.767149837732617
-0.3257,-23.1729710917893
-0.3247000000000001,-22.621233684841933
-0.3237,-22.097790503891872
-0.3227000000000001,-21.61678866193776
-0.3217,-21.065051254990397
-0.3207000000000001,-20.499166735044383
-0.3197,-19.947429328097016
-0.3187000000000001,-19.466427486142905
-0.3177,-19.01371987018609
-0.3167000000000001,-18.504423802234676
-0.3157,-17.966833508285966
-0.3147000000000001,-17.45753744033455
-0.3137,-17.018976937376394
-0.3127000000000001,-16.60871066041553
-0.3117,-16.170150157457368
-0.3107000000000001,-15.660854089505953
-0.3097,-15.208146473549144
-0.3087000000000001,-14.812027309586934
-0.3077,-14.430055258623375
-0.3067000000000001,-13.990080044365348
-0.30569999999999997,-13.52746944930948
-0.3047000000000001,-13.11154432714916
-0.30369999999999997,-12.773428326481417
-0.3027000000000001,-12.421165212815023
-0.30169999999999997,-12.020801914953216
-0.3007000000000001,-11.590729679794245
-0.29969999999999997,-11.24129598872758
-0.2987000000000001,-10.937133059256597
-0.29769999999999996,-10.607505326388045
-0.2967000000000001,-10.208556739826104
-0.29569999999999996,-9.819511132363221
-0.2947000000000001,-9.472906863896286
-0.29369999999999996,-9.189964603923277
-0.29270000000000007,-8.894289942251486
-0.29169999999999996,-8.557588652883606
-0.29070000000000007,-8.203910827917348
-0.28969999999999996,-7.8827713628479845
-0.28870000000000007,-7.622464483672818
-0.28769999999999996,-7.370645872296841
-0.28670000000000007,-7.059409386326533
-0.28569999999999995,-6.7340257873575755
-0.28470000000000006,-6.449668816084703
-0.28369999999999995,-6.213412029007241
-0.28270000000000006,-5.99413177752816
-0.28169999999999995,-5.704115961055828
-0.28070000000000006,-5.391464763785655
-0.27969999999999995,-5.133987307210218
-0.27870000000000006,-4.924610034830192
-0.27769999999999995,-4.719476896349762
-0.27670000000000006,-4.4648288623740555
-0.27569999999999995,-4.187545447600509
-0.27470000000000006,-3.965435773521698
-0.27369999999999994,-3.7631320576409975
-0.27270000000000005,-3.572146032159218
-0.27169999999999994,-3.3415480902812167
-0.27070000000000005,-3.08124121110605
-0.26969999999999994,-2.8718639387260247
-0.26870000000000005,-2.706342716641815
-0.26769999999999994,-2.5351626493581456
-0.26670000000000005,-2.3116382639794697
-0.26569999999999994,-2.082455033401334
-0.26470000000000005,-1.890054296619689
