Jan. 15, 2025   22:51:46
Cyclic Voltammetry
File: c:/users/guazh/data/banditlqround7_x0exp772_r5/2025-01-10-exp857\exp857-2025-01-15t22_42_36-h2koh\exp857_cv_sr_50mvs_efin_-1500mv.bin
Data Source:  Experiment
Instrument Model:  CHI760E
Header: CV ran at 50 mVs
Note: 

Init E (V) = -1
High E (V) = -1
Low E (V) = -1.5
Final E (V) = -1
Init P/N = N
Scan Rate (V/s) = 0.05
Segment = 3
Sample Interval (V) = 0.001
Quiet Time (sec) = 2
Sensitivity (A/V) = 0.01
Comp R (ohm) = 1.7

Results:

Channel 1:
Segment 1:
Ep = -1.297V
ip = 1.291e-3A
Ah = 1.903e-3C

Segment 2:

Segment 3:

Potential/V, Current/A

-1.000, -8.927e-4
-1.001, -8.277e-4
-1.002, -7.743e-4
-1.003, -7.244e-4
-1.004, -6.829e-4
-1.005, -6.471e-4
-1.006, -6.128e-4
-1.007, -5.792e-4
-1.008, -5.485e-4
-1.009, -5.159e-4
-1.010, -4.860e-4
-1.011, -4.599e-4
-1.012, -4.330e-4
-1.013, -4.054e-4
-1.014, -3.809e-4
-1.015, -3.581e-4
-1.016, -3.354e-4
-1.017, -3.111e-4
-1.018, -2.867e-4
-1.019, -2.648e-4
-1.020, -2.455e-4
-1.021, -2.263e-4
-1.022, -2.051e-4
-1.023, -1.839e-4
-1.024, -1.646e-4
-1.025, -1.477e-4
-1.026, -1.316e-4
-1.027, -1.137e-4
-1.028, -9.477e-5
-1.029, -7.847e-5
-1.030, -6.373e-5
-1.031, -4.900e-5
-1.032, -3.330e-5
-1.033, -1.634e-5
-1.034, -1.788e-6
-1.035, 1.097e-5
-1.036, 2.368e-5
-1.037, 3.816e-5
-1.038, 5.315e-5
-1.039, 6.650e-5
-1.040, 7.710e-5
-1.041, 8.813e-5
-1.042, 1.009e-4
-1.043, 1.143e-4
-1.044, 1.262e-4
-1.045, 1.354e-4
-1.046, 1.450e-4
-1.047, 1.568e-4
-1.048, 1.690e-4
-1.049, 1.795e-4
-1.050, 1.882e-4
-1.051, 1.970e-4
-1.052, 2.075e-4
-1.053, 2.184e-4
-1.054, 2.274e-4
-1.055, 2.346e-4
-1.056, 2.421e-4
-1.057, 2.521e-4
-1.058, 2.625e-4
-1.059, 2.707e-4
-1.060, 2.781e-4
-1.061, 2.841e-4
-1.062, 2.937e-4
-1.063, 3.037e-4
-1.064, 3.104e-4
-1.065, 3.170e-4
-1.066, 3.239e-4
-1.067, 3.335e-4
-1.068, 3.440e-4
-1.069, 3.513e-4
-1.070, 3.560e-4
-1.071, 3.608e-4
-1.072, 3.690e-4
-1.073, 3.775e-4
-1.074, 3.847e-4
-1.075, 3.904e-4
-1.076, 3.970e-4
-1.077, 4.046e-4
-1.078, 4.133e-4
-1.079, 4.205e-4
-1.080, 4.248e-4
-1.081, 4.302e-4
-1.082, 4.375e-4
-1.083, 4.457e-4
-1.084, 4.524e-4
-1.085, 4.571e-4
-1.086, 4.630e-4
-1.087, 4.703e-4
-1.088, 4.786e-4
-1.089, 4.854e-4
-1.090, 4.903e-4
-1.091, 4.952e-4
-1.092, 5.032e-4
-1.093, 5.115e-4
-1.094, 5.173e-4
-1.095, 5.223e-4
-1.096, 5.264e-4
-1.097, 5.345e-4
-1.098, 5.427e-4
-1.099, 5.488e-4
-1.100, 5.537e-4
-1.101, 5.604e-4
-1.102, 5.681e-4
-1.103, 5.764e-4
-1.104, 5.819e-4
-1.105, 5.868e-4
-1.106, 5.920e-4
-1.107, 6.004e-4
-1.108, 6.093e-4
-1.109, 6.135e-4
-1.110, 6.160e-4
-1.111, 6.203e-4
-1.112, 6.301e-4
-1.113, 6.402e-4
-1.114, 6.483e-4
-1.115, 6.535e-4
-1.116, 6.598e-4
-1.117, 6.656e-4
-1.118, 6.745e-4
-1.119, 6.824e-4
-1.120, 6.864e-4
-1.121, 6.931e-4
-1.122, 7.015e-4
-1.123, 7.106e-4
-1.124, 7.173e-4
-1.125, 7.215e-4
-1.126, 7.284e-4
-1.127, 7.365e-4
-1.128, 7.449e-4
-1.129, 7.540e-4
-1.130, 7.612e-4
-1.131, 7.622e-4
-1.132, 7.703e-4
-1.133, 7.805e-4
-1.134, 7.902e-4
-1.135, 7.975e-4
-1.136, 8.038e-4
-1.137, 8.136e-4
-1.138, 8.235e-4
-1.139, 8.303e-4
-1.140, 8.368e-4
-1.141, 8.442e-4
-1.142, 8.545e-4
-1.143, 8.648e-4
-1.144, 8.727e-4
-1.145, 8.803e-4
-1.146, 8.880e-4
-1.147, 8.981e-4
-1.148, 9.098e-4
-1.149, 9.177e-4
-1.150, 9.240e-4
-1.151, 9.325e-4
-1.152, 9.423e-4
-1.153, 9.534e-4
-1.154, 9.623e-4
-1.155, 9.706e-4
-1.156, 9.808e-4
-1.157, 9.922e-4
-1.158, 1.004e-3
-1.159, 1.013e-3
-1.160, 1.024e-3
-1.161, 1.033e-3
-1.162, 1.043e-3
-1.163, 1.054e-3
-1.164, 1.065e-3
-1.165, 1.074e-3
-1.166, 1.084e-3
-1.167, 1.098e-3
-1.168, 1.110e-3
-1.169, 1.120e-3
-1.170, 1.128e-3
-1.171, 1.139e-3
-1.172, 1.152e-3
-1.173, 1.165e-3
-1.174, 1.175e-3
-1.175, 1.186e-3
-1.176, 1.192e-3
-1.177, 1.204e-3
-1.178, 1.218e-3
-1.179, 1.231e-3
-1.180, 1.246e-3
-1.181, 1.257e-3
-1.182, 1.271e-3
-1.183, 1.287e-3
-1.184, 1.298e-3
-1.185, 1.309e-3
-1.186, 1.321e-3
-1.187, 1.335e-3
-1.188, 1.350e-3
-1.189, 1.363e-3
-1.190, 1.375e-3
-1.191, 1.388e-3
-1.192, 1.404e-3
-1.193, 1.422e-3
-1.194, 1.436e-3
-1.195, 1.445e-3
-1.196, 1.458e-3
-1.197, 1.475e-3
-1.198, 1.492e-3
-1.199, 1.507e-3
-1.200, 1.520e-3
-1.201, 1.534e-3
-1.202, 1.553e-3
-1.203, 1.568e-3
-1.204, 1.584e-3
-1.205, 1.610e-3
-1.206, 1.615e-3
-1.207, 1.625e-3
-1.208, 1.645e-3
-1.209, 1.665e-3
-1.210, 1.687e-3
-1.211, 1.699e-3
-1.212, 1.713e-3
-1.213, 1.733e-3
-1.214, 1.747e-3
-1.215, 1.764e-3
-1.216, 1.778e-3
-1.217, 1.797e-3
-1.218, 1.817e-3
-1.219, 1.834e-3
-1.220, 1.850e-3
-1.221, 1.869e-3
-1.222, 1.890e-3
-1.223, 1.909e-3
-1.224, 1.925e-3
-1.225, 1.943e-3
-1.226, 1.961e-3
-1.227, 1.984e-3
-1.228, 2.000e-3
-1.229, 2.015e-3
-1.230, 2.045e-3
-1.231, 2.074e-3
-1.232, 2.084e-3
-1.233, 2.098e-3
-1.234, 2.118e-3
-1.235, 2.138e-3
-1.236, 2.158e-3
-1.237, 2.183e-3
-1.238, 2.203e-3
-1.239, 2.222e-3
-1.240, 2.235e-3
-1.241, 2.255e-3
-1.242, 2.280e-3
-1.243, 2.299e-3
-1.244, 2.318e-3
-1.245, 2.335e-3
-1.246, 2.357e-3
-1.247, 2.381e-3
-1.248, 2.400e-3
-1.249, 2.423e-3
-1.250, 2.441e-3
-1.251, 2.460e-3
-1.252, 2.484e-3
-1.253, 2.506e-3
-1.254, 2.525e-3
-1.255, 2.545e-3
-1.256, 2.567e-3
-1.257, 2.592e-3
-1.258, 2.611e-3
-1.259, 2.628e-3
-1.260, 2.649e-3
-1.261, 2.671e-3
-1.262, 2.695e-3
-1.263, 2.715e-3
-1.264, 2.731e-3
-1.265, 2.750e-3
-1.266, 2.771e-3
-1.267, 2.792e-3
-1.268, 2.811e-3
-1.269, 2.828e-3
-1.270, 2.847e-3
-1.271, 2.863e-3
-1.272, 2.883e-3
-1.273, 2.900e-3
-1.274, 2.922e-3
-1.275, 2.936e-3
-1.276, 2.945e-3
-1.277, 2.961e-3
-1.278, 2.980e-3
-1.279, 2.990e-3
-1.280, 2.990e-3
-1.281, 2.998e-3
-1.282, 3.018e-3
-1.283, 3.040e-3
-1.284, 3.049e-3
-1.285, 3.057e-3
-1.286, 3.068e-3
-1.287, 3.075e-3
-1.288, 3.086e-3
-1.289, 3.089e-3
-1.290, 3.097e-3
-1.291, 3.100e-3
-1.292, 3.103e-3
-1.293, 3.112e-3
-1.294, 3.109e-3
-1.295, 3.108e-3
-1.296, 3.113e-3
-1.297, 3.117e-3
-1.298, 3.116e-3
-1.299, 3.110e-3
-1.300, 3.103e-3
-1.301, 3.095e-3
-1.302, 3.086e-3
-1.303, 3.080e-3
-1.304, 3.066e-3
-1.305, 3.053e-3
-1.306, 3.040e-3
-1.307, 3.035e-3
-1.308, 3.029e-3
-1.309, 3.012e-3
-1.310, 2.987e-3
-1.311, 2.971e-3
-1.312, 2.956e-3
-1.313, 2.937e-3
-1.314, 2.916e-3
-1.315, 2.892e-3
-1.316, 2.871e-3
-1.317, 2.843e-3
-1.318, 2.820e-3
-1.319, 2.805e-3
-1.320, 2.778e-3
-1.321, 2.754e-3
-1.322, 2.724e-3
-1.323, 2.705e-3
-1.324, 2.681e-3
-1.325, 2.652e-3
-1.326, 2.618e-3
-1.327, 2.594e-3
-1.328, 2.563e-3
-1.329, 2.534e-3
-1.330, 2.509e-3
-1.331, 2.480e-3
-1.332, 2.459e-3
-1.333, 2.432e-3
-1.334, 2.399e-3
-1.335, 2.372e-3
-1.336, 2.342e-3
-1.337, 2.321e-3
-1.338, 2.302e-3
-1.339, 2.272e-3
-1.340, 2.260e-3
-1.341, 2.239e-3
-1.342, 2.212e-3
-1.343, 2.195e-3
-1.344, 2.186e-3
-1.345, 2.174e-3
-1.346, 2.167e-3
-1.347, 2.157e-3
-1.348, 2.148e-3
-1.349, 2.142e-3
-1.350, 2.136e-3
-1.351, 2.130e-3
-1.352, 2.130e-3
-1.353, 2.128e-3
-1.354, 2.125e-3
-1.355, 2.128e-3
-1.356, 2.130e-3
-1.357, 2.131e-3
-1.358, 2.136e-3
-1.359, 2.141e-3
-1.360, 2.146e-3
-1.361, 2.154e-3
-1.362, 2.166e-3
-1.363, 2.178e-3
-1.364, 2.187e-3
-1.365, 2.198e-3
-1.366, 2.209e-3
-1.367, 2.223e-3
-1.368, 2.239e-3
-1.369, 2.250e-3
-1.370, 2.263e-3
-1.371, 2.280e-3
-1.372, 2.302e-3
-1.373, 2.319e-3
-1.374, 2.340e-3
-1.375, 2.353e-3
-1.376, 2.376e-3
-1.377, 2.400e-3
-1.378, 2.420e-3
-1.379, 2.441e-3
-1.380, 2.469e-3
-1.381, 2.481e-3
-1.382, 2.530e-3
-1.383, 2.562e-3
-1.384, 2.577e-3
-1.385, 2.595e-3
-1.386, 2.618e-3
-1.387, 2.651e-3
-1.388, 2.684e-3
-1.389, 2.709e-3
-1.390, 2.740e-3
-1.391, 2.771e-3
-1.392, 2.804e-3
-1.393, 2.835e-3
-1.394, 2.865e-3
-1.395, 2.896e-3
-1.396, 2.932e-3
-1.397, 2.969e-3
-1.398, 3.003e-3
-1.399, 3.035e-3
-1.400, 3.063e-3
-1.401, 3.098e-3
-1.402, 3.135e-3
-1.403, 3.178e-3
-1.404, 3.215e-3
-1.405, 3.252e-3
-1.406, 3.291e-3
-1.407, 3.328e-3
-1.408, 3.366e-3
-1.409, 3.407e-3
-1.410, 3.440e-3
-1.411, 3.484e-3
-1.412, 3.525e-3
-1.413, 3.564e-3
-1.414, 3.606e-3
-1.415, 3.646e-3
-1.416, 3.687e-3
-1.417, 3.731e-3
-1.418, 3.775e-3
-1.419, 3.812e-3
-1.420, 3.860e-3
-1.421, 3.907e-3
-1.422, 3.957e-3
-1.423, 3.996e-3
-1.424, 4.038e-3
-1.425, 4.083e-3
-1.426, 4.131e-3
-1.427, 4.179e-3
-1.428, 4.217e-3
-1.429, 4.264e-3
-1.430, 4.313e-3
-1.431, 4.342e-3
-1.432, 4.391e-3
-1.433, 4.450e-3
-1.434, 4.500e-3
-1.435, 4.546e-3
-1.436, 4.593e-3
-1.437, 4.636e-3
-1.438, 4.684e-3
-1.439, 4.725e-3
-1.440, 4.766e-3
-1.441, 4.827e-3
-1.442, 4.875e-3
-1.443, 4.924e-3
-1.444, 4.973e-3
-1.445, 5.024e-3
-1.446, 5.073e-3
-1.447, 5.101e-3
-1.448, 5.140e-3
-1.449, 5.193e-3
-1.450, 5.265e-3
-1.451, 5.324e-3
-1.452, 5.373e-3
-1.453, 5.412e-3
-1.454, 5.472e-3
-1.455, 5.518e-3
-1.456, 5.595e-3
-1.457, 5.636e-3
-1.458, 5.694e-3
-1.459, 5.750e-3
-1.460, 5.805e-3
-1.461, 5.853e-3
-1.462, 5.915e-3
-1.463, 5.972e-3
-1.464, 6.026e-3
-1.465, 6.071e-3
-1.466, 6.112e-3
-1.467, 6.172e-3
-1.468, 6.233e-3
-1.469, 6.291e-3
-1.470, 6.341e-3
-1.471, 6.425e-3
-1.472, 6.495e-3
-1.473, 6.568e-3
-1.474, 6.640e-3
-1.475, 6.721e-3
-1.476, 6.780e-3
-1.477, 6.830e-3
-1.478, 6.909e-3
-1.479, 6.969e-3
-1.480, 6.960e-3
-1.481, 7.020e-3
-1.482, 7.069e-3
-1.483, 7.121e-3
-1.484, 7.180e-3
-1.485, 7.224e-3
-1.486, 7.285e-3
-1.487, 7.358e-3
-1.488, 7.412e-3
-1.489, 7.448e-3
-1.490, 7.510e-3
-1.491, 7.568e-3
-1.492, 7.637e-3
-1.493, 7.696e-3
-1.494, 7.755e-3
-1.495, 7.828e-3
-1.496, 7.868e-3
-1.497, 7.935e-3
-1.498, 7.985e-3
-1.499, 8.023e-3
-1.500, 8.003e-3
-1.499, 7.915e-3
-1.498, 7.828e-3
-1.497, 7.771e-3
-1.496, 7.711e-3
-1.495, 7.632e-3
-1.494, 7.552e-3
-1.493, 7.508e-3
-1.492, 7.412e-3
-1.491, 7.391e-3
-1.490, 7.281e-3
-1.489, 7.214e-3
-1.488, 7.150e-3
-1.487, 7.093e-3
-1.486, 7.034e-3
-1.485, 6.951e-3
-1.484, 6.889e-3
-1.483, 6.820e-3
-1.482, 6.747e-3
-1.481, 6.668e-3
-1.480, 6.642e-3
-1.479, 6.557e-3
-1.478, 6.499e-3
-1.477, 6.441e-3
-1.476, 6.379e-3
-1.475, 6.379e-3
-1.474, 6.296e-3
-1.473, 6.212e-3
-1.472, 6.141e-3
-1.471, 6.079e-3
-1.470, 6.022e-3
-1.469, 5.956e-3
-1.468, 5.888e-3
-1.467, 5.843e-3
-1.466, 5.787e-3
-1.465, 5.728e-3
-1.464, 5.668e-3
-1.463, 5.614e-3
-1.462, 5.597e-3
-1.461, 5.549e-3
-1.460, 5.507e-3
-1.459, 5.417e-3
-1.458, 5.334e-3
-1.457, 5.304e-3
-1.456, 5.248e-3
-1.455, 5.171e-3
-1.454, 5.104e-3
-1.453, 5.054e-3
-1.452, 5.010e-3
-1.451, 4.964e-3
-1.450, 4.900e-3
-1.449, 4.847e-3
-1.448, 4.797e-3
-1.447, 4.741e-3
-1.446, 4.678e-3
-1.445, 4.598e-3
-1.444, 4.560e-3
-1.443, 4.527e-3
-1.442, 4.444e-3
-1.441, 4.452e-3
-1.440, 4.395e-3
-1.439, 4.331e-3
-1.438, 4.258e-3
-1.437, 4.217e-3
-1.436, 4.183e-3
-1.435, 4.129e-3
-1.434, 4.091e-3
-1.433, 4.031e-3
-1.432, 3.983e-3
-1.431, 3.933e-3
-1.430, 3.884e-3
-1.429, 3.858e-3
-1.428, 3.805e-3
-1.427, 3.770e-3
-1.426, 3.712e-3
-1.425, 3.683e-3
-1.424, 3.648e-3
-1.423, 3.566e-3
-1.422, 3.539e-3
-1.421, 3.510e-3
-1.420, 3.461e-3
-1.419, 3.405e-3
-1.418, 3.361e-3
-1.417, 3.314e-3
-1.416, 3.250e-3
-1.415, 3.217e-3
-1.414, 3.172e-3
-1.413, 3.130e-3
-1.412, 3.086e-3
-1.411, 3.040e-3
-1.410, 2.999e-3
-1.409, 2.957e-3
-1.408, 2.907e-3
-1.407, 2.868e-3
-1.406, 2.833e-3
-1.405, 2.797e-3
-1.404, 2.758e-3
-1.403, 2.715e-3
-1.402, 2.676e-3
-1.401, 2.638e-3
-1.400, 2.597e-3
-1.399, 2.560e-3
-1.398, 2.516e-3
-1.397, 2.473e-3
-1.396, 2.426e-3
-1.395, 2.391e-3
-1.394, 2.392e-3
-1.393, 2.321e-3
-1.392, 2.284e-3
-1.391, 2.255e-3
-1.390, 2.228e-3
-1.389, 2.206e-3
-1.388, 2.169e-3
-1.387, 2.116e-3
-1.386, 2.079e-3
-1.385, 2.051e-3
-1.384, 2.020e-3
-1.383, 1.985e-3
-1.382, 1.953e-3
-1.381, 1.919e-3
-1.380, 1.884e-3
-1.379, 1.851e-3
-1.378, 1.821e-3
-1.377, 1.791e-3
-1.376, 1.758e-3
-1.375, 1.725e-3
-1.374, 1.706e-3
-1.373, 1.678e-3
-1.372, 1.647e-3
-1.371, 1.612e-3
-1.370, 1.582e-3
-1.369, 1.552e-3
-1.368, 1.531e-3
-1.367, 1.506e-3
-1.366, 1.465e-3
-1.365, 1.437e-3
-1.364, 1.412e-3
-1.363, 1.385e-3
-1.362, 1.362e-3
-1.361, 1.330e-3
-1.360, 1.303e-3
-1.359, 1.275e-3
-1.358, 1.247e-3
-1.357, 1.223e-3
-1.356, 1.195e-3
-1.355, 1.165e-3
-1.354, 1.147e-3
-1.353, 1.121e-3
-1.352, 1.096e-3
-1.351, 1.070e-3
-1.350, 1.048e-3
-1.349, 1.025e-3
-1.348, 1.007e-3
-1.347, 9.864e-4
-1.346, 9.602e-4
-1.345, 9.388e-4
-1.344, 9.147e-4
-1.343, 8.926e-4
-1.342, 8.699e-4
-1.341, 8.479e-4
-1.340, 8.282e-4
-1.339, 8.093e-4
-1.338, 7.892e-4
-1.337, 7.675e-4
-1.336, 7.454e-4
-1.335, 7.264e-4
-1.334, 7.098e-4
-1.333, 6.907e-4
-1.332, 6.711e-4
-1.331, 6.521e-4
-1.330, 6.353e-4
-1.329, 6.198e-4
-1.328, 6.023e-4
-1.327, 5.831e-4
-1.326, 5.640e-4
-1.325, 5.486e-4
-1.324, 5.330e-4
-1.323, 5.177e-4
-1.322, 4.995e-4
-1.321, 4.813e-4
-1.320, 4.671e-4
-1.319, 4.520e-4
-1.318, 4.378e-4
-1.317, 4.202e-4
-1.316, 4.063e-4
-1.315, 3.907e-4
-1.314, 3.781e-4
-1.313, 3.643e-4
-1.312, 3.504e-4
-1.311, 3.350e-4
-1.310, 3.232e-4
-1.309, 3.123e-4
-1.308, 2.989e-4
-1.307, 2.834e-4
-1.306, 2.688e-4
-1.305, 2.576e-4
-1.304, 2.488e-4
-1.303, 2.376e-4
-1.302, 2.244e-4
-1.301, 2.117e-4
-1.300, 2.009e-4
-1.299, 1.928e-4
-1.298, 1.828e-4
-1.297, 1.689e-4
-1.296, 1.579e-4
-1.295, 1.485e-4
-1.294, 1.398e-4
-1.293, 1.304e-4
-1.292, 1.184e-4
-1.291, 1.076e-4
-1.290, 9.972e-5
-1.289, 9.190e-5
-1.288, 8.328e-5
-1.287, 7.215e-5
-1.286, 6.237e-5
-1.285, 5.501e-5
-1.284, 4.792e-5
-1.283, 3.994e-5
-1.282, 2.987e-5
-1.281, 2.004e-5
-1.280, 1.255e-5
-1.279, 6.815e-6
-1.278, -8.011e-7
-1.277, -9.197e-6
-1.276, -1.799e-5
-1.275, -2.438e-5
-1.274, -2.939e-5
-1.273, -3.656e-5
-1.272, -4.476e-5
-1.271, -5.284e-5
-1.270, -5.847e-5
-1.269, -6.298e-5
-1.268, -6.982e-5
-1.267, -7.765e-5
-1.266, -8.497e-5
-1.265, -9.001e-5
-1.264, -9.512e-5
-1.263, -9.946e-5
-1.262, -1.074e-4
-1.261, -1.138e-4
-1.260, -1.183e-4
-1.259, -1.220e-4
-1.258, -1.275e-4
-1.257, -1.349e-4
-1.256, -1.401e-4
-1.255, -1.441e-4
-1.254, -1.475e-4
-1.253, -1.527e-4
-1.252, -1.588e-4
-1.251, -1.645e-4
-1.250, -1.687e-4
-1.249, -1.723e-4
-1.248, -1.773e-4
-1.247, -1.836e-4
-1.246, -1.882e-4
-1.245, -1.910e-4
-1.244, -1.932e-4
-1.243, -1.981e-4
-1.242, -2.042e-4
-1.241, -2.095e-4
-1.240, -2.125e-4
-1.239, -2.143e-4
-1.238, -2.200e-4
-1.237, -2.256e-4
-1.236, -2.308e-4
-1.235, -2.322e-4
-1.234, -2.339e-4
-1.233, -2.412e-4
-1.232, -2.488e-4
-1.231, -2.501e-4
-1.230, -2.536e-4
-1.229, -2.573e-4
-1.228, -2.610e-4
-1.227, -2.661e-4
-1.226, -2.703e-4
-1.225, -2.737e-4
-1.224, -2.748e-4
-1.223, -2.789e-4
-1.222, -2.840e-4
-1.221, -2.885e-4
-1.220, -2.907e-4
-1.219, -2.936e-4
-1.218, -2.969e-4
-1.217, -3.032e-4
-1.216, -3.080e-4
-1.215, -3.106e-4
-1.214, -3.130e-4
-1.213, -3.165e-4
-1.212, -3.228e-4
-1.211, -3.273e-4
-1.210, -3.296e-4
-1.209, -3.321e-4
-1.208, -3.352e-4
-1.207, -3.431e-4
-1.206, -3.514e-4
-1.205, -3.514e-4
-1.204, -3.519e-4
-1.203, -3.571e-4
-1.202, -3.630e-4
-1.201, -3.684e-4
-1.200, -3.709e-4
-1.199, -3.735e-4
-1.198, -3.784e-4
-1.197, -3.845e-4
-1.196, -3.901e-4
-1.195, -3.926e-4
-1.194, -3.954e-4
-1.193, -4.008e-4
-1.192, -4.082e-4
-1.191, -4.124e-4
-1.190, -4.158e-4
-1.189, -4.195e-4
-1.188, -4.200e-4
-1.187, -4.297e-4
-1.186, -4.440e-4
-1.185, -4.489e-4
-1.184, -4.473e-4
-1.183, -4.532e-4
-1.182, -4.584e-4
-1.181, -4.636e-4
-1.180, -4.681e-4
-1.179, -4.743e-4
-1.178, -4.820e-4
-1.177, -4.907e-4
-1.176, -4.964e-4
-1.175, -5.026e-4
-1.174, -5.090e-4
-1.173, -5.169e-4
-1.172, -5.268e-4
-1.171, -5.343e-4
-1.170, -5.389e-4
-1.169, -5.429e-4
-1.168, -5.521e-4
-1.167, -5.624e-4
-1.166, -5.727e-4
-1.165, -5.789e-4
-1.164, -5.873e-4
-1.163, -5.973e-4
-1.162, -6.080e-4
-1.161, -6.205e-4
-1.160, -6.259e-4
-1.159, -6.357e-4
-1.158, -6.468e-4
-1.157, -6.596e-4
-1.156, -6.710e-4
-1.155, -6.796e-4
-1.154, -6.890e-4
-1.153, -7.020e-4
-1.152, -7.161e-4
-1.151, -7.235e-4
-1.150, -7.432e-4
-1.149, -7.572e-4
-1.148, -7.707e-4
-1.147, -7.767e-4
-1.146, -7.920e-4
-1.145, -8.052e-4
-1.144, -8.185e-4
-1.143, -8.466e-4
-1.142, -8.562e-4
-1.141, -8.682e-4
-1.140, -8.832e-4
-1.139, -8.985e-4
-1.138, -9.169e-4
-1.137, -9.333e-4
-1.136, -9.486e-4
-1.135, -9.634e-4
-1.134, -9.782e-4
-1.133, -9.941e-4
-1.132, -1.011e-3
-1.131, -1.029e-3
-1.130, -1.043e-3
-1.129, -1.058e-3
-1.128, -1.077e-3
-1.127, -1.096e-3
-1.126, -1.114e-3
-1.125, -1.128e-3
-1.124, -1.145e-3
-1.123, -1.160e-3
-1.122, -1.182e-3
-1.121, -1.197e-3
-1.120, -1.216e-3
-1.119, -1.229e-3
-1.118, -1.248e-3
-1.117, -1.268e-3
-1.116, -1.283e-3
-1.115, -1.302e-3
-1.114, -1.316e-3
-1.113, -1.332e-3
-1.112, -1.356e-3
-1.111, -1.374e-3
-1.110, -1.391e-3
-1.109, -1.403e-3
-1.108, -1.423e-3
-1.107, -1.443e-3
-1.106, -1.462e-3
-1.105, -1.476e-3
-1.104, -1.494e-3
-1.103, -1.502e-3
-1.102, -1.524e-3
-1.101, -1.525e-3
-1.100, -1.545e-3
-1.099, -1.576e-3
-1.098, -1.604e-3
-1.097, -1.629e-3
-1.096, -1.652e-3
-1.095, -1.672e-3
-1.094, -1.688e-3
-1.093, -1.705e-3
-1.092, -1.724e-3
-1.091, -1.746e-3
-1.090, -1.762e-3
-1.089, -1.777e-3
-1.088, -1.798e-3
-1.087, -1.816e-3
-1.086, -1.834e-3
-1.085, -1.840e-3
-1.084, -1.867e-3
-1.083, -1.894e-3
-1.082, -1.898e-3
-1.081, -1.912e-3
-1.080, -1.926e-3
-1.079, -1.948e-3
-1.078, -1.963e-3
-1.077, -1.991e-3
-1.076, -2.003e-3
-1.075, -2.017e-3
-1.074, -2.027e-3
-1.073, -2.048e-3
-1.072, -2.064e-3
-1.071, -2.086e-3
-1.070, -2.095e-3
-1.069, -2.113e-3
-1.068, -2.134e-3
-1.067, -2.152e-3
-1.066, -2.162e-3
-1.065, -2.179e-3
-1.064, -2.194e-3
-1.063, -2.210e-3
-1.062, -2.232e-3
-1.061, -2.244e-3
-1.060, -2.260e-3
-1.059, -2.268e-3
-1.058, -2.294e-3
-1.057, -2.307e-3
-1.056, -2.324e-3
-1.055, -2.329e-3
-1.054, -2.346e-3
-1.053, -2.360e-3
-1.052, -2.380e-3
-1.051, -2.397e-3
-1.050, -2.415e-3
-1.049, -2.425e-3
-1.048, -2.438e-3
-1.047, -2.454e-3
-1.046, -2.469e-3
-1.045, -2.484e-3
-1.044, -2.500e-3
-1.043, -2.516e-3
-1.042, -2.525e-3
-1.041, -2.542e-3
-1.040, -2.546e-3
-1.039, -2.560e-3
-1.038, -2.577e-3
-1.037, -2.588e-3
-1.036, -2.605e-3
-1.035, -2.616e-3
-1.034, -2.627e-3
-1.033, -2.646e-3
-1.032, -2.657e-3
-1.031, -2.669e-3
-1.030, -2.679e-3
-1.029, -2.689e-3
-1.028, -2.701e-3
-1.027, -2.713e-3
-1.026, -2.733e-3
-1.025, -2.738e-3
-1.024, -2.736e-3
-1.023, -2.731e-3
-1.022, -2.759e-3
-1.021, -2.791e-3
-1.020, -2.790e-3
-1.019, -2.795e-3
-1.018, -2.805e-3
-1.017, -2.820e-3
-1.016, -2.834e-3
-1.015, -2.837e-3
-1.014, -2.849e-3
-1.013, -2.852e-3
-1.012, -2.866e-3
-1.011, -2.876e-3
-1.010, -2.885e-3
-1.009, -2.897e-3
-1.008, -2.904e-3
-1.007, -2.906e-3
-1.006, -2.916e-3
-1.005, -2.921e-3
-1.004, -2.930e-3
-1.003, -2.942e-3
-1.002, -2.954e-3
-1.001, -2.955e-3
