Potential V vs RHE, Current mA cm-2
0.4132999999999999,0.848260895399076
0.4122999999999999,0.7585681989876326
0.4112999999999999,0.6661875511064458
0.4102999999999999,0.5883784296138688
0.4092999999999999,0.5200478738303875
0.4082999999999999,0.4593567590661774
0.4072999999999999,0.4022024225516299
0.4062999999999999,0.35042398897656957
0.4052999999999999,0.3013335068712528
0.4042999999999999,0.2552139184956526
0.4032999999999999,0.2119237527197825
0.4022999999999999,0.17061418276372342
0.4012999999999999,0.1310305605934997
0.4002999999999999,0.09153182110126787
0.3992999999999999,0.05371658805587544
0.3982999999999999,0.01728777208435075
0.3972999999999999,-0.017202889406358845
0.3962999999999999,-0.05070325298716292
0.3952999999999999,-0.08431679347195618
0.3942999999999999,-0.11672782935186417
0.39329999999999987,-0.14826174422585583
0.39229999999999987,-0.17910245056291366
0.39129999999999987,-0.20909433012005244
0.39029999999999987,-0.2392276808071777
0.38929999999999987,-0.2686536758443705
0.38829999999999987,-0.29708937297165766
0.38729999999999987,-0.3251006567089854
0.38629999999999987,-0.35297046931632664
0.38529999999999986,-0.38055733966369487
0.38429999999999986,-0.40701244097117106
0.38329999999999986,-0.4336090134086337
0.38229999999999986,-0.4593567590661774
0.38129999999999986,-0.4851045047237211
0.38029999999999986,-0.5108522503812647
0.37929999999999986,-0.5360341115188624
0.37829999999999986,-0.5613574437864466
0.37729999999999986,-0.5854075358841522
0.37629999999999986,-0.6100235125018038
0.37529999999999986,-0.6346394891194554
0.37429999999999986,-0.658123696697215
0.37329999999999985,-0.6816079042749748
0.37229999999999985,-0.7041018139428288
0.37129999999999985,-0.7271616081306289
0.37029999999999985,-0.7506458157083884
0.36929999999999985,-0.7728567831162695
0.36829999999999985,-0.7949262793941642
0.36729999999999985,-0.8171372468020451
0.36629999999999985,-0.8392067430799398
0.36529999999999985,-0.8612762393578344
0.36429999999999985,-0.8824969088558098
0.36329999999999985,-0.9038590494837719
0.36229999999999984,-0.9253626612417204
0.36129999999999984,-0.9455930328297906
0.36029999999999984,-0.9669551734577525
0.35929999999999984,-0.9883173140857145
0.35829999999999984,-1.0093965124537037
0.35729999999999984,-1.0304757108216926
0.35629999999999984,-1.0514134380596956
0.35529999999999984,-1.0716438096477652
0.35429999999999984,-1.0917327101058487
0.35329999999999984,-1.1118216105639322
0.35229999999999984,-1.1317690398920295
0.35129999999999983,-1.151292055830167
0.35029999999999983,-1.1719468408081963
0.34929999999999983,-1.191752799006307
0.34829999999999983,-1.2115587572044173
0.34729999999999983,-1.2315061865325145
0.34629999999999983,-1.251312144730625
0.34529999999999983,-1.270693689538776
0.34429999999999983,-1.289226407567008
0.3432999999999998,-1.3086079523751588
0.3422999999999998,-1.3269991992734043
0.3412999999999998,-1.345107503911677
0.3402999999999998,-1.3643475775898415
0.3392999999999998,-1.3820314688381543
0.3382999999999998,-1.4014130136463054
0.3372999999999998,-1.4189554337646317
0.3362999999999998,-1.4373466806628774
0.3352999999999998,-1.4571526388609877
0.3342999999999998,-1.4741291744593683
0.3332999999999998,-1.4925204213576138
0.3322999999999998,-1.510911668255859
0.3312999999999998,-1.5293029151541047
0.3302999999999998,-1.54769416205235
0.3292999999999998,-1.5675001202504606
0.3282999999999998,-1.584476655848841
0.3272999999999998,-1.6014531914472214
0.3262999999999998,-1.6184297270456018
0.3252999999999999,-1.6368209739438475
0.3242999999999999,-1.655212220842093
0.3232999999999999,-1.6721887564404734
0.3222999999999999,-1.6891652920388538
0.3212999999999999,-1.7075565389370995
0.3202999999999999,-1.7259477858353447
0.3192999999999999,-1.7429243214337253
0.3182999999999999,-1.7599008570321055
0.3172999999999999,-1.778292103930351
0.3162999999999999,-1.7980980621284617
0.3152999999999999,-1.813659886426977
0.3142999999999999,-1.8263922881257622
0.3132999999999999,-1.8419541124242775
0.3122999999999999,-1.8589306480226582
0.3112999999999999,-1.8759071836210386
0.3102999999999999,-1.892883719219419
0.3092999999999999,-1.9126896774175295
0.3082999999999999,-1.9296662130159101
0.3072999999999999,-1.9452280373144257
0.3062999999999999,-1.9622045729128061
0.3052999999999999,-1.9777663972113213
0.3042999999999999,-1.9947429328097017
0.3032999999999999,-2.0103047571082175
0.3022999999999999,-2.0272812927065975
0.3012999999999999,-2.044257828304978
0.3002999999999999,-2.0612343639033583
0.2992999999999999,-2.076796188201874
0.2982999999999999,-2.0937727238002544
0.2972999999999999,-2.1093345480987695
0.2962999999999999,-2.12348166109742
0.2952999999999999,-2.1418729079956655
0.2942999999999999,-2.156020020994316
0.2932999999999999,-2.1701671339929662
0.2922999999999999,-2.1871436695913467
0.2912999999999999,-2.204120205189727
0.2902999999999999,-2.2196820294882422
0.2892999999999999,-2.235243853786758
0.2882999999999999,-2.2522203893851382
0.2872999999999999,-2.272026347583249
0.2862999999999999,-2.284758749282034
0.2852999999999999,-2.3003205735805494
0.2842999999999999,-2.318711820478795
0.2832999999999999,-2.3328589334774454
0.2822999999999999,-2.347006046476096
0.2812999999999999,-2.358323736875016
0.2802999999999999,-2.3710561385738016
0.2792999999999999,-2.386617962872317
0.2782999999999999,-2.4035944984706976
0.2772999999999999,-2.420571034069078
0.2762999999999999,-2.437547569667458
0.2752999999999999,-2.4531093939659736
0.2742999999999999,-2.468671218264489
0.2732999999999999,-2.485647753862869
0.2722999999999999,-2.49979486686152
0.2712999999999999,-2.515356691160035
0.2702999999999999,-2.5295038041586855
0.2692999999999999,-2.543650917157336
0.26829999999999987,-2.5606274527557162
0.26729999999999987,-2.5776039883540967
0.26629999999999987,-2.5931658126526123
0.26529999999999987,-2.610142348250993
0.26429999999999987,-2.6257041725495083
0.26329999999999987,-2.639851285548158
0.26229999999999987,-2.655413109846674
0.26129999999999987,-2.6681455115454593
0.26029999999999986,-2.6808779132442444
0.25929999999999986,-2.697854448842625
0.25829999999999986,-2.7148309844410052
0.25729999999999986,-2.7275633861397908
0.25629999999999986,-2.743125210438306
0.25529999999999986,-2.7615164573365516
0.25429999999999986,-2.775663570335202
0.25329999999999986,-2.7869812607341222
0.25229999999999986,-2.8025430850326374
0.25129999999999986,-2.8152754867314234
0.25029999999999986,-2.8280078884302084
0.24929999999999986,-2.8492285579281837
0.24829999999999985,-2.864790382226699
0.24729999999999985,-2.8803522065252145
0.24629999999999985,-2.897328742123595
0.24529999999999985,-2.91289056642211
0.24429999999999985,-2.927037679420761
0.24329999999999985,-2.942599503719276
0.24229999999999985,-2.9539171941181968
0.24129999999999985,-2.9666495958169823
0.24029999999999985,-2.9807967088156326
0.23929999999999985,-2.994943821814283
0.23829999999999985,-3.0119203574126634
0.23729999999999984,-3.024652759111448
0.23629999999999984,-3.043044006009694
0.23529999999999984,-3.0571911190083445
0.23429999999999984,-3.069923520707129
0.23329999999999984,-3.0854853450056448
0.23229999999999984,-3.0996324580042955
0.23129999999999984,-3.113779571002946
0.23029999999999984,-3.1307561066013263
0.22929999999999984,-3.1477326421997063
0.22829999999999984,-3.161879755198357
0.22729999999999984,-3.174612156897142
0.22629999999999983,-3.1901739811956578
0.22529999999999983,-3.208565228093903
0.22429999999999983,-3.2227123410925533
0.22329999999999983,-3.2411035879907995
0.22229999999999983,-3.253835989689584
0.22129999999999983,-3.2665683913883696
0.22029999999999983,-3.279300793087155
0.21929999999999983,-3.2948626173856703
0.21829999999999983,-3.3090097303843207
0.21729999999999983,-3.321742132083106
0.21629999999999983,-3.3373039563816214
0.21529999999999982,-3.347206935480677
0.21429999999999982,-3.362768759779192
0.21329999999999982,-3.381160006677438
0.21229999999999982,-3.3967218309759533
0.21129999999999982,-3.408039521374873
0.21029999999999982,-3.4236013456733887
0.20929999999999982,-3.439163169971904
0.20829999999999982,-3.453310282970554
0.20729999999999982,-3.473116241168665
0.20629999999999982,-3.4858486428674507
0.20529999999999982,-3.4971663332663705
0.20429999999999982,-3.5113134462650213
0.20329999999999981,-3.5268752705635364
0.2022999999999998,-3.542437094862052
0.2012999999999998,-3.557998919160567
0.20029999999999992,-3.572146032159218
0.19929999999999992,-3.586293145157868
0.19829999999999992,-3.6004402581565187
0.19729999999999992,-3.6160020824550334
0.19629999999999992,-3.630149195453684
0.19529999999999992,-3.647125731052064
0.19429999999999992,-3.664102266650445
0.19329999999999992,-3.67966409094896
0.19229999999999992,-3.696640626547341
0.19129999999999991,-3.7122024508458558
0.1902999999999999,-3.7235201412447765
0.1892999999999999,-3.7362525429435625
0.1882999999999999,-3.747570233342482
0.1872999999999999,-3.7617173463411326
0.1862999999999999,-3.7744497480399173
0.1852999999999999,-3.7900115723384333
0.1842999999999999,-3.8041586853370832
0.1832999999999999,-3.818305798335734
0.1822999999999999,-3.8310382000345196
0.1812999999999999,-3.84235589043344
0.1802999999999999,-3.855088292132225
0.1792999999999999,-3.869235405130875
0.1782999999999999,-3.8904560746288515
0.1772999999999999,-3.906017898927366
0.1762999999999999,-3.9201650119260174
0.1752999999999999,-3.9300679910250715
0.1742999999999999,-3.944215104023722
0.1732999999999999,-3.9640210622218324
0.1722999999999999,-3.9781681752204827
0.1712999999999999,-3.992315288219133
0.1702999999999999,-4.007877112517649
0.1692999999999999,-4.023438936816164
0.1682999999999999,-4.03617133851495
0.1672999999999999,-4.050318451513601
0.1662999999999999,-4.067294987111981
0.1652999999999999,-4.078612677510901
0.1642999999999999,-4.091345079209686
0.1632999999999999,-4.113980460007527
0.1622999999999999,-4.1295422843060425
0.1612999999999999,-4.140859974704963
0.1602999999999999,-4.157836510303343
0.1592999999999999,-4.171983623301993
0.15829999999999989,-4.1833013137009125
0.15729999999999988,-4.198863137999429
0.15629999999999988,-4.214424962297944
0.15529999999999988,-4.22715736399673
0.15429999999999988,-4.239889765695515
0.15329999999999988,-4.24979274479457
0.15229999999999988,-4.26393985779322
0.15129999999999988,-4.279501682091736
0.15029999999999988,-4.297892928989982
0.14929999999999988,-4.314869464588361
0.14829999999999988,-4.330431288886877
0.14729999999999988,-4.3403342679859325
0.14629999999999987,-4.351651958384853
0.14529999999999987,-4.367213782683368
0.14429999999999987,-4.379946184382153
0.14329999999999987,-4.391263874781075
0.14229999999999987,-4.411069832979184
0.14129999999999987,-4.426631657277699
0.14029999999999987,-4.4393640589764845
0.13929999999999987,-4.450681749375406
0.13829999999999987,-4.463414151074191
0.13729999999999987,-4.4775612640728415
0.13629999999999987,-4.500196644870682
0.13529999999999986,-4.512929046569467
0.13429999999999986,-4.521417314368658
0.13329999999999986,-4.525661448268252
0.13229999999999986,-4.531320293467712
0.13129999999999986,-4.546882117766228
0.13029999999999986,-4.561029230764878
0.12929999999999986,-4.572346921163798
0.12829999999999986,-4.5893234567621795
0.12729999999999986,-4.6091294149602895
0.12629999999999986,-4.61478826015975
0.12529999999999986,-4.634594218357861
0.12429999999999986,-4.652985465256107
0.12329999999999985,-4.667132578254756
0.12229999999999985,-4.681279691253407
0.12129999999999985,-4.699670938151652
0.12029999999999985,-4.7138180511503025
0.11929999999999985,-4.727965164148953
0.11829999999999985,-4.744941699747333
0.11729999999999985,-4.757674101446118
0.11629999999999985,-4.771821214444769
0.11529999999999985,-4.787383038743283
0.11429999999999985,-4.801530151741935
0.11329999999999985,-4.814262553440719
0.11229999999999984,-4.824165532539776
0.11129999999999984,-4.8383126455384255
0.11029999999999984,-4.85387446983694
0.10929999999999984,-4.866606871535726
0.10829999999999984,-4.882168695834241
0.10729999999999984,-4.8977305201327574
0.10629999999999984,-4.913292344431272
0.10529999999999984,-4.921780612230462
0.10429999999999984,-4.935927725229114
0.10329999999999984,-4.961392528626684
0.10229999999999984,-4.974124930325469
0.10129999999999983,-4.9896867546239845
0.10029999999999983,-5.001004445022905
0.09929999999999983,-5.01656626932142
0.09829999999999983,-5.026469248420476
0.09729999999999983,-5.0420310727189905
0.09629999999999983,-5.059007608317371
0.09529999999999983,-5.067495876116562
0.09429999999999983,-5.0816429891152115
0.09329999999999983,-5.092960679514132
0.09229999999999983,-5.107107792512783
0.09129999999999983,-5.112766637712243
0.09029999999999982,-5.1198401942115686
0.08929999999999982,-5.141060863709543
0.08829999999999982,-5.152378554108464
0.08729999999999982,-5.167940378406978
0.08629999999999982,-5.18208749140563
0.08529999999999982,-5.196234604404279
0.08429999999999982,-5.201893449603739
0.08329999999999982,-5.208967006103065
0.08229999999999982,-5.22452883040158
0.08129999999999982,-5.2457494998995555
0.08029999999999982,-5.262726035497936
0.07929999999999982,-5.274043725896856
0.07829999999999981,-5.283946704995913
0.07729999999999981,-5.293849684094967
0.07629999999999981,-5.303752663194023
0.07529999999999992,-5.316485064892808
0.07429999999999992,-5.3306321778914585
0.07329999999999992,-5.346194002189974
0.07229999999999992,-5.3631705377883545
0.07129999999999992,-5.3815617846866
0.07029999999999992,-5.39287947508552
0.06929999999999992,-5.40136774288471
0.06829999999999992,-5.415514855883361
0.06729999999999992,-5.4353208140814715
0.06629999999999991,-5.452297349679851
0.06529999999999991,-5.469273885278232
0.06429999999999991,-5.486250420876612
0.06329999999999991,-5.497568111275533
0.06229999999999991,-5.508885801674452
0.06129999999999991,-5.5145446468739125
0.06029999999999991,-5.532935893772159
0.05929999999999991,-5.556985985869864
0.05829999999999991,-5.57537723276811
0.05729999999999991,-5.5866949231670295
0.056299999999999906,-5.5994273248658155
0.055299999999999905,-5.616403860464195
0.054299999999999904,-5.640453952561901
0.0532999999999999,-5.644698086461496
0.0522999999999999,-5.656015776860417
0.0512999999999999,-5.668748178559202
0.0502999999999999,-5.677236446358393
0.0492999999999999,-5.685724714157582
0.0482999999999999,-5.699871827156233
0.0472999999999999,-5.719677785354343
0.0462999999999999,-5.7380690322525885
0.045299999999999896,-5.745142588751914
0.044299999999999895,-5.764948546950024
0.043299999999999894,-5.772022103449349
0.04229999999999989,-5.78051037124854
0.04129999999999989,-5.787583927747865
0.04029999999999989,-5.807389885945976
0.03929999999999989,-5.820122287644761
0.03829999999999989,-5.838513534543006
0.03729999999999989,-5.849831224941926
0.03629999999999989,-5.859734204040981
0.03529999999999989,-5.8752960283394975
0.034299999999999886,-5.888028430038283
0.033299999999999885,-5.892272563937878
0.032299999999999884,-5.910663810836123
0.031299999999999883,-5.930469769034234
0.030299999999999883,-5.947446304632614
0.02929999999999988,-5.961593417631265
0.02829999999999988,-5.97432581933005
0.02729999999999988,-5.992717066228296
0.02629999999999988,-6.008278890526811
0.025299999999999878,-6.022426003525461
0.024299999999999877,-6.042231961723571
0.023299999999999876,-6.062037919921682
0.022299999999999875,-6.067696765121143
0.021299999999999875,-6.080429166819927
0.020299999999999874,-6.098820413718173
0.019299999999999873,-6.107308681517363
0.018299999999999872,-6.125699928415609
0.01729999999999987,-6.139847041414258
0.01629999999999987,-6.15965299961237
0.01529999999999987,-6.1709706900112895
0.014299999999999868,-6.18511780300994
0.013299999999999867,-6.199264916008591
0.012299999999999978,-6.213412029007241
0.011299999999999866,-6.224729719406161
0.010299999999999976,-6.238876832404812
0.009299999999999864,-6.2558533680031925
0.008299999999999974,-6.268585769701978
0.007299999999999862,-6.282732882700628
0.006299999999999972,-6.303953552198603
0.00529999999999986,-6.31951537649712
0.0042999999999999705,-6.330833066896039
0.0032999999999998586,-6.349224313794284
0.0022999999999999687,-6.360542004193205
0.0012999999999998568,-6.369030271992395
0.00029999999999996696,-6.39025094149037
-0.000700000000000145,-6.404398054489021
-0.0017000000000000348,-6.418545167487672
-0.0027000000000001467,-6.428448146586726
-0.0037000000000000366,-6.449668816084703
-0.0047000000000001485,-6.470889485582678
-0.005700000000000038,-6.487866021181058
-0.00670000000000015,-6.507671979379168
-0.00770000000000004,-6.516160247178359
-0.008700000000000152,-6.528892648877145
-0.009700000000000042,-6.54162505057593
-0.010700000000000154,-6.560016297474175
-0.011700000000000044,-6.568504565273366
-0.012700000000000156,-6.578407544372421
-0.013700000000000045,-6.5840663895718805
-0.014700000000000157,-6.602457636470127
-0.015700000000000047,-6.612360615569181
-0.01670000000000016,-6.627922439867697
-0.01770000000000005,-6.643484264166212
-0.01870000000000016,-6.6505578206655365
-0.01970000000000005,-6.667534356263918
-0.020700000000000163,-6.680266757962703
-0.021700000000000053,-6.698658004860949
-0.022700000000000164,-6.719878674358924
-0.023700000000000054,-6.7340257873575755
-0.024700000000000166,-6.74958761165609
-0.025700000000000056,-6.76373472465474
-0.026700000000000168,-6.777881837653391
-0.027700000000000058,-6.790614239352177
-0.02870000000000017,-6.809005486250422
-0.02970000000000006,-6.835885000947857
-0.03070000000000017,-6.852861536546238
-0.03170000000000006,-6.859935093045563
-0.03270000000000017,-6.872667494744348
-0.03370000000000006,-6.893888164242324
-0.034700000000000175,-6.915108833740299
-0.035700000000000065,-6.9306706580388155
-0.03670000000000018,-6.9434030597376
-0.03770000000000007,-6.956135461436385
-0.03870000000000018,-6.984429687433686
-0.03970000000000007,-6.98584439873355
-0.04070000000000018,-7.005650356931662
-0.04170000000000007,-7.033944582928963
-0.04270000000000018,-7.050921118527342
-0.04370000000000007,-7.062238808926263
-0.044700000000000184,-7.067897654125724
-0.045700000000000074,-7.077800633224777
-0.046700000000000186,-7.096191880123024
-0.047700000000000076,-7.111753704421539
-0.04870000000000019,-7.127315528720055
-0.04970000000000008,-7.14853619821803
-0.05070000000000019,-7.158439177317086
-0.05170000000000008,-7.182489269414792
-0.05270000000000019,-7.200880516313037
-0.05370000000000008,-7.209368784112227
-0.05470000000000019,-7.229174742310337
-0.05570000000000008,-7.248980700508447
-0.056700000000000195,-7.264542524806962
-0.057700000000000085,-7.277274926505749
-0.058700000000000196,-7.284348483005074
-0.059700000000000086,-7.2999103073035885
-0.0607000000000002,-7.3183015542018355
-0.06170000000000009,-7.332448667200485
-0.0627000000000002,-7.33952222369981
-0.06370000000000009,-7.370645872296841
-0.0647000000000002,-7.386207696595355
-0.06570000000000009,-7.396110675694412
-0.0667000000000002,-7.407428366093333
-0.0677000000000001,-7.427234324291442
-0.0687000000000002,-7.444210859889823
-0.0697000000000001,-7.447040282489553
-0.07070000000000021,-7.448454993789417
-0.0717000000000001,-7.464016818087933
-0.07270000000000021,-7.4753345084868545
-0.0737000000000001,-7.50504344578402
-0.07470000000000021,-7.52484940398213
-0.0757000000000001,-7.5474847847799715
-0.07670000000000021,-7.558802475178892
-0.0777000000000001,-7.575779010777271
-0.07870000000000021,-7.578608433377001
-0.0797000000000001,-7.588511412476056
-0.08070000000000022,-7.599829102874978
-0.0817000000000001,-7.622464483672818
-0.08270000000000022,-7.630952751472008
-0.08370000000000011,-7.643685153170793
-0.08470000000000022,-7.6663205339686336
-0.08570000000000011,-7.68471178086688
-0.08670000000000022,-7.697444182565665
-0.08770000000000011,-7.717250140763775
-0.08870000000000022,-7.731397253762426
-0.08970000000000011,-7.74130023286148
-0.09070000000000022,-7.746959078060941
-0.09170000000000011,-7.7653503249591855
-0.09270000000000023,-7.787985705757026
