Dec. 10, 2024   23:57:20
Cyclic Voltammetry
File: c:/users/guazh/data/banditlqround7_x0exp59_r20/2024-12-09-exp622\exp622-2024-12-10t23_41_04-arkoh\exp622_cv_sr_800mvs_efin_-1600mv.bin
Data Source:  Experiment
Instrument Model:  CHI760E
Header: CV ran at 800 mVs
Note: 

Init E (V) = -1
High E (V) = -1
Low E (V) = -1.6
Final E (V) = -1
Init P/N = N
Scan Rate (V/s) = 0.8
Segment = 3
Sample Interval (V) = 0.001
Quiet Time (sec) = 2
Sensitivity (A/V) = 0.01
Comp R (ohm) = 1.3

Results:

Channel 1:
Segment 1:

Segment 2:

Segment 3:

Potential/V, Current/A

-1.000, -4.191e-4
-1.001, -3.791e-4
-1.002, -3.452e-4
-1.003, -3.112e-4
-1.004, -2.804e-4
-1.005, -2.527e-4
-1.006, -2.249e-4
-1.007, -1.972e-4
-1.008, -1.725e-4
-1.009, -1.509e-4
-1.010, -1.263e-4
-1.011, -1.047e-4
-1.012, -8.309e-5
-1.013, -6.151e-5
-1.014, -3.992e-5
-1.015, -1.834e-5
-1.016, 1.559e-7
-1.017, 2.482e-5
-1.018, 4.332e-5
-1.019, 6.182e-5
-1.020, 8.032e-5
-1.021, 9.882e-5
-1.022, 1.142e-4
-1.023, 1.327e-4
-1.024, 1.481e-4
-1.025, 1.636e-4
-1.026, 1.790e-4
-1.027, 1.975e-4
-1.028, 2.129e-4
-1.029, 2.283e-4
-1.030, 2.437e-4
-1.031, 2.591e-4
-1.032, 2.746e-4
-1.033, 2.900e-4
-1.034, 3.054e-4
-1.035, 3.177e-4
-1.036, 3.300e-4
-1.037, 3.424e-4
-1.038, 3.547e-4
-1.039, 3.670e-4
-1.040, 3.825e-4
-1.041, 3.979e-4
-1.042, 4.102e-4
-1.043, 4.225e-4
-1.044, 4.380e-4
-1.045, 4.503e-4
-1.046, 4.657e-4
-1.047, 4.780e-4
-1.048, 4.873e-4
-1.049, 4.996e-4
-1.050, 5.120e-4
-1.051, 5.212e-4
-1.052, 5.335e-4
-1.053, 5.459e-4
-1.054, 5.582e-4
-1.055, 5.705e-4
-1.056, 5.859e-4
-1.057, 5.983e-4
-1.058, 6.106e-4
-1.059, 6.199e-4
-1.060, 6.322e-4
-1.061, 6.414e-4
-1.062, 6.538e-4
-1.063, 6.599e-4
-1.064, 6.692e-4
-1.065, 6.784e-4
-1.066, 6.877e-4
-1.067, 6.969e-4
-1.068, 7.062e-4
-1.069, 7.185e-4
-1.070, 7.278e-4
-1.071, 7.370e-4
-1.072, 7.463e-4
-1.073, 7.586e-4
-1.074, 7.648e-4
-1.075, 7.771e-4
-1.076, 7.863e-4
-1.077, 7.925e-4
-1.078, 8.018e-4
-1.079, 8.141e-4
-1.080, 8.233e-4
-1.081, 8.357e-4
-1.082, 8.449e-4
-1.083, 8.573e-4
-1.084, 8.665e-4
-1.085, 8.788e-4
-1.086, 8.881e-4
-1.087, 8.973e-4
-1.088, 9.066e-4
-1.089, 9.189e-4
-1.090, 9.251e-4
-1.091, 9.343e-4
-1.092, 9.467e-4
-1.093, 9.559e-4
-1.094, 9.652e-4
-1.095, 9.775e-4
-1.096, 9.898e-4
-1.097, 1.002e-3
-1.098, 1.008e-3
-1.099, 1.018e-3
-1.100, 1.027e-3
-1.101, 1.033e-3
-1.102, 1.042e-3
-1.103, 1.048e-3
-1.104, 1.058e-3
-1.105, 1.064e-3
-1.106, 1.073e-3
-1.107, 1.082e-3
-1.108, 1.092e-3
-1.109, 1.101e-3
-1.110, 1.113e-3
-1.111, 1.122e-3
-1.112, 1.132e-3
-1.113, 1.141e-3
-1.114, 1.150e-3
-1.115, 1.156e-3
-1.116, 1.166e-3
-1.117, 1.172e-3
-1.118, 1.181e-3
-1.119, 1.190e-3
-1.120, 1.199e-3
-1.121, 1.209e-3
-1.122, 1.221e-3
-1.123, 1.230e-3
-1.124, 1.240e-3
-1.125, 1.252e-3
-1.126, 1.261e-3
-1.127, 1.270e-3
-1.128, 1.280e-3
-1.129, 1.286e-3
-1.130, 1.295e-3
-1.131, 1.304e-3
-1.132, 1.314e-3
-1.133, 1.323e-3
-1.134, 1.335e-3
-1.135, 1.347e-3
-1.136, 1.357e-3
-1.137, 1.369e-3
-1.138, 1.378e-3
-1.139, 1.388e-3
-1.140, 1.397e-3
-1.141, 1.403e-3
-1.142, 1.415e-3
-1.143, 1.421e-3
-1.144, 1.431e-3
-1.145, 1.443e-3
-1.146, 1.452e-3
-1.147, 1.465e-3
-1.148, 1.477e-3
-1.149, 1.489e-3
-1.150, 1.502e-3
-1.151, 1.511e-3
-1.152, 1.523e-3
-1.153, 1.532e-3
-1.154, 1.542e-3
-1.155, 1.551e-3
-1.156, 1.560e-3
-1.157, 1.569e-3
-1.158, 1.582e-3
-1.159, 1.591e-3
-1.160, 1.603e-3
-1.161, 1.616e-3
-1.162, 1.628e-3
-1.163, 1.640e-3
-1.164, 1.650e-3
-1.165, 1.662e-3
-1.166, 1.674e-3
-1.167, 1.684e-3
-1.168, 1.693e-3
-1.169, 1.702e-3
-1.170, 1.714e-3
-1.171, 1.724e-3
-1.172, 1.736e-3
-1.173, 1.745e-3
-1.174, 1.761e-3
-1.175, 1.773e-3
-1.176, 1.785e-3
-1.177, 1.801e-3
-1.178, 1.813e-3
-1.179, 1.828e-3
-1.180, 1.841e-3
-1.181, 1.853e-3
-1.182, 1.865e-3
-1.183, 1.878e-3
-1.184, 1.887e-3
-1.185, 1.902e-3
-1.186, 1.915e-3
-1.187, 1.927e-3
-1.188, 1.939e-3
-1.189, 1.955e-3
-1.190, 1.970e-3
-1.191, 1.986e-3
-1.192, 1.998e-3
-1.193, 2.013e-3
-1.194, 2.023e-3
-1.195, 2.035e-3
-1.196, 2.047e-3
-1.197, 2.057e-3
-1.198, 2.066e-3
-1.199, 2.078e-3
-1.200, 2.091e-3
-1.201, 2.103e-3
-1.202, 2.115e-3
-1.203, 2.131e-3
-1.204, 2.143e-3
-1.205, 2.155e-3
-1.206, 2.168e-3
-1.207, 2.183e-3
-1.208, 2.192e-3
-1.209, 2.205e-3
-1.210, 2.220e-3
-1.211, 2.232e-3
-1.212, 2.248e-3
-1.213, 2.263e-3
-1.214, 2.279e-3
-1.215, 2.294e-3
-1.216, 2.309e-3
-1.217, 2.325e-3
-1.218, 2.340e-3
-1.219, 2.359e-3
-1.220, 2.371e-3
-1.221, 2.386e-3
-1.222, 2.402e-3
-1.223, 2.417e-3
-1.224, 2.433e-3
-1.225, 2.445e-3
-1.226, 2.460e-3
-1.227, 2.470e-3
-1.228, 2.485e-3
-1.229, 2.497e-3
-1.230, 2.510e-3
-1.231, 2.519e-3
-1.232, 2.531e-3
-1.233, 2.541e-3
-1.234, 2.553e-3
-1.235, 2.565e-3
-1.236, 2.578e-3
-1.237, 2.587e-3
-1.238, 2.599e-3
-1.239, 2.612e-3
-1.240, 2.615e-3
-1.241, 2.627e-3
-1.242, 2.645e-3
-1.243, 2.661e-3
-1.244, 2.679e-3
-1.245, 2.695e-3
-1.246, 2.713e-3
-1.247, 2.732e-3
-1.248, 2.747e-3
-1.249, 2.760e-3
-1.250, 2.772e-3
-1.251, 2.787e-3
-1.252, 2.800e-3
-1.253, 2.815e-3
-1.254, 2.830e-3
-1.255, 2.852e-3
-1.256, 2.871e-3
-1.257, 2.889e-3
-1.258, 2.908e-3
-1.259, 2.926e-3
-1.260, 2.941e-3
-1.261, 2.957e-3
-1.262, 2.969e-3
-1.263, 2.985e-3
-1.264, 2.994e-3
-1.265, 3.009e-3
-1.266, 3.022e-3
-1.267, 3.037e-3
-1.268, 3.056e-3
-1.269, 3.071e-3
-1.270, 3.089e-3
-1.271, 3.105e-3
-1.272, 3.123e-3
-1.273, 3.142e-3
-1.274, 3.157e-3
-1.275, 3.173e-3
-1.276, 3.191e-3
-1.277, 3.207e-3
-1.278, 3.225e-3
-1.279, 3.241e-3
-1.280, 3.259e-3
-1.281, 3.278e-3
-1.282, 3.299e-3
-1.283, 3.321e-3
-1.284, 3.342e-3
-1.285, 3.364e-3
-1.286, 3.385e-3
-1.287, 3.410e-3
-1.288, 3.429e-3
-1.289, 3.450e-3
-1.290, 3.469e-3
-1.291, 3.484e-3
-1.292, 3.503e-3
-1.293, 3.521e-3
-1.294, 3.543e-3
-1.295, 3.564e-3
-1.296, 3.589e-3
-1.297, 3.610e-3
-1.298, 3.632e-3
-1.299, 3.651e-3
-1.300, 3.666e-3
-1.301, 3.675e-3
-1.302, 3.688e-3
-1.303, 3.697e-3
-1.304, 3.709e-3
-1.305, 3.725e-3
-1.306, 3.743e-3
-1.307, 3.762e-3
-1.308, 3.783e-3
-1.309, 3.808e-3
-1.310, 3.826e-3
-1.311, 3.848e-3
-1.312, 3.869e-3
-1.313, 3.888e-3
-1.314, 3.906e-3
-1.315, 3.925e-3
-1.316, 3.943e-3
-1.317, 3.962e-3
-1.318, 3.984e-3
-1.319, 4.002e-3
-1.320, 4.027e-3
-1.321, 4.051e-3
-1.322, 4.073e-3
-1.323, 4.098e-3
-1.324, 4.122e-3
-1.325, 4.147e-3
-1.326, 4.172e-3
-1.327, 4.196e-3
-1.328, 4.218e-3
-1.329, 4.243e-3
-1.330, 4.264e-3
-1.331, 4.289e-3
-1.332, 4.310e-3
-1.333, 4.332e-3
-1.334, 4.357e-3
-1.335, 4.378e-3
-1.336, 4.400e-3
-1.337, 4.421e-3
-1.338, 4.440e-3
-1.339, 4.458e-3
-1.340, 4.474e-3
-1.341, 4.486e-3
-1.342, 4.505e-3
-1.343, 4.520e-3
-1.344, 4.535e-3
-1.345, 4.557e-3
-1.346, 4.579e-3
-1.347, 4.603e-3
-1.348, 4.625e-3
-1.349, 4.649e-3
-1.350, 4.677e-3
-1.351, 4.705e-3
-1.352, 4.730e-3
-1.353, 4.754e-3
-1.354, 4.782e-3
-1.355, 4.807e-3
-1.356, 4.828e-3
-1.357, 4.850e-3
-1.358, 4.875e-3
-1.359, 4.896e-3
-1.360, 4.924e-3
-1.361, 4.955e-3
-1.362, 4.986e-3
-1.363, 5.016e-3
-1.364, 5.050e-3
-1.365, 5.084e-3
-1.366, 5.115e-3
-1.367, 5.143e-3
-1.368, 5.164e-3
-1.369, 5.186e-3
-1.370, 5.201e-3
-1.371, 5.223e-3
-1.372, 5.245e-3
-1.373, 5.272e-3
-1.374, 5.300e-3
-1.375, 5.334e-3
-1.376, 5.365e-3
-1.377, 5.393e-3
-1.378, 5.414e-3
-1.379, 5.436e-3
-1.380, 5.451e-3
-1.381, 5.467e-3
-1.382, 5.482e-3
-1.383, 5.504e-3
-1.384, 5.525e-3
-1.385, 5.553e-3
-1.386, 5.584e-3
-1.387, 5.611e-3
-1.388, 5.645e-3
-1.389, 5.676e-3
-1.390, 5.704e-3
-1.391, 5.732e-3
-1.392, 5.753e-3
-1.393, 5.778e-3
-1.394, 5.796e-3
-1.395, 5.818e-3
-1.396, 5.843e-3
-1.397, 5.864e-3
-1.398, 5.889e-3
-1.399, 5.914e-3
-1.400, 5.935e-3
-1.401, 5.960e-3
-1.402, 5.988e-3
-1.403, 6.015e-3
-1.404, 6.040e-3
-1.405, 6.065e-3
-1.406, 6.089e-3
-1.407, 6.114e-3
-1.408, 6.136e-3
-1.409, 6.157e-3
-1.410, 6.182e-3
-1.411, 6.203e-3
-1.412, 6.228e-3
-1.413, 6.256e-3
-1.414, 6.280e-3
-1.415, 6.308e-3
-1.416, 6.336e-3
-1.417, 6.361e-3
-1.418, 6.388e-3
-1.419, 6.410e-3
-1.420, 6.435e-3
-1.421, 6.456e-3
-1.422, 6.481e-3
-1.423, 6.512e-3
-1.424, 6.539e-3
-1.425, 6.567e-3
-1.426, 6.598e-3
-1.427, 6.626e-3
-1.428, 6.647e-3
-1.429, 6.669e-3
-1.430, 6.694e-3
-1.431, 6.712e-3
-1.432, 6.731e-3
-1.433, 6.752e-3
-1.434, 6.777e-3
-1.435, 6.801e-3
-1.436, 6.829e-3
-1.437, 6.857e-3
-1.438, 6.888e-3
-1.439, 6.916e-3
-1.440, 6.940e-3
-1.441, 6.968e-3
-1.442, 6.990e-3
-1.443, 7.011e-3
-1.444, 7.030e-3
-1.445, 7.048e-3
-1.446, 7.070e-3
-1.447, 7.091e-3
-1.448, 7.110e-3
-1.449, 7.134e-3
-1.450, 7.162e-3
-1.451, 7.190e-3
-1.452, 7.221e-3
-1.453, 7.249e-3
-1.454, 7.276e-3
-1.455, 7.301e-3
-1.456, 7.326e-3
-1.457, 7.347e-3
-1.458, 7.369e-3
-1.459, 7.390e-3
-1.460, 7.412e-3
-1.461, 7.434e-3
-1.462, 7.455e-3
-1.463, 7.480e-3
-1.464, 7.508e-3
-1.465, 7.535e-3
-1.466, 7.560e-3
-1.467, 7.585e-3
-1.468, 7.609e-3
-1.469, 7.631e-3
-1.470, 7.649e-3
-1.471, 7.668e-3
-1.472, 7.689e-3
-1.473, 7.708e-3
-1.474, 7.733e-3
-1.475, 7.760e-3
-1.476, 7.788e-3
-1.477, 7.816e-3
-1.478, 7.847e-3
-1.479, 7.874e-3
-1.480, 7.899e-3
-1.481, 7.918e-3
-1.482, 7.930e-3
-1.483, 7.948e-3
-1.484, 7.970e-3
-1.485, 7.988e-3
-1.486, 8.007e-3
-1.487, 8.022e-3
-1.488, 8.044e-3
-1.489, 8.069e-3
-1.490, 8.093e-3
-1.491, 8.121e-3
-1.492, 8.146e-3
-1.493, 8.170e-3
-1.494, 8.192e-3
-1.495, 8.210e-3
-1.496, 8.223e-3
-1.497, 8.235e-3
-1.498, 8.244e-3
-1.499, 8.257e-3
-1.500, 8.269e-3
-1.501, 8.284e-3
-1.502, 8.300e-3
-1.503, 8.309e-3
-1.504, 8.321e-3
-1.505, 8.343e-3
-1.506, 8.358e-3
-1.507, 8.371e-3
-1.508, 8.380e-3
-1.509, 8.386e-3
-1.510, 8.389e-3
-1.511, 8.392e-3
-1.512, 8.399e-3
-1.513, 8.402e-3
-1.514, 8.411e-3
-1.515, 8.423e-3
-1.516, 8.439e-3
-1.517, 8.454e-3
-1.518, 8.473e-3
-1.519, 8.491e-3
-1.520, 8.510e-3
-1.521, 8.525e-3
-1.522, 8.540e-3
-1.523, 8.553e-3
-1.524, 8.568e-3
-1.525, 8.580e-3
-1.526, 8.590e-3
-1.527, 8.596e-3
-1.528, 8.605e-3
-1.529, 8.614e-3
-1.530, 8.624e-3
-1.531, 8.633e-3
-1.532, 8.642e-3
-1.533, 8.648e-3
-1.534, 8.654e-3
-1.535, 8.658e-3
-1.536, 8.654e-3
-1.537, 8.648e-3
-1.538, 8.639e-3
-1.539, 8.633e-3
-1.540, 8.624e-3
-1.541, 8.621e-3
-1.542, 8.617e-3
-1.543, 8.617e-3
-1.544, 8.617e-3
-1.545, 8.624e-3
-1.546, 8.627e-3
-1.547, 8.624e-3
-1.548, 8.617e-3
-1.549, 8.617e-3
-1.550, 8.614e-3
-1.551, 8.605e-3
-1.552, 8.596e-3
-1.553, 8.596e-3
-1.554, 8.596e-3
-1.555, 8.596e-3
-1.556, 8.596e-3
-1.557, 8.593e-3
-1.558, 8.584e-3
-1.559, 8.577e-3
-1.560, 8.568e-3
-1.561, 8.550e-3
-1.562, 8.531e-3
-1.563, 8.513e-3
-1.564, 8.500e-3
-1.565, 8.491e-3
-1.566, 8.485e-3
-1.567, 8.485e-3
-1.568, 8.482e-3
-1.569, 8.473e-3
-1.570, 8.463e-3
-1.571, 8.454e-3
-1.572, 8.442e-3
-1.573, 8.429e-3
-1.574, 8.420e-3
-1.575, 8.408e-3
-1.576, 8.399e-3
-1.577, 8.386e-3
-1.578, 8.377e-3
-1.579, 8.365e-3
-1.580, 8.352e-3
-1.581, 8.337e-3
-1.582, 8.325e-3
-1.583, 8.309e-3
-1.584, 8.297e-3
-1.585, 8.291e-3
-1.586, 8.281e-3
-1.587, 8.275e-3
-1.588, 8.272e-3
-1.589, 8.269e-3
-1.590, 8.266e-3
-1.591, 8.263e-3
-1.592, 8.260e-3
-1.593, 8.257e-3
-1.594, 8.254e-3
-1.595, 8.257e-3
-1.596, 8.257e-3
-1.597, 8.260e-3
-1.598, 8.266e-3
-1.599, 8.275e-3
-1.600, 8.254e-3
-1.599, 8.177e-3
-1.598, 8.106e-3
-1.597, 8.041e-3
-1.596, 7.976e-3
-1.595, 7.918e-3
-1.594, 7.853e-3
-1.593, 7.782e-3
-1.592, 7.708e-3
-1.591, 7.643e-3
-1.590, 7.582e-3
-1.589, 7.526e-3
-1.588, 7.471e-3
-1.587, 7.415e-3
-1.586, 7.363e-3
-1.585, 7.313e-3
-1.584, 7.258e-3
-1.583, 7.205e-3
-1.582, 7.144e-3
-1.581, 7.085e-3
-1.580, 7.023e-3
-1.579, 6.965e-3
-1.578, 6.906e-3
-1.577, 6.851e-3
-1.576, 6.808e-3
-1.575, 6.749e-3
-1.574, 6.700e-3
-1.573, 6.647e-3
-1.572, 6.598e-3
-1.571, 6.543e-3
-1.570, 6.490e-3
-1.569, 6.435e-3
-1.568, 6.382e-3
-1.567, 6.330e-3
-1.566, 6.284e-3
-1.565, 6.240e-3
-1.564, 6.203e-3
-1.563, 6.166e-3
-1.562, 6.132e-3
-1.561, 6.092e-3
-1.560, 6.055e-3
-1.559, 6.018e-3
-1.558, 5.978e-3
-1.557, 5.935e-3
-1.556, 5.895e-3
-1.555, 5.858e-3
-1.554, 5.815e-3
-1.553, 5.790e-3
-1.552, 5.756e-3
-1.551, 5.725e-3
-1.550, 5.692e-3
-1.549, 5.658e-3
-1.548, 5.621e-3
-1.547, 5.581e-3
-1.546, 5.534e-3
-1.545, 5.485e-3
-1.544, 5.439e-3
-1.543, 5.383e-3
-1.542, 5.328e-3
-1.541, 5.275e-3
-1.540, 5.223e-3
-1.539, 5.180e-3
-1.538, 5.134e-3
-1.537, 5.090e-3
-1.536, 5.050e-3
-1.535, 5.013e-3
-1.534, 4.973e-3
-1.533, 4.939e-3
-1.532, 4.905e-3
-1.531, 4.871e-3
-1.530, 4.831e-3
-1.529, 4.797e-3
-1.528, 4.760e-3
-1.527, 4.720e-3
-1.526, 4.683e-3
-1.525, 4.646e-3
-1.524, 4.606e-3
-1.523, 4.566e-3
-1.522, 4.526e-3
-1.521, 4.486e-3
-1.520, 4.452e-3
-1.519, 4.418e-3
-1.518, 4.387e-3
-1.517, 4.354e-3
-1.516, 4.317e-3
-1.515, 4.283e-3
-1.514, 4.246e-3
-1.513, 4.202e-3
-1.512, 4.165e-3
-1.511, 4.122e-3
-1.510, 4.079e-3
-1.509, 4.036e-3
-1.508, 3.996e-3
-1.507, 3.959e-3
-1.506, 3.925e-3
-1.505, 3.888e-3
-1.504, 3.854e-3
-1.503, 3.817e-3
-1.502, 3.786e-3
-1.501, 3.746e-3
-1.500, 3.709e-3
-1.499, 3.669e-3
-1.498, 3.635e-3
-1.497, 3.595e-3
-1.496, 3.558e-3
-1.495, 3.521e-3
-1.494, 3.490e-3
-1.493, 3.459e-3
-1.492, 3.425e-3
-1.491, 3.395e-3
-1.490, 3.361e-3
-1.489, 3.327e-3
-1.488, 3.290e-3
-1.487, 3.256e-3
-1.486, 3.219e-3
-1.485, 3.185e-3
-1.484, 3.151e-3
-1.483, 3.120e-3
-1.482, 3.086e-3
-1.481, 3.056e-3
-1.480, 3.025e-3
-1.479, 2.991e-3
-1.478, 2.960e-3
-1.477, 2.926e-3
-1.476, 2.892e-3
-1.475, 2.855e-3
-1.474, 2.818e-3
-1.473, 2.787e-3
-1.472, 2.753e-3
-1.471, 2.723e-3
-1.470, 2.692e-3
-1.469, 2.661e-3
-1.468, 2.630e-3
-1.467, 2.596e-3
-1.466, 2.568e-3
-1.465, 2.538e-3
-1.464, 2.507e-3
-1.463, 2.479e-3
-1.462, 2.448e-3
-1.461, 2.420e-3
-1.460, 2.393e-3
-1.459, 2.365e-3
-1.458, 2.334e-3
-1.457, 2.306e-3
-1.456, 2.279e-3
-1.455, 2.248e-3
-1.454, 2.217e-3
-1.453, 2.186e-3
-1.452, 2.161e-3
-1.451, 2.137e-3
-1.450, 2.109e-3
-1.449, 2.081e-3
-1.448, 2.057e-3
-1.447, 2.029e-3
-1.446, 2.001e-3
-1.445, 1.970e-3
-1.444, 1.943e-3
-1.443, 1.915e-3
-1.442, 1.887e-3
-1.441, 1.856e-3
-1.440, 1.832e-3
-1.439, 1.807e-3
-1.438, 1.782e-3
-1.437, 1.758e-3
-1.436, 1.733e-3
-1.435, 1.708e-3
-1.434, 1.677e-3
-1.433, 1.653e-3
-1.432, 1.622e-3
-1.431, 1.594e-3
-1.430, 1.569e-3
-1.429, 1.545e-3
-1.428, 1.517e-3
-1.427, 1.495e-3
-1.426, 1.474e-3
-1.425, 1.452e-3
-1.424, 1.434e-3
-1.423, 1.412e-3
-1.422, 1.391e-3
-1.421, 1.369e-3
-1.420, 1.347e-3
-1.419, 1.323e-3
-1.418, 1.298e-3
-1.417, 1.273e-3
-1.416, 1.252e-3
-1.415, 1.224e-3
-1.414, 1.203e-3
-1.413, 1.181e-3
-1.412, 1.159e-3
-1.411, 1.138e-3
-1.410, 1.116e-3
-1.409, 1.095e-3
-1.408, 1.070e-3
-1.407, 1.045e-3
-1.406, 1.021e-3
-1.405, 9.960e-4
-1.404, 9.713e-4
-1.403, 9.467e-4
-1.402, 9.251e-4
-1.401, 9.004e-4
-1.400, 8.819e-4
-1.399, 8.603e-4
-1.398, 8.418e-4
-1.397, 8.233e-4
-1.396, 8.048e-4
-1.395, 7.833e-4
-1.394, 7.617e-4
-1.393, 7.432e-4
-1.392, 7.216e-4
-1.391, 7.000e-4
-1.390, 6.815e-4
-1.389, 6.599e-4
-1.388, 6.414e-4
-1.387, 6.229e-4
-1.386, 6.044e-4
-1.385, 5.859e-4
-1.384, 5.705e-4
-1.383, 5.520e-4
-1.382, 5.366e-4
-1.381, 5.181e-4
-1.380, 4.996e-4
-1.379, 4.811e-4
-1.378, 4.626e-4
-1.377, 4.441e-4
-1.376, 4.256e-4
-1.375, 4.071e-4
-1.374, 3.917e-4
-1.373, 3.763e-4
-1.372, 3.578e-4
-1.371, 3.424e-4
-1.370, 3.270e-4
-1.369, 3.115e-4
-1.368, 2.961e-4
-1.367, 2.776e-4
-1.366, 2.591e-4
-1.365, 2.437e-4
-1.364, 2.252e-4
-1.363, 2.098e-4
-1.362, 1.944e-4
-1.361, 1.759e-4
-1.360, 1.636e-4
-1.359, 1.481e-4
-1.358, 1.327e-4
-1.357, 1.204e-4
-1.356, 1.081e-4
-1.355, 9.265e-5
-1.354, 8.032e-5
-1.353, 6.490e-5
-1.352, 4.949e-5
-1.351, 3.407e-5
-1.350, 1.865e-5
-1.349, 6.322e-6
-1.348, -9.093e-6
-1.347, -2.143e-5
-1.346, -3.376e-5
-1.345, -4.609e-5
-1.344, -5.842e-5
-1.343, -7.076e-5
-1.342, -8.309e-5
-1.341, -9.542e-5
-1.340, -1.078e-4
-1.339, -1.201e-4
-1.338, -1.324e-4
-1.337, -1.478e-4
-1.336, -1.632e-4
-1.335, -1.756e-4
-1.334, -1.848e-4
-1.333, -1.972e-4
-1.332, -2.064e-4
-1.331, -2.187e-4
-1.330, -2.280e-4
-1.329, -2.403e-4
-1.328, -2.496e-4
-1.327, -2.619e-4
-1.326, -2.742e-4
-1.325, -2.866e-4
-1.324, -2.989e-4
-1.323, -3.112e-4
-1.322, -3.236e-4
-1.321, -3.359e-4
-1.320, -3.452e-4
-1.319, -3.544e-4
-1.318, -3.637e-4
-1.317, -3.729e-4
-1.316, -3.821e-4
-1.315, -3.914e-4
-1.314, -4.037e-4
-1.313, -4.130e-4
-1.312, -4.253e-4
-1.311, -4.346e-4
-1.310, -4.469e-4
-1.309, -4.592e-4
-1.308, -4.685e-4
-1.307, -4.777e-4
-1.306, -4.870e-4
-1.305, -4.962e-4
-1.304, -5.055e-4
-1.303, -5.147e-4
-1.302, -5.209e-4
-1.301, -5.301e-4
-1.300, -5.394e-4
-1.299, -5.486e-4
-1.298, -5.579e-4
-1.297, -5.671e-4
-1.296, -5.764e-4
-1.295, -5.856e-4
-1.294, -5.918e-4
-1.293, -6.011e-4
-1.292, -6.072e-4
-1.291, -6.134e-4
-1.290, -6.195e-4
-1.289, -6.288e-4
-1.288, -6.350e-4
-1.287, -6.442e-4
-1.286, -6.535e-4
-1.285, -6.627e-4
-1.284, -6.689e-4
-1.283, -6.812e-4
-1.282, -6.874e-4
-1.281, -6.966e-4
-1.280, -7.059e-4
-1.279, -7.120e-4
-1.278, -7.182e-4
-1.277, -7.213e-4
-1.276, -7.275e-4
-1.275, -7.367e-4
-1.274, -7.429e-4
-1.273, -7.521e-4
-1.272, -7.583e-4
-1.271, -7.675e-4
-1.270, -7.737e-4
-1.269, -7.830e-4
-1.268, -7.891e-4
-1.267, -7.953e-4
-1.266, -8.015e-4
-1.265, -8.045e-4
-1.264, -8.107e-4
-1.263, -8.169e-4
-1.262, -8.200e-4
-1.261, -8.261e-4
-1.260, -8.323e-4
-1.259, -8.415e-4
-1.258, -8.508e-4
-1.257, -8.569e-4
-1.256, -8.631e-4
-1.255, -8.724e-4
-1.254, -8.785e-4
-1.253, -8.847e-4
-1.252, -8.909e-4
-1.251, -8.939e-4
-1.250, -9.001e-4
-1.249, -9.063e-4
-1.248, -9.124e-4
-1.247, -9.186e-4
-1.246, -9.279e-4
-1.245, -9.340e-4
-1.244, -9.433e-4
-1.243, -9.494e-4
-1.242, -9.556e-4
-1.241, -9.649e-4
-1.240, -9.710e-4
-1.239, -9.741e-4
-1.238, -9.803e-4
-1.237, -9.864e-4
-1.236, -9.926e-4
-1.235, -9.988e-4
-1.234, -1.008e-3
-1.233, -1.014e-3
-1.232, -1.023e-3
-1.231, -1.030e-3
-1.230, -1.036e-3
-1.229, -1.045e-3
-1.228, -1.051e-3
-1.227, -1.054e-3
-1.226, -1.060e-3
-1.225, -1.064e-3
-1.224, -1.070e-3
-1.223, -1.073e-3
-1.222, -1.079e-3
-1.221, -1.085e-3
-1.220, -1.091e-3
-1.219, -1.097e-3
-1.218, -1.104e-3
-1.217, -1.110e-3
-1.216, -1.116e-3
-1.215, -1.125e-3
-1.214, -1.131e-3
-1.213, -1.138e-3
-1.212, -1.141e-3
-1.211, -1.147e-3
-1.210, -1.150e-3
-1.209, -1.156e-3
-1.208, -1.162e-3
-1.207, -1.168e-3
-1.206, -1.178e-3
-1.205, -1.184e-3
-1.204, -1.193e-3
-1.203, -1.202e-3
-1.202, -1.208e-3
-1.201, -1.215e-3
-1.200, -1.221e-3
-1.199, -1.224e-3
-1.198, -1.230e-3
-1.197, -1.233e-3
-1.196, -1.239e-3
-1.195, -1.242e-3
-1.194, -1.245e-3
-1.193, -1.255e-3
-1.192, -1.258e-3
-1.191, -1.264e-3
-1.190, -1.270e-3
-1.189, -1.276e-3
-1.188, -1.286e-3
-1.187, -1.292e-3
-1.186, -1.298e-3
-1.185, -1.304e-3
-1.184, -1.310e-3
-1.183, -1.316e-3
-1.182, -1.322e-3
-1.181, -1.329e-3
-1.180, -1.335e-3
-1.179, -1.341e-3
-1.178, -1.350e-3
-1.177, -1.356e-3
-1.176, -1.366e-3
-1.175, -1.375e-3
-1.174, -1.384e-3
-1.173, -1.393e-3
-1.172, -1.400e-3
-1.171, -1.406e-3
-1.170, -1.415e-3
-1.169, -1.421e-3
-1.168, -1.427e-3
-1.167, -1.437e-3
-1.166, -1.446e-3
-1.165, -1.455e-3
-1.164, -1.464e-3
-1.163, -1.474e-3
-1.162, -1.483e-3
-1.161, -1.492e-3
-1.160, -1.498e-3
-1.159, -1.504e-3
-1.158, -1.511e-3
-1.157, -1.517e-3
-1.156, -1.523e-3
-1.155, -1.529e-3
-1.154, -1.538e-3
-1.153, -1.548e-3
-1.152, -1.557e-3
-1.151, -1.569e-3
-1.150, -1.581e-3
-1.149, -1.591e-3
-1.148, -1.600e-3
-1.147, -1.606e-3
-1.146, -1.612e-3
-1.145, -1.622e-3
-1.144, -1.628e-3
-1.143, -1.637e-3
-1.142, -1.646e-3
-1.141, -1.659e-3
-1.140, -1.671e-3
-1.139, -1.683e-3
-1.138, -1.692e-3
-1.137, -1.705e-3
-1.136, -1.717e-3
-1.135, -1.723e-3
-1.134, -1.733e-3
-1.133, -1.739e-3
-1.132, -1.748e-3
-1.131, -1.754e-3
-1.130, -1.766e-3
-1.129, -1.776e-3
-1.128, -1.785e-3
-1.127, -1.797e-3
-1.126, -1.810e-3
-1.125, -1.819e-3
-1.124, -1.831e-3
-1.123, -1.840e-3
-1.122, -1.853e-3
-1.121, -1.865e-3
-1.120, -1.877e-3
-1.119, -1.890e-3
-1.118, -1.902e-3
-1.117, -1.914e-3
-1.116, -1.927e-3
-1.115, -1.939e-3
-1.114, -1.948e-3
-1.113, -1.961e-3
-1.112, -1.973e-3
-1.111, -1.985e-3
-1.110, -2.001e-3
-1.109, -2.016e-3
-1.108, -2.032e-3
-1.107, -2.050e-3
-1.106, -2.069e-3
-1.105, -2.087e-3
-1.104, -2.106e-3
-1.103, -2.121e-3
-1.102, -2.136e-3
-1.101, -2.152e-3
-1.100, -2.170e-3
-1.099, -2.189e-3
-1.098, -2.207e-3
-1.097, -2.229e-3
-1.096, -2.254e-3
-1.095, -2.278e-3
-1.094, -2.300e-3
-1.093, -2.325e-3
-1.092, -2.362e-3
-1.091, -2.383e-3
-1.090, -2.405e-3
-1.089, -2.423e-3
-1.088, -2.442e-3
-1.087, -2.460e-3
-1.086, -2.485e-3
-1.085, -2.509e-3
-1.084, -2.531e-3
-1.083, -2.556e-3
-1.082, -2.580e-3
-1.081, -2.602e-3
-1.080, -2.620e-3
-1.079, -2.639e-3
-1.078, -2.657e-3
-1.077, -2.673e-3
-1.076, -2.694e-3
-1.075, -2.713e-3
-1.074, -2.735e-3
-1.073, -2.756e-3
-1.072, -2.778e-3
-1.071, -2.796e-3
-1.070, -2.815e-3
-1.069, -2.833e-3
-1.068, -2.849e-3
-1.067, -2.867e-3
-1.066, -2.889e-3
-1.065, -2.907e-3
-1.064, -2.932e-3
-1.063, -2.957e-3
-1.062, -2.981e-3
-1.061, -3.006e-3
-1.060, -3.031e-3
-1.059, -3.055e-3
-1.058, -3.074e-3
-1.057, -3.095e-3
-1.056, -3.111e-3
-1.055, -3.135e-3
-1.054, -3.157e-3
-1.053, -3.185e-3
-1.052, -3.212e-3
-1.051, -3.240e-3
-1.050, -3.265e-3
-1.049, -3.290e-3
-1.048, -3.314e-3
-1.047, -3.333e-3
-1.046, -3.351e-3
-1.045, -3.367e-3
-1.044, -3.385e-3
-1.043, -3.404e-3
-1.042, -3.422e-3
-1.041, -3.441e-3
-1.040, -3.459e-3
-1.039, -3.484e-3
-1.038, -3.499e-3
-1.037, -3.515e-3
-1.036, -3.530e-3
-1.035, -3.542e-3
-1.034, -3.558e-3
-1.033, -3.573e-3
-1.032, -3.589e-3
-1.031, -3.604e-3
-1.030, -3.626e-3
-1.029, -3.644e-3
-1.028, -3.666e-3
-1.027, -3.684e-3
-1.026, -3.706e-3
-1.025, -3.724e-3
-1.024, -3.746e-3
-1.023, -3.761e-3
-1.022, -3.777e-3
-1.021, -3.792e-3
-1.020, -3.811e-3
-1.019, -3.826e-3
-1.018, -3.844e-3
-1.017, -3.866e-3
-1.016, -3.888e-3
-1.015, -3.909e-3
-1.014, -3.928e-3
-1.013, -3.949e-3
-1.012, -3.971e-3
-1.011, -3.992e-3
-1.010, -4.017e-3
-1.009, -4.042e-3
-1.008, -4.066e-3
-1.007, -4.097e-3
-1.006, -4.131e-3
-1.005, -4.165e-3
-1.004, -4.199e-3
-1.003, -4.224e-3
-1.002, -4.255e-3
-1.001, -4.288e-3
