Potential V vs RHE, Current mA cm-2
0.013299999999999867,5.929055057734368
0.012299999999999978,5.3631705377883545
0.011299999999999866,4.883583407134107
0.010299999999999976,4.44643761547581
0.009299999999999864,4.098418635709011
0.008299999999999974,3.7051288943465317
0.007299999999999862,3.313253864283916
0.006299999999999972,2.963820173217252
0.00529999999999986,2.5705304318547717
0.0042999999999999705,2.2225114520879723
0.0032999999999998586,1.8730777610213083
0.0022999999999999687,1.5675001202504606
0.0012999999999998568,1.2626298351295453
0.00029999999999996696,1.0010497157844997
-0.000700000000000145,0.7393281253094681
-0.0017000000000000348,0.4776065348344364
-0.0027000000000001467,0.21588494435940458
-0.0037000000000000366,-0.04582249900262853
-0.0047000000000001485,-0.30755823659065895
-0.005700000000000038,-0.5692798270656908
-0.00670000000000015,-0.8308599464107361
-0.00770000000000004,-1.0490084288499246
-0.008700000000000152,-1.2234423321232837
-0.009700000000000042,-1.4415908145624723
-0.010700000000000154,-1.6156003044458718
-0.011700000000000044,-1.8334658446250875
-0.012700000000000156,-2.008890045808352
-0.013700000000000045,-2.226755585987568
-0.014700000000000157,-2.4446211261667834
-0.015700000000000047,-2.662486666345999
-0.01670000000000016,-2.8379108675292635
-0.01770000000000005,-3.055776407708479
-0.01870000000000016,-3.2297858975918787
-0.01970000000000005,-3.403795387475278
-0.020700000000000163,-3.5353635383627267
-0.021700000000000053,-3.7093730282461257
-0.022700000000000164,-3.884797229429391
-0.023700000000000054,-4.0588067193127895
-0.024700000000000166,-4.276672259492005
-0.025700000000000056,-4.494537799671222
-0.026700000000000168,-4.668547289554621
-0.027700000000000058,-4.843971490737885
-0.02870000000000017,-5.017980980621284
-0.02970000000000006,-5.149549131508733
-0.03070000000000017,-5.235846520800501
-0.03170000000000006,-5.367414671687949
-0.03270000000000017,-5.497568111275533
-0.03370000000000006,-5.672992312458796
-0.034700000000000175,-5.80314575204638
-0.035700000000000065,-5.977155241929781
-0.03670000000000018,-6.108723392817228
-0.03770000000000007,-6.238876832404812
-0.03870000000000018,-6.37044498329226
-0.03970000000000007,-6.500598422879844
-0.04070000000000018,-6.588310523471475
-0.04170000000000007,-6.719878674358924
-0.04270000000000018,-6.893888164242324
-0.04370000000000007,-7.024041603829907
-0.044700000000000184,-7.199465805013171
-0.045700000000000074,-7.37347529489657
-0.046700000000000186,-7.50504344578402
-0.047700000000000076,-7.635196885371603
-0.04870000000000019,-7.7653503249591855
-0.04970000000000008,-7.853062425550818
-0.05070000000000019,-7.940774526142452
-0.05170000000000008,-8.027071915434218
-0.05270000000000019,-8.158640066321666
-0.05370000000000008,-8.288793505909249
-0.05470000000000019,-8.4203616567967
-0.05570000000000008,-8.594371146680096
-0.056700000000000195,-8.725939297567548
-0.057700000000000085,-8.85609273715513
-0.058700000000000196,-8.987660888042578
-0.059700000000000086,-9.11781432763016
-0.0607000000000002,-9.24938247851761
-0.06170000000000009,-9.335679867809377
-0.0627000000000002,-9.423391968401008
-0.06370000000000009,-9.511104068992642
-0.0647000000000002,-9.685113558876042
-0.06570000000000009,-9.81668170976349
-0.0667000000000002,-9.946835149351072
-0.0677000000000001,-10.120844639234473
-0.0687000000000002,-10.208556739826104
-0.0697000000000001,-10.340124890713554
-0.07070000000000021,-10.42642228000532
-0.0717000000000001,-10.514134380596953
-0.07270000000000021,-10.644287820184536
-0.0737000000000001,-10.819712021367803
-0.07470000000000021,-10.949865460955383
-0.0757000000000001,-11.123874950838783
-0.07670000000000021,-11.255443101726232
-0.0777000000000001,-11.385596541313816
-0.07870000000000021,-11.473308641905447
-0.0797000000000001,-11.56102074249708
-0.08070000000000022,-11.604876792792895
-0.0817000000000001,-11.73503023238048
-0.08270000000000022,-11.82274233297211
-0.08370000000000011,-11.952895772559694
-0.08470000000000022,-12.040607873151327
-0.08570000000000011,-12.214617363034726
-0.08670000000000022,-12.346185513922174
-0.08770000000000011,-12.476338953509758
-0.08870000000000022,-12.607907104397206
-0.08970000000000011,-12.651763154693022
-0.09070000000000022,-12.781916594280606
-0.09170000000000011,-12.869628694872238
-0.09270000000000023,-12.955926084164007
-0.09370000000000012,-13.087494235051453
-0.09470000000000023,-13.217647674639037
-0.09570000000000012,-13.3930718758223
-0.09670000000000023,-13.523225315409885
-0.09770000000000012,-13.654793466297335
-0.09870000000000023,-13.741090855589102
-0.09970000000000012,-13.872659006476551
-0.10070000000000023,-13.960371107068182
-0.10170000000000012,-14.046668496359947
-0.10270000000000024,-14.217848563643619
-0.10370000000000013,-14.345172580631472
-0.10470000000000024,-14.529085049613924
-0.10570000000000013,-14.65640906660178
-0.10670000000000024,-14.783733083589633
-0.10770000000000013,-14.925204213576137
-0.10870000000000024,-15.05252823056399
-0.10970000000000013,-15.179852247551842
-0.11070000000000024,-15.307176264539699
-0.11170000000000013,-15.3920589425316
-0.11270000000000002,-15.533530072518102
-0.11370000000000013,-15.660854089505953
-0.11470000000000002,-15.78817810649381
-0.11570000000000014,-15.91550212348166
-0.11670000000000003,-16.014531914472215
-0.11770000000000014,-16.099414592464115
-0.11870000000000003,-16.22673860945197
-0.11970000000000014,-16.311621287443874
-0.12070000000000003,-16.438945304431726
-0.12170000000000014,-16.580416434418233
-0.12270000000000003,-16.665299112410132
-0.12370000000000014,-16.835064468393938
-0.12470000000000003,-16.962388485381787
-0.12570000000000014,-17.146300954364243
-0.12670000000000003,-17.2736249713521
-0.12770000000000015,-17.40094898833995
-0.12870000000000004,-17.542420118326454
-0.12970000000000015,-17.669744135314307
-0.13070000000000004,-17.75462681330621
-0.13170000000000015,-17.881950830294063
-0.13270000000000004,-17.966833508285966
-0.13370000000000015,-18.10830463827247
-0.13470000000000004,-18.320511333252224
-0.13570000000000015,-18.49027668923603
-0.13670000000000004,-18.631747819222536
-0.13770000000000016,-18.80151317520634
-0.13870000000000005,-18.92883719219419
-0.13970000000000016,-19.056161209182044
-0.14070000000000005,-19.2400736781645
-0.14170000000000016,-19.367397695152352
-0.14270000000000005,-19.537163051136158
-0.14370000000000016,-19.721075520118614
-0.14470000000000005,-19.93328221509837
-0.14570000000000016,-20.10304757108217
-0.14670000000000005,-20.329401379060574
-0.14770000000000016,-20.499166735044383
-0.14870000000000005,-20.626490752032236
-0.14970000000000017,-20.76796188201874
-0.15070000000000006,-20.85284456001064
-0.15170000000000017,-20.93772723800254
-0.15270000000000006,-21.065051254990397
-0.15370000000000017,-21.2065223849769
-0.15470000000000006,-21.376287740960702
-0.15570000000000017,-21.503611757948562
-0.15670000000000006,-21.67337711393236
-0.15770000000000017,-21.857289582914817
-0.15870000000000006,-21.98461359990267
-0.15970000000000018,-22.111937616890522
-0.16070000000000007,-22.253408746877028
-0.16170000000000018,-22.33829142486893
-0.16270000000000007,-22.508056780852733
-0.16370000000000018,-22.63538079784059
-0.16470000000000007,-22.861734605818995
-0.16570000000000018,-23.031499961802798
-0.16670000000000007,-23.2012653177866
-0.16770000000000018,-23.385177786769056
-0.16870000000000007,-23.55494314275286
-0.16970000000000018,-23.682267159740714
-0.17070000000000007,-23.86617962872317
-0.17170000000000019,-23.993503645711023
-0.17270000000000008,-24.16326900169483
-0.1737000000000002,-24.34718147067728
-0.17470000000000008,-24.516946826661083
-0.1757000000000002,-24.686712182644893
-0.17670000000000008,-24.9130659906233
-0.1777000000000002,-25.0828313466071
-0.17870000000000008,-25.252596702590903
-0.1797000000000002,-25.43650917157336
-0.18070000000000008,-25.60627452755716
-0.1817000000000002,-25.77603988354097
-0.18270000000000008,-25.91751101352747
-0.1837000000000002,-26.044835030515326
-0.1847000000000001,-26.21460038649913
-0.1857000000000002,-26.440954194477534
-0.1867000000000001,-26.61071955046134
-0.1877000000000002,-26.822926245441096
-0.1887000000000001,-27.00683871442355
-0.1897000000000002,-27.176604070407354
-0.1907000000000001,-27.34636942639116
-0.1917000000000001,-27.487840556377662
-0.19269999999999998,-27.65760591236147
-0.1937000000000001,-27.827371268345274
-0.19469999999999998,-28.011283737327723
-0.1957000000000001,-28.22349043230748
-0.19669999999999999,-28.435697127287238
-0.1977000000000001,-28.619609596269694
-0.1987,-28.789374952253496
-0.1997000000000001,-28.959140308237306
-0.2007,-29.100611438223805
-0.2017000000000001,-29.22793545521166
-0.2027,-29.39770081119546
-0.2037000000000001,-29.581613280177915
-0.2047,-29.793819975157668
-0.2057000000000001,-30.00602667013743
-0.2067,-30.232380478115836
-0.2077000000000001,-30.444587173095588
-0.2087,-30.614352529079397
-0.2097000000000001,-30.7558236590659
-0.2107,-30.925589015049702
-0.2117000000000001,-31.052913032037555
-0.2127,-31.23682550102001
-0.2137000000000001,-31.449032195999767
-0.2147,-31.661238890979522
-0.2157000000000001,-31.930034037953877
-0.2167,-32.09979939393769
-0.21770000000000012,-32.32615320191609
-0.2187,-32.45347721890394
-0.21970000000000012,-32.62324257488775
-0.2207,-32.807155043870196
-0.22170000000000012,-33.06180307784591
-0.2227,-33.231568433829715
-0.22370000000000012,-33.50036358080407
-0.2247,-33.712570275783825
-0.22570000000000012,-33.98136542275818
-0.2267,-34.193572117737936
-0.22770000000000012,-34.41992592571634
-0.22870000000000001,-34.58969128170015
-0.22970000000000013,-34.8018979766799
-0.23070000000000002,-35.02825178465831
-0.23170000000000013,-35.240458479638065
-0.23270000000000002,-35.46681228761647
-0.23370000000000013,-35.636577643600276
-0.23470000000000002,-35.848784338580025
-0.23570000000000013,-36.03269680756248
-0.23670000000000002,-36.20246216354629
-0.2376999999999999,-36.329786180534136
-0.23870000000000002,-36.47125731052064
-0.2396999999999999,-36.64102266650445
-0.24070000000000003,-36.81078802248826
-0.24169999999999991,-36.95225915247476
-0.24270000000000003,-37.164465847454515
-0.24369999999999992,-37.41911388143023
-0.24470000000000003,-37.645467689408626
-0.24569999999999992,-37.85767438438838
-0.24670000000000003,-38.12646953136274
-0.24769999999999992,-38.38111756533845
-0.24870000000000003,-38.6499127123128
-0.24969999999999992,-38.90456074628851
-0.25070000000000003,-39.21579723225882
-0.2516999999999999,-39.47044526623452
-0.25270000000000004,-39.739240413208876
-0.2536999999999999,-40.092918238175145
-0.25470000000000004,-40.3900076111468
-0.2556999999999999,-40.65880275812115
-0.25670000000000004,-40.91345079209687
-0.25769999999999993,-41.22468727806717
-0.25870000000000004,-41.52177665103883
-0.25969999999999993,-41.79057179801318
-0.26070000000000004,-42.04521983198889
-0.26169999999999993,-42.3564563179592
-0.26270000000000004,-42.6111043519349
-0.26369999999999993,-42.96478217690117
-0.26470000000000005,-43.27601866287147
-0.26569999999999994,-43.61554937483908
-0.26670000000000005,-43.92678586080939
-0.26769999999999994,-44.223875233781044
-0.26870000000000005,-44.535111719751356
-0.26969999999999994,-44.80390686672572
-0.27070000000000005,-44.97367222270952
-0.27169999999999994,-45.10099623969737
-0.27270000000000005,-45.36979138667173
-0.27369999999999994,-45.624439420647434
-0.27470000000000006,-45.93567590661774
-0.27569999999999995,-46.19032394059345
-0.27670000000000006,-46.501560426563756
-0.27769999999999995,-46.79864979953541
-0.27870000000000006,-47.067444946509774
-0.27969999999999995,-47.27965164148953
-0.28070000000000006,-47.54844678846388
-0.28169999999999995,-47.71821214444768
-0.28270000000000006,-47.8879775004315
-0.28369999999999995,-48.156772647405845
-0.28470000000000006,-48.32653800338966
-0.28569999999999995,-48.51045047237211
-0.28670000000000007,-48.72265716735186
-0.28769999999999996,-48.84998118433972
-0.28870000000000007,-49.118776331314066
-0.28969999999999996,-49.33098302629383
-0.29070000000000007,-49.557336834272235
-0.29169999999999996,-49.85442620724389
-0.29270000000000007,-50.20810403221015
-0.29369999999999996,-50.547634744177756
-0.2947000000000001,-50.90131256914402
-0.29569999999999996,-51.21254905511432
-0.2967000000000001,-51.509638428085985
-0.29769999999999996,-51.82087491405629
-0.2987000000000001,-52.075522948032
-0.29969999999999997,-52.386759434002315
-0.3007000000000001,-52.69799591997262
-0.30169999999999997,-53.03752663194023
-0.3027000000000001,-53.433645795902436
-0.30369999999999997,-53.9570889768525
-0.3047000000000001,-54.31076680181876
-0.30569999999999997,-54.73518019177827
-0.3067000000000001,-55.13129935574048
-0.3077,-55.56985985869864
-0.3087000000000001,-56.008420361656796
-0.3097,-56.44698086461496
-0.3107000000000001,-56.70162889859067
-0.3117,-56.97042404556503
-0.3127000000000001,-57.22507207954074
-0.3137,-57.53630856551105
-0.3147000000000001,-57.8333979384827
-0.3157,-58.10219308545706
-0.3167000000000001,-58.39928245842871
-0.3177,-58.583194927411164
-0.3187000000000001,-58.66807760540307
-0.3197,-58.83784296138688
-0.3207000000000001,-58.97931409137338
-0.3217,-59.23396212534908
-0.3227000000000001,-59.502757272323436
-0.3237,-59.7149639673032
-0.3247000000000001,-60.06864179226946
-0.3257,-60.45061384323302
-0.3267000000000001,-60.84673300719523
-0.3277,-61.242852171157445
-0.3287000000000001,-61.5965299961237
-0.3297,-61.89361936909536
-0.3307000000000001,-62.20485585506566
-0.3317,-62.544386567033264
-0.3327000000000001,-62.89806439199953
-0.3337,-63.29418355596174
-0.3347000000000001,-63.732744058919906
-0.3357,-64.25618723986996
-0.3367000000000001,-64.72304196882543
-0.3377,-65.20404381077954
-0.3387000000000001,-65.64260431373769
-0.3397,-66.03872347769992
-0.3407000000000001,-66.34995996367022
-0.3417,-66.68949067563783
-0.3427000000000001,-67.08560983960004
-0.3437,-67.43928766456631
-0.3447000000000001,-67.7788183765339
-0.3457,-68.17493754049613
-0.3467000000000001,-68.48617402646643
-0.3477,-68.82570473843404
-0.3487000000000001,-69.0944998854084
-0.3497,-69.30670658038814
-0.3507000000000001,-69.4906190493706
-0.3517,-69.6603844053544
-0.3527000000000001,-69.91503243933012
-0.3537,-70.18382758630447
-0.3547000000000001,-70.53750541127073
-0.3557,-70.91947746223428
-0.35670000000000013,-71.31559662619651
-0.3577,-71.75415712915466
-0.35870000000000013,-72.19271763211282
-0.3597,-72.48980700508447
-0.36070000000000013,-72.8859261690467
-0.3617,-73.3669280110008
-0.3626999999999999,-73.80548851395896
-0.3637,-74.28649035591307
-0.3646999999999999,-74.72505085887124
-0.3657,-75.1070229098348
-0.3666999999999999,-75.50314207379701
-0.3677,-75.8992612377592
-0.3686999999999999,-76.29538040172143
-0.36970000000000003,-76.71979379168094
-0.3706999999999999,-77.20079563363505
-0.37170000000000003,-77.7242388145851
-0.3726999999999999,-78.16279931754329
-0.37370000000000003,-78.60135982050144
-0.3746999999999999,-78.99747898446365
-0.37570000000000003,-79.2945683574353
-0.3766999999999999,-79.60580484340561
-0.37770000000000004,-79.90289421637728
-0.3786999999999999,-80.17168936335163
-0.37970000000000004,-80.46877873632329
-0.3806999999999999,-80.73757388329766
-0.38170000000000004,-80.99222191727335
-0.38269999999999993,-81.26101706424771
-0.38370000000000004,-81.51566509822342
-0.38469999999999993,-81.82690158419373
-0.38570000000000004,-82.18057940915998
-0.38669999999999993,-82.61913991211814
-0.38770000000000004,-83.08599464107361
-0.38869999999999993,-83.48211380503581
-0.38970000000000005,-83.83579163000208
-0.39069999999999994,-84.04799832498183
-0.39170000000000005,-84.31679347195619
-0.39269999999999994,-84.57144150593189
-0.39370000000000005,-84.8826779919022
-0.39469999999999994,-85.23635581686847
-0.39570000000000005,-85.66076920682796
-0.39669999999999994,-86.09932970978613
-0.39770000000000005,-86.5378902127443
-0.39869999999999994,-86.89156803771054
-0.39970000000000006,-87.18865741068221
-0.40069999999999995,-87.49989389665252
-0.40170000000000006,-87.79698326962418
-0.40269999999999995,-88.19310243358639
-0.40370000000000006,-88.63166293654454
-0.40469999999999995,-89.11266477849867
-0.40570000000000006,-89.59366662045278
-0.40669999999999995,-90.03222712341093
-0.40770000000000006,-90.37175783537855
-0.40869999999999995,-90.6405529823529
-0.40970000000000006,-90.76787699934074
-0.41069999999999995,-91.03667214631511
-0.41170000000000007,-91.46108553627462
-0.41269999999999996,-91.98452871722468
-0.41370000000000007,-92.50797189817473
-0.41469999999999996,-92.98897374012887
-0.41570000000000007,-93.34265156509512
-0.41669999999999996,-93.61144671206948
-0.41770000000000007,-93.78121206805329
-0.41869999999999996,-93.99341876303303
-0.4197000000000001,-94.30465524900335
-0.42069999999999996,-94.70077441296557
-0.4217000000000001,-95.04030512493317
-0.42269999999999996,-95.43642428889537
-0.4237000000000001,-95.74766077486568
-0.42469999999999997,-95.95986746984543
-0.4257000000000001,-96.17207416482519
-0.42669999999999997,-96.3984279728036
-0.4277000000000001,-96.79454713676581
-0.42869999999999997,-97.17651918772938
-0.4297000000000001,-97.61507969068752
-0.43069999999999997,-97.96875751565379
-0.4317000000000001,-98.13852287163759
-0.4327,-98.2234055496295
-0.4337000000000001,-98.4497593576079
-0.4347,-98.74684873057957
-0.4357000000000001,-99.01564387755391
-0.4367,-99.27029191152963
-0.4377000000000001,-99.58152839749994
-0.4387,-99.87861777047159
-0.4397000000000001,-100.10497157844999
-0.4407,-100.2747369344338
-0.4417000000000001,-100.58597342040412
-0.4427,-100.79818011538387
-0.4437000000000001,-101.06697526235823
-0.4447,-101.44894731332178
-0.4457000000000001,-101.88750781627995
-0.4467,-102.36850965823406
-0.4477000000000001,-102.76462882219626
-0.4487,-103.11830664716253
-0.4497000000000001,-103.33051334214227
-0.4507,-103.37295468113824
-0.4517000000000001,-103.37295468113824
-0.4527,-103.50027869812607
-0.4537000000000001,-103.81151518409638
-0.4547,-104.16519300906265
-0.4557000000000001,-104.41984104303836
-0.4567,-104.5471650600262
-0.4577000000000001,-104.5471650600262
-0.4587,-104.46228238203432
-0.4597000000000001,-104.2925170260505
-0.4607,-104.12275167006669
-0.4617000000000001,-103.98128054008019
-0.4627,-103.93883920108425
-0.4637000000000001,-103.98128054008019
-0.4647,-104.06616321807209
-0.4657000000000001,-104.2076343480586
-0.4667,-104.33495836504645
-0.4677000000000001,-104.41984104303836
-0.4687,-104.50472372103027
-0.4697000000000001,-104.64619485101677
-0.4707,-104.73107752900866
-0.4717000000000001,-104.85840154599651
-0.4727,-104.94328422398843
-0.4737000000000001,-104.98572556298437
-0.4747,-104.98572556298437
-0.4757000000000001,-105.02816690198033
-0.4767,-105.02816690198033
-0.4777000000000001,-105.16963803196683
-0.4787,-105.25452070995874
-0.4797000000000001,-105.38184472694657
-0.4807,-105.50916874393444
-0.48170000000000013,-105.5516100829304
-0.4827,-105.5516100829304
-0.48370000000000013,-105.46672740493848
-0.4847,-105.29696204895468
-0.48570000000000013,-105.11304957997223
-0.4867,-105.02816690198033
-0.4876999999999999,-105.11304957997223
-0.4887,-105.11304957997223
-0.4896999999999999,-104.81596020700057
-0.4907,-104.5471650600262
-0.4916999999999999,-104.25007568705455
-0.4927,-103.89639786208829
-0.4936999999999999,-103.59930848911664
-0.49470000000000003,-103.37295468113824
-0.4956999999999999,-103.16074798615847
-0.49670000000000003,-102.97683551717601
-0.4976999999999999,-102.89195283918411
-0.49870000000000003,-102.84951150018817
-0.4996999999999999,-102.76462882219626
-0.5007,-102.5524221272165
-0.5016999999999999,-102.28362698024215
-0.5027,-102.07142028526239
-0.5036999999999999,-101.84506647728399
-0.5047,-101.54797710431234
-0.5056999999999999,-101.19429927934607
-0.5067,-100.84062145437981
-0.5076999999999999,-100.58597342040412
-0.5087,-100.31717827342976
-0.5096999999999999,-100.06253023945405
