Potential V vs RHE, Current mA cm-2
0.013299999999999867,25.73359854454502
0.012299999999999978,23.51250180375691
0.011299999999999866,21.63093577493641
0.010299999999999976,20.14548891007812
0.009299999999999864,19.01371987018609
0.008299999999999974,17.839509491298113
0.007299999999999862,16.269179948447924
0.006299999999999972,14.387613919627421
0.00529999999999986,12.515950869905978
0.0042999999999999705,10.857909226464155
0.0032999999999998586,9.680869424976446
0.0022999999999999687,8.764136502663902
0.0012999999999998568,7.587096701176192
0.00029999999999996696,6.060623208621817
-0.000700000000000145,4.272428125592412
-0.0017000000000000348,2.5705304318547717
-0.0027000000000001467,1.2626298351295453
-0.0037000000000000366,0.3031726315610774
-0.0047000000000001485,-0.5692798270656908
-0.005700000000000038,-1.6594563547416883
-0.00670000000000015,-3.2297858975918787
-0.00770000000000004,-4.9302688800296535
-0.008700000000000152,-6.414301033588076
-0.009700000000000042,-7.461187395488204
-0.010700000000000154,-8.246352166913299
-0.011700000000000044,-9.11781432763016
-0.012700000000000156,-10.296268840417738
-0.013700000000000045,-11.86659838326793
-0.014700000000000157,-13.436927926118118
-0.015700000000000047,-14.741291744593681
-0.01670000000000016,-15.618412750510005
-0.01770000000000005,-16.22673860945197
-0.01870000000000016,-17.103859615368293
-0.01970000000000005,-18.40539401124413
-0.020700000000000163,-19.97572355409432
-0.021700000000000053,-21.376287740960702
-0.022700000000000164,-22.46561544185678
-0.023700000000000054,-23.15882397879065
-0.024700000000000166,-23.767149837732617
-0.025700000000000056,-24.686712182644893
-0.026700000000000168,-26.044835030515326
-0.027700000000000058,-27.65760591236147
-0.02870000000000017,-28.91669896924135
-0.02970000000000006,-29.751378636161718
-0.03070000000000017,-30.317263156107735
-0.03170000000000006,-30.968030354045652
-0.03270000000000017,-32.01491671594578
-0.03370000000000006,-33.41548090281216
-0.034700000000000175,-34.75945663768395
-0.035700000000000065,-35.94781412957058
-0.03670000000000018,-36.64102266650445
-0.03770000000000007,-37.07958316946261
-0.03870000000000018,-37.81523304539243
-0.03970000000000007,-38.94700208528445
-0.04070000000000018,-40.34756627215084
-0.04170000000000007,-41.606659329030734
-0.04270000000000018,-42.483780334947056
-0.04370000000000007,-43.04966485489307
-0.044700000000000184,-43.53066669684718
-0.045700000000000074,-44.28046368577565
-0.046700000000000186,-45.497115403659585
-0.047700000000000076,-46.94012092952192
-0.04870000000000019,-48.071889969413945
-0.04970000000000008,-48.72265716735186
-0.05070000000000019,-49.118776331314066
-0.05170000000000008,-49.68466085126009
-0.05270000000000019,-50.68910587416426
-0.05370000000000008,-51.90575759204819
-0.05470000000000019,-53.12240930993213
-0.05570000000000008,-54.08441299384035
-0.056700000000000195,-54.791768643772876
-0.057700000000000085,-55.17374069473642
-0.058700000000000196,-55.73962521468245
-0.059700000000000086,-56.74407023758662
-0.0607000000000002,-57.93242772947325
-0.06170000000000009,-59.10663810836124
-0.0627000000000002,-59.92717066228296
-0.06370000000000009,-60.49305518222897
-0.0647000000000002,-60.974057024183075
-0.06570000000000009,-61.63897133511965
-0.0667000000000002,-62.68585769701977
-0.0677000000000001,-63.98739209289561
-0.0687000000000002,-65.03427845479574
-0.0697000000000001,-65.60016297474175
-0.07070000000000021,-65.91139946071206
-0.0717000000000001,-66.39240130266617
-0.07270000000000021,-67.2978165345798
-0.0737000000000001,-68.48617402646643
-0.07470000000000021,-69.70282574435035
-0.0757000000000001,-70.66482942825859
-0.07670000000000021,-71.1458312702127
-0.0777000000000001,-71.4004793041884
-0.07870000000000021,-71.92392248513846
-0.0797000000000001,-72.92836750804264
-0.08070000000000022,-74.14501922592657
-0.0817000000000001,-75.29093537881725
-0.08270000000000022,-75.98414391575112
-0.08370000000000011,-76.38026307971333
-0.08470000000000022,-76.71979379168094
-0.08570000000000011,-77.34226676362155
-0.08670000000000022,-78.43159446451764
-0.08770000000000011,-79.69068752139752
-0.08870000000000022,-80.7800152222936
-0.08970000000000011,-81.30345840324367
-0.09070000000000022,-81.61469488921396
-0.09170000000000011,-81.99666694017753
-0.09270000000000023,-82.8313466070979
-0.09370000000000012,-83.96311564698992
-0.09470000000000023,-85.09488468688197
-0.09570000000000012,-86.01444703179425
-0.09670000000000023,-86.49544887374834
-0.09770000000000012,-86.75009690772404
-0.09870000000000023,-87.23109874967815
-0.09970000000000012,-88.27798511157829
-0.10070000000000023,-89.50878394246087
-0.10170000000000012,-90.59811164335694
-0.10270000000000024,-91.29132018029082
-0.10370000000000013,-91.60255666626112
-0.10470000000000024,-91.94208737822873
-0.10570000000000013,-92.50797189817473
-0.10670000000000024,-93.55485826007487
-0.10770000000000013,-94.8280984299534
-0.10870000000000024,-95.79010211386164
-0.10970000000000013,-96.31354529481169
-0.11070000000000024,-96.61063466778336
-0.11170000000000013,-96.96431249274961
-0.11270000000000002,-97.78484504667132
-0.11370000000000013,-98.93076119956201
-0.11470000000000002,-100.06253023945405
-0.11570000000000014,-100.98209258436633
-0.11670000000000003,-101.40650597432582
-0.11770000000000014,-101.63285978230424
-0.11870000000000003,-102.1563029632543
-0.11970000000000014,-103.07586530816658
-0.12070000000000003,-104.25007568705455
-0.12170000000000014,-105.29696204895468
-0.12270000000000003,-105.99017058588855
-0.12370000000000014,-106.34384841085482
-0.12470000000000003,-106.64093778382647
-0.12570000000000014,-107.30585209476303
-0.12670000000000003,-108.35273845666316
-0.12770000000000015,-109.61183151354304
-0.12870000000000004,-110.57383519745127
-0.12970000000000015,-111.13971971739728
-0.13070000000000004,-111.35192641237703
-0.13170000000000015,-111.7904869153352
-0.13270000000000004,-112.58272524325962
-0.13370000000000015,-113.71449428315165
-0.13470000000000004,-114.80382198404773
-0.13570000000000015,-115.62435453796945
-0.13670000000000004,-116.10535637992358
-0.13770000000000016,-116.37415152689792
-0.13870000000000005,-116.89759470784797
-0.13970000000000016,-117.85959839175621
-0.14070000000000005,-119.07625010964013
-0.14170000000000016,-120.08069513254432
-0.14270000000000005,-120.77390366947817
-0.14370000000000016,-121.12758149444444
-0.14470000000000005,-121.48125931941068
-0.14570000000000016,-122.08958517835266
-0.14670000000000005,-123.05158886226087
-0.14770000000000016,-124.31068191914078
-0.14870000000000005,-125.272685603049
-0.14970000000000017,-125.83857012299501
-0.15070000000000006,-126.14980660896532
-0.15170000000000017,-126.48933732093293
-0.15270000000000006,-127.28157564885734
-0.15370000000000017,-128.41334468874936
-0.15470000000000006,-129.5451137286414
-0.15570000000000017,-130.42223473455772
-0.15670000000000006,-130.84664812451723
-0.15770000000000017,-131.07300193249566
-0.15870000000000006,-131.5964451134457
-0.15970000000000018,-132.60089013634988
-0.16070000000000007,-133.77510051523788
-0.16170000000000018,-134.86442821613394
-0.16270000000000007,-135.51519541407185
-0.16370000000000018,-135.91131457803408
-0.16470000000000007,-136.26499240300032
-0.16570000000000018,-136.91575960093826
-0.16670000000000007,-137.9626459628384
-0.16770000000000018,-139.27832747171286
-0.16870000000000007,-140.2686253816184
-0.16970000000000018,-140.74962722357247
-0.17070000000000007,-141.01842237054686
-0.17170000000000019,-141.41454153450906
-0.17270000000000008,-142.17848563643616
-0.1737000000000002,-143.3102546763282
-0.17470000000000008,-144.44202371622026
-0.1757000000000002,-145.29085049613926
-0.17670000000000008,-145.7152638860988
-0.1777000000000002,-145.9982061460718
-0.17870000000000008,-146.5640906660178
-0.1797000000000002,-147.55438857592333
-0.18070000000000008,-148.68615761581535
-0.1817000000000002,-149.6764555257209
-0.18270000000000008,-150.38381117565342
-0.1837000000000002,-150.8082245656129
-0.1847000000000001,-151.09116682558593
-0.1857000000000002,-151.65705134553193
-0.1867000000000001,-152.64734925543743
-0.1877000000000002,-153.920589425316
-0.1887000000000001,-155.05235846520802
-0.1897000000000002,-155.47677185516753
-0.1907000000000001,-155.75971411514055
-0.1917000000000001,-156.04265637511355
-0.19269999999999998,-156.89148315503257
-0.1937000000000001,-158.02325219492457
-0.19469999999999998,-159.01355010483013
-0.1957000000000001,-159.86237688474912
-0.19669999999999999,-160.28679027470866
-0.1977000000000001,-160.71120366466818
-0.1987,-161.1356170546277
-0.1997000000000001,-162.12591496453322
-0.2007,-163.39915513441173
-0.2017000000000001,-164.38945304431726
-0.2027,-165.09680869424977
-0.2037000000000001,-165.3797509542228
-0.2047,-165.8041643441823
-0.2057000000000001,-166.3700488641283
-0.2067,-167.36034677403384
-0.2077000000000001,-168.63358694391238
-0.2087,-169.6238848538179
-0.2097000000000001,-170.18976937376394
-0.2107,-170.47271163373694
-0.2117000000000001,-170.75565389370993
-0.2127,-171.60448067362896
-0.2137000000000001,-172.73624971352098
-0.2147,-173.86801875341303
-0.2157000000000001,-174.71684553333202
-0.2167,-175.28273005327804
-0.21770000000000012,-175.42420118326456
-0.2187,-175.99008570321055
-0.21970000000000012,-176.98038361311612
-0.2207,-178.1121526530081
-0.22170000000000012,-179.24392169290016
-0.2227,-179.95127734283267
-0.22370000000000012,-180.37569073279218
-0.2247,-180.65863299276518
-0.22570000000000012,-181.2245175127112
-0.2267,-182.21481542261674
-0.22770000000000012,-183.48805559249527
-0.22870000000000001,-184.47835350240078
-0.22970000000000013,-185.0442380223468
-0.23070000000000002,-185.1857091523333
-0.23170000000000013,-185.6101225422928
-0.23270000000000002,-186.60042045219836
-0.23370000000000013,-187.59071836210387
-0.23470000000000002,-188.72248740199586
-0.23570000000000013,-189.42984305192843
-0.23670000000000002,-189.8542564418879
-0.2376999999999999,-190.13719870186094
-0.23870000000000002,-190.56161209182042
-0.2396999999999999,-191.69338113171247
-0.24070000000000003,-192.966621301591
-0.24169999999999991,-194.09839034148303
-0.24270000000000003,-194.66427486142905
-0.24369999999999992,-194.94721712140205
-0.24470000000000003,-195.23015938137505
-0.24569999999999992,-195.79604390132107
-0.24670000000000003,-196.92781294121312
-0.24769999999999992,-198.20105311109162
-0.24870000000000003,-199.33282215098367
-0.24969999999999992,-199.89870667092967
-0.25070000000000003,-200.18164893090267
-0.2516999999999999,-200.6060623208622
-0.25270000000000004,-201.4548891007812
-0.2536999999999999,-202.58665814067325
-0.25470000000000004,-203.71842718056527
-0.2556999999999999,-204.5672539604843
-0.25670000000000004,-204.9916673504438
-0.25769999999999993,-205.27460961041683
-0.25870000000000004,-205.84049413036286
-0.25969999999999993,-206.83079204026836
-0.26070000000000004,-207.96256108016038
-0.26169999999999993,-209.0943301200524
-0.26270000000000004,-209.8016857699849
-0.26369999999999993,-210.08462802995794
-0.26470000000000005,-210.36757028993094
-0.26569999999999994,-211.07492593986345
-0.26670000000000005,-212.065223849769
-0.26769999999999994,-213.33846401964755
-0.26870000000000005,-214.32876192955305
-0.26969999999999994,-214.89464644949908
-0.27070000000000005,-215.17758870947208
-0.27169999999999994,-215.4605309694451
-0.27270000000000005,-216.3093577493641
-0.27369999999999994,-217.44112678925615
-0.27470000000000006,-218.71436695913465
-0.27569999999999995,-219.5631937390537
-0.27670000000000006,-219.98760712901318
-0.27769999999999995,-220.2705493889862
-0.27870000000000006,-220.6949627789457
-0.27969999999999995,-221.68526068885126
-0.28070000000000006,-222.81702972874328
-0.28169999999999995,-223.9487987686353
-0.28270000000000006,-224.5146832885813
-0.28369999999999995,-224.79762554855435
-0.28470000000000006,-225.08056780852735
-0.28569999999999995,-225.78792345845983
-0.28670000000000007,-226.77822136836537
-0.28769999999999996,-227.9099904082574
-0.28870000000000007,-228.75881718817644
-0.28969999999999996,-229.18323057813595
-0.29070000000000007,-229.60764396809546
-0.29169999999999996,-230.03205735805497
-0.29270000000000007,-231.0223552679605
-0.29369999999999996,-232.15412430785253
-0.2947000000000001,-233.1444222177581
-0.29569999999999996,-233.85177786769057
-0.2967000000000001,-234.27619125765005
-0.29769999999999996,-234.55913351762308
-0.2987000000000001,-235.12501803756908
-0.29969999999999997,-236.1153159474746
-0.3007000000000001,-237.24708498736666
-0.30169999999999997,-238.2373828972722
-0.3027000000000001,-238.8032674172182
-0.30369999999999997,-239.0862096771912
-0.3047000000000001,-239.36915193716422
-0.30569999999999997,-240.0765075870967
-0.3067000000000001,-241.06680549700224
-0.3077,-242.48151679686728
-0.3087000000000001,-243.47181470677282
-0.3097,-244.03769922671884
-0.3107000000000001,-244.32064148669184
-0.3117,-244.8865260066378
-0.3127000000000001,-245.59388165657037
-0.3137,-247.0085929564354
-0.3147000000000001,-248.14036199632744
-0.3157,-248.9891887762465
-0.3167000000000001,-249.2721310362195
-0.3177,-249.41360216620598
-0.3187000000000001,-249.979486686152
-0.3197,-250.9697845960575
-0.3207000000000001,-252.38449589592256
-0.3217,-253.51626493581452
-0.3227000000000001,-254.08214945576057
-0.3237,-254.36509171573357
-0.3247000000000001,-254.78950510569314
-0.3257,-255.49686075562562
-0.3267000000000001,-256.62862979551767
-0.3277,-257.90186996539614
-0.3287000000000001,-258.8921678753017
-0.3297,-259.4580523952477
-0.3307000000000001,-259.59952352523425
-0.3317,-260.16540804518024
-0.3327000000000001,-261.01423482509927
-0.3337,-262.1460038649913
-0.3347000000000001,-263.41924403486985
-0.3357,-264.2680708147888
-0.3367000000000001,-264.83395533473487
-0.3377,-265.11689759470784
-0.3387000000000001,-265.82425324464043
-0.3397,-266.8145511545459
-0.3407000000000001,-268.22926245441096
-0.3417,-269.361031494303
-0.3427000000000001,-270.0683871442355
-0.3437,-270.35132940420846
-0.3447000000000001,-270.63427166418154
-0.3457,-271.341627314114
-0.3467000000000001,-272.3319252240195
-0.3477,-273.60516539389806
-0.3487000000000001,-274.5954633038036
-0.3497,-275.1613478237496
-0.3507000000000001,-275.44429008372265
-0.3517,-275.86870347368216
-0.3527000000000001,-276.7175302536012
-0.3537,-277.84929929349323
-0.3547000000000001,-279.1225394633717
-0.3557,-280.11283737327733
-0.35670000000000013,-280.5372507632368
-0.3577,-280.82019302320975
-0.35870000000000013,-281.24460641316927
-0.3597,-282.2349043230748
-0.36070000000000013,-283.3666733629668
-0.3617,-284.35697127287233
-0.3626999999999999,-285.3472691827779
-0.3637,-285.9131537027239
-0.3646999999999999,-286.0546248327104
-0.3657,-286.6205093526564
-0.3666999999999999,-287.327865002589
-0.3677,-288.45963404248096
-0.3686999999999999,-289.59140308237295
-0.36970000000000003,-290.29875873230554
-0.3706999999999999,-290.723172122265
-0.37170000000000003,-291.28905664221105
-0.3726999999999999,-292.1378834221301
-0.37370000000000003,-293.26965246202207
-0.3746999999999999,-294.4014215019141
-0.37570000000000003,-295.10877715184665
-0.3766999999999999,-295.67466167179265
-0.37770000000000004,-296.0990750617522
-0.3786999999999999,-296.6649595816982
-0.37970000000000004,-297.6552574916037
-0.3806999999999999,-298.9284976614822
-0.38170000000000004,-299.91879557138776
-0.38269999999999993,-300.48468009133376
-0.38370000000000004,-300.76762235130684
-0.38469999999999993,-301.1920357412663
-0.38570000000000004,-301.8993913911989
-0.38669999999999993,-301.8993913911989
-0.38570000000000004,-299.6358533114148
-0.38469999999999993,-297.3723152316307
-0.38370000000000004,-294.68436376188714
-0.38269999999999993,-291.571998902184
-0.38170000000000004,-288.742576302454
-0.3806999999999999,-286.33756709268346
-0.37970000000000004,-284.35697127287233
-0.3786999999999999,-282.2349043230748
-0.37770000000000004,-279.97136624329073
-0.3766999999999999,-277.4248859035337
-0.37570000000000003,-274.7369344337901
-0.3746999999999999,-272.3319252240195
-0.37370000000000003,-270.20985827422203
-0.3726999999999999,-268.22926245441096
-0.37170000000000003,-266.1071955046134
-0.3706999999999999,-263.7021862948428
-0.36970000000000003,-261.58011934504526
-0.3686999999999999,-259.59952352523425
-0.3677,-257.90186996539614
-0.3666999999999999,-255.92127414558513
-0.3657,-253.65773606580112
-0.3646999999999999,-251.111255726044
-0.3637,-248.42330425630044
-0.3626999999999999,-246.01829504652986
-0.3617,-243.75475696674582
-0.36070000000000013,-242.05710340690777
-0.3597,-240.35944984706975
-0.35870000000000013,-238.37885402725868
-0.3577,-235.97384481748813
-0.35670000000000013,-233.28589334774458
-0.3557,-230.59794187800094
-0.3547000000000001,-228.1929326682304
-0.3537,-226.49527910839237
-0.3527000000000001,-224.93909667854084
-0.3517,-223.09997198871628
-0.3507000000000001,-220.83643390893224
-0.3497,-218.14848243918865
-0.3487000000000001,-215.7434732294181
-0.3477,-213.76287740960703
-0.3467000000000001,-212.065223849769
-0.3457,-210.50904141991748
-0.3447000000000001,-208.6699167300929
-0.3437,-206.26490752032234
-0.3427000000000001,-203.71842718056527
-0.3417,-201.31341797079472
-0.3407000000000001,-199.33282215098367
-0.3397,-197.63516859114563
-0.3387000000000001,-195.93751503130758
-0.3377,-193.9569192114965
-0.3367000000000001,-191.69338113171247
-0.3357,-189.1469007919554
-0.3347000000000001,-186.88336271217133
-0.3337,-185.0442380223468
-0.3327000000000001,-183.62952672248176
-0.3317,-181.93187316264374
-0.3307000000000001,-179.80980621284618
-0.3297,-177.4047970030756
-0.3287000000000001,-175.14125892329156
-0.3277,-173.16066310348046
-0.3267000000000001,-171.46300954364247
-0.3257,-170.0482982437774
-0.3247000000000001,-168.20917355395284
-0.3237,-165.94563547416882
-0.3227000000000001,-163.39915513441173
-0.3217,-161.2770881846142
-0.3207000000000001,-159.43796349478964
-0.3197,-158.02325219492457
-0.3187000000000001,-156.46706976507306
-0.3177,-154.6279450752485
-0.3167000000000001,-152.36440699546444
-0.3157,-150.1008689156804
-0.3147000000000001,-147.97880196588284
-0.3137,-146.5640906660178
-0.3127000000000001,-145.14937936615277
-0.3117,-143.73466806628772
-0.3107000000000001,-141.89554337646317
-0.3097,-139.6602995226764
-0.3087000000000001,-137.43920278188833
-0.3077,-135.6991078830543
-0.3067000000000001,-134.17121967920008
-0.30569999999999997,-132.8555381703256
-0.3047000000000001,-131.37009130546733
-0.30369999999999997,-129.3753483726576
-0.3027000000000001,-127.19669297086547
-0.30169999999999997,-125.18780292505707
-0.3007000000000001,-123.532590704215
-0.29969999999999997,-122.17446785634456
-0.2987000000000001,-120.77390366947817
-0.29769999999999996,-119.03380877064419
-0.2967000000000001,-116.98247738583989
-0.29569999999999996,-114.93114600103557
-0.2947000000000001,-113.06372708521374
-0.29369999999999996,-111.7056042373433
-0.29270000000000007,-110.57383519745127
-0.29169999999999996,-109.13082967158894
-0.29070000000000007,-107.34829343375898
-0.28969999999999996,-105.25452070995874
-0.28870000000000007,-103.24563066415038
-0.28769999999999996,-101.59041844330828
-0.28670000000000007,-100.2747369344338
-0.28569999999999995,-99.05808521654988
-0.28470000000000006,-97.61507969068752
-0.28369999999999995,-95.64863098387512
-0.28270000000000006,-93.46997558208298
-0.28169999999999995,-91.51767398826922
-0.28070000000000006,-90.03222712341093
-0.27969999999999995,-88.9004580835189
-0.27870000000000006,-87.62721791364037
-0.27769999999999995,-85.97200569279828
-0.27670000000000006,-84.00555698598588
-0.27569999999999995,-81.91178426218562
-0.27470000000000006,-80.12924802435568
-0.27369999999999994,-78.77112517648524
-0.27270000000000005,-77.7242388145851
-0.27169999999999994,-76.46514575770523
-0.27070000000000005,-74.76749219786718
-0.26969999999999994,-72.71616081306288
-0.26870000000000005,-70.79215344524643
-0.26769999999999994,-69.22182390239624
