Dec. 16, 2024   20:47:55
Cyclic Voltammetry
File: c:/users/guazh/data/banditlqround7_x0exp667_r5/2024-12-16-exp674\exp674-2024-12-16t20_39_01-h2koh\exp674_cv_sr_900mvs_efin_-1400mv.bin
Data Source:  Experiment
Instrument Model:  CHI760E
Header: CV ran at 900 mVs
Note: 

Init E (V) = -1
High E (V) = -1
Low E (V) = -1.4
Final E (V) = -1
Init P/N = N
Scan Rate (V/s) = 0.9
Segment = 3
Sample Interval (V) = 0.001
Quiet Time (sec) = 2
Sensitivity (A/V) = 0.01
Comp R (ohm) = 1.0

Results:

Channel 1:
Segment 1:

Segment 2:

Segment 3:

Potential/V, Current/A

-1.000, -1.171e-3
-1.001, -1.042e-3
-1.002, -9.186e-4
-1.003, -7.860e-4
-1.004, -6.504e-4
-1.005, -5.271e-4
-1.006, -4.068e-4
-1.007, -2.804e-4
-1.008, -1.756e-4
-1.009, -7.384e-5
-1.010, 2.790e-5
-1.011, 1.235e-4
-1.012, 2.067e-4
-1.013, 3.085e-4
-1.014, 4.010e-4
-1.015, 5.058e-4
-1.016, 6.106e-4
-1.017, 7.216e-4
-1.018, 8.388e-4
-1.019, 9.559e-4
-1.020, 1.073e-3
-1.021, 1.178e-3
-1.022, 1.289e-3
-1.023, 1.384e-3
-1.024, 1.471e-3
-1.025, 1.560e-3
-1.026, 1.643e-3
-1.027, 1.714e-3
-1.028, 1.807e-3
-1.029, 1.893e-3
-1.030, 1.986e-3
-1.031, 2.087e-3
-1.032, 2.186e-3
-1.033, 2.294e-3
-1.034, 2.408e-3
-1.035, 2.513e-3
-1.036, 2.608e-3
-1.037, 2.713e-3
-1.038, 2.797e-3
-1.039, 2.880e-3
-1.040, 2.960e-3
-1.041, 3.037e-3
-1.042, 3.099e-3
-1.043, 3.182e-3
-1.044, 3.262e-3
-1.045, 3.348e-3
-1.046, 3.438e-3
-1.047, 3.533e-3
-1.048, 3.632e-3
-1.049, 3.734e-3
-1.050, 3.829e-3
-1.051, 3.922e-3
-1.052, 4.017e-3
-1.053, 4.098e-3
-1.054, 4.172e-3
-1.055, 4.246e-3
-1.056, 4.313e-3
-1.057, 4.372e-3
-1.058, 4.446e-3
-1.059, 4.517e-3
-1.060, 4.597e-3
-1.061, 4.683e-3
-1.062, 4.773e-3
-1.063, 4.862e-3
-1.064, 4.964e-3
-1.065, 5.053e-3
-1.066, 5.137e-3
-1.067, 5.232e-3
-1.068, 5.303e-3
-1.069, 5.371e-3
-1.070, 5.439e-3
-1.071, 5.507e-3
-1.072, 5.556e-3
-1.073, 5.630e-3
-1.074, 5.695e-3
-1.075, 5.769e-3
-1.076, 5.852e-3
-1.077, 5.932e-3
-1.078, 6.021e-3
-1.079, 6.114e-3
-1.080, 6.197e-3
-1.081, 6.277e-3
-1.082, 6.367e-3
-1.083, 6.435e-3
-1.084, 6.499e-3
-1.085, 6.564e-3
-1.086, 6.626e-3
-1.087, 6.675e-3
-1.088, 6.740e-3
-1.089, 6.805e-3
-1.090, 6.872e-3
-1.091, 6.949e-3
-1.092, 7.033e-3
-1.093, 7.116e-3
-1.094, 7.205e-3
-1.095, 7.292e-3
-1.096, 7.369e-3
-1.097, 7.455e-3
-1.098, 7.517e-3
-1.099, 7.578e-3
-1.100, 7.640e-3
-1.101, 7.696e-3
-1.102, 7.742e-3
-1.103, 7.807e-3
-1.104, 7.865e-3
-1.105, 7.936e-3
-1.106, 8.010e-3
-1.107, 8.084e-3
-1.108, 8.167e-3
-1.109, 8.254e-3
-1.110, 8.334e-3
-1.111, 8.408e-3
-1.112, 8.491e-3
-1.113, 8.556e-3
-1.114, 8.614e-3
-1.115, 8.676e-3
-1.116, 8.732e-3
-1.117, 8.775e-3
-1.118, 8.839e-3
-1.119, 8.901e-3
-1.120, 8.969e-3
-1.121, 9.043e-3
-1.122, 9.117e-3
-1.123, 9.197e-3
-1.124, 9.283e-3
-1.125, 9.360e-3
-1.126, 9.438e-3
-1.127, 9.518e-3
-1.128, 9.582e-3
-1.129, 9.638e-3
-1.130, 9.693e-3
-1.131, 9.749e-3
-1.132, 9.792e-3
-1.133, 9.854e-3
-1.134, 9.909e-3
-1.135, 9.971e-3
-1.136, 1.004e-2
-1.137, 1.011e-2
-1.138, 1.019e-2
-1.139, 1.027e-2
-1.140, 1.036e-2
-1.141, 1.042e-2
-1.142, 1.051e-2
-1.143, 1.057e-2
-1.144, 1.063e-2
-1.145, 1.069e-2
-1.146, 1.074e-2
-1.147, 1.078e-2
-1.148, 1.085e-2
-1.149, 1.090e-2
-1.150, 1.096e-2
-1.151, 1.103e-2
-1.152, 1.111e-2
-1.153, 1.118e-2
-1.154, 1.126e-2
-1.155, 1.134e-2
-1.156, 1.141e-2
-1.157, 1.149e-2
-1.158, 1.155e-2
-1.159, 1.161e-2
-1.160, 1.166e-2
-1.161, 1.172e-2
-1.162, 1.176e-2
-1.163, 1.182e-2
-1.164, 1.188e-2
-1.165, 1.194e-2
-1.166, 1.201e-2
-1.167, 1.208e-2
-1.168, 1.216e-2
-1.169, 1.224e-2
-1.170, 1.232e-2
-1.171, 1.239e-2
-1.172, 1.247e-2
-1.173, 1.253e-2
-1.174, 1.259e-2
-1.175, 1.264e-2
-1.176, 1.270e-2
-1.177, 1.274e-2
-1.178, 1.280e-2
-1.179, 1.286e-2
-1.180, 1.292e-2
-1.181, 1.299e-2
-1.182, 1.306e-2
-1.183, 1.314e-2
-1.184, 1.322e-2
-1.185, 1.329e-2
-1.186, 1.336e-2
-1.187, 1.344e-2
-1.188, 1.350e-2
-1.189, 1.355e-2
-1.190, 1.361e-2
-1.191, 1.366e-2
-1.192, 1.370e-2
-1.193, 1.377e-2
-1.194, 1.382e-2
-1.195, 1.388e-2
-1.196, 1.395e-2
-1.197, 1.402e-2
-1.198, 1.410e-2
-1.199, 1.418e-2
-1.200, 1.426e-2
-1.201, 1.433e-2
-1.202, 1.441e-2
-1.203, 1.447e-2
-1.204, 1.453e-2
-1.205, 1.459e-2
-1.206, 1.464e-2
-1.207, 1.468e-2
-1.208, 1.474e-2
-1.209, 1.480e-2
-1.210, 1.486e-2
-1.211, 1.493e-2
-1.212, 1.500e-2
-1.213, 1.507e-2
-1.214, 1.516e-2
-1.215, 1.523e-2
-1.216, 1.530e-2
-1.217, 1.538e-2
-1.218, 1.543e-2
-1.219, 1.548e-2
-1.220, 1.554e-2
-1.221, 1.559e-2
-1.222, 1.563e-2
-1.223, 1.569e-2
-1.224, 1.574e-2
-1.225, 1.580e-2
-1.226, 1.587e-2
-1.227, 1.595e-2
-1.228, 1.602e-2
-1.229, 1.611e-2
-1.230, 1.618e-2
-1.231, 1.625e-2
-1.232, 1.633e-2
-1.233, 1.639e-2
-1.234, 1.644e-2
-1.235, 1.650e-2
-1.236, 1.655e-2
-1.237, 1.660e-2
-1.238, 1.666e-2
-1.239, 1.671e-2
-1.240, 1.678e-2
-1.241, 1.684e-2
-1.242, 1.691e-2
-1.243, 1.699e-2
-1.244, 1.707e-2
-1.245, 1.714e-2
-1.246, 1.720e-2
-1.247, 1.728e-2
-1.248, 1.734e-2
-1.249, 1.740e-2
-1.250, 1.745e-2
-1.251, 1.750e-2
-1.252, 1.754e-2
-1.253, 1.760e-2
-1.254, 1.766e-2
-1.255, 1.772e-2
-1.256, 1.780e-2
-1.257, 1.787e-2
-1.258, 1.795e-2
-1.259, 1.803e-2
-1.260, 1.810e-2
-1.261, 1.817e-2
-1.262, 1.825e-2
-1.263, 1.830e-2
-1.264, 1.836e-2
-1.265, 1.843e-2
-1.266, 1.849e-2
-1.267, 1.854e-2
-1.268, 1.860e-2
-1.269, 1.865e-2
-1.270, 1.870e-2
-1.271, 1.876e-2
-1.272, 1.883e-2
-1.273, 1.890e-2
-1.274, 1.898e-2
-1.275, 1.905e-2
-1.276, 1.913e-2
-1.277, 1.920e-2
-1.278, 1.927e-2
-1.279, 1.932e-2
-1.280, 1.938e-2
-1.281, 1.943e-2
-1.282, 1.948e-2
-1.283, 1.953e-2
-1.284, 1.959e-2
-1.285, 1.965e-2
-1.286, 1.973e-2
-1.287, 1.980e-2
-1.288, 1.988e-2
-1.289, 1.996e-2
-1.290, 2.004e-2
-1.291, 2.011e-2
-1.292, 2.019e-2
-1.293, 2.026e-2
-1.294, 2.031e-2
-1.295, 2.037e-2
-1.296, 2.042e-2
-1.297, 2.045e-2
-1.298, 2.050e-2
-1.299, 2.054e-2
-1.300, 2.060e-2
-1.301, 2.066e-2
-1.302, 2.072e-2
-1.303, 2.080e-2
-1.304, 2.089e-2
-1.305, 2.097e-2
-1.306, 2.104e-2
-1.307, 2.113e-2
-1.308, 2.119e-2
-1.309, 2.124e-2
-1.310, 2.130e-2
-1.311, 2.135e-2
-1.312, 2.140e-2
-1.313, 2.146e-2
-1.314, 2.151e-2
-1.315, 2.158e-2
-1.316, 2.165e-2
-1.317, 2.172e-2
-1.318, 2.180e-2
-1.319, 2.188e-2
-1.320, 2.195e-2
-1.321, 2.202e-2
-1.322, 2.210e-2
-1.323, 2.216e-2
-1.324, 2.221e-2
-1.325, 2.227e-2
-1.326, 2.233e-2
-1.327, 2.236e-2
-1.328, 2.242e-2
-1.329, 2.247e-2
-1.330, 2.253e-2
-1.331, 2.259e-2
-1.332, 2.264e-2
-1.333, 2.271e-2
-1.334, 2.278e-2
-1.335, 2.285e-2
-1.336, 2.291e-2
-1.337, 2.298e-2
-1.338, 2.303e-2
-1.339, 2.308e-2
-1.340, 2.313e-2
-1.341, 2.318e-2
-1.342, 2.322e-2
-1.343, 2.328e-2
-1.344, 2.334e-2
-1.345, 2.340e-2
-1.346, 2.346e-2
-1.347, 2.353e-2
-1.348, 2.360e-2
-1.349, 2.367e-2
-1.350, 2.375e-2
-1.351, 2.381e-2
-1.352, 2.389e-2
-1.353, 2.395e-2
-1.354, 2.400e-2
-1.355, 2.406e-2
-1.356, 2.411e-2
-1.357, 2.415e-2
-1.358, 2.421e-2
-1.359, 2.426e-2
-1.360, 2.432e-2
-1.361, 2.439e-2
-1.362, 2.446e-2
-1.363, 2.454e-2
-1.364, 2.462e-2
-1.365, 2.470e-2
-1.366, 2.477e-2
-1.367, 2.485e-2
-1.368, 2.490e-2
-1.369, 2.495e-2
-1.370, 2.501e-2
-1.371, 2.506e-2
-1.372, 2.509e-2
-1.373, 2.515e-2
-1.374, 2.520e-2
-1.375, 2.526e-2
-1.376, 2.533e-2
-1.377, 2.540e-2
-1.378, 2.547e-2
-1.379, 2.555e-2
-1.380, 2.562e-2
-1.381, 2.570e-2
-1.382, 2.577e-2
-1.383, 2.583e-2
-1.384, 2.589e-2
-1.385, 2.594e-2
-1.386, 2.599e-2
-1.387, 2.603e-2
-1.388, 2.609e-2
-1.389, 2.614e-2
-1.390, 2.620e-2
-1.391, 2.626e-2
-1.392, 2.633e-2
-1.393, 2.640e-2
-1.394, 2.648e-2
-1.395, 2.656e-2
-1.396, 2.663e-2
-1.397, 2.670e-2
-1.398, 2.676e-2
-1.399, 2.681e-2
-1.400, 2.678e-2
-1.399, 2.658e-2
-1.398, 2.637e-2
-1.397, 2.619e-2
-1.396, 2.599e-2
-1.395, 2.581e-2
-1.394, 2.564e-2
-1.393, 2.547e-2
-1.392, 2.532e-2
-1.391, 2.516e-2
-1.390, 2.500e-2
-1.389, 2.484e-2
-1.388, 2.469e-2
-1.387, 2.451e-2
-1.386, 2.434e-2
-1.385, 2.416e-2
-1.384, 2.398e-2
-1.383, 2.379e-2
-1.382, 2.361e-2
-1.381, 2.343e-2
-1.380, 2.327e-2
-1.379, 2.312e-2
-1.378, 2.297e-2
-1.377, 2.282e-2
-1.376, 2.267e-2
-1.375, 2.253e-2
-1.374, 2.238e-2
-1.373, 2.223e-2
-1.372, 2.207e-2
-1.371, 2.190e-2
-1.370, 2.173e-2
-1.369, 2.156e-2
-1.368, 2.137e-2
-1.367, 2.121e-2
-1.366, 2.104e-2
-1.365, 2.088e-2
-1.364, 2.073e-2
-1.363, 2.059e-2
-1.362, 2.044e-2
-1.361, 2.031e-2
-1.360, 2.017e-2
-1.359, 2.002e-2
-1.358, 1.989e-2
-1.357, 1.973e-2
-1.356, 1.957e-2
-1.355, 1.941e-2
-1.354, 1.924e-2
-1.353, 1.906e-2
-1.352, 1.891e-2
-1.351, 1.875e-2
-1.350, 1.860e-2
-1.349, 1.845e-2
-1.348, 1.831e-2
-1.347, 1.817e-2
-1.346, 1.804e-2
-1.345, 1.791e-2
-1.344, 1.777e-2
-1.343, 1.764e-2
-1.342, 1.748e-2
-1.341, 1.733e-2
-1.340, 1.717e-2
-1.339, 1.701e-2
-1.338, 1.685e-2
-1.337, 1.670e-2
-1.336, 1.654e-2
-1.335, 1.640e-2
-1.334, 1.625e-2
-1.333, 1.612e-2
-1.332, 1.599e-2
-1.331, 1.587e-2
-1.330, 1.574e-2
-1.329, 1.561e-2
-1.328, 1.548e-2
-1.327, 1.533e-2
-1.326, 1.518e-2
-1.325, 1.504e-2
-1.324, 1.489e-2
-1.323, 1.473e-2
-1.322, 1.458e-2
-1.321, 1.444e-2
-1.320, 1.430e-2
-1.319, 1.417e-2
-1.318, 1.404e-2
-1.317, 1.392e-2
-1.316, 1.381e-2
-1.315, 1.369e-2
-1.314, 1.356e-2
-1.313, 1.344e-2
-1.312, 1.330e-2
-1.311, 1.316e-2
-1.310, 1.302e-2
-1.309, 1.288e-2
-1.308, 1.272e-2
-1.307, 1.259e-2
-1.306, 1.245e-2
-1.305, 1.232e-2
-1.304, 1.220e-2
-1.303, 1.208e-2
-1.302, 1.197e-2
-1.301, 1.185e-2
-1.300, 1.174e-2
-1.299, 1.162e-2
-1.298, 1.151e-2
-1.297, 1.137e-2
-1.296, 1.124e-2
-1.295, 1.110e-2
-1.294, 1.096e-2
-1.293, 1.081e-2
-1.292, 1.068e-2
-1.291, 1.055e-2
-1.290, 1.041e-2
-1.289, 1.029e-2
-1.288, 1.018e-2
-1.287, 1.007e-2
-1.286, 9.959e-3
-1.285, 9.848e-3
-1.284, 9.727e-3
-1.283, 9.623e-3
-1.282, 9.487e-3
-1.281, 9.351e-3
-1.280, 9.219e-3
-1.279, 9.080e-3
-1.278, 8.932e-3
-1.277, 8.806e-3
-1.276, 8.670e-3
-1.275, 8.543e-3
-1.274, 8.426e-3
-1.273, 8.312e-3
-1.272, 8.207e-3
-1.271, 8.103e-3
-1.270, 8.001e-3
-1.269, 7.887e-3
-1.268, 7.782e-3
-1.267, 7.656e-3
-1.266, 7.529e-3
-1.265, 7.400e-3
-1.264, 7.273e-3
-1.263, 7.128e-3
-1.262, 7.005e-3
-1.261, 6.879e-3
-1.260, 6.752e-3
-1.259, 6.641e-3
-1.258, 6.530e-3
-1.257, 6.428e-3
-1.256, 6.327e-3
-1.255, 6.228e-3
-1.254, 6.120e-3
-1.253, 6.021e-3
-1.252, 5.901e-3
-1.251, 5.778e-3
-1.250, 5.655e-3
-1.249, 5.531e-3
-1.248, 5.393e-3
-1.247, 5.275e-3
-1.246, 5.152e-3
-1.245, 5.035e-3
-1.244, 4.924e-3
-1.243, 4.816e-3
-1.242, 4.717e-3
-1.241, 4.622e-3
-1.240, 4.523e-3
-1.239, 4.421e-3
-1.238, 4.323e-3
-1.237, 4.206e-3
-1.236, 4.085e-3
-1.235, 3.968e-3
-1.234, 3.842e-3
-1.233, 3.709e-3
-1.232, 3.595e-3
-1.231, 3.475e-3
-1.230, 3.361e-3
-1.229, 3.253e-3
-1.228, 3.151e-3
-1.227, 3.059e-3
-1.226, 2.963e-3
-1.225, 2.871e-3
-1.224, 2.775e-3
-1.223, 2.679e-3
-1.222, 2.568e-3
-1.221, 2.454e-3
-1.220, 2.337e-3
-1.219, 2.220e-3
-1.218, 2.087e-3
-1.217, 1.980e-3
-1.216, 1.865e-3
-1.215, 1.754e-3
-1.214, 1.659e-3
-1.213, 1.560e-3
-1.212, 1.468e-3
-1.211, 1.381e-3
-1.210, 1.298e-3
-1.209, 1.196e-3
-1.208, 1.116e-3
-1.207, 1.005e-3
-1.206, 8.973e-4
-1.205, 7.863e-4
-1.204, 6.723e-4
-1.203, 5.489e-4
-1.202, 4.441e-4
-1.201, 3.300e-4
-1.200, 2.283e-4
-1.199, 1.327e-4
-1.198, 4.024e-5
-1.197, -4.609e-5
-1.196, -1.293e-4
-1.195, -2.126e-4
-1.194, -3.020e-4
-1.193, -3.852e-4
-1.192, -4.901e-4
-1.191, -5.949e-4
-1.190, -7.028e-4
-1.189, -8.107e-4
-1.188, -9.340e-4
-1.187, -1.039e-3
-1.186, -1.141e-3
-1.185, -1.242e-3
-1.184, -1.332e-3
-1.183, -1.421e-3
-1.182, -1.504e-3
-1.181, -1.585e-3
-1.180, -1.662e-3
-1.179, -1.751e-3
-1.178, -1.828e-3
-1.177, -1.927e-3
-1.176, -2.032e-3
-1.175, -2.130e-3
-1.174, -2.235e-3
-1.173, -2.355e-3
-1.172, -2.448e-3
-1.171, -2.553e-3
-1.170, -2.648e-3
-1.169, -2.735e-3
-1.168, -2.815e-3
-1.167, -2.895e-3
-1.166, -2.969e-3
-1.165, -3.043e-3
-1.164, -3.126e-3
-1.163, -3.200e-3
-1.162, -3.296e-3
-1.161, -3.394e-3
-1.160, -3.493e-3
-1.159, -3.595e-3
-1.158, -3.709e-3
-1.157, -3.801e-3
-1.156, -3.900e-3
-1.155, -3.992e-3
-1.154, -4.079e-3
-1.153, -4.159e-3
-1.152, -4.236e-3
-1.151, -4.310e-3
-1.150, -4.378e-3
-1.149, -4.461e-3
-1.148, -4.532e-3
-1.147, -4.621e-3
-1.146, -4.717e-3
-1.145, -4.809e-3
-1.144, -4.911e-3
-1.143, -5.022e-3
-1.142, -5.112e-3
-1.141, -5.204e-3
-1.140, -5.294e-3
-1.139, -5.374e-3
-1.138, -5.448e-3
-1.137, -5.519e-3
-1.136, -5.586e-3
-1.135, -5.654e-3
-1.134, -5.734e-3
-1.133, -5.799e-3
-1.132, -5.889e-3
-1.131, -5.975e-3
-1.130, -6.067e-3
-1.129, -6.160e-3
-1.128, -6.265e-3
-1.127, -6.351e-3
-1.126, -6.444e-3
-1.125, -6.524e-3
-1.124, -6.604e-3
-1.123, -6.675e-3
-1.122, -6.740e-3
-1.121, -6.804e-3
-1.120, -6.869e-3
-1.119, -6.940e-3
-1.118, -7.005e-3
-1.117, -7.088e-3
-1.116, -7.177e-3
-1.115, -7.261e-3
-1.114, -7.350e-3
-1.113, -7.449e-3
-1.112, -7.529e-3
-1.111, -7.609e-3
-1.110, -7.689e-3
-1.109, -7.760e-3
-1.108, -7.825e-3
-1.107, -7.886e-3
-1.106, -7.945e-3
-1.105, -8.004e-3
-1.104, -8.075e-3
-1.103, -8.133e-3
-1.102, -8.213e-3
-1.101, -8.296e-3
-1.100, -8.377e-3
-1.099, -8.463e-3
-1.098, -8.559e-3
-1.097, -8.639e-3
-1.096, -8.722e-3
-1.095, -8.799e-3
-1.094, -8.870e-3
-1.093, -8.935e-3
-1.092, -8.996e-3
-1.091, -9.049e-3
-1.090, -9.104e-3
-1.089, -9.169e-3
-1.088, -9.221e-3
-1.087, -9.299e-3
-1.086, -9.376e-3
-1.085, -9.456e-3
-1.084, -9.539e-3
-1.083, -9.635e-3
-1.082, -9.712e-3
-1.081, -9.792e-3
-1.080, -9.869e-3
-1.079, -9.940e-3
-1.078, -1.000e-2
-1.077, -1.006e-2
-1.076, -1.012e-2
-1.075, -1.017e-2
-1.074, -1.024e-2
-1.073, -1.029e-2
-1.072, -1.037e-2
-1.071, -1.045e-2
-1.070, -1.053e-2
-1.069, -1.061e-2
-1.068, -1.070e-2
-1.067, -1.078e-2
-1.066, -1.086e-2
-1.065, -1.094e-2
-1.064, -1.100e-2
-1.063, -1.106e-2
-1.062, -1.111e-2
-1.061, -1.117e-2
-1.060, -1.122e-2
-1.059, -1.128e-2
-1.058, -1.133e-2
-1.057, -1.140e-2
-1.056, -1.147e-2
-1.055, -1.154e-2
-1.054, -1.161e-2
-1.053, -1.169e-2
-1.052, -1.176e-2
-1.051, -1.184e-2
-1.050, -1.191e-2
-1.049, -1.197e-2
-1.048, -1.202e-2
-1.047, -1.208e-2
-1.046, -1.213e-2
-1.045, -1.218e-2
-1.044, -1.224e-2
-1.043, -1.229e-2
-1.042, -1.236e-2
-1.041, -1.243e-2
-1.040, -1.250e-2
-1.039, -1.257e-2
-1.038, -1.266e-2
-1.037, -1.272e-2
-1.036, -1.279e-2
-1.035, -1.285e-2
-1.034, -1.290e-2
-1.033, -1.295e-2
-1.032, -1.299e-2
-1.031, -1.303e-2
-1.030, -1.308e-2
-1.029, -1.313e-2
-1.028, -1.318e-2
-1.027, -1.325e-2
-1.026, -1.332e-2
-1.025, -1.339e-2
-1.024, -1.347e-2
-1.023, -1.356e-2
-1.022, -1.363e-2
-1.021, -1.370e-2
-1.020, -1.376e-2
-1.019, -1.382e-2
-1.018, -1.388e-2
-1.017, -1.393e-2
-1.016, -1.397e-2
-1.015, -1.402e-2
-1.014, -1.407e-2
-1.013, -1.411e-2
-1.012, -1.419e-2
-1.011, -1.425e-2
-1.010, -1.432e-2
-1.009, -1.439e-2
-1.008, -1.448e-2
-1.007, -1.454e-2
-1.006, -1.460e-2
-1.005, -1.467e-2
-1.004, -1.472e-2
-1.003, -1.477e-2
-1.002, -1.481e-2
-1.001, -1.486e-2
