Dec. 16, 2024   20:46:52
Cyclic Voltammetry
File: c:/users/guazh/data/banditlqround7_x0exp667_r5/2024-12-16-exp674\exp674-2024-12-16t20_39_01-h2koh\exp674_cv_sr_600mvs_efin_-1400mv.bin
Data Source:  Experiment
Instrument Model:  CHI760E
Header: CV ran at 600 mVs
Note: 

Init E (V) = -1
High E (V) = -1
Low E (V) = -1.4
Final E (V) = -1
Init P/N = N
Scan Rate (V/s) = 0.6
Segment = 3
Sample Interval (V) = 0.001
Quiet Time (sec) = 2
Sensitivity (A/V) = 0.01
Comp R (ohm) = 1.0

Results:

Channel 1:
Segment 1:

Segment 2:

Segment 3:

Potential/V, Current/A

-1.000, -1.446e-3
-1.001, -1.341e-3
-1.002, -1.249e-3
-1.003, -1.147e-3
-1.004, -1.042e-3
-1.005, -9.186e-4
-1.006, -7.922e-4
-1.007, -6.535e-4
-1.008, -5.363e-4
-1.009, -4.191e-4
-1.010, -3.236e-4
-1.011, -2.372e-4
-1.012, -1.602e-4
-1.013, -7.076e-5
-1.014, 1.865e-5
-1.015, 1.296e-4
-1.016, 2.437e-4
-1.017, 3.670e-4
-1.018, 4.750e-4
-1.019, 5.798e-4
-1.020, 6.661e-4
-1.021, 7.463e-4
-1.022, 8.141e-4
-1.023, 8.943e-4
-1.024, 9.775e-4
-1.025, 1.079e-3
-1.026, 1.184e-3
-1.027, 1.301e-3
-1.028, 1.400e-3
-1.029, 1.499e-3
-1.030, 1.579e-3
-1.031, 1.653e-3
-1.032, 1.711e-3
-1.033, 1.785e-3
-1.034, 1.862e-3
-1.035, 1.958e-3
-1.036, 2.057e-3
-1.037, 2.168e-3
-1.038, 2.266e-3
-1.039, 2.356e-3
-1.040, 2.430e-3
-1.041, 2.497e-3
-1.042, 2.550e-3
-1.043, 2.618e-3
-1.044, 2.689e-3
-1.045, 2.775e-3
-1.046, 2.871e-3
-1.047, 2.975e-3
-1.048, 3.065e-3
-1.049, 3.154e-3
-1.050, 3.222e-3
-1.051, 3.284e-3
-1.052, 3.333e-3
-1.053, 3.395e-3
-1.054, 3.459e-3
-1.055, 3.546e-3
-1.056, 3.635e-3
-1.057, 3.737e-3
-1.058, 3.820e-3
-1.059, 3.903e-3
-1.060, 3.968e-3
-1.061, 4.027e-3
-1.062, 4.070e-3
-1.063, 4.128e-3
-1.064, 4.190e-3
-1.065, 4.273e-3
-1.066, 4.360e-3
-1.067, 4.455e-3
-1.068, 4.538e-3
-1.069, 4.619e-3
-1.070, 4.677e-3
-1.071, 4.730e-3
-1.072, 4.770e-3
-1.073, 4.825e-3
-1.074, 4.884e-3
-1.075, 4.961e-3
-1.076, 5.041e-3
-1.077, 5.137e-3
-1.078, 5.214e-3
-1.079, 5.288e-3
-1.080, 5.346e-3
-1.081, 5.396e-3
-1.082, 5.433e-3
-1.083, 5.485e-3
-1.084, 5.541e-3
-1.085, 5.614e-3
-1.086, 5.695e-3
-1.087, 5.784e-3
-1.088, 5.861e-3
-1.089, 5.932e-3
-1.090, 5.984e-3
-1.091, 6.037e-3
-1.092, 6.071e-3
-1.093, 6.123e-3
-1.094, 6.179e-3
-1.095, 6.250e-3
-1.096, 6.327e-3
-1.097, 6.419e-3
-1.098, 6.490e-3
-1.099, 6.561e-3
-1.100, 6.613e-3
-1.101, 6.663e-3
-1.102, 6.700e-3
-1.103, 6.752e-3
-1.104, 6.805e-3
-1.105, 6.875e-3
-1.106, 6.953e-3
-1.107, 7.039e-3
-1.108, 7.113e-3
-1.109, 7.181e-3
-1.110, 7.233e-3
-1.111, 7.276e-3
-1.112, 7.307e-3
-1.113, 7.360e-3
-1.114, 7.412e-3
-1.115, 7.483e-3
-1.116, 7.560e-3
-1.117, 7.646e-3
-1.118, 7.714e-3
-1.119, 7.785e-3
-1.120, 7.834e-3
-1.121, 7.881e-3
-1.122, 7.911e-3
-1.123, 7.964e-3
-1.124, 8.016e-3
-1.125, 8.087e-3
-1.126, 8.164e-3
-1.127, 8.251e-3
-1.128, 8.321e-3
-1.129, 8.389e-3
-1.130, 8.436e-3
-1.131, 8.479e-3
-1.132, 8.510e-3
-1.133, 8.556e-3
-1.134, 8.608e-3
-1.135, 8.679e-3
-1.136, 8.756e-3
-1.137, 8.839e-3
-1.138, 8.904e-3
-1.139, 8.966e-3
-1.140, 9.021e-3
-1.141, 9.077e-3
-1.142, 9.123e-3
-1.143, 9.179e-3
-1.144, 9.231e-3
-1.145, 9.293e-3
-1.146, 9.357e-3
-1.147, 9.434e-3
-1.148, 9.496e-3
-1.149, 9.564e-3
-1.150, 9.619e-3
-1.151, 9.669e-3
-1.152, 9.706e-3
-1.153, 9.755e-3
-1.154, 9.808e-3
-1.155, 9.869e-3
-1.156, 9.940e-3
-1.157, 1.002e-2
-1.158, 1.009e-2
-1.159, 1.015e-2
-1.160, 1.020e-2
-1.161, 1.025e-2
-1.162, 1.027e-2
-1.163, 1.032e-2
-1.164, 1.037e-2
-1.165, 1.043e-2
-1.166, 1.051e-2
-1.167, 1.059e-2
-1.168, 1.066e-2
-1.169, 1.073e-2
-1.170, 1.078e-2
-1.171, 1.082e-2
-1.172, 1.086e-2
-1.173, 1.091e-2
-1.174, 1.096e-2
-1.175, 1.103e-2
-1.176, 1.110e-2
-1.177, 1.119e-2
-1.178, 1.126e-2
-1.179, 1.132e-2
-1.180, 1.137e-2
-1.181, 1.141e-2
-1.182, 1.145e-2
-1.183, 1.150e-2
-1.184, 1.155e-2
-1.185, 1.162e-2
-1.186, 1.169e-2
-1.187, 1.178e-2
-1.188, 1.185e-2
-1.189, 1.191e-2
-1.190, 1.196e-2
-1.191, 1.200e-2
-1.192, 1.204e-2
-1.193, 1.208e-2
-1.194, 1.214e-2
-1.195, 1.221e-2
-1.196, 1.228e-2
-1.197, 1.237e-2
-1.198, 1.243e-2
-1.199, 1.250e-2
-1.200, 1.255e-2
-1.201, 1.260e-2
-1.202, 1.263e-2
-1.203, 1.268e-2
-1.204, 1.273e-2
-1.205, 1.280e-2
-1.206, 1.287e-2
-1.207, 1.295e-2
-1.208, 1.302e-2
-1.209, 1.309e-2
-1.210, 1.313e-2
-1.211, 1.318e-2
-1.212, 1.321e-2
-1.213, 1.325e-2
-1.214, 1.330e-2
-1.215, 1.337e-2
-1.216, 1.344e-2
-1.217, 1.352e-2
-1.218, 1.359e-2
-1.219, 1.366e-2
-1.220, 1.371e-2
-1.221, 1.376e-2
-1.222, 1.379e-2
-1.223, 1.384e-2
-1.224, 1.388e-2
-1.225, 1.395e-2
-1.226, 1.403e-2
-1.227, 1.411e-2
-1.228, 1.418e-2
-1.229, 1.425e-2
-1.230, 1.430e-2
-1.231, 1.434e-2
-1.232, 1.437e-2
-1.233, 1.442e-2
-1.234, 1.447e-2
-1.235, 1.454e-2
-1.236, 1.461e-2
-1.237, 1.470e-2
-1.238, 1.477e-2
-1.239, 1.483e-2
-1.240, 1.488e-2
-1.241, 1.492e-2
-1.242, 1.494e-2
-1.243, 1.499e-2
-1.244, 1.504e-2
-1.245, 1.511e-2
-1.246, 1.519e-2
-1.247, 1.527e-2
-1.248, 1.534e-2
-1.249, 1.540e-2
-1.250, 1.545e-2
-1.251, 1.549e-2
-1.252, 1.552e-2
-1.253, 1.557e-2
-1.254, 1.562e-2
-1.255, 1.568e-2
-1.256, 1.576e-2
-1.257, 1.584e-2
-1.258, 1.591e-2
-1.259, 1.597e-2
-1.260, 1.602e-2
-1.261, 1.605e-2
-1.262, 1.608e-2
-1.263, 1.612e-2
-1.264, 1.617e-2
-1.265, 1.625e-2
-1.266, 1.632e-2
-1.267, 1.641e-2
-1.268, 1.647e-2
-1.269, 1.654e-2
-1.270, 1.658e-2
-1.271, 1.662e-2
-1.272, 1.665e-2
-1.273, 1.670e-2
-1.274, 1.674e-2
-1.275, 1.681e-2
-1.276, 1.689e-2
-1.277, 1.697e-2
-1.278, 1.704e-2
-1.279, 1.710e-2
-1.280, 1.715e-2
-1.281, 1.719e-2
-1.282, 1.722e-2
-1.283, 1.727e-2
-1.284, 1.731e-2
-1.285, 1.738e-2
-1.286, 1.746e-2
-1.287, 1.755e-2
-1.288, 1.762e-2
-1.289, 1.769e-2
-1.290, 1.775e-2
-1.291, 1.780e-2
-1.292, 1.783e-2
-1.293, 1.787e-2
-1.294, 1.792e-2
-1.295, 1.799e-2
-1.296, 1.805e-2
-1.297, 1.814e-2
-1.298, 1.820e-2
-1.299, 1.826e-2
-1.300, 1.831e-2
-1.301, 1.835e-2
-1.302, 1.838e-2
-1.303, 1.844e-2
-1.304, 1.850e-2
-1.305, 1.857e-2
-1.306, 1.864e-2
-1.307, 1.873e-2
-1.308, 1.879e-2
-1.309, 1.885e-2
-1.310, 1.890e-2
-1.311, 1.894e-2
-1.312, 1.897e-2
-1.313, 1.902e-2
-1.314, 1.907e-2
-1.315, 1.914e-2
-1.316, 1.921e-2
-1.317, 1.929e-2
-1.318, 1.937e-2
-1.319, 1.943e-2
-1.320, 1.948e-2
-1.321, 1.952e-2
-1.322, 1.955e-2
-1.323, 1.960e-2
-1.324, 1.965e-2
-1.325, 1.972e-2
-1.326, 1.979e-2
-1.327, 1.988e-2
-1.328, 1.995e-2
-1.329, 2.002e-2
-1.330, 2.007e-2
-1.331, 2.011e-2
-1.332, 2.014e-2
-1.333, 2.018e-2
-1.334, 2.023e-2
-1.335, 2.029e-2
-1.336, 2.036e-2
-1.337, 2.044e-2
-1.338, 2.051e-2
-1.339, 2.057e-2
-1.340, 2.062e-2
-1.341, 2.066e-2
-1.342, 2.070e-2
-1.343, 2.074e-2
-1.344, 2.079e-2
-1.345, 2.085e-2
-1.346, 2.091e-2
-1.347, 2.100e-2
-1.348, 2.107e-2
-1.349, 2.114e-2
-1.350, 2.120e-2
-1.351, 2.125e-2
-1.352, 2.129e-2
-1.353, 2.133e-2
-1.354, 2.138e-2
-1.355, 2.143e-2
-1.356, 2.150e-2
-1.357, 2.158e-2
-1.358, 2.165e-2
-1.359, 2.171e-2
-1.360, 2.175e-2
-1.361, 2.179e-2
-1.362, 2.181e-2
-1.363, 2.185e-2
-1.364, 2.190e-2
-1.365, 2.197e-2
-1.366, 2.204e-2
-1.367, 2.213e-2
-1.368, 2.219e-2
-1.369, 2.223e-2
-1.370, 2.226e-2
-1.371, 2.229e-2
-1.372, 2.233e-2
-1.373, 2.242e-2
-1.374, 2.250e-2
-1.375, 2.258e-2
-1.376, 2.265e-2
-1.377, 2.271e-2
-1.378, 2.274e-2
-1.379, 2.278e-2
-1.380, 2.282e-2
-1.381, 2.286e-2
-1.382, 2.290e-2
-1.383, 2.296e-2
-1.384, 2.303e-2
-1.385, 2.310e-2
-1.386, 2.318e-2
-1.387, 2.326e-2
-1.388, 2.332e-2
-1.389, 2.337e-2
-1.390, 2.341e-2
-1.391, 2.345e-2
-1.392, 2.349e-2
-1.393, 2.354e-2
-1.394, 2.360e-2
-1.395, 2.367e-2
-1.396, 2.375e-2
-1.397, 2.382e-2
-1.398, 2.389e-2
-1.399, 2.395e-2
-1.400, 2.391e-2
-1.399, 2.370e-2
-1.398, 2.349e-2
-1.397, 2.331e-2
-1.396, 2.312e-2
-1.395, 2.295e-2
-1.394, 2.280e-2
-1.393, 2.265e-2
-1.392, 2.249e-2
-1.391, 2.233e-2
-1.390, 2.216e-2
-1.389, 2.197e-2
-1.388, 2.178e-2
-1.387, 2.161e-2
-1.386, 2.143e-2
-1.385, 2.128e-2
-1.384, 2.113e-2
-1.383, 2.100e-2
-1.382, 2.085e-2
-1.381, 2.070e-2
-1.380, 2.053e-2
-1.379, 2.036e-2
-1.378, 2.018e-2
-1.377, 2.002e-2
-1.376, 1.986e-2
-1.375, 1.972e-2
-1.374, 1.959e-2
-1.373, 1.946e-2
-1.372, 1.931e-2
-1.371, 1.916e-2
-1.370, 1.900e-2
-1.369, 1.883e-2
-1.368, 1.865e-2
-1.367, 1.849e-2
-1.366, 1.833e-2
-1.365, 1.819e-2
-1.364, 1.805e-2
-1.363, 1.793e-2
-1.362, 1.779e-2
-1.361, 1.765e-2
-1.360, 1.749e-2
-1.359, 1.733e-2
-1.358, 1.715e-2
-1.357, 1.699e-2
-1.356, 1.684e-2
-1.355, 1.671e-2
-1.354, 1.658e-2
-1.353, 1.646e-2
-1.352, 1.633e-2
-1.351, 1.620e-2
-1.350, 1.604e-2
-1.349, 1.588e-2
-1.348, 1.571e-2
-1.347, 1.556e-2
-1.346, 1.541e-2
-1.345, 1.528e-2
-1.344, 1.516e-2
-1.343, 1.505e-2
-1.342, 1.492e-2
-1.341, 1.478e-2
-1.340, 1.463e-2
-1.339, 1.447e-2
-1.338, 1.430e-2
-1.337, 1.415e-2
-1.336, 1.400e-2
-1.335, 1.387e-2
-1.334, 1.374e-2
-1.333, 1.363e-2
-1.332, 1.350e-2
-1.331, 1.337e-2
-1.330, 1.321e-2
-1.329, 1.306e-2
-1.328, 1.290e-2
-1.327, 1.275e-2
-1.326, 1.261e-2
-1.325, 1.248e-2
-1.324, 1.237e-2
-1.323, 1.226e-2
-1.322, 1.214e-2
-1.321, 1.201e-2
-1.320, 1.186e-2
-1.319, 1.171e-2
-1.318, 1.156e-2
-1.317, 1.142e-2
-1.316, 1.128e-2
-1.315, 1.117e-2
-1.314, 1.106e-2
-1.313, 1.096e-2
-1.312, 1.084e-2
-1.311, 1.072e-2
-1.310, 1.058e-2
-1.309, 1.044e-2
-1.308, 1.028e-2
-1.307, 1.014e-2
-1.306, 1.001e-2
-1.305, 9.903e-3
-1.304, 9.795e-3
-1.303, 9.697e-3
-1.302, 9.586e-3
-1.301, 9.465e-3
-1.300, 9.323e-3
-1.299, 9.182e-3
-1.298, 9.028e-3
-1.297, 8.895e-3
-1.296, 8.765e-3
-1.295, 8.651e-3
-1.294, 8.553e-3
-1.293, 8.460e-3
-1.292, 8.349e-3
-1.291, 8.235e-3
-1.290, 8.103e-3
-1.289, 7.970e-3
-1.288, 7.819e-3
-1.287, 7.689e-3
-1.286, 7.563e-3
-1.285, 7.458e-3
-1.284, 7.356e-3
-1.283, 7.267e-3
-1.282, 7.162e-3
-1.281, 7.051e-3
-1.280, 6.925e-3
-1.279, 6.789e-3
-1.278, 6.644e-3
-1.277, 6.518e-3
-1.276, 6.398e-3
-1.275, 6.293e-3
-1.274, 6.194e-3
-1.273, 6.108e-3
-1.272, 6.006e-3
-1.271, 5.898e-3
-1.270, 5.775e-3
-1.269, 5.645e-3
-1.268, 5.500e-3
-1.267, 5.377e-3
-1.266, 5.254e-3
-1.265, 5.155e-3
-1.264, 5.060e-3
-1.263, 4.976e-3
-1.262, 4.878e-3
-1.261, 4.773e-3
-1.260, 4.656e-3
-1.259, 4.529e-3
-1.258, 4.394e-3
-1.257, 4.276e-3
-1.256, 4.162e-3
-1.255, 4.064e-3
-1.254, 3.971e-3
-1.253, 3.891e-3
-1.252, 3.792e-3
-1.251, 3.694e-3
-1.250, 3.577e-3
-1.249, 3.453e-3
-1.248, 3.318e-3
-1.247, 3.200e-3
-1.246, 3.089e-3
-1.245, 2.994e-3
-1.244, 2.904e-3
-1.243, 2.827e-3
-1.242, 2.738e-3
-1.241, 2.639e-3
-1.240, 2.525e-3
-1.239, 2.402e-3
-1.238, 2.269e-3
-1.237, 2.158e-3
-1.236, 2.047e-3
-1.235, 1.955e-3
-1.234, 1.872e-3
-1.233, 1.798e-3
-1.232, 1.711e-3
-1.231, 1.613e-3
-1.230, 1.502e-3
-1.229, 1.384e-3
-1.228, 1.255e-3
-1.227, 1.144e-3
-1.226, 1.039e-3
-1.225, 9.528e-4
-1.224, 8.696e-4
-1.223, 7.987e-4
-1.222, 7.154e-4
-1.221, 6.260e-4
-1.220, 5.150e-4
-1.219, 4.040e-4
-1.218, 2.807e-4
-1.217, 1.728e-4
-1.216, 7.107e-5
-1.215, -1.526e-5
-1.214, -9.234e-5
-1.213, -1.571e-4
-1.212, -2.434e-4
-1.211, -3.297e-4
-1.210, -4.346e-4
-1.209, -5.425e-4
-1.208, -6.658e-4
-1.207, -7.706e-4
-1.206, -8.693e-4
-1.205, -9.494e-4
-1.204, -1.027e-3
-1.203, -1.088e-3
-1.202, -1.168e-3
-1.201, -1.255e-3
-1.200, -1.353e-3
-1.199, -1.458e-3
-1.198, -1.578e-3
-1.197, -1.680e-3
-1.196, -1.773e-3
-1.195, -1.850e-3
-1.194, -1.921e-3
-1.193, -1.979e-3
-1.192, -2.056e-3
-1.191, -2.136e-3
-1.190, -2.235e-3
-1.189, -2.340e-3
-1.188, -2.457e-3
-1.187, -2.553e-3
-1.186, -2.645e-3
-1.185, -2.719e-3
-1.184, -2.787e-3
-1.183, -2.842e-3
-1.182, -2.916e-3
-1.181, -2.994e-3
-1.180, -3.089e-3
-1.179, -3.191e-3
-1.178, -3.305e-3
-1.177, -3.401e-3
-1.176, -3.487e-3
-1.175, -3.561e-3
-1.174, -3.626e-3
-1.173, -3.678e-3
-1.172, -3.749e-3
-1.171, -3.823e-3
-1.170, -3.915e-3
-1.169, -4.014e-3
-1.168, -4.122e-3
-1.167, -4.214e-3
-1.166, -4.301e-3
-1.165, -4.369e-3
-1.164, -4.433e-3
-1.163, -4.486e-3
-1.162, -4.551e-3
-1.161, -4.625e-3
-1.160, -4.717e-3
-1.159, -4.809e-3
-1.158, -4.914e-3
-1.157, -5.004e-3
-1.156, -5.087e-3
-1.155, -5.155e-3
-1.154, -5.216e-3
-1.153, -5.266e-3
-1.152, -5.327e-3
-1.151, -5.395e-3
-1.150, -5.482e-3
-1.149, -5.571e-3
-1.148, -5.676e-3
-1.147, -5.762e-3
-1.146, -5.845e-3
-1.145, -5.907e-3
-1.144, -5.966e-3
-1.143, -6.012e-3
-1.142, -6.070e-3
-1.141, -6.138e-3
-1.140, -6.222e-3
-1.139, -6.311e-3
-1.138, -6.413e-3
-1.137, -6.496e-3
-1.136, -6.570e-3
-1.135, -6.632e-3
-1.134, -6.687e-3
-1.133, -6.730e-3
-1.132, -6.792e-3
-1.131, -6.857e-3
-1.130, -6.943e-3
-1.129, -7.029e-3
-1.128, -7.131e-3
-1.127, -7.214e-3
-1.126, -7.291e-3
-1.125, -7.350e-3
-1.124, -7.402e-3
-1.123, -7.442e-3
-1.122, -7.501e-3
-1.121, -7.569e-3
-1.120, -7.649e-3
-1.119, -7.732e-3
-1.118, -7.831e-3
-1.117, -7.914e-3
-1.116, -7.988e-3
-1.115, -8.044e-3
-1.114, -8.093e-3
-1.113, -8.133e-3
-1.112, -8.182e-3
-1.111, -8.244e-3
-1.110, -8.321e-3
-1.109, -8.398e-3
-1.108, -8.491e-3
-1.107, -8.565e-3
-1.106, -8.633e-3
-1.105, -8.685e-3
-1.104, -8.734e-3
-1.103, -8.771e-3
-1.102, -8.824e-3
-1.101, -8.885e-3
-1.100, -8.962e-3
-1.099, -9.043e-3
-1.098, -9.135e-3
-1.097, -9.212e-3
-1.096, -9.283e-3
-1.095, -9.339e-3
-1.094, -9.391e-3
-1.093, -9.428e-3
-1.092, -9.487e-3
-1.091, -9.545e-3
-1.090, -9.619e-3
-1.089, -9.699e-3
-1.088, -9.789e-3
-1.087, -9.860e-3
-1.086, -9.927e-3
-1.085, -9.974e-3
-1.084, -1.002e-2
-1.083, -1.005e-2
-1.082, -1.011e-2
-1.081, -1.016e-2
-1.080, -1.024e-2
-1.079, -1.031e-2
-1.078, -1.040e-2
-1.077, -1.048e-2
-1.076, -1.054e-2
-1.075, -1.060e-2
-1.074, -1.064e-2
-1.073, -1.067e-2
-1.072, -1.072e-2
-1.071, -1.078e-2
-1.070, -1.086e-2
-1.069, -1.093e-2
-1.068, -1.102e-2
-1.067, -1.109e-2
-1.066, -1.115e-2
-1.065, -1.120e-2
-1.064, -1.124e-2
-1.063, -1.127e-2
-1.062, -1.132e-2
-1.061, -1.137e-2
-1.060, -1.144e-2
-1.059, -1.152e-2
-1.058, -1.161e-2
-1.057, -1.168e-2
-1.056, -1.175e-2
-1.055, -1.179e-2
-1.054, -1.184e-2
-1.053, -1.187e-2
-1.052, -1.192e-2
-1.051, -1.197e-2
-1.050, -1.204e-2
-1.049, -1.212e-2
-1.048, -1.220e-2
-1.047, -1.227e-2
-1.046, -1.234e-2
-1.045, -1.238e-2
-1.044, -1.242e-2
-1.043, -1.246e-2
-1.042, -1.250e-2
-1.041, -1.256e-2
-1.040, -1.263e-2
-1.039, -1.270e-2
-1.038, -1.278e-2
-1.037, -1.285e-2
-1.036, -1.291e-2
-1.035, -1.295e-2
-1.034, -1.299e-2
-1.033, -1.302e-2
-1.032, -1.306e-2
-1.031, -1.311e-2
-1.030, -1.318e-2
-1.029, -1.325e-2
-1.028, -1.333e-2
-1.027, -1.340e-2
-1.026, -1.345e-2
-1.025, -1.349e-2
-1.024, -1.353e-2
-1.023, -1.356e-2
-1.022, -1.360e-2
-1.021, -1.365e-2
-1.020, -1.371e-2
-1.019, -1.378e-2
-1.018, -1.386e-2
-1.017, -1.393e-2
-1.016, -1.398e-2
-1.015, -1.402e-2
-1.014, -1.406e-2
-1.013, -1.410e-2
-1.012, -1.415e-2
-1.011, -1.422e-2
-1.010, -1.430e-2
-1.009, -1.437e-2
-1.008, -1.444e-2
-1.007, -1.450e-2
-1.006, -1.454e-2
-1.005, -1.458e-2
-1.004, -1.462e-2
-1.003, -1.465e-2
-1.002, -1.470e-2
-1.001, -1.476e-2
