Apr. 17, 2025   16:47:17
Cyclic Voltammetry
File: c:/users/guazh/data/banditlqround7_x0exp590_r20/2025-04-16-exp1110\exp1110-2025-04-17t16_25_19-h2koh\exp1110_cv_sr_100mvs_efin_-1800mv.bin
Data Source:  Experiment
Instrument Model:  CHI760E
Header: CV ran at 100 mVs
Note: 

Init E (V) = -1
High E (V) = -1
Low E (V) = -1.8
Final E (V) = -1
Init P/N = N
Scan Rate (V/s) = 0.1
Segment = 3
Sample Interval (V) = 0.001
Quiet Time (sec) = 2
Sensitivity (A/V) = 0.01
Comp R (ohm) = 1.6

Results:

Channel 1:
Segment 1:

Segment 2:

Segment 3:

Potential/V, Current/A

-1.000, 1.823e-6
-1.001, 5.099e-6
-1.002, 7.516e-6
-1.003, 8.828e-6
-1.004, 9.864e-6
-1.005, 1.083e-5
-1.006, 1.145e-5
-1.007, 1.217e-5
-1.008, 1.254e-5
-1.009, 1.308e-5
-1.010, 1.341e-5
-1.011, 1.371e-5
-1.012, 1.428e-5
-1.013, 1.444e-5
-1.014, 1.470e-5
-1.015, 1.496e-5
-1.016, 1.520e-5
-1.017, 1.548e-5
-1.018, 1.573e-5
-1.019, 1.602e-5
-1.020, 1.626e-5
-1.021, 1.632e-5
-1.022, 1.673e-5
-1.023, 1.683e-5
-1.024, 1.713e-5
-1.025, 1.742e-5
-1.026, 1.741e-5
-1.027, 1.789e-5
-1.028, 1.792e-5
-1.029, 1.802e-5
-1.030, 1.837e-5
-1.031, 1.846e-5
-1.032, 1.877e-5
-1.033, 1.869e-5
-1.034, 1.912e-5
-1.035, 1.931e-5
-1.036, 1.923e-5
-1.037, 1.977e-5
-1.038, 1.986e-5
-1.039, 1.988e-5
-1.040, 2.019e-5
-1.041, 2.007e-5
-1.042, 2.047e-5
-1.043, 2.042e-5
-1.044, 2.084e-5
-1.045, 2.088e-5
-1.046, 2.105e-5
-1.047, 2.142e-5
-1.048, 2.129e-5
-1.049, 2.161e-5
-1.050, 2.190e-5
-1.051, 2.181e-5
-1.052, 2.231e-5
-1.053, 2.218e-5
-1.054, 2.246e-5
-1.055, 2.249e-5
-1.056, 2.260e-5
-1.057, 2.297e-5
-1.058, 2.292e-5
-1.059, 2.325e-5
-1.060, 2.336e-5
-1.061, 2.345e-5
-1.062, 2.386e-5
-1.063, 2.365e-5
-1.064, 2.411e-5
-1.065, 2.395e-5
-1.066, 2.418e-5
-1.067, 2.458e-5
-1.068, 2.464e-5
-1.069, 2.479e-5
-1.070, 2.492e-5
-1.071, 2.486e-5
-1.072, 2.526e-5
-1.073, 2.517e-5
-1.074, 2.538e-5
-1.075, 2.570e-5
-1.076, 2.563e-5
-1.077, 2.598e-5
-1.078, 2.598e-5
-1.079, 2.612e-5
-1.080, 2.618e-5
-1.081, 2.626e-5
-1.082, 2.708e-5
-1.083, 2.679e-5
-1.084, 2.682e-5
-1.085, 2.691e-5
-1.086, 2.685e-5
-1.087, 2.725e-5
-1.088, 2.734e-5
-1.089, 2.750e-5
-1.090, 2.749e-5
-1.091, 2.768e-5
-1.092, 2.792e-5
-1.093, 2.789e-5
-1.094, 2.829e-5
-1.095, 2.826e-5
-1.096, 2.835e-5
-1.097, 2.862e-5
-1.098, 2.853e-5
-1.099, 2.887e-5
-1.100, 2.888e-5
-1.101, 2.898e-5
-1.102, 2.928e-5
-1.103, 2.928e-5
-1.104, 2.959e-5
-1.105, 2.954e-5
-1.106, 2.944e-5
-1.107, 2.990e-5
-1.108, 2.993e-5
-1.109, 3.005e-5
-1.110, 3.005e-5
-1.111, 2.999e-5
-1.112, 3.043e-5
-1.113, 3.034e-5
-1.114, 3.063e-5
-1.115, 3.049e-5
-1.116, 3.057e-5
-1.117, 3.089e-5
-1.118, 3.096e-5
-1.119, 3.118e-5
-1.120, 3.110e-5
-1.121, 3.119e-5
-1.122, 3.157e-5
-1.123, 3.136e-5
-1.124, 3.161e-5
-1.125, 3.149e-5
-1.126, 3.179e-5
-1.127, 3.215e-5
-1.128, 3.198e-5
-1.129, 3.221e-5
-1.130, 3.225e-5
-1.131, 3.224e-5
-1.132, 3.256e-5
-1.133, 3.250e-5
-1.134, 3.271e-5
-1.135, 3.270e-5
-1.136, 3.277e-5
-1.137, 3.298e-5
-1.138, 3.284e-5
-1.139, 3.316e-5
-1.140, 3.321e-5
-1.141, 3.326e-5
-1.142, 3.353e-5
-1.143, 3.335e-5
-1.144, 3.375e-5
-1.145, 3.375e-5
-1.146, 3.397e-5
-1.147, 3.412e-5
-1.148, 3.411e-5
-1.149, 3.421e-5
-1.150, 3.415e-5
-1.151, 3.422e-5
-1.152, 3.448e-5
-1.153, 3.441e-5
-1.154, 3.478e-5
-1.155, 3.472e-5
-1.156, 3.473e-5
-1.157, 3.489e-5
-1.158, 3.492e-5
-1.159, 3.511e-5
-1.160, 3.510e-5
-1.161, 3.511e-5
-1.162, 3.544e-5
-1.163, 3.534e-5
-1.164, 3.560e-5
-1.165, 3.556e-5
-1.166, 3.546e-5
-1.167, 3.590e-5
-1.168, 3.564e-5
-1.169, 3.580e-5
-1.170, 3.593e-5
-1.171, 3.576e-5
-1.172, 3.611e-5
-1.173, 3.600e-5
-1.174, 3.627e-5
-1.175, 3.624e-5
-1.176, 3.623e-5
-1.177, 3.639e-5
-1.178, 3.635e-5
-1.179, 3.652e-5
-1.180, 3.655e-5
-1.181, 3.671e-5
-1.182, 3.685e-5
-1.183, 3.676e-5
-1.184, 3.684e-5
-1.185, 3.699e-5
-1.186, 3.694e-5
-1.187, 3.712e-5
-1.188, 3.699e-5
-1.189, 3.718e-5
-1.190, 3.723e-5
-1.191, 3.708e-5
-1.192, 3.743e-5
-1.193, 3.739e-5
-1.194, 3.760e-5
-1.195, 3.743e-5
-1.196, 3.738e-5
-1.197, 3.778e-5
-1.198, 3.753e-5
-1.199, 3.781e-5
-1.200, 3.766e-5
-1.201, 3.779e-5
-1.202, 3.803e-5
-1.203, 3.803e-5
-1.204, 3.825e-5
-1.205, 3.817e-5
-1.206, 3.812e-5
-1.207, 3.849e-5
-1.208, 3.831e-5
-1.209, 3.850e-5
-1.210, 3.837e-5
-1.211, 3.831e-5
-1.212, 3.855e-5
-1.213, 3.859e-5
-1.214, 3.873e-5
-1.215, 3.858e-5
-1.216, 3.875e-5
-1.217, 3.893e-5
-1.218, 3.876e-5
-1.219, 3.901e-5
-1.220, 3.895e-5
-1.221, 3.897e-5
-1.222, 3.927e-5
-1.223, 3.909e-5
-1.224, 3.942e-5
-1.225, 3.926e-5
-1.226, 3.927e-5
-1.227, 3.937e-5
-1.228, 3.934e-5
-1.229, 3.991e-5
-1.230, 3.970e-5
-1.231, 3.974e-5
-1.232, 3.987e-5
-1.233, 3.979e-5
-1.234, 4.011e-5
-1.235, 3.992e-5
-1.236, 3.992e-5
-1.237, 4.016e-5
-1.238, 3.998e-5
-1.239, 4.026e-5
-1.240, 4.028e-5
-1.241, 4.028e-5
-1.242, 4.065e-5
-1.243, 4.048e-5
-1.244, 4.067e-5
-1.245, 4.079e-5
-1.246, 4.073e-5
-1.247, 4.094e-5
-1.248, 4.084e-5
-1.249, 4.118e-5
-1.250, 4.111e-5
-1.251, 4.098e-5
-1.252, 4.133e-5
-1.253, 4.122e-5
-1.254, 4.134e-5
-1.255, 4.130e-5
-1.256, 4.155e-5
-1.257, 4.186e-5
-1.258, 4.176e-5
-1.259, 4.194e-5
-1.260, 4.201e-5
-1.261, 4.209e-5
-1.262, 4.236e-5
-1.263, 4.226e-5
-1.264, 4.249e-5
-1.265, 4.251e-5
-1.266, 4.258e-5
-1.267, 4.281e-5
-1.268, 4.277e-5
-1.269, 4.308e-5
-1.270, 4.308e-5
-1.271, 4.311e-5
-1.272, 4.328e-5
-1.273, 4.320e-5
-1.274, 4.364e-5
-1.275, 4.344e-5
-1.276, 4.362e-5
-1.277, 4.388e-5
-1.278, 4.374e-5
-1.279, 4.415e-5
-1.280, 4.412e-5
-1.281, 4.416e-5
-1.282, 4.449e-5
-1.283, 4.449e-5
-1.284, 4.477e-5
-1.285, 4.467e-5
-1.286, 4.471e-5
-1.287, 4.524e-5
-1.288, 4.496e-5
-1.289, 4.543e-5
-1.290, 4.533e-5
-1.291, 4.537e-5
-1.292, 4.585e-5
-1.293, 4.581e-5
-1.294, 4.614e-5
-1.295, 4.606e-5
-1.296, 4.620e-5
-1.297, 4.646e-5
-1.298, 4.657e-5
-1.299, 4.680e-5
-1.300, 4.693e-5
-1.301, 4.699e-5
-1.302, 4.727e-5
-1.303, 4.720e-5
-1.304, 4.754e-5
-1.305, 4.769e-5
-1.306, 4.792e-5
-1.307, 4.810e-5
-1.308, 4.810e-5
-1.309, 4.847e-5
-1.310, 4.858e-5
-1.311, 4.874e-5
-1.312, 4.906e-5
-1.313, 4.907e-5
-1.314, 4.957e-5
-1.315, 4.956e-5
-1.316, 4.974e-5
-1.317, 5.002e-5
-1.318, 5.017e-5
-1.319, 5.051e-5
-1.320, 5.075e-5
-1.321, 5.076e-5
-1.322, 5.105e-5
-1.323, 5.125e-5
-1.324, 5.164e-5
-1.325, 5.174e-5
-1.326, 5.199e-5
-1.327, 5.236e-5
-1.328, 5.250e-5
-1.329, 5.308e-5
-1.330, 5.320e-5
-1.331, 5.341e-5
-1.332, 5.397e-5
-1.333, 5.396e-5
-1.334, 5.441e-5
-1.335, 5.473e-5
-1.336, 5.496e-5
-1.337, 5.530e-5
-1.338, 5.547e-5
-1.339, 5.598e-5
-1.340, 5.605e-5
-1.341, 5.636e-5
-1.342, 5.688e-5
-1.343, 5.699e-5
-1.344, 5.760e-5
-1.345, 5.779e-5
-1.346, 5.807e-5
-1.347, 5.863e-5
-1.348, 5.868e-5
-1.349, 5.931e-5
-1.350, 5.956e-5
-1.351, 5.987e-5
-1.352, 6.039e-5
-1.353, 6.062e-5
-1.354, 6.120e-5
-1.355, 6.131e-5
-1.356, 6.180e-5
-1.357, 6.240e-5
-1.358, 6.267e-5
-1.359, 6.329e-5
-1.360, 6.352e-5
-1.361, 6.394e-5
-1.362, 6.453e-5
-1.363, 6.477e-5
-1.364, 6.560e-5
-1.365, 6.583e-5
-1.366, 6.632e-5
-1.367, 6.686e-5
-1.368, 6.720e-5
-1.369, 6.785e-5
-1.370, 6.829e-5
-1.371, 6.868e-5
-1.372, 6.943e-5
-1.373, 6.969e-5
-1.374, 7.046e-5
-1.375, 7.084e-5
-1.376, 7.133e-5
-1.377, 7.194e-5
-1.378, 7.247e-5
-1.379, 7.325e-5
-1.380, 7.365e-5
-1.381, 7.404e-5
-1.382, 7.483e-5
-1.383, 7.537e-5
-1.384, 7.635e-5
-1.385, 7.684e-5
-1.386, 7.724e-5
-1.387, 7.813e-5
-1.388, 7.864e-5
-1.389, 7.945e-5
-1.390, 8.000e-5
-1.391, 8.075e-5
-1.392, 8.154e-5
-1.393, 8.203e-5
-1.394, 8.295e-5
-1.395, 8.360e-5
-1.396, 8.437e-5
-1.397, 8.532e-5
-1.398, 8.590e-5
-1.399, 8.695e-5
-1.400, 8.748e-5
-1.401, 8.832e-5
-1.402, 8.928e-5
-1.403, 8.982e-5
-1.404, 9.105e-5
-1.405, 9.158e-5
-1.406, 9.241e-5
-1.407, 9.336e-5
-1.408, 9.408e-5
-1.409, 9.532e-5
-1.410, 9.602e-5
-1.411, 9.686e-5
-1.412, 9.787e-5
-1.413, 9.859e-5
-1.414, 9.991e-5
-1.415, 1.007e-4
-1.416, 1.017e-4
-1.417, 1.026e-4
-1.418, 1.035e-4
-1.419, 1.046e-4
-1.420, 1.055e-4
-1.421, 1.068e-4
-1.422, 1.077e-4
-1.423, 1.085e-4
-1.424, 1.098e-4
-1.425, 1.108e-4
-1.426, 1.119e-4
-1.427, 1.131e-4
-1.428, 1.141e-4
-1.429, 1.154e-4
-1.430, 1.164e-4
-1.431, 1.175e-4
-1.432, 1.188e-4
-1.433, 1.196e-4
-1.434, 1.213e-4
-1.435, 1.224e-4
-1.436, 1.237e-4
-1.437, 1.249e-4
-1.438, 1.261e-4
-1.439, 1.276e-4
-1.440, 1.287e-4
-1.441, 1.300e-4
-1.442, 1.315e-4
-1.443, 1.327e-4
-1.444, 1.343e-4
-1.445, 1.356e-4
-1.446, 1.369e-4
-1.447, 1.385e-4
-1.448, 1.395e-4
-1.449, 1.412e-4
-1.450, 1.425e-4
-1.451, 1.440e-4
-1.452, 1.457e-4
-1.453, 1.470e-4
-1.454, 1.487e-4
-1.455, 1.502e-4
-1.456, 1.517e-4
-1.457, 1.533e-4
-1.458, 1.548e-4
-1.459, 1.568e-4
-1.460, 1.584e-4
-1.461, 1.599e-4
-1.462, 1.617e-4
-1.463, 1.632e-4
-1.464, 1.652e-4
-1.465, 1.667e-4
-1.466, 1.686e-4
-1.467, 1.703e-4
-1.468, 1.718e-4
-1.469, 1.738e-4
-1.470, 1.755e-4
-1.471, 1.774e-4
-1.472, 1.791e-4
-1.473, 1.810e-4
-1.474, 1.831e-4
-1.475, 1.848e-4
-1.476, 1.867e-4
-1.477, 1.887e-4
-1.478, 1.905e-4
-1.479, 1.928e-4
-1.480, 1.946e-4
-1.481, 1.967e-4
-1.482, 1.988e-4
-1.483, 2.007e-4
-1.484, 2.031e-4
-1.485, 2.052e-4
-1.486, 2.072e-4
-1.487, 2.093e-4
-1.488, 2.113e-4
-1.489, 2.137e-4
-1.490, 2.157e-4
-1.491, 2.179e-4
-1.492, 2.202e-4
-1.493, 2.223e-4
-1.494, 2.248e-4
-1.495, 2.269e-4
-1.496, 2.291e-4
-1.497, 2.315e-4
-1.498, 2.341e-4
-1.499, 2.366e-4
-1.500, 2.389e-4
-1.501, 2.411e-4
-1.502, 2.438e-4
-1.503, 2.460e-4
-1.504, 2.487e-4
-1.505, 2.512e-4
-1.506, 2.538e-4
-1.507, 2.564e-4
-1.508, 2.590e-4
-1.509, 2.619e-4
-1.510, 2.646e-4
-1.511, 2.678e-4
-1.512, 2.704e-4
-1.513, 2.726e-4
-1.514, 2.758e-4
-1.515, 2.784e-4
-1.516, 2.813e-4
-1.517, 2.843e-4
-1.518, 2.869e-4
-1.519, 2.900e-4
-1.520, 2.928e-4
-1.521, 2.958e-4
-1.522, 2.989e-4
-1.523, 3.020e-4
-1.524, 3.056e-4
-1.525, 3.086e-4
-1.526, 3.121e-4
-1.527, 3.153e-4
-1.528, 3.174e-4
-1.529, 3.210e-4
-1.530, 3.238e-4
-1.531, 3.272e-4
-1.532, 3.307e-4
-1.533, 3.336e-4
-1.534, 3.373e-4
-1.535, 3.407e-4
-1.536, 3.442e-4
-1.537, 3.480e-4
-1.538, 3.511e-4
-1.539, 3.548e-4
-1.540, 3.582e-4
-1.541, 3.620e-4
-1.542, 3.657e-4
-1.543, 3.693e-4
-1.544, 3.736e-4
-1.545, 3.771e-4
-1.546, 3.810e-4
-1.547, 3.851e-4
-1.548, 3.888e-4
-1.549, 3.932e-4
-1.550, 3.969e-4
-1.551, 4.013e-4
-1.552, 4.051e-4
-1.553, 4.091e-4
-1.554, 4.135e-4
-1.555, 4.174e-4
-1.556, 4.218e-4
-1.557, 4.263e-4
-1.558, 4.304e-4
-1.559, 4.355e-4
-1.560, 4.406e-4
-1.561, 4.438e-4
-1.562, 4.488e-4
-1.563, 4.533e-4
-1.564, 4.588e-4
-1.565, 4.636e-4
-1.566, 4.688e-4
-1.567, 4.744e-4
-1.568, 4.795e-4
-1.569, 4.840e-4
-1.570, 4.890e-4
-1.571, 4.944e-4
-1.572, 4.999e-4
-1.573, 5.053e-4
-1.574, 5.129e-4
-1.575, 5.174e-4
-1.576, 5.226e-4
-1.577, 5.284e-4
-1.578, 5.344e-4
-1.579, 5.413e-4
-1.580, 5.479e-4
-1.581, 5.526e-4
-1.582, 5.589e-4
-1.583, 5.652e-4
-1.584, 5.727e-4
-1.585, 5.798e-4
-1.586, 5.874e-4
-1.587, 5.931e-4
-1.588, 5.998e-4
-1.589, 6.076e-4
-1.590, 6.155e-4
-1.591, 6.219e-4
-1.592, 6.290e-4
-1.593, 6.366e-4
-1.594, 6.453e-4
-1.595, 6.543e-4
-1.596, 6.625e-4
-1.597, 6.700e-4
-1.598, 6.787e-4
-1.599, 6.882e-4
-1.600, 6.962e-4
-1.601, 7.054e-4
-1.602, 7.158e-4
-1.603, 7.256e-4
-1.604, 7.356e-4
-1.605, 7.449e-4
-1.606, 7.552e-4
-1.607, 7.666e-4
-1.608, 7.777e-4
-1.609, 7.874e-4
-1.610, 7.981e-4
-1.611, 8.104e-4
-1.612, 8.225e-4
-1.613, 8.340e-4
-1.614, 8.470e-4
-1.615, 8.600e-4
-1.616, 8.711e-4
-1.617, 8.845e-4
-1.618, 8.971e-4
-1.619, 9.103e-4
-1.620, 9.242e-4
-1.621, 9.393e-4
-1.622, 9.538e-4
-1.623, 9.668e-4
-1.624, 9.834e-4
-1.625, 9.998e-4
-1.626, 1.013e-3
-1.627, 1.030e-3
-1.628, 1.044e-3
-1.629, 1.063e-3
-1.630, 1.081e-3
-1.631, 1.098e-3
-1.632, 1.116e-3
-1.633, 1.135e-3
-1.634, 1.154e-3
-1.635, 1.173e-3
-1.636, 1.192e-3
-1.637, 1.213e-3
-1.638, 1.229e-3
-1.639, 1.253e-3
-1.640, 1.274e-3
-1.641, 1.296e-3
-1.642, 1.320e-3
-1.643, 1.344e-3
-1.644, 1.368e-3
-1.645, 1.391e-3
-1.646, 1.413e-3
-1.647, 1.439e-3
-1.648, 1.463e-3
-1.649, 1.489e-3
-1.650, 1.514e-3
-1.651, 1.541e-3
-1.652, 1.570e-3
-1.653, 1.599e-3
-1.654, 1.630e-3
-1.655, 1.660e-3
-1.656, 1.690e-3
-1.657, 1.720e-3
-1.658, 1.751e-3
-1.659, 1.786e-3
-1.660, 1.819e-3
-1.661, 1.853e-3
-1.662, 1.890e-3
-1.663, 1.926e-3
-1.664, 1.961e-3
-1.665, 1.998e-3
-1.666, 2.035e-3
-1.667, 2.075e-3
-1.668, 2.113e-3
-1.669, 2.155e-3
-1.670, 2.195e-3
-1.671, 2.237e-3
-1.672, 2.280e-3
-1.673, 2.324e-3
-1.674, 2.368e-3
-1.675, 2.412e-3
-1.676, 2.458e-3
-1.677, 2.504e-3
-1.678, 2.553e-3
-1.679, 2.602e-3
-1.680, 2.649e-3
-1.681, 2.699e-3
-1.682, 2.752e-3
-1.683, 2.802e-3
-1.684, 2.856e-3
-1.685, 2.909e-3
-1.686, 2.967e-3
-1.687, 3.021e-3
-1.688, 3.079e-3
-1.689, 3.136e-3
-1.690, 3.195e-3
-1.691, 3.253e-3
-1.692, 3.314e-3
-1.693, 3.373e-3
-1.694, 3.436e-3
-1.695, 3.499e-3
-1.696, 3.564e-3
-1.697, 3.624e-3
-1.698, 3.690e-3
-1.699, 3.759e-3
-1.700, 3.826e-3
-1.701, 3.894e-3
-1.702, 3.966e-3
-1.703, 4.035e-3
-1.704, 4.107e-3
-1.705, 4.181e-3
-1.706, 4.255e-3
-1.707, 4.327e-3
-1.708, 4.392e-3
-1.709, 4.467e-3
-1.710, 4.538e-3
-1.711, 4.612e-3
-1.712, 4.688e-3
-1.713, 4.766e-3
-1.714, 4.848e-3
-1.715, 4.922e-3
-1.716, 5.006e-3
-1.717, 5.087e-3
-1.718, 5.167e-3
-1.719, 5.253e-3
-1.720, 5.335e-3
-1.721, 5.426e-3
-1.722, 5.505e-3
-1.723, 5.585e-3
-1.724, 5.674e-3
-1.725, 5.757e-3
-1.726, 5.851e-3
-1.727, 5.941e-3
-1.728, 6.027e-3
-1.729, 6.112e-3
-1.730, 6.201e-3
-1.731, 6.288e-3
-1.732, 6.374e-3
-1.733, 6.462e-3
-1.734, 6.556e-3
-1.735, 6.643e-3
-1.736, 6.733e-3
-1.737, 6.830e-3
-1.738, 6.931e-3
-1.739, 7.021e-3
-1.740, 7.114e-3
-1.741, 7.207e-3
-1.742, 7.300e-3
-1.743, 7.397e-3
-1.744, 7.497e-3
-1.745, 7.591e-3
-1.746, 7.700e-3
-1.747, 7.793e-3
-1.748, 7.882e-3
-1.749, 7.975e-3
-1.750, 8.066e-3
-1.751, 8.170e-3
-1.752, 8.269e-3
-1.753, 8.366e-3
-1.754, 8.473e-3
-1.755, 8.576e-3
-1.756, 8.676e-3
-1.757, 8.780e-3
-1.758, 8.879e-3
-1.759, 8.988e-3
-1.760, 9.086e-3
-1.761, 9.191e-3
-1.762, 9.288e-3
-1.763, 9.384e-3
-1.764, 9.495e-3
-1.765, 9.599e-3
-1.766, 9.705e-3
-1.767, 9.822e-3
-1.768, 9.931e-3
-1.769, 1.005e-2
-1.770, 1.016e-2
-1.771, 1.027e-2
-1.772, 1.037e-2
-1.773, 1.050e-2
-1.774, 1.064e-2
-1.775, 1.075e-2
-1.776, 1.084e-2
-1.777, 1.094e-2
-1.778, 1.103e-2
-1.779, 1.113e-2
-1.780, 1.123e-2
-1.781, 1.134e-2
-1.782, 1.145e-2
-1.783, 1.155e-2
-1.784, 1.164e-2
-1.785, 1.173e-2
-1.786, 1.182e-2
-1.787, 1.191e-2
-1.788, 1.201e-2
-1.789, 1.211e-2
-1.790, 1.222e-2
-1.791, 1.231e-2
-1.792, 1.242e-2
-1.793, 1.254e-2
-1.794, 1.265e-2
-1.795, 1.276e-2
-1.796, 1.285e-2
-1.797, 1.294e-2
-1.798, 1.304e-2
-1.799, 1.315e-2
-1.800, 1.322e-2
-1.799, 1.317e-2
-1.798, 1.313e-2
-1.797, 1.306e-2
-1.796, 1.295e-2
-1.795, 1.287e-2
-1.794, 1.281e-2
-1.793, 1.272e-2
-1.792, 1.264e-2
-1.791, 1.256e-2
-1.790, 1.249e-2
-1.789, 1.240e-2
-1.788, 1.230e-2
-1.787, 1.222e-2
-1.786, 1.215e-2
-1.785, 1.206e-2
-1.784, 1.197e-2
-1.783, 1.188e-2
-1.782, 1.179e-2
-1.781, 1.172e-2
-1.780, 1.163e-2
-1.779, 1.157e-2
-1.778, 1.151e-2
-1.777, 1.146e-2
-1.776, 1.138e-2
-1.775, 1.132e-2
-1.774, 1.123e-2
-1.773, 1.115e-2
-1.772, 1.106e-2
-1.771, 1.098e-2
-1.770, 1.089e-2
-1.769, 1.082e-2
-1.768, 1.074e-2
-1.767, 1.066e-2
-1.766, 1.058e-2
-1.765, 1.049e-2
-1.764, 1.041e-2
-1.763, 1.033e-2
-1.762, 1.025e-2
-1.761, 1.018e-2
-1.760, 1.010e-2
-1.759, 1.003e-2
-1.758, 9.953e-3
-1.757, 9.884e-3
-1.756, 9.815e-3
-1.755, 9.730e-3
-1.754, 9.663e-3
-1.753, 9.486e-3
-1.752, 9.220e-3
-1.751, 9.140e-3
-1.750, 9.060e-3
-1.749, 8.972e-3
-1.748, 8.896e-3
-1.747, 8.836e-3
-1.746, 8.765e-3
-1.745, 8.678e-3
-1.744, 8.595e-3
-1.743, 8.536e-3
-1.742, 8.465e-3
-1.741, 8.385e-3
-1.740, 8.305e-3
-1.739, 8.222e-3
-1.738, 8.138e-3
-1.737, 8.069e-3
-1.736, 7.997e-3
-1.735, 7.937e-3
-1.734, 7.872e-3
-1.733, 7.797e-3
-1.732, 7.718e-3
-1.731, 7.626e-3
-1.730, 7.542e-3
-1.729, 7.472e-3
-1.728, 7.395e-3
-1.727, 7.307e-3
-1.726, 7.233e-3
-1.725, 7.172e-3
-1.724, 7.105e-3
-1.723, 7.043e-3
-1.722, 6.982e-3
-1.721, 6.888e-3
-1.720, 6.819e-3
-1.719, 6.774e-3
-1.718, 6.705e-3
-1.717, 6.633e-3
-1.716, 6.577e-3
-1.715, 6.523e-3
-1.714, 6.474e-3
-1.713, 6.417e-3
-1.712, 6.348e-3
-1.711, 6.281e-3
-1.710, 6.209e-3
-1.709, 6.137e-3
-1.708, 6.075e-3
-1.707, 6.006e-3
-1.706, 5.941e-3
-1.705, 5.872e-3
-1.704, 5.806e-3
-1.703, 5.752e-3
-1.702, 5.691e-3
-1.701, 5.631e-3
-1.700, 5.568e-3
-1.699, 5.507e-3
-1.698, 5.448e-3
-1.697, 5.376e-3
-1.696, 5.314e-3
-1.695, 5.242e-3
-1.694, 5.187e-3
-1.693, 5.122e-3
-1.692, 5.068e-3
-1.691, 5.006e-3
-1.690, 4.948e-3
-1.689, 4.884e-3
-1.688, 4.829e-3
-1.687, 4.764e-3
-1.686, 4.720e-3
-1.685, 4.651e-3
-1.684, 4.611e-3
-1.683, 4.543e-3
-1.682, 4.490e-3
-1.681, 4.435e-3
-1.680, 4.375e-3
-1.679, 4.329e-3
-1.678, 4.267e-3
-1.677, 4.213e-3
-1.676, 4.147e-3
-1.675, 4.098e-3
-1.674, 4.044e-3
-1.673, 3.991e-3
-1.672, 3.945e-3
-1.671, 3.889e-3
-1.670, 3.841e-3
-1.669, 3.789e-3
-1.668, 3.737e-3
-1.667, 3.690e-3
-1.666, 3.627e-3
-1.665, 3.580e-3
-1.664, 3.532e-3
-1.663, 3.478e-3
-1.662, 3.433e-3
-1.661, 3.387e-3
-1.660, 3.336e-3
-1.659, 3.293e-3
-1.658, 3.241e-3
-1.657, 3.195e-3
-1.656, 3.152e-3
-1.655, 3.103e-3
-1.654, 3.061e-3
-1.653, 3.018e-3
-1.652, 2.974e-3
-1.651, 2.933e-3
-1.650, 2.890e-3
-1.649, 2.855e-3
-1.648, 2.803e-3
-1.647, 2.760e-3
-1.646, 2.723e-3
-1.645, 2.674e-3
-1.644, 2.636e-3
-1.643, 2.600e-3
-1.642, 2.562e-3
-1.641, 2.520e-3
-1.640, 2.483e-3
-1.639, 2.447e-3
-1.638, 2.404e-3
-1.637, 2.364e-3
-1.636, 2.329e-3
-1.635, 2.294e-3
-1.634, 2.253e-3
-1.633, 2.217e-3
-1.632, 2.182e-3
-1.631, 2.154e-3
-1.630, 2.116e-3
-1.629, 2.079e-3
-1.628, 2.047e-3
-1.627, 2.013e-3
-1.626, 1.985e-3
-1.625, 1.940e-3
-1.624, 1.911e-3
-1.623, 1.879e-3
-1.622, 1.852e-3
-1.621, 1.819e-3
-1.620, 1.781e-3
-1.619, 1.754e-3
-1.618, 1.723e-3
-1.617, 1.696e-3
-1.616, 1.665e-3
-1.615, 1.632e-3
-1.614, 1.607e-3
-1.613, 1.578e-3
-1.612, 1.554e-3
-1.611, 1.528e-3
-1.610, 1.496e-3
-1.609, 1.470e-3
-1.608, 1.445e-3
-1.607, 1.421e-3
-1.606, 1.401e-3
-1.605, 1.374e-3
-1.604, 1.344e-3
-1.603, 1.321e-3
-1.602, 1.298e-3
-1.601, 1.276e-3
-1.600, 1.255e-3
-1.599, 1.233e-3
-1.598, 1.207e-3
-1.597, 1.185e-3
-1.596, 1.163e-3
-1.595, 1.142e-3
-1.594, 1.123e-3
-1.593, 1.105e-3
-1.592, 1.089e-3
-1.591, 1.059e-3
-1.590, 1.040e-3
-1.589, 1.022e-3
-1.588, 1.002e-3
-1.587, 9.836e-4
-1.586, 9.668e-4
-1.585, 9.504e-4
-1.584, 9.341e-4
-1.583, 9.112e-4
-1.582, 8.941e-4
-1.581, 8.773e-4
-1.580, 8.608e-4
-1.579, 8.466e-4
-1.578, 8.306e-4
-1.577, 8.170e-4
-1.576, 8.038e-4
-1.575, 7.868e-4
-1.574, 7.688e-4
-1.573, 7.551e-4
-1.572, 7.424e-4
-1.571, 7.268e-4
-1.570, 7.144e-4
-1.569, 7.002e-4
-1.568, 6.876e-4
-1.567, 6.757e-4
-1.566, 6.625e-4
-1.565, 6.522e-4
-1.564, 6.430e-4
-1.563, 6.303e-4
-1.562, 6.140e-4
-1.561, 6.044e-4
-1.560, 5.925e-4
-1.559, 5.832e-4
-1.558, 5.707e-4
-1.557, 5.614e-4
-1.556, 5.510e-4
-1.555, 5.420e-4
-1.554, 5.314e-4
-1.553, 5.215e-4
-1.552, 5.120e-4
-1.551, 5.032e-4
-1.550, 4.943e-4
-1.549, 4.849e-4
-1.548, 4.772e-4
-1.547, 4.688e-4
-1.546, 4.607e-4
-1.545, 4.526e-4
-1.544, 4.445e-4
-1.543, 4.362e-4
-1.542, 4.279e-4
-1.541, 4.207e-4
-1.540, 4.147e-4
-1.539, 4.071e-4
-1.538, 3.997e-4
-1.537, 3.933e-4
-1.536, 3.868e-4
-1.535, 3.792e-4
-1.534, 3.737e-4
-1.533, 3.675e-4
-1.532, 3.602e-4
-1.531, 3.558e-4
-1.530, 3.479e-4
-1.529, 3.424e-4
-1.528, 3.361e-4
-1.527, 3.306e-4
-1.526, 3.261e-4
-1.525, 3.209e-4
-1.524, 3.148e-4
-1.523, 3.091e-4
-1.522, 3.048e-4
-1.521, 2.994e-4
-1.520, 2.944e-4
-1.519, 2.897e-4
-1.518, 2.856e-4
-1.517, 2.812e-4
-1.516, 2.761e-4
-1.515, 2.712e-4
-1.514, 2.673e-4
-1.513, 2.629e-4
-1.512, 2.592e-4
-1.511, 2.557e-4
-1.510, 2.501e-4
-1.509, 2.461e-4
-1.508, 2.429e-4
-1.507, 2.390e-4
-1.506, 2.360e-4
-1.505, 2.313e-4
-1.504, 2.276e-4
-1.503, 2.243e-4
-1.502, 2.207e-4
-1.501, 2.176e-4
-1.500, 2.148e-4
-1.499, 2.113e-4
-1.498, 2.077e-4
-1.497, 2.043e-4
-1.496, 2.012e-4
-1.495, 1.978e-4
-1.494, 1.952e-4
-1.493, 1.926e-4
-1.492, 1.898e-4
-1.491, 1.862e-4
-1.490, 1.836e-4
-1.489, 1.806e-4
-1.488, 1.781e-4
-1.487, 1.757e-4
-1.486, 1.728e-4
-1.485, 1.693e-4
-1.484, 1.671e-4
-1.483, 1.646e-4
-1.482, 1.621e-4
-1.481, 1.599e-4
-1.480, 1.572e-4
-1.479, 1.545e-4
-1.478, 1.522e-4
-1.477, 1.500e-4
-1.476, 1.479e-4
-1.475, 1.454e-4
-1.474, 1.434e-4
-1.473, 1.413e-4
-1.472, 1.391e-4
-1.471, 1.373e-4
-1.470, 1.348e-4
-1.469, 1.328e-4
-1.468, 1.310e-4
-1.467, 1.291e-4
-1.466, 1.271e-4
-1.465, 1.246e-4
-1.464, 1.229e-4
-1.463, 1.210e-4
-1.462, 1.191e-4
-1.461, 1.175e-4
-1.460, 1.155e-4
-1.459, 1.140e-4
-1.458, 1.122e-4
-1.457, 1.104e-4
-1.456, 1.088e-4
-1.455, 1.071e-4
-1.454, 1.056e-4
-1.453, 1.041e-4
-1.452, 1.024e-4
-1.451, 1.014e-4
-1.450, 9.925e-5
-1.449, 9.775e-5
-1.448, 9.602e-5
-1.447, 9.449e-5
-1.446, 9.310e-5
-1.445, 9.160e-5
-1.444, 9.019e-5
-1.443, 8.867e-5
-1.442, 8.715e-5
-1.441, 8.633e-5
-1.440, 8.462e-5
-1.439, 8.306e-5
-1.438, 8.177e-5
-1.437, 8.042e-5
-1.436, 7.935e-5
-1.435, 7.779e-5
-1.434, 7.661e-5
-1.433, 7.520e-5
-1.432, 7.397e-5
-1.431, 7.281e-5
-1.430, 7.150e-5
-1.429, 7.041e-5
-1.428, 6.906e-5
-1.427, 6.781e-5
-1.426, 6.680e-5
-1.425, 6.551e-5
-1.424, 6.478e-5
-1.423, 6.361e-5
-1.422, 6.234e-5
-1.421, 6.146e-5
-1.420, 6.031e-5
-1.419, 5.914e-5
-1.418, 5.801e-5
-1.417, 5.714e-5
-1.416, 5.625e-5
-1.415, 5.512e-5
-1.414, 5.421e-5
-1.413, 5.317e-5
-1.412, 5.211e-5
-1.411, 5.146e-5
-1.410, 5.049e-5
-1.409, 4.982e-5
-1.408, 4.811e-5
-1.407, 4.727e-5
-1.406, 4.649e-5
-1.405, 4.541e-5
-1.404, 4.482e-5
-1.403, 4.372e-5
-1.402, 4.289e-5
-1.401, 4.210e-5
-1.400, 4.115e-5
-1.399, 4.054e-5
-1.398, 3.953e-5
-1.397, 3.866e-5
-1.396, 3.814e-5
-1.395, 3.702e-5
-1.394, 3.644e-5
-1.393, 3.556e-5
-1.392, 3.464e-5
-1.391, 3.405e-5
-1.390, 3.313e-5
-1.389, 3.259e-5
-1.388, 3.171e-5
-1.387, 3.088e-5
-1.386, 3.040e-5
-1.385, 2.953e-5
-1.384, 2.892e-5
-1.383, 2.811e-5
-1.382, 2.725e-5
-1.381, 2.672e-5
-1.380, 2.606e-5
-1.379, 2.533e-5
-1.378, 2.459e-5
-1.377, 2.397e-5
-1.376, 2.345e-5
-1.375, 2.275e-5
-1.374, 2.211e-5
-1.373, 2.160e-5
-1.372, 2.084e-5
-1.371, 2.033e-5
-1.370, 1.943e-5
-1.369, 1.898e-5
-1.368, 1.838e-5
-1.367, 1.770e-5
-1.366, 1.727e-5
-1.365, 1.656e-5
-1.364, 1.614e-5
-1.363, 1.552e-5
-1.362, 1.501e-5
-1.361, 1.459e-5
-1.360, 1.393e-5
-1.359, 1.347e-5
-1.358, 1.289e-5
-1.357, 1.227e-5
-1.356, 1.182e-5
-1.355, 1.121e-5
-1.354, 1.097e-5
-1.353, 1.023e-5
-1.352, 9.992e-6
-1.351, 9.598e-6
-1.350, 8.887e-6
-1.349, 8.670e-6
-1.348, 8.157e-6
-1.347, 7.486e-6
-1.346, 7.200e-6
-1.345, 6.559e-6
-1.344, 6.362e-6
-1.343, 5.770e-6
-1.342, 5.474e-6
-1.341, 5.030e-6
-1.340, 4.467e-6
-1.339, 4.231e-6
-1.338, 3.905e-6
-1.337, 3.431e-6
-1.336, 3.066e-6
-1.335, 2.534e-6
-1.334, 2.297e-6
-1.333, 1.991e-6
-1.332, 1.389e-6
-1.331, 1.241e-6
-1.330, 6.985e-7
-1.329, 5.308e-7
-1.328, 1.263e-7
-1.327, -3.374e-7
-1.326, -5.939e-7
-1.325, -9.688e-7
-1.324, -1.373e-6
-1.323, -1.689e-6
-1.322, -2.015e-6
-1.321, -2.133e-6
-1.320, -2.695e-6
-1.319, -2.883e-6
-1.318, -3.327e-6
-1.317, -3.564e-6
-1.316, -3.672e-6
-1.315, -4.294e-6
-1.314, -4.333e-6
-1.313, -4.728e-6
-1.312, -5.142e-6
-1.311, -5.201e-6
-1.310, -5.645e-6
-1.309, -5.774e-6
-1.308, -6.188e-6
-1.307, -6.602e-6
-1.306, -6.770e-6
-1.305, -7.234e-6
-1.304, -7.303e-6
-1.303, -7.569e-6
-1.302, -7.954e-6
-1.301, -8.230e-6
-1.300, -8.575e-6
-1.299, -8.585e-6
-1.298, -8.960e-6
-1.297, -9.424e-6
-1.296, -9.414e-6
-1.295, -9.858e-6
-1.294, -9.740e-6
-1.293, -1.021e-5
-1.292, -1.054e-5
-1.291, -1.057e-5
-1.290, -1.105e-5
-1.289, -1.114e-5
-1.288, -1.148e-5
-1.287, -1.167e-5
-1.286, -1.177e-5
-1.285, -1.210e-5
-1.284, -1.217e-5
-1.283, -1.244e-5
-1.282, -1.267e-5
-1.281, -1.278e-5
-1.280, -1.330e-5
-1.279, -1.321e-5
-1.278, -1.362e-5
-1.277, -1.382e-5
-1.276, -1.397e-5
-1.275, -1.441e-5
-1.274, -1.424e-5
-1.273, -1.459e-5
-1.272, -1.489e-5
-1.271, -1.488e-5
-1.270, -1.524e-5
-1.269, -1.510e-5
-1.268, -1.543e-5
-1.267, -1.580e-5
-1.266, -1.586e-5
-1.265, -1.617e-5
-1.264, -1.607e-5
-1.263, -1.652e-5
-1.262, -1.669e-5
-1.261, -1.670e-5
-1.260, -1.708e-5
-1.259, -1.721e-5
-1.258, -1.735e-5
-1.257, -1.778e-5
-1.256, -1.753e-5
-1.255, -1.803e-5
-1.254, -1.795e-5
-1.253, -1.815e-5
-1.252, -1.849e-5
-1.251, -1.838e-5
-1.250, -1.885e-5
-1.249, -1.871e-5
-1.248, -1.890e-5
-1.247, -1.923e-5
-1.246, -1.919e-5
-1.245, -1.947e-5
-1.244, -1.951e-5
-1.243, -1.975e-5
-1.242, -1.990e-5
-1.241, -2.000e-5
-1.240, -2.018e-5
-1.239, -2.015e-5
-1.238, -2.040e-5
-1.237, -2.061e-5
-1.236, -2.062e-5
-1.235, -2.098e-5
-1.234, -2.086e-5
-1.233, -2.112e-5
-1.232, -2.121e-5
-1.231, -2.139e-5
-1.230, -2.175e-5
-1.229, -2.171e-5
-1.228, -2.196e-5
-1.227, -2.216e-5
-1.226, -2.205e-5
-1.225, -2.248e-5
-1.224, -2.234e-5
-1.223, -2.258e-5
-1.222, -2.289e-5
-1.221, -2.283e-5
-1.220, -2.306e-5
-1.219, -2.301e-5
-1.218, -2.332e-5
-1.217, -2.353e-5
-1.216, -2.349e-5
-1.215, -2.375e-5
-1.214, -2.375e-5
-1.213, -2.395e-5
-1.212, -2.416e-5
-1.211, -2.416e-5
-1.210, -2.436e-5
-1.209, -2.430e-5
-1.208, -2.472e-5
-1.207, -2.468e-5
-1.206, -2.470e-5
-1.205, -2.502e-5
-1.204, -2.487e-5
-1.203, -2.515e-5
-1.202, -2.549e-5
-1.201, -2.531e-5
-1.200, -2.568e-5
-1.199, -2.553e-5
-1.198, -2.580e-5
-1.197, -2.609e-5
-1.196, -2.599e-5
-1.195, -2.640e-5
-1.194, -2.623e-5
-1.193, -2.653e-5
-1.192, -2.665e-5
-1.191, -2.654e-5
-1.190, -2.706e-5
-1.189, -2.694e-5
-1.188, -2.706e-5
-1.187, -2.749e-5
-1.186, -2.738e-5
-1.185, -2.767e-5
-1.184, -2.758e-5
-1.183, -2.789e-5
-1.182, -2.808e-5
-1.181, -2.786e-5
-1.180, -2.833e-5
-1.179, -2.815e-5
-1.178, -2.854e-5
-1.177, -2.876e-5
-1.176, -2.861e-5
-1.175, -2.889e-5
-1.174, -2.876e-5
-1.173, -2.910e-5
-1.172, -2.925e-5
-1.171, -2.926e-5
-1.170, -2.953e-5
-1.169, -2.947e-5
-1.168, -2.973e-5
-1.167, -2.985e-5
-1.166, -2.985e-5
-1.165, -3.027e-5
-1.164, -3.012e-5
-1.163, -3.041e-5
-1.162, -3.061e-5
-1.161, -3.048e-5
-1.160, -3.091e-5
-1.159, -3.073e-5
-1.158, -3.105e-5
-1.157, -3.113e-5
-1.156, -3.127e-5
-1.155, -3.154e-5
-1.154, -3.119e-5
-1.153, -3.161e-5
-1.152, -3.191e-5
-1.151, -3.173e-5
-1.150, -3.232e-5
-1.149, -3.188e-5
-1.148, -3.235e-5
-1.147, -3.260e-5
-1.146, -3.259e-5
-1.145, -3.300e-5
-1.144, -3.266e-5
-1.143, -3.302e-5
-1.142, -3.326e-5
-1.141, -3.312e-5
-1.140, -3.353e-5
-1.139, -3.351e-5
-1.138, -3.371e-5
-1.137, -3.391e-5
-1.136, -3.395e-5
-1.135, -3.439e-5
-1.134, -3.409e-5
-1.133, -3.456e-5
-1.132, -3.462e-5
-1.131, -3.459e-5
-1.130, -3.491e-5
-1.129, -3.490e-5
-1.128, -3.515e-5
-1.127, -3.529e-5
-1.126, -3.530e-5
-1.125, -3.569e-5
-1.124, -3.549e-5
-1.123, -3.580e-5
-1.122, -3.586e-5
-1.121, -3.554e-5
-1.120, -3.604e-5
-1.119, -3.599e-5
-1.118, -3.612e-5
-1.117, -3.643e-5
-1.116, -3.641e-5
-1.115, -3.683e-5
-1.114, -3.664e-5
-1.113, -3.710e-5
-1.112, -3.700e-5
-1.111, -3.715e-5
-1.110, -3.755e-5
-1.109, -3.731e-5
-1.108, -3.757e-5
-1.107, -3.786e-5
-1.106, -3.773e-5
-1.105, -3.821e-5
-1.104, -3.797e-5
-1.103, -3.828e-5
-1.102, -3.857e-5
-1.101, -3.857e-5
-1.100, -3.890e-5
-1.099, -3.868e-5
-1.098, -3.901e-5
-1.097, -3.914e-5
-1.096, -3.905e-5
-1.095, -3.945e-5
-1.094, -3.926e-5
-1.093, -3.963e-5
-1.092, -3.972e-5
-1.091, -3.968e-5
-1.090, -4.013e-5
-1.089, -3.988e-5
-1.088, -4.025e-5
-1.087, -4.036e-5
-1.086, -4.042e-5
-1.085, -4.082e-5
-1.084, -4.057e-5
-1.083, -4.090e-5
-1.082, -4.117e-5
-1.081, -4.128e-5
-1.080, -4.146e-5
-1.079, -4.140e-5
-1.078, -4.180e-5
-1.077, -4.184e-5
-1.076, -4.178e-5
-1.075, -4.241e-5
-1.074, -4.212e-5
-1.073, -4.244e-5
-1.072, -4.246e-5
-1.071, -4.250e-5
-1.070, -4.291e-5
-1.069, -4.273e-5
-1.068, -4.294e-5
-1.067, -4.309e-5
-1.066, -4.305e-5
-1.065, -4.318e-5
-1.064, -4.323e-5
-1.063, -4.347e-5
-1.062, -4.368e-5
-1.061, -4.363e-5
-1.060, -4.408e-5
-1.059, -4.398e-5
-1.058, -4.417e-5
-1.057, -4.432e-5
-1.056, -4.457e-5
-1.055, -4.474e-5
-1.054, -4.461e-5
-1.053, -4.498e-5
-1.052, -4.499e-5
-1.051, -4.508e-5
-1.050, -4.547e-5
-1.049, -4.546e-5
-1.048, -4.575e-5
-1.047, -4.582e-5
-1.046, -4.582e-5
-1.045, -4.610e-5
-1.044, -4.615e-5
-1.043, -4.634e-5
-1.042, -4.655e-5
-1.041, -4.662e-5
-1.040, -4.688e-5
-1.039, -4.666e-5
-1.038, -4.708e-5
-1.037, -4.741e-5
-1.036, -4.733e-5
-1.035, -4.765e-5
-1.034, -4.747e-5
-1.033, -4.788e-5
-1.032, -4.800e-5
-1.031, -4.812e-5
-1.030, -4.850e-5
-1.029, -4.836e-5
-1.028, -4.861e-5
-1.027, -4.869e-5
-1.026, -4.869e-5
-1.025, -4.917e-5
-1.024, -4.909e-5
-1.023, -4.959e-5
-1.022, -4.975e-5
-1.021, -4.972e-5
-1.020, -5.007e-5
-1.019, -4.999e-5
-1.018, -5.032e-5
-1.017, -5.062e-5
-1.016, -5.065e-5
-1.015, -5.108e-5
-1.014, -5.085e-5
-1.013, -5.103e-5
-1.012, -5.096e-5
-1.011, -5.118e-5
-1.010, -5.159e-5
-1.009, -5.145e-5
-1.008, -5.170e-5
-1.007, -5.211e-5
-1.006, -5.204e-5
-1.005, -5.227e-5
-1.004, -5.235e-5
-1.003, -5.265e-5
-1.002, -5.277e-5
-1.001, -5.285e-5
