Potential V vs RHE, Current mA cm-2
0.05339999999999995,-0.014189554337646317
0.05239999999999995,-0.015151558021554544
0.051399999999999946,-0.01546279450752485
0.050399999999999945,-0.015618412750510005
0.049399999999999944,-0.015774030993495156
0.04839999999999994,-0.015929649236480315
0.04739999999999994,-0.01611356170546277
0.04639999999999994,-0.016283327061446574
0.04539999999999994,-0.016410651078434424
0.04439999999999994,-0.01656626932141958
0.04339999999999994,-0.01673603467740338
0.04239999999999994,-0.01691994714638584
0.04139999999999994,-0.017103859615368294
0.040399999999999936,-0.017217036519357496
0.039399999999999935,-0.017372654762342652
0.038399999999999934,-0.017542420118326456
0.03739999999999993,-0.01769803836131161
0.03639999999999993,-0.017867803717295416
0.03539999999999993,-0.018009274847281917
0.03439999999999993,-0.018150745977268422
0.03339999999999993,-0.018306364220253574
0.03239999999999993,-0.01850442380223468
0.03139999999999993,-0.018688336271217135
0.030399999999999927,-0.01882980740120364
0.029399999999999926,-0.018985425644188793
0.028399999999999925,-0.019169338113171244
0.027399999999999924,-0.01933910346915505
0.026399999999999924,-0.019551310164134805
0.025399999999999923,-0.01969278129412131
0.024399999999999922,-0.019834252424107815
0.02339999999999992,-0.020018164893090266
0.02239999999999992,-0.02020207736207272
0.02139999999999992,-0.020400136944053827
0.020399999999999918,-0.02055575518703898
0.019399999999999917,-0.02071137343002414
0.018399999999999916,-0.02088113878600794
0.017399999999999916,-0.021093345480987697
0.016399999999999915,-0.021277257949970152
0.015399999999999914,-0.021447023305953956
0.014399999999999913,-0.021602641548939108
0.013399999999999912,-0.021814848243918866
0.012399999999999911,-0.02204120205189727
0.01139999999999991,-0.022225114520879725
0.01039999999999991,-0.02238073276386488
0.009399999999999908,-0.022578792345845984
0.008399999999999908,-0.02276270481482844
0.007399999999999907,-0.022989058622806844
0.006399999999999906,-0.02318711820478795
0.005399999999999905,-0.023342736447773106
0.004399999999999904,-0.02354079602975421
0.003399999999999903,-0.02373885561173532
0.002399999999999902,-0.02395106230671507
0.0013999999999999013,-0.024191563227692125
0.00039999999999990044,-0.02433303435767863
-0.0006000000000001005,-0.024545241052658383
-0.0016000000000001013,-0.02475744774763814
-0.0026000000000001022,-0.024983801555616546
-0.003600000000000103,-0.025210155363594954
-0.004600000000000104,-0.02539406783257741
-0.005600000000000105,-0.025577980301559864
-0.006600000000000106,-0.025818481222536924
-0.007600000000000107,-0.026044835030515325
-0.008600000000000108,-0.02629948306449103
-0.009600000000000108,-0.02649754264647214
-0.01060000000000011,-0.026695602228453245
-0.01160000000000011,-0.026936103149430297
-0.012600000000000111,-0.027190751183406005
-0.013600000000000112,-0.02743125210438306
-0.014600000000000113,-0.02762931168636417
-0.015600000000000114,-0.02782737126834527
-0.016600000000000115,-0.02806787218932233
-0.017600000000000116,-0.028336667336296688
-0.018600000000000116,-0.028591315370272388
-0.019600000000000117,-0.028817669178250797
-0.020600000000000118,-0.02902987587323055
-0.02160000000000012,-0.029284523907206258
-0.02260000000000012,-0.029553319054180613
-0.02360000000000012,-0.02982211420115497
-0.024600000000000122,-0.030048468009133376
-0.025600000000000123,-0.030288968930110433
-0.026600000000000124,-0.030529469851087492
-0.027600000000000124,-0.030812412111060502
-0.028600000000000125,-0.03103876591903891
-0.029600000000000126,-0.03127926684001596
-0.030600000000000127,-0.031533914873991674
-0.03160000000000013,-0.031788562907967374
-0.03260000000000013,-0.032057358054941726
-0.03360000000000013,-0.032340300314914736
-0.03460000000000002,-0.03258080123589179
-0.03560000000000002,-0.0328354492698675
-0.03660000000000002,-0.033104244416841865
-0.03760000000000002,-0.03341548090281216
-0.03860000000000002,-0.033740864501781126
-0.039600000000000024,-0.03398136542275818
-0.040600000000000025,-0.034264307682731185
-0.041600000000000026,-0.03453310282970555
-0.04260000000000003,-0.03484433931567585
-0.04360000000000003,-0.035127281575648865
-0.04460000000000003,-0.035381929609624566
-0.04560000000000003,-0.035679018982596226
-0.04660000000000003,-0.035961961242569236
-0.04760000000000003,-0.03631563906753549
-0.04860000000000003,-0.0366268755535058
-0.04960000000000003,-0.03689567070048015
-0.050600000000000034,-0.037206907186450464
-0.051600000000000035,-0.03753229078541943
-0.052600000000000036,-0.03785767438438838
-0.053600000000000037,-0.03818305798335734
-0.05460000000000004,-0.03846600024333035
-0.05560000000000004,-0.03874894250330335
-0.05660000000000004,-0.039074326102272315
-0.05760000000000004,-0.039442151040237225
-0.05860000000000004,-0.03976753463920618
-0.05960000000000004,-0.040078771125176486
-0.06060000000000004,-0.0403900076111468
-0.061600000000000044,-0.040729538323114406
-0.06260000000000004,-0.041097363261079316
-0.06360000000000005,-0.041465188199044226
-0.06460000000000005,-0.04177642468501453
-0.06560000000000005,-0.04210180828398349
-0.06660000000000005,-0.04242719188295245
-0.06760000000000005,-0.042809163933916004
-0.06860000000000005,-0.04316284175888227
-0.06960000000000005,-0.043502372470849884
-0.07060000000000005,-0.043856050295816136
-0.07160000000000005,-0.0442097281207824
-0.07260000000000005,-0.04460584728474461
-0.07360000000000005,-0.04498781933570817
-0.07460000000000006,-0.045313202934677124
-0.07560000000000006,-0.045666880759643376
-0.07660000000000006,-0.04603470569760829
-0.07760000000000006,-0.046416677748571854
-0.07860000000000006,-0.04682694402553272
-0.07960000000000006,-0.047166474737500325
-0.08060000000000006,-0.04756259390146254
-0.08160000000000006,-0.04795871306542474
-0.08260000000000006,-0.048368979342385605
-0.08360000000000006,-0.04876509850634782
-0.08460000000000006,-0.049118776331314076
-0.08560000000000006,-0.04950074838227764
-0.08660000000000007,-0.04989686754623984
-0.08760000000000007,-0.0503071338232007
-0.08860000000000007,-0.050745694326158865
-0.08960000000000007,-0.051127666377122426
-0.09060000000000007,-0.05152378554108464
-0.09160000000000007,-0.051934051818045494
-0.09260000000000007,-0.05237261232100365
-0.09360000000000007,-0.05279702571096317
-0.09460000000000007,-0.05317899776192673
-0.09560000000000007,-0.053575116925888934
-0.09660000000000007,-0.05401367742884709
-0.09760000000000008,-0.05445223793180526
-0.09860000000000008,-0.05490494554776207
-0.09960000000000008,-0.05530106471172429
-0.10060000000000008,-0.05569718387568649
-0.10160000000000008,-0.05613574437864466
-0.10260000000000008,-0.05658845199460146
-0.10360000000000008,-0.05704115961055828
-0.10460000000000008,-0.05743727877452049
-0.10560000000000008,-0.05786169216448
-0.10660000000000008,-0.058328546893435466
-0.10760000000000008,-0.05878125450939227
-0.10860000000000009,-0.059219815012350435
-0.10960000000000009,-0.05961593417631265
-0.11060000000000009,-0.06005449467927081
-0.11160000000000009,-0.06049305518222897
-0.11260000000000009,-0.06098820413718173
-0.11360000000000009,-0.061440911753138545
-0.11460000000000009,-0.061879472256096704
-0.11560000000000009,-0.062332179872053514
-0.11660000000000009,-0.06278488748801032
-0.1176000000000001,-0.06326588932996444
-0.1186000000000001,-0.06374689117191855
-0.1196000000000001,-0.06419959878787536
-0.1206000000000001,-0.06465230640383217
-0.1216000000000001,-0.0651333082457863
-0.1226000000000001,-0.06562845720073905
-0.1236000000000001,-0.06610945904269316
-0.1246000000000001,-0.06654801954565133
-0.1256000000000001,-0.06700072716160814
-0.1266000000000001,-0.0674958761165609
-0.1276000000000001,-0.06799102507151367
-0.1286000000000001,-0.06848617402646642
-0.1296000000000001,-0.06893888164242323
-0.1306000000000001,-0.0693774421453814
-0.1316000000000001,-0.06985844398733551
-0.1326000000000001,-0.07036774005528693
-0.1336000000000001,-0.07087703612323834
-0.1346000000000001,-0.0713438908521938
-0.1356000000000001,-0.07181074558114926
-0.1366000000000001,-0.07230589453610202
-0.1376000000000001,-0.07278689637805613
-0.1386000000000001,-0.07329619244600755
-0.1396000000000001,-0.07374890006196436
-0.1406000000000001,-0.07422990190391847
-0.14160000000000011,-0.07472505085887124
-0.14260000000000012,-0.07523434692682264
-0.14360000000000012,-0.07574364299477407
-0.14460000000000012,-0.07619635061073088
-0.14560000000000012,-0.07664905822668767
-0.14660000000000012,-0.0771300600686418
-0.14760000000000012,-0.07765350324959187
-0.14860000000000012,-0.07816279931754326
-0.14960000000000012,-0.07862965404649873
-0.15060000000000012,-0.07911065588845285
-0.15160000000000012,-0.07959165773040697
-0.15260000000000012,-0.08008680668535972
-0.15360000000000013,-0.0805819556403125
-0.15460000000000013,-0.08104881036926795
-0.15560000000000013,-0.08152981221122206
-0.15660000000000013,-0.08201081405317617
-0.15760000000000013,-0.08253425723412625
-0.15860000000000013,-0.0830011119630817
-0.15960000000000002,-0.08345381957903851
-0.16060000000000002,-0.08387823296899803
-0.16160000000000002,-0.08433094058495484
-0.16260000000000002,-0.0847977953139103
-0.16360000000000002,-0.08532123849486037
-0.16460000000000002,-0.08574565188481988
-0.16560000000000002,-0.08626909506576994
-0.16660000000000003,-0.08675009690772406
-0.16760000000000003,-0.08720280452368086
-0.16860000000000003,-0.08765551213963767
-0.16960000000000003,-0.08806577841659853
-0.17060000000000003,-0.08849019180655805
-0.17160000000000003,-0.08894289942251486
-0.17260000000000003,-0.08943804837746762
-0.17360000000000003,-0.08993319733242039
-0.17460000000000003,-0.09034346360938124
-0.17560000000000003,-0.09076787699934075
-0.17660000000000003,-0.09120643750229893
-0.17760000000000004,-0.09167329223125438
-0.17860000000000004,-0.09212599984721119
-0.17960000000000004,-0.09253626612417204
-0.18060000000000004,-0.09296067951413156
-0.18160000000000004,-0.09338509290409107
-0.18260000000000004,-0.09385194763304654
-0.18360000000000004,-0.0942622139100074
-0.18460000000000004,-0.09467248018696825
-0.18560000000000004,-0.09506859935093047
-0.18660000000000004,-0.09547886562789133
-0.18760000000000004,-0.09593157324384814
-0.18860000000000005,-0.09634183952080899
-0.18960000000000005,-0.09672381157177255
-0.19060000000000005,-0.09710578362273611
-0.19160000000000005,-0.09750190278669833
-0.19260000000000005,-0.09789802195066052
-0.19360000000000005,-0.09827999400162409
-0.19460000000000005,-0.09864781893958902
-0.19560000000000005,-0.09902979099055256
-0.19660000000000005,-0.09938346881551882
-0.19760000000000005,-0.09979373509247969
-0.19860000000000005,-0.10014741291744596
-0.19960000000000006,-0.10048694362941356
-0.20060000000000006,-0.10085476856737846
-0.20160000000000006,-0.10119429927934608
-0.20260000000000006,-0.10156212421731098
-0.20360000000000006,-0.10194409626827454
-0.20460000000000006,-0.1022411856412462
-0.20560000000000006,-0.10255242212721652
-0.20660000000000006,-0.10287780572618546
-0.20760000000000006,-0.10320318932515443
-0.20860000000000006,-0.10355686715012069
-0.20960000000000006,-0.10382566229709504
-0.21060000000000006,-0.10413689878306535
-0.21160000000000007,-0.10441984104303836
-0.21260000000000007,-0.1047452246420073
-0.21360000000000007,-0.10505646112797762
-0.21460000000000007,-0.10532525627495198
-0.21560000000000007,-0.105608198534925
-0.21660000000000007,-0.10591943502089529
-0.21760000000000007,-0.10623067150686559
-0.21860000000000007,-0.10649946665383996
-0.21960000000000007,-0.10675411468781566
-0.22060000000000007,-0.10700876272179137
-0.22160000000000007,-0.10726341075576709
-0.22260000000000008,-0.1075463530157401
-0.22360000000000008,-0.1078010010497158
-0.22460000000000008,-0.1079990606316969
-0.22560000000000008,-0.1082254144396753
-0.22660000000000008,-0.10848006247365101
-0.22760000000000008,-0.10874885762062536
-0.22860000000000008,-0.10898935854160242
-0.22960000000000008,-0.10920156523658218
-0.23060000000000008,-0.10941377193156195
-0.23160000000000008,-0.1095976844005444
-0.23260000000000008,-0.10983818532152145
-0.23360000000000009,-0.1100503920165012
-0.2346000000000001,-0.11023430448548364
-0.2356000000000001,-0.11041821695446612
-0.2366000000000001,-0.11058798231044992
-0.2376000000000001,-0.11080018900542968
-0.2386000000000001,-0.11099824858741078
-0.2396000000000001,-0.11113971971739729
-0.2406000000000001,-0.11130948507338108
-0.2416000000000001,-0.11146510331636625
-0.2426000000000001,-0.111677310011346
-0.2436000000000001,-0.1118470753673298
-0.2446000000000001,-0.11197439938431765
-0.2456000000000001,-0.11210172340130552
-0.2466000000000001,-0.11227148875728932
-0.2476000000000001,-0.11242710700027447
-0.2486000000000001,-0.11259687235625826
-0.2496000000000001,-0.11269590214724882
-0.2506000000000001,-0.11282322616423668
-0.2516000000000001,-0.11296469729422319
-0.2526000000000001,-0.11309202131121103
-0.2536000000000001,-0.11323349244119754
-0.2546000000000001,-0.1133042280061908
-0.2556000000000001,-0.11343155202317864
-0.2566000000000001,-0.1135305818141692
-0.2576000000000001,-0.11365790583115705
-0.2586000000000001,-0.11377108273514626
-0.2596000000000001,-0.11385596541313814
-0.2606000000000001,-0.11392670097813141
-0.2616000000000001,-0.11402573076912197
-0.2626000000000001,-0.11415305478610982
-0.2636000000000001,-0.1142379374641017
-0.2646000000000001,-0.1143228201420936
-0.2656000000000001,-0.11437940859408821
-0.2666000000000001,-0.11446429127208012
-0.2676000000000001,-0.11456332106307067
-0.2686000000000001,-0.1146623508540612
-0.2696000000000001,-0.11470479219305717
-0.2706000000000001,-0.11476138064505177
-0.2716000000000001,-0.11481796909704638
-0.2726000000000001,-0.11493114600103559
-0.2736000000000001,-0.11498773445303019
-0.2746000000000001,-0.11503017579202615
-0.2756000000000001,-0.11508676424402071
-0.2766000000000001,-0.11512920558301669
-0.2776000000000001,-0.1152140882610086
-0.2786000000000001,-0.11527067671300319
-0.2796000000000001,-0.11528482382600183
-0.2806000000000001,-0.11534141227799644
-0.28160000000000013,-0.11539800072999104
-0.28260000000000013,-0.11548288340798295
-0.28360000000000013,-0.1155536189729762
-0.2846,-0.1155536189729762
-0.2856,-0.11558191319897348
-0.2866,-0.11562435453796945
-0.2876,-0.11570923721596137
-0.2886,-0.11575167855495731
-0.2896,-0.11576582566795594
-0.2906,-0.1157799727809546
-0.2916,-0.1158365612329492
-0.2926,-0.11590729679794246
-0.2936,-0.11594973813693843
-0.29460000000000003,-0.11596388524993705
-0.29560000000000003,-0.1159780323629357
-0.29660000000000003,-0.11602047370193166
-0.29760000000000003,-0.11607706215392626
-0.29860000000000003,-0.1161195034929222
-0.29960000000000003,-0.1161195034929222
-0.30060000000000003,-0.11614779771891949
-0.30160000000000003,-0.11620438617091411
-0.30260000000000004,-0.11626097462290871
-0.30360000000000004,-0.116289268848906
-0.30460000000000004,-0.116289268848906
-0.30560000000000004,-0.11630341596190466
-0.30660000000000004,-0.11636000441389927
-0.30760000000000004,-0.11641659286589387
-0.30860000000000004,-0.11645903420488982
-0.30960000000000004,-0.11647318131788847
-0.31060000000000004,-0.11648732843088712
-0.31160000000000004,-0.11652976976988305
-0.31260000000000004,-0.11658635822187767
-0.31360000000000005,-0.11662879956087362
-0.31460000000000005,-0.11662879956087362
-0.31560000000000005,-0.11664294667387226
-0.31660000000000005,-0.11668538801286822
-0.31760000000000005,-0.11674197646486283
-0.31860000000000005,-0.11679856491685743
-0.31960000000000005,-0.11681271202985609
-0.32060000000000005,-0.11684100625585338
-0.32160000000000005,-0.11686930048185068
-0.32260000000000005,-0.11694003604684394
-0.32360000000000005,-0.11699662449883853
-0.32460000000000006,-0.11699662449883853
-0.32560000000000006,-0.1170390658378345
-0.32660000000000006,-0.11708150717683044
-0.32760000000000006,-0.11713809562882503
-0.32860000000000006,-0.11718053696782099
-0.32960000000000006,-0.11720883119381828
-0.33060000000000006,-0.11722297830681694
-0.33160000000000006,-0.1172937138718102
-0.33260000000000006,-0.11736444943680345
-0.33360000000000006,-0.11742103788879804
-0.33460000000000006,-0.11742103788879804
-0.33560000000000006,-0.11744933211479533
-0.33660000000000007,-0.11753421479278725
-0.33760000000000007,-0.11759080324478184
-0.33860000000000007,-0.11767568592277375
-0.33960000000000007,-0.11770398014877105
-0.34060000000000007,-0.11771812726176971
-0.34160000000000007,-0.11778886282676294
-0.34260000000000007,-0.11787374550475484
-0.34360000000000007,-0.1179444810697481
-0.3446000000000001,-0.1179727752957454
-0.3456000000000001,-0.11801521663474136
-0.3466000000000001,-0.11810009931273327
-0.34759999999999996,-0.11819912910372382
-0.3486000000000001,-0.11824157044271978
-0.34959999999999997,-0.11828401178171571
-0.3506000000000001,-0.11834060023371032
-0.35159999999999997,-0.11841133579870355
-0.3526000000000001,-0.11851036558969412
-0.35359999999999997,-0.11858110115468738
-0.3546000000000001,-0.11863768960668199
-0.35559999999999997,-0.11869427805867658
-0.3566000000000001,-0.11877916073666848
-0.3576,-0.11889233764065768
-0.3586000000000001,-0.11897722031864959
-0.3596,-0.11901966165764555
-0.3606000000000001,-0.11909039722263878
-0.3616,-0.11918942701362933
-0.3626000000000001,-0.11930260391761856
-0.3636,-0.11941578082160774
-0.3646000000000001,-0.11945822216060371
-0.3656,-0.11955725195159424
-0.3666000000000001,-0.1196562817425848
-0.3676,-0.11978360575957266
-0.3686000000000001,-0.11989678266356185
-0.3696,-0.1199675182285551
-0.3706000000000001,-0.12008069513254432
-0.3716,-0.12017972492353488
-0.3726000000000001,-0.12032119605352137
-0.3736,-0.12040607873151328
-0.3746000000000001,-0.12049096140950517
-0.3756,-0.12058999120049572
-0.3766000000000001,-0.12071731521748358
-0.3776,-0.12084463923447143
-0.3786000000000001,-0.12097196325145929
-0.3796,-0.12107099304244984
-0.3806000000000001,-0.12115587572044173
-0.3816,-0.12128319973742961
-0.3826000000000001,-0.12142467086741611
-0.3836,-0.12156614199740261
-0.3846000000000001,-0.1216510246753945
-0.3856,-0.12175005446638507
-0.3866000000000001,-0.1218773784833729
-0.3876,-0.12203299672635806
-0.3886000000000001,-0.1221603207433459
-0.3896,-0.12225935053433647
-0.3906000000000001,-0.12241496877732162
-0.3916,-0.12252814568131082
-0.3926000000000001,-0.12269791103729463
-0.3936,-0.12286767639327843
-0.3946000000000001,-0.12298085329726763
-0.3956,-0.12313647154025278
-0.3966000000000001,-0.1232779426702393
-0.3976,-0.12346185513922175
-0.3986000000000001,-0.12361747338220691
-0.3996,-0.12374479739919475
-0.4006000000000001,-0.12391456275517856
-0.4016,-0.12405603388516506
-0.4026000000000001,-0.12423994635414752
-0.4036,-0.12440971171013133
-0.4046000000000001,-0.12455118284011783
-0.4056,-0.12470680108310296
-0.40660000000000013,-0.1248765664390868
-0.4076,-0.12507462602106792
-0.40860000000000013,-0.1252443913770517
-0.4096,-0.12535756828104092
-0.41060000000000013,-0.1255273336370247
-0.4116,-0.12571124610600715
-0.41260000000000013,-0.12589515857498962
-0.4136,-0.1260790710439721
-0.41460000000000014,-0.12623468928695725
-0.4156,-0.126404454642941
-0.41660000000000014,-0.1266166613379208
-0.4176,-0.12681472091990187
-0.41860000000000014,-0.12701278050188297
-0.41960000000000003,-0.12718254585786679
-0.42060000000000014,-0.12736645832684926
-0.42160000000000003,-0.12757866502182902
-0.42260000000000014,-0.12783331305580473
-0.42360000000000003,-0.12801722552478714
-0.42460000000000014,-0.12820113799376964
-0.42560000000000003,-0.12839919757575072
-0.42660000000000015,-0.12859725715773185
-0.42760000000000004,-0.1288377580787089
-0.42860000000000015,-0.12903581766069
-0.42960000000000004,-0.12921973012967244
-0.43060000000000015,-0.12941778971165355
-0.43160000000000004,-0.1296299964066333
-0.43260000000000015,-0.12988464444060904
-0.43360000000000004,-0.1301251453615861
-0.43460000000000015,-0.13032320494356717
