Dec. 17, 2024   20:48:41
Cyclic Voltammetry
File: c:/users/guazh/data/banditlqround7_x0exp667_r5/2024-12-16-exp684\exp684-2024-12-17t20_40_37-h2koh\exp684_cv_sr_600mvs_efin_-1400mv.bin
Data Source:  Experiment
Instrument Model:  CHI760E
Header: CV ran at 600 mVs
Note: 

Init E (V) = -1
High E (V) = -1
Low E (V) = -1.4
Final E (V) = -1
Init P/N = N
Scan Rate (V/s) = 0.6
Segment = 3
Sample Interval (V) = 0.001
Quiet Time (sec) = 2
Sensitivity (A/V) = 0.01
Comp R (ohm) = 1.1

Results:

Channel 1:
Segment 1:

Segment 2:

Segment 3:

Potential/V, Current/A

-1.000, -1.979e-3
-1.001, -1.859e-3
-1.002, -1.748e-3
-1.003, -1.643e-3
-1.004, -1.544e-3
-1.005, -1.443e-3
-1.006, -1.344e-3
-1.007, -1.239e-3
-1.008, -1.134e-3
-1.009, -1.027e-3
-1.010, -9.248e-4
-1.011, -8.261e-4
-1.012, -7.336e-4
-1.013, -6.473e-4
-1.014, -5.641e-4
-1.015, -4.808e-4
-1.016, -3.945e-4
-1.017, -3.051e-4
-1.018, -2.126e-4
-1.019, -1.170e-4
-1.020, -3.068e-5
-1.021, 5.873e-5
-1.022, 1.389e-4
-1.023, 2.160e-4
-1.024, 2.900e-4
-1.025, 3.670e-4
-1.026, 4.410e-4
-1.027, 5.243e-4
-1.028, 6.075e-4
-1.029, 6.969e-4
-1.030, 7.771e-4
-1.031, 8.573e-4
-1.032, 9.313e-4
-1.033, 1.002e-3
-1.034, 1.067e-3
-1.035, 1.138e-3
-1.036, 1.206e-3
-1.037, 1.283e-3
-1.038, 1.360e-3
-1.039, 1.443e-3
-1.040, 1.517e-3
-1.041, 1.594e-3
-1.042, 1.662e-3
-1.043, 1.727e-3
-1.044, 1.785e-3
-1.045, 1.847e-3
-1.046, 1.912e-3
-1.047, 1.983e-3
-1.048, 2.054e-3
-1.049, 2.134e-3
-1.050, 2.205e-3
-1.051, 2.282e-3
-1.052, 2.349e-3
-1.053, 2.414e-3
-1.054, 2.470e-3
-1.055, 2.534e-3
-1.056, 2.596e-3
-1.057, 2.661e-3
-1.058, 2.732e-3
-1.059, 2.800e-3
-1.060, 2.864e-3
-1.061, 2.932e-3
-1.062, 2.991e-3
-1.063, 3.046e-3
-1.064, 3.105e-3
-1.065, 3.163e-3
-1.066, 3.228e-3
-1.067, 3.296e-3
-1.068, 3.367e-3
-1.069, 3.438e-3
-1.070, 3.506e-3
-1.071, 3.567e-3
-1.072, 3.626e-3
-1.073, 3.681e-3
-1.074, 3.734e-3
-1.075, 3.789e-3
-1.076, 3.845e-3
-1.077, 3.910e-3
-1.078, 3.977e-3
-1.079, 4.048e-3
-1.080, 4.110e-3
-1.081, 4.178e-3
-1.082, 4.233e-3
-1.083, 4.289e-3
-1.084, 4.338e-3
-1.085, 4.394e-3
-1.086, 4.449e-3
-1.087, 4.511e-3
-1.088, 4.575e-3
-1.089, 4.646e-3
-1.090, 4.708e-3
-1.091, 4.773e-3
-1.092, 4.828e-3
-1.093, 4.884e-3
-1.094, 4.933e-3
-1.095, 4.992e-3
-1.096, 5.047e-3
-1.097, 5.115e-3
-1.098, 5.180e-3
-1.099, 5.251e-3
-1.100, 5.312e-3
-1.101, 5.374e-3
-1.102, 5.430e-3
-1.103, 5.479e-3
-1.104, 5.525e-3
-1.105, 5.578e-3
-1.106, 5.630e-3
-1.107, 5.692e-3
-1.108, 5.756e-3
-1.109, 5.824e-3
-1.110, 5.889e-3
-1.111, 5.951e-3
-1.112, 6.009e-3
-1.113, 6.062e-3
-1.114, 6.114e-3
-1.115, 6.173e-3
-1.116, 6.225e-3
-1.117, 6.287e-3
-1.118, 6.351e-3
-1.119, 6.419e-3
-1.120, 6.481e-3
-1.121, 6.539e-3
-1.122, 6.592e-3
-1.123, 6.644e-3
-1.124, 6.697e-3
-1.125, 6.749e-3
-1.126, 6.808e-3
-1.127, 6.869e-3
-1.128, 6.931e-3
-1.129, 7.002e-3
-1.130, 7.064e-3
-1.131, 7.125e-3
-1.132, 7.184e-3
-1.133, 7.239e-3
-1.134, 7.289e-3
-1.135, 7.347e-3
-1.136, 7.403e-3
-1.137, 7.477e-3
-1.138, 7.551e-3
-1.139, 7.619e-3
-1.140, 7.680e-3
-1.141, 7.736e-3
-1.142, 7.785e-3
-1.143, 7.831e-3
-1.144, 7.868e-3
-1.145, 7.911e-3
-1.146, 7.961e-3
-1.147, 8.025e-3
-1.148, 8.106e-3
-1.149, 8.189e-3
-1.150, 8.263e-3
-1.151, 8.331e-3
-1.152, 8.389e-3
-1.153, 8.445e-3
-1.154, 8.494e-3
-1.155, 8.543e-3
-1.156, 8.587e-3
-1.157, 8.639e-3
-1.158, 8.695e-3
-1.159, 8.756e-3
-1.160, 8.815e-3
-1.161, 8.880e-3
-1.162, 8.944e-3
-1.163, 9.009e-3
-1.164, 9.071e-3
-1.165, 9.132e-3
-1.166, 9.194e-3
-1.167, 9.256e-3
-1.168, 9.317e-3
-1.169, 9.382e-3
-1.170, 9.438e-3
-1.171, 9.493e-3
-1.172, 9.545e-3
-1.173, 9.595e-3
-1.174, 9.644e-3
-1.175, 9.700e-3
-1.176, 9.755e-3
-1.177, 9.823e-3
-1.178, 9.891e-3
-1.179, 9.962e-3
-1.180, 1.003e-2
-1.181, 1.009e-2
-1.182, 1.015e-2
-1.183, 1.021e-2
-1.184, 1.028e-2
-1.185, 1.033e-2
-1.186, 1.039e-2
-1.187, 1.044e-2
-1.188, 1.050e-2
-1.189, 1.056e-2
-1.190, 1.062e-2
-1.191, 1.067e-2
-1.192, 1.073e-2
-1.193, 1.078e-2
-1.194, 1.084e-2
-1.195, 1.090e-2
-1.196, 1.096e-2
-1.197, 1.103e-2
-1.198, 1.110e-2
-1.199, 1.116e-2
-1.200, 1.123e-2
-1.201, 1.128e-2
-1.202, 1.134e-2
-1.203, 1.139e-2
-1.204, 1.144e-2
-1.205, 1.151e-2
-1.206, 1.157e-2
-1.207, 1.165e-2
-1.208, 1.171e-2
-1.209, 1.178e-2
-1.210, 1.185e-2
-1.211, 1.192e-2
-1.212, 1.198e-2
-1.213, 1.204e-2
-1.214, 1.208e-2
-1.215, 1.213e-2
-1.216, 1.218e-2
-1.217, 1.224e-2
-1.218, 1.231e-2
-1.219, 1.238e-2
-1.220, 1.245e-2
-1.221, 1.252e-2
-1.222, 1.259e-2
-1.223, 1.264e-2
-1.224, 1.270e-2
-1.225, 1.276e-2
-1.226, 1.281e-2
-1.227, 1.287e-2
-1.228, 1.293e-2
-1.229, 1.299e-2
-1.230, 1.305e-2
-1.231, 1.311e-2
-1.232, 1.317e-2
-1.233, 1.323e-2
-1.234, 1.329e-2
-1.235, 1.337e-2
-1.236, 1.343e-2
-1.237, 1.350e-2
-1.238, 1.358e-2
-1.239, 1.365e-2
-1.240, 1.371e-2
-1.241, 1.378e-2
-1.242, 1.383e-2
-1.243, 1.388e-2
-1.244, 1.393e-2
-1.245, 1.398e-2
-1.246, 1.403e-2
-1.247, 1.409e-2
-1.248, 1.415e-2
-1.249, 1.423e-2
-1.250, 1.431e-2
-1.251, 1.438e-2
-1.252, 1.445e-2
-1.253, 1.452e-2
-1.254, 1.458e-2
-1.255, 1.464e-2
-1.256, 1.470e-2
-1.257, 1.477e-2
-1.258, 1.482e-2
-1.259, 1.489e-2
-1.260, 1.493e-2
-1.261, 1.499e-2
-1.262, 1.504e-2
-1.263, 1.510e-2
-1.264, 1.515e-2
-1.265, 1.522e-2
-1.266, 1.529e-2
-1.267, 1.537e-2
-1.268, 1.545e-2
-1.269, 1.553e-2
-1.270, 1.561e-2
-1.271, 1.568e-2
-1.272, 1.574e-2
-1.273, 1.579e-2
-1.274, 1.583e-2
-1.275, 1.587e-2
-1.276, 1.592e-2
-1.277, 1.597e-2
-1.278, 1.603e-2
-1.279, 1.610e-2
-1.280, 1.617e-2
-1.281, 1.625e-2
-1.282, 1.633e-2
-1.283, 1.639e-2
-1.284, 1.646e-2
-1.285, 1.653e-2
-1.286, 1.660e-2
-1.287, 1.667e-2
-1.288, 1.674e-2
-1.289, 1.681e-2
-1.290, 1.687e-2
-1.291, 1.693e-2
-1.292, 1.698e-2
-1.293, 1.702e-2
-1.294, 1.706e-2
-1.295, 1.711e-2
-1.296, 1.716e-2
-1.297, 1.723e-2
-1.298, 1.730e-2
-1.299, 1.738e-2
-1.300, 1.746e-2
-1.301, 1.753e-2
-1.302, 1.760e-2
-1.303, 1.767e-2
-1.304, 1.773e-2
-1.305, 1.779e-2
-1.306, 1.785e-2
-1.307, 1.791e-2
-1.308, 1.798e-2
-1.309, 1.805e-2
-1.310, 1.812e-2
-1.311, 1.818e-2
-1.312, 1.825e-2
-1.313, 1.831e-2
-1.314, 1.837e-2
-1.315, 1.844e-2
-1.316, 1.851e-2
-1.317, 1.859e-2
-1.318, 1.866e-2
-1.319, 1.873e-2
-1.320, 1.880e-2
-1.321, 1.887e-2
-1.322, 1.893e-2
-1.323, 1.899e-2
-1.324, 1.904e-2
-1.325, 1.908e-2
-1.326, 1.913e-2
-1.327, 1.920e-2
-1.328, 1.927e-2
-1.329, 1.934e-2
-1.330, 1.942e-2
-1.331, 1.950e-2
-1.332, 1.958e-2
-1.333, 1.965e-2
-1.334, 1.971e-2
-1.335, 1.978e-2
-1.336, 1.984e-2
-1.337, 1.991e-2
-1.338, 1.998e-2
-1.339, 2.005e-2
-1.340, 2.011e-2
-1.341, 2.018e-2
-1.342, 2.024e-2
-1.343, 2.031e-2
-1.344, 2.037e-2
-1.345, 2.044e-2
-1.346, 2.051e-2
-1.347, 2.059e-2
-1.348, 2.067e-2
-1.349, 2.075e-2
-1.350, 2.082e-2
-1.351, 2.089e-2
-1.352, 2.095e-2
-1.353, 2.101e-2
-1.354, 2.106e-2
-1.355, 2.111e-2
-1.356, 2.117e-2
-1.357, 2.122e-2
-1.358, 2.128e-2
-1.359, 2.135e-2
-1.360, 2.142e-2
-1.361, 2.150e-2
-1.362, 2.158e-2
-1.363, 2.166e-2
-1.364, 2.174e-2
-1.365, 2.181e-2
-1.366, 2.189e-2
-1.367, 2.197e-2
-1.368, 2.204e-2
-1.369, 2.211e-2
-1.370, 2.217e-2
-1.371, 2.223e-2
-1.372, 2.227e-2
-1.373, 2.232e-2
-1.374, 2.237e-2
-1.375, 2.243e-2
-1.376, 2.250e-2
-1.377, 2.259e-2
-1.378, 2.267e-2
-1.379, 2.277e-2
-1.380, 2.285e-2
-1.381, 2.294e-2
-1.382, 2.302e-2
-1.383, 2.308e-2
-1.384, 2.314e-2
-1.385, 2.320e-2
-1.386, 2.326e-2
-1.387, 2.333e-2
-1.388, 2.341e-2
-1.389, 2.349e-2
-1.390, 2.358e-2
-1.391, 2.367e-2
-1.392, 2.375e-2
-1.393, 2.382e-2
-1.394, 2.389e-2
-1.395, 2.395e-2
-1.396, 2.401e-2
-1.397, 2.406e-2
-1.398, 2.413e-2
-1.399, 2.419e-2
-1.400, 2.417e-2
-1.399, 2.400e-2
-1.398, 2.382e-2
-1.397, 2.366e-2
-1.396, 2.349e-2
-1.395, 2.334e-2
-1.394, 2.318e-2
-1.393, 2.303e-2
-1.392, 2.288e-2
-1.391, 2.273e-2
-1.390, 2.256e-2
-1.389, 2.240e-2
-1.388, 2.224e-2
-1.387, 2.207e-2
-1.386, 2.190e-2
-1.385, 2.174e-2
-1.384, 2.159e-2
-1.383, 2.146e-2
-1.382, 2.132e-2
-1.381, 2.119e-2
-1.380, 2.105e-2
-1.379, 2.092e-2
-1.378, 2.078e-2
-1.377, 2.063e-2
-1.376, 2.047e-2
-1.375, 2.031e-2
-1.374, 2.016e-2
-1.373, 2.001e-2
-1.372, 1.987e-2
-1.371, 1.973e-2
-1.370, 1.960e-2
-1.369, 1.947e-2
-1.368, 1.935e-2
-1.367, 1.921e-2
-1.366, 1.908e-2
-1.365, 1.893e-2
-1.364, 1.879e-2
-1.363, 1.864e-2
-1.362, 1.850e-2
-1.361, 1.834e-2
-1.360, 1.819e-2
-1.359, 1.804e-2
-1.358, 1.789e-2
-1.357, 1.775e-2
-1.356, 1.762e-2
-1.355, 1.749e-2
-1.354, 1.737e-2
-1.353, 1.726e-2
-1.352, 1.714e-2
-1.351, 1.702e-2
-1.350, 1.690e-2
-1.349, 1.677e-2
-1.348, 1.662e-2
-1.347, 1.647e-2
-1.346, 1.632e-2
-1.345, 1.618e-2
-1.344, 1.603e-2
-1.343, 1.590e-2
-1.342, 1.577e-2
-1.341, 1.565e-2
-1.340, 1.552e-2
-1.339, 1.541e-2
-1.338, 1.528e-2
-1.337, 1.515e-2
-1.336, 1.502e-2
-1.335, 1.489e-2
-1.334, 1.477e-2
-1.333, 1.464e-2
-1.332, 1.452e-2
-1.331, 1.441e-2
-1.330, 1.429e-2
-1.329, 1.416e-2
-1.328, 1.403e-2
-1.327, 1.389e-2
-1.326, 1.376e-2
-1.325, 1.363e-2
-1.324, 1.350e-2
-1.323, 1.338e-2
-1.322, 1.327e-2
-1.321, 1.316e-2
-1.320, 1.304e-2
-1.319, 1.294e-2
-1.318, 1.282e-2
-1.317, 1.270e-2
-1.316, 1.257e-2
-1.315, 1.244e-2
-1.314, 1.231e-2
-1.313, 1.219e-2
-1.312, 1.207e-2
-1.311, 1.195e-2
-1.310, 1.182e-2
-1.309, 1.170e-2
-1.308, 1.158e-2
-1.307, 1.146e-2
-1.306, 1.133e-2
-1.305, 1.122e-2
-1.304, 1.110e-2
-1.303, 1.100e-2
-1.302, 1.090e-2
-1.301, 1.080e-2
-1.300, 1.069e-2
-1.299, 1.059e-2
-1.298, 1.047e-2
-1.297, 1.035e-2
-1.296, 1.021e-2
-1.295, 1.008e-2
-1.294, 9.949e-3
-1.293, 9.823e-3
-1.292, 9.700e-3
-1.291, 9.589e-3
-1.290, 9.481e-3
-1.289, 9.376e-3
-1.288, 9.271e-3
-1.287, 9.163e-3
-1.286, 9.055e-3
-1.285, 8.950e-3
-1.284, 8.843e-3
-1.283, 8.735e-3
-1.282, 8.627e-3
-1.281, 8.522e-3
-1.280, 8.417e-3
-1.279, 8.309e-3
-1.278, 8.189e-3
-1.277, 8.066e-3
-1.276, 7.939e-3
-1.275, 7.822e-3
-1.274, 7.708e-3
-1.273, 7.606e-3
-1.272, 7.511e-3
-1.271, 7.415e-3
-1.270, 7.316e-3
-1.269, 7.221e-3
-1.268, 7.110e-3
-1.267, 7.002e-3
-1.266, 6.882e-3
-1.265, 6.768e-3
-1.264, 6.654e-3
-1.263, 6.546e-3
-1.262, 6.441e-3
-1.261, 6.345e-3
-1.260, 6.240e-3
-1.259, 6.142e-3
-1.258, 6.037e-3
-1.257, 5.929e-3
-1.256, 5.818e-3
-1.255, 5.710e-3
-1.254, 5.599e-3
-1.253, 5.497e-3
-1.252, 5.399e-3
-1.251, 5.306e-3
-1.250, 5.204e-3
-1.249, 5.106e-3
-1.248, 5.001e-3
-1.247, 4.890e-3
-1.246, 4.773e-3
-1.245, 4.665e-3
-1.244, 4.554e-3
-1.243, 4.455e-3
-1.242, 4.363e-3
-1.241, 4.273e-3
-1.240, 4.184e-3
-1.239, 4.091e-3
-1.238, 3.996e-3
-1.237, 3.897e-3
-1.236, 3.792e-3
-1.235, 3.688e-3
-1.234, 3.586e-3
-1.233, 3.490e-3
-1.232, 3.395e-3
-1.231, 3.302e-3
-1.230, 3.207e-3
-1.229, 3.108e-3
-1.228, 3.006e-3
-1.227, 2.908e-3
-1.226, 2.803e-3
-1.225, 2.707e-3
-1.224, 2.608e-3
-1.223, 2.522e-3
-1.222, 2.433e-3
-1.221, 2.349e-3
-1.220, 2.257e-3
-1.219, 2.168e-3
-1.218, 2.069e-3
-1.217, 1.970e-3
-1.216, 1.865e-3
-1.215, 1.767e-3
-1.214, 1.671e-3
-1.213, 1.582e-3
-1.212, 1.495e-3
-1.211, 1.415e-3
-1.210, 1.329e-3
-1.209, 1.240e-3
-1.208, 1.147e-3
-1.207, 1.051e-3
-1.206, 9.528e-4
-1.205, 8.542e-4
-1.204, 7.555e-4
-1.203, 6.692e-4
-1.202, 5.829e-4
-1.201, 5.027e-4
-1.200, 4.195e-4
-1.199, 3.331e-4
-1.198, 2.406e-4
-1.197, 1.481e-4
-1.196, 5.257e-5
-1.195, -3.992e-5
-1.194, -1.324e-4
-1.193, -2.157e-4
-1.192, -2.989e-4
-1.191, -3.791e-4
-1.190, -4.623e-4
-1.189, -5.456e-4
-1.188, -6.350e-4
-1.187, -7.275e-4
-1.186, -8.230e-4
-1.185, -9.124e-4
-1.184, -1.002e-3
-1.183, -1.085e-3
-1.182, -1.162e-3
-1.181, -1.239e-3
-1.180, -1.319e-3
-1.179, -1.403e-3
-1.178, -1.489e-3
-1.177, -1.581e-3
-1.176, -1.674e-3
-1.175, -1.763e-3
-1.174, -1.850e-3
-1.173, -1.930e-3
-1.172, -2.004e-3
-1.171, -2.078e-3
-1.170, -2.155e-3
-1.169, -2.232e-3
-1.168, -2.315e-3
-1.167, -2.405e-3
-1.166, -2.497e-3
-1.165, -2.583e-3
-1.164, -2.673e-3
-1.163, -2.750e-3
-1.162, -2.827e-3
-1.161, -2.898e-3
-1.160, -2.972e-3
-1.159, -3.049e-3
-1.158, -3.132e-3
-1.157, -3.216e-3
-1.156, -3.302e-3
-1.155, -3.385e-3
-1.154, -3.468e-3
-1.153, -3.542e-3
-1.152, -3.616e-3
-1.151, -3.690e-3
-1.150, -3.767e-3
-1.149, -3.844e-3
-1.148, -3.928e-3
-1.147, -4.014e-3
-1.146, -4.103e-3
-1.145, -4.187e-3
-1.144, -4.270e-3
-1.143, -4.341e-3
-1.142, -4.409e-3
-1.141, -4.473e-3
-1.140, -4.541e-3
-1.139, -4.612e-3
-1.138, -4.692e-3
-1.137, -4.779e-3
-1.136, -4.865e-3
-1.135, -4.951e-3
-1.134, -5.035e-3
-1.133, -5.109e-3
-1.132, -5.179e-3
-1.131, -5.247e-3
-1.130, -5.315e-3
-1.129, -5.383e-3
-1.128, -5.457e-3
-1.127, -5.534e-3
-1.126, -5.614e-3
-1.125, -5.691e-3
-1.124, -5.768e-3
-1.123, -5.842e-3
-1.122, -5.916e-3
-1.121, -5.987e-3
-1.120, -6.058e-3
-1.119, -6.132e-3
-1.118, -6.209e-3
-1.117, -6.286e-3
-1.116, -6.370e-3
-1.115, -6.444e-3
-1.114, -6.518e-3
-1.113, -6.579e-3
-1.112, -6.641e-3
-1.111, -6.703e-3
-1.110, -6.767e-3
-1.109, -6.832e-3
-1.108, -6.909e-3
-1.107, -6.986e-3
-1.106, -7.072e-3
-1.105, -7.153e-3
-1.104, -7.233e-3
-1.103, -7.301e-3
-1.102, -7.368e-3
-1.101, -7.433e-3
-1.100, -7.498e-3
-1.099, -7.563e-3
-1.098, -7.634e-3
-1.097, -7.708e-3
-1.096, -7.785e-3
-1.095, -7.859e-3
-1.094, -7.936e-3
-1.093, -8.001e-3
-1.092, -8.062e-3
-1.091, -8.121e-3
-1.090, -8.189e-3
-1.089, -8.250e-3
-1.088, -8.321e-3
-1.087, -8.398e-3
-1.086, -8.475e-3
-1.085, -8.549e-3
-1.084, -8.626e-3
-1.083, -8.691e-3
-1.082, -8.750e-3
-1.081, -8.805e-3
-1.080, -8.864e-3
-1.079, -8.922e-3
-1.078, -8.987e-3
-1.077, -9.058e-3
-1.076, -9.132e-3
-1.075, -9.203e-3
-1.074, -9.274e-3
-1.073, -9.339e-3
-1.072, -9.403e-3
-1.071, -9.462e-3
-1.070, -9.527e-3
-1.069, -9.591e-3
-1.068, -9.662e-3
-1.067, -9.736e-3
-1.066, -9.810e-3
-1.065, -9.881e-3
-1.064, -9.949e-3
-1.063, -1.001e-2
-1.062, -1.007e-2
-1.061, -1.012e-2
-1.060, -1.017e-2
-1.059, -1.024e-2
-1.058, -1.030e-2
-1.057, -1.037e-2
-1.056, -1.045e-2
-1.055, -1.052e-2
-1.054, -1.059e-2
-1.053, -1.066e-2
-1.052, -1.072e-2
-1.051, -1.077e-2
-1.050, -1.083e-2
-1.049, -1.089e-2
-1.048, -1.095e-2
-1.047, -1.102e-2
-1.046, -1.108e-2
-1.045, -1.115e-2
-1.044, -1.121e-2
-1.043, -1.127e-2
-1.042, -1.132e-2
-1.041, -1.138e-2
-1.040, -1.144e-2
-1.039, -1.151e-2
-1.038, -1.159e-2
-1.037, -1.167e-2
-1.036, -1.175e-2
-1.035, -1.182e-2
-1.034, -1.188e-2
-1.033, -1.193e-2
-1.032, -1.197e-2
-1.031, -1.200e-2
-1.030, -1.203e-2
-1.029, -1.207e-2
-1.028, -1.212e-2
-1.027, -1.219e-2
-1.026, -1.226e-2
-1.025, -1.234e-2
-1.024, -1.242e-2
-1.023, -1.249e-2
-1.022, -1.255e-2
-1.021, -1.262e-2
-1.020, -1.267e-2
-1.019, -1.273e-2
-1.018, -1.279e-2
-1.017, -1.284e-2
-1.016, -1.290e-2
-1.015, -1.296e-2
-1.014, -1.301e-2
-1.013, -1.306e-2
-1.012, -1.312e-2
-1.011, -1.317e-2
-1.010, -1.323e-2
-1.009, -1.328e-2
-1.008, -1.335e-2
-1.007, -1.342e-2
-1.006, -1.348e-2
-1.005, -1.354e-2
-1.004, -1.360e-2
-1.003, -1.365e-2
-1.002, -1.370e-2
-1.001, -1.375e-2
