Potential V vs RHE, Current mA cm-2
0.013299999999999867,1.2672983824191
0.012299999999999978,-0.03475945663768395
0.011299999999999866,-0.9825169977562679
0.010299999999999976,-1.7471684553333202
0.009299999999999864,-2.4417917035670533
0.008299999999999974,-3.0628499642078046
0.007299999999999862,-3.6131726598553033
0.006299999999999972,-4.070124409711711
0.00529999999999986,-4.474731841473111
0.0042999999999999705,-4.882168695834241
0.0032999999999998586,-5.295264395394832
0.0022999999999999687,-5.672992312458796
0.0012999999999998568,-5.978569953229646
0.00029999999999996696,-6.254438656703328
-0.000700000000000145,-6.571333987873095
-0.0017000000000000348,-6.906620565941108
-0.0027000000000001467,-7.193806959813711
-0.0037000000000000366,-7.435722592090633
-0.0047000000000001485,-7.669149956568364
-0.005700000000000038,-7.935115680942991
-0.00670000000000015,-8.236449187814243
-0.00770000000000004,-8.498170778289277
-0.008700000000000152,-8.708962761969165
-0.009700000000000042,-8.916925323049327
-0.010700000000000154,-9.171573357025034
-0.011700000000000044,-9.427636102300605
-0.012700000000000156,-9.670966445877392
-0.013700000000000045,-9.869026027858496
-0.014700000000000157,-10.076988588938656
-0.015700000000000047,-10.294854129117871
-0.01670000000000016,-10.546672740493849
-0.01770000000000005,-10.805564908369151
-0.01870000000000016,-11.010698046849582
-0.01970000000000005,-11.19036638193244
-0.020700000000000163,-11.418134901210712
-0.021700000000000053,-11.677027069086012
-0.022700000000000164,-11.921772123962665
-0.023700000000000054,-12.10002574774566
-0.024700000000000166,-12.291011773227439
-0.025700000000000056,-12.523024426405305
-0.026700000000000168,-12.787575439480067
-0.027700000000000058,-13.028076360457122
-0.02870000000000017,-13.237453632837148
-0.02970000000000006,-13.436927926118118
-0.03070000000000017,-13.67884355839504
-0.03170000000000006,-13.939150437570206
-0.03270000000000017,-14.189554337646317
-0.03370000000000006,-14.415908145624723
-0.034700000000000175,-14.61396772760583
-0.035700000000000065,-14.882762874580186
-0.03670000000000018,-15.151558021554543
-0.03770000000000007,-15.3920589425316
-0.03870000000000018,-15.604265637511356
-0.03970000000000007,-15.830619445489761
-0.04070000000000018,-16.099414592464115
-0.04170000000000007,-16.396503965435777
-0.04270000000000018,-16.679446225408782
-0.04370000000000007,-16.919947146385837
-0.044700000000000184,-17.160448067362896
-0.045700000000000074,-17.429243214337255
-0.046700000000000186,-17.71218547431026
-0.047700000000000076,-18.009274847281915
-0.04870000000000019,-18.263922881257624
-0.04970000000000008,-18.504423802234676
-0.05070000000000019,-18.80151317520634
-0.05170000000000008,-19.141043887173947
-0.05270000000000019,-19.423986147146955
-0.05370000000000008,-19.678634181122664
-0.05470000000000019,-19.93328221509837
-0.05570000000000008,-20.230371588070028
-0.056700000000000195,-20.584049413036283
-0.057700000000000085,-20.89528589900659
-0.058700000000000196,-21.149933932982297
-0.059700000000000086,-21.43287619295531
-0.0607000000000002,-21.758259791924264
-0.06170000000000009,-22.126084729889175
-0.0627000000000002,-22.46561544185678
-0.06370000000000009,-22.748557701829792
-0.0647000000000002,-23.045647074801447
-0.06570000000000009,-23.371030673770406
-0.0667000000000002,-23.724708498736668
-0.0677000000000001,-24.050092097705623
-0.0687000000000002,-24.33303435767863
-0.0697000000000001,-24.630123730650286
-0.07070000000000021,-24.969654442617898
-0.0717000000000001,-25.337479380582806
-0.07270000000000021,-25.719451431546364
-0.0737000000000001,-26.030687917516673
-0.07470000000000021,-26.32777729048833
-0.0757000000000001,-26.667308002455943
-0.07670000000000021,-27.035132940420848
-0.0777000000000001,-27.417104991384413
-0.07870000000000021,-27.756635703352025
-0.0797000000000001,-28.11031352831828
-0.08070000000000022,-28.463991353284538
-0.0817000000000001,-28.831816291249446
-0.08270000000000022,-29.171347003217054
-0.08370000000000011,-29.539171941181966
-0.08470000000000022,-29.864555540150924
-0.08570000000000011,-30.246527591114486
-0.08670000000000022,-30.699235207071297
-0.08770000000000011,-31.180237049025404
-0.08870000000000022,-31.56220909998897
-0.08970000000000011,-31.83100424696332
-0.09070000000000022,-32.12809361993498
-0.09170000000000011,-32.48177144490124
-0.09270000000000023,-32.93447906085806
-0.09370000000000012,-33.288156885824314
-0.09470000000000023,-33.61354048479327
-0.09570000000000012,-33.95307119676088
-0.09670000000000023,-34.36333747372174
-0.09770000000000012,-34.787750863681254
-0.09870000000000023,-35.183870027643465
-0.09970000000000012,-35.55169496560837
-0.10070000000000023,-35.93366701657193
-0.10170000000000012,-36.40052174552739
-0.10270000000000024,-36.796640909489604
-0.10370000000000013,-37.093730282461266
-0.10470000000000024,-37.47570233342482
-0.10570000000000013,-37.94255706238028
-0.10670000000000024,-38.42355890433439
-0.10770000000000013,-38.83382518129526
-0.10870000000000024,-39.173355893262865
-0.10970000000000013,-39.55532794422642
-0.11070000000000024,-39.99388844718459
-0.11170000000000013,-40.4183018371441
-0.11270000000000002,-40.828568114104954
-0.11370000000000013,-41.182245939071215
-0.11470000000000002,-41.620806442029384
-0.11570000000000014,-42.10180828398349
-0.11670000000000003,-42.568663012938956
-0.11770000000000014,-42.95063506390252
-0.11870000000000003,-43.36090134086337
-0.11970000000000014,-43.74287339182693
-0.12070000000000003,-44.138992555789144
-0.12170000000000014,-44.66243573673921
-0.12270000000000003,-45.157584691691966
-0.12370000000000014,-45.53955674265553
-0.12470000000000003,-45.92152879361909
-0.12570000000000014,-46.36008929657725
-0.12670000000000003,-46.85523825153001
-0.12770000000000015,-47.27965164148953
-0.12870000000000004,-47.77480059644228
-0.12970000000000015,-48.3406851163883
-0.13070000000000004,-48.72265716735186
-0.13170000000000015,-49.21780612230463
-0.13270000000000004,-49.69880796425874
-0.13370000000000015,-50.06663290222365
-0.13470000000000004,-50.42031072718991
-0.13570000000000015,-50.87301834314672
-0.13670000000000004,-51.424755750094086
-0.13770000000000016,-51.89161047904954
-0.13870000000000005,-52.31602386900906
-0.13970000000000016,-52.75458437196722
-0.14070000000000005,-53.26388043991864
-0.14170000000000016,-53.77317650787004
-0.14270000000000005,-54.31076680181876
-0.14370000000000016,-54.69273885278232
-0.14470000000000005,-55.11715224274183
-0.14570000000000016,-55.7254781016838
-0.14670000000000005,-56.24892128263386
-0.14770000000000016,-56.64504044659606
-0.14870000000000005,-57.06945383655558
-0.14970000000000017,-57.57874990450699
-0.15070000000000006,-58.05975174646111
-0.15170000000000017,-58.59734204040982
-0.15270000000000006,-59.16322656035583
-0.15370000000000017,-59.5734928373167
-0.15470000000000006,-59.87058221028835
-0.15570000000000017,-60.46476095623167
-0.15670000000000006,-61.01649836317903
-0.15770000000000017,-61.55408865712774
-0.15870000000000006,-61.96435493408861
-0.15970000000000018,-62.44535677604272
-0.16070000000000007,-62.95465284399414
-0.16170000000000018,-63.633714267929356
-0.16270000000000007,-64.08642188388616
-0.16370000000000018,-64.66645351683083
-0.16470000000000007,-65.16160247178358
-0.16570000000000018,-65.64260431373769
-0.16670000000000007,-66.29337151167562
-0.16770000000000018,-66.73193201463377
-0.16870000000000007,-67.34025787357575
-0.16970000000000018,-67.70808281154066
-0.17070000000000007,-68.04761352350828
-0.17170000000000019,-68.67008649544888
-0.17270000000000008,-69.3208536933868
-0.1737000000000002,-69.87259110033416
-0.17470000000000008,-70.36774005528693
-0.1757000000000002,-71.0043601402262
-0.17670000000000008,-71.61268599916815
-0.1777000000000002,-72.17857051911416
-0.17870000000000008,-72.67371947406694
-0.1797000000000002,-73.14057420302241
-0.18070000000000008,-73.69231160996976
-0.1817000000000002,-74.32893169490903
-0.18270000000000008,-74.95140466684964
-0.1837000000000002,-75.4465536218024
-0.1847000000000001,-75.95584968975382
-0.1857000000000002,-76.5924697746931
-0.1867000000000001,-77.243236972631
-0.1877000000000002,-77.87985705757028
-0.1887000000000001,-78.40330023852034
-0.1897000000000002,-78.983331871465
-0.1907000000000001,-79.49262793941642
-0.1917000000000001,-80.25657204134353
-0.19269999999999998,-81.006369030272
-0.1937000000000001,-81.36004685523827
-0.19469999999999998,-82.03910827917348
-0.1957000000000001,-82.6615812511141
-0.19669999999999999,-83.26990711005605
-0.1977000000000001,-83.94896853399128
-0.1987,-84.48655882793999
-0.1997000000000001,-85.06659046088465
-0.2007,-85.61832786783202
-0.2017000000000001,-86.42471330875509
-0.2027,-87.18865741068221
-0.2037000000000001,-87.59892368764307
-0.2047,-88.27798511157829
-0.2057000000000001,-88.95704653551351
-0.2067,-89.76343197643658
-0.2077000000000001,-90.30102227038529
-0.2087,-90.90934812932726
-0.2097000000000001,-91.71573357025032
-0.2107,-92.40894210718419
-0.2117000000000001,-92.94653240113291
-0.2127,-93.69632939006138
-0.2137000000000001,-94.318802362002
-0.2147,-95.02615801193451
-0.2157000000000001,-95.69107232287108
-0.2167,-96.44086931179956
-0.21770000000000012,-97.19066630072803
-0.2187,-97.79899215967
-0.21970000000000012,-98.23755266262813
-0.2207,-98.77514295657687
-0.22170000000000012,-99.39761592851748
-0.2227,-100.00594178745945
-0.22370000000000012,-100.61426764640142
-0.2247,-101.29332907033663
-0.22570000000000012,-102.11386162425833
-0.2267,-102.86365861318681
-0.22770000000000012,-103.59930848911664
-0.22870000000000001,-104.32081125204782
-0.22970000000000013,-104.85840154599651
-0.23070000000000002,-105.50916874393444
-0.23170000000000013,-106.2872599588602
-0.23270000000000002,-106.99461560879273
-0.23370000000000013,-107.631235693732
-0.23470000000000002,-108.32444423066585
-0.23570000000000013,-109.14497678458758
-0.23670000000000002,-109.97965645150795
-0.2376999999999999,-110.60212942344857
-0.23870000000000002,-111.3377792993784
-0.2396999999999999,-111.93195804532172
-0.24070000000000003,-112.65346080825286
-0.24169999999999991,-113.4739933621746
-0.24270000000000003,-114.16720189910848
-0.24369999999999992,-114.88870466203963
-0.24470000000000003,-115.87900257194515
-0.24569999999999992,-116.65709378687092
-0.24670000000000003,-117.61909747077915
-0.24769999999999992,-118.32645312071166
-0.24870000000000003,-118.70842517167522
-0.24969999999999992,-119.1186914486361
-0.25070000000000003,-119.85434132456592
-0.2516999999999999,-120.90122768646604
-0.25270000000000004,-121.69346601439047
-0.2536999999999999,-122.30179187333242
-0.25470000000000004,-123.12232442725416
-0.2556999999999999,-123.78723873819072
-0.25670000000000004,-124.52288861412055
-0.25769999999999993,-125.25853849005037
-0.25870000000000004,-125.96589413998288
-0.25969999999999993,-126.5317786599289
-0.26070000000000004,-127.22498719686273
-0.26169999999999993,-127.97478418579122
-0.26270000000000004,-128.66799272272507
-0.26369999999999993,-129.3470541466603
-0.26470000000000005,-129.9412328926036
-0.26569999999999994,-130.77591255952402
-0.26670000000000005,-131.58229800044708
-0.26769999999999994,-132.33209498937555
-0.26870000000000005,-133.0253035263094
-0.26969999999999994,-133.8599831932298
-0.27070000000000005,-134.52489750416635
-0.27169999999999994,-135.3029887190921
-0.27270000000000005,-136.15181549901115
-0.27369999999999994,-136.83087692294635
-0.27470000000000006,-137.76458638085728
-0.27569999999999995,-138.2455882228114
-0.27670000000000006,-138.96709098574257
-0.27769999999999995,-139.64615240967777
-0.27870000000000006,-140.28277249461703
-0.27969999999999995,-140.93353969255494
-0.28070000000000006,-141.75407224647665
-0.28169999999999995,-142.4614278964092
-0.28270000000000006,-142.8858412863687
-0.28369999999999995,-143.0273124163552
-0.28470000000000006,-143.0273124163552
-0.28569999999999995,-143.0273124163552
-0.28670000000000007,-143.0273124163552
-0.28769999999999996,-143.0273124163552
-0.28870000000000007,-143.0273124163552
-0.28969999999999996,-143.0273124163552
-0.29070000000000007,-143.0273124163552
-0.29169999999999996,-143.0273124163552
-0.29270000000000007,-143.0273124163552
-0.29369999999999996,-143.0273124163552
-0.2947000000000001,-143.0273124163552
-0.29569999999999996,-143.0273124163552
-0.2967000000000001,-143.0273124163552
-0.29769999999999996,-143.0273124163552
-0.2987000000000001,-143.0273124163552
-0.29969999999999997,-143.0273124163552
-0.3007000000000001,-143.0273124163552
-0.30169999999999997,-143.0273124163552
-0.3027000000000001,-143.0273124163552
-0.30369999999999997,-143.0273124163552
-0.3047000000000001,-143.0273124163552
-0.30569999999999997,-143.0273124163552
-0.3067000000000001,-143.0273124163552
-0.3077,-143.0273124163552
-0.3087000000000001,-143.0273124163552
-0.3097,-143.0273124163552
-0.3107000000000001,-143.0273124163552
-0.3117,-143.0273124163552
-0.3127000000000001,-143.0273124163552
-0.3137,-143.0273124163552
-0.3147000000000001,-143.0273124163552
-0.3157,-143.0273124163552
-0.3167000000000001,-143.0273124163552
-0.3177,-143.0273124163552
-0.3187000000000001,-143.0273124163552
-0.3197,-143.0273124163552
-0.3207000000000001,-143.0273124163552
-0.3217,-143.0273124163552
-0.3227000000000001,-143.0273124163552
-0.3237,-143.0273124163552
-0.3247000000000001,-143.0273124163552
-0.3257,-143.0273124163552
-0.3267000000000001,-143.0273124163552
-0.3277,-143.0273124163552
-0.3287000000000001,-143.0273124163552
-0.3297,-143.0273124163552
-0.3307000000000001,-143.0273124163552
-0.3317,-143.0273124163552
-0.3327000000000001,-143.0273124163552
-0.3337,-143.0273124163552
-0.3347000000000001,-143.0273124163552
-0.3357,-143.0273124163552
-0.3367000000000001,-143.0273124163552
-0.3377,-143.0273124163552
-0.3387000000000001,-143.0273124163552
-0.3397,-143.0273124163552
-0.3407000000000001,-143.0273124163552
-0.3417,-143.0273124163552
-0.3427000000000001,-143.0273124163552
-0.3437,-143.0273124163552
-0.3447000000000001,-143.0273124163552
-0.3457,-143.0273124163552
-0.3467000000000001,-143.0273124163552
-0.3477,-143.0273124163552
-0.3487000000000001,-143.0273124163552
-0.3497,-143.0273124163552
-0.3507000000000001,-143.0273124163552
-0.3517,-143.0273124163552
-0.3527000000000001,-143.0273124163552
-0.3537,-143.0273124163552
-0.3547000000000001,-143.0273124163552
-0.3557,-143.0273124163552
-0.35670000000000013,-143.0273124163552
-0.3577,-143.0273124163552
-0.35870000000000013,-143.0273124163552
-0.3597,-143.0273124163552
-0.36070000000000013,-143.0273124163552
-0.3617,-143.0273124163552
-0.3626999999999999,-143.0273124163552
-0.3637,-143.0273124163552
-0.3646999999999999,-143.0273124163552
-0.3657,-143.0273124163552
-0.3666999999999999,-143.0273124163552
-0.3677,-143.0273124163552
-0.3686999999999999,-143.0273124163552
-0.36970000000000003,-143.0273124163552
-0.3706999999999999,-143.0273124163552
-0.37170000000000003,-143.0273124163552
-0.3726999999999999,-143.0273124163552
-0.37370000000000003,-143.0273124163552
-0.3746999999999999,-143.0273124163552
-0.37570000000000003,-143.0273124163552
-0.3766999999999999,-143.0273124163552
-0.37770000000000004,-143.0273124163552
-0.3786999999999999,-143.0273124163552
-0.37970000000000004,-143.0273124163552
-0.3806999999999999,-143.0273124163552
-0.38170000000000004,-143.0273124163552
-0.38269999999999993,-143.0273124163552
-0.38370000000000004,-143.0273124163552
-0.38469999999999993,-143.0273124163552
-0.38570000000000004,-143.0273124163552
-0.38669999999999993,-143.0273124163552
-0.38570000000000004,-143.0273124163552
-0.38469999999999993,-143.0273124163552
-0.38370000000000004,-143.0273124163552
-0.38269999999999993,-143.0273124163552
-0.38170000000000004,-143.0273124163552
-0.3806999999999999,-143.0273124163552
-0.37970000000000004,-143.0273124163552
-0.3786999999999999,-143.0273124163552
-0.37770000000000004,-143.0273124163552
-0.3766999999999999,-143.0273124163552
-0.37570000000000003,-143.0273124163552
-0.3746999999999999,-143.0273124163552
-0.37370000000000003,-143.0273124163552
-0.3726999999999999,-143.0273124163552
-0.37170000000000003,-143.0273124163552
-0.3706999999999999,-143.0273124163552
-0.36970000000000003,-143.0273124163552
-0.3686999999999999,-143.0273124163552
-0.3677,-143.0273124163552
-0.3666999999999999,-143.0273124163552
-0.3657,-143.0273124163552
-0.3646999999999999,-143.0273124163552
-0.3637,-143.0273124163552
-0.3626999999999999,-143.0273124163552
-0.3617,-143.0273124163552
-0.36070000000000013,-141.89554337646317
-0.3597,-139.83006487866024
-0.35870000000000013,-137.53823257287885
-0.3577,-135.03419357211774
-0.35670000000000013,-131.99256427740792
-0.3557,-129.61584929363465
-0.3547000000000001,-127.46548811783981
-0.3537,-125.01803756907329
-0.3527000000000001,-122.83938216728113
-0.3517,-121.00025747745659
-0.3507000000000001,-119.18942701362934
-0.3497,-117.16638985482233
-0.3487000000000001,-115.36970650399375
-0.3477,-113.62961160515974
-0.3467000000000001,-111.7056042373433
-0.3457,-109.89477377351605
-0.3447000000000001,-108.12638464868475
-0.3437,-106.4004368628494
-0.3427000000000001,-104.66034196401542
-0.3417,-102.73633459619896
-0.3407000000000001,-101.03868103636091
-0.3397,-99.34102747652288
-0.3387000000000001,-97.57263835169158
-0.3377,-95.76180788786432
-0.3367000000000001,-93.75291784205598
-0.3357,-91.99867583022333
-0.3347000000000001,-90.41419917437449
-0.3337,-88.9004580835189
-0.3327000000000001,-87.35842276666601
-0.3317,-85.80224033681448
-0.3307000000000001,-84.20361656796698
-0.3297,-82.54840434712489
-0.3287000000000001,-81.03466325626928
-0.3277,-79.63409906940291
-0.3267000000000001,-78.10621086554868
-0.3257,-76.67735245268499
-0.3247000000000001,-75.40411228280645
-0.3237,-74.03184232193736
-0.3227000000000001,-72.46151277908717
-0.3217,-71.17412549621
-0.3207000000000001,-69.61794306635846
-0.3197,-68.13249620150016
-0.3187000000000001,-66.76022624063107
-0.3177,-65.5011331837512
-0.3167000000000001,-64.19959878787537
-0.3157,-62.86977016600223
-0.3147000000000001,-61.46920597913584
-0.3137,-60.16767158326001
-0.3127000000000001,-58.85199007438552
-0.3117,-57.57874990450699
-0.3107000000000001,-56.26306839563251
-0.3097,-54.975681112755325
-0.3087000000000001,-53.74488228187274
-0.3077,-52.57067190298476
-0.3067000000000001,-51.396461524096786
-0.30569999999999997,-50.22225114520881
-0.3047000000000001,-48.90656963633432
-0.30369999999999997,-47.74650637044499
-0.3027000000000001,-46.628884443551605
-0.30169999999999997,-45.553703855654184
-0.3007000000000001,-44.42193481576215
-0.29969999999999997,-43.26187154987282
-0.2987000000000001,-42.229132300971344
-0.29769999999999996,-41.196393052069865
-0.2967000000000001,-40.092918238175145
-0.29569999999999996,-39.074326102272316
-0.2947000000000001,-37.97085128837759
-0.29369999999999996,-36.89567070048016
-0.29270000000000007,-35.89122567757598
-0.29169999999999996,-34.92922199366775
-0.29070000000000007,-33.89648274476628
-0.28969999999999996,-32.892037721862096
-0.28870000000000007,-31.887592698957924
-0.28769999999999996,-30.99632458004295
-0.28670000000000007,-30.02017378313608
-0.28569999999999995,-29.044022986229205
-0.28470000000000006,-28.082019302320973
-0.28369999999999995,-27.176604070407354
-0.28270000000000006,-26.313630177489685
-0.28169999999999995,-25.37992071957876
-0.28070000000000006,-24.44621126166783
-0.27969999999999995,-23.653972933743415
-0.27870000000000006,-22.72026347583249
-0.27769999999999995,-21.885583808912116
-0.27670000000000006,-21.065051254990397
-0.27569999999999995,-20.187930249074075
-0.27470000000000006,-19.3249563561564
-0.27369999999999994,-18.518570915233333
-0.27270000000000005,-17.72633258730891
-0.27169999999999994,-16.94824137238314
-0.27070000000000005,-16.127708818461418
-0.26969999999999994,-15.321323377538347
-0.26870000000000005,-14.57152638860988
-0.26769999999999994,-13.817485265781814
-0.26670000000000005,-13.06910298815321
-0.26569999999999994,-12.295255907127034
