Potential V vs RHE, Current mA cm-2
0.013299999999999867,40.12121246417244
0.012299999999999978,38.593324260318205
0.011299999999999866,37.06543605646396
0.010299999999999976,35.367782496625914
0.009299999999999864,33.670128936787876
0.008299999999999974,32.269564749921486
0.007299999999999862,31.095354371033505
0.006299999999999972,29.836261314153624
0.00529999999999986,28.350814449295335
0.0042999999999999705,26.907808923433
0.0032999999999998586,25.691157205549064
0.0022999999999999687,24.64427084364894
0.0012999999999998568,23.51250180375691
0.00029999999999996696,22.196820294882425
-0.000700000000000145,20.85284456001064
-0.0017000000000000348,19.70692840711996
-0.0027000000000001467,18.843954514202288
-0.0037000000000000366,17.797068152302163
-0.0047000000000001485,16.52382798242363
-0.005700000000000038,15.222293586547794
-0.00670000000000015,14.217848563643619
-0.00770000000000004,13.344971691626892
-0.008700000000000152,12.384382719018532
-0.009700000000000042,11.163486867235004
-0.010700000000000154,9.942591015451477
-0.011700000000000044,8.939560703847167
-0.012700000000000156,8.154395932422071
-0.013700000000000045,7.237663010109527
-0.014700000000000157,6.1044792589176335
-0.015700000000000047,4.9698807964258735
-0.01670000000000016,4.054562585413195
-0.01770000000000005,3.313253864283916
-0.01870000000000016,2.4403769922671885
-0.01970000000000005,1.3063444142953748
-0.020700000000000163,0.2594580523952477
-0.021700000000000053,-0.6564260431373771
-0.022700000000000164,-1.3543031273607997
-0.023700000000000054,-2.1828995356917518
-0.024700000000000166,-3.273641947887695
-0.025700000000000056,-4.3205283097878215
-0.026700000000000168,-5.149549131508733
-0.027700000000000058,-5.847001802342197
-0.02870000000000017,-6.632166573767292
-0.02970000000000006,-7.679052935667419
-0.03070000000000017,-8.68208324727173
-0.03170000000000006,-9.511104068992642
-0.03270000000000017,-10.164700689530287
-0.03370000000000006,-10.949865460955383
-0.034700000000000175,-11.952895772559694
-0.035700000000000065,-12.955926084164007
-0.03670000000000018,-13.741090855589102
-0.03770000000000007,-14.345172580631472
-0.03870000000000018,-15.094969569559943
-0.03970000000000007,-16.056973253468165
-0.04070000000000018,-17.061418276372343
-0.04170000000000007,-17.797068152302163
-0.04270000000000018,-18.40539401124413
-0.04370000000000007,-19.155191000172596
-0.044700000000000184,-20.06060623208622
-0.045700000000000074,-21.022609915994444
-0.046700000000000186,-21.772406904922917
-0.047700000000000076,-22.38073276386488
-0.04870000000000019,-23.073941300798747
-0.04970000000000008,-23.993503645711023
-0.05070000000000019,-24.95550732961925
-0.05170000000000008,-25.648715866553115
-0.05270000000000019,-26.17215904750318
-0.05370000000000008,-26.907808923433
-0.05470000000000019,-27.827371268345274
-0.05570000000000008,-28.789374952253496
-0.056700000000000195,-29.525024828183312
-0.057700000000000085,-30.04846800913338
-0.058700000000000196,-30.71338232006995
-0.059700000000000086,-31.618797551983565
-0.0607000000000002,-32.58080123589179
-0.06170000000000009,-33.330598224820264
-0.0627000000000002,-33.89648274476628
-0.06370000000000009,-34.5472499427042
-0.0647000000000002,-35.42437094862052
-0.06570000000000009,-36.37222751953009
-0.0667000000000002,-37.037141830466666
-0.0677000000000001,-37.56058501141672
-0.0687000000000002,-38.211352209354644
-0.0697000000000001,-39.08847321527096
-0.07070000000000021,-39.99388844718459
-0.0717000000000001,-40.701244097117105
-0.07270000000000021,-41.267128617063115
-0.0737000000000001,-41.91789581500104
-0.07470000000000021,-42.79501682091736
-0.0757000000000001,-43.70043205283099
-0.07670000000000021,-44.36534636376755
-0.0777000000000001,-44.88878954471762
-0.07870000000000021,-45.53955674265553
-0.0797000000000001,-46.501560426563756
-0.08070000000000022,-47.46356411047198
-0.0817000000000001,-48.156772647405845
-0.08270000000000022,-48.63777448935996
-0.08370000000000011,-49.20365900930597
-0.08470000000000022,-50.024191563227696
-0.08570000000000011,-50.943753908139975
-0.08670000000000022,-51.65110955807249
-0.08770000000000011,-52.2169940780185
-0.08870000000000022,-52.86776127595642
-0.08970000000000011,-53.74488228187274
-0.09070000000000022,-54.56541483579447
-0.09170000000000011,-55.25862337272834
-0.09270000000000023,-55.7820665536784
-0.09370000000000012,-56.404539525619015
-0.09470000000000023,-57.26751341853669
-0.09570000000000012,-58.05975174646111
-0.09670000000000023,-58.71051894439902
-0.09770000000000012,-59.27640346434504
-0.09870000000000023,-59.9696120012789
-0.09970000000000012,-60.889174346191176
-0.10070000000000023,-61.72385401311155
-0.10170000000000012,-62.33217987205352
-0.10270000000000024,-62.855623053003576
-0.10370000000000013,-63.46394891194555
-0.10470000000000024,-64.34106991786187
-0.10570000000000013,-65.2464851497755
-0.10670000000000024,-65.86895812171612
-0.10770000000000013,-66.29337151167562
-0.10870000000000024,-66.9582858226122
-0.10970000000000013,-67.86370105452582
-0.11070000000000024,-68.78326339943808
-0.11170000000000013,-69.53306038836655
-0.11270000000000002,-70.05650356931662
-0.11370000000000013,-70.70727076725453
-0.11470000000000002,-71.52780332117625
-0.11570000000000014,-72.44736566608852
-0.11670000000000003,-73.15472131602105
-0.11770000000000014,-73.6781644969711
-0.11870000000000003,-74.32893169490903
-0.11970000000000014,-75.19190558782671
-0.12070000000000003,-76.11146793273898
-0.12170000000000014,-76.81882358267148
-0.12270000000000003,-77.34226676362155
-0.12370000000000014,-77.99303396155948
-0.12470000000000003,-78.85600785447714
-0.12570000000000014,-79.73312886039348
-0.12670000000000003,-80.42633739732734
-0.12770000000000015,-80.9497805782774
-0.12870000000000004,-81.65713622820991
-0.12970000000000015,-82.52011012112759
-0.13070000000000004,-83.43967246603985
-0.13170000000000015,-84.13288100297372
-0.13270000000000004,-84.6563241839238
-0.13370000000000015,-85.27879715586442
-0.13470000000000004,-86.18421238777805
-0.13570000000000015,-87.10377473269031
-0.13670000000000004,-87.79698326962418
-0.13770000000000016,-88.32042645057423
-0.13870000000000005,-88.94289942251486
-0.13970000000000016,-89.80587331543254
-0.14070000000000005,-90.68299432134886
-0.14170000000000016,-91.33376151928677
-0.14270000000000005,-91.89964603923279
-0.14370000000000016,-92.56456035016936
-0.14470000000000005,-93.42753424308701
-0.14570000000000016,-94.30465524900335
-0.14670000000000005,-94.99786378593721
-0.14770000000000016,-95.52130696688728
-0.14870000000000005,-96.17207416482519
-0.14970000000000017,-97.09163650973747
-0.15070000000000006,-98.01119885464975
-0.15170000000000017,-98.7044073915836
-0.15270000000000006,-99.18540923353773
-0.15370000000000017,-99.83617643147564
-0.15470000000000006,-100.75573877638791
-0.15570000000000017,-101.6753011213002
-0.15670000000000006,-102.36850965823406
-0.15770000000000017,-102.89195283918411
-0.15870000000000006,-103.54272003712204
-0.15970000000000018,-104.46228238203432
-0.16070000000000007,-105.38184472694657
-0.16170000000000018,-106.11749460287639
-0.16270000000000007,-106.68337912282242
-0.16370000000000018,-107.30585209476303
-0.16470000000000007,-108.12638464868475
-0.16570000000000018,-109.04594699359701
-0.16670000000000007,-109.8806266605174
-0.16770000000000018,-110.57383519745127
-0.16870000000000007,-111.394367751373
-0.16970000000000018,-112.39881277427718
-0.17070000000000007,-113.36081645818538
-0.17170000000000019,-113.92670097813141
-0.17270000000000008,-114.36526148108955
-0.1737000000000002,-114.93114600103557
-0.17470000000000008,-115.85070834594785
-0.1757000000000002,-116.85515336885203
-0.17670000000000008,-117.71812726176971
-0.1777000000000002,-118.29815889471436
-0.17870000000000008,-118.94892609265229
-0.1797000000000002,-119.86848843756455
-0.18070000000000008,-120.68902099148629
-0.1817000000000002,-121.38222952842017
-0.18270000000000008,-121.90567270937021
-0.1837000000000002,-122.57058702030677
-0.1847000000000001,-123.532590704215
-0.1857000000000002,-124.52288861412055
-0.1867000000000001,-125.31512694204494
-0.1877000000000002,-125.83857012299501
-0.1887000000000001,-126.48933732093293
-0.1897000000000002,-127.4937823438371
-0.1907000000000001,-128.5831100447332
-0.1917000000000001,-129.3753483726576
-0.19269999999999998,-129.79976176261712
-0.1937000000000001,-130.37979339556176
-0.19469999999999998,-131.15788461048754
-0.1957000000000001,-132.07744695539984
-0.19669999999999999,-132.8555381703256
-0.1977000000000001,-133.46386402926754
-0.1987,-134.256102357192
-0.1997000000000001,-135.26054738009617
-0.2007,-136.30743374199628
-0.2017000000000001,-137.00064227893017
-0.2027,-137.52408545988024
-0.2037000000000001,-138.13241131882216
-0.2047,-138.96709098574257
-0.2057000000000001,-139.80177065266292
-0.2067,-140.4949791895968
-0.2077000000000001,-141.06086370954282
-0.2087,-141.75407224647665
-0.2097000000000001,-142.7443701563822
-0.2107,-143.73466806628772
-0.2117000000000001,-144.58349484620675
-0.2127,-145.14937936615277
-0.2137000000000001,-145.85673501608528
-0.2147,-146.8470329259908
-0.2157000000000001,-147.83733083589632
-0.2167,-148.68615761581535
-0.21770000000000012,-149.39351326574788
-0.2187,-150.1008689156804
-0.21970000000000012,-151.09116682558593
-0.2207,-151.93999360550492
-0.22170000000000012,-152.64734925543743
-0.2227,-153.21323377538346
-0.22370000000000012,-153.77911829532948
-0.2247,-154.6279450752485
-0.22570000000000012,-155.61824298515404
-0.2267,-156.32559863508658
-0.22770000000000012,-156.89148315503257
-0.22870000000000001,-157.59883880496508
-0.22970000000000013,-158.4476655848841
-0.23070000000000002,-159.43796349478964
-0.23170000000000013,-160.28679027470866
-0.23270000000000002,-160.99414592464117
-0.23370000000000013,-161.70150157457368
-0.23470000000000002,-162.6917994844792
-0.23570000000000013,-163.68209739438475
-0.23670000000000002,-164.67239530429026
-0.2376999999999999,-165.2382798242363
-0.23870000000000002,-165.94563547416882
-0.2396999999999999,-166.79446225408785
-0.24070000000000003,-167.6432890340068
-0.24169999999999991,-168.35064468393938
-0.24270000000000003,-168.91652920388537
-0.24369999999999992,-169.7653559838044
-0.24470000000000003,-170.89712502369645
-0.24569999999999992,-172.0288940635885
-0.24670000000000003,-172.87772084350746
-0.24769999999999992,-173.44360536345349
-0.24870000000000003,-174.150961013386
-0.24969999999999992,-175.14125892329156
-0.25070000000000003,-176.13155683319707
-0.2516999999999999,-176.8389124831296
-0.25270000000000004,-177.2633258730891
-0.2536999999999999,-177.9706815230216
-0.25470000000000004,-178.96097943292713
-0.2556999999999999,-179.95127734283267
-0.25670000000000004,-180.8001041227517
-0.25769999999999993,-181.36598864269772
-0.25870000000000004,-182.07334429263022
-0.25969999999999993,-183.06364220253573
-0.26070000000000004,-183.91246898245475
-0.26169999999999993,-184.9027668923603
-0.26270000000000004,-185.6101225422928
-0.26369999999999993,-186.31747819222534
-0.26470000000000005,-187.30777610213087
-0.26569999999999994,-188.29807401203638
-0.26670000000000005,-189.2883719219419
-0.26769999999999994,-189.99572757187443
-0.26870000000000005,-190.70308322180696
-0.26969999999999994,-191.551910001726
-0.27070000000000005,-192.683679041618
-0.27169999999999994,-193.532505821537
-0.27270000000000005,-194.09839034148303
-0.27369999999999994,-194.94721712140205
-0.27470000000000006,-195.79604390132107
-0.27569999999999995,-196.7863418112266
-0.27670000000000006,-197.49369746115914
-0.27769999999999995,-197.91811085111863
-0.27870000000000006,-198.76693763103765
-0.27969999999999995,-199.89870667092967
-0.28070000000000006,-200.88900458083523
-0.28169999999999995,-201.87930249074074
-0.28270000000000006,-202.44518701068677
-0.28369999999999995,-203.29401379060576
-0.28470000000000006,-204.2843117005113
-0.28569999999999995,-205.27460961041683
-0.28670000000000007,-206.12343639033585
-0.28769999999999996,-207.1137343002414
-0.28870000000000007,-208.1040322101469
-0.28969999999999996,-209.0943301200524
-0.29070000000000007,-209.8016857699849
-0.29169999999999996,-210.22609915994445
-0.29270000000000007,-210.65051254990397
-0.29369999999999996,-211.35786819983647
-0.2947000000000001,-212.631108369715
-0.29569999999999996,-213.76287740960703
-0.2967000000000001,-214.75317531951256
-0.29769999999999996,-215.31905983945856
-0.2987000000000001,-216.1678866193776
-0.29969999999999997,-217.44112678925615
-0.3007000000000001,-218.71436695913465
-0.30169999999999997,-219.42172260906716
-0.3027000000000001,-219.98760712901318
-0.30369999999999997,-220.5534916489592
-0.3047000000000001,-221.54378955886475
-0.30569999999999997,-222.53408746877028
-0.3067000000000001,-223.52438537867582
-0.3077,-224.2317410286083
-0.3087000000000001,-225.08056780852735
-0.3097,-225.92939458844637
-0.3107000000000001,-226.77822136836537
-0.3117,-227.4855770182979
-0.3127000000000001,-228.33440379821695
-0.3137,-229.18323057813595
-0.3147000000000001,-230.45647074801445
-0.3157,-231.5882397879065
-0.3167000000000001,-232.29559543783904
-0.3177,-232.86147995778504
-0.3187000000000001,-233.71030673770406
-0.3197,-234.84207577759608
-0.3207000000000001,-235.97384481748813
-0.3217,-236.82267159740715
-0.3227000000000001,-237.53002724733966
-0.3237,-238.2373828972722
-0.3247000000000001,-239.36915193716422
-0.3257,-240.50092097705624
-0.3267000000000001,-241.49121888696175
-0.3277,-242.19857453689428
-0.3287000000000001,-243.04740131681334
-0.3297,-244.03769922671884
-0.3307000000000001,-245.16946826661086
-0.3317,-246.30123730650286
-0.3327000000000001,-246.7256506964624
-0.3337,-247.0085929564354
-0.3347000000000001,-247.57447747638145
-0.3357,-248.70624651627344
-0.3367000000000001,-250.262428946125
-0.3377,-251.53566911600356
-0.3387000000000001,-252.66743815589555
-0.3397,-253.09185154585506
-0.3407000000000001,-253.37479380582806
-0.3417,-253.94067832577412
-0.3427000000000001,-255.35538962563913
-0.3437,-257.1945143154637
-0.3447000000000001,-259.17511013527474
-0.3457,-260.3068791751668
-0.3467000000000001,-260.58982143513975
-0.3477,-260.3068791751668
-0.3487000000000001,-260.58982143513975
-0.3497,-261.7215904750318
-0.3507000000000001,-263.27777290488336
-0.3517,-264.83395533473487
-0.3527000000000001,-266.1071955046134
-0.3537,-266.9560222845325
-0.3547000000000001,-267.38043567449193
-0.3557,-268.0877913244245
-0.35670000000000013,-268.79514697435695
-0.3577,-269.64397375427603
-0.35870000000000013,-270.775742794168
-0.3597,-272.1904540940331
-0.36070000000000013,-273.3222231339251
-0.3617,-274.1710499138441
-0.3626999999999999,-274.7369344337901
-0.3637,-275.58576121370913
-0.3646999999999999,-276.43458799362816
-0.3657,-277.4248859035337
-0.3666999999999999,-277.9907704234797
-0.3677,-278.6981260734122
-0.3686999999999999,-279.97136624329073
-0.36970000000000003,-281.52754867314235
-0.3706999999999999,-282.65931771303434
-0.37170000000000003,-282.8007888430208
-0.3726999999999999,-282.3763754530613
-0.37370000000000003,-282.65931771303434
-0.3746999999999999,-283.9325578829129
-0.37570000000000003,-285.9131537027239
-0.3766999999999999,-287.46933613257545
-0.37770000000000004,-288.6011051724675
-0.3786999999999999,-289.1669896924135
-0.37970000000000004,-289.4499319523865
-0.3806999999999999,-290.157287602319
-0.38170000000000004,-290.723172122265
-0.38269999999999993,-291.4305277721976
-0.38370000000000004,-292.56229681208964
-0.38469999999999993,-293.9770081119546
-0.38570000000000004,-295.25024828183314
-0.38669999999999993,-294.8258348918736
-0.38570000000000004,-291.9964122921436
-0.38469999999999993,-289.4499319523865
-0.38370000000000004,-287.04492274261594
-0.38269999999999993,-284.7813846628319
-0.38170000000000004,-281.8104909331153
-0.3806999999999999,-279.40548172334474
-0.37970000000000004,-277.4248859035337
-0.3786999999999999,-275.44429008372265
-0.37770000000000004,-273.3222231339251
-0.3766999999999999,-271.05868505414105
-0.37570000000000003,-268.65367584437047
-0.3746999999999999,-266.2486666345999
-0.37370000000000003,-263.98512855481584
-0.3726999999999999,-261.8630616050183
-0.37170000000000003,-259.7409946552208
-0.3706999999999999,-257.6189277054232
-0.36970000000000003,-255.49686075562562
-0.3686999999999999,-253.51626493581452
-0.3677,-251.39419798601702
-0.3666999999999999,-248.9891887762465
-0.3657,-246.5841795664759
-0.3646999999999999,-244.32064148669184
-0.3637,-242.48151679686728
-0.3626999999999999,-240.64239210704275
-0.3617,-238.66179628723168
-0.36070000000000013,-236.53972933743412
-0.3597,-234.4176623876366
-0.35870000000000013,-232.43706656782552
-0.3577,-230.7394130079875
-0.35670000000000013,-228.90028831816295
-0.3557,-226.63675023837888
-0.3547000000000001,-224.37321215859478
-0.3537,-222.3926163387838
-0.3527000000000001,-220.41202051897272
-0.3517,-218.43142469916165
-0.3507000000000001,-216.4508288793506
-0.3497,-214.32876192955305
-0.3487000000000001,-212.48963723972852
-0.3477,-210.65051254990397
-0.3467000000000001,-208.6699167300929
-0.3457,-206.54784978029537
-0.3447000000000001,-204.2843117005113
-0.3437,-202.44518701068677
-0.3427000000000001,-200.7475334508487
-0.3417,-198.90840876102413
-0.3407000000000001,-196.7863418112266
-0.3397,-194.94721712140205
-0.3387000000000001,-193.3910346915505
-0.3377,-191.9763233916855
-0.3367000000000001,-189.99572757187443
-0.3357,-187.73218949209036
-0.3347000000000001,-185.46865141230631
-0.3337,-183.48805559249527
-0.3327000000000001,-181.64893090267074
-0.3317,-179.95127734283267
-0.3307000000000001,-178.25362378299462
-0.3297,-176.6974413531431
-0.3287000000000001,-175.14125892329156
-0.3277,-173.44360536345349
-0.3267000000000001,-171.18006728366944
-0.3257,-168.77505807389886
-0.3247000000000001,-166.79446225408785
-0.3237,-165.3797509542228
-0.3227000000000001,-164.10651078434424
-0.3217,-162.5503283544927
-0.3207000000000001,-160.5697325346817
-0.3197,-158.5891367148706
-0.3187000000000001,-156.89148315503257
-0.3177,-155.19382959519453
-0.3167000000000001,-153.35470490536997
-0.3157,-151.5155802155454
-0.3147000000000001,-149.8179266557074
-0.3137,-148.26174422585584
-0.3127000000000001,-146.8470329259908
-0.3117,-145.14937936615277
-0.3107000000000001,-143.16878354634173
-0.3097,-141.06086370954282
-0.3087000000000001,-139.44809282769666
-0.3077,-138.04752864083028
-0.3067000000000001,-136.51964043697603
-0.30569999999999997,-134.77954553814206
-0.3047000000000001,-133.12433331729994
-0.30369999999999997,-131.68132779143764
-0.3027000000000001,-130.1534395875834
-0.30169999999999997,-128.45578602774532
-0.3007000000000001,-126.57421999892482
-0.29969999999999997,-124.83412510009084
-0.2987000000000001,-123.43356091322445
-0.29769999999999996,-122.1320265173486
-0.2967000000000001,-120.56169697449842
-0.29569999999999996,-118.82160207566443
-0.2947000000000001,-117.06736006383179
-0.29369999999999996,-115.45458918198564
-0.29270000000000007,-113.79937696114357
-0.29169999999999996,-112.05928206230955
-0.29070000000000007,-110.26259871148096
-0.28969999999999996,-108.64982782963483
-0.28870000000000007,-107.26341075576708
-0.28769999999999996,-105.90528790789664
-0.28670000000000007,-104.41984104303836
-0.28569999999999995,-102.80707016119221
-0.28470000000000006,-101.27918195733798
-0.28369999999999995,-99.7937350924797
-0.28270000000000006,-98.40731801861195
-0.28169999999999995,-96.83698847576176
-0.28070000000000006,-95.22421759391563
-0.27969999999999995,-93.73877072905732
-0.27870000000000006,-92.4655305591788
-0.27769999999999995,-91.24887884129487
-0.27670000000000006,-89.80587331543254
-0.27569999999999995,-88.10821975559449
-0.27470000000000006,-86.45300753475239
-0.27369999999999994,-85.01000200889004
-0.27270000000000005,-83.66602627401826
-0.27169999999999994,-82.13813807016405
-0.27070000000000005,-80.46877873632329
-0.26969999999999994,-78.9550376454677
-0.26870000000000005,-77.63935613659322
-0.26769999999999994,-76.38026307971333
