Sept. 7, 2024   19:32:47
Cyclic Voltammetry
File: c:/users/guazh/data/20240903_batch_252_500/2024-09-03-exp291\exp291-2024-09-07t19_10_11-h2koh\exp291_cv_sr_900mvs_efin_-1900mv.bin
Data Source:  Experiment
Instrument Model:  CHI760E
Header: CV ran at 900 mVs
Note: 

Init E (V) = -1
High E (V) = -1
Low E (V) = -1.9
Final E (V) = -1
Init P/N = N
Scan Rate (V/s) = 0.9
Segment = 3
Sample Interval (V) = 0.001
Quiet Time (sec) = 2
Sensitivity (A/V) = 0.01
Comp R (ohm) = 2.1

Results:

Channel 1:
Segment 1:
Ep = -1.403V
ip = 1.740e-5A
Ah = 1.377e-6C

Segment 2:

Segment 3:

Potential/V, Current/A

-1.000, 3.239e-6
-1.001, 3.239e-6
-1.002, 3.239e-6
-1.003, 6.322e-6
-1.004, 6.322e-6
-1.005, 6.322e-6
-1.006, 6.322e-6
-1.007, 6.322e-6
-1.008, 6.322e-6
-1.009, 6.322e-6
-1.010, 6.322e-6
-1.011, 6.322e-6
-1.012, 9.405e-6
-1.013, 6.322e-6
-1.014, 6.322e-6
-1.015, 6.322e-6
-1.016, 6.322e-6
-1.017, 9.405e-6
-1.018, 6.322e-6
-1.019, 6.322e-6
-1.020, 6.322e-6
-1.021, 9.405e-6
-1.022, 6.322e-6
-1.023, 6.322e-6
-1.024, 6.322e-6
-1.025, 9.405e-6
-1.026, 9.405e-6
-1.027, 9.405e-6
-1.028, 9.405e-6
-1.029, 9.405e-6
-1.030, 6.322e-6
-1.031, 9.405e-6
-1.032, 9.405e-6
-1.033, 9.405e-6
-1.034, 9.405e-6
-1.035, 9.405e-6
-1.036, 9.405e-6
-1.037, 9.405e-6
-1.038, 9.405e-6
-1.039, 9.405e-6
-1.040, 9.405e-6
-1.041, 9.405e-6
-1.042, 9.405e-6
-1.043, 9.405e-6
-1.044, 9.405e-6
-1.045, 9.405e-6
-1.046, 9.405e-6
-1.047, 9.405e-6
-1.048, 9.405e-6
-1.049, 9.405e-6
-1.050, 9.405e-6
-1.051, 9.405e-6
-1.052, 9.405e-6
-1.053, 9.405e-6
-1.054, 9.405e-6
-1.055, 9.405e-6
-1.056, 1.249e-5
-1.057, 9.405e-6
-1.058, 9.405e-6
-1.059, 9.405e-6
-1.060, 1.249e-5
-1.061, 9.405e-6
-1.062, 9.405e-6
-1.063, 9.405e-6
-1.064, 1.249e-5
-1.065, 1.249e-5
-1.066, 9.405e-6
-1.067, 1.249e-5
-1.068, 9.405e-6
-1.069, 1.249e-5
-1.070, 1.249e-5
-1.071, 1.249e-5
-1.072, 1.249e-5
-1.073, 1.249e-5
-1.074, 1.249e-5
-1.075, 1.249e-5
-1.076, 1.249e-5
-1.077, 1.249e-5
-1.078, 1.249e-5
-1.079, 1.249e-5
-1.080, 1.249e-5
-1.081, 1.249e-5
-1.082, 1.249e-5
-1.083, 1.249e-5
-1.084, 1.249e-5
-1.085, 1.249e-5
-1.086, 1.249e-5
-1.087, 1.249e-5
-1.088, 1.249e-5
-1.089, 1.249e-5
-1.090, 1.249e-5
-1.091, 1.249e-5
-1.092, 1.249e-5
-1.093, 1.249e-5
-1.094, 1.249e-5
-1.095, 1.249e-5
-1.096, 1.249e-5
-1.097, 1.249e-5
-1.098, 1.249e-5
-1.099, 1.249e-5
-1.100, 1.249e-5
-1.101, 1.557e-5
-1.102, 1.557e-5
-1.103, 1.557e-5
-1.104, 1.249e-5
-1.105, 1.249e-5
-1.106, 1.249e-5
-1.107, 1.249e-5
-1.108, 1.249e-5
-1.109, 1.557e-5
-1.110, 1.249e-5
-1.111, 1.557e-5
-1.112, 1.249e-5
-1.113, 1.557e-5
-1.114, 1.557e-5
-1.115, 1.249e-5
-1.116, 1.249e-5
-1.117, 1.557e-5
-1.118, 1.557e-5
-1.119, 1.557e-5
-1.120, 1.557e-5
-1.121, 1.557e-5
-1.122, 1.557e-5
-1.123, 1.249e-5
-1.124, 1.557e-5
-1.125, 1.557e-5
-1.126, 1.557e-5
-1.127, 1.557e-5
-1.128, 1.557e-5
-1.129, 1.557e-5
-1.130, 1.557e-5
-1.131, 1.557e-5
-1.132, 1.557e-5
-1.133, 1.557e-5
-1.134, 1.557e-5
-1.135, 1.557e-5
-1.136, 1.557e-5
-1.137, 1.557e-5
-1.138, 1.557e-5
-1.139, 1.557e-5
-1.140, 1.557e-5
-1.141, 1.557e-5
-1.142, 1.557e-5
-1.143, 1.557e-5
-1.144, 1.557e-5
-1.145, 1.557e-5
-1.146, 1.557e-5
-1.147, 1.557e-5
-1.148, 1.557e-5
-1.149, 1.557e-5
-1.150, 1.557e-5
-1.151, 1.557e-5
-1.152, 1.557e-5
-1.153, 1.557e-5
-1.154, 1.865e-5
-1.155, 1.557e-5
-1.156, 1.557e-5
-1.157, 1.557e-5
-1.158, 1.557e-5
-1.159, 1.557e-5
-1.160, 1.557e-5
-1.161, 1.557e-5
-1.162, 1.865e-5
-1.163, 1.557e-5
-1.164, 1.557e-5
-1.165, 1.865e-5
-1.166, 1.557e-5
-1.167, 1.557e-5
-1.168, 1.865e-5
-1.169, 1.865e-5
-1.170, 1.865e-5
-1.171, 1.865e-5
-1.172, 1.865e-5
-1.173, 1.557e-5
-1.174, 1.865e-5
-1.175, 1.557e-5
-1.176, 1.865e-5
-1.177, 1.865e-5
-1.178, 1.865e-5
-1.179, 1.865e-5
-1.180, 1.865e-5
-1.181, 1.865e-5
-1.182, 1.865e-5
-1.183, 1.865e-5
-1.184, 1.557e-5
-1.185, 1.865e-5
-1.186, 1.865e-5
-1.187, 1.865e-5
-1.188, 1.865e-5
-1.189, 1.865e-5
-1.190, 1.865e-5
-1.191, 1.865e-5
-1.192, 1.865e-5
-1.193, 1.865e-5
-1.194, 1.865e-5
-1.195, 1.865e-5
-1.196, 1.865e-5
-1.197, 1.865e-5
-1.198, 1.865e-5
-1.199, 1.865e-5
-1.200, 1.865e-5
-1.201, 1.865e-5
-1.202, 1.865e-5
-1.203, 1.865e-5
-1.204, 1.865e-5
-1.205, 1.865e-5
-1.206, 1.865e-5
-1.207, 2.174e-5
-1.208, 1.865e-5
-1.209, 1.865e-5
-1.210, 1.865e-5
-1.211, 2.174e-5
-1.212, 1.865e-5
-1.213, 1.865e-5
-1.214, 1.865e-5
-1.215, 2.174e-5
-1.216, 1.865e-5
-1.217, 1.865e-5
-1.218, 1.865e-5
-1.219, 1.865e-5
-1.220, 1.865e-5
-1.221, 1.865e-5
-1.222, 1.865e-5
-1.223, 1.865e-5
-1.224, 1.865e-5
-1.225, 1.865e-5
-1.226, 1.865e-5
-1.227, 1.865e-5
-1.228, 2.174e-5
-1.229, 1.865e-5
-1.230, 1.865e-5
-1.231, 2.174e-5
-1.232, 1.865e-5
-1.233, 2.174e-5
-1.234, 2.174e-5
-1.235, 2.174e-5
-1.236, 1.865e-5
-1.237, 1.865e-5
-1.238, 1.865e-5
-1.239, 1.865e-5
-1.240, 2.174e-5
-1.241, 2.174e-5
-1.242, 2.174e-5
-1.243, 1.865e-5
-1.244, 2.174e-5
-1.245, 1.865e-5
-1.246, 2.174e-5
-1.247, 2.174e-5
-1.248, 2.174e-5
-1.249, 2.174e-5
-1.250, 2.174e-5
-1.251, 2.174e-5
-1.252, 2.174e-5
-1.253, 2.174e-5
-1.254, 2.174e-5
-1.255, 2.174e-5
-1.256, 2.174e-5
-1.257, 2.174e-5
-1.258, 2.174e-5
-1.259, 2.174e-5
-1.260, 2.174e-5
-1.261, 2.174e-5
-1.262, 2.174e-5
-1.263, 2.174e-5
-1.264, 2.174e-5
-1.265, 2.174e-5
-1.266, 2.174e-5
-1.267, 2.174e-5
-1.268, 2.174e-5
-1.269, 2.174e-5
-1.270, 2.174e-5
-1.271, 2.174e-5
-1.272, 2.174e-5
-1.273, 2.174e-5
-1.274, 2.482e-5
-1.275, 2.174e-5
-1.276, 2.482e-5
-1.277, 2.482e-5
-1.278, 2.174e-5
-1.279, 2.174e-5
-1.280, 2.174e-5
-1.281, 2.482e-5
-1.282, 2.482e-5
-1.283, 2.174e-5
-1.284, 2.482e-5
-1.285, 2.174e-5
-1.286, 2.482e-5
-1.287, 2.174e-5
-1.288, 2.482e-5
-1.289, 2.482e-5
-1.290, 2.482e-5
-1.291, 2.174e-5
-1.292, 2.482e-5
-1.293, 2.174e-5
-1.294, 2.482e-5
-1.295, 2.482e-5
-1.296, 2.482e-5
-1.297, 2.482e-5
-1.298, 2.482e-5
-1.299, 2.482e-5
-1.300, 2.482e-5
-1.301, 2.482e-5
-1.302, 2.482e-5
-1.303, 2.482e-5
-1.304, 2.482e-5
-1.305, 2.482e-5
-1.306, 2.482e-5
-1.307, 2.482e-5
-1.308, 2.482e-5
-1.309, 2.482e-5
-1.310, 2.482e-5
-1.311, 2.482e-5
-1.312, 2.482e-5
-1.313, 2.790e-5
-1.314, 2.482e-5
-1.315, 2.790e-5
-1.316, 2.482e-5
-1.317, 2.482e-5
-1.318, 2.482e-5
-1.319, 2.482e-5
-1.320, 2.790e-5
-1.321, 2.482e-5
-1.322, 2.790e-5
-1.323, 2.482e-5
-1.324, 2.790e-5
-1.325, 2.482e-5
-1.326, 2.790e-5
-1.327, 2.790e-5
-1.328, 2.790e-5
-1.329, 2.790e-5
-1.330, 2.482e-5
-1.331, 2.790e-5
-1.332, 2.790e-5
-1.333, 2.790e-5
-1.334, 2.790e-5
-1.335, 2.790e-5
-1.336, 2.790e-5
-1.337, 2.790e-5
-1.338, 2.790e-5
-1.339, 2.790e-5
-1.340, 2.790e-5
-1.341, 2.790e-5
-1.342, 2.790e-5
-1.343, 2.790e-5
-1.344, 2.790e-5
-1.345, 2.790e-5
-1.346, 2.790e-5
-1.347, 2.790e-5
-1.348, 2.790e-5
-1.349, 2.790e-5
-1.350, 2.790e-5
-1.351, 3.099e-5
-1.352, 2.790e-5
-1.353, 2.790e-5
-1.354, 3.099e-5
-1.355, 2.790e-5
-1.356, 2.790e-5
-1.357, 3.099e-5
-1.358, 2.790e-5
-1.359, 2.790e-5
-1.360, 2.790e-5
-1.361, 3.099e-5
-1.362, 3.099e-5
-1.363, 3.099e-5
-1.364, 2.790e-5
-1.365, 3.099e-5
-1.366, 3.099e-5
-1.367, 3.099e-5
-1.368, 3.099e-5
-1.369, 3.099e-5
-1.370, 3.099e-5
-1.371, 3.099e-5
-1.372, 3.099e-5
-1.373, 3.099e-5
-1.374, 3.099e-5
-1.375, 3.099e-5
-1.376, 3.099e-5
-1.377, 3.099e-5
-1.378, 3.099e-5
-1.379, 3.099e-5
-1.380, 3.099e-5
-1.381, 3.099e-5
-1.382, 3.099e-5
-1.383, 3.099e-5
-1.384, 3.099e-5
-1.385, 3.407e-5
-1.386, 3.407e-5
-1.387, 3.099e-5
-1.388, 3.407e-5
-1.389, 3.407e-5
-1.390, 3.407e-5
-1.391, 3.407e-5
-1.392, 3.407e-5
-1.393, 3.407e-5
-1.394, 3.407e-5
-1.395, 3.407e-5
-1.396, 3.407e-5
-1.397, 3.407e-5
-1.398, 3.407e-5
-1.399, 3.407e-5
-1.400, 3.407e-5
-1.401, 3.407e-5
-1.402, 3.407e-5
-1.403, 3.715e-5
-1.404, 3.407e-5
-1.405, 3.407e-5
-1.406, 3.407e-5
-1.407, 3.407e-5
-1.408, 3.715e-5
-1.409, 3.715e-5
-1.410, 3.407e-5
-1.411, 3.715e-5
-1.412, 3.407e-5
-1.413, 3.715e-5
-1.414, 3.715e-5
-1.415, 3.715e-5
-1.416, 3.715e-5
-1.417, 3.715e-5
-1.418, 3.715e-5
-1.419, 3.715e-5
-1.420, 3.715e-5
-1.421, 3.715e-5
-1.422, 3.715e-5
-1.423, 3.715e-5
-1.424, 3.715e-5
-1.425, 3.715e-5
-1.426, 3.715e-5
-1.427, 3.407e-5
-1.428, 3.715e-5
-1.429, 3.715e-5
-1.430, 3.715e-5
-1.431, 3.715e-5
-1.432, 3.715e-5
-1.433, 3.715e-5
-1.434, 3.715e-5
-1.435, 3.715e-5
-1.436, 3.715e-5
-1.437, 3.715e-5
-1.438, 3.715e-5
-1.439, 3.715e-5
-1.440, 3.715e-5
-1.441, 3.715e-5
-1.442, 3.715e-5
-1.443, 3.715e-5
-1.444, 3.715e-5
-1.445, 3.715e-5
-1.446, 3.715e-5
-1.447, 3.715e-5
-1.448, 3.407e-5
-1.449, 3.715e-5
-1.450, 3.715e-5
-1.451, 3.407e-5
-1.452, 3.715e-5
-1.453, 3.715e-5
-1.454, 3.715e-5
-1.455, 3.715e-5
-1.456, 3.715e-5
-1.457, 3.715e-5
-1.458, 3.715e-5
-1.459, 3.407e-5
-1.460, 3.715e-5
-1.461, 3.715e-5
-1.462, 3.715e-5
-1.463, 3.715e-5
-1.464, 3.715e-5
-1.465, 3.715e-5
-1.466, 3.715e-5
-1.467, 3.715e-5
-1.468, 3.715e-5
-1.469, 3.715e-5
-1.470, 3.715e-5
-1.471, 3.715e-5
-1.472, 3.715e-5
-1.473, 3.715e-5
-1.474, 3.715e-5
-1.475, 3.715e-5
-1.476, 3.715e-5
-1.477, 3.715e-5
-1.478, 3.715e-5
-1.479, 3.715e-5
-1.480, 3.715e-5
-1.481, 3.715e-5
-1.482, 3.715e-5
-1.483, 3.715e-5
-1.484, 3.715e-5
-1.485, 3.715e-5
-1.486, 3.715e-5
-1.487, 3.715e-5
-1.488, 3.715e-5
-1.489, 3.715e-5
-1.490, 3.715e-5
-1.491, 3.715e-5
-1.492, 3.715e-5
-1.493, 3.715e-5
-1.494, 3.715e-5
-1.495, 3.715e-5
-1.496, 3.715e-5
-1.497, 3.715e-5
-1.498, 3.715e-5
-1.499, 3.715e-5
-1.500, 3.715e-5
-1.501, 3.715e-5
-1.502, 3.715e-5
-1.503, 3.715e-5
-1.504, 3.715e-5
-1.505, 3.715e-5
-1.506, 4.024e-5
-1.507, 4.024e-5
-1.508, 3.715e-5
-1.509, 3.715e-5
-1.510, 3.715e-5
-1.511, 4.024e-5
-1.512, 4.024e-5
-1.513, 4.024e-5
-1.514, 4.024e-5
-1.515, 4.024e-5
-1.516, 4.024e-5
-1.517, 3.715e-5
-1.518, 4.024e-5
-1.519, 4.024e-5
-1.520, 4.024e-5
-1.521, 4.024e-5
-1.522, 4.024e-5
-1.523, 4.024e-5
-1.524, 4.024e-5
-1.525, 4.024e-5
-1.526, 4.024e-5
-1.527, 4.024e-5
-1.528, 4.024e-5
-1.529, 4.024e-5
-1.530, 4.024e-5
-1.531, 4.024e-5
-1.532, 4.024e-5
-1.533, 4.024e-5
-1.534, 4.024e-5
-1.535, 4.024e-5
-1.536, 4.024e-5
-1.537, 4.024e-5
-1.538, 4.024e-5
-1.539, 4.332e-5
-1.540, 4.332e-5
-1.541, 4.332e-5
-1.542, 4.332e-5
-1.543, 4.332e-5
-1.544, 4.332e-5
-1.545, 4.332e-5
-1.546, 4.332e-5
-1.547, 4.332e-5
-1.548, 4.332e-5
-1.549, 4.332e-5
-1.550, 4.332e-5
-1.551, 4.332e-5
-1.552, 4.332e-5
-1.553, 4.332e-5
-1.554, 4.332e-5
-1.555, 4.332e-5
-1.556, 4.332e-5
-1.557, 4.332e-5
-1.558, 4.332e-5
-1.559, 4.332e-5
-1.560, 4.332e-5
-1.561, 4.332e-5
-1.562, 4.332e-5
-1.563, 4.332e-5
-1.564, 4.332e-5
-1.565, 4.332e-5
-1.566, 4.640e-5
-1.567, 4.640e-5
-1.568, 4.640e-5
-1.569, 4.332e-5
-1.570, 4.332e-5
-1.571, 4.332e-5
-1.572, 4.640e-5
-1.573, 4.640e-5
-1.574, 4.640e-5
-1.575, 4.640e-5
-1.576, 4.640e-5
-1.577, 4.640e-5
-1.578, 4.640e-5
-1.579, 4.640e-5
-1.580, 4.640e-5
-1.581, 4.640e-5
-1.582, 4.640e-5
-1.583, 4.640e-5
-1.584, 4.640e-5
-1.585, 4.640e-5
-1.586, 4.640e-5
-1.587, 4.640e-5
-1.588, 4.949e-5
-1.589, 4.640e-5
-1.590, 4.949e-5
-1.591, 4.949e-5
-1.592, 4.949e-5
-1.593, 4.949e-5
-1.594, 4.949e-5
-1.595, 4.949e-5
-1.596, 4.949e-5
-1.597, 5.257e-5
-1.598, 4.949e-5
-1.599, 4.949e-5
-1.600, 4.949e-5
-1.601, 4.949e-5
-1.602, 4.949e-5
-1.603, 4.949e-5
-1.604, 5.257e-5
-1.605, 4.949e-5
-1.606, 5.257e-5
-1.607, 4.949e-5
-1.608, 5.257e-5
-1.609, 4.949e-5
-1.610, 5.257e-5
-1.611, 5.257e-5
-1.612, 5.257e-5
-1.613, 5.257e-5
-1.614, 5.257e-5
-1.615, 5.257e-5
-1.616, 5.257e-5
-1.617, 5.565e-5
-1.618, 5.257e-5
-1.619, 5.565e-5
-1.620, 5.565e-5
-1.621, 5.565e-5
-1.622, 5.565e-5
-1.623, 5.565e-5
-1.624, 5.565e-5
-1.625, 5.565e-5
-1.626, 5.565e-5
-1.627, 5.873e-5
-1.628, 5.565e-5
-1.629, 5.873e-5
-1.630, 5.873e-5
-1.631, 5.873e-5
-1.632, 5.873e-5
-1.633, 5.873e-5
-1.634, 5.873e-5
-1.635, 6.182e-5
-1.636, 5.873e-5
-1.637, 5.873e-5
-1.638, 5.873e-5
-1.639, 5.873e-5
-1.640, 6.182e-5
-1.641, 6.182e-5
-1.642, 6.182e-5
-1.643, 6.182e-5
-1.644, 6.182e-5
-1.645, 6.182e-5
-1.646, 6.490e-5
-1.647, 6.490e-5
-1.648, 6.182e-5
-1.649, 6.490e-5
-1.650, 6.490e-5
-1.651, 6.490e-5
-1.652, 6.490e-5
-1.653, 6.798e-5
-1.654, 6.798e-5
-1.655, 6.490e-5
-1.656, 6.798e-5
-1.657, 6.798e-5
-1.658, 6.798e-5
-1.659, 6.798e-5
-1.660, 7.107e-5
-1.661, 7.107e-5
-1.662, 7.107e-5
-1.663, 7.107e-5
-1.664, 7.107e-5
-1.665, 7.415e-5
-1.666, 7.415e-5
-1.667, 7.415e-5
-1.668, 7.415e-5
-1.669, 7.415e-5
-1.670, 7.723e-5
-1.671, 7.723e-5
-1.672, 8.032e-5
-1.673, 7.723e-5
-1.674, 7.723e-5
-1.675, 8.032e-5
-1.676, 8.032e-5
-1.677, 8.340e-5
-1.678, 8.340e-5
-1.679, 8.340e-5
-1.680, 8.340e-5
-1.681, 8.648e-5
-1.682, 8.648e-5
-1.683, 8.648e-5
-1.684, 8.957e-5
-1.685, 8.957e-5
-1.686, 8.957e-5
-1.687, 9.265e-5
-1.688, 9.265e-5
-1.689, 9.265e-5
-1.690, 9.573e-5
-1.691, 9.573e-5
-1.692, 9.573e-5
-1.693, 9.882e-5
-1.694, 9.882e-5
-1.695, 1.019e-4
-1.696, 1.019e-4
-1.697, 1.050e-4
-1.698, 1.050e-4
-1.699, 1.081e-4
-1.700, 1.081e-4
-1.701, 1.081e-4
-1.702, 1.111e-4
-1.703, 1.111e-4
-1.704, 1.142e-4
-1.705, 1.173e-4
-1.706, 1.204e-4
-1.707, 1.204e-4
-1.708, 1.204e-4
-1.709, 1.235e-4
-1.710, 1.266e-4
-1.711, 1.266e-4
-1.712, 1.266e-4
-1.713, 1.327e-4
-1.714, 1.327e-4
-1.715, 1.358e-4
-1.716, 1.389e-4
-1.717, 1.389e-4
-1.718, 1.420e-4
-1.719, 1.451e-4
-1.720, 1.481e-4
-1.721, 1.512e-4
-1.722, 1.543e-4
-1.723, 1.574e-4
-1.724, 1.605e-4
-1.725, 1.636e-4
-1.726, 1.666e-4
-1.727, 1.697e-4
-1.728, 1.728e-4
-1.729, 1.759e-4
-1.730, 1.790e-4
-1.731, 1.821e-4
-1.732, 1.882e-4
-1.733, 1.882e-4
-1.734, 1.944e-4
-1.735, 1.975e-4
-1.736, 2.036e-4
-1.737, 2.067e-4
-1.738, 2.098e-4
-1.739, 2.160e-4
-1.740, 2.221e-4
-1.741, 2.252e-4
-1.742, 2.283e-4
-1.743, 2.345e-4
-1.744, 2.406e-4
-1.745, 2.468e-4
-1.746, 2.530e-4
-1.747, 2.561e-4
-1.748, 2.622e-4
-1.749, 2.684e-4
-1.750, 2.746e-4
-1.751, 2.807e-4
-1.752, 2.869e-4
-1.753, 2.961e-4
-1.754, 3.023e-4
-1.755, 3.085e-4
-1.756, 3.177e-4
-1.757, 3.239e-4
-1.758, 3.331e-4
-1.759, 3.393e-4
-1.760, 3.485e-4
-1.761, 3.578e-4
-1.762, 3.670e-4
-1.763, 3.763e-4
-1.764, 3.855e-4
-1.765, 3.948e-4
-1.766, 4.040e-4
-1.767, 4.133e-4
-1.768, 4.256e-4
-1.769, 4.349e-4
-1.770, 4.503e-4
-1.771, 4.565e-4
-1.772, 4.719e-4
-1.773, 4.842e-4
-1.774, 4.965e-4
-1.775, 5.089e-4
-1.776, 5.243e-4
-1.777, 5.366e-4
-1.778, 5.489e-4
-1.779, 5.674e-4
-1.780, 5.798e-4
-1.781, 5.952e-4
-1.782, 6.106e-4
-1.783, 6.291e-4
-1.784, 6.445e-4
-1.785, 6.630e-4
-1.786, 6.815e-4
-1.787, 6.969e-4
-1.788, 7.185e-4
-1.789, 7.370e-4
-1.790, 7.586e-4
-1.791, 7.802e-4
-1.792, 8.018e-4
-1.793, 8.203e-4
-1.794, 8.449e-4
-1.795, 8.696e-4
-1.796, 8.912e-4
-1.797, 9.158e-4
-1.798, 9.405e-4
-1.799, 9.683e-4
-1.800, 9.929e-4
-1.801, 1.021e-3
-1.802, 1.048e-3
-1.803, 1.076e-3
-1.804, 1.104e-3
-1.805, 1.135e-3
-1.806, 1.166e-3
-1.807, 1.196e-3
-1.808, 1.227e-3
-1.809, 1.261e-3
-1.810, 1.292e-3
-1.811, 1.326e-3
-1.812, 1.363e-3
-1.813, 1.397e-3
-1.814, 1.434e-3
-1.815, 1.474e-3
-1.816, 1.511e-3
-1.817, 1.551e-3
-1.818, 1.591e-3
-1.819, 1.631e-3
-1.820, 1.674e-3
-1.821, 1.717e-3
-1.822, 1.761e-3
-1.823, 1.807e-3
-1.824, 1.853e-3
-1.825, 1.899e-3
-1.826, 1.949e-3
-1.827, 1.995e-3
-1.828, 2.044e-3
-1.829, 2.097e-3
-1.830, 2.146e-3
-1.831, 2.198e-3
-1.832, 2.251e-3
-1.833, 2.306e-3
-1.834, 2.362e-3
-1.835, 2.417e-3
-1.836, 2.473e-3
-1.837, 2.534e-3
-1.838, 2.593e-3
-1.839, 2.652e-3
-1.840, 2.713e-3
-1.841, 2.775e-3
-1.842, 2.837e-3
-1.843, 2.901e-3
-1.844, 2.966e-3
-1.845, 3.034e-3
-1.846, 3.102e-3
-1.847, 3.173e-3
-1.848, 3.241e-3
-1.849, 3.311e-3
-1.850, 3.382e-3
-1.851, 3.453e-3
-1.852, 3.527e-3
-1.853, 3.601e-3
-1.854, 3.675e-3
-1.855, 3.752e-3
-1.856, 3.829e-3
-1.857, 3.906e-3
-1.858, 3.987e-3
-1.859, 4.067e-3
-1.860, 4.147e-3
-1.861, 4.227e-3
-1.862, 4.310e-3
-1.863, 4.394e-3
-1.864, 4.477e-3
-1.865, 4.563e-3
-1.866, 4.646e-3
-1.867, 4.730e-3
-1.868, 4.813e-3
-1.869, 4.899e-3
-1.870, 4.986e-3
-1.871, 5.075e-3
-1.872, 5.164e-3
-1.873, 5.251e-3
-1.874, 5.340e-3
-1.875, 5.430e-3
-1.876, 5.522e-3
-1.877, 5.614e-3
-1.878, 5.707e-3
-1.879, 5.803e-3
-1.880, 5.895e-3
-1.881, 5.994e-3
-1.882, 6.089e-3
-1.883, 6.182e-3
-1.884, 6.274e-3
-1.885, 6.370e-3
-1.886, 6.469e-3
-1.887, 6.567e-3
-1.888, 6.672e-3
-1.889, 6.780e-3
-1.890, 6.882e-3
-1.891, 6.986e-3
-1.892, 7.088e-3
-1.893, 7.193e-3
-1.894, 7.298e-3
-1.895, 7.406e-3
-1.896, 7.511e-3
-1.897, 7.619e-3
-1.898, 7.723e-3
-1.899, 7.834e-3
-1.900, 7.896e-3
-1.899, 7.878e-3
-1.898, 7.853e-3
-1.897, 7.825e-3
-1.896, 7.794e-3
-1.895, 7.757e-3
-1.894, 7.726e-3
-1.893, 7.693e-3
-1.892, 7.659e-3
-1.891, 7.622e-3
-1.890, 7.578e-3
-1.889, 7.535e-3
-1.888, 7.489e-3
-1.887, 7.440e-3
-1.886, 7.390e-3
-1.885, 7.338e-3
-1.884, 7.286e-3
-1.883, 7.230e-3
-1.882, 7.178e-3
-1.881, 7.125e-3
-1.880, 7.070e-3
-1.879, 7.014e-3
-1.878, 6.962e-3
-1.877, 6.906e-3
-1.876, 6.851e-3
-1.875, 6.792e-3
-1.874, 6.737e-3
-1.873, 6.675e-3
-1.872, 6.613e-3
-1.871, 6.552e-3
-1.870, 6.487e-3
-1.869, 6.422e-3
-1.868, 6.358e-3
-1.867, 6.290e-3
-1.866, 6.225e-3
-1.865, 6.166e-3
-1.864, 6.114e-3
-1.863, 6.058e-3
-1.862, 6.006e-3
-1.861, 5.947e-3
-1.860, 5.892e-3
-1.859, 5.830e-3
-1.858, 5.778e-3
-1.857, 5.722e-3
-1.856, 5.676e-3
-1.855, 5.633e-3
-1.854, 5.590e-3
-1.853, 5.541e-3
-1.852, 5.479e-3
-1.851, 5.417e-3
-1.850, 5.352e-3
-1.849, 5.291e-3
-1.848, 5.235e-3
-1.847, 5.186e-3
-1.846, 5.130e-3
-1.845, 5.075e-3
-1.844, 5.010e-3
-1.843, 4.945e-3
-1.842, 4.884e-3
-1.841, 4.828e-3
-1.840, 4.773e-3
-1.839, 4.720e-3
-1.838, 4.668e-3
-1.837, 4.612e-3
-1.836, 4.551e-3
-1.835, 4.489e-3
-1.834, 4.428e-3
-1.833, 4.366e-3
-1.832, 4.307e-3
-1.831, 4.246e-3
-1.830, 4.187e-3
-1.829, 4.125e-3
-1.828, 4.067e-3
-1.827, 4.008e-3
-1.826, 3.956e-3
-1.825, 3.897e-3
-1.824, 3.839e-3
-1.823, 3.780e-3
-1.822, 3.725e-3
-1.821, 3.669e-3
-1.820, 3.610e-3
-1.819, 3.555e-3
-1.818, 3.499e-3
-1.817, 3.447e-3
-1.816, 3.392e-3
-1.815, 3.339e-3
-1.814, 3.287e-3
-1.813, 3.237e-3
-1.812, 3.185e-3
-1.811, 3.136e-3
-1.810, 3.086e-3
-1.809, 3.040e-3
-1.808, 2.994e-3
-1.807, 2.951e-3
-1.806, 2.908e-3
-1.805, 2.867e-3
-1.804, 2.824e-3
-1.803, 2.784e-3
-1.802, 2.744e-3
-1.801, 2.704e-3
-1.800, 2.664e-3
-1.799, 2.624e-3
-1.798, 2.587e-3
-1.797, 2.547e-3
-1.796, 2.510e-3
-1.795, 2.476e-3
-1.794, 2.436e-3
-1.793, 2.402e-3
-1.792, 2.365e-3
-1.791, 2.328e-3
-1.790, 2.294e-3
-1.789, 2.260e-3
-1.788, 2.226e-3
-1.787, 2.192e-3
-1.786, 2.158e-3
-1.785, 2.124e-3
-1.784, 2.091e-3
-1.783, 2.057e-3
-1.782, 2.023e-3
-1.781, 1.992e-3
-1.780, 1.961e-3
-1.779, 1.927e-3
-1.778, 1.896e-3
-1.777, 1.865e-3
-1.776, 1.835e-3
-1.775, 1.807e-3
-1.774, 1.776e-3
-1.773, 1.748e-3
-1.772, 1.717e-3
-1.771, 1.690e-3
-1.770, 1.662e-3
-1.769, 1.634e-3
-1.768, 1.606e-3
-1.767, 1.579e-3
-1.766, 1.548e-3
-1.765, 1.523e-3
-1.764, 1.495e-3
-1.763, 1.471e-3
-1.762, 1.443e-3
-1.761, 1.418e-3
-1.760, 1.394e-3
-1.759, 1.369e-3
-1.758, 1.344e-3
-1.757, 1.320e-3
-1.756, 1.295e-3
-1.755, 1.273e-3
-1.754, 1.252e-3
-1.753, 1.227e-3
-1.752, 1.206e-3
-1.751, 1.184e-3
-1.750, 1.162e-3
-1.749, 1.141e-3
-1.748, 1.122e-3
-1.747, 1.101e-3
-1.746, 1.079e-3
-1.745, 1.061e-3
-1.744, 1.039e-3
-1.743, 1.021e-3
-1.742, 1.002e-3
-1.741, 9.806e-4
-1.740, 9.621e-4
-1.739, 9.436e-4
-1.738, 9.282e-4
-1.737, 9.097e-4
-1.736, 8.912e-4
-1.735, 8.758e-4
-1.734, 8.573e-4
-1.733, 8.418e-4
-1.732, 8.264e-4
-1.731, 8.079e-4
-1.730, 7.956e-4
-1.729, 7.771e-4
-1.728, 7.617e-4
-1.727, 7.463e-4
-1.726, 7.309e-4
-1.725, 7.185e-4
-1.724, 7.031e-4
-1.723, 6.908e-4
-1.722, 6.754e-4
-1.721, 6.630e-4
-1.720, 6.476e-4
-1.719, 6.353e-4
-1.718, 6.229e-4
-1.717, 6.106e-4
-1.716, 5.983e-4
-1.715, 5.859e-4
-1.714, 5.736e-4
-1.713, 5.644e-4
-1.712, 5.520e-4
-1.711, 5.397e-4
-1.710, 5.274e-4
-1.709, 5.181e-4
-1.708, 5.089e-4
-1.707, 4.996e-4
-1.706, 4.873e-4
-1.705, 4.780e-4
-1.704, 4.657e-4
-1.703, 4.595e-4
-1.702, 4.472e-4
-1.701, 4.410e-4
-1.700, 4.287e-4
-1.699, 4.225e-4
-1.698, 4.133e-4
-1.697, 4.040e-4
-1.696, 3.948e-4
-1.695, 3.855e-4
-1.694, 3.794e-4
-1.693, 3.701e-4
-1.692, 3.640e-4
-1.691, 3.547e-4
-1.690, 3.485e-4
-1.689, 3.393e-4
-1.688, 3.331e-4
-1.687, 3.270e-4
-1.686, 3.177e-4
-1.685, 3.146e-4
-1.684, 3.054e-4
-1.683, 2.992e-4
-1.682, 2.931e-4
-1.681, 2.869e-4
-1.680, 2.807e-4
-1.679, 2.746e-4
-1.678, 2.684e-4
-1.677, 2.622e-4
-1.676, 2.561e-4
-1.675, 2.499e-4
-1.674, 2.468e-4
-1.673, 2.406e-4
-1.672, 2.345e-4
-1.671, 2.314e-4
-1.670, 2.252e-4
-1.669, 2.221e-4
-1.668, 2.160e-4
-1.667, 2.129e-4
-1.666, 2.067e-4
-1.665, 2.036e-4
-1.664, 1.975e-4
-1.663, 1.944e-4
-1.662, 1.913e-4
-1.661, 1.851e-4
-1.660, 1.821e-4
-1.659, 1.790e-4
-1.658, 1.759e-4
-1.657, 1.697e-4
-1.656, 1.666e-4
-1.655, 1.636e-4
-1.654, 1.574e-4
-1.653, 1.574e-4
-1.652, 1.543e-4
-1.651, 1.481e-4
-1.650, 1.451e-4
-1.649, 1.420e-4
-1.648, 1.389e-4
-1.647, 1.358e-4
-1.646, 1.358e-4
-1.645, 1.296e-4
-1.644, 1.266e-4
-1.643, 1.235e-4
-1.642, 1.235e-4
-1.641, 1.204e-4
-1.640, 1.173e-4
-1.639, 1.142e-4
-1.638, 1.111e-4
-1.637, 1.111e-4
-1.636, 1.050e-4
-1.635, 1.050e-4
-1.634, 1.019e-4
-1.633, 1.019e-4
-1.632, 9.882e-5
-1.631, 9.573e-5
-1.630, 9.265e-5
-1.629, 8.957e-5
-1.628, 8.957e-5
-1.627, 8.648e-5
-1.626, 8.648e-5
-1.625, 8.340e-5
-1.624, 8.032e-5
-1.623, 8.032e-5
-1.622, 7.723e-5
-1.621, 7.723e-5
-1.620, 7.415e-5
-1.619, 7.415e-5
-1.618, 7.107e-5
-1.617, 6.798e-5
-1.616, 6.798e-5
-1.615, 6.798e-5
-1.614, 6.490e-5
-1.613, 6.182e-5
-1.612, 6.182e-5
-1.611, 6.182e-5
-1.610, 5.873e-5
-1.609, 5.565e-5
-1.608, 5.565e-5
-1.607, 5.257e-5
-1.606, 5.257e-5
-1.605, 5.257e-5
-1.604, 5.257e-5
-1.603, 4.949e-5
-1.602, 4.949e-5
-1.601, 4.640e-5
-1.600, 4.640e-5
-1.599, 4.640e-5
-1.598, 4.332e-5
-1.597, 4.332e-5
-1.596, 4.332e-5
-1.595, 4.024e-5
-1.594, 4.024e-5
-1.593, 3.715e-5
-1.592, 3.715e-5
-1.591, 3.715e-5
-1.590, 3.715e-5
-1.589, 3.407e-5
-1.588, 3.407e-5
-1.587, 3.407e-5
-1.586, 3.099e-5
-1.585, 3.099e-5
-1.584, 3.099e-5
-1.583, 3.099e-5
-1.582, 2.790e-5
-1.581, 2.790e-5
-1.580, 2.790e-5
-1.579, 2.790e-5
-1.578, 2.790e-5
-1.577, 2.482e-5
-1.576, 2.482e-5
-1.575, 2.482e-5
-1.574, 2.482e-5
-1.573, 2.482e-5
-1.572, 2.174e-5
-1.571, 2.174e-5
-1.570, 2.174e-5
-1.569, 2.174e-5
-1.568, 1.865e-5
-1.567, 2.174e-5
-1.566, 1.865e-5
-1.565, 1.865e-5
-1.564, 1.865e-5
-1.563, 1.557e-5
-1.562, 1.557e-5
-1.561, 1.557e-5
-1.560, 1.557e-5
-1.559, 1.557e-5
-1.558, 1.557e-5
-1.557, 1.557e-5
-1.556, 1.557e-5
-1.555, 1.249e-5
-1.554, 1.249e-5
-1.553, 1.249e-5
-1.552, 1.249e-5
-1.551, 1.249e-5
-1.550, 1.249e-5
-1.549, 1.249e-5
-1.548, 9.405e-6
-1.547, 9.405e-6
-1.546, 9.405e-6
-1.545, 9.405e-6
-1.544, 9.405e-6
-1.543, 9.405e-6
-1.542, 9.405e-6
-1.541, 9.405e-6
-1.540, 6.322e-6
-1.539, 9.405e-6
-1.538, 6.322e-6
-1.537, 6.322e-6
-1.536, 6.322e-6
-1.535, 6.322e-6
-1.534, 6.322e-6
-1.533, 6.322e-6
-1.532, 6.322e-6
-1.531, 6.322e-6
-1.530, 6.322e-6
-1.529, 3.239e-6
-1.528, 6.322e-6
-1.527, 3.239e-6
-1.526, 3.239e-6
-1.525, 3.239e-6
-1.524, 3.239e-6
-1.523, 3.239e-6
-1.522, 3.239e-6
-1.521, 3.239e-6
-1.520, 3.239e-6
-1.519, 3.239e-6
-1.518, 3.239e-6
-1.517, 3.239e-6
-1.516, 3.239e-6
-1.515, 3.239e-6
-1.514, 1.559e-7
-1.513, 1.559e-7
-1.512, 1.559e-7
-1.511, 1.559e-7
-1.510, 1.559e-7
-1.509, 1.559e-7
-1.508, 1.559e-7
-1.507, 1.559e-7
-1.506, 1.559e-7
-1.505, 1.559e-7
-1.504, 1.559e-7
-1.503, 1.559e-7
-1.502, -2.927e-6
-1.501, 1.559e-7
-1.500, 1.559e-7
-1.499, 1.559e-7
-1.498, 1.559e-7
-1.497, -2.927e-6
-1.496, -2.927e-6
-1.495, -2.927e-6
-1.494, -2.927e-6
-1.493, -2.927e-6
-1.492, -2.927e-6
-1.491, 1.559e-7
-1.490, -2.927e-6
-1.489, -2.927e-6
-1.488, -2.927e-6
-1.487, -2.927e-6
-1.486, -2.927e-6
-1.485, -2.927e-6
-1.484, -2.927e-6
-1.483, -2.927e-6
-1.482, -2.927e-6
-1.481, -2.927e-6
-1.480, -2.927e-6
-1.479, -2.927e-6
-1.478, -2.927e-6
-1.477, -2.927e-6
-1.476, -2.927e-6
-1.475, -6.010e-6
-1.474, -2.927e-6
-1.473, -6.010e-6
-1.472, -2.927e-6
-1.471, -6.010e-6
-1.470, -6.010e-6
-1.469, -2.927e-6
-1.468, -2.927e-6
-1.467, -6.010e-6
-1.466, -6.010e-6
-1.465, -6.010e-6
-1.464, -6.010e-6
-1.463, -6.010e-6
-1.462, -6.010e-6
-1.461, -6.010e-6
-1.460, -6.010e-6
-1.459, -6.010e-6
-1.458, -6.010e-6
-1.457, -6.010e-6
-1.456, -6.010e-6
-1.455, -6.010e-6
-1.454, -6.010e-6
-1.453, -2.927e-6
-1.452, -6.010e-6
-1.451, -2.927e-6
-1.450, -9.093e-6
-1.449, -6.010e-6
-1.448, -6.010e-6
-1.447, -6.010e-6
-1.446, -6.010e-6
-1.445, -6.010e-6
-1.444, -6.010e-6
-1.443, -6.010e-6
-1.442, -6.010e-6
-1.441, -6.010e-6
-1.440, -6.010e-6
-1.439, -9.093e-6
-1.438, -6.010e-6
-1.437, -6.010e-6
-1.436, -6.010e-6
-1.435, -9.093e-6
-1.434, -9.093e-6
-1.433, -6.010e-6
-1.432, -9.093e-6
-1.431, -9.093e-6
-1.430, -9.093e-6
-1.429, -9.093e-6
-1.428, -9.093e-6
-1.427, -9.093e-6
-1.426, -9.093e-6
-1.425, -9.093e-6
-1.424, -9.093e-6
-1.423, -9.093e-6
-1.422, -9.093e-6
-1.421, -9.093e-6
-1.420, -9.093e-6
-1.419, -9.093e-6
-1.418, -9.093e-6
-1.417, -9.093e-6
-1.416, -9.093e-6
-1.415, -9.093e-6
-1.414, -9.093e-6
-1.413, -9.093e-6
-1.412, -9.093e-6
-1.411, -9.093e-6
-1.410, -6.010e-6
-1.409, -9.093e-6
-1.408, -9.093e-6
-1.407, -9.093e-6
-1.406, -9.093e-6
-1.405, -9.093e-6
-1.404, -9.093e-6
-1.403, -9.093e-6
-1.402, -9.093e-6
-1.401, -9.093e-6
-1.400, -9.093e-6
-1.399, -6.010e-6
-1.398, -9.093e-6
-1.397, -9.093e-6
-1.396, -9.093e-6
-1.395, -9.093e-6
-1.394, -6.010e-6
-1.393, -9.093e-6
-1.392, -9.093e-6
-1.391, -9.093e-6
-1.390, -9.093e-6
-1.389, -9.093e-6
-1.388, -9.093e-6
-1.387, -9.093e-6
-1.386, -9.093e-6
-1.385, -9.093e-6
-1.384, -9.093e-6
-1.383, -9.093e-6
-1.382, -9.093e-6
-1.381, -9.093e-6
-1.380, -9.093e-6
-1.379, -9.093e-6
-1.378, -9.093e-6
-1.377, -9.093e-6
-1.376, -9.093e-6
-1.375, -9.093e-6
-1.374, -9.093e-6
-1.373, -9.093e-6
-1.372, -9.093e-6
-1.371, -9.093e-6
-1.370, -9.093e-6
-1.369, -9.093e-6
-1.368, -1.218e-5
-1.367, -9.093e-6
-1.366, -1.218e-5
-1.365, -9.093e-6
-1.364, -9.093e-6
-1.363, -9.093e-6
-1.362, -9.093e-6
-1.361, -9.093e-6
-1.360, -9.093e-6
-1.359, -1.218e-5
-1.358, -9.093e-6
-1.357, -1.218e-5
-1.356, -9.093e-6
-1.355, -9.093e-6
-1.354, -9.093e-6
-1.353, -9.093e-6
-1.352, -1.218e-5
-1.351, -9.093e-6
-1.350, -9.093e-6
-1.349, -9.093e-6
-1.348, -9.093e-6
-1.347, -9.093e-6
-1.346, -9.093e-6
-1.345, -1.218e-5
-1.344, -9.093e-6
-1.343, -9.093e-6
-1.342, -1.218e-5
-1.341, -9.093e-6
-1.340, -9.093e-6
-1.339, -1.218e-5
-1.338, -1.218e-5
-1.337, -1.218e-5
-1.336, -1.218e-5
-1.335, -9.093e-6
-1.334, -9.093e-6
-1.333, -9.093e-6
-1.332, -1.218e-5
-1.331, -1.218e-5
-1.330, -1.218e-5
-1.329, -9.093e-6
-1.328, -1.218e-5
-1.327, -1.218e-5
-1.326, -9.093e-6
-1.325, -1.218e-5
-1.324, -1.218e-5
-1.323, -9.093e-6
-1.322, -1.218e-5
-1.321, -1.218e-5
-1.320, -1.218e-5
-1.319, -1.218e-5
-1.318, -1.218e-5
-1.317, -1.218e-5
-1.316, -1.218e-5
-1.315, -1.218e-5
-1.314, -1.218e-5
-1.313, -1.218e-5
-1.312, -1.218e-5
-1.311, -9.093e-6
-1.310, -1.218e-5
-1.309, -1.218e-5
-1.308, -1.218e-5
-1.307, -1.218e-5
-1.306, -1.218e-5
-1.305, -1.218e-5
-1.304, -1.218e-5
-1.303, -9.093e-6
-1.302, -1.218e-5
-1.301, -1.218e-5
-1.300, -1.218e-5
-1.299, -1.218e-5
-1.298, -1.218e-5
-1.297, -1.218e-5
-1.296, -9.093e-6
-1.295, -1.218e-5
-1.294, -1.218e-5
-1.293, -1.218e-5
-1.292, -1.218e-5
-1.291, -1.218e-5
-1.290, -1.218e-5
-1.289, -1.218e-5
-1.288, -1.218e-5
-1.287, -1.218e-5
-1.286, -1.218e-5
-1.285, -9.093e-6
-1.284, -1.218e-5
-1.283, -1.218e-5
-1.282, -1.218e-5
-1.281, -1.218e-5
-1.280, -1.218e-5
-1.279, -1.218e-5
-1.278, -1.218e-5
-1.277, -1.218e-5
-1.276, -9.093e-6
-1.275, -1.218e-5
-1.274, -1.218e-5
-1.273, -1.218e-5
-1.272, -1.218e-5
-1.271, -1.218e-5
-1.270, -1.218e-5
-1.269, -1.218e-5
-1.268, -1.218e-5
-1.267, -9.093e-6
-1.266, -1.218e-5
-1.265, -9.093e-6
-1.264, -1.218e-5
-1.263, -1.218e-5
-1.262, -1.218e-5
-1.261, -1.218e-5
-1.260, -1.218e-5
-1.259, -1.218e-5
-1.258, -1.218e-5
-1.257, -1.218e-5
-1.256, -1.218e-5
-1.255, -1.526e-5
-1.254, -1.218e-5
-1.253, -1.218e-5
-1.252, -1.218e-5
-1.251, -1.218e-5
-1.250, -1.218e-5
-1.249, -1.218e-5
-1.248, -1.218e-5
-1.247, -1.218e-5
-1.246, -1.218e-5
-1.245, -1.218e-5
-1.244, -1.218e-5
-1.243, -1.218e-5
-1.242, -1.218e-5
-1.241, -1.218e-5
-1.240, -1.218e-5
-1.239, -1.218e-5
-1.238, -1.218e-5
-1.237, -1.218e-5
-1.236, -1.218e-5
-1.235, -1.218e-5
-1.234, -1.218e-5
-1.233, -1.218e-5
-1.232, -1.218e-5
-1.231, -1.218e-5
-1.230, -1.218e-5
-1.229, -1.218e-5
-1.228, -1.218e-5
-1.227, -1.218e-5
-1.226, -1.218e-5
-1.225, -1.218e-5
-1.224, -1.218e-5
-1.223, -1.218e-5
-1.222, -1.218e-5
-1.221, -1.218e-5
-1.220, -1.218e-5
-1.219, -1.218e-5
-1.218, -1.218e-5
-1.217, -1.526e-5
-1.216, -1.218e-5
-1.215, -1.218e-5
-1.214, -1.218e-5
-1.213, -1.218e-5
-1.212, -1.218e-5
-1.211, -1.218e-5
-1.210, -1.218e-5
-1.209, -1.218e-5
-1.208, -1.218e-5
-1.207, -1.218e-5
-1.206, -1.218e-5
-1.205, -1.218e-5
-1.204, -1.218e-5
-1.203, -1.218e-5
-1.202, -1.218e-5
-1.201, -1.218e-5
-1.200, -1.218e-5
-1.199, -1.218e-5
-1.198, -1.218e-5
-1.197, -1.218e-5
-1.196, -1.526e-5
-1.195, -1.526e-5
-1.194, -1.218e-5
-1.193, -1.526e-5
-1.192, -1.218e-5
-1.191, -1.218e-5
-1.190, -1.218e-5
-1.189, -1.218e-5
-1.188, -1.218e-5
-1.187, -1.218e-5
-1.186, -1.218e-5
-1.185, -1.218e-5
-1.184, -1.218e-5
-1.183, -1.218e-5
-1.182, -1.218e-5
-1.181, -1.218e-5
-1.180, -1.218e-5
-1.179, -1.218e-5
-1.178, -1.218e-5
-1.177, -1.218e-5
-1.176, -1.218e-5
-1.175, -1.218e-5
-1.174, -1.218e-5
-1.173, -1.218e-5
-1.172, -1.218e-5
-1.171, -1.218e-5
-1.170, -1.218e-5
-1.169, -1.218e-5
-1.168, -1.218e-5
-1.167, -1.218e-5
-1.166, -1.218e-5
-1.165, -1.218e-5
-1.164, -1.218e-5
-1.163, -1.526e-5
-1.162, -1.218e-5
-1.161, -1.218e-5
-1.160, -1.526e-5
-1.159, -1.526e-5
-1.158, -1.526e-5
-1.157, -1.526e-5
-1.156, -1.526e-5
-1.155, -1.526e-5
-1.154, -1.526e-5
-1.153, -1.526e-5
-1.152, -1.526e-5
-1.151, -1.526e-5
-1.150, -1.526e-5
-1.149, -1.526e-5
-1.148, -1.834e-5
-1.147, -1.526e-5
-1.146, -1.526e-5
-1.145, -1.526e-5
-1.144, -1.526e-5
-1.143, -1.526e-5
-1.142, -1.526e-5
-1.141, -1.526e-5
-1.140, -1.526e-5
-1.139, -1.526e-5
-1.138, -1.526e-5
-1.137, -1.526e-5
-1.136, -1.526e-5
-1.135, -1.834e-5
-1.134, -1.834e-5
-1.133, -1.526e-5
-1.132, -1.834e-5
-1.131, -1.526e-5
-1.130, -1.526e-5
-1.129, -1.834e-5
-1.128, -1.834e-5
-1.127, -1.834e-5
-1.126, -1.834e-5
-1.125, -1.834e-5
-1.124, -1.526e-5
-1.123, -1.526e-5
-1.122, -1.834e-5
-1.121, -1.834e-5
-1.120, -1.834e-5
-1.119, -1.834e-5
-1.118, -1.834e-5
-1.117, -1.834e-5
-1.116, -1.834e-5
-1.115, -1.834e-5
-1.114, -1.526e-5
-1.113, -1.834e-5
-1.112, -1.834e-5
-1.111, -1.834e-5
-1.110, -1.834e-5
-1.109, -1.834e-5
-1.108, -1.834e-5
-1.107, -1.834e-5
-1.106, -1.834e-5
-1.105, -1.834e-5
-1.104, -1.834e-5
-1.103, -1.834e-5
-1.102, -1.834e-5
-1.101, -1.526e-5
-1.100, -1.834e-5
-1.099, -1.834e-5
-1.098, -1.526e-5
-1.097, -1.834e-5
-1.096, -1.834e-5
-1.095, -1.526e-5
-1.094, -1.526e-5
-1.093, -1.526e-5
-1.092, -1.526e-5
-1.091, -1.526e-5
-1.090, -1.834e-5
-1.089, -1.526e-5
-1.088, -1.526e-5
-1.087, -1.526e-5
-1.086, -1.834e-5
-1.085, -1.526e-5
-1.084, -1.834e-5
-1.083, -1.834e-5
-1.082, -1.834e-5
-1.081, -1.834e-5
-1.080, -1.834e-5
-1.079, -1.834e-5
-1.078, -1.834e-5
-1.077, -1.834e-5
-1.076, -1.834e-5
-1.075, -1.834e-5
-1.074, -1.834e-5
-1.073, -1.834e-5
-1.072, -1.834e-5
-1.071, -1.834e-5
-1.070, -1.834e-5
-1.069, -1.834e-5
-1.068, -1.834e-5
-1.067, -1.834e-5
-1.066, -1.834e-5
-1.065, -1.834e-5
-1.064, -1.834e-5
-1.063, -1.834e-5
-1.062, -1.834e-5
-1.061, -2.143e-5
-1.060, -1.834e-5
-1.059, -1.834e-5
-1.058, -1.834e-5
-1.057, -1.834e-5
-1.056, -1.834e-5
-1.055, -1.834e-5
-1.054, -2.143e-5
-1.053, -1.834e-5
-1.052, -2.143e-5
-1.051, -1.834e-5
-1.050, -2.143e-5
-1.049, -1.834e-5
-1.048, -2.143e-5
-1.047, -2.143e-5
-1.046, -2.143e-5
-1.045, -2.143e-5
-1.044, -2.143e-5
-1.043, -2.143e-5
-1.042, -2.143e-5
-1.041, -2.143e-5
-1.040, -2.143e-5
-1.039, -2.143e-5
-1.038, -2.143e-5
-1.037, -2.143e-5
-1.036, -2.143e-5
-1.035, -2.143e-5
-1.034, -2.143e-5
-1.033, -2.143e-5
-1.032, -2.143e-5
-1.031, -2.143e-5
-1.030, -2.143e-5
-1.029, -2.143e-5
-1.028, -2.143e-5
-1.027, -2.143e-5
-1.026, -2.143e-5
-1.025, -2.143e-5
-1.024, -2.451e-5
-1.023, -2.143e-5
-1.022, -2.451e-5
-1.021, -2.143e-5
-1.020, -2.451e-5
-1.019, -2.143e-5
-1.018, -2.451e-5
-1.017, -2.451e-5
-1.016, -2.451e-5
-1.015, -2.451e-5
-1.014, -2.451e-5
-1.013, -2.451e-5
-1.012, -2.451e-5
-1.011, -2.451e-5
-1.010, -2.451e-5
-1.009, -2.451e-5
-1.008, -2.451e-5
-1.007, -2.451e-5
-1.006, -2.451e-5
-1.005, -2.451e-5
-1.004, -2.451e-5
-1.003, -2.451e-5
-1.002, -2.451e-5
-1.001, -2.451e-5
