Sept. 15, 2024   12:51:15
Linear Sweep Voltammetry
File: c:/users/guazh/data/20240903_batch_252_500/2024-09-03-exp360\regeneratedgce-2024-09-15t12_48_13-lsvinkoh\regeneratedgce_lsv_50mvs_efin_-1700mv.bin
Data Source:  Experiment
Instrument Model:  CHI760E
Header: LSV ran at 50 mVs with Efin at -1700mV
Note: 

Init E (V) = -0.6
Final E (V) = -1.7
Scan Rate (V/s) = 0.05
Sample Interval (V) = 0.001
Quiet Time (sec) = 2
Sensitivity (A/V) = 1e-4
Comp R (ohm) = 2.2

Results:

Channel 1:

Potential/V, Current/A

-0.600, 1.144e-6
-0.601, 1.235e-6
-0.602, 1.258e-6
-0.603, 1.271e-6
-0.604, 1.280e-6
-0.605, 1.288e-6
-0.606, 1.296e-6
-0.607, 1.301e-6
-0.608, 1.308e-6
-0.609, 1.315e-6
-0.610, 1.320e-6
-0.611, 1.325e-6
-0.612, 1.332e-6
-0.613, 1.338e-6
-0.614, 1.343e-6
-0.615, 1.347e-6
-0.616, 1.352e-6
-0.617, 1.357e-6
-0.618, 1.361e-6
-0.619, 1.366e-6
-0.620, 1.371e-6
-0.621, 1.375e-6
-0.622, 1.380e-6
-0.623, 1.383e-6
-0.624, 1.386e-6
-0.625, 1.390e-6
-0.626, 1.395e-6
-0.627, 1.400e-6
-0.628, 1.406e-6
-0.629, 1.409e-6
-0.630, 1.414e-6
-0.631, 1.417e-6
-0.632, 1.420e-6
-0.633, 1.425e-6
-0.634, 1.427e-6
-0.635, 1.431e-6
-0.636, 1.435e-6
-0.637, 1.439e-6
-0.638, 1.446e-6
-0.639, 1.448e-6
-0.640, 1.453e-6
-0.641, 1.457e-6
-0.642, 1.459e-6
-0.643, 1.463e-6
-0.644, 1.465e-6
-0.645, 1.469e-6
-0.646, 1.474e-6
-0.647, 1.479e-6
-0.648, 1.481e-6
-0.649, 1.485e-6
-0.650, 1.489e-6
-0.651, 1.492e-6
-0.652, 1.495e-6
-0.653, 1.499e-6
-0.654, 1.502e-6
-0.655, 1.506e-6
-0.656, 1.511e-6
-0.657, 1.515e-6
-0.658, 1.520e-6
-0.659, 1.522e-6
-0.660, 1.526e-6
-0.661, 1.528e-6
-0.662, 1.533e-6
-0.663, 1.537e-6
-0.664, 1.539e-6
-0.665, 1.544e-6
-0.666, 1.549e-6
-0.667, 1.551e-6
-0.668, 1.555e-6
-0.669, 1.557e-6
-0.670, 1.561e-6
-0.671, 1.563e-6
-0.672, 1.568e-6
-0.673, 1.573e-6
-0.674, 1.575e-6
-0.675, 1.580e-6
-0.676, 1.585e-6
-0.677, 1.586e-6
-0.678, 1.590e-6
-0.679, 1.591e-6
-0.680, 1.595e-6
-0.681, 1.599e-6
-0.682, 1.604e-6
-0.683, 1.608e-6
-0.684, 1.610e-6
-0.685, 1.613e-6
-0.686, 1.616e-6
-0.687, 1.618e-6
-0.688, 1.623e-6
-0.689, 1.626e-6
-0.690, 1.629e-6
-0.691, 1.633e-6
-0.692, 1.636e-6
-0.693, 1.638e-6
-0.694, 1.642e-6
-0.695, 1.645e-6
-0.696, 1.649e-6
-0.697, 1.652e-6
-0.698, 1.655e-6
-0.699, 1.659e-6
-0.700, 1.663e-6
-0.701, 1.665e-6
-0.702, 1.668e-6
-0.703, 1.671e-6
-0.704, 1.674e-6
-0.705, 1.679e-6
-0.706, 1.682e-6
-0.707, 1.686e-6
-0.708, 1.690e-6
-0.709, 1.691e-6
-0.710, 1.695e-6
-0.711, 1.696e-6
-0.712, 1.700e-6
-0.713, 1.703e-6
-0.714, 1.707e-6
-0.715, 1.710e-6
-0.716, 1.716e-6
-0.717, 1.719e-6
-0.718, 1.722e-6
-0.719, 1.723e-6
-0.720, 1.726e-6
-0.721, 1.730e-6
-0.722, 1.732e-6
-0.723, 1.738e-6
-0.724, 1.739e-6
-0.725, 1.741e-6
-0.726, 1.745e-6
-0.727, 1.748e-6
-0.728, 1.751e-6
-0.729, 1.755e-6
-0.730, 1.758e-6
-0.731, 1.763e-6
-0.732, 1.766e-6
-0.733, 1.769e-6
-0.734, 1.771e-6
-0.735, 1.772e-6
-0.736, 1.777e-6
-0.737, 1.780e-6
-0.738, 1.783e-6
-0.739, 1.786e-6
-0.740, 1.790e-6
-0.741, 1.793e-6
-0.742, 1.798e-6
-0.743, 1.800e-6
-0.744, 1.802e-6
-0.745, 1.805e-6
-0.746, 1.808e-6
-0.747, 1.811e-6
-0.748, 1.815e-6
-0.749, 1.817e-6
-0.750, 1.821e-6
-0.751, 1.826e-6
-0.752, 1.830e-6
-0.753, 1.833e-6
-0.754, 1.834e-6
-0.755, 1.837e-6
-0.756, 1.841e-6
-0.757, 1.842e-6
-0.758, 1.847e-6
-0.759, 1.850e-6
-0.760, 1.854e-6
-0.761, 1.859e-6
-0.762, 1.860e-6
-0.763, 1.865e-6
-0.764, 1.865e-6
-0.765, 1.869e-6
-0.766, 1.872e-6
-0.767, 1.874e-6
-0.768, 1.881e-6
-0.769, 1.883e-6
-0.770, 1.885e-6
-0.771, 1.890e-6
-0.772, 1.893e-6
-0.773, 1.896e-6
-0.774, 1.898e-6
-0.775, 1.900e-6
-0.776, 1.904e-6
-0.777, 1.908e-6
-0.778, 1.911e-6
-0.779, 1.914e-6
-0.780, 1.917e-6
-0.781, 1.920e-6
-0.782, 1.923e-6
-0.783, 1.926e-6
-0.784, 1.928e-6
-0.785, 1.932e-6
-0.786, 1.935e-6
-0.787, 1.939e-6
-0.788, 1.944e-6
-0.789, 1.946e-6
-0.790, 1.949e-6
-0.791, 1.951e-6
-0.792, 1.954e-6
-0.793, 1.958e-6
-0.794, 1.961e-6
-0.795, 1.964e-6
-0.796, 1.968e-6
-0.797, 1.970e-6
-0.798, 1.974e-6
-0.799, 1.976e-6
-0.800, 1.979e-6
-0.801, 1.984e-6
-0.802, 1.988e-6
-0.803, 1.991e-6
-0.804, 1.993e-6
-0.805, 1.995e-6
-0.806, 2.000e-6
-0.807, 2.002e-6
-0.808, 2.006e-6
-0.809, 2.009e-6
-0.810, 2.013e-6
-0.811, 2.015e-6
-0.812, 2.018e-6
-0.813, 2.021e-6
-0.814, 2.025e-6
-0.815, 2.028e-6
-0.816, 2.033e-6
-0.817, 2.036e-6
-0.818, 2.038e-6
-0.819, 2.045e-6
-0.820, 2.049e-6
-0.821, 2.051e-6
-0.822, 2.055e-6
-0.823, 2.060e-6
-0.824, 2.061e-6
-0.825, 2.064e-6
-0.826, 2.067e-6
-0.827, 2.070e-6
-0.828, 2.075e-6
-0.829, 2.078e-6
-0.830, 2.083e-6
-0.831, 2.085e-6
-0.832, 2.088e-6
-0.833, 2.091e-6
-0.834, 2.093e-6
-0.835, 2.096e-6
-0.836, 2.102e-6
-0.837, 2.106e-6
-0.838, 2.109e-6
-0.839, 2.111e-6
-0.840, 2.113e-6
-0.841, 2.117e-6
-0.842, 2.120e-6
-0.843, 2.125e-6
-0.844, 2.129e-6
-0.845, 2.134e-6
-0.846, 2.136e-6
-0.847, 2.138e-6
-0.848, 2.142e-6
-0.849, 2.145e-6
-0.850, 2.147e-6
-0.851, 2.151e-6
-0.852, 2.156e-6
-0.853, 2.159e-6
-0.854, 2.162e-6
-0.855, 2.163e-6
-0.856, 2.167e-6
-0.857, 2.169e-6
-0.858, 2.174e-6
-0.859, 2.179e-6
-0.860, 2.183e-6
-0.861, 2.186e-6
-0.862, 2.189e-6
-0.863, 2.193e-6
-0.864, 2.195e-6
-0.865, 2.198e-6
-0.866, 2.201e-6
-0.867, 2.204e-6
-0.868, 2.209e-6
-0.869, 2.212e-6
-0.870, 2.217e-6
-0.871, 2.221e-6
-0.872, 2.224e-6
-0.873, 2.228e-6
-0.874, 2.230e-6
-0.875, 2.234e-6
-0.876, 2.239e-6
-0.877, 2.241e-6
-0.878, 2.245e-6
-0.879, 2.248e-6
-0.880, 2.250e-6
-0.881, 2.254e-6
-0.882, 2.257e-6
-0.883, 2.261e-6
-0.884, 2.265e-6
-0.885, 2.268e-6
-0.886, 2.273e-6
-0.887, 2.278e-6
-0.888, 2.282e-6
-0.889, 2.286e-6
-0.890, 2.290e-6
-0.891, 2.293e-6
-0.892, 2.295e-6
-0.893, 2.298e-6
-0.894, 2.302e-6
-0.895, 2.305e-6
-0.896, 2.311e-6
-0.897, 2.315e-6
-0.898, 2.318e-6
-0.899, 2.321e-6
-0.900, 2.324e-6
-0.901, 2.328e-6
-0.902, 2.332e-6
-0.903, 2.338e-6
-0.904, 2.340e-6
-0.905, 2.346e-6
-0.906, 2.350e-6
-0.907, 2.354e-6
-0.908, 2.356e-6
-0.909, 2.360e-6
-0.910, 2.362e-6
-0.911, 2.366e-6
-0.912, 2.371e-6
-0.913, 2.378e-6
-0.914, 2.380e-6
-0.915, 2.384e-6
-0.916, 2.390e-6
-0.917, 2.393e-6
-0.918, 2.398e-6
-0.919, 2.404e-6
-0.920, 2.410e-6
-0.921, 2.416e-6
-0.922, 2.418e-6
-0.923, 2.420e-6
-0.924, 2.423e-6
-0.925, 2.427e-6
-0.926, 2.434e-6
-0.927, 2.436e-6
-0.928, 2.442e-6
-0.929, 2.445e-6
-0.930, 2.446e-6
-0.931, 2.450e-6
-0.932, 2.453e-6
-0.933, 2.458e-6
-0.934, 2.462e-6
-0.935, 2.467e-6
-0.936, 2.472e-6
-0.937, 2.476e-6
-0.938, 2.480e-6
-0.939, 2.483e-6
-0.940, 2.486e-6
-0.941, 2.489e-6
-0.942, 2.494e-6
-0.943, 2.499e-6
-0.944, 2.504e-6
-0.945, 2.508e-6
-0.946, 2.512e-6
-0.947, 2.516e-6
-0.948, 2.521e-6
-0.949, 2.522e-6
-0.950, 2.526e-6
-0.951, 2.532e-6
-0.952, 2.538e-6
-0.953, 2.544e-6
-0.954, 2.546e-6
-0.955, 2.552e-6
-0.956, 2.557e-6
-0.957, 2.558e-6
-0.958, 2.563e-6
-0.959, 2.567e-6
-0.960, 2.572e-6
-0.961, 2.579e-6
-0.962, 2.583e-6
-0.963, 2.587e-6
-0.964, 2.590e-6
-0.965, 2.592e-6
-0.966, 2.598e-6
-0.967, 2.601e-6
-0.968, 2.606e-6
-0.969, 2.611e-6
-0.970, 2.616e-6
-0.971, 2.621e-6
-0.972, 2.626e-6
-0.973, 2.632e-6
-0.974, 2.635e-6
-0.975, 2.638e-6
-0.976, 2.642e-6
-0.977, 2.647e-6
-0.978, 2.651e-6
-0.979, 2.656e-6
-0.980, 2.661e-6
-0.981, 2.668e-6
-0.982, 2.671e-6
-0.983, 2.676e-6
-0.984, 2.680e-6
-0.985, 2.683e-6
-0.986, 2.687e-6
-0.987, 2.691e-6
-0.988, 2.697e-6
-0.989, 2.700e-6
-0.990, 2.708e-6
-0.991, 2.713e-6
-0.992, 2.720e-6
-0.993, 2.723e-6
-0.994, 2.725e-6
-0.995, 2.729e-6
-0.996, 2.735e-6
-0.997, 2.738e-6
-0.998, 2.744e-6
-0.999, 2.749e-6
-1.000, 2.753e-6
-1.001, 2.759e-6
-1.002, 2.764e-6
-1.003, 2.769e-6
-1.004, 2.772e-6
-1.005, 2.776e-6
-1.006, 2.783e-6
-1.007, 2.787e-6
-1.008, 2.792e-6
-1.009, 2.797e-6
-1.010, 2.801e-6
-1.011, 2.808e-6
-1.012, 2.811e-6
-1.013, 2.815e-6
-1.014, 2.821e-6
-1.015, 2.825e-6
-1.016, 2.829e-6
-1.017, 2.835e-6
-1.018, 2.839e-6
-1.019, 2.843e-6
-1.020, 2.847e-6
-1.021, 2.850e-6
-1.022, 2.856e-6
-1.023, 2.861e-6
-1.024, 2.866e-6
-1.025, 2.871e-6
-1.026, 2.875e-6
-1.027, 2.880e-6
-1.028, 2.884e-6
-1.029, 2.888e-6
-1.030, 2.892e-6
-1.031, 2.897e-6
-1.032, 2.901e-6
-1.033, 2.905e-6
-1.034, 2.909e-6
-1.035, 2.914e-6
-1.036, 2.919e-6
-1.037, 2.924e-6
-1.038, 2.928e-6
-1.039, 2.931e-6
-1.040, 2.934e-6
-1.041, 2.940e-6
-1.042, 2.944e-6
-1.043, 2.950e-6
-1.044, 2.955e-6
-1.045, 2.959e-6
-1.046, 2.964e-6
-1.047, 2.965e-6
-1.048, 2.969e-6
-1.049, 2.974e-6
-1.050, 2.978e-6
-1.051, 2.984e-6
-1.052, 2.987e-6
-1.053, 2.992e-6
-1.054, 2.996e-6
-1.055, 2.998e-6
-1.056, 3.003e-6
-1.057, 3.008e-6
-1.058, 3.012e-6
-1.059, 3.017e-6
-1.060, 3.020e-6
-1.061, 3.025e-6
-1.062, 3.030e-6
-1.063, 3.035e-6
-1.064, 3.037e-6
-1.065, 3.043e-6
-1.066, 3.046e-6
-1.067, 3.052e-6
-1.068, 3.057e-6
-1.069, 3.060e-6
-1.070, 3.065e-6
-1.071, 3.069e-6
-1.072, 3.071e-6
-1.073, 3.079e-6
-1.074, 3.081e-6
-1.075, 3.088e-6
-1.076, 3.093e-6
-1.077, 3.096e-6
-1.078, 3.102e-6
-1.079, 3.105e-6
-1.080, 3.108e-6
-1.081, 3.114e-6
-1.082, 3.116e-6
-1.083, 3.121e-6
-1.084, 3.128e-6
-1.085, 3.132e-6
-1.086, 3.139e-6
-1.087, 3.142e-6
-1.088, 3.146e-6
-1.089, 3.149e-6
-1.090, 3.152e-6
-1.091, 3.157e-6
-1.092, 3.162e-6
-1.093, 3.170e-6
-1.094, 3.175e-6
-1.095, 3.175e-6
-1.096, 3.180e-6
-1.097, 3.185e-6
-1.098, 3.187e-6
-1.099, 3.191e-6
-1.100, 3.198e-6
-1.101, 3.205e-6
-1.102, 3.210e-6
-1.103, 3.214e-6
-1.104, 3.218e-6
-1.105, 3.222e-6
-1.106, 3.224e-6
-1.107, 3.228e-6
-1.108, 3.233e-6
-1.109, 3.236e-6
-1.110, 3.241e-6
-1.111, 3.246e-6
-1.112, 3.250e-6
-1.113, 3.254e-6
-1.114, 3.258e-6
-1.115, 3.262e-6
-1.116, 3.268e-6
-1.117, 3.272e-6
-1.118, 3.277e-6
-1.119, 3.279e-6
-1.120, 3.284e-6
-1.121, 3.290e-6
-1.122, 3.293e-6
-1.123, 3.299e-6
-1.124, 3.304e-6
-1.125, 3.306e-6
-1.126, 3.312e-6
-1.127, 3.316e-6
-1.128, 3.321e-6
-1.129, 3.324e-6
-1.130, 3.327e-6
-1.131, 3.334e-6
-1.132, 3.339e-6
-1.133, 3.343e-6
-1.134, 3.348e-6
-1.135, 3.351e-6
-1.136, 3.356e-6
-1.137, 3.360e-6
-1.138, 3.364e-6
-1.139, 3.370e-6
-1.140, 3.377e-6
-1.141, 3.381e-6
-1.142, 3.386e-6
-1.143, 3.391e-6
-1.144, 3.394e-6
-1.145, 3.397e-6
-1.146, 3.400e-6
-1.147, 3.405e-6
-1.148, 3.411e-6
-1.149, 3.416e-6
-1.150, 3.423e-6
-1.151, 3.426e-6
-1.152, 3.431e-6
-1.153, 3.435e-6
-1.154, 3.437e-6
-1.155, 3.441e-6
-1.156, 3.446e-6
-1.157, 3.450e-6
-1.158, 3.456e-6
-1.159, 3.460e-6
-1.160, 3.463e-6
-1.161, 3.469e-6
-1.162, 3.471e-6
-1.163, 3.477e-6
-1.164, 3.481e-6
-1.165, 3.488e-6
-1.166, 3.494e-6
-1.167, 3.495e-6
-1.168, 3.500e-6
-1.169, 3.504e-6
-1.170, 3.506e-6
-1.171, 3.512e-6
-1.172, 3.516e-6
-1.173, 3.522e-6
-1.174, 3.529e-6
-1.175, 3.531e-6
-1.176, 3.536e-6
-1.177, 3.539e-6
-1.178, 3.544e-6
-1.179, 3.546e-6
-1.180, 3.549e-6
-1.181, 3.554e-6
-1.182, 3.561e-6
-1.183, 3.566e-6
-1.184, 3.569e-6
-1.185, 3.574e-6
-1.186, 3.577e-6
-1.187, 3.581e-6
-1.188, 3.584e-6
-1.189, 3.587e-6
-1.190, 3.592e-6
-1.191, 3.597e-6
-1.192, 3.602e-6
-1.193, 3.609e-6
-1.194, 3.611e-6
-1.195, 3.617e-6
-1.196, 3.620e-6
-1.197, 3.623e-6
-1.198, 3.627e-6
-1.199, 3.629e-6
-1.200, 3.635e-6
-1.201, 3.642e-6
-1.202, 3.646e-6
-1.203, 3.651e-6
-1.204, 3.656e-6
-1.205, 3.656e-6
-1.206, 3.660e-6
-1.207, 3.663e-6
-1.208, 3.668e-6
-1.209, 3.674e-6
-1.210, 3.678e-6
-1.211, 3.685e-6
-1.212, 3.688e-6
-1.213, 3.693e-6
-1.214, 3.697e-6
-1.215, 3.700e-6
-1.216, 3.705e-6
-1.217, 3.708e-6
-1.218, 3.709e-6
-1.219, 3.713e-6
-1.220, 3.718e-6
-1.221, 3.723e-6
-1.222, 3.729e-6
-1.223, 3.734e-6
-1.224, 3.740e-6
-1.225, 3.744e-6
-1.226, 3.748e-6
-1.227, 3.753e-6
-1.228, 3.758e-6
-1.229, 3.766e-6
-1.230, 3.765e-6
-1.231, 3.768e-6
-1.232, 3.772e-6
-1.233, 3.782e-6
-1.234, 3.787e-6
-1.235, 3.791e-6
-1.236, 3.793e-6
-1.237, 3.792e-6
-1.238, 3.796e-6
-1.239, 3.798e-6
-1.240, 3.804e-6
-1.241, 3.812e-6
-1.242, 3.816e-6
-1.243, 3.820e-6
-1.244, 3.822e-6
-1.245, 3.824e-6
-1.246, 3.829e-6
-1.247, 3.831e-6
-1.248, 3.837e-6
-1.249, 3.840e-6
-1.250, 3.845e-6
-1.251, 3.851e-6
-1.252, 3.855e-6
-1.253, 3.859e-6
-1.254, 3.861e-6
-1.255, 3.864e-6
-1.256, 3.868e-6
-1.257, 3.873e-6
-1.258, 3.876e-6
-1.259, 3.882e-6
-1.260, 3.888e-6
-1.261, 3.890e-6
-1.262, 3.893e-6
-1.263, 3.895e-6
-1.264, 3.897e-6
-1.265, 3.901e-6
-1.266, 3.906e-6
-1.267, 3.912e-6
-1.268, 3.916e-6
-1.269, 3.917e-6
-1.270, 3.922e-6
-1.271, 3.926e-6
-1.272, 3.929e-6
-1.273, 3.935e-6
-1.274, 3.935e-6
-1.275, 3.939e-6
-1.276, 3.944e-6
-1.277, 3.947e-6
-1.278, 3.953e-6
-1.279, 3.956e-6
-1.280, 3.962e-6
-1.281, 3.966e-6
-1.282, 3.966e-6
-1.283, 3.972e-6
-1.284, 3.975e-6
-1.285, 3.978e-6
-1.286, 3.983e-6
-1.287, 3.987e-6
-1.288, 3.990e-6
-1.289, 3.994e-6
-1.290, 3.994e-6
-1.291, 4.000e-6
-1.292, 4.003e-6
-1.293, 4.008e-6
-1.294, 4.014e-6
-1.295, 4.017e-6
-1.296, 4.018e-6
-1.297, 4.023e-6
-1.298, 4.025e-6
-1.299, 4.029e-6
-1.300, 4.030e-6
-1.301, 4.035e-6
-1.302, 4.039e-6
-1.303, 4.043e-6
-1.304, 4.047e-6
-1.305, 4.054e-6
-1.306, 4.061e-6
-1.307, 4.067e-6
-1.308, 4.071e-6
-1.309, 4.071e-6
-1.310, 4.071e-6
-1.311, 4.072e-6
-1.312, 4.074e-6
-1.313, 4.079e-6
-1.314, 4.083e-6
-1.315, 4.091e-6
-1.316, 4.098e-6
-1.317, 4.101e-6
-1.318, 4.106e-6
-1.319, 4.106e-6
-1.320, 4.106e-6
-1.321, 4.110e-6
-1.322, 4.110e-6
-1.323, 4.116e-6
-1.324, 4.123e-6
-1.325, 4.129e-6
-1.326, 4.136e-6
-1.327, 4.136e-6
-1.328, 4.138e-6
-1.329, 4.138e-6
-1.330, 4.138e-6
-1.331, 4.144e-6
-1.332, 4.149e-6
-1.333, 4.153e-6
-1.334, 4.157e-6
-1.335, 4.161e-6
-1.336, 4.165e-6
-1.337, 4.165e-6
-1.338, 4.166e-6
-1.339, 4.169e-6
-1.340, 4.172e-6
-1.341, 4.175e-6
-1.342, 4.181e-6
-1.343, 4.185e-6
-1.344, 4.191e-6
-1.345, 4.194e-6
-1.346, 4.196e-6
-1.347, 4.198e-6
-1.348, 4.201e-6
-1.349, 4.201e-6
-1.350, 4.205e-6
-1.351, 4.208e-6
-1.352, 4.215e-6
-1.353, 4.221e-6
-1.354, 4.224e-6
-1.355, 4.227e-6
-1.356, 4.230e-6
-1.357, 4.231e-6
-1.358, 4.233e-6
-1.359, 4.236e-6
-1.360, 4.238e-6
-1.361, 4.245e-6
-1.362, 4.249e-6
-1.363, 4.257e-6
-1.364, 4.260e-6
-1.365, 4.262e-6
-1.366, 4.266e-6
-1.367, 4.266e-6
-1.368, 4.269e-6
-1.369, 4.271e-6
-1.370, 4.273e-6
-1.371, 4.280e-6
-1.372, 4.284e-6
-1.373, 4.286e-6
-1.374, 4.289e-6
-1.375, 4.289e-6
-1.376, 4.294e-6
-1.377, 4.298e-6
-1.378, 4.300e-6
-1.379, 4.304e-6
-1.380, 4.310e-6
-1.381, 4.312e-6
-1.382, 4.321e-6
-1.383, 4.329e-6
-1.384, 4.331e-6
-1.385, 4.337e-6
-1.386, 4.338e-6
-1.387, 4.341e-6
-1.388, 4.342e-6
-1.389, 4.343e-6
-1.390, 4.346e-6
-1.391, 4.351e-6
-1.392, 4.356e-6
-1.393, 4.362e-6
-1.394, 4.364e-6
-1.395, 4.367e-6
-1.396, 4.372e-6
-1.397, 4.377e-6
-1.398, 4.384e-6
-1.399, 4.385e-6
-1.400, 4.387e-6
-1.401, 4.388e-6
-1.402, 4.389e-6
-1.403, 4.394e-6
-1.404, 4.399e-6
-1.405, 4.404e-6
-1.406, 4.408e-6
-1.407, 4.410e-6
-1.408, 4.413e-6
-1.409, 4.415e-6
-1.410, 4.416e-6
-1.411, 4.421e-6
-1.412, 4.424e-6
-1.413, 4.427e-6
-1.414, 4.434e-6
-1.415, 4.434e-6
-1.416, 4.439e-6
-1.417, 4.444e-6
-1.418, 4.445e-6
-1.419, 4.449e-6
-1.420, 4.452e-6
-1.421, 4.458e-6
-1.422, 4.462e-6
-1.423, 4.468e-6
-1.424, 4.472e-6
-1.425, 4.473e-6
-1.426, 4.474e-6
-1.427, 4.478e-6
-1.428, 4.484e-6
-1.429, 4.487e-6
-1.430, 4.491e-6
-1.431, 4.493e-6
-1.432, 4.496e-6
-1.433, 4.500e-6
-1.434, 4.505e-6
-1.435, 4.508e-6
-1.436, 4.512e-6
-1.437, 4.516e-6
-1.438, 4.521e-6
-1.439, 4.522e-6
-1.440, 4.525e-6
-1.441, 4.531e-6
-1.442, 4.533e-6
-1.443, 4.540e-6
-1.444, 4.542e-6
-1.445, 4.542e-6
-1.446, 4.548e-6
-1.447, 4.549e-6
-1.448, 4.553e-6
-1.449, 4.559e-6
-1.450, 4.562e-6
-1.451, 4.565e-6
-1.452, 4.569e-6
-1.453, 4.572e-6
-1.454, 4.574e-6
-1.455, 4.575e-6
-1.456, 4.580e-6
-1.457, 4.584e-6
-1.458, 4.586e-6
-1.459, 4.590e-6
-1.460, 4.594e-6
-1.461, 4.597e-6
-1.462, 4.602e-6
-1.463, 4.607e-6
-1.464, 4.611e-6
-1.465, 4.613e-6
-1.466, 4.614e-6
-1.467, 4.618e-6
-1.468, 4.621e-6
-1.469, 4.623e-6
-1.470, 4.630e-6
-1.471, 4.636e-6
-1.472, 4.641e-6
-1.473, 4.643e-6
-1.474, 4.646e-6
-1.475, 4.648e-6
-1.476, 4.652e-6
-1.477, 4.654e-6
-1.478, 4.660e-6
-1.479, 4.664e-6
-1.480, 4.668e-6
-1.481, 4.673e-6
-1.482, 4.672e-6
-1.483, 4.676e-6
-1.484, 4.679e-6
-1.485, 4.687e-6
-1.486, 4.693e-6
-1.487, 4.698e-6
-1.488, 4.702e-6
-1.489, 4.703e-6
-1.490, 4.702e-6
-1.491, 4.707e-6
-1.492, 4.710e-6
-1.493, 4.713e-6
-1.494, 4.721e-6
-1.495, 4.725e-6
-1.496, 4.731e-6
-1.497, 4.736e-6
-1.498, 4.735e-6
-1.499, 4.738e-6
-1.500, 4.739e-6
-1.501, 4.743e-6
-1.502, 4.749e-6
-1.503, 4.755e-6
-1.504, 4.761e-6
-1.505, 4.768e-6
-1.506, 4.771e-6
-1.507, 4.775e-6
-1.508, 4.778e-6
-1.509, 4.779e-6
-1.510, 4.783e-6
-1.511, 4.789e-6
-1.512, 4.796e-6
-1.513, 4.803e-6
-1.514, 4.804e-6
-1.515, 4.808e-6
-1.516, 4.812e-6
-1.517, 4.815e-6
-1.518, 4.823e-6
-1.519, 4.828e-6
-1.520, 4.830e-6
-1.521, 4.836e-6
-1.522, 4.835e-6
-1.523, 4.843e-6
-1.524, 4.849e-6
-1.525, 4.851e-6
-1.526, 4.857e-6
-1.527, 4.860e-6
-1.528, 4.866e-6
-1.529, 4.871e-6
-1.530, 4.873e-6
-1.531, 4.882e-6
-1.532, 4.887e-6
-1.533, 4.889e-6
-1.534, 4.895e-6
-1.535, 4.897e-6
-1.536, 4.903e-6
-1.537, 4.908e-6
-1.538, 4.912e-6
-1.539, 4.915e-6
-1.540, 4.920e-6
-1.541, 4.929e-6
-1.542, 4.936e-6
-1.543, 4.944e-6
-1.544, 4.950e-6
-1.545, 4.955e-6
-1.546, 4.959e-6
-1.547, 4.966e-6
-1.548, 4.970e-6
-1.549, 4.973e-6
-1.550, 4.978e-6
-1.551, 4.985e-6
-1.552, 4.991e-6
-1.553, 4.998e-6
-1.554, 5.005e-6
-1.555, 5.011e-6
-1.556, 5.018e-6
-1.557, 5.021e-6
-1.558, 5.028e-6
-1.559, 5.034e-6
-1.560, 5.039e-6
-1.561, 5.047e-6
-1.562, 5.051e-6
-1.563, 5.061e-6
-1.564, 5.069e-6
-1.565, 5.074e-6
-1.566, 5.083e-6
-1.567, 5.085e-6
-1.568, 5.092e-6
-1.569, 5.100e-6
-1.570, 5.106e-6
-1.571, 5.118e-6
-1.572, 5.122e-6
-1.573, 5.125e-6
-1.574, 5.135e-6
-1.575, 5.136e-6
-1.576, 5.144e-6
-1.577, 5.157e-6
-1.578, 5.167e-6
-1.579, 5.179e-6
-1.580, 5.186e-6
-1.581, 5.192e-6
-1.582, 5.197e-6
-1.583, 5.201e-6
-1.584, 5.209e-6
-1.585, 5.220e-6
-1.586, 5.229e-6
-1.587, 5.241e-6
-1.588, 5.253e-6
-1.589, 5.253e-6
-1.590, 5.261e-6
-1.591, 5.268e-6
-1.592, 5.276e-6
-1.593, 5.290e-6
-1.594, 5.296e-6
-1.595, 5.307e-6
-1.596, 5.318e-6
-1.597, 5.325e-6
-1.598, 5.337e-6
-1.599, 5.345e-6
-1.600, 5.353e-6
-1.601, 5.363e-6
-1.602, 5.372e-6
-1.603, 5.385e-6
-1.604, 5.392e-6
-1.605, 5.401e-6
-1.606, 5.413e-6
-1.607, 5.424e-6
-1.608, 5.435e-6
-1.609, 5.448e-6
-1.610, 5.453e-6
-1.611, 5.466e-6
-1.612, 5.481e-6
-1.613, 5.493e-6
-1.614, 5.505e-6
-1.615, 5.513e-6
-1.616, 5.527e-6
-1.617, 5.541e-6
-1.618, 5.555e-6
-1.619, 5.569e-6
-1.620, 5.582e-6
-1.621, 5.591e-6
-1.622, 5.604e-6
-1.623, 5.617e-6
-1.624, 5.631e-6
-1.625, 5.644e-6
-1.626, 5.655e-6
-1.627, 5.668e-6
-1.628, 5.685e-6
-1.629, 5.701e-6
-1.630, 5.719e-6
-1.631, 5.738e-6
-1.632, 5.752e-6
-1.633, 5.769e-6
-1.634, 5.778e-6
-1.635, 5.791e-6
-1.636, 5.806e-6
-1.637, 5.823e-6
-1.638, 5.847e-6
-1.639, 5.874e-6
-1.640, 5.886e-6
-1.641, 5.903e-6
-1.642, 5.914e-6
-1.643, 5.930e-6
-1.644, 5.943e-6
-1.645, 5.958e-6
-1.646, 5.979e-6
-1.647, 5.998e-6
-1.648, 6.021e-6
-1.649, 6.043e-6
-1.650, 6.057e-6
-1.651, 6.079e-6
-1.652, 6.102e-6
-1.653, 6.120e-6
-1.654, 6.142e-6
-1.655, 6.157e-6
-1.656, 6.179e-6
-1.657, 6.202e-6
-1.658, 6.222e-6
-1.659, 6.248e-6
-1.660, 6.270e-6
-1.661, 6.291e-6
-1.662, 6.316e-6
-1.663, 6.343e-6
-1.664, 6.369e-6
-1.665, 6.394e-6
-1.666, 6.415e-6
-1.667, 6.441e-6
-1.668, 6.465e-6
-1.669, 6.491e-6
-1.670, 6.521e-6
-1.671, 6.551e-6
-1.672, 6.580e-6
-1.673, 6.613e-6
-1.674, 6.643e-6
-1.675, 6.675e-6
-1.676, 6.706e-6
-1.677, 6.734e-6
-1.678, 6.764e-6
-1.679, 6.794e-6
-1.680, 6.825e-6
-1.681, 6.861e-6
-1.682, 6.897e-6
-1.683, 6.940e-6
-1.684, 6.981e-6
-1.685, 7.011e-6
-1.686, 7.049e-6
-1.687, 7.083e-6
-1.688, 7.121e-6
-1.689, 7.157e-6
-1.690, 7.199e-6
-1.691, 7.243e-6
-1.692, 7.286e-6
-1.693, 7.330e-6
-1.694, 7.376e-6
-1.695, 7.416e-6
-1.696, 7.460e-6
-1.697, 7.507e-6
-1.698, 7.550e-6
-1.699, 7.600e-6
