Potential V vs RHE, Current mA cm-2
0.013299999999999867,-3.927238568425342
0.012299999999999978,-5.977155241929781
0.011299999999999866,-7.591340835075788
0.010299999999999976,-8.85609273715513
0.009299999999999864,-9.946835149351072
0.008299999999999974,-10.819712021367803
0.007299999999999862,-11.604876792792895
0.006299999999999972,-12.214617363034726
0.00529999999999986,-12.781916594280606
0.0042999999999999705,-13.30535977523067
0.0032999999999998586,-13.741090855589102
0.0022999999999999687,-14.175407224647667
0.0012999999999998568,-14.57152638860988
0.00029999999999996696,-14.967645552572087
-0.000700000000000145,-15.307176264539699
-0.0017000000000000348,-15.618412750510005
-0.0027000000000001467,-15.972090575476265
-0.0037000000000000366,-16.311621287443874
-0.0047000000000001485,-16.580416434418233
-0.005700000000000038,-16.919947146385837
-0.00670000000000015,-17.103859615368293
-0.00770000000000004,-17.358507649344002
-0.008700000000000152,-17.584861457322408
-0.009700000000000042,-17.75462681330621
-0.010700000000000154,-17.924392169290012
-0.011700000000000044,-18.15074597726842
-0.012700000000000156,-18.27806999425627
-0.013700000000000045,-18.49027668923603
-0.014700000000000157,-18.674189158218486
-0.015700000000000047,-18.843954514202288
-0.01670000000000016,-19.01371987018609
-0.01770000000000005,-19.2400736781645
-0.01870000000000016,-19.409839034148305
-0.01970000000000005,-19.579604390132108
-0.020700000000000163,-19.763516859114564
-0.021700000000000053,-19.890840876102416
-0.022700000000000164,-20.06060623208622
-0.023700000000000054,-20.159636023076775
-0.024700000000000166,-20.286960040064624
-0.025700000000000056,-20.371842718056527
-0.026700000000000168,-20.456725396048434
-0.027700000000000058,-20.541608074040333
-0.02870000000000017,-20.683079204026836
-0.02970000000000006,-20.810403221014692
-0.03070000000000017,-20.89528589900659
-0.03170000000000006,-21.022609915994444
-0.03270000000000017,-21.2065223849769
-0.03370000000000006,-21.333846401964752
-0.034700000000000175,-21.461170418952605
-0.035700000000000065,-21.58849443594046
-0.03670000000000018,-21.67337711393236
-0.03770000000000007,-21.814848243918867
-0.03870000000000018,-21.899730921910766
-0.03970000000000007,-21.94217226090672
-0.04070000000000018,-22.027054938898623
-0.04170000000000007,-22.111937616890522
-0.04270000000000018,-22.15437895588647
-0.04370000000000007,-22.253408746877028
-0.044700000000000184,-22.33829142486893
-0.045700000000000074,-22.42317410286083
-0.046700000000000186,-22.508056780852733
-0.047700000000000076,-22.63538079784059
-0.04870000000000019,-22.776851927827092
-0.04970000000000008,-22.904175944814945
-0.05070000000000019,-23.031499961802798
-0.05170000000000008,-23.073941300798747
-0.05270000000000019,-23.2012653177866
-0.05370000000000008,-23.24370665678255
-0.05470000000000019,-23.342736447773106
-0.05570000000000008,-23.385177786769056
-0.056700000000000195,-23.47006046476096
-0.057700000000000085,-23.51250180375691
-0.058700000000000196,-23.597384481748815
-0.059700000000000086,-23.682267159740714
-0.0607000000000002,-23.767149837732617
-0.06170000000000009,-23.908620967719123
-0.0627000000000002,-24.035944984706973
-0.06370000000000009,-24.16326900169483
-0.0647000000000002,-24.24815167968673
-0.06570000000000009,-24.389622809673234
-0.0667000000000002,-24.474505487665134
-0.0677000000000001,-24.601829504652986
-0.0687000000000002,-24.64427084364894
-0.0697000000000001,-24.729153521640843
-0.07070000000000021,-24.771594860636792
-0.0717000000000001,-24.870624651627345
-0.07270000000000021,-24.9130659906233
-0.0737000000000001,-24.997948668615198
-0.07470000000000021,-25.0828313466071
-0.0757000000000001,-25.210155363594954
-0.07670000000000021,-25.295038041586857
-0.0777000000000001,-25.43650917157336
-0.07870000000000021,-25.60627452755716
-0.0797000000000001,-25.691157205549064
-0.08070000000000022,-25.86092256153287
-0.0817000000000001,-26.002393691519377
-0.08270000000000022,-26.087276369511276
-0.08370000000000011,-26.21460038649913
-0.08470000000000022,-26.257041725495082
-0.08570000000000011,-26.38436574248293
-0.08670000000000022,-26.440954194477534
-0.08770000000000011,-26.568278211465387
-0.08870000000000022,-26.65316088945729
-0.08970000000000011,-26.780484906445146
-0.09070000000000022,-26.907808923433
-0.09170000000000011,-27.091721392415455
-0.09270000000000023,-27.219045409403304
-0.09370000000000012,-27.38881076538711
-0.09470000000000023,-27.530281895373616
-0.09570000000000012,-27.700047251357418
-0.09670000000000023,-27.827371268345274
-0.09770000000000012,-28.011283737327723
-0.09870000000000023,-28.09616641531963
-0.09970000000000012,-28.22349043230748
-0.10070000000000023,-28.350814449295335
-0.10170000000000012,-28.478138466283188
-0.10270000000000024,-28.619609596269694
-0.10370000000000013,-28.746933613257543
-0.10470000000000024,-28.8742576302454
-0.10570000000000013,-29.001581647233255
-0.10670000000000024,-29.22793545521166
-0.10770000000000013,-29.39770081119546
-0.10870000000000024,-29.62405461917387
-0.10970000000000013,-29.793819975157668
-0.11070000000000024,-29.96358533114148
-0.11170000000000013,-30.189939139119886
-0.11270000000000002,-30.359704495103685
-0.11370000000000013,-30.529469851087494
-0.11470000000000002,-30.670940981073993
-0.11570000000000014,-30.8407063370578
-0.11670000000000003,-30.968030354045652
-0.11770000000000014,-31.095354371033505
-0.11870000000000003,-31.321708179011907
-0.11970000000000014,-31.49147353499572
-0.12070000000000003,-31.717827342974125
-0.12170000000000014,-31.887592698957924
-0.12270000000000003,-32.14224073293363
-0.12370000000000014,-32.41103587990799
-0.12470000000000003,-32.58080123589179
-0.12570000000000014,-32.84959638286615
-0.12670000000000003,-33.10424441684186
-0.12770000000000015,-33.330598224820264
-0.12870000000000004,-33.50036358080407
-0.12970000000000015,-33.670128936787876
-0.13070000000000004,-33.89648274476628
-0.13170000000000015,-34.15113077874198
-0.13270000000000004,-34.33504324772444
-0.13370000000000015,-34.5472499427042
-0.13470000000000004,-34.8018979766799
-0.13570000000000015,-35.02825178465831
-0.13670000000000004,-35.282899818634014
-0.13770000000000016,-35.55169496560837
-0.13870000000000005,-35.848784338580025
-0.13970000000000016,-36.16002082455034
-0.14070000000000005,-36.4288159715247
-0.14170000000000016,-36.725905344496354
-0.14270000000000005,-36.99470049147071
-0.14370000000000016,-37.206907186450465
-0.14470000000000005,-37.41911388143023
-0.14570000000000016,-37.73035036740053
-0.14670000000000005,-37.94255706238028
-0.14770000000000016,-38.211352209354644
-0.14870000000000005,-38.46600024333035
-0.14970000000000017,-38.777236729300654
-0.15070000000000006,-39.08847321527096
-0.15170000000000017,-39.34312124924667
-0.15270000000000006,-39.654357735216976
-0.15370000000000017,-39.99388844718459
-0.15470000000000006,-40.30512493315489
-0.15570000000000017,-40.65880275812115
-0.15670000000000006,-40.95589213109281
-0.15770000000000017,-41.30956995605907
-0.15870000000000006,-41.56421799003478
-0.15970000000000018,-41.83301313700913
-0.16070000000000007,-42.186690961975394
-0.16170000000000018,-42.483780334947056
-0.16270000000000007,-42.752575481921404
-0.16370000000000018,-43.04966485489307
-0.16470000000000007,-43.40334267985933
-0.16570000000000018,-43.75702050482558
-0.16670000000000007,-44.096551216793195
-0.16770000000000018,-44.45022904175945
-0.16870000000000007,-44.80390686672572
-0.16970000000000018,-45.18587891768927
-0.17070000000000007,-45.53955674265553
-0.17170000000000019,-45.93567590661774
-0.17270000000000008,-46.27520661858535
-0.1737000000000002,-46.628884443551605
-0.17470000000000008,-46.94012092952192
-0.1757000000000002,-47.27965164148953
-0.17670000000000008,-47.633329466455784
-0.1777000000000002,-47.93041883942744
-0.17870000000000008,-48.2840966643937
-0.1797000000000002,-48.63777448935996
-0.18070000000000008,-48.97730520132757
-0.1817000000000002,-49.373424365289786
-0.18270000000000008,-49.76954352925199
-0.1837000000000002,-50.1656626932142
-0.1847000000000001,-50.547634744177756
-0.1857000000000002,-50.98619524713592
-0.1867000000000001,-51.33987307210218
-0.1877000000000002,-51.73599223606439
-0.1887000000000001,-52.075522948032
-0.1897000000000002,-52.42920077299826
-0.1907000000000001,-52.82531993696047
-0.1917000000000001,-53.16485064892808
-0.19269999999999998,-53.518528473894335
-0.1937000000000001,-53.91464763785655
-0.19469999999999998,-54.26832546282281
-0.1957000000000001,-54.65029751378637
-0.19669999999999999,-55.003975338752625
-0.1977000000000001,-55.442535841710786
-0.1987,-55.838655005673
-0.1997000000000001,-56.22062705663656
-0.2007,-56.65918755959472
-0.2017000000000001,-57.05530672355693
-0.2027,-57.45142588751914
-0.2037000000000001,-57.79095659948675
-0.2047,-58.14463442445301
-0.2057000000000001,-58.54075358841522
-0.2067,-58.880284300382826
-0.2077000000000001,-59.23396212534908
-0.2087,-59.6300812893113
-0.2097000000000001,-60.02620045327351
-0.2107,-60.36573116524111
-0.2117000000000001,-60.80429166819927
-0.2127,-61.15796949316553
-0.2137000000000001,-61.5965299961237
-0.2147,-61.97850204708726
-0.2157000000000001,-62.459503889041365
-0.2167,-62.81318171400764
-0.21770000000000012,-63.20930087796983
-0.2187,-63.54883158993744
-0.21970000000000012,-63.902509414903705
-0.2207,-64.29862857886593
-0.22170000000000012,-64.59571795183757
-0.2227,-64.94939577680383
-0.22370000000000012,-65.3030736017701
-0.2247,-65.68504565273366
-0.22570000000000012,-66.08116481669586
-0.2267,-66.43484264166212
-0.22770000000000012,-66.81681469262568
-0.22870000000000001,-67.21293385658788
-0.22970000000000013,-67.6090530205501
-0.23070000000000002,-68.0051721845123
-0.23170000000000013,-68.38714423547587
-0.23270000000000002,-68.74082206044213
-0.23370000000000013,-69.0944998854084
-0.23470000000000002,-69.39158925838004
-0.23570000000000013,-69.74526708334632
-0.23670000000000002,-70.09894490831257
-0.2376999999999999,-70.39603428128423
-0.23870000000000002,-70.74971210625048
-0.2396999999999999,-71.10338993121674
-0.24070000000000003,-71.44292064318435
-0.24169999999999991,-71.83903980714656
-0.24270000000000003,-72.23515897110877
-0.24369999999999992,-72.57468968307639
-0.24470000000000003,-72.97080884703858
-0.24569999999999992,-73.32448667200485
-0.24670000000000003,-73.6781644969711
-0.24769999999999992,-74.0176952089387
-0.24870000000000003,-74.32893169490903
-0.24969999999999992,-74.62602106788069
-0.25070000000000003,-74.93725755385098
-0.2516999999999999,-75.29093537881725
-0.25270000000000004,-75.54558341279296
-0.2536999999999999,-75.85681989876326
-0.25470000000000004,-76.15390927173492
-0.2556999999999999,-76.42270441870929
-0.25670000000000004,-76.7622351306769
-0.25769999999999993,-77.0734716166472
-0.25870000000000004,-77.38470810261751
-0.25969999999999993,-77.7242388145851
-0.26070000000000004,-77.99303396155948
-0.26169999999999993,-78.29012333453113
-0.26270000000000004,-78.64380115949739
-0.26369999999999993,-78.85600785447714
-0.26470000000000005,-79.1248030014515
-0.26569999999999994,-79.33700969643127
-0.26670000000000005,-79.56336350440966
-0.26769999999999994,-79.7755701993894
-0.26870000000000005,-80.04436534636378
-0.26969999999999994,-80.25657204134353
-0.27070000000000005,-80.52536718831789
-0.27169999999999994,-80.73757388329766
-0.27270000000000005,-80.99222191727335
-0.27369999999999994,-81.26101706424771
-0.27470000000000006,-81.47322375922747
-0.27569999999999995,-81.74201890620182
-0.27670000000000006,-81.91178426218562
-0.27769999999999995,-82.18057940915998
-0.27870000000000006,-82.35034476514379
-0.27969999999999995,-82.47766878213164
-0.28070000000000006,-82.6615812511141
-0.28169999999999995,-82.8313466070979
-0.28270000000000006,-82.95867062408576
-0.28369999999999995,-83.14258309306821
-0.28470000000000006,-83.26990711005605
-0.28569999999999995,-83.39723112704392
-0.28670000000000007,-83.56699648302772
-0.28769999999999996,-83.75090895201016
-0.28870000000000007,-83.92067430799398
-0.28969999999999996,-84.04799832498183
-0.29070000000000007,-84.23191079396429
-0.29169999999999996,-84.35923481095215
-0.29270000000000007,-84.48655882793999
-0.29369999999999996,-84.52900016693594
-0.2947000000000001,-84.61388284492786
-0.29569999999999996,-84.75535397491434
-0.2967000000000001,-84.7977953139103
-0.29769999999999996,-84.84023665290624
-0.2987000000000001,-84.96756066989411
-0.29969999999999997,-85.052443347886
-0.3007000000000001,-85.09488468688197
-0.30169999999999997,-85.23635581686847
-0.3027000000000001,-85.36367983385631
-0.30369999999999997,-85.44856251184822
-0.3047000000000001,-85.57588652883607
-0.30569999999999997,-85.70321054582392
-0.3067000000000001,-85.80224033681448
-0.3077,-85.92956435380233
-0.3087000000000001,-85.97200569279828
-0.3097,-86.01444703179425
-0.3107000000000001,-86.05688837079018
-0.3117,-86.14177104878208
-0.3127000000000001,-86.18421238777805
-0.3137,-86.28324217876859
-0.3147000000000001,-86.32568351776455
-0.3157,-86.45300753475239
-0.3167000000000001,-86.49544887374834
-0.3177,-86.66521422973216
-0.3187000000000001,-86.75009690772404
-0.3197,-86.84912669871461
-0.3207000000000001,-86.97645071570246
-0.3217,-87.10377473269031
-0.3227000000000001,-87.18865741068221
-0.3237,-87.23109874967815
-0.3247000000000001,-87.27354008867411
-0.3257,-87.37256987966467
-0.3267000000000001,-87.45745255765657
-0.3277,-87.49989389665252
-0.3287000000000001,-87.58477657464444
-0.3297,-87.71210059163228
-0.3307000000000001,-87.75454193062824
-0.3317,-87.89601306061473
-0.3327000000000001,-87.98089573860662
-0.3337,-88.10821975559449
-0.3347000000000001,-88.23554377258235
-0.3357,-88.37701490256885
-0.3367000000000001,-88.5043389195567
-0.3377,-88.5892215975486
-0.3387000000000001,-88.6741042755405
-0.3397,-88.71654561453644
-0.3407000000000001,-88.8438696315243
-0.3417,-88.9004580835189
-0.3427000000000001,-88.9853407615108
-0.3437,-89.11266477849867
-0.3447000000000001,-89.19754745649055
-0.3457,-89.32487147347842
-0.3467000000000001,-89.46634260346492
-0.3477,-89.63610795944872
-0.3487000000000001,-89.76343197643658
-0.3497,-89.94734444541903
-0.3507000000000001,-90.07466846240689
-0.3517,-90.20199247939475
-0.3527000000000001,-90.37175783537855
-0.3537,-90.47078762636909
-0.3547000000000001,-90.55567030436099
-0.3557,-90.68299432134886
-0.35670000000000013,-90.76787699934074
-0.3577,-90.85275967733266
-0.35870000000000013,-91.03667214631511
-0.3597,-91.16399616330297
-0.36070000000000013,-91.29132018029082
-0.3617,-91.46108553627462
-0.3626999999999999,-91.64499800525708
-0.3637,-91.81476336124088
-0.3646999999999999,-91.98452871722468
-0.3657,-92.16844118620713
-0.3666999999999999,-92.33820654219093
-0.3677,-92.50797189817473
-0.3686999999999999,-92.6918843671572
-0.36970000000000003,-92.81920838414506
-0.3706999999999999,-92.94653240113291
-0.37170000000000003,-93.13044487011537
-0.3726999999999999,-93.21532754810727
-0.37370000000000003,-93.38509290409107
-0.3746999999999999,-93.55485826007487
-0.37570000000000003,-93.73877072905732
-0.3766999999999999,-93.95097742403709
-0.37770000000000004,-94.17733123201549
-0.3786999999999999,-94.34709658799929
-0.37970000000000004,-94.601744621975
-0.3806999999999999,-94.8280984299534
-0.38170000000000004,-95.08274646392913
-0.38269999999999993,-95.30910027190752
-0.38370000000000004,-95.47886562789132
-0.38469999999999993,-95.69107232287108
-0.38570000000000004,-95.91742613084948
-0.38669999999999993,-96.0871914868333
-0.38770000000000004,-96.27110395581576
-0.38869999999999993,-96.4833106507955
-0.38970000000000005,-96.73795868477121
-0.39069999999999994,-96.96431249274961
-0.39170000000000005,-97.17651918772938
-0.39269999999999994,-97.4877556736997
-0.39370000000000005,-97.74240370767538
-0.39469999999999994,-98.01119885464975
-0.39570000000000005,-98.26584688862545
-0.39669999999999994,-98.57708337459576
-0.39770000000000005,-98.7892900695755
-0.39869999999999994,-99.05808521654988
-0.39970000000000006,-99.27029191152963
-0.40069999999999995,-99.53908705850398
-0.40170000000000006,-99.75129375348374
-0.40269999999999995,-99.93520622246619
-0.40370000000000006,-100.23229559543785
-0.40469999999999995,-100.5010907424122
-0.40570000000000006,-100.75573877638791
-0.40669999999999995,-101.06697526235823
-0.40770000000000006,-101.3640646353299
-0.40869999999999995,-101.63285978230424
-0.40970000000000006,-101.97239049427183
-0.41069999999999995,-102.28362698024215
-0.41170000000000007,-102.59486346621246
-0.41269999999999996,-102.93439417818009
-0.41370000000000007,-103.16074798615847
-0.41469999999999996,-103.45783735913014
-0.41570000000000007,-103.76907384510045
-0.41669999999999996,-104.02372187907615
-0.41770000000000007,-104.25007568705455
-0.41869999999999996,-104.5471650600262
-0.4197000000000001,-104.90084288499246
-0.42069999999999996,-105.21207937096277
-0.4217000000000001,-105.50916874393444
-0.42269999999999996,-105.86284656890071
-0.4237000000000001,-106.21652439386696
-0.42469999999999997,-106.51361376683862
-0.4257000000000001,-106.90973293080083
-0.42669999999999997,-107.20682230377247
-0.4277000000000001,-107.6029414677347
-0.42869999999999997,-107.87173661470905
-0.4297000000000001,-108.1688259876807
-0.43069999999999997,-108.52250381264696
-0.4317000000000001,-108.77715184662266
-0.4327,-109.13082967158894
-0.4337000000000001,-109.4845074965552
-0.4347,-109.78159686952685
-0.4357000000000001,-110.1352746944931
-0.4367,-110.53139385845533
-0.4377000000000001,-110.87092457042293
-0.4387,-111.26704373438514
-0.4397000000000001,-111.6207215593514
-0.4407,-112.01684072331359
-0.4417000000000001,-112.39881277427718
-0.4427,-112.75249059924342
-0.4437000000000001,-113.10616842420968
-0.4447,-113.44569913617728
-0.4457000000000001,-113.79937696114357
-0.4467,-114.1530547861098
-0.4477000000000001,-114.45014415908147
-0.4487,-114.80382198404773
-0.4497000000000001,-115.2423824870059
-0.4507,-115.53947185997755
-0.4517000000000001,-115.97803236293572
-0.4527,-116.37415152689792
-0.4537000000000001,-116.77027069086012
-0.4547,-117.15224274182368
-0.4557000000000001,-117.54836190578591
-0.4567,-117.94448106974811
-0.4577000000000001,-118.3406002337103
-0.4587,-118.68013094567793
-0.4597000000000001,-119.07625010964013
-0.4607,-119.4299279346064
-0.4617000000000001,-119.769458646574
-0.4627,-120.12313647154028
-0.4637000000000001,-120.51925563550247
-0.4647,-120.9153747994647
-0.4657000000000001,-121.33978818942418
-0.4667,-121.73590735338641
-0.4677000000000001,-122.17446785634456
-0.4687,-122.61302835930273
-0.4697000000000001,-123.05158886226087
-0.4707,-123.57503204321095
-0.4717000000000001,-123.99944543317046
-0.4727,-124.43800593612862
-0.4737000000000001,-124.83412510009084
-0.4747,-125.23024426405304
-0.4757000000000001,-125.6688047670112
-0.4767,-126.05077681797478
-0.4777000000000001,-126.44689598193698
-0.4787,-126.84301514589919
-0.4797000000000001,-127.32401698785328
-0.4807,-127.72013615181551
-0.48170000000000013,-128.144549541775
-0.4827,-128.62555138372915
-0.48370000000000013,-129.10655322568326
-0.4847,-129.58755506763737
-0.48570000000000013,-130.06855690959148
-0.4867,-130.50711741254963
-0.4876999999999999,-131.03056059349967
-0.4887,-131.4266797574619
-0.4896999999999999,-131.8510931474214
-0.4907,-132.24721231138363
-0.4916999999999999,-132.6857728143418
-0.4927,-133.12433331729994
-0.4936999999999999,-133.60533515925405
-0.49470000000000003,-134.04389566221224
-0.4956999999999999,-134.46830905217172
-0.49670000000000003,-134.94931089412586
-0.4976999999999999,-135.43031273607997
-0.49870000000000003,-135.95375591703004
-0.4996999999999999,-136.47719909798008
-0.5007,-137.00064227893017
-0.5016999999999999,-137.48164412088425
-0.5027,-138.00508730183432
-0.5036999999999999,-138.44364780479248
-0.5047,-138.88220830775063
-0.5056999999999999,-139.4056514887007
-0.5067,-139.8866533306548
-0.5076999999999999,-140.36765517260895
-0.5087,-140.79206856256846
-0.5096999999999999,-141.3155117435185
