Potential V vs RHE, Current mA cm-2
0.013299999999999867,5.929055057734368
0.012299999999999978,5.3631705377883545
0.011299999999999866,4.883583407134107
0.010299999999999976,4.402581565179994
0.009299999999999864,4.01070653511738
0.008299999999999974,3.6174167937548987
0.007299999999999862,3.2693978139880997
0.006299999999999972,2.919964122921436
0.00529999999999986,2.5705304318547717
0.0042999999999999705,2.2225114520879723
0.0032999999999998586,1.9169338113171246
0.0022999999999999687,1.5675001202504606
0.0012999999999998568,1.2626298351295453
0.00029999999999996696,0.9573351366186703
-0.000700000000000145,0.6956135461436386
-0.0017000000000000348,0.3903188476327636
-0.0027000000000001467,0.17231183632356148
-0.0037000000000000366,-0.08943804837746762
-0.0047000000000001485,-0.3511313446265021
-0.005700000000000038,-0.5692798270656908
-0.00670000000000015,-0.8308599464107361
-0.00770000000000004,-1.0925815368857679
-0.008700000000000152,-1.3543031273607997
-0.009700000000000042,-1.5717442541500557
-0.010700000000000154,-1.7471684553333202
-0.011700000000000044,-1.9650339955125358
-0.012700000000000156,-2.1390434853959355
-0.013700000000000045,-2.3569090255751513
-0.014700000000000157,-2.532333226758415
-0.015700000000000047,-2.7501987669376318
-0.01670000000000016,-2.968064307116847
-0.01770000000000005,-3.1859298472960624
-0.01870000000000016,-3.403795387475278
-0.01970000000000005,-3.579219588658543
-0.020700000000000163,-3.7532290785419424
-0.021700000000000053,-3.927238568425342
-0.022700000000000164,-4.102662769608606
-0.023700000000000054,-4.23281620919619
-0.024700000000000166,-4.406825699079589
-0.025700000000000056,-4.626105950558669
-0.026700000000000168,-4.800115440442069
-0.027700000000000058,-4.974124930325469
-0.02870000000000017,-5.149549131508733
-0.02970000000000006,-5.279702571096316
-0.03070000000000017,-5.411270721983764
-0.03170000000000006,-5.5414241615713475
-0.03270000000000017,-5.672992312458796
-0.03370000000000006,-5.80314575204638
-0.034700000000000175,-5.9347139029338285
-0.035700000000000065,-6.064867342521412
-0.03670000000000018,-6.238876832404812
-0.03770000000000007,-6.414301033588076
-0.03870000000000018,-6.588310523471475
-0.03970000000000007,-6.762320013354876
-0.04070000000000018,-6.893888164242324
-0.04170000000000007,-6.981600264833956
-0.04270000000000018,-7.111753704421539
-0.04370000000000007,-7.243321855308987
-0.044700000000000184,-7.37347529489657
-0.045700000000000074,-7.5474847847799715
-0.046700000000000186,-7.679052935667419
-0.047700000000000076,-7.853062425550818
-0.04870000000000019,-7.984630576438266
-0.04970000000000008,-8.11478401602585
-0.05070000000000019,-8.202496116617484
-0.05170000000000008,-8.332649556205066
-0.05270000000000019,-8.4203616567967
-0.05370000000000008,-8.508073757388331
-0.05470000000000019,-8.638227196975913
-0.05570000000000008,-8.725939297567548
-0.056700000000000195,-8.899948787450944
-0.057700000000000085,-9.031516938338395
-0.058700000000000196,-9.161670377925978
-0.059700000000000086,-9.293238528813426
-0.0607000000000002,-9.423391968401008
-0.06170000000000009,-9.511104068992642
-0.0627000000000002,-9.641257508580225
-0.06370000000000009,-9.772825659467674
-0.0647000000000002,-9.902979099055257
-0.06570000000000009,-10.034547249942705
-0.0667000000000002,-10.164700689530287
-0.0677000000000001,-10.340124890713554
-0.0687000000000002,-10.470278330301136
-0.0697000000000001,-10.557990430892769
-0.07070000000000021,-10.688143870480351
-0.0717000000000001,-10.775855971071984
-0.07270000000000021,-10.863568071663616
-0.0737000000000001,-10.949865460955383
-0.07470000000000021,-11.081433611842833
-0.0757000000000001,-11.211587051430415
-0.07670000000000021,-11.343155202317865
-0.0777000000000001,-11.473308641905447
-0.07870000000000021,-11.604876792792895
-0.0797000000000001,-11.73503023238048
-0.08070000000000022,-11.82274233297211
-0.0817000000000001,-11.909039722263879
-0.08270000000000022,-11.996751822855511
-0.08370000000000011,-12.084463923447142
-0.08470000000000022,-12.214617363034726
-0.08570000000000011,-12.346185513922174
-0.08670000000000022,-12.520195003805576
-0.08770000000000011,-12.651763154693022
-0.08870000000000022,-12.781916594280606
-0.08970000000000011,-12.913484745168056
-0.09070000000000022,-13.043638184755638
-0.09170000000000011,-13.13135028534727
-0.09270000000000023,-13.217647674639037
-0.09370000000000012,-13.349215825526485
-0.09470000000000023,-13.436927926118118
-0.09570000000000012,-13.567081365705702
-0.09670000000000023,-13.698649516593148
-0.09770000000000012,-13.828802956180734
-0.09870000000000023,-13.960371107068182
-0.09970000000000012,-14.090524546655764
-0.10070000000000023,-14.217848563643619
-0.10170000000000012,-14.345172580631472
-0.10270000000000024,-14.401761032626075
-0.10370000000000013,-14.486643710617974
-0.10470000000000024,-14.61396772760583
-0.10570000000000013,-14.69885040559773
-0.10670000000000024,-14.826174422585586
-0.10770000000000013,-15.01008689156804
-0.10870000000000024,-15.179852247551842
-0.10970000000000013,-15.307176264539699
-0.11070000000000024,-15.448647394526201
-0.11170000000000013,-15.575971411514052
-0.11270000000000002,-15.618412750510005
-0.11370000000000013,-15.70329542850191
-0.11470000000000002,-15.830619445489761
-0.11570000000000014,-16.014531914472215
-0.11670000000000003,-16.141855931460068
-0.11770000000000014,-16.311621287443874
-0.11870000000000003,-16.53797509542228
-0.11970000000000014,-16.665299112410132
-0.12070000000000003,-16.750181790402035
-0.12170000000000014,-16.877505807389888
-0.12270000000000003,-16.919947146385837
-0.12370000000000014,-17.061418276372343
-0.12470000000000003,-17.146300954364243
-0.12570000000000014,-17.316066310348052
-0.12670000000000003,-17.48583166633185
-0.12770000000000015,-17.669744135314307
-0.12870000000000004,-17.839509491298113
-0.12970000000000015,-17.966833508285966
-0.13070000000000004,-18.06586329927652
-0.13170000000000015,-18.15074597726842
-0.13270000000000004,-18.23562865526032
-0.13370000000000015,-18.362952672248177
-0.13470000000000004,-18.53271802823198
-0.13570000000000015,-18.716630497214435
-0.13670000000000004,-18.88639585319824
-0.13770000000000016,-19.01371987018609
-0.13870000000000005,-19.155191000172596
-0.13970000000000016,-19.28251501716045
-0.14070000000000005,-19.409839034148305
-0.14170000000000016,-19.537163051136158
-0.14270000000000005,-19.678634181122664
-0.14370000000000016,-19.848399537106463
-0.14470000000000005,-19.97572355409432
-0.14570000000000016,-20.159636023076775
-0.14670000000000005,-20.286960040064624
-0.14770000000000016,-20.414284057052477
-0.14870000000000005,-20.541608074040333
-0.14970000000000017,-20.683079204026836
-0.15070000000000006,-20.810403221014692
-0.15170000000000017,-20.980168576998494
-0.15270000000000006,-21.107492593986347
-0.15370000000000017,-21.248963723972853
-0.15470000000000006,-21.376287740960702
-0.15570000000000017,-21.54605309694451
-0.15670000000000006,-21.67337711393236
-0.15770000000000017,-21.814848243918867
-0.15870000000000006,-21.98461359990267
-0.15970000000000018,-22.111937616890522
-0.16070000000000007,-22.295850085872978
-0.16170000000000018,-22.38073276386488
-0.16270000000000007,-22.508056780852733
-0.16370000000000018,-22.63538079784059
-0.16470000000000007,-22.819293266823045
-0.16570000000000018,-22.989058622806844
-0.16670000000000007,-23.2012653177866
-0.16770000000000018,-23.385177786769056
-0.16870000000000007,-23.597384481748815
-0.16970000000000018,-23.724708498736668
-0.17070000000000007,-23.86617962872317
-0.17170000000000019,-24.035944984706973
-0.17270000000000008,-24.16326900169483
-0.1737000000000002,-24.290593018682678
-0.17470000000000008,-24.474505487665134
-0.1757000000000002,-24.64427084364894
-0.17670000000000008,-24.870624651627345
-0.1777000000000002,-25.04039000761115
-0.17870000000000008,-25.167714024599
-0.1797000000000002,-25.337479380582806
-0.18070000000000008,-25.478950510569312
-0.1817000000000002,-25.60627452755716
-0.18270000000000008,-25.73359854454502
-0.1837000000000002,-25.86092256153287
-0.1847000000000001,-26.002393691519377
-0.1857000000000002,-26.21460038649913
-0.1867000000000001,-26.38436574248293
-0.1877000000000002,-26.568278211465387
-0.1887000000000001,-26.780484906445146
-0.1897000000000002,-26.9643973754276
-0.1907000000000001,-27.134162731411404
-0.1917000000000001,-27.303928087395207
-0.19269999999999998,-27.487840556377662
-0.1937000000000001,-27.65760591236147
-0.19469999999999998,-27.869812607341224
-0.1957000000000001,-28.09616641531963
-0.19669999999999999,-28.308373110299385
-0.1977000000000001,-28.53472691827779
-0.1987,-28.746933613257543
-0.1997000000000001,-28.91669896924135
-0.2007,-29.058170099227848
-0.2017000000000001,-29.18549411621571
-0.2027,-29.35525947219951
-0.2037000000000001,-29.525024828183312
-0.2047,-29.708937297165768
-0.2057000000000001,-29.921143992145527
-0.2067,-30.10505646112798
-0.2077000000000001,-30.274821817111786
-0.2087,-30.444587173095588
-0.2097000000000001,-30.670940981073993
-0.2107,-30.88314767605375
-0.2117000000000001,-31.095354371033505
-0.2127,-31.27926684001596
-0.2137000000000001,-31.449032195999767
-0.2147,-31.618797551983565
-0.2157000000000001,-31.802710020966025
-0.2167,-31.930034037953877
-0.21770000000000012,-32.05735805494172
-0.2187,-32.24127052392419
-0.21970000000000012,-32.41103587990799
-0.2207,-32.58080123589179
-0.22170000000000012,-32.70812525287965
-0.2227,-32.892037721862096
-0.22370000000000012,-33.06180307784591
-0.2247,-33.288156885824314
-0.22570000000000012,-33.50036358080407
-0.2267,-33.755011614779775
-0.22770000000000012,-34.06624810075008
-0.22870000000000001,-34.377484586720385
-0.22970000000000013,-34.58969128170015
-0.23070000000000002,-34.8018979766799
-0.23170000000000013,-34.94336910666641
-0.23270000000000002,-35.11313446265021
-0.23370000000000013,-35.32534115762997
-0.23470000000000002,-35.594136304604326
-0.23570000000000013,-35.848784338580025
-0.23670000000000002,-36.11757948555439
-0.2376999999999999,-36.37222751953009
-0.23870000000000002,-36.55613998851254
-0.2396999999999999,-36.725905344496354
-0.24070000000000003,-36.89567070048016
-0.24169999999999991,-37.07958316946261
-0.24270000000000003,-37.249348525446415
-0.24369999999999992,-37.51814367242077
-0.24470000000000003,-37.77279170639648
-0.24569999999999992,-37.99914551437489
-0.24670000000000003,-38.211352209354644
-0.24769999999999992,-38.38111756533845
-0.24870000000000003,-38.5650300343209
-0.24969999999999992,-38.6499127123128
-0.25070000000000003,-38.777236729300654
-0.2516999999999999,-38.90456074628851
-0.25270000000000004,-39.08847321527096
-0.2536999999999999,-39.34312124924667
-0.25470000000000004,-39.61191639622103
-0.2556999999999999,-39.86656443019674
-0.25670000000000004,-40.177800916167044
-0.25769999999999993,-40.4748902891387
-0.25870000000000004,-40.743685436113054
-0.25969999999999993,-41.04077480908471
-0.26070000000000004,-41.267128617063115
-0.26169999999999993,-41.52177665103883
-0.26270000000000004,-41.83301313700913
-0.26369999999999993,-42.130102509980794
-0.26470000000000005,-42.483780334947056
-0.26569999999999994,-42.79501682091736
-0.26670000000000005,-43.04966485489307
-0.26769999999999994,-43.27601866287147
-0.26870000000000005,-43.44578401885527
-0.26969999999999994,-43.61554937483908
-0.27070000000000005,-43.84190318281749
-0.27169999999999994,-44.054109877797245
-0.27270000000000005,-44.3229050247716
-0.27369999999999994,-44.577553058747306
-0.27470000000000006,-44.88878954471762
-0.27569999999999995,-45.143437578693316
-0.27670000000000006,-45.412232725667685
-0.27769999999999995,-45.666880759643384
-0.27870000000000006,-45.93567590661774
-0.27969999999999995,-46.147882601597495
-0.28070000000000006,-46.41667774857186
-0.28169999999999995,-46.628884443551605
-0.28270000000000006,-46.84109113853137
-0.28369999999999995,-47.067444946509774
-0.28470000000000006,-47.27965164148953
-0.28569999999999995,-47.54844678846388
-0.28670000000000007,-47.84553616143554
-0.28769999999999996,-48.114331308409895
-0.28870000000000007,-48.36897934238561
-0.28969999999999996,-48.59533315036401
-0.29070000000000007,-48.80753984534376
-0.29169999999999996,-49.076334992318124
-0.29270000000000007,-49.33098302629383
-0.29369999999999996,-49.642219512264134
-0.2947000000000001,-49.98175022423175
-0.29569999999999996,-50.29298671020206
-0.2967000000000001,-50.68910587416426
-0.29769999999999996,-50.98619524713592
-0.2987000000000001,-51.25499039411028
-0.29969999999999997,-51.509638428085985
-0.3007000000000001,-51.73599223606439
-0.30169999999999997,-51.948198931044146
-0.3027000000000001,-52.17455273902255
-0.30369999999999997,-52.42920077299826
-0.3047000000000001,-52.69799591997262
-0.30569999999999997,-52.995085292944275
-0.3067000000000001,-53.26388043991864
-0.3077,-53.518528473894335
-0.3087000000000001,-53.74488228187274
-0.3097,-53.999530315848446
-0.3107000000000001,-54.31076680181876
-0.3117,-54.69273885278232
-0.3127000000000001,-55.13129935574048
-0.3137,-55.65474253669055
-0.3147000000000001,-56.1781857176406
-0.3157,-56.70162889859067
-0.3167000000000001,-57.22507207954074
-0.3177,-57.66363258249889
-0.3187000000000001,-58.10219308545706
-0.3197,-58.45587091042332
-0.3207000000000001,-58.71051894439902
-0.3217,-58.880284300382826
-0.3227000000000001,-59.06419676936528
-0.3237,-59.19152078635314
-0.3247000000000001,-59.31884480334099
-0.3257,-59.502757272323436
-0.3267000000000001,-59.7149639673032
-0.3277,-59.9696120012789
-0.3287000000000001,-60.32328982624517
-0.3297,-60.71940899020737
-0.3307000000000001,-61.15796949316553
-0.3317,-61.72385401311155
-0.3327000000000001,-62.16241451606972
-0.3337,-62.64341635802381
-0.3347000000000001,-63.02538840898739
-0.3357,-63.29418355596174
-0.3367000000000001,-63.5063902509415
-0.3377,-63.732744058919906
-0.3387000000000001,-63.902509414903705
-0.3397,-64.11471610988345
-0.3407000000000001,-64.38351125685783
-0.3417,-64.68060062982947
-0.3427000000000001,-64.99183711579978
-0.3437,-65.3030736017701
-0.3447000000000001,-65.64260431373769
-0.3457,-66.03872347769992
-0.3467000000000001,-66.43484264166212
-0.3477,-66.87340314462028
-0.3487000000000001,-67.2978165345798
-0.3497,-67.693935698542
-0.3507000000000001,-68.13249620150016
-0.3517,-68.48617402646643
-0.3527000000000001,-68.86814607742998
-0.3537,-69.26426524139221
-0.3547000000000001,-69.6603844053544
-0.3557,-70.01406223032066
-0.35670000000000013,-70.35359294228827
-0.3577,-70.70727076725453
-0.35870000000000013,-71.10338993121674
-0.3597,-71.48536198218031
-0.36070000000000013,-71.92392248513846
-0.3617,-72.40492432709259
-0.3626999999999999,-72.84348483005074
-0.3637,-73.23960399401295
-0.3646999999999999,-73.57913470598055
-0.3657,-73.89037119195086
-0.3666999999999999,-74.14501922592657
-0.3677,-74.41381437290093
-0.3686999999999999,-74.62602106788069
-0.36970000000000003,-74.89481621485504
-0.3706999999999999,-75.19190558782671
-0.37170000000000003,-75.50314207379701
-0.3726999999999999,-75.85681989876326
-0.37370000000000003,-76.23879194972683
-0.3746999999999999,-76.55002843569714
-0.37570000000000003,-76.81882358267148
-0.3766999999999999,-77.0734716166472
-0.37770000000000004,-77.20079563363505
-0.3786999999999999,-77.42714944161345
-0.37970000000000004,-77.68179747558916
-0.3806999999999999,-78.03547530055542
-0.38170000000000004,-78.51647714250953
-0.38269999999999993,-78.99747898446365
-0.38370000000000004,-79.47848082641775
-0.38469999999999993,-79.90289421637728
-0.38570000000000004,-80.21413070234757
-0.38669999999999993,-80.46877873632329
-0.38770000000000004,-80.73757388329766
-0.38869999999999993,-81.04881036926795
-0.38970000000000005,-81.38834108123557
-0.39069999999999994,-81.82690158419373
-0.39170000000000005,-82.22302074815593
-0.39269999999999994,-82.61913991211814
-0.39370000000000005,-82.9162292850898
-0.39469999999999994,-83.14258309306821
-0.39570000000000005,-83.35478978804795
-0.39669999999999994,-83.60943782202366
-0.39770000000000005,-83.92067430799398
-0.39869999999999994,-84.35923481095215
-0.39970000000000006,-84.8826779919022
-0.40069999999999995,-85.40612117285227
-0.40170000000000006,-85.92956435380233
-0.40269999999999995,-86.36812485676049
-0.40370000000000006,-86.75009690772404
-0.40469999999999995,-87.06133339369435
-0.40570000000000006,-87.33012854066871
-0.40669999999999995,-87.54233523564847
-0.40770000000000006,-87.79698326962418
-0.40869999999999995,-88.06577841659853
-0.40970000000000006,-88.32042645057423
-0.41069999999999995,-88.63166293654454
-0.41170000000000007,-88.9853407615108
-0.41269999999999996,-89.36731281247435
-0.41370000000000007,-89.72099063744062
-0.41469999999999996,-90.07466846240689
-0.41570000000000007,-90.37175783537855
-0.41669999999999996,-90.68299432134886
-0.41770000000000007,-90.93764235532454
-0.41869999999999996,-91.24887884129487
-0.4197000000000001,-91.60255666626112
-0.42069999999999996,-91.98452871722468
-0.4217000000000001,-92.42308922018285
-0.42269999999999996,-92.73432570615316
-0.4237000000000001,-93.03141507912481
-0.42469999999999997,-93.25776888710321
-0.4257000000000001,-93.51241692107894
-0.42669999999999997,-93.73877072905732
-0.4277000000000001,-93.99341876303303
-0.42869999999999997,-94.34709658799929
-0.4297000000000001,-94.7432157519615
-0.43069999999999997,-95.22421759391563
-0.4317000000000001,-95.60618964487918
-0.4327,-96.00230880884139
-0.4337000000000001,-96.31354529481169
-0.4347,-96.61063466778336
-0.4357000000000001,-96.83698847576176
-0.4367,-97.17651918772938
-0.4377000000000001,-97.61507969068752
-0.4387,-98.05364019364569
-0.4397000000000001,-98.49220069660386
-0.4407,-98.88831986056607
-0.4417000000000001,-99.18540923353773
-0.4427,-99.35517458952152
-0.4437000000000001,-99.53908705850398
-0.4447,-99.70885241448778
-0.4457000000000001,-99.87861777047159
-0.4467,-100.06253023945405
-0.4477000000000001,-100.23229559543785
-0.4487,-100.40206095142165
-0.4497000000000001,-100.5010907424122
-0.4507,-100.54353208140815
-0.4517000000000001,-100.71329743739196
-0.4527,-100.84062145437981
-0.4537000000000001,-101.06697526235823
-0.4547,-101.44894731332178
-0.4557000000000001,-101.92994915527588
-0.4567,-102.4958336752219
-0.4577000000000001,-102.97683551717601
-0.4587,-103.33051334214227
-0.4597000000000001,-103.45783735913014
-0.4607,-103.37295468113824
-0.4617000000000001,-103.20318932515443
-0.4627,-102.97683551717601
-0.4637000000000001,-102.84951150018817
-0.4647,-102.84951150018817
-0.4657000000000001,-102.93439417818009
-0.4667,-103.07586530816658
-0.4677000000000001,-103.16074798615847
-0.4687,-103.20318932515443
-0.4697000000000001,-103.24563066415038
-0.4707,-103.33051334214227
-0.4717000000000001,-103.45783735913014
-0.4727,-103.68419116710854
-0.4737000000000001,-103.89639786208829
-0.4747,-104.06616321807209
-0.4757000000000001,-104.06616321807209
-0.4767,-104.12275167006669
-0.4777000000000001,-104.16519300906265
-0.4787,-104.33495836504645
-0.4797000000000001,-104.50472372103027
-0.4807,-104.5471650600262
-0.48170000000000013,-104.41984104303836
-0.4827,-104.12275167006669
-0.48370000000000013,-103.7266325061045
-0.4847,-103.20318932515443
-0.48570000000000013,-102.72218748320032
-0.4867,-102.28362698024215
-0.4876999999999999,-102.07142028526239
-0.4887,-102.02897894626645
-0.4896999999999999,-102.19874430225026
-0.4907,-102.41095099723
-0.4916999999999999,-102.63730480520842
-0.4927,-102.76462882219626
-0.4936999999999999,-102.76462882219626
-0.49470000000000003,-102.59486346621246
-0.4956999999999999,-102.28362698024215
-0.49670000000000003,-101.92994915527588
-0.4976999999999999,-101.63285978230424
-0.49870000000000003,-101.3640646353299
-0.4996999999999999,-101.06697526235823
-0.5007,-100.71329743739196
-0.5016999999999999,-100.35961961242569
-0.5027,-100.06253023945405
-0.5036999999999999,-99.7937350924797
-0.5047,-99.75129375348374
-0.5056999999999999,-99.58152839749994
-0.5067,-99.27029191152963
-0.5076999999999999,-99.22785057253368
-0.5087,-99.41176304151614
