Potential V vs RHE, Current mA cm-2
0.013299999999999867,5.9729111080301855
0.012299999999999978,5.405611876784305
0.011299999999999866,4.926024746130058
0.010299999999999976,4.44643761547581
0.009299999999999864,4.054562585413195
0.008299999999999974,3.661272844050715
0.007299999999999862,3.2693978139880997
0.006299999999999972,2.8761080726256196
0.00529999999999986,2.4842330425630044
0.0042999999999999705,2.0909433012005243
0.0032999999999998586,1.7429243214337253
0.0022999999999999687,1.3934906303670611
0.0012999999999998568,1.0881959318561862
0.00029999999999996696,0.7393281253094681
-0.000700000000000145,0.4776065348344364
-0.0017000000000000348,0.17231183632356148
-0.0027000000000001467,-0.08943804837746762
-0.0037000000000000366,-0.3511313446265021
-0.0047000000000001485,-0.6128529351015338
-0.005700000000000038,-0.8745745255765657
-0.00670000000000015,-1.1798692240874404
-0.00770000000000004,-1.4415908145624723
-0.008700000000000152,-1.7033124050375041
-0.009700000000000042,-1.9650339955125358
-0.010700000000000154,-2.1828995356917518
-0.011700000000000044,-2.4446211261667834
-0.012700000000000156,-2.662486666345999
-0.013700000000000045,-2.8379108675292635
-0.014700000000000157,-3.055776407708479
-0.015700000000000047,-3.273641947887695
-0.01670000000000016,-3.4915074880669104
-0.01770000000000005,-3.6655169779503103
-0.01870000000000016,-3.884797229429391
-0.01970000000000005,-4.102662769608606
-0.020700000000000163,-4.3205283097878215
-0.021700000000000053,-4.538393849967037
-0.022700000000000164,-4.712403339850438
-0.023700000000000054,-4.887827541033701
-0.024700000000000166,-5.0618370309171015
-0.025700000000000056,-5.235846520800501
-0.026700000000000168,-5.367414671687949
-0.027700000000000058,-5.5414241615713475
-0.02870000000000017,-5.715433651454749
-0.02970000000000006,-5.9347139029338285
-0.03070000000000017,-6.108723392817228
-0.03170000000000006,-6.238876832404812
-0.03270000000000017,-6.458157083883892
-0.03370000000000006,-6.632166573767292
-0.034700000000000175,-6.806176063650692
-0.035700000000000065,-6.93774421453814
-0.03670000000000018,-7.111753704421539
-0.03770000000000007,-7.199465805013171
-0.03870000000000018,-7.37347529489657
-0.03970000000000007,-7.50504344578402
-0.04070000000000018,-7.635196885371603
-0.04170000000000007,-7.809206375255003
-0.04270000000000018,-7.984630576438266
-0.04370000000000007,-8.158640066321666
-0.044700000000000184,-8.288793505909249
-0.045700000000000074,-8.464217707092514
-0.046700000000000186,-8.594371146680096
-0.047700000000000076,-8.769795347863363
-0.04870000000000019,-8.899948787450944
-0.04970000000000008,-8.987660888042578
-0.05070000000000019,-9.11781432763016
-0.05170000000000008,-9.24938247851761
-0.05270000000000019,-9.379535918105192
-0.05370000000000008,-9.55496011928846
-0.05470000000000019,-9.685113558876042
-0.05570000000000008,-9.85912304875944
-0.056700000000000195,-9.99069119964689
-0.057700000000000085,-10.120844639234473
-0.058700000000000196,-10.25241279012192
-0.059700000000000086,-10.382566229709504
-0.0607000000000002,-10.470278330301136
-0.06170000000000009,-10.601846481188586
-0.0627000000000002,-10.731999920776168
-0.06370000000000009,-10.863568071663616
-0.0647000000000002,-10.993721511251199
-0.06570000000000009,-11.1677310011346
-0.0667000000000002,-11.299299152022046
-0.0677000000000001,-11.473308641905447
-0.0687000000000002,-11.604876792792895
-0.0697000000000001,-11.73503023238048
-0.07070000000000021,-11.909039722263879
-0.0717000000000001,-12.040607873151327
-0.07270000000000021,-12.170761312738911
-0.0737000000000001,-12.258473413330542
-0.07470000000000021,-12.390041564217992
-0.0757000000000001,-12.520195003805576
-0.07670000000000021,-12.651763154693022
-0.0777000000000001,-12.781916594280606
-0.07870000000000021,-12.913484745168056
-0.0797000000000001,-12.99978213445982
-0.08070000000000022,-13.175206335643086
-0.0817000000000001,-13.30535977523067
-0.08270000000000022,-13.3930718758223
-0.08370000000000011,-13.523225315409885
-0.08470000000000022,-13.610937416001518
-0.08570000000000011,-13.741090855589102
-0.08670000000000022,-13.828802956180734
-0.08770000000000011,-13.960371107068182
-0.08870000000000022,-14.090524546655764
-0.08970000000000011,-14.217848563643619
-0.09070000000000022,-14.345172580631472
-0.09170000000000011,-14.486643710617974
-0.09270000000000023,-14.61396772760583
-0.09370000000000012,-14.741291744593681
-0.09470000000000023,-14.868615761581536
-0.09570000000000012,-15.01008689156804
-0.09670000000000023,-15.137410908555893
-0.09770000000000012,-15.222293586547794
-0.09870000000000023,-15.349617603535648
-0.09970000000000012,-15.491088733522153
-0.10070000000000023,-15.575971411514052
-0.10170000000000012,-15.70329542850191
-0.10270000000000024,-15.87306078448571
-0.10370000000000013,-16.014531914472215
-0.10470000000000024,-16.141855931460068
-0.10570000000000013,-16.269179948447924
-0.10670000000000024,-16.396503965435777
-0.10770000000000013,-16.495533756426326
-0.10870000000000024,-16.622857773414182
-0.10970000000000013,-16.70774045140608
-0.11070000000000024,-16.835064468393938
-0.11170000000000013,-16.962388485381787
-0.11270000000000002,-17.061418276372343
-0.11370000000000013,-17.188742293360193
-0.11470000000000002,-17.358507649344002
-0.11570000000000014,-17.542420118326454
-0.11670000000000003,-17.71218547431026
-0.11770000000000014,-17.881950830294063
-0.11870000000000003,-18.009274847281915
-0.11970000000000014,-18.19318731626437
-0.12070000000000003,-18.27806999425627
-0.12170000000000014,-18.40539401124413
-0.12270000000000003,-18.49027668923603
-0.12370000000000014,-18.631747819222536
-0.12470000000000003,-18.716630497214435
-0.12570000000000014,-18.88639585319824
-0.12670000000000003,-19.056161209182044
-0.12770000000000015,-19.197632339168546
-0.12870000000000004,-19.367397695152352
-0.12970000000000015,-19.49472171214021
-0.13070000000000004,-19.636192842126707
-0.13170000000000015,-19.721075520118614
-0.13270000000000004,-19.805958198110513
-0.13370000000000015,-19.890840876102416
-0.13470000000000004,-20.01816489309027
-0.13570000000000015,-20.202077362072725
-0.13670000000000004,-20.329401379060574
-0.13770000000000016,-20.499166735044383
-0.13870000000000005,-20.72552054302279
-0.13970000000000016,-20.89528589900659
-0.14070000000000005,-21.065051254990397
-0.14170000000000016,-21.248963723972853
-0.14270000000000005,-21.376287740960702
-0.14370000000000016,-21.503611757948562
-0.14470000000000005,-21.63093577493641
-0.14570000000000016,-21.729965565926964
-0.14670000000000005,-21.857289582914817
-0.14770000000000016,-22.027054938898623
-0.14870000000000005,-22.196820294882425
-0.14970000000000017,-22.42317410286083
-0.15070000000000006,-22.592939458844636
-0.15170000000000017,-22.776851927827092
-0.15270000000000006,-22.904175944814945
-0.15370000000000017,-23.031499961802798
-0.15470000000000006,-23.1163826397947
-0.15570000000000017,-23.2012653177866
-0.15670000000000006,-23.342736447773106
-0.15770000000000017,-23.51250180375691
-0.15870000000000006,-23.682267159740714
-0.15970000000000018,-23.908620967719123
-0.16070000000000007,-24.120827662698876
-0.16170000000000018,-24.34718147067728
-0.16270000000000007,-24.516946826661083
-0.16370000000000018,-24.729153521640843
-0.16470000000000007,-24.870624651627345
-0.16570000000000018,-25.04039000761115
-0.16670000000000007,-25.167714024599
-0.16770000000000018,-25.295038041586857
-0.16870000000000007,-25.478950510569312
-0.16970000000000018,-25.648715866553115
-0.17070000000000007,-25.81848122253692
-0.17170000000000019,-26.002393691519377
-0.17270000000000008,-26.17215904750318
-0.1737000000000002,-26.34192440348698
-0.17470000000000008,-26.525836872469437
-0.1757000000000002,-26.61071955046134
-0.17670000000000008,-26.738043567449193
-0.1777000000000002,-26.86536758443705
-0.17870000000000008,-26.9643973754276
-0.1797000000000002,-27.134162731411404
-0.18070000000000008,-27.261486748399253
-0.1817000000000002,-27.487840556377662
-0.18270000000000008,-27.700047251357418
-0.1837000000000002,-27.912253946337174
-0.1847000000000001,-28.13860775431558
-0.1857000000000002,-28.350814449295335
-0.1867000000000001,-28.53472691827779
-0.1877000000000002,-28.704492274261593
-0.1887000000000001,-28.8742576302454
-0.1897000000000002,-29.001581647233255
-0.1907000000000001,-29.18549411621571
-0.1917000000000001,-29.35525947219951
-0.19269999999999998,-29.581613280177915
-0.1937000000000001,-29.793819975157668
-0.19469999999999998,-30.00602667013743
-0.1957000000000001,-30.232380478115836
-0.19669999999999999,-30.402145834099635
-0.1977000000000001,-30.571911190083444
-0.1987,-30.71338232006995
-0.1997000000000001,-30.8407063370578
-0.2007,-30.925589015049702
-0.2017000000000001,-31.095354371033505
-0.2027,-31.23682550102001
-0.2037000000000001,-31.449032195999767
-0.2047,-31.661238890979522
-0.2057000000000001,-31.930034037953877
-0.2067,-32.14224073293363
-0.2077000000000001,-32.32615320191609
-0.2087,-32.53835989689585
-0.2097000000000001,-32.70812525287965
-0.2107,-32.84959638286615
-0.2117000000000001,-33.01936173884996
-0.2127,-33.18912709483376
-0.2137000000000001,-33.41548090281216
-0.2147,-33.627687597791926
-0.2157000000000001,-33.89648274476628
-0.2167,-34.10868943974604
-0.21770000000000012,-34.33504324772444
-0.2187,-34.50480860370825
-0.21970000000000012,-34.67457395969205
-0.2207,-34.85848642867451
-0.22170000000000012,-35.02825178465831
-0.2227,-35.198017140642115
-0.22370000000000012,-35.38192960962457
-0.2247,-35.594136304604326
-0.22570000000000012,-35.763901660588125
-0.2267,-35.99025546856653
-0.22770000000000012,-36.20246216354629
-0.22870000000000001,-36.37222751953009
-0.22970000000000013,-36.55613998851254
-0.23070000000000002,-36.768346683492304
-0.23170000000000013,-36.95225915247476
-0.23270000000000002,-37.164465847454515
-0.23370000000000013,-37.376672542434264
-0.23470000000000002,-37.60302635041268
-0.23570000000000013,-37.81523304539243
-0.23670000000000002,-38.08402819236679
-0.2376999999999999,-38.33867622634249
-0.23870000000000002,-38.607471373316855
-0.2396999999999999,-38.90456074628851
-0.24070000000000003,-39.173355893262865
-0.24169999999999991,-39.38556258824262
-0.24270000000000003,-39.61191639622103
-0.24369999999999992,-39.82412309120078
-0.24470000000000003,-40.03632978618054
-0.24569999999999992,-40.220242255162994
-0.24670000000000003,-40.3900076111468
-0.24769999999999992,-40.559772967130606
-0.24870000000000003,-40.78612677510901
-0.24969999999999992,-40.95589213109281
-0.25070000000000003,-41.182245939071215
-0.2516999999999999,-41.39445263405098
-0.25270000000000004,-41.606659329030734
-0.2536999999999999,-41.87545447600508
-0.25470000000000004,-42.130102509980794
-0.2556999999999999,-42.3564563179592
-0.25670000000000004,-42.568663012938956
-0.25769999999999993,-42.752575481921404
-0.25870000000000004,-42.92234083790521
-0.25969999999999993,-43.17698887188092
-0.26070000000000004,-43.36090134086337
-0.26169999999999993,-43.57310803584313
-0.26270000000000004,-43.84190318281749
-0.26369999999999993,-44.054109877797245
-0.26470000000000005,-44.3229050247716
-0.26569999999999994,-44.535111719751356
-0.26670000000000005,-44.80390686672572
-0.26769999999999994,-45.01611356170547
-0.26870000000000005,-45.27076159568118
-0.26969999999999994,-45.53955674265553
-0.27070000000000005,-45.75176343763528
-0.27169999999999994,-46.02055858460964
-0.27270000000000005,-46.27520661858535
-0.27369999999999994,-46.544001765559706
-0.27470000000000006,-46.84109113853137
-0.27569999999999995,-47.19476896349763
-0.27670000000000006,-47.506005449467935
-0.27769999999999995,-47.84553616143554
-0.27870000000000006,-48.24165532539775
-0.27969999999999995,-48.59533315036401
-0.28070000000000006,-48.89242252333566
-0.28169999999999995,-49.16121767031002
-0.28270000000000006,-49.373424365289786
-0.28369999999999995,-49.59977817326819
-0.28470000000000006,-49.81198486824794
-0.28569999999999995,-50.0807800152223
-0.28670000000000007,-50.29298671020206
-0.28769999999999996,-50.547634744177756
-0.28870000000000007,-50.81642989115212
-0.28969999999999996,-51.17010771611838
-0.29070000000000007,-51.46719708909004
-0.29169999999999996,-51.82087491405629
-0.29270000000000007,-52.11796428702795
-0.29369999999999996,-52.42920077299826
-0.2947000000000001,-52.69799591997262
-0.29569999999999996,-52.95264395394832
-0.2967000000000001,-53.22143910092268
-0.29769999999999996,-53.476087134898386
-0.2987000000000001,-53.7873236208687
-0.29969999999999997,-54.1268543328363
-0.3007000000000001,-54.52297349679851
-0.30169999999999997,-54.919092660760725
-0.3027000000000001,-55.31521182472294
-0.30369999999999997,-55.65474253669055
-0.3047000000000001,-55.96597902266086
-0.30569999999999997,-56.1781857176406
-0.3067000000000001,-56.36209818662306
-0.3077,-56.489422203610914
-0.3087000000000001,-56.57430488160282
-0.3097,-56.74407023758662
-0.3107000000000001,-56.927982706569075
-0.3117,-57.22507207954074
-0.3127000000000001,-57.493867226515086
-0.3137,-57.87583927747865
-0.3147000000000001,-58.18707576344896
-0.3157,-58.498312249419264
-0.3167000000000001,-58.75296028339497
-0.3177,-58.880284300382826
-0.3187000000000001,-59.06419676936528
-0.3197,-59.19152078635314
-0.3207000000000001,-59.31884480334099
-0.3217,-59.587639950315335
-0.3227000000000001,-59.92717066228296
-0.3237,-60.36573116524111
-0.3247000000000001,-60.84673300719523
-0.3257,-61.37017618814529
-0.3267000000000001,-61.851178030099405
-0.3277,-62.24729719406162
-0.3287000000000001,-62.58682790602922
-0.3297,-62.855623053003576
-0.3307000000000001,-63.11027108697928
-0.3317,-63.37906623395363
-0.3327000000000001,-63.6761556069253
-0.3337,-64.0722747708875
-0.3347000000000001,-64.51083527384567
-0.3357,-65.03427845479574
-0.3367000000000001,-65.60016297474175
-0.3377,-66.12360615569182
-0.3387000000000001,-66.60460799764593
-0.3397,-67.00072716160814
-0.3407000000000001,-67.25537519558385
-0.3417,-67.56661168155415
-0.3427000000000001,-67.86370105452582
-0.3437,-68.13249620150016
-0.3447000000000001,-68.48617402646643
-0.3457,-68.86814607742998
-0.3467000000000001,-69.26426524139221
-0.3477,-69.70282574435035
-0.3487000000000001,-70.05650356931662
-0.3497,-70.39603428128423
-0.3507000000000001,-70.66482942825859
-0.3517,-70.91947746223428
-0.3527000000000001,-71.1458312702127
-0.3537,-71.35803796519245
-0.3547000000000001,-71.58439177317086
-0.3557,-71.7965984681506
-0.35670000000000013,-72.05124650212633
-0.3577,-72.36248298809663
-0.35870000000000013,-72.71616081306288
-0.3597,-73.0556915250305
-0.36070000000000013,-73.45181068899271
-0.3617,-73.8479298529549
-0.3626999999999999,-74.24404901691713
-0.3637,-74.58357972888473
-0.3646999999999999,-74.8523748758591
-0.3657,-75.1070229098348
-0.3666999999999999,-75.4182593958051
-0.3677,-75.6729074297808
-0.3686999999999999,-76.02658525474708
-0.36970000000000003,-76.42270441870929
-0.3706999999999999,-76.86126492166746
-0.37170000000000003,-77.34226676362155
-0.3726999999999999,-77.80912149257702
-0.37370000000000003,-78.33256467352709
-0.3746999999999999,-78.8135665154812
-0.37570000000000003,-79.2945683574353
-0.3766999999999999,-79.69068752139752
-0.37770000000000004,-80.04436534636378
-0.3786999999999999,-80.34145471933543
-0.37970000000000004,-80.65269120530574
-0.3806999999999999,-80.9497805782774
-0.38170000000000004,-81.30345840324367
-0.38269999999999993,-81.74201890620182
-0.38370000000000004,-82.26546208715187
-0.38469999999999993,-82.78890526810196
-0.38570000000000004,-83.31234844905201
-0.38669999999999993,-83.75090895201016
-0.38770000000000004,-84.04799832498183
-0.38869999999999993,-84.27435213296022
-0.38970000000000005,-84.44411748894404
-0.39069999999999994,-84.57144150593189
-0.39170000000000005,-84.7977953139103
-0.39269999999999994,-85.052443347886
-0.39370000000000005,-85.40612117285227
-0.39469999999999994,-85.84468167581042
-0.39570000000000005,-86.28324217876859
-0.39669999999999994,-86.7076555687281
-0.39770000000000005,-87.10377473269031
-0.39869999999999994,-87.49989389665252
-0.39970000000000006,-87.79698326962418
-0.40069999999999995,-88.19310243358639
-0.40170000000000006,-88.54678025855264
-0.40269999999999995,-88.9004580835189
-0.40370000000000006,-89.42390126446898
-0.40469999999999995,-89.98978578441499
-0.40570000000000006,-90.59811164335694
-0.40669999999999995,-91.20643750229891
-0.40770000000000006,-91.81476336124088
-0.40869999999999995,-92.29576520319499
-0.40970000000000006,-92.6918843671572
-0.41069999999999995,-92.90409106213696
-0.41170000000000007,-93.03141507912481
-0.41269999999999996,-93.03141507912481
-0.41370000000000007,-93.13044487011537
-0.41469999999999996,-93.25776888710321
-0.41570000000000007,-93.51241692107894
-0.41669999999999996,-93.90853608504113
-0.41770000000000007,-94.34709658799929
-0.41869999999999996,-94.78565709095746
-0.4197000000000001,-95.26665893291157
-0.42069999999999996,-95.64863098387512
-0.4217000000000001,-95.95986746984543
-0.42269999999999996,-96.21451550382113
-0.4237000000000001,-96.44086931179956
-0.42469999999999997,-96.79454713676581
-0.4257000000000001,-97.21896052672531
-0.42669999999999997,-97.74240370767538
-0.4277000000000001,-98.3082882276214
-0.42869999999999997,-98.88831986056607
-0.4297000000000001,-99.35517458952152
-0.43069999999999997,-99.66641107549184
-0.4317000000000001,-99.87861777047159
-0.4327,-100.02008890045809
-0.4337000000000001,-100.14741291744595
-0.4347,-100.23229559543785
-0.4357000000000001,-100.40206095142165
-0.4367,-100.670856098396
-0.4377000000000001,-100.98209258436633
-0.4387,-101.32162329633393
-0.4397000000000001,-101.59041844330828
-0.4407,-101.80262513828804
-0.4417000000000001,-102.07142028526239
-0.4427,-102.36850965823406
-0.4437000000000001,-102.80707016119221
-0.4447,-103.28807200314633
-0.4457000000000001,-103.76907384510045
-0.4467,-104.2925170260505
-0.4477000000000001,-104.77351886800463
-0.4487,-105.11304957997223
-0.4497000000000001,-105.46672740493848
-0.4507,-105.73552255191284
-0.4517000000000001,-106.0326119248845
-0.4527,-106.38628974985076
-0.4537000000000001,-106.73996757481702
-0.4547,-107.16438096477653
-0.4557000000000001,-107.56050012873874
-0.4567,-107.87173661470905
-0.4577000000000001,-108.04150197069285
-0.4587,-108.12638464868475
-0.4597000000000001,-108.1688259876807
-0.4607,-108.2537086656726
-0.4617000000000001,-108.35273845666316
-0.4627,-108.52250381264696
-0.4637000000000001,-108.77715184662266
-0.4647,-109.08838833259297
-0.4657000000000001,-109.44206615755924
-0.4667,-109.73915553053091
-0.4677000000000001,-110.00795067750525
-0.4687,-110.17771603348905
-0.4697000000000001,-110.34748138947285
-0.4707,-110.48895251945936
-0.4717000000000001,-110.70115921443913
-0.4727,-110.92751302241753
-0.4737000000000001,-111.22460239538917
-0.4747,-111.49339754236355
-0.4757000000000001,-111.74804557633925
-0.4767,-111.96025227131899
-0.4777000000000001,-112.14416474030146
-0.4787,-112.31393009628526
-0.4797000000000001,-112.39881277427718
-0.4807,-112.58272524325962
-0.48170000000000013,-112.71004926024747
-0.4827,-112.87981461623129
-0.48370000000000013,-113.10616842420968
-0.4847,-113.31837511918944
-0.48570000000000013,-113.53058181416918
-0.4867,-113.67205294415571
-0.4876999999999999,-113.84181830013951
-0.4887,-114.0115836561233
-0.4896999999999999,-114.23793746410173
-0.4907,-114.40770282008553
-0.4916999999999999,-114.57746817606933
-0.4927,-114.67649796705987
-0.4936999999999999,-114.80382198404773
-0.49470000000000003,-114.84626332304367
-0.4956999999999999,-114.80382198404773
-0.49670000000000003,-114.76138064505177
-0.4976999999999999,-114.76138064505177
-0.49870000000000003,-114.80382198404773
-0.4996999999999999,-114.84626332304367
-0.5007,-114.88870466203963
-0.5016999999999999,-114.88870466203963
-0.5027,-114.76138064505177
-0.5036999999999999,-114.57746817606933
-0.5047,-114.36526148108955
-0.5056999999999999,-114.19549612510575
-0.5067,-113.96914231712736
-0.5076999999999999,-113.88425963913545
-0.5087,-113.79937696114357
