Potential V vs RHE, Current mA cm-2
0.013299999999999867,5.886613718738418
0.012299999999999978,5.3631705377883545
0.011299999999999866,4.883583407134107
0.010299999999999976,4.490293665771627
0.009299999999999864,4.054562585413195
0.008299999999999974,3.6174167937548987
0.007299999999999862,3.2693978139880997
0.006299999999999972,2.963820173217252
0.00529999999999986,2.658242532446404
0.0042999999999999705,2.4842330425630044
0.0032999999999998586,2.1347993514963406
0.0022999999999999687,1.8292217107254924
0.0012999999999998568,1.4812027309586933
0.00029999999999996696,1.175483619057859
-0.000700000000000145,0.9573351366186703
-0.0017000000000000348,0.6084673300719523
-0.0027000000000001467,0.3467457395969205
-0.0037000000000000366,0.12863969849672777
-0.0047000000000001485,-0.04582249900262853
-0.005700000000000038,-0.26384365742482935
-0.00670000000000015,-0.4384190318281749
-0.00770000000000004,-0.7437137303390498
-0.008700000000000152,-1.0054353208140816
-0.009700000000000042,-1.2234423321232837
-0.010700000000000154,-1.3980177065266295
-0.011700000000000044,-1.5717442541500557
-0.012700000000000156,-1.7471684553333202
-0.013700000000000045,-1.92117794521672
-0.014700000000000157,-2.095187435100119
-0.015700000000000047,-2.3144676865791998
-0.01670000000000016,-2.532333226758415
-0.01770000000000005,-2.706342716641815
-0.01870000000000016,-2.8803522065252145
-0.01970000000000005,-3.055776407708479
-0.020700000000000163,-3.1859298472960624
-0.021700000000000053,-3.317497998183511
-0.022700000000000164,-3.4915074880669104
-0.023700000000000054,-3.623075638954359
-0.024700000000000166,-3.840941179133574
-0.025700000000000056,-3.971094618721158
-0.026700000000000168,-4.146518819904423
-0.027700000000000058,-4.276672259492005
-0.02870000000000017,-4.406825699079589
-0.02970000000000006,-4.494537799671222
-0.03070000000000017,-4.668547289554621
-0.03170000000000006,-4.756259390146253
-0.03270000000000017,-4.9302688800296535
-0.03370000000000006,-5.105693081212917
-0.034700000000000175,-5.235846520800501
-0.035700000000000065,-5.367414671687949
-0.03670000000000018,-5.5414241615713475
-0.03770000000000007,-5.672992312458796
-0.03870000000000018,-5.80314575204638
-0.03970000000000007,-5.9347139029338285
-0.04070000000000018,-6.064867342521412
-0.04170000000000007,-6.196435493408861
-0.04270000000000018,-6.326588932996443
-0.04370000000000007,-6.414301033588076
-0.044700000000000184,-6.54445447317566
-0.045700000000000074,-6.588310523471475
-0.046700000000000186,-6.632166573767292
-0.047700000000000076,-6.719878674358924
-0.04870000000000019,-6.850032113946507
-0.04970000000000008,-7.024041603829907
-0.05070000000000019,-7.199465805013171
-0.05170000000000008,-7.37347529489657
-0.05270000000000019,-7.50504344578402
-0.05370000000000008,-7.635196885371603
-0.05470000000000019,-7.722908985963235
-0.05570000000000008,-7.853062425550818
-0.056700000000000195,-7.940774526142452
-0.057700000000000085,-8.027071915434218
-0.058700000000000196,-8.158640066321666
-0.059700000000000086,-8.246352166913299
-0.0607000000000002,-8.288793505909249
-0.06170000000000009,-8.376505606500881
-0.0627000000000002,-8.464217707092514
-0.06370000000000009,-8.594371146680096
-0.0647000000000002,-8.725939297567548
-0.06570000000000009,-8.85609273715513
-0.0667000000000002,-9.031516938338395
-0.0677000000000001,-9.205526428221793
-0.0687000000000002,-9.423391968401008
-0.0697000000000001,-9.55496011928846
-0.07070000000000021,-9.641257508580225
-0.0717000000000001,-9.685113558876042
-0.07270000000000021,-9.728969609171857
-0.0737000000000001,-9.85912304875944
-0.07470000000000021,-9.99069119964689
-0.0757000000000001,-10.120844639234473
-0.07670000000000021,-10.25241279012192
-0.0777000000000001,-10.340124890713554
-0.07870000000000021,-10.382566229709504
-0.0797000000000001,-10.42642228000532
-0.08070000000000022,-10.42642228000532
-0.0817000000000001,-10.514134380596953
-0.08270000000000022,-10.644287820184536
-0.08370000000000011,-10.775855971071984
-0.08470000000000022,-10.906009410659568
-0.08570000000000011,-10.993721511251199
-0.08670000000000022,-11.123874950838783
-0.08770000000000011,-11.211587051430415
-0.08870000000000022,-11.343155202317865
-0.08970000000000011,-11.517164692201263
-0.09070000000000022,-11.691174182084664
-0.09170000000000011,-11.86659838326793
-0.09270000000000023,-12.084463923447142
-0.09370000000000012,-12.214617363034726
-0.09470000000000023,-12.346185513922174
-0.09570000000000012,-12.432482903213943
-0.09670000000000023,-12.476338953509758
-0.09770000000000012,-12.56405105410139
-0.09870000000000023,-12.651763154693022
-0.09970000000000012,-12.781916594280606
-0.10070000000000023,-12.913484745168056
-0.10170000000000012,-12.99978213445982
-0.10270000000000024,-13.087494235051453
-0.10370000000000013,-13.13135028534727
-0.10470000000000024,-13.217647674639037
-0.10570000000000013,-13.30535977523067
-0.10670000000000024,-13.3930718758223
-0.10770000000000013,-13.567081365705702
-0.10870000000000024,-13.741090855589102
-0.10970000000000013,-13.828802956180734
-0.11070000000000024,-13.916515056772363
-0.11170000000000013,-14.046668496359947
-0.11270000000000002,-14.175407224647667
-0.11370000000000013,-14.30273124163552
-0.11470000000000002,-14.444202371622024
-0.11570000000000014,-14.57152638860988
-0.11670000000000003,-14.65640906660178
-0.11770000000000014,-14.826174422585586
-0.11870000000000003,-14.967645552572087
-0.11970000000000014,-15.094969569559943
-0.12070000000000003,-15.222293586547794
-0.12170000000000014,-15.349617603535648
-0.12270000000000003,-15.491088733522153
-0.12370000000000014,-15.575971411514052
-0.12470000000000003,-15.660854089505953
-0.12570000000000014,-15.74573676749786
-0.12670000000000003,-15.78817810649381
-0.12770000000000015,-15.830619445489761
-0.12870000000000004,-15.91550212348166
-0.12970000000000015,-16.056973253468165
-0.13070000000000004,-16.269179948447924
-0.13170000000000015,-16.495533756426326
-0.13270000000000004,-16.750181790402035
-0.13370000000000015,-16.919947146385837
-0.13470000000000004,-17.103859615368293
-0.13570000000000015,-17.188742293360193
-0.13670000000000004,-17.231183632356142
-0.13770000000000016,-17.316066310348052
-0.13870000000000005,-17.4433903273359
-0.13970000000000016,-17.627302796318357
-0.14070000000000005,-17.797068152302163
-0.14170000000000016,-18.009274847281915
-0.14270000000000005,-18.27806999425627
-0.14370000000000016,-18.49027668923603
-0.14470000000000005,-18.716630497214435
-0.14570000000000016,-18.97127853119014
-0.14670000000000005,-19.155191000172596
-0.14770000000000016,-19.3249563561564
-0.14870000000000005,-19.409839034148305
-0.14970000000000017,-19.49472171214021
-0.15070000000000006,-19.537163051136158
-0.15170000000000017,-19.537163051136158
-0.15270000000000006,-19.636192842126707
-0.15370000000000017,-19.636192842126707
-0.15470000000000006,-19.579604390132108
-0.15570000000000017,-19.636192842126707
-0.15670000000000006,-19.721075520118614
-0.15770000000000017,-19.890840876102416
-0.15870000000000006,-20.06060623208622
-0.15970000000000018,-20.286960040064624
-0.16070000000000007,-20.499166735044383
-0.16170000000000018,-20.76796188201874
-0.16270000000000007,-20.980168576998494
-0.16370000000000018,-21.149933932982297
-0.16470000000000007,-21.333846401964752
-0.16570000000000018,-21.461170418952605
-0.16670000000000007,-21.63093577493641
-0.16770000000000018,-21.814848243918867
-0.16870000000000007,-21.98461359990267
-0.16970000000000018,-22.15437895588647
-0.17070000000000007,-22.38073276386488
-0.17170000000000019,-22.550498119848687
-0.17270000000000008,-22.67782213683654
-0.1737000000000002,-22.819293266823045
-0.17470000000000008,-22.861734605818995
-0.1757000000000002,-22.861734605818995
-0.17670000000000008,-22.819293266823045
-0.1777000000000002,-22.776851927827092
-0.17870000000000008,-22.819293266823045
-0.1797000000000002,-22.946617283810895
-0.18070000000000008,-23.24370665678255
-0.1817000000000002,-23.682267159740714
-0.18270000000000008,-24.20571034069078
-0.1837000000000002,-24.64427084364894
-0.1847000000000001,-24.870624651627345
-0.1857000000000002,-24.9130659906233
-0.1867000000000001,-24.870624651627345
-0.1877000000000002,-24.771594860636792
-0.1887000000000001,-24.771594860636792
-0.1897000000000002,-24.870624651627345
-0.1907000000000001,-25.0828313466071
-0.1917000000000001,-25.252596702590903
-0.19269999999999998,-25.521391849565262
-0.1937000000000001,-25.81848122253692
-0.19469999999999998,-26.087276369511276
-0.1957000000000001,-26.34192440348698
-0.19669999999999999,-26.568278211465387
-0.1977000000000001,-26.69560222845324
-0.1987,-26.86536758443705
-0.1997000000000001,-27.00683871442355
-0.2007,-27.091721392415455
-0.2017000000000001,-27.176604070407354
-0.2027,-27.261486748399253
-0.2037000000000001,-27.43125210438306
-0.2047,-27.572723234369565
-0.2057000000000001,-27.742488590353368
-0.2067,-27.912253946337174
-0.2077000000000001,-28.18104909331153
-0.2087,-28.435697127287238
-0.2097000000000001,-28.746933613257543
-0.2107,-29.058170099227848
-0.2117000000000001,-29.31281813320356
-0.2127,-29.482583489187363
-0.2137000000000001,-29.581613280177915
-0.2147,-29.62405461917387
-0.2157000000000001,-29.708937297165768
-0.2167,-29.836261314153624
-0.21770000000000012,-29.96358533114148
-0.2187,-30.04846800913338
-0.21970000000000012,-30.10505646112798
-0.2207,-30.189939139119886
-0.22170000000000012,-30.232380478115836
-0.2227,-30.274821817111786
-0.22370000000000012,-30.359704495103685
-0.2247,-30.487028512091538
-0.22570000000000012,-30.8407063370578
-0.2267,-31.449032195999767
-0.22770000000000012,-32.14224073293363
-0.22870000000000001,-32.58080123589179
-0.22970000000000013,-32.892037721862096
-0.23070000000000002,-32.97692039985401
-0.23170000000000013,-32.97692039985401
-0.23270000000000002,-32.892037721862096
-0.23370000000000013,-32.807155043870196
-0.23470000000000002,-32.807155043870196
-0.23570000000000013,-32.892037721862096
-0.23670000000000002,-33.01936173884996
-0.2376999999999999,-33.18912709483376
-0.23870000000000002,-33.50036358080407
-0.2396999999999999,-33.93892408376223
-0.24070000000000003,-34.41992592571634
-0.24169999999999991,-34.94336910666641
-0.24270000000000003,-35.42437094862052
-0.24369999999999992,-35.806342999584075
-0.24470000000000003,-36.16002082455034
-0.24569999999999992,-36.47125731052064
-0.24670000000000003,-36.6834640055004
-0.24769999999999992,-36.81078802248826
-0.24870000000000003,-36.95225915247476
-0.24969999999999992,-37.037141830466666
-0.25070000000000003,-37.037141830466666
-0.2516999999999999,-37.037141830466666
-0.25270000000000004,-37.037141830466666
-0.2536999999999999,-37.037141830466666
-0.25470000000000004,-37.07958316946261
-0.2556999999999999,-37.206907186450465
-0.25670000000000004,-37.51814367242077
-0.25769999999999993,-37.90011572338433
-0.25870000000000004,-38.29623488734655
-0.25969999999999993,-38.734795390304704
-0.26070000000000004,-39.046031876275016
-0.26169999999999993,-39.34312124924667
-0.26270000000000004,-39.654357735216976
-0.26369999999999993,-39.99388844718459
-0.26470000000000005,-40.30512493315489
-0.26569999999999994,-40.616361419125205
-0.26670000000000005,-40.95589213109281
-0.26769999999999994,-41.182245939071215
-0.26870000000000005,-41.39445263405098
-0.26969999999999994,-41.52177665103883
-0.27070000000000005,-41.70568912002128
-0.27169999999999994,-41.83301313700913
-0.27270000000000005,-42.04521983198889
-0.27369999999999994,-42.31401497896325
-0.27470000000000006,-42.568663012938956
-0.27569999999999995,-42.837458159913304
-0.27670000000000006,-43.134547532884966
-0.27769999999999995,-43.40334267985933
-0.27870000000000006,-43.657990713835034
-0.27969999999999995,-43.88434452181344
-0.28070000000000006,-44.138992555789144
-0.28169999999999995,-44.4077877027635
-0.28270000000000006,-44.704877075735155
-0.28369999999999995,-45.01611356170547
-0.28470000000000006,-45.32735004767578
-0.28569999999999995,-45.581998081651484
-0.28670000000000007,-45.75176343763528
-0.28769999999999996,-45.97811724561369
-0.28870000000000007,-46.147882601597495
-0.28969999999999996,-46.45911908756781
-0.29070000000000007,-46.79864979953541
-0.29169999999999996,-47.15232762450167
-0.29270000000000007,-47.54844678846388
-0.29369999999999996,-47.76065348344364
-0.2947000000000001,-47.93041883942744
-0.29569999999999996,-48.071889969413945
-0.2967000000000001,-48.1992139864018
-0.29769999999999996,-48.41142068138156
-0.2987000000000001,-48.68021582835591
-0.29969999999999997,-49.03389365332217
-0.3007000000000001,-49.41586570428573
-0.30169999999999997,-49.72710219025603
-0.3027000000000001,-50.024191563227696
-0.30369999999999997,-50.335428049198
-0.3047000000000001,-50.64666453516831
-0.30569999999999997,-51.071077925127824
-0.3067000000000001,-51.509638428085985
-0.3077,-51.90575759204819
-0.3087000000000001,-52.11796428702795
-0.3097,-52.34431809500636
-0.3107000000000001,-52.514083450990164
-0.3117,-52.69799591997262
-0.3127000000000001,-52.95264395394832
-0.3137,-53.26388043991864
-0.3147000000000001,-53.518528473894335
-0.3157,-53.82976495986464
-0.3167000000000001,-54.0419716548444
-0.3177,-54.35320814081471
-0.3187000000000001,-54.69273885278232
-0.3197,-55.13129935574048
-0.3207000000000001,-55.56985985869864
-0.3217,-55.9235376836649
-0.3227000000000001,-56.1781857176406
-0.3237,-56.44698086461496
-0.3247000000000001,-56.70162889859067
-0.3257,-57.14018940154883
-0.3267000000000001,-57.62119124350295
-0.3277,-58.017310407465146
-0.3287000000000001,-58.27195844144086
-0.3297,-58.39928245842871
-0.3307000000000001,-58.45587091042332
-0.3317,-58.71051894439902
-0.3327000000000001,-59.14907944735718
-0.3337,-59.67252262830725
-0.3347000000000001,-60.15352447026136
-0.3357,-60.49305518222897
-0.3367000000000001,-60.80429166819927
-0.3377,-61.01649836317903
-0.3387000000000001,-61.37017618814529
-0.3397,-61.80873669110345
-0.3407000000000001,-62.28973853305756
-0.3417,-62.68585769701977
-0.3427000000000001,-62.98294706999144
-0.3437,-63.251742216965795
-0.3447000000000001,-63.421507572949594
-0.3457,-63.6761556069253
-0.3467000000000001,-64.02983343189156
-0.3477,-64.38351125685783
-0.3487000000000001,-64.77963042082003
-0.3497,-65.20404381077954
-0.3507000000000001,-65.60016297474175
-0.3517,-65.99628213870396
-0.3527000000000001,-66.39240130266617
-0.3537,-66.68949067563783
-0.3547000000000001,-67.00072716160814
-0.3557,-67.25537519558385
-0.35670000000000013,-67.6090530205501
-0.3577,-67.96273084551636
-0.35870000000000013,-68.34470289647993
-0.3597,-68.65593938245023
-0.36070000000000013,-68.86814607742998
-0.3617,-69.05205854641244
-0.3626999999999999,-69.26426524139221
-0.3637,-69.57550172736251
-0.3646999999999999,-69.95747377832606
-0.3657,-70.39603428128423
-0.3666999999999999,-70.62238808926263
-0.3677,-70.70727076725453
-0.3686999999999999,-70.74971210625048
-0.36970000000000003,-71.0043601402262
-0.3706999999999999,-71.8814811461425
-0.37170000000000003,-72.97080884703858
-0.3726999999999999,-74.20160767792116
-0.37370000000000003,-75.2484940398213
-0.3746999999999999,-75.85681989876326
-0.37570000000000003,-76.19635061073087
-0.3766999999999999,-76.15390927173492
-0.37770000000000004,-75.81437855976732
-0.3786999999999999,-75.4182593958051
-0.37970000000000004,-74.97969889284694
-0.3806999999999999,-74.72505085887124
-0.38170000000000004,-74.72505085887124
-0.38269999999999993,-74.93725755385098
-0.38370000000000004,-75.4182593958051
-0.38469999999999993,-76.06902659374302
-0.38570000000000004,-76.9037062606634
-0.38669999999999993,-77.7242388145851
-0.38770000000000004,-78.68624249849334
-0.38869999999999993,-79.52092216541372
-0.38970000000000005,-80.38389605833139
-0.39069999999999994,-81.04881036926795
-0.39170000000000005,-81.47322375922747
-0.39269999999999994,-81.57225355021802
-0.39370000000000005,-81.26101706424771
-0.39469999999999994,-80.73757388329766
-0.39570000000000005,-80.52536718831789
-0.39669999999999994,-80.56780852731384
-0.39770000000000005,-80.69513254430169
-0.39869999999999994,-80.82245656128954
-0.39970000000000006,-81.09125170826391
-0.40069999999999995,-81.3458997422396
-0.40170000000000006,-81.69957756720586
-0.40269999999999995,-82.39278610413973
-0.40370000000000006,-83.26990711005605
-0.40469999999999995,-84.23191079396429
-0.40570000000000006,-85.13732602587791
-0.40669999999999995,-85.84468167581042
-0.40770000000000006,-86.05688837079018
-0.40869999999999995,-86.32568351776455
-0.40970000000000006,-86.45300753475239
-0.41069999999999995,-86.6227728907362
-0.41170000000000007,-86.84912669871461
-0.41269999999999996,-87.06133339369435
-0.41370000000000007,-87.27354008867411
-0.41469999999999996,-87.18865741068221
-0.41570000000000007,-87.18865741068221
-0.41669999999999996,-87.01889205469841
-0.41770000000000007,-86.89156803771054
-0.41869999999999996,-86.93400937670651
-0.4197000000000001,-87.14621607168625
-0.42069999999999996,-87.54233523564847
-0.4217000000000001,-88.06577841659853
-0.42269999999999996,-88.63166293654454
-0.4237000000000001,-89.15510611749461
-0.42469999999999997,-89.59366662045278
-0.4257000000000001,-89.98978578441499
-0.42669999999999997,-90.24443381839069
-0.4277000000000001,-90.55567030436099
-0.42869999999999997,-90.81031833833671
-0.4297000000000001,-91.03667214631511
-0.43069999999999997,-91.24887884129487
-0.4317000000000001,-91.33376151928677
-0.4327,-91.29132018029082
-0.4337000000000001,-91.24887884129487
-0.4347,-91.37620285828272
-0.4357000000000001,-91.64499800525708
-0.4367,-92.04111716921928
-0.4377000000000001,-92.3806478811869
-0.4387,-92.6070016891653
-0.4397000000000001,-92.81920838414506
-0.4407,-92.90409106213696
-0.4417000000000001,-92.98897374012887
-0.4427,-93.08800353111941
-0.4437000000000001,-93.08800353111941
-0.4447,-93.21532754810727
-0.4457000000000001,-93.25776888710321
-0.4467,-93.25776888710321
-0.4477000000000001,-93.30021022609918
-0.4487,-93.51241692107894
-0.4497000000000001,-93.69632939006138
-0.4507,-94.03586010202899
-0.4517000000000001,-94.26221391000739
-0.4527,-94.34709658799929
-0.4537000000000001,-94.30465524900335
-0.4547,-94.21977257101145
-0.4557000000000001,-94.17733123201549
-0.4567,-94.07830144102493
-0.4577000000000001,-94.07830144102493
-0.4587,-93.86609474604518
-0.4597000000000001,-93.65388805106544
-0.4607,-93.03141507912481
-0.4617000000000001,-92.4655305591788
-0.4627,-91.81476336124088
-0.4637000000000001,-91.24887884129487
-0.4647,-90.89520101632861
-0.4657000000000001,-90.59811164335694
-0.4667,-90.7254356603448
-0.4677000000000001,-90.89520101632861
-0.4687,-91.29132018029082
-0.4697000000000001,-91.77232202224494
-0.4707,-92.25332386419905
-0.4717000000000001,-92.64944302816124
-0.4727,-92.86164972314101
-0.4737000000000001,-92.94653240113291
-0.4747,-92.86164972314101
-0.4757000000000001,-92.6918843671572
-0.4767,-92.3806478811869
-0.4777000000000001,-91.89964603923279
-0.4787,-91.41864419727867
-0.4797000000000001,-90.89520101632861
-0.4807,-90.47078762636909
-0.48170000000000013,-90.15955114039879
-0.4827,-89.67854929844468
-0.48370000000000013,-89.32487147347842
-0.4847,-89.02778210050676
-0.48570000000000013,-88.8438696315243
-0.4867,-88.9004580835189
-0.4876999999999999,-89.02778210050676
-0.4887,-89.15510611749461
-0.4896999999999999,-89.23998879548651
-0.4907,-89.32487147347842
-0.4916999999999999,-89.42390126446898
-0.4927,-89.59366662045278
-0.4936999999999999,-89.84831465442848
-0.49470000000000003,-90.11710980140283
-0.4956999999999999,-90.28687515738663
-0.49670000000000003,-90.24443381839069
-0.4976999999999999,-90.11710980140283
-0.49870000000000003,-89.89075599342443
-0.4996999999999999,-89.76343197643658
-0.5007,-89.59366662045278
-0.5016999999999999,-89.59366662045278
-0.5027,-89.46634260346492
-0.5036999999999999,-89.28243013448247
-0.5047,-89.15510611749461
-0.5056999999999999,-89.19754745649055
-0.5067,-89.15510611749461
-0.5076999999999999,-89.15510611749461
-0.5087,-89.19754745649055
-0.5096999999999999,-89.15510611749461
-0.5107,-89.07022343950271
