Dec. 10, 2024   23:35:21
Cyclic Voltammetry
File: c:/users/guazh/data/banditlqround7_x0exp59_r20/2024-12-09-exp622\exp622-2024-12-10t23_19_48-h2koh\exp622_cv_sr_600mvs_efin_-1600mv.bin
Data Source:  Experiment
Instrument Model:  CHI760E
Header: CV ran at 600 mVs
Note: 

Init E (V) = -1
High E (V) = -1
Low E (V) = -1.6
Final E (V) = -1
Init P/N = N
Scan Rate (V/s) = 0.6
Segment = 3
Sample Interval (V) = 0.001
Quiet Time (sec) = 2
Sensitivity (A/V) = 0.01
Comp R (ohm) = 1.2

Results:

Channel 1:
Segment 1:

Segment 2:

Segment 3:

Potential/V, Current/A

-1.000, -4.191e-4
-1.001, -3.791e-4
-1.002, -3.452e-4
-1.003, -3.112e-4
-1.004, -2.835e-4
-1.005, -2.557e-4
-1.006, -2.311e-4
-1.007, -2.064e-4
-1.008, -1.817e-4
-1.009, -1.571e-4
-1.010, -1.355e-4
-1.011, -1.108e-4
-1.012, -8.925e-5
-1.013, -6.767e-5
-1.014, -4.917e-5
-1.015, -2.759e-5
-1.016, -1.218e-5
-1.017, 6.322e-6
-1.018, 2.482e-5
-1.019, 4.024e-5
-1.020, 5.873e-5
-1.021, 7.723e-5
-1.022, 9.573e-5
-1.023, 1.111e-4
-1.024, 1.235e-4
-1.025, 1.389e-4
-1.026, 1.512e-4
-1.027, 1.666e-4
-1.028, 1.790e-4
-1.029, 1.944e-4
-1.030, 2.098e-4
-1.031, 2.252e-4
-1.032, 2.406e-4
-1.033, 2.530e-4
-1.034, 2.653e-4
-1.035, 2.776e-4
-1.036, 2.900e-4
-1.037, 2.992e-4
-1.038, 3.115e-4
-1.039, 3.270e-4
-1.040, 3.393e-4
-1.041, 3.516e-4
-1.042, 3.640e-4
-1.043, 3.732e-4
-1.044, 3.825e-4
-1.045, 3.917e-4
-1.046, 4.010e-4
-1.047, 4.102e-4
-1.048, 4.195e-4
-1.049, 4.287e-4
-1.050, 4.410e-4
-1.051, 4.534e-4
-1.052, 4.657e-4
-1.053, 4.780e-4
-1.054, 4.873e-4
-1.055, 4.935e-4
-1.056, 5.027e-4
-1.057, 5.120e-4
-1.058, 5.212e-4
-1.059, 5.335e-4
-1.060, 5.428e-4
-1.061, 5.551e-4
-1.062, 5.644e-4
-1.063, 5.736e-4
-1.064, 5.798e-4
-1.065, 5.890e-4
-1.066, 5.952e-4
-1.067, 6.014e-4
-1.068, 6.106e-4
-1.069, 6.168e-4
-1.070, 6.291e-4
-1.071, 6.384e-4
-1.072, 6.476e-4
-1.073, 6.569e-4
-1.074, 6.661e-4
-1.075, 6.723e-4
-1.076, 6.815e-4
-1.077, 6.908e-4
-1.078, 7.000e-4
-1.079, 7.093e-4
-1.080, 7.185e-4
-1.081, 7.309e-4
-1.082, 7.401e-4
-1.083, 7.463e-4
-1.084, 7.555e-4
-1.085, 7.617e-4
-1.086, 7.679e-4
-1.087, 7.740e-4
-1.088, 7.833e-4
-1.089, 7.925e-4
-1.090, 8.018e-4
-1.091, 8.110e-4
-1.092, 8.203e-4
-1.093, 8.295e-4
-1.094, 8.357e-4
-1.095, 8.418e-4
-1.096, 8.480e-4
-1.097, 8.542e-4
-1.098, 8.634e-4
-1.099, 8.727e-4
-1.100, 8.850e-4
-1.101, 8.943e-4
-1.102, 9.035e-4
-1.103, 9.128e-4
-1.104, 9.220e-4
-1.105, 9.282e-4
-1.106, 9.343e-4
-1.107, 9.436e-4
-1.108, 9.498e-4
-1.109, 9.590e-4
-1.110, 9.683e-4
-1.111, 9.775e-4
-1.112, 9.868e-4
-1.113, 9.960e-4
-1.114, 1.005e-3
-1.115, 1.014e-3
-1.116, 1.018e-3
-1.117, 1.024e-3
-1.118, 1.033e-3
-1.119, 1.039e-3
-1.120, 1.048e-3
-1.121, 1.061e-3
-1.122, 1.073e-3
-1.123, 1.082e-3
-1.124, 1.092e-3
-1.125, 1.101e-3
-1.126, 1.104e-3
-1.127, 1.110e-3
-1.128, 1.119e-3
-1.129, 1.132e-3
-1.130, 1.141e-3
-1.131, 1.153e-3
-1.132, 1.169e-3
-1.133, 1.178e-3
-1.134, 1.184e-3
-1.135, 1.193e-3
-1.136, 1.196e-3
-1.137, 1.206e-3
-1.138, 1.212e-3
-1.139, 1.224e-3
-1.140, 1.236e-3
-1.141, 1.249e-3
-1.142, 1.261e-3
-1.143, 1.270e-3
-1.144, 1.277e-3
-1.145, 1.283e-3
-1.146, 1.289e-3
-1.147, 1.298e-3
-1.148, 1.310e-3
-1.149, 1.323e-3
-1.150, 1.335e-3
-1.151, 1.344e-3
-1.152, 1.354e-3
-1.153, 1.363e-3
-1.154, 1.372e-3
-1.155, 1.381e-3
-1.156, 1.391e-3
-1.157, 1.403e-3
-1.158, 1.412e-3
-1.159, 1.425e-3
-1.160, 1.434e-3
-1.161, 1.443e-3
-1.162, 1.452e-3
-1.163, 1.462e-3
-1.164, 1.471e-3
-1.165, 1.483e-3
-1.166, 1.492e-3
-1.167, 1.502e-3
-1.168, 1.511e-3
-1.169, 1.523e-3
-1.170, 1.532e-3
-1.171, 1.542e-3
-1.172, 1.554e-3
-1.173, 1.563e-3
-1.174, 1.576e-3
-1.175, 1.582e-3
-1.176, 1.591e-3
-1.177, 1.600e-3
-1.178, 1.613e-3
-1.179, 1.625e-3
-1.180, 1.640e-3
-1.181, 1.653e-3
-1.182, 1.668e-3
-1.183, 1.677e-3
-1.184, 1.687e-3
-1.185, 1.699e-3
-1.186, 1.708e-3
-1.187, 1.717e-3
-1.188, 1.730e-3
-1.189, 1.742e-3
-1.190, 1.758e-3
-1.191, 1.770e-3
-1.192, 1.779e-3
-1.193, 1.791e-3
-1.194, 1.801e-3
-1.195, 1.810e-3
-1.196, 1.819e-3
-1.197, 1.828e-3
-1.198, 1.838e-3
-1.199, 1.853e-3
-1.200, 1.865e-3
-1.201, 1.878e-3
-1.202, 1.893e-3
-1.203, 1.906e-3
-1.204, 1.918e-3
-1.205, 1.930e-3
-1.206, 1.943e-3
-1.207, 1.955e-3
-1.208, 1.970e-3
-1.209, 1.986e-3
-1.210, 2.001e-3
-1.211, 2.017e-3
-1.212, 2.032e-3
-1.213, 2.044e-3
-1.214, 2.054e-3
-1.215, 2.063e-3
-1.216, 2.075e-3
-1.217, 2.087e-3
-1.218, 2.100e-3
-1.219, 2.115e-3
-1.220, 2.128e-3
-1.221, 2.140e-3
-1.222, 2.152e-3
-1.223, 2.168e-3
-1.224, 2.183e-3
-1.225, 2.198e-3
-1.226, 2.211e-3
-1.227, 2.223e-3
-1.228, 2.235e-3
-1.229, 2.248e-3
-1.230, 2.257e-3
-1.231, 2.266e-3
-1.232, 2.279e-3
-1.233, 2.291e-3
-1.234, 2.303e-3
-1.235, 2.312e-3
-1.236, 2.325e-3
-1.237, 2.337e-3
-1.238, 2.353e-3
-1.239, 2.368e-3
-1.240, 2.386e-3
-1.241, 2.408e-3
-1.242, 2.430e-3
-1.243, 2.445e-3
-1.244, 2.460e-3
-1.245, 2.470e-3
-1.246, 2.482e-3
-1.247, 2.497e-3
-1.248, 2.516e-3
-1.249, 2.534e-3
-1.250, 2.553e-3
-1.251, 2.571e-3
-1.252, 2.584e-3
-1.253, 2.596e-3
-1.254, 2.608e-3
-1.255, 2.621e-3
-1.256, 2.633e-3
-1.257, 2.652e-3
-1.258, 2.670e-3
-1.259, 2.686e-3
-1.260, 2.701e-3
-1.261, 2.713e-3
-1.262, 2.726e-3
-1.263, 2.732e-3
-1.264, 2.741e-3
-1.265, 2.750e-3
-1.266, 2.763e-3
-1.267, 2.781e-3
-1.268, 2.800e-3
-1.269, 2.818e-3
-1.270, 2.840e-3
-1.271, 2.861e-3
-1.272, 2.880e-3
-1.273, 2.901e-3
-1.274, 2.917e-3
-1.275, 2.935e-3
-1.276, 2.957e-3
-1.277, 2.978e-3
-1.278, 3.003e-3
-1.279, 3.025e-3
-1.280, 3.043e-3
-1.281, 3.059e-3
-1.282, 3.071e-3
-1.283, 3.083e-3
-1.284, 3.099e-3
-1.285, 3.114e-3
-1.286, 3.133e-3
-1.287, 3.151e-3
-1.288, 3.173e-3
-1.289, 3.191e-3
-1.290, 3.210e-3
-1.291, 3.228e-3
-1.292, 3.247e-3
-1.293, 3.262e-3
-1.294, 3.281e-3
-1.295, 3.296e-3
-1.296, 3.311e-3
-1.297, 3.327e-3
-1.298, 3.342e-3
-1.299, 3.361e-3
-1.300, 3.382e-3
-1.301, 3.401e-3
-1.302, 3.419e-3
-1.303, 3.435e-3
-1.304, 3.450e-3
-1.305, 3.469e-3
-1.306, 3.487e-3
-1.307, 3.509e-3
-1.308, 3.533e-3
-1.309, 3.555e-3
-1.310, 3.583e-3
-1.311, 3.604e-3
-1.312, 3.623e-3
-1.313, 3.641e-3
-1.314, 3.657e-3
-1.315, 3.672e-3
-1.316, 3.688e-3
-1.317, 3.706e-3
-1.318, 3.725e-3
-1.319, 3.746e-3
-1.320, 3.765e-3
-1.321, 3.783e-3
-1.322, 3.799e-3
-1.323, 3.817e-3
-1.324, 3.839e-3
-1.325, 3.866e-3
-1.326, 3.897e-3
-1.327, 3.934e-3
-1.328, 3.971e-3
-1.329, 4.008e-3
-1.330, 4.045e-3
-1.331, 4.076e-3
-1.332, 4.107e-3
-1.333, 4.132e-3
-1.334, 4.150e-3
-1.335, 4.162e-3
-1.336, 4.175e-3
-1.337, 4.184e-3
-1.338, 4.193e-3
-1.339, 4.206e-3
-1.340, 4.221e-3
-1.341, 4.239e-3
-1.342, 4.264e-3
-1.343, 4.292e-3
-1.344, 4.323e-3
-1.345, 4.363e-3
-1.346, 4.394e-3
-1.347, 4.428e-3
-1.348, 4.455e-3
-1.349, 4.474e-3
-1.350, 4.489e-3
-1.351, 4.505e-3
-1.352, 4.517e-3
-1.353, 4.532e-3
-1.354, 4.551e-3
-1.355, 4.572e-3
-1.356, 4.594e-3
-1.357, 4.616e-3
-1.358, 4.640e-3
-1.359, 4.668e-3
-1.360, 4.696e-3
-1.361, 4.727e-3
-1.362, 4.757e-3
-1.363, 4.785e-3
-1.364, 4.816e-3
-1.365, 4.841e-3
-1.366, 4.868e-3
-1.367, 4.896e-3
-1.368, 4.924e-3
-1.369, 4.949e-3
-1.370, 4.973e-3
-1.371, 4.998e-3
-1.372, 5.026e-3
-1.373, 5.053e-3
-1.374, 5.084e-3
-1.375, 5.118e-3
-1.376, 5.149e-3
-1.377, 5.177e-3
-1.378, 5.201e-3
-1.379, 5.223e-3
-1.380, 5.241e-3
-1.381, 5.260e-3
-1.382, 5.275e-3
-1.383, 5.294e-3
-1.384, 5.315e-3
-1.385, 5.337e-3
-1.386, 5.362e-3
-1.387, 5.389e-3
-1.388, 5.411e-3
-1.389, 5.430e-3
-1.390, 5.448e-3
-1.391, 5.457e-3
-1.392, 5.473e-3
-1.393, 5.491e-3
-1.394, 5.516e-3
-1.395, 5.550e-3
-1.396, 5.584e-3
-1.397, 5.618e-3
-1.398, 5.648e-3
-1.399, 5.670e-3
-1.400, 5.688e-3
-1.401, 5.707e-3
-1.402, 5.729e-3
-1.403, 5.753e-3
-1.404, 5.784e-3
-1.405, 5.812e-3
-1.406, 5.840e-3
-1.407, 5.861e-3
-1.408, 5.877e-3
-1.409, 5.892e-3
-1.410, 5.910e-3
-1.411, 5.932e-3
-1.412, 5.963e-3
-1.413, 6.000e-3
-1.414, 6.037e-3
-1.415, 6.074e-3
-1.416, 6.105e-3
-1.417, 6.132e-3
-1.418, 6.154e-3
-1.419, 6.173e-3
-1.420, 6.188e-3
-1.421, 6.206e-3
-1.422, 6.225e-3
-1.423, 6.243e-3
-1.424, 6.265e-3
-1.425, 6.290e-3
-1.426, 6.317e-3
-1.427, 6.342e-3
-1.428, 6.367e-3
-1.429, 6.388e-3
-1.430, 6.410e-3
-1.431, 6.428e-3
-1.432, 6.450e-3
-1.433, 6.475e-3
-1.434, 6.502e-3
-1.435, 6.533e-3
-1.436, 6.555e-3
-1.437, 6.576e-3
-1.438, 6.592e-3
-1.439, 6.610e-3
-1.440, 6.626e-3
-1.441, 6.644e-3
-1.442, 6.669e-3
-1.443, 6.697e-3
-1.444, 6.731e-3
-1.445, 6.758e-3
-1.446, 6.786e-3
-1.447, 6.808e-3
-1.448, 6.829e-3
-1.449, 6.845e-3
-1.450, 6.869e-3
-1.451, 6.900e-3
-1.452, 6.931e-3
-1.453, 6.962e-3
-1.454, 6.990e-3
-1.455, 7.011e-3
-1.456, 7.023e-3
-1.457, 7.036e-3
-1.458, 7.048e-3
-1.459, 7.060e-3
-1.460, 7.073e-3
-1.461, 7.085e-3
-1.462, 7.097e-3
-1.463, 7.104e-3
-1.464, 7.107e-3
-1.465, 7.119e-3
-1.466, 7.128e-3
-1.467, 7.144e-3
-1.468, 7.171e-3
-1.469, 7.205e-3
-1.470, 7.245e-3
-1.471, 7.279e-3
-1.472, 7.304e-3
-1.473, 7.313e-3
-1.474, 7.307e-3
-1.475, 7.295e-3
-1.476, 7.279e-3
-1.477, 7.270e-3
-1.478, 7.270e-3
-1.479, 7.276e-3
-1.480, 7.286e-3
-1.481, 7.292e-3
-1.482, 7.295e-3
-1.483, 7.298e-3
-1.484, 7.304e-3
-1.485, 7.313e-3
-1.486, 7.329e-3
-1.487, 7.344e-3
-1.488, 7.356e-3
-1.489, 7.356e-3
-1.490, 7.360e-3
-1.491, 7.363e-3
-1.492, 7.375e-3
-1.493, 7.387e-3
-1.494, 7.390e-3
-1.495, 7.381e-3
-1.496, 7.360e-3
-1.497, 7.332e-3
-1.498, 7.295e-3
-1.499, 7.261e-3
-1.500, 7.230e-3
-1.501, 7.215e-3
-1.502, 7.212e-3
-1.503, 7.224e-3
-1.504, 7.239e-3
-1.505, 7.255e-3
-1.506, 7.264e-3
-1.507, 7.264e-3
-1.508, 7.252e-3
-1.509, 7.230e-3
-1.510, 7.205e-3
-1.511, 7.184e-3
-1.512, 7.165e-3
-1.513, 7.144e-3
-1.514, 7.119e-3
-1.515, 7.094e-3
-1.516, 7.073e-3
-1.517, 7.054e-3
-1.518, 7.051e-3
-1.519, 7.039e-3
-1.520, 7.017e-3
-1.521, 7.014e-3
-1.522, 7.027e-3
-1.523, 7.070e-3
-1.524, 7.134e-3
-1.525, 7.202e-3
-1.526, 7.279e-3
-1.527, 7.344e-3
-1.528, 7.381e-3
-1.529, 7.393e-3
-1.530, 7.381e-3
-1.531, 7.363e-3
-1.532, 7.347e-3
-1.533, 7.329e-3
-1.534, 7.298e-3
-1.535, 7.255e-3
-1.536, 7.202e-3
-1.537, 7.144e-3
-1.538, 7.088e-3
-1.539, 7.036e-3
-1.540, 6.993e-3
-1.541, 6.959e-3
-1.542, 6.946e-3
-1.543, 6.953e-3
-1.544, 6.980e-3
-1.545, 7.020e-3
-1.546, 7.057e-3
-1.547, 7.091e-3
-1.548, 7.125e-3
-1.549, 7.159e-3
-1.550, 7.196e-3
-1.551, 7.224e-3
-1.552, 7.245e-3
-1.553, 7.245e-3
-1.554, 7.221e-3
-1.555, 7.181e-3
-1.556, 7.134e-3
-1.557, 7.088e-3
-1.558, 7.051e-3
-1.559, 7.023e-3
-1.560, 7.011e-3
-1.561, 7.014e-3
-1.562, 7.020e-3
-1.563, 7.033e-3
-1.564, 7.051e-3
-1.565, 7.070e-3
-1.566, 7.091e-3
-1.567, 7.113e-3
-1.568, 7.131e-3
-1.569, 7.153e-3
-1.570, 7.168e-3
-1.571, 7.184e-3
-1.572, 7.196e-3
-1.573, 7.208e-3
-1.574, 7.212e-3
-1.575, 7.221e-3
-1.576, 7.230e-3
-1.577, 7.239e-3
-1.578, 7.255e-3
-1.579, 7.273e-3
-1.580, 7.301e-3
-1.581, 7.332e-3
-1.582, 7.369e-3
-1.583, 7.406e-3
-1.584, 7.440e-3
-1.585, 7.467e-3
-1.586, 7.486e-3
-1.587, 7.517e-3
-1.588, 7.532e-3
-1.589, 7.557e-3
-1.590, 7.569e-3
-1.591, 7.572e-3
-1.592, 7.563e-3
-1.593, 7.545e-3
-1.594, 7.517e-3
-1.595, 7.486e-3
-1.596, 7.461e-3
-1.597, 7.449e-3
-1.598, 7.443e-3
-1.599, 7.452e-3
-1.600, 7.440e-3
-1.599, 7.375e-3
-1.598, 7.323e-3
-1.597, 7.264e-3
-1.596, 7.212e-3
-1.595, 7.165e-3
-1.594, 7.119e-3
-1.593, 7.079e-3
-1.592, 7.039e-3
-1.591, 6.996e-3
-1.590, 6.943e-3
-1.589, 6.888e-3
-1.588, 6.820e-3
-1.587, 6.740e-3
-1.586, 6.669e-3
-1.585, 6.601e-3
-1.584, 6.539e-3
-1.583, 6.484e-3
-1.582, 6.432e-3
-1.581, 6.388e-3
-1.580, 6.342e-3
-1.579, 6.296e-3
-1.578, 6.243e-3
-1.577, 6.191e-3
-1.576, 6.139e-3
-1.575, 6.086e-3
-1.574, 6.043e-3
-1.573, 6.006e-3
-1.572, 5.963e-3
-1.571, 5.929e-3
-1.570, 5.886e-3
-1.569, 5.836e-3
-1.568, 5.778e-3
-1.567, 5.722e-3
-1.566, 5.673e-3
-1.565, 5.633e-3
-1.564, 5.602e-3
-1.563, 5.574e-3
-1.562, 5.537e-3
-1.561, 5.500e-3
-1.560, 5.457e-3
-1.559, 5.417e-3
-1.558, 5.377e-3
-1.557, 5.343e-3
-1.556, 5.309e-3
-1.555, 5.275e-3
-1.554, 5.235e-3
-1.553, 5.192e-3
-1.552, 5.149e-3
-1.551, 5.100e-3
-1.550, 5.056e-3
-1.549, 5.016e-3
-1.548, 4.973e-3
-1.547, 4.933e-3
-1.546, 4.890e-3
-1.545, 4.838e-3
-1.544, 4.785e-3
-1.543, 4.733e-3
-1.542, 4.680e-3
-1.541, 4.637e-3
-1.540, 4.603e-3
-1.539, 4.572e-3
-1.538, 4.548e-3
-1.537, 4.526e-3
-1.536, 4.501e-3
-1.535, 4.477e-3
-1.534, 4.452e-3
-1.533, 4.421e-3
-1.532, 4.394e-3
-1.531, 4.369e-3
-1.530, 4.341e-3
-1.529, 4.307e-3
-1.528, 4.264e-3
-1.527, 4.215e-3
-1.526, 4.165e-3
-1.525, 4.113e-3
-1.524, 4.064e-3
-1.523, 4.024e-3
-1.522, 3.990e-3
-1.521, 3.965e-3
-1.520, 3.937e-3
-1.519, 3.910e-3
-1.518, 3.882e-3
-1.517, 3.857e-3
-1.516, 3.832e-3
-1.515, 3.808e-3
-1.514, 3.786e-3
-1.513, 3.758e-3
-1.512, 3.725e-3
-1.511, 3.684e-3
-1.510, 3.641e-3
-1.509, 3.598e-3
-1.508, 3.561e-3
-1.507, 3.521e-3
-1.506, 3.484e-3
-1.505, 3.447e-3
-1.504, 3.410e-3
-1.503, 3.370e-3
-1.502, 3.336e-3
-1.501, 3.308e-3
-1.500, 3.287e-3
-1.499, 3.268e-3
-1.498, 3.250e-3
-1.497, 3.228e-3
-1.496, 3.200e-3
-1.495, 3.170e-3
-1.494, 3.139e-3
-1.493, 3.108e-3
-1.492, 3.077e-3
-1.491, 3.046e-3
-1.490, 3.015e-3
-1.489, 2.988e-3
-1.488, 2.954e-3
-1.487, 2.920e-3
-1.486, 2.889e-3
-1.485, 2.855e-3
-1.484, 2.827e-3
-1.483, 2.800e-3
-1.482, 2.781e-3
-1.481, 2.766e-3
-1.480, 2.753e-3
-1.479, 2.738e-3
-1.478, 2.713e-3
-1.477, 2.682e-3
-1.476, 2.642e-3
-1.475, 2.599e-3
-1.474, 2.556e-3
-1.473, 2.519e-3
-1.472, 2.485e-3
-1.471, 2.464e-3
-1.470, 2.442e-3
-1.469, 2.417e-3
-1.468, 2.393e-3
-1.467, 2.365e-3
-1.466, 2.340e-3
-1.465, 2.312e-3
-1.464, 2.291e-3
-1.463, 2.269e-3
-1.462, 2.254e-3
-1.461, 2.238e-3
-1.460, 2.217e-3
-1.459, 2.189e-3
-1.458, 2.155e-3
-1.457, 2.115e-3
-1.456, 2.075e-3
-1.455, 2.038e-3
-1.454, 2.001e-3
-1.453, 1.973e-3
-1.452, 1.946e-3
-1.451, 1.924e-3
-1.450, 1.902e-3
-1.449, 1.884e-3
-1.448, 1.869e-3
-1.447, 1.850e-3
-1.446, 1.828e-3
-1.445, 1.804e-3
-1.444, 1.776e-3
-1.443, 1.751e-3
-1.442, 1.727e-3
-1.441, 1.708e-3
-1.440, 1.690e-3
-1.439, 1.671e-3
-1.438, 1.650e-3
-1.437, 1.622e-3
-1.436, 1.594e-3
-1.435, 1.563e-3
-1.434, 1.539e-3
-1.433, 1.514e-3
-1.432, 1.492e-3
-1.431, 1.474e-3
-1.430, 1.458e-3
-1.429, 1.437e-3
-1.428, 1.415e-3
-1.427, 1.397e-3
-1.426, 1.369e-3
-1.425, 1.341e-3
-1.424, 1.320e-3
-1.423, 1.298e-3
-1.422, 1.283e-3
-1.421, 1.264e-3
-1.420, 1.246e-3
-1.419, 1.224e-3
-1.418, 1.203e-3
-1.417, 1.181e-3
-1.416, 1.156e-3
-1.415, 1.132e-3
-1.414, 1.110e-3
-1.413, 1.085e-3
-1.412, 1.061e-3
-1.411, 1.039e-3
-1.410, 1.021e-3
-1.409, 1.002e-3
-1.408, 9.837e-4
-1.407, 9.652e-4
-1.406, 9.467e-4
-1.405, 9.282e-4
-1.404, 9.066e-4
-1.403, 8.881e-4
-1.402, 8.696e-4
-1.401, 8.511e-4
-1.400, 8.326e-4
-1.399, 8.141e-4
-1.398, 7.925e-4
-1.397, 7.709e-4
-1.396, 7.463e-4
-1.395, 7.247e-4
-1.394, 7.062e-4
-1.393, 6.877e-4
-1.392, 6.723e-4
-1.391, 6.569e-4
-1.390, 6.445e-4
-1.389, 6.322e-4
-1.388, 6.168e-4
-1.387, 6.014e-4
-1.386, 5.829e-4
-1.385, 5.674e-4
-1.384, 5.520e-4
-1.383, 5.335e-4
-1.382, 5.181e-4
-1.381, 5.027e-4
-1.380, 4.842e-4
-1.379, 4.688e-4
-1.378, 4.534e-4
-1.377, 4.349e-4
-1.376, 4.164e-4
-1.375, 3.979e-4
-1.374, 3.825e-4
-1.373, 3.640e-4
-1.372, 3.485e-4
-1.371, 3.331e-4
-1.370, 3.208e-4
-1.369, 3.054e-4
-1.368, 2.900e-4
-1.367, 2.746e-4
-1.366, 2.591e-4
-1.365, 2.406e-4
-1.364, 2.221e-4
-1.363, 2.067e-4
-1.362, 1.913e-4
-1.361, 1.759e-4
-1.360, 1.636e-4
-1.359, 1.481e-4
-1.358, 1.358e-4
-1.357, 1.235e-4
-1.356, 1.081e-4
-1.355, 9.265e-5
-1.354, 8.032e-5
-1.353, 6.798e-5
-1.352, 5.565e-5
-1.351, 4.332e-5
-1.350, 3.099e-5
-1.349, 1.865e-5
-1.348, 9.405e-6
-1.347, -6.010e-6
-1.346, -1.834e-5
-1.345, -3.376e-5
-1.344, -4.917e-5
-1.343, -6.151e-5
-1.342, -7.384e-5
-1.341, -8.617e-5
-1.340, -9.542e-5
-1.339, -1.078e-4
-1.338, -1.170e-4
-1.337, -1.293e-4
-1.336, -1.417e-4
-1.335, -1.540e-4
-1.334, -1.663e-4
-1.333, -1.756e-4
-1.332, -1.848e-4
-1.331, -1.941e-4
-1.330, -2.033e-4
-1.329, -2.126e-4
-1.328, -2.218e-4
-1.327, -2.342e-4
-1.326, -2.465e-4
-1.325, -2.588e-4
-1.324, -2.712e-4
-1.323, -2.835e-4
-1.322, -2.927e-4
-1.321, -3.020e-4
-1.320, -3.082e-4
-1.319, -3.174e-4
-1.318, -3.267e-4
-1.317, -3.359e-4
-1.316, -3.452e-4
-1.315, -3.544e-4
-1.314, -3.606e-4
-1.313, -3.698e-4
-1.312, -3.760e-4
-1.311, -3.821e-4
-1.310, -3.883e-4
-1.309, -3.945e-4
-1.308, -4.037e-4
-1.307, -4.161e-4
-1.306, -4.253e-4
-1.305, -4.346e-4
-1.304, -4.469e-4
-1.303, -4.592e-4
-1.302, -4.685e-4
-1.301, -4.746e-4
-1.300, -4.839e-4
-1.299, -4.901e-4
-1.298, -4.962e-4
-1.297, -5.024e-4
-1.296, -5.116e-4
-1.295, -5.209e-4
-1.294, -5.301e-4
-1.293, -5.394e-4
-1.292, -5.486e-4
-1.291, -5.548e-4
-1.290, -5.579e-4
-1.289, -5.641e-4
-1.288, -5.702e-4
-1.287, -5.733e-4
-1.286, -5.826e-4
-1.285, -5.918e-4
-1.284, -5.980e-4
-1.283, -6.072e-4
-1.282, -6.134e-4
-1.281, -6.165e-4
-1.280, -6.226e-4
-1.279, -6.257e-4
-1.278, -6.319e-4
-1.277, -6.380e-4
-1.276, -6.473e-4
-1.275, -6.565e-4
-1.274, -6.627e-4
-1.273, -6.689e-4
-1.272, -6.750e-4
-1.271, -6.812e-4
-1.270, -6.874e-4
-1.269, -6.935e-4
-1.268, -6.997e-4
-1.267, -7.028e-4
-1.266, -7.090e-4
-1.265, -7.182e-4
-1.264, -7.244e-4
-1.263, -7.305e-4
-1.262, -7.336e-4
-1.261, -7.367e-4
-1.260, -7.398e-4
-1.259, -7.429e-4
-1.258, -7.460e-4
-1.257, -7.521e-4
-1.256, -7.583e-4
-1.255, -7.645e-4
-1.254, -7.706e-4
-1.253, -7.768e-4
-1.252, -7.830e-4
-1.251, -7.891e-4
-1.250, -7.922e-4
-1.249, -7.984e-4
-1.248, -8.045e-4
-1.247, -8.107e-4
-1.246, -8.169e-4
-1.245, -8.200e-4
-1.244, -8.261e-4
-1.243, -8.323e-4
-1.242, -8.354e-4
-1.241, -8.385e-4
-1.240, -8.415e-4
-1.239, -8.477e-4
-1.238, -8.508e-4
-1.237, -8.539e-4
-1.236, -8.600e-4
-1.235, -8.662e-4
-1.234, -8.754e-4
-1.233, -8.816e-4
-1.232, -8.878e-4
-1.231, -8.939e-4
-1.230, -8.939e-4
-1.229, -9.001e-4
-1.228, -9.063e-4
-1.227, -9.094e-4
-1.226, -9.155e-4
-1.225, -9.217e-4
-1.224, -9.279e-4
-1.223, -9.309e-4
-1.222, -9.309e-4
-1.221, -9.309e-4
-1.220, -9.340e-4
-1.219, -9.371e-4
-1.218, -9.402e-4
-1.217, -9.464e-4
-1.216, -9.525e-4
-1.215, -9.587e-4
-1.214, -9.649e-4
-1.213, -9.679e-4
-1.212, -9.741e-4
-1.211, -9.772e-4
-1.210, -9.834e-4
-1.209, -9.864e-4
-1.208, -9.926e-4
-1.207, -9.957e-4
-1.206, -1.002e-3
-1.205, -1.008e-3
-1.204, -1.014e-3
-1.203, -1.020e-3
-1.202, -1.023e-3
-1.201, -1.027e-3
-1.200, -1.030e-3
-1.199, -1.033e-3
-1.198, -1.033e-3
-1.197, -1.039e-3
-1.196, -1.045e-3
-1.195, -1.051e-3
-1.194, -1.057e-3
-1.193, -1.060e-3
-1.192, -1.067e-3
-1.191, -1.070e-3
-1.190, -1.073e-3
-1.189, -1.076e-3
-1.188, -1.082e-3
-1.187, -1.088e-3
-1.186, -1.091e-3
-1.185, -1.097e-3
-1.184, -1.101e-3
-1.183, -1.104e-3
-1.182, -1.107e-3
-1.181, -1.113e-3
-1.180, -1.116e-3
-1.179, -1.122e-3
-1.178, -1.125e-3
-1.177, -1.131e-3
-1.176, -1.138e-3
-1.175, -1.144e-3
-1.174, -1.153e-3
-1.173, -1.159e-3
-1.172, -1.168e-3
-1.171, -1.175e-3
-1.170, -1.178e-3
-1.169, -1.184e-3
-1.168, -1.190e-3
-1.167, -1.196e-3
-1.166, -1.202e-3
-1.165, -1.208e-3
-1.164, -1.215e-3
-1.163, -1.218e-3
-1.162, -1.218e-3
-1.161, -1.221e-3
-1.160, -1.227e-3
-1.159, -1.233e-3
-1.158, -1.239e-3
-1.157, -1.245e-3
-1.156, -1.255e-3
-1.155, -1.261e-3
-1.154, -1.267e-3
-1.153, -1.273e-3
-1.152, -1.282e-3
-1.151, -1.292e-3
-1.150, -1.298e-3
-1.149, -1.307e-3
-1.148, -1.310e-3
-1.147, -1.313e-3
-1.146, -1.316e-3
-1.145, -1.322e-3
-1.144, -1.326e-3
-1.143, -1.335e-3
-1.142, -1.344e-3
-1.141, -1.347e-3
-1.140, -1.350e-3
-1.139, -1.356e-3
-1.138, -1.359e-3
-1.137, -1.369e-3
-1.136, -1.378e-3
-1.135, -1.393e-3
-1.134, -1.412e-3
-1.133, -1.427e-3
-1.132, -1.440e-3
-1.131, -1.449e-3
-1.130, -1.458e-3
-1.129, -1.464e-3
-1.128, -1.470e-3
-1.127, -1.483e-3
-1.126, -1.492e-3
-1.125, -1.504e-3
-1.124, -1.514e-3
-1.123, -1.523e-3
-1.122, -1.529e-3
-1.121, -1.538e-3
-1.120, -1.541e-3
-1.119, -1.548e-3
-1.118, -1.557e-3
-1.117, -1.566e-3
-1.116, -1.575e-3
-1.115, -1.588e-3
-1.114, -1.600e-3
-1.113, -1.612e-3
-1.112, -1.618e-3
-1.111, -1.628e-3
-1.110, -1.634e-3
-1.109, -1.646e-3
-1.108, -1.655e-3
-1.107, -1.671e-3
-1.106, -1.689e-3
-1.105, -1.708e-3
-1.104, -1.726e-3
-1.103, -1.742e-3
-1.102, -1.754e-3
-1.101, -1.770e-3
-1.100, -1.782e-3
-1.099, -1.797e-3
-1.098, -1.816e-3
-1.097, -1.834e-3
-1.096, -1.856e-3
-1.095, -1.877e-3
-1.094, -1.896e-3
-1.093, -1.911e-3
-1.092, -1.927e-3
-1.091, -1.939e-3
-1.090, -1.955e-3
-1.089, -1.973e-3
-1.088, -1.995e-3
-1.087, -2.013e-3
-1.086, -2.035e-3
-1.085, -2.056e-3
-1.084, -2.078e-3
-1.083, -2.099e-3
-1.082, -2.118e-3
-1.081, -2.136e-3
-1.080, -2.155e-3
-1.079, -2.173e-3
-1.078, -2.198e-3
-1.077, -2.220e-3
-1.076, -2.247e-3
-1.075, -2.272e-3
-1.074, -2.300e-3
-1.073, -2.321e-3
-1.072, -2.340e-3
-1.071, -2.355e-3
-1.070, -2.371e-3
-1.069, -2.389e-3
-1.068, -2.411e-3
-1.067, -2.432e-3
-1.066, -2.454e-3
-1.065, -2.476e-3
-1.064, -2.497e-3
-1.063, -2.519e-3
-1.062, -2.540e-3
-1.061, -2.562e-3
-1.060, -2.590e-3
-1.059, -2.614e-3
-1.058, -2.648e-3
-1.057, -2.682e-3
-1.056, -2.707e-3
-1.055, -2.725e-3
-1.054, -2.747e-3
-1.053, -2.762e-3
-1.052, -2.775e-3
-1.051, -2.787e-3
-1.050, -2.802e-3
-1.049, -2.824e-3
-1.048, -2.849e-3
-1.047, -2.870e-3
-1.046, -2.895e-3
-1.045, -2.910e-3
-1.044, -2.926e-3
-1.043, -2.938e-3
-1.042, -2.953e-3
-1.041, -2.972e-3
-1.040, -2.994e-3
-1.039, -3.021e-3
-1.038, -3.043e-3
-1.037, -3.061e-3
-1.036, -3.077e-3
-1.035, -3.092e-3
-1.034, -3.105e-3
-1.033, -3.123e-3
-1.032, -3.148e-3
-1.031, -3.175e-3
-1.030, -3.203e-3
-1.029, -3.234e-3
-1.028, -3.262e-3
-1.027, -3.286e-3
-1.026, -3.305e-3
-1.025, -3.320e-3
-1.024, -3.330e-3
-1.023, -3.342e-3
-1.022, -3.354e-3
-1.021, -3.370e-3
-1.020, -3.388e-3
-1.019, -3.404e-3
-1.018, -3.419e-3
-1.017, -3.431e-3
-1.016, -3.444e-3
-1.015, -3.462e-3
-1.014, -3.484e-3
-1.013, -3.508e-3
-1.012, -3.533e-3
-1.011, -3.558e-3
-1.010, -3.576e-3
-1.009, -3.592e-3
-1.008, -3.604e-3
-1.007, -3.622e-3
-1.006, -3.641e-3
-1.005, -3.666e-3
-1.004, -3.690e-3
-1.003, -3.712e-3
-1.002, -3.724e-3
-1.001, -3.730e-3
