Dec. 10, 2024   23:32:52
Cyclic Voltammetry
File: c:/users/guazh/data/banditlqround7_x0exp59_r20/2024-12-09-exp622\exp622-2024-12-10t23_19_48-h2koh\exp622_cv_sr_50mvs_efin_-1600mv.bin
Data Source:  Experiment
Instrument Model:  CHI760E
Header: CV ran at 50 mVs
Note: 

Init E (V) = -1
High E (V) = -1
Low E (V) = -1.6
Final E (V) = -1
Init P/N = N
Scan Rate (V/s) = 0.05
Segment = 3
Sample Interval (V) = 0.001
Quiet Time (sec) = 2
Sensitivity (A/V) = 0.01
Comp R (ohm) = 1.2

Results:

Channel 1:
Segment 1:
Ep = -1.311V
ip = 8.659e-4A
Ah = 1.082e-3C

Segment 2:

Segment 3:

Potential/V, Current/A

-1.000, -4.448e-4
-1.001, -4.184e-4
-1.002, -3.974e-4
-1.003, -3.808e-4
-1.004, -3.679e-4
-1.005, -3.563e-4
-1.006, -3.427e-4
-1.007, -3.314e-4
-1.008, -3.196e-4
-1.009, -3.100e-4
-1.010, -2.991e-4
-1.011, -2.893e-4
-1.012, -2.787e-4
-1.013, -2.693e-4
-1.014, -2.600e-4
-1.015, -2.503e-4
-1.016, -2.425e-4
-1.017, -2.342e-4
-1.018, -2.264e-4
-1.019, -2.200e-4
-1.020, -2.123e-4
-1.021, -2.040e-4
-1.022, -1.965e-4
-1.023, -1.906e-4
-1.024, -1.829e-4
-1.025, -1.716e-4
-1.026, -1.653e-4
-1.027, -1.595e-4
-1.028, -1.531e-4
-1.029, -1.477e-4
-1.030, -1.405e-4
-1.031, -1.324e-4
-1.032, -1.284e-4
-1.033, -1.227e-4
-1.034, -1.164e-4
-1.035, -1.087e-4
-1.036, -1.026e-4
-1.037, -9.730e-5
-1.038, -9.150e-5
-1.039, -8.501e-5
-1.040, -7.932e-5
-1.041, -7.222e-5
-1.042, -6.684e-5
-1.043, -6.181e-5
-1.044, -5.733e-5
-1.045, -5.220e-5
-1.046, -4.657e-5
-1.047, -4.166e-5
-1.048, -3.726e-5
-1.049, -3.223e-5
-1.050, -2.681e-5
-1.051, -2.184e-5
-1.052, -1.696e-5
-1.053, -1.279e-5
-1.054, -8.122e-6
-1.055, -3.790e-6
-1.056, 8.958e-7
-1.057, 5.671e-6
-1.058, 9.736e-6
-1.059, 1.400e-5
-1.060, 1.881e-5
-1.061, 2.389e-5
-1.062, 2.854e-5
-1.063, 3.252e-5
-1.064, 3.625e-5
-1.065, 4.109e-5
-1.066, 4.657e-5
-1.067, 5.052e-5
-1.068, 5.430e-5
-1.069, 5.834e-5
-1.070, 6.248e-5
-1.071, 6.700e-5
-1.072, 7.077e-5
-1.073, 7.454e-5
-1.074, 7.826e-5
-1.075, 8.356e-5
-1.076, 8.828e-5
-1.077, 9.147e-5
-1.078, 9.553e-5
-1.079, 9.894e-5
-1.080, 1.034e-4
-1.081, 1.068e-4
-1.082, 1.101e-4
-1.083, 1.135e-4
-1.084, 1.180e-4
-1.085, 1.226e-4
-1.086, 1.266e-4
-1.087, 1.303e-4
-1.088, 1.335e-4
-1.089, 1.374e-4
-1.090, 1.415e-4
-1.091, 1.458e-4
-1.092, 1.498e-4
-1.093, 1.506e-4
-1.094, 1.578e-4
-1.095, 1.599e-4
-1.096, 1.654e-4
-1.097, 1.696e-4
-1.098, 1.708e-4
-1.099, 1.752e-4
-1.100, 1.794e-4
-1.101, 1.835e-4
-1.102, 1.879e-4
-1.103, 1.906e-4
-1.104, 1.937e-4
-1.105, 1.983e-4
-1.106, 2.021e-4
-1.107, 2.060e-4
-1.108, 2.086e-4
-1.109, 2.111e-4
-1.110, 2.167e-4
-1.111, 2.195e-4
-1.112, 2.227e-4
-1.113, 2.278e-4
-1.114, 2.291e-4
-1.115, 2.335e-4
-1.116, 2.398e-4
-1.117, 2.414e-4
-1.118, 2.449e-4
-1.119, 2.492e-4
-1.120, 2.520e-4
-1.121, 2.568e-4
-1.122, 2.606e-4
-1.123, 2.626e-4
-1.124, 2.663e-4
-1.125, 2.698e-4
-1.126, 2.740e-4
-1.127, 2.783e-4
-1.128, 2.807e-4
-1.129, 2.855e-4
-1.130, 2.888e-4
-1.131, 2.918e-4
-1.132, 2.962e-4
-1.133, 2.998e-4
-1.134, 3.035e-4
-1.135, 3.076e-4
-1.136, 3.110e-4
-1.137, 3.141e-4
-1.138, 3.193e-4
-1.139, 3.222e-4
-1.140, 3.262e-4
-1.141, 3.314e-4
-1.142, 3.351e-4
-1.143, 3.377e-4
-1.144, 3.428e-4
-1.145, 3.466e-4
-1.146, 3.498e-4
-1.147, 3.536e-4
-1.148, 3.581e-4
-1.149, 3.575e-4
-1.150, 3.660e-4
-1.151, 3.690e-4
-1.152, 3.740e-4
-1.153, 3.813e-4
-1.154, 3.829e-4
-1.155, 3.864e-4
-1.156, 3.920e-4
-1.157, 3.964e-4
-1.158, 4.017e-4
-1.159, 4.049e-4
-1.160, 4.086e-4
-1.161, 4.146e-4
-1.162, 4.175e-4
-1.163, 4.213e-4
-1.164, 4.253e-4
-1.165, 4.293e-4
-1.166, 4.361e-4
-1.167, 4.410e-4
-1.168, 4.450e-4
-1.169, 4.500e-4
-1.170, 4.552e-4
-1.171, 4.593e-4
-1.172, 4.663e-4
-1.173, 4.668e-4
-1.174, 4.744e-4
-1.175, 4.797e-4
-1.176, 4.853e-4
-1.177, 4.915e-4
-1.178, 4.955e-4
-1.179, 5.019e-4
-1.180, 5.084e-4
-1.181, 5.108e-4
-1.182, 5.170e-4
-1.183, 5.209e-4
-1.184, 5.255e-4
-1.185, 5.362e-4
-1.186, 5.390e-4
-1.187, 5.468e-4
-1.188, 5.522e-4
-1.189, 5.560e-4
-1.190, 5.624e-4
-1.191, 5.685e-4
-1.192, 5.741e-4
-1.193, 5.798e-4
-1.194, 5.904e-4
-1.195, 5.942e-4
-1.196, 6.040e-4
-1.197, 6.118e-4
-1.198, 6.149e-4
-1.199, 6.231e-4
-1.200, 6.293e-4
-1.201, 6.342e-4
-1.202, 6.443e-4
-1.203, 6.493e-4
-1.204, 6.575e-4
-1.205, 6.667e-4
-1.206, 6.712e-4
-1.207, 6.790e-4
-1.208, 6.855e-4
-1.209, 6.939e-4
-1.210, 7.032e-4
-1.211, 7.105e-4
-1.212, 7.182e-4
-1.213, 7.238e-4
-1.214, 7.309e-4
-1.215, 7.447e-4
-1.216, 7.485e-4
-1.217, 7.581e-4
-1.218, 7.676e-4
-1.219, 7.743e-4
-1.220, 7.844e-4
-1.221, 7.962e-4
-1.222, 8.022e-4
-1.223, 8.135e-4
-1.224, 8.228e-4
-1.225, 8.292e-4
-1.226, 8.383e-4
-1.227, 8.456e-4
-1.228, 8.499e-4
-1.229, 8.739e-4
-1.230, 8.788e-4
-1.231, 8.969e-4
-1.232, 9.008e-4
-1.233, 9.140e-4
-1.234, 9.198e-4
-1.235, 9.301e-4
-1.236, 9.372e-4
-1.237, 9.521e-4
-1.238, 9.640e-4
-1.239, 9.751e-4
-1.240, 9.884e-4
-1.241, 9.982e-4
-1.242, 1.012e-3
-1.243, 1.029e-3
-1.244, 1.036e-3
-1.245, 1.047e-3
-1.246, 1.062e-3
-1.247, 1.071e-3
-1.248, 1.087e-3
-1.249, 1.101e-3
-1.250, 1.111e-3
-1.251, 1.125e-3
-1.252, 1.134e-3
-1.253, 1.147e-3
-1.254, 1.161e-3
-1.255, 1.174e-3
-1.256, 1.186e-3
-1.257, 1.204e-3
-1.258, 1.204e-3
-1.259, 1.215e-3
-1.260, 1.244e-3
-1.261, 1.257e-3
-1.262, 1.270e-3
-1.263, 1.287e-3
-1.264, 1.301e-3
-1.265, 1.309e-3
-1.266, 1.324e-3
-1.267, 1.339e-3
-1.268, 1.354e-3
-1.269, 1.372e-3
-1.270, 1.388e-3
-1.271, 1.403e-3
-1.272, 1.414e-3
-1.273, 1.434e-3
-1.274, 1.417e-3
-1.275, 1.460e-3
-1.276, 1.475e-3
-1.277, 1.495e-3
-1.278, 1.506e-3
-1.279, 1.516e-3
-1.280, 1.531e-3
-1.281, 1.532e-3
-1.282, 1.559e-3
-1.283, 1.571e-3
-1.284, 1.581e-3
-1.285, 1.603e-3
-1.286, 1.612e-3
-1.287, 1.616e-3
-1.288, 1.642e-3
-1.289, 1.650e-3
-1.290, 1.672e-3
-1.291, 1.672e-3
-1.292, 1.680e-3
-1.293, 1.697e-3
-1.294, 1.701e-3
-1.295, 1.721e-3
-1.296, 1.732e-3
-1.297, 1.738e-3
-1.298, 1.746e-3
-1.299, 1.759e-3
-1.300, 1.777e-3
-1.301, 1.780e-3
-1.302, 1.784e-3
-1.303, 1.790e-3
-1.304, 1.780e-3
-1.305, 1.797e-3
-1.306, 1.793e-3
-1.307, 1.787e-3
-1.308, 1.805e-3
-1.309, 1.811e-3
-1.310, 1.811e-3
-1.311, 1.812e-3
-1.312, 1.798e-3
-1.313, 1.791e-3
-1.314, 1.789e-3
-1.315, 1.783e-3
-1.316, 1.766e-3
-1.317, 1.758e-3
-1.318, 1.749e-3
-1.319, 1.741e-3
-1.320, 1.720e-3
-1.321, 1.693e-3
-1.322, 1.696e-3
-1.323, 1.668e-3
-1.324, 1.650e-3
-1.325, 1.630e-3
-1.326, 1.594e-3
-1.327, 1.582e-3
-1.328, 1.558e-3
-1.329, 1.533e-3
-1.330, 1.512e-3
-1.331, 1.474e-3
-1.332, 1.451e-3
-1.333, 1.420e-3
-1.334, 1.399e-3
-1.335, 1.365e-3
-1.336, 1.323e-3
-1.337, 1.303e-3
-1.338, 1.263e-3
-1.339, 1.229e-3
-1.340, 1.206e-3
-1.341, 1.176e-3
-1.342, 1.145e-3
-1.343, 1.112e-3
-1.344, 1.081e-3
-1.345, 1.042e-3
-1.346, 1.022e-3
-1.347, 9.877e-4
-1.348, 9.611e-4
-1.349, 9.315e-4
-1.350, 9.078e-4
-1.351, 8.865e-4
-1.352, 8.651e-4
-1.353, 8.539e-4
-1.354, 8.382e-4
-1.355, 8.241e-4
-1.356, 8.109e-4
-1.357, 8.034e-4
-1.358, 7.918e-4
-1.359, 7.857e-4
-1.360, 7.910e-4
-1.361, 7.991e-4
-1.362, 7.997e-4
-1.363, 7.973e-4
-1.364, 8.021e-4
-1.365, 8.121e-4
-1.366, 8.162e-4
-1.367, 8.216e-4
-1.368, 8.294e-4
-1.369, 8.293e-4
-1.370, 8.481e-4
-1.371, 8.558e-4
-1.372, 8.576e-4
-1.373, 8.851e-4
-1.374, 8.960e-4
-1.375, 9.109e-4
-1.376, 9.144e-4
-1.377, 9.221e-4
-1.378, 9.453e-4
-1.379, 9.619e-4
-1.380, 9.737e-4
-1.381, 9.919e-4
-1.382, 1.008e-3
-1.383, 1.015e-3
-1.384, 1.024e-3
-1.385, 1.042e-3
-1.386, 1.063e-3
-1.387, 1.072e-3
-1.388, 1.081e-3
-1.389, 1.101e-3
-1.390, 1.123e-3
-1.391, 1.139e-3
-1.392, 1.148e-3
-1.393, 1.162e-3
-1.394, 1.166e-3
-1.395, 1.191e-3
-1.396, 1.214e-3
-1.397, 1.227e-3
-1.398, 1.240e-3
-1.399, 1.256e-3
-1.400, 1.259e-3
-1.401, 1.285e-3
-1.402, 1.304e-3
-1.403, 1.316e-3
-1.404, 1.332e-3
-1.405, 1.346e-3
-1.406, 1.360e-3
-1.407, 1.380e-3
-1.408, 1.403e-3
-1.409, 1.423e-3
-1.410, 1.439e-3
-1.411, 1.458e-3
-1.412, 1.465e-3
-1.413, 1.488e-3
-1.414, 1.525e-3
-1.415, 1.558e-3
-1.416, 1.588e-3
-1.417, 1.602e-3
-1.418, 1.613e-3
-1.419, 1.634e-3
-1.420, 1.659e-3
-1.421, 1.679e-3
-1.422, 1.698e-3
-1.423, 1.723e-3
-1.424, 1.761e-3
-1.425, 1.774e-3
-1.426, 1.809e-3
-1.427, 1.830e-3
-1.428, 1.849e-3
-1.429, 1.896e-3
-1.430, 1.902e-3
-1.431, 1.926e-3
-1.432, 1.944e-3
-1.433, 1.971e-3
-1.434, 2.001e-3
-1.435, 2.023e-3
-1.436, 2.059e-3
-1.437, 2.081e-3
-1.438, 2.091e-3
-1.439, 2.096e-3
-1.440, 2.149e-3
-1.441, 2.192e-3
-1.442, 2.211e-3
-1.443, 2.258e-3
-1.444, 2.253e-3
-1.445, 2.291e-3
-1.446, 2.330e-3
-1.447, 2.346e-3
-1.448, 2.365e-3
-1.449, 2.401e-3
-1.450, 2.419e-3
-1.451, 2.461e-3
-1.452, 2.473e-3
-1.453, 2.503e-3
-1.454, 2.543e-3
-1.455, 2.551e-3
-1.456, 2.592e-3
-1.457, 2.616e-3
-1.458, 2.637e-3
-1.459, 2.665e-3
-1.460, 2.699e-3
-1.461, 2.707e-3
-1.462, 2.725e-3
-1.463, 2.773e-3
-1.464, 2.785e-3
-1.465, 2.808e-3
-1.466, 2.848e-3
-1.467, 2.872e-3
-1.468, 2.899e-3
-1.469, 2.926e-3
-1.470, 2.960e-3
-1.471, 2.982e-3
-1.472, 3.001e-3
-1.473, 3.033e-3
-1.474, 3.067e-3
-1.475, 3.098e-3
-1.476, 3.131e-3
-1.477, 3.154e-3
-1.478, 3.175e-3
-1.479, 3.213e-3
-1.480, 3.206e-3
-1.481, 3.251e-3
-1.482, 3.330e-3
-1.483, 3.357e-3
-1.484, 3.409e-3
-1.485, 3.419e-3
-1.486, 3.428e-3
-1.487, 3.461e-3
-1.488, 3.477e-3
-1.489, 3.507e-3
-1.490, 3.552e-3
-1.491, 3.568e-3
-1.492, 3.599e-3
-1.493, 3.612e-3
-1.494, 3.656e-3
-1.495, 3.674e-3
-1.496, 3.673e-3
-1.497, 3.707e-3
-1.498, 3.734e-3
-1.499, 3.776e-3
-1.500, 3.930e-3
-1.501, 3.930e-3
-1.502, 3.942e-3
-1.503, 3.991e-3
-1.504, 4.025e-3
-1.505, 4.069e-3
-1.506, 4.106e-3
-1.507, 4.158e-3
-1.508, 4.189e-3
-1.509, 4.212e-3
-1.510, 4.233e-3
-1.511, 4.240e-3
-1.512, 4.268e-3
-1.513, 4.319e-3
-1.514, 4.359e-3
-1.515, 4.366e-3
-1.516, 4.387e-3
-1.517, 4.406e-3
-1.518, 4.414e-3
-1.519, 4.437e-3
-1.520, 4.511e-3
-1.521, 4.501e-3
-1.522, 4.540e-3
-1.523, 4.600e-3
-1.524, 4.608e-3
-1.525, 4.633e-3
-1.526, 4.664e-3
-1.527, 4.566e-3
-1.528, 4.565e-3
-1.529, 4.551e-3
-1.530, 4.610e-3
-1.531, 4.616e-3
-1.532, 4.676e-3
-1.533, 4.711e-3
-1.534, 4.699e-3
-1.535, 4.737e-3
-1.536, 4.760e-3
-1.537, 4.772e-3
-1.538, 4.798e-3
-1.539, 4.809e-3
-1.540, 4.850e-3
-1.541, 4.867e-3
-1.542, 4.904e-3
-1.543, 4.960e-3
-1.544, 4.937e-3
-1.545, 4.984e-3
-1.546, 5.003e-3
-1.547, 5.037e-3
-1.548, 5.066e-3
-1.549, 5.109e-3
-1.550, 5.109e-3
-1.551, 5.136e-3
-1.552, 5.175e-3
-1.553, 5.185e-3
-1.554, 5.206e-3
-1.555, 5.291e-3
-1.556, 5.337e-3
-1.557, 5.378e-3
-1.558, 5.391e-3
-1.559, 5.408e-3
-1.560, 5.431e-3
-1.561, 5.426e-3
-1.562, 5.459e-3
-1.563, 5.421e-3
-1.564, 5.468e-3
-1.565, 5.505e-3
-1.566, 5.470e-3
-1.567, 5.579e-3
-1.568, 5.571e-3
-1.569, 5.572e-3
-1.570, 5.653e-3
-1.571, 5.582e-3
-1.572, 5.619e-3
-1.573, 5.756e-3
-1.574, 5.747e-3
-1.575, 5.746e-3
-1.576, 5.897e-3
-1.577, 5.796e-3
-1.578, 5.825e-3
-1.579, 5.871e-3
-1.580, 5.875e-3
-1.581, 5.823e-3
-1.582, 5.838e-3
-1.583, 5.842e-3
-1.584, 5.888e-3
-1.585, 6.020e-3
-1.586, 5.991e-3
-1.587, 6.034e-3
-1.588, 6.139e-3
-1.589, 6.076e-3
-1.590, 6.132e-3
-1.591, 6.354e-3
-1.592, 6.298e-3
-1.593, 6.333e-3
-1.594, 6.369e-3
-1.595, 6.487e-3
-1.596, 6.552e-3
-1.597, 6.548e-3
-1.598, 6.580e-3
-1.599, 6.573e-3
-1.600, 6.621e-3
-1.599, 6.578e-3
-1.598, 6.469e-3
-1.597, 6.454e-3
-1.596, 6.346e-3
-1.595, 6.306e-3
-1.594, 6.316e-3
-1.593, 6.251e-3
-1.592, 6.168e-3
-1.591, 6.184e-3
-1.590, 6.059e-3
-1.589, 5.958e-3
-1.588, 5.979e-3
-1.587, 5.836e-3
-1.586, 5.796e-3
-1.585, 5.783e-3
-1.584, 5.719e-3
-1.583, 5.679e-3
-1.582, 5.601e-3
-1.581, 5.554e-3
-1.580, 5.569e-3
-1.579, 5.556e-3
-1.578, 5.482e-3
-1.577, 5.447e-3
-1.576, 5.460e-3
-1.575, 5.358e-3
-1.574, 5.364e-3
-1.573, 5.303e-3
-1.572, 5.228e-3
-1.571, 5.188e-3
-1.570, 5.134e-3
-1.569, 5.138e-3
-1.568, 5.122e-3
-1.567, 5.040e-3
-1.566, 5.014e-3
-1.565, 4.959e-3
-1.564, 4.960e-3
-1.563, 4.911e-3
-1.562, 4.877e-3
-1.561, 4.972e-3
-1.560, 4.923e-3
-1.559, 4.858e-3
-1.558, 4.820e-3
-1.557, 4.783e-3
-1.556, 4.747e-3
-1.555, 4.700e-3
-1.554, 4.716e-3
-1.553, 4.654e-3
-1.552, 4.607e-3
-1.551, 4.570e-3
-1.550, 4.527e-3
-1.549, 4.521e-3
-1.548, 4.445e-3
-1.547, 4.431e-3
-1.546, 4.407e-3
-1.545, 4.374e-3
-1.544, 4.351e-3
-1.543, 4.289e-3
-1.542, 4.272e-3
-1.541, 4.273e-3
-1.540, 4.219e-3
-1.539, 4.185e-3
-1.538, 4.175e-3
-1.537, 4.119e-3
-1.536, 4.151e-3
-1.535, 4.169e-3
-1.534, 4.097e-3
-1.533, 4.098e-3
-1.532, 4.020e-3
-1.531, 4.029e-3
-1.530, 4.003e-3
-1.529, 3.953e-3
-1.528, 3.927e-3
-1.527, 3.898e-3
-1.526, 3.875e-3
-1.525, 3.863e-3
-1.524, 3.763e-3
-1.523, 3.798e-3
-1.522, 3.744e-3
-1.521, 3.708e-3
-1.520, 3.694e-3
-1.519, 3.692e-3
-1.518, 3.634e-3
-1.517, 3.599e-3
-1.516, 3.566e-3
-1.515, 3.522e-3
-1.514, 3.512e-3
-1.513, 3.505e-3
-1.512, 3.464e-3
-1.511, 3.414e-3
-1.510, 3.422e-3
-1.509, 3.373e-3
-1.508, 3.464e-3
-1.507, 3.494e-3
-1.506, 3.422e-3
-1.505, 3.393e-3
-1.504, 3.357e-3
-1.503, 3.334e-3
-1.502, 3.316e-3
-1.501, 3.283e-3
-1.500, 3.247e-3
-1.499, 3.208e-3
-1.498, 3.188e-3
-1.497, 3.154e-3
-1.496, 3.114e-3
-1.495, 3.091e-3
-1.494, 3.062e-3
-1.493, 3.031e-3
-1.492, 3.012e-3
-1.491, 2.984e-3
-1.490, 2.954e-3
-1.489, 2.986e-3
-1.488, 2.920e-3
-1.487, 2.901e-3
-1.486, 2.865e-3
-1.485, 2.841e-3
-1.484, 2.811e-3
-1.483, 2.767e-3
-1.482, 2.726e-3
-1.481, 2.731e-3
-1.480, 2.717e-3
-1.479, 2.654e-3
-1.478, 2.641e-3
-1.477, 2.630e-3
-1.476, 2.608e-3
-1.475, 2.569e-3
-1.474, 2.543e-3
-1.473, 2.519e-3
-1.472, 2.494e-3
-1.471, 2.465e-3
-1.470, 2.439e-3
-1.469, 2.393e-3
-1.468, 2.386e-3
-1.467, 2.367e-3
-1.466, 2.337e-3
-1.465, 2.303e-3
-1.464, 2.278e-3
-1.463, 2.261e-3
-1.462, 2.222e-3
-1.461, 2.197e-3
-1.460, 2.167e-3
-1.459, 2.139e-3
-1.458, 2.142e-3
-1.457, 2.108e-3
-1.456, 2.084e-3
-1.455, 2.054e-3
-1.454, 2.043e-3
-1.453, 2.014e-3
-1.452, 1.991e-3
-1.451, 1.975e-3
-1.450, 1.941e-3
-1.449, 1.923e-3
-1.448, 1.902e-3
-1.447, 1.882e-3
-1.446, 1.855e-3
-1.445, 1.834e-3
-1.444, 1.807e-3
-1.443, 1.806e-3
-1.442, 1.778e-3
-1.441, 1.760e-3
-1.440, 1.732e-3
-1.439, 1.706e-3
-1.438, 1.685e-3
-1.437, 1.675e-3
-1.436, 1.651e-3
-1.435, 1.636e-3
-1.434, 1.588e-3
-1.433, 1.573e-3
-1.432, 1.558e-3
-1.431, 1.546e-3
-1.430, 1.519e-3
-1.429, 1.507e-3
-1.428, 1.481e-3
-1.427, 1.460e-3
-1.426, 1.447e-3
-1.425, 1.414e-3
-1.424, 1.395e-3
-1.423, 1.375e-3
-1.422, 1.363e-3
-1.421, 1.348e-3
-1.420, 1.331e-3
-1.419, 1.308e-3
-1.418, 1.288e-3
-1.417, 1.271e-3
-1.416, 1.251e-3
-1.415, 1.230e-3
-1.414, 1.222e-3
-1.413, 1.194e-3
-1.412, 1.184e-3
-1.411, 1.171e-3
-1.410, 1.142e-3
-1.409, 1.128e-3
-1.408, 1.103e-3
-1.407, 1.091e-3
-1.406, 1.071e-3
-1.405, 1.055e-3
-1.404, 1.045e-3
-1.403, 1.021e-3
-1.402, 1.007e-3
-1.401, 9.952e-4
-1.400, 9.775e-4
-1.399, 9.608e-4
-1.398, 9.489e-4
-1.397, 9.272e-4
-1.396, 9.123e-4
-1.395, 8.987e-4
-1.394, 8.825e-4
-1.393, 8.679e-4
-1.392, 8.498e-4
-1.391, 8.370e-4
-1.390, 8.224e-4
-1.389, 8.065e-4
-1.388, 7.955e-4
-1.387, 8.022e-4
-1.386, 7.790e-4
-1.385, 7.663e-4
-1.384, 7.462e-4
-1.383, 7.323e-4
-1.382, 7.194e-4
-1.381, 7.050e-4
-1.380, 6.929e-4
-1.379, 6.801e-4
-1.378, 6.639e-4
-1.377, 6.530e-4
-1.376, 6.400e-4
-1.375, 6.274e-4
-1.374, 6.115e-4
-1.373, 6.041e-4
-1.372, 5.896e-4
-1.371, 5.758e-4
-1.370, 5.674e-4
-1.369, 5.576e-4
-1.368, 5.458e-4
-1.367, 5.373e-4
-1.366, 5.191e-4
-1.365, 5.052e-4
-1.364, 4.964e-4
-1.363, 4.870e-4
-1.362, 4.723e-4
-1.361, 4.623e-4
-1.360, 4.585e-4
-1.359, 4.466e-4
-1.358, 4.328e-4
-1.357, 4.178e-4
-1.356, 4.133e-4
-1.355, 4.008e-4
-1.354, 3.940e-4
-1.353, 3.842e-4
-1.352, 3.739e-4
-1.351, 3.665e-4
-1.350, 3.585e-4
-1.349, 3.496e-4
-1.348, 3.391e-4
-1.347, 3.270e-4
-1.346, 3.220e-4
-1.345, 3.128e-4
-1.344, 3.046e-4
-1.343, 2.967e-4
-1.342, 2.914e-4
-1.341, 2.848e-4
-1.340, 2.720e-4
-1.339, 2.658e-4
-1.338, 2.558e-4
-1.337, 2.505e-4
-1.336, 2.429e-4
-1.335, 2.366e-4
-1.334, 2.299e-4
-1.333, 2.230e-4
-1.332, 2.145e-4
-1.331, 2.071e-4
-1.330, 2.002e-4
-1.329, 1.940e-4
-1.328, 1.874e-4
-1.327, 1.815e-4
-1.326, 1.724e-4
-1.325, 1.661e-4
-1.324, 1.605e-4
-1.323, 1.554e-4
-1.322, 1.497e-4
-1.321, 1.431e-4
-1.320, 1.373e-4
-1.319, 1.301e-4
-1.318, 1.246e-4
-1.317, 1.199e-4
-1.316, 1.137e-4
-1.315, 1.095e-4
-1.314, 1.040e-4
-1.313, 9.857e-5
-1.312, 9.383e-5
-1.311, 8.903e-5
-1.310, 8.477e-5
-1.309, 7.943e-5
-1.308, 7.409e-5
-1.307, 6.951e-5
-1.306, 6.543e-5
-1.305, 6.193e-5
-1.304, 5.726e-5
-1.303, 5.289e-5
-1.302, 4.829e-5
-1.301, 4.392e-5
-1.300, 4.049e-5
-1.299, 3.629e-5
-1.298, 3.216e-5
-1.297, 2.900e-5
-1.296, 2.558e-5
-1.295, 2.184e-5
-1.294, 1.809e-5
-1.293, 1.400e-5
-1.292, 1.009e-5
-1.291, 8.059e-6
-1.290, 4.872e-6
-1.289, 1.725e-6
-1.288, -1.729e-6
-1.287, -4.432e-6
-1.286, -6.592e-6
-1.285, -1.015e-5
-1.284, -1.360e-5
-1.283, -1.687e-5
-1.282, -1.943e-5
-1.281, -1.976e-5
-1.280, -1.836e-5
-1.279, -1.924e-5
-1.278, -2.264e-5
-1.277, -2.523e-5
-1.276, -2.859e-5
-1.275, -3.219e-5
-1.274, -3.638e-5
-1.273, -3.983e-5
-1.272, -4.168e-5
-1.271, -4.444e-5
-1.270, -4.653e-5
-1.269, -4.979e-5
-1.268, -5.420e-5
-1.267, -5.441e-5
-1.266, -5.722e-5
-1.265, -5.878e-5
-1.264, -6.140e-5
-1.263, -6.471e-5
-1.262, -6.657e-5
-1.261, -6.804e-5
-1.260, -7.009e-5
-1.259, -7.254e-5
-1.258, -7.444e-5
-1.257, -7.597e-5
-1.256, -7.750e-5
-1.255, -7.902e-5
-1.254, -8.199e-5
-1.253, -8.451e-5
-1.252, -8.539e-5
-1.251, -8.738e-5
-1.250, -8.784e-5
-1.249, -9.104e-5
-1.248, -9.398e-5
-1.247, -9.498e-5
-1.246, -9.628e-5
-1.245, -9.634e-5
-1.244, -9.841e-5
-1.243, -1.001e-4
-1.242, -1.013e-4
-1.241, -1.026e-4
-1.240, -1.046e-4
-1.239, -1.065e-4
-1.238, -1.079e-4
-1.237, -1.085e-4
-1.236, -1.102e-4
-1.235, -1.115e-4
-1.234, -1.134e-4
-1.233, -1.147e-4
-1.232, -1.168e-4
-1.231, -1.155e-4
-1.230, -1.176e-4
-1.229, -1.213e-4
-1.228, -1.230e-4
-1.227, -1.228e-4
-1.226, -1.222e-4
-1.225, -1.234e-4
-1.224, -1.260e-4
-1.223, -1.260e-4
-1.222, -1.290e-4
-1.221, -1.288e-4
-1.220, -1.309e-4
-1.219, -1.312e-4
-1.218, -1.334e-4
-1.217, -1.337e-4
-1.216, -1.341e-4
-1.215, -1.356e-4
-1.214, -1.383e-4
-1.213, -1.390e-4
-1.212, -1.369e-4
-1.211, -1.416e-4
-1.210, -1.429e-4
-1.209, -1.433e-4
-1.208, -1.450e-4
-1.207, -1.441e-4
-1.206, -1.459e-4
-1.205, -1.491e-4
-1.204, -1.493e-4
-1.203, -1.528e-4
-1.202, -1.491e-4
-1.201, -1.518e-4
-1.200, -1.521e-4
-1.199, -1.543e-4
-1.198, -1.553e-4
-1.197, -1.563e-4
-1.196, -1.583e-4
-1.195, -1.578e-4
-1.194, -1.609e-4
-1.193, -1.613e-4
-1.192, -1.634e-4
-1.191, -1.626e-4
-1.190, -1.644e-4
-1.189, -1.657e-4
-1.188, -1.678e-4
-1.187, -1.684e-4
-1.186, -1.687e-4
-1.185, -1.709e-4
-1.184, -1.719e-4
-1.183, -1.753e-4
-1.182, -1.744e-4
-1.181, -1.755e-4
-1.180, -1.762e-4
-1.179, -1.777e-4
-1.178, -1.820e-4
-1.177, -1.801e-4
-1.176, -1.839e-4
-1.175, -1.842e-4
-1.174, -1.880e-4
-1.173, -1.879e-4
-1.172, -1.910e-4
-1.171, -1.904e-4
-1.170, -1.944e-4
-1.169, -1.951e-4
-1.168, -1.988e-4
-1.167, -2.018e-4
-1.166, -2.015e-4
-1.165, -2.051e-4
-1.164, -2.080e-4
-1.163, -2.120e-4
-1.162, -2.154e-4
-1.161, -2.189e-4
-1.160, -2.174e-4
-1.159, -2.223e-4
-1.158, -2.263e-4
-1.157, -2.295e-4
-1.156, -2.322e-4
-1.155, -2.361e-4
-1.154, -2.397e-4
-1.153, -2.464e-4
-1.152, -2.485e-4
-1.151, -2.533e-4
-1.150, -2.571e-4
-1.149, -2.605e-4
-1.148, -2.649e-4
-1.147, -2.695e-4
-1.146, -2.746e-4
-1.145, -2.823e-4
-1.144, -2.863e-4
-1.143, -2.952e-4
-1.142, -2.980e-4
-1.141, -3.017e-4
-1.140, -3.086e-4
-1.139, -3.160e-4
-1.138, -3.256e-4
-1.137, -3.363e-4
-1.136, -3.453e-4
-1.135, -3.495e-4
-1.134, -3.606e-4
-1.133, -3.682e-4
-1.132, -3.787e-4
-1.131, -3.917e-4
-1.130, -4.065e-4
-1.129, -4.258e-4
-1.128, -4.287e-4
-1.127, -4.380e-4
-1.126, -4.547e-4
-1.125, -4.612e-4
-1.124, -4.747e-4
-1.123, -4.854e-4
-1.122, -4.951e-4
-1.121, -5.100e-4
-1.120, -5.202e-4
-1.119, -5.540e-4
-1.118, -5.902e-4
-1.117, -5.705e-4
-1.116, -5.907e-4
-1.115, -5.937e-4
-1.114, -6.107e-4
-1.113, -6.171e-4
-1.112, -6.326e-4
-1.111, -6.474e-4
-1.110, -6.639e-4
-1.109, -6.716e-4
-1.108, -6.786e-4
-1.107, -6.875e-4
-1.106, -7.047e-4
-1.105, -7.196e-4
-1.104, -7.422e-4
-1.103, -7.345e-4
-1.102, -7.473e-4
-1.101, -7.556e-4
-1.100, -7.684e-4
-1.099, -7.831e-4
-1.098, -7.888e-4
-1.097, -8.025e-4
-1.096, -8.171e-4
-1.095, -8.173e-4
-1.094, -8.351e-4
-1.093, -8.372e-4
-1.092, -8.496e-4
-1.091, -8.536e-4
-1.090, -8.597e-4
-1.089, -8.861e-4
-1.088, -8.983e-4
-1.087, -9.054e-4
-1.086, -9.120e-4
-1.085, -9.115e-4
-1.084, -9.277e-4
-1.083, -9.377e-4
-1.082, -9.499e-4
-1.081, -9.569e-4
-1.080, -9.673e-4
-1.079, -9.747e-4
-1.078, -9.886e-4
-1.077, -9.961e-4
-1.076, -1.000e-3
-1.075, -1.016e-3
-1.074, -1.015e-3
-1.073, -1.016e-3
-1.072, -1.027e-3
-1.071, -1.030e-3
-1.070, -1.043e-3
-1.069, -1.049e-3
-1.068, -1.052e-3
-1.067, -1.063e-3
-1.066, -1.065e-3
-1.065, -1.072e-3
-1.064, -1.088e-3
-1.063, -1.097e-3
-1.062, -1.108e-3
-1.061, -1.115e-3
-1.060, -1.123e-3
-1.059, -1.128e-3
-1.058, -1.126e-3
-1.057, -1.132e-3
-1.056, -1.148e-3
-1.055, -1.155e-3
-1.054, -1.161e-3
-1.053, -1.163e-3
-1.052, -1.172e-3
-1.051, -1.176e-3
-1.050, -1.178e-3
-1.049, -1.193e-3
-1.048, -1.188e-3
-1.047, -1.209e-3
-1.046, -1.223e-3
-1.045, -1.226e-3
-1.044, -1.229e-3
-1.043, -1.224e-3
-1.042, -1.229e-3
-1.041, -1.233e-3
-1.040, -1.242e-3
-1.039, -1.248e-3
-1.038, -1.281e-3
-1.037, -1.287e-3
-1.036, -1.290e-3
-1.035, -1.285e-3
-1.034, -1.296e-3
-1.033, -1.298e-3
-1.032, -1.296e-3
-1.031, -1.309e-3
-1.030, -1.312e-3
-1.029, -1.324e-3
-1.028, -1.323e-3
-1.027, -1.323e-3
-1.026, -1.315e-3
-1.025, -1.319e-3
-1.024, -1.322e-3
-1.023, -1.325e-3
-1.022, -1.337e-3
-1.021, -1.337e-3
-1.020, -1.343e-3
-1.019, -1.336e-3
-1.018, -1.324e-3
-1.017, -1.330e-3
-1.016, -1.352e-3
-1.015, -1.328e-3
-1.014, -1.340e-3
-1.013, -1.335e-3
-1.012, -1.332e-3
-1.011, -1.339e-3
-1.010, -1.335e-3
-1.009, -1.337e-3
-1.008, -1.336e-3
-1.007, -1.329e-3
-1.006, -1.332e-3
-1.005, -1.327e-3
-1.004, -1.336e-3
-1.003, -1.331e-3
-1.002, -1.326e-3
-1.001, -1.325e-3
