July 16, 2024   04:54:05
Cyclic Voltammetry
File: c:/users/guazh/data/20240709_batch67/2024-07-10-exp58\exp58-2024-07-16t04_33_23-arkoh\exp58_cv_sr_900mvs_efin_-1700mv.bin
Data Source:  Experiment
Instrument Model:  CHI760E
Header: CV ran at 900 mVs
Note: 

Init E (V) = -1
High E (V) = -1
Low E (V) = -1.7
Final E (V) = -1
Init P/N = N
Scan Rate (V/s) = 0.9
Segment = 3
Sample Interval (V) = 0.001
Quiet Time (sec) = 2
Sensitivity (A/V) = 0.01
Comp R (ohm) = 1.8

Results:

Channel 1:
Segment 1:

Segment 2:

Segment 3:

Potential/V, Current/A

-1.000, 3.715e-5
-1.001, 9.265e-5
-1.002, 1.173e-4
-1.003, 1.327e-4
-1.004, 1.420e-4
-1.005, 1.451e-4
-1.006, 1.481e-4
-1.007, 1.543e-4
-1.008, 1.574e-4
-1.009, 1.605e-4
-1.010, 1.636e-4
-1.011, 1.697e-4
-1.012, 1.728e-4
-1.013, 1.759e-4
-1.014, 1.790e-4
-1.015, 1.790e-4
-1.016, 1.790e-4
-1.017, 1.790e-4
-1.018, 1.790e-4
-1.019, 1.790e-4
-1.020, 1.790e-4
-1.021, 1.759e-4
-1.022, 1.790e-4
-1.023, 1.790e-4
-1.024, 1.821e-4
-1.025, 1.851e-4
-1.026, 1.882e-4
-1.027, 1.882e-4
-1.028, 1.913e-4
-1.029, 1.913e-4
-1.030, 1.913e-4
-1.031, 1.944e-4
-1.032, 1.882e-4
-1.033, 1.882e-4
-1.034, 1.882e-4
-1.035, 1.882e-4
-1.036, 1.882e-4
-1.037, 1.851e-4
-1.038, 1.882e-4
-1.039, 1.882e-4
-1.040, 1.913e-4
-1.041, 1.944e-4
-1.042, 1.944e-4
-1.043, 1.975e-4
-1.044, 1.975e-4
-1.045, 1.975e-4
-1.046, 1.975e-4
-1.047, 1.944e-4
-1.048, 1.944e-4
-1.049, 1.944e-4
-1.050, 1.913e-4
-1.051, 1.913e-4
-1.052, 1.913e-4
-1.053, 1.913e-4
-1.054, 1.944e-4
-1.055, 1.944e-4
-1.056, 1.975e-4
-1.057, 2.006e-4
-1.058, 2.006e-4
-1.059, 2.036e-4
-1.060, 2.006e-4
-1.061, 2.006e-4
-1.062, 1.975e-4
-1.063, 1.975e-4
-1.064, 1.944e-4
-1.065, 1.975e-4
-1.066, 1.944e-4
-1.067, 1.944e-4
-1.068, 1.975e-4
-1.069, 1.944e-4
-1.070, 1.975e-4
-1.071, 2.006e-4
-1.072, 2.006e-4
-1.073, 2.036e-4
-1.074, 2.067e-4
-1.075, 2.036e-4
-1.076, 2.067e-4
-1.077, 2.036e-4
-1.078, 2.006e-4
-1.079, 2.006e-4
-1.080, 1.975e-4
-1.081, 1.975e-4
-1.082, 1.975e-4
-1.083, 1.975e-4
-1.084, 1.975e-4
-1.085, 2.006e-4
-1.086, 2.036e-4
-1.087, 2.036e-4
-1.088, 2.036e-4
-1.089, 2.098e-4
-1.090, 2.067e-4
-1.091, 2.067e-4
-1.092, 2.036e-4
-1.093, 2.036e-4
-1.094, 2.006e-4
-1.095, 2.006e-4
-1.096, 1.975e-4
-1.097, 2.006e-4
-1.098, 2.006e-4
-1.099, 2.006e-4
-1.100, 2.036e-4
-1.101, 2.036e-4
-1.102, 2.067e-4
-1.103, 2.067e-4
-1.104, 2.098e-4
-1.105, 2.098e-4
-1.106, 2.098e-4
-1.107, 2.067e-4
-1.108, 2.036e-4
-1.109, 2.036e-4
-1.110, 2.006e-4
-1.111, 2.006e-4
-1.112, 2.006e-4
-1.113, 2.036e-4
-1.114, 2.036e-4
-1.115, 2.036e-4
-1.116, 2.067e-4
-1.117, 2.098e-4
-1.118, 2.098e-4
-1.119, 2.129e-4
-1.120, 2.098e-4
-1.121, 2.098e-4
-1.122, 2.098e-4
-1.123, 2.067e-4
-1.124, 2.067e-4
-1.125, 2.067e-4
-1.126, 2.006e-4
-1.127, 2.036e-4
-1.128, 2.036e-4
-1.129, 2.036e-4
-1.130, 2.067e-4
-1.131, 2.098e-4
-1.132, 2.098e-4
-1.133, 2.129e-4
-1.134, 2.129e-4
-1.135, 2.129e-4
-1.136, 2.129e-4
-1.137, 2.129e-4
-1.138, 2.098e-4
-1.139, 2.067e-4
-1.140, 2.067e-4
-1.141, 2.036e-4
-1.142, 2.067e-4
-1.143, 2.067e-4
-1.144, 2.067e-4
-1.145, 2.067e-4
-1.146, 2.129e-4
-1.147, 2.129e-4
-1.148, 2.129e-4
-1.149, 2.160e-4
-1.150, 2.160e-4
-1.151, 2.160e-4
-1.152, 2.129e-4
-1.153, 2.129e-4
-1.154, 2.098e-4
-1.155, 2.098e-4
-1.156, 2.067e-4
-1.157, 2.067e-4
-1.158, 2.098e-4
-1.159, 2.098e-4
-1.160, 2.129e-4
-1.161, 2.129e-4
-1.162, 2.160e-4
-1.163, 2.160e-4
-1.164, 2.191e-4
-1.165, 2.191e-4
-1.166, 2.191e-4
-1.167, 2.160e-4
-1.168, 2.129e-4
-1.169, 2.129e-4
-1.170, 2.129e-4
-1.171, 2.098e-4
-1.172, 2.129e-4
-1.173, 2.129e-4
-1.174, 2.129e-4
-1.175, 2.129e-4
-1.176, 2.191e-4
-1.177, 2.191e-4
-1.178, 2.221e-4
-1.179, 2.221e-4
-1.180, 2.221e-4
-1.181, 2.221e-4
-1.182, 2.191e-4
-1.183, 2.191e-4
-1.184, 2.191e-4
-1.185, 2.160e-4
-1.186, 2.160e-4
-1.187, 2.160e-4
-1.188, 2.191e-4
-1.189, 2.160e-4
-1.190, 2.191e-4
-1.191, 2.221e-4
-1.192, 2.252e-4
-1.193, 2.283e-4
-1.194, 2.283e-4
-1.195, 2.252e-4
-1.196, 2.283e-4
-1.197, 2.252e-4
-1.198, 2.221e-4
-1.199, 2.221e-4
-1.200, 2.221e-4
-1.201, 2.191e-4
-1.202, 2.221e-4
-1.203, 2.221e-4
-1.204, 2.252e-4
-1.205, 2.252e-4
-1.206, 2.283e-4
-1.207, 2.314e-4
-1.208, 2.314e-4
-1.209, 2.345e-4
-1.210, 2.345e-4
-1.211, 2.345e-4
-1.212, 2.314e-4
-1.213, 2.283e-4
-1.214, 2.283e-4
-1.215, 2.283e-4
-1.216, 2.283e-4
-1.217, 2.283e-4
-1.218, 2.314e-4
-1.219, 2.314e-4
-1.220, 2.345e-4
-1.221, 2.345e-4
-1.222, 2.376e-4
-1.223, 2.406e-4
-1.224, 2.406e-4
-1.225, 2.437e-4
-1.226, 2.437e-4
-1.227, 2.406e-4
-1.228, 2.406e-4
-1.229, 2.406e-4
-1.230, 2.406e-4
-1.231, 2.376e-4
-1.232, 2.376e-4
-1.233, 2.406e-4
-1.234, 2.406e-4
-1.235, 2.437e-4
-1.236, 2.468e-4
-1.237, 2.499e-4
-1.238, 2.499e-4
-1.239, 2.530e-4
-1.240, 2.530e-4
-1.241, 2.530e-4
-1.242, 2.530e-4
-1.243, 2.499e-4
-1.244, 2.530e-4
-1.245, 2.499e-4
-1.246, 2.499e-4
-1.247, 2.530e-4
-1.248, 2.530e-4
-1.249, 2.530e-4
-1.250, 2.591e-4
-1.251, 2.591e-4
-1.252, 2.622e-4
-1.253, 2.653e-4
-1.254, 2.684e-4
-1.255, 2.684e-4
-1.256, 2.684e-4
-1.257, 2.684e-4
-1.258, 2.684e-4
-1.259, 2.684e-4
-1.260, 2.684e-4
-1.261, 2.684e-4
-1.262, 2.684e-4
-1.263, 2.715e-4
-1.264, 2.715e-4
-1.265, 2.746e-4
-1.266, 2.807e-4
-1.267, 2.807e-4
-1.268, 2.838e-4
-1.269, 2.900e-4
-1.270, 2.900e-4
-1.271, 2.900e-4
-1.272, 2.869e-4
-1.273, 2.869e-4
-1.274, 2.900e-4
-1.275, 2.900e-4
-1.276, 2.900e-4
-1.277, 2.931e-4
-1.278, 2.931e-4
-1.279, 2.961e-4
-1.280, 3.023e-4
-1.281, 3.054e-4
-1.282, 3.085e-4
-1.283, 3.115e-4
-1.284, 3.146e-4
-1.285, 3.177e-4
-1.286, 3.177e-4
-1.287, 3.177e-4
-1.288, 3.146e-4
-1.289, 3.177e-4
-1.290, 3.177e-4
-1.291, 3.177e-4
-1.292, 3.208e-4
-1.293, 3.239e-4
-1.294, 3.270e-4
-1.295, 3.300e-4
-1.296, 3.331e-4
-1.297, 3.393e-4
-1.298, 3.455e-4
-1.299, 3.455e-4
-1.300, 3.485e-4
-1.301, 3.516e-4
-1.302, 3.485e-4
-1.303, 3.516e-4
-1.304, 3.516e-4
-1.305, 3.547e-4
-1.306, 3.547e-4
-1.307, 3.578e-4
-1.308, 3.609e-4
-1.309, 3.640e-4
-1.310, 3.701e-4
-1.311, 3.732e-4
-1.312, 3.794e-4
-1.313, 3.825e-4
-1.314, 3.855e-4
-1.315, 3.886e-4
-1.316, 3.917e-4
-1.317, 3.917e-4
-1.318, 3.948e-4
-1.319, 3.979e-4
-1.320, 3.979e-4
-1.321, 3.979e-4
-1.322, 4.040e-4
-1.323, 4.071e-4
-1.324, 4.102e-4
-1.325, 4.164e-4
-1.326, 4.195e-4
-1.327, 4.256e-4
-1.328, 4.318e-4
-1.329, 4.380e-4
-1.330, 4.380e-4
-1.331, 4.441e-4
-1.332, 4.441e-4
-1.333, 4.441e-4
-1.334, 4.472e-4
-1.335, 4.534e-4
-1.336, 4.503e-4
-1.337, 4.565e-4
-1.338, 4.626e-4
-1.339, 4.657e-4
-1.340, 4.719e-4
-1.341, 4.780e-4
-1.342, 4.842e-4
-1.343, 4.904e-4
-1.344, 4.965e-4
-1.345, 4.996e-4
-1.346, 5.027e-4
-1.347, 5.058e-4
-1.348, 5.089e-4
-1.349, 5.120e-4
-1.350, 5.150e-4
-1.351, 5.181e-4
-1.352, 5.212e-4
-1.353, 5.274e-4
-1.354, 5.335e-4
-1.355, 5.397e-4
-1.356, 5.489e-4
-1.357, 5.520e-4
-1.358, 5.582e-4
-1.359, 5.644e-4
-1.360, 5.705e-4
-1.361, 5.767e-4
-1.362, 5.767e-4
-1.363, 5.798e-4
-1.364, 5.829e-4
-1.365, 5.890e-4
-1.366, 5.921e-4
-1.367, 5.983e-4
-1.368, 6.044e-4
-1.369, 6.106e-4
-1.370, 6.168e-4
-1.371, 6.260e-4
-1.372, 6.322e-4
-1.373, 6.384e-4
-1.374, 6.476e-4
-1.375, 6.507e-4
-1.376, 6.569e-4
-1.377, 6.599e-4
-1.378, 6.630e-4
-1.379, 6.692e-4
-1.380, 6.754e-4
-1.381, 6.784e-4
-1.382, 6.846e-4
-1.383, 6.908e-4
-1.384, 7.000e-4
-1.385, 7.062e-4
-1.386, 7.154e-4
-1.387, 7.216e-4
-1.388, 7.309e-4
-1.389, 7.370e-4
-1.390, 7.432e-4
-1.391, 7.524e-4
-1.392, 7.555e-4
-1.393, 7.586e-4
-1.394, 7.648e-4
-1.395, 7.709e-4
-1.396, 7.740e-4
-1.397, 7.833e-4
-1.398, 7.894e-4
-1.399, 7.987e-4
-1.400, 8.048e-4
-1.401, 8.141e-4
-1.402, 8.233e-4
-1.403, 8.295e-4
-1.404, 8.418e-4
-1.405, 8.480e-4
-1.406, 8.573e-4
-1.407, 8.603e-4
-1.408, 8.634e-4
-1.409, 8.727e-4
-1.410, 8.758e-4
-1.411, 8.819e-4
-1.412, 8.912e-4
-1.413, 8.973e-4
-1.414, 9.066e-4
-1.415, 9.158e-4
-1.416, 9.251e-4
-1.417, 9.343e-4
-1.418, 9.436e-4
-1.419, 9.528e-4
-1.420, 9.590e-4
-1.421, 9.683e-4
-1.422, 9.713e-4
-1.423, 9.775e-4
-1.424, 9.868e-4
-1.425, 9.929e-4
-1.426, 9.960e-4
-1.427, 1.005e-3
-1.428, 1.014e-3
-1.429, 1.024e-3
-1.430, 1.030e-3
-1.431, 1.042e-3
-1.432, 1.051e-3
-1.433, 1.061e-3
-1.434, 1.070e-3
-1.435, 1.079e-3
-1.436, 1.088e-3
-1.437, 1.095e-3
-1.438, 1.101e-3
-1.439, 1.107e-3
-1.440, 1.116e-3
-1.441, 1.119e-3
-1.442, 1.129e-3
-1.443, 1.138e-3
-1.444, 1.147e-3
-1.445, 1.156e-3
-1.446, 1.169e-3
-1.447, 1.178e-3
-1.448, 1.190e-3
-1.449, 1.199e-3
-1.450, 1.206e-3
-1.451, 1.215e-3
-1.452, 1.221e-3
-1.453, 1.227e-3
-1.454, 1.236e-3
-1.455, 1.243e-3
-1.456, 1.249e-3
-1.457, 1.261e-3
-1.458, 1.270e-3
-1.459, 1.280e-3
-1.460, 1.289e-3
-1.461, 1.301e-3
-1.462, 1.314e-3
-1.463, 1.323e-3
-1.464, 1.335e-3
-1.465, 1.344e-3
-1.466, 1.354e-3
-1.467, 1.360e-3
-1.468, 1.372e-3
-1.469, 1.378e-3
-1.470, 1.388e-3
-1.471, 1.394e-3
-1.472, 1.403e-3
-1.473, 1.415e-3
-1.474, 1.425e-3
-1.475, 1.434e-3
-1.476, 1.449e-3
-1.477, 1.458e-3
-1.478, 1.471e-3
-1.479, 1.486e-3
-1.480, 1.492e-3
-1.481, 1.505e-3
-1.482, 1.514e-3
-1.483, 1.520e-3
-1.484, 1.532e-3
-1.485, 1.542e-3
-1.486, 1.548e-3
-1.487, 1.560e-3
-1.488, 1.573e-3
-1.489, 1.585e-3
-1.490, 1.594e-3
-1.491, 1.613e-3
-1.492, 1.622e-3
-1.493, 1.637e-3
-1.494, 1.650e-3
-1.495, 1.662e-3
-1.496, 1.674e-3
-1.497, 1.680e-3
-1.498, 1.693e-3
-1.499, 1.702e-3
-1.500, 1.714e-3
-1.501, 1.724e-3
-1.502, 1.736e-3
-1.503, 1.748e-3
-1.504, 1.761e-3
-1.505, 1.773e-3
-1.506, 1.791e-3
-1.507, 1.807e-3
-1.508, 1.819e-3
-1.509, 1.832e-3
-1.510, 1.847e-3
-1.511, 1.862e-3
-1.512, 1.872e-3
-1.513, 1.887e-3
-1.514, 1.896e-3
-1.515, 1.909e-3
-1.516, 1.921e-3
-1.517, 1.936e-3
-1.518, 1.949e-3
-1.519, 1.961e-3
-1.520, 1.980e-3
-1.521, 1.998e-3
-1.522, 2.010e-3
-1.523, 2.029e-3
-1.524, 2.047e-3
-1.525, 2.060e-3
-1.526, 2.078e-3
-1.527, 2.091e-3
-1.528, 2.106e-3
-1.529, 2.121e-3
-1.530, 2.134e-3
-1.531, 2.149e-3
-1.532, 2.168e-3
-1.533, 2.180e-3
-1.534, 2.198e-3
-1.535, 2.217e-3
-1.536, 2.235e-3
-1.537, 2.257e-3
-1.538, 2.275e-3
-1.539, 2.294e-3
-1.540, 2.312e-3
-1.541, 2.331e-3
-1.542, 2.346e-3
-1.543, 2.365e-3
-1.544, 2.380e-3
-1.545, 2.399e-3
-1.546, 2.417e-3
-1.547, 2.436e-3
-1.548, 2.454e-3
-1.549, 2.473e-3
-1.550, 2.494e-3
-1.551, 2.519e-3
-1.552, 2.538e-3
-1.553, 2.562e-3
-1.554, 2.584e-3
-1.555, 2.605e-3
-1.556, 2.630e-3
-1.557, 2.645e-3
-1.558, 2.667e-3
-1.559, 2.689e-3
-1.560, 2.707e-3
-1.561, 2.729e-3
-1.562, 2.750e-3
-1.563, 2.772e-3
-1.564, 2.797e-3
-1.565, 2.818e-3
-1.566, 2.843e-3
-1.567, 2.871e-3
-1.568, 2.895e-3
-1.569, 2.923e-3
-1.570, 2.948e-3
-1.571, 2.972e-3
-1.572, 2.997e-3
-1.573, 3.019e-3
-1.574, 3.043e-3
-1.575, 3.068e-3
-1.576, 3.089e-3
-1.577, 3.117e-3
-1.578, 3.142e-3
-1.579, 3.170e-3
-1.580, 3.197e-3
-1.581, 3.228e-3
-1.582, 3.256e-3
-1.583, 3.287e-3
-1.584, 3.318e-3
-1.585, 3.345e-3
-1.586, 3.376e-3
-1.587, 3.404e-3
-1.588, 3.432e-3
-1.589, 3.456e-3
-1.590, 3.487e-3
-1.591, 3.515e-3
-1.592, 3.543e-3
-1.593, 3.573e-3
-1.594, 3.604e-3
-1.595, 3.635e-3
-1.596, 3.672e-3
-1.597, 3.703e-3
-1.598, 3.737e-3
-1.599, 3.771e-3
-1.600, 3.805e-3
-1.601, 3.839e-3
-1.602, 3.869e-3
-1.603, 3.900e-3
-1.604, 3.934e-3
-1.605, 3.965e-3
-1.606, 3.996e-3
-1.607, 4.030e-3
-1.608, 4.067e-3
-1.609, 4.101e-3
-1.610, 4.135e-3
-1.611, 4.175e-3
-1.612, 4.212e-3
-1.613, 4.249e-3
-1.614, 4.289e-3
-1.615, 4.326e-3
-1.616, 4.363e-3
-1.617, 4.400e-3
-1.618, 4.434e-3
-1.619, 4.471e-3
-1.620, 4.508e-3
-1.621, 4.542e-3
-1.622, 4.582e-3
-1.623, 4.619e-3
-1.624, 4.659e-3
-1.625, 4.699e-3
-1.626, 4.742e-3
-1.627, 4.785e-3
-1.628, 4.828e-3
-1.629, 4.871e-3
-1.630, 4.915e-3
-1.631, 4.958e-3
-1.632, 4.995e-3
-1.633, 5.035e-3
-1.634, 5.078e-3
-1.635, 5.118e-3
-1.636, 5.158e-3
-1.637, 5.204e-3
-1.638, 5.248e-3
-1.639, 5.291e-3
-1.640, 5.337e-3
-1.641, 5.383e-3
-1.642, 5.433e-3
-1.643, 5.482e-3
-1.644, 5.528e-3
-1.645, 5.578e-3
-1.646, 5.627e-3
-1.647, 5.670e-3
-1.648, 5.716e-3
-1.649, 5.762e-3
-1.650, 5.809e-3
-1.651, 5.852e-3
-1.652, 5.901e-3
-1.653, 5.947e-3
-1.654, 6.000e-3
-1.655, 6.046e-3
-1.656, 6.102e-3
-1.657, 6.151e-3
-1.658, 6.206e-3
-1.659, 6.259e-3
-1.660, 6.311e-3
-1.661, 6.367e-3
-1.662, 6.419e-3
-1.663, 6.469e-3
-1.664, 6.521e-3
-1.665, 6.573e-3
-1.666, 6.623e-3
-1.667, 6.675e-3
-1.668, 6.731e-3
-1.669, 6.783e-3
-1.670, 6.838e-3
-1.671, 6.897e-3
-1.672, 6.956e-3
-1.673, 7.014e-3
-1.674, 7.073e-3
-1.675, 7.131e-3
-1.676, 7.190e-3
-1.677, 7.249e-3
-1.678, 7.304e-3
-1.679, 7.360e-3
-1.680, 7.415e-3
-1.681, 7.474e-3
-1.682, 7.532e-3
-1.683, 7.591e-3
-1.684, 7.652e-3
-1.685, 7.711e-3
-1.686, 7.776e-3
-1.687, 7.841e-3
-1.688, 7.905e-3
-1.689, 7.973e-3
-1.690, 8.038e-3
-1.691, 8.103e-3
-1.692, 8.164e-3
-1.693, 8.226e-3
-1.694, 8.291e-3
-1.695, 8.352e-3
-1.696, 8.414e-3
-1.697, 8.479e-3
-1.698, 8.543e-3
-1.699, 8.608e-3
-1.700, 8.599e-3
-1.699, 8.506e-3
-1.698, 8.436e-3
-1.697, 8.365e-3
-1.696, 8.294e-3
-1.695, 8.226e-3
-1.694, 8.158e-3
-1.693, 8.087e-3
-1.692, 8.016e-3
-1.691, 7.945e-3
-1.690, 7.874e-3
-1.689, 7.800e-3
-1.688, 7.733e-3
-1.687, 7.665e-3
-1.686, 7.597e-3
-1.685, 7.532e-3
-1.684, 7.467e-3
-1.683, 7.406e-3
-1.682, 7.344e-3
-1.681, 7.282e-3
-1.680, 7.221e-3
-1.679, 7.159e-3
-1.678, 7.091e-3
-1.677, 7.027e-3
-1.676, 6.965e-3
-1.675, 6.900e-3
-1.674, 6.835e-3
-1.673, 6.771e-3
-1.672, 6.709e-3
-1.671, 6.647e-3
-1.670, 6.589e-3
-1.669, 6.533e-3
-1.668, 6.475e-3
-1.667, 6.419e-3
-1.666, 6.361e-3
-1.665, 6.305e-3
-1.664, 6.247e-3
-1.663, 6.188e-3
-1.662, 6.126e-3
-1.661, 6.068e-3
-1.660, 6.009e-3
-1.659, 5.951e-3
-1.658, 5.895e-3
-1.657, 5.840e-3
-1.656, 5.784e-3
-1.655, 5.729e-3
-1.654, 5.676e-3
-1.653, 5.627e-3
-1.652, 5.574e-3
-1.651, 5.522e-3
-1.650, 5.470e-3
-1.649, 5.417e-3
-1.648, 5.365e-3
-1.647, 5.309e-3
-1.646, 5.257e-3
-1.645, 5.204e-3
-1.644, 5.152e-3
-1.643, 5.100e-3
-1.642, 5.050e-3
-1.641, 5.001e-3
-1.640, 4.952e-3
-1.639, 4.905e-3
-1.638, 4.859e-3
-1.637, 4.813e-3
-1.636, 4.767e-3
-1.635, 4.723e-3
-1.634, 4.677e-3
-1.633, 4.628e-3
-1.632, 4.582e-3
-1.631, 4.535e-3
-1.630, 4.489e-3
-1.629, 4.440e-3
-1.628, 4.397e-3
-1.627, 4.354e-3
-1.626, 4.310e-3
-1.625, 4.267e-3
-1.624, 4.227e-3
-1.623, 4.184e-3
-1.622, 4.144e-3
-1.621, 4.104e-3
-1.620, 4.061e-3
-1.619, 4.024e-3
-1.618, 3.977e-3
-1.617, 3.934e-3
-1.616, 3.894e-3
-1.615, 3.851e-3
-1.614, 3.808e-3
-1.613, 3.768e-3
-1.612, 3.731e-3
-1.611, 3.691e-3
-1.610, 3.654e-3
-1.609, 3.620e-3
-1.608, 3.586e-3
-1.607, 3.549e-3
-1.606, 3.515e-3
-1.605, 3.478e-3
-1.604, 3.444e-3
-1.603, 3.407e-3
-1.602, 3.370e-3
-1.601, 3.333e-3
-1.600, 3.296e-3
-1.599, 3.259e-3
-1.598, 3.228e-3
-1.597, 3.191e-3
-1.596, 3.160e-3
-1.595, 3.130e-3
-1.594, 3.099e-3
-1.593, 3.068e-3
-1.592, 3.037e-3
-1.591, 3.006e-3
-1.590, 2.978e-3
-1.589, 2.948e-3
-1.588, 2.914e-3
-1.587, 2.883e-3
-1.586, 2.849e-3
-1.585, 2.818e-3
-1.584, 2.787e-3
-1.583, 2.760e-3
-1.582, 2.729e-3
-1.581, 2.701e-3
-1.580, 2.673e-3
-1.579, 2.649e-3
-1.578, 2.624e-3
-1.577, 2.596e-3
-1.576, 2.571e-3
-1.575, 2.544e-3
-1.574, 2.519e-3
-1.573, 2.491e-3
-1.572, 2.460e-3
-1.571, 2.433e-3
-1.570, 2.408e-3
-1.569, 2.377e-3
-1.568, 2.353e-3
-1.567, 2.331e-3
-1.566, 2.306e-3
-1.565, 2.285e-3
-1.564, 2.260e-3
-1.563, 2.238e-3
-1.562, 2.220e-3
-1.561, 2.195e-3
-1.560, 2.174e-3
-1.559, 2.149e-3
-1.558, 2.124e-3
-1.557, 2.103e-3
-1.556, 2.078e-3
-1.555, 2.054e-3
-1.554, 2.032e-3
-1.553, 2.010e-3
-1.552, 1.989e-3
-1.551, 1.970e-3
-1.550, 1.949e-3
-1.549, 1.930e-3
-1.548, 1.912e-3
-1.547, 1.893e-3
-1.546, 1.875e-3
-1.545, 1.856e-3
-1.544, 1.838e-3
-1.543, 1.816e-3
-1.542, 1.795e-3
-1.541, 1.773e-3
-1.540, 1.754e-3
-1.539, 1.733e-3
-1.538, 1.717e-3
-1.537, 1.696e-3
-1.536, 1.680e-3
-1.535, 1.665e-3
-1.534, 1.650e-3
-1.533, 1.634e-3
-1.532, 1.619e-3
-1.531, 1.603e-3
-1.530, 1.585e-3
-1.529, 1.569e-3
-1.528, 1.551e-3
-1.527, 1.532e-3
-1.526, 1.517e-3
-1.525, 1.499e-3
-1.524, 1.480e-3
-1.523, 1.465e-3
-1.522, 1.452e-3
-1.521, 1.437e-3
-1.520, 1.425e-3
-1.519, 1.412e-3
-1.518, 1.400e-3
-1.517, 1.388e-3
-1.516, 1.375e-3
-1.515, 1.357e-3
-1.514, 1.347e-3
-1.513, 1.329e-3
-1.512, 1.314e-3
-1.511, 1.298e-3
-1.510, 1.283e-3
-1.509, 1.267e-3
-1.508, 1.255e-3
-1.507, 1.240e-3
-1.506, 1.230e-3
-1.505, 1.218e-3
-1.504, 1.209e-3
-1.503, 1.199e-3
-1.502, 1.187e-3
-1.501, 1.178e-3
-1.500, 1.166e-3
-1.499, 1.153e-3
-1.498, 1.141e-3
-1.497, 1.125e-3
-1.496, 1.113e-3
-1.495, 1.101e-3
-1.494, 1.085e-3
-1.493, 1.076e-3
-1.492, 1.064e-3
-1.491, 1.055e-3
-1.490, 1.045e-3
-1.489, 1.033e-3
-1.488, 1.027e-3
-1.487, 1.018e-3
-1.486, 1.008e-3
-1.485, 9.991e-4
-1.484, 9.868e-4
-1.483, 9.744e-4
-1.482, 9.652e-4
-1.481, 9.498e-4
-1.480, 9.405e-4
-1.479, 9.282e-4
-1.478, 9.189e-4
-1.477, 9.097e-4
-1.476, 9.004e-4
-1.475, 8.912e-4
-1.474, 8.850e-4
-1.473, 8.788e-4
-1.472, 8.696e-4
-1.471, 8.634e-4
-1.470, 8.511e-4
-1.469, 8.449e-4
-1.468, 8.326e-4
-1.467, 8.203e-4
-1.466, 8.110e-4
-1.465, 8.018e-4
-1.464, 7.894e-4
-1.463, 7.833e-4
-1.462, 7.740e-4
-1.461, 7.648e-4
-1.460, 7.586e-4
-1.459, 7.524e-4
-1.458, 7.463e-4
-1.457, 7.401e-4
-1.456, 7.309e-4
-1.455, 7.247e-4
-1.454, 7.185e-4
-1.453, 7.062e-4
-1.452, 6.969e-4
-1.451, 6.877e-4
-1.450, 6.784e-4
-1.449, 6.692e-4
-1.448, 6.630e-4
-1.447, 6.538e-4
-1.446, 6.476e-4
-1.445, 6.414e-4
-1.444, 6.353e-4
-1.443, 6.322e-4
-1.442, 6.260e-4
-1.441, 6.199e-4
-1.440, 6.137e-4
-1.439, 6.044e-4
-1.438, 5.952e-4
-1.437, 5.859e-4
-1.436, 5.767e-4
-1.435, 5.705e-4
-1.434, 5.613e-4
-1.433, 5.551e-4
-1.432, 5.459e-4
-1.431, 5.428e-4
-1.430, 5.366e-4
-1.429, 5.335e-4
-1.428, 5.274e-4
-1.427, 5.212e-4
-1.426, 5.150e-4
-1.425, 5.089e-4
-1.424, 5.058e-4
-1.423, 4.935e-4
-1.422, 4.873e-4
-1.421, 4.780e-4
-1.420, 4.719e-4
-1.419, 4.626e-4
-1.418, 4.595e-4
-1.417, 4.534e-4
-1.416, 4.472e-4
-1.415, 4.410e-4
-1.414, 4.380e-4
-1.413, 4.349e-4
-1.412, 4.287e-4
-1.411, 4.225e-4
-1.410, 4.195e-4
-1.409, 4.133e-4
-1.408, 4.040e-4
-1.407, 3.948e-4
-1.406, 3.886e-4
-1.405, 3.825e-4
-1.404, 3.732e-4
-1.403, 3.701e-4
-1.402, 3.640e-4
-1.401, 3.609e-4
-1.400, 3.547e-4
-1.399, 3.516e-4
-1.398, 3.485e-4
-1.397, 3.455e-4
-1.396, 3.393e-4
-1.395, 3.331e-4
-1.394, 3.300e-4
-1.393, 3.208e-4
-1.392, 3.115e-4
-1.391, 3.054e-4
-1.390, 2.992e-4
-1.389, 2.931e-4
-1.388, 2.869e-4
-1.387, 2.838e-4
-1.386, 2.776e-4
-1.385, 2.746e-4
-1.384, 2.715e-4
-1.383, 2.684e-4
-1.382, 2.653e-4
-1.381, 2.622e-4
-1.380, 2.530e-4
-1.379, 2.530e-4
-1.378, 2.437e-4
-1.377, 2.345e-4
-1.376, 2.314e-4
-1.375, 2.221e-4
-1.374, 2.160e-4
-1.373, 2.129e-4
-1.372, 2.067e-4
-1.371, 2.036e-4
-1.370, 2.006e-4
-1.369, 1.975e-4
-1.368, 1.944e-4
-1.367, 1.944e-4
-1.366, 1.882e-4
-1.365, 1.821e-4
-1.364, 1.790e-4
-1.363, 1.697e-4
-1.362, 1.666e-4
-1.361, 1.574e-4
-1.360, 1.543e-4
-1.359, 1.451e-4
-1.358, 1.420e-4
-1.357, 1.389e-4
-1.356, 1.358e-4
-1.355, 1.327e-4
-1.354, 1.296e-4
-1.353, 1.266e-4
-1.352, 1.235e-4
-1.351, 1.204e-4
-1.350, 1.142e-4
-1.349, 1.142e-4
-1.348, 1.050e-4
-1.347, 9.882e-5
-1.346, 9.265e-5
-1.345, 8.648e-5
-1.344, 8.032e-5
-1.343, 7.723e-5
-1.342, 7.415e-5
-1.341, 7.107e-5
-1.340, 6.798e-5
-1.339, 6.798e-5
-1.338, 6.490e-5
-1.337, 6.182e-5
-1.336, 5.873e-5
-1.335, 5.565e-5
-1.334, 5.257e-5
-1.333, 4.332e-5
-1.332, 3.715e-5
-1.331, 3.407e-5
-1.330, 2.790e-5
-1.329, 2.174e-5
-1.328, 1.865e-5
-1.327, 1.557e-5
-1.326, 1.249e-5
-1.325, 9.405e-6
-1.324, 6.322e-6
-1.323, 6.322e-6
-1.322, 3.239e-6
-1.321, 3.239e-6
-1.320, -2.927e-6
-1.319, -6.010e-6
-1.318, -1.218e-5
-1.317, -1.834e-5
-1.316, -2.143e-5
-1.315, -2.759e-5
-1.314, -3.376e-5
-1.313, -3.684e-5
-1.312, -3.684e-5
-1.311, -3.992e-5
-1.310, -4.301e-5
-1.309, -4.301e-5
-1.308, -4.301e-5
-1.307, -4.609e-5
-1.306, -4.917e-5
-1.305, -5.534e-5
-1.304, -5.534e-5
-1.303, -6.151e-5
-1.302, -6.767e-5
-1.301, -7.076e-5
-1.300, -7.692e-5
-1.299, -8.309e-5
-1.298, -8.309e-5
-1.297, -8.617e-5
-1.296, -8.617e-5
-1.295, -8.925e-5
-1.294, -8.925e-5
-1.293, -9.234e-5
-1.292, -9.234e-5
-1.291, -9.542e-5
-1.290, -9.850e-5
-1.289, -1.016e-4
-1.288, -1.078e-4
-1.287, -1.108e-4
-1.286, -1.139e-4
-1.285, -1.201e-4
-1.284, -1.263e-4
-1.283, -1.263e-4
-1.282, -1.293e-4
-1.281, -1.293e-4
-1.280, -1.293e-4
-1.279, -1.324e-4
-1.278, -1.324e-4
-1.277, -1.324e-4
-1.276, -1.355e-4
-1.275, -1.355e-4
-1.274, -1.417e-4
-1.273, -1.448e-4
-1.272, -1.478e-4
-1.271, -1.540e-4
-1.270, -1.571e-4
-1.269, -1.602e-4
-1.268, -1.632e-4
-1.267, -1.632e-4
-1.266, -1.632e-4
-1.265, -1.663e-4
-1.264, -1.663e-4
-1.263, -1.663e-4
-1.262, -1.663e-4
-1.261, -1.694e-4
-1.260, -1.725e-4
-1.259, -1.725e-4
-1.258, -1.756e-4
-1.257, -1.817e-4
-1.256, -1.848e-4
-1.255, -1.879e-4
-1.254, -1.910e-4
-1.253, -1.941e-4
-1.252, -1.941e-4
-1.251, -1.941e-4
-1.250, -1.941e-4
-1.249, -1.972e-4
-1.248, -1.941e-4
-1.247, -1.941e-4
-1.246, -1.972e-4
-1.245, -2.002e-4
-1.244, -2.002e-4
-1.243, -2.033e-4
-1.242, -2.095e-4
-1.241, -2.126e-4
-1.240, -2.126e-4
-1.239, -2.187e-4
-1.238, -2.187e-4
-1.237, -2.187e-4
-1.236, -2.187e-4
-1.235, -2.187e-4
-1.234, -2.187e-4
-1.233, -2.187e-4
-1.232, -2.187e-4
-1.231, -2.218e-4
-1.230, -2.218e-4
-1.229, -2.218e-4
-1.228, -2.280e-4
-1.227, -2.311e-4
-1.226, -2.342e-4
-1.225, -2.372e-4
-1.224, -2.403e-4
-1.223, -2.403e-4
-1.222, -2.403e-4
-1.221, -2.403e-4
-1.220, -2.403e-4
-1.219, -2.372e-4
-1.218, -2.372e-4
-1.217, -2.372e-4
-1.216, -2.372e-4
-1.215, -2.403e-4
-1.214, -2.403e-4
-1.213, -2.434e-4
-1.212, -2.496e-4
-1.211, -2.496e-4
-1.210, -2.527e-4
-1.209, -2.557e-4
-1.208, -2.557e-4
-1.207, -2.557e-4
-1.206, -2.557e-4
-1.205, -2.527e-4
-1.204, -2.557e-4
-1.203, -2.527e-4
-1.202, -2.527e-4
-1.201, -2.527e-4
-1.200, -2.557e-4
-1.199, -2.527e-4
-1.198, -2.588e-4
-1.197, -2.619e-4
-1.196, -2.650e-4
-1.195, -2.650e-4
-1.194, -2.681e-4
-1.193, -2.681e-4
-1.192, -2.681e-4
-1.191, -2.681e-4
-1.190, -2.681e-4
-1.189, -2.650e-4
-1.188, -2.650e-4
-1.187, -2.650e-4
-1.186, -2.650e-4
-1.185, -2.650e-4
-1.184, -2.650e-4
-1.183, -2.681e-4
-1.182, -2.742e-4
-1.181, -2.742e-4
-1.180, -2.773e-4
-1.179, -2.804e-4
-1.178, -2.804e-4
-1.177, -2.804e-4
-1.176, -2.773e-4
-1.175, -2.773e-4
-1.174, -2.773e-4
-1.173, -2.742e-4
-1.172, -2.742e-4
-1.171, -2.742e-4
-1.170, -2.742e-4
-1.169, -2.742e-4
-1.168, -2.773e-4
-1.167, -2.804e-4
-1.166, -2.835e-4
-1.165, -2.835e-4
-1.164, -2.897e-4
-1.163, -2.866e-4
-1.162, -2.866e-4
-1.161, -2.866e-4
-1.160, -2.835e-4
-1.159, -2.835e-4
-1.158, -2.804e-4
-1.157, -2.804e-4
-1.156, -2.804e-4
-1.155, -2.835e-4
-1.154, -2.804e-4
-1.153, -2.866e-4
-1.152, -2.866e-4
-1.151, -2.897e-4
-1.150, -2.927e-4
-1.149, -2.958e-4
-1.148, -2.927e-4
-1.147, -2.958e-4
-1.146, -2.927e-4
-1.145, -2.927e-4
-1.144, -2.897e-4
-1.143, -2.897e-4
-1.142, -2.866e-4
-1.141, -2.866e-4
-1.140, -2.897e-4
-1.139, -2.897e-4
-1.138, -2.927e-4
-1.137, -2.958e-4
-1.136, -2.958e-4
-1.135, -2.989e-4
-1.134, -2.989e-4
-1.133, -2.989e-4
-1.132, -2.989e-4
-1.131, -2.989e-4
-1.130, -2.989e-4
-1.129, -2.958e-4
-1.128, -2.927e-4
-1.127, -2.927e-4
-1.126, -2.927e-4
-1.125, -2.958e-4
-1.124, -2.958e-4
-1.123, -2.989e-4
-1.122, -3.020e-4
-1.121, -3.020e-4
-1.120, -3.020e-4
-1.119, -3.082e-4
-1.118, -3.051e-4
-1.117, -3.051e-4
-1.116, -3.051e-4
-1.115, -3.020e-4
-1.114, -3.020e-4
-1.113, -3.020e-4
-1.112, -2.989e-4
-1.111, -2.989e-4
-1.110, -3.020e-4
-1.109, -2.989e-4
-1.108, -3.020e-4
-1.107, -3.051e-4
-1.106, -3.082e-4
-1.105, -3.082e-4
-1.104, -3.112e-4
-1.103, -3.112e-4
-1.102, -3.112e-4
-1.101, -3.112e-4
-1.100, -3.082e-4
-1.099, -3.082e-4
-1.098, -3.051e-4
-1.097, -3.051e-4
-1.096, -3.051e-4
-1.095, -3.051e-4
-1.094, -3.051e-4
-1.093, -3.082e-4
-1.092, -3.112e-4
-1.091, -3.112e-4
-1.090, -3.143e-4
-1.089, -3.174e-4
-1.088, -3.143e-4
-1.087, -3.174e-4
-1.086, -3.143e-4
-1.085, -3.143e-4
-1.084, -3.112e-4
-1.083, -3.112e-4
-1.082, -3.082e-4
-1.081, -3.112e-4
-1.080, -3.112e-4
-1.079, -3.112e-4
-1.078, -3.112e-4
-1.077, -3.143e-4
-1.076, -3.174e-4
-1.075, -3.205e-4
-1.074, -3.205e-4
-1.073, -3.205e-4
-1.072, -3.205e-4
-1.071, -3.205e-4
-1.070, -3.174e-4
-1.069, -3.174e-4
-1.068, -3.174e-4
-1.067, -3.143e-4
-1.066, -3.143e-4
-1.065, -3.143e-4
-1.064, -3.143e-4
-1.063, -3.174e-4
-1.062, -3.205e-4
-1.061, -3.236e-4
-1.060, -3.236e-4
-1.059, -3.297e-4
-1.058, -3.267e-4
-1.057, -3.267e-4
-1.056, -3.236e-4
-1.055, -3.236e-4
-1.054, -3.236e-4
-1.053, -3.205e-4
-1.052, -3.205e-4
-1.051, -3.205e-4
-1.050, -3.205e-4
-1.049, -3.205e-4
-1.048, -3.236e-4
-1.047, -3.267e-4
-1.046, -3.297e-4
-1.045, -3.297e-4
-1.044, -3.328e-4
-1.043, -3.328e-4
-1.042, -3.328e-4
-1.041, -3.328e-4
-1.040, -3.297e-4
-1.039, -3.297e-4
-1.038, -3.267e-4
-1.037, -3.267e-4
-1.036, -3.267e-4
-1.035, -3.297e-4
-1.034, -3.267e-4
-1.033, -3.297e-4
-1.032, -3.328e-4
-1.031, -3.359e-4
-1.030, -3.390e-4
-1.029, -3.421e-4
-1.028, -3.390e-4
-1.027, -3.421e-4
-1.026, -3.390e-4
-1.025, -3.390e-4
-1.024, -3.390e-4
-1.023, -3.359e-4
-1.022, -3.359e-4
-1.021, -3.359e-4
-1.020, -3.359e-4
-1.019, -3.359e-4
-1.018, -3.390e-4
-1.017, -3.421e-4
-1.016, -3.452e-4
-1.015, -3.482e-4
-1.014, -3.513e-4
-1.013, -3.482e-4
-1.012, -3.513e-4
-1.011, -3.482e-4
-1.010, -3.482e-4
-1.009, -3.482e-4
-1.008, -3.452e-4
-1.007, -3.421e-4
-1.006, -3.452e-4
-1.005, -3.452e-4
-1.004, -3.482e-4
-1.003, -3.513e-4
-1.002, -3.544e-4
-1.001, -3.544e-4
