Potential V vs RHE, Current mA cm-2
0.013299999999999867,-1.0402372187907614
0.012299999999999978,-1.9904987989101068
0.011299999999999866,-2.451694682666109
0.010299999999999976,-2.719075118340601
0.009299999999999864,-2.9058170099227856
0.008299999999999974,-3.0487028512091543
0.007299999999999862,-3.1901739811956578
0.006299999999999972,-3.3047655964847262
0.00529999999999986,-3.351451069380272
0.0042999999999999705,-3.402380676175413
0.0032999999999998586,-3.4773603750682605
0.0022999999999999687,-3.5848784338580026
0.0012999999999998568,-3.658443421450985
0.00029999999999996696,-3.67683466834923
-0.000700000000000145,-3.690981781347881
-0.0017000000000000348,-3.7730350367400525
-0.0027000000000001467,-3.8720648277306053
-0.0037000000000000366,-3.927238568425342
-0.0047000000000001485,-3.927238568425342
-0.005700000000000038,-3.958362217022373
-0.00670000000000015,-4.054562585413195
-0.00770000000000004,-4.139445263405097
-0.008700000000000152,-4.179057179801319
-0.009700000000000042,-4.201692560599159
-0.010700000000000154,-4.254036878694166
-0.011700000000000044,-4.334675422786473
-0.012700000000000156,-4.405410987779724
-0.013700000000000045,-4.45209646067527
-0.014700000000000157,-4.5044407787702765
-0.015700000000000047,-4.545467406466363
-0.01670000000000016,-4.604885281060694
-0.01770000000000005,-4.696841515551922
-0.01870000000000016,-4.773235925744634
-0.01970000000000005,-4.829824377739236
-0.020700000000000163,-4.862362737636131
-0.021700000000000053,-4.920365900930598
-0.022700000000000164,-5.047689917918451
-0.023700000000000054,-5.142475575009408
-0.024700000000000166,-5.1792580688059
-0.025700000000000056,-5.214625851302525
-0.026700000000000168,-5.303752663194023
-0.027700000000000058,-5.4622003287789065
-0.02870000000000017,-5.5541565632701335
-0.02970000000000006,-5.576791944067974
-0.03070000000000017,-5.656015776860417
-0.03170000000000006,-5.788998639047731
-0.03270000000000017,-5.926225635134639
-0.03370000000000006,-6.004034756627216
-0.034700000000000175,-6.073355610320603
-0.035700000000000065,-6.183703091710075
-0.03670000000000018,-6.332247778195904
-0.03770000000000007,-6.456742372584028
-0.03870000000000018,-6.571333987873095
-0.03970000000000007,-6.673193201463377
-0.04070000000000018,-6.801931929751096
-0.04170000000000007,-6.923597101539489
-0.04270000000000018,-7.080630055824508
-0.04370000000000007,-7.2404924327092575
-0.044700000000000184,-7.383378273995626
-0.045700000000000074,-7.50221402318429
-0.046700000000000186,-7.650758709670118
-0.047700000000000076,-7.864380115949738
-0.04870000000000019,-8.0723426770299
-0.04970000000000008,-8.181275447119509
-0.05070000000000019,-8.29162292850898
-0.05170000000000008,-8.501000200889004
-0.05270000000000019,-8.757062946164577
-0.05370000000000008,-8.916925323049327
-0.05470000000000019,-9.051322896536504
-0.05570000000000008,-9.245138344618015
-0.056700000000000195,-9.511104068992642
-0.057700000000000085,-9.733213743071452
-0.058700000000000196,-9.880343718257414
-0.059700000000000086,-10.091135701937308
-0.0607000000000002,-10.341539602013418
-0.06170000000000009,-10.573552255191283
-0.0627000000000002,-10.760294146773468
-0.06370000000000009,-10.975330264352955
-0.0647000000000002,-11.258272524325962
-0.06570000000000009,-11.487455754904099
-0.0667000000000002,-11.685515336885203
-0.0677000000000001,-11.9486516386601
-0.0687000000000002,-12.235838032532703
-0.0697000000000001,-12.443800593612863
-0.07070000000000021,-12.646104309493563
-0.0717000000000001,-12.895093498269809
-0.07270000000000021,-13.233209498937551
-0.0737000000000001,-13.521810604110021
-0.07470000000000021,-13.67884355839504
-0.0757000000000001,-13.869829583876818
-0.07670000000000021,-14.189554337646317
-0.0777000000000001,-14.557379275611227
-0.07870000000000021,-14.826174422585586
-0.0797000000000001,-14.98179266557074
-0.08070000000000022,-15.264734925543747
-0.0817000000000001,-15.604265637511356
-0.08270000000000022,-15.87306078448571
-0.08370000000000011,-16.071120366466815
-0.08470000000000022,-16.354062626439823
-0.08570000000000011,-16.679446225408782
-0.08670000000000022,-16.94824137238314
-0.08770000000000011,-17.188742293360193
-0.08870000000000022,-17.471684553333205
-0.08970000000000011,-17.81121526530081
-0.09070000000000022,-18.06586329927652
-0.09170000000000011,-18.292217107254928
-0.09270000000000023,-18.546865141230633
-0.09370000000000012,-18.91469007919554
-0.09470000000000023,-19.197632339168546
-0.09570000000000012,-19.367397695152352
-0.09670000000000023,-19.60789861612941
-0.09770000000000012,-20.00401778009162
-0.09870000000000023,-20.329401379060574
-0.09970000000000012,-20.48501962204573
-0.10070000000000023,-20.668932091028186
-0.10170000000000012,-21.008462802995794
-0.10270000000000024,-21.43287619295531
-0.10370000000000013,-21.63093577493641
-0.10470000000000024,-21.786554017921564
-0.10570000000000013,-22.083643390893226
-0.10670000000000024,-22.40902698986218
-0.10770000000000013,-22.691969249835186
-0.10870000000000024,-22.776851927827092
-0.10970000000000013,-23.059794187800097
-0.11070000000000024,-23.44176623876366
-0.11170000000000013,-23.696414272739364
-0.11270000000000002,-23.88032674172182
-0.11370000000000013,-24.078386323702922
-0.11470000000000002,-24.389622809673234
-0.11570000000000014,-24.64427084364894
-0.11670000000000003,-24.74330063463949
-0.11770000000000014,-24.95550732961925
-0.11870000000000003,-25.351626493581456
-0.11970000000000014,-25.592127414558515
-0.12070000000000003,-25.719451431546364
-0.12170000000000014,-25.832628335535567
-0.12270000000000003,-26.15801193450453
-0.12370000000000014,-26.525836872469437
-0.12470000000000003,-26.55413109846674
-0.12570000000000014,-26.69560222845324
-0.12670000000000003,-27.091721392415455
-0.12770000000000015,-27.43125210438306
-0.12870000000000004,-27.501987669376312
-0.12970000000000015,-27.601017460366865
-0.13070000000000004,-27.869812607341224
-0.13170000000000015,-28.19519620631018
-0.13270000000000004,-28.32252022329803
-0.13370000000000015,-28.32252022329803
-0.13470000000000004,-28.52057980527914
-0.13570000000000015,-28.9025518562427
-0.13670000000000004,-29.114758551222454
-0.13770000000000016,-29.171347003217054
-0.13870000000000005,-29.242082568210304
-0.13970000000000016,-29.525024828183312
-0.14070000000000005,-29.793819975157668
-0.14170000000000016,-29.906996879146874
-0.14270000000000005,-29.96358533114148
-0.14370000000000016,-30.21823336511718
-0.14470000000000005,-30.45873428609424
-0.14570000000000016,-30.529469851087494
-0.14670000000000005,-30.600205416080744
-0.14770000000000016,-30.854853450056453
-0.14870000000000005,-31.12364859703081
-0.14970000000000017,-31.137795710029454
-0.15070000000000006,-31.12364859703081
-0.15170000000000017,-31.36414951800786
-0.15270000000000006,-31.76026868197007
-0.15370000000000017,-31.887592698957924
-0.15470000000000006,-31.816857133964678
-0.15570000000000017,-31.930034037953877
-0.15670000000000006,-32.269564749921486
-0.15770000000000017,-32.49591855789989
-0.15870000000000006,-32.49591855789989
-0.15970000000000018,-32.5525070098945
-0.16070000000000007,-32.79300793087155
-0.16170000000000018,-33.04765596484726
-0.16270000000000007,-33.09009730384321
-0.16370000000000018,-33.160832868836465
-0.16470000000000007,-33.330598224820264
-0.16570000000000018,-33.57109914579732
-0.16670000000000007,-33.68427604978652
-0.16770000000000018,-33.726717388782475
-0.16870000000000007,-33.924776970763574
-0.16970000000000018,-34.193572117737936
-0.17070000000000007,-34.292601908728486
-0.17170000000000019,-34.278454795729836
-0.17270000000000008,-34.44822015171364
-0.1737000000000002,-34.75945663768395
-0.17470000000000008,-34.92922199366775
-0.1757000000000002,-34.9150748806691
-0.17670000000000008,-34.98581044566235
-0.1777000000000002,-35.311194044631314
-0.17870000000000008,-35.56584207860703
-0.1797000000000002,-35.57998919160567
-0.18070000000000008,-35.52340073961108
-0.1817000000000002,-35.693166095594876
-0.18270000000000008,-36.14587371155169
-0.1837000000000002,-36.3439332935328
-0.1847000000000001,-36.27319772853954
-0.1857000000000002,-36.40052174552739
-0.1867000000000001,-36.78249379649095
-0.1877000000000002,-37.00884760446935
-0.1887000000000001,-36.9381120394761
-0.1897000000000002,-36.96640626547341
-0.1907000000000001,-37.305936977441014
-0.1917000000000001,-37.48984944642347
-0.19269999999999998,-37.51814367242077
-0.1937000000000001,-37.673761915405926
-0.19469999999999998,-37.98499840137623
-0.1957000000000001,-38.05573396636949
-0.19669999999999999,-38.04158685337084
-0.1977000000000001,-38.197205096355994
-0.1987,-38.49429446932764
-0.1997000000000001,-38.6499127123128
-0.2007,-38.6216184863155
-0.2017000000000001,-38.791383842299304
-0.2027,-39.08847321527096
-0.2037000000000001,-39.30067991025072
-0.2047,-39.28653279725207
-0.2057000000000001,-39.258238571254765
-0.2067,-39.61191639622103
-0.2077000000000001,-39.88071154319538
-0.2087,-39.82412309120078
-0.2097000000000001,-39.739240413208876
-0.2107,-39.99388844718459
-0.2117000000000001,-40.34756627215084
-0.2127,-40.34756627215084
-0.2137000000000001,-40.24853648116029
-0.2147,-40.37586049814815
-0.2157000000000001,-40.701244097117105
-0.2167,-40.85686234010226
-0.21770000000000012,-40.78612677510901
-0.2187,-40.828568114104954
-0.21970000000000012,-41.06906903508202
-0.2207,-41.23883439106582
-0.22170000000000012,-41.15395171307392
-0.2227,-41.168098826072566
-0.22370000000000012,-41.30956995605907
-0.2247,-41.56421799003478
-0.22570000000000012,-41.63495355502803
-0.2267,-41.55007087703613
-0.22770000000000012,-41.677394894023976
-0.22870000000000001,-41.84716025000779
-0.22970000000000013,-41.97448426699564
-0.23070000000000002,-41.77642468501453
-0.23170000000000013,-41.87545447600508
-0.23270000000000002,-42.172543848976744
-0.23370000000000013,-42.29986786596459
-0.23470000000000002,-42.115955396982145
-0.23570000000000013,-42.115955396982145
-0.23670000000000002,-42.45548610894975
-0.2376999999999999,-42.51207456094435
-0.23870000000000002,-42.31401497896325
-0.2396999999999999,-42.229132300971344
-0.24070000000000003,-42.497927447945706
-0.24169999999999991,-42.71013414292546
-0.24270000000000003,-42.63939857793221
-0.24369999999999992,-42.483780334947056
-0.24470000000000003,-42.59695723893625
-0.24569999999999992,-42.78086970791871
-0.24670000000000003,-42.738428368922754
-0.24769999999999992,-42.540368786941656
-0.24870000000000003,-42.582810125937606
-0.24969999999999992,-42.85160527291196
-0.25070000000000003,-42.86575238591062
-0.2516999999999999,-42.752575481921404
-0.25270000000000004,-42.625251464933555
-0.2536999999999999,-42.681839916928155
-0.25470000000000004,-42.738428368922754
-0.2556999999999999,-42.667692803929505
-0.25670000000000004,-42.752575481921404
-0.25769999999999993,-43.02137062889577
-0.25870000000000004,-43.007223515897124
-0.25969999999999993,-42.667692803929505
-0.26070000000000004,-42.4413389959511
-0.26169999999999993,-42.72428125592411
-0.26270000000000004,-43.02137062889577
-0.26369999999999993,-42.93648795090387
-0.26470000000000005,-42.695987029926805
-0.26569999999999994,-42.667692803929505
-0.26670000000000005,-42.85160527291196
-0.26769999999999994,-42.87989949890926
-0.26870000000000005,-42.653545690930855
-0.26969999999999994,-42.568663012938956
-0.27070000000000005,-42.99307640289846
-0.27169999999999994,-43.106253306887666
-0.27270000000000005,-42.97892928989981
-0.27369999999999994,-42.87989949890926
-0.27470000000000006,-43.04966485489307
-0.27569999999999995,-43.148694645883616
-0.27670000000000006,-42.95063506390252
-0.27769999999999995,-42.738428368922754
-0.27870000000000006,-42.87989949890926
-0.27969999999999995,-43.077959080890366
-0.28070000000000006,-43.148694645883616
-0.28169999999999995,-43.077959080890366
-0.28270000000000006,-43.06381196789171
-0.28369999999999995,-43.23357732387552
-0.28470000000000006,-43.23357732387552
-0.28569999999999995,-43.04966485489307
-0.28670000000000007,-43.134547532884966
-0.28769999999999996,-43.37504845386202
-0.28870000000000007,-43.36090134086337
-0.28969999999999996,-43.16284175888227
-0.29070000000000007,-43.03551774189442
-0.29169999999999996,-43.34675422786472
-0.29270000000000007,-43.58725514884178
-0.29369999999999996,-43.48822535785123
-0.2947000000000001,-43.34675422786472
-0.29569999999999996,-43.48822535785123
-0.2967000000000001,-43.68628493983233
-0.29769999999999996,-43.558960922844484
-0.2987000000000001,-43.38919556686068
-0.29969999999999997,-43.544813809845834
-0.3007000000000001,-43.81360895682018
-0.30169999999999997,-43.77116761782423
-0.3027000000000001,-43.82775606981884
-0.30369999999999997,-43.91263874781074
-0.3047000000000001,-44.054109877797245
-0.30569999999999997,-44.096551216793195
-0.3067000000000001,-43.85605029581614
-0.3077,-44.054109877797245
-0.3087000000000001,-44.30875791177294
-0.3097,-44.2946107987743
-0.3107000000000001,-44.195581007783744
-0.3117,-44.3794934767662
-0.3127000000000001,-44.66243573673921
-0.3137,-44.84634820572166
-0.3147000000000001,-44.67658284973786
-0.3157,-44.591700171745956
-0.3167000000000001,-44.91708377071491
-0.3177,-44.98781933570817
-0.3187000000000001,-44.88878954471762
-0.3197,-44.91708377071491
-0.3207000000000001,-45.157584691691966
-0.3217,-45.482968290660935
-0.3227000000000001,-45.553703855654184
-0.3237,-45.482968290660935
-0.3247000000000001,-45.53955674265553
-0.3257,-45.85079322862584
-0.3267000000000001,-46.02055858460964
-0.3277,-45.87908745462314
-0.3287000000000001,-45.949823019616396
-0.3297,-46.33179507057995
-0.3307000000000001,-46.544001765559706
-0.3317,-46.47326620056646
-0.3327000000000001,-46.4874133135651
-0.3337,-46.78450268653676
-0.3347000000000001,-47.095739172507066
-0.3357,-47.15232762450167
-0.3367000000000001,-47.067444946509774
-0.3377,-47.350387206482786
-0.3387000000000001,-47.70406503144903
-0.3397,-47.76065348344364
-0.3407000000000001,-47.66162369245309
-0.3417,-47.83138904843689
-0.3427000000000001,-48.2558024383964
-0.3437,-48.46800913337616
-0.3447000000000001,-48.39727356838291
-0.3457,-48.45386202037751
-0.3467000000000001,-48.84998118433972
-0.3477,-49.24610034830193
-0.3487000000000001,-49.26024746130057
-0.3497,-49.21780612230463
-0.3507000000000001,-49.50074838227763
-0.3517,-49.967603111233096
-0.3527000000000001,-50.15151558021555
-0.3537,-50.12322135421825
-0.3547000000000001,-50.20810403221015
-0.3557,-50.66081164816696
-0.35670000000000013,-51.028636586131874
-0.3577,-51.071077925127824
-0.35870000000000013,-51.18425482911703
-0.3597,-51.52378554108463
-0.36070000000000013,-51.86331625305225
-0.3617,-51.934051818045496
-0.3626999999999999,-51.934051818045496
-0.3637,-52.41505365999961
-0.3646999999999999,-52.78287859796452
-0.3657,-52.896055501953725
-0.3666999999999999,-52.995085292944275
-0.3677,-53.32046889191324
-0.3686999999999999,-53.85805918586195
-0.36970000000000003,-54.09856010683901
-0.3706999999999999,-54.09856010683901
-0.37170000000000003,-54.38150236681201
-0.3726999999999999,-55.003975338752625
-0.37370000000000003,-55.385947389716186
-0.3746999999999999,-55.27277048572698
-0.37570000000000003,-55.357653163718886
-0.3766999999999999,-55.9235376836649
-0.37770000000000004,-56.475275090612264
-0.3786999999999999,-56.63089333359741
-0.37970000000000004,-56.72992312458797
-0.3806999999999999,-57.12604228855018
-0.38170000000000004,-57.6353383565016
-0.38269999999999993,-57.86169216448
-0.38370000000000004,-57.9465748424719
-0.38469999999999993,-58.37098823243142
-0.38570000000000004,-58.86613718738417
-0.38669999999999993,-57.66363258249889
-0.38570000000000004,-55.428388728712136
-0.38469999999999993,-53.9005005248579
-0.38370000000000004,-52.79702571096317
-0.38269999999999993,-51.62281533207519
-0.38170000000000004,-50.30713382320071
-0.3806999999999999,-49.076334992318124
-0.37970000000000004,-48.100184195411245
-0.3786999999999999,-46.99670938151652
-0.37770000000000004,-45.681027872642034
-0.3766999999999999,-44.54925883275
-0.37570000000000003,-43.672137826833676
-0.3746999999999999,-42.63939857793221
-0.37370000000000003,-41.42274686004827
-0.3726999999999999,-40.34756627215084
-0.37170000000000003,-39.59776928322238
-0.3706999999999999,-38.72064827730605
-0.36970000000000003,-37.645467689408626
-0.3686999999999999,-36.5136986495166
-0.3677,-35.679018982596226
-0.3666999999999999,-34.90092776767045
-0.3657,-33.924776970763574
-0.3646999999999999,-32.92033194785941
-0.3637,-32.11394650693633
-0.3626999999999999,-31.449032195999767
-0.3617,-30.62849964207804
-0.36070000000000013,-29.708937297165768
-0.3597,-28.91669896924135
-0.35870000000000013,-28.280078884302082
-0.3577,-27.516134782374962
-0.35670000000000013,-26.681455115454593
-0.3557,-26.002393691519377
-0.3547000000000001,-25.40821494557606
-0.3537,-24.67256506964624
-0.3527000000000001,-23.88032674172182
-0.3517,-23.286147995778503
-0.3507000000000001,-22.748557701829792
-0.3497,-22.111937616890522
-0.3487000000000001,-21.362140627962056
-0.3477,-20.69722631702549
-0.3467000000000001,-20.286960040064624
-0.3457,-19.749369746115914
-0.3447000000000001,-19.070308322180697
-0.3437,-18.44783535024008
-0.3427000000000001,-17.995127734283265
-0.3417,-17.528273005327804
-0.3407000000000001,-16.962388485381787
-0.3397,-16.396503965435777
-0.3387000000000001,-15.972090575476265
-0.3377,-15.519382959519453
-0.3367000000000001,-15.01008689156804
-0.3357,-14.500790823616628
-0.3347000000000001,-14.083450990156441
-0.3337,-13.646305198498144
-0.3327000000000001,-13.203500561640388
-0.3317,-12.779087171680876
-0.3307000000000001,-12.425409346714618
-0.3297,-12.023631337552947
-0.3287000000000001,-11.58648554589465
-0.3277,-11.149339754236355
-0.3267000000000001,-10.839517979565912
-0.3257,-10.52403735969601
-0.3247000000000001,-10.108112237535686
-0.3237,-9.686528270175906
-0.3227000000000001,-9.366803516406407
-0.3217,-9.103667214631512
-0.3207000000000001,-8.77545419306282
-0.3197,-8.399140987298722
-0.3187000000000001,-8.056780852731386
-0.3177,-7.780912149257703
-0.3167000000000001,-7.497969889284694
-0.3157,-7.181074558114926
-0.3147000000000001,-6.896717586842053
-0.3137,-6.619434172068506
-0.3127000000000001,-6.342150757294959
-0.3117,-6.088917434619118
-0.3107000000000001,-5.834269400643411
-0.3097,-5.5838655005673
-0.3087000000000001,-5.313655642293078
-0.3077,-5.046275206618586
-0.3067000000000001,-4.8383126455384255
-0.30569999999999997,-4.645911908756781
-0.3047000000000001,-4.40965512167932
-0.30369999999999997,-4.145104108604558
-0.3027000000000001,-3.9130914554266916
-0.30169999999999997,-3.744740810742752
-0.3007000000000001,-3.576390166058813
-0.29969999999999997,-3.3401333789813514
-0.2987000000000001,-3.110950148403216
-0.29769999999999996,-2.9185494116215707
-0.2967000000000001,-2.770004725135742
-0.29569999999999996,-2.610142348250993
-0.2947000000000001,-2.3936915193716417
-0.29369999999999996,-2.194217226090672
-0.29270000000000007,-2.038598983105518
-0.29169999999999996,-1.895713141819149
-0.29070000000000007,-1.7471684553333202
-0.28969999999999996,-1.5660854089505953
-0.28870000000000007,-1.382455882228114
-0.28769999999999996,-1.2411262233715967
-0.28670000000000007,-1.1149339754236354
-0.28569999999999995,-0.9852049492260115
-0.28470000000000006,-0.8278890526810195
-0.28369999999999995,-0.6616604749468776
-0.28270000000000006,-0.5285361416295777
-0.28169999999999995,-0.4245548610894975
-0.28070000000000006,-0.3110950148403216
-0.27969999999999995,-0.173019191973494
-0.27870000000000006,-0.012545659807203145
-0.27769999999999995,0.10739073477275493
-0.27670000000000006,0.19070308322180693
-0.27569999999999995,0.2959576039317657
-0.27470000000000006,0.41804718911011834
-0.27369999999999994,0.5656015776860417
-0.27270000000000005,0.6734025787357575
-0.27169999999999994,0.7454113838988878
-0.27070000000000005,0.827181697031087
-0.26969999999999994,0.9441783215299254
-0.26870000000000005,1.074897645637455
-0.26769999999999994,1.1848207136369682
-0.26670000000000005,1.2537171539403955
