Potential V vs RHE, Current mA cm-2
0.013299999999999867,0.9137620285828272
0.012299999999999978,-0.2202705493889862
0.011299999999999866,-1.0054353208140816
0.010299999999999976,-1.7471684553333202
0.009299999999999864,-2.4446211261667834
0.008299999999999974,-3.0996324580042955
0.007299999999999862,-3.6655169779503103
0.006299999999999972,-4.0588067193127895
0.00529999999999986,-4.364384360083638
0.0042999999999999705,-4.668547289554621
0.0032999999999998586,-4.974124930325469
0.0022999999999999687,-5.323558621392133
0.0012999999999998568,-5.715433651454749
0.00029999999999996696,-5.977155241929781
-0.000700000000000145,-6.152579443113044
-0.0017000000000000348,-6.238876832404812
-0.0027000000000001467,-6.37044498329226
-0.0037000000000000366,-6.588310523471475
-0.0047000000000001485,-6.850032113946507
-0.005700000000000038,-7.111753704421539
-0.00670000000000015,-7.243321855308987
-0.00770000000000004,-7.329619244600755
-0.008700000000000152,-7.329619244600755
-0.009700000000000042,-7.461187395488204
-0.010700000000000154,-7.635196885371603
-0.011700000000000044,-7.853062425550818
-0.012700000000000156,-8.027071915434218
-0.013700000000000045,-8.070927965730034
-0.014700000000000157,-8.070927965730034
-0.015700000000000047,-8.11478401602585
-0.01670000000000016,-8.158640066321666
-0.01770000000000005,-8.332649556205066
-0.01870000000000016,-8.508073757388331
-0.01970000000000005,-8.594371146680096
-0.020700000000000163,-8.594371146680096
-0.021700000000000053,-8.594371146680096
-0.022700000000000164,-8.594371146680096
-0.023700000000000054,-8.68208324727173
-0.024700000000000166,-8.85609273715513
-0.025700000000000056,-8.987660888042578
-0.026700000000000168,-9.031516938338395
-0.027700000000000058,-9.031516938338395
-0.02870000000000017,-8.987660888042578
-0.02970000000000006,-8.987660888042578
-0.03070000000000017,-9.11781432763016
-0.03170000000000006,-9.24938247851761
-0.03270000000000017,-9.379535918105192
-0.03370000000000006,-9.335679867809377
-0.034700000000000175,-9.293238528813426
-0.035700000000000065,-9.293238528813426
-0.03670000000000018,-9.293238528813426
-0.03770000000000007,-9.379535918105192
-0.03870000000000018,-9.55496011928846
-0.03970000000000007,-9.59740145828441
-0.04070000000000018,-9.55496011928846
-0.04170000000000007,-9.467248018696827
-0.04270000000000018,-9.467248018696827
-0.04370000000000007,-9.511104068992642
-0.044700000000000184,-9.641257508580225
-0.045700000000000074,-9.728969609171857
-0.046700000000000186,-9.772825659467674
-0.047700000000000076,-9.728969609171857
-0.04870000000000019,-9.641257508580225
-0.04970000000000008,-9.685113558876042
-0.05070000000000019,-9.728969609171857
-0.05170000000000008,-9.902979099055257
-0.05270000000000019,-9.946835149351072
-0.05370000000000008,-9.946835149351072
-0.05470000000000019,-9.85912304875944
-0.05570000000000008,-9.81668170976349
-0.056700000000000195,-9.85912304875944
-0.057700000000000085,-9.946835149351072
-0.058700000000000196,-10.078403300238522
-0.059700000000000086,-10.120844639234473
-0.0607000000000002,-10.034547249942705
-0.06170000000000009,-9.99069119964689
-0.0627000000000002,-9.946835149351072
-0.06370000000000009,-9.99069119964689
-0.0647000000000002,-10.120844639234473
-0.06570000000000009,-10.208556739826104
-0.0667000000000002,-10.208556739826104
-0.0677000000000001,-10.120844639234473
-0.0687000000000002,-10.034547249942705
-0.0697000000000001,-10.034547249942705
-0.07070000000000021,-10.120844639234473
-0.0717000000000001,-10.208556739826104
-0.07270000000000021,-10.296268840417738
-0.0737000000000001,-10.25241279012192
-0.07470000000000021,-10.164700689530287
-0.0757000000000001,-10.120844639234473
-0.07670000000000021,-10.120844639234473
-0.0777000000000001,-10.25241279012192
-0.07870000000000021,-10.382566229709504
-0.0797000000000001,-10.42642228000532
-0.08070000000000022,-10.382566229709504
-0.0817000000000001,-10.296268840417738
-0.08270000000000022,-10.25241279012192
-0.08370000000000011,-10.296268840417738
-0.08470000000000022,-10.382566229709504
-0.08570000000000011,-10.470278330301136
-0.08670000000000022,-10.514134380596953
-0.08770000000000011,-10.470278330301136
-0.08870000000000022,-10.382566229709504
-0.08970000000000011,-10.340124890713554
-0.09070000000000022,-10.382566229709504
-0.09170000000000011,-10.514134380596953
-0.09270000000000023,-10.557990430892769
-0.09370000000000012,-10.557990430892769
-0.09470000000000023,-10.470278330301136
-0.09570000000000012,-10.42642228000532
-0.09670000000000023,-10.42642228000532
-0.09770000000000012,-10.514134380596953
-0.09870000000000023,-10.644287820184536
-0.09970000000000012,-10.644287820184536
-0.10070000000000023,-10.601846481188586
-0.10170000000000012,-10.514134380596953
-0.10270000000000024,-10.514134380596953
-0.10370000000000013,-10.514134380596953
-0.10470000000000024,-10.644287820184536
-0.10570000000000013,-10.731999920776168
-0.10670000000000024,-10.775855971071984
-0.10770000000000013,-10.731999920776168
-0.10870000000000024,-10.644287820184536
-0.10970000000000013,-10.644287820184536
-0.11070000000000024,-10.731999920776168
-0.11170000000000013,-10.863568071663616
-0.11270000000000002,-10.863568071663616
-0.11370000000000013,-10.819712021367803
-0.11470000000000002,-10.731999920776168
-0.11570000000000014,-10.688143870480351
-0.11670000000000003,-10.731999920776168
-0.11770000000000014,-10.819712021367803
-0.11870000000000003,-10.906009410659568
-0.11970000000000014,-10.949865460955383
-0.12070000000000003,-10.906009410659568
-0.12170000000000014,-10.819712021367803
-0.12270000000000003,-10.775855971071984
-0.12370000000000014,-10.863568071663616
-0.12470000000000003,-10.949865460955383
-0.12570000000000014,-11.037577561547016
-0.12670000000000003,-11.037577561547016
-0.12770000000000015,-10.993721511251199
-0.12870000000000004,-10.906009410659568
-0.12970000000000015,-10.906009410659568
-0.13070000000000004,-10.993721511251199
-0.13170000000000015,-11.123874950838783
-0.13270000000000004,-11.211587051430415
-0.13370000000000015,-11.1677310011346
-0.13470000000000004,-11.081433611842833
-0.13570000000000015,-10.993721511251199
-0.13670000000000004,-11.037577561547016
-0.13770000000000016,-11.123874950838783
-0.13870000000000005,-11.255443101726232
-0.13970000000000016,-11.299299152022046
-0.14070000000000005,-11.255443101726232
-0.14170000000000016,-11.1677310011346
-0.14270000000000005,-11.1677310011346
-0.14370000000000016,-11.211587051430415
-0.14470000000000005,-11.343155202317865
-0.14570000000000016,-11.42945259160963
-0.14670000000000005,-11.42945259160963
-0.14770000000000016,-11.385596541313816
-0.14870000000000005,-11.299299152022046
-0.14970000000000017,-11.255443101726232
-0.15070000000000006,-11.385596541313816
-0.15170000000000017,-11.473308641905447
-0.15270000000000006,-11.56102074249708
-0.15370000000000017,-11.56102074249708
-0.15470000000000006,-11.473308641905447
-0.15570000000000017,-11.42945259160963
-0.15670000000000006,-11.42945259160963
-0.15770000000000017,-11.517164692201263
-0.15870000000000006,-11.604876792792895
-0.15970000000000018,-11.647318131788847
-0.16070000000000007,-11.604876792792895
-0.16170000000000018,-11.517164692201263
-0.16270000000000007,-11.473308641905447
-0.16370000000000018,-11.604876792792895
-0.16470000000000007,-11.73503023238048
-0.16570000000000018,-11.82274233297211
-0.16670000000000007,-11.82274233297211
-0.16770000000000018,-11.73503023238048
-0.16870000000000007,-11.647318131788847
-0.16970000000000018,-11.647318131788847
-0.17070000000000007,-11.73503023238048
-0.17170000000000019,-11.86659838326793
-0.17270000000000008,-11.952895772559694
-0.1737000000000002,-11.909039722263879
-0.17470000000000008,-11.86659838326793
-0.1757000000000002,-11.778886282676295
-0.17670000000000008,-11.86659838326793
-0.1777000000000002,-11.952895772559694
-0.17870000000000008,-12.040607873151327
-0.1797000000000002,-12.12831997374296
-0.18070000000000008,-12.040607873151327
-0.1817000000000002,-11.996751822855511
-0.18270000000000008,-11.952895772559694
-0.1837000000000002,-11.996751822855511
-0.1847000000000001,-12.12831997374296
-0.1857000000000002,-12.214617363034726
-0.1867000000000001,-12.214617363034726
-0.1877000000000002,-12.170761312738911
-0.1887000000000001,-12.084463923447142
-0.1897000000000002,-12.084463923447142
-0.1907000000000001,-12.214617363034726
-0.1917000000000001,-12.302329463626359
-0.19269999999999998,-12.390041564217992
-0.1937000000000001,-12.346185513922174
-0.19469999999999998,-12.258473413330542
-0.1957000000000001,-12.214617363034726
-0.19669999999999999,-12.258473413330542
-0.1977000000000001,-12.346185513922174
-0.1987,-12.520195003805576
-0.1997000000000001,-12.520195003805576
-0.2007,-12.476338953509758
-0.2017000000000001,-12.432482903213943
-0.2027,-12.390041564217992
-0.2037000000000001,-12.476338953509758
-0.2047,-12.607907104397206
-0.2057000000000001,-12.694204493688973
-0.2067,-12.694204493688973
-0.2077000000000001,-12.651763154693022
-0.2087,-12.607907104397206
-0.2097000000000001,-12.607907104397206
-0.2107,-12.73806054398479
-0.2117000000000001,-12.869628694872238
-0.2127,-12.913484745168056
-0.2137000000000001,-12.913484745168056
-0.2147,-12.869628694872238
-0.2157000000000001,-12.825772644576423
-0.2167,-12.869628694872238
-0.21770000000000012,-12.955926084164007
-0.2187,-13.043638184755638
-0.21970000000000012,-13.13135028534727
-0.2207,-13.043638184755638
-0.22170000000000012,-12.99978213445982
-0.2227,-12.99978213445982
-0.22370000000000012,-13.043638184755638
-0.2247,-13.175206335643086
-0.22570000000000012,-13.261503724934855
-0.2267,-13.261503724934855
-0.22770000000000012,-13.217647674639037
-0.22870000000000001,-13.13135028534727
-0.22970000000000013,-13.175206335643086
-0.23070000000000002,-13.30535977523067
-0.23170000000000013,-13.436927926118118
-0.23270000000000002,-13.47936926511407
-0.23370000000000013,-13.47936926511407
-0.23470000000000002,-13.436927926118118
-0.23570000000000013,-13.3930718758223
-0.23670000000000002,-13.436927926118118
-0.2376999999999999,-13.523225315409885
-0.23870000000000002,-13.698649516593148
-0.2396999999999999,-13.741090855589102
-0.24070000000000003,-13.698649516593148
-0.24169999999999991,-13.654793466297335
-0.24270000000000003,-13.654793466297335
-0.24369999999999992,-13.741090855589102
-0.24470000000000003,-13.872659006476551
-0.24569999999999992,-14.002812446064135
-0.24670000000000003,-14.046668496359947
-0.24769999999999992,-14.046668496359947
-0.24870000000000003,-14.002812446064135
-0.24969999999999992,-14.002812446064135
-0.25070000000000003,-14.090524546655764
-0.2516999999999999,-14.175407224647667
-0.25270000000000004,-14.26028990263957
-0.2536999999999999,-14.26028990263957
-0.25470000000000004,-14.175407224647667
-0.2556999999999999,-14.175407224647667
-0.25670000000000004,-14.26028990263957
-0.25769999999999993,-14.345172580631472
-0.25870000000000004,-14.486643710617974
-0.25969999999999993,-14.57152638860988
-0.26070000000000004,-14.529085049613924
-0.26169999999999993,-14.486643710617974
-0.26270000000000004,-14.486643710617974
-0.26369999999999993,-14.61396772760583
-0.26470000000000005,-14.741291744593681
-0.26569999999999994,-14.868615761581536
-0.26670000000000005,-14.925204213576137
-0.26769999999999994,-14.868615761581536
-0.26870000000000005,-14.826174422585586
-0.26969999999999994,-14.868615761581536
-0.27070000000000005,-15.01008689156804
-0.27169999999999994,-15.179852247551842
-0.27270000000000005,-15.307176264539699
-0.27369999999999994,-15.307176264539699
-0.27470000000000006,-15.264734925543747
-0.27569999999999995,-15.264734925543747
-0.27670000000000006,-15.349617603535648
-0.27769999999999995,-15.491088733522153
-0.27870000000000006,-15.660854089505953
-0.27969999999999995,-15.70329542850191
-0.28070000000000006,-15.70329542850191
-0.28169999999999995,-15.660854089505953
-0.28270000000000006,-15.70329542850191
-0.28369999999999995,-15.78817810649381
-0.28470000000000006,-15.972090575476265
-0.28569999999999995,-16.099414592464115
-0.28670000000000007,-16.141855931460068
-0.28769999999999996,-16.141855931460068
-0.28870000000000007,-16.099414592464115
-0.28969999999999996,-16.141855931460068
-0.29070000000000007,-16.269179948447924
-0.29169999999999996,-16.495533756426326
-0.29270000000000007,-16.580416434418233
-0.29369999999999996,-16.622857773414182
-0.2947000000000001,-16.622857773414182
-0.29569999999999996,-16.622857773414182
-0.2967000000000001,-16.70774045140608
-0.29769999999999996,-16.877505807389888
-0.2987000000000001,-17.061418276372343
-0.29969999999999997,-17.146300954364243
-0.3007000000000001,-17.146300954364243
-0.30169999999999997,-17.146300954364243
-0.3027000000000001,-17.188742293360193
-0.30369999999999997,-17.358507649344002
-0.3047000000000001,-17.627302796318357
-0.30569999999999997,-17.797068152302163
-0.3067000000000001,-17.839509491298113
-0.3077,-17.797068152302163
-0.3087000000000001,-17.797068152302163
-0.3097,-17.839509491298113
-0.3107000000000001,-18.06586329927652
-0.3117,-18.23562865526032
-0.3127000000000001,-18.362952672248177
-0.3137,-18.44783535024008
-0.3147000000000001,-18.40539401124413
-0.3157,-18.44783535024008
-0.3167000000000001,-18.589306480226583
-0.3177,-18.759071836210385
-0.3187000000000001,-18.97127853119014
-0.3197,-19.112749661176647
-0.3207000000000001,-19.155191000172596
-0.3217,-19.197632339168546
-0.3227000000000001,-19.28251501716045
-0.3237,-19.452280373144255
-0.3247000000000001,-19.636192842126707
-0.3257,-19.805958198110513
-0.3267000000000001,-19.890840876102416
-0.3277,-19.93328221509837
-0.3287000000000001,-20.01816489309027
-0.3297,-20.10304757108217
-0.3307000000000001,-20.329401379060574
-0.3317,-20.584049413036283
-0.3327000000000001,-20.76796188201874
-0.3337,-20.85284456001064
-0.3347000000000001,-20.89528589900659
-0.3357,-20.980168576998494
-0.3367000000000001,-21.149933932982297
-0.3377,-21.376287740960702
-0.3387000000000001,-21.58849443594046
-0.3397,-21.772406904922917
-0.3407000000000001,-21.857289582914817
-0.3417,-21.899730921910766
-0.3427000000000001,-22.027054938898623
-0.3437,-22.196820294882425
-0.3447000000000001,-22.46561544185678
-0.3457,-22.67782213683654
-0.3467000000000001,-22.861734605818995
-0.3477,-22.946617283810895
-0.3487000000000001,-22.989058622806844
-0.3497,-23.1163826397947
-0.3507000000000001,-23.385177786769056
-0.3517,-23.639825820744765
-0.3527000000000001,-23.908620967719123
-0.3537,-24.035944984706973
-0.3547000000000001,-24.078386323702922
-0.3557,-24.20571034069078
-0.35670000000000013,-24.432064148669184
-0.3577,-24.729153521640843
-0.35870000000000013,-24.997948668615198
-0.3597,-25.210155363594954
-0.36070000000000013,-25.39406783257741
-0.3617,-25.478950510569312
-0.3626999999999999,-25.648715866553115
-0.3637,-25.91751101352747
-0.3646999999999999,-26.21460038649913
-0.3657,-26.483395533473487
-0.3666999999999999,-26.69560222845324
-0.3677,-26.907808923433
-0.3686999999999999,-27.049280053419505
-0.36970000000000003,-27.176604070407354
-0.3706999999999999,-27.487840556377662
-0.37170000000000003,-27.912253946337174
-0.3726999999999999,-28.22349043230748
-0.37370000000000003,-28.435697127287238
-0.3746999999999999,-28.53472691827779
-0.37570000000000003,-28.704492274261593
-0.3766999999999999,-28.91669896924135
-0.37770000000000004,-29.22793545521166
-0.3786999999999999,-29.581613280177915
-0.37970000000000004,-29.836261314153624
-0.3806999999999999,-30.00602667013743
-0.38170000000000004,-30.147497800123933
-0.38269999999999993,-30.359704495103685
-0.38370000000000004,-30.670940981073993
-0.38469999999999993,-31.010471693041605
-0.38570000000000004,-31.36414951800786
-0.38669999999999993,-31.618797551983565
-0.38770000000000004,-31.84515135996197
-0.38869999999999993,-32.01491671594578
-0.38970000000000005,-32.283711862920136
-0.39069999999999994,-32.66568391388369
-0.39170000000000005,-33.01936173884996
-0.39269999999999994,-33.288156885824314
-0.39370000000000005,-33.54280491980002
-0.39469999999999994,-33.755011614779775
-0.39570000000000005,-34.02380676175414
-0.39669999999999994,-34.377484586720385
-0.39770000000000005,-34.8018979766799
-0.39869999999999994,-35.198017140642115
-0.39970000000000006,-35.55169496560837
-0.40069999999999995,-35.848784338580025
-0.40170000000000006,-36.07513814655844
-0.40269999999999995,-36.37222751953009
-0.40370000000000006,-36.725905344496354
-0.40469999999999995,-37.206907186450465
-0.40570000000000006,-37.60302635041268
-0.40669999999999995,-37.99914551437489
-0.40770000000000006,-38.253793548350586
-0.40869999999999995,-38.5650300343209
-0.40970000000000006,-38.86211940729255
-0.41069999999999995,-39.173355893262865
-0.41170000000000007,-39.56947505722508
-0.41269999999999996,-39.95144710818864
-0.41370000000000007,-40.30512493315489
-0.41469999999999996,-40.51733162813464
-0.41570000000000007,-40.828568114104954
-0.41669999999999996,-41.22468727806717
-0.41770000000000007,-41.70568912002128
-0.41869999999999996,-42.186690961975394
-0.4197000000000001,-42.568663012938956
-0.42069999999999996,-42.87989949890926
-0.4217000000000001,-43.17698887188092
-0.42269999999999996,-43.57310803584313
-0.4237000000000001,-44.096551216793195
-0.42469999999999997,-44.619994397743255
-0.4257000000000001,-45.143437578693316
-0.42669999999999997,-45.497115403659585
-0.4277000000000001,-45.79420477663124
-0.42869999999999997,-46.062999923605595
-0.4297000000000001,-46.45911908756781
-0.43069999999999997,-46.982562268517874
-0.4317000000000001,-47.506005449467935
-0.4327,-47.987007291422046
-0.4337000000000001,-48.41142068138156
-0.4347,-48.76509850634781
-0.4357000000000001,-49.118776331314066
-0.4367,-49.59977817326819
-0.4377000000000001,-50.12322135421825
-0.4387,-50.68910587416426
-0.4397000000000001,-51.127666377122424
-0.4407,-51.509638428085985
-0.4417000000000001,-51.86331625305225
-0.4427,-52.25943541701445
-0.4437000000000001,-52.74043725896857
-0.4447,-53.348763117910536
-0.4457000000000001,-53.872206298860604
-0.4467,-54.31076680181876
-0.4477000000000001,-54.69273885278232
-0.4487,-55.088858016744524
-0.4497000000000001,-55.56985985869864
-0.4507,-56.13574437864466
-0.4517000000000001,-56.74407023758662
-0.4527,-57.30995475753264
-0.4537000000000001,-57.8333979384827
-0.4547,-58.27195844144086
-0.4557000000000001,-58.71051894439902
-0.4567,-59.27640346434504
-0.4577000000000001,-59.884729323287
-0.4587,-60.49305518222897
-0.4597000000000001,-61.07308681517363
-0.4607,-61.53994154412909
-0.4617000000000001,-62.02094338608321
-0.4627,-62.501945228037314
-0.4637000000000001,-63.11027108697928
-0.4647,-63.77518539791585
-0.4657000000000001,-64.42595259585376
-0.4667,-64.90695443780788
-0.4677000000000001,-65.38795627976201
-0.4687,-65.86895812171612
-0.4697000000000001,-66.39240130266617
-0.4707,-67.00072716160814
-0.4717000000000001,-67.693935698542
-0.4727,-68.30226155748396
-0.4737000000000001,-68.82570473843404
-0.4747,-69.30670658038814
-0.4757000000000001,-69.78770842234226
-0.4767,-70.39603428128423
-0.4777000000000001,-71.06094859222078
-0.4787,-71.75415712915466
-0.4797000000000001,-72.36248298809663
-0.4807,-72.92836750804264
-0.48170000000000013,-73.45181068899271
-0.4827,-74.0176952089387
-0.48370000000000013,-74.72505085887124
-0.4847,-75.46070073480107
-0.48570000000000013,-76.15390927173492
-0.4867,-75.63046609078486
-0.48570000000000013,-73.62157604497652
-0.4847,-72.00880516313036
-0.48370000000000013,-70.66482942825859
-0.4827,-69.53306038836655
-0.48170000000000013,-68.52861536546239
-0.4807,-67.52417034255821
-0.4797000000000001,-66.51972531965401
-0.4787,-65.4728389577539
-0.4777000000000001,-64.46839393484973
-0.4767,-63.59127292893339
-0.4757000000000001,-62.81318171400764
-0.4747,-62.06338472507916
-0.4737000000000001,-61.28529351015339
-0.4727,-60.36573116524111
-0.4717000000000001,-59.44616882032884
-0.4707,-58.583194927411164
-0.4697000000000001,-57.8333979384827
-0.4687,-57.182630740544774
-0.4677000000000001,-56.489422203610914
-0.4667,-55.65474253669055
