Potential V vs RHE, Current mA cm-2
0.013299999999999867,-0.1766974413531431
0.012299999999999978,-0.7001406223032067
0.011299999999999866,-1.0490084288499246
0.010299999999999976,-1.3107300193249565
0.009299999999999864,-1.5717442541500557
0.008299999999999974,-1.7471684553333202
0.007299999999999862,-1.92117794521672
0.006299999999999972,-2.095187435100119
0.00529999999999986,-2.226755585987568
0.0042999999999999705,-2.3569090255751513
0.0032999999999998586,-2.4884771764625997
0.0022999999999999687,-2.618630616050183
0.0012999999999998568,-2.706342716641815
0.00029999999999996696,-2.7501987669376318
-0.000700000000000145,-2.794054817233447
-0.0017000000000000348,-2.8803522065252145
-0.0027000000000001467,-2.968064307116847
-0.0037000000000000366,-2.968064307116847
-0.0047000000000001485,-3.055776407708479
-0.005700000000000038,-3.0996324580042955
-0.00670000000000015,-3.1859298472960624
-0.00770000000000004,-3.2297858975918787
-0.008700000000000152,-3.317497998183511
-0.009700000000000042,-3.317497998183511
-0.010700000000000154,-3.361354048479327
-0.011700000000000044,-3.403795387475278
-0.012700000000000156,-3.447651437771094
-0.013700000000000045,-3.447651437771094
-0.014700000000000157,-3.4915074880669104
-0.015700000000000047,-3.4915074880669104
-0.01670000000000016,-3.5353635383627267
-0.01770000000000005,-3.5353635383627267
-0.01870000000000016,-3.579219588658543
-0.01970000000000005,-3.579219588658543
-0.020700000000000163,-3.623075638954359
-0.021700000000000053,-3.6655169779503103
-0.022700000000000164,-3.7093730282461257
-0.023700000000000054,-3.7093730282461257
-0.024700000000000166,-3.6655169779503103
-0.025700000000000056,-3.7093730282461257
-0.026700000000000168,-3.7093730282461257
-0.027700000000000058,-3.7093730282461257
-0.02870000000000017,-3.7532290785419424
-0.02970000000000006,-3.7970851288377587
-0.03070000000000017,-3.7970851288377587
-0.03170000000000006,-3.7970851288377587
-0.03270000000000017,-3.840941179133574
-0.03370000000000006,-3.7970851288377587
-0.034700000000000175,-3.840941179133574
-0.035700000000000065,-3.840941179133574
-0.03670000000000018,-3.840941179133574
-0.03770000000000007,-3.840941179133574
-0.03870000000000018,-3.840941179133574
-0.03970000000000007,-3.840941179133574
-0.04070000000000018,-3.884797229429391
-0.04170000000000007,-3.884797229429391
-0.04270000000000018,-3.884797229429391
-0.04370000000000007,-3.927238568425342
-0.044700000000000184,-3.927238568425342
-0.045700000000000074,-3.927238568425342
-0.046700000000000186,-3.927238568425342
-0.047700000000000076,-3.971094618721158
-0.04870000000000019,-3.971094618721158
-0.04970000000000008,-3.971094618721158
-0.05070000000000019,-3.971094618721158
-0.05170000000000008,-3.971094618721158
-0.05270000000000019,-3.971094618721158
-0.05370000000000008,-3.971094618721158
-0.05470000000000019,-3.971094618721158
-0.05570000000000008,-3.971094618721158
-0.056700000000000195,-3.971094618721158
-0.057700000000000085,-3.927238568425342
-0.058700000000000196,-3.927238568425342
-0.059700000000000086,-3.927238568425342
-0.0607000000000002,-3.927238568425342
-0.06170000000000009,-3.927238568425342
-0.0627000000000002,-3.971094618721158
-0.06370000000000009,-3.971094618721158
-0.0647000000000002,-4.014950669016974
-0.06570000000000009,-4.0588067193127895
-0.0667000000000002,-4.0588067193127895
-0.0677000000000001,-4.102662769608606
-0.0687000000000002,-4.0588067193127895
-0.0697000000000001,-4.0588067193127895
-0.07070000000000021,-4.0588067193127895
-0.0717000000000001,-4.0588067193127895
-0.07270000000000021,-4.0588067193127895
-0.0737000000000001,-4.014950669016974
-0.07470000000000021,-4.014950669016974
-0.0757000000000001,-4.0588067193127895
-0.07670000000000021,-4.014950669016974
-0.0777000000000001,-4.0588067193127895
-0.07870000000000021,-4.0588067193127895
-0.0797000000000001,-4.102662769608606
-0.08070000000000022,-4.102662769608606
-0.0817000000000001,-4.102662769608606
-0.08270000000000022,-4.0588067193127895
-0.08370000000000011,-4.102662769608606
-0.08470000000000022,-4.0588067193127895
-0.08570000000000011,-4.0588067193127895
-0.08670000000000022,-4.0588067193127895
-0.08770000000000011,-4.0588067193127895
-0.08870000000000022,-4.0588067193127895
-0.08970000000000011,-4.102662769608606
-0.09070000000000022,-4.102662769608606
-0.09170000000000011,-4.102662769608606
-0.09270000000000023,-4.102662769608606
-0.09370000000000012,-4.102662769608606
-0.09470000000000023,-4.102662769608606
-0.09570000000000012,-4.0588067193127895
-0.09670000000000023,-4.0588067193127895
-0.09770000000000012,-4.0588067193127895
-0.09870000000000023,-4.0588067193127895
-0.09970000000000012,-4.102662769608606
-0.10070000000000023,-4.102662769608606
-0.10170000000000012,-4.102662769608606
-0.10270000000000024,-4.102662769608606
-0.10370000000000013,-4.102662769608606
-0.10470000000000024,-4.102662769608606
-0.10570000000000013,-4.102662769608606
-0.10670000000000024,-4.102662769608606
-0.10770000000000013,-4.102662769608606
-0.10870000000000024,-4.102662769608606
-0.10970000000000013,-4.102662769608606
-0.11070000000000024,-4.102662769608606
-0.11170000000000013,-4.102662769608606
-0.11270000000000002,-4.102662769608606
-0.11370000000000013,-4.146518819904423
-0.11470000000000002,-4.146518819904423
-0.11570000000000014,-4.146518819904423
-0.11670000000000003,-4.146518819904423
-0.11770000000000014,-4.146518819904423
-0.11870000000000003,-4.102662769608606
-0.11970000000000014,-4.102662769608606
-0.12070000000000003,-4.102662769608606
-0.12170000000000014,-4.102662769608606
-0.12270000000000003,-4.102662769608606
-0.12370000000000014,-4.102662769608606
-0.12470000000000003,-4.102662769608606
-0.12570000000000014,-4.102662769608606
-0.12670000000000003,-4.146518819904423
-0.12770000000000015,-4.146518819904423
-0.12870000000000004,-4.146518819904423
-0.12970000000000015,-4.146518819904423
-0.13070000000000004,-4.146518819904423
-0.13170000000000015,-4.146518819904423
-0.13270000000000004,-4.146518819904423
-0.13370000000000015,-4.146518819904423
-0.13470000000000004,-4.146518819904423
-0.13570000000000015,-4.1889601589003735
-0.13670000000000004,-4.1889601589003735
-0.13770000000000016,-4.1889601589003735
-0.13870000000000005,-4.1889601589003735
-0.13970000000000016,-4.1889601589003735
-0.14070000000000005,-4.1889601589003735
-0.14170000000000016,-4.1889601589003735
-0.14270000000000005,-4.1889601589003735
-0.14370000000000016,-4.1889601589003735
-0.14470000000000005,-4.1889601589003735
-0.14570000000000016,-4.1889601589003735
-0.14670000000000005,-4.23281620919619
-0.14770000000000016,-4.23281620919619
-0.14870000000000005,-4.276672259492005
-0.14970000000000017,-4.276672259492005
-0.15070000000000006,-4.276672259492005
-0.15170000000000017,-4.276672259492005
-0.15270000000000006,-4.23281620919619
-0.15370000000000017,-4.23281620919619
-0.15470000000000006,-4.23281620919619
-0.15570000000000017,-4.23281620919619
-0.15670000000000006,-4.23281620919619
-0.15770000000000017,-4.23281620919619
-0.15870000000000006,-4.23281620919619
-0.15970000000000018,-4.276672259492005
-0.16070000000000007,-4.276672259492005
-0.16170000000000018,-4.276672259492005
-0.16270000000000007,-4.3205283097878215
-0.16370000000000018,-4.3205283097878215
-0.16470000000000007,-4.3205283097878215
-0.16570000000000018,-4.3205283097878215
-0.16670000000000007,-4.3205283097878215
-0.16770000000000018,-4.364384360083638
-0.16870000000000007,-4.364384360083638
-0.16970000000000018,-4.3205283097878215
-0.17070000000000007,-4.3205283097878215
-0.17170000000000019,-4.364384360083638
-0.17270000000000008,-4.364384360083638
-0.1737000000000002,-4.364384360083638
-0.17470000000000008,-4.364384360083638
-0.1757000000000002,-4.364384360083638
-0.17670000000000008,-4.364384360083638
-0.1777000000000002,-4.406825699079589
-0.17870000000000008,-4.406825699079589
-0.1797000000000002,-4.406825699079589
-0.18070000000000008,-4.406825699079589
-0.1817000000000002,-4.406825699079589
-0.18270000000000008,-4.406825699079589
-0.1837000000000002,-4.450681749375406
-0.1847000000000001,-4.450681749375406
-0.1857000000000002,-4.450681749375406
-0.1867000000000001,-4.450681749375406
-0.1877000000000002,-4.450681749375406
-0.1887000000000001,-4.450681749375406
-0.1897000000000002,-4.450681749375406
-0.1907000000000001,-4.494537799671222
-0.1917000000000001,-4.494537799671222
-0.19269999999999998,-4.494537799671222
-0.1937000000000001,-4.538393849967037
-0.19469999999999998,-4.538393849967037
-0.1957000000000001,-4.538393849967037
-0.19669999999999999,-4.538393849967037
-0.1977000000000001,-4.538393849967037
-0.1987,-4.538393849967037
-0.1997000000000001,-4.538393849967037
-0.2007,-4.494537799671222
-0.2017000000000001,-4.494537799671222
-0.2027,-4.494537799671222
-0.2037000000000001,-4.494537799671222
-0.2047,-4.538393849967037
-0.2057000000000001,-4.538393849967037
-0.2067,-4.582249900262854
-0.2077000000000001,-4.626105950558669
-0.2087,-4.626105950558669
-0.2097000000000001,-4.626105950558669
-0.2107,-4.626105950558669
-0.2117000000000001,-4.626105950558669
-0.2127,-4.626105950558669
-0.2137000000000001,-4.626105950558669
-0.2147,-4.626105950558669
-0.2157000000000001,-4.626105950558669
-0.2167,-4.668547289554621
-0.21770000000000012,-4.668547289554621
-0.2187,-4.668547289554621
-0.21970000000000012,-4.668547289554621
-0.2207,-4.668547289554621
-0.22170000000000012,-4.668547289554621
-0.2227,-4.668547289554621
-0.22370000000000012,-4.668547289554621
-0.2247,-4.668547289554621
-0.22570000000000012,-4.712403339850438
-0.2267,-4.712403339850438
-0.22770000000000012,-4.712403339850438
-0.22870000000000001,-4.756259390146253
-0.22970000000000013,-4.756259390146253
-0.23070000000000002,-4.800115440442069
-0.23170000000000013,-4.800115440442069
-0.23270000000000002,-4.800115440442069
-0.23370000000000013,-4.756259390146253
-0.23470000000000002,-4.756259390146253
-0.23570000000000013,-4.756259390146253
-0.23670000000000002,-4.756259390146253
-0.2376999999999999,-4.756259390146253
-0.23870000000000002,-4.756259390146253
-0.2396999999999999,-4.756259390146253
-0.24070000000000003,-4.756259390146253
-0.24169999999999991,-4.800115440442069
-0.24270000000000003,-4.800115440442069
-0.24369999999999992,-4.800115440442069
-0.24470000000000003,-4.800115440442069
-0.24569999999999992,-4.800115440442069
-0.24670000000000003,-4.800115440442069
-0.24769999999999992,-4.800115440442069
-0.24870000000000003,-4.800115440442069
-0.24969999999999992,-4.800115440442069
-0.25070000000000003,-4.800115440442069
-0.2516999999999999,-4.800115440442069
-0.25270000000000004,-4.800115440442069
-0.2536999999999999,-4.843971490737885
-0.25470000000000004,-4.843971490737885
-0.2556999999999999,-4.843971490737885
-0.25670000000000004,-4.843971490737885
-0.25769999999999993,-4.843971490737885
-0.25870000000000004,-4.843971490737885
-0.25969999999999993,-4.843971490737885
-0.26070000000000004,-4.843971490737885
-0.26169999999999993,-4.843971490737885
-0.26270000000000004,-4.843971490737885
-0.26369999999999993,-4.843971490737885
-0.26470000000000005,-4.887827541033701
-0.26569999999999994,-4.887827541033701
-0.26670000000000005,-4.887827541033701
-0.26769999999999994,-4.9302688800296535
-0.26870000000000005,-4.9302688800296535
-0.26969999999999994,-4.887827541033701
-0.27070000000000005,-4.9302688800296535
-0.27169999999999994,-4.887827541033701
-0.27270000000000005,-4.887827541033701
-0.27369999999999994,-4.887827541033701
-0.27470000000000006,-4.887827541033701
-0.27569999999999995,-4.887827541033701
-0.27670000000000006,-4.887827541033701
-0.27769999999999995,-4.9302688800296535
-0.27870000000000006,-4.887827541033701
-0.27969999999999995,-4.9302688800296535
-0.28070000000000006,-4.9302688800296535
-0.28169999999999995,-4.9302688800296535
-0.28270000000000006,-4.887827541033701
-0.28369999999999995,-4.9302688800296535
-0.28470000000000006,-4.9302688800296535
-0.28569999999999995,-4.9302688800296535
-0.28670000000000007,-4.974124930325469
-0.28769999999999996,-4.974124930325469
-0.28870000000000007,-4.974124930325469
-0.28969999999999996,-4.974124930325469
-0.29070000000000007,-4.9302688800296535
-0.29169999999999996,-4.9302688800296535
-0.29270000000000007,-4.9302688800296535
-0.29369999999999996,-4.9302688800296535
-0.2947000000000001,-4.9302688800296535
-0.29569999999999996,-4.974124930325469
-0.2967000000000001,-4.974124930325469
-0.29769999999999996,-5.017980980621284
-0.2987000000000001,-5.017980980621284
-0.29969999999999997,-5.0618370309171015
-0.3007000000000001,-5.0618370309171015
-0.30169999999999997,-5.105693081212917
-0.3027000000000001,-5.149549131508733
-0.30369999999999997,-5.149549131508733
-0.3047000000000001,-5.149549131508733
-0.30569999999999997,-5.149549131508733
-0.3067000000000001,-5.149549131508733
-0.3077,-5.191990470504685
-0.3087000000000001,-5.191990470504685
-0.3097,-5.191990470504685
-0.3107000000000001,-5.235846520800501
-0.3117,-5.191990470504685
-0.3127000000000001,-5.235846520800501
-0.3137,-5.235846520800501
-0.3147000000000001,-5.191990470504685
-0.3157,-5.235846520800501
-0.3167000000000001,-5.235846520800501
-0.3177,-5.279702571096316
-0.3187000000000001,-5.323558621392133
-0.3197,-5.367414671687949
-0.3207000000000001,-5.411270721983764
-0.3217,-5.411270721983764
-0.3227000000000001,-5.453712060979717
-0.3237,-5.497568111275533
-0.3247000000000001,-5.497568111275533
-0.3257,-5.5414241615713475
-0.3267000000000001,-5.5414241615713475
-0.3277,-5.585280211867165
-0.3287000000000001,-5.585280211867165
-0.3297,-5.629136262162981
-0.3307000000000001,-5.629136262162981
-0.3317,-5.715433651454749
-0.3327000000000001,-5.759289701750564
-0.3337,-5.80314575204638
-0.3347000000000001,-5.890857852638012
-0.3357,-5.9347139029338285
-0.3367000000000001,-5.977155241929781
-0.3377,-6.021011292225596
-0.3387000000000001,-6.064867342521412
-0.3397,-6.108723392817228
-0.3407000000000001,-6.196435493408861
-0.3417,-6.238876832404812
-0.3427000000000001,-6.326588932996443
-0.3437,-6.326588932996443
-0.3447000000000001,-6.414301033588076
-0.3457,-6.500598422879844
-0.3467000000000001,-6.588310523471475
-0.3477,-6.6760226240631075
-0.3487000000000001,-6.762320013354876
-0.3497,-6.850032113946507
-0.3507000000000001,-6.93774421453814
-0.3517,-7.024041603829907
-0.3527000000000001,-7.155609754717355
-0.3537,-7.243321855308987
-0.3547000000000001,-7.329619244600755
-0.3557,-7.461187395488204
-0.35670000000000013,-7.635196885371603
-0.3577,-7.7653503249591855
-0.35870000000000013,-7.940774526142452
-0.3597,-8.070927965730034
-0.36070000000000013,-8.288793505909249
-0.3617,-8.4203616567967
-0.3626999999999999,-8.638227196975913
-0.3637,-8.85609273715513
-0.3646999999999999,-9.073958277334345
-0.3657,-9.379535918105192
-0.3666999999999999,-9.685113558876042
-0.3677,-9.99069119964689
-0.3686999999999999,-10.382566229709504
-0.36970000000000003,-10.775855971071984
-0.3706999999999999,-11.255443101726232
-0.37170000000000003,-11.73503023238048
-0.3726999999999999,-12.302329463626359
-0.37370000000000003,-12.913484745168056
-0.3746999999999999,-13.523225315409885
-0.37570000000000003,-14.217848563643619
-0.3766999999999999,-14.925204213576137
-0.37770000000000004,-15.660854089505953
-0.3786999999999999,-16.438945304431726
-0.37970000000000004,-17.2736249713521
-0.3806999999999999,-18.15074597726842
-0.38170000000000004,-19.056161209182044
-0.38269999999999993,-20.01816489309027
-0.38370000000000004,-20.980168576998494
-0.38469999999999993,-21.94217226090672
-0.38570000000000004,-22.946617283810895
-0.38669999999999993,-23.951062306715073
-0.38770000000000004,-24.95550732961925
-0.38869999999999993,-25.959952352523427
-0.38970000000000005,-27.00683871442355
-0.39069999999999994,-28.011283737327723
-0.39170000000000005,-29.100611438223805
-0.39269999999999994,-30.147497800123933
-0.39370000000000005,-31.321708179011907
-0.39469999999999994,-32.45347721890394
-0.39570000000000005,-33.627687597791926
-0.39669999999999994,-34.8018979766799
-0.39770000000000005,-35.99025546856653
-0.39869999999999994,-37.164465847454515
-0.39970000000000006,-38.29623488734655
-0.40069999999999995,-39.47044526623452
-0.40170000000000006,-40.65880275812115
-0.40269999999999995,-41.87545447600508
-0.40370000000000006,-43.17698887188092
-0.40469999999999995,-44.4926703807554
-0.40570000000000006,-45.93567590661774
-0.40669999999999995,-47.36453431948143
-0.40770000000000006,-48.80753984534376
-0.40869999999999995,-50.29298671020206
-0.40970000000000006,-51.82087491405629
-0.41069999999999995,-53.39120445690648
-0.41170000000000007,-54.961533999756675
-0.41269999999999996,-56.57430488160282
-0.41370000000000007,-58.14463442445301
-0.41469999999999996,-59.757405306299155
-0.41570000000000007,-61.28529351015339
-0.41669999999999996,-62.72829903601572
-0.41770000000000007,-64.15715744887942
-0.41869999999999996,-65.64260431373769
-0.4197000000000001,-67.17049251759194
-0.42069999999999996,-68.57105670445833
-0.4217000000000001,-70.05650356931662
-0.42269999999999996,-71.48536198218031
-0.4237000000000001,-72.8859261690467
-0.42469999999999997,-74.28649035591307
-0.4257000000000001,-75.6729074297808
-0.42669999999999997,-77.11591295564315
-0.4277000000000001,-78.55891848150549
-0.42869999999999997,-80.00192400736783
-0.4297000000000001,-81.38834108123557
-0.43069999999999997,-82.6615812511141
-0.4317000000000001,-83.83579163000208
-0.4327,-85.01000200889004
-0.4337000000000001,-86.09932970978613
-0.4347,-87.23109874967815
-0.4357000000000001,-88.27798511157829
-0.4367,-89.32487147347842
-0.4377000000000001,-90.24443381839069
-0.4387,-91.16399616330297
-0.4397000000000001,-92.12599984721119
-0.4407,-93.21532754810727
-0.4417000000000001,-94.4319792659912
-0.4427,-95.64863098387512
-0.4437000000000001,-96.83698847576176
-0.4447,-98.01119885464975
-0.4457000000000001,-99.18540923353773
-0.4467,-100.06253023945405
-0.4477000000000001,-100.92550413237171
-0.4487,-101.84506647728399
-0.4497000000000001,-102.97683551717601
-0.4507,-103.81151518409638
-0.4517000000000001,-104.41984104303836
-0.4527,-104.98572556298437
-0.4537000000000001,-105.63649276092228
-0.4547,-106.34384841085482
-0.4557000000000001,-107.4331761117509
-0.4567,-108.52250381264696
-0.4577000000000001,-109.61183151354304
-0.4587,-110.6162765364472
-0.4597000000000001,-111.7904869153352
-0.4607,-112.71004926024747
-0.4617000000000001,-113.79937696114357
-0.4627,-114.71893930605583
-0.4637000000000001,-115.36970650399375
-0.4647,-115.93559102393975
-0.4657000000000001,-116.72782935186417
-0.4667,-117.50592056678994
-0.4677000000000001,-118.1991291037238
-0.4687,-118.86404341466037
-0.4697000000000001,-119.47236927360234
-0.4707,-120.29290182752408
-0.4717000000000001,-121.38222952842017
-0.4727,-122.42911589032028
-0.4737000000000001,-123.17891287924873
-0.4747,-123.78723873819072
-0.4757000000000001,-124.57947706611512
-0.4767,-125.31512694204494
-0.4777000000000001,-126.05077681797478
-0.4787,-126.71569112891132
-0.4797000000000001,-127.4937823438371
-0.4807,-128.28602067176152
-0.48170000000000013,-129.2338772426711
-0.4827,-130.1534395875834
-0.48370000000000013,-131.03056059349967
-0.4847,-131.89353448641737
-0.48570000000000013,-132.72821415333775
-0.4867,-132.81309683132966
-0.48570000000000013,-131.72376913043357
-0.4847,-130.84664812451723
-0.48370000000000013,-129.8563502146117
-0.4827,-128.8094638527116
-0.48170000000000013,-127.72013615181551
-0.4807,-126.61666133792076
-0.4797000000000001,-125.79612878399907
-0.4787,-124.9614491170787
-0.4777000000000001,-124.57947706611512
-0.4767,-124.09847522416102
-0.4757000000000001,-123.2213542182447
-0.4747,-122.30179187333242
-0.4737000000000001,-121.17002283344038
-0.4727,-120.08069513254432
-0.4717000000000001,-119.07625010964013
-0.4707,-117.77471571376431
-0.4697000000000001,-116.50147554388576
-0.4687,-115.32726516499778
-0.4677000000000001,-114.23793746410173
-0.4667,-113.10616842420968
-0.4657000000000001,-112.10172340130552
-0.4647,-111.13971971739728
-0.4637000000000001,-110.17771603348905
-0.4627,-109.39962481856328
