Mar. 14, 2025   06:22:55
Cyclic Voltammetry
File: c:/users/guazh/data/banditlqround7_x0exp891_r5/2025-03-03-exp890\exp890-2025-03-14t06_13_45-h2koh\exp890_cv_sr_50mvs_efin_-1500mv.bin
Data Source:  Experiment
Instrument Model:  CHI760E
Header: CV ran at 50 mVs
Note: 

Init E (V) = -1
High E (V) = -1
Low E (V) = -1.5
Final E (V) = -1
Init P/N = N
Scan Rate (V/s) = 0.05
Segment = 3
Sample Interval (V) = 0.001
Quiet Time (sec) = 2
Sensitivity (A/V) = 0.01
Comp R (ohm) = 1.5

Results:

Channel 1:
Segment 1:

Segment 2:

Segment 3:

Potential/V, Current/A

-1.000, -1.077e-6
-1.001, 6.963e-6
-1.002, 9.775e-6
-1.003, 1.166e-5
-1.004, 1.313e-5
-1.005, 1.416e-5
-1.006, 1.443e-5
-1.007, 1.522e-5
-1.008, 1.574e-5
-1.009, 1.649e-5
-1.010, 1.701e-5
-1.011, 1.714e-5
-1.012, 1.760e-5
-1.013, 1.797e-5
-1.014, 1.861e-5
-1.015, 1.879e-5
-1.016, 1.892e-5
-1.017, 1.901e-5
-1.018, 1.959e-5
-1.019, 1.991e-5
-1.020, 2.033e-5
-1.021, 2.013e-5
-1.022, 2.014e-5
-1.023, 2.068e-5
-1.024, 2.131e-5
-1.025, 2.138e-5
-1.026, 2.129e-5
-1.027, 2.121e-5
-1.028, 2.159e-5
-1.029, 2.194e-5
-1.030, 2.213e-5
-1.031, 2.214e-5
-1.032, 2.202e-5
-1.033, 2.240e-5
-1.034, 2.255e-5
-1.035, 2.295e-5
-1.036, 2.266e-5
-1.037, 2.285e-5
-1.038, 2.280e-5
-1.039, 2.344e-5
-1.040, 2.338e-5
-1.041, 2.319e-5
-1.042, 2.319e-5
-1.043, 2.338e-5
-1.044, 2.397e-5
-1.045, 2.369e-5
-1.046, 2.368e-5
-1.047, 2.362e-5
-1.048, 2.382e-5
-1.049, 2.414e-5
-1.050, 2.434e-5
-1.051, 2.412e-5
-1.052, 2.405e-5
-1.053, 2.435e-5
-1.054, 2.451e-5
-1.055, 2.455e-5
-1.056, 2.459e-5
-1.057, 2.442e-5
-1.058, 2.456e-5
-1.059, 2.493e-5
-1.060, 2.505e-5
-1.061, 2.485e-5
-1.062, 2.466e-5
-1.063, 2.513e-5
-1.064, 2.530e-5
-1.065, 2.532e-5
-1.066, 2.521e-5
-1.067, 2.521e-5
-1.068, 2.538e-5
-1.069, 2.559e-5
-1.070, 2.565e-5
-1.071, 2.566e-5
-1.072, 2.522e-5
-1.073, 2.563e-5
-1.074, 2.590e-5
-1.075, 2.613e-5
-1.076, 2.604e-5
-1.077, 2.584e-5
-1.078, 2.598e-5
-1.079, 2.628e-5
-1.080, 2.628e-5
-1.081, 2.615e-5
-1.082, 2.614e-5
-1.083, 2.623e-5
-1.084, 2.674e-5
-1.085, 2.666e-5
-1.086, 2.648e-5
-1.087, 2.650e-5
-1.088, 2.654e-5
-1.089, 2.708e-5
-1.090, 2.702e-5
-1.091, 2.691e-5
-1.092, 2.693e-5
-1.093, 2.698e-5
-1.094, 2.743e-5
-1.095, 2.758e-5
-1.096, 2.724e-5
-1.097, 2.726e-5
-1.098, 2.741e-5
-1.099, 2.743e-5
-1.100, 2.821e-5
-1.101, 2.762e-5
-1.102, 2.803e-5
-1.103, 2.790e-5
-1.104, 2.861e-5
-1.105, 2.819e-5
-1.106, 2.840e-5
-1.107, 2.823e-5
-1.108, 2.836e-5
-1.109, 2.881e-5
-1.110, 2.873e-5
-1.111, 2.878e-5
-1.112, 2.856e-5
-1.113, 2.884e-5
-1.114, 2.929e-5
-1.115, 2.931e-5
-1.116, 2.905e-5
-1.117, 2.917e-5
-1.118, 2.927e-5
-1.119, 2.968e-5
-1.120, 3.000e-5
-1.121, 2.957e-5
-1.122, 2.972e-5
-1.123, 2.996e-5
-1.124, 3.023e-5
-1.125, 3.034e-5
-1.126, 3.040e-5
-1.127, 3.026e-5
-1.128, 3.043e-5
-1.129, 3.080e-5
-1.130, 3.092e-5
-1.131, 3.078e-5
-1.132, 3.084e-5
-1.133, 3.100e-5
-1.134, 3.115e-5
-1.135, 3.169e-5
-1.136, 3.137e-5
-1.137, 3.147e-5
-1.138, 3.146e-5
-1.139, 3.205e-5
-1.140, 3.215e-5
-1.141, 3.197e-5
-1.142, 3.206e-5
-1.143, 3.227e-5
-1.144, 3.242e-5
-1.145, 3.279e-5
-1.146, 3.268e-5
-1.147, 3.243e-5
-1.148, 3.274e-5
-1.149, 3.306e-5
-1.150, 3.340e-5
-1.151, 3.335e-5
-1.152, 3.324e-5
-1.153, 3.349e-5
-1.154, 3.383e-5
-1.155, 3.389e-5
-1.156, 3.387e-5
-1.157, 3.382e-5
-1.158, 3.417e-5
-1.159, 3.437e-5
-1.160, 3.458e-5
-1.161, 3.431e-5
-1.162, 3.456e-5
-1.163, 3.456e-5
-1.164, 3.498e-5
-1.165, 3.519e-5
-1.166, 3.501e-5
-1.167, 3.523e-5
-1.168, 3.531e-5
-1.169, 3.572e-5
-1.170, 3.592e-5
-1.171, 3.572e-5
-1.172, 3.588e-5
-1.173, 3.583e-5
-1.174, 3.637e-5
-1.175, 3.667e-5
-1.176, 3.648e-5
-1.177, 3.651e-5
-1.178, 3.674e-5
-1.179, 3.721e-5
-1.180, 3.739e-5
-1.181, 3.722e-5
-1.182, 3.709e-5
-1.183, 3.733e-5
-1.184, 3.772e-5
-1.185, 3.797e-5
-1.186, 3.797e-5
-1.187, 3.786e-5
-1.188, 3.818e-5
-1.189, 3.851e-5
-1.190, 3.867e-5
-1.191, 3.874e-5
-1.192, 3.866e-5
-1.193, 3.887e-5
-1.194, 3.938e-5
-1.195, 3.955e-5
-1.196, 3.954e-5
-1.197, 3.960e-5
-1.198, 3.985e-5
-1.199, 4.006e-5
-1.200, 4.051e-5
-1.201, 4.044e-5
-1.202, 4.049e-5
-1.203, 4.063e-5
-1.204, 4.144e-5
-1.205, 4.118e-5
-1.206, 4.129e-5
-1.207, 4.194e-5
-1.208, 4.167e-5
-1.209, 4.248e-5
-1.210, 4.258e-5
-1.211, 4.273e-5
-1.212, 4.279e-5
-1.213, 4.284e-5
-1.214, 4.335e-5
-1.215, 4.367e-5
-1.216, 4.366e-5
-1.217, 4.376e-5
-1.218, 4.439e-5
-1.219, 4.436e-5
-1.220, 4.533e-5
-1.221, 4.509e-5
-1.222, 4.509e-5
-1.223, 4.537e-5
-1.224, 4.613e-5
-1.225, 4.644e-5
-1.226, 4.646e-5
-1.227, 4.641e-5
-1.228, 4.729e-5
-1.229, 4.817e-5
-1.230, 4.805e-5
-1.231, 4.821e-5
-1.232, 4.819e-5
-1.233, 4.888e-5
-1.234, 4.937e-5
-1.235, 4.969e-5
-1.236, 4.989e-5
-1.237, 5.023e-5
-1.238, 5.055e-5
-1.239, 5.144e-5
-1.240, 5.155e-5
-1.241, 5.268e-5
-1.242, 5.279e-5
-1.243, 5.302e-5
-1.244, 5.373e-5
-1.245, 5.408e-5
-1.246, 5.445e-5
-1.247, 5.480e-5
-1.248, 5.542e-5
-1.249, 5.616e-5
-1.250, 5.682e-5
-1.251, 5.730e-5
-1.252, 5.771e-5
-1.253, 5.831e-5
-1.254, 5.938e-5
-1.255, 6.015e-5
-1.256, 6.062e-5
-1.257, 6.118e-5
-1.258, 6.210e-5
-1.259, 6.300e-5
-1.260, 6.407e-5
-1.261, 6.478e-5
-1.262, 6.547e-5
-1.263, 6.650e-5
-1.264, 6.777e-5
-1.265, 6.895e-5
-1.266, 6.984e-5
-1.267, 7.087e-5
-1.268, 7.235e-5
-1.269, 7.380e-5
-1.270, 7.525e-5
-1.271, 7.666e-5
-1.272, 7.790e-5
-1.273, 7.964e-5
-1.274, 8.177e-5
-1.275, 8.380e-5
-1.276, 8.575e-5
-1.277, 8.777e-5
-1.278, 9.003e-5
-1.279, 9.301e-5
-1.280, 9.590e-5
-1.281, 9.855e-5
-1.282, 1.018e-4
-1.283, 1.054e-4
-1.284, 1.095e-4
-1.285, 1.138e-4
-1.286, 1.183e-4
-1.287, 1.233e-4
-1.288, 1.288e-4
-1.289, 1.357e-4
-1.290, 1.429e-4
-1.291, 1.507e-4
-1.292, 1.596e-4
-1.293, 1.697e-4
-1.294, 1.811e-4
-1.295, 1.938e-4
-1.296, 2.071e-4
-1.297, 2.221e-4
-1.298, 2.390e-4
-1.299, 2.582e-4
-1.300, 2.794e-4
-1.301, 3.030e-4
-1.302, 3.295e-4
-1.303, 3.590e-4
-1.304, 3.926e-4
-1.305, 4.294e-4
-1.306, 4.728e-4
-1.307, 5.166e-4
-1.308, 5.662e-4
-1.309, 6.195e-4
-1.310, 6.801e-4
-1.311, 7.457e-4
-1.312, 8.162e-4
-1.313, 8.895e-4
-1.314, 9.640e-4
-1.315, 1.036e-3
-1.316, 1.106e-3
-1.317, 1.169e-3
-1.318, 1.226e-3
-1.319, 1.278e-3
-1.320, 1.326e-3
-1.321, 1.373e-3
-1.322, 1.415e-3
-1.323, 1.454e-3
-1.324, 1.491e-3
-1.325, 1.525e-3
-1.326, 1.562e-3
-1.327, 1.593e-3
-1.328, 1.624e-3
-1.329, 1.654e-3
-1.330, 1.680e-3
-1.331, 1.710e-3
-1.332, 1.739e-3
-1.333, 1.766e-3
-1.334, 1.792e-3
-1.335, 1.830e-3
-1.336, 1.873e-3
-1.337, 1.911e-3
-1.338, 1.946e-3
-1.339, 1.975e-3
-1.340, 2.011e-3
-1.341, 2.040e-3
-1.342, 2.064e-3
-1.343, 2.100e-3
-1.344, 2.140e-3
-1.345, 2.177e-3
-1.346, 2.216e-3
-1.347, 2.250e-3
-1.348, 2.286e-3
-1.349, 2.318e-3
-1.350, 2.362e-3
-1.351, 2.402e-3
-1.352, 2.446e-3
-1.353, 2.483e-3
-1.354, 2.516e-3
-1.355, 2.544e-3
-1.356, 2.577e-3
-1.357, 2.605e-3
-1.358, 2.645e-3
-1.359, 2.691e-3
-1.360, 2.728e-3
-1.361, 2.770e-3
-1.362, 2.805e-3
-1.363, 2.828e-3
-1.364, 2.866e-3
-1.365, 2.927e-3
-1.366, 2.977e-3
-1.367, 3.011e-3
-1.368, 3.050e-3
-1.369, 3.092e-3
-1.370, 3.135e-3
-1.371, 3.181e-3
-1.372, 3.200e-3
-1.373, 3.252e-3
-1.374, 3.286e-3
-1.375, 3.326e-3
-1.376, 3.364e-3
-1.377, 3.402e-3
-1.378, 3.431e-3
-1.379, 3.460e-3
-1.380, 3.496e-3
-1.381, 3.533e-3
-1.382, 3.599e-3
-1.383, 3.630e-3
-1.384, 3.679e-3
-1.385, 3.723e-3
-1.386, 3.750e-3
-1.387, 3.791e-3
-1.388, 3.847e-3
-1.389, 3.900e-3
-1.390, 3.940e-3
-1.391, 3.968e-3
-1.392, 3.988e-3
-1.393, 4.043e-3
-1.394, 4.065e-3
-1.395, 4.113e-3
-1.396, 4.159e-3
-1.397, 4.204e-3
-1.398, 4.290e-3
-1.399, 4.366e-3
-1.400, 4.480e-3
-1.401, 4.517e-3
-1.402, 4.565e-3
-1.403, 4.639e-3
-1.404, 4.705e-3
-1.405, 4.716e-3
-1.406, 4.713e-3
-1.407, 4.761e-3
-1.408, 4.849e-3
-1.409, 4.889e-3
-1.410, 4.959e-3
-1.411, 5.026e-3
-1.412, 5.055e-3
-1.413, 5.085e-3
-1.414, 5.130e-3
-1.415, 5.181e-3
-1.416, 5.198e-3
-1.417, 5.219e-3
-1.418, 5.273e-3
-1.419, 5.341e-3
-1.420, 5.408e-3
-1.421, 5.466e-3
-1.422, 5.512e-3
-1.423, 5.572e-3
-1.424, 5.611e-3
-1.425, 5.646e-3
-1.426, 5.659e-3
-1.427, 5.655e-3
-1.428, 5.693e-3
-1.429, 5.776e-3
-1.430, 5.879e-3
-1.431, 5.949e-3
-1.432, 5.962e-3
-1.433, 5.961e-3
-1.434, 5.980e-3
-1.435, 6.017e-3
-1.436, 6.071e-3
-1.437, 6.113e-3
-1.438, 6.137e-3
-1.439, 6.195e-3
-1.440, 6.208e-3
-1.441, 6.270e-3
-1.442, 6.324e-3
-1.443, 6.410e-3
-1.444, 6.455e-3
-1.445, 6.500e-3
-1.446, 6.485e-3
-1.447, 6.483e-3
-1.448, 6.511e-3
-1.449, 6.609e-3
-1.450, 6.660e-3
-1.451, 6.724e-3
-1.452, 6.800e-3
-1.453, 6.797e-3
-1.454, 6.827e-3
-1.455, 6.904e-3
-1.456, 6.969e-3
-1.457, 7.031e-3
-1.458, 7.061e-3
-1.459, 7.052e-3
-1.460, 7.089e-3
-1.461, 7.148e-3
-1.462, 7.169e-3
-1.463, 7.236e-3
-1.464, 7.203e-3
-1.465, 7.282e-3
-1.466, 7.272e-3
-1.467, 7.317e-3
-1.468, 7.503e-3
-1.469, 7.765e-3
-1.470, 7.682e-3
-1.471, 7.708e-3
-1.472, 7.746e-3
-1.473, 7.791e-3
-1.474, 8.084e-3
-1.475, 8.138e-3
-1.476, 8.225e-3
-1.477, 8.286e-3
-1.478, 8.335e-3
-1.479, 8.341e-3
-1.480, 8.271e-3
-1.481, 8.368e-3
-1.482, 8.145e-3
-1.483, 8.150e-3
-1.484, 8.348e-3
-1.485, 8.527e-3
-1.486, 8.622e-3
-1.487, 8.845e-3
-1.488, 8.883e-3
-1.489, 8.942e-3
-1.490, 8.976e-3
-1.491, 8.997e-3
-1.492, 8.906e-3
-1.493, 8.882e-3
-1.494, 8.886e-3
-1.495, 8.945e-3
-1.496, 9.121e-3
-1.497, 9.192e-3
-1.498, 9.228e-3
-1.499, 9.111e-3
-1.500, 9.030e-3
-1.499, 9.061e-3
-1.498, 9.041e-3
-1.497, 8.996e-3
-1.496, 8.871e-3
-1.495, 8.783e-3
-1.494, 8.624e-3
-1.493, 8.562e-3
-1.492, 8.512e-3
-1.491, 8.338e-3
-1.490, 8.404e-3
-1.489, 8.362e-3
-1.488, 8.319e-3
-1.487, 8.104e-3
-1.486, 8.103e-3
-1.485, 8.114e-3
-1.484, 8.092e-3
-1.483, 8.138e-3
-1.482, 8.145e-3
-1.481, 8.134e-3
-1.480, 8.031e-3
-1.479, 7.979e-3
-1.478, 7.921e-3
-1.477, 7.810e-3
-1.476, 7.767e-3
-1.475, 7.656e-3
-1.474, 7.601e-3
-1.473, 7.538e-3
-1.472, 7.492e-3
-1.471, 7.360e-3
-1.470, 7.232e-3
-1.469, 7.203e-3
-1.468, 7.181e-3
-1.467, 7.076e-3
-1.466, 7.015e-3
-1.465, 7.004e-3
-1.464, 6.928e-3
-1.463, 6.878e-3
-1.462, 6.822e-3
-1.461, 6.850e-3
-1.460, 6.791e-3
-1.459, 6.728e-3
-1.458, 6.659e-3
-1.457, 6.600e-3
-1.456, 6.485e-3
-1.455, 6.421e-3
-1.454, 6.382e-3
-1.453, 6.362e-3
-1.452, 6.245e-3
-1.451, 6.201e-3
-1.450, 6.168e-3
-1.449, 6.107e-3
-1.448, 6.021e-3
-1.447, 5.955e-3
-1.446, 5.879e-3
-1.445, 5.805e-3
-1.444, 5.738e-3
-1.443, 5.862e-3
-1.442, 5.762e-3
-1.441, 5.629e-3
-1.440, 5.651e-3
-1.439, 5.554e-3
-1.438, 5.476e-3
-1.437, 5.466e-3
-1.436, 5.433e-3
-1.435, 5.347e-3
-1.434, 5.304e-3
-1.433, 5.227e-3
-1.432, 5.137e-3
-1.431, 5.118e-3
-1.430, 5.156e-3
-1.429, 5.113e-3
-1.428, 5.046e-3
-1.427, 4.989e-3
-1.426, 4.929e-3
-1.425, 4.828e-3
-1.424, 4.727e-3
-1.423, 4.708e-3
-1.422, 4.649e-3
-1.421, 4.652e-3
-1.420, 4.654e-3
-1.419, 4.677e-3
-1.418, 4.636e-3
-1.417, 4.588e-3
-1.416, 4.523e-3
-1.415, 4.459e-3
-1.414, 4.407e-3
-1.413, 4.331e-3
-1.412, 4.280e-3
-1.411, 4.275e-3
-1.410, 4.183e-3
-1.409, 4.093e-3
-1.408, 4.013e-3
-1.407, 4.037e-3
-1.406, 3.993e-3
-1.405, 4.016e-3
-1.404, 4.067e-3
-1.403, 4.017e-3
-1.402, 3.941e-3
-1.401, 3.864e-3
-1.400, 3.800e-3
-1.399, 3.725e-3
-1.398, 3.686e-3
-1.397, 3.633e-3
-1.396, 3.600e-3
-1.395, 3.588e-3
-1.394, 3.571e-3
-1.393, 3.519e-3
-1.392, 3.461e-3
-1.391, 3.418e-3
-1.390, 3.375e-3
-1.389, 3.333e-3
-1.388, 3.285e-3
-1.387, 3.226e-3
-1.386, 3.181e-3
-1.385, 3.137e-3
-1.384, 3.075e-3
-1.383, 3.020e-3
-1.382, 2.975e-3
-1.381, 2.944e-3
-1.380, 2.893e-3
-1.379, 2.846e-3
-1.378, 2.854e-3
-1.377, 2.826e-3
-1.376, 2.818e-3
-1.375, 2.748e-3
-1.374, 2.625e-3
-1.373, 2.605e-3
-1.372, 2.637e-3
-1.371, 2.633e-3
-1.370, 2.607e-3
-1.369, 2.575e-3
-1.368, 2.553e-3
-1.367, 2.515e-3
-1.366, 2.471e-3
-1.365, 2.431e-3
-1.364, 2.373e-3
-1.363, 2.314e-3
-1.362, 2.276e-3
-1.361, 2.242e-3
-1.360, 2.199e-3
-1.359, 2.160e-3
-1.358, 2.126e-3
-1.357, 2.089e-3
-1.356, 2.060e-3
-1.355, 2.027e-3
-1.354, 1.996e-3
-1.353, 1.967e-3
-1.352, 1.940e-3
-1.351, 1.890e-3
-1.350, 1.848e-3
-1.349, 1.813e-3
-1.348, 1.784e-3
-1.347, 1.745e-3
-1.346, 1.705e-3
-1.345, 1.693e-3
-1.344, 1.659e-3
-1.343, 1.621e-3
-1.342, 1.584e-3
-1.341, 1.550e-3
-1.340, 1.515e-3
-1.339, 1.483e-3
-1.338, 1.463e-3
-1.337, 1.451e-3
-1.336, 1.422e-3
-1.335, 1.402e-3
-1.334, 1.369e-3
-1.333, 1.343e-3
-1.332, 1.322e-3
-1.331, 1.287e-3
-1.330, 1.264e-3
-1.329, 1.238e-3
-1.328, 1.218e-3
-1.327, 1.197e-3
-1.326, 1.179e-3
-1.325, 1.157e-3
-1.324, 1.134e-3
-1.323, 1.111e-3
-1.322, 1.086e-3
-1.321, 1.059e-3
-1.320, 1.030e-3
-1.319, 1.013e-3
-1.318, 9.892e-4
-1.317, 9.725e-4
-1.316, 9.652e-4
-1.315, 9.456e-4
-1.314, 9.295e-4
-1.313, 9.115e-4
-1.312, 8.812e-4
-1.311, 8.485e-4
-1.310, 8.267e-4
-1.309, 8.056e-4
-1.308, 7.882e-4
-1.307, 7.732e-4
-1.306, 7.641e-4
-1.305, 7.438e-4
-1.304, 7.231e-4
-1.303, 7.042e-4
-1.302, 6.881e-4
-1.301, 6.702e-4
-1.300, 6.520e-4
-1.299, 6.349e-4
-1.298, 6.176e-4
-1.297, 6.012e-4
-1.296, 5.915e-4
-1.295, 5.753e-4
-1.294, 5.563e-4
-1.293, 5.401e-4
-1.292, 5.292e-4
-1.291, 5.137e-4
-1.290, 4.971e-4
-1.289, 4.825e-4
-1.288, 4.688e-4
-1.287, 4.546e-4
-1.286, 4.415e-4
-1.285, 4.285e-4
-1.284, 4.159e-4
-1.283, 4.062e-4
-1.282, 3.940e-4
-1.281, 3.815e-4
-1.280, 3.703e-4
-1.279, 3.588e-4
-1.278, 3.473e-4
-1.277, 3.360e-4
-1.276, 3.251e-4
-1.275, 3.153e-4
-1.274, 3.041e-4
-1.273, 2.936e-4
-1.272, 2.831e-4
-1.271, 2.735e-4
-1.270, 2.641e-4
-1.269, 2.556e-4
-1.268, 2.465e-4
-1.267, 2.372e-4
-1.266, 2.298e-4
-1.265, 2.198e-4
-1.264, 2.125e-4
-1.263, 2.044e-4
-1.262, 1.969e-4
-1.261, 1.904e-4
-1.260, 1.825e-4
-1.259, 1.748e-4
-1.258, 1.684e-4
-1.257, 1.623e-4
-1.256, 1.560e-4
-1.255, 1.500e-4
-1.254, 1.442e-4
-1.253, 1.386e-4
-1.252, 1.324e-4
-1.251, 1.273e-4
-1.250, 1.220e-4
-1.249, 1.170e-4
-1.248, 1.120e-4
-1.247, 1.078e-4
-1.246, 1.033e-4
-1.245, 9.883e-5
-1.244, 9.520e-5
-1.243, 9.026e-5
-1.242, 8.637e-5
-1.241, 8.239e-5
-1.240, 7.851e-5
-1.239, 7.505e-5
-1.238, 7.128e-5
-1.237, 6.829e-5
-1.236, 6.578e-5
-1.235, 6.243e-5
-1.234, 5.913e-5
-1.233, 5.607e-5
-1.232, 5.340e-5
-1.231, 5.051e-5
-1.230, 4.800e-5
-1.229, 4.499e-5
-1.228, 4.234e-5
-1.227, 4.010e-5
-1.226, 3.800e-5
-1.225, 3.582e-5
-1.224, 3.425e-5
-1.223, 3.180e-5
-1.222, 2.929e-5
-1.221, 2.753e-5
-1.220, 2.553e-5
-1.219, 2.337e-5
-1.218, 2.182e-5
-1.217, 2.009e-5
-1.216, 1.873e-5
-1.215, 1.737e-5
-1.214, 1.571e-5
-1.213, 1.417e-5
-1.212, 1.272e-5
-1.211, 1.128e-5
-1.210, 1.019e-5
-1.209, 8.887e-6
-1.208, 7.703e-6
-1.207, 6.381e-6
-1.206, 5.405e-6
-1.205, 4.526e-6
-1.204, 3.500e-6
-1.203, 2.494e-6
-1.202, 1.379e-6
-1.201, 5.012e-7
-1.200, -1.697e-7
-1.199, -1.067e-6
-1.198, -2.202e-6
-1.197, -2.814e-6
-1.196, -3.347e-6
-1.195, -4.126e-6
-1.194, -4.886e-6
-1.193, -5.892e-6
-1.192, -6.583e-6
-1.191, -6.938e-6
-1.190, -7.648e-6
-1.189, -8.092e-6
-1.188, -8.980e-6
-1.187, -9.809e-6
-1.186, -1.012e-5
-1.185, -1.035e-5
-1.184, -1.075e-5
-1.183, -1.151e-5
-1.182, -1.222e-5
-1.181, -1.257e-5
-1.180, -1.285e-5
-1.179, -1.315e-5
-1.178, -1.396e-5
-1.177, -1.453e-5
-1.176, -1.452e-5
-1.175, -1.480e-5
-1.174, -1.535e-5
-1.173, -1.584e-5
-1.172, -1.621e-5
-1.171, -1.647e-5
-1.170, -1.655e-5
-1.169, -1.707e-5
-1.168, -1.740e-5
-1.167, -1.780e-5
-1.166, -1.815e-5
-1.165, -1.809e-5
-1.164, -1.841e-5
-1.163, -1.886e-5
-1.162, -1.930e-5
-1.161, -1.964e-5
-1.160, -1.937e-5
-1.159, -1.959e-5
-1.158, -2.004e-5
-1.157, -2.030e-5
-1.156, -2.064e-5
-1.155, -2.072e-5
-1.154, -2.093e-5
-1.153, -2.164e-5
-1.152, -2.167e-5
-1.151, -2.178e-5
-1.150, -2.154e-5
-1.149, -2.188e-5
-1.148, -2.255e-5
-1.147, -2.271e-5
-1.146, -2.267e-5
-1.145, -2.279e-5
-1.144, -2.294e-5
-1.143, -2.323e-5
-1.142, -2.348e-5
-1.141, -2.348e-5
-1.140, -2.384e-5
-1.139, -2.432e-5
-1.138, -2.435e-5
-1.137, -2.463e-5
-1.136, -2.451e-5
-1.135, -2.452e-5
-1.134, -2.474e-5
-1.133, -2.503e-5
-1.132, -2.532e-5
-1.131, -2.539e-5
-1.130, -2.521e-5
-1.129, -2.542e-5
-1.128, -2.576e-5
-1.127, -2.586e-5
-1.126, -2.615e-5
-1.125, -2.613e-5
-1.124, -2.632e-5
-1.123, -2.673e-5
-1.122, -2.693e-5
-1.121, -2.677e-5
-1.120, -2.662e-5
-1.119, -2.688e-5
-1.118, -2.728e-5
-1.117, -2.730e-5
-1.116, -2.748e-5
-1.115, -2.751e-5
-1.114, -2.765e-5
-1.113, -2.809e-5
-1.112, -2.833e-5
-1.111, -2.814e-5
-1.110, -2.830e-5
-1.109, -2.817e-5
-1.108, -2.890e-5
-1.107, -2.926e-5
-1.106, -2.901e-5
-1.105, -2.899e-5
-1.104, -2.915e-5
-1.103, -2.932e-5
-1.102, -2.956e-5
-1.101, -2.956e-5
-1.100, -2.997e-5
-1.099, -3.005e-5
-1.098, -3.025e-5
-1.097, -3.066e-5
-1.096, -3.034e-5
-1.095, -3.032e-5
-1.094, -3.069e-5
-1.093, -3.086e-5
-1.092, -3.120e-5
-1.091, -3.160e-5
-1.090, -3.137e-5
-1.089, -3.188e-5
-1.088, -3.199e-5
-1.087, -3.234e-5
-1.086, -3.226e-5
-1.085, -3.189e-5
-1.084, -3.216e-5
-1.083, -3.242e-5
-1.082, -3.279e-5
-1.081, -3.307e-5
-1.080, -3.355e-5
-1.079, -3.334e-5
-1.078, -3.373e-5
-1.077, -3.390e-5
-1.076, -3.389e-5
-1.075, -3.406e-5
-1.074, -3.423e-5
-1.073, -3.490e-5
-1.072, -3.497e-5
-1.071, -3.493e-5
-1.070, -3.507e-5
-1.069, -3.518e-5
-1.068, -3.554e-5
-1.067, -3.584e-5
-1.066, -3.602e-5
-1.065, -3.648e-5
-1.064, -3.653e-5
-1.063, -3.692e-5
-1.062, -3.695e-5
-1.061, -3.701e-5
-1.060, -3.720e-5
-1.059, -3.752e-5
-1.058, -3.864e-5
-1.057, -3.867e-5
-1.056, -3.866e-5
-1.055, -3.849e-5
-1.054, -3.893e-5
-1.053, -3.922e-5
-1.052, -3.969e-5
-1.051, -3.981e-5
-1.050, -3.981e-5
-1.049, -4.048e-5
-1.048, -4.091e-5
-1.047, -4.115e-5
-1.046, -4.134e-5
-1.045, -4.134e-5
-1.044, -4.156e-5
-1.043, -4.186e-5
-1.042, -4.256e-5
-1.041, -4.276e-5
-1.040, -4.291e-5
-1.039, -4.317e-5
-1.038, -4.381e-5
-1.037, -4.405e-5
-1.036, -4.443e-5
-1.035, -4.440e-5
-1.034, -4.463e-5
-1.033, -4.528e-5
-1.032, -4.562e-5
-1.031, -4.593e-5
-1.030, -4.604e-5
-1.029, -4.656e-5
-1.028, -4.693e-5
-1.027, -4.758e-5
-1.026, -4.760e-5
-1.025, -4.781e-5
-1.024, -4.850e-5
-1.023, -4.885e-5
-1.022, -4.947e-5
-1.021, -4.959e-5
-1.020, -4.988e-5
-1.019, -5.038e-5
-1.018, -5.077e-5
-1.017, -5.139e-5
-1.016, -5.154e-5
-1.015, -5.186e-5
-1.014, -5.233e-5
-1.013, -5.279e-5
-1.012, -5.342e-5
-1.011, -5.386e-5
-1.010, -5.411e-5
-1.009, -5.465e-5
-1.008, -5.519e-5
-1.007, -5.574e-5
-1.006, -5.624e-5
-1.005, -5.642e-5
-1.004, -5.689e-5
-1.003, -5.757e-5
-1.002, -5.817e-5
-1.001, -5.872e-5
