Potential V vs RHE, Current mA cm-2
0.05339999999999995,-0.09188549892623413
0.05239999999999995,-0.09429050813600469
0.051399999999999946,-0.09532324738490616
0.050399999999999945,-0.096058897260836
0.049399999999999944,-0.09670966445877392
0.04839999999999994,-0.09733213743071452
0.04739999999999994,-0.09792631617665784
0.04639999999999994,-0.0984780535836052
0.04539999999999994,-0.09902979099055256
0.04439999999999994,-0.09962396973649587
0.04339999999999994,-0.10018985425644189
0.04239999999999994,-0.10071329743739196
0.04139999999999994,-0.10123674061834202
0.040399999999999936,-0.10173188957329479
0.039399999999999935,-0.1022411856412462
0.038399999999999934,-0.10275048170919761
0.03739999999999993,-0.10324563066415038
0.03639999999999993,-0.10374077961910314
0.03539999999999993,-0.10419348723505996
0.03439999999999993,-0.10467448907701406
0.03339999999999993,-0.10515549091896817
0.03239999999999993,-0.10566478698691958
0.03139999999999993,-0.10615993594187234
0.030399999999999927,-0.10661264355782916
0.029399999999999926,-0.10705120406078733
0.028399999999999925,-0.1075463530157401
0.027399999999999924,-0.10797076640569962
0.026399999999999924,-0.10845176824765372
0.025399999999999923,-0.10891862297660918
0.024399999999999922,-0.1093430363665687
0.02339999999999992,-0.1098240382085228
0.02239999999999992,-0.11026259871148097
0.02139999999999992,-0.11072945344043642
0.020399999999999918,-0.11113971971739729
0.019399999999999917,-0.11154998599435814
0.018399999999999916,-0.1120168407233136
0.017399999999999916,-0.11244125411327312
0.016399999999999915,-0.11286566750323263
0.015399999999999914,-0.11329008089319213
0.014399999999999913,-0.113700347170153
0.013399999999999912,-0.11413890767311115
0.012399999999999911,-0.11454917395007203
0.01139999999999991,-0.11494529311403422
0.01039999999999991,-0.11536970650399375
0.009399999999999908,-0.11579411989395326
0.008399999999999908,-0.11623268039691143
0.007399999999999907,-0.11664294667387226
0.006399999999999906,-0.11705321295083315
0.005399999999999905,-0.11744933211479533
0.004399999999999904,-0.11783130416575889
0.003399999999999903,-0.11821327621672245
0.002399999999999902,-0.11860939538068467
0.0013999999999999013,-0.11901966165764555
0.00039999999999990044,-0.1194016337086091
-0.0006000000000001005,-0.11978360575957266
-0.0016000000000001013,-0.12016557781053622
-0.0026000000000001022,-0.12053340274850113
-0.003600000000000103,-0.12088708057346739
-0.004600000000000104,-0.12124075839843364
-0.005600000000000105,-0.1216227304493972
-0.006600000000000106,-0.12194811404836617
-0.007600000000000107,-0.12227349764733512
-0.008600000000000108,-0.12265546969829867
-0.009600000000000108,-0.12296670618426901
-0.01060000000000011,-0.12329208978323794
-0.01160000000000011,-0.12367406183420152
-0.012600000000000111,-0.12405603388516506
-0.013600000000000112,-0.12439556459713268
-0.014600000000000113,-0.12470680108310296
-0.015600000000000114,-0.12504633179507058
-0.016600000000000115,-0.1254141567330355
-0.017600000000000116,-0.12571124610600715
-0.018600000000000116,-0.12602248259197746
-0.019600000000000117,-0.126404454642941
-0.020600000000000118,-0.12671569112891135
-0.02160000000000012,-0.12702692761488163
-0.02260000000000012,-0.12732401698785328
-0.02360000000000012,-0.12762110636082497
-0.024600000000000122,-0.12791819573379665
-0.025600000000000123,-0.12821528510676827
-0.026600000000000124,-0.12851237447973993
-0.027600000000000124,-0.1287811696267143
-0.028600000000000125,-0.12904996477368866
-0.029600000000000126,-0.12933290703366165
-0.030600000000000127,-0.129601702180636
-0.03160000000000013,-0.12989879155360767
-0.03260000000000013,-0.13018173381358067
-0.03360000000000013,-0.1304646760735537
-0.03460000000000002,-0.13076176544652532
-0.03560000000000002,-0.1310022663675024
-0.03660000000000002,-0.1312852086274754
-0.03760000000000002,-0.13155400377444976
-0.03860000000000002,-0.1318086518084255
-0.039600000000000024,-0.13206329984240117
-0.040600000000000025,-0.1322896536503796
-0.041600000000000026,-0.1324877132323607
-0.04260000000000003,-0.1327140670403391
-0.04360000000000003,-0.1329404208483175
-0.04460000000000003,-0.13315262754329726
-0.04560000000000003,-0.133364834238277
-0.04660000000000003,-0.13357704093325676
-0.04760000000000003,-0.13380339474123515
-0.04860000000000003,-0.13404389566221223
-0.04960000000000003,-0.13419951390519738
-0.050600000000000034,-0.13441172060017711
-0.051600000000000035,-0.13463807440815556
-0.052600000000000036,-0.13480783976413932
-0.053600000000000037,-0.1349917522331218
-0.05460000000000004,-0.13520395892810155
-0.05560000000000004,-0.13540201851008268
-0.05660000000000004,-0.1356425194310597
-0.05760000000000004,-0.13584057901304084
-0.05860000000000004,-0.13602449148202328
-0.05960000000000004,-0.13622255106400438
-0.06060000000000004,-0.13634987508099222
-0.061600000000000044,-0.13651964043697606
-0.06260000000000004,-0.13666111156696256
-0.06360000000000005,-0.136845024035945
-0.06460000000000005,-0.1370147893919288
-0.06560000000000005,-0.13715626052191532
-0.06660000000000005,-0.13734017299089774
-0.06760000000000005,-0.13752408545988024
-0.06860000000000005,-0.13769385081586402
-0.06960000000000005,-0.13786361617184784
-0.07060000000000005,-0.1379909401888357
-0.07160000000000005,-0.1381324113188222
-0.07260000000000005,-0.13825973533581
-0.07360000000000005,-0.1384012064657965
-0.07460000000000006,-0.1385285304827844
-0.07560000000000006,-0.1386700016127709
-0.07660000000000006,-0.13882561985575606
-0.07760000000000006,-0.1389529438727439
-0.07860000000000006,-0.13910856211572906
-0.07960000000000006,-0.13920759190671964
-0.08060000000000006,-0.13933491592370748
-0.08160000000000006,-0.13943394571469803
-0.08260000000000006,-0.13956126973168587
-0.08360000000000006,-0.13971688797467102
-0.08460000000000006,-0.13983006487866023
-0.08560000000000006,-0.13995738889564807
-0.08660000000000007,-0.14009886002563457
-0.08760000000000007,-0.1401837427036265
-0.08860000000000007,-0.14033936094661165
-0.08960000000000007,-0.14042424362460354
-0.09060000000000007,-0.1404949791895968
-0.09160000000000007,-0.14062230320658464
-0.09260000000000007,-0.1407213329975752
-0.09360000000000007,-0.14084865701456303
-0.09460000000000007,-0.14089109835355904
-0.09560000000000007,-0.1410042752575482
-0.09660000000000007,-0.14110330504853877
-0.09760000000000008,-0.14118818772653066
-0.09860000000000008,-0.14128721751752119
-0.09960000000000008,-0.14141454153450908
-0.10060000000000008,-0.14145698287350503
-0.10160000000000008,-0.14161260111649018
-0.10260000000000008,-0.14175407224647668
-0.10360000000000008,-0.14175407224647668
-0.10460000000000008,-0.14189554337646318
-0.10560000000000008,-0.14189554337646318
-0.10660000000000008,-0.1420370145064497
-0.10760000000000008,-0.1421784856364362
-0.10860000000000009,-0.1421784856364362
-0.10960000000000009,-0.1423199567664227
-0.11060000000000009,-0.1424614278964092
-0.11160000000000009,-0.1424614278964092
-0.11260000000000009,-0.1426028990263957
-0.11360000000000009,-0.1427443701563822
-0.11460000000000009,-0.1427443701563822
-0.11560000000000009,-0.1428858412863687
-0.11660000000000009,-0.14302731241635522
-0.1176000000000001,-0.14316878354634172
-0.1186000000000001,-0.14316878354634172
-0.1196000000000001,-0.1433102546763282
-0.1206000000000001,-0.1434517258063147
-0.1216000000000001,-0.1434517258063147
-0.1226000000000001,-0.1435931969363012
-0.1236000000000001,-0.1437346680662877
-0.1246000000000001,-0.14387613919627423
-0.1256000000000001,-0.14387613919627423
-0.1266000000000001,-0.14401761032626076
-0.1276000000000001,-0.14415908145624726
-0.1286000000000001,-0.14430055258623375
-0.1296000000000001,-0.14430055258623375
-0.1306000000000001,-0.14444202371622025
-0.1316000000000001,-0.14458349484620675
-0.1326000000000001,-0.14472496597619325
-0.1336000000000001,-0.14486643710617977
-0.1346000000000001,-0.14486643710617977
-0.1356000000000001,-0.14500790823616627
-0.1366000000000001,-0.14514937936615277
-0.1376000000000001,-0.14514937936615277
-0.1386000000000001,-0.14529085049613927
-0.1396000000000001,-0.14543232162612577
-0.1406000000000001,-0.14557379275611226
-0.14160000000000011,-0.14557379275611226
-0.14260000000000012,-0.14571526388609876
-0.14360000000000012,-0.1458567350160853
-0.14460000000000012,-0.14599820614607179
-0.14560000000000012,-0.14599820614607179
-0.14660000000000012,-0.14613967727605828
-0.14760000000000012,-0.14628114840604478
-0.14860000000000012,-0.14642261953603128
-0.14960000000000012,-0.1465640906660178
-0.15060000000000012,-0.1465640906660178
-0.15160000000000012,-0.1467055617960043
-0.15260000000000012,-0.14684703292599083
-0.15360000000000013,-0.14698850405597733
-0.15460000000000013,-0.14712997518596382
-0.15560000000000013,-0.14727144631595032
-0.15660000000000013,-0.14741291744593682
-0.15760000000000013,-0.14755438857592332
-0.15860000000000013,-0.14769585970590982
-0.15960000000000002,-0.14783733083589634
-0.16060000000000002,-0.14797880196588284
-0.16160000000000002,-0.14797880196588284
-0.16260000000000002,-0.14812027309586934
-0.16360000000000002,-0.14826174422585583
-0.16460000000000002,-0.14840321535584233
-0.16560000000000002,-0.14854468648582883
-0.16660000000000003,-0.14868615761581536
-0.16760000000000003,-0.14868615761581536
-0.16860000000000003,-0.14882762874580185
-0.16960000000000003,-0.14896909987578838
-0.17060000000000003,-0.14911057100577488
-0.17160000000000003,-0.14925204213576138
-0.17260000000000003,-0.14925204213576138
-0.17360000000000003,-0.14939351326574787
-0.17460000000000003,-0.14953498439573437
-0.17560000000000003,-0.1496764555257209
-0.17660000000000003,-0.1498179266557074
-0.17760000000000004,-0.1498179266557074
-0.17860000000000004,-0.1499593977856939
-0.17960000000000004,-0.1501008689156804
-0.18060000000000004,-0.1502423400456669
-0.18160000000000004,-0.1503838111756534
-0.18260000000000004,-0.15052528230563988
-0.18360000000000004,-0.1506667534356264
-0.18460000000000004,-0.1506667534356264
-0.18560000000000004,-0.1508082245656129
-0.18660000000000004,-0.1509496956955994
-0.18760000000000004,-0.1510911668255859
-0.18860000000000005,-0.1510911668255859
-0.18960000000000005,-0.1512326379555724
-0.19060000000000005,-0.1512326379555724
-0.19160000000000005,-0.1513741090855589
-0.19260000000000005,-0.15151558021554543
-0.19360000000000005,-0.15165705134553195
-0.19460000000000005,-0.15165705134553195
-0.19560000000000005,-0.15179852247551845
-0.19660000000000005,-0.15179852247551845
-0.19760000000000005,-0.15193999360550495
-0.19860000000000005,-0.15193999360550495
-0.19960000000000006,-0.15193999360550495
-0.20060000000000006,-0.15208146473549145
-0.20160000000000006,-0.15208146473549145
-0.20260000000000006,-0.15222293586547794
-0.20360000000000006,-0.15236440699546444
-0.20460000000000006,-0.15236440699546444
-0.20560000000000006,-0.15250587812545094
-0.20660000000000006,-0.15250587812545094
-0.20760000000000006,-0.15264734925543746
-0.20860000000000006,-0.15264734925543746
-0.20960000000000006,-0.15264734925543746
-0.21060000000000006,-0.15278882038542396
-0.21160000000000007,-0.15278882038542396
-0.21260000000000007,-0.15278882038542396
-0.21360000000000007,-0.15278882038542396
-0.21460000000000007,-0.15293029151541046
-0.21560000000000007,-0.15293029151541046
-0.21660000000000007,-0.15307176264539696
-0.21760000000000007,-0.15307176264539696
-0.21860000000000007,-0.15307176264539696
-0.21960000000000007,-0.15307176264539696
-0.22060000000000007,-0.15307176264539696
-0.22160000000000007,-0.15321323377538346
-0.22260000000000008,-0.15321323377538346
-0.22360000000000008,-0.15321323377538346
-0.22460000000000008,-0.15335470490536995
-0.22560000000000008,-0.15335470490536995
-0.22660000000000008,-0.15335470490536995
-0.22760000000000008,-0.15335470490536995
-0.22860000000000008,-0.15335470490536995
-0.22960000000000008,-0.15349617603535648
-0.23060000000000008,-0.15349617603535648
-0.23160000000000008,-0.15349617603535648
-0.23260000000000008,-0.15349617603535648
-0.23360000000000009,-0.15363764716534298
-0.2346000000000001,-0.15363764716534298
-0.2356000000000001,-0.15377911829532948
-0.2366000000000001,-0.15377911829532948
-0.2376000000000001,-0.15377911829532948
-0.2386000000000001,-0.15392058942531597
-0.2396000000000001,-0.1540620605553025
-0.2406000000000001,-0.1540620605553025
-0.2416000000000001,-0.154203531685289
-0.2426000000000001,-0.154203531685289
-0.2436000000000001,-0.1543450028152755
-0.2446000000000001,-0.1543450028152755
-0.2456000000000001,-0.1543450028152755
-0.2466000000000001,-0.15448647394526202
-0.2476000000000001,-0.15448647394526202
-0.2486000000000001,-0.15462794507524852
-0.2496000000000001,-0.15462794507524852
-0.2506000000000001,-0.15476941620523502
-0.2516000000000001,-0.15491088733522151
-0.2526000000000001,-0.155052358465208
-0.2536000000000001,-0.1551938295951945
-0.2546000000000001,-0.155335300725181
-0.2556000000000001,-0.155335300725181
-0.2566000000000001,-0.15561824298515403
-0.2576000000000001,-0.15575971411514053
-0.2586000000000001,-0.15590118524512703
-0.2596000000000001,-0.15604265637511353
-0.2606000000000001,-0.15618412750510002
-0.2616000000000001,-0.15632559863508652
-0.2626000000000001,-0.15660854089505957
-0.2636000000000001,-0.15675001202504607
-0.2646000000000001,-0.15689148315503257
-0.2656000000000001,-0.15717442541500556
-0.2666000000000001,-0.15731589654499206
-0.2676000000000001,-0.15759883880496509
-0.2686000000000001,-0.15788178106493808
-0.2696000000000001,-0.15816472332491108
-0.2706000000000001,-0.1583061944548976
-0.2716000000000001,-0.1585891367148706
-0.2726000000000001,-0.1588720789748436
-0.2736000000000001,-0.15915502123481662
-0.2746000000000001,-0.15943796349478964
-0.2756000000000001,-0.15972090575476264
-0.2766000000000001,-0.16014531914472213
-0.2776000000000001,-0.16042826140469515
-0.2786000000000001,-0.16071120366466815
-0.2796000000000001,-0.16113561705462764
-0.2806000000000001,-0.1615600304445872
-0.28160000000000013,-0.1618429727045602
-0.28260000000000013,-0.1622673860945197
-0.28360000000000013,-0.1626917994844792
-0.2846,-0.16311621287443873
-0.2856,-0.16354062626439822
-0.2866,-0.16396503965435774
-0.2876,-0.16438945304431726
-0.2886,-0.16481386643427676
-0.2896,-0.16537975095422278
-0.2906,-0.1658041643441823
-0.2916,-0.16637004886412832
-0.2926,-0.1669359333840743
-0.2936,-0.16750181790402036
-0.29460000000000003,-0.16806770242396638
-0.29560000000000003,-0.16863358694391237
-0.29660000000000003,-0.16919947146385841
-0.29760000000000003,-0.1697653559838044
-0.29860000000000003,-0.17033124050375043
-0.29960000000000003,-0.17089712502369644
-0.30060000000000003,-0.17160448067362896
-0.30160000000000003,-0.17217036519357498
-0.30260000000000004,-0.1728777208435075
-0.30360000000000004,-0.1737265476234265
-0.30460000000000004,-0.17443390327335903
-0.30560000000000004,-0.17514125892329155
-0.30660000000000004,-0.17599008570321056
-0.30760000000000004,-0.1768389124831296
-0.30860000000000004,-0.17768773926304862
-0.30960000000000004,-0.17853656604296764
-0.31060000000000004,-0.17924392169290015
-0.31160000000000004,-0.18023421960280567
-0.31260000000000004,-0.18108304638272468
-0.31360000000000005,-0.18207334429263022
-0.31460000000000005,-0.18306364220253574
-0.31560000000000005,-0.18405394011244128
-0.31660000000000005,-0.1849027668923603
-0.31760000000000005,-0.1858930648022658
-0.31860000000000005,-0.18702483384215784
-0.31960000000000005,-0.18801513175206336
-0.32060000000000005,-0.18914690079195542
-0.32160000000000005,-0.19013719870186094
-0.32260000000000005,-0.19141043887173945
-0.32360000000000005,-0.192400736781645
-0.32460000000000006,-0.193532505821537
-0.32560000000000006,-0.19466427486142904
-0.32660000000000006,-0.19593751503130757
-0.32760000000000006,-0.1972107552011861
-0.32860000000000006,-0.19848399537106462
-0.32960000000000006,-0.19975723554094318
-0.33060000000000006,-0.2010304757108217
-0.33160000000000006,-0.20230371588070023
-0.33260000000000006,-0.2037184271805653
-0.33360000000000006,-0.20513313848043033
-0.33460000000000006,-0.2065478497802954
-0.33560000000000006,-0.2079625610801604
-0.33660000000000007,-0.20937727238002546
-0.33760000000000007,-0.21093345480987696
-0.33860000000000007,-0.21234816610974203
-0.33960000000000007,-0.21390434853959353
-0.34060000000000007,-0.2156020020994316
-0.34160000000000007,-0.21701671339929662
-0.34260000000000007,-0.21871436695913468
-0.34360000000000007,-0.2202705493889862
-0.3446000000000001,-0.22196820294882427
-0.3456000000000001,-0.22366585650866228
-0.3466000000000001,-0.22522203893851384
-0.34759999999999996,-0.22691969249835187
-0.3486000000000001,-0.22875881718817642
-0.34959999999999997,-0.23045647074801448
-0.3506000000000001,-0.2321541243078525
-0.35159999999999997,-0.23399324899767707
-0.3526000000000001,-0.2356909025575151
-0.35359999999999997,-0.23753002724733965
-0.3546000000000001,-0.2393691519371642
-0.35559999999999997,-0.24120827662698877
-0.3566000000000001,-0.24304740131681332
-0.3576,-0.24488652600663782
-0.3586000000000001,-0.24672565069646235
-0.3596,-0.24870624651627343
-0.3606000000000001,-0.250545371206098
-0.3616,-0.2523844958959225
-0.3626000000000001,-0.2540821494557606
-0.3636,-0.2560627452755716
-0.3646000000000001,-0.2580433410953827
-0.3656,-0.26002393691519377
-0.3666000000000001,-0.2621460038649913
-0.3676,-0.26426807081478887
-0.3686000000000001,-0.2663901377645864
-0.3696,-0.26851220471438403
-0.3706000000000001,-0.27077574279416805
-0.3716,-0.2728978097439656
-0.3726000000000001,-0.27501987669376315
-0.3736,-0.2772834147735472
-0.3746000000000001,-0.27940548172334473
-0.3756,-0.2816690198031288
-0.3766000000000001,-0.2839325578829129
-0.3776,-0.28633756709268343
-0.3786000000000001,-0.288742576302454
-0.3796,-0.2911475855122245
-0.3806000000000001,-0.29355259472199513
-0.3816,-0.2960990750617522
-0.3826000000000001,-0.29850408427152275
-0.3836,-0.30105056461127977
-0.3846000000000001,-0.3035970449510369
-0.3856,-0.3061435252907939
-0.3866000000000001,-0.308690005630551
-0.3876,-0.31123648597030806
-0.3886000000000001,-0.31378296631006514
-0.3896,-0.31632944664982215
-0.3906000000000001,-0.3188759269895793
-0.3916,-0.3215638784593228
-0.3926000000000001,-0.32411035879907985
-0.3936,-0.326656839138837
-0.3946000000000001,-0.3290618483486075
-0.3956,-0.3316083286883646
-0.3966000000000001,-0.3341548090281217
-0.3976,-0.33655981823789227
-0.3986000000000001,-0.3389648274476628
-0.3996,-0.34136983665743337
-0.4006000000000001,-0.34391631699719044
-0.4016,-0.346038383946988
-0.4026000000000001,-0.34830192202677207
-0.4036,-0.3505654601065561
-0.4046000000000001,-0.35268752705635364
-0.4056,-0.35495106513613767
-0.40660000000000013,-0.35693166095594875
-0.4076,-0.3587707856457733
-0.40860000000000013,-0.36075138146558433
-0.4096,-0.3625905061554089
-0.41060000000000013,-0.3642881597152469
-0.4116,-0.365985813275085
-0.41260000000000013,-0.3672590534449635
-0.4136,-0.3688152358748151
-0.41460000000000014,-0.37022994717468005
-0.4156,-0.3715031873445586
-0.41660000000000014,-0.37291789864442365
-0.4176,-0.37419113881430216
-0.41860000000000014,-0.3753229078541942
-0.41960000000000003,-0.37659614802407276
-0.42060000000000014,-0.37786938819395127
-0.42160000000000003,-0.3790011572338433
-0.42260000000000014,-0.38013292627373535
-0.42360000000000003,-0.3809817530536544
-0.42460000000000014,-0.38197205096355985
-0.42560000000000003,-0.3829623488734654
-0.42660000000000015,-0.383952646783371
-0.42760000000000004,-0.38494294469327645
-0.42860000000000015,-0.3857917714731955
-0.42960000000000004,-0.38664059825311453
-0.43060000000000015,-0.387347953903047
-0.43160000000000004,-0.3881967806829661
-0.43260000000000015,-0.3890456074628851
-0.43360000000000004,-0.38961149198283107
-0.43460000000000015,-0.3901773765027771
-0.43560000000000004,-0.39088473215270964
-0.43660000000000015,-0.3915920878026421
-0.43760000000000004,-0.39215797232258814
-0.43860000000000016,-0.39272385684253414
-0.43960000000000005,-0.39314827023249366
