Potential V vs RHE, Current mA cm-2
0.013299999999999867,14.65640906660178
0.012299999999999978,12.341941380022579
0.011299999999999866,10.292024706518141
0.010299999999999976,8.416117522897103
0.009299999999999864,6.671778490163514
0.008299999999999974,4.9698807964258735
0.007299999999999862,3.313253864283916
0.006299999999999972,1.7867803717295414
0.00529999999999986,0.2594580523952477
0.0042999999999999705,-1.1798692240874404
0.0032999999999998586,-2.576189277054232
0.0022999999999999687,-3.884797229429391
0.0012999999999998568,-5.149549131508733
0.00029999999999996696,-6.414301033588076
-0.000700000000000145,-7.635196885371603
-0.0017000000000000348,-8.899948787450944
-0.0027000000000001467,-10.120844639234473
-0.0037000000000000366,-11.385596541313816
-0.0047000000000001485,-12.56405105410139
-0.005700000000000038,-13.698649516593148
-0.00670000000000015,-14.783733083589633
-0.00770000000000004,-15.87306078448571
-0.008700000000000152,-16.919947146385837
-0.009700000000000042,-17.924392169290012
-0.010700000000000154,-18.92883719219419
-0.011700000000000044,-19.97572355409432
-0.012700000000000156,-20.980168576998494
-0.013700000000000045,-21.98461359990267
-0.014700000000000157,-22.989058622806844
-0.015700000000000047,-23.951062306715073
-0.01670000000000016,-24.870624651627345
-0.01770000000000005,-25.81848122253692
-0.01870000000000016,-26.738043567449193
-0.01970000000000005,-27.65760591236147
-0.020700000000000163,-28.53472691827779
-0.021700000000000053,-29.482583489187363
-0.022700000000000164,-30.444587173095588
-0.023700000000000054,-31.36414951800786
-0.024700000000000166,-32.283711862920136
-0.025700000000000056,-33.14668575583781
-0.026700000000000168,-34.02380676175414
-0.027700000000000058,-34.90092776767045
-0.02870000000000017,-35.679018982596226
-0.02970000000000006,-36.5136986495166
-0.03070000000000017,-37.376672542434264
-0.03170000000000006,-38.253793548350586
-0.03270000000000017,-39.173355893262865
-0.03370000000000006,-40.03632978618054
-0.034700000000000175,-40.99833347008877
-0.035700000000000065,-41.91789581500104
-0.03670000000000018,-42.79501682091736
-0.03770000000000007,-43.61554937483908
-0.03870000000000018,-44.45022904175945
-0.03970000000000007,-45.27076159568118
-0.04070000000000018,-46.147882601597495
-0.04170000000000007,-47.02500360751382
-0.04270000000000018,-47.84553616143554
-0.04370000000000007,-48.76509850634781
-0.044700000000000184,-49.642219512264134
-0.045700000000000074,-50.50519340518181
-0.046700000000000186,-51.29743173310623
-0.047700000000000076,-52.075522948032
-0.04870000000000019,-52.86776127595642
-0.04970000000000008,-53.64585249088219
-0.05070000000000019,-54.43809081880661
-0.05170000000000008,-55.25862337272834
-0.05270000000000019,-56.093303039648696
-0.05370000000000008,-56.97042404556503
-0.05470000000000019,-57.8333979384827
-0.05570000000000008,-58.66807760540307
-0.056700000000000195,-59.502757272323436
-0.057700000000000085,-60.32328982624517
-0.058700000000000196,-61.11552815416958
-0.059700000000000086,-61.97850204708726
-0.0607000000000002,-62.81318171400764
-0.06170000000000009,-63.6761556069253
-0.0627000000000002,-64.59571795183757
-0.06370000000000009,-65.4728389577539
-0.0647000000000002,-66.29337151167562
-0.06570000000000009,-67.21293385658788
-0.0667000000000002,-68.04761352350828
-0.0677000000000001,-68.91058741642594
-0.0687000000000002,-69.8301497613382
-0.0697000000000001,-70.74971210625048
-0.07070000000000021,-71.66927445116276
-0.0717000000000001,-72.67371947406694
-0.07270000000000021,-73.6781644969711
-0.0737000000000001,-74.66846240687663
-0.07470000000000021,-75.63046609078486
-0.0757000000000001,-76.50758709670117
-0.07670000000000021,-77.34226676362155
-0.0777000000000001,-78.12035797854733
-0.07870000000000021,-78.9550376454677
-0.0797000000000001,-79.81801153838538
-0.08070000000000022,-80.69513254430169
-0.0817000000000001,-81.57225355021802
-0.08270000000000022,-82.43522744313569
-0.08370000000000011,-83.31234844905201
-0.08470000000000022,-84.13288100297372
-0.08570000000000011,-84.92511933089816
-0.08670000000000022,-85.70321054582392
-0.08770000000000011,-86.45300753475239
-0.08870000000000022,-87.27354008867411
-0.08970000000000011,-88.10821975559449
-0.09070000000000022,-89.02778210050676
-0.09170000000000011,-89.94734444541903
-0.09270000000000023,-90.81031833833671
-0.09370000000000012,-91.72988068324898
-0.09470000000000023,-92.6070016891653
-0.09570000000000012,-93.55485826007487
-0.09670000000000023,-94.47442060498715
-0.09770000000000012,-95.39398294989942
-0.09870000000000023,-96.35598663380765
-0.09970000000000012,-97.31799031771587
-0.10070000000000023,-98.26584688862545
-0.10170000000000012,-99.27029191152963
-0.10270000000000024,-100.35961961242569
-0.10370000000000013,-101.40650597432582
-0.10470000000000024,-102.4958336752219
-0.10570000000000013,-103.54272003712204
-0.10670000000000024,-104.46228238203432
-0.10770000000000013,-105.42428606594254
-0.10870000000000024,-106.30140707185885
-0.10970000000000013,-107.16438096477653
-0.11070000000000024,-108.04150197069285
-0.11170000000000013,-109.00350565460108
-0.11270000000000002,-109.9655093385093
-0.11370000000000013,-110.92751302241753
-0.11470000000000002,-111.83292825433115
-0.11570000000000014,-112.66760792125153
-0.11670000000000003,-113.40325779718134
-0.11770000000000014,-114.23793746410173
-0.11870000000000003,-115.10091135701937
-0.11970000000000014,-116.02047370193165
-0.12070000000000003,-117.06736006383179
-0.12170000000000014,-118.11424642573192
-0.12270000000000003,-119.20357412662798
-0.12370000000000014,-120.25046048852812
-0.12470000000000003,-121.33978818942418
-0.12570000000000014,-122.38667455132433
-0.12670000000000003,-123.4760022522204
-0.12770000000000015,-124.48044727512458
-0.12870000000000004,-125.40000962003687
-0.12970000000000015,-126.14980660896532
-0.13070000000000004,-126.80057380690324
-0.13170000000000015,-127.4937823438371
-0.13270000000000004,-128.18699088077096
-0.13370000000000015,-128.9792292086954
-0.13470000000000004,-129.9412328926036
-0.13570000000000015,-130.9456779155078
-0.13670000000000004,-131.95012293841197
-0.13770000000000016,-132.9404208483175
-0.13870000000000005,-133.90242453222572
-0.13970000000000016,-134.9068695551299
-0.14070000000000005,-135.86887323903812
-0.14170000000000016,-136.91575960093826
-0.14270000000000005,-137.9626459628384
-0.14370000000000016,-138.96709098574257
-0.14470000000000005,-139.97153600864672
-0.14570000000000016,-140.93353969255494
-0.14670000000000005,-141.75407224647665
-0.14770000000000016,-142.7443701563822
-0.14870000000000005,-143.5931969363012
-0.14970000000000017,-144.58349484620675
-0.15070000000000006,-145.57379275611228
-0.15170000000000017,-146.7055617960043
-0.15270000000000006,-147.83733083589632
-0.15370000000000017,-149.1105710057749
-0.15470000000000006,-150.1008689156804
-0.15570000000000017,-151.23263795557244
-0.15670000000000006,-152.22293586547795
-0.15770000000000017,-153.21323377538346
-0.15870000000000006,-154.3450028152755
-0.15970000000000018,-155.47677185516753
-0.16070000000000007,-156.46706976507306
-0.16170000000000018,-157.59883880496508
-0.16270000000000007,-158.4476655848841
-0.16370000000000018,-159.43796349478964
-0.16470000000000007,-160.14531914472215
-0.16570000000000018,-160.8526747946547
-0.16670000000000007,-161.41855931460069
-0.16770000000000018,-162.12591496453322
-0.16870000000000007,-162.6917994844792
-0.16970000000000018,-163.39915513441173
-0.17070000000000007,-164.10651078434424
-0.17170000000000019,-164.9553375642633
-0.17270000000000008,-166.0871066041553
-0.1737000000000002,-167.07740451406085
-0.17470000000000008,-168.35064468393938
-0.1757000000000002,-169.48241372383137
-0.17670000000000008,-170.61418276372342
-0.1777000000000002,-171.60448067362896
-0.17870000000000008,-172.59477858353446
-0.1797000000000002,-173.58507649344
-0.18070000000000008,-174.43390327335902
-0.1817000000000002,-175.42420118326456
-0.18270000000000008,-176.27302796318358
-0.1837000000000002,-177.1218547431026
-0.1847000000000001,-177.9706815230216
-0.1857000000000002,-178.81950830294062
-0.1867000000000001,-179.52686395287316
-0.1877000000000002,-180.37569073279218
-0.1887000000000001,-181.08304638272472
-0.1897000000000002,-182.07334429263022
-0.1907000000000001,-182.92217107254925
-0.1917000000000001,-183.91246898245475
-0.19269999999999998,-184.9027668923603
-0.1937000000000001,-186.03453593225234
-0.19469999999999998,-186.88336271217133
-0.1957000000000001,-188.01513175206335
-0.19669999999999999,-189.1469007919554
-0.1977000000000001,-190.13719870186094
-0.1987,-190.98602548177996
-0.1997000000000001,-191.83485226169896
-0.2007,-192.683679041618
-0.2017000000000001,-193.3910346915505
-0.2027,-194.2398614714695
-0.2037000000000001,-195.08868825138856
-0.2047,-195.93751503130758
-0.2057000000000001,-196.6448706812401
-0.2067,-197.49369746115914
-0.2077000000000001,-198.20105311109162
-0.2087,-199.04987989101065
-0.2097000000000001,-199.75723554094319
-0.2107,-200.7475334508487
-0.2117000000000001,-201.73783136075423
-0.2127,-202.86960040064628
-0.2137000000000001,-203.71842718056527
-0.2147,-204.7087250904708
-0.2157000000000001,-205.55755187038983
-0.2167,-206.40637865030885
-0.21770000000000012,-207.25520543022787
-0.2187,-208.52844560010638
-0.21970000000000012,-209.66021463999843
-0.2207,-210.65051254990397
-0.22170000000000012,-211.499339329823
-0.2227,-212.34816610974204
-0.22370000000000012,-213.33846401964755
-0.2247,-214.32876192955305
-0.22570000000000012,-215.4605309694451
-0.2267,-216.73377113932364
-0.22770000000000012,-217.86554017921566
-0.22870000000000001,-218.99730921910768
-0.22970000000000013,-219.8461359990267
-0.23070000000000002,-220.41202051897272
-0.23170000000000013,-220.83643390893224
-0.23270000000000002,-221.40231842887826
-0.23370000000000013,-222.10967407881074
-0.23470000000000002,-222.81702972874328
-0.23570000000000013,-223.52438537867582
-0.23670000000000002,-224.2317410286083
-0.2376999999999999,-224.79762554855435
-0.23870000000000002,-225.22203893851383
-0.2396999999999999,-225.78792345845983
-0.24070000000000003,-226.49527910839237
-0.24169999999999991,-227.4855770182979
-0.24270000000000003,-228.61734605818995
-0.24369999999999992,-229.74911509808197
-0.24470000000000003,-230.7394130079875
-0.24569999999999992,-231.5882397879065
-0.24670000000000003,-232.29559543783904
-0.24769999999999992,-232.86147995778504
-0.24870000000000003,-233.56883560771757
-0.24969999999999992,-234.27619125765005
-0.25070000000000003,-234.9835469075826
-0.2516999999999999,-235.69090255751513
-0.25270000000000004,-236.53972933743412
-0.2536999999999999,-237.38855611735315
-0.25470000000000004,-238.2373828972722
-0.2556999999999999,-238.94473854720468
-0.25670000000000004,-239.65209419713722
-0.25769999999999993,-240.50092097705624
-0.25870000000000004,-241.20827662698875
-0.25969999999999993,-241.9156322769213
-0.26070000000000004,-242.62298792685377
-0.26169999999999993,-243.47181470677282
-0.26270000000000004,-244.17917035670533
-0.26369999999999993,-245.02799713662432
-0.26470000000000005,-246.01829504652986
-0.26569999999999994,-247.0085929564354
-0.26670000000000005,-247.99889086634093
-0.26769999999999994,-248.9891887762465
-0.26870000000000005,-249.83801555616546
-0.26969999999999994,-250.6868423360845
-0.27070000000000005,-251.53566911600356
-0.27169999999999994,-252.38449589592256
-0.27270000000000005,-253.37479380582806
-0.27369999999999994,-254.2236205857471
-0.27470000000000006,-254.78950510569314
-0.27569999999999995,-255.49686075562562
-0.27670000000000006,-256.0627452755717
-0.27769999999999995,-256.62862979551767
-0.27870000000000006,-257.33598544545015
-0.27969999999999995,-257.90186996539614
-0.28070000000000006,-258.7506967453152
-0.28169999999999995,-259.3165812652612
-0.28270000000000006,-260.02393691519376
-0.28369999999999995,-260.58982143513975
-0.28470000000000006,-261.2971770850723
-0.28569999999999995,-262.1460038649913
-0.28670000000000007,-262.9948306449103
-0.28769999999999996,-264.2680708147888
-0.28870000000000007,-265.2583687246944
-0.28969999999999996,-266.2486666345999
-0.29070000000000007,-267.09749341451896
-0.29169999999999996,-267.94632019443793
-0.29270000000000007,-268.79514697435695
-0.29369999999999996,-269.361031494303
-0.2947000000000001,-269.78544488426246
-0.29569999999999996,-270.20985827422203
-0.2967000000000001,-270.49280053419506
-0.29769999999999996,-270.9172139241545
-0.2987000000000001,-271.7660407040736
-0.29969999999999997,-273.3222231339251
-0.3007000000000001,-275.1613478237496
-0.30169999999999997,-276.8590013835877
-0.3027000000000001,-277.9907704234797
-0.30369999999999997,-278.4151838134392
-0.3047000000000001,-278.4151838134392
-0.30569999999999997,-278.1322415534662
-0.3067000000000001,-277.9907704234797
-0.3077,-277.9907704234797
-0.3087000000000001,-278.5566549434257
-0.3097,-279.26401059335825
-0.3107000000000001,-280.25430850326376
-0.3117,-281.52754867314235
-0.3127000000000001,-282.9422599730073
-0.3137,-284.63991353284536
-0.3147000000000001,-286.196095962697
-0.3157,-287.610807262562
-0.3167000000000001,-288.6011051724675
-0.3177,-289.3084608224
-0.3187000000000001,-289.73287421235955
-0.3197,-290.0158164723325
-0.3207000000000001,-290.157287602319
-0.3217,-290.29875873230554
-0.3227000000000001,-290.5817009922785
-0.3237,-291.28905664221105
-0.3247000000000001,-291.9964122921436
-0.3257,-292.70376794207607
-0.3267000000000001,-293.1281813320356
-0.3277,-293.55259472199515
-0.3287000000000001,-293.8355369819681
-0.3297,-294.11847924194115
-0.3307000000000001,-294.54289263190066
-0.3317,-295.67466167179265
-0.3327000000000001,-296.80643071168464
-0.3337,-297.6552574916037
-0.3347000000000001,-298.2211420115498
-0.3357,-298.50408427152274
-0.3367000000000001,-299.06996879146874
-0.3377,-299.6358533114148
-0.3387000000000001,-300.48468009133376
-0.3397,-301.1920357412663
-0.3407000000000001,-301.33350687125284
-0.3417,-301.47497800123926
-0.3427000000000001,-301.7579202612123
-0.3437,-301.8993913911989
-0.3447000000000001,-302.0408625211853
-0.3457,-302.4652759111449
-0.3467000000000001,-303.0311604310908
-0.3477,-303.73851608102336
-0.3487000000000001,-304.5873428609424
-0.3497,-305.29469851087487
-0.3507000000000001,-306.28499642078043
-0.3517,-307.1338232006995
-0.3527000000000001,-308.2655922405915
-0.3537,-309.3973612804835
-0.3547000000000001,-310.6706014503621
-0.3557,-312.2267838802136
-0.35670000000000013,-313.6414951800786
-0.3577,-315.0562064799437
-0.35870000000000013,-316.04650438984913
-0.3597,-316.8953311697682
-0.36070000000000013,-317.46121568971427
-0.3617,-317.74415794968724
-0.3626999999999999,-318.02710020966026
-0.3637,-318.31004246963323
-0.3646999999999999,-318.73445585959274
-0.3657,-319.15886924955225
-0.3666999999999999,-319.30034037953874
-0.3677,-319.4418115095253
-0.3686999999999999,-319.58328263951176
-0.36970000000000003,-319.8662248994848
-0.3706999999999999,-320.1491671594578
-0.37170000000000003,-320.57358054941733
-0.3726999999999999,-321.1394650693634
-0.37370000000000003,-321.7053495893094
-0.3746999999999999,-321.98829184928235
-0.37570000000000003,-322.12976297926883
-0.3766999999999999,-322.2712341092554
-0.37770000000000004,-322.6956474992149
-0.3786999999999999,-322.97858975918786
-0.37970000000000004,-323.2615320191609
-0.3806999999999999,-323.5444742791339
-0.38170000000000004,-323.8274165391069
-0.38269999999999993,-323.9688876690934
-0.38370000000000004,-324.1103587990799
-0.38469999999999993,-324.67624331902596
-0.38570000000000004,-325.24212783897195
-0.38669999999999993,-325.94948348890443
-0.38770000000000004,-326.656839138837
-0.38869999999999993,-327.222723658783
-0.38970000000000005,-327.788608178729
-0.39069999999999994,-328.4959638286615
-0.39170000000000005,-329.20331947859404
-0.39269999999999994,-330.05214625851306
-0.39370000000000005,-330.7595019084456
-0.39469999999999994,-331.4668575583781
-0.39570000000000005,-331.89127094833765
-0.39669999999999994,-331.89127094833765
-0.39770000000000005,-331.74979981835105
-0.39869999999999994,-331.6083286883646
-0.39970000000000006,-331.6083286883646
-0.40069999999999995,-332.03274207832413
-0.40170000000000006,-332.59862659827013
-0.40269999999999995,-333.1645111182162
-0.40370000000000006,-333.7303956381621
-0.40469999999999995,-334.2962801581082
-0.40570000000000006,-335.00363580804066
-0.40669999999999995,-335.8524625879597
-0.40770000000000006,-336.70128936787876
-0.40869999999999995,-337.69158727778427
-0.40970000000000006,-338.5404140577033
-0.41069999999999995,-339.3892408376223
-0.41170000000000007,-339.8136542275818
-0.41269999999999996,-339.95512535756825
-0.41370000000000007,-339.95512535756825
-0.41469999999999996,-339.8136542275818
-0.41570000000000007,-339.6721830975953
-0.41669999999999996,-339.5307119676088
-0.41770000000000007,-339.3892408376223
-0.41869999999999996,-339.2477697076358
-0.4197000000000001,-339.1062985776493
-0.42069999999999996,-339.1062985776493
-0.4217000000000001,-339.1062985776493
-0.42269999999999996,-339.3892408376223
-0.4237000000000001,-339.8136542275818
-0.42469999999999997,-340.5210098775143
-0.4257000000000001,-340.5210098775143
-0.42669999999999997,-341.0868943974603
-0.4277000000000001,-341.51130778741987
-0.42869999999999997,-341.7942500473929
-0.4297000000000001,-341.9357211773794
-0.43069999999999997,-342.21866343735235
-0.4317000000000001,-342.21866343735235
-0.4327,-342.07719230736586
-0.4337000000000001,-342.21866343735235
-0.4347,-342.21866343735235
-0.4357000000000001,-342.3601345673389
-0.4367,-342.3601345673389
-0.4377000000000001,-342.64307682731186
-0.4387,-342.7845479572984
-0.4397000000000001,-343.06749021727137
-0.4407,-343.63337473721737
-0.4417000000000001,-344.1992592571634
-0.4427,-344.48220151713645
-0.4437000000000001,-345.04808603708244
-0.4447,-345.47249942704195
-0.4457000000000001,-346.03838394698795
-0.4467,-346.88721072690697
-0.4477000000000001,-347.45309524685297
-0.4487,-347.73603750682605
-0.4497000000000001,-347.73603750682605
-0.4507,-347.3116241168665
-0.4517000000000001,-346.604268466934
-0.4527,-345.6139705570285
-0.4537000000000001,-344.7651437771094
-0.4547,-344.34073038714996
-0.4557000000000001,-344.1992592571634
-0.4567,-344.1992592571634
-0.4577000000000001,-344.48220151713645
-0.4587,-345.1895571670689
-0.4597000000000001,-346.03838394698795
-0.4607,-347.17015298688
-0.4617000000000001,-348.16045089678556
-0.4627,-349.2922199366776
-0.4637000000000001,-350.2825178465831
-0.4647,-350.8484023665291
-0.4657000000000001,-350.98987349651554
-0.4667,-350.5654601065561
-0.4677000000000001,-350.1410467165966
-0.4687,-349.71663332663707
-0.4697000000000001,-349.5751621966506
-0.4707,-349.5751621966506
-0.4717000000000001,-349.9995755866101
-0.4727,-350.2825178465831
-0.4737000000000001,-350.8484023665291
-0.4747,-351.4142868864751
-0.4757000000000001,-352.26311366639413
-0.4767,-352.8289981863402
-0.4777000000000001,-352.9704693163266
-0.4787,-352.8289981863402
-0.4797000000000001,-352.68752705635364
-0.4807,-352.4045847963807
-0.48170000000000013,-352.1216425364076
-0.4827,-351.8387002764346
-0.48370000000000013,-351.8387002764346
-0.4847,-352.4045847963807
-0.48570000000000013,-353.11194044631316
-0.4867,-351.8387002764346
-0.48570000000000013,-347.3116241168665
-0.4847,-342.7845479572984
-0.48370000000000013,-338.5404140577033
-0.4827,-334.1548090281217
-0.48170000000000013,-330.05214625851306
-0.4807,-326.090954618891
-0.4797000000000001,-321.98829184928235
-0.4787,-318.02710020966026
-0.4777000000000001,-313.9244374400517
-0.4767,-310.10471693041603
-0.4757000000000001,-306.4264675507669
-0.4747,-302.88968930110434
-0.4737000000000001,-299.6358533114148
-0.4727,-296.6649595816982
-0.4717000000000001,-293.6940658519816
-0.4707,-290.44022986229203
-0.4697000000000001,-287.1863938726024
-0.4687,-283.64961562293985
-0.4677000000000001,-280.11283737327733
-0.4667,-276.7175302536012
-0.4657000000000001,-273.60516539389806
-0.4647,-270.775742794168
