Potential V vs RHE, Current mA cm-2
0.013299999999999867,-0.04582249900262853
0.012299999999999978,-1.5293029151541047
0.011299999999999866,-2.662486666345999
0.010299999999999976,-3.579219588658543
0.009299999999999864,-4.450681749375406
0.008299999999999974,-5.323558621392133
0.007299999999999862,-6.108723392817228
0.006299999999999972,-6.806176063650692
0.00529999999999986,-7.329619244600755
0.0042999999999999705,-7.722908985963235
0.0032999999999998586,-8.070927965730034
0.0022999999999999687,-8.464217707092514
0.0012999999999998568,-8.943804837746763
0.00029999999999996696,-9.379535918105192
-0.000700000000000145,-9.728969609171857
-0.0017000000000000348,-9.946835149351072
-0.0027000000000001467,-10.120844639234473
-0.0037000000000000366,-10.296268840417738
-0.0047000000000001485,-10.557990430892769
-0.005700000000000038,-10.863568071663616
-0.00670000000000015,-11.123874950838783
-0.00770000000000004,-11.299299152022046
-0.008700000000000152,-11.385596541313816
-0.009700000000000042,-11.42945259160963
-0.010700000000000154,-11.56102074249708
-0.011700000000000044,-11.778886282676295
-0.012700000000000156,-11.996751822855511
-0.013700000000000045,-12.214617363034726
-0.014700000000000157,-12.258473413330542
-0.015700000000000047,-12.302329463626359
-0.01670000000000016,-12.302329463626359
-0.01770000000000005,-12.390041564217992
-0.01870000000000016,-12.56405105410139
-0.01970000000000005,-12.73806054398479
-0.020700000000000163,-12.869628694872238
-0.021700000000000053,-12.869628694872238
-0.022700000000000164,-12.825772644576423
-0.023700000000000054,-12.825772644576423
-0.024700000000000166,-12.955926084164007
-0.025700000000000056,-13.13135028534727
-0.026700000000000168,-13.30535977523067
-0.027700000000000058,-13.349215825526485
-0.02870000000000017,-13.349215825526485
-0.02970000000000006,-13.261503724934855
-0.03070000000000017,-13.30535977523067
-0.03170000000000006,-13.436927926118118
-0.03270000000000017,-13.610937416001518
-0.03370000000000006,-13.741090855589102
-0.034700000000000175,-13.741090855589102
-0.035700000000000065,-13.698649516593148
-0.03670000000000018,-13.610937416001518
-0.03770000000000007,-13.698649516593148
-0.03870000000000018,-13.828802956180734
-0.03970000000000007,-14.002812446064135
-0.04070000000000018,-14.090524546655764
-0.04170000000000007,-14.046668496359947
-0.04270000000000018,-14.002812446064135
-0.04370000000000007,-14.046668496359947
-0.044700000000000184,-14.13438059695158
-0.045700000000000074,-14.26028990263957
-0.046700000000000186,-14.345172580631472
-0.047700000000000076,-14.345172580631472
-0.04870000000000019,-14.30273124163552
-0.04970000000000008,-14.26028990263957
-0.05070000000000019,-14.26028990263957
-0.05170000000000008,-14.345172580631472
-0.05270000000000019,-14.529085049613924
-0.05370000000000008,-14.61396772760583
-0.05470000000000019,-14.61396772760583
-0.05570000000000008,-14.529085049613924
-0.056700000000000195,-14.486643710617974
-0.057700000000000085,-14.486643710617974
-0.058700000000000196,-14.61396772760583
-0.059700000000000086,-14.741291744593681
-0.0607000000000002,-14.783733083589633
-0.06170000000000009,-14.783733083589633
-0.0627000000000002,-14.741291744593681
-0.06370000000000009,-14.69885040559773
-0.0647000000000002,-14.741291744593681
-0.06570000000000009,-14.868615761581536
-0.0667000000000002,-15.01008689156804
-0.0677000000000001,-15.05252823056399
-0.0687000000000002,-15.01008689156804
-0.0697000000000001,-14.967645552572087
-0.07070000000000021,-14.967645552572087
-0.0717000000000001,-15.094969569559943
-0.07270000000000021,-15.264734925543747
-0.0737000000000001,-15.349617603535648
-0.07470000000000021,-15.349617603535648
-0.0757000000000001,-15.307176264539699
-0.07670000000000021,-15.264734925543747
-0.0777000000000001,-15.264734925543747
-0.07870000000000021,-15.3920589425316
-0.0797000000000001,-15.533530072518102
-0.08070000000000022,-15.575971411514052
-0.0817000000000001,-15.533530072518102
-0.08270000000000022,-15.448647394526201
-0.08370000000000011,-15.448647394526201
-0.08470000000000022,-15.491088733522153
-0.08570000000000011,-15.618412750510005
-0.08670000000000022,-15.74573676749786
-0.08770000000000011,-15.78817810649381
-0.08870000000000022,-15.70329542850191
-0.08970000000000011,-15.660854089505953
-0.09070000000000022,-15.70329542850191
-0.09170000000000011,-15.830619445489761
-0.09270000000000023,-16.056973253468165
-0.09370000000000012,-16.184297270456018
-0.09470000000000023,-16.22673860945197
-0.09570000000000012,-16.141855931460068
-0.09670000000000023,-16.056973253468165
-0.09770000000000012,-16.099414592464115
-0.09870000000000023,-16.141855931460068
-0.09970000000000012,-16.269179948447924
-0.10070000000000023,-16.311621287443874
-0.10170000000000012,-16.22673860945197
-0.10270000000000024,-16.141855931460068
-0.10370000000000013,-16.014531914472215
-0.10470000000000024,-16.056973253468165
-0.10570000000000013,-16.141855931460068
-0.10670000000000024,-16.184297270456018
-0.10770000000000013,-16.22673860945197
-0.10870000000000024,-16.141855931460068
-0.10970000000000013,-16.056973253468165
-0.11070000000000024,-16.099414592464115
-0.11170000000000013,-16.269179948447924
-0.11270000000000002,-16.495533756426326
-0.11370000000000013,-16.665299112410132
-0.11470000000000002,-16.665299112410132
-0.11570000000000014,-16.665299112410132
-0.11670000000000003,-16.665299112410132
-0.11770000000000014,-16.70774045140608
-0.11870000000000003,-16.877505807389888
-0.11970000000000014,-17.018976937376394
-0.12070000000000003,-17.061418276372343
-0.12170000000000014,-17.061418276372343
-0.12270000000000003,-16.962388485381787
-0.12370000000000014,-16.962388485381787
-0.12470000000000003,-17.061418276372343
-0.12570000000000014,-17.146300954364243
-0.12670000000000003,-17.2736249713521
-0.12770000000000015,-17.2736249713521
-0.12870000000000004,-17.188742293360193
-0.12970000000000015,-17.103859615368293
-0.13070000000000004,-17.061418276372343
-0.13170000000000015,-17.146300954364243
-0.13270000000000004,-17.2736249713521
-0.13370000000000015,-17.358507649344002
-0.13470000000000004,-17.316066310348052
-0.13570000000000015,-17.231183632356142
-0.13670000000000004,-17.146300954364243
-0.13770000000000016,-17.146300954364243
-0.13870000000000005,-17.231183632356142
-0.13970000000000016,-17.358507649344002
-0.14070000000000005,-17.40094898833995
-0.14170000000000016,-17.358507649344002
-0.14270000000000005,-17.231183632356142
-0.14370000000000016,-17.188742293360193
-0.14470000000000005,-17.2736249713521
-0.14570000000000016,-17.40094898833995
-0.14670000000000005,-17.584861457322408
-0.14770000000000016,-17.627302796318357
-0.14870000000000005,-17.584861457322408
-0.14970000000000017,-17.48583166633185
-0.15070000000000006,-17.4433903273359
-0.15170000000000017,-17.584861457322408
-0.15270000000000006,-17.75462681330621
-0.15370000000000017,-17.839509491298113
-0.15470000000000006,-17.797068152302163
-0.15570000000000017,-17.669744135314307
-0.15670000000000006,-17.584861457322408
-0.15770000000000017,-17.584861457322408
-0.15870000000000006,-17.71218547431026
-0.15970000000000018,-17.839509491298113
-0.16070000000000007,-17.924392169290012
-0.16170000000000018,-17.881950830294063
-0.16270000000000007,-17.75462681330621
-0.16370000000000018,-17.71218547431026
-0.16470000000000007,-17.797068152302163
-0.16570000000000018,-17.966833508285966
-0.16670000000000007,-18.06586329927652
-0.16770000000000018,-18.10830463827247
-0.16870000000000007,-18.10830463827247
-0.16970000000000018,-18.06586329927652
-0.17070000000000007,-18.06586329927652
-0.17170000000000019,-18.23562865526032
-0.17270000000000008,-18.362952672248177
-0.1737000000000002,-18.44783535024008
-0.17470000000000008,-18.44783535024008
-0.1757000000000002,-18.40539401124413
-0.17670000000000008,-18.40539401124413
-0.1777000000000002,-18.44783535024008
-0.17870000000000008,-18.49027668923603
-0.1797000000000002,-18.589306480226583
-0.18070000000000008,-18.631747819222536
-0.1817000000000002,-18.589306480226583
-0.18270000000000008,-18.49027668923603
-0.1837000000000002,-18.44783535024008
-0.1847000000000001,-18.53271802823198
-0.1857000000000002,-18.674189158218486
-0.1867000000000001,-18.759071836210385
-0.1877000000000002,-18.80151317520634
-0.1887000000000001,-18.759071836210385
-0.1897000000000002,-18.674189158218486
-0.1907000000000001,-18.716630497214435
-0.1917000000000001,-18.843954514202288
-0.19269999999999998,-19.01371987018609
-0.1937000000000001,-19.197632339168546
-0.19469999999999998,-19.155191000172596
-0.1957000000000001,-19.056161209182044
-0.19669999999999999,-18.97127853119014
-0.1977000000000001,-18.97127853119014
-0.1987,-19.112749661176647
-0.1997000000000001,-19.28251501716045
-0.2007,-19.3249563561564
-0.2017000000000001,-19.28251501716045
-0.2027,-19.112749661176647
-0.2037000000000001,-19.112749661176647
-0.2047,-19.155191000172596
-0.2057000000000001,-19.3249563561564
-0.2067,-19.409839034148305
-0.2077000000000001,-19.452280373144255
-0.2087,-19.367397695152352
-0.2097000000000001,-19.3249563561564
-0.2107,-19.3249563561564
-0.2117000000000001,-19.49472171214021
-0.2127,-19.678634181122664
-0.2137000000000001,-19.763516859114564
-0.2147,-19.763516859114564
-0.2157000000000001,-19.763516859114564
-0.2167,-19.721075520118614
-0.21770000000000012,-19.805958198110513
-0.2187,-19.890840876102416
-0.21970000000000012,-20.01816489309027
-0.2207,-20.06060623208622
-0.22170000000000012,-20.01816489309027
-0.2227,-19.93328221509837
-0.22370000000000012,-19.890840876102416
-0.2247,-19.93328221509837
-0.22570000000000012,-20.10304757108217
-0.2267,-20.244518701068674
-0.22770000000000012,-20.286960040064624
-0.22870000000000001,-20.286960040064624
-0.22970000000000013,-20.202077362072725
-0.23070000000000002,-20.202077362072725
-0.23170000000000013,-20.329401379060574
-0.23270000000000002,-20.499166735044383
-0.23370000000000013,-20.683079204026836
-0.23470000000000002,-20.683079204026836
-0.23570000000000013,-20.584049413036283
-0.23670000000000002,-20.541608074040333
-0.2376999999999999,-20.584049413036283
-0.23870000000000002,-20.72552054302279
-0.2396999999999999,-20.89528589900659
-0.24070000000000003,-20.980168576998494
-0.24169999999999991,-20.93772723800254
-0.24270000000000003,-20.85284456001064
-0.24369999999999992,-20.85284456001064
-0.24470000000000003,-20.93772723800254
-0.24569999999999992,-21.107492593986347
-0.24670000000000003,-21.291405062968803
-0.24769999999999992,-21.376287740960702
-0.24870000000000003,-21.376287740960702
-0.24969999999999992,-21.333846401964752
-0.25070000000000003,-21.333846401964752
-0.2516999999999999,-21.503611757948562
-0.25270000000000004,-21.729965565926964
-0.2536999999999999,-21.899730921910766
-0.25470000000000004,-21.98461359990267
-0.2556999999999999,-22.027054938898623
-0.25670000000000004,-22.027054938898623
-0.25769999999999993,-22.111937616890522
-0.25870000000000004,-22.295850085872978
-0.25969999999999993,-22.508056780852733
-0.26070000000000004,-22.63538079784059
-0.26169999999999993,-22.67782213683654
-0.26270000000000004,-22.67782213683654
-0.26369999999999993,-22.72026347583249
-0.26470000000000005,-22.861734605818995
-0.26569999999999994,-23.073941300798747
-0.26670000000000005,-23.342736447773106
-0.26769999999999994,-23.51250180375691
-0.26870000000000005,-23.55494314275286
-0.26969999999999994,-23.55494314275286
-0.27070000000000005,-23.682267159740714
-0.27169999999999994,-23.908620967719123
-0.27270000000000005,-24.24815167968673
-0.27369999999999994,-24.474505487665134
-0.27470000000000006,-24.601829504652986
-0.27569999999999995,-24.686712182644893
-0.27670000000000006,-24.771594860636792
-0.27769999999999995,-24.997948668615198
-0.27870000000000006,-25.295038041586857
-0.27969999999999995,-25.60627452755716
-0.28070000000000006,-25.86092256153287
-0.28169999999999995,-26.002393691519377
-0.28270000000000006,-26.087276369511276
-0.28369999999999995,-26.257041725495082
-0.28470000000000006,-26.483395533473487
-0.28569999999999995,-26.780484906445146
-0.28670000000000007,-27.091721392415455
-0.28769999999999996,-27.34636942639116
-0.28870000000000007,-27.487840556377662
-0.28969999999999996,-27.65760591236147
-0.29070000000000007,-27.912253946337174
-0.29169999999999996,-28.265931771303435
-0.29270000000000007,-28.662050935265643
-0.29369999999999996,-29.001581647233255
-0.2947000000000001,-29.27037679420761
-0.29569999999999996,-29.482583489187363
-0.2967000000000001,-29.751378636161718
-0.29769999999999996,-30.04846800913338
-0.2987000000000001,-30.487028512091538
-0.29969999999999997,-30.968030354045652
-0.3007000000000001,-31.449032195999767
-0.30169999999999997,-31.802710020966025
-0.3027000000000001,-32.09979939393769
-0.30369999999999997,-32.368594540912035
-0.3047000000000001,-32.764713704874254
-0.30569999999999997,-33.231568433829715
-0.3067000000000001,-33.81160006677438
-0.3077,-34.377484586720385
-0.3087000000000001,-34.85848642867451
-0.3097,-35.282899818634014
-0.3107000000000001,-35.848784338580025
-0.3117,-36.47125731052064
-0.3127000000000001,-37.164465847454515
-0.3137,-37.77279170639648
-0.3147000000000001,-38.253793548350586
-0.3157,-38.734795390304704
-0.3167000000000001,-39.21579723225882
-0.3177,-39.86656443019674
-0.3187000000000001,-40.65880275812115
-0.3197,-41.39445263405098
-0.3207000000000001,-42.087661170984845
-0.3217,-42.653545690930855
-0.3227000000000001,-43.27601866287147
-0.3237,-43.92678586080939
-0.3247000000000001,-44.74731841473111
-0.3257,-45.70932209863933
-0.3267000000000001,-46.67132578254756
-0.3277,-47.54844678846388
-0.3287000000000001,-48.36897934238561
-0.3297,-49.16121767031002
-0.3307000000000001,-49.98175022423175
-0.3317,-50.943753908139975
-0.3327000000000001,-52.033081609036046
-0.3337,-53.12240930993213
-0.3347000000000001,-54.26832546282281
-0.3357,-55.357653163718886
-0.3367000000000001,-56.404539525619015
-0.3377,-57.45142588751914
-0.3387000000000001,-58.62563626640712
-0.3397,-59.884729323287
-0.3407000000000001,-61.11552815416958
-0.3417,-62.24729719406162
-0.3427000000000001,-63.3366248949577
-0.3437,-64.46839393484973
-0.3447000000000001,-65.7274869917296
-0.3457,-67.17049251759194
-0.3467000000000001,-68.61349804345427
-0.3477,-70.01406223032066
-0.3487000000000001,-71.27315528720055
-0.3497,-72.53224834408043
-0.3507000000000001,-73.8479298529549
-0.3517,-75.33337671781321
-0.3527000000000001,-76.9037062606634
-0.3537,-78.43159446451764
-0.3547000000000001,-79.81801153838538
-0.3557,-81.1761343862558
-0.35670000000000013,-82.56255146012353
-0.3577,-84.09043966397778
-0.35870000000000013,-85.75979899781852
-0.3597,-87.41501121866061
-0.36070000000000013,-89.02778210050676
-0.3617,-90.55567030436099
-0.3626999999999999,-92.04111716921928
-0.3637,-93.55485826007487
-0.3646999999999999,-95.18177625491967
-0.3657,-96.92187115375367
-0.3666999999999999,-98.66196605258766
-0.3677,-100.35961961242569
-0.3686999999999999,-102.02897894626645
-0.36970000000000003,-103.59930848911664
-0.3706999999999999,-105.21207937096277
-0.37170000000000003,-106.95217426979677
-0.3726999999999999,-108.83374029861727
-0.37370000000000003,-110.74360055343507
-0.3746999999999999,-112.58272524325962
-0.37570000000000003,-114.3228201420936
-0.3766999999999999,-116.02047370193165
-0.37770000000000004,-117.63324458377778
-0.3786999999999999,-119.3450452566145
-0.37970000000000004,-121.2549055114323
-0.3806999999999999,-123.05158886226087
-0.38170000000000004,-124.91900777808273
-0.38269999999999993,-126.88545648489513
-0.38370000000000004,-128.54066870573723
-0.38469999999999993,-130.1534395875834
-0.38570000000000004,-131.95012293841197
-0.38669999999999993,-132.37453632837148
-0.38570000000000004,-130.59200009054155
-0.38469999999999993,-128.85190519170752
-0.38370000000000004,-127.32401698785328
-0.38269999999999993,-126.00833547897882
-0.38170000000000004,-124.9614491170787
-0.3806999999999999,-124.09847522416102
-0.37970000000000004,-123.3062368962366
-0.3786999999999999,-122.48570434231489
-0.37770000000000004,-121.69346601439047
-0.3766999999999999,-120.95781613846064
-0.37570000000000003,-120.16557781053622
-0.3746999999999999,-119.2884568046199
-0.37370000000000003,-118.38304157270628
-0.3726999999999999,-117.3785965498021
-0.37170000000000003,-116.24682750991008
-0.3706999999999999,-115.10091135701937
-0.36970000000000003,-113.96914231712736
-0.3686999999999999,-112.87981461623129
-0.3677,-111.91781093232305
-0.3666999999999999,-110.92751302241753
-0.3657,-109.9655093385093
-0.3646999999999999,-108.87618163761321
-0.3637,-107.78685393671715
-0.3626999999999999,-106.78240891381296
-0.3617,-105.7779638909088
-0.36070000000000013,-104.73107752900866
-0.3597,-103.7266325061045
-0.35870000000000013,-102.59486346621246
-0.3577,-101.3640646353299
-0.35670000000000013,-100.18985425644189
-0.3557,-99.05808521654988
-0.3547000000000001,-97.96875751565379
-0.3537,-96.96431249274961
-0.3527000000000001,-96.00230880884139
-0.3517,-94.87053976894937
-0.3507000000000001,-93.69632939006138
-0.3497,-92.4655305591788
-0.3487000000000001,-91.29132018029082
-0.3477,-90.20199247939475
-0.3467000000000001,-89.23998879548651
-0.3457,-88.23554377258235
-0.3447000000000001,-87.18865741068221
-0.3437,-85.97200569279828
-0.3427000000000001,-84.84023665290624
-0.3417,-83.87823296899803
-0.3407000000000001,-82.9162292850898
-0.3397,-81.86934292318966
-0.3387000000000001,-80.7800152222936
-0.3377,-79.56336350440966
-0.3367000000000001,-78.43159446451764
-0.3357,-77.34226676362155
-0.3347000000000001,-76.38026307971333
-0.3337,-75.50314207379701
-0.3327000000000001,-74.54113838988879
-0.3317,-73.45181068899271
-0.3307000000000001,-72.27760031010472
-0.3297,-71.06094859222078
-0.3287000000000001,-69.95747377832606
-0.3277,-69.0096172074165
-0.3267000000000001,-68.0900548625042
-0.3257,-67.21293385658788
-0.3247000000000001,-66.16604749468777
-0.3237,-65.03427845479574
-0.3227000000000001,-63.944950753899654
-0.3217,-62.855623053003576
-0.3207000000000001,-61.89361936909536
-0.3197,-61.07308681517363
-0.3187000000000001,-60.28084848724921
-0.3177,-59.403727481332886
-0.3167000000000001,-58.39928245842871
-0.3157,-57.352396096528594
-0.3147000000000001,-56.404539525619015
-0.3137,-55.442535841710786
-0.3127000000000001,-54.52297349679851
-0.3117,-53.518528473894335
-0.3107000000000001,-52.514083450990164
-0.3097,-51.46719708909004
-0.3087000000000001,-50.50519340518181
-0.3077,-49.68466085126009
-0.3067000000000001,-48.80753984534376
-0.30569999999999997,-47.8879775004315
-0.3047000000000001,-46.88353247752732
-0.30369999999999997,-45.93567590661774
-0.3027000000000001,-45.05855490070142
-0.30169999999999997,-44.3229050247716
-0.3007000000000001,-43.61554937483908
-0.29969999999999997,-42.837458159913304
-0.2987000000000001,-41.96033715399699
-0.29769999999999996,-40.95589213109281
-0.2967000000000001,-40.03632978618054
-0.29569999999999996,-39.258238571254765
-0.2947000000000001,-38.5650300343209
-0.29369999999999996,-37.81523304539243
-0.29270000000000007,-37.037141830466666
-0.29169999999999996,-36.11757948555439
-0.29070000000000007,-35.198017140642115
-0.28969999999999996,-34.377484586720385
-0.28870000000000007,-33.58524625879597
-0.28769999999999996,-32.892037721862096
-0.28670000000000007,-32.184682071929586
-0.28569999999999995,-31.40659085700382
-0.28470000000000006,-30.529469851087494
-0.28369999999999995,-29.708937297165768
-0.28270000000000006,-28.91669896924135
-0.28169999999999995,-28.265931771303435
-0.28070000000000006,-27.615164573365515
-0.27969999999999995,-26.9643973754276
-0.27870000000000006,-26.17215904750318
-0.27769999999999995,-25.39406783257741
-0.27670000000000006,-24.559388165657033
-0.27569999999999995,-23.86617962872317
-0.27470000000000006,-23.24370665678255
-0.27369999999999994,-22.67782213683654
-0.27270000000000005,-22.027054938898623
-0.27169999999999994,-21.291405062968803
-0.27070000000000005,-20.541608074040333
-0.26969999999999994,-19.805958198110513
-0.26870000000000005,-19.155191000172596
