Potential V vs RHE, Current mA cm-2
0.013299999999999867,13.823144110981273
0.012299999999999978,12.377309162519206
0.011299999999999866,11.205928206230956
0.010299999999999976,10.076988588938656
0.009299999999999864,8.965025507244738
0.008299999999999974,8.061024986630978
0.007299999999999862,7.195221671113577
0.006299999999999972,6.247365100204002
0.00529999999999986,5.41268543328363
0.0042999999999999705,4.667132578254756
0.0032999999999998586,3.835282333934114
0.0022999999999999687,3.0911441902051053
0.0012999999999998568,2.4771594860636794
0.00029999999999996696,1.7542420118326456
-0.000700000000000145,1.0028888404743244
-0.0017000000000000348,0.43176988871880917
-0.0027000000000001467,-0.155052358465208
-0.0037000000000000366,-0.8970684352444198
-0.0047000000000001485,-1.499593977856939
-0.005700000000000038,-2.020207736207272
-0.00670000000000015,-2.658242532446404
-0.00770000000000004,-3.2411035879907995
-0.008700000000000152,-3.7065436056463965
-0.009700000000000042,-4.26393985779322
-0.010700000000000154,-4.862362737636131
-0.011700000000000044,-5.3575116925888935
-0.012700000000000156,-5.852660647541658
-0.013700000000000045,-6.411471610988346
-0.014700000000000157,-6.896717586842053
-0.015700000000000047,-7.329619244600755
-0.01670000000000016,-7.857306559450413
-0.01770000000000005,-8.386408585599938
-0.01870000000000016,-8.796674862560797
-0.01970000000000005,-9.276261993215044
-0.020700000000000163,-9.819511132363221
-0.021700000000000053,-10.250998078822057
-0.022700000000000164,-10.698046849579406
-0.023700000000000054,-11.225734164429067
-0.024700000000000166,-11.684100625585337
-0.025700000000000056,-12.075975655647953
-0.026700000000000168,-12.548489229802875
-0.027700000000000058,-13.032320494356718
-0.02870000000000017,-13.46239272951569
-0.02970000000000006,-13.898123809874122
-0.03070000000000017,-14.345172580631472
-0.03170000000000006,-14.69885040559773
-0.03270000000000017,-15.137410908555893
-0.03370000000000006,-15.618412750510005
-0.034700000000000175,-16.099414592464115
-0.035700000000000065,-16.50968086942498
-0.03670000000000018,-16.99068271137909
-0.03770000000000007,-17.429243214337255
-0.03870000000000018,-17.75462681330621
-0.03970000000000007,-18.221481542261674
-0.04070000000000018,-18.688336271217132
-0.04170000000000007,-19.027866983184744
-0.04270000000000018,-19.466427486142905
-0.04370000000000007,-20.00401778009162
-0.044700000000000184,-20.34354849205923
-0.045700000000000074,-20.654784978029536
-0.046700000000000186,-21.13578681998365
-0.047700000000000076,-21.58849443594046
-0.04870000000000019,-21.95631937390537
-0.04970000000000008,-22.40902698986218
-0.05070000000000019,-22.861734605818995
-0.05170000000000008,-23.215412430785253
-0.05270000000000019,-23.62567870774611
-0.05370000000000008,-24.120827662698876
-0.05470000000000019,-24.516946826661083
-0.05570000000000008,-24.884771764625995
-0.056700000000000195,-25.323332267584156
-0.057700000000000085,-25.747745657543668
-0.058700000000000196,-26.073129256512626
-0.059700000000000086,-26.440954194477534
-0.0607000000000002,-26.86536758443705
-0.06170000000000009,-27.247339635400607
-0.0627000000000002,-27.62931168636417
-0.06370000000000009,-28.11031352831828
-0.0647000000000002,-28.53472691827779
-0.06570000000000009,-28.93084608224
-0.0667000000000002,-29.38355369819681
-0.0677000000000001,-29.76552574916037
-0.0687000000000002,-30.07676223513068
-0.0697000000000001,-30.55776407708479
-0.07070000000000021,-31.010471693041605
-0.0717000000000001,-31.29341395301461
-0.07270000000000021,-31.731974455972775
-0.0737000000000001,-32.21297629792688
-0.07470000000000021,-32.6090954618891
-0.0757000000000001,-32.92033194785941
-0.07670000000000021,-33.373039563816214
-0.0777000000000001,-33.79745295377573
-0.07870000000000021,-34.207719230736586
-0.0797000000000001,-34.717015298688004
-0.08070000000000022,-35.12728157564886
-0.0817000000000001,-35.48095940061512
-0.08270000000000022,-35.91951990357328
-0.08370000000000011,-36.35808040653144
-0.08470000000000022,-36.740052457495004
-0.08570000000000011,-37.107877395459916
-0.08670000000000022,-37.44740810742752
-0.08770000000000011,-37.87182149738703
-0.08870000000000022,-38.28208777434789
-0.08970000000000011,-38.664059825311455
-0.09070000000000022,-39.10262032826961
-0.09170000000000011,-39.52703371822913
-0.09270000000000023,-39.95144710818864
-0.09370000000000012,-40.34756627215084
-0.09470000000000023,-40.729538323114404
-0.09570000000000012,-41.196393052069865
-0.09670000000000023,-41.606659329030734
-0.09770000000000012,-41.91789581500104
-0.09870000000000023,-42.3564563179592
-0.09970000000000012,-42.86575238591062
-0.10070000000000023,-43.19113598487957
-0.10170000000000012,-43.48822535785123
-0.10270000000000024,-43.96922719980534
-0.10370000000000013,-44.4926703807554
-0.10470000000000024,-44.86049531872031
-0.10570000000000013,-45.25661448268253
-0.10670000000000024,-45.72346921163799
-0.10770000000000013,-46.10544126260155
-0.10870000000000024,-46.38838352257455
-0.10970000000000013,-46.78450268653676
-0.11070000000000024,-47.23721030249357
-0.11170000000000013,-47.56259390146253
-0.11270000000000002,-47.91627172642879
-0.11370000000000013,-48.26994955139505
-0.11470000000000002,-48.68021582835591
-0.11570000000000014,-49.062187879319474
-0.11670000000000003,-49.52904260827494
-0.11770000000000014,-50.038338676226346
-0.11870000000000003,-50.47689917918451
-0.11970000000000014,-50.84472411714942
-0.12070000000000003,-51.38231441109813
-0.12170000000000014,-51.73599223606439
-0.12270000000000003,-52.00478738303875
-0.12370000000000014,-52.45749499899556
-0.12470000000000003,-52.74043725896857
-0.12570000000000014,-53.023379518941574
-0.12670000000000003,-53.49023424789704
-0.12770000000000015,-53.91464763785655
-0.12870000000000004,-54.1551485588336
-0.12970000000000015,-54.494679270801214
-0.13070000000000004,-54.947386886758025
-0.13170000000000015,-55.15959358173778
-0.13270000000000004,-55.470830067708086
-0.13370000000000015,-55.8952434576676
-0.13470000000000004,-56.24892128263386
-0.13570000000000015,-56.560157768604164
-0.13670000000000004,-57.012865384560975
-0.13770000000000016,-57.493867226515086
-0.13870000000000005,-57.8051037124854
-0.13970000000000016,-58.24366421544356
-0.14070000000000005,-58.62563626640712
-0.14170000000000016,-58.951019865376075
-0.14270000000000005,-59.26225635134639
-0.14370000000000016,-59.70081685430455
-0.14470000000000005,-60.06864179226946
-0.14570000000000016,-60.39402539123842
-0.14670000000000005,-60.91746857218848
-0.14770000000000016,-61.29944062315204
-0.14870000000000005,-61.5965299961237
-0.14970000000000017,-62.006796273084554
-0.15070000000000006,-62.501945228037314
-0.15170000000000017,-62.71415192301708
-0.15270000000000006,-63.05368263498469
-0.15370000000000017,-63.54883158993744
-0.15470000000000006,-63.88836230190506
-0.15570000000000017,-64.15715744887942
-0.15670000000000006,-64.56742372584027
-0.15770000000000017,-65.00598422879844
-0.15870000000000006,-65.28892648877145
-0.15970000000000018,-65.54357452274715
-0.16070000000000007,-65.9255465737107
-0.16170000000000018,-66.29337151167562
-0.16270000000000007,-66.56216665864997
-0.16370000000000018,-67.01487427460678
-0.16470000000000007,-67.39684632557035
-0.16570000000000018,-67.6090530205501
-0.16670000000000007,-67.97687795851502
-0.16770000000000018,-68.47202691346777
-0.16870000000000007,-68.68423360844753
-0.16970000000000018,-69.0096172074165
-0.17070000000000007,-69.58964884036115
-0.17170000000000019,-69.87259110033416
-0.17270000000000008,-70.08479779531392
-0.1737000000000002,-70.52335829827209
-0.17470000000000008,-70.96191880123024
-0.1757000000000002,-71.2024197222073
-0.17670000000000008,-71.74001001615602
-0.1777000000000002,-72.34833587509796
-0.17870000000000008,-72.44736566608852
-0.1797000000000002,-72.73030792606153
-0.18070000000000008,-73.18301554201834
-0.1817000000000002,-73.48010491499001
-0.18270000000000008,-73.69231160996976
-0.1837000000000002,-74.08843077393198
-0.1847000000000001,-74.52699127689014
-0.1857000000000002,-74.78163931086584
-0.1867000000000001,-75.17775847482805
-0.1877000000000002,-75.55973052579161
-0.1887000000000001,-75.85681989876326
-0.1897000000000002,-76.18220349773222
-0.1907000000000001,-76.56417554869579
-0.1917000000000001,-76.8754120346661
-0.19269999999999998,-77.1300600686418
-0.1937000000000001,-77.45544366761075
-0.19469999999999998,-77.7242388145851
-0.1957000000000001,-77.95059262256353
-0.19669999999999999,-78.26182910853383
-0.1977000000000001,-78.57306559450414
-0.1987,-78.65794827249603
-0.1997000000000001,-79.0399203234596
-0.2007,-79.52092216541372
-0.2017000000000001,-79.64824618240156
-0.2027,-79.88874710337862
-0.2037000000000001,-80.22827781534622
-0.2047,-80.55366141431519
-0.2057000000000001,-80.79416233529224
-0.2067,-81.11954593426121
-0.2077000000000001,-81.58640066321666
-0.2087,-81.91178426218562
-0.2097000000000001,-82.05325539217212
-0.2107,-82.36449187814243
-0.2117000000000001,-82.746463929106
-0.2127,-83.04355330207765
-0.2137000000000001,-83.58114359602637
-0.2147,-83.8216445170034
-0.2157000000000001,-83.99140987298723
-0.2167,-84.41582326294673
-0.21770000000000012,-84.64217707092514
-0.2187,-84.78364820091166
-0.21970000000000012,-85.1939144778725
-0.2207,-85.51929807684147
-0.22170000000000012,-85.71735765882258
-0.2227,-85.84468167581042
-0.22370000000000012,-86.29738929176723
-0.2247,-86.52374309974564
-0.22570000000000012,-86.8774209247119
-0.2267,-87.48574678365387
-0.22770000000000012,-87.81113038262282
-0.22870000000000001,-87.75454193062824
-0.22970000000000013,-88.02333707760259
-0.23070000000000002,-88.34872067657155
-0.23170000000000013,-88.39116201556749
-0.23270000000000002,-88.43360335456343
-0.23370000000000013,-88.5892215975486
-0.23470000000000002,-88.9287523095162
-0.23570000000000013,-89.67854929844468
-0.23670000000000002,-90.08881557540555
-0.2376999999999999,-90.32931649638259
-0.23870000000000002,-90.08881557540555
-0.2396999999999999,-90.59811164335694
-0.24070000000000003,-90.98008369432051
-0.24169999999999991,-90.9517894683232
-0.24270000000000003,-91.33376151928677
-0.24369999999999992,-92.01282294322199
-0.24470000000000003,-92.35235365518959
-0.24569999999999992,-92.5221190111734
-0.24670000000000003,-92.93238528813426
-0.24769999999999992,-93.21532754810727
-0.24870000000000003,-93.27191600010187
-0.24969999999999992,-93.44168135608567
-0.25070000000000003,-93.39924001708972
-0.2516999999999999,-93.35679867809377
-0.25270000000000004,-93.32850445209648
-0.2536999999999999,-93.39924001708972
-0.25470000000000004,-93.44168135608567
-0.2556999999999999,-93.54071114707622
-0.25670000000000004,-93.68218227706274
-0.25769999999999993,-93.89438897204248
-0.25870000000000004,-93.95097742403709
-0.25969999999999993,-94.06415432802629
-0.26070000000000004,-94.33294947500065
-0.26169999999999993,-94.4036850399939
-0.26270000000000004,-94.4319792659912
-0.26369999999999993,-94.78565709095746
-0.26470000000000005,-95.06859935093047
-0.26569999999999994,-95.23836470691427
-0.26670000000000005,-95.46471851489268
-0.26769999999999994,-95.81839633985894
-0.26870000000000005,-96.03060303483868
-0.26969999999999994,-96.21451550382113
-0.27070000000000005,-96.3701337468063
-0.27169999999999994,-96.41257508580226
-0.27270000000000005,-96.55404621578876
-0.27369999999999994,-96.73795868477121
-0.27470000000000006,-96.95016537975096
-0.27569999999999995,-97.10578362273613
-0.27670000000000006,-97.26140186572127
-0.27769999999999995,-97.43116722170507
-0.27870000000000006,-97.54434412569428
-0.27969999999999995,-97.69996236867944
-0.28070000000000006,-97.86972772466324
-0.28169999999999995,-97.98290462865245
-0.28270000000000006,-97.98290462865245
-0.28369999999999995,-98.23755266262813
-0.28470000000000006,-98.5629362615971
-0.28569999999999995,-98.66196605258766
-0.28670000000000007,-98.97320253855796
-0.28769999999999996,-99.25614479853097
-0.28870000000000007,-99.31273325052557
-0.28969999999999996,-99.46835149351072
-0.29070000000000007,-99.70885241448778
-0.29169999999999996,-99.6522639624932
-0.29270000000000007,-99.60982262349724
-0.29369999999999996,-99.822029318477
-0.2947000000000001,-99.83617643147564
-0.29569999999999996,-99.87861777047159
-0.2967000000000001,-100.07667735245269
-0.29769999999999996,-100.2464427084365
-0.2987000000000001,-100.23229559543785
-0.29969999999999997,-100.45864940341626
-0.3007000000000001,-100.86891568037711
-0.30169999999999997,-100.89720990637443
-0.3027000000000001,-101.10941660135417
-0.30369999999999997,-101.46309442632044
-0.3047000000000001,-101.47724153931907
-0.30569999999999997,-101.60456555630694
-0.3067000000000001,-101.87336070328129
-0.3077,-101.9865376072705
-0.3087000000000001,-101.87336070328129
-0.3097,-101.94409626827454
-0.3107000000000001,-102.02897894626645
-0.3117,-101.88750781627995
-0.3127000000000001,-101.88750781627995
-0.3137,-102.12800873725699
-0.3147000000000001,-102.1845971892516
-0.3157,-102.2977740932408
-0.3167000000000001,-102.50998078822056
-0.3177,-102.79292304819357
-0.3187000000000001,-102.89195283918411
-0.3197,-102.96268840417737
-0.3207000000000001,-103.21733643815308
-0.3217,-103.25977777714903
-0.3227000000000001,-103.21733643815308
-0.3237,-103.47198447212878
-0.3247000000000001,-103.51442581112472
-0.3257,-103.50027869812607
-0.3267000000000001,-103.74077961910314
-0.3277,-103.93883920108425
-0.3287000000000001,-103.93883920108425
-0.3297,-103.93883920108425
-0.3307000000000001,-104.19348723505995
-0.3317,-104.2359285740559
-0.3327000000000001,-104.2925170260505
-0.3337,-104.56131217302486
-0.3347000000000001,-104.57545928602352
-0.3357,-104.64619485101677
-0.3367000000000001,-104.87254865899517
-0.3377,-104.94328422398843
-0.3387000000000001,-104.87254865899517
-0.3397,-104.94328422398843
-0.3407000000000001,-105.09890246697358
-0.3417,-105.22622648396143
-0.3427000000000001,-105.32525627495198
-0.3437,-105.608198534925
-0.3447000000000001,-105.82040522990474
-0.3457,-105.76381677791014
-0.3467000000000001,-105.90528790789664
-0.3477,-106.11749460287639
-0.3487000000000001,-106.4287310888467
-0.3497,-106.5702022188332
-0.3507000000000001,-106.65508489682512
-0.3517,-106.76826180081432
-0.3527000000000001,-106.62679067082782
-0.3537,-106.89558581780217
-0.3547000000000001,-107.23511652976977
-0.3557,-107.37658765975628
-0.35670000000000013,-107.6029414677347
-0.3577,-107.88588372770771
-0.35870000000000013,-107.8575895017104
-0.3597,-107.84344238871174
-0.36070000000000013,-108.23956155267396
-0.3617,-108.48006247365102
-0.3626999999999999,-108.64982782963483
-0.3637,-109.10253544559163
-0.3646999999999999,-109.06009410659567
-0.3657,-108.98935854160243
-0.3666999999999999,-109.03179988059838
-0.3677,-108.90447586361051
-0.3686999999999999,-109.03179988059838
-0.36970000000000003,-109.20156523658218
-0.3706999999999999,-109.51280172255248
-0.37170000000000003,-109.66841996553765
-0.3726999999999999,-109.52694883555114
-0.37370000000000003,-109.7957439825255
-0.3746999999999999,-110.3333342764742
-0.37570000000000003,-110.64457076244452
-0.3766999999999999,-110.7577476664337
-0.37770000000000004,-110.92751302241753
-0.3786999999999999,-110.95580724841481
-0.37970000000000004,-111.12557260439863
-0.3806999999999999,-111.5641331073568
-0.38170000000000004,-112.08757628830685
-0.38269999999999993,-112.20075319229606
-0.38370000000000004,-112.27148875728932
-0.38469999999999993,-112.71004926024747
-0.38570000000000004,-112.97884440722183
-0.38669999999999993,-111.3094850733811
-0.38570000000000004,-108.0273548576942
-0.38469999999999993,-104.92913711098977
-0.38370000000000004,-102.19874430225026
-0.38269999999999993,-99.80788220547834
-0.38170000000000004,-97.28969609171857
-0.3806999999999999,-94.81395131695474
-0.37970000000000004,-92.84750261014237
-0.3786999999999999,-90.85275967733266
-0.37770000000000004,-88.71654561453644
-0.3766999999999999,-87.00474494169976
-0.37570000000000003,-85.27879715586442
-0.3746999999999999,-83.28405422305471
-0.37370000000000003,-81.48737087222611
-0.3726999999999999,-79.84630576438266
-0.37170000000000003,-78.02132818755678
-0.3706999999999999,-76.53588132269847
-0.36970000000000003,-75.20605270082535
-0.3686999999999999,-73.7064587229684
-0.3677,-72.16442340611552
-0.3666999999999999,-70.8345947842424
-0.3657,-69.5189132753679
-0.3646999999999999,-68.0051721845123
-0.3637,-66.66119644964053
-0.3626999999999999,-65.34551494076604
-0.3617,-63.944950753899654
-0.36070000000000013,-62.629269245025185
-0.3597,-61.35602907514664
-0.35870000000000013,-59.7998466452951
-0.3577,-58.35684111943277
-0.35670000000000013,-57.33824898352994
-0.3557,-56.26306839563251
-0.3547000000000001,-55.088858016744524
-0.3537,-53.985383202849796
-0.3527000000000001,-52.92434972795102
-0.3517,-51.73599223606439
-0.3507000000000001,-50.53348763117911
-0.3497,-49.61392528626684
-0.3487000000000001,-48.567038924366706
-0.3477,-47.435269884474685
-0.3467000000000001,-46.501560426563756
-0.3457,-45.52540962965688
-0.3447000000000001,-44.4077877027635
-0.3437,-43.37504845386202
-0.3427000000000001,-42.497927447945706
-0.3417,-41.49348242504152
-0.3407000000000001,-40.503184515136
-0.3397,-39.66850484821563
-0.3387000000000001,-38.791383842299304
-0.3377,-37.77279170639648
-0.3367000000000001,-36.95225915247476
-0.3357,-36.14587371155169
-0.3347000000000001,-35.14142868864751
-0.3337,-34.278454795729836
-0.3327000000000001,-33.51451069380272
-0.3317,-32.59494834889044
-0.3307000000000001,-31.703680229975475
-0.3297,-30.953883241047
-0.3287000000000001,-30.07676223513068
-0.3277,-29.18549411621571
-0.3267000000000001,-28.435697127287238
-0.3257,-27.671753025360115
-0.3247000000000001,-26.794632019443796
-0.3237,-26.058982143513976
-0.3227000000000001,-25.39406783257741
-0.3217,-24.587682391654337
-0.3207000000000001,-23.823738289727217
-0.3197,-23.215412430785253
-0.3187000000000001,-22.479762554855434
-0.3177,-21.772406904922917
-0.3167000000000001,-21.121639706984997
-0.3157,-20.499166735044383
-0.3147000000000001,-19.77766397211321
-0.3137,-19.098602548177997
-0.3127000000000001,-18.47612957623738
-0.3117,-17.72633258730891
-0.3107000000000001,-17.089712502369647
-0.3097,-16.55212220842093
-0.3087000000000001,-15.88720789748436
-0.3077,-15.179852247551842
-0.3067000000000001,-14.62811484060448
-0.30569999999999997,-14.063645031958329
-0.3047000000000001,-13.359118804625542
-0.30369999999999997,-12.796063707279258
-0.3027000000000001,-12.278279371528653
-0.30169999999999997,-11.627512173590738
-0.3007000000000001,-10.99089208865147
-0.29969999999999997,-10.470278330301136
-0.2987000000000001,-9.905808521654986
-0.29769999999999996,-9.307385641812077
-0.2967000000000001,-8.803748419060124
-0.29569999999999996,-8.304355330207764
-0.2947000000000001,-7.669149956568364
-0.29369999999999996,-7.158439177317086
-0.29270000000000007,-6.6958285822612185
-0.29169999999999996,-6.117211660616419
-0.29070000000000007,-5.59518319096622
-0.28969999999999996,-5.170769801006709
-0.28870000000000007,-4.66288844435516
-0.28769999999999996,-4.094174501809416
-0.28670000000000007,-3.698055337847206
-0.28569999999999995,-3.28637434958648
-0.28470000000000006,-2.712001561841275
-0.28369999999999995,-2.2196820294882422
-0.28270000000000006,-1.8348805559249526
-0.28169999999999995,-1.3107300193249565
-0.28070000000000006,-0.8062439697930843
-0.27969999999999995,-0.4552540962965688
-0.27870000000000006,0.02124896372397285
-0.27769999999999995,0.5298093817994564
-0.27670000000000006,0.8932487147347841
-0.27569999999999995,1.2828602067176154
-0.27470000000000006,1.781121526530081
-0.27369999999999994,2.192802514790807
-0.27270000000000005,2.554968607556256
-0.27169999999999994,3.021823336511718
-0.27070000000000005,3.473116241168665
-0.26969999999999994,3.794255706238028
-0.26870000000000005,4.214424962297944
-0.26769999999999994,4.7010856494515165
-0.26670000000000005,5.032128093619936
-0.26569999999999994,5.377317650787004
-0.26470000000000005,5.841342957142737
