Potential V vs RHE, Current mA cm-2
0.013299999999999867,11.774642148776701
0.012299999999999978,10.07274445503906
0.011299999999999866,8.546270962484687
0.010299999999999976,7.15136562081776
0.009299999999999864,5.8427576684426015
0.008299999999999974,4.6218618166590755
0.007299999999999862,3.3995512535756833
0.006299999999999972,2.2663675023837886
0.00529999999999986,1.175483619057859
0.0042999999999999705,0.04140859974704963
0.0032999999999998586,-1.0490084288499246
0.0022999999999999687,-2.1828995356917518
0.0012999999999998568,-3.2297858975918787
0.00029999999999996696,-4.1889601589003735
-0.000700000000000145,-5.191990470504685
-0.0017000000000000348,-6.108723392817228
-0.0027000000000001467,-6.981600264833956
-0.0037000000000000366,-7.896918475846635
-0.0047000000000001485,-8.812236686859313
-0.005700000000000038,-9.685113558876042
-0.00670000000000015,-10.601846481188586
-0.00770000000000004,-11.473308641905447
-0.008700000000000152,-12.346185513922174
-0.009700000000000042,-13.175206335643086
-0.010700000000000154,-14.002812446064135
-0.011700000000000044,-14.783733083589633
-0.012700000000000156,-15.533530072518102
-0.013700000000000045,-16.311621287443874
-0.014700000000000157,-17.061418276372343
-0.015700000000000047,-17.839509491298113
-0.01670000000000016,-18.589306480226583
-0.01770000000000005,-19.367397695152352
-0.01870000000000016,-20.159636023076775
-0.01970000000000005,-20.93772723800254
-0.020700000000000163,-21.63093577493641
-0.021700000000000053,-22.33829142486893
-0.022700000000000164,-23.031499961802798
-0.023700000000000054,-23.682267159740714
-0.024700000000000166,-24.34718147067728
-0.025700000000000056,-25.04039000761115
-0.026700000000000168,-25.73359854454502
-0.027700000000000058,-26.483395533473487
-0.02870000000000017,-27.219045409403304
-0.02970000000000006,-27.954695285333123
-0.03070000000000017,-28.662050935265643
-0.03170000000000006,-29.31281813320356
-0.03270000000000017,-29.96358533114148
-0.03370000000000006,-30.614352529079397
-0.034700000000000175,-31.23682550102001
-0.035700000000000065,-31.887592698957924
-0.03670000000000018,-32.58080123589179
-0.03770000000000007,-33.288156885824314
-0.03870000000000018,-33.93892408376223
-0.03970000000000007,-34.5472499427042
-0.04070000000000018,-35.198017140642115
-0.04170000000000007,-35.806342999584075
-0.04270000000000018,-36.37222751953009
-0.04370000000000007,-36.99470049147071
-0.044700000000000184,-37.60302635041268
-0.045700000000000074,-38.253793548350586
-0.046700000000000186,-38.94700208528445
-0.047700000000000076,-39.61191639622103
-0.04870000000000019,-40.26268359415894
-0.04970000000000008,-40.95589213109281
-0.05070000000000019,-41.606659329030734
-0.05170000000000008,-42.229132300971344
-0.05270000000000019,-42.837458159913304
-0.05370000000000008,-43.44578401885527
-0.05470000000000019,-44.054109877797245
-0.05570000000000008,-44.66243573673921
-0.056700000000000195,-45.27076159568118
-0.057700000000000085,-45.89323456762179
-0.058700000000000196,-46.501560426563756
-0.059700000000000086,-47.10988628550572
-0.0607000000000002,-47.76065348344364
-0.06170000000000009,-48.41142068138156
-0.0627000000000002,-49.076334992318124
-0.06370000000000009,-49.68466085126009
-0.0647000000000002,-50.29298671020206
-0.06570000000000009,-50.90131256914402
-0.0667000000000002,-51.55207976708194
-0.0677000000000001,-52.17455273902255
-0.0687000000000002,-52.82531993696047
-0.0697000000000001,-53.476087134898386
-0.07070000000000021,-54.1268543328363
-0.0717000000000001,-54.791768643772876
-0.07270000000000021,-55.400094502714836
-0.0737000000000001,-55.96597902266086
-0.07470000000000021,-56.57430488160282
-0.0757000000000001,-57.182630740544774
-0.07670000000000021,-57.79095659948675
-0.0777000000000001,-58.498312249419264
-0.07870000000000021,-59.19152078635314
-0.0797000000000001,-59.842287984291055
-0.08070000000000022,-60.54964363422357
-0.0817000000000001,-61.242852171157445
-0.08270000000000022,-61.80873669110345
-0.08370000000000011,-62.459503889041365
-0.08470000000000022,-63.06782974798333
-0.08570000000000011,-63.6761556069253
-0.08670000000000022,-64.34106991786187
-0.08770000000000011,-64.99183711579978
-0.08870000000000022,-65.7274869917296
-0.08970000000000011,-66.43484264166212
-0.09070000000000022,-67.08560983960004
-0.09170000000000011,-67.73637703753796
-0.09270000000000023,-68.34470289647993
-0.09370000000000012,-69.0096172074165
-0.09470000000000023,-69.61794306635846
-0.09570000000000012,-70.26871026429637
-0.09670000000000023,-70.91947746223428
-0.09770000000000012,-71.6268331121668
-0.09870000000000023,-72.32004164910067
-0.09970000000000012,-73.0556915250305
-0.10070000000000023,-73.76304717496302
-0.10170000000000012,-74.41381437290093
-0.10270000000000024,-75.02214023184291
-0.10370000000000013,-75.54558341279296
-0.10470000000000024,-76.06902659374302
-0.10570000000000013,-76.67735245268499
-0.10670000000000024,-77.34226676362155
-0.10770000000000013,-78.07791663955136
-0.10870000000000024,-78.85600785447714
-0.10970000000000013,-79.56336350440966
-0.11070000000000024,-80.21413070234757
-0.11170000000000013,-80.86489790028548
-0.11270000000000002,-81.43078242023151
-0.11370000000000013,-82.09569673116808
-0.11470000000000002,-82.746463929106
-0.11570000000000014,-83.43967246603985
-0.11670000000000003,-84.18946945496833
-0.11770000000000014,-84.8826779919022
-0.11870000000000003,-85.53344518984011
-0.11970000000000014,-86.09932970978613
-0.12070000000000003,-86.6227728907362
-0.12170000000000014,-87.14621607168625
-0.12270000000000003,-87.71210059163228
-0.12370000000000014,-88.32042645057423
-0.12470000000000003,-88.9853407615108
-0.12570000000000014,-89.63610795944872
-0.12670000000000003,-90.28687515738663
-0.12770000000000015,-90.93764235532454
-0.12870000000000004,-91.60255666626112
-0.12970000000000015,-92.25332386419905
-0.13070000000000004,-92.90409106213696
-0.13170000000000015,-93.55485826007487
-0.13270000000000004,-94.26221391000739
-0.13370000000000015,-94.91298110794531
-0.13470000000000004,-95.52130696688728
-0.13570000000000015,-96.17207416482519
-0.13670000000000004,-96.83698847576176
-0.13770000000000016,-97.4877556736997
-0.13870000000000005,-98.13852287163759
-0.13970000000000016,-98.83173140857146
-0.14070000000000005,-99.49664571950804
-0.14170000000000016,-100.10497157844999
-0.14270000000000005,-100.670856098396
-0.14370000000000016,-101.27918195733798
-0.14470000000000005,-101.88750781627995
-0.14570000000000016,-102.4958336752219
-0.14670000000000005,-103.16074798615847
-0.14770000000000016,-103.89639786208829
-0.14870000000000005,-104.58960639902216
-0.14970000000000017,-105.25452070995874
-0.15070000000000006,-105.90528790789664
-0.15170000000000017,-106.47117242784265
-0.15270000000000006,-106.99461560879273
-0.15370000000000017,-107.6029414677347
-0.15470000000000006,-108.21126732667666
-0.15570000000000017,-108.83374029861727
-0.15670000000000006,-109.4845074965552
-0.15770000000000017,-110.1352746944931
-0.15870000000000006,-110.78604189243102
-0.15970000000000018,-111.4509562033676
-0.16070000000000007,-112.05928206230955
-0.16170000000000018,-112.66760792125153
-0.16270000000000007,-113.23349244119754
-0.16370000000000018,-113.79937696114357
-0.16470000000000007,-114.40770282008553
-0.16570000000000018,-114.97358734003153
-0.16670000000000007,-115.5819131989735
-0.16770000000000018,-116.14779771891952
-0.16870000000000007,-116.72782935186417
-0.16970000000000018,-117.29371387181018
-0.17070000000000007,-117.81715705276027
-0.17170000000000019,-118.3406002337103
-0.17270000000000008,-118.90648475365633
-0.1737000000000002,-119.55725195159425
-0.17470000000000008,-120.25046048852812
-0.1757000000000002,-120.95781613846064
-0.17670000000000008,-121.65102467539451
-0.1777000000000002,-122.30179187333242
-0.17870000000000008,-122.86767639327843
-0.1797000000000002,-123.43356091322445
-0.18070000000000008,-123.99944543317046
-0.1817000000000002,-124.57947706611512
-0.18270000000000008,-125.18780292505707
-0.1837000000000002,-125.79612878399907
-0.1847000000000001,-126.44689598193698
-0.1857000000000002,-127.09766317987489
-0.1867000000000001,-127.72013615181551
-0.1877000000000002,-128.32846201075745
-0.1887000000000001,-128.89434653070347
-0.1897000000000002,-129.50267238964545
-0.1907000000000001,-130.02611557059552
-0.1917000000000001,-130.50711741254963
-0.19269999999999998,-131.07300193249566
-0.1937000000000001,-131.72376913043357
-0.19469999999999998,-132.37453632837148
-0.1957000000000001,-133.03945063930803
-0.19669999999999999,-133.69021783724597
-0.1977000000000001,-134.29854369618792
-0.1987,-134.86442821613394
-0.1997000000000001,-135.43031273607997
-0.2007,-135.99619725602597
-0.2017000000000001,-136.562081775972
-0.2027,-137.1845547479126
-0.2037000000000001,-137.79288060685457
-0.2047,-138.40120646579655
-0.2057000000000001,-138.88220830775063
-0.2067,-139.22173901971826
-0.2077000000000001,-139.80177065266292
-0.2087,-140.53742052859275
-0.2097000000000001,-141.27307040452254
-0.2107,-142.03701450644968
-0.2117000000000001,-142.7443701563822
-0.2127,-143.5931969363012
-0.2137000000000001,-144.44202371622026
-0.2147,-145.29085049613926
-0.2157000000000001,-145.9982061460718
-0.2167,-146.5640906660178
-0.21770000000000012,-146.9885040559773
-0.2187,-147.55438857592333
-0.21970000000000012,-147.97880196588284
-0.2207,-148.40321535584232
-0.22170000000000012,-148.68615761581535
-0.2227,-149.1105710057749
-0.22370000000000012,-149.6764555257209
-0.2247,-150.1008689156804
-0.22570000000000012,-150.66675343562642
-0.2267,-151.37410908555893
-0.22770000000000012,-152.0814647354914
-0.22870000000000001,-152.93029151541046
-0.22970000000000013,-153.63764716534297
-0.23070000000000002,-154.3450028152755
-0.23170000000000013,-154.9108873352215
-0.23270000000000002,-155.47677185516753
-0.23370000000000013,-155.75971411514055
-0.23470000000000002,-156.18412750510007
-0.23570000000000013,-156.60854089505958
-0.23670000000000002,-157.03295428501906
-0.2376999999999999,-157.31589654499206
-0.23870000000000002,-157.7403099349516
-0.2396999999999999,-158.1647233249111
-0.24070000000000003,-158.87207897484362
-0.24169999999999991,-159.57943462477613
-0.24270000000000003,-160.42826140469515
-0.24369999999999992,-161.2770881846142
-0.24470000000000003,-162.2673860945197
-0.24569999999999992,-163.25768400442522
-0.24670000000000003,-164.24798191433075
-0.24769999999999992,-165.09680869424977
-0.24870000000000003,-165.5212220842093
-0.24969999999999992,-165.6626932141958
-0.25070000000000003,-165.3797509542228
-0.2516999999999999,-165.2382798242363
-0.25270000000000004,-165.5212220842093
-0.2536999999999999,-166.0871066041553
-0.25470000000000004,-167.07740451406085
-0.2556999999999999,-168.20917355395284
-0.25670000000000004,-169.19947146385837
-0.25769999999999993,-169.9068271137909
-0.25870000000000004,-170.47271163373694
-0.25969999999999993,-170.75565389370993
-0.26070000000000004,-170.89712502369645
-0.26169999999999993,-170.89712502369645
-0.26270000000000004,-171.03859615368293
-0.26369999999999993,-171.18006728366944
-0.26470000000000005,-171.74595180361547
-0.26569999999999994,-172.59477858353446
-0.26670000000000005,-173.302134233467
-0.26769999999999994,-174.150961013386
-0.26870000000000005,-175.14125892329156
-0.26969999999999994,-175.99008570321055
-0.27070000000000005,-176.6974413531431
-0.27169999999999994,-176.8389124831296
-0.27270000000000005,-176.98038361311612
-0.27369999999999994,-177.2633258730891
-0.27470000000000006,-177.54626813306209
-0.27569999999999995,-178.1121526530081
-0.27670000000000006,-178.96097943292713
-0.27769999999999995,-180.09274847281918
-0.27870000000000006,-180.94157525273818
-0.27969999999999995,-181.36598864269772
-0.28070000000000006,-181.64893090267074
-0.28169999999999995,-181.79040203265723
-0.28270000000000006,-181.93187316264374
-0.28369999999999995,-182.21481542261674
-0.28470000000000006,-182.63922881257625
-0.28569999999999995,-183.20511333252225
-0.28670000000000007,-183.91246898245475
-0.28769999999999996,-184.47835350240078
-0.28870000000000007,-184.9027668923603
-0.28969999999999996,-185.1857091523333
-0.29070000000000007,-185.3271802823198
-0.29169999999999996,-185.46865141230631
-0.29270000000000007,-185.7515936722793
-0.29369999999999996,-186.03453593225234
-0.2947000000000001,-186.31747819222534
-0.29569999999999996,-186.88336271217133
-0.2967000000000001,-187.30777610213087
-0.29769999999999996,-187.73218949209036
-0.2987000000000001,-188.01513175206335
-0.29969999999999997,-188.4395451420229
-0.3007000000000001,-188.8639585319824
-0.30169999999999997,-189.1469007919554
-0.3027000000000001,-189.42984305192843
-0.30369999999999997,-189.71278531190143
-0.3047000000000001,-190.13719870186094
-0.30569999999999997,-190.42014096183394
-0.3067000000000001,-190.84455435179345
-0.3077,-191.268967741753
-0.3087000000000001,-191.551910001726
-0.3097,-191.9763233916855
-0.3107000000000001,-192.11779452167198
-0.3117,-192.54220791163152
-0.3127000000000001,-192.82515017160452
-0.3137,-193.10809243157752
-0.3147000000000001,-193.532505821537
-0.3157,-193.81544808151003
-0.3167000000000001,-194.09839034148303
-0.3177,-194.2398614714695
-0.3187000000000001,-194.38133260145605
-0.3197,-194.52280373144254
-0.3207000000000001,-194.52280373144254
-0.3217,-194.52280373144254
-0.3227000000000001,-194.52280373144254
-0.3237,-194.52280373144254
-0.3247000000000001,-194.66427486142905
-0.3257,-194.94721712140205
-0.3267000000000001,-195.23015938137505
-0.3277,-195.51310164134807
-0.3287000000000001,-195.79604390132107
-0.3297,-196.0789861612941
-0.3307000000000001,-196.0789861612941
-0.3317,-196.0789861612941
-0.3327000000000001,-196.50339955125358
-0.3337,-197.21075520118612
-0.3347000000000001,-197.91811085111863
-0.3357,-198.76693763103765
-0.3367000000000001,-199.33282215098367
-0.3377,-199.61576441095667
-0.3387000000000001,-199.61576441095667
-0.3397,-199.61576441095667
-0.3407000000000001,-199.61576441095667
-0.3417,-199.75723554094319
-0.3427000000000001,-200.18164893090267
-0.3437,-200.6060623208622
-0.3447000000000001,-201.17194684080823
-0.3457,-201.73783136075423
-0.3467000000000001,-202.02077362072723
-0.3477,-202.16224475071377
-0.3487000000000001,-202.30371588070025
-0.3497,-202.44518701068677
-0.3507000000000001,-202.58665814067325
-0.3517,-203.01107153063276
-0.3527000000000001,-203.29401379060576
-0.3537,-203.71842718056527
-0.3547000000000001,-204.2843117005113
-0.3557,-204.7087250904708
-0.35670000000000013,-205.13313848043032
-0.3577,-205.41608074040332
-0.35870000000000013,-205.84049413036286
-0.3597,-206.12343639033585
-0.36070000000000013,-206.54784978029537
-0.3617,-206.97226317025488
-0.3626999999999999,-207.3966765602144
-0.3637,-207.8210899501739
-0.3646999999999999,-208.24550334013338
-0.3657,-208.52844560010638
-0.3666999999999999,-208.8113878600794
-0.3677,-209.0943301200524
-0.3686999999999999,-209.37727238002543
-0.36970000000000003,-209.8016857699849
-0.3706999999999999,-210.36757028993094
-0.37170000000000003,-210.79198367989048
-0.3726999999999999,-211.21639706985
-0.37370000000000003,-211.782281589796
-0.3746999999999999,-212.065223849769
-0.37570000000000003,-212.34816610974204
-0.3766999999999999,-212.631108369715
-0.37770000000000004,-212.914050629688
-0.3786999999999999,-213.19699288966103
-0.37970000000000004,-213.47993514963403
-0.3806999999999999,-213.62140627962054
-0.38170000000000004,-213.90434853959354
-0.38269999999999993,-214.18729079956654
-0.38370000000000004,-214.61170418952605
-0.38469999999999993,-215.03611757948556
-0.38570000000000004,-215.4605309694451
-0.38669999999999993,-214.47023305953954
-0.38570000000000004,-210.93345480987696
-0.38469999999999993,-207.8210899501739
-0.38370000000000004,-204.5672539604843
-0.38269999999999993,-201.4548891007812
-0.38170000000000004,-198.62546650105114
-0.3806999999999999,-195.79604390132107
-0.37970000000000004,-193.10809243157752
-0.3786999999999999,-190.56161209182042
-0.37770000000000004,-188.01513175206335
-0.3766999999999999,-185.3271802823198
-0.37570000000000003,-182.78069994256273
-0.3746999999999999,-180.37569073279218
-0.37370000000000003,-177.9706815230216
-0.3726999999999999,-175.56567231325104
-0.37170000000000003,-173.302134233467
-0.3706999999999999,-171.03859615368293
-0.36970000000000003,-168.77505807389886
-0.3686999999999999,-166.51151999411482
-0.3677,-164.10651078434424
-0.3666999999999999,-161.9844438345467
-0.3657,-159.86237688474912
-0.3646999999999999,-157.7403099349516
-0.3637,-155.61824298515404
-0.3626999999999999,-153.63764716534297
-0.3617,-151.5155802155454
-0.36070000000000013,-149.39351326574788
-0.3597,-147.4129174459368
-0.35870000000000013,-145.43232162612577
-0.3577,-143.4517258063147
-0.35670000000000013,-141.47112998650366
-0.3557,-139.57541684468453
-0.3547000000000001,-137.70799792886265
-0.3537,-135.82643190004217
-0.3527000000000001,-133.90242453222572
-0.3517,-131.99256427740792
-0.3507000000000001,-130.11099824858744
-0.3497,-128.28602067176152
-0.3487000000000001,-126.48933732093293
-0.3477,-124.70680108310299
-0.3467000000000001,-122.95255907127036
-0.3457,-121.2549055114323
-0.3447000000000001,-119.55725195159425
-0.3437,-117.85959839175621
-0.3427000000000001,-116.14779771891952
-0.3417,-114.45014415908147
-0.3407000000000001,-112.75249059924342
-0.3397,-111.01239570040943
-0.3387000000000001,-109.39962481856328
-0.3377,-107.78685393671715
-0.3367000000000001,-106.15993594187235
-0.3357,-104.64619485101677
-0.3347000000000001,-103.07586530816658
-0.3337,-101.50553576531638
-0.3327000000000001,-99.93520622246619
-0.3317,-98.40731801861195
-0.3307000000000001,-96.87942981475771
-0.3297,-95.35154161090348
-0.3287000000000001,-93.86609474604518
-0.3277,-92.33820654219093
-0.3267000000000001,-90.81031833833671
-0.3257,-89.46634260346492
-0.3247000000000001,-88.19310243358639
-0.3237,-87.01889205469841
-0.3227000000000001,-85.75979899781852
-0.3217,-84.44411748894404
-0.3207000000000001,-83.08599464107361
-0.3197,-81.61469488921396
-0.3187000000000001,-80.12924802435568
-0.3177,-78.64380115949739
-0.3167000000000001,-77.1583542946391
-0.3157,-75.71534876877676
-0.3147000000000001,-74.32893169490903
-0.3137,-73.01325018603454
-0.3127000000000001,-71.7117157901587
-0.3117,-70.39603428128423
-0.3107000000000001,-69.13694122440434
-0.3097,-67.86370105452582
-0.3087000000000001,-66.56216665864997
-0.3077,-65.3030736017701
-0.3067000000000001,-64.02983343189156
-0.30569999999999997,-62.77074037501168
-0.3047000000000001,-61.53994154412909
-0.30369999999999997,-60.36573116524111
-0.3027000000000001,-59.10663810836124
-0.30169999999999997,-57.87583927747865
-0.3007000000000001,-56.61674622059877
-0.29969999999999997,-55.357653163718886
-0.2987000000000001,-54.08441299384035
-0.29769999999999996,-52.91020261495237
-0.2967000000000001,-51.73599223606439
-0.29569999999999996,-50.547634744177756
-0.2947000000000001,-49.373424365289786
-0.29369999999999996,-48.1992139864018
-0.29270000000000007,-46.982562268517874
-0.29169999999999996,-45.79420477663124
-0.29070000000000007,-44.619994397743255
-0.28969999999999996,-43.44578401885527
-0.28870000000000007,-42.3564563179592
-0.28769999999999996,-41.30956995605907
-0.28670000000000007,-40.30512493315489
-0.28569999999999995,-39.30067991025072
-0.28470000000000006,-38.29623488734655
-0.28369999999999995,-37.249348525446415
-0.28270000000000006,-36.244903502542236
-0.28169999999999995,-35.15557580164616
-0.28070000000000006,-34.10868943974604
-0.27969999999999995,-33.01936173884996
-0.27870000000000006,-32.01491671594578
-0.27769999999999995,-31.052913032037555
-0.27670000000000006,-30.10505646112798
-0.27569999999999995,-29.100611438223805
-0.27470000000000006,-28.13860775431558
-0.27369999999999994,-27.134162731411404
-0.27270000000000005,-26.129717708507226
-0.27169999999999994,-25.0828313466071
-0.27070000000000005,-24.035944984706973
-0.26969999999999994,-23.031499961802798
-0.26870000000000005,-22.027054938898623
-0.26769999999999994,-21.022609915994444
