Potential V vs RHE, Current mA cm-2
0.013299999999999867,10.64004368628494
0.012299999999999978,8.939560703847167
0.011299999999999866,7.369231160996977
0.010299999999999976,5.929055057734368
0.009299999999999864,4.534149716067443
0.008299999999999974,3.225541763692284
0.007299999999999862,1.9607898616129409
0.006299999999999972,0.7393281253094681
0.00529999999999986,-0.4384190318281749
0.0042999999999999705,-1.6156003044458718
0.0032999999999998586,-2.706342716641815
0.0022999999999999687,-3.840941179133574
0.0012999999999998568,-4.974124930325469
0.00029999999999996696,-6.064867342521412
-0.000700000000000145,-7.155609754717355
-0.0017000000000000348,-8.158640066321666
-0.0027000000000001467,-9.161670377925978
-0.0037000000000000366,-10.164700689530287
-0.0047000000000001485,-11.123874950838783
-0.005700000000000038,-12.084463923447142
-0.00670000000000015,-12.99978213445982
-0.00770000000000004,-13.916515056772363
-0.008700000000000152,-14.826174422585586
-0.009700000000000042,-15.74573676749786
-0.010700000000000154,-16.665299112410132
-0.011700000000000044,-17.584861457322408
-0.012700000000000156,-18.44783535024008
-0.013700000000000045,-19.3249563561564
-0.014700000000000157,-20.244518701068674
-0.015700000000000047,-21.022609915994444
-0.01670000000000016,-21.899730921910766
-0.01770000000000005,-22.67782213683654
-0.01870000000000016,-23.51250180375691
-0.01970000000000005,-24.24815167968673
-0.020700000000000163,-25.04039000761115
-0.021700000000000053,-25.77603988354097
-0.022700000000000164,-26.568278211465387
-0.023700000000000054,-27.34636942639116
-0.024700000000000166,-28.18104909331153
-0.025700000000000056,-28.959140308237306
-0.026700000000000168,-29.751378636161718
-0.027700000000000058,-30.529469851087494
-0.02870000000000017,-31.27926684001596
-0.02970000000000006,-32.05735805494172
-0.03070000000000017,-32.807155043870196
-0.03170000000000006,-33.50036358080407
-0.03270000000000017,-34.236013456733886
-0.03370000000000006,-34.98581044566235
-0.034700000000000175,-35.636577643600276
-0.035700000000000065,-36.37222751953009
-0.03670000000000018,-37.07958316946261
-0.03770000000000007,-37.81523304539243
-0.03870000000000018,-38.5650300343209
-0.03970000000000007,-39.30067991025072
-0.04070000000000018,-40.03632978618054
-0.04170000000000007,-40.78612677510901
-0.04270000000000018,-41.47933531204288
-0.04370000000000007,-42.229132300971344
-0.044700000000000184,-42.87989949890926
-0.045700000000000074,-43.57310803584313
-0.046700000000000186,-44.28046368577565
-0.047700000000000076,-44.93123088371356
-0.04870000000000019,-45.581998081651484
-0.04970000000000008,-46.2327652795894
-0.05070000000000019,-46.88353247752732
-0.05170000000000008,-47.590888127459834
-0.05270000000000019,-48.1992139864018
-0.05370000000000008,-48.89242252333566
-0.05470000000000019,-49.68466085126009
-0.05570000000000008,-50.46275206618586
-0.056700000000000195,-51.25499039411028
-0.057700000000000085,-51.990640270040096
-0.058700000000000196,-52.64140746797801
-0.059700000000000086,-53.348763117910536
-0.0607000000000002,-53.999530315848446
-0.06170000000000009,-54.65029751378637
-0.0627000000000002,-55.21618203373238
-0.06370000000000009,-55.838655005673
-0.0647000000000002,-56.53186354260687
-0.06570000000000009,-57.22507207954074
-0.0667000000000002,-57.974869068469204
-0.0677000000000001,-58.75296028339497
-0.0687000000000002,-59.54519861131939
-0.0697000000000001,-60.32328982624517
-0.07070000000000021,-61.07308681517363
-0.0717000000000001,-61.7662953521075
-0.07270000000000021,-62.41706255004542
-0.0737000000000001,-63.06782974798333
-0.07470000000000021,-63.732744058919906
-0.0757000000000001,-64.42595259585376
-0.07670000000000021,-65.0767197937917
-0.0777000000000001,-65.76992833072556
-0.07870000000000021,-66.51972531965401
-0.0797000000000001,-67.21293385658788
-0.08070000000000022,-67.96273084551636
-0.0817000000000001,-68.61349804345427
-0.08270000000000022,-69.26426524139221
-0.08370000000000011,-69.91503243933012
-0.08470000000000022,-70.48091695927613
-0.08570000000000011,-71.06094859222078
-0.08670000000000022,-71.66927445116276
-0.08770000000000011,-72.27760031010472
-0.08870000000000022,-72.92836750804264
-0.08970000000000011,-73.62157604497652
-0.09070000000000022,-74.32893169490903
-0.09170000000000011,-75.06458157083884
-0.09270000000000023,-75.71534876877676
-0.09370000000000012,-76.42270441870929
-0.09470000000000023,-77.11591295564315
-0.09570000000000012,-77.76668015358106
-0.09670000000000023,-78.47403580351359
-0.09770000000000012,-79.1248030014515
-0.09870000000000023,-79.81801153838538
-0.09970000000000012,-80.61024986630979
-0.10070000000000023,-81.3458997422396
-0.10170000000000012,-82.13813807016405
-0.10270000000000024,-82.87378794609386
-0.10370000000000013,-83.60943782202366
-0.10470000000000024,-84.31679347195619
-0.10570000000000013,-85.09488468688197
-0.10670000000000024,-85.88712301480638
-0.10770000000000013,-86.66521422973216
-0.10870000000000024,-87.41501121866061
-0.10970000000000013,-88.15066109459043
-0.11070000000000024,-88.8438696315243
-0.11170000000000013,-89.59366662045278
-0.11270000000000002,-90.24443381839069
-0.11370000000000013,-90.93764235532454
-0.11470000000000002,-91.60255666626112
-0.11570000000000014,-92.29576520319499
-0.11670000000000003,-92.94653240113291
-0.11770000000000014,-93.73877072905732
-0.11870000000000003,-94.47442060498715
-0.11970000000000014,-95.26665893291157
-0.12070000000000003,-96.0871914868333
-0.12170000000000014,-96.87942981475771
-0.12270000000000003,-97.6575210296835
-0.12370000000000014,-98.4497593576079
-0.12470000000000003,-99.22785057253368
-0.12570000000000014,-99.93520622246619
-0.12670000000000003,-100.670856098396
-0.12770000000000015,-101.32162329633393
-0.12870000000000004,-101.97239049427183
-0.12970000000000015,-102.63730480520842
-0.13070000000000004,-103.33051334214227
-0.13170000000000015,-104.06616321807209
-0.13270000000000004,-104.81596020700057
-0.13370000000000015,-105.59405142192634
-0.13470000000000004,-106.4287310888467
-0.13570000000000015,-107.20682230377247
-0.13670000000000004,-108.0839433096888
-0.13770000000000016,-108.87618163761321
-0.13870000000000005,-109.69671419153494
-0.13970000000000016,-110.48895251945936
-0.14070000000000005,-111.09727837840134
-0.14170000000000016,-111.74804557633925
-0.14270000000000005,-112.39881277427718
-0.14370000000000016,-113.00713863321914
-0.14470000000000005,-113.75693562214758
-0.14570000000000016,-114.4925854980774
-0.14670000000000005,-115.2423824870059
-0.14770000000000016,-116.06291504092759
-0.14870000000000005,-116.89759470784797
-0.14970000000000017,-117.63324458377778
-0.15070000000000006,-118.38304157270628
-0.15170000000000017,-119.03380877064419
-0.15270000000000006,-119.64213462958614
-0.15370000000000017,-120.25046048852812
-0.15470000000000006,-120.85878634747009
-0.15570000000000017,-121.69346601439047
-0.15670000000000006,-122.52814568131083
-0.15770000000000017,-123.43356091322445
-0.15870000000000006,-124.39556459713268
-0.15970000000000018,-125.31512694204494
-0.16070000000000007,-126.19224794796128
-0.16170000000000018,-126.97033916288706
-0.16270000000000007,-127.66354769982091
-0.16370000000000018,-128.32846201075745
-0.16470000000000007,-128.9792292086954
-0.16570000000000018,-129.6299964066333
-0.16670000000000007,-130.28076360457123
-0.16770000000000018,-130.90323657651186
-0.16870000000000007,-131.55400377444977
-0.16970000000000018,-132.20477097238768
-0.17070000000000007,-132.89797950932152
-0.17170000000000019,-133.5628938202581
-0.17270000000000008,-134.29854369618792
-0.1737000000000002,-134.9917522331218
-0.17470000000000008,-135.74154922205025
-0.1757000000000002,-136.43475775898415
-0.17670000000000008,-137.12796629591801
-0.1777000000000002,-137.79288060685457
-0.17870000000000008,-138.48608914378846
-0.1797000000000002,-139.27832747171286
-0.18070000000000008,-140.0988600256346
-0.1817000000000002,-140.93353969255494
-0.18270000000000008,-141.75407224647665
-0.1837000000000002,-142.4614278964092
-0.1847000000000001,-143.0273124163552
-0.1857000000000002,-143.73466806628772
-0.1867000000000001,-144.30055258623375
-0.1877000000000002,-144.86643710617977
-0.1887000000000001,-145.43232162612577
-0.1897000000000002,-145.9982061460718
-0.1907000000000001,-146.7055617960043
-0.1917000000000001,-147.27144631595033
-0.19269999999999998,-147.97880196588284
-0.1937000000000001,-148.54468648582886
-0.19469999999999998,-149.39351326574788
-0.1957000000000001,-150.24234004566688
-0.19669999999999999,-150.94969569559944
-0.1977000000000001,-151.7985224755184
-0.1987,-152.64734925543743
-0.1997000000000001,-153.49617603535648
-0.2007,-154.203531685289
-0.2017000000000001,-154.9108873352215
-0.2027,-155.61824298515404
-0.2037000000000001,-156.04265637511355
-0.2047,-156.60854089505958
-0.2057000000000001,-157.03295428501906
-0.2067,-157.59883880496508
-0.2077000000000001,-158.1647233249111
-0.2087,-158.87207897484362
-0.2097000000000001,-159.57943462477613
-0.2107,-160.14531914472215
-0.2117000000000001,-160.8526747946547
-0.2127,-161.5600304445872
-0.2137000000000001,-162.12591496453322
-0.2147,-162.6917994844792
-0.2157000000000001,-163.25768400442522
-0.2167,-163.68209739438475
-0.21770000000000012,-164.10651078434424
-0.2187,-164.67239530429026
-0.21970000000000012,-165.2382798242363
-0.2207,-165.8041643441823
-0.22170000000000012,-166.3700488641283
-0.2227,-167.07740451406085
-0.22370000000000012,-167.78476016399335
-0.2247,-168.49211581392586
-0.22570000000000012,-169.19947146385837
-0.2267,-170.0482982437774
-0.22770000000000012,-170.75565389370993
-0.22870000000000001,-171.60448067362896
-0.22970000000000013,-172.31183632356147
-0.23070000000000002,-173.01919197349397
-0.23170000000000013,-173.58507649344
-0.23270000000000002,-174.43390327335902
-0.23370000000000013,-175.14125892329156
-0.23470000000000002,-175.70714344323756
-0.23570000000000013,-176.4144990931701
-0.23670000000000002,-176.98038361311612
-0.2376999999999999,-177.54626813306209
-0.23870000000000002,-178.1121526530081
-0.2396999999999999,-178.81950830294062
-0.24070000000000003,-179.52686395287316
-0.24169999999999991,-180.09274847281918
-0.24270000000000003,-180.8001041227517
-0.24369999999999992,-181.36598864269772
-0.24470000000000003,-182.07334429263022
-0.24569999999999992,-182.63922881257625
-0.24670000000000003,-183.20511333252225
-0.24769999999999992,-183.77099785246824
-0.24870000000000003,-184.33688237241427
-0.24969999999999992,-184.9027668923603
-0.25070000000000003,-185.6101225422928
-0.2516999999999999,-186.17600706223882
-0.25270000000000004,-186.74189158218485
-0.2536999999999999,-187.44924723211736
-0.25470000000000004,-188.15660288204987
-0.2556999999999999,-188.8639585319824
-0.25670000000000004,-189.57131418191491
-0.25769999999999993,-190.13719870186094
-0.25870000000000004,-190.56161209182042
-0.25969999999999993,-190.98602548177996
-0.26070000000000004,-191.551910001726
-0.26169999999999993,-191.83485226169896
-0.26270000000000004,-192.11779452167198
-0.26369999999999993,-192.54220791163152
-0.26470000000000005,-192.966621301591
-0.26569999999999994,-193.532505821537
-0.26670000000000005,-194.09839034148303
-0.26769999999999994,-194.66427486142905
-0.26870000000000005,-195.23015938137505
-0.26969999999999994,-195.65457277133459
-0.27070000000000005,-196.2204572912806
-0.27169999999999994,-196.6448706812401
-0.27270000000000005,-197.35222633117263
-0.27369999999999994,-197.91811085111863
-0.27470000000000006,-198.62546650105114
-0.27569999999999995,-199.19135102099716
-0.27670000000000006,-199.75723554094319
-0.27769999999999995,-200.4645911908757
-0.27870000000000006,-201.17194684080823
-0.27969999999999995,-201.59636023076774
-0.28070000000000006,-202.16224475071377
-0.28169999999999995,-202.86960040064628
-0.28270000000000006,-203.57695605057876
-0.28369999999999995,-204.2843117005113
-0.28470000000000006,-204.9916673504438
-0.28569999999999995,-205.69902300037634
-0.28670000000000007,-206.12343639033585
-0.28769999999999996,-206.54784978029537
-0.28870000000000007,-206.97226317025488
-0.28969999999999996,-207.1137343002414
-0.29070000000000007,-207.5381476902009
-0.29169999999999996,-207.8210899501739
-0.29270000000000007,-208.3869744701199
-0.29369999999999996,-208.95285899006592
-0.2947000000000001,-209.51874351001192
-0.29569999999999996,-210.08462802995794
-0.2967000000000001,-210.79198367989048
-0.29769999999999996,-211.35786819983647
-0.2987000000000001,-211.782281589796
-0.29969999999999997,-212.34816610974204
-0.3007000000000001,-212.77257949970152
-0.30169999999999997,-213.05552175967455
-0.3027000000000001,-213.47993514963403
-0.30369999999999997,-213.90434853959354
-0.3047000000000001,-214.61170418952605
-0.30569999999999997,-215.17758870947208
-0.3067000000000001,-215.88494435940459
-0.3077,-216.4508288793506
-0.3087000000000001,-217.01671339929663
-0.3097,-217.72406904922914
-0.3107000000000001,-218.28995356917517
-0.3117,-218.85583808912116
-0.3127000000000001,-219.42172260906716
-0.3137,-219.8461359990267
-0.3147000000000001,-220.41202051897272
-0.3157,-220.97790503891872
-0.3167000000000001,-221.40231842887826
-0.3177,-221.96820294882426
-0.3187000000000001,-222.3926163387838
-0.3197,-222.81702972874328
-0.3207000000000001,-223.2414431187028
-0.3217,-223.6658565086623
-0.3227000000000001,-224.09026989862178
-0.3237,-224.5146832885813
-0.3247000000000001,-225.08056780852735
-0.3257,-225.78792345845983
-0.3267000000000001,-226.21233684841937
-0.3277,-226.63675023837888
-0.3287000000000001,-227.2026347583249
-0.3297,-227.62704814828442
-0.3307000000000001,-228.0514615382439
-0.3317,-228.61734605818995
-0.3327000000000001,-229.04175944814943
-0.3337,-229.60764396809546
-0.3347000000000001,-230.17352848804146
-0.3357,-230.7394130079875
-0.3367000000000001,-231.3052975279335
-0.3377,-231.729710917893
-0.3387000000000001,-232.29559543783904
-0.3397,-232.72000882779852
-0.3407000000000001,-233.00295108777152
-0.3417,-233.4273644777311
-0.3427000000000001,-233.85177786769057
-0.3437,-234.4176623876366
-0.3447000000000001,-234.84207577759608
-0.3457,-235.12501803756908
-0.3467000000000001,-235.54943142752862
-0.3477,-236.1153159474746
-0.3487000000000001,-236.3982582074476
-0.3497,-236.82267159740715
-0.3507000000000001,-237.24708498736666
-0.3517,-237.67149837732615
-0.3527000000000001,-238.0959117672857
-0.3537,-238.5203251572452
-0.3547000000000001,-238.8032674172182
-0.3557,-239.0862096771912
-0.35670000000000013,-239.36915193716422
-0.3577,-239.65209419713722
-0.35870000000000013,-240.0765075870967
-0.3597,-240.35944984706975
-0.36070000000000013,-240.64239210704275
-0.3617,-241.06680549700224
-0.3626999999999999,-241.34974775697523
-0.3637,-241.6326900169483
-0.3646999999999999,-241.9156322769213
-0.3657,-242.19857453689428
-0.3666999999999999,-242.48151679686728
-0.3677,-242.62298792685377
-0.3686999999999999,-242.90593018682682
-0.36970000000000003,-243.18887244679982
-0.3706999999999999,-243.3303435767863
-0.37170000000000003,-243.6132858367593
-0.3726999999999999,-243.8962280967323
-0.37370000000000003,-244.17917035670533
-0.3746999999999999,-244.60358374666484
-0.37570000000000003,-244.8865260066378
-0.3766999999999999,-245.31093939659738
-0.37770000000000004,-245.73535278655686
-0.3786999999999999,-246.01829504652986
-0.37970000000000004,-246.4427084364894
-0.3806999999999999,-246.7256506964624
-0.38170000000000004,-247.1500640864219
-0.38269999999999993,-247.57447747638145
-0.38370000000000004,-247.85741973635444
-0.38469999999999993,-248.28183312631393
-0.38570000000000004,-248.56477538628693
-0.38669999999999993,-247.4330063463949
-0.38570000000000004,-243.8962280967323
-0.38469999999999993,-240.50092097705624
-0.38370000000000004,-237.10561385738015
-0.38269999999999993,-233.85177786769057
-0.38170000000000004,-230.880884137974
-0.3806999999999999,-227.7685192782709
-0.37970000000000004,-224.93909667854084
-0.3786999999999999,-221.96820294882426
-0.37770000000000004,-219.28025147908068
-0.3766999999999999,-216.59230000933712
-0.37570000000000003,-214.18729079956654
-0.3746999999999999,-211.64081045980947
-0.37370000000000003,-209.0943301200524
-0.3726999999999999,-206.68932091028185
-0.37170000000000003,-204.42578283049778
-0.3706999999999999,-202.02077362072723
-0.36970000000000003,-199.61576441095667
-0.3686999999999999,-197.35222633117263
-0.3677,-195.08868825138856
-0.3666999999999999,-192.683679041618
-0.3657,-190.27866983184742
-0.3646999999999999,-188.01513175206335
-0.3637,-185.6101225422928
-0.3626999999999999,-183.48805559249527
-0.3617,-181.2245175127112
-0.36070000000000013,-179.10245056291362
-0.3597,-176.98038361311612
-0.35870000000000013,-174.99978779330505
-0.3577,-173.01919197349397
-0.35670000000000013,-171.03859615368293
-0.3557,-169.0580003338719
-0.3547000000000001,-167.07740451406085
-0.3537,-164.9553375642633
-0.3527000000000001,-162.97474174445222
-0.3517,-160.99414592464117
-0.3507000000000001,-159.01355010483013
-0.3497,-157.03295428501906
-0.3487000000000001,-155.19382959519453
-0.3477,-153.35470490536997
-0.3467000000000001,-151.5155802155454
-0.3457,-149.8179266557074
-0.3447000000000001,-147.97880196588284
-0.3437,-146.28114840604482
-0.3427000000000001,-144.44202371622026
-0.3417,-142.7443701563822
-0.3407000000000001,-140.84865701456303
-0.3397,-139.05197366373446
-0.3387000000000001,-137.22699608690854
-0.3377,-135.43031273607997
-0.3367000000000001,-133.69021783724597
-0.3357,-132.07744695539984
-0.3347000000000001,-130.46467607355368
-0.3337,-128.89434653070347
-0.3327000000000001,-127.23913430986138
-0.3317,-125.6688047670112
-0.3307000000000001,-123.91456275517855
-0.3297,-122.0471438393567
-0.3287000000000001,-120.12313647154028
-0.3277,-118.42548291170223
-0.3267000000000001,-117.02491872483584
-0.3257,-115.5819131989735
-0.3247000000000001,-114.23793746410173
-0.3237,-112.87981461623129
-0.3227000000000001,-111.49339754236355
-0.3217,-110.09283335549715
-0.3207000000000001,-108.69226916863077
-0.3197,-107.26341075576708
-0.3187000000000001,-105.7779638909088
-0.3177,-104.16519300906265
-0.3167000000000001,-102.45339233622596
-0.3157,-100.75573877638791
-0.3147000000000001,-99.10052655554581
-0.3137,-97.57263835169158
-0.3127000000000001,-96.0871914868333
-0.3117,-94.70077441296557
-0.3107000000000001,-93.25776888710321
-0.3097,-91.85720470023682
-0.3087000000000001,-90.47078762636909
-0.3077,-89.07022343950271
-0.3067000000000001,-87.66965925263632
-0.30569999999999997,-86.18421238777805
-0.3047000000000001,-84.6563241839238
-0.30369999999999997,-83.22746577106011
-0.3027000000000001,-81.74201890620182
-0.30169999999999997,-80.29901338033947
-0.3007000000000001,-78.91259630647174
-0.29969999999999997,-77.55447345860131
-0.2987000000000001,-76.19635061073087
-0.29769999999999996,-74.93725755385098
-0.2967000000000001,-73.6781644969711
-0.29569999999999996,-72.44736566608852
-0.2947000000000001,-71.18827260920865
-0.29369999999999996,-69.95747377832606
-0.29270000000000007,-68.69838072144618
-0.29169999999999996,-67.48172900356225
-0.29070000000000007,-66.20848883368372
-0.28969999999999996,-64.99183711579978
-0.28870000000000007,-63.732744058919906
-0.28769999999999996,-62.501945228037314
-0.28670000000000007,-61.28529351015339
-0.28569999999999995,-60.06864179226946
-0.28470000000000006,-58.880284300382826
-0.28369999999999995,-57.62119124350295
-0.28270000000000006,-56.44698086461496
-0.28169999999999995,-55.21618203373238
-0.28070000000000006,-53.999530315848446
-0.27969999999999995,-52.78287859796452
-0.27870000000000006,-51.55207976708194
-0.27769999999999995,-50.37786938819396
-0.27670000000000006,-49.24610034830193
-0.27569999999999995,-48.071889969413945
-0.27470000000000006,-46.88353247752732
-0.27369999999999994,-45.70932209863933
-0.27270000000000005,-44.4926703807554
-0.27169999999999994,-43.31846000186743
-0.27070000000000005,-42.130102509980794
-0.26969999999999994,-40.99833347008877
-0.26870000000000005,-39.90900576919269
-0.26769999999999994,-38.86211940729255
