Sept. 1, 2024   20:20:17
Cyclic Voltammetry
File: c:/users/guazh/data/20240829_batch_215_500/2024-08-29-exp241\exp241-2024-09-01t19_59_32-arkoh\exp241_cv_sr_500mvs_efin_-1900mv.bin
Data Source:  Experiment
Instrument Model:  CHI760E
Header: CV ran at 500 mVs
Note: 

Init E (V) = -1
High E (V) = -1
Low E (V) = -1.9
Final E (V) = -1
Init P/N = N
Scan Rate (V/s) = 0.5
Segment = 3
Sample Interval (V) = 0.001
Quiet Time (sec) = 2
Sensitivity (A/V) = 0.01
Comp R (ohm) = 2.4

Results:

Channel 1:
Segment 1:
Ep = -1.466V
ip = 5.966e-5A
Ah = 7.096e-7C

Segment 2:

Segment 3:

Potential/V, Current/A

-1.000, 3.239e-6
-1.001, 3.239e-6
-1.002, 6.322e-6
-1.003, 6.322e-6
-1.004, 6.322e-6
-1.005, 3.239e-6
-1.006, 6.322e-6
-1.007, 6.322e-6
-1.008, 6.322e-6
-1.009, 6.322e-6
-1.010, 6.322e-6
-1.011, 6.322e-6
-1.012, 6.322e-6
-1.013, 6.322e-6
-1.014, 6.322e-6
-1.015, 6.322e-6
-1.016, 6.322e-6
-1.017, 6.322e-6
-1.018, 6.322e-6
-1.019, 6.322e-6
-1.020, 6.322e-6
-1.021, 9.405e-6
-1.022, 9.405e-6
-1.023, 6.322e-6
-1.024, 9.405e-6
-1.025, 9.405e-6
-1.026, 9.405e-6
-1.027, 9.405e-6
-1.028, 9.405e-6
-1.029, 9.405e-6
-1.030, 9.405e-6
-1.031, 9.405e-6
-1.032, 9.405e-6
-1.033, 9.405e-6
-1.034, 9.405e-6
-1.035, 9.405e-6
-1.036, 9.405e-6
-1.037, 9.405e-6
-1.038, 9.405e-6
-1.039, 9.405e-6
-1.040, 9.405e-6
-1.041, 9.405e-6
-1.042, 9.405e-6
-1.043, 9.405e-6
-1.044, 9.405e-6
-1.045, 9.405e-6
-1.046, 9.405e-6
-1.047, 9.405e-6
-1.048, 9.405e-6
-1.049, 9.405e-6
-1.050, 9.405e-6
-1.051, 9.405e-6
-1.052, 9.405e-6
-1.053, 9.405e-6
-1.054, 9.405e-6
-1.055, 9.405e-6
-1.056, 9.405e-6
-1.057, 9.405e-6
-1.058, 9.405e-6
-1.059, 9.405e-6
-1.060, 9.405e-6
-1.061, 9.405e-6
-1.062, 9.405e-6
-1.063, 9.405e-6
-1.064, 9.405e-6
-1.065, 9.405e-6
-1.066, 9.405e-6
-1.067, 9.405e-6
-1.068, 9.405e-6
-1.069, 9.405e-6
-1.070, 9.405e-6
-1.071, 9.405e-6
-1.072, 9.405e-6
-1.073, 1.249e-5
-1.074, 9.405e-6
-1.075, 9.405e-6
-1.076, 9.405e-6
-1.077, 9.405e-6
-1.078, 9.405e-6
-1.079, 9.405e-6
-1.080, 9.405e-6
-1.081, 9.405e-6
-1.082, 9.405e-6
-1.083, 1.249e-5
-1.084, 9.405e-6
-1.085, 9.405e-6
-1.086, 1.249e-5
-1.087, 1.249e-5
-1.088, 9.405e-6
-1.089, 9.405e-6
-1.090, 9.405e-6
-1.091, 1.249e-5
-1.092, 9.405e-6
-1.093, 9.405e-6
-1.094, 9.405e-6
-1.095, 1.249e-5
-1.096, 9.405e-6
-1.097, 1.249e-5
-1.098, 9.405e-6
-1.099, 1.249e-5
-1.100, 1.249e-5
-1.101, 9.405e-6
-1.102, 1.249e-5
-1.103, 9.405e-6
-1.104, 1.249e-5
-1.105, 9.405e-6
-1.106, 1.249e-5
-1.107, 9.405e-6
-1.108, 1.249e-5
-1.109, 9.405e-6
-1.110, 1.249e-5
-1.111, 9.405e-6
-1.112, 1.249e-5
-1.113, 9.405e-6
-1.114, 1.249e-5
-1.115, 1.249e-5
-1.116, 1.249e-5
-1.117, 1.249e-5
-1.118, 9.405e-6
-1.119, 1.249e-5
-1.120, 1.249e-5
-1.121, 1.249e-5
-1.122, 1.249e-5
-1.123, 1.249e-5
-1.124, 1.249e-5
-1.125, 1.249e-5
-1.126, 1.249e-5
-1.127, 9.405e-6
-1.128, 1.249e-5
-1.129, 1.249e-5
-1.130, 1.249e-5
-1.131, 1.249e-5
-1.132, 1.249e-5
-1.133, 1.249e-5
-1.134, 1.249e-5
-1.135, 1.249e-5
-1.136, 1.249e-5
-1.137, 1.249e-5
-1.138, 1.249e-5
-1.139, 9.405e-6
-1.140, 1.249e-5
-1.141, 1.249e-5
-1.142, 1.249e-5
-1.143, 1.249e-5
-1.144, 1.249e-5
-1.145, 1.249e-5
-1.146, 1.249e-5
-1.147, 1.249e-5
-1.148, 1.249e-5
-1.149, 1.249e-5
-1.150, 1.249e-5
-1.151, 1.249e-5
-1.152, 1.249e-5
-1.153, 1.249e-5
-1.154, 1.249e-5
-1.155, 1.249e-5
-1.156, 1.249e-5
-1.157, 1.249e-5
-1.158, 1.249e-5
-1.159, 1.249e-5
-1.160, 1.249e-5
-1.161, 1.249e-5
-1.162, 1.249e-5
-1.163, 1.249e-5
-1.164, 1.249e-5
-1.165, 1.249e-5
-1.166, 1.557e-5
-1.167, 1.249e-5
-1.168, 1.249e-5
-1.169, 1.249e-5
-1.170, 1.249e-5
-1.171, 1.557e-5
-1.172, 1.249e-5
-1.173, 1.249e-5
-1.174, 1.249e-5
-1.175, 1.249e-5
-1.176, 1.249e-5
-1.177, 1.249e-5
-1.178, 1.249e-5
-1.179, 1.249e-5
-1.180, 1.249e-5
-1.181, 1.249e-5
-1.182, 1.557e-5
-1.183, 1.249e-5
-1.184, 1.249e-5
-1.185, 1.249e-5
-1.186, 1.557e-5
-1.187, 1.557e-5
-1.188, 1.249e-5
-1.189, 1.557e-5
-1.190, 1.557e-5
-1.191, 1.557e-5
-1.192, 1.249e-5
-1.193, 1.249e-5
-1.194, 1.557e-5
-1.195, 1.557e-5
-1.196, 1.557e-5
-1.197, 1.557e-5
-1.198, 1.557e-5
-1.199, 1.557e-5
-1.200, 1.557e-5
-1.201, 1.557e-5
-1.202, 1.557e-5
-1.203, 1.557e-5
-1.204, 1.557e-5
-1.205, 1.557e-5
-1.206, 1.557e-5
-1.207, 1.557e-5
-1.208, 1.557e-5
-1.209, 1.557e-5
-1.210, 1.557e-5
-1.211, 1.557e-5
-1.212, 1.557e-5
-1.213, 1.557e-5
-1.214, 1.557e-5
-1.215, 1.557e-5
-1.216, 1.557e-5
-1.217, 1.557e-5
-1.218, 1.557e-5
-1.219, 1.557e-5
-1.220, 1.557e-5
-1.221, 1.557e-5
-1.222, 1.557e-5
-1.223, 1.557e-5
-1.224, 1.557e-5
-1.225, 1.557e-5
-1.226, 1.865e-5
-1.227, 1.557e-5
-1.228, 1.865e-5
-1.229, 1.557e-5
-1.230, 1.557e-5
-1.231, 1.557e-5
-1.232, 1.557e-5
-1.233, 1.865e-5
-1.234, 1.557e-5
-1.235, 1.557e-5
-1.236, 1.557e-5
-1.237, 1.865e-5
-1.238, 1.557e-5
-1.239, 1.557e-5
-1.240, 1.557e-5
-1.241, 1.557e-5
-1.242, 1.557e-5
-1.243, 1.557e-5
-1.244, 1.557e-5
-1.245, 1.865e-5
-1.246, 1.865e-5
-1.247, 1.557e-5
-1.248, 1.865e-5
-1.249, 1.557e-5
-1.250, 1.865e-5
-1.251, 1.557e-5
-1.252, 1.557e-5
-1.253, 1.865e-5
-1.254, 1.865e-5
-1.255, 1.865e-5
-1.256, 1.865e-5
-1.257, 1.865e-5
-1.258, 1.557e-5
-1.259, 1.865e-5
-1.260, 1.557e-5
-1.261, 1.865e-5
-1.262, 1.865e-5
-1.263, 1.865e-5
-1.264, 1.865e-5
-1.265, 1.557e-5
-1.266, 1.865e-5
-1.267, 1.557e-5
-1.268, 1.865e-5
-1.269, 1.865e-5
-1.270, 1.865e-5
-1.271, 1.865e-5
-1.272, 1.865e-5
-1.273, 1.865e-5
-1.274, 1.865e-5
-1.275, 1.865e-5
-1.276, 1.865e-5
-1.277, 1.865e-5
-1.278, 1.865e-5
-1.279, 1.865e-5
-1.280, 1.865e-5
-1.281, 1.865e-5
-1.282, 1.865e-5
-1.283, 1.865e-5
-1.284, 1.865e-5
-1.285, 1.865e-5
-1.286, 1.865e-5
-1.287, 1.865e-5
-1.288, 1.865e-5
-1.289, 1.865e-5
-1.290, 1.865e-5
-1.291, 1.865e-5
-1.292, 1.865e-5
-1.293, 1.865e-5
-1.294, 1.865e-5
-1.295, 1.865e-5
-1.296, 1.865e-5
-1.297, 1.865e-5
-1.298, 1.865e-5
-1.299, 1.865e-5
-1.300, 1.865e-5
-1.301, 1.865e-5
-1.302, 1.865e-5
-1.303, 1.865e-5
-1.304, 1.865e-5
-1.305, 1.865e-5
-1.306, 1.865e-5
-1.307, 1.865e-5
-1.308, 1.865e-5
-1.309, 1.865e-5
-1.310, 1.865e-5
-1.311, 1.865e-5
-1.312, 1.865e-5
-1.313, 1.865e-5
-1.314, 1.865e-5
-1.315, 1.865e-5
-1.316, 2.174e-5
-1.317, 1.865e-5
-1.318, 1.865e-5
-1.319, 1.865e-5
-1.320, 1.865e-5
-1.321, 2.174e-5
-1.322, 1.865e-5
-1.323, 1.865e-5
-1.324, 2.174e-5
-1.325, 1.865e-5
-1.326, 1.865e-5
-1.327, 1.865e-5
-1.328, 1.865e-5
-1.329, 1.865e-5
-1.330, 2.174e-5
-1.331, 1.865e-5
-1.332, 2.174e-5
-1.333, 1.865e-5
-1.334, 1.865e-5
-1.335, 2.174e-5
-1.336, 1.865e-5
-1.337, 2.174e-5
-1.338, 1.865e-5
-1.339, 2.174e-5
-1.340, 2.174e-5
-1.341, 2.174e-5
-1.342, 1.865e-5
-1.343, 1.865e-5
-1.344, 2.174e-5
-1.345, 2.174e-5
-1.346, 2.174e-5
-1.347, 2.174e-5
-1.348, 2.174e-5
-1.349, 2.174e-5
-1.350, 2.174e-5
-1.351, 1.865e-5
-1.352, 2.174e-5
-1.353, 2.174e-5
-1.354, 2.174e-5
-1.355, 2.174e-5
-1.356, 2.174e-5
-1.357, 2.174e-5
-1.358, 2.174e-5
-1.359, 2.174e-5
-1.360, 2.174e-5
-1.361, 2.174e-5
-1.362, 2.174e-5
-1.363, 2.174e-5
-1.364, 2.174e-5
-1.365, 2.174e-5
-1.366, 2.174e-5
-1.367, 2.174e-5
-1.368, 2.174e-5
-1.369, 2.174e-5
-1.370, 2.174e-5
-1.371, 2.174e-5
-1.372, 2.174e-5
-1.373, 2.174e-5
-1.374, 2.174e-5
-1.375, 2.174e-5
-1.376, 2.174e-5
-1.377, 2.174e-5
-1.378, 2.174e-5
-1.379, 2.174e-5
-1.380, 2.174e-5
-1.381, 2.174e-5
-1.382, 2.174e-5
-1.383, 2.174e-5
-1.384, 2.174e-5
-1.385, 2.174e-5
-1.386, 2.482e-5
-1.387, 2.174e-5
-1.388, 2.174e-5
-1.389, 2.174e-5
-1.390, 2.174e-5
-1.391, 2.174e-5
-1.392, 2.174e-5
-1.393, 2.174e-5
-1.394, 2.174e-5
-1.395, 2.174e-5
-1.396, 2.174e-5
-1.397, 2.174e-5
-1.398, 2.174e-5
-1.399, 2.174e-5
-1.400, 2.174e-5
-1.401, 2.174e-5
-1.402, 2.174e-5
-1.403, 2.174e-5
-1.404, 2.174e-5
-1.405, 2.174e-5
-1.406, 2.174e-5
-1.407, 2.174e-5
-1.408, 2.174e-5
-1.409, 2.174e-5
-1.410, 2.174e-5
-1.411, 2.174e-5
-1.412, 2.174e-5
-1.413, 2.174e-5
-1.414, 2.482e-5
-1.415, 2.174e-5
-1.416, 2.174e-5
-1.417, 2.174e-5
-1.418, 2.174e-5
-1.419, 2.174e-5
-1.420, 2.482e-5
-1.421, 2.482e-5
-1.422, 2.174e-5
-1.423, 2.174e-5
-1.424, 2.174e-5
-1.425, 2.174e-5
-1.426, 2.174e-5
-1.427, 2.174e-5
-1.428, 2.174e-5
-1.429, 2.482e-5
-1.430, 2.174e-5
-1.431, 2.174e-5
-1.432, 2.174e-5
-1.433, 2.482e-5
-1.434, 2.482e-5
-1.435, 2.482e-5
-1.436, 2.482e-5
-1.437, 2.482e-5
-1.438, 2.482e-5
-1.439, 2.482e-5
-1.440, 2.482e-5
-1.441, 2.482e-5
-1.442, 2.482e-5
-1.443, 2.482e-5
-1.444, 2.482e-5
-1.445, 2.482e-5
-1.446, 2.482e-5
-1.447, 2.482e-5
-1.448, 2.482e-5
-1.449, 2.482e-5
-1.450, 2.174e-5
-1.451, 6.322e-6
-1.452, 3.239e-6
-1.453, 3.239e-6
-1.454, 1.559e-7
-1.455, 1.559e-7
-1.456, 1.559e-7
-1.457, 1.559e-7
-1.458, 1.559e-7
-1.459, 1.559e-7
-1.460, 1.559e-7
-1.461, 1.559e-7
-1.462, 3.239e-6
-1.463, 1.559e-7
-1.464, 1.559e-7
-1.465, 1.559e-7
-1.466, 8.032e-5
-1.467, 4.640e-5
-1.468, 3.715e-5
-1.469, 3.407e-5
-1.470, 3.407e-5
-1.471, 3.099e-5
-1.472, 3.099e-5
-1.473, 2.790e-5
-1.474, 2.790e-5
-1.475, 2.790e-5
-1.476, 2.790e-5
-1.477, 2.790e-5
-1.478, 2.790e-5
-1.479, 2.790e-5
-1.480, 2.790e-5
-1.481, 2.790e-5
-1.482, 2.790e-5
-1.483, 2.790e-5
-1.484, 2.790e-5
-1.485, 2.790e-5
-1.486, 2.790e-5
-1.487, 2.790e-5
-1.488, 2.790e-5
-1.489, 2.790e-5
-1.490, 2.790e-5
-1.491, 2.790e-5
-1.492, 2.790e-5
-1.493, 2.790e-5
-1.494, 2.790e-5
-1.495, 2.790e-5
-1.496, 2.790e-5
-1.497, 2.790e-5
-1.498, 2.790e-5
-1.499, 3.099e-5
-1.500, 2.790e-5
-1.501, 2.790e-5
-1.502, 2.790e-5
-1.503, 2.790e-5
-1.504, 3.099e-5
-1.505, 3.099e-5
-1.506, 3.099e-5
-1.507, 3.099e-5
-1.508, 3.099e-5
-1.509, 3.099e-5
-1.510, 3.099e-5
-1.511, 3.099e-5
-1.512, 3.099e-5
-1.513, 3.099e-5
-1.514, 3.099e-5
-1.515, 3.099e-5
-1.516, 3.099e-5
-1.517, 3.407e-5
-1.518, 3.407e-5
-1.519, 3.407e-5
-1.520, 3.407e-5
-1.521, 3.407e-5
-1.522, 3.407e-5
-1.523, 3.407e-5
-1.524, 3.407e-5
-1.525, 3.407e-5
-1.526, 3.407e-5
-1.527, 3.407e-5
-1.528, 3.715e-5
-1.529, 3.407e-5
-1.530, 3.715e-5
-1.531, 3.715e-5
-1.532, 3.715e-5
-1.533, 3.715e-5
-1.534, 3.715e-5
-1.535, 3.715e-5
-1.536, 3.715e-5
-1.537, 3.715e-5
-1.538, 4.024e-5
-1.539, 3.715e-5
-1.540, 4.024e-5
-1.541, 4.024e-5
-1.542, 4.024e-5
-1.543, 4.024e-5
-1.544, 4.024e-5
-1.545, 4.024e-5
-1.546, 4.332e-5
-1.547, 4.024e-5
-1.548, 4.024e-5
-1.549, 4.332e-5
-1.550, 4.332e-5
-1.551, 4.332e-5
-1.552, 4.640e-5
-1.553, 4.332e-5
-1.554, 4.640e-5
-1.555, 4.640e-5
-1.556, 4.640e-5
-1.557, 4.640e-5
-1.558, 4.640e-5
-1.559, 4.949e-5
-1.560, 4.640e-5
-1.561, 4.949e-5
-1.562, 4.949e-5
-1.563, 4.949e-5
-1.564, 4.949e-5
-1.565, 5.257e-5
-1.566, 5.257e-5
-1.567, 5.257e-5
-1.568, 5.257e-5
-1.569, 5.257e-5
-1.570, 5.565e-5
-1.571, 5.565e-5
-1.572, 5.565e-5
-1.573, 5.565e-5
-1.574, 5.873e-5
-1.575, 5.873e-5
-1.576, 5.873e-5
-1.577, 5.873e-5
-1.578, 5.873e-5
-1.579, 6.182e-5
-1.580, 6.182e-5
-1.581, 6.182e-5
-1.582, 6.182e-5
-1.583, 6.490e-5
-1.584, 6.490e-5
-1.585, 6.490e-5
-1.586, 6.490e-5
-1.587, 6.798e-5
-1.588, 6.798e-5
-1.589, 7.107e-5
-1.590, 7.107e-5
-1.591, 7.415e-5
-1.592, 7.107e-5
-1.593, 7.415e-5
-1.594, 7.415e-5
-1.595, 7.723e-5
-1.596, 7.723e-5
-1.597, 8.032e-5
-1.598, 8.032e-5
-1.599, 8.032e-5
-1.600, 8.032e-5
-1.601, 8.340e-5
-1.602, 8.340e-5
-1.603, 8.648e-5
-1.604, 8.648e-5
-1.605, 8.648e-5
-1.606, 8.957e-5
-1.607, 8.957e-5
-1.608, 9.265e-5
-1.609, 9.265e-5
-1.610, 9.573e-5
-1.611, 9.573e-5
-1.612, 9.882e-5
-1.613, 9.882e-5
-1.614, 9.882e-5
-1.615, 1.019e-4
-1.616, 1.050e-4
-1.617, 1.050e-4
-1.618, 1.050e-4
-1.619, 1.081e-4
-1.620, 1.111e-4
-1.621, 1.111e-4
-1.622, 1.142e-4
-1.623, 1.142e-4
-1.624, 1.173e-4
-1.625, 1.173e-4
-1.626, 1.204e-4
-1.627, 1.204e-4
-1.628, 1.235e-4
-1.629, 1.266e-4
-1.630, 1.266e-4
-1.631, 1.296e-4
-1.632, 1.327e-4
-1.633, 1.327e-4
-1.634, 1.358e-4
-1.635, 1.389e-4
-1.636, 1.389e-4
-1.637, 1.420e-4
-1.638, 1.451e-4
-1.639, 1.481e-4
-1.640, 1.481e-4
-1.641, 1.512e-4
-1.642, 1.543e-4
-1.643, 1.574e-4
-1.644, 1.605e-4
-1.645, 1.605e-4
-1.646, 1.636e-4
-1.647, 1.666e-4
-1.648, 1.697e-4
-1.649, 1.728e-4
-1.650, 1.759e-4
-1.651, 1.759e-4
-1.652, 1.790e-4
-1.653, 1.821e-4
-1.654, 1.851e-4
-1.655, 1.882e-4
-1.656, 1.913e-4
-1.657, 1.975e-4
-1.658, 1.975e-4
-1.659, 2.036e-4
-1.660, 2.036e-4
-1.661, 2.098e-4
-1.662, 2.129e-4
-1.663, 2.160e-4
-1.664, 2.191e-4
-1.665, 2.221e-4
-1.666, 2.252e-4
-1.667, 2.283e-4
-1.668, 2.345e-4
-1.669, 2.376e-4
-1.670, 2.406e-4
-1.671, 2.468e-4
-1.672, 2.499e-4
-1.673, 2.530e-4
-1.674, 2.591e-4
-1.675, 2.622e-4
-1.676, 2.653e-4
-1.677, 2.715e-4
-1.678, 2.746e-4
-1.679, 2.776e-4
-1.680, 2.838e-4
-1.681, 2.869e-4
-1.682, 2.931e-4
-1.683, 2.961e-4
-1.684, 2.992e-4
-1.685, 3.054e-4
-1.686, 3.085e-4
-1.687, 3.146e-4
-1.688, 3.208e-4
-1.689, 3.239e-4
-1.690, 3.300e-4
-1.691, 3.362e-4
-1.692, 3.424e-4
-1.693, 3.455e-4
-1.694, 3.516e-4
-1.695, 3.578e-4
-1.696, 3.670e-4
-1.697, 3.701e-4
-1.698, 3.763e-4
-1.699, 3.825e-4
-1.700, 3.886e-4
-1.701, 3.948e-4
-1.702, 4.010e-4
-1.703, 4.071e-4
-1.704, 4.102e-4
-1.705, 4.164e-4
-1.706, 4.225e-4
-1.707, 4.287e-4
-1.708, 4.380e-4
-1.709, 4.410e-4
-1.710, 4.503e-4
-1.711, 4.565e-4
-1.712, 4.626e-4
-1.713, 4.719e-4
-1.714, 4.811e-4
-1.715, 4.904e-4
-1.716, 4.996e-4
-1.717, 5.089e-4
-1.718, 5.150e-4
-1.719, 5.212e-4
-1.720, 5.305e-4
-1.721, 5.366e-4
-1.722, 5.459e-4
-1.723, 5.551e-4
-1.724, 5.644e-4
-1.725, 5.736e-4
-1.726, 5.859e-4
-1.727, 5.952e-4
-1.728, 6.014e-4
-1.729, 6.137e-4
-1.730, 6.260e-4
-1.731, 6.353e-4
-1.732, 6.445e-4
-1.733, 6.538e-4
-1.734, 6.630e-4
-1.735, 6.754e-4
-1.736, 6.877e-4
-1.737, 6.939e-4
-1.738, 7.062e-4
-1.739, 7.185e-4
-1.740, 7.309e-4
-1.741, 7.463e-4
-1.742, 7.586e-4
-1.743, 7.740e-4
-1.744, 7.863e-4
-1.745, 7.987e-4
-1.746, 8.110e-4
-1.747, 8.264e-4
-1.748, 8.388e-4
-1.749, 8.542e-4
-1.750, 8.665e-4
-1.751, 8.850e-4
-1.752, 8.973e-4
-1.753, 9.158e-4
-1.754, 9.343e-4
-1.755, 9.498e-4
-1.756, 9.652e-4
-1.757, 9.806e-4
-1.758, 9.960e-4
-1.759, 1.014e-3
-1.760, 1.030e-3
-1.761, 1.048e-3
-1.762, 1.070e-3
-1.763, 1.092e-3
-1.764, 1.110e-3
-1.765, 1.129e-3
-1.766, 1.153e-3
-1.767, 1.169e-3
-1.768, 1.190e-3
-1.769, 1.212e-3
-1.770, 1.236e-3
-1.771, 1.255e-3
-1.772, 1.280e-3
-1.773, 1.298e-3
-1.774, 1.326e-3
-1.775, 1.347e-3
-1.776, 1.366e-3
-1.777, 1.391e-3
-1.778, 1.418e-3
-1.779, 1.443e-3
-1.780, 1.477e-3
-1.781, 1.495e-3
-1.782, 1.523e-3
-1.783, 1.551e-3
-1.784, 1.576e-3
-1.785, 1.606e-3
-1.786, 1.637e-3
-1.787, 1.656e-3
-1.788, 1.684e-3
-1.789, 1.714e-3
-1.790, 1.748e-3
-1.791, 1.782e-3
-1.792, 1.807e-3
-1.793, 1.832e-3
-1.794, 1.869e-3
-1.795, 1.909e-3
-1.796, 1.943e-3
-1.797, 1.973e-3
-1.798, 2.001e-3
-1.799, 2.032e-3
-1.800, 2.072e-3
-1.801, 2.112e-3
-1.802, 2.143e-3
-1.803, 2.180e-3
-1.804, 2.214e-3
-1.805, 2.251e-3
-1.806, 2.288e-3
-1.807, 2.328e-3
-1.808, 2.362e-3
-1.809, 2.405e-3
-1.810, 2.439e-3
-1.811, 2.488e-3
-1.812, 2.528e-3
-1.813, 2.565e-3
-1.814, 2.612e-3
-1.815, 2.652e-3
-1.816, 2.698e-3
-1.817, 2.744e-3
-1.818, 2.784e-3
-1.819, 2.834e-3
-1.820, 2.877e-3
-1.821, 2.917e-3
-1.822, 2.972e-3
-1.823, 3.015e-3
-1.824, 3.068e-3
-1.825, 3.117e-3
-1.826, 3.160e-3
-1.827, 3.213e-3
-1.828, 3.256e-3
-1.829, 3.305e-3
-1.830, 3.367e-3
-1.831, 3.416e-3
-1.832, 3.481e-3
-1.833, 3.527e-3
-1.834, 3.577e-3
-1.835, 3.632e-3
-1.836, 3.691e-3
-1.837, 3.755e-3
-1.838, 3.802e-3
-1.839, 3.851e-3
-1.840, 3.913e-3
-1.841, 3.980e-3
-1.842, 4.039e-3
-1.843, 4.088e-3
-1.844, 4.150e-3
-1.845, 4.212e-3
-1.846, 4.280e-3
-1.847, 4.338e-3
-1.848, 4.391e-3
-1.849, 4.449e-3
-1.850, 4.511e-3
-1.851, 4.572e-3
-1.852, 4.637e-3
-1.853, 4.696e-3
-1.854, 4.764e-3
-1.855, 4.825e-3
-1.856, 4.890e-3
-1.857, 4.955e-3
-1.858, 5.019e-3
-1.859, 5.072e-3
-1.860, 5.140e-3
-1.861, 5.204e-3
-1.862, 5.263e-3
-1.863, 5.325e-3
-1.864, 5.396e-3
-1.865, 5.460e-3
-1.866, 5.510e-3
-1.867, 5.556e-3
-1.868, 5.621e-3
-1.869, 5.679e-3
-1.870, 5.744e-3
-1.871, 5.796e-3
-1.872, 5.840e-3
-1.873, 5.892e-3
-1.874, 5.957e-3
-1.875, 6.025e-3
-1.876, 6.086e-3
-1.877, 6.166e-3
-1.878, 6.234e-3
-1.879, 6.299e-3
-1.880, 6.376e-3
-1.881, 6.438e-3
-1.882, 6.506e-3
-1.883, 6.580e-3
-1.884, 6.644e-3
-1.885, 6.709e-3
-1.886, 6.780e-3
-1.887, 6.845e-3
-1.888, 6.916e-3
-1.889, 6.986e-3
-1.890, 7.067e-3
-1.891, 7.150e-3
-1.892, 7.227e-3
-1.893, 7.295e-3
-1.894, 7.369e-3
-1.895, 7.449e-3
-1.896, 7.535e-3
-1.897, 7.609e-3
-1.898, 7.677e-3
-1.899, 7.763e-3
-1.900, 7.819e-3
-1.899, 7.791e-3
-1.898, 7.736e-3
-1.897, 7.696e-3
-1.896, 7.659e-3
-1.895, 7.609e-3
-1.894, 7.557e-3
-1.893, 7.511e-3
-1.892, 7.471e-3
-1.891, 7.424e-3
-1.890, 7.375e-3
-1.889, 7.307e-3
-1.888, 7.258e-3
-1.887, 7.202e-3
-1.886, 7.138e-3
-1.885, 7.076e-3
-1.884, 7.033e-3
-1.883, 6.986e-3
-1.882, 6.943e-3
-1.881, 6.888e-3
-1.880, 6.826e-3
-1.879, 6.768e-3
-1.878, 6.715e-3
-1.877, 6.672e-3
-1.876, 6.613e-3
-1.875, 6.558e-3
-1.874, 6.490e-3
-1.873, 6.438e-3
-1.872, 6.373e-3
-1.871, 6.311e-3
-1.870, 6.265e-3
-1.869, 6.219e-3
-1.868, 6.160e-3
-1.867, 6.092e-3
-1.866, 6.043e-3
-1.865, 5.984e-3
-1.864, 5.932e-3
-1.863, 5.880e-3
-1.862, 5.812e-3
-1.861, 5.750e-3
-1.860, 5.704e-3
-1.859, 5.658e-3
-1.858, 5.611e-3
-1.857, 5.559e-3
-1.856, 5.513e-3
-1.855, 5.454e-3
-1.854, 5.399e-3
-1.853, 5.359e-3
-1.852, 5.303e-3
-1.851, 5.254e-3
-1.850, 5.201e-3
-1.849, 5.152e-3
-1.848, 5.103e-3
-1.847, 5.047e-3
-1.846, 5.010e-3
-1.845, 4.970e-3
-1.844, 4.927e-3
-1.843, 4.868e-3
-1.842, 4.825e-3
-1.841, 4.785e-3
-1.840, 4.739e-3
-1.839, 4.686e-3
-1.838, 4.634e-3
-1.837, 4.585e-3
-1.836, 4.532e-3
-1.835, 4.480e-3
-1.834, 4.431e-3
-1.833, 4.378e-3
-1.832, 4.326e-3
-1.831, 4.280e-3
-1.830, 4.227e-3
-1.829, 4.175e-3
-1.828, 4.128e-3
-1.827, 4.076e-3
-1.826, 4.033e-3
-1.825, 3.987e-3
-1.824, 3.940e-3
-1.823, 3.897e-3
-1.822, 3.851e-3
-1.821, 3.817e-3
-1.820, 3.783e-3
-1.819, 3.743e-3
-1.818, 3.697e-3
-1.817, 3.660e-3
-1.816, 3.614e-3
-1.815, 3.573e-3
-1.814, 3.533e-3
-1.813, 3.484e-3
-1.812, 3.447e-3
-1.811, 3.407e-3
-1.810, 3.364e-3
-1.809, 3.324e-3
-1.808, 3.284e-3
-1.807, 3.244e-3
-1.806, 3.197e-3
-1.805, 3.154e-3
-1.804, 3.111e-3
-1.803, 3.074e-3
-1.802, 3.034e-3
-1.801, 2.997e-3
-1.800, 2.951e-3
-1.799, 2.911e-3
-1.798, 2.867e-3
-1.797, 2.830e-3
-1.796, 2.797e-3
-1.795, 2.763e-3
-1.794, 2.726e-3
-1.793, 2.682e-3
-1.792, 2.652e-3
-1.791, 2.615e-3
-1.790, 2.581e-3
-1.789, 2.541e-3
-1.788, 2.507e-3
-1.787, 2.470e-3
-1.786, 2.430e-3
-1.785, 2.393e-3
-1.784, 2.362e-3
-1.783, 2.322e-3
-1.782, 2.291e-3
-1.781, 2.257e-3
-1.780, 2.226e-3
-1.779, 2.192e-3
-1.778, 2.155e-3
-1.777, 2.121e-3
-1.776, 2.094e-3
-1.775, 2.060e-3
-1.774, 2.035e-3
-1.773, 2.004e-3
-1.772, 1.970e-3
-1.771, 1.946e-3
-1.770, 1.918e-3
-1.769, 1.890e-3
-1.768, 1.865e-3
-1.767, 1.838e-3
-1.766, 1.804e-3
-1.765, 1.779e-3
-1.764, 1.754e-3
-1.763, 1.733e-3
-1.762, 1.708e-3
-1.761, 1.677e-3
-1.760, 1.650e-3
-1.759, 1.625e-3
-1.758, 1.597e-3
-1.757, 1.573e-3
-1.756, 1.551e-3
-1.755, 1.526e-3
-1.754, 1.505e-3
-1.753, 1.480e-3
-1.752, 1.458e-3
-1.751, 1.431e-3
-1.750, 1.409e-3
-1.749, 1.388e-3
-1.748, 1.363e-3
-1.747, 1.344e-3
-1.746, 1.323e-3
-1.745, 1.301e-3
-1.744, 1.283e-3
-1.743, 1.261e-3
-1.742, 1.243e-3
-1.741, 1.221e-3
-1.740, 1.203e-3
-1.739, 1.181e-3
-1.738, 1.162e-3
-1.737, 1.144e-3
-1.736, 1.125e-3
-1.735, 1.107e-3
-1.734, 1.088e-3
-1.733, 1.067e-3
-1.732, 1.051e-3
-1.731, 1.036e-3
-1.730, 1.021e-3
-1.729, 9.991e-4
-1.728, 9.868e-4
-1.727, 9.652e-4
-1.726, 9.498e-4
-1.725, 9.343e-4
-1.724, 9.189e-4
-1.723, 9.004e-4
-1.722, 8.850e-4
-1.721, 8.727e-4
-1.720, 8.573e-4
-1.719, 8.418e-4
-1.718, 8.264e-4
-1.717, 8.141e-4
-1.716, 7.956e-4
-1.715, 7.863e-4
-1.714, 7.709e-4
-1.713, 7.586e-4
-1.712, 7.432e-4
-1.711, 7.309e-4
-1.710, 7.185e-4
-1.709, 7.062e-4
-1.708, 6.939e-4
-1.707, 6.815e-4
-1.706, 6.661e-4
-1.705, 6.569e-4
-1.704, 6.445e-4
-1.703, 6.322e-4
-1.702, 6.229e-4
-1.701, 6.106e-4
-1.700, 5.983e-4
-1.699, 5.890e-4
-1.698, 5.767e-4
-1.697, 5.674e-4
-1.696, 5.582e-4
-1.695, 5.459e-4
-1.694, 5.366e-4
-1.693, 5.274e-4
-1.692, 5.181e-4
-1.691, 5.058e-4
-1.690, 4.996e-4
-1.689, 4.873e-4
-1.688, 4.811e-4
-1.687, 4.719e-4
-1.686, 4.626e-4
-1.685, 4.534e-4
-1.684, 4.472e-4
-1.683, 4.380e-4
-1.682, 4.287e-4
-1.681, 4.195e-4
-1.680, 4.102e-4
-1.679, 4.040e-4
-1.678, 3.979e-4
-1.677, 3.886e-4
-1.676, 3.825e-4
-1.675, 3.763e-4
-1.674, 3.670e-4
-1.673, 3.609e-4
-1.672, 3.547e-4
-1.671, 3.485e-4
-1.670, 3.424e-4
-1.669, 3.331e-4
-1.668, 3.270e-4
-1.667, 3.208e-4
-1.666, 3.146e-4
-1.665, 3.085e-4
-1.664, 3.023e-4
-1.663, 2.961e-4
-1.662, 2.900e-4
-1.661, 2.838e-4
-1.660, 2.807e-4
-1.659, 2.746e-4
-1.658, 2.684e-4
-1.657, 2.653e-4
-1.656, 2.561e-4
-1.655, 2.530e-4
-1.654, 2.468e-4
-1.653, 2.437e-4
-1.652, 2.376e-4
-1.651, 2.345e-4
-1.650, 2.283e-4
-1.649, 2.221e-4
-1.648, 2.191e-4
-1.647, 2.160e-4
-1.646, 2.129e-4
-1.645, 2.067e-4
-1.644, 2.036e-4
-1.643, 2.006e-4
-1.642, 1.944e-4
-1.641, 1.913e-4
-1.640, 1.882e-4
-1.639, 1.821e-4
-1.638, 1.790e-4
-1.637, 1.759e-4
-1.636, 1.728e-4
-1.635, 1.697e-4
-1.634, 1.666e-4
-1.633, 1.636e-4
-1.632, 1.574e-4
-1.631, 1.574e-4
-1.630, 1.512e-4
-1.629, 1.481e-4
-1.628, 1.451e-4
-1.627, 1.420e-4
-1.626, 1.420e-4
-1.625, 1.358e-4
-1.624, 1.327e-4
-1.623, 1.327e-4
-1.622, 1.296e-4
-1.621, 1.266e-4
-1.620, 1.235e-4
-1.619, 1.204e-4
-1.618, 1.173e-4
-1.617, 1.142e-4
-1.616, 1.142e-4
-1.615, 1.111e-4
-1.614, 1.081e-4
-1.613, 1.081e-4
-1.612, 1.050e-4
-1.611, 1.019e-4
-1.610, 9.882e-5
-1.609, 9.882e-5
-1.608, 9.573e-5
-1.607, 9.265e-5
-1.606, 8.957e-5
-1.605, 8.957e-5
-1.604, 8.648e-5
-1.603, 8.648e-5
-1.602, 8.340e-5
-1.601, 8.340e-5
-1.600, 8.032e-5
-1.599, 8.032e-5
-1.598, 7.415e-5
-1.597, 7.415e-5
-1.596, 7.107e-5
-1.595, 7.107e-5
-1.594, 7.107e-5
-1.593, 6.798e-5
-1.592, 6.798e-5
-1.591, 6.490e-5
-1.590, 6.490e-5
-1.589, 6.182e-5
-1.588, 6.182e-5
-1.587, 5.873e-5
-1.586, 5.873e-5
-1.585, 5.873e-5
-1.584, 5.565e-5
-1.583, 5.565e-5
-1.582, 5.257e-5
-1.581, 5.257e-5
-1.580, 4.949e-5
-1.579, 4.949e-5
-1.578, 4.949e-5
-1.577, 4.640e-5
-1.576, 4.640e-5
-1.575, 4.640e-5
-1.574, 4.332e-5
-1.573, 4.332e-5
-1.572, 4.332e-5
-1.571, 4.024e-5
-1.570, 4.024e-5
-1.569, 3.715e-5
-1.568, 3.715e-5
-1.567, 3.715e-5
-1.566, 3.715e-5
-1.565, 3.407e-5
-1.564, 3.407e-5
-1.563, 3.407e-5
-1.562, 3.099e-5
-1.561, 3.099e-5
-1.560, 3.099e-5
-1.559, 3.099e-5
-1.558, 2.790e-5
-1.557, 2.790e-5
-1.556, 2.790e-5
-1.555, 2.790e-5
-1.554, 2.790e-5
-1.553, 2.482e-5
-1.552, 2.482e-5
-1.551, 2.482e-5
-1.550, 2.482e-5
-1.549, 2.174e-5
-1.548, 2.174e-5
-1.547, 2.174e-5
-1.546, 2.174e-5
-1.545, 2.174e-5
-1.544, 2.174e-5
-1.543, 2.174e-5
-1.542, 1.865e-5
-1.541, 1.865e-5
-1.540, 1.865e-5
-1.539, 1.865e-5
-1.538, 1.865e-5
-1.537, 1.557e-5
-1.536, 1.557e-5
-1.535, 1.557e-5
-1.534, 1.557e-5
-1.533, 1.249e-5
-1.532, 1.249e-5
-1.531, 1.249e-5
-1.530, 1.249e-5
-1.529, 1.249e-5
-1.528, 1.249e-5
-1.527, 1.249e-5
-1.526, 9.405e-6
-1.525, 1.249e-5
-1.524, 1.249e-5
-1.523, 9.405e-6
-1.522, 9.405e-6
-1.521, 9.405e-6
-1.520, 9.405e-6
-1.519, 9.405e-6
-1.518, 9.405e-6
-1.517, 9.405e-6
-1.516, 6.322e-6
-1.515, 9.405e-6
-1.514, 6.322e-6
-1.513, 6.322e-6
-1.512, 6.322e-6
-1.511, 6.322e-6
-1.510, 6.322e-6
-1.509, 6.322e-6
-1.508, 6.322e-6
-1.507, 6.322e-6
-1.506, 6.322e-6
-1.505, 6.322e-6
-1.504, 3.239e-6
-1.503, 3.239e-6
-1.502, 3.239e-6
-1.501, 3.239e-6
-1.500, 3.239e-6
-1.499, 3.239e-6
-1.498, 3.239e-6
-1.497, 3.239e-6
-1.496, 3.239e-6
-1.495, 1.559e-7
-1.494, 3.239e-6
-1.493, 3.239e-6
-1.492, 3.239e-6
-1.491, 1.559e-7
-1.490, 1.559e-7
-1.489, 1.559e-7
-1.488, 1.559e-7
-1.487, 1.559e-7
-1.486, 1.559e-7
-1.485, 1.559e-7
-1.484, 1.559e-7
-1.483, 1.559e-7
-1.482, 1.559e-7
-1.481, 1.559e-7
-1.480, 1.559e-7
-1.479, 1.559e-7
-1.478, 1.559e-7
-1.477, 1.559e-7
-1.476, 1.559e-7
-1.475, 1.559e-7
-1.474, 1.559e-7
-1.473, 1.559e-7
-1.472, 1.559e-7
-1.471, 1.559e-7
-1.470, -2.927e-6
-1.469, -2.927e-6
-1.468, -2.927e-6
-1.467, -2.927e-6
-1.466, -2.927e-6
-1.465, -2.927e-6
-1.464, -2.927e-6
-1.463, -2.927e-6
-1.462, -2.927e-6
-1.461, -2.927e-6
-1.460, -2.927e-6
-1.459, -2.927e-6
-1.458, -2.927e-6
-1.457, -2.927e-6
-1.456, -2.927e-6
-1.455, -2.927e-6
-1.454, -2.927e-6
-1.453, -2.927e-6
-1.452, -2.927e-6
-1.451, -2.927e-6
-1.450, -2.927e-6
-1.449, -2.927e-6
-1.448, -2.927e-6
-1.447, -6.010e-6
-1.446, -2.927e-6
-1.445, -2.927e-6
-1.444, -2.927e-6
-1.443, -2.927e-6
-1.442, -6.010e-6
-1.441, -2.927e-6
-1.440, -2.927e-6
-1.439, -2.927e-6
-1.438, -2.927e-6
-1.437, -6.010e-6
-1.436, -2.927e-6
-1.435, -6.010e-6
-1.434, -2.927e-6
-1.433, -6.010e-6
-1.432, -6.010e-6
-1.431, -6.010e-6
-1.430, -6.010e-6
-1.429, -6.010e-6
-1.428, -6.010e-6
-1.427, -6.010e-6
-1.426, -6.010e-6
-1.425, -6.010e-6
-1.424, -6.010e-6
-1.423, -6.010e-6
-1.422, -6.010e-6
-1.421, -6.010e-6
-1.420, -6.010e-6
-1.419, -6.010e-6
-1.418, -6.010e-6
-1.417, -6.010e-6
-1.416, -6.010e-6
-1.415, -6.010e-6
-1.414, -6.010e-6
-1.413, -6.010e-6
-1.412, -6.010e-6
-1.411, -6.010e-6
-1.410, -6.010e-6
-1.409, -6.010e-6
-1.408, -6.010e-6
-1.407, -6.010e-6
-1.406, -6.010e-6
-1.405, -6.010e-6
-1.404, -6.010e-6
-1.403, -6.010e-6
-1.402, -6.010e-6
-1.401, -6.010e-6
-1.400, -6.010e-6
-1.399, -6.010e-6
-1.398, -6.010e-6
-1.397, -6.010e-6
-1.396, -6.010e-6
-1.395, -6.010e-6
-1.394, -6.010e-6
-1.393, -6.010e-6
-1.392, -6.010e-6
-1.391, -6.010e-6
-1.390, -6.010e-6
-1.389, -9.093e-6
-1.388, -6.010e-6
-1.387, -6.010e-6
-1.386, -6.010e-6
-1.385, -9.093e-6
-1.384, -6.010e-6
-1.383, -6.010e-6
-1.382, -6.010e-6
-1.381, -6.010e-6
-1.380, -6.010e-6
-1.379, -6.010e-6
-1.378, -6.010e-6
-1.377, -6.010e-6
-1.376, -6.010e-6
-1.375, -9.093e-6
-1.374, -6.010e-6
-1.373, -9.093e-6
-1.372, -9.093e-6
-1.371, -9.093e-6
-1.370, -9.093e-6
-1.369, -6.010e-6
-1.368, -6.010e-6
-1.367, -9.093e-6
-1.366, -9.093e-6
-1.365, -9.093e-6
-1.364, -9.093e-6
-1.363, -9.093e-6
-1.362, -9.093e-6
-1.361, -9.093e-6
-1.360, -9.093e-6
-1.359, -9.093e-6
-1.358, -9.093e-6
-1.357, -9.093e-6
-1.356, -9.093e-6
-1.355, -9.093e-6
-1.354, -9.093e-6
-1.353, -9.093e-6
-1.352, -9.093e-6
-1.351, -9.093e-6
-1.350, -9.093e-6
-1.349, -9.093e-6
-1.348, -9.093e-6
-1.347, -9.093e-6
-1.346, -9.093e-6
-1.345, -9.093e-6
-1.344, -9.093e-6
-1.343, -9.093e-6
-1.342, -9.093e-6
-1.341, -9.093e-6
-1.340, -9.093e-6
-1.339, -9.093e-6
-1.338, -9.093e-6
-1.337, -9.093e-6
-1.336, -9.093e-6
-1.335, -9.093e-6
-1.334, -9.093e-6
-1.333, -9.093e-6
-1.332, -9.093e-6
-1.331, -9.093e-6
-1.330, -9.093e-6
-1.329, -9.093e-6
-1.328, -9.093e-6
-1.327, -9.093e-6
-1.326, -9.093e-6
-1.325, -9.093e-6
-1.324, -9.093e-6
-1.323, -9.093e-6
-1.322, -9.093e-6
-1.321, -9.093e-6
-1.320, -9.093e-6
-1.319, -9.093e-6
-1.318, -9.093e-6
-1.317, -9.093e-6
-1.316, -9.093e-6
-1.315, -9.093e-6
-1.314, -9.093e-6
-1.313, -9.093e-6
-1.312, -9.093e-6
-1.311, -9.093e-6
-1.310, -9.093e-6
-1.309, -9.093e-6
-1.308, -9.093e-6
-1.307, -9.093e-6
-1.306, -9.093e-6
-1.305, -9.093e-6
-1.304, -1.218e-5
-1.303, -9.093e-6
-1.302, -1.218e-5
-1.301, -9.093e-6
-1.300, -1.218e-5
-1.299, -9.093e-6
-1.298, -1.218e-5
-1.297, -1.218e-5
-1.296, -1.218e-5
-1.295, -1.218e-5
-1.294, -1.218e-5
-1.293, -1.218e-5
-1.292, -1.218e-5
-1.291, -1.218e-5
-1.290, -1.218e-5
-1.289, -9.093e-6
-1.288, -1.218e-5
-1.287, -1.218e-5
-1.286, -1.218e-5
-1.285, -1.218e-5
-1.284, -1.218e-5
-1.283, -1.218e-5
-1.282, -1.218e-5
-1.281, -1.218e-5
-1.280, -1.218e-5
-1.279, -1.218e-5
-1.278, -1.218e-5
-1.277, -1.218e-5
-1.276, -1.218e-5
-1.275, -1.218e-5
-1.274, -1.218e-5
-1.273, -1.218e-5
-1.272, -1.218e-5
-1.271, -1.218e-5
-1.270, -1.218e-5
-1.269, -1.218e-5
-1.268, -1.218e-5
-1.267, -1.218e-5
-1.266, -1.218e-5
-1.265, -1.218e-5
-1.264, -1.218e-5
-1.263, -1.218e-5
-1.262, -1.526e-5
-1.261, -1.218e-5
-1.260, -1.218e-5
-1.259, -1.218e-5
-1.258, -1.526e-5
-1.257, -1.526e-5
-1.256, -1.218e-5
-1.255, -1.218e-5
-1.254, -1.526e-5
-1.253, -1.526e-5
-1.252, -1.218e-5
-1.251, -1.218e-5
-1.250, -1.218e-5
-1.249, -1.526e-5
-1.248, -1.526e-5
-1.247, -1.526e-5
-1.246, -1.526e-5
-1.245, -1.526e-5
-1.244, -1.526e-5
-1.243, -1.526e-5
-1.242, -1.526e-5
-1.241, -1.526e-5
-1.240, -1.526e-5
-1.239, -1.526e-5
-1.238, -1.526e-5
-1.237, -1.526e-5
-1.236, -1.526e-5
-1.235, -1.526e-5
-1.234, -1.526e-5
-1.233, -1.526e-5
-1.232, -1.526e-5
-1.231, -1.526e-5
-1.230, -1.526e-5
-1.229, -1.526e-5
-1.228, -1.526e-5
-1.227, -1.526e-5
-1.226, -1.526e-5
-1.225, -1.526e-5
-1.224, -1.526e-5
-1.223, -1.526e-5
-1.222, -1.526e-5
-1.221, -1.526e-5
-1.220, -1.526e-5
-1.219, -1.526e-5
-1.218, -1.526e-5
-1.217, -1.526e-5
-1.216, -1.526e-5
-1.215, -1.526e-5
-1.214, -1.526e-5
-1.213, -1.526e-5
-1.212, -1.526e-5
-1.211, -1.526e-5
-1.210, -1.526e-5
-1.209, -1.526e-5
-1.208, -1.526e-5
-1.207, -1.526e-5
-1.206, -1.526e-5
-1.205, -1.526e-5
-1.204, -1.526e-5
-1.203, -1.526e-5
-1.202, -1.526e-5
-1.201, -1.526e-5
-1.200, -1.526e-5
-1.199, -1.526e-5
-1.198, -1.526e-5
-1.197, -1.526e-5
-1.196, -1.526e-5
-1.195, -1.526e-5
-1.194, -1.526e-5
-1.193, -1.526e-5
-1.192, -1.526e-5
-1.191, -1.526e-5
-1.190, -1.526e-5
-1.189, -1.526e-5
-1.188, -1.526e-5
-1.187, -1.526e-5
-1.186, -1.526e-5
-1.185, -1.526e-5
-1.184, -1.526e-5
-1.183, -1.526e-5
-1.182, -1.526e-5
-1.181, -1.526e-5
-1.180, -1.526e-5
-1.179, -1.526e-5
-1.178, -1.526e-5
-1.177, -1.526e-5
-1.176, -1.526e-5
-1.175, -1.526e-5
-1.174, -1.526e-5
-1.173, -1.526e-5
-1.172, -1.526e-5
-1.171, -1.526e-5
-1.170, -1.526e-5
-1.169, -1.526e-5
-1.168, -1.526e-5
-1.167, -1.526e-5
-1.166, -1.526e-5
-1.165, -1.526e-5
-1.164, -1.526e-5
-1.163, -1.526e-5
-1.162, -1.526e-5
-1.161, -1.526e-5
-1.160, -1.526e-5
-1.159, -1.526e-5
-1.158, -1.526e-5
-1.157, -1.526e-5
-1.156, -1.526e-5
-1.155, -1.526e-5
-1.154, -1.526e-5
-1.153, -1.526e-5
-1.152, -1.526e-5
-1.151, -1.526e-5
-1.150, -1.526e-5
-1.149, -1.526e-5
-1.148, -1.526e-5
-1.147, -1.526e-5
-1.146, -1.526e-5
-1.145, -1.526e-5
-1.144, -1.526e-5
-1.143, -1.526e-5
-1.142, -1.526e-5
-1.141, -1.526e-5
-1.140, -1.526e-5
-1.139, -1.526e-5
-1.138, -1.526e-5
-1.137, -1.526e-5
-1.136, -1.526e-5
-1.135, -1.526e-5
-1.134, -1.526e-5
-1.133, -1.526e-5
-1.132, -1.526e-5
-1.131, -1.526e-5
-1.130, -1.526e-5
-1.129, -1.526e-5
-1.128, -1.526e-5
-1.127, -1.526e-5
-1.126, -1.526e-5
-1.125, -1.526e-5
-1.124, -1.526e-5
-1.123, -1.526e-5
-1.122, -1.526e-5
-1.121, -1.526e-5
-1.120, -1.526e-5
-1.119, -1.526e-5
-1.118, -1.526e-5
-1.117, -1.526e-5
-1.116, -1.526e-5
-1.115, -1.526e-5
-1.114, -1.526e-5
-1.113, -1.526e-5
-1.112, -1.526e-5
-1.111, -1.526e-5
-1.110, -1.526e-5
-1.109, -1.526e-5
-1.108, -1.526e-5
-1.107, -1.526e-5
-1.106, -1.526e-5
-1.105, -1.218e-5
-1.104, -1.526e-5
-1.103, -1.526e-5
-1.102, -1.526e-5
-1.101, -1.218e-5
-1.100, -1.526e-5
-1.099, -1.526e-5
-1.098, -1.526e-5
-1.097, -1.526e-5
-1.096, -1.526e-5
-1.095, -1.526e-5
-1.094, -1.526e-5
-1.093, -1.526e-5
-1.092, -1.526e-5
-1.091, -1.526e-5
-1.090, -1.526e-5
-1.089, -1.526e-5
-1.088, -1.526e-5
-1.087, -1.526e-5
-1.086, -1.526e-5
-1.085, -1.526e-5
-1.084, -1.526e-5
-1.083, -1.526e-5
-1.082, -1.526e-5
-1.081, -1.526e-5
-1.080, -1.526e-5
-1.079, -1.526e-5
-1.078, -1.526e-5
-1.077, -1.526e-5
-1.076, -1.526e-5
-1.075, -1.526e-5
-1.074, -1.526e-5
-1.073, -1.526e-5
-1.072, -1.526e-5
-1.071, -1.526e-5
-1.070, -1.526e-5
-1.069, -1.526e-5
-1.068, -1.526e-5
-1.067, -1.526e-5
-1.066, -1.526e-5
-1.065, -1.526e-5
-1.064, -1.526e-5
-1.063, -1.526e-5
-1.062, -1.526e-5
-1.061, -1.526e-5
-1.060, -1.526e-5
-1.059, -1.526e-5
-1.058, -1.526e-5
-1.057, -1.526e-5
-1.056, -1.526e-5
-1.055, -1.526e-5
-1.054, -1.526e-5
-1.053, -1.834e-5
-1.052, -1.526e-5
-1.051, -1.526e-5
-1.050, -1.526e-5
-1.049, -1.526e-5
-1.048, -1.526e-5
-1.047, -1.526e-5
-1.046, -1.526e-5
-1.045, -1.526e-5
-1.044, -1.526e-5
-1.043, -1.526e-5
-1.042, -1.834e-5
-1.041, -1.834e-5
-1.040, -1.526e-5
-1.039, -1.526e-5
-1.038, -1.834e-5
-1.037, -1.834e-5
-1.036, -1.834e-5
-1.035, -1.526e-5
-1.034, -1.834e-5
-1.033, -1.834e-5
-1.032, -1.834e-5
-1.031, -1.834e-5
-1.030, -1.834e-5
-1.029, -1.834e-5
-1.028, -1.834e-5
-1.027, -1.834e-5
-1.026, -1.834e-5
-1.025, -1.834e-5
-1.024, -1.834e-5
-1.023, -1.834e-5
-1.022, -1.834e-5
-1.021, -1.834e-5
-1.020, -1.834e-5
-1.019, -1.834e-5
-1.018, -1.834e-5
-1.017, -1.834e-5
-1.016, -1.834e-5
-1.015, -1.834e-5
-1.014, -1.834e-5
-1.013, -1.834e-5
-1.012, -1.834e-5
-1.011, -1.834e-5
-1.010, -1.834e-5
-1.009, -1.834e-5
-1.008, -1.834e-5
-1.007, -1.834e-5
-1.006, -1.834e-5
-1.005, -1.834e-5
-1.004, -2.143e-5
-1.003, -1.834e-5
-1.002, -1.834e-5
-1.001, -1.834e-5
