Sept. 19, 2024   05:01:56
Cyclic Voltammetry
File: c:/users/guazh/data/20240903_batch_252_500/2024-09-03-exp394\exp394-2024-09-19t04_48_58-h2koh\exp394_cv_50mvs_efin_-1800mv.bin
Data Source:  Experiment
Instrument Model:  CHI760E
Header: CV ran at 50 mVs
Note: 

Init E (V) = -1
High E (V) = -1
Low E (V) = -1.8
Final E (V) = -1
Init P/N = N
Scan Rate (V/s) = 0.05
Segment = 7
Sample Interval (V) = 0.001
Quiet Time (sec) = 60
Sensitivity (A/V) = 0.001
Comp R (ohm) = 2.2

Results:

Channel 1:
Segment 1:

Segment 2:

Segment 3:

Segment 4:

Segment 5:

Segment 6:

Segment 7:

Potential/V, Current/A

-1.000, 6.835e-7
-1.001, 8.059e-7
-1.002, 9.094e-7
-1.003, 9.647e-7
-1.004, 1.046e-6
-1.005, 1.096e-6
-1.006, 1.112e-6
-1.007, 1.142e-6
-1.008, 1.180e-6
-1.009, 1.201e-6
-1.010, 1.248e-6
-1.011, 1.254e-6
-1.012, 1.297e-6
-1.013, 1.331e-6
-1.014, 1.325e-6
-1.015, 1.381e-6
-1.016, 1.363e-6
-1.017, 1.398e-6
-1.018, 1.434e-6
-1.019, 1.452e-6
-1.020, 1.472e-6
-1.021, 1.478e-6
-1.022, 1.524e-6
-1.023, 1.567e-6
-1.024, 1.542e-6
-1.025, 1.559e-6
-1.026, 1.558e-6
-1.027, 1.575e-6
-1.028, 1.619e-6
-1.029, 1.624e-6
-1.030, 1.645e-6
-1.031, 1.683e-6
-1.032, 1.620e-6
-1.033, 1.690e-6
-1.034, 1.693e-6
-1.035, 1.688e-6
-1.036, 1.735e-6
-1.037, 1.741e-6
-1.038, 1.756e-6
-1.039, 1.745e-6
-1.040, 1.793e-6
-1.041, 1.803e-6
-1.042, 1.799e-6
-1.043, 1.806e-6
-1.044, 1.826e-6
-1.045, 1.854e-6
-1.046, 1.889e-6
-1.047, 1.841e-6
-1.048, 1.901e-6
-1.049, 1.892e-6
-1.050, 1.917e-6
-1.051, 1.921e-6
-1.052, 1.953e-6
-1.053, 1.924e-6
-1.054, 1.953e-6
-1.055, 1.963e-6
-1.056, 1.999e-6
-1.057, 1.991e-6
-1.058, 1.998e-6
-1.059, 2.026e-6
-1.060, 2.009e-6
-1.061, 2.038e-6
-1.062, 2.069e-6
-1.063, 2.086e-6
-1.064, 2.089e-6
-1.065, 2.071e-6
-1.066, 2.113e-6
-1.067, 2.114e-6
-1.068, 2.124e-6
-1.069, 2.140e-6
-1.070, 2.156e-6
-1.071, 2.170e-6
-1.072, 2.182e-6
-1.073, 2.164e-6
-1.074, 2.181e-6
-1.075, 2.223e-6
-1.076, 2.202e-6
-1.077, 2.220e-6
-1.078, 2.224e-6
-1.079, 2.268e-6
-1.080, 2.270e-6
-1.081, 2.259e-6
-1.082, 2.249e-6
-1.083, 2.299e-6
-1.084, 2.287e-6
-1.085, 2.314e-6
-1.086, 2.287e-6
-1.087, 2.302e-6
-1.088, 2.313e-6
-1.089, 2.345e-6
-1.090, 2.348e-6
-1.091, 2.362e-6
-1.092, 2.366e-6
-1.093, 2.386e-6
-1.094, 2.393e-6
-1.095, 2.432e-6
-1.096, 2.393e-6
-1.097, 2.387e-6
-1.098, 2.393e-6
-1.099, 2.402e-6
-1.100, 2.438e-6
-1.101, 2.457e-6
-1.102, 2.435e-6
-1.103, 2.468e-6
-1.104, 2.472e-6
-1.105, 2.442e-6
-1.106, 2.491e-6
-1.107, 2.494e-6
-1.108, 2.500e-6
-1.109, 2.499e-6
-1.110, 2.528e-6
-1.111, 2.550e-6
-1.112, 2.554e-6
-1.113, 2.532e-6
-1.114, 2.521e-6
-1.115, 2.576e-6
-1.116, 2.558e-6
-1.117, 2.565e-6
-1.118, 2.576e-6
-1.119, 2.567e-6
-1.120, 2.615e-6
-1.121, 2.610e-6
-1.122, 2.610e-6
-1.123, 2.582e-6
-1.124, 2.637e-6
-1.125, 2.614e-6
-1.126, 2.627e-6
-1.127, 2.642e-6
-1.128, 2.647e-6
-1.129, 2.672e-6
-1.130, 2.654e-6
-1.131, 2.666e-6
-1.132, 2.651e-6
-1.133, 2.651e-6
-1.134, 2.671e-6
-1.135, 2.678e-6
-1.136, 2.726e-6
-1.137, 2.691e-6
-1.138, 2.751e-6
-1.139, 2.718e-6
-1.140, 2.717e-6
-1.141, 2.718e-6
-1.142, 2.726e-6
-1.143, 2.715e-6
-1.144, 2.748e-6
-1.145, 2.779e-6
-1.146, 2.758e-6
-1.147, 2.795e-6
-1.148, 2.801e-6
-1.149, 2.817e-6
-1.150, 2.799e-6
-1.151, 2.803e-6
-1.152, 2.816e-6
-1.153, 2.828e-6
-1.154, 2.814e-6
-1.155, 2.857e-6
-1.156, 2.846e-6
-1.157, 2.852e-6
-1.158, 2.828e-6
-1.159, 2.861e-6
-1.160, 2.867e-6
-1.161, 2.891e-6
-1.162, 2.874e-6
-1.163, 2.867e-6
-1.164, 2.890e-6
-1.165, 2.904e-6
-1.166, 2.919e-6
-1.167, 2.936e-6
-1.168, 2.955e-6
-1.169, 2.921e-6
-1.170, 2.957e-6
-1.171, 2.959e-6
-1.172, 2.941e-6
-1.173, 2.934e-6
-1.174, 2.959e-6
-1.175, 3.006e-6
-1.176, 2.996e-6
-1.177, 3.011e-6
-1.178, 3.015e-6
-1.179, 3.009e-6
-1.180, 3.025e-6
-1.181, 3.038e-6
-1.182, 3.019e-6
-1.183, 3.019e-6
-1.184, 3.056e-6
-1.185, 3.041e-6
-1.186, 3.036e-6
-1.187, 3.078e-6
-1.188, 3.072e-6
-1.189, 3.086e-6
-1.190, 3.080e-6
-1.191, 3.094e-6
-1.192, 3.138e-6
-1.193, 3.114e-6
-1.194, 3.134e-6
-1.195, 3.092e-6
-1.196, 3.105e-6
-1.197, 3.128e-6
-1.198, 3.143e-6
-1.199, 3.143e-6
-1.200, 3.157e-6
-1.201, 3.171e-6
-1.202, 3.153e-6
-1.203, 3.187e-6
-1.204, 3.178e-6
-1.205, 3.187e-6
-1.206, 3.207e-6
-1.207, 3.231e-6
-1.208, 3.219e-6
-1.209, 3.236e-6
-1.210, 3.266e-6
-1.211, 3.272e-6
-1.212, 3.248e-6
-1.213, 3.258e-6
-1.214, 3.239e-6
-1.215, 3.257e-6
-1.216, 3.281e-6
-1.217, 3.301e-6
-1.218, 3.328e-6
-1.219, 3.311e-6
-1.220, 3.322e-6
-1.221, 3.310e-6
-1.222, 3.347e-6
-1.223, 3.337e-6
-1.224, 3.392e-6
-1.225, 3.377e-6
-1.226, 3.401e-6
-1.227, 3.384e-6
-1.228, 3.413e-6
-1.229, 3.424e-6
-1.230, 3.407e-6
-1.231, 3.450e-6
-1.232, 3.450e-6
-1.233, 3.457e-6
-1.234, 3.477e-6
-1.235, 3.481e-6
-1.236, 3.477e-6
-1.237, 3.501e-6
-1.238, 3.488e-6
-1.239, 3.517e-6
-1.240, 3.567e-6
-1.241, 3.579e-6
-1.242, 3.588e-6
-1.243, 3.617e-6
-1.244, 3.618e-6
-1.245, 3.623e-6
-1.246, 3.592e-6
-1.247, 3.643e-6
-1.248, 3.627e-6
-1.249, 3.668e-6
-1.250, 3.696e-6
-1.251, 3.687e-6
-1.252, 3.689e-6
-1.253, 3.709e-6
-1.254, 3.702e-6
-1.255, 3.723e-6
-1.256, 3.720e-6
-1.257, 3.762e-6
-1.258, 3.764e-6
-1.259, 3.788e-6
-1.260, 3.843e-6
-1.261, 3.848e-6
-1.262, 3.876e-6
-1.263, 3.884e-6
-1.264, 3.896e-6
-1.265, 3.914e-6
-1.266, 3.898e-6
-1.267, 3.912e-6
-1.268, 3.973e-6
-1.269, 3.977e-6
-1.270, 4.001e-6
-1.271, 3.986e-6
-1.272, 4.025e-6
-1.273, 4.019e-6
-1.274, 4.045e-6
-1.275, 4.114e-6
-1.276, 4.112e-6
-1.277, 4.143e-6
-1.278, 4.157e-6
-1.279, 4.177e-6
-1.280, 4.236e-6
-1.281, 4.205e-6
-1.282, 4.275e-6
-1.283, 4.293e-6
-1.284, 4.284e-6
-1.285, 4.338e-6
-1.286, 4.380e-6
-1.287, 4.356e-6
-1.288, 4.419e-6
-1.289, 4.443e-6
-1.290, 4.500e-6
-1.291, 4.495e-6
-1.292, 4.532e-6
-1.293, 4.583e-6
-1.294, 4.599e-6
-1.295, 4.656e-6
-1.296, 4.682e-6
-1.297, 4.643e-6
-1.298, 4.681e-6
-1.299, 4.741e-6
-1.300, 4.805e-6
-1.301, 4.801e-6
-1.302, 4.870e-6
-1.303, 4.919e-6
-1.304, 4.954e-6
-1.305, 4.972e-6
-1.306, 5.006e-6
-1.307, 5.075e-6
-1.308, 5.128e-6
-1.309, 5.167e-6
-1.310, 5.181e-6
-1.311, 5.240e-6
-1.312, 5.248e-6
-1.313, 5.305e-6
-1.314, 5.323e-6
-1.315, 5.416e-6
-1.316, 5.454e-6
-1.317, 5.509e-6
-1.318, 5.572e-6
-1.319, 5.592e-6
-1.320, 5.637e-6
-1.321, 5.669e-6
-1.322, 5.720e-6
-1.323, 5.741e-6
-1.324, 5.751e-6
-1.325, 5.867e-6
-1.326, 5.901e-6
-1.327, 5.958e-6
-1.328, 5.998e-6
-1.329, 6.056e-6
-1.330, 6.076e-6
-1.331, 6.143e-6
-1.332, 6.195e-6
-1.333, 6.242e-6
-1.334, 6.271e-6
-1.335, 6.337e-6
-1.336, 6.340e-6
-1.337, 6.423e-6
-1.338, 6.481e-6
-1.339, 6.477e-6
-1.340, 6.555e-6
-1.341, 6.595e-6
-1.342, 6.626e-6
-1.343, 6.690e-6
-1.344, 6.766e-6
-1.345, 6.802e-6
-1.346, 6.861e-6
-1.347, 6.867e-6
-1.348, 6.940e-6
-1.349, 6.977e-6
-1.350, 7.030e-6
-1.351, 7.074e-6
-1.352, 7.099e-6
-1.353, 7.179e-6
-1.354, 7.214e-6
-1.355, 7.261e-6
-1.356, 7.288e-6
-1.357, 7.375e-6
-1.358, 7.391e-6
-1.359, 7.461e-6
-1.360, 7.480e-6
-1.361, 7.551e-6
-1.362, 7.628e-6
-1.363, 7.644e-6
-1.364, 7.686e-6
-1.365, 7.733e-6
-1.366, 7.791e-6
-1.367, 7.834e-6
-1.368, 7.885e-6
-1.369, 7.956e-6
-1.370, 8.034e-6
-1.371, 8.084e-6
-1.372, 8.104e-6
-1.373, 8.167e-6
-1.374, 8.192e-6
-1.375, 8.316e-6
-1.376, 8.362e-6
-1.377, 8.444e-6
-1.378, 8.534e-6
-1.379, 8.587e-6
-1.380, 8.661e-6
-1.381, 8.705e-6
-1.382, 8.844e-6
-1.383, 8.879e-6
-1.384, 8.998e-6
-1.385, 9.076e-6
-1.386, 9.165e-6
-1.387, 9.260e-6
-1.388, 9.345e-6
-1.389, 9.398e-6
-1.390, 9.573e-6
-1.391, 9.607e-6
-1.392, 9.733e-6
-1.393, 9.829e-6
-1.394, 9.939e-6
-1.395, 1.004e-5
-1.396, 1.019e-5
-1.397, 1.025e-5
-1.398, 1.034e-5
-1.399, 1.055e-5
-1.400, 1.066e-5
-1.401, 1.081e-5
-1.402, 1.090e-5
-1.403, 1.103e-5
-1.404, 1.121e-5
-1.405, 1.134e-5
-1.406, 1.150e-5
-1.407, 1.159e-5
-1.408, 1.176e-5
-1.409, 1.191e-5
-1.410, 1.207e-5
-1.411, 1.223e-5
-1.412, 1.237e-5
-1.413, 1.254e-5
-1.414, 1.267e-5
-1.415, 1.287e-5
-1.416, 1.302e-5
-1.417, 1.319e-5
-1.418, 1.338e-5
-1.419, 1.357e-5
-1.420, 1.378e-5
-1.421, 1.393e-5
-1.422, 1.422e-5
-1.423, 1.442e-5
-1.424, 1.461e-5
-1.425, 1.479e-5
-1.426, 1.502e-5
-1.427, 1.515e-5
-1.428, 1.542e-5
-1.429, 1.564e-5
-1.430, 1.582e-5
-1.431, 1.607e-5
-1.432, 1.621e-5
-1.433, 1.647e-5
-1.434, 1.667e-5
-1.435, 1.692e-5
-1.436, 1.714e-5
-1.437, 1.735e-5
-1.438, 1.761e-5
-1.439, 1.781e-5
-1.440, 1.811e-5
-1.441, 1.835e-5
-1.442, 1.860e-5
-1.443, 1.883e-5
-1.444, 1.908e-5
-1.445, 1.933e-5
-1.446, 1.959e-5
-1.447, 1.982e-5
-1.448, 2.005e-5
-1.449, 2.034e-5
-1.450, 2.065e-5
-1.451, 2.089e-5
-1.452, 2.116e-5
-1.453, 2.141e-5
-1.454, 2.169e-5
-1.455, 2.198e-5
-1.456, 2.221e-5
-1.457, 2.251e-5
-1.458, 2.277e-5
-1.459, 2.313e-5
-1.460, 2.340e-5
-1.461, 2.372e-5
-1.462, 2.390e-5
-1.463, 2.413e-5
-1.464, 2.438e-5
-1.465, 2.469e-5
-1.466, 2.498e-5
-1.467, 2.518e-5
-1.468, 2.550e-5
-1.469, 2.575e-5
-1.470, 2.607e-5
-1.471, 2.633e-5
-1.472, 2.661e-5
-1.473, 2.684e-5
-1.474, 2.716e-5
-1.475, 2.742e-5
-1.476, 2.771e-5
-1.477, 2.803e-5
-1.478, 2.829e-5
-1.479, 2.859e-5
-1.480, 2.886e-5
-1.481, 2.909e-5
-1.482, 2.932e-5
-1.483, 2.955e-5
-1.484, 2.986e-5
-1.485, 3.011e-5
-1.486, 3.033e-5
-1.487, 3.059e-5
-1.488, 3.084e-5
-1.489, 3.106e-5
-1.490, 3.131e-5
-1.491, 3.156e-5
-1.492, 3.181e-5
-1.493, 3.208e-5
-1.494, 3.232e-5
-1.495, 3.257e-5
-1.496, 3.282e-5
-1.497, 3.301e-5
-1.498, 3.327e-5
-1.499, 3.347e-5
-1.500, 3.370e-5
-1.501, 3.395e-5
-1.502, 3.413e-5
-1.503, 3.447e-5
-1.504, 3.472e-5
-1.505, 3.485e-5
-1.506, 3.516e-5
-1.507, 3.528e-5
-1.508, 3.559e-5
-1.509, 3.574e-5
-1.510, 3.598e-5
-1.511, 3.614e-5
-1.512, 3.635e-5
-1.513, 3.655e-5
-1.514, 3.670e-5
-1.515, 3.690e-5
-1.516, 3.716e-5
-1.517, 3.730e-5
-1.518, 3.741e-5
-1.519, 3.761e-5
-1.520, 3.785e-5
-1.521, 3.803e-5
-1.522, 3.827e-5
-1.523, 3.846e-5
-1.524, 3.862e-5
-1.525, 3.878e-5
-1.526, 3.890e-5
-1.527, 3.898e-5
-1.528, 3.912e-5
-1.529, 3.923e-5
-1.530, 3.941e-5
-1.531, 3.961e-5
-1.532, 3.978e-5
-1.533, 3.989e-5
-1.534, 4.007e-5
-1.535, 4.029e-5
-1.536, 4.039e-5
-1.537, 4.052e-5
-1.538, 4.068e-5
-1.539, 4.087e-5
-1.540, 4.102e-5
-1.541, 4.116e-5
-1.542, 4.129e-5
-1.543, 4.144e-5
-1.544, 4.154e-5
-1.545, 4.175e-5
-1.546, 4.189e-5
-1.547, 4.198e-5
-1.548, 4.215e-5
-1.549, 4.232e-5
-1.550, 4.254e-5
-1.551, 4.271e-5
-1.552, 4.282e-5
-1.553, 4.296e-5
-1.554, 4.309e-5
-1.555, 4.322e-5
-1.556, 4.341e-5
-1.557, 4.347e-5
-1.558, 4.373e-5
-1.559, 4.392e-5
-1.560, 4.402e-5
-1.561, 4.419e-5
-1.562, 4.441e-5
-1.563, 4.465e-5
-1.564, 4.484e-5
-1.565, 4.503e-5
-1.566, 4.515e-5
-1.567, 4.541e-5
-1.568, 4.554e-5
-1.569, 4.574e-5
-1.570, 4.597e-5
-1.571, 4.606e-5
-1.572, 4.624e-5
-1.573, 4.639e-5
-1.574, 4.661e-5
-1.575, 4.677e-5
-1.576, 4.699e-5
-1.577, 4.719e-5
-1.578, 4.727e-5
-1.579, 4.750e-5
-1.580, 4.774e-5
-1.581, 4.792e-5
-1.582, 4.811e-5
-1.583, 4.827e-5
-1.584, 4.846e-5
-1.585, 4.871e-5
-1.586, 4.899e-5
-1.587, 4.926e-5
-1.588, 4.950e-5
-1.589, 4.972e-5
-1.590, 5.006e-5
-1.591, 5.028e-5
-1.592, 5.062e-5
-1.593, 5.081e-5
-1.594, 5.105e-5
-1.595, 5.131e-5
-1.596, 5.159e-5
-1.597, 5.184e-5
-1.598, 5.216e-5
-1.599, 5.235e-5
-1.600, 5.267e-5
-1.601, 5.305e-5
-1.602, 5.327e-5
-1.603, 5.356e-5
-1.604, 5.393e-5
-1.605, 5.424e-5
-1.606, 5.465e-5
-1.607, 5.507e-5
-1.608, 5.548e-5
-1.609, 5.593e-5
-1.610, 5.631e-5
-1.611, 5.682e-5
-1.612, 5.734e-5
-1.613, 5.784e-5
-1.614, 5.834e-5
-1.615, 5.879e-5
-1.616, 5.928e-5
-1.617, 5.986e-5
-1.618, 6.048e-5
-1.619, 6.117e-5
-1.620, 6.168e-5
-1.621, 6.215e-5
-1.622, 6.270e-5
-1.623, 6.341e-5
-1.624, 6.399e-5
-1.625, 6.470e-5
-1.626, 6.538e-5
-1.627, 6.599e-5
-1.628, 6.667e-5
-1.629, 6.745e-5
-1.630, 6.811e-5
-1.631, 6.890e-5
-1.632, 6.970e-5
-1.633, 7.045e-5
-1.634, 7.126e-5
-1.635, 7.214e-5
-1.636, 7.300e-5
-1.637, 7.378e-5
-1.638, 7.471e-5
-1.639, 7.570e-5
-1.640, 7.666e-5
-1.641, 7.762e-5
-1.642, 7.856e-5
-1.643, 7.956e-5
-1.644, 8.060e-5
-1.645, 8.170e-5
-1.646, 8.279e-5
-1.647, 8.390e-5
-1.648, 8.503e-5
-1.649, 8.615e-5
-1.650, 8.738e-5
-1.651, 8.858e-5
-1.652, 8.964e-5
-1.653, 9.084e-5
-1.654, 9.216e-5
-1.655, 9.350e-5
-1.656, 9.463e-5
-1.657, 9.601e-5
-1.658, 9.739e-5
-1.659, 9.873e-5
-1.660, 1.002e-4
-1.661, 1.015e-4
-1.662, 1.029e-4
-1.663, 1.043e-4
-1.664, 1.059e-4
-1.665, 1.074e-4
-1.666, 1.090e-4
-1.667, 1.105e-4
-1.668, 1.121e-4
-1.669, 1.136e-4
-1.670, 1.153e-4
-1.671, 1.170e-4
-1.672, 1.187e-4
-1.673, 1.206e-4
-1.674, 1.224e-4
-1.675, 1.242e-4
-1.676, 1.260e-4
-1.677, 1.279e-4
-1.678, 1.297e-4
-1.679, 1.317e-4
-1.680, 1.336e-4
-1.681, 1.355e-4
-1.682, 1.374e-4
-1.683, 1.394e-4
-1.684, 1.414e-4
-1.685, 1.436e-4
-1.686, 1.456e-4
-1.687, 1.478e-4
-1.688, 1.499e-4
-1.689, 1.522e-4
-1.690, 1.544e-4
-1.691, 1.566e-4
-1.692, 1.588e-4
-1.693, 1.610e-4
-1.694, 1.634e-4
-1.695, 1.658e-4
-1.696, 1.682e-4
-1.697, 1.706e-4
-1.698, 1.730e-4
-1.699, 1.755e-4
-1.700, 1.781e-4
-1.701, 1.807e-4
-1.702, 1.833e-4
-1.703, 1.858e-4
-1.704, 1.884e-4
-1.705, 1.911e-4
-1.706, 1.939e-4
-1.707, 1.966e-4
-1.708, 1.994e-4
-1.709, 2.023e-4
-1.710, 2.052e-4
-1.711, 2.081e-4
-1.712, 2.111e-4
-1.713, 2.140e-4
-1.714, 2.169e-4
-1.715, 2.201e-4
-1.716, 2.232e-4
-1.717, 2.263e-4
-1.718, 2.296e-4
-1.719, 2.329e-4
-1.720, 2.362e-4
-1.721, 2.395e-4
-1.722, 2.428e-4
-1.723, 2.460e-4
-1.724, 2.494e-4
-1.725, 2.529e-4
-1.726, 2.563e-4
-1.727, 2.599e-4
-1.728, 2.633e-4
-1.729, 2.669e-4
-1.730, 2.707e-4
-1.731, 2.744e-4
-1.732, 2.780e-4
-1.733, 2.819e-4
-1.734, 2.856e-4
-1.735, 2.896e-4
-1.736, 2.934e-4
-1.737, 2.973e-4
-1.738, 3.012e-4
-1.739, 3.052e-4
-1.740, 3.095e-4
-1.741, 3.135e-4
-1.742, 3.178e-4
-1.743, 3.221e-4
-1.744, 3.264e-4
-1.745, 3.306e-4
-1.746, 3.351e-4
-1.747, 3.396e-4
-1.748, 3.441e-4
-1.749, 3.486e-4
-1.750, 3.534e-4
-1.751, 3.583e-4
-1.752, 3.631e-4
-1.753, 3.679e-4
-1.754, 3.726e-4
-1.755, 3.775e-4
-1.756, 3.827e-4
-1.757, 3.882e-4
-1.758, 3.933e-4
-1.759, 3.985e-4
-1.760, 4.041e-4
-1.761, 4.096e-4
-1.762, 4.154e-4
-1.763, 4.212e-4
-1.764, 4.266e-4
-1.765, 4.319e-4
-1.766, 4.380e-4
-1.767, 4.439e-4
-1.768, 4.496e-4
-1.769, 4.561e-4
-1.770, 4.625e-4
-1.771, 4.688e-4
-1.772, 4.753e-4
-1.773, 4.817e-4
-1.774, 4.887e-4
-1.775, 4.956e-4
-1.776, 5.027e-4
-1.777, 5.097e-4
-1.778, 5.171e-4
-1.779, 5.243e-4
-1.780, 5.322e-4
-1.781, 5.400e-4
-1.782, 5.479e-4
-1.783, 5.560e-4
-1.784, 5.643e-4
-1.785, 5.728e-4
-1.786, 5.816e-4
-1.787, 5.901e-4
-1.788, 5.988e-4
-1.789, 6.081e-4
-1.790, 6.174e-4
-1.791, 6.274e-4
-1.792, 6.372e-4
-1.793, 6.473e-4
-1.794, 6.578e-4
-1.795, 6.686e-4
-1.796, 6.793e-4
-1.797, 6.904e-4
-1.798, 7.018e-4
-1.799, 7.134e-4
-1.800, 7.183e-4
-1.799, 7.148e-4
-1.798, 7.101e-4
-1.797, 7.048e-4
-1.796, 6.988e-4
-1.795, 6.929e-4
-1.794, 6.864e-4
-1.793, 6.801e-4
-1.792, 6.730e-4
-1.791, 6.659e-4
-1.790, 6.593e-4
-1.789, 6.523e-4
-1.788, 6.451e-4
-1.787, 6.379e-4
-1.786, 6.311e-4
-1.785, 6.237e-4
-1.784, 6.166e-4
-1.783, 6.096e-4
-1.782, 6.026e-4
-1.781, 5.956e-4
-1.780, 5.886e-4
-1.779, 5.816e-4
-1.778, 5.745e-4
-1.777, 5.676e-4
-1.776, 5.611e-4
-1.775, 5.542e-4
-1.774, 5.474e-4
-1.773, 5.402e-4
-1.772, 5.336e-4
-1.771, 5.269e-4
-1.770, 5.202e-4
-1.769, 5.135e-4
-1.768, 5.071e-4
-1.767, 5.007e-4
-1.766, 4.945e-4
-1.765, 4.885e-4
-1.764, 4.828e-4
-1.763, 4.767e-4
-1.762, 4.705e-4
-1.761, 4.644e-4
-1.760, 4.586e-4
-1.759, 4.524e-4
-1.758, 4.466e-4
-1.757, 4.409e-4
-1.756, 4.354e-4
-1.755, 4.298e-4
-1.754, 4.243e-4
-1.753, 4.189e-4
-1.752, 4.134e-4
-1.751, 4.081e-4
-1.750, 4.030e-4
-1.749, 3.979e-4
-1.748, 3.930e-4
-1.747, 3.879e-4
-1.746, 3.830e-4
-1.745, 3.780e-4
-1.744, 3.731e-4
-1.743, 3.685e-4
-1.742, 3.637e-4
-1.741, 3.591e-4
-1.740, 3.545e-4
-1.739, 3.499e-4
-1.738, 3.455e-4
-1.737, 3.411e-4
-1.736, 3.368e-4
-1.735, 3.324e-4
-1.734, 3.282e-4
-1.733, 3.239e-4
-1.732, 3.197e-4
-1.731, 3.157e-4
-1.730, 3.115e-4
-1.729, 3.075e-4
-1.728, 3.036e-4
-1.727, 2.996e-4
-1.726, 2.957e-4
-1.725, 2.920e-4
-1.724, 2.883e-4
-1.723, 2.845e-4
-1.722, 2.809e-4
-1.721, 2.772e-4
-1.720, 2.737e-4
-1.719, 2.702e-4
-1.718, 2.668e-4
-1.717, 2.634e-4
-1.716, 2.600e-4
-1.715, 2.566e-4
-1.714, 2.533e-4
-1.713, 2.502e-4
-1.712, 2.470e-4
-1.711, 2.440e-4
-1.710, 2.407e-4
-1.709, 2.376e-4
-1.708, 2.345e-4
-1.707, 2.314e-4
-1.706, 2.285e-4
-1.705, 2.256e-4
-1.704, 2.228e-4
-1.703, 2.199e-4
-1.702, 2.171e-4
-1.701, 2.143e-4
-1.700, 2.103e-4
-1.699, 2.076e-4
-1.698, 2.049e-4
-1.697, 2.022e-4
-1.696, 1.997e-4
-1.695, 1.971e-4
-1.694, 1.947e-4
-1.693, 1.920e-4
-1.692, 1.897e-4
-1.691, 1.873e-4
-1.690, 1.849e-4
-1.689, 1.820e-4
-1.688, 1.799e-4
-1.687, 1.773e-4
-1.686, 1.751e-4
-1.685, 1.729e-4
-1.684, 1.707e-4
-1.683, 1.684e-4
-1.682, 1.664e-4
-1.681, 1.643e-4
-1.680, 1.622e-4
-1.679, 1.601e-4
-1.678, 1.581e-4
-1.677, 1.560e-4
-1.676, 1.540e-4
-1.675, 1.519e-4
-1.674, 1.500e-4
-1.673, 1.481e-4
-1.672, 1.461e-4
-1.671, 1.442e-4
-1.670, 1.424e-4
-1.669, 1.405e-4
-1.668, 1.387e-4
-1.667, 1.369e-4
-1.666, 1.353e-4
-1.665, 1.335e-4
-1.664, 1.318e-4
-1.663, 1.302e-4
-1.662, 1.277e-4
-1.661, 1.257e-4
-1.660, 1.240e-4
-1.659, 1.224e-4
-1.658, 1.209e-4
-1.657, 1.193e-4
-1.656, 1.178e-4
-1.655, 1.162e-4
-1.654, 1.147e-4
-1.653, 1.133e-4
-1.652, 1.118e-4
-1.651, 1.103e-4
-1.650, 1.090e-4
-1.649, 1.072e-4
-1.648, 1.055e-4
-1.647, 1.041e-4
-1.646, 1.028e-4
-1.645, 1.014e-4
-1.644, 1.002e-4
-1.643, 9.884e-5
-1.642, 9.761e-5
-1.641, 9.634e-5
-1.640, 9.505e-5
-1.639, 9.384e-5
-1.638, 9.255e-5
-1.637, 9.137e-5
-1.636, 9.017e-5
-1.635, 8.905e-5
-1.634, 8.791e-5
-1.633, 8.676e-5
-1.632, 8.560e-5
-1.631, 8.456e-5
-1.630, 8.343e-5
-1.629, 8.233e-5
-1.628, 8.125e-5
-1.627, 8.011e-5
-1.626, 7.914e-5
-1.625, 7.807e-5
-1.624, 7.710e-5
-1.623, 7.613e-5
-1.622, 7.509e-5
-1.621, 7.409e-5
-1.620, 7.307e-5
-1.619, 7.212e-5
-1.618, 7.117e-5
-1.617, 7.019e-5
-1.616, 6.928e-5
-1.615, 6.838e-5
-1.614, 6.746e-5
-1.613, 6.662e-5
-1.612, 6.572e-5
-1.611, 6.484e-5
-1.610, 6.396e-5
-1.609, 6.313e-5
-1.608, 6.227e-5
-1.607, 6.143e-5
-1.606, 6.062e-5
-1.605, 5.980e-5
-1.604, 5.900e-5
-1.603, 5.826e-5
-1.602, 5.737e-5
-1.601, 5.661e-5
-1.600, 5.585e-5
-1.599, 5.518e-5
-1.598, 5.442e-5
-1.597, 5.366e-5
-1.596, 5.291e-5
-1.595, 5.217e-5
-1.594, 5.146e-5
-1.593, 5.078e-5
-1.592, 5.009e-5
-1.591, 4.940e-5
-1.590, 4.870e-5
-1.589, 4.807e-5
-1.588, 4.741e-5
-1.587, 4.672e-5
-1.586, 4.615e-5
-1.585, 4.546e-5
-1.584, 4.486e-5
-1.583, 4.428e-5
-1.582, 4.361e-5
-1.581, 4.306e-5
-1.580, 4.243e-5
-1.579, 4.182e-5
-1.578, 4.123e-5
-1.577, 4.068e-5
-1.576, 4.007e-5
-1.575, 3.955e-5
-1.574, 3.899e-5
-1.573, 3.842e-5
-1.572, 3.790e-5
-1.571, 3.742e-5
-1.570, 3.688e-5
-1.569, 3.634e-5
-1.568, 3.580e-5
-1.567, 3.529e-5
-1.566, 3.479e-5
-1.565, 3.429e-5
-1.564, 3.384e-5
-1.563, 3.332e-5
-1.562, 3.289e-5
-1.561, 3.241e-5
-1.560, 3.197e-5
-1.559, 3.154e-5
-1.558, 3.109e-5
-1.557, 3.062e-5
-1.556, 3.022e-5
-1.555, 2.977e-5
-1.554, 2.936e-5
-1.553, 2.889e-5
-1.552, 2.853e-5
-1.551, 2.811e-5
-1.550, 2.772e-5
-1.549, 2.732e-5
-1.548, 2.691e-5
-1.547, 2.655e-5
-1.546, 2.618e-5
-1.545, 2.581e-5
-1.544, 2.538e-5
-1.543, 2.505e-5
-1.542, 2.465e-5
-1.541, 2.434e-5
-1.540, 2.400e-5
-1.539, 2.361e-5
-1.538, 2.333e-5
-1.537, 2.294e-5
-1.536, 2.262e-5
-1.535, 2.228e-5
-1.534, 2.194e-5
-1.533, 2.161e-5
-1.532, 2.130e-5
-1.531, 2.098e-5
-1.530, 2.072e-5
-1.529, 2.041e-5
-1.528, 2.010e-5
-1.527, 1.977e-5
-1.526, 1.952e-5
-1.525, 1.920e-5
-1.524, 1.891e-5
-1.523, 1.864e-5
-1.522, 1.835e-5
-1.521, 1.811e-5
-1.520, 1.785e-5
-1.519, 1.756e-5
-1.518, 1.730e-5
-1.517, 1.703e-5
-1.516, 1.678e-5
-1.515, 1.652e-5
-1.514, 1.631e-5
-1.513, 1.605e-5
-1.512, 1.581e-5
-1.511, 1.552e-5
-1.510, 1.534e-5
-1.509, 1.511e-5
-1.508, 1.487e-5
-1.507, 1.465e-5
-1.506, 1.442e-5
-1.505, 1.419e-5
-1.504, 1.397e-5
-1.503, 1.378e-5
-1.502, 1.357e-5
-1.501, 1.336e-5
-1.500, 1.314e-5
-1.499, 1.295e-5
-1.498, 1.278e-5
-1.497, 1.254e-5
-1.496, 1.234e-5
-1.495, 1.218e-5
-1.494, 1.199e-5
-1.493, 1.182e-5
-1.492, 1.161e-5
-1.491, 1.145e-5
-1.490, 1.129e-5
-1.489, 1.111e-5
-1.488, 1.094e-5
-1.487, 1.075e-5
-1.486, 1.060e-5
-1.485, 1.039e-5
-1.484, 1.026e-5
-1.483, 1.013e-5
-1.482, 9.966e-6
-1.481, 9.807e-6
-1.480, 9.637e-6
-1.479, 9.514e-6
-1.478, 9.359e-6
-1.477, 9.176e-6
-1.476, 9.021e-6
-1.475, 8.921e-6
-1.474, 8.785e-6
-1.473, 8.649e-6
-1.472, 8.432e-6
-1.471, 8.353e-6
-1.470, 8.213e-6
-1.469, 8.118e-6
-1.468, 7.985e-6
-1.467, 7.874e-6
-1.466, 7.730e-6
-1.465, 7.578e-6
-1.464, 7.512e-6
-1.463, 7.354e-6
-1.462, 7.233e-6
-1.461, 7.122e-6
-1.460, 7.001e-6
-1.459, 6.881e-6
-1.458, 6.757e-6
-1.457, 6.661e-6
-1.456, 6.554e-6
-1.455, 6.488e-6
-1.454, 6.373e-6
-1.453, 6.273e-6
-1.452, 6.140e-6
-1.451, 6.057e-6
-1.450, 5.910e-6
-1.449, 5.901e-6
-1.448, 5.793e-6
-1.447, 5.685e-6
-1.446, 5.606e-6
-1.445, 5.478e-6
-1.444, 5.426e-6
-1.443, 5.354e-6
-1.442, 5.238e-6
-1.441, 5.132e-6
-1.440, 5.064e-6
-1.439, 4.979e-6
-1.438, 4.887e-6
-1.437, 4.798e-6
-1.436, 4.733e-6
-1.435, 4.652e-6
-1.434, 4.595e-6
-1.433, 4.499e-6
-1.432, 4.427e-6
-1.431, 4.380e-6
-1.430, 4.246e-6
-1.429, 4.198e-6
-1.428, 4.115e-6
-1.427, 4.059e-6
-1.426, 4.019e-6
-1.425, 3.943e-6
-1.424, 3.906e-6
-1.423, 3.796e-6
-1.422, 3.755e-6
-1.421, 3.679e-6
-1.420, 3.580e-6
-1.419, 3.581e-6
-1.418, 3.518e-6
-1.417, 3.454e-6
-1.416, 3.407e-6
-1.415, 3.314e-6
-1.414, 3.302e-6
-1.413, 3.217e-6
-1.412, 3.187e-6
-1.411, 3.108e-6
-1.410, 3.058e-6
-1.409, 2.994e-6
-1.408, 2.953e-6
-1.407, 2.920e-6
-1.406, 2.845e-6
-1.405, 2.803e-6
-1.404, 2.763e-6
-1.403, 2.693e-6
-1.402, 2.672e-6
-1.401, 2.626e-6
-1.400, 2.603e-6
-1.399, 2.529e-6
-1.398, 2.490e-6
-1.397, 2.447e-6
-1.396, 2.400e-6
-1.395, 2.345e-6
-1.394, 2.326e-6
-1.393, 2.276e-6
-1.392, 2.271e-6
-1.391, 2.179e-6
-1.390, 2.125e-6
-1.389, 2.122e-6
-1.388, 2.098e-6
-1.387, 2.060e-6
-1.386, 2.031e-6
-1.385, 1.983e-6
-1.384, 1.954e-6
-1.383, 1.932e-6
-1.382, 1.868e-6
-1.381, 1.852e-6
-1.380, 1.783e-6
-1.379, 1.766e-6
-1.378, 1.751e-6
-1.377, 1.709e-6
-1.376, 1.679e-6
-1.375, 1.631e-6
-1.374, 1.596e-6
-1.373, 1.615e-6
-1.372, 1.563e-6
-1.371, 1.508e-6
-1.370, 1.482e-6
-1.369, 1.427e-6
-1.368, 1.408e-6
-1.367, 1.398e-6
-1.366, 1.360e-6
-1.365, 1.328e-6
-1.364, 1.320e-6
-1.363, 1.301e-6
-1.362, 1.287e-6
-1.361, 1.241e-6
-1.360, 1.202e-6
-1.359, 1.192e-6
-1.358, 1.170e-6
-1.357, 1.153e-6
-1.356, 1.065e-6
-1.355, 1.043e-6
-1.354, 1.060e-6
-1.353, 9.982e-7
-1.352, 9.953e-7
-1.351, 9.696e-7
-1.350, 9.657e-7
-1.349, 9.016e-7
-1.348, 9.104e-7
-1.347, 8.690e-7
-1.346, 8.542e-7
-1.345, 8.236e-7
-1.344, 7.930e-7
-1.343, 7.832e-7
-1.342, 7.585e-7
-1.341, 7.299e-7
-1.340, 7.151e-7
-1.339, 7.092e-7
-1.338, 6.776e-7
-1.337, 6.440e-7
-1.336, 6.391e-7
-1.335, 6.243e-7
-1.334, 6.066e-7
-1.333, 6.066e-7
-1.332, 5.178e-7
-1.331, 5.503e-7
-1.330, 4.803e-7
-1.329, 5.000e-7
-1.328, 4.832e-7
-1.327, 4.388e-7
-1.326, 4.171e-7
-1.325, 4.290e-7
-1.324, 3.787e-7
-1.323, 3.688e-7
-1.322, 3.343e-7
-1.321, 3.313e-7
-1.320, 3.175e-7
-1.319, 3.234e-7
-1.318, 2.652e-7
-1.317, 2.149e-7
-1.316, 2.257e-7
-1.315, 2.099e-7
-1.314, 1.951e-7
-1.313, 1.794e-7
-1.312, 1.350e-7
-1.311, 1.665e-7
-1.310, 1.517e-7
-1.309, 1.468e-7
-1.308, 1.014e-7
-1.307, 5.703e-8
-1.306, 4.913e-8
-1.305, 3.828e-8
-1.304, 4.519e-8
-1.303, 1.460e-8
-1.302, -4.361e-8
-1.301, -2.486e-8
-1.300, -4.459e-8
-1.299, -7.419e-8
-1.298, -8.800e-8
-1.297, -1.107e-7
-1.296, -1.541e-7
-1.295, -1.235e-7
-1.294, -1.521e-7
-1.293, -1.975e-7
-1.292, -2.054e-7
-1.291, -2.015e-7
-1.290, -2.084e-7
-1.289, -2.557e-7
-1.288, -2.242e-7
-1.287, -3.080e-7
-1.286, -3.070e-7
-1.285, -3.228e-7
-1.284, -3.327e-7
-1.283, -3.524e-7
-1.282, -3.840e-7
-1.281, -4.057e-7
-1.280, -4.116e-7
-1.279, -3.998e-7
-1.278, -4.511e-7
-1.277, -4.590e-7
-1.276, -4.747e-7
-1.275, -5.132e-7
-1.274, -4.856e-7
-1.273, -5.221e-7
-1.272, -5.497e-7
-1.271, -5.665e-7
-1.270, -5.626e-7
-1.269, -5.912e-7
-1.268, -5.931e-7
-1.267, -6.198e-7
-1.266, -6.514e-7
-1.265, -6.366e-7
-1.264, -6.652e-7
-1.263, -6.612e-7
-1.262, -6.977e-7
-1.261, -7.313e-7
-1.260, -7.520e-7
-1.259, -7.668e-7
-1.258, -7.194e-7
-1.257, -7.618e-7
-1.256, -8.161e-7
-1.255, -8.043e-7
-1.254, -8.477e-7
-1.253, -8.506e-7
-1.252, -8.447e-7
-1.251, -8.941e-7
-1.250, -8.891e-7
-1.249, -9.098e-7
-1.248, -8.990e-7
-1.247, -9.384e-7
-1.246, -9.809e-7
-1.245, -9.819e-7
-1.244, -9.730e-7
-1.243, -9.878e-7
-1.242, -1.053e-6
-1.241, -1.031e-6
-1.240, -1.058e-6
-1.239, -1.081e-6
-1.238, -1.090e-6
-1.237, -1.111e-6
-1.236, -1.141e-6
-1.235, -1.135e-6
-1.234, -1.200e-6
-1.233, -1.163e-6
-1.232, -1.197e-6
-1.231, -1.204e-6
-1.230, -1.210e-6
-1.229, -1.260e-6
-1.228, -1.253e-6
-1.227, -1.314e-6
-1.226, -1.286e-6
-1.225, -1.313e-6
-1.224, -1.291e-6
-1.223, -1.351e-6
-1.222, -1.385e-6
-1.221, -1.382e-6
-1.220, -1.398e-6
-1.219, -1.421e-6
-1.218, -1.419e-6
-1.217, -1.430e-6
-1.216, -1.449e-6
-1.215, -1.503e-6
-1.214, -1.503e-6
-1.213, -1.489e-6
-1.212, -1.511e-6
-1.211, -1.559e-6
-1.210, -1.575e-6
-1.209, -1.550e-6
-1.208, -1.575e-6
-1.207, -1.595e-6
-1.206, -1.607e-6
-1.205, -1.628e-6
-1.204, -1.660e-6
-1.203, -1.685e-6
-1.202, -1.653e-6
-1.201, -1.708e-6
-1.200, -1.691e-6
-1.199, -1.754e-6
-1.198, -1.712e-6
-1.197, -1.753e-6
-1.196, -1.760e-6
-1.195, -1.765e-6
-1.194, -1.842e-6
-1.193, -1.815e-6
-1.192, -1.824e-6
-1.191, -1.854e-6
-1.190, -1.849e-6
-1.189, -1.855e-6
-1.188, -1.889e-6
-1.187, -1.879e-6
-1.186, -1.900e-6
-1.185, -1.918e-6
-1.184, -1.962e-6
-1.183, -1.963e-6
-1.182, -2.010e-6
-1.181, -1.987e-6
-1.180, -1.990e-6
-1.179, -2.017e-6
-1.178, -2.027e-6
-1.177, -2.058e-6
-1.176, -2.069e-6
-1.175, -2.069e-6
-1.174, -2.113e-6
-1.173, -2.134e-6
-1.172, -2.146e-6
-1.171, -2.112e-6
-1.170, -2.127e-6
-1.169, -2.159e-6
-1.168, -2.187e-6
-1.167, -2.230e-6
-1.166, -2.221e-6
-1.165, -2.259e-6
-1.164, -2.255e-6
-1.163, -2.270e-6
-1.162, -2.316e-6
-1.161, -2.341e-6
-1.160, -2.334e-6
-1.159, -2.362e-6
-1.158, -2.350e-6
-1.157, -2.376e-6
-1.156, -2.363e-6
-1.155, -2.443e-6
-1.154, -2.399e-6
-1.153, -2.402e-6
-1.152, -2.471e-6
-1.151, -2.473e-6
-1.150, -2.517e-6
-1.149, -2.502e-6
-1.148, -2.479e-6
-1.147, -2.543e-6
-1.146, -2.554e-6
-1.145, -2.556e-6
-1.144, -2.618e-6
-1.143, -2.550e-6
-1.142, -2.594e-6
-1.141, -2.622e-6
-1.140, -2.630e-6
-1.139, -2.683e-6
-1.138, -2.690e-6
-1.137, -2.677e-6
-1.136, -2.733e-6
-1.135, -2.702e-6
-1.134, -2.768e-6
-1.133, -2.754e-6
-1.132, -2.783e-6
-1.131, -2.777e-6
-1.130, -2.795e-6
-1.129, -2.830e-6
-1.128, -2.841e-6
-1.127, -2.893e-6
-1.126, -2.910e-6
-1.125, -2.902e-6
-1.124, -2.931e-6
-1.123, -2.953e-6
-1.122, -2.996e-6
-1.121, -2.989e-6
-1.120, -3.013e-6
-1.119, -3.011e-6
-1.118, -3.026e-6
-1.117, -3.055e-6
-1.116, -3.103e-6
-1.115, -3.085e-6
-1.114, -3.101e-6
-1.113, -3.114e-6
-1.112, -3.152e-6
-1.111, -3.198e-6
-1.110, -3.213e-6
-1.109, -3.205e-6
-1.108, -3.205e-6
-1.107, -3.285e-6
-1.106, -3.282e-6
-1.105, -3.313e-6
-1.104, -3.330e-6
-1.103, -3.332e-6
-1.102, -3.385e-6
-1.101, -3.420e-6
-1.100, -3.399e-6
-1.099, -3.442e-6
-1.098, -3.454e-6
-1.097, -3.499e-6
-1.096, -3.518e-6
-1.095, -3.550e-6
-1.094, -3.524e-6
-1.093, -3.564e-6
-1.092, -3.601e-6
-1.091, -3.642e-6
-1.090, -3.642e-6
-1.089, -3.640e-6
-1.088, -3.686e-6
-1.087, -3.721e-6
-1.086, -3.722e-6
-1.085, -3.772e-6
-1.084, -3.797e-6
-1.083, -3.827e-6
-1.082, -3.844e-6
-1.081, -3.876e-6
-1.080, -3.894e-6
-1.079, -3.959e-6
-1.078, -3.942e-6
-1.077, -3.954e-6
-1.076, -4.033e-6
-1.075, -4.011e-6
-1.074, -4.086e-6
-1.073, -4.112e-6
-1.072, -4.117e-6
-1.071, -4.156e-6
-1.070, -4.208e-6
-1.069, -4.211e-6
-1.068, -4.238e-6
-1.067, -4.271e-6
-1.066, -4.317e-6
-1.065, -4.330e-6
-1.064, -4.307e-6
-1.063, -4.414e-6
-1.062, -4.413e-6
-1.061, -4.439e-6
-1.060, -4.481e-6
-1.059, -4.541e-6
-1.058, -4.535e-6
-1.057, -4.588e-6
-1.056, -4.608e-6
-1.055, -4.596e-6
-1.054, -4.677e-6
-1.053, -4.701e-6
-1.052, -4.728e-6
-1.051, -4.797e-6
-1.050, -4.778e-6
-1.049, -4.802e-6
-1.048, -4.834e-6
-1.047, -4.912e-6
-1.046, -4.935e-6
-1.045, -4.958e-6
-1.044, -4.956e-6
-1.043, -5.030e-6
-1.042, -5.014e-6
-1.041, -5.048e-6
-1.040, -5.045e-6
-1.039, -5.130e-6
-1.038, -5.114e-6
-1.037, -5.167e-6
-1.036, -5.227e-6
-1.035, -5.229e-6
-1.034, -5.230e-6
-1.033, -5.267e-6
-1.032, -5.326e-6
-1.031, -5.338e-6
-1.030, -5.384e-6
-1.029, -5.356e-6
-1.028, -5.415e-6
-1.027, -5.443e-6
-1.026, -5.519e-6
-1.025, -5.516e-6
-1.024, -5.544e-6
-1.023, -5.588e-6
-1.022, -5.597e-6
-1.021, -5.611e-6
-1.020, -5.649e-6
-1.019, -5.662e-6
-1.018, -5.706e-6
-1.017, -5.698e-6
-1.016, -5.741e-6
-1.015, -5.750e-6
-1.014, -5.788e-6
-1.013, -5.790e-6
-1.012, -5.827e-6
-1.011, -5.865e-6
-1.010, -5.893e-6
-1.009, -5.860e-6
-1.008, -5.917e-6
-1.007, -5.949e-6
-1.006, -5.961e-6
-1.005, -5.979e-6
-1.004, -6.005e-6
-1.003, -5.995e-6
-1.002, -6.000e-6
-1.001, -6.005e-6
-1.000, -5.537e-6
-1.001, -5.068e-6
-1.002, -4.799e-6
-1.003, -4.468e-6
-1.004, -4.235e-6
-1.005, -4.042e-6
-1.006, -3.790e-6
-1.007, -3.601e-6
-1.008, -3.446e-6
-1.009, -3.282e-6
-1.010, -3.124e-6
-1.011, -2.967e-6
-1.012, -2.834e-6
-1.013, -2.699e-6
-1.014, -2.564e-6
-1.015, -2.441e-6
-1.016, -2.361e-6
-1.017, -2.192e-6
-1.018, -2.127e-6
-1.019, -2.033e-6
-1.020, -1.909e-6
-1.021, -1.810e-6
-1.022, -1.701e-6
-1.023, -1.658e-6
-1.024, -1.565e-6
-1.025, -1.474e-6
-1.026, -1.366e-6
-1.027, -1.301e-6
-1.028, -1.229e-6
-1.029, -1.189e-6
-1.030, -1.100e-6
-1.031, -1.011e-6
-1.032, -9.976e-7
-1.033, -9.118e-7
-1.034, -8.595e-7
-1.035, -8.289e-7
-1.036, -7.786e-7
-1.037, -7.046e-7
-1.038, -6.306e-7
-1.039, -5.823e-7
-1.040, -5.231e-7
-1.041, -4.767e-7
-1.042, -4.461e-7
-1.043, -3.751e-7
-1.044, -3.623e-7
-1.045, -3.011e-7
-1.046, -2.735e-7
-1.047, -2.212e-7
-1.048, -1.847e-7
-1.049, -1.709e-7
-1.050, -6.038e-8
-1.051, -6.137e-8
-1.052, -1.500e-8
-1.053, 7.893e-10
-1.054, 2.052e-8
-1.055, 8.465e-8
-1.056, 1.182e-7
-1.057, 1.458e-7
-1.058, 1.715e-7
-1.059, 2.001e-7
-1.060, 2.307e-7
-1.061, 2.770e-7
-1.062, 3.027e-7
-1.063, 3.451e-7
-1.064, 3.777e-7
-1.065, 3.846e-7
-1.066, 4.359e-7
-1.067, 4.359e-7
-1.068, 4.586e-7
-1.069, 4.941e-7
-1.070, 5.237e-7
-1.071, 5.760e-7
-1.072, 5.789e-7
-1.073, 6.145e-7
-1.074, 6.154e-7
-1.075, 6.776e-7
-1.076, 6.855e-7
-1.077, 7.210e-7
-1.078, 7.259e-7
-1.079, 7.545e-7
-1.080, 8.236e-7
-1.081, 7.743e-7
-1.082, 8.276e-7
-1.083, 8.325e-7
-1.084, 8.749e-7
-1.085, 8.729e-7
-1.086, 9.154e-7
-1.087, 9.677e-7
-1.088, 9.548e-7
-1.089, 9.894e-7
-1.090, 9.884e-7
-1.091, 9.647e-7
-1.092, 1.046e-6
-1.093, 1.028e-6
-1.094, 1.093e-6
-1.095, 1.114e-6
-1.096, 1.093e-6
-1.097, 1.114e-6
-1.098, 1.152e-6
-1.099, 1.139e-6
-1.100, 1.184e-6
-1.101, 1.214e-6
-1.102, 1.236e-6
-1.103, 1.192e-6
-1.104, 1.249e-6
-1.105, 1.245e-6
-1.106, 1.263e-6
-1.107, 1.273e-6
-1.108, 1.311e-6
-1.109, 1.312e-6
-1.110, 1.319e-6
-1.111, 1.333e-6
-1.112, 1.344e-6
-1.113, 1.364e-6
-1.114, 1.380e-6
-1.115, 1.393e-6
-1.116, 1.420e-6
-1.117, 1.430e-6
-1.118, 1.462e-6
-1.119, 1.425e-6
-1.120, 1.479e-6
-1.121, 1.466e-6
-1.122, 1.503e-6
-1.123, 1.511e-6
-1.124, 1.518e-6
-1.125, 1.555e-6
-1.126, 1.541e-6
-1.127, 1.598e-6
-1.128, 1.596e-6
-1.129, 1.594e-6
-1.130, 1.611e-6
-1.131, 1.636e-6
-1.132, 1.628e-6
-1.133, 1.677e-6
-1.134, 1.667e-6
-1.135, 1.674e-6
-1.136, 1.672e-6
-1.137, 1.708e-6
-1.138, 1.733e-6
-1.139, 1.769e-6
-1.140, 1.753e-6
-1.141, 1.777e-6
-1.142, 1.789e-6
-1.143, 1.766e-6
-1.144, 1.786e-6
-1.145, 1.808e-6
-1.146, 1.829e-6
-1.147, 1.858e-6
-1.148, 1.834e-6
-1.149, 1.845e-6
-1.150, 1.878e-6
-1.151, 1.900e-6
-1.152, 1.911e-6
-1.153, 1.926e-6
-1.154, 1.929e-6
-1.155, 1.969e-6
-1.156, 1.989e-6
-1.157, 1.959e-6
-1.158, 1.998e-6
-1.159, 2.004e-6
-1.160, 2.012e-6
-1.161, 2.026e-6
-1.162, 2.052e-6
-1.163, 2.059e-6
-1.164, 2.085e-6
-1.165, 2.104e-6
-1.166, 2.103e-6
-1.167, 2.103e-6
-1.168, 2.115e-6
-1.169, 2.148e-6
-1.170, 2.160e-6
-1.171, 2.188e-6
-1.172, 2.191e-6
-1.173, 2.188e-6
-1.174, 2.189e-6
-1.175, 2.221e-6
-1.176, 2.202e-6
-1.177, 2.246e-6
-1.178, 2.267e-6
-1.179, 2.291e-6
-1.180, 2.278e-6
-1.181, 2.328e-6
-1.182, 2.284e-6
-1.183, 2.348e-6
-1.184, 2.304e-6
-1.185, 2.369e-6
-1.186, 2.363e-6
-1.187, 2.364e-6
-1.188, 2.391e-6
-1.189, 2.395e-6
-1.190, 2.417e-6
-1.191, 2.424e-6
-1.192, 2.432e-6
-1.193, 2.440e-6
-1.194, 2.498e-6
-1.195, 2.507e-6
-1.196, 2.509e-6
-1.197, 2.524e-6
-1.198, 2.544e-6
-1.199, 2.527e-6
-1.200, 2.537e-6
-1.201, 2.593e-6
-1.202, 2.609e-6
-1.203, 2.602e-6
-1.204, 2.619e-6
-1.205, 2.643e-6
-1.206, 2.677e-6
-1.207, 2.651e-6
-1.208, 2.657e-6
-1.209, 2.685e-6
-1.210, 2.705e-6
-1.211, 2.753e-6
-1.212, 2.745e-6
-1.213, 2.804e-6
-1.214, 2.764e-6
-1.215, 2.765e-6
-1.216, 2.796e-6
-1.217, 2.814e-6
-1.218, 2.812e-6
-1.219, 2.855e-6
-1.220, 2.859e-6
-1.221, 2.884e-6
-1.222, 2.858e-6
-1.223, 2.894e-6
-1.224, 2.905e-6
-1.225, 2.910e-6
-1.226, 2.952e-6
-1.227, 2.965e-6
-1.228, 2.982e-6
-1.229, 2.999e-6
-1.230, 3.017e-6
-1.231, 3.021e-6
-1.232, 3.030e-6
-1.233, 3.042e-6
-1.234, 3.058e-6
-1.235, 3.076e-6
-1.236, 3.105e-6
-1.237, 3.109e-6
-1.238, 3.147e-6
-1.239, 3.140e-6
-1.240, 3.141e-6
-1.241, 3.164e-6
-1.242, 3.192e-6
-1.243, 3.176e-6
-1.244, 3.205e-6
-1.245, 3.235e-6
-1.246, 3.245e-6
-1.247, 3.230e-6
-1.248, 3.249e-6
-1.249, 3.251e-6
-1.250, 3.307e-6
-1.251, 3.270e-6
-1.252, 3.303e-6
-1.253, 3.328e-6
-1.254, 3.363e-6
-1.255, 3.353e-6
-1.256, 3.396e-6
-1.257, 3.380e-6
-1.258, 3.358e-6
-1.259, 3.368e-6
-1.260, 3.432e-6
-1.261, 3.434e-6
-1.262, 3.482e-6
-1.263, 3.483e-6
-1.264, 3.485e-6
-1.265, 3.501e-6
-1.266, 3.493e-6
-1.267, 3.523e-6
-1.268, 3.557e-6
-1.269, 3.535e-6
-1.270, 3.556e-6
-1.271, 3.612e-6
-1.272, 3.573e-6
-1.273, 3.634e-6
-1.274, 3.570e-6
-1.275, 3.613e-6
-1.276, 3.676e-6
-1.277, 3.641e-6
-1.278, 3.653e-6
-1.279, 3.695e-6
-1.280, 3.713e-6
-1.281, 3.720e-6
-1.282, 3.727e-6
-1.283, 3.742e-6
-1.284, 3.744e-6
-1.285, 3.776e-6
-1.286, 3.782e-6
-1.287, 3.804e-6
-1.288, 3.822e-6
-1.289, 3.810e-6
-1.290, 3.838e-6
-1.291, 3.855e-6
-1.292, 3.890e-6
-1.293, 3.914e-6
-1.294, 3.934e-6
-1.295, 3.910e-6
-1.296, 3.933e-6
-1.297, 3.968e-6
-1.298, 3.979e-6
-1.299, 3.956e-6
-1.300, 3.990e-6
-1.301, 4.004e-6
-1.302, 4.035e-6
-1.303, 4.062e-6
-1.304, 4.046e-6
-1.305, 4.083e-6
-1.306, 4.067e-6
-1.307, 4.127e-6
-1.308, 4.102e-6
-1.309, 4.144e-6
-1.310, 4.147e-6
-1.311, 4.177e-6
-1.312, 4.157e-6
-1.313, 4.190e-6
-1.314, 4.199e-6
-1.315, 4.216e-6
-1.316, 4.228e-6
-1.317, 4.233e-6
-1.318, 4.285e-6
-1.319, 4.286e-6
-1.320, 4.315e-6
-1.321, 4.311e-6
-1.322, 4.338e-6
-1.323, 4.365e-6
-1.324, 4.312e-6
-1.325, 4.412e-6
-1.326, 4.380e-6
-1.327, 4.411e-6
-1.328, 4.386e-6
-1.329, 4.437e-6
-1.330, 4.436e-6
-1.331, 4.470e-6
-1.332, 4.460e-6
-1.333, 4.517e-6
-1.334, 4.520e-6
-1.335, 4.536e-6
-1.336, 4.550e-6
-1.337, 4.582e-6
-1.338, 4.569e-6
-1.339, 4.549e-6
-1.340, 4.619e-6
-1.341, 4.603e-6
-1.342, 4.645e-6
-1.343, 4.641e-6
-1.344, 4.672e-6
-1.345, 4.663e-6
-1.346, 4.683e-6
-1.347, 4.698e-6
-1.348, 4.733e-6
-1.349, 4.743e-6
-1.350, 4.800e-6
-1.351, 4.794e-6
-1.352, 4.806e-6
-1.353, 4.832e-6
-1.354, 4.832e-6
-1.355, 4.826e-6
-1.356, 4.867e-6
-1.357, 4.909e-6
-1.358, 4.920e-6
-1.359, 4.927e-6
-1.360, 4.959e-6
-1.361, 4.971e-6
-1.362, 5.018e-6
-1.363, 5.015e-6
-1.364, 5.025e-6
-1.365, 5.033e-6
-1.366, 5.035e-6
-1.367, 5.121e-6
-1.368, 5.112e-6
-1.369, 5.077e-6
-1.370, 5.126e-6
-1.371, 5.159e-6
-1.372, 5.149e-6
-1.373, 5.206e-6
-1.374, 5.202e-6
-1.375, 5.197e-6
-1.376, 5.235e-6
-1.377, 5.245e-6
-1.378, 5.304e-6
-1.379, 5.304e-6
-1.380, 5.336e-6
-1.381, 5.329e-6
-1.382, 5.405e-6
-1.383, 5.379e-6
-1.384, 5.368e-6
-1.385, 5.425e-6
-1.386, 5.460e-6
-1.387, 5.476e-6
-1.388, 5.483e-6
-1.389, 5.563e-6
-1.390, 5.491e-6
-1.391, 5.578e-6
-1.392, 5.585e-6
-1.393, 5.616e-6
-1.394, 5.595e-6
-1.395, 5.633e-6
-1.396, 5.613e-6
-1.397, 5.656e-6
-1.398, 5.702e-6
-1.399, 5.713e-6
-1.400, 5.741e-6
-1.401, 5.744e-6
-1.402, 5.759e-6
-1.403, 5.800e-6
-1.404, 5.795e-6
-1.405, 5.801e-6
-1.406, 5.843e-6
-1.407, 5.873e-6
-1.408, 5.868e-6
-1.409, 5.936e-6
-1.410, 5.939e-6
-1.411, 5.964e-6
-1.412, 6.042e-6
-1.413, 6.025e-6
-1.414, 6.074e-6
-1.415, 6.088e-6
-1.416, 6.097e-6
-1.417, 6.114e-6
-1.418, 6.123e-6
-1.419, 6.209e-6
-1.420, 6.196e-6
-1.421, 6.246e-6
-1.422, 6.249e-6
-1.423, 6.295e-6
-1.424, 6.296e-6
-1.425, 6.301e-6
-1.426, 6.330e-6
-1.427, 6.404e-6
-1.428, 6.437e-6
-1.429, 6.459e-6
-1.430, 6.457e-6
-1.431, 6.513e-6
-1.432, 6.509e-6
-1.433, 6.572e-6
-1.434, 6.574e-6
-1.435, 6.540e-6
-1.436, 6.625e-6
-1.437, 6.672e-6
-1.438, 6.710e-6
-1.439, 6.682e-6
-1.440, 6.695e-6
-1.441, 6.758e-6
-1.442, 6.798e-6
-1.443, 6.838e-6
-1.444, 6.898e-6
-1.445, 6.864e-6
-1.446, 6.915e-6
-1.447, 6.947e-6
-1.448, 6.983e-6
-1.449, 7.039e-6
-1.450, 6.999e-6
-1.451, 7.074e-6
-1.452, 7.110e-6
-1.453, 7.118e-6
-1.454, 7.141e-6
-1.455, 7.181e-6
-1.456, 7.232e-6
-1.457, 7.251e-6
-1.458, 7.301e-6
-1.459, 7.334e-6
-1.460, 7.357e-6
-1.461, 7.403e-6
-1.462, 7.418e-6
-1.463, 7.496e-6
-1.464, 7.486e-6
-1.465, 7.517e-6
-1.466, 7.573e-6
-1.467, 7.595e-6
-1.468, 7.649e-6
-1.469, 7.632e-6
-1.470, 7.679e-6
-1.471, 7.700e-6
-1.472, 7.770e-6
-1.473, 7.841e-6
-1.474, 7.832e-6
-1.475, 7.818e-6
-1.476, 7.893e-6
-1.477, 7.941e-6
-1.478, 7.997e-6
-1.479, 8.018e-6
-1.480, 8.053e-6
-1.481, 8.072e-6
-1.482, 8.157e-6
-1.483, 8.179e-6
-1.484, 8.215e-6
-1.485, 8.265e-6
-1.486, 8.301e-6
-1.487, 8.332e-6
-1.488, 8.388e-6
-1.489, 8.425e-6
-1.490, 8.469e-6
-1.491, 8.553e-6
-1.492, 8.531e-6
-1.493, 8.587e-6
-1.494, 8.633e-6
-1.495, 8.668e-6
-1.496, 8.713e-6
-1.497, 8.742e-6
-1.498, 8.867e-6
-1.499, 8.882e-6
-1.500, 8.935e-6
-1.501, 8.966e-6
-1.502, 9.010e-6
-1.503, 9.036e-6
-1.504, 9.080e-6
-1.505, 9.128e-6
-1.506, 9.203e-6
-1.507, 9.264e-6
-1.508, 9.327e-6
-1.509, 9.381e-6
-1.510, 9.388e-6
-1.511, 9.443e-6
-1.512, 9.484e-6
-1.513, 9.571e-6
-1.514, 9.596e-6
-1.515, 9.680e-6
-1.516, 9.770e-6
-1.517, 9.805e-6
-1.518, 9.872e-6
-1.519, 9.899e-6
-1.520, 9.954e-6
-1.521, 1.003e-5
-1.522, 1.009e-5
-1.523, 1.018e-5
-1.524, 1.020e-5
-1.525, 1.031e-5
-1.526, 1.037e-5
-1.527, 1.043e-5
-1.528, 1.048e-5
-1.529, 1.050e-5
-1.530, 1.064e-5
-1.531, 1.068e-5
-1.532, 1.075e-5
-1.533, 1.086e-5
-1.534, 1.089e-5
-1.535, 1.100e-5
-1.536, 1.106e-5
-1.537, 1.115e-5
-1.538, 1.127e-5
-1.539, 1.133e-5
-1.540, 1.138e-5
-1.541, 1.150e-5
-1.542, 1.154e-5
-1.543, 1.166e-5
-1.544, 1.175e-5
-1.545, 1.184e-5
-1.546, 1.192e-5
-1.547, 1.206e-5
-1.548, 1.208e-5
-1.549, 1.222e-5
-1.550, 1.229e-5
-1.551, 1.235e-5
-1.552, 1.248e-5
-1.553, 1.262e-5
-1.554, 1.268e-5
-1.555, 1.282e-5
-1.556, 1.293e-5
-1.557, 1.303e-5
-1.558, 1.314e-5
-1.559, 1.323e-5
-1.560, 1.337e-5
-1.561, 1.349e-5
-1.562, 1.366e-5
-1.563, 1.376e-5
-1.564, 1.387e-5
-1.565, 1.399e-5
-1.566, 1.416e-5
-1.567, 1.426e-5
-1.568, 1.439e-5
-1.569, 1.455e-5
-1.570, 1.467e-5
-1.571, 1.484e-5
-1.572, 1.494e-5
-1.573, 1.511e-5
-1.574, 1.523e-5
-1.575, 1.540e-5
-1.576, 1.557e-5
-1.577, 1.574e-5
-1.578, 1.592e-5
-1.579, 1.610e-5
-1.580, 1.621e-5
-1.581, 1.640e-5
-1.582, 1.657e-5
-1.583, 1.676e-5
-1.584, 1.691e-5
-1.585, 1.711e-5
-1.586, 1.733e-5
-1.587, 1.753e-5
-1.588, 1.774e-5
-1.589, 1.789e-5
-1.590, 1.815e-5
-1.591, 1.832e-5
-1.592, 1.856e-5
-1.593, 1.878e-5
-1.594, 1.900e-5
-1.595, 1.924e-5
-1.596, 1.948e-5
-1.597, 1.971e-5
-1.598, 1.994e-5
-1.599, 2.018e-5
-1.600, 2.048e-5
-1.601, 2.072e-5
-1.602, 2.102e-5
-1.603, 2.125e-5
-1.604, 2.153e-5
-1.605, 2.180e-5
-1.606, 2.207e-5
-1.607, 2.240e-5
-1.608, 2.274e-5
-1.609, 2.303e-5
-1.610, 2.332e-5
-1.611, 2.365e-5
-1.612, 2.397e-5
-1.613, 2.436e-5
-1.614, 2.463e-5
-1.615, 2.502e-5
-1.616, 2.538e-5
-1.617, 2.573e-5
-1.618, 2.611e-5
-1.619, 2.646e-5
-1.620, 2.684e-5
-1.621, 2.721e-5
-1.622, 2.769e-5
-1.623, 2.809e-5
-1.624, 2.847e-5
-1.625, 2.890e-5
-1.626, 2.936e-5
-1.627, 2.979e-5
-1.628, 3.028e-5
-1.629, 3.075e-5
-1.630, 3.121e-5
-1.631, 3.173e-5
-1.632, 3.220e-5
-1.633, 3.269e-5
-1.634, 3.318e-5
-1.635, 3.368e-5
-1.636, 3.422e-5
-1.637, 3.480e-5
-1.638, 3.535e-5
-1.639, 3.598e-5
-1.640, 3.652e-5
-1.641, 3.716e-5
-1.642, 3.773e-5
-1.643, 3.836e-5
-1.644, 3.897e-5
-1.645, 3.961e-5
-1.646, 4.028e-5
-1.647, 4.097e-5
-1.648, 4.162e-5
-1.649, 4.234e-5
-1.650, 4.300e-5
-1.651, 4.372e-5
-1.652, 4.456e-5
-1.653, 4.525e-5
-1.654, 4.600e-5
-1.655, 4.679e-5
-1.656, 4.764e-5
-1.657, 4.840e-5
-1.658, 4.926e-5
-1.659, 5.007e-5
-1.660, 5.091e-5
-1.661, 5.180e-5
-1.662, 5.268e-5
-1.663, 5.359e-5
-1.664, 5.452e-5
-1.665, 5.542e-5
-1.666, 5.639e-5
-1.667, 5.739e-5
-1.668, 5.836e-5
-1.669, 5.940e-5
-1.670, 6.039e-5
-1.671, 6.149e-5
-1.672, 6.255e-5
-1.673, 6.366e-5
-1.674, 6.471e-5
-1.675, 6.588e-5
-1.676, 6.702e-5
-1.677, 6.822e-5
-1.678, 6.937e-5
-1.679, 7.062e-5
-1.680, 7.177e-5
-1.681, 7.304e-5
-1.682, 7.436e-5
-1.683, 7.566e-5
-1.684, 7.697e-5
-1.685, 7.828e-5
-1.686, 7.968e-5
-1.687, 8.110e-5
-1.688, 8.252e-5
-1.689, 8.396e-5
-1.690, 8.542e-5
-1.691, 8.696e-5
-1.692, 8.851e-5
-1.693, 9.000e-5
-1.694, 9.160e-5
-1.695, 9.318e-5
-1.696, 9.480e-5
-1.697, 9.647e-5
-1.698, 9.815e-5
-1.699, 9.989e-5
-1.700, 1.016e-4
-1.701, 1.034e-4
-1.702, 1.052e-4
-1.703, 1.070e-4
-1.704, 1.088e-4
-1.705, 1.108e-4
-1.706, 1.126e-4
-1.707, 1.146e-4
-1.708, 1.166e-4
-1.709, 1.187e-4
-1.710, 1.208e-4
-1.711, 1.228e-4
-1.712, 1.250e-4
-1.713, 1.271e-4
-1.714, 1.294e-4
-1.715, 1.317e-4
-1.716, 1.340e-4
-1.717, 1.362e-4
-1.718, 1.386e-4
-1.719, 1.410e-4
-1.720, 1.434e-4
-1.721, 1.459e-4
-1.722, 1.485e-4
-1.723, 1.510e-4
-1.724, 1.538e-4
-1.725, 1.564e-4
-1.726, 1.591e-4
-1.727, 1.620e-4
-1.728, 1.648e-4
-1.729, 1.677e-4
-1.730, 1.706e-4
-1.731, 1.736e-4
-1.732, 1.767e-4
-1.733, 1.798e-4
-1.734, 1.829e-4
-1.735, 1.860e-4
-1.736, 1.894e-4
-1.737, 1.928e-4
-1.738, 1.961e-4
-1.739, 1.997e-4
-1.740, 2.032e-4
-1.741, 2.066e-4
-1.742, 2.103e-4
-1.743, 2.142e-4
-1.744, 2.180e-4
-1.745, 2.219e-4
-1.746, 2.258e-4
-1.747, 2.298e-4
-1.748, 2.336e-4
-1.749, 2.377e-4
-1.750, 2.421e-4
-1.751, 2.466e-4
-1.752, 2.513e-4
-1.753, 2.559e-4
-1.754, 2.607e-4
-1.755, 2.655e-4
-1.756, 2.706e-4
-1.757, 2.755e-4
-1.758, 2.807e-4
-1.759, 2.859e-4
-1.760, 2.913e-4
-1.761, 2.967e-4
-1.762, 3.024e-4
-1.763, 3.083e-4
-1.764, 3.142e-4
-1.765, 3.202e-4
-1.766, 3.263e-4
-1.767, 3.327e-4
-1.768, 3.395e-4
-1.769, 3.462e-4
-1.770, 3.532e-4
-1.771, 3.601e-4
-1.772, 3.675e-4
-1.773, 3.750e-4
-1.774, 3.829e-4
-1.775, 3.908e-4
-1.776, 3.991e-4
-1.777, 4.073e-4
-1.778, 4.159e-4
-1.779, 4.248e-4
-1.780, 4.340e-4
-1.781, 4.433e-4
-1.782, 4.532e-4
-1.783, 4.633e-4
-1.784, 4.737e-4
-1.785, 4.842e-4
-1.786, 4.952e-4
-1.787, 5.067e-4
-1.788, 5.186e-4
-1.789, 5.304e-4
-1.790, 5.428e-4
-1.791, 5.556e-4
-1.792, 5.685e-4
-1.793, 5.820e-4
-1.794, 5.962e-4
-1.795, 6.106e-4
-1.796, 6.257e-4
-1.797, 6.412e-4
-1.798, 6.568e-4
-1.799, 6.734e-4
-1.800, 6.820e-4
-1.799, 6.805e-4
-1.798, 6.776e-4
-1.797, 6.742e-4
-1.796, 6.700e-4
-1.795, 6.655e-4
-1.794, 6.597e-4
-1.793, 6.541e-4
-1.792, 6.486e-4
-1.791, 6.424e-4
-1.790, 6.363e-4
-1.789, 6.300e-4
-1.788, 6.234e-4
-1.787, 6.168e-4
-1.786, 6.098e-4
-1.785, 6.027e-4
-1.784, 5.956e-4
-1.783, 5.886e-4
-1.782, 5.816e-4
-1.781, 5.745e-4
-1.780, 5.671e-4
-1.779, 5.598e-4
-1.778, 5.525e-4
-1.777, 5.455e-4
-1.776, 5.385e-4
-1.775, 5.313e-4
-1.774, 5.240e-4
-1.773, 5.168e-4
-1.772, 5.094e-4
-1.771, 5.021e-4
-1.770, 4.952e-4
-1.769, 4.881e-4
-1.768, 4.814e-4
-1.767, 4.745e-4
-1.766, 4.676e-4
-1.765, 4.607e-4
-1.764, 4.540e-4
-1.763, 4.477e-4
-1.762, 4.412e-4
-1.761, 4.348e-4
-1.760, 4.283e-4
-1.759, 4.219e-4
-1.758, 4.156e-4
-1.757, 4.095e-4
-1.756, 4.034e-4
-1.755, 3.973e-4
-1.754, 3.915e-4
-1.753, 3.858e-4
-1.752, 3.800e-4
-1.751, 3.744e-4
-1.750, 3.689e-4
-1.749, 3.633e-4
-1.748, 3.576e-4
-1.747, 3.521e-4
-1.746, 3.468e-4
-1.745, 3.415e-4
-1.744, 3.363e-4
-1.743, 3.313e-4
-1.742, 3.264e-4
-1.741, 3.215e-4
-1.740, 3.167e-4
-1.739, 3.121e-4
-1.738, 3.072e-4
-1.737, 3.027e-4
-1.736, 2.982e-4
-1.735, 2.937e-4
-1.734, 2.891e-4
-1.733, 2.848e-4
-1.732, 2.805e-4
-1.731, 2.762e-4
-1.730, 2.721e-4
-1.729, 2.680e-4
-1.728, 2.641e-4
-1.727, 2.603e-4
-1.726, 2.563e-4
-1.725, 2.521e-4
-1.724, 2.484e-4
-1.723, 2.447e-4
-1.722, 2.411e-4
-1.721, 2.376e-4
-1.720, 2.338e-4
-1.719, 2.304e-4
-1.718, 2.271e-4
-1.717, 2.238e-4
-1.716, 2.204e-4
-1.715, 2.170e-4
-1.714, 2.138e-4
-1.713, 2.107e-4
-1.712, 2.076e-4
-1.711, 2.045e-4
-1.710, 2.015e-4
-1.709, 1.986e-4
-1.708, 1.956e-4
-1.707, 1.928e-4
-1.706, 1.900e-4
-1.705, 1.873e-4
-1.704, 1.845e-4
-1.703, 1.818e-4
-1.702, 1.792e-4
-1.701, 1.766e-4
-1.700, 1.740e-4
-1.699, 1.715e-4
-1.698, 1.690e-4
-1.697, 1.665e-4
-1.696, 1.641e-4
-1.695, 1.617e-4
-1.694, 1.594e-4
-1.693, 1.571e-4
-1.692, 1.547e-4
-1.691, 1.526e-4
-1.690, 1.505e-4
-1.689, 1.483e-4
-1.688, 1.461e-4
-1.687, 1.440e-4
-1.686, 1.421e-4
-1.685, 1.400e-4
-1.684, 1.380e-4
-1.683, 1.361e-4
-1.682, 1.341e-4
-1.681, 1.322e-4
-1.680, 1.304e-4
-1.679, 1.286e-4
-1.678, 1.268e-4
-1.677, 1.250e-4
-1.676, 1.232e-4
-1.675, 1.215e-4
-1.674, 1.198e-4
-1.673, 1.181e-4
-1.672, 1.164e-4
-1.671, 1.148e-4
-1.670, 1.132e-4
-1.669, 1.116e-4
-1.668, 1.100e-4
-1.667, 1.085e-4
-1.666, 1.070e-4
-1.665, 1.055e-4
-1.664, 1.040e-4
-1.663, 1.025e-4
-1.662, 1.012e-4
-1.661, 9.975e-5
-1.660, 9.833e-5
-1.659, 9.699e-5
-1.658, 9.565e-5
-1.657, 9.429e-5
-1.656, 9.291e-5
-1.655, 9.165e-5
-1.654, 9.039e-5
-1.653, 8.918e-5
-1.652, 8.793e-5
-1.651, 8.667e-5
-1.650, 8.548e-5
-1.649, 8.431e-5
-1.648, 8.314e-5
-1.647, 8.199e-5
-1.646, 8.086e-5
-1.645, 7.971e-5
-1.644, 7.858e-5
-1.643, 7.752e-5
-1.642, 7.645e-5
-1.641, 7.543e-5
-1.640, 7.436e-5
-1.639, 7.334e-5
-1.638, 7.236e-5
-1.637, 7.128e-5
-1.636, 7.034e-5
-1.635, 6.935e-5
-1.634, 6.841e-5
-1.633, 6.749e-5
-1.632, 6.654e-5
-1.631, 6.562e-5
-1.630, 6.477e-5
-1.629, 6.386e-5
-1.628, 6.294e-5
-1.627, 6.211e-5
-1.626, 6.122e-5
-1.625, 6.039e-5
-1.624, 5.953e-5
-1.623, 5.873e-5
-1.622, 5.795e-5
-1.621, 5.716e-5
-1.620, 5.640e-5
-1.619, 5.559e-5
-1.618, 5.483e-5
-1.617, 5.410e-5
-1.616, 5.333e-5
-1.615, 5.257e-5
-1.614, 5.183e-5
-1.613, 5.112e-5
-1.612, 5.045e-5
-1.611, 4.978e-5
-1.610, 4.908e-5
-1.609, 4.842e-5
-1.608, 4.767e-5
-1.607, 4.707e-5
-1.606, 4.643e-5
-1.605, 4.571e-5
-1.604, 4.514e-5
-1.603, 4.450e-5
-1.602, 4.389e-5
-1.601, 4.332e-5
-1.600, 4.270e-5
-1.599, 4.213e-5
-1.598, 4.152e-5
-1.597, 4.098e-5
-1.596, 4.038e-5
-1.595, 3.984e-5
-1.594, 3.930e-5
-1.593, 3.866e-5
-1.592, 3.810e-5
-1.591, 3.762e-5
-1.590, 3.709e-5
-1.589, 3.658e-5
-1.588, 3.603e-5
-1.587, 3.556e-5
-1.586, 3.502e-5
-1.585, 3.453e-5
-1.584, 3.404e-5
-1.583, 3.353e-5
-1.582, 3.310e-5
-1.581, 3.268e-5
-1.580, 3.216e-5
-1.579, 3.170e-5
-1.578, 3.127e-5
-1.577, 3.083e-5
-1.576, 3.041e-5
-1.575, 2.999e-5
-1.574, 2.953e-5
-1.573, 2.915e-5
-1.572, 2.876e-5
-1.571, 2.835e-5
-1.570, 2.795e-5
-1.569, 2.753e-5
-1.568, 2.718e-5
-1.567, 2.677e-5
-1.566, 2.637e-5
-1.565, 2.604e-5
-1.564, 2.566e-5
-1.563, 2.529e-5
-1.562, 2.495e-5
-1.561, 2.458e-5
-1.560, 2.421e-5
-1.559, 2.386e-5
-1.558, 2.353e-5
-1.557, 2.319e-5
-1.556, 2.283e-5
-1.555, 2.251e-5
-1.554, 2.224e-5
-1.553, 2.190e-5
-1.552, 2.160e-5
-1.551, 2.130e-5
-1.550, 2.096e-5
-1.549, 2.067e-5
-1.548, 2.036e-5
-1.547, 2.005e-5
-1.546, 1.979e-5
-1.545, 1.953e-5
-1.544, 1.920e-5
-1.543, 1.897e-5
-1.542, 1.869e-5
-1.541, 1.839e-5
-1.540, 1.819e-5
-1.539, 1.785e-5
-1.538, 1.762e-5
-1.537, 1.735e-5
-1.536, 1.710e-5
-1.535, 1.682e-5
-1.534, 1.660e-5
-1.533, 1.635e-5
-1.532, 1.612e-5
-1.531, 1.586e-5
-1.530, 1.567e-5
-1.529, 1.538e-5
-1.528, 1.523e-5
-1.527, 1.497e-5
-1.526, 1.475e-5
-1.525, 1.455e-5
-1.524, 1.430e-5
-1.523, 1.405e-5
-1.522, 1.389e-5
-1.521, 1.368e-5
-1.520, 1.348e-5
-1.519, 1.331e-5
-1.518, 1.311e-5
-1.517, 1.293e-5
-1.516, 1.274e-5
-1.515, 1.256e-5
-1.514, 1.238e-5
-1.513, 1.215e-5
-1.512, 1.201e-5
-1.511, 1.181e-5
-1.510, 1.161e-5
-1.509, 1.143e-5
-1.508, 1.130e-5
-1.507, 1.111e-5
-1.506, 1.096e-5
-1.505, 1.078e-5
-1.504, 1.060e-5
-1.503, 1.045e-5
-1.502, 1.030e-5
-1.501, 1.013e-5
-1.500, 9.975e-6
-1.499, 9.857e-6
-1.498, 9.717e-6
-1.497, 9.574e-6
-1.496, 9.410e-6
-1.495, 9.255e-6
-1.494, 9.130e-6
-1.493, 8.990e-6
-1.492, 8.835e-6
-1.491, 8.715e-6
-1.490, 8.592e-6
-1.489, 8.481e-6
-1.488, 8.373e-6
-1.487, 8.201e-6
-1.486, 8.064e-6
-1.485, 7.895e-6
-1.484, 7.805e-6
-1.483, 7.699e-6
-1.482, 7.588e-6
-1.481, 7.499e-6
-1.480, 7.382e-6
-1.479, 7.259e-6
-1.478, 7.116e-6
-1.477, 7.012e-6
-1.476, 6.939e-6
-1.475, 6.821e-6
-1.474, 6.671e-6
-1.473, 6.608e-6
-1.472, 6.527e-6
-1.471, 6.381e-6
-1.470, 6.285e-6
-1.469, 6.180e-6
-1.468, 6.090e-6
-1.467, 6.001e-6
-1.466, 5.907e-6
-1.465, 5.847e-6
-1.464, 5.736e-6
-1.463, 5.652e-6
-1.462, 5.559e-6
-1.461, 5.481e-6
-1.460, 5.398e-6
-1.459, 5.318e-6
-1.458, 5.223e-6
-1.457, 5.109e-6
-1.456, 5.066e-6
-1.455, 4.979e-6
-1.454, 4.877e-6
-1.453, 4.824e-6
-1.452, 4.773e-6
-1.451, 4.644e-6
-1.450, 4.594e-6
-1.449, 4.495e-6
-1.448, 4.468e-6
-1.447, 4.371e-6
-1.446, 4.339e-6
-1.445, 4.250e-6
-1.444, 4.190e-6
-1.443, 4.122e-6
-1.442, 4.063e-6
-1.441, 4.021e-6
-1.440, 3.921e-6
-1.439, 3.844e-6
-1.438, 3.770e-6
-1.437, 3.734e-6
-1.436, 3.677e-6
-1.435, 3.622e-6
-1.434, 3.576e-6
-1.433, 3.467e-6
-1.432, 3.419e-6
-1.431, 3.414e-6
-1.430, 3.342e-6
-1.429, 3.305e-6
-1.428, 3.225e-6
-1.427, 3.202e-6
-1.426, 3.143e-6
-1.425, 3.076e-6
-1.424, 3.036e-6
-1.423, 2.979e-6
-1.422, 2.944e-6
-1.421, 2.871e-6
-1.420, 2.855e-6
-1.419, 2.762e-6
-1.418, 2.755e-6
-1.417, 2.678e-6
-1.416, 2.669e-6
-1.415, 2.625e-6
-1.414, 2.572e-6
-1.413, 2.500e-6
-1.412, 2.476e-6
-1.411, 2.433e-6
-1.410, 2.395e-6
-1.409, 2.363e-6
-1.408, 2.335e-6
-1.407, 2.282e-6
-1.406, 2.270e-6
-1.405, 2.191e-6
-1.404, 2.144e-6
-1.403, 2.137e-6
-1.402, 2.075e-6
-1.401, 2.053e-6
-1.400, 1.992e-6
-1.399, 1.983e-6
-1.398, 1.975e-6
-1.397, 1.971e-6
-1.396, 1.887e-6
-1.395, 1.845e-6
-1.394, 1.822e-6
-1.393, 1.800e-6
-1.392, 1.778e-6
-1.391, 1.739e-6
-1.390, 1.707e-6
-1.389, 1.691e-6
-1.388, 1.608e-6
-1.387, 1.627e-6
-1.386, 1.591e-6
-1.385, 1.546e-6
-1.384, 1.504e-6
-1.383, 1.507e-6
-1.382, 1.500e-6
-1.381, 1.450e-6
-1.380, 1.413e-6
-1.379, 1.392e-6
-1.378, 1.358e-6
-1.377, 1.353e-6
-1.376, 1.319e-6
-1.375, 1.293e-6
-1.374, 1.266e-6
-1.373, 1.245e-6
-1.372, 1.258e-6
-1.371, 1.205e-6
-1.370, 1.186e-6
-1.369, 1.155e-6
-1.368, 1.130e-6
-1.367, 1.118e-6
-1.366, 1.089e-6
-1.365, 1.038e-6
-1.364, 1.018e-6
-1.363, 9.923e-7
-1.362, 1.005e-6
-1.361, 9.598e-7
-1.360, 9.331e-7
-1.359, 9.341e-7
-1.358, 9.075e-7
-1.357, 8.710e-7
-1.356, 8.542e-7
-1.355, 8.216e-7
-1.354, 8.631e-7
-1.353, 8.236e-7
-1.352, 7.891e-7
-1.351, 7.792e-7
-1.350, 7.388e-7
-1.349, 7.397e-7
-1.348, 6.904e-7
-1.347, 6.500e-7
-1.346, 6.687e-7
-1.345, 6.539e-7
-1.344, 6.075e-7
-1.343, 6.026e-7
-1.342, 6.184e-7
-1.341, 5.967e-7
-1.340, 5.612e-7
-1.339, 5.306e-7
-1.338, 5.533e-7
-1.337, 5.099e-7
-1.336, 4.980e-7
-1.335, 4.773e-7
-1.334, 4.724e-7
-1.333, 4.211e-7
-1.332, 4.211e-7
-1.331, 4.083e-7
-1.330, 3.688e-7
-1.329, 3.846e-7
-1.328, 3.717e-7
-1.327, 3.422e-7
-1.326, 3.747e-7
-1.325, 3.007e-7
-1.324, 2.820e-7
-1.323, 2.879e-7
-1.322, 2.642e-7
-1.321, 2.632e-7
-1.320, 2.307e-7
-1.319, 2.149e-7
-1.318, 1.991e-7
-1.317, 1.744e-7
-1.316, 1.873e-7
-1.315, 1.488e-7
-1.314, 1.902e-7
-1.313, 1.350e-7
-1.312, 1.537e-7
-1.311, 1.123e-7
-1.310, 9.945e-8
-1.309, 5.801e-8
-1.308, 4.223e-8
-1.307, 6.294e-8
-1.306, 2.348e-8
-1.305, -2.171e-9
-1.304, -1.598e-8
-1.303, 8.682e-9
-1.302, -4.065e-8
-1.301, -4.953e-8
-1.300, -5.150e-8
-1.299, -9.096e-8
-1.298, -9.195e-8
-1.297, -7.617e-8
-1.296, -8.307e-8
-1.295, -1.215e-7
-1.294, -1.679e-7
-1.293, -1.995e-7
-1.292, -2.005e-7
-1.291, -1.926e-7
-1.290, -1.837e-7
-1.289, -2.182e-7
-1.288, -1.867e-7
-1.287, -2.261e-7
-1.286, -2.212e-7
-1.285, -2.705e-7
-1.284, -2.784e-7
-1.283, -3.208e-7
-1.282, -2.616e-7
-1.281, -3.258e-7
-1.280, -3.445e-7
-1.279, -3.504e-7
-1.278, -3.623e-7
-1.277, -3.840e-7
-1.276, -4.077e-7
-1.275, -3.889e-7
-1.274, -4.077e-7
-1.273, -4.215e-7
-1.272, -4.412e-7
-1.271, -4.304e-7
-1.270, -4.945e-7
-1.269, -4.866e-7
-1.268, -5.034e-7
-1.267, -5.152e-7
-1.266, -4.955e-7
-1.265, -5.162e-7
-1.264, -5.389e-7
-1.263, -5.754e-7
-1.262, -5.892e-7
-1.261, -5.783e-7
-1.260, -5.843e-7
-1.259, -6.109e-7
-1.258, -5.655e-7
-1.257, -6.079e-7
-1.256, -6.079e-7
-1.255, -6.444e-7
-1.254, -6.809e-7
-1.253, -6.977e-7
-1.252, -6.612e-7
-1.251, -6.829e-7
-1.250, -6.879e-7
-1.249, -7.273e-7
-1.248, -7.332e-7
-1.247, -7.490e-7
-1.246, -7.490e-7
-1.245, -7.628e-7
-1.244, -7.885e-7
-1.243, -7.944e-7
-1.242, -8.053e-7
-1.241, -8.467e-7
-1.240, -8.230e-7
-1.239, -8.477e-7
-1.238, -8.654e-7
-1.237, -8.289e-7
-1.236, -8.871e-7
-1.235, -8.783e-7
-1.234, -9.296e-7
-1.233, -9.089e-7
-1.232, -9.463e-7
-1.231, -9.256e-7
-1.230, -9.542e-7
-1.229, -9.759e-7
-1.228, -9.503e-7
-1.227, -9.858e-7
-1.226, -9.740e-7
-1.225, -9.967e-7
-1.224, -1.032e-6
-1.223, -1.028e-6
-1.222, -1.022e-6
-1.221, -1.045e-6
-1.220, -1.037e-6
-1.219, -1.063e-6
-1.218, -1.077e-6
-1.217, -1.111e-6
-1.216, -1.090e-6
-1.215, -1.139e-6
-1.214, -1.130e-6
-1.213, -1.122e-6
-1.212, -1.116e-6
-1.211, -1.149e-6
-1.210, -1.151e-6
-1.209, -1.181e-6
-1.208, -1.223e-6
-1.207, -1.199e-6
-1.206, -1.209e-6
-1.205, -1.207e-6
-1.204, -1.248e-6
-1.203, -1.230e-6
-1.202, -1.288e-6
-1.201, -1.258e-6
-1.200, -1.273e-6
-1.199, -1.292e-6
-1.198, -1.296e-6
-1.197, -1.303e-6
-1.196, -1.318e-6
-1.195, -1.343e-6
-1.194, -1.354e-6
-1.193, -1.322e-6
-1.192, -1.370e-6
-1.191, -1.359e-6
-1.190, -1.388e-6
-1.189, -1.378e-6
-1.188, -1.401e-6
-1.187, -1.455e-6
-1.186, -1.421e-6
-1.185, -1.438e-6
-1.184, -1.453e-6
-1.183, -1.457e-6
-1.182, -1.449e-6
-1.181, -1.466e-6
-1.180, -1.489e-6
-1.179, -1.533e-6
-1.178, -1.515e-6
-1.177, -1.517e-6
-1.176, -1.549e-6
-1.175, -1.511e-6
-1.174, -1.584e-6
-1.173, -1.570e-6
-1.172, -1.573e-6
-1.171, -1.575e-6
-1.170, -1.597e-6
-1.169, -1.609e-6
-1.168, -1.596e-6
-1.167, -1.589e-6
-1.166, -1.609e-6
-1.165, -1.640e-6
-1.164, -1.652e-6
-1.163, -1.694e-6
-1.162, -1.664e-6
-1.161, -1.678e-6
-1.160, -1.668e-6
-1.159, -1.689e-6
-1.158, -1.700e-6
-1.157, -1.705e-6
-1.156, -1.750e-6
-1.155, -1.744e-6
-1.154, -1.751e-6
-1.153, -1.776e-6
-1.152, -1.796e-6
-1.151, -1.753e-6
-1.150, -1.772e-6
-1.149, -1.795e-6
-1.148, -1.800e-6
-1.147, -1.830e-6
-1.146, -1.819e-6
-1.145, -1.830e-6
-1.144, -1.873e-6
-1.143, -1.865e-6
-1.142, -1.865e-6
-1.141, -1.859e-6
-1.140, -1.880e-6
-1.139, -1.947e-6
-1.138, -1.944e-6
-1.137, -1.934e-6
-1.136, -1.939e-6
-1.135, -1.978e-6
-1.134, -1.990e-6
-1.133, -1.968e-6
-1.132, -2.028e-6
-1.131, -2.011e-6
-1.130, -2.010e-6
-1.129, -2.043e-6
-1.128, -2.055e-6
-1.127, -2.072e-6
-1.126, -2.073e-6
-1.125, -2.086e-6
-1.124, -2.095e-6
-1.123, -2.124e-6
-1.122, -2.122e-6
-1.121, -2.148e-6
-1.120, -2.159e-6
-1.119, -2.166e-6
-1.118, -2.183e-6
-1.117, -2.173e-6
-1.116, -2.218e-6
-1.115, -2.243e-6
-1.114, -2.231e-6
-1.113, -2.265e-6
-1.112, -2.275e-6
-1.111, -2.300e-6
-1.110, -2.284e-6
-1.109, -2.345e-6
-1.108, -2.327e-6
-1.107, -2.361e-6
-1.106, -2.339e-6
-1.105, -2.381e-6
-1.104, -2.383e-6
-1.103, -2.401e-6
-1.102, -2.414e-6
-1.101, -2.417e-6
-1.100, -2.466e-6
-1.099, -2.470e-6
-1.098, -2.463e-6
-1.097, -2.504e-6
-1.096, -2.556e-6
-1.095, -2.533e-6
-1.094, -2.580e-6
-1.093, -2.585e-6
-1.092, -2.626e-6
-1.091, -2.608e-6
-1.090, -2.615e-6
-1.089, -2.632e-6
-1.088, -2.654e-6
-1.087, -2.680e-6
-1.086, -2.724e-6
-1.085, -2.727e-6
-1.084, -2.736e-6
-1.083, -2.799e-6
-1.082, -2.816e-6
-1.081, -2.789e-6
-1.080, -2.842e-6
-1.079, -2.868e-6
-1.078, -2.890e-6
-1.077, -2.897e-6
-1.076, -2.932e-6
-1.075, -2.941e-6
-1.074, -2.986e-6
-1.073, -2.998e-6
-1.072, -3.036e-6
-1.071, -3.031e-6
-1.070, -3.064e-6
-1.069, -3.089e-6
-1.068, -3.107e-6
-1.067, -3.138e-6
-1.066, -3.149e-6
-1.065, -3.154e-6
-1.064, -3.218e-6
-1.063, -3.240e-6
-1.062, -3.257e-6
-1.061, -3.264e-6
-1.060, -3.287e-6
-1.059, -3.350e-6
-1.058, -3.352e-6
-1.057, -3.395e-6
-1.056, -3.420e-6
-1.055, -3.475e-6
-1.054, -3.436e-6
-1.053, -3.502e-6
-1.052, -3.544e-6
-1.051, -3.540e-6
-1.050, -3.564e-6
-1.049, -3.644e-6
-1.048, -3.684e-6
-1.047, -3.687e-6
-1.046, -3.712e-6
-1.045, -3.743e-6
-1.044, -3.758e-6
-1.043, -3.801e-6
-1.042, -3.831e-6
-1.041, -3.867e-6
-1.040, -3.913e-6
-1.039, -3.927e-6
-1.038, -3.940e-6
-1.037, -3.972e-6
-1.036, -4.012e-6
-1.035, -4.026e-6
-1.034, -4.107e-6
-1.033, -4.104e-6
-1.032, -4.158e-6
-1.031, -4.151e-6
-1.030, -4.216e-6
-1.029, -4.230e-6
-1.028, -4.254e-6
-1.027, -4.319e-6
-1.026, -4.338e-6
-1.025, -4.381e-6
-1.024, -4.408e-6
-1.023, -4.424e-6
-1.022, -4.456e-6
-1.021, -4.471e-6
-1.020, -4.545e-6
-1.019, -4.555e-6
-1.018, -4.590e-6
-1.017, -4.618e-6
-1.016, -4.641e-6
-1.015, -4.652e-6
-1.014, -4.698e-6
-1.013, -4.724e-6
-1.012, -4.787e-6
-1.011, -4.854e-6
-1.010, -4.846e-6
-1.009, -4.862e-6
-1.008, -4.877e-6
-1.007, -4.905e-6
-1.006, -4.949e-6
-1.005, -4.973e-6
-1.004, -5.033e-6
-1.003, -5.034e-6
-1.002, -5.082e-6
-1.001, -5.053e-6
-1.000, -4.696e-6
-1.001, -4.295e-6
-1.002, -4.047e-6
-1.003, -3.806e-6
-1.004, -3.602e-6
-1.005, -3.425e-6
-1.006, -3.261e-6
-1.007, -3.071e-6
-1.008, -2.946e-6
-1.009, -2.817e-6
-1.010, -2.698e-6
-1.011, -2.564e-6
-1.012, -2.422e-6
-1.013, -2.307e-6
-1.014, -2.207e-6
-1.015, -2.079e-6
-1.016, -2.039e-6
-1.017, -1.889e-6
-1.018, -1.809e-6
-1.019, -1.748e-6
-1.020, -1.619e-6
-1.021, -1.562e-6
-1.022, -1.481e-6
-1.023, -1.399e-6
-1.024, -1.325e-6
-1.025, -1.262e-6
-1.026, -1.216e-6
-1.027, -1.115e-6
-1.028, -1.050e-6
-1.029, -9.868e-7
-1.030, -8.960e-7
-1.031, -8.901e-7
-1.032, -8.210e-7
-1.033, -7.668e-7
-1.034, -7.253e-7
-1.035, -6.642e-7
-1.036, -6.612e-7
-1.037, -5.764e-7
-1.038, -5.053e-7
-1.039, -4.895e-7
-1.040, -4.156e-7
-1.041, -4.136e-7
-1.042, -3.495e-7
-1.043, -3.051e-7
-1.044, -2.616e-7
-1.045, -2.153e-7
-1.046, -1.857e-7
-1.047, -1.304e-7
-1.048, -1.245e-7
-1.049, -8.800e-8
-1.050, -3.473e-8
-1.051, 1.855e-8
-1.052, -6.117e-9
-1.053, 5.308e-8
-1.054, 7.676e-8
-1.055, 1.192e-7
-1.056, 1.468e-7
-1.057, 1.833e-7
-1.058, 2.425e-7
-1.059, 2.415e-7
-1.060, 2.780e-7
-1.061, 2.800e-7
-1.062, 3.352e-7
-1.063, 3.441e-7
-1.064, 3.777e-7
-1.065, 3.925e-7
-1.066, 4.329e-7
-1.067, 4.073e-7
-1.068, 5.000e-7
-1.069, 5.010e-7
-1.070, 5.099e-7
-1.071, 5.138e-7
-1.072, 5.503e-7
-1.073, 5.622e-7
-1.074, 6.016e-7
-1.075, 6.588e-7
-1.076, 6.608e-7
-1.077, 6.687e-7
-1.078, 6.806e-7
-1.079, 7.141e-7
-1.080, 7.230e-7
-1.081, 7.496e-7
-1.082, 7.496e-7
-1.083, 7.980e-7
-1.084, 8.137e-7
-1.085, 8.088e-7
-1.086, 8.315e-7
-1.087, 8.394e-7
-1.088, 8.660e-7
-1.089, 9.144e-7
-1.090, 9.114e-7
-1.091, 9.242e-7
-1.092, 9.420e-7
-1.093, 9.657e-7
-1.094, 9.755e-7
-1.095, 9.923e-7
-1.096, 9.706e-7
-1.097, 1.045e-6
-1.098, 1.048e-6
-1.099, 1.019e-6
-1.100, 1.101e-6
-1.101, 1.099e-6
-1.102, 1.083e-6
-1.103, 1.089e-6
-1.104, 1.130e-6
-1.105, 1.145e-6
-1.106, 1.154e-6
-1.107, 1.169e-6
-1.108, 1.223e-6
-1.109, 1.208e-6
-1.110, 1.202e-6
-1.111, 1.239e-6
-1.112, 1.223e-6
-1.113, 1.271e-6
-1.114, 1.272e-6
-1.115, 1.294e-6
-1.116, 1.274e-6
-1.117, 1.305e-6
-1.118, 1.344e-6
-1.119, 1.341e-6
-1.120, 1.339e-6
-1.121, 1.374e-6
-1.122, 1.371e-6
-1.123, 1.412e-6
-1.124, 1.408e-6
-1.125, 1.394e-6
-1.126, 1.412e-6
-1.127, 1.404e-6
-1.128, 1.449e-6
-1.129, 1.458e-6
-1.130, 1.477e-6
-1.131, 1.480e-6
-1.132, 1.506e-6
-1.133, 1.513e-6
-1.134, 1.492e-6
-1.135, 1.550e-6
-1.136, 1.546e-6
-1.137, 1.554e-6
-1.138, 1.582e-6
-1.139, 1.589e-6
-1.140, 1.581e-6
-1.141, 1.609e-6
-1.142, 1.603e-6
-1.143, 1.630e-6
-1.144, 1.657e-6
-1.145, 1.657e-6
-1.146, 1.655e-6
-1.147, 1.702e-6
-1.148, 1.683e-6
-1.149, 1.700e-6
-1.150, 1.707e-6
-1.151, 1.734e-6
-1.152, 1.749e-6
-1.153, 1.750e-6
-1.154, 1.783e-6
-1.155, 1.786e-6
-1.156, 1.773e-6
-1.157, 1.784e-6
-1.158, 1.793e-6
-1.159, 1.819e-6
-1.160, 1.836e-6
-1.161, 1.851e-6
-1.162, 1.856e-6
-1.163, 1.873e-6
-1.164, 1.866e-6
-1.165, 1.934e-6
-1.166, 1.895e-6
-1.167, 1.905e-6
-1.168, 1.919e-6
-1.169, 1.974e-6
-1.170, 1.928e-6
-1.171, 1.974e-6
-1.172, 1.962e-6
-1.173, 1.999e-6
-1.174, 2.027e-6
-1.175, 2.033e-6
-1.176, 2.016e-6
-1.177, 2.061e-6
-1.178, 2.057e-6
-1.179, 2.081e-6
-1.180, 2.086e-6
-1.181, 2.070e-6
-1.182, 2.118e-6
-1.183, 2.099e-6
-1.184, 2.146e-6
-1.185, 2.125e-6
-1.186, 2.145e-6
-1.187, 2.156e-6
-1.188, 2.157e-6
-1.189, 2.179e-6
-1.190, 2.214e-6
-1.191, 2.194e-6
-1.192, 2.226e-6
-1.193, 2.244e-6
-1.194, 2.268e-6
-1.195, 2.280e-6
-1.196, 2.248e-6
-1.197, 2.280e-6
-1.198, 2.260e-6
-1.199, 2.306e-6
-1.200, 2.353e-6
-1.201, 2.364e-6
-1.202, 2.332e-6
-1.203, 2.336e-6
-1.204, 2.356e-6
-1.205, 2.383e-6
-1.206, 2.366e-6
-1.207, 2.399e-6
-1.208, 2.415e-6
-1.209, 2.468e-6
-1.210, 2.434e-6
-1.211, 2.440e-6
-1.212, 2.444e-6
-1.213, 2.442e-6
-1.214, 2.518e-6
-1.215, 2.481e-6
-1.216, 2.514e-6
-1.217, 2.525e-6
-1.218, 2.542e-6
-1.219, 2.550e-6
-1.220, 2.543e-6
-1.221, 2.560e-6
-1.222, 2.565e-6
-1.223, 2.606e-6
-1.224, 2.613e-6
-1.225, 2.600e-6
-1.226, 2.593e-6
-1.227, 2.633e-6
-1.228, 2.622e-6
-1.229, 2.674e-6
-1.230, 2.672e-6
-1.231, 2.669e-6
-1.232, 2.708e-6
-1.233, 2.706e-6
-1.234, 2.696e-6
-1.235, 2.720e-6
-1.236, 2.772e-6
-1.237, 2.732e-6
-1.238, 2.734e-6
-1.239, 2.751e-6
-1.240, 2.790e-6
-1.241, 2.759e-6
-1.242, 2.820e-6
-1.243, 2.821e-6
-1.244, 2.848e-6
-1.245, 2.842e-6
-1.246, 2.865e-6
-1.247, 2.887e-6
-1.248, 2.883e-6
-1.249, 2.852e-6
-1.250, 2.896e-6
-1.251, 2.896e-6
-1.252, 2.904e-6
-1.253, 2.947e-6
-1.254, 2.927e-6
-1.255, 2.966e-6
-1.256, 2.952e-6
-1.257, 2.957e-6
-1.258, 2.979e-6
-1.259, 2.961e-6
-1.260, 3.015e-6
-1.261, 3.005e-6
-1.262, 3.023e-6
-1.263, 3.047e-6
-1.264, 3.046e-6
-1.265, 3.062e-6
-1.266, 3.060e-6
-1.267, 3.057e-6
-1.268, 3.095e-6
-1.269, 3.106e-6
-1.270, 3.153e-6
-1.271, 3.133e-6
-1.272, 3.134e-6
-1.273, 3.115e-6
-1.274, 3.199e-6
-1.275, 3.184e-6
-1.276, 3.199e-6
-1.277, 3.179e-6
-1.278, 3.169e-6
-1.279, 3.214e-6
-1.280, 3.240e-6
-1.281, 3.229e-6
-1.282, 3.279e-6
-1.283, 3.299e-6
-1.284, 3.306e-6
-1.285, 3.321e-6
-1.286, 3.288e-6
-1.287, 3.303e-6
-1.288, 3.316e-6
-1.289, 3.341e-6
-1.290, 3.381e-6
-1.291, 3.375e-6
-1.292, 3.373e-6
-1.293, 3.393e-6
-1.294, 3.403e-6
-1.295, 3.425e-6
-1.296, 3.419e-6
-1.297, 3.438e-6
-1.298, 3.456e-6
-1.299, 3.467e-6
-1.300, 3.489e-6
-1.301, 3.452e-6
-1.302, 3.496e-6
-1.303, 3.489e-6
-1.304, 3.555e-6
-1.305, 3.533e-6
-1.306, 3.561e-6
-1.307, 3.576e-6
-1.308, 3.625e-6
-1.309, 3.597e-6
-1.310, 3.642e-6
-1.311, 3.622e-6
-1.312, 3.628e-6
-1.313, 3.646e-6
-1.314, 3.639e-6
-1.315, 3.706e-6
-1.316, 3.685e-6
-1.317, 3.685e-6
-1.318, 3.714e-6
-1.319, 3.765e-6
-1.320, 3.747e-6
-1.321, 3.767e-6
-1.322, 3.745e-6
-1.323, 3.781e-6
-1.324, 3.802e-6
-1.325, 3.824e-6
-1.326, 3.829e-6
-1.327, 3.864e-6
-1.328, 3.911e-6
-1.329, 3.874e-6
-1.330, 3.904e-6
-1.331, 3.865e-6
-1.332, 3.900e-6
-1.333, 3.927e-6
-1.334, 3.969e-6
-1.335, 3.975e-6
-1.336, 3.980e-6
-1.337, 3.995e-6
-1.338, 4.036e-6
-1.339, 4.025e-6
-1.340, 4.019e-6
-1.341, 4.064e-6
-1.342, 4.091e-6
-1.343, 4.070e-6
-1.344, 4.117e-6
-1.345, 4.133e-6
-1.346, 4.106e-6
-1.347, 4.133e-6
-1.348, 4.176e-6
-1.349, 4.175e-6
-1.350, 4.210e-6
-1.351, 4.246e-6
-1.352, 4.224e-6
-1.353, 4.249e-6
-1.354, 4.267e-6
-1.355, 4.289e-6
-1.356, 4.282e-6
-1.357, 4.308e-6
-1.358, 4.351e-6
-1.359, 4.372e-6
-1.360, 4.411e-6
-1.361, 4.420e-6
-1.362, 4.427e-6
-1.363, 4.436e-6
-1.364, 4.433e-6
-1.365, 4.468e-6
-1.366, 4.468e-6
-1.367, 4.490e-6
-1.368, 4.541e-6
-1.369, 4.552e-6
-1.370, 4.582e-6
-1.371, 4.579e-6
-1.372, 4.593e-6
-1.373, 4.583e-6
-1.374, 4.647e-6
-1.375, 4.674e-6
-1.376, 4.683e-6
-1.377, 4.666e-6
-1.378, 4.745e-6
-1.379, 4.764e-6
-1.380, 4.755e-6
-1.381, 4.756e-6
-1.382, 4.797e-6
-1.383, 4.811e-6
-1.384, 4.880e-6
-1.385, 4.892e-6
-1.386, 4.898e-6
-1.387, 4.909e-6
-1.388, 4.917e-6
-1.389, 4.937e-6
-1.390, 4.956e-6
-1.391, 4.994e-6
-1.392, 5.036e-6
-1.393, 5.018e-6
-1.394, 5.048e-6
-1.395, 5.053e-6
-1.396, 5.084e-6
-1.397, 5.139e-6
-1.398, 5.132e-6
-1.399, 5.169e-6
-1.400, 5.191e-6
-1.401, 5.173e-6
-1.402, 5.174e-6
-1.403, 5.238e-6
-1.404, 5.281e-6
-1.405, 5.281e-6
-1.406, 5.323e-6
-1.407, 5.358e-6
-1.408, 5.329e-6
-1.409, 5.377e-6
-1.410, 5.428e-6
-1.411, 5.404e-6
-1.412, 5.417e-6
-1.413, 5.479e-6
-1.414, 5.536e-6
-1.415, 5.532e-6
-1.416, 5.579e-6
-1.417, 5.601e-6
-1.418, 5.605e-6
-1.419, 5.635e-6
-1.420, 5.691e-6
-1.421, 5.679e-6
-1.422, 5.675e-6
-1.423, 5.722e-6
-1.424, 5.697e-6
-1.425, 5.788e-6
-1.426, 5.798e-6
-1.427, 5.830e-6
-1.428, 5.863e-6
-1.429, 5.888e-6
-1.430, 5.887e-6
-1.431, 5.942e-6
-1.432, 5.925e-6
-1.433, 5.950e-6
-1.434, 6.027e-6
-1.435, 6.092e-6
-1.436, 6.070e-6
-1.437, 6.082e-6
-1.438, 6.123e-6
-1.439, 6.138e-6
-1.440, 6.199e-6
-1.441, 6.210e-6
-1.442, 6.217e-6
-1.443, 6.269e-6
-1.444, 6.280e-6
-1.445, 6.306e-6
-1.446, 6.356e-6
-1.447, 6.360e-6
-1.448, 6.363e-6
-1.449, 6.438e-6
-1.450, 6.480e-6
-1.451, 6.510e-6
-1.452, 6.526e-6
-1.453, 6.571e-6
-1.454, 6.579e-6
-1.455, 6.612e-6
-1.456, 6.635e-6
-1.457, 6.661e-6
-1.458, 6.724e-6
-1.459, 6.759e-6
-1.460, 6.812e-6
-1.461, 6.800e-6
-1.462, 6.842e-6
-1.463, 6.889e-6
-1.464, 6.906e-6
-1.465, 6.966e-6
-1.466, 6.949e-6
-1.467, 7.052e-6
-1.468, 7.071e-6
-1.469, 7.092e-6
-1.470, 7.085e-6
-1.471, 7.133e-6
-1.472, 7.176e-6
-1.473, 7.211e-6
-1.474, 7.243e-6
-1.475, 7.335e-6
-1.476, 7.364e-6
-1.477, 7.339e-6
-1.478, 7.436e-6
-1.479, 7.431e-6
-1.480, 7.457e-6
-1.481, 7.504e-6
-1.482, 7.569e-6
-1.483, 7.610e-6
-1.484, 7.668e-6
-1.485, 7.703e-6
-1.486, 7.704e-6
-1.487, 7.743e-6
-1.488, 7.802e-6
-1.489, 7.848e-6
-1.490, 7.918e-6
-1.491, 7.941e-6
-1.492, 7.975e-6
-1.493, 8.009e-6
-1.494, 8.052e-6
-1.495, 8.121e-6
-1.496, 8.153e-6
-1.497, 8.217e-6
-1.498, 8.231e-6
-1.499, 8.276e-6
-1.500, 8.338e-6
-1.501, 8.364e-6
-1.502, 8.428e-6
-1.503, 8.464e-6
-1.504, 8.529e-6
-1.505, 8.545e-6
-1.506, 8.619e-6
-1.507, 8.652e-6
-1.508, 8.678e-6
-1.509, 8.727e-6
-1.510, 8.800e-6
-1.511, 8.780e-6
-1.512, 8.889e-6
-1.513, 8.981e-6
-1.514, 9.028e-6
-1.515, 9.057e-6
-1.516, 9.107e-6
-1.517, 9.158e-6
-1.518, 9.208e-6
-1.519, 9.241e-6
-1.520, 9.342e-6
-1.521, 9.368e-6
-1.522, 9.455e-6
-1.523, 9.516e-6
-1.524, 9.590e-6
-1.525, 9.626e-6
-1.526, 9.671e-6
-1.527, 9.732e-6
-1.528, 9.807e-6
-1.529, 9.853e-6
-1.530, 9.971e-6
-1.531, 1.004e-5
-1.532, 1.009e-5
-1.533, 1.021e-5
-1.534, 1.023e-5
-1.535, 1.031e-5
-1.536, 1.037e-5
-1.537, 1.047e-5
-1.538, 1.055e-5
-1.539, 1.062e-5
-1.540, 1.073e-5
-1.541, 1.078e-5
-1.542, 1.083e-5
-1.543, 1.091e-5
-1.544, 1.100e-5
-1.545, 1.107e-5
-1.546, 1.115e-5
-1.547, 1.125e-5
-1.548, 1.133e-5
-1.549, 1.143e-5
-1.550, 1.149e-5
-1.551, 1.159e-5
-1.552, 1.171e-5
-1.553, 1.180e-5
-1.554, 1.188e-5
-1.555, 1.197e-5
-1.556, 1.210e-5
-1.557, 1.216e-5
-1.558, 1.229e-5
-1.559, 1.238e-5
-1.560, 1.246e-5
-1.561, 1.256e-5
-1.562, 1.270e-5
-1.563, 1.281e-5
-1.564, 1.291e-5
-1.565, 1.300e-5
-1.566, 1.311e-5
-1.567, 1.321e-5
-1.568, 1.338e-5
-1.569, 1.348e-5
-1.570, 1.360e-5
-1.571, 1.372e-5
-1.572, 1.389e-5
-1.573, 1.401e-5
-1.574, 1.417e-5
-1.575, 1.429e-5
-1.576, 1.436e-5
-1.577, 1.455e-5
-1.578, 1.469e-5
-1.579, 1.481e-5
-1.580, 1.497e-5
-1.581, 1.513e-5
-1.582, 1.535e-5
-1.583, 1.546e-5
-1.584, 1.561e-5
-1.585, 1.582e-5
-1.586, 1.592e-5
-1.587, 1.614e-5
-1.588, 1.629e-5
-1.589, 1.649e-5
-1.590, 1.662e-5
-1.591, 1.684e-5
-1.592, 1.701e-5
-1.593, 1.725e-5
-1.594, 1.742e-5
-1.595, 1.763e-5
-1.596, 1.777e-5
-1.597, 1.801e-5
-1.598, 1.824e-5
-1.599, 1.846e-5
-1.600, 1.867e-5
-1.601, 1.886e-5
-1.602, 1.911e-5
-1.603, 1.934e-5
-1.604, 1.949e-5
-1.605, 1.981e-5
-1.606, 2.001e-5
-1.607, 2.030e-5
-1.608, 2.058e-5
-1.609, 2.083e-5
-1.610, 2.108e-5
-1.611, 2.130e-5
-1.612, 2.158e-5
-1.613, 2.187e-5
-1.614, 2.218e-5
-1.615, 2.248e-5
-1.616, 2.278e-5
-1.617, 2.303e-5
-1.618, 2.340e-5
-1.619, 2.370e-5
-1.620, 2.402e-5
-1.621, 2.428e-5
-1.622, 2.466e-5
-1.623, 2.498e-5
-1.624, 2.538e-5
-1.625, 2.570e-5
-1.626, 2.601e-5
-1.627, 2.642e-5
-1.628, 2.679e-5
-1.629, 2.714e-5
-1.630, 2.758e-5
-1.631, 2.793e-5
-1.632, 2.834e-5
-1.633, 2.878e-5
-1.634, 2.918e-5
-1.635, 2.964e-5
-1.636, 3.001e-5
-1.637, 3.051e-5
-1.638, 3.097e-5
-1.639, 3.145e-5
-1.640, 3.196e-5
-1.641, 3.246e-5
-1.642, 3.292e-5
-1.643, 3.340e-5
-1.644, 3.394e-5
-1.645, 3.447e-5
-1.646, 3.498e-5
-1.647, 3.553e-5
-1.648, 3.607e-5
-1.649, 3.671e-5
-1.650, 3.726e-5
-1.651, 3.784e-5
-1.652, 3.842e-5
-1.653, 3.903e-5
-1.654, 3.969e-5
-1.655, 4.036e-5
-1.656, 4.089e-5
-1.657, 4.159e-5
-1.658, 4.229e-5
-1.659, 4.298e-5
-1.660, 4.365e-5
-1.661, 4.431e-5
-1.662, 4.507e-5
-1.663, 4.580e-5
-1.664, 4.660e-5
-1.665, 4.735e-5
-1.666, 4.814e-5
-1.667, 4.889e-5
-1.668, 4.973e-5
-1.669, 5.057e-5
-1.670, 5.140e-5
-1.671, 5.231e-5
-1.672, 5.312e-5
-1.673, 5.403e-5
-1.674, 5.496e-5
-1.675, 5.587e-5
-1.676, 5.681e-5
-1.677, 5.774e-5
-1.678, 5.877e-5
-1.679, 5.975e-5
-1.680, 6.074e-5
-1.681, 6.181e-5
-1.682, 6.282e-5
-1.683, 6.393e-5
-1.684, 6.506e-5
-1.685, 6.618e-5
-1.686, 6.732e-5
-1.687, 6.846e-5
-1.688, 6.967e-5
-1.689, 7.090e-5
-1.690, 7.212e-5
-1.691, 7.329e-5
-1.692, 7.454e-5
-1.693, 7.587e-5
-1.694, 7.719e-5
-1.695, 7.850e-5
-1.696, 7.990e-5
-1.697, 8.132e-5
-1.698, 8.276e-5
-1.699, 8.426e-5
-1.700, 8.576e-5
-1.701, 8.725e-5
-1.702, 8.880e-5
-1.703, 9.037e-5
-1.704, 9.197e-5
-1.705, 9.357e-5
-1.706, 9.523e-5
-1.707, 9.683e-5
-1.708, 9.858e-5
-1.709, 1.003e-4
-1.710, 1.021e-4
-1.711, 1.039e-4
-1.712, 1.058e-4
-1.713, 1.077e-4
-1.714, 1.096e-4
-1.715, 1.116e-4
-1.716, 1.137e-4
-1.717, 1.157e-4
-1.718, 1.178e-4
-1.719, 1.200e-4
-1.720, 1.222e-4
-1.721, 1.244e-4
-1.722, 1.267e-4
-1.723, 1.291e-4
-1.724, 1.314e-4
-1.725, 1.338e-4
-1.726, 1.362e-4
-1.727, 1.387e-4
-1.728, 1.414e-4
-1.729, 1.439e-4
-1.730, 1.465e-4
-1.731, 1.492e-4
-1.732, 1.520e-4
-1.733, 1.549e-4
-1.734, 1.579e-4
-1.735, 1.609e-4
-1.736, 1.640e-4
-1.737, 1.671e-4
-1.738, 1.702e-4
-1.739, 1.736e-4
-1.740, 1.769e-4
-1.741, 1.804e-4
-1.742, 1.839e-4
-1.743, 1.875e-4
-1.744, 1.912e-4
-1.745, 1.949e-4
-1.746, 1.987e-4
-1.747, 2.025e-4
-1.748, 2.066e-4
-1.749, 2.108e-4
-1.750, 2.149e-4
-1.751, 2.193e-4
-1.752, 2.237e-4
-1.753, 2.283e-4
-1.754, 2.331e-4
-1.755, 2.379e-4
-1.756, 2.429e-4
-1.757, 2.480e-4
-1.758, 2.533e-4
-1.759, 2.587e-4
-1.760, 2.643e-4
-1.761, 2.700e-4
-1.762, 2.760e-4
-1.763, 2.820e-4
-1.764, 2.883e-4
-1.765, 2.946e-4
-1.766, 3.013e-4
-1.767, 3.082e-4
-1.768, 3.153e-4
-1.769, 3.228e-4
-1.770, 3.302e-4
-1.771, 3.378e-4
-1.772, 3.458e-4
-1.773, 3.542e-4
-1.774, 3.627e-4
-1.775, 3.718e-4
-1.776, 3.810e-4
-1.777, 3.905e-4
-1.778, 4.000e-4
-1.779, 4.100e-4
-1.780, 4.201e-4
-1.781, 4.307e-4
-1.782, 4.415e-4
-1.783, 4.529e-4
-1.784, 4.647e-4
-1.785, 4.766e-4
-1.786, 4.892e-4
-1.787, 5.021e-4
-1.788, 5.152e-4
-1.789, 5.290e-4
-1.790, 5.435e-4
-1.791, 5.582e-4
-1.792, 5.737e-4
-1.793, 5.897e-4
-1.794, 6.062e-4
-1.795, 6.229e-4
-1.796, 6.402e-4
-1.797, 6.581e-4
-1.798, 6.766e-4
-1.799, 6.959e-4
-1.800, 7.068e-4
-1.799, 7.063e-4
-1.798, 7.042e-4
-1.797, 7.012e-4
-1.796, 6.969e-4
-1.795, 6.922e-4
-1.794, 6.871e-4
-1.793, 6.807e-4
-1.792, 6.725e-4
-1.791, 6.662e-4
-1.790, 6.600e-4
-1.789, 6.533e-4
-1.788, 6.457e-4
-1.787, 6.384e-4
-1.786, 6.308e-4
-1.785, 6.233e-4
-1.784, 6.156e-4
-1.783, 6.076e-4
-1.782, 5.998e-4
-1.781, 5.918e-4
-1.780, 5.836e-4
-1.779, 5.757e-4
-1.778, 5.678e-4
-1.777, 5.600e-4
-1.776, 5.522e-4
-1.775, 5.442e-4
-1.774, 5.360e-4
-1.773, 5.282e-4
-1.772, 5.202e-4
-1.771, 5.124e-4
-1.770, 5.046e-4
-1.769, 4.973e-4
-1.768, 4.896e-4
-1.767, 4.818e-4
-1.766, 4.745e-4
-1.765, 4.672e-4
-1.764, 4.599e-4
-1.763, 4.525e-4
-1.762, 4.453e-4
-1.761, 4.383e-4
-1.760, 4.312e-4
-1.759, 4.244e-4
-1.758, 4.175e-4
-1.757, 4.109e-4
-1.756, 4.042e-4
-1.755, 3.975e-4
-1.754, 3.911e-4
-1.753, 3.846e-4
-1.752, 3.784e-4
-1.751, 3.721e-4
-1.750, 3.662e-4
-1.749, 3.602e-4
-1.748, 3.544e-4
-1.747, 3.485e-4
-1.746, 3.427e-4
-1.745, 3.371e-4
-1.744, 3.315e-4
-1.743, 3.259e-4
-1.742, 3.205e-4
-1.741, 3.152e-4
-1.740, 3.100e-4
-1.739, 3.047e-4
-1.738, 2.996e-4
-1.737, 2.946e-4
-1.736, 2.897e-4
-1.735, 2.850e-4
-1.734, 2.802e-4
-1.733, 2.755e-4
-1.732, 2.709e-4
-1.731, 2.666e-4
-1.730, 2.623e-4
-1.729, 2.579e-4
-1.728, 2.536e-4
-1.727, 2.495e-4
-1.726, 2.454e-4
-1.725, 2.415e-4
-1.724, 2.376e-4
-1.723, 2.337e-4
-1.722, 2.299e-4
-1.721, 2.262e-4
-1.720, 2.225e-4
-1.719, 2.189e-4
-1.718, 2.153e-4
-1.717, 2.120e-4
-1.716, 2.085e-4
-1.715, 2.051e-4
-1.714, 2.018e-4
-1.713, 1.985e-4
-1.712, 1.952e-4
-1.711, 1.922e-4
-1.710, 1.892e-4
-1.709, 1.861e-4
-1.708, 1.831e-4
-1.707, 1.803e-4
-1.706, 1.775e-4
-1.705, 1.746e-4
-1.704, 1.719e-4
-1.703, 1.691e-4
-1.702, 1.664e-4
-1.701, 1.638e-4
-1.700, 1.612e-4
-1.699, 1.587e-4
-1.698, 1.561e-4
-1.697, 1.537e-4
-1.696, 1.513e-4
-1.695, 1.489e-4
-1.694, 1.466e-4
-1.693, 1.443e-4
-1.692, 1.420e-4
-1.691, 1.399e-4
-1.690, 1.378e-4
-1.689, 1.356e-4
-1.688, 1.335e-4
-1.687, 1.315e-4
-1.686, 1.295e-4
-1.685, 1.275e-4
-1.684, 1.256e-4
-1.683, 1.237e-4
-1.682, 1.218e-4
-1.681, 1.199e-4
-1.680, 1.182e-4
-1.679, 1.163e-4
-1.678, 1.145e-4
-1.677, 1.127e-4
-1.676, 1.111e-4
-1.675, 1.095e-4
-1.674, 1.078e-4
-1.673, 1.062e-4
-1.672, 1.047e-4
-1.671, 1.030e-4
-1.670, 1.016e-4
-1.669, 1.001e-4
-1.668, 9.856e-5
-1.667, 9.714e-5
-1.666, 9.569e-5
-1.665, 9.431e-5
-1.664, 9.290e-5
-1.663, 9.150e-5
-1.662, 9.013e-5
-1.661, 8.887e-5
-1.660, 8.751e-5
-1.659, 8.625e-5
-1.658, 8.504e-5
-1.657, 8.372e-5
-1.656, 8.258e-5
-1.655, 8.132e-5
-1.654, 8.012e-5
-1.653, 7.892e-5
-1.652, 7.780e-5
-1.651, 7.667e-5
-1.650, 7.559e-5
-1.649, 7.451e-5
-1.648, 7.343e-5
-1.647, 7.241e-5
-1.646, 7.133e-5
-1.645, 7.028e-5
-1.644, 6.928e-5
-1.643, 6.822e-5
-1.642, 6.727e-5
-1.641, 6.632e-5
-1.640, 6.535e-5
-1.639, 6.444e-5
-1.638, 6.346e-5
-1.637, 6.255e-5
-1.636, 6.169e-5
-1.635, 6.083e-5
-1.634, 5.991e-5
-1.633, 5.907e-5
-1.632, 5.823e-5
-1.631, 5.747e-5
-1.630, 5.660e-5
-1.629, 5.580e-5
-1.628, 5.493e-5
-1.627, 5.422e-5
-1.626, 5.339e-5
-1.625, 5.267e-5
-1.624, 5.193e-5
-1.623, 5.118e-5
-1.622, 5.045e-5
-1.621, 4.976e-5
-1.620, 4.900e-5
-1.619, 4.830e-5
-1.618, 4.764e-5
-1.617, 4.698e-5
-1.616, 4.629e-5
-1.615, 4.561e-5
-1.614, 4.495e-5
-1.613, 4.429e-5
-1.612, 4.362e-5
-1.611, 4.305e-5
-1.610, 4.241e-5
-1.609, 4.187e-5
-1.608, 4.126e-5
-1.607, 4.069e-5
-1.606, 4.009e-5
-1.605, 3.953e-5
-1.604, 3.900e-5
-1.603, 3.844e-5
-1.602, 3.790e-5
-1.601, 3.736e-5
-1.600, 3.685e-5
-1.599, 3.629e-5
-1.598, 3.581e-5
-1.597, 3.528e-5
-1.596, 3.482e-5
-1.595, 3.427e-5
-1.594, 3.382e-5
-1.593, 3.334e-5
-1.592, 3.290e-5
-1.591, 3.241e-5
-1.590, 3.198e-5
-1.589, 3.152e-5
-1.588, 3.104e-5
-1.587, 3.057e-5
-1.586, 3.013e-5
-1.585, 2.976e-5
-1.584, 2.937e-5
-1.583, 2.891e-5
-1.582, 2.850e-5
-1.581, 2.813e-5
-1.580, 2.773e-5
-1.579, 2.732e-5
-1.578, 2.692e-5
-1.577, 2.653e-5
-1.576, 2.621e-5
-1.575, 2.578e-5
-1.574, 2.540e-5
-1.573, 2.508e-5
-1.572, 2.472e-5
-1.571, 2.434e-5
-1.570, 2.405e-5
-1.569, 2.368e-5
-1.568, 2.334e-5
-1.567, 2.301e-5
-1.566, 2.270e-5
-1.565, 2.238e-5
-1.564, 2.206e-5
-1.563, 2.171e-5
-1.562, 2.144e-5
-1.561, 2.115e-5
-1.560, 2.082e-5
-1.559, 2.052e-5
-1.558, 2.021e-5
-1.557, 1.992e-5
-1.556, 1.962e-5
-1.555, 1.938e-5
-1.554, 1.912e-5
-1.553, 1.880e-5
-1.552, 1.852e-5
-1.551, 1.829e-5
-1.550, 1.799e-5
-1.549, 1.774e-5
-1.548, 1.749e-5
-1.547, 1.721e-5
-1.546, 1.698e-5
-1.545, 1.674e-5
-1.544, 1.655e-5
-1.543, 1.624e-5
-1.542, 1.604e-5
-1.541, 1.581e-5
-1.540, 1.558e-5
-1.539, 1.535e-5
-1.538, 1.508e-5
-1.537, 1.490e-5
-1.536, 1.470e-5
-1.535, 1.448e-5
-1.534, 1.424e-5
-1.533, 1.402e-5
-1.532, 1.386e-5
-1.531, 1.364e-5
-1.530, 1.346e-5
-1.529, 1.329e-5
-1.528, 1.305e-5
-1.527, 1.282e-5
-1.526, 1.270e-5
-1.525, 1.251e-5
-1.524, 1.233e-5
-1.523, 1.213e-5
-1.522, 1.196e-5
-1.521, 1.177e-5
-1.520, 1.162e-5
-1.519, 1.144e-5
-1.518, 1.128e-5
-1.517, 1.107e-5
-1.516, 1.096e-5
-1.515, 1.079e-5
-1.514, 1.064e-5
-1.513, 1.045e-5
-1.512, 1.033e-5
-1.511, 1.018e-5
-1.510, 9.996e-6
-1.509, 9.909e-6
-1.508, 9.702e-6
-1.507, 9.563e-6
-1.506, 9.443e-6
-1.505, 9.287e-6
-1.504, 9.125e-6
-1.503, 9.021e-6
-1.502, 8.893e-6
-1.501, 8.744e-6
-1.500, 8.651e-6
-1.499, 8.490e-6
-1.498, 8.355e-6
-1.497, 8.240e-6
-1.496, 8.135e-6
-1.495, 7.997e-6
-1.494, 7.865e-6
-1.493, 7.762e-6
-1.492, 7.633e-6
-1.491, 7.526e-6
-1.490, 7.431e-6
-1.489, 7.310e-6
-1.488, 7.204e-6
-1.487, 7.079e-6
-1.486, 6.957e-6
-1.485, 6.899e-6
-1.484, 6.794e-6
-1.483, 6.671e-6
-1.482, 6.572e-6
-1.481, 6.485e-6
-1.480, 6.390e-6
-1.479, 6.314e-6
-1.478, 6.173e-6
-1.477, 6.103e-6
-1.476, 5.979e-6
-1.475, 5.912e-6
-1.474, 5.825e-6
-1.473, 5.753e-6
-1.472, 5.649e-6
-1.471, 5.604e-6
-1.470, 5.456e-6
-1.469, 5.370e-6
-1.468, 5.318e-6
-1.467, 5.224e-6
-1.466, 5.142e-6
-1.465, 5.069e-6
-1.464, 5.010e-6
-1.463, 4.874e-6
-1.462, 4.828e-6
-1.461, 4.789e-6
-1.460, 4.712e-6
-1.459, 4.617e-6
-1.458, 4.526e-6
-1.457, 4.462e-6
-1.456, 4.391e-6
-1.455, 4.308e-6
-1.454, 4.284e-6
-1.453, 4.228e-6
-1.452, 4.155e-6
-1.451, 4.068e-6
-1.450, 4.015e-6
-1.449, 3.952e-6
-1.448, 3.881e-6
-1.447, 3.860e-6
-1.446, 3.768e-6
-1.445, 3.709e-6
-1.444, 3.674e-6
-1.443, 3.572e-6
-1.442, 3.495e-6
-1.441, 3.509e-6
-1.440, 3.407e-6
-1.439, 3.356e-6
-1.438, 3.324e-6
-1.437, 3.260e-6
-1.436, 3.213e-6
-1.435, 3.182e-6
-1.434, 3.109e-6
-1.433, 3.022e-6
-1.432, 3.011e-6
-1.431, 2.976e-6
-1.430, 2.919e-6
-1.429, 2.841e-6
-1.428, 2.818e-6
-1.427, 2.778e-6
-1.426, 2.721e-6
-1.425, 2.680e-6
-1.424, 2.617e-6
-1.423, 2.582e-6
-1.422, 2.551e-6
-1.421, 2.519e-6
-1.420, 2.451e-6
-1.419, 2.454e-6
-1.418, 2.403e-6
-1.417, 2.342e-6
-1.416, 2.280e-6
-1.415, 2.262e-6
-1.414, 2.243e-6
-1.413, 2.184e-6
-1.412, 2.149e-6
-1.411, 2.123e-6
-1.410, 2.093e-6
-1.409, 2.055e-6
-1.408, 2.016e-6
-1.407, 1.982e-6
-1.406, 1.937e-6
-1.405, 1.933e-6
-1.404, 1.858e-6
-1.403, 1.813e-6
-1.402, 1.821e-6
-1.401, 1.775e-6
-1.400, 1.764e-6
-1.399, 1.704e-6
-1.398, 1.679e-6
-1.397, 1.671e-6
-1.396, 1.617e-6
-1.395, 1.603e-6
-1.394, 1.592e-6
-1.393, 1.546e-6
-1.392, 1.558e-6
-1.391, 1.487e-6
-1.390, 1.464e-6
-1.389, 1.426e-6
-1.388, 1.410e-6
-1.387, 1.415e-6
-1.386, 1.385e-6
-1.385, 1.366e-6
-1.384, 1.311e-6
-1.383, 1.297e-6
-1.382, 1.266e-6
-1.381, 1.263e-6
-1.380, 1.226e-6
-1.379, 1.182e-6
-1.378, 1.152e-6
-1.377, 1.149e-6
-1.376, 1.161e-6
-1.375, 1.118e-6
-1.374, 1.111e-6
-1.373, 1.086e-6
-1.372, 1.067e-6
-1.371, 1.041e-6
-1.370, 1.004e-6
-1.369, 9.953e-7
-1.368, 9.617e-7
-1.367, 9.479e-7
-1.366, 9.341e-7
-1.365, 8.956e-7
-1.364, 9.144e-7
-1.363, 8.818e-7
-1.362, 8.453e-7
-1.361, 8.483e-7
-1.360, 8.276e-7
-1.359, 8.295e-7
-1.358, 7.674e-7
-1.357, 7.259e-7
-1.356, 7.013e-7
-1.355, 7.111e-7
-1.354, 7.200e-7
-1.353, 6.904e-7
-1.352, 6.697e-7
-1.351, 6.431e-7
-1.350, 6.302e-7
-1.349, 5.868e-7
-1.348, 5.947e-7
-1.347, 5.740e-7
-1.346, 5.839e-7
-1.345, 5.622e-7
-1.344, 5.010e-7
-1.343, 4.951e-7
-1.342, 5.138e-7
-1.341, 5.118e-7
-1.340, 4.783e-7
-1.339, 4.556e-7
-1.338, 4.181e-7
-1.337, 4.122e-7
-1.336, 4.526e-7
-1.335, 4.171e-7
-1.334, 3.925e-7
-1.333, 3.708e-7
-1.332, 3.727e-7
-1.331, 3.658e-7
-1.330, 3.116e-7
-1.329, 3.372e-7
-1.328, 2.741e-7
-1.327, 2.790e-7
-1.326, 2.839e-7
-1.325, 2.780e-7
-1.324, 2.593e-7
-1.323, 2.277e-7
-1.322, 2.425e-7
-1.321, 2.504e-7
-1.320, 1.961e-7
-1.319, 2.040e-7
-1.318, 1.586e-7
-1.317, 1.853e-7
-1.316, 1.498e-7
-1.315, 8.761e-8
-1.314, 1.142e-7
-1.313, 1.281e-7
-1.312, 9.945e-8
-1.311, 5.308e-8
-1.310, 6.689e-8
-1.309, 3.532e-8
-1.308, 3.729e-8
-1.307, 4.519e-8
-1.306, 6.709e-9
-1.305, 2.762e-9
-1.304, -1.184e-9
-1.303, -1.598e-8
-1.302, -2.585e-8
-1.301, -5.051e-8
-1.300, -4.163e-8
-1.299, -8.011e-8
-1.298, -8.603e-8
-1.297, -8.603e-8
-1.296, -7.321e-8
-1.295, -1.077e-7
-1.294, -1.294e-7
-1.293, -1.867e-7
-1.292, -1.669e-7
-1.291, -1.590e-7
-1.290, -1.423e-7
-1.289, -1.581e-7
-1.288, -2.182e-7
-1.287, -2.380e-7
-1.286, -2.172e-7
-1.285, -2.340e-7
-1.284, -2.538e-7
-1.283, -2.873e-7
-1.282, -2.755e-7
-1.281, -3.031e-7
-1.280, -2.804e-7
-1.279, -3.139e-7
-1.278, -3.307e-7
-1.277, -3.218e-7
-1.276, -3.445e-7
-1.275, -3.721e-7
-1.274, -3.840e-7
-1.273, -3.771e-7
-1.272, -3.840e-7
-1.271, -4.086e-7
-1.270, -4.067e-7
-1.269, -4.333e-7
-1.268, -3.958e-7
-1.267, -4.313e-7
-1.266, -4.353e-7
-1.265, -4.639e-7
-1.264, -5.103e-7
-1.263, -4.945e-7
-1.262, -5.211e-7
-1.261, -5.241e-7
-1.260, -5.409e-7
-1.259, -5.487e-7
-1.258, -5.191e-7
-1.257, -5.349e-7
-1.256, -5.428e-7
-1.255, -5.961e-7
-1.254, -6.000e-7
-1.253, -5.714e-7
-1.252, -5.852e-7
-1.251, -5.971e-7
-1.250, -6.070e-7
-1.249, -6.227e-7
-1.248, -6.474e-7
-1.247, -6.701e-7
-1.246, -6.740e-7
-1.245, -6.849e-7
-1.244, -6.809e-7
-1.243, -7.056e-7
-1.242, -7.540e-7
-1.241, -7.253e-7
-1.240, -7.323e-7
-1.239, -6.997e-7
-1.238, -7.589e-7
-1.237, -7.549e-7
-1.236, -7.845e-7
-1.235, -7.737e-7
-1.234, -7.845e-7
-1.233, -8.220e-7
-1.232, -8.072e-7
-1.231, -8.270e-7
-1.230, -8.289e-7
-1.229, -8.260e-7
-1.228, -8.605e-7
-1.227, -8.832e-7
-1.226, -8.566e-7
-1.225, -8.714e-7
-1.224, -9.118e-7
-1.223, -9.355e-7
-1.222, -9.148e-7
-1.221, -9.098e-7
-1.220, -9.029e-7
-1.219, -9.483e-7
-1.218, -9.602e-7
-1.217, -9.888e-7
-1.216, -9.680e-7
-1.215, -9.986e-7
-1.214, -1.004e-6
-1.213, -1.043e-6
-1.212, -1.031e-6
-1.211, -1.012e-6
-1.210, -1.038e-6
-1.209, -1.031e-6
-1.208, -1.043e-6
-1.207, -1.086e-6
-1.206, -1.100e-6
-1.205, -1.108e-6
-1.204, -1.092e-6
-1.203, -1.121e-6
-1.202, -1.144e-6
-1.201, -1.131e-6
-1.200, -1.119e-6
-1.199, -1.125e-6
-1.198, -1.174e-6
-1.197, -1.170e-6
-1.196, -1.181e-6
-1.195, -1.185e-6
-1.194, -1.177e-6
-1.193, -1.226e-6
-1.192, -1.203e-6
-1.191, -1.259e-6
-1.190, -1.231e-6
-1.189, -1.249e-6
-1.188, -1.255e-6
-1.187, -1.261e-6
-1.186, -1.250e-6
-1.185, -1.282e-6
-1.184, -1.314e-6
-1.183, -1.287e-6
-1.182, -1.308e-6
-1.181, -1.286e-6
-1.180, -1.329e-6
-1.179, -1.335e-6
-1.178, -1.378e-6
-1.177, -1.367e-6
-1.176, -1.351e-6
-1.175, -1.380e-6
-1.174, -1.403e-6
-1.173, -1.392e-6
-1.172, -1.406e-6
-1.171, -1.374e-6
-1.170, -1.428e-6
-1.169, -1.412e-6
-1.168, -1.458e-6
-1.167, -1.454e-6
-1.166, -1.431e-6
-1.165, -1.460e-6
-1.164, -1.489e-6
-1.163, -1.510e-6
-1.162, -1.500e-6
-1.161, -1.491e-6
-1.160, -1.505e-6
-1.159, -1.524e-6
-1.158, -1.551e-6
-1.157, -1.555e-6
-1.156, -1.537e-6
-1.155, -1.553e-6
-1.154, -1.549e-6
-1.153, -1.578e-6
-1.152, -1.599e-6
-1.151, -1.611e-6
-1.150, -1.625e-6
-1.149, -1.607e-6
-1.148, -1.620e-6
-1.147, -1.634e-6
-1.146, -1.648e-6
-1.145, -1.643e-6
-1.144, -1.698e-6
-1.143, -1.674e-6
-1.142, -1.674e-6
-1.141, -1.693e-6
-1.140, -1.718e-6
-1.139, -1.742e-6
-1.138, -1.744e-6
-1.137, -1.729e-6
-1.136, -1.781e-6
-1.135, -1.752e-6
-1.134, -1.788e-6
-1.133, -1.798e-6
-1.132, -1.777e-6
-1.131, -1.851e-6
-1.130, -1.815e-6
-1.129, -1.857e-6
-1.128, -1.856e-6
-1.127, -1.847e-6
-1.126, -1.867e-6
-1.125, -1.872e-6
-1.124, -1.949e-6
-1.123, -1.906e-6
-1.122, -1.946e-6
-1.121, -1.933e-6
-1.120, -1.941e-6
-1.119, -1.995e-6
-1.118, -1.986e-6
-1.117, -2.017e-6
-1.116, -2.001e-6
-1.115, -2.010e-6
-1.114, -2.020e-6
-1.113, -2.065e-6
-1.112, -2.070e-6
-1.111, -2.087e-6
-1.110, -2.105e-6
-1.109, -2.089e-6
-1.108, -2.123e-6
-1.107, -2.127e-6
-1.106, -2.148e-6
-1.105, -2.142e-6
-1.104, -2.162e-6
-1.103, -2.219e-6
-1.102, -2.223e-6
-1.101, -2.267e-6
-1.100, -2.214e-6
-1.099, -2.247e-6
-1.098, -2.260e-6
-1.097, -2.278e-6
-1.096, -2.335e-6
-1.095, -2.331e-6
-1.094, -2.327e-6
-1.093, -2.372e-6
-1.092, -2.367e-6
-1.091, -2.407e-6
-1.090, -2.417e-6
-1.089, -2.411e-6
-1.088, -2.429e-6
-1.087, -2.473e-6
-1.086, -2.501e-6
-1.085, -2.500e-6
-1.084, -2.507e-6
-1.083, -2.550e-6
-1.082, -2.558e-6
-1.081, -2.585e-6
-1.080, -2.600e-6
-1.079, -2.613e-6
-1.078, -2.655e-6
-1.077, -2.646e-6
-1.076, -2.659e-6
-1.075, -2.717e-6
-1.074, -2.760e-6
-1.073, -2.778e-6
-1.072, -2.753e-6
-1.071, -2.796e-6
-1.070, -2.835e-6
-1.069, -2.844e-6
-1.068, -2.882e-6
-1.067, -2.905e-6
-1.066, -2.902e-6
-1.065, -2.932e-6
-1.064, -2.962e-6
-1.063, -3.016e-6
-1.062, -3.040e-6
-1.061, -3.022e-6
-1.060, -3.075e-6
-1.059, -3.094e-6
-1.058, -3.150e-6
-1.057, -3.140e-6
-1.056, -3.180e-6
-1.055, -3.211e-6
-1.054, -3.197e-6
-1.053, -3.250e-6
-1.052, -3.299e-6
-1.051, -3.320e-6
-1.050, -3.373e-6
-1.049, -3.400e-6
-1.048, -3.415e-6
-1.047, -3.436e-6
-1.046, -3.496e-6
-1.045, -3.477e-6
-1.044, -3.506e-6
-1.043, -3.571e-6
-1.042, -3.588e-6
-1.041, -3.656e-6
-1.040, -3.638e-6
-1.039, -3.699e-6
-1.038, -3.722e-6
-1.037, -3.725e-6
-1.036, -3.805e-6
-1.035, -3.806e-6
-1.034, -3.880e-6
-1.033, -3.879e-6
-1.032, -3.924e-6
-1.031, -3.958e-6
-1.030, -3.982e-6
-1.029, -4.037e-6
-1.028, -4.069e-6
-1.027, -4.091e-6
-1.026, -4.116e-6
-1.025, -4.164e-6
-1.024, -4.234e-6
-1.023, -4.222e-6
-1.022, -4.268e-6
-1.021, -4.283e-6
-1.020, -4.333e-6
-1.019, -4.394e-6
-1.018, -4.433e-6
-1.017, -4.423e-6
-1.016, -4.460e-6
-1.015, -4.527e-6
-1.014, -4.520e-6
-1.013, -4.565e-6
-1.012, -4.614e-6
-1.011, -4.642e-6
-1.010, -4.663e-6
-1.009, -4.678e-6
-1.008, -4.726e-6
-1.007, -4.779e-6
-1.006, -4.788e-6
-1.005, -4.853e-6
-1.004, -4.872e-6
-1.003, -4.950e-6
-1.002, -4.946e-6
-1.001, -4.954e-6
