Aug. 22, 2024   14:23:25
Cyclic Voltammetry
File: c:/users/guazh/data/20240813_batch_94_500/2024-08-15-exp160\exp160-2024-08-22t14_05_32-arkoh\exp160_cv_sr_100mvs_efin_-1700mv.bin
Data Source:  Experiment
Instrument Model:  CHI760E
Header: CV ran at 100 mVs
Note: 

Init E (V) = -1
High E (V) = -1
Low E (V) = -1.7
Final E (V) = -1
Init P/N = N
Scan Rate (V/s) = 0.1
Segment = 3
Sample Interval (V) = 0.001
Quiet Time (sec) = 2
Sensitivity (A/V) = 0.01
Comp R (ohm) = 1.6

Results:

Channel 1:
Segment 1:

Segment 2:

Segment 3:

Potential/V, Current/A

-1.000, 3.224e-6
-1.001, 6.470e-6
-1.002, 7.871e-6
-1.003, 8.749e-6
-1.004, 9.213e-6
-1.005, 1.000e-5
-1.006, 1.038e-5
-1.007, 1.079e-5
-1.008, 1.121e-5
-1.009, 1.139e-5
-1.010, 1.178e-5
-1.011, 1.192e-5
-1.012, 1.212e-5
-1.013, 1.237e-5
-1.014, 1.251e-5
-1.015, 1.264e-5
-1.016, 1.293e-5
-1.017, 1.293e-5
-1.018, 1.321e-5
-1.019, 1.309e-5
-1.020, 1.336e-5
-1.021, 1.348e-5
-1.022, 1.354e-5
-1.023, 1.377e-5
-1.024, 1.390e-5
-1.025, 1.398e-5
-1.026, 1.416e-5
-1.027, 1.414e-5
-1.028, 1.425e-5
-1.029, 1.417e-5
-1.030, 1.431e-5
-1.031, 1.453e-5
-1.032, 1.444e-5
-1.033, 1.451e-5
-1.034, 1.449e-5
-1.035, 1.457e-5
-1.036, 1.468e-5
-1.037, 1.477e-5
-1.038, 1.476e-5
-1.039, 1.477e-5
-1.040, 1.481e-5
-1.041, 1.497e-5
-1.042, 1.490e-5
-1.043, 1.495e-5
-1.044, 1.491e-5
-1.045, 1.513e-5
-1.046, 1.514e-5
-1.047, 1.518e-5
-1.048, 1.520e-5
-1.049, 1.511e-5
-1.050, 1.540e-5
-1.051, 1.539e-5
-1.052, 1.532e-5
-1.053, 1.536e-5
-1.054, 1.534e-5
-1.055, 1.542e-5
-1.056, 1.557e-5
-1.057, 1.550e-5
-1.058, 1.558e-5
-1.059, 1.557e-5
-1.060, 1.560e-5
-1.061, 1.569e-5
-1.062, 1.556e-5
-1.063, 1.578e-5
-1.064, 1.554e-5
-1.065, 1.567e-5
-1.066, 1.592e-5
-1.067, 1.574e-5
-1.068, 1.586e-5
-1.069, 1.560e-5
-1.070, 1.573e-5
-1.071, 1.593e-5
-1.072, 1.585e-5
-1.073, 1.598e-5
-1.074, 1.575e-5
-1.075, 1.609e-5
-1.076, 1.612e-5
-1.077, 1.597e-5
-1.078, 1.597e-5
-1.079, 1.607e-5
-1.080, 1.612e-5
-1.081, 1.616e-5
-1.082, 1.621e-5
-1.083, 1.624e-5
-1.084, 1.617e-5
-1.085, 1.613e-5
-1.086, 1.641e-5
-1.087, 1.641e-5
-1.088, 1.643e-5
-1.089, 1.635e-5
-1.090, 1.654e-5
-1.091, 1.657e-5
-1.092, 1.630e-5
-1.093, 1.653e-5
-1.094, 1.635e-5
-1.095, 1.660e-5
-1.096, 1.664e-5
-1.097, 1.642e-5
-1.098, 1.669e-5
-1.099, 1.649e-5
-1.100, 1.668e-5
-1.101, 1.685e-5
-1.102, 1.668e-5
-1.103, 1.681e-5
-1.104, 1.668e-5
-1.105, 1.677e-5
-1.106, 1.693e-5
-1.107, 1.690e-5
-1.108, 1.699e-5
-1.109, 1.688e-5
-1.110, 1.687e-5
-1.111, 1.699e-5
-1.112, 1.681e-5
-1.113, 1.718e-5
-1.114, 1.692e-5
-1.115, 1.703e-5
-1.116, 1.716e-5
-1.117, 1.701e-5
-1.118, 1.722e-5
-1.119, 1.711e-5
-1.120, 1.710e-5
-1.121, 1.719e-5
-1.122, 1.710e-5
-1.123, 1.734e-5
-1.124, 1.725e-5
-1.125, 1.747e-5
-1.126, 1.730e-5
-1.127, 1.735e-5
-1.128, 1.749e-5
-1.129, 1.735e-5
-1.130, 1.753e-5
-1.131, 1.738e-5
-1.132, 1.752e-5
-1.133, 1.774e-5
-1.134, 1.751e-5
-1.135, 1.759e-5
-1.136, 1.763e-5
-1.137, 1.746e-5
-1.138, 1.771e-5
-1.139, 1.765e-5
-1.140, 1.787e-5
-1.141, 1.790e-5
-1.142, 1.773e-5
-1.143, 1.784e-5
-1.144, 1.771e-5
-1.145, 1.780e-5
-1.146, 1.798e-5
-1.147, 1.786e-5
-1.148, 1.802e-5
-1.149, 1.802e-5
-1.150, 1.789e-5
-1.151, 1.808e-5
-1.152, 1.803e-5
-1.153, 1.813e-5
-1.154, 1.801e-5
-1.155, 1.824e-5
-1.156, 1.823e-5
-1.157, 1.814e-5
-1.158, 1.842e-5
-1.159, 1.818e-5
-1.160, 1.823e-5
-1.161, 1.837e-5
-1.162, 1.831e-5
-1.163, 1.834e-5
-1.164, 1.835e-5
-1.165, 1.852e-5
-1.166, 1.852e-5
-1.167, 1.840e-5
-1.168, 1.868e-5
-1.169, 1.844e-5
-1.170, 1.856e-5
-1.171, 1.869e-5
-1.172, 1.864e-5
-1.173, 1.882e-5
-1.174, 1.867e-5
-1.175, 1.879e-5
-1.176, 1.888e-5
-1.177, 1.875e-5
-1.178, 1.898e-5
-1.179, 1.884e-5
-1.180, 1.891e-5
-1.181, 1.912e-5
-1.182, 1.893e-5
-1.183, 1.909e-5
-1.184, 1.897e-5
-1.185, 1.909e-5
-1.186, 1.917e-5
-1.187, 1.891e-5
-1.188, 1.928e-5
-1.189, 1.913e-5
-1.190, 1.923e-5
-1.191, 1.940e-5
-1.192, 1.920e-5
-1.193, 1.943e-5
-1.194, 1.925e-5
-1.195, 1.935e-5
-1.196, 1.948e-5
-1.197, 1.934e-5
-1.198, 1.952e-5
-1.199, 1.947e-5
-1.200, 1.952e-5
-1.201, 1.966e-5
-1.202, 1.947e-5
-1.203, 1.960e-5
-1.204, 1.969e-5
-1.205, 1.974e-5
-1.206, 1.994e-5
-1.207, 1.980e-5
-1.208, 1.992e-5
-1.209, 1.989e-5
-1.210, 1.981e-5
-1.211, 2.009e-5
-1.212, 1.976e-5
-1.213, 2.010e-5
-1.214, 1.997e-5
-1.215, 2.009e-5
-1.216, 2.021e-5
-1.217, 1.995e-5
-1.218, 2.036e-5
-1.219, 2.014e-5
-1.220, 2.009e-5
-1.221, 2.036e-5
-1.222, 2.001e-5
-1.223, 2.034e-5
-1.224, 2.033e-5
-1.225, 2.024e-5
-1.226, 2.053e-5
-1.227, 2.024e-5
-1.228, 2.043e-5
-1.229, 2.064e-5
-1.230, 2.054e-5
-1.231, 2.078e-5
-1.232, 2.043e-5
-1.233, 2.060e-5
-1.234, 2.082e-5
-1.235, 2.067e-5
-1.236, 2.102e-5
-1.237, 2.060e-5
-1.238, 2.090e-5
-1.239, 2.087e-5
-1.240, 2.067e-5
-1.241, 2.098e-5
-1.242, 2.080e-5
-1.243, 2.109e-5
-1.244, 2.102e-5
-1.245, 2.092e-5
-1.246, 2.112e-5
-1.247, 2.084e-5
-1.248, 2.104e-5
-1.249, 2.113e-5
-1.250, 2.109e-5
-1.251, 2.124e-5
-1.252, 2.112e-5
-1.253, 2.131e-5
-1.254, 2.126e-5
-1.255, 2.141e-5
-1.256, 2.162e-5
-1.257, 2.139e-5
-1.258, 2.158e-5
-1.259, 2.153e-5
-1.260, 2.166e-5
-1.261, 2.184e-5
-1.262, 2.163e-5
-1.263, 2.169e-5
-1.264, 2.190e-5
-1.265, 2.189e-5
-1.266, 2.214e-5
-1.267, 2.186e-5
-1.268, 2.217e-5
-1.269, 2.206e-5
-1.270, 2.217e-5
-1.271, 2.244e-5
-1.272, 2.224e-5
-1.273, 2.236e-5
-1.274, 2.247e-5
-1.275, 2.245e-5
-1.276, 2.300e-5
-1.277, 2.258e-5
-1.278, 2.285e-5
-1.279, 2.286e-5
-1.280, 2.314e-5
-1.281, 2.338e-5
-1.282, 2.316e-5
-1.283, 2.343e-5
-1.284, 2.350e-5
-1.285, 2.351e-5
-1.286, 2.380e-5
-1.287, 2.375e-5
-1.288, 2.388e-5
-1.289, 2.404e-5
-1.290, 2.428e-5
-1.291, 2.454e-5
-1.292, 2.450e-5
-1.293, 2.478e-5
-1.294, 2.494e-5
-1.295, 2.509e-5
-1.296, 2.524e-5
-1.297, 2.538e-5
-1.298, 2.548e-5
-1.299, 2.565e-5
-1.300, 2.594e-5
-1.301, 2.626e-5
-1.302, 2.631e-5
-1.303, 2.670e-5
-1.304, 2.703e-5
-1.305, 2.700e-5
-1.306, 2.737e-5
-1.307, 2.738e-5
-1.308, 2.780e-5
-1.309, 2.798e-5
-1.310, 2.832e-5
-1.311, 2.871e-5
-1.312, 2.872e-5
-1.313, 2.928e-5
-1.314, 2.950e-5
-1.315, 2.974e-5
-1.316, 3.021e-5
-1.317, 3.032e-5
-1.318, 3.085e-5
-1.319, 3.128e-5
-1.320, 3.157e-5
-1.321, 3.207e-5
-1.322, 3.233e-5
-1.323, 3.286e-5
-1.324, 3.323e-5
-1.325, 3.376e-5
-1.326, 3.418e-5
-1.327, 3.455e-5
-1.328, 3.515e-5
-1.329, 3.565e-5
-1.330, 3.620e-5
-1.331, 3.685e-5
-1.332, 3.732e-5
-1.333, 3.789e-5
-1.334, 3.848e-5
-1.335, 3.911e-5
-1.336, 3.980e-5
-1.337, 4.031e-5
-1.338, 4.112e-5
-1.339, 4.168e-5
-1.340, 4.247e-5
-1.341, 4.335e-5
-1.342, 4.387e-5
-1.343, 4.476e-5
-1.344, 4.568e-5
-1.345, 4.649e-5
-1.346, 4.746e-5
-1.347, 4.826e-5
-1.348, 4.914e-5
-1.349, 5.011e-5
-1.350, 5.106e-5
-1.351, 5.230e-5
-1.352, 5.319e-5
-1.353, 5.435e-5
-1.354, 5.557e-5
-1.355, 5.647e-5
-1.356, 5.781e-5
-1.357, 5.891e-5
-1.358, 6.034e-5
-1.359, 6.167e-5
-1.360, 6.301e-5
-1.361, 6.435e-5
-1.362, 6.575e-5
-1.363, 6.732e-5
-1.364, 6.874e-5
-1.365, 7.032e-5
-1.366, 7.216e-5
-1.367, 7.369e-5
-1.368, 7.537e-5
-1.369, 7.706e-5
-1.370, 7.917e-5
-1.371, 8.098e-5
-1.372, 8.279e-5
-1.373, 8.501e-5
-1.374, 8.698e-5
-1.375, 8.917e-5
-1.376, 9.148e-5
-1.377, 9.364e-5
-1.378, 9.593e-5
-1.379, 9.827e-5
-1.380, 1.007e-4
-1.381, 1.035e-4
-1.382, 1.061e-4
-1.383, 1.089e-4
-1.384, 1.116e-4
-1.385, 1.145e-4
-1.386, 1.176e-4
-1.387, 1.203e-4
-1.388, 1.236e-4
-1.389, 1.269e-4
-1.390, 1.302e-4
-1.391, 1.337e-4
-1.392, 1.371e-4
-1.393, 1.409e-4
-1.394, 1.444e-4
-1.395, 1.484e-4
-1.396, 1.523e-4
-1.397, 1.563e-4
-1.398, 1.606e-4
-1.399, 1.648e-4
-1.400, 1.692e-4
-1.401, 1.739e-4
-1.402, 1.784e-4
-1.403, 1.832e-4
-1.404, 1.881e-4
-1.405, 1.932e-4
-1.406, 1.983e-4
-1.407, 2.036e-4
-1.408, 2.091e-4
-1.409, 2.144e-4
-1.410, 2.201e-4
-1.411, 2.258e-4
-1.412, 2.317e-4
-1.413, 2.380e-4
-1.414, 2.441e-4
-1.415, 2.505e-4
-1.416, 2.570e-4
-1.417, 2.635e-4
-1.418, 2.705e-4
-1.419, 2.774e-4
-1.420, 2.848e-4
-1.421, 2.925e-4
-1.422, 2.997e-4
-1.423, 3.077e-4
-1.424, 3.155e-4
-1.425, 3.236e-4
-1.426, 3.318e-4
-1.427, 3.400e-4
-1.428, 3.491e-4
-1.429, 3.576e-4
-1.430, 3.668e-4
-1.431, 3.759e-4
-1.432, 3.849e-4
-1.433, 3.946e-4
-1.434, 4.043e-4
-1.435, 4.141e-4
-1.436, 4.241e-4
-1.437, 4.342e-4
-1.438, 4.447e-4
-1.439, 4.553e-4
-1.440, 4.661e-4
-1.441, 4.771e-4
-1.442, 4.881e-4
-1.443, 4.996e-4
-1.444, 5.113e-4
-1.445, 5.231e-4
-1.446, 5.350e-4
-1.447, 5.470e-4
-1.448, 5.594e-4
-1.449, 5.718e-4
-1.450, 5.845e-4
-1.451, 5.972e-4
-1.452, 6.099e-4
-1.453, 6.232e-4
-1.454, 6.365e-4
-1.455, 6.499e-4
-1.456, 6.633e-4
-1.457, 6.771e-4
-1.458, 6.915e-4
-1.459, 7.057e-4
-1.460, 7.207e-4
-1.461, 7.350e-4
-1.462, 7.496e-4
-1.463, 7.645e-4
-1.464, 7.793e-4
-1.465, 7.944e-4
-1.466, 8.103e-4
-1.467, 8.257e-4
-1.468, 8.417e-4
-1.469, 8.576e-4
-1.470, 8.738e-4
-1.471, 8.904e-4
-1.472, 9.077e-4
-1.473, 9.245e-4
-1.474, 9.411e-4
-1.475, 9.585e-4
-1.476, 9.755e-4
-1.477, 9.925e-4
-1.478, 1.010e-3
-1.479, 1.028e-3
-1.480, 1.045e-3
-1.481, 1.063e-3
-1.482, 1.081e-3
-1.483, 1.099e-3
-1.484, 1.118e-3
-1.485, 1.137e-3
-1.486, 1.155e-3
-1.487, 1.173e-3
-1.488, 1.192e-3
-1.489, 1.210e-3
-1.490, 1.228e-3
-1.491, 1.247e-3
-1.492, 1.265e-3
-1.493, 1.283e-3
-1.494, 1.301e-3
-1.495, 1.320e-3
-1.496, 1.337e-3
-1.497, 1.355e-3
-1.498, 1.374e-3
-1.499, 1.391e-3
-1.500, 1.409e-3
-1.501, 1.427e-3
-1.502, 1.445e-3
-1.503, 1.464e-3
-1.504, 1.484e-3
-1.505, 1.503e-3
-1.506, 1.521e-3
-1.507, 1.540e-3
-1.508, 1.560e-3
-1.509, 1.578e-3
-1.510, 1.598e-3
-1.511, 1.617e-3
-1.512, 1.637e-3
-1.513, 1.659e-3
-1.514, 1.680e-3
-1.515, 1.697e-3
-1.516, 1.718e-3
-1.517, 1.739e-3
-1.518, 1.760e-3
-1.519, 1.782e-3
-1.520, 1.804e-3
-1.521, 1.822e-3
-1.522, 1.840e-3
-1.523, 1.859e-3
-1.524, 1.879e-3
-1.525, 1.903e-3
-1.526, 1.927e-3
-1.527, 1.948e-3
-1.528, 1.968e-3
-1.529, 1.987e-3
-1.530, 2.006e-3
-1.531, 2.024e-3
-1.532, 2.041e-3
-1.533, 2.057e-3
-1.534, 2.074e-3
-1.535, 2.092e-3
-1.536, 2.110e-3
-1.537, 2.127e-3
-1.538, 2.145e-3
-1.539, 2.162e-3
-1.540, 2.180e-3
-1.541, 2.202e-3
-1.542, 2.222e-3
-1.543, 2.241e-3
-1.544, 2.260e-3
-1.545, 2.281e-3
-1.546, 2.299e-3
-1.547, 2.320e-3
-1.548, 2.343e-3
-1.549, 2.364e-3
-1.550, 2.385e-3
-1.551, 2.406e-3
-1.552, 2.426e-3
-1.553, 2.447e-3
-1.554, 2.469e-3
-1.555, 2.492e-3
-1.556, 2.515e-3
-1.557, 2.535e-3
-1.558, 2.559e-3
-1.559, 2.577e-3
-1.560, 2.595e-3
-1.561, 2.616e-3
-1.562, 2.629e-3
-1.563, 2.650e-3
-1.564, 2.673e-3
-1.565, 2.691e-3
-1.566, 2.710e-3
-1.567, 2.732e-3
-1.568, 2.749e-3
-1.569, 2.771e-3
-1.570, 2.792e-3
-1.571, 2.814e-3
-1.572, 2.839e-3
-1.573, 2.860e-3
-1.574, 2.897e-3
-1.575, 2.926e-3
-1.576, 2.946e-3
-1.577, 2.978e-3
-1.578, 2.998e-3
-1.579, 3.007e-3
-1.580, 3.031e-3
-1.581, 3.046e-3
-1.582, 3.063e-3
-1.583, 3.082e-3
-1.584, 3.099e-3
-1.585, 3.121e-3
-1.586, 3.137e-3
-1.587, 3.152e-3
-1.588, 3.183e-3
-1.589, 3.210e-3
-1.590, 3.256e-3
-1.591, 3.289e-3
-1.592, 3.299e-3
-1.593, 3.319e-3
-1.594, 3.340e-3
-1.595, 3.359e-3
-1.596, 3.377e-3
-1.597, 3.397e-3
-1.598, 3.417e-3
-1.599, 3.438e-3
-1.600, 3.461e-3
-1.601, 3.487e-3
-1.602, 3.516e-3
-1.603, 3.535e-3
-1.604, 3.551e-3
-1.605, 3.589e-3
-1.606, 3.627e-3
-1.607, 3.643e-3
-1.608, 3.659e-3
-1.609, 3.677e-3
-1.610, 3.700e-3
-1.611, 3.727e-3
-1.612, 3.734e-3
-1.613, 3.760e-3
-1.614, 3.790e-3
-1.615, 3.818e-3
-1.616, 3.845e-3
-1.617, 3.877e-3
-1.618, 3.895e-3
-1.619, 3.911e-3
-1.620, 3.933e-3
-1.621, 3.958e-3
-1.622, 3.975e-3
-1.623, 4.006e-3
-1.624, 4.026e-3
-1.625, 4.057e-3
-1.626, 4.090e-3
-1.627, 4.118e-3
-1.628, 4.141e-3
-1.629, 4.193e-3
-1.630, 4.231e-3
-1.631, 4.257e-3
-1.632, 4.273e-3
-1.633, 4.307e-3
-1.634, 4.354e-3
-1.635, 4.370e-3
-1.636, 4.393e-3
-1.637, 4.401e-3
-1.638, 4.421e-3
-1.639, 4.444e-3
-1.640, 4.451e-3
-1.641, 4.471e-3
-1.642, 4.499e-3
-1.643, 4.519e-3
-1.644, 4.536e-3
-1.645, 4.573e-3
-1.646, 4.623e-3
-1.647, 4.696e-3
-1.648, 4.718e-3
-1.649, 4.742e-3
-1.650, 4.746e-3
-1.651, 4.769e-3
-1.652, 4.792e-3
-1.653, 4.822e-3
-1.654, 4.858e-3
-1.655, 4.877e-3
-1.656, 4.893e-3
-1.657, 4.925e-3
-1.658, 4.973e-3
-1.659, 5.005e-3
-1.660, 5.036e-3
-1.661, 5.089e-3
-1.662, 5.112e-3
-1.663, 5.152e-3
-1.664, 5.168e-3
-1.665, 5.199e-3
-1.666, 5.255e-3
-1.667, 5.260e-3
-1.668, 5.276e-3
-1.669, 5.319e-3
-1.670, 5.349e-3
-1.671, 5.365e-3
-1.672, 5.423e-3
-1.673, 5.474e-3
-1.674, 5.478e-3
-1.675, 5.514e-3
-1.676, 5.536e-3
-1.677, 5.549e-3
-1.678, 5.612e-3
-1.679, 5.647e-3
-1.680, 5.637e-3
-1.681, 5.654e-3
-1.682, 5.680e-3
-1.683, 5.721e-3
-1.684, 5.758e-3
-1.685, 5.802e-3
-1.686, 5.814e-3
-1.687, 5.828e-3
-1.688, 5.875e-3
-1.689, 6.057e-3
-1.690, 6.080e-3
-1.691, 6.110e-3
-1.692, 6.169e-3
-1.693, 6.164e-3
-1.694, 6.163e-3
-1.695, 6.209e-3
-1.696, 6.250e-3
-1.697, 6.266e-3
-1.698, 6.317e-3
-1.699, 6.368e-3
-1.700, 6.358e-3
-1.699, 6.297e-3
-1.698, 6.259e-3
-1.697, 6.208e-3
-1.696, 6.149e-3
-1.695, 6.074e-3
-1.694, 6.056e-3
-1.693, 6.043e-3
-1.692, 5.977e-3
-1.691, 5.903e-3
-1.690, 5.864e-3
-1.689, 5.828e-3
-1.688, 5.794e-3
-1.687, 5.786e-3
-1.686, 5.755e-3
-1.685, 5.690e-3
-1.684, 5.663e-3
-1.683, 5.629e-3
-1.682, 5.596e-3
-1.681, 5.550e-3
-1.680, 5.508e-3
-1.679, 5.481e-3
-1.678, 5.438e-3
-1.677, 5.426e-3
-1.676, 5.427e-3
-1.675, 5.400e-3
-1.674, 5.357e-3
-1.673, 5.326e-3
-1.672, 5.255e-3
-1.671, 5.207e-3
-1.670, 5.181e-3
-1.669, 5.145e-3
-1.668, 5.112e-3
-1.667, 5.072e-3
-1.666, 5.030e-3
-1.665, 4.999e-3
-1.664, 4.963e-3
-1.663, 4.926e-3
-1.662, 4.918e-3
-1.661, 4.876e-3
-1.660, 4.856e-3
-1.659, 4.829e-3
-1.658, 4.773e-3
-1.657, 4.739e-3
-1.656, 4.705e-3
-1.655, 4.664e-3
-1.654, 4.636e-3
-1.653, 4.579e-3
-1.652, 4.541e-3
-1.651, 4.523e-3
-1.650, 4.473e-3
-1.649, 4.423e-3
-1.648, 4.415e-3
-1.647, 4.394e-3
-1.646, 4.370e-3
-1.645, 4.534e-3
-1.644, 4.491e-3
-1.643, 4.439e-3
-1.642, 4.387e-3
-1.641, 4.350e-3
-1.640, 4.326e-3
-1.639, 4.280e-3
-1.638, 4.234e-3
-1.637, 4.195e-3
-1.636, 4.164e-3
-1.635, 4.117e-3
-1.634, 4.066e-3
-1.633, 4.031e-3
-1.632, 3.994e-3
-1.631, 3.960e-3
-1.630, 3.934e-3
-1.629, 3.922e-3
-1.628, 3.886e-3
-1.627, 3.842e-3
-1.626, 3.809e-3
-1.625, 3.777e-3
-1.624, 3.740e-3
-1.623, 3.702e-3
-1.622, 3.675e-3
-1.621, 3.648e-3
-1.620, 3.603e-3
-1.619, 3.566e-3
-1.618, 3.535e-3
-1.617, 3.507e-3
-1.616, 3.468e-3
-1.615, 3.510e-3
-1.614, 3.634e-3
-1.613, 3.558e-3
-1.612, 3.543e-3
-1.611, 3.490e-3
-1.610, 3.441e-3
-1.609, 3.423e-3
-1.608, 3.390e-3
-1.607, 3.355e-3
-1.606, 3.326e-3
-1.605, 3.331e-3
-1.604, 3.318e-3
-1.603, 3.284e-3
-1.602, 3.255e-3
-1.601, 3.228e-3
-1.600, 3.200e-3
-1.599, 3.183e-3
-1.598, 3.169e-3
-1.597, 3.148e-3
-1.596, 3.128e-3
-1.595, 3.097e-3
-1.594, 3.071e-3
-1.593, 3.053e-3
-1.592, 3.017e-3
-1.591, 2.999e-3
-1.590, 2.967e-3
-1.589, 2.940e-3
-1.588, 2.923e-3
-1.587, 2.897e-3
-1.586, 2.863e-3
-1.585, 2.840e-3
-1.584, 2.818e-3
-1.583, 2.791e-3
-1.582, 2.772e-3
-1.581, 2.742e-3
-1.580, 2.712e-3
-1.579, 2.687e-3
-1.578, 2.649e-3
-1.577, 2.617e-3
-1.576, 2.585e-3
-1.575, 2.553e-3
-1.574, 2.522e-3
-1.573, 2.496e-3
-1.572, 2.470e-3
-1.571, 2.447e-3
-1.570, 2.419e-3
-1.569, 2.394e-3
-1.568, 2.363e-3
-1.567, 2.331e-3
-1.566, 2.308e-3
-1.565, 2.283e-3
-1.564, 2.254e-3
-1.563, 2.228e-3
-1.562, 2.202e-3
-1.561, 2.178e-3
-1.560, 2.147e-3
-1.559, 2.121e-3
-1.558, 2.101e-3
-1.557, 2.075e-3
-1.556, 2.046e-3
-1.555, 2.021e-3
-1.554, 2.002e-3
-1.553, 1.977e-3
-1.552, 1.950e-3
-1.551, 1.925e-3
-1.550, 1.903e-3
-1.549, 1.880e-3
-1.548, 1.855e-3
-1.547, 1.830e-3
-1.546, 1.808e-3
-1.545, 1.788e-3
-1.544, 1.765e-3
-1.543, 1.741e-3
-1.542, 1.723e-3
-1.541, 1.701e-3
-1.540, 1.687e-3
-1.539, 1.666e-3
-1.538, 1.640e-3
-1.537, 1.622e-3
-1.536, 1.602e-3
-1.535, 1.579e-3
-1.534, 1.558e-3
-1.533, 1.536e-3
-1.532, 1.516e-3
-1.531, 1.496e-3
-1.530, 1.476e-3
-1.529, 1.456e-3
-1.528, 1.434e-3
-1.527, 1.416e-3
-1.526, 1.397e-3
-1.525, 1.377e-3
-1.524, 1.356e-3
-1.523, 1.340e-3
-1.522, 1.319e-3
-1.521, 1.301e-3
-1.520, 1.282e-3
-1.519, 1.263e-3
-1.518, 1.243e-3
-1.517, 1.224e-3
-1.516, 1.207e-3
-1.515, 1.194e-3
-1.514, 1.180e-3
-1.513, 1.162e-3
-1.512, 1.142e-3
-1.511, 1.123e-3
-1.510, 1.106e-3
-1.509, 1.089e-3
-1.508, 1.072e-3
-1.507, 1.057e-3
-1.506, 1.040e-3
-1.505, 1.023e-3
-1.504, 1.007e-3
-1.503, 9.902e-4
-1.502, 9.735e-4
-1.501, 9.578e-4
-1.500, 9.452e-4
-1.499, 9.280e-4
-1.498, 9.111e-4
-1.497, 8.966e-4
-1.496, 8.812e-4
-1.495, 8.664e-4
-1.494, 8.519e-4
-1.493, 8.376e-4
-1.492, 8.235e-4
-1.491, 8.089e-4
-1.490, 7.940e-4
-1.489, 7.811e-4
-1.488, 7.674e-4
-1.487, 7.539e-4
-1.486, 7.412e-4
-1.485, 7.278e-4
-1.484, 7.150e-4
-1.483, 7.026e-4
-1.482, 6.898e-4
-1.481, 6.770e-4
-1.480, 6.663e-4
-1.479, 6.551e-4
-1.478, 6.420e-4
-1.477, 6.302e-4
-1.476, 6.198e-4
-1.475, 6.085e-4
-1.474, 5.967e-4
-1.473, 5.853e-4
-1.472, 5.744e-4
-1.471, 5.635e-4
-1.470, 5.523e-4
-1.469, 5.416e-4
-1.468, 5.310e-4
-1.467, 5.206e-4
-1.466, 5.104e-4
-1.465, 5.002e-4
-1.464, 4.904e-4
-1.463, 4.804e-4
-1.462, 4.710e-4
-1.461, 4.618e-4
-1.460, 4.523e-4
-1.459, 4.430e-4
-1.458, 4.342e-4
-1.457, 4.255e-4
-1.456, 4.172e-4
-1.455, 4.086e-4
-1.454, 4.011e-4
-1.453, 3.925e-4
-1.452, 3.845e-4
-1.451, 3.765e-4
-1.450, 3.686e-4
-1.449, 3.608e-4
-1.448, 3.534e-4
-1.447, 3.460e-4
-1.446, 3.387e-4
-1.445, 3.315e-4
-1.444, 3.246e-4
-1.443, 3.176e-4
-1.442, 3.110e-4
-1.441, 3.043e-4
-1.440, 2.979e-4
-1.439, 2.915e-4
-1.438, 2.852e-4
-1.437, 2.791e-4
-1.436, 2.732e-4
-1.435, 2.670e-4
-1.434, 2.616e-4
-1.433, 2.556e-4
-1.432, 2.502e-4
-1.431, 2.448e-4
-1.430, 2.391e-4
-1.429, 2.340e-4
-1.428, 2.289e-4
-1.427, 2.238e-4
-1.426, 2.190e-4
-1.425, 2.140e-4
-1.424, 2.093e-4
-1.423, 2.051e-4
-1.422, 2.003e-4
-1.421, 1.958e-4
-1.420, 1.913e-4
-1.419, 1.870e-4
-1.418, 1.825e-4
-1.417, 1.786e-4
-1.416, 1.747e-4
-1.415, 1.706e-4
-1.414, 1.667e-4
-1.413, 1.629e-4
-1.412, 1.592e-4
-1.411, 1.556e-4
-1.410, 1.519e-4
-1.409, 1.485e-4
-1.408, 1.450e-4
-1.407, 1.417e-4
-1.406, 1.385e-4
-1.405, 1.352e-4
-1.404, 1.322e-4
-1.403, 1.292e-4
-1.402, 1.262e-4
-1.401, 1.234e-4
-1.400, 1.204e-4
-1.399, 1.177e-4
-1.398, 1.148e-4
-1.397, 1.123e-4
-1.396, 1.099e-4
-1.395, 1.071e-4
-1.394, 1.047e-4
-1.393, 1.022e-4
-1.392, 9.978e-5
-1.391, 9.772e-5
-1.390, 9.529e-5
-1.389, 9.310e-5
-1.388, 9.087e-5
-1.387, 8.884e-5
-1.386, 8.683e-5
-1.385, 8.453e-5
-1.384, 8.283e-5
-1.383, 8.085e-5
-1.382, 7.900e-5
-1.381, 7.720e-5
-1.380, 7.530e-5
-1.379, 7.359e-5
-1.378, 7.195e-5
-1.377, 7.014e-5
-1.376, 6.864e-5
-1.375, 6.690e-5
-1.374, 6.535e-5
-1.373, 6.395e-5
-1.372, 6.236e-5
-1.371, 6.106e-5
-1.370, 5.937e-5
-1.369, 5.793e-5
-1.368, 5.664e-5
-1.367, 5.537e-5
-1.366, 5.403e-5
-1.365, 5.264e-5
-1.364, 5.147e-5
-1.363, 5.011e-5
-1.362, 4.896e-5
-1.361, 4.796e-5
-1.360, 4.640e-5
-1.359, 4.550e-5
-1.358, 4.428e-5
-1.357, 4.317e-5
-1.356, 4.212e-5
-1.355, 4.091e-5
-1.354, 4.015e-5
-1.353, 3.900e-5
-1.352, 3.807e-5
-1.351, 3.719e-5
-1.350, 3.613e-5
-1.349, 3.537e-5
-1.348, 3.437e-5
-1.347, 3.356e-5
-1.346, 3.269e-5
-1.345, 3.165e-5
-1.344, 3.103e-5
-1.343, 3.017e-5
-1.342, 2.936e-5
-1.341, 2.868e-5
-1.340, 2.773e-5
-1.339, 2.708e-5
-1.338, 2.641e-5
-1.337, 2.562e-5
-1.336, 2.522e-5
-1.335, 2.428e-5
-1.334, 2.372e-5
-1.333, 2.280e-5
-1.332, 2.242e-5
-1.331, 2.158e-5
-1.330, 2.084e-5
-1.329, 2.043e-5
-1.328, 1.981e-5
-1.327, 1.919e-5
-1.326, 1.872e-5
-1.325, 1.798e-5
-1.324, 1.762e-5
-1.323, 1.695e-5
-1.322, 1.668e-5
-1.321, 1.611e-5
-1.320, 1.546e-5
-1.319, 1.513e-5
-1.318, 1.442e-5
-1.317, 1.398e-5
-1.316, 1.360e-5
-1.315, 1.303e-5
-1.314, 1.282e-5
-1.313, 1.225e-5
-1.312, 1.178e-5
-1.311, 1.142e-5
-1.310, 1.091e-5
-1.309, 1.069e-5
-1.308, 1.020e-5
-1.307, 9.696e-6
-1.306, 9.568e-6
-1.305, 8.828e-6
-1.304, 8.621e-6
-1.303, 8.354e-6
-1.302, 7.802e-6
-1.301, 7.901e-6
-1.300, 8.493e-6
-1.299, 7.960e-6
-1.298, -1.127e-5
-1.297, -9.094e-5
-1.296, -3.661e-5
-1.295, -1.544e-5
-1.294, -8.881e-6
-1.293, -8.487e-6
-1.292, -6.326e-6
-1.291, -5.803e-6
-1.290, -7.549e-6
-1.289, -5.695e-6
-1.288, 1.076e-4
-1.287, 4.409e-5
-1.286, 1.364e-5
-1.285, 8.532e-6
-1.284, 5.543e-6
-1.283, 5.030e-6
-1.282, 4.773e-6
-1.281, 4.763e-6
-1.280, 3.974e-6
-1.279, 3.135e-6
-1.278, 2.060e-6
-1.277, 1.646e-6
-1.276, 1.241e-6
-1.275, 1.064e-6
-1.274, 3.885e-6
-1.273, 3.422e-6
-1.272, 3.828e-7
-1.271, 6.393e-7
-1.270, -5.643e-7
-1.269, -3.867e-7
-1.268, -1.302e-7
-1.267, -8.011e-7
-1.266, -9.491e-7
-1.265, -1.245e-6
-1.264, -1.492e-6
-1.263, -1.561e-6
-1.262, -2.084e-6
-1.261, -2.064e-6
-1.260, -2.301e-6
-1.259, -1.926e-6
-1.258, -2.074e-6
-1.257, -2.508e-6
-1.256, -2.409e-6
-1.255, -2.972e-6
-1.254, -3.051e-6
-1.253, -3.021e-6
-1.252, -3.564e-6
-1.251, -3.504e-6
-1.250, -3.929e-6
-1.249, -4.086e-6
-1.248, -3.899e-6
-1.247, -4.215e-6
-1.246, -3.919e-6
-1.245, -4.471e-6
-1.244, -4.560e-6
-1.243, -4.688e-6
-1.242, -4.905e-6
-1.241, -4.807e-6
-1.240, -5.310e-6
-1.239, -5.517e-6
-1.238, -5.566e-6
-1.237, -5.714e-6
-1.236, -5.517e-6
-1.235, -5.922e-6
-1.234, -6.030e-6
-1.233, -5.991e-6
-1.232, -6.079e-6
-1.231, -6.109e-6
-1.230, -6.435e-6
-1.229, -6.661e-6
-1.228, -6.849e-6
-1.227, -7.066e-6
-1.226, -6.879e-6
-1.225, -7.382e-6
-1.224, -7.263e-6
-1.223, -7.323e-6
-1.222, -7.559e-6
-1.221, -7.510e-6
-1.220, -7.540e-6
-1.219, -7.885e-6
-1.218, -7.914e-6
-1.217, -8.062e-6
-1.216, -7.993e-6
-1.215, -8.309e-6
-1.214, -8.398e-6
-1.213, -8.408e-6
-1.212, -8.654e-6
-1.211, -8.694e-6
-1.210, -8.881e-6
-1.209, -8.881e-6
-1.208, -8.950e-6
-1.207, -9.059e-6
-1.206, -9.079e-6
-1.205, -9.345e-6
-1.204, -9.394e-6
-1.203, -9.631e-6
-1.202, -9.838e-6
-1.201, -9.759e-6
-1.200, -9.937e-6
-1.199, -9.957e-6
-1.198, -1.005e-5
-1.197, -1.009e-5
-1.196, -1.001e-5
-1.195, -1.037e-5
-1.194, -1.051e-5
-1.193, -1.061e-5
-1.192, -1.074e-5
-1.191, -1.061e-5
-1.190, -1.081e-5
-1.189, -1.096e-5
-1.188, -1.100e-5
-1.187, -1.129e-5
-1.186, -1.128e-5
-1.185, -1.159e-5
-1.184, -1.154e-5
-1.183, -1.149e-5
-1.182, -1.173e-5
-1.181, -1.156e-5
-1.180, -1.178e-5
-1.179, -1.204e-5
-1.178, -1.208e-5
-1.177, -1.241e-5
-1.176, -1.222e-5
-1.175, -1.247e-5
-1.174, -1.254e-5
-1.173, -1.248e-5
-1.172, -1.261e-5
-1.171, -1.270e-5
-1.170, -1.294e-5
-1.169, -1.296e-5
-1.168, -1.291e-5
-1.167, -1.317e-5
-1.166, -1.298e-5
-1.165, -1.336e-5
-1.164, -1.335e-5
-1.163, -1.363e-5
-1.162, -1.353e-5
-1.161, -1.379e-5
-1.160, -1.382e-5
-1.159, -1.395e-5
-1.158, -1.390e-5
-1.157, -1.405e-5
-1.156, -1.397e-5
-1.155, -1.428e-5
-1.154, -1.430e-5
-1.153, -1.450e-5
-1.152, -1.477e-5
-1.151, -1.450e-5
-1.150, -1.494e-5
-1.149, -1.481e-5
-1.148, -1.486e-5
-1.147, -1.515e-5
-1.146, -1.508e-5
-1.145, -1.533e-5
-1.144, -1.530e-5
-1.143, -1.545e-5
-1.142, -1.554e-5
-1.141, -1.542e-5
-1.140, -1.587e-5
-1.139, -1.596e-5
-1.138, -1.582e-5
-1.137, -1.607e-5
-1.136, -1.605e-5
-1.135, -1.623e-5
-1.134, -1.631e-5
-1.133, -1.626e-5
-1.132, -1.643e-5
-1.131, -1.647e-5
-1.130, -1.669e-5
-1.129, -1.680e-5
-1.128, -1.682e-5
-1.127, -1.692e-5
-1.126, -1.711e-5
-1.125, -1.726e-5
-1.124, -1.716e-5
-1.123, -1.730e-5
-1.122, -1.754e-5
-1.121, -1.759e-5
-1.120, -1.773e-5
-1.119, -1.785e-5
-1.118, -1.791e-5
-1.117, -1.806e-5
-1.116, -1.796e-5
-1.115, -1.813e-5
-1.114, -1.822e-5
-1.113, -1.841e-5
-1.112, -1.856e-5
-1.111, -1.858e-5
-1.110, -1.892e-5
-1.109, -1.890e-5
-1.108, -1.875e-5
-1.107, -1.906e-5
-1.106, -1.913e-5
-1.105, -1.930e-5
-1.104, -1.926e-5
-1.103, -1.934e-5
-1.102, -1.952e-5
-1.101, -1.954e-5
-1.100, -1.994e-5
-1.099, -1.990e-5
-1.098, -1.985e-5
-1.097, -2.020e-5
-1.096, -2.011e-5
-1.095, -2.028e-5
-1.094, -2.030e-5
-1.093, -2.029e-5
-1.092, -2.071e-5
-1.091, -2.077e-5
-1.090, -2.083e-5
-1.089, -2.107e-5
-1.088, -2.098e-5
-1.087, -2.118e-5
-1.086, -2.131e-5
-1.085, -2.144e-5
-1.084, -2.146e-5
-1.083, -2.159e-5
-1.082, -2.180e-5
-1.081, -2.191e-5
-1.080, -2.210e-5
-1.079, -2.209e-5
-1.078, -2.218e-5
-1.077, -2.240e-5
-1.076, -2.242e-5
-1.075, -2.288e-5
-1.074, -2.285e-5
-1.073, -2.290e-5
-1.072, -2.301e-5
-1.071, -2.309e-5
-1.070, -2.333e-5
-1.069, -2.338e-5
-1.068, -2.362e-5
-1.067, -2.369e-5
-1.066, -2.364e-5
-1.065, -2.404e-5
-1.064, -2.407e-5
-1.063, -2.404e-5
-1.062, -2.445e-5
-1.061, -2.435e-5
-1.060, -2.454e-5
-1.059, -2.469e-5
-1.058, -2.466e-5
-1.057, -2.491e-5
-1.056, -2.499e-5
-1.055, -2.545e-5
-1.054, -2.533e-5
-1.053, -2.541e-5
-1.052, -2.557e-5
-1.051, -2.576e-5
-1.050, -2.601e-5
-1.049, -2.608e-5
-1.048, -2.612e-5
-1.047, -2.640e-5
-1.046, -2.647e-5
-1.045, -2.672e-5
-1.044, -2.681e-5
-1.043, -2.692e-5
-1.042, -2.733e-5
-1.041, -2.725e-5
-1.040, -2.753e-5
-1.039, -2.763e-5
-1.038, -2.766e-5
-1.037, -2.803e-5
-1.036, -2.801e-5
-1.035, -2.846e-5
-1.034, -2.848e-5
-1.033, -2.862e-5
-1.032, -2.878e-5
-1.031, -2.888e-5
-1.030, -2.931e-5
-1.029, -2.927e-5
-1.028, -2.937e-5
-1.027, -2.978e-5
-1.026, -2.987e-5
-1.025, -3.016e-5
-1.024, -3.049e-5
-1.023, -3.062e-5
-1.022, -3.090e-5
-1.021, -3.091e-5
-1.020, -3.129e-5
-1.019, -3.130e-5
-1.018, -3.150e-5
-1.017, -3.181e-5
-1.016, -3.185e-5
-1.015, -3.212e-5
-1.014, -3.227e-5
-1.013, -3.237e-5
-1.012, -3.275e-5
-1.011, -3.294e-5
-1.010, -3.313e-5
-1.009, -3.344e-5
-1.008, -3.361e-5
-1.007, -3.382e-5
-1.006, -3.396e-5
-1.005, -3.422e-5
-1.004, -3.439e-5
-1.003, -3.455e-5
-1.002, -3.495e-5
-1.001, -3.516e-5
