Potential V vs RHE, Current mA cm-2
0.013299999999999867,-0.09789802195066052
0.012299999999999978,-0.1501008689156804
0.011299999999999866,-0.16877505807389886
0.010299999999999976,-0.17938539282288665
0.009299999999999864,-0.1890054296619689
0.008299999999999974,-0.193532505821537
0.007299999999999862,-0.19975723554094318
0.006299999999999972,-0.20697226317025488
0.00529999999999986,-0.21149933932982298
0.0042999999999999705,-0.21701671339929662
0.0032999999999998586,-0.21885583808912115
0.0022999999999999687,-0.2239487987686353
0.0012999999999998568,-0.22904175944814942
0.00029999999999996696,-0.23272000882779853
-0.000700000000000145,-0.2365397293374341
-0.0017000000000000348,-0.23781296950731265
-0.0027000000000001467,-0.2426229879268538
-0.0037000000000000366,-0.2460182950465299
-0.0047000000000001485,-0.250828313466071
-0.005700000000000038,-0.2526674381558955
-0.00670000000000015,-0.25592127414558513
-0.00770000000000004,-0.25931658126526125
-0.008700000000000152,-0.26299483064491036
-0.009700000000000042,-0.26766337793446493
-0.010700000000000154,-0.2706342716641816
-0.011700000000000044,-0.2728978097439656
-0.012700000000000156,-0.2775663570335202
-0.013700000000000045,-0.27940548172334473
-0.014700000000000157,-0.2844984424028589
-0.015700000000000047,-0.288176691782508
-0.01670000000000016,-0.28973287421235955
-0.01770000000000005,-0.29510877715184664
-0.01870000000000016,-0.29779672862159023
-0.01970000000000005,-0.3024652759111448
-0.020700000000000163,-0.3074167654606725
-0.021700000000000053,-0.30755823659065895
-0.022700000000000164,-0.3139244374400516
-0.023700000000000054,-0.31831004246963324
-0.024700000000000166,-0.32326153201916086
-0.025700000000000056,-0.32750566591875596
-0.026700000000000168,-0.328920377218621
-0.027700000000000058,-0.3344377512880947
-0.02870000000000017,-0.3405210098775144
-0.02970000000000006,-0.34363337473721745
-0.03070000000000017,-0.34886780654671806
-0.03170000000000006,-0.3511313446265021
-0.03270000000000017,-0.35693166095594875
-0.03370000000000006,-0.36358080406531446
-0.034700000000000175,-0.3675419957049365
-0.035700000000000065,-0.3720690718645046
-0.03670000000000018,-0.37744497480399175
-0.03770000000000007,-0.38140616644361386
-0.03870000000000018,-0.38777236729300657
-0.03970000000000007,-0.39229944345257467
-0.04070000000000018,-0.3979582886520348
-0.04170000000000007,-0.4031927204615355
-0.04270000000000018,-0.4072953832311441
-0.04370000000000007,-0.41366158408053677
-0.044700000000000184,-0.42144249622979446
-0.045700000000000074,-0.4265354569093086
-0.046700000000000186,-0.4316284175888227
-0.047700000000000076,-0.4365799071383503
-0.04870000000000019,-0.444360819287608
-0.04970000000000008,-0.45100996239697366
-0.05070000000000019,-0.45652733646644733
-0.05170000000000008,-0.46105441262601543
-0.05270000000000019,-0.46812796912534066
-0.05370000000000008,-0.47548446788463883
-0.05470000000000019,-0.48284096664393705
-0.05570000000000008,-0.48807539845343767
-0.056700000000000195,-0.4944415993028303
-0.057700000000000085,-0.5005248578922499
-0.058700000000000196,-0.5078813566515481
-0.059700000000000086,-0.5155207976708194
-0.0607000000000002,-0.5224528830401581
-0.06170000000000009,-0.5281117282396182
-0.0627000000000002,-0.5353267558689299
-0.06370000000000009,-0.5421173701082821
-0.0647000000000002,-0.5498982822575398
-0.06570000000000009,-0.5562644831069326
-0.0667000000000002,-0.5612159726564601
-0.0677000000000001,-0.5680065868958123
-0.0687000000000002,-0.5770607392149485
-0.0697000000000001,-0.5825781132844221
-0.07070000000000021,-0.5897931409137338
-0.0717000000000001,-0.5960178706331399
-0.07270000000000021,-0.6021011292225595
-0.0737000000000001,-0.6122870505815878
-0.07470000000000021,-0.618794722560967
-0.0757000000000001,-0.6257268079303058
-0.07670000000000021,-0.6325174221696578
-0.0777000000000001,-0.6386006807590775
-0.07870000000000021,-0.6475133619482272
-0.0797000000000001,-0.6547283895775389
-0.08070000000000022,-0.6625093017267967
-0.0817000000000001,-0.6694413870961354
-0.08270000000000022,-0.675524645685555
-0.08370000000000011,-0.6854276247846103
-0.08470000000000022,-0.6930670658038814
-0.08570000000000011,-0.7009894490831257
-0.08670000000000022,-0.7076385921924914
-0.08770000000000011,-0.7151365620817761
-0.08870000000000022,-0.7244736566608853
-0.08970000000000011,-0.7332448667200485
-0.09070000000000022,-0.7404598943493601
-0.09170000000000011,-0.7479578642386449
-0.09270000000000023,-0.755597305257916
-0.09370000000000012,-0.7645099864470658
-0.09470000000000023,-0.7739885521561616
-0.09570000000000012,-0.7814865220454462
-0.09670000000000023,-0.7892674341947039
-0.09770000000000012,-0.7971898174739481
-0.09870000000000023,-0.8065269120530575
-0.09970000000000012,-0.8164298911521127
-0.10070000000000023,-0.8247766878213164
-0.10170000000000012,-0.8317087731906551
-0.10270000000000024,-0.8403385121198318
-0.10370000000000013,-0.8505244334788601
-0.10470000000000024,-0.8584468167581043
-0.10570000000000013,-0.8675009690772405
-0.10670000000000024,-0.8748574678365387
-0.10770000000000013,-0.8823554377258234
-0.10870000000000024,-0.8932487147347841
-0.10970000000000013,-0.9003222712341092
-0.11070000000000024,-0.9105081925931376
-0.11170000000000013,-0.9163085089225843
-0.11270000000000002,-0.9246553055917879
-0.11370000000000013,-0.9338509290409107
-0.11470000000000002,-0.9407830144102494
-0.11570000000000014,-0.9496956955993991
-0.11670000000000003,-0.9559204253188053
-0.11770000000000014,-0.9621451550382114
-0.11870000000000003,-0.9720481341372668
-0.11970000000000014,-0.9782728638566729
-0.12070000000000003,-0.9856293626159711
-0.12170000000000014,-0.9914296789454178
-0.12270000000000003,-0.9960982262349724
-0.12370000000000014,-1.005293849684095
-0.12470000000000003,-1.0110941660135417
-0.12570000000000014,-1.0177433091229073
-0.12670000000000003,-1.0222703852824755
-0.12770000000000015,-1.0267974614420434
-0.12870000000000004,-1.0337295468113823
-0.12970000000000015,-1.0379736807109774
-0.13070000000000004,-1.042642228000532
-0.13170000000000015,-1.0468863619001272
-0.13270000000000004,-1.0514134380596956
-0.13370000000000015,-1.0550916874393443
-0.13470000000000004,-1.0603261192488451
-0.13570000000000015,-1.0635799552385345
-0.13670000000000004,-1.0665508489682511
-0.13770000000000016,-1.0710779251278193
-0.13870000000000005,-1.0733414632076033
-0.13970000000000016,-1.0777270682371851
-0.14070000000000005,-1.0816882598768072
-0.14170000000000016,-1.0825370866567263
-0.14270000000000005,-1.086215336036375
-0.14370000000000016,-1.0889032875061186
-0.14470000000000005,-1.0925815368857679
-0.14570000000000016,-1.0966841996553764
-0.14670000000000005,-1.097674497565282
-0.14770000000000016,-1.0995136222551065
-0.14870000000000005,-1.1048895251945938
-0.14970000000000017,-1.1078604189243102
-0.15070000000000006,-1.1113971971739727
-0.15170000000000017,-1.112104552823905
-0.15270000000000006,-1.1154998599435815
-0.15370000000000017,-1.1204513494931092
-0.15470000000000006,-1.1237051854827986
-0.15570000000000017,-1.1273834348624476
-0.15670000000000006,-1.1307787419821238
-0.15770000000000017,-1.1345984624917593
-0.15870000000000006,-1.1399743654312466
-0.15970000000000018,-1.1442184993308417
-0.16070000000000007,-1.14832116210045
-0.16170000000000018,-1.1531311805199913
-0.16270000000000007,-1.1576582566795592
-0.16370000000000018,-1.1640244575289522
-0.16470000000000007,-1.1705321295083313
-0.16570000000000018,-1.1750592056678995
-0.16670000000000007,-1.180010695217427
-0.16770000000000018,-1.1851036558969412
-0.16870000000000007,-1.1920357412662799
-0.16970000000000018,-1.199109297765605
-0.17070000000000007,-1.205475498614998
-0.17170000000000019,-1.2098611036445792
-0.17270000000000008,-1.217642015793837
-0.1737000000000002,-1.2241496877732163
-0.17470000000000008,-1.2330623689623659
-0.1757000000000002,-1.239852983201718
-0.17670000000000008,-1.245087415011219
-0.1777000000000002,-1.254990394110274
-0.17870000000000008,-1.2616395372196396
-0.1797000000000002,-1.2708351606687625
-0.18070000000000008,-1.2781916594280607
-0.1817000000000002,-1.284416389147467
-0.18270000000000008,-1.2947437816364815
-0.1837000000000002,-1.3019588092657932
-0.1847000000000001,-1.3127106151447676
-0.1857000000000002,-1.3203500561640389
-0.1867000000000001,-1.3269991992734043
-0.1877000000000002,-1.3377510051523789
-0.1887000000000001,-1.347088099731488
-0.1897000000000002,-1.3569910788305433
-0.1907000000000001,-1.3660452311496794
-0.1917000000000001,-1.3735432010389639
-0.19269999999999998,-1.3828802956180735
-0.1937000000000001,-1.3932076881070883
-0.19469999999999998,-1.4033936094661164
-0.1957000000000001,-1.4132965885651718
-0.19669999999999999,-1.421784856364362
-0.1977000000000001,-1.4302731241635522
-0.1987,-1.4415908145624723
-0.1997000000000001,-1.4529085049613928
-0.2007,-1.461396772760583
-0.2017000000000001,-1.471299751859638
-0.2027,-1.4812027309586933
-0.2037000000000001,-1.4925204213576138
-0.2047,-1.5038381117565338
-0.2057000000000001,-1.512326379555724
-0.2067,-1.5222293586547795
-0.2077000000000001,-1.5321323377538347
-0.2087,-1.54203531685289
-0.2097000000000001,-1.5533530072518102
-0.2107,-1.5632559863508655
-0.2117000000000001,-1.5717442541500557
-0.2127,-1.583061944548976
-0.2137000000000001,-1.5901355010483011
-0.2147,-1.6042826140469515
-0.2157000000000001,-1.6156003044458718
-0.2167,-1.6212591496453321
-0.21770000000000012,-1.6325768400442524
-0.2187,-1.6396503965435776
-0.21970000000000012,-1.6523827982423631
-0.2207,-1.6594563547416883
-0.22170000000000012,-1.6651151999411482
-0.2227,-1.6750181790402037
-0.22370000000000012,-1.6835064468393939
-0.2247,-1.6919947146385839
-0.22570000000000012,-1.6990682711379093
-0.2267,-1.7047271163373692
-0.22770000000000012,-1.7118006728366943
-0.22870000000000001,-1.7188742293360195
-0.22970000000000013,-1.7259477858353447
-0.23070000000000002,-1.7301919197349398
-0.23170000000000013,-1.7330213423346699
-0.23270000000000002,-1.7386801875341302
-0.23370000000000013,-1.7429243214337253
-0.23470000000000002,-1.7471684553333202
-0.23570000000000013,-1.7499978779330503
-0.23670000000000002,-1.7514125892329155
-0.2376999999999999,-1.7514125892329155
-0.23870000000000002,-1.7542420118326456
-0.2396999999999999,-1.7556567231325106
-0.24070000000000003,-1.7556567231325106
-0.24169999999999991,-1.7542420118326456
-0.24270000000000003,-1.7528273005327806
-0.24369999999999992,-1.7514125892329155
-0.24470000000000003,-1.7514125892329155
-0.24569999999999992,-1.7485831666331852
-0.24670000000000003,-1.7457537440334552
-0.24769999999999992,-1.7415096101338603
-0.24870000000000003,-1.7386801875341302
-0.24969999999999992,-1.7372654762342652
-0.25070000000000003,-1.7316066310348048
-0.2516999999999999,-1.72736249713521
-0.25270000000000004,-1.7231183632356148
-0.2536999999999999,-1.7174595180361545
-0.25470000000000004,-1.7146300954364246
-0.2556999999999999,-1.7103859615368293
-0.25670000000000004,-1.7033124050375041
-0.25769999999999993,-1.700482982437774
-0.25870000000000004,-1.694824137238314
-0.25969999999999993,-1.690580003338719
-0.26070000000000004,-1.6863358694391237
-0.26169999999999993,-1.6806770242396636
-0.26270000000000004,-1.6764328903400685
-0.26369999999999993,-1.6721887564404734
-0.26470000000000005,-1.6679446225408785
-0.26569999999999994,-1.6651151999411482
-0.26670000000000005,-1.660871066041553
-0.26769999999999994,-1.655212220842093
-0.26870000000000005,-1.653797509542228
-0.26969999999999994,-1.6481386643427678
-0.27070000000000005,-1.6453092417430377
-0.27169999999999994,-1.6297474174445223
-0.27270000000000005,-1.6212591496453321
-0.27369999999999994,-1.6297474174445223
-0.27470000000000006,-1.6255032835449272
-0.27569999999999995,-1.6240885722450622
-0.27670000000000006,-1.6226738609451972
-0.27769999999999995,-1.6198444383454669
-0.27870000000000006,-1.6212591496453321
-0.27969999999999995,-1.6198444383454669
-0.28070000000000006,-1.6184297270456018
-0.28169999999999995,-1.6170150157457368
-0.28270000000000006,-1.614185593146007
-0.28369999999999995,-1.6156003044458718
-0.28470000000000006,-1.614185593146007
-0.28569999999999995,-1.612770881846142
-0.28670000000000007,-1.612770881846142
-0.28769999999999996,-1.6113561705462767
-0.28870000000000007,-1.612770881846142
-0.28969999999999996,-1.612770881846142
-0.29070000000000007,-1.612770881846142
-0.29169999999999996,-1.6113561705462767
-0.29270000000000007,-1.6113561705462767
-0.29369999999999996,-1.612770881846142
-0.2947000000000001,-1.612770881846142
-0.29569999999999996,-1.614185593146007
-0.2967000000000001,-1.614185593146007
-0.29769999999999996,-1.6156003044458718
-0.2987000000000001,-1.6184297270456018
-0.29969999999999997,-1.6184297270456018
-0.3007000000000001,-1.6212591496453321
-0.30169999999999997,-1.6198444383454669
-0.3027000000000001,-1.6226738609451972
-0.30369999999999997,-1.626917994844792
-0.3047000000000001,-1.626917994844792
-0.30569999999999997,-1.6325768400442524
-0.3067000000000001,-1.6311621287443874
-0.3077,-1.6339915513441174
-0.3087000000000001,-1.6396503965435776
-0.3097,-1.6410651078434426
-0.3107000000000001,-1.6453092417430377
-0.3117,-1.6467239530429028
-0.3127000000000001,-1.6509680869424979
-0.3137,-1.656626932141958
-0.3147000000000001,-1.6594563547416883
-0.3157,-1.6651151999411482
-0.3167000000000001,-1.6679446225408785
-0.3177,-1.6736034677403384
-0.3187000000000001,-1.6806770242396636
-0.3197,-1.6849211581392587
-0.3207000000000001,-1.690580003338719
-0.3217,-1.696238848538179
-0.3227000000000001,-1.700482982437774
-0.3237,-1.7089712502369643
-0.3247000000000001,-1.7160448067362895
-0.3257,-1.7217036519357498
-0.3267000000000001,-1.7287772084350748
-0.3277,-1.7358507649344
-0.3287000000000001,-1.7443390327335901
-0.3297,-1.7528273005327806
-0.3307000000000001,-1.7613155683319706
-0.3317,-1.768389124831296
-0.3327000000000001,-1.778292103930351
-0.3337,-1.7881950830294064
-0.3347000000000001,-1.7980980621284617
-0.3357,-1.8080010412275167
-0.3367000000000001,-1.8179040203265722
-0.3377,-1.8278069994256272
-0.3387000000000001,-1.8405394011244125
-0.3397,-1.8518570915233332
-0.3407000000000001,-1.8645894932221183
-0.3417,-1.8744924723211736
-0.3427000000000001,-1.8872248740199586
-0.3437,-1.9013719870186092
-0.3447000000000001,-1.9155191000172598
-0.3457,-1.9296662130159101
-0.3467000000000001,-1.9409839034148304
-0.3477,-1.9565457277133458
-0.3487000000000001,-1.9735222633117262
-0.3497,-1.9876693763103765
-0.3507000000000001,-2.004645911908757
-0.3517,-2.020207736207272
-0.3527000000000001,-2.0357695605057877
-0.3537,-2.0555755187038987
-0.3547000000000001,-2.072552054302279
-0.3557,-2.0909433012005243
-0.35670000000000013,-2.110749259398635
-0.3577,-2.12914050629688
-0.35870000000000013,-2.150361175794856
-0.3597,-2.1687524226931014
-0.36070000000000013,-2.1899730921910767
-0.3617,-2.2126084729889177
-0.3626999999999999,-2.2324144311870278
-0.3637,-2.2564645232847336
-0.3646999999999999,-2.280514615382439
-0.3657,-2.30314999618028
-0.3666999999999999,-2.3272000882779853
-0.3677,-2.351250180375691
-0.3686999999999999,-2.3781296950731265
-0.36970000000000003,-2.4050092097705624
-0.3706999999999999,-2.430474013168133
-0.37170000000000003,-2.457353527865569
-0.3726999999999999,-2.4842330425630044
-0.37370000000000003,-2.5139419798601703
-0.3746999999999999,-2.543650917157336
-0.37570000000000003,-2.5733598544545018
-0.3766999999999999,-2.6030687917516673
-0.37770000000000004,-2.634192440348698
-0.3786999999999999,-2.666730800245594
-0.37970000000000004,-2.700683871442355
-0.3806999999999999,-2.7332222313392514
-0.38170000000000004,-2.765760591236147
-0.38269999999999993,-2.8011283737327726
-0.38370000000000004,-2.8379108675292635
-0.38469999999999993,-2.874693361325755
-0.38570000000000004,-2.9114758551222453
-0.38669999999999993,-2.8152754867314234
-0.38570000000000004,-2.7360516539389814
-0.38469999999999993,-2.6822926245441097
-0.38370000000000004,-2.6285335951492383
-0.38269999999999993,-2.5776039883540967
-0.38170000000000004,-2.5252596702590906
-0.3806999999999999,-2.4743300634639493
-0.37970000000000004,-2.424815167968673
-0.3786999999999999,-2.3767149837732613
-0.37770000000000004,-2.32861479957785
-0.3766999999999999,-2.280514615382439
-0.37570000000000003,-2.2338291424868926
-0.3746999999999999,-2.1899730921910767
-0.37370000000000003,-2.1447023305953956
-0.3726999999999999,-2.1008462802995793
-0.37170000000000003,-2.0555755187038987
-0.3706999999999999,-2.013134179707947
-0.36970000000000003,-1.9735222633117262
-0.3686999999999999,-1.9324956356156402
-0.3677,-1.892883719219419
-0.3666999999999999,-1.8532718028231983
-0.3657,-1.813659886426977
-0.3646999999999999,-1.778292103930351
-0.3637,-1.7400948988339953
-0.3626999999999999,-1.7047271163373692
-0.3617,-1.6679446225408785
-0.36070000000000013,-1.6311621287443874
-0.3597,-1.6000384801473564
-0.35870000000000013,-1.5660854089505953
-0.3577,-1.5321323377538347
-0.35670000000000013,-1.499593977856939
-0.3557,-1.4670556179600431
-0.3547000000000001,-1.4373466806628774
-0.3537,-1.4070718588457656
-0.3527000000000001,-1.3767970370286537
-0.3517,-1.3477954553814204
-0.3507000000000001,-1.3179450469542682
-0.3497,-1.292055830166738
-0.3487000000000001,-1.2640445464294103
-0.3477,-1.236457676082042
-0.3467000000000001,-1.2098611036445792
-0.3457,-1.1839718868570492
-0.3447000000000001,-1.1582241411995053
-0.3437,-1.1354472892716785
-0.3427000000000001,-1.1104068992640672
-0.3417,-1.0859323937764023
-0.3407000000000001,-1.062306715068656
-0.3397,-1.0408031033107075
-0.3387000000000001,-1.018167722512867
-0.3377,-0.9963811684949454
-0.3367000000000001,-0.9721896052672533
-0.3357,-0.9518177625491967
-0.3347000000000001,-0.9331435733909781
-0.3337,-0.9124887884129486
-0.3327000000000001,-0.8923998879548651
-0.3317,-0.8721695163667951
-0.3307000000000001,-0.8532123849486036
-0.3297,-0.8356699648302772
-0.3287000000000001,-0.8169957756720587
-0.3277,-0.7988874710337862
-0.3267000000000001,-0.7809206375255002
-0.3257,-0.7625293906272548
-0.3247000000000001,-0.7478163931086583
-0.3237,-0.7306983863802915
-0.3227000000000001,-0.7144292064318436
-0.3217,-0.6984429687433686
-0.3207000000000001,-0.6811834908850152
-0.3197,-0.6677437335362972
-0.3187000000000001,-0.652747793757728
-0.3177,-0.637893325109145
-0.3167000000000001,-0.6231803275905486
-0.3157,-0.6079014455520062
-0.3147000000000001,-0.594886101593248
-0.3137,-0.582295171024449
-0.3127000000000001,-0.5681480580257988
-0.3117,-0.5547083006770809
-0.3107000000000001,-0.5418344278483092
-0.3097,-0.5296679106694698
-0.3087000000000001,-0.5189161047904954
-0.3077,-0.5059007608317371
-0.3067000000000001,-0.4935927725229112
-0.30569999999999997,-0.4818506687340315
-0.3047000000000001,-0.47109886285505725
-0.30369999999999997,-0.4613373548859885
-0.3027000000000001,-0.44874642431718964
-0.30169999999999997,-0.43742873391826936
-0.3007000000000001,-0.42724281255924107
-0.29969999999999997,-0.41719836233019936
-0.2987000000000001,-0.40913450792096867
-0.29769999999999996,-0.3979582886520348
-0.2967000000000001,-0.3872064827730605
-0.29569999999999996,-0.37786938819395127
-0.2947000000000001,-0.3698055337847206
-0.29369999999999996,-0.36075138146558433
-0.29270000000000007,-0.35127281575648867
-0.29169999999999996,-0.3416527789174064
-0.29070000000000007,-0.33302303998822963
-0.28969999999999996,-0.3253835989689584
-0.28870000000000007,-0.3170368022997547
-0.28769999999999996,-0.30925589015049704
-0.28670000000000007,-0.3009090934812933
-0.28569999999999995,-0.29199641229214357
-0.28470000000000006,-0.2842155001428859
-0.28369999999999995,-0.27841518381343927
-0.28270000000000006,-0.27077574279416805
-0.28169999999999995,-0.2625704172549508
-0.28070000000000006,-0.25422362058574705
-0.27969999999999995,-0.24799889086634092
-0.27870000000000006,-0.24248151679686727
-0.27769999999999995,-0.23484207577759608
-0.27670000000000006,-0.2273441058883114
-0.27569999999999995,-0.22012907825899972
-0.27470000000000006,-0.2153190598394586
-0.27369999999999994,-0.20980168576998495
