Potential V vs RHE, Current mA cm-2
0.013299999999999867,1.219056727093702
0.012299999999999978,0.3903188476327636
0.011299999999999866,-0.30755823659065895
0.010299999999999976,-0.9617207416482519
0.009299999999999864,-1.5293029151541047
0.008299999999999974,-2.052746096104168
0.007299999999999862,-2.576189277054232
0.006299999999999972,-3.0996324580042955
0.00529999999999986,-3.579219588658543
0.0042999999999999705,-4.0588067193127895
0.0032999999999998586,-4.494537799671222
0.0022999999999999687,-4.9302688800296535
0.0012999999999998568,-5.279702571096316
0.00029999999999996696,-5.629136262162981
-0.000700000000000145,-5.9347139029338285
-0.0017000000000000348,-6.196435493408861
-0.0027000000000001467,-6.500598422879844
-0.0037000000000000366,-6.806176063650692
-0.0047000000000001485,-7.155609754717355
-0.005700000000000038,-7.461187395488204
-0.00670000000000015,-7.853062425550818
-0.00770000000000004,-8.158640066321666
-0.008700000000000152,-8.508073757388331
-0.009700000000000042,-8.812236686859313
-0.010700000000000154,-9.073958277334345
-0.011700000000000044,-9.335679867809377
-0.012700000000000156,-9.59740145828441
-0.013700000000000045,-9.81668170976349
-0.014700000000000157,-10.034547249942705
-0.015700000000000047,-10.25241279012192
-0.01670000000000016,-10.557990430892769
-0.01770000000000005,-10.775855971071984
-0.01870000000000016,-11.081433611842833
-0.01970000000000005,-11.343155202317865
-0.020700000000000163,-11.56102074249708
-0.021700000000000053,-11.73503023238048
-0.022700000000000164,-11.909039722263879
-0.023700000000000054,-12.084463923447142
-0.024700000000000166,-12.258473413330542
-0.025700000000000056,-12.432482903213943
-0.026700000000000168,-12.607907104397206
-0.027700000000000058,-12.825772644576423
-0.02870000000000017,-13.087494235051453
-0.02970000000000006,-13.349215825526485
-0.03070000000000017,-13.610937416001518
-0.03170000000000006,-13.872659006476551
-0.03270000000000017,-14.175407224647667
-0.03370000000000006,-14.444202371622024
-0.034700000000000175,-14.69885040559773
-0.035700000000000065,-14.925204213576137
-0.03670000000000018,-15.137410908555893
-0.03770000000000007,-15.349617603535648
-0.03870000000000018,-15.575971411514052
-0.03970000000000007,-15.830619445489761
-0.04070000000000018,-16.099414592464115
-0.04170000000000007,-16.396503965435777
-0.04270000000000018,-16.70774045140608
-0.04370000000000007,-17.018976937376394
-0.044700000000000184,-17.231183632356142
-0.045700000000000074,-17.4433903273359
-0.046700000000000186,-17.669744135314307
-0.047700000000000076,-17.797068152302163
-0.04870000000000019,-17.924392169290012
-0.04970000000000008,-18.10830463827247
-0.05070000000000019,-18.320511333252224
-0.05170000000000008,-18.53271802823198
-0.05270000000000019,-18.80151317520634
-0.05370000000000008,-19.112749661176647
-0.05470000000000019,-19.409839034148305
-0.05570000000000008,-19.636192842126707
-0.056700000000000195,-19.848399537106463
-0.057700000000000085,-20.06060623208622
-0.058700000000000196,-20.286960040064624
-0.059700000000000086,-20.541608074040333
-0.0607000000000002,-20.810403221014692
-0.06170000000000009,-21.107492593986347
-0.0627000000000002,-21.461170418952605
-0.06370000000000009,-21.772406904922917
-0.0647000000000002,-22.111937616890522
-0.06570000000000009,-22.46561544185678
-0.0667000000000002,-22.776851927827092
-0.0677000000000001,-23.073941300798747
-0.0687000000000002,-23.385177786769056
-0.0697000000000001,-23.639825820744765
-0.07070000000000021,-23.908620967719123
-0.0717000000000001,-24.120827662698876
-0.07270000000000021,-24.432064148669184
-0.0737000000000001,-24.601829504652986
-0.07470000000000021,-24.870624651627345
-0.0757000000000001,-25.167714024599
-0.07670000000000021,-25.478950510569312
-0.0777000000000001,-25.77603988354097
-0.07870000000000021,-26.087276369511276
-0.0797000000000001,-26.38436574248293
-0.08070000000000022,-26.65316088945729
-0.0817000000000001,-26.907808923433
-0.08270000000000022,-27.134162731411404
-0.08370000000000011,-27.34636942639116
-0.08470000000000022,-27.572723234369565
-0.08570000000000011,-27.827371268345274
-0.08670000000000022,-28.13860775431558
-0.08770000000000011,-28.478138466283188
-0.08870000000000022,-28.789374952253496
-0.08970000000000011,-29.14305277721976
-0.09070000000000022,-29.440142150191413
-0.09170000000000011,-29.751378636161718
-0.09270000000000023,-30.00602667013743
-0.09370000000000012,-30.232380478115836
-0.09470000000000023,-30.487028512091538
-0.09570000000000012,-30.7558236590659
-0.09670000000000023,-31.010471693041605
-0.09770000000000012,-31.321708179011907
-0.09870000000000023,-31.717827342974125
-0.09970000000000012,-32.05735805494172
-0.10070000000000023,-32.45347721890394
-0.10170000000000012,-32.807155043870196
-0.10270000000000024,-33.18912709483376
-0.10370000000000013,-33.50036358080407
-0.10470000000000024,-33.89648274476628
-0.10570000000000013,-34.15113077874198
-0.10670000000000024,-34.462367264712285
-0.10770000000000013,-34.717015298688004
-0.10870000000000024,-34.98581044566235
-0.10970000000000013,-35.282899818634014
-0.11070000000000024,-35.594136304604326
-0.11170000000000013,-35.90537279057463
-0.11270000000000002,-36.20246216354629
-0.11370000000000013,-36.5136986495166
-0.11470000000000002,-36.768346683492304
-0.11570000000000014,-37.037141830466666
-0.11670000000000003,-37.249348525446415
-0.11770000000000014,-37.51814367242077
-0.11870000000000003,-37.687909028404576
-0.11970000000000014,-37.99914551437489
-0.12070000000000003,-38.29623488734655
-0.12170000000000014,-38.6499127123128
-0.12270000000000003,-39.046031876275016
-0.12370000000000014,-39.38556258824262
-0.12470000000000003,-39.696799074212926
-0.12570000000000014,-39.99388844718459
-0.12670000000000003,-40.26268359415894
-0.12770000000000015,-40.559772967130606
-0.12870000000000004,-40.78612677510901
-0.12970000000000015,-41.04077480908471
-0.13070000000000004,-41.352011295055014
-0.13170000000000015,-41.606659329030734
-0.13270000000000004,-41.91789581500104
-0.13370000000000015,-42.186690961975394
-0.13470000000000004,-42.483780334947056
-0.13570000000000015,-42.752575481921404
-0.13670000000000004,-43.04966485489307
-0.13770000000000016,-43.36090134086337
-0.13870000000000005,-43.657990713835034
-0.13970000000000016,-44.011668538801295
-0.14070000000000005,-44.28046368577565
-0.14170000000000016,-44.535111719751356
-0.14270000000000005,-44.80390686672572
-0.14370000000000016,-45.01611356170547
-0.14470000000000005,-45.32735004767578
-0.14570000000000016,-45.624439420647434
-0.14670000000000005,-45.97811724561369
-0.14770000000000016,-46.41667774857186
-0.14870000000000005,-46.79864979953541
-0.14970000000000017,-47.19476896349763
-0.15070000000000006,-47.46356411047198
-0.15170000000000017,-47.71821214444768
-0.15270000000000006,-47.93041883942744
-0.15370000000000017,-48.114331308409895
-0.15470000000000006,-48.36897934238561
-0.15570000000000017,-48.68021582835591
-0.15670000000000006,-48.97730520132757
-0.15770000000000017,-49.33098302629383
-0.15870000000000006,-49.642219512264134
-0.15970000000000018,-49.89686754623985
-0.16070000000000007,-50.12322135421825
-0.16170000000000018,-50.29298671020206
-0.16270000000000007,-50.46275206618586
-0.16370000000000018,-50.68910587416426
-0.16470000000000007,-50.943753908139975
-0.16570000000000018,-51.21254905511432
-0.16670000000000007,-51.46719708909004
-0.16770000000000018,-51.73599223606439
-0.16870000000000007,-52.033081609036046
-0.16970000000000018,-52.30187675601041
-0.17070000000000007,-52.69799591997262
-0.17170000000000019,-52.995085292944275
-0.17270000000000008,-53.39120445690648
-0.1737000000000002,-53.74488228187274
-0.17470000000000008,-54.08441299384035
-0.1757000000000002,-54.35320814081471
-0.17670000000000008,-54.60785617479041
-0.1777000000000002,-54.834209982768826
-0.17870000000000008,-55.003975338752625
-0.1797000000000002,-55.25862337272834
-0.18070000000000008,-55.484977180706736
-0.1817000000000002,-55.7820665536784
-0.18270000000000008,-56.093303039648696
-0.1837000000000002,-56.36209818662306
-0.1847000000000001,-56.65918755959472
-0.1857000000000002,-56.82895291557852
-0.1867000000000001,-57.012865384560975
-0.1877000000000002,-57.182630740544774
-0.1887000000000001,-57.30995475753264
-0.1897000000000002,-57.57874990450699
-0.1907000000000001,-57.87583927747865
-0.1917000000000001,-58.18707576344896
-0.19269999999999998,-58.54075358841522
-0.1937000000000001,-58.880284300382826
-0.19469999999999998,-59.23396212534908
-0.1957000000000001,-59.54519861131939
-0.19669999999999999,-59.757405306299155
-0.1977000000000001,-59.9696120012789
-0.1987,-60.15352447026136
-0.1997000000000001,-60.36573116524111
-0.2007,-60.63452631221547
-0.2017000000000001,-60.84673300719523
-0.2027,-61.20041083216149
-0.2037000000000001,-61.455058866137186
-0.2047,-61.7662953521075
-0.2057000000000001,-62.02094338608321
-0.2067,-62.24729719406162
-0.2077000000000001,-62.459503889041365
-0.2087,-62.64341635802381
-0.2097000000000001,-62.855623053003576
-0.2107,-62.98294706999144
-0.2117000000000001,-63.11027108697928
-0.2127,-63.251742216965795
-0.2137000000000001,-63.3366248949577
-0.2147,-63.5063902509415
-0.2157000000000001,-63.732744058919906
-0.2167,-64.02983343189156
-0.21770000000000012,-64.42595259585376
-0.2187,-64.77963042082003
-0.21970000000000012,-65.16160247178358
-0.2207,-65.51528029674984
-0.22170000000000012,-65.76992833072556
-0.2227,-65.99628213870396
-0.22370000000000012,-66.16604749468777
-0.2247,-66.39240130266617
-0.22570000000000012,-66.60460799764593
-0.2267,-66.91584448361623
-0.22770000000000012,-67.17049251759194
-0.22870000000000001,-67.43928766456631
-0.22970000000000013,-67.693935698542
-0.23070000000000002,-67.86370105452582
-0.23170000000000013,-68.0051721845123
-0.23270000000000002,-68.0900548625042
-0.23370000000000013,-68.17493754049613
-0.23470000000000002,-68.21737887949207
-0.23570000000000013,-68.30226155748396
-0.23670000000000002,-68.34470289647993
-0.2376999999999999,-68.57105670445833
-0.23870000000000002,-68.69838072144618
-0.2396999999999999,-68.86814607742998
-0.24070000000000003,-69.0944998854084
-0.24169999999999991,-69.30670658038814
-0.24270000000000003,-69.4906190493706
-0.24369999999999992,-69.6603844053544
-0.24470000000000003,-69.8301497613382
-0.24569999999999992,-70.01406223032066
-0.24670000000000003,-70.22626892530042
-0.24769999999999992,-70.48091695927613
-0.24870000000000003,-70.70727076725453
-0.24969999999999992,-70.96191880123024
-0.25070000000000003,-71.2307139482046
-0.2516999999999999,-71.44292064318435
-0.25270000000000004,-71.66927445116276
-0.2536999999999999,-71.83903980714656
-0.25470000000000004,-71.96636382413442
-0.2556999999999999,-72.05124650212633
-0.25670000000000004,-72.10783495412092
-0.25769999999999993,-72.10783495412092
-0.25870000000000004,-72.10783495412092
-0.25969999999999993,-72.15027629311687
-0.26070000000000004,-72.19271763211282
-0.26169999999999993,-72.27760031010472
-0.26270000000000004,-72.44736566608852
-0.26369999999999993,-72.63127813507097
-0.26470000000000005,-72.8859261690467
-0.26569999999999994,-73.15472131602105
-0.26670000000000005,-73.40936934999675
-0.26769999999999994,-73.62157604497652
-0.26870000000000005,-73.89037119195086
-0.26969999999999994,-74.06013654793468
-0.27070000000000005,-74.24404901691713
-0.27169999999999994,-74.37137303390499
-0.27270000000000005,-74.54113838988879
-0.27369999999999994,-74.72505085887124
-0.27470000000000006,-74.89481621485504
-0.27569999999999995,-75.02214023184291
-0.27670000000000006,-75.06458157083884
-0.27769999999999995,-75.14946424883075
-0.27870000000000006,-75.1070229098348
-0.27969999999999995,-75.06458157083884
-0.28070000000000006,-75.02214023184291
-0.28169999999999995,-74.93725755385098
-0.28270000000000006,-74.93725755385098
-0.28369999999999995,-74.93725755385098
-0.28470000000000006,-75.02214023184291
-0.28569999999999995,-75.06458157083884
-0.28670000000000007,-75.1070229098348
-0.28769999999999996,-75.19190558782671
-0.28870000000000007,-75.29093537881725
-0.28969999999999996,-75.46070073480107
-0.29070000000000007,-75.5880247517889
-0.29169999999999996,-75.77193722077136
-0.29270000000000007,-75.94170257675518
-0.29369999999999996,-76.02658525474708
-0.2947000000000001,-76.11146793273898
-0.29569999999999996,-76.15390927173492
-0.2967000000000001,-76.19635061073087
-0.29769999999999996,-76.29538040172143
-0.2987000000000001,-76.38026307971333
-0.29969999999999997,-76.50758709670117
-0.3007000000000001,-76.5924697746931
-0.30169999999999997,-76.67735245268499
-0.3027000000000001,-76.7622351306769
-0.30369999999999997,-76.7622351306769
-0.3047000000000001,-76.71979379168094
-0.30569999999999997,-76.46514575770523
-0.3067000000000001,-76.33782174071737
-0.3077,-76.19635061073087
-0.3087000000000001,-76.11146793273898
-0.3097,-76.15390927173492
-0.3107000000000001,-76.29538040172143
-0.3117,-76.38026307971333
-0.3127000000000001,-76.38026307971333
-0.3137,-76.29538040172143
-0.3147000000000001,-76.06902659374302
-0.3157,-75.94170257675518
-0.3167000000000001,-75.85681989876326
-0.3177,-75.77193722077136
-0.3187000000000001,-75.81437855976732
-0.3197,-75.8992612377592
-0.3207000000000001,-76.06902659374302
-0.3217,-76.15390927173492
-0.3227000000000001,-76.23879194972683
-0.3237,-76.23879194972683
-0.3247000000000001,-76.11146793273898
-0.3257,-75.94170257675518
-0.3267000000000001,-75.71534876877676
-0.3277,-75.50314207379701
-0.3287000000000001,-75.2484940398213
-0.3297,-75.02214023184291
-0.3307000000000001,-74.80993353686314
-0.3317,-74.62602106788069
-0.3327000000000001,-74.49869705089283
-0.3337,-74.37137303390499
-0.3347000000000001,-74.28649035591307
-0.3357,-74.14501922592657
-0.3367000000000001,-74.0176952089387
-0.3377,-73.93281253094682
-0.3387000000000001,-73.76304717496302
-0.3397,-73.57913470598055
-0.3407000000000001,-73.45181068899271
-0.3417,-73.32448667200485
-0.3427000000000001,-73.197162655017
-0.3437,-73.0556915250305
-0.3447000000000001,-73.01325018603454
-0.3457,-72.8859261690467
-0.3467000000000001,-72.80104349105478
-0.3477,-72.67371947406694
-0.3487000000000001,-72.48980700508447
-0.3497,-72.36248298809663
-0.3507000000000001,-72.19271763211282
-0.3517,-72.00880516313036
-0.3527000000000001,-71.8814811461425
-0.3537,-71.75415712915466
-0.3547000000000001,-71.6268331121668
-0.3557,-71.48536198218031
-0.35670000000000013,-71.4004793041884
-0.3577,-71.2307139482046
-0.35870000000000013,-71.10338993121674
-0.3597,-70.96191880123024
-0.36070000000000013,-70.79215344524643
-0.3617,-70.62238808926263
-0.3626999999999999,-70.39603428128423
-0.3637,-70.22626892530042
-0.3646999999999999,-70.01406223032066
-0.3657,-69.74526708334632
-0.3666999999999999,-69.53306038836655
-0.3677,-69.26426524139221
-0.3686999999999999,-69.05205854641244
-0.36970000000000003,-68.82570473843404
-0.3706999999999999,-68.69838072144618
-0.37170000000000003,-68.52861536546239
-0.3726999999999999,-68.34470289647993
-0.37370000000000003,-68.13249620150016
-0.3746999999999999,-67.96273084551636
-0.37570000000000003,-67.73637703753796
-0.3766999999999999,-67.52417034255821
-0.37770000000000004,-67.39684632557035
-0.3786999999999999,-67.2978165345798
-0.37970000000000004,-67.2978165345798
-0.3806999999999999,-67.2978165345798
-0.38170000000000004,-67.34025787357575
-0.38269999999999993,-67.2978165345798
-0.38370000000000004,-67.128051178596
-0.38469999999999993,-66.91584448361623
-0.38570000000000004,-66.64704933664189
-0.38669999999999993,-66.34995996367022
-0.38770000000000004,-66.03872347769992
-0.38869999999999993,-65.76992833072556
-0.38970000000000005,-65.60016297474175
-0.39069999999999994,-65.4728389577539
-0.39170000000000005,-65.34551494076604
-0.39269999999999994,-65.2464851497755
-0.39370000000000005,-65.0767197937917
-0.39469999999999994,-64.90695443780788
-0.39570000000000005,-64.59571795183757
-0.39669999999999994,-64.38351125685783
-0.39770000000000005,-64.15715744887942
-0.39869999999999994,-64.02983343189156
-0.39970000000000006,-63.98739209289561
-0.40069999999999995,-63.98739209289561
-0.40170000000000006,-64.02983343189156
-0.40269999999999995,-63.98739209289561
-0.40370000000000006,-63.98739209289561
-0.40469999999999995,-63.944950753899654
-0.40570000000000006,-63.902509414903705
-0.40669999999999995,-63.81762673691181
-0.40770000000000006,-63.732744058919906
-0.40869999999999995,-63.59127292893339
-0.40970000000000006,-63.5063902509415
-0.41069999999999995,-63.37906623395363
-0.41170000000000007,-63.20930087796983
-0.41269999999999996,-63.06782974798333
-0.41370000000000007,-62.855623053003576
-0.41469999999999996,-62.72829903601572
-0.41570000000000007,-62.58682790602922
-0.41669999999999996,-62.459503889041365
-0.41770000000000007,-62.37462121104946
-0.41869999999999996,-62.33217987205352
-0.4197000000000001,-62.28973853305756
-0.42069999999999996,-62.20485585506566
-0.4217000000000001,-62.11997317707376
-0.42269999999999996,-62.06338472507916
-0.4237000000000001,-61.936060708091304
-0.42469999999999997,-61.936060708091304
-0.4257000000000001,-61.97850204708726
-0.42669999999999997,-62.06338472507916
-0.4277000000000001,-62.20485585506566
-0.42869999999999997,-62.24729719406162
-0.4297000000000001,-62.33217987205352
-0.43069999999999997,-62.33217987205352
-0.4317000000000001,-62.28973853305756
-0.4327,-62.24729719406162
-0.4337000000000001,-62.20485585506566
-0.4347,-62.24729719406162
-0.4357000000000001,-62.28973853305756
-0.4367,-62.37462121104946
-0.4377000000000001,-62.544386567033264
-0.4387,-62.64341635802381
-0.4397000000000001,-62.77074037501168
-0.4407,-62.855623053003576
-0.4417000000000001,-62.89806439199953
-0.4427,-62.94050573099548
-0.4437000000000001,-62.89806439199953
-0.4447,-62.89806439199953
-0.4457000000000001,-62.855623053003576
-0.4467,-62.81318171400764
-0.4477000000000001,-62.77074037501168
-0.4487,-62.72829903601572
-0.4497000000000001,-62.72829903601572
-0.4507,-62.68585769701977
-0.4517000000000001,-62.68585769701977
-0.4527,-62.68585769701977
-0.4537000000000001,-62.77074037501168
-0.4547,-62.89806439199953
-0.4557000000000001,-63.06782974798333
-0.4567,-63.251742216965795
-0.4577000000000001,-63.421507572949594
-0.4587,-63.6761556069253
-0.4597000000000001,-63.98739209289561
-0.4607,-64.29862857886593
-0.4617000000000001,-64.59571795183757
-0.4627,-64.90695443780788
-0.4637000000000001,-65.20404381077954
-0.4647,-65.4728389577539
-0.4657000000000001,-65.5577216357458
-0.4667,-65.5577216357458
-0.4677000000000001,-65.4728389577539
-0.4687,-65.38795627976201
-0.4697000000000001,-65.2464851497755
-0.4707,-65.2464851497755
-0.4717000000000001,-65.3030736017701
-0.4727,-65.38795627976201
-0.4737000000000001,-65.51528029674984
-0.4747,-65.64260431373769
-0.4757000000000001,-65.82651678272015
-0.4767,-65.95384079970802
-0.4777000000000001,-66.16604749468777
-0.4787,-66.39240130266617
-0.4797000000000001,-66.68949067563783
-0.4807,-67.00072716160814
-0.48170000000000013,-67.2978165345798
-0.4827,-67.65149435954605
-0.48370000000000013,-67.96273084551636
-0.4847,-68.25982021848802
-0.48570000000000013,-68.48617402646643
-0.4867,-67.96273084551636
-0.48570000000000013,-66.29337151167562
-0.4847,-64.77963042082003
-0.48370000000000013,-63.421507572949594
-0.4827,-62.11997317707376
-0.48170000000000013,-60.889174346191176
-0.4807,-59.67252262830725
-0.4797000000000001,-58.45587091042332
-0.4787,-57.30995475753264
-0.4777000000000001,-56.30550973462846
-0.4767,-55.357653163718886
-0.4757000000000001,-54.43809081880661
-0.4747,-53.603411151886235
-0.4737000000000001,-52.78287859796452
-0.4727,-51.948198931044146
-0.4717000000000001,-51.071077925127824
-0.4707,-50.1656626932142
-0.4697000000000001,-49.24610034830193
-0.4687,-48.36897934238561
-0.4677000000000001,-47.506005449467935
-0.4667,-46.75620846053947
-0.4657000000000001,-46.02055858460964
-0.4647,-45.27076159568118
-0.4637000000000001,-44.535111719751356
-0.4627,-43.84190318281749
-0.4617000000000001,-43.04966485489307
-0.4607,-42.31401497896325
