Potential V vs RHE, Current mA cm-2
0.013299999999999867,1.056647869869196
0.012299999999999978,0.6421374590087401
0.011299999999999866,0.4013535957717109
0.010299999999999976,0.23413472012766354
0.009299999999999864,0.08587297590180773
0.008299999999999974,-0.05440979659280931
0.007299999999999862,-0.1851857091523333
0.006299999999999972,-0.28605462483271044
0.00529999999999986,-0.36358080406531446
0.0042999999999999705,-0.4491708377071491
0.0032999999999998586,-0.5469273885278232
0.0022999999999999687,-0.6383177384991046
0.0012999999999998568,-0.7065068231525994
0.00029999999999996696,-0.7598414391575111
-0.000700000000000145,-0.8205325539217213
-0.0017000000000000348,-0.9001808001041228
-0.0027000000000001467,-0.9714822496173208
-0.0037000000000000366,-1.0270804037020165
-0.0047000000000001485,-1.0699461560879273
-0.005700000000000038,-1.114509562033676
-0.00670000000000015,-1.1853865981569143
-0.00770000000000004,-1.247350953091003
-0.008700000000000152,-1.2981390887561577
-0.009700000000000042,-1.3380339474123517
-0.010700000000000154,-1.3831632378780463
-0.011700000000000044,-1.4486643710617975
-0.012700000000000156,-1.5080822456561291
-0.013700000000000045,-1.5491088733522151
-0.014700000000000157,-1.583061944548976
-0.015700000000000047,-1.6184297270456018
-0.01670000000000016,-1.6792623129397986
-0.01770000000000005,-1.7429243214337253
-0.01870000000000016,-1.781121526530081
-0.01970000000000005,-1.8094157525273817
-0.020700000000000163,-1.8561012254229279
-0.021700000000000053,-1.9126896774175295
-0.022700000000000164,-1.9692781294121309
-0.023700000000000054,-2.0103047571082175
-0.024700000000000166,-2.042843117005113
-0.025700000000000056,-2.0782108995017388
-0.026700000000000168,-2.1347993514963406
-0.027700000000000058,-2.194217226090672
-0.02870000000000017,-2.2324144311870278
-0.02970000000000006,-2.2706116362833835
-0.03070000000000017,-2.3003205735805494
-0.03170000000000006,-2.362567870774611
-0.03270000000000017,-2.417741611469348
-0.03370000000000006,-2.460182950465299
-0.034700000000000175,-2.4870624651627344
-0.035700000000000065,-2.5238449589592253
-0.03670000000000018,-2.587506967453152
-0.03770000000000007,-2.6455101307476188
-0.03870000000000018,-2.6865367584437045
-0.03970000000000007,-2.7049280053419507
-0.04070000000000018,-2.7473693443379013
-0.04170000000000007,-2.8082019302320975
-0.04270000000000018,-2.8690345161262942
-0.04370000000000007,-2.9143052777219753
-0.044700000000000184,-2.935525947219951
-0.045700000000000074,-2.9609907506175217
-0.046700000000000186,-3.031726315610774
-0.047700000000000076,-3.082655922405915
-0.04870000000000019,-3.126511972701731
-0.04970000000000008,-3.1576356212987617
-0.05070000000000019,-3.193003403795388
-0.05170000000000008,-3.246762433190259
-0.05270000000000019,-3.307595019084456
-0.05370000000000008,-3.3500363580804073
-0.05470000000000019,-3.3740864501781123
-0.05570000000000008,-3.408039521374873
-0.056700000000000195,-3.4462367264712297
-0.057700000000000085,-3.5353635383627267
-0.058700000000000196,-3.5707313208593527
-0.059700000000000086,-3.5877078564577327
-0.0607000000000002,-3.6343933293532795
-0.06170000000000009,-3.690981781347881
-0.0627000000000002,-3.747570233342482
-0.06370000000000009,-3.788596861038568
-0.0647000000000002,-3.823964643535194
-0.06570000000000009,-3.852258869532495
-0.0667000000000002,-3.9046031876275014
-0.0677000000000001,-3.965435773521698
-0.0687000000000002,-4.006462401217783
-0.0697000000000001,-4.030512493315489
-0.07070000000000021,-4.070124409711711
-0.0717000000000001,-4.122468727806717
-0.07270000000000021,-4.193204292799969
-0.0737000000000001,-4.237060343095785
-0.07470000000000021,-4.2526221673943
-0.0757000000000001,-4.299307640289847
-0.07670000000000021,-4.353066669684718
-0.0777000000000001,-4.419558100778375
-0.07870000000000021,-4.46058472847446
-0.0797000000000001,-4.478975975372705
-0.08070000000000022,-4.527076159568118
-0.0817000000000001,-4.579420477663124
-0.08270000000000022,-4.64308248615705
-0.08370000000000011,-4.686938536452867
-0.08470000000000022,-4.726550452849088
-0.08570000000000011,-4.767577080545174
-0.08670000000000022,-4.819921398640179
-0.08770000000000011,-4.890656963633432
-0.08870000000000022,-4.935927725229114
-0.08970000000000011,-4.965636662526279
-0.09070000000000022,-5.01373684672169
-0.09170000000000011,-5.06466645351683
-0.09270000000000023,-5.139646152409678
-0.09370000000000012,-5.177843357506034
-0.09470000000000023,-5.240090654700095
-0.09570000000000012,-5.255652478998611
-0.09670000000000023,-5.322143910092268
-0.09770000000000012,-5.407026588084171
-0.09870000000000023,-5.452297349679851
-0.09970000000000012,-5.493323977375938
-0.10070000000000023,-5.545668295470944
-0.10170000000000012,-5.607915592665005
-0.10270000000000024,-5.680065868958122
-0.10370000000000013,-5.733824898352994
-0.10470000000000024,-5.7706073921494845
-0.10570000000000013,-5.821536998944626
-0.10670000000000024,-5.886613718738418
-0.10770000000000013,-5.964422840230995
-0.10870000000000024,-6.021011292225596
-0.10970000000000013,-6.062037919921682
-0.11070000000000024,-6.124285217115744
-0.11170000000000013,-6.186532514309805
-0.11270000000000002,-6.250194522803732
-0.11370000000000013,-6.330833066896039
-0.11470000000000002,-6.3647861380928
-0.11570000000000014,-6.4128863222882115
-0.11670000000000003,-6.490695443780789
-0.11770000000000014,-6.562845720073906
-0.11870000000000003,-6.634995996367022
-0.11970000000000014,-6.683096180562433
-0.12070000000000003,-6.725537519558384
-0.12170000000000014,-6.803346641050961
-0.12270000000000003,-6.875496917344078
-0.12370000000000014,-6.93774421453814
-0.12470000000000003,-6.981600264833956
-0.12570000000000014,-7.028285737729503
-0.12670000000000003,-7.115997838321134
-0.12770000000000015,-7.195221671113577
-0.12870000000000004,-7.254639545707908
-0.12970000000000015,-7.28293377170521
-0.13070000000000004,-7.3381075123999455
-0.13170000000000015,-7.410257788693063
-0.13270000000000004,-7.486652198885773
-0.13370000000000015,-7.537581805680916
-0.13470000000000004,-7.589926123775921
-0.13570000000000015,-7.629538040172143
-0.13670000000000004,-7.703103027765124
-0.13770000000000016,-7.782326860557566
-0.13870000000000005,-7.862965404649874
-0.13970000000000016,-7.86155069335001
-0.14070000000000005,-7.918139145344611
-0.14170000000000016,-7.978971731238807
-0.14270000000000005,-8.034145471933543
-0.14370000000000016,-8.100636903027201
-0.14470000000000005,-8.13176055162423
-0.14570000000000016,-8.154395932422071
-0.14670000000000005,-8.235034476514379
-0.14770000000000016,-8.27181697031087
-0.14870000000000005,-8.318502443206416
-0.14970000000000017,-8.35387022570304
-0.15070000000000006,-8.377920317800747
-0.15170000000000017,-8.430264635895755
-0.15270000000000006,-8.501000200889004
-0.15370000000000017,-8.539197405985362
-0.15470000000000006,-8.55334451898401
-0.15570000000000017,-8.577394611081719
-0.15670000000000006,-8.629738929176723
-0.15770000000000017,-8.672180268172674
-0.15870000000000006,-8.7075480506693
-0.15970000000000018,-8.706133339369435
-0.16070000000000007,-8.72169516366795
-0.16170000000000018,-8.796674862560797
-0.16270000000000007,-8.813651398159179
-0.16370000000000018,-8.85043389195567
-0.16470000000000007,-8.83628677895702
-0.16570000000000018,-8.85892215975486
-0.16670000000000007,-8.875898695353241
-0.16770000000000018,-8.908437055250136
-0.16870000000000007,-8.949463682946222
-0.16970000000000018,-8.933901858647706
-0.17070000000000007,-8.928243013448247
-0.17170000000000019,-8.943804837746763
-0.17270000000000008,-8.963610795944874
-0.1737000000000002,-8.969269641144333
-0.17470000000000008,-8.973513775043926
-0.1757000000000002,-8.952293105545952
-0.17670000000000008,-8.976343197643658
-0.1777000000000002,-8.970684352444197
-0.17870000000000008,-8.974928486343794
-0.1797000000000002,-8.945219549046627
-0.18070000000000008,-8.918340034349193
-0.1817000000000002,-8.925413590848516
-0.18270000000000008,-8.938145992547302
-0.1837000000000002,-8.929657724748111
-0.1847000000000001,-8.89004580835189
-0.1857000000000002,-8.864581004954319
-0.1867000000000001,-8.84477504675621
-0.1877000000000002,-8.84760446935594
-0.1887000000000001,-8.810821975559447
-0.1897000000000002,-8.792430728661204
-0.1907000000000001,-8.738671699266332
-0.1917000000000001,-8.71886574106822
-0.19269999999999998,-8.716036318468491
-0.1937000000000001,-8.662277289073618
-0.19469999999999998,-8.650959598674698
-0.1957000000000001,-8.588712301480637
-0.19669999999999999,-8.544856251184823
-0.1977000000000001,-8.51656202518752
-0.1987,-8.48826779919022
-0.1997000000000001,-8.44016761499481
-0.2007,-8.370846761301422
-0.2017000000000001,-8.34255253530412
-0.2027,-8.307184752807496
-0.2037000000000001,-8.267572836411274
-0.2047,-8.198251982717888
-0.2057000000000001,-8.141663530723285
-0.2067,-8.10629574822666
-0.2077000000000001,-8.063854409230709
-0.2087,-8.031316049333814
-0.2097000000000001,-7.949262793941642
-0.2107,-7.885600785447715
-0.2117000000000001,-7.836085889952438
-0.2127,-7.814865220454463
-0.2137000000000001,-7.737056098961886
-0.2147,-7.681882358267148
-0.2157000000000001,-7.638026307971333
-0.2167,-7.5814378559767315
-0.21770000000000012,-7.543240650880375
-0.2187,-7.48806691018564
-0.21970000000000012,-7.4244049016917115
-0.2207,-7.352254625398595
-0.22170000000000012,-7.294251462104128
-0.2227,-7.295666173403994
-0.22370000000000012,-7.229174742310337
-0.2247,-7.154195043417491
-0.22570000000000012,-7.106094859222079
-0.2267,-7.066482942825859
-0.22770000000000012,-7.033944582928963
-0.22870000000000001,-7.0297004490293675
-0.22970000000000013,-6.929255946738949
-0.23070000000000002,-6.883985185143269
-0.23170000000000013,-6.824567310548938
-0.23270000000000002,-6.818908465349477
-0.23370000000000013,-6.794858373251771
-0.23470000000000002,-6.74675818905636
-0.23570000000000013,-6.712805117859599
-0.23670000000000002,-6.678852046662837
-0.2376999999999999,-6.674607912763243
-0.23870000000000002,-6.651972531965402
-0.2396999999999999,-6.601042925170261
-0.24070000000000003,-6.578407544372421
-0.24169999999999991,-6.554357452274714
-0.24270000000000003,-6.560016297474175
-0.24369999999999992,-6.533136782776739
-0.24470000000000003,-6.497769000280114
-0.24569999999999992,-6.483621887281464
-0.24670000000000003,-6.477963042082004
-0.24769999999999992,-6.476548330782138
-0.24870000000000003,-6.4850365985813285
-0.24969999999999992,-6.449668816084703
-0.25070000000000003,-6.441180548285512
-0.2516999999999999,-6.449668816084703
-0.25270000000000004,-6.466645351683083
-0.2536999999999999,-6.469474774282813
-0.25470000000000004,-6.463815929083352
-0.2556999999999999,-6.438351125685783
-0.25670000000000004,-6.452498238684432
-0.25769999999999993,-6.477963042082004
-0.25870000000000004,-6.496354288980249
-0.25969999999999993,-6.4864513098811925
-0.26070000000000004,-6.499183711579978
-0.26169999999999993,-6.507671979379168
-0.26270000000000004,-6.54162505057593
-0.26369999999999993,-6.55294274097485
-0.26470000000000005,-6.56143100877404
-0.26569999999999994,-6.55860158617431
-0.26670000000000005,-6.595384079970801
-0.26769999999999994,-6.639240130266617
-0.26870000000000005,-6.657631377164862
-0.26969999999999994,-6.667534356263918
-0.27070000000000005,-6.683096180562433
-0.27169999999999994,-6.704316850060409
-0.27270000000000005,-6.759490590755146
-0.27369999999999994,-6.7693935698542
-0.27470000000000006,-6.7877848167524455
-0.27569999999999995,-6.800517218451231
-0.27670000000000006,-6.833055578348127
-0.27769999999999995,-6.883985185143269
-0.27870000000000006,-6.910864699840705
-0.27969999999999995,-6.923597101539489
-0.28070000000000006,-6.95189132753679
-0.28169999999999995,-6.988673821333281
-0.28270000000000006,-7.026871026429637
-0.28369999999999995,-7.0763859219249134
-0.28470000000000006,-7.079215344524644
-0.28569999999999995,-7.101850725322484
-0.28670000000000007,-7.138633219118976
-0.28769999999999996,-7.174001001615601
-0.28870000000000007,-7.226345319710607
-0.28969999999999996,-7.248980700508447
-0.29070000000000007,-7.257468968307639
-0.29169999999999996,-7.311227997702509
-0.29270000000000007,-7.366401738397246
-0.29369999999999996,-7.398940098294142
-0.2947000000000001,-7.410257788693063
-0.29569999999999996,-7.4173313451923875
-0.2967000000000001,-7.4753345084868545
-0.29769999999999996,-7.5220199813824
-0.2987000000000001,-7.548899496079835
-0.29969999999999997,-7.585681989876327
-0.3007000000000001,-7.592755546375652
-0.30169999999999997,-7.6267086175724135
-0.3027000000000001,-7.697444182565665
-0.30369999999999997,-7.681882358267148
-0.3047000000000001,-7.739885521561616
-0.30569999999999997,-7.742714944161346
-0.3067000000000001,-7.775253304058242
-0.3077,-7.841744735151897
-0.3087000000000001,-7.857306559450413
-0.3097,-7.871453672449064
-0.3107000000000001,-7.888430208047444
-0.3117,-7.922383279244204
-0.3127000000000001,-7.976142308639078
-0.3137,-7.997362978137053
-0.3147000000000001,-8.008680668535973
-0.3157,-8.005851245936244
-0.3167000000000001,-8.0440484510326
-0.3177,-8.093563346527874
-0.3187000000000001,-8.10912517082639
-0.3197,-8.12610170642477
-0.3207000000000001,-8.119028149925446
-0.3217,-8.150151798522476
-0.3227000000000001,-8.191178426218563
-0.3237,-8.222302074815595
-0.3247000000000001,-8.222302074815595
-0.3257,-8.227960920015054
-0.3267000000000001,-8.239278610413974
-0.3277,-8.284549372009655
-0.3287000000000001,-8.304355330207764
-0.3297,-8.307184752807496
-0.3307000000000001,-8.3029406189079
-0.3317,-8.31991715450628
-0.3327000000000001,-8.358114359602638
-0.3337,-8.366602627401825
-0.3347000000000001,-8.370846761301422
-0.3357,-8.375090895201017
-0.3367000000000001,-8.380749740400477
-0.3377,-8.47129126359184
-0.3387000000000001,-8.396311564698992
-0.3397,-8.397726275998858
-0.3407000000000001,-8.413288100297372
-0.3417,-8.423191079396428
-0.3427000000000001,-8.46563241839238
-0.3437,-8.48543837659049
-0.3447000000000001,-8.47977953139103
-0.3457,-8.472705974891705
-0.3467000000000001,-8.47412068619157
-0.3477,-8.512317891287925
-0.3487000000000001,-8.529294426886306
-0.3497,-8.495341355689545
-0.3507000000000001,-8.522220870386981
-0.3517,-8.52787971558644
-0.3527000000000001,-8.567491631982662
-0.3537,-8.570321054582392
-0.3547000000000001,-8.580224033681448
-0.3557,-8.580224033681448
-0.35670000000000013,-8.581638744981312
-0.3577,-8.61134768227848
-0.35870000000000013,-8.649544887374834
-0.3597,-8.655203732574295
-0.36070000000000013,-8.67076555687281
-0.3617,-8.66510671167335
-0.3626999999999999,-8.720280452368087
-0.3637,-8.765551213963766
-0.3646999999999999,-8.781113038262282
-0.3657,-8.799504285160529
-0.3666999999999999,-8.84477504675621
-0.3677,-8.894289942251486
-0.3686999999999999,-8.953707816845819
-0.36970000000000003,-8.987660888042578
-0.3706999999999999,-9.027272804438798
-0.37170000000000003,-9.09800836943205
-0.3726999999999999,-9.174402779624762
-0.37370000000000003,-9.25504132371707
-0.3746999999999999,-9.328606311310052
-0.37570000000000003,-9.419147834501414
-0.3766999999999999,-9.539398294989942
-0.37770000000000004,-9.652575198979145
-0.3786999999999999,-9.79404632896565
-0.37970000000000004,-9.946835149351072
-0.3806999999999999,-10.088306279337578
-0.38170000000000004,-10.28919528391841
-0.38269999999999993,-10.504231401497897
-0.38370000000000004,-10.696632138279542
-0.38469999999999993,-10.96259786265417
-0.38570000000000004,-11.244125411327312
-0.38669999999999993,-11.585070834594784
-0.38770000000000004,-11.998166534155375
-0.38869999999999993,-12.419750501515157
-0.38970000000000005,-12.842749180174803
-0.39069999999999994,-13.405804277521089
-0.39170000000000005,-14.019788981662511
-0.39269999999999994,-14.684703292599082
-0.39370000000000005,-15.491088733522153
-0.39469999999999994,-16.396503965435777
-0.39570000000000005,-17.358507649344002
-0.39669999999999994,-18.44783535024008
-0.39770000000000005,-19.73522263311726
-0.39869999999999994,-21.079198367989047
-0.39970000000000006,-22.550498119848687
-0.40069999999999995,-24.149121888696175
-0.40170000000000006,-25.846775448534224
-0.40269999999999995,-27.572723234369565
-0.40370000000000006,-29.369406585198163
-0.40469999999999995,-31.151942823028104
-0.40570000000000006,-32.97692039985401
-0.40669999999999995,-34.81604508967855
-0.40770000000000006,-36.754199570493654
-0.40869999999999995,-38.57917714731955
-0.40970000000000006,-40.40415472414545
-0.41069999999999995,-42.229132300971344
-0.41170000000000007,-43.96922719980534
-0.41269999999999996,-45.76591055063393
-0.41370000000000007,-47.30794586748683
-0.41469999999999996,-48.83583407134107
-0.41570000000000007,-50.23639825820745
-0.41669999999999996,-51.46719708909004
-0.41770000000000007,-52.81117282396182
-0.41869999999999996,-54.02782454184575
-0.4197000000000001,-55.11715224274183
-0.42069999999999996,-56.36209818662306
-0.4217000000000001,-57.23921919253939
-0.42269999999999996,-58.18707576344896
-0.4237000000000001,-59.06419676936528
-0.42469999999999997,-59.99790622727621
-0.4257000000000001,-60.818438781197926
-0.42669999999999997,-61.4267646401399
-0.4277000000000001,-62.11997317707376
-0.42869999999999997,-62.86977016600223
-0.4297000000000001,-63.732744058919906
-0.43069999999999997,-64.46839393484973
-0.4317000000000001,-65.17574958478224
-0.4327,-65.40210339276065
-0.4337000000000001,-66.34995996367022
-0.4347,-67.02902138760544
-0.4357000000000001,-67.43928766456631
-0.4367,-67.90614239352176
-0.4377000000000001,-68.68423360844753
-0.4387,-69.33500080638545
-0.4397000000000001,-69.90088532633146
-0.4407,-70.38188716828559
-0.4417000000000001,-70.69312365425588
-0.4427,-71.17412549621
-0.4437000000000001,-71.3438908521938
-0.4447,-71.96636382413442
-0.4457000000000001,-72.60298390907369
-0.4467,-72.65957236106827
-0.4477000000000001,-72.78689637805614
-0.4487,-73.3669280110008
-0.4497000000000001,-74.06013654793468
-0.4507,-74.86652198885774
-0.4517000000000001,-74.7391979718699
-0.4527,-74.92311044085234
-0.4537000000000001,-75.64461320378352
-0.4547,-75.47484784779972
-0.4557000000000001,-75.81437855976732
-0.4567,-76.30952751472009
-0.4577000000000001,-77.37056098961885
-0.4587,-77.90815128356756
-0.4597000000000001,-78.31841756052843
-0.4607,-78.85600785447714
-0.4617000000000001,-79.7472759733921
-0.4627,-80.11510091135703
-0.4637000000000001,-81.03466325626928
-0.4647,-82.23716786115457
-0.4657000000000001,-83.32649556205067
-0.4667,-83.70846761301424
-0.4677000000000001,-83.89238008199668
-0.4687,-84.64217707092514
-0.4697000000000001,-85.36367983385631
-0.4707,-85.09488468688197
-0.4717000000000001,-85.64662209382932
-0.4727,-87.72624770463094
-0.4737000000000001,-88.88631097052026
-0.4747,-90.15955114039879
-0.4757000000000001,-90.838612564334
-0.4767,-91.07911348531105
-0.4777000000000001,-91.16399616330297
-0.4787,-91.78646913524358
-0.4797000000000001,-92.02697005622063
-0.4807,-92.5221190111734
-0.48170000000000013,-92.98897374012887
-0.4827,-94.55930328297906
-0.48370000000000013,-95.21007048091697
-0.4847,-95.50715985388862
-0.48570000000000013,-96.01645592184003
-0.4867,-96.49745776379415
-0.48570000000000013,-94.89883399494667
-0.4847,-93.90853608504113
-0.48370000000000013,-92.88994394913831
-0.4827,-92.23917675120039
-0.48170000000000013,-91.29132018029082
-0.4807,-90.3576107223799
-0.4797000000000001,-89.77757908943524
-0.4787,-88.9853407615108
-0.4777000000000001,-89.43804837746762
-0.4767,-88.43360335456343
-0.4757000000000001,-88.3345735635729
-0.4747,-87.57062946164578
-0.4737000000000001,-86.6793613427308
-0.4727,-85.94371146680098
-0.4717000000000001,-85.40612117285227
-0.4707,-84.40167614994809
-0.4697000000000001,-83.45381957903851
-0.4687,-82.32205053914649
-0.4677000000000001,-81.67128334120858
-0.4667,-80.8083094482909
-0.4657000000000001,-79.78971731238806
-0.4647,-79.13895011445015
-0.4637000000000001,-80.9780748042747
-0.4627,-79.81801153838538
-0.4617000000000001,-78.8701549674758
-0.4607,-78.16279931754329
-0.4597000000000001,-77.1583542946391
-0.4587,-76.63491111368903
