Potential V vs RHE, Current mA cm-2
0.013299999999999867,-0.22083643390893223
0.012299999999999978,-0.5299508529294428
0.011299999999999866,-0.673544049865744
0.010299999999999976,-0.7820524065653922
0.009299999999999864,-0.8751404100965116
0.008299999999999974,-0.9235235365518959
0.007299999999999862,-0.9516762914192101
0.006299999999999972,-0.9894490831256065
0.00529999999999986,-1.0434910547804512
0.0042999999999999705,-1.102767458244796
0.0032999999999998586,-1.1303543285921644
0.0022999999999999687,-1.1449258549807741
0.0012999999999998568,-1.1716638985482233
0.00029999999999996696,-1.2173590735338642
-0.000700000000000145,-1.2704107472788029
-0.0017000000000000348,-1.294885252766468
-0.0027000000000001467,-1.306627356555348
-0.0037000000000000366,-1.33081891978304
-0.0047000000000001485,-1.3793435173684108
-0.005700000000000038,-1.4302731241635522
-0.00670000000000015,-1.459982061460718
-0.00770000000000004,-1.4698850405597732
-0.008700000000000152,-1.498179266557074
-0.009700000000000042,-1.5491088733522151
-0.010700000000000154,-1.6071120366466816
-0.011700000000000044,-1.6354062626439825
-0.012700000000000156,-1.6523827982423631
-0.013700000000000045,-1.6820917355395286
-0.014700000000000157,-1.7386801875341302
-0.015700000000000047,-1.7952686395287314
-0.01670000000000016,-1.8320511333252225
-0.01770000000000005,-1.8546865141230628
-0.01870000000000016,-1.8886395853198237
-0.01970000000000005,-1.9508868825138854
-0.020700000000000163,-2.017378313607542
-0.021700000000000053,-2.0555755187038987
-0.022700000000000164,-2.085284456001064
-0.023700000000000054,-2.124896372397285
-0.024700000000000166,-2.1913878034909415
-0.025700000000000056,-2.2677822136836534
-0.026700000000000168,-2.3144676865791998
-0.027700000000000058,-2.349835469075826
-0.02870000000000017,-2.396520941971372
-0.02970000000000006,-2.468671218264489
-0.03070000000000017,-2.549309762356796
-0.03170000000000006,-2.6016540804518025
-0.03270000000000017,-2.6455101307476188
-0.03370000000000006,-2.70209858274222
-0.034700000000000175,-2.778492992934932
-0.035700000000000065,-2.8690345161262942
-0.03670000000000018,-2.9341112359200863
-0.03770000000000007,-2.977967286215902
-0.03870000000000018,-3.0387998721100984
-0.03970000000000007,-3.119438416202406
-0.04070000000000018,-3.217053495893093
-0.04170000000000007,-3.2906184834860754
-0.04270000000000018,-3.3457922241808116
-0.04370000000000007,-3.4108689439746036
-0.044700000000000184,-3.504239889765696
-0.045700000000000074,-3.6004402581565187
-0.046700000000000186,-3.6824935135486903
-0.047700000000000076,-3.7404966768431565
-0.04870000000000019,-3.8168910870358688
-0.04970000000000008,-3.9173355893262864
-0.05070000000000019,-4.019194802916569
-0.05170000000000008,-4.105492192208336
-0.05270000000000019,-4.171983623301993
-0.05370000000000008,-4.2483780334947046
-0.05470000000000019,-4.354481380984582
-0.05570000000000008,-4.463414151074191
-0.056700000000000195,-4.555370385565419
-0.057700000000000085,-4.631764795758129
-0.058700000000000196,-4.712403339850438
-0.059700000000000086,-4.824165532539776
-0.0607000000000002,-4.943001281728439
-0.06170000000000009,-5.044860495318721
-0.0627000000000002,-5.125499039411029
-0.06370000000000009,-5.208967006103065
-0.0647000000000002,-5.3178997761926725
-0.06570000000000009,-5.440979659280932
-0.0667000000000002,-5.535765316371888
-0.0677000000000001,-5.616403860464195
-0.0687000000000002,-5.708360094955423
-0.0697000000000001,-5.827195844144086
-0.07070000000000021,-5.950275727232344
-0.0717000000000001,-6.049305518222896
-0.07270000000000021,-6.135602907514665
-0.0737000000000001,-6.233217987205351
-0.07470000000000021,-6.346394891194555
-0.0757000000000001,-6.4793777533818675
-0.07670000000000021,-6.581236966972151
-0.0777000000000001,-6.6632902223643224
-0.07870000000000021,-6.75807587945528
-0.0797000000000001,-6.875496917344078
-0.08070000000000022,-7.008479779531392
-0.0817000000000001,-7.1216566835205946
-0.08270000000000022,-7.203709938912767
-0.08370000000000011,-7.304154441203185
-0.08470000000000022,-7.425819612991578
-0.08570000000000011,-7.557387763879025
-0.08670000000000022,-7.667735245268498
-0.08770000000000011,-7.752617923260401
-0.08870000000000022,-7.848818291651225
-0.08970000000000011,-7.9690687521397505
-0.09070000000000022,-8.100636903027201
-0.09170000000000011,-8.219472652215863
-0.09270000000000023,-8.307184752807496
-0.09370000000000012,-8.399140987298722
-0.09470000000000023,-8.51656202518752
-0.09570000000000012,-8.63398306307632
-0.09670000000000023,-8.744330544465791
-0.09770000000000012,-8.85043389195567
-0.09870000000000023,-8.945219549046627
-0.09970000000000012,-9.065470009535154
-0.10070000000000023,-9.205526428221793
-0.10170000000000012,-9.308800353111941
-0.10270000000000024,-9.399341876303303
-0.10370000000000013,-9.487053976894938
-0.10470000000000024,-9.60306030348387
-0.10570000000000013,-9.738872588270914
-0.10670000000000024,-9.8364876679616
-0.10770000000000013,-9.922785057253368
-0.10870000000000024,-10.023229559543786
-0.10970000000000013,-10.140650597432582
-0.11070000000000024,-10.277877593519491
-0.11170000000000013,-10.38398094100937
-0.11270000000000002,-10.46037535120208
-0.11370000000000013,-10.549502163093578
-0.11470000000000002,-10.655605510583456
-0.11570000000000014,-10.784344238871176
-0.11670000000000003,-10.889032875061186
-0.11770000000000014,-10.968256707853628
-0.11870000000000003,-11.065871787544317
-0.11970000000000014,-11.186122248032843
-0.12070000000000003,-11.312031553720834
-0.12170000000000014,-11.409646633411523
-0.12270000000000003,-11.480382198404772
-0.12370000000000014,-11.56950901029627
-0.12470000000000003,-11.681271202985608
-0.12570000000000014,-11.80576579737373
-0.12670000000000003,-11.92318683526253
-0.12770000000000015,-12.003825379354835
-0.12870000000000004,-12.085878634747008
-0.12970000000000015,-12.18773784833729
-0.13070000000000004,-12.289597061927573
-0.13170000000000015,-12.382968007718665
-0.13270000000000004,-12.450874150112186
-0.13370000000000015,-12.53292740550436
-0.13470000000000004,-12.641860175593967
-0.13570000000000015,-12.753622368283306
-0.13670000000000004,-12.851237447973993
-0.13770000000000016,-12.927631858166704
-0.13870000000000005,-12.991293866660634
-0.13970000000000016,-13.08325010115186
-0.14070000000000005,-13.195012293841197
-0.14170000000000016,-13.281309683132966
-0.14270000000000005,-13.346386402926754
-0.14370000000000016,-13.418536679219873
-0.14470000000000005,-13.511907625010965
-0.14570000000000016,-13.622255106400438
-0.14670000000000005,-13.697234805293286
-0.14770000000000016,-13.759482102487347
-0.14870000000000005,-13.81889997708168
-0.14970000000000017,-13.910856211572908
-0.15070000000000006,-14.011300713863324
-0.15170000000000017,-14.07779214495698
-0.15270000000000006,-14.137210019551313
-0.15370000000000017,-14.189554337646317
-0.15470000000000006,-14.274437015638219
-0.15570000000000017,-14.373466806628771
-0.15670000000000006,-14.444202371622024
-0.15770000000000017,-14.472496597619326
-0.15870000000000006,-14.529085049613924
-0.15970000000000018,-14.599820614607177
-0.16070000000000007,-14.684703292599082
-0.16170000000000018,-14.741291744593681
-0.16270000000000007,-14.769585970590983
-0.16370000000000018,-14.812027309586934
-0.16470000000000007,-14.882762874580186
-0.16570000000000018,-14.953498439573437
-0.16670000000000007,-15.01008689156804
-0.16770000000000018,-15.02423400456669
-0.16870000000000007,-15.05252823056399
-0.16970000000000018,-15.10911668255859
-0.17070000000000007,-15.165705134553193
-0.17170000000000019,-15.222293586547794
-0.17270000000000008,-15.236440699546446
-0.1737000000000002,-15.250587812545096
-0.17470000000000008,-15.307176264539699
-0.1757000000000002,-15.349617603535648
-0.17670000000000008,-15.363764716534297
-0.1777000000000002,-15.349617603535648
-0.17870000000000008,-15.335470490536997
-0.1797000000000002,-15.363764716534297
-0.18070000000000008,-15.406206055530248
-0.1817000000000002,-15.4203531685289
-0.18270000000000008,-15.43450028152755
-0.1837000000000002,-15.406206055530248
-0.1847000000000001,-15.406206055530248
-0.1857000000000002,-15.4203531685289
-0.1867000000000001,-15.406206055530248
-0.1877000000000002,-15.37791182953295
-0.1887000000000001,-15.349617603535648
-0.1897000000000002,-15.349617603535648
-0.1907000000000001,-15.363764716534297
-0.1917000000000001,-15.335470490536997
-0.19269999999999998,-15.278882038542395
-0.1937000000000001,-15.236440699546446
-0.19469999999999998,-15.222293586547794
-0.1957000000000001,-15.236440699546446
-0.19669999999999999,-15.208146473549144
-0.1977000000000001,-15.137410908555893
-0.1987,-15.06667534356264
-0.1997000000000001,-15.03838111756534
-0.2007,-15.01008689156804
-0.2017000000000001,-14.98179266557074
-0.2027,-14.896909987578834
-0.2037000000000001,-14.826174422585586
-0.2047,-14.769585970590983
-0.2057000000000001,-14.727144631595033
-0.2067,-14.684703292599082
-0.2077000000000001,-14.599820614607177
-0.2087,-14.500790823616628
-0.2097000000000001,-14.458349484620674
-0.2107,-14.415908145624723
-0.2117000000000001,-14.331025467632822
-0.2127,-14.24614278964092
-0.2137000000000001,-14.147112998650368
-0.2147,-14.08062156755671
-0.2157000000000001,-14.033936094661165
-0.2167,-13.951882839268992
-0.21770000000000012,-13.842950069179384
-0.2187,-13.742505566888967
-0.21970000000000012,-13.67601413579531
-0.2207,-13.616596261200979
-0.22170000000000012,-13.533128294508941
-0.2227,-13.427024947019063
-0.22370000000000012,-13.312433331729995
-0.2247,-13.24028305543688
-0.22570000000000012,-13.178035758242817
-0.2267,-13.090323657651185
-0.22770000000000012,-12.989879155360766
-0.22870000000000001,-12.892264075670079
-0.22970000000000013,-12.815869665477367
-0.23070000000000002,-12.760695924782631
-0.23170000000000013,-12.691375071089244
-0.23270000000000002,-12.596589413998286
-0.23370000000000013,-12.497559623007733
-0.23470000000000002,-12.422579924114888
-0.23570000000000013,-12.371650317319745
-0.23670000000000002,-12.299500041026628
-0.2376999999999999,-12.217446785634456
-0.23870000000000002,-12.138222952842016
-0.2396999999999999,-12.080219789547549
-0.24070000000000003,-12.046266718350788
-0.24169999999999991,-11.999581245455241
-0.24270000000000003,-11.907625010964015
-0.24369999999999992,-11.841133579870357
-0.24470000000000003,-11.797277529574542
-0.24569999999999992,-11.787374550475485
-0.24670000000000003,-11.74917734537913
-0.24769999999999992,-11.668538801286822
-0.24870000000000003,-11.60629150409276
-0.24969999999999992,-11.585070834594784
-0.25070000000000003,-11.577997278095461
-0.2516999999999999,-11.55253247469789
-0.25270000000000004,-11.504432290502479
-0.2536999999999999,-11.461990951506527
-0.25470000000000004,-11.454917395007202
-0.2556999999999999,-11.460576240206661
-0.25670000000000004,-11.464820374106257
-0.25769999999999993,-11.4266231690099
-0.25870000000000004,-11.395499520412871
-0.25969999999999993,-11.40398778821206
-0.26070000000000004,-11.422379035110307
-0.26169999999999993,-11.420964323810443
-0.26270000000000004,-11.409646633411523
-0.26369999999999993,-11.396914231712735
-0.26470000000000005,-11.418134901210712
-0.26569999999999994,-11.453502683707336
-0.26670000000000005,-11.477552775805044
-0.26769999999999994,-11.464820374106257
-0.26870000000000005,-11.474723353205313
-0.26969999999999994,-11.500188156602883
-0.27070000000000005,-11.539800072999105
-0.27169999999999994,-11.572338432896
-0.27270000000000005,-11.58082670069519
-0.27369999999999994,-11.587900257194516
-0.27470000000000006,-11.620438617091411
-0.27569999999999995,-11.672782935186419
-0.27670000000000006,-11.710980140282773
-0.27769999999999995,-11.723712541981559
-0.27870000000000006,-11.744933211479534
-0.27969999999999995,-11.787374550475485
-0.28070000000000006,-11.848207136369682
-0.28169999999999995,-11.900551454464688
-0.28270000000000006,-11.924601546562394
-0.28369999999999995,-11.952895772559694
-0.28470000000000006,-11.989678266356185
-0.28569999999999995,-12.067487387848763
-0.28670000000000007,-12.11700228334404
-0.28769999999999996,-12.129734685042823
-0.28870000000000007,-12.156614199740261
-0.28969999999999996,-12.214617363034726
-0.29070000000000007,-12.292426484527304
-0.29169999999999996,-12.353259070421501
-0.29270000000000007,-12.37023560601988
-0.29369999999999996,-12.391456275517855
-0.2947000000000001,-12.445215304912727
-0.29569999999999996,-12.514536158606116
-0.2967000000000001,-12.571124610600718
-0.29769999999999996,-12.602248259197747
-0.2987000000000001,-12.626298351295452
-0.29969999999999997,-12.69561920498884
-0.3007000000000001,-12.776257749081147
-0.30169999999999997,-12.824357933276557
-0.3027000000000001,-12.844163891474668
-0.30369999999999997,-12.858311004473318
-0.3047000000000001,-12.921973012967245
-0.30569999999999997,-12.99978213445982
-0.3067000000000001,-13.043638184755638
-0.3077,-13.067688276853342
-0.3087000000000001,-13.09456779155078
-0.3097,-13.139838553146461
-0.3107000000000001,-13.204915272940253
-0.3117,-13.250186034535934
-0.3127000000000001,-13.260089013634989
-0.3137,-13.27706554923337
-0.3147000000000001,-13.333654001227972
-0.3157,-13.397316009721898
-0.3167000000000001,-13.445416193917309
-0.3177,-13.455319173016363
-0.3187000000000001,-13.468051574715151
-0.3197,-13.50483406851164
-0.3207000000000001,-13.561422520506243
-0.3217,-13.595375591703002
-0.3227000000000001,-13.602449148202329
-0.3237,-13.62508452900017
-0.3247000000000001,-13.67035529059585
-0.3257,-13.714211340891666
-0.3267000000000001,-13.728358453890316
-0.3277,-13.718455474791261
-0.3287000000000001,-13.729773165190181
-0.3297,-13.755237968587751
-0.3307000000000001,-13.794849884983973
-0.3317,-13.817485265781814
-0.3327000000000001,-13.81889997708168
-0.3337,-13.82172939968141
-0.3347000000000001,-13.841535357879518
-0.3357,-13.87548842907628
-0.3367000000000001,-13.885391408175334
-0.3377,-13.87548842907628
-0.3387000000000001,-13.867000161277092
-0.3397,-13.88963554207493
-0.3407000000000001,-13.926418035871421
-0.3417,-13.946223994069532
-0.3427000000000001,-13.91792976807223
-0.3437,-13.898123809874122
-0.3447000000000001,-13.915100345472501
-0.3457,-13.937735726270342
-0.3467000000000001,-13.944809282769667
-0.3477,-13.932076881070882
-0.3487000000000001,-13.915100345472501
-0.3497,-13.925003324571557
-0.3507000000000001,-13.957541684468453
-0.3517,-13.9716887974671
-0.3527000000000001,-13.932076881070882
-0.3537,-13.920759190671962
-0.3547000000000001,-13.923588613271692
-0.3557,-13.950468127969126
-0.35670000000000013,-13.957541684468453
-0.3577,-13.941979860169937
-0.35870000000000013,-13.929247458471151
-0.3597,-13.946223994069532
-0.36070000000000013,-13.984421199165887
-0.3617,-13.995738889564809
-0.3626999999999999,-13.983006487866021
-0.3637,-13.984421199165887
-0.3646999999999999,-13.999983023464402
-0.3657,-14.046668496359947
-0.3666999999999999,-14.072133299757521
-0.3677,-14.062230320658465
-0.3686999999999999,-14.083450990156441
-0.36970000000000003,-14.120233483952932
-0.3706999999999999,-14.189554337646317
-0.37170000000000003,-14.24614278964092
-0.3726999999999999,-14.288584128636872
-0.37370000000000003,-14.331025467632822
-0.3746999999999999,-14.401761032626075
-0.37570000000000003,-14.500790823616628
-0.3766999999999999,-14.599820614607177
-0.37770000000000004,-14.684703292599082
-0.3786999999999999,-14.797880196588284
-0.37970000000000004,-14.953498439573437
-0.3806999999999999,-15.137410908555893
-0.38170000000000004,-15.335470490536997
-0.38269999999999993,-15.519382959519453
-0.38370000000000004,-15.759883880496508
-0.38469999999999993,-16.056973253468165
-0.38570000000000004,-16.410651078434423
-0.38669999999999993,-16.792623129397985
-0.38770000000000004,-17.231183632356142
-0.38869999999999993,-17.75462681330621
-0.38970000000000005,-18.362952672248177
-0.39069999999999994,-19.112749661176647
-0.39170000000000005,-19.961576441095666
-0.39269999999999994,-20.93772723800254
-0.39370000000000005,-22.083643390893226
-0.39469999999999994,-23.41347201276636
-0.39570000000000005,-24.927213103621945
-0.39669999999999994,-26.58242532446404
-0.39770000000000005,-28.393255788291288
-0.39869999999999994,-30.331410269106385
-0.39970000000000006,-32.41103587990799
-0.40069999999999995,-34.5755441687015
-0.40170000000000006,-36.83908224848555
-0.40269999999999995,-39.145061667265566
-0.40370000000000006,-41.55007087703613
-0.40469999999999995,-44.025815651799945
-0.40570000000000006,-46.586443104555656
-0.40669999999999995,-49.16121767031002
-0.40770000000000006,-51.580373993079235
-0.40869999999999995,-53.88635341185925
-0.40970000000000006,-56.34795107362442
-0.41069999999999995,-58.75296028339497
-0.41170000000000007,-61.07308681517363
-0.41269999999999996,-63.19515376497119
-0.41370000000000007,-65.18989669778088
-0.41469999999999996,-67.01487427460678
-0.41570000000000007,-68.65593938245023
-0.41669999999999996,-70.09894490831257
-0.41770000000000007,-71.44292064318435
-0.41869999999999996,-72.75860215205884
-0.4197000000000001,-74.11672499992927
-0.42069999999999996,-75.48899496079835
-0.4217000000000001,-76.74808801767824
-0.42269999999999996,-78.13450509154598
-0.4237000000000001,-79.25212701843935
-0.42469999999999997,-80.04436534636378
-0.4257000000000001,-81.07710459526525
-0.42669999999999997,-82.03910827917348
-0.4277000000000001,-82.95867062408576
-0.42869999999999997,-83.84993874300073
-0.4297000000000001,-84.78364820091166
-0.43069999999999997,-85.59003364183472
-0.4317000000000001,-86.49544887374834
-0.4327,-87.42915833165927
-0.4337000000000001,-88.12236686859313
-0.4347,-88.57507448454994
-0.4357000000000001,-89.39560703847167
-0.4367,-90.21613959239339
-0.4377000000000001,-90.93764235532454
-0.4387,-91.41864419727867
-0.4397000000000001,-91.88549892623412
-0.4407,-92.39479499418556
-0.4417000000000001,-93.56900537307352
-0.4427,-93.18703332210997
-0.4437000000000001,-93.71047650306002
-0.4447,-94.84224554295207
-0.4457000000000001,-95.39398294989942
-0.4467,-95.33739449790482
-0.4477000000000001,-96.95016537975096
-0.4487,-97.24725475272263
-0.4497000000000001,-98.23755266262813
-0.4507,-98.7892900695755
-0.4517000000000001,-99.22785057253368
-0.4527,-99.7937350924797
-0.4537000000000001,-100.60012053340276
-0.4547,-101.29332907033663
-0.4557000000000001,-101.56212421731098
-0.4567,-101.56212421731098
-0.4577000000000001,-102.87780572618546
-0.4587,-103.45783735913014
-0.4597000000000001,-104.08031033107075
-0.4607,-105.86284656890071
-0.4617000000000001,-106.24481861986426
-0.4627,-107.03705694778867
-0.4637000000000001,-108.1688259876807
-0.4647,-107.8010010497158
-0.4657000000000001,-107.67367703272794
-0.4667,-108.90447586361051
-0.4677000000000001,-110.2484515984823
-0.4687,-111.3094850733811
-0.4697000000000001,-112.61101946925692
-0.4707,-113.27593378019348
-0.4717000000000001,-113.79937696114357
-0.4727,-114.66235085406122
-0.4737000000000001,-114.54917395007203
-0.4747,-116.33171018790196
-0.4757000000000001,-118.79330784966713
-0.4767,-120.42022584451192
-0.4777000000000001,-121.83493714437697
-0.4787,-123.80138585118935
-0.4797000000000001,-125.28683271604763
-0.4807,-125.6688047670112
-0.48170000000000013,-125.8102758969977
-0.4827,-126.30542485195048
-0.48370000000000013,-126.37616041694372
-0.4847,-127.02692761488163
-0.48570000000000013,-127.33816410085197
-0.4867,-127.14010451887084
-0.48570000000000013,-126.09321815697072
-0.4847,-126.71569112891132
-0.48370000000000013,-125.15950869905981
-0.4827,-123.54673781721365
-0.48170000000000013,-122.1037322913513
-0.4807,-120.78805078247684
-0.4797000000000001,-119.769458646574
-0.4787,-119.33089814361584
-0.4777000000000001,-118.31230600771303
-0.4767,-117.4917734537913
-0.4757000000000001,-116.27512173590738
-0.4747,-115.2706767130032
-0.4737000000000001,-114.25208457710036
-0.4727,-112.46954833927042
-0.4717000000000001,-111.4792504293649
-0.4707,-110.88507168342157
-0.4697000000000001,-110.22015737248502
-0.4687,-110.26259871148096
-0.4677000000000001,-108.94691720260647
