Apr. 2, 2025   05:53:08
Cyclic Voltammetry
File: c:/users/guazh/data/banditlqround7_x0exp518_r20/2025-03-28-exp1017\exp1017-2025-04-02t05_44_37-h2koh\exp1017_cv_50mvs_efin_-1500mv.bin
Data Source:  Experiment
Instrument Model:  CHI760E
Header: CV ran at 50 mVs
Note: 

Init E (V) = -1
High E (V) = -1
Low E (V) = -1.5
Final E (V) = -1
Init P/N = N
Scan Rate (V/s) = 0.05
Segment = 7
Sample Interval (V) = 0.001
Quiet Time (sec) = 60
Sensitivity (A/V) = 0.001
Comp R (ohm) = 1.7

Results:

Channel 1:
Segment 1:

Segment 2:

Segment 3:

Segment 4:

Segment 5:

Segment 6:

Segment 7:

Potential/V, Current/A

-1.000, 4.029e-5
-1.001, 9.209e-5
-1.002, 1.136e-4
-1.003, 1.271e-4
-1.004, 1.345e-4
-1.005, 1.418e-4
-1.006, 1.477e-4
-1.007, 1.542e-4
-1.008, 1.588e-4
-1.009, 1.625e-4
-1.010, 1.675e-4
-1.011, 1.709e-4
-1.012, 1.767e-4
-1.013, 1.801e-4
-1.014, 1.824e-4
-1.015, 1.867e-4
-1.016, 1.887e-4
-1.017, 1.941e-4
-1.018, 1.982e-4
-1.019, 2.010e-4
-1.020, 2.038e-4
-1.021, 2.076e-4
-1.022, 2.105e-4
-1.023, 2.163e-4
-1.024, 2.180e-4
-1.025, 2.203e-4
-1.026, 2.260e-4
-1.027, 2.300e-4
-1.028, 2.310e-4
-1.029, 2.363e-4
-1.030, 2.408e-4
-1.031, 2.438e-4
-1.032, 2.487e-4
-1.033, 2.525e-4
-1.034, 2.538e-4
-1.035, 2.597e-4
-1.036, 2.642e-4
-1.037, 2.698e-4
-1.038, 2.742e-4
-1.039, 2.802e-4
-1.040, 2.804e-4
-1.041, 2.847e-4
-1.042, 2.878e-4
-1.043, 2.938e-4
-1.044, 3.023e-4
-1.045, 3.021e-4
-1.046, 3.077e-4
-1.047, 3.171e-4
-1.048, 3.212e-4
-1.049, 3.266e-4
-1.050, 3.259e-4
-1.051, 3.317e-4
-1.052, 3.372e-4
-1.053, 3.427e-4
-1.054, 3.496e-4
-1.055, 3.513e-4
-1.056, 3.584e-4
-1.057, 3.637e-4
-1.058, 3.693e-4
-1.059, 3.728e-4
-1.060, 3.768e-4
-1.061, 3.834e-4
-1.062, 3.857e-4
-1.063, 3.957e-4
-1.064, 3.963e-4
-1.065, 4.028e-4
-1.066, 4.092e-4
-1.067, 4.103e-4
-1.068, 4.196e-4
-1.069, 4.210e-4
-1.070, 4.298e-4
-1.071, 4.306e-4
-1.072, 4.351e-4
-1.073, 4.389e-4
-1.074, 4.434e-4
-1.075, 4.536e-4
-1.076, 4.535e-4
-1.077, 4.577e-4
-1.078, 4.614e-4
-1.079, 4.674e-4
-1.080, 4.700e-4
-1.081, 4.720e-4
-1.082, 4.800e-4
-1.083, 4.827e-4
-1.084, 4.865e-4
-1.085, 4.888e-4
-1.086, 4.904e-4
-1.087, 4.949e-4
-1.088, 5.033e-4
-1.089, 5.050e-4
-1.090, 5.094e-4
-1.091, 5.108e-4
-1.092, 5.112e-4
-1.093, 5.157e-4
-1.094, 5.159e-4
-1.095, 5.223e-4
-1.096, 5.236e-4
-1.097, 5.256e-4
-1.098, 5.315e-4
-1.099, 5.359e-4
-1.100, 5.368e-4
-1.101, 5.280e-4
-1.102, 5.399e-4
-1.103, 5.438e-4
-1.104, 5.464e-4
-1.105, 5.509e-4
-1.106, 5.446e-4
-1.107, 5.475e-4
-1.108, 5.503e-4
-1.109, 5.513e-4
-1.110, 5.537e-4
-1.111, 5.595e-4
-1.112, 5.609e-4
-1.113, 5.595e-4
-1.114, 5.613e-4
-1.115, 5.661e-4
-1.116, 5.627e-4
-1.117, 5.654e-4
-1.118, 5.681e-4
-1.119, 5.697e-4
-1.120, 5.746e-4
-1.121, 5.744e-4
-1.122, 5.760e-4
-1.123, 5.802e-4
-1.124, 5.803e-4
-1.125, 5.781e-4
-1.126, 5.791e-4
-1.127, 5.829e-4
-1.128, 5.892e-4
-1.129, 5.844e-4
-1.130, 5.926e-4
-1.131, 5.960e-4
-1.132, 5.912e-4
-1.133, 5.932e-4
-1.134, 6.013e-4
-1.135, 6.044e-4
-1.136, 5.986e-4
-1.137, 5.959e-4
-1.138, 5.995e-4
-1.139, 6.029e-4
-1.140, 6.097e-4
-1.141, 6.100e-4
-1.142, 6.094e-4
-1.143, 6.165e-4
-1.144, 6.164e-4
-1.145, 6.229e-4
-1.146, 6.227e-4
-1.147, 6.206e-4
-1.148, 6.266e-4
-1.149, 6.250e-4
-1.150, 6.298e-4
-1.151, 6.329e-4
-1.152, 6.368e-4
-1.153, 6.372e-4
-1.154, 6.408e-4
-1.155, 6.422e-4
-1.156, 6.444e-4
-1.157, 6.485e-4
-1.158, 6.504e-4
-1.159, 6.519e-4
-1.160, 6.530e-4
-1.161, 6.553e-4
-1.162, 6.589e-4
-1.163, 6.633e-4
-1.164, 6.616e-4
-1.165, 6.728e-4
-1.166, 6.733e-4
-1.167, 6.744e-4
-1.168, 6.734e-4
-1.169, 6.759e-4
-1.170, 6.804e-4
-1.171, 6.838e-4
-1.172, 6.943e-4
-1.173, 6.951e-4
-1.174, 6.953e-4
-1.175, 6.916e-4
-1.176, 6.913e-4
-1.177, 7.015e-4
-1.178, 7.050e-4
-1.179, 7.086e-4
-1.180, 7.121e-4
-1.181, 7.137e-4
-1.182, 7.127e-4
-1.183, 7.206e-4
-1.184, 7.199e-4
-1.185, 7.255e-4
-1.186, 7.270e-4
-1.187, 7.281e-4
-1.188, 7.330e-4
-1.189, 7.353e-4
-1.190, 7.357e-4
-1.191, 7.399e-4
-1.192, 7.431e-4
-1.193, 7.399e-4
-1.194, 7.490e-4
-1.195, 7.572e-4
-1.196, 7.618e-4
-1.197, 7.614e-4
-1.198, 7.555e-4
-1.199, 7.636e-4
-1.200, 7.688e-4
-1.201, 7.686e-4
-1.202, 7.767e-4
-1.203, 7.761e-4
-1.204, 7.782e-4
-1.205, 7.788e-4
-1.206, 7.860e-4
-1.207, 7.864e-4
-1.208, 7.941e-4
-1.209, 8.025e-4
-1.210, 7.990e-4
-1.211, 7.985e-4
-1.212, 8.029e-4
-1.213, 8.122e-4
-1.214, 8.137e-4
-1.215, 8.107e-4
-1.216, 8.107e-4
-1.217, 8.220e-4
-1.218, 8.268e-4
-1.219, 8.266e-4
-1.220, 8.318e-4
-1.221, 8.293e-4
-1.222, 8.360e-4
-1.223, 8.415e-4
-1.224, 8.468e-4
-1.225, 8.478e-4
-1.226, 8.475e-4
-1.227, 8.572e-4
-1.228, 8.583e-4
-1.229, 8.650e-4
-1.230, 8.670e-4
-1.231, 8.682e-4
-1.232, 8.781e-4
-1.233, 8.791e-4
-1.234, 8.894e-4
-1.235, 8.910e-4
-1.236, 8.884e-4
-1.237, 8.964e-4
-1.238, 9.098e-4
-1.239, 9.097e-4
-1.240, 9.156e-4
-1.241, 9.176e-4
-1.242, 9.287e-4
-1.243, 9.275e-4
-1.244, 9.379e-4
-1.245, 9.425e-4
-1.246, 9.489e-4
-1.247, 9.531e-4
-1.248, 9.608e-4
-1.249, 9.757e-4
-1.250, 9.632e-4
-1.251, 9.892e-4
-1.252, 9.955e-4
-1.253, 9.983e-4
-1.254, 1.001e-3
-1.255, 1.008e-3
-1.256, 1.017e-3
-1.257, 1.032e-3
-1.258, 1.032e-3
-1.259, 1.041e-3
-1.260, 1.048e-3
-1.261, 1.064e-3
-1.262, 1.068e-3
-1.263, 1.082e-3
-1.264, 1.087e-3
-1.265, 1.101e-3
-1.266, 1.104e-3
-1.267, 1.117e-3
-1.268, 1.132e-3
-1.269, 1.144e-3
-1.270, 1.152e-3
-1.271, 1.153e-3
-1.272, 1.162e-3
-1.273, 1.183e-3
-1.274, 1.195e-3
-1.275, 1.208e-3
-1.276, 1.210e-3
-1.277, 1.226e-3
-1.278, 1.239e-3
-1.279, 1.256e-3
-1.280, 1.262e-3
-1.281, 1.276e-3
-1.282, 1.284e-3
-1.283, 1.293e-3
-1.284, 1.312e-3
-1.285, 1.333e-3
-1.286, 1.343e-3
-1.287, 1.349e-3
-1.288, 1.366e-3
-1.289, 1.383e-3
-1.290, 1.386e-3
-1.291, 1.399e-3
-1.292, 1.414e-3
-1.293, 1.439e-3
-1.294, 1.447e-3
-1.295, 1.462e-3
-1.296, 1.476e-3
-1.297, 1.492e-3
-1.298, 1.503e-3
-1.299, 1.527e-3
-1.300, 1.533e-3
-1.301, 1.547e-3
-1.302, 1.570e-3
-1.303, 1.572e-3
-1.304, 1.593e-3
-1.305, 1.617e-3
-1.306, 1.619e-3
-1.307, 1.640e-3
-1.308, 1.646e-3
-1.309, 1.682e-3
-1.310, 1.679e-3
-1.311, 1.695e-3
-1.312, 1.717e-3
-1.313, 1.720e-3
-1.314, 1.747e-3
-1.315, 1.761e-3
-1.316, 1.786e-3
-1.317, 1.777e-3
-1.318, 1.793e-3
-1.319, 1.808e-3
-1.320, 1.834e-3
-1.321, 1.839e-3
-1.322, 1.854e-3
-1.323, 1.876e-3
-1.324, 1.883e-3
-1.325, 1.899e-3
-1.326, 1.910e-3
-1.327, 1.931e-3
-1.328, 1.953e-3
-1.329, 1.968e-3
-1.330, 1.983e-3
-1.331, 1.986e-3
-1.332, 2.002e-3
-1.333, 2.021e-3
-1.334, 2.031e-3
-1.335, 2.048e-3
-1.336, 2.062e-3
-1.337, 2.101e-3
-1.338, 2.104e-3
-1.339, 2.115e-3
-1.340, 2.134e-3
-1.341, 2.146e-3
-1.342, 2.164e-3
-1.343, 2.180e-3
-1.344, 2.200e-3
-1.345, 2.232e-3
-1.346, 2.223e-3
-1.347, 2.253e-3
-1.348, 2.276e-3
-1.349, 2.296e-3
-1.350, 2.309e-3
-1.351, 2.319e-3
-1.352, 2.349e-3
-1.353, 2.368e-3
-1.354, 2.396e-3
-1.355, 2.417e-3
-1.356, 2.436e-3
-1.357, 2.455e-3
-1.358, 2.482e-3
-1.359, 2.512e-3
-1.360, 2.522e-3
-1.361, 2.551e-3
-1.362, 2.583e-3
-1.363, 2.603e-3
-1.364, 2.628e-3
-1.365, 2.676e-3
-1.366, 2.704e-3
-1.367, 2.720e-3
-1.368, 2.766e-3
-1.369, 2.779e-3
-1.370, 2.824e-3
-1.371, 2.862e-3
-1.372, 2.885e-3
-1.373, 2.899e-3
-1.374, 2.957e-3
-1.375, 2.995e-3
-1.376, 3.028e-3
-1.377, 3.059e-3
-1.378, 3.081e-3
-1.379, 3.149e-3
-1.380, 3.181e-3
-1.381, 3.227e-3
-1.382, 3.272e-3
-1.383, 3.293e-3
-1.384, 3.330e-3
-1.385, 3.416e-3
-1.386, 3.445e-3
-1.387, 3.471e-3
-1.388, 3.518e-3
-1.389, 3.559e-3
-1.390, 3.631e-3
-1.391, 3.651e-3
-1.392, 3.704e-3
-1.393, 3.750e-3
-1.394, 3.805e-3
-1.395, 3.863e-3
-1.396, 3.896e-3
-1.397, 3.938e-3
-1.398, 3.997e-3
-1.399, 4.063e-3
-1.400, 4.107e-3
-1.401, 4.171e-3
-1.402, 4.248e-3
-1.403, 4.282e-3
-1.404, 4.345e-3
-1.405, 4.377e-3
-1.406, 4.446e-3
-1.407, 4.501e-3
-1.408, 4.555e-3
-1.409, 4.630e-3
-1.410, 4.662e-3
-1.411, 4.764e-3
-1.412, 4.827e-3
-1.413, 4.859e-3
-1.414, 4.984e-3
-1.415, 5.003e-3
-1.416, 5.083e-3
-1.417, 5.205e-3
-1.418, 5.269e-3
-1.419, 5.309e-3
-1.420, 5.342e-3
-1.421, 5.381e-3
-1.422, 5.507e-3
-1.423, 5.573e-3
-1.424, 5.639e-3
-1.425, 5.689e-3
-1.426, 5.784e-3
-1.427, 5.864e-3
-1.428, 6.045e-3
-1.429, 5.975e-3
-1.430, 6.118e-3
-1.431, 6.123e-3
-1.432, 6.275e-3
-1.433, 6.314e-3
-1.434, 6.388e-3
-1.435, 6.529e-3
-1.436, 6.551e-3
-1.437, 6.686e-3
-1.438, 6.729e-3
-1.439, 6.833e-3
-1.440, 6.871e-3
-1.441, 6.938e-3
-1.442, 7.101e-3
-1.443, 7.151e-3
-1.444, 7.257e-3
-1.445, 7.308e-3
-1.446, 7.449e-3
-1.447, 7.495e-3
-1.448, 7.612e-3
-1.449, 7.693e-3
-1.450, 7.712e-3
-1.451, 7.856e-3
-1.452, 7.938e-3
-1.453, 7.977e-3
-1.454, 8.080e-3
-1.455, 8.146e-3
-1.456, 8.224e-3
-1.457, 8.308e-3
-1.458, 8.418e-3
-1.459, 8.534e-3
-1.460, 8.637e-3
-1.461, 8.706e-3
-1.462, 8.854e-3
-1.463, 8.921e-3
-1.464, 9.018e-3
-1.465, 9.108e-3
-1.466, 9.140e-3
-1.467, 9.263e-3
-1.468, 9.311e-3
-1.469, 9.434e-3
-1.470, 9.501e-3
-1.471, 9.539e-3
-1.472, 9.715e-3
-1.473, 9.858e-3
-1.474, 9.935e-3
-1.475, 9.961e-3
-1.476, 1.004e-2
-1.477, 1.011e-2
-1.478, 1.011e-2
-1.479, 1.011e-2
-1.480, 1.011e-2
-1.481, 1.011e-2
-1.482, 1.011e-2
-1.483, 1.011e-2
-1.484, 1.011e-2
-1.485, 1.011e-2
-1.486, 1.011e-2
-1.487, 1.011e-2
-1.488, 1.011e-2
-1.489, 1.011e-2
-1.490, 1.011e-2
-1.491, 1.011e-2
-1.492, 1.011e-2
-1.493, 1.011e-2
-1.494, 1.011e-2
-1.495, 1.011e-2
-1.496, 1.011e-2
-1.497, 1.011e-2
-1.498, 1.011e-2
-1.499, 1.011e-2
-1.500, 1.011e-2
-1.499, 1.011e-2
-1.498, 1.011e-2
-1.497, 1.011e-2
-1.496, 1.011e-2
-1.495, 1.011e-2
-1.494, 1.011e-2
-1.493, 1.011e-2
-1.492, 1.011e-2
-1.491, 1.011e-2
-1.490, 1.011e-2
-1.489, 1.011e-2
-1.488, 1.011e-2
-1.487, 1.011e-2
-1.486, 1.011e-2
-1.485, 1.011e-2
-1.484, 1.003e-2
-1.483, 9.846e-3
-1.482, 9.721e-3
-1.481, 9.659e-3
-1.480, 9.466e-3
-1.479, 9.455e-3
-1.478, 9.416e-3
-1.477, 9.190e-3
-1.476, 9.178e-3
-1.475, 9.015e-3
-1.474, 8.807e-3
-1.473, 8.669e-3
-1.472, 8.623e-3
-1.471, 8.469e-3
-1.470, 8.420e-3
-1.469, 8.341e-3
-1.468, 8.139e-3
-1.467, 8.023e-3
-1.466, 7.935e-3
-1.465, 7.820e-3
-1.464, 7.740e-3
-1.463, 7.638e-3
-1.462, 7.562e-3
-1.461, 7.432e-3
-1.460, 7.277e-3
-1.459, 7.280e-3
-1.458, 7.170e-3
-1.457, 7.023e-3
-1.456, 6.932e-3
-1.455, 6.846e-3
-1.454, 6.734e-3
-1.453, 6.690e-3
-1.452, 6.613e-3
-1.451, 6.448e-3
-1.450, 6.317e-3
-1.449, 6.300e-3
-1.448, 6.222e-3
-1.447, 6.123e-3
-1.446, 6.028e-3
-1.445, 5.918e-3
-1.444, 5.865e-3
-1.443, 5.766e-3
-1.442, 5.721e-3
-1.441, 5.567e-3
-1.440, 5.513e-3
-1.439, 5.471e-3
-1.438, 5.359e-3
-1.437, 5.242e-3
-1.436, 5.156e-3
-1.435, 5.104e-3
-1.434, 5.084e-3
-1.433, 4.932e-3
-1.432, 4.827e-3
-1.431, 4.814e-3
-1.430, 4.658e-3
-1.429, 4.594e-3
-1.428, 4.546e-3
-1.427, 4.477e-3
-1.426, 4.505e-3
-1.425, 4.407e-3
-1.424, 4.340e-3
-1.423, 4.280e-3
-1.422, 4.189e-3
-1.421, 4.151e-3
-1.420, 4.094e-3
-1.419, 3.984e-3
-1.418, 3.967e-3
-1.417, 3.879e-3
-1.416, 3.844e-3
-1.415, 3.773e-3
-1.414, 3.681e-3
-1.413, 3.616e-3
-1.412, 3.556e-3
-1.411, 3.501e-3
-1.410, 3.395e-3
-1.409, 3.345e-3
-1.408, 3.273e-3
-1.407, 3.178e-3
-1.406, 3.177e-3
-1.405, 3.089e-3
-1.404, 3.041e-3
-1.403, 2.957e-3
-1.402, 2.931e-3
-1.401, 2.862e-3
-1.400, 2.797e-3
-1.399, 2.767e-3
-1.398, 2.730e-3
-1.397, 2.646e-3
-1.396, 2.600e-3
-1.395, 2.544e-3
-1.394, 2.511e-3
-1.393, 2.481e-3
-1.392, 2.410e-3
-1.391, 2.364e-3
-1.390, 2.357e-3
-1.389, 2.306e-3
-1.388, 2.260e-3
-1.387, 2.178e-3
-1.386, 2.142e-3
-1.385, 2.102e-3
-1.384, 2.064e-3
-1.383, 2.025e-3
-1.382, 1.999e-3
-1.381, 1.957e-3
-1.380, 1.906e-3
-1.379, 1.875e-3
-1.378, 1.846e-3
-1.377, 1.793e-3
-1.376, 1.772e-3
-1.375, 1.718e-3
-1.374, 1.683e-3
-1.373, 1.651e-3
-1.372, 1.612e-3
-1.371, 1.590e-3
-1.370, 1.546e-3
-1.369, 1.511e-3
-1.368, 1.478e-3
-1.367, 1.451e-3
-1.366, 1.413e-3
-1.365, 1.382e-3
-1.364, 1.359e-3
-1.363, 1.331e-3
-1.362, 1.295e-3
-1.361, 1.269e-3
-1.360, 1.235e-3
-1.359, 1.208e-3
-1.358, 1.190e-3
-1.357, 1.163e-3
-1.356, 1.130e-3
-1.355, 1.103e-3
-1.354, 1.082e-3
-1.353, 1.048e-3
-1.352, 1.028e-3
-1.351, 1.006e-3
-1.350, 9.861e-4
-1.349, 9.608e-4
-1.348, 9.360e-4
-1.347, 9.159e-4
-1.346, 8.882e-4
-1.345, 8.717e-4
-1.344, 8.470e-4
-1.343, 8.299e-4
-1.342, 8.094e-4
-1.341, 7.893e-4
-1.340, 7.709e-4
-1.339, 7.505e-4
-1.338, 7.314e-4
-1.337, 7.113e-4
-1.336, 6.919e-4
-1.335, 6.803e-4
-1.334, 6.589e-4
-1.333, 6.493e-4
-1.332, 6.316e-4
-1.331, 6.124e-4
-1.330, 5.957e-4
-1.329, 5.763e-4
-1.328, 5.626e-4
-1.327, 5.498e-4
-1.326, 5.383e-4
-1.325, 5.190e-4
-1.324, 5.053e-4
-1.323, 4.914e-4
-1.322, 4.755e-4
-1.321, 4.685e-4
-1.320, 4.539e-4
-1.319, 4.457e-4
-1.318, 4.277e-4
-1.317, 4.138e-4
-1.316, 4.021e-4
-1.315, 3.907e-4
-1.314, 3.805e-4
-1.313, 3.685e-4
-1.312, 3.581e-4
-1.311, 3.480e-4
-1.310, 3.361e-4
-1.309, 3.258e-4
-1.308, 3.169e-4
-1.307, 3.058e-4
-1.306, 3.001e-4
-1.305, 2.888e-4
-1.304, 2.781e-4
-1.303, 2.691e-4
-1.302, 2.595e-4
-1.301, 2.517e-4
-1.300, 2.412e-4
-1.299, 2.373e-4
-1.298, 2.262e-4
-1.297, 2.190e-4
-1.296, 2.109e-4
-1.295, 2.044e-4
-1.294, 1.979e-4
-1.293, 1.892e-4
-1.292, 1.844e-4
-1.291, 1.780e-4
-1.290, 1.698e-4
-1.289, 1.637e-4
-1.288, 1.568e-4
-1.287, 1.518e-4
-1.286, 1.440e-4
-1.285, 1.391e-4
-1.284, 1.319e-4
-1.283, 1.231e-4
-1.282, 1.187e-4
-1.281, 1.130e-4
-1.280, 1.091e-4
-1.279, 1.026e-4
-1.278, 9.703e-5
-1.277, 9.301e-5
-1.276, 8.602e-5
-1.275, 8.262e-5
-1.274, 7.730e-5
-1.273, 6.904e-5
-1.272, 6.648e-5
-1.271, 6.227e-5
-1.270, 5.780e-5
-1.269, 5.368e-5
-1.268, 4.665e-5
-1.267, 4.304e-5
-1.266, 4.056e-5
-1.265, 3.649e-5
-1.264, 3.236e-5
-1.263, 2.625e-5
-1.262, 2.282e-5
-1.261, 2.079e-5
-1.260, 1.774e-5
-1.259, 1.342e-5
-1.258, 8.655e-6
-1.257, 4.654e-6
-1.256, 3.166e-6
-1.255, 5.217e-7
-1.254, -4.553e-6
-1.253, -7.832e-6
-1.252, -1.160e-5
-1.251, -1.320e-5
-1.250, -1.492e-5
-1.249, -1.890e-5
-1.248, -2.299e-5
-1.247, -2.621e-5
-1.246, -2.840e-5
-1.245, -2.965e-5
-1.244, -3.235e-5
-1.243, -3.560e-5
-1.242, -3.902e-5
-1.241, -4.131e-5
-1.240, -4.177e-5
-1.239, -4.541e-5
-1.238, -5.004e-5
-1.237, -5.102e-5
-1.236, -5.250e-5
-1.235, -5.398e-5
-1.234, -5.704e-5
-1.233, -6.042e-5
-1.232, -6.277e-5
-1.231, -6.422e-5
-1.230, -6.541e-5
-1.229, -6.956e-5
-1.228, -7.151e-5
-1.227, -7.393e-5
-1.226, -7.528e-5
-1.225, -7.595e-5
-1.224, -7.671e-5
-1.223, -7.948e-5
-1.222, -8.291e-5
-1.221, -8.408e-5
-1.220, -8.651e-5
-1.219, -8.823e-5
-1.218, -8.961e-5
-1.217, -9.190e-5
-1.216, -9.295e-5
-1.215, -9.400e-5
-1.214, -9.543e-5
-1.213, -9.780e-5
-1.212, -9.982e-5
-1.211, -1.010e-4
-1.210, -1.026e-4
-1.209, -1.049e-4
-1.208, -1.069e-4
-1.207, -1.081e-4
-1.206, -1.096e-4
-1.205, -1.108e-4
-1.204, -1.118e-4
-1.203, -1.138e-4
-1.202, -1.162e-4
-1.201, -1.185e-4
-1.200, -1.186e-4
-1.199, -1.191e-4
-1.198, -1.213e-4
-1.197, -1.237e-4
-1.196, -1.251e-4
-1.195, -1.253e-4
-1.194, -1.274e-4
-1.193, -1.302e-4
-1.192, -1.312e-4
-1.191, -1.323e-4
-1.190, -1.336e-4
-1.189, -1.346e-4
-1.188, -1.372e-4
-1.187, -1.378e-4
-1.186, -1.385e-4
-1.185, -1.397e-4
-1.184, -1.414e-4
-1.183, -1.439e-4
-1.182, -1.462e-4
-1.181, -1.473e-4
-1.180, -1.480e-4
-1.179, -1.486e-4
-1.178, -1.527e-4
-1.177, -1.544e-4
-1.176, -1.552e-4
-1.175, -1.555e-4
-1.174, -1.571e-4
-1.173, -1.572e-4
-1.172, -1.605e-4
-1.171, -1.618e-4
-1.170, -1.634e-4
-1.169, -1.636e-4
-1.168, -1.642e-4
-1.167, -1.686e-4
-1.166, -1.675e-4
-1.165, -1.688e-4
-1.164, -1.713e-4
-1.163, -1.732e-4
-1.162, -1.760e-4
-1.161, -1.765e-4
-1.160, -1.767e-4
-1.159, -1.770e-4
-1.158, -1.799e-4
-1.157, -1.824e-4
-1.156, -1.851e-4
-1.155, -1.856e-4
-1.154, -1.855e-4
-1.153, -1.874e-4
-1.152, -1.905e-4
-1.151, -1.901e-4
-1.150, -1.926e-4
-1.149, -1.918e-4
-1.148, -1.968e-4
-1.147, -1.986e-4
-1.146, -1.975e-4
-1.145, -2.018e-4
-1.144, -2.012e-4
-1.143, -2.023e-4
-1.142, -2.058e-4
-1.141, -2.071e-4
-1.140, -2.062e-4
-1.139, -2.098e-4
-1.138, -2.128e-4
-1.137, -2.128e-4
-1.136, -2.154e-4
-1.135, -2.178e-4
-1.134, -2.164e-4
-1.133, -2.224e-4
-1.132, -2.199e-4
-1.131, -2.248e-4
-1.130, -2.259e-4
-1.129, -2.262e-4
-1.128, -2.297e-4
-1.127, -2.344e-4
-1.126, -2.366e-4
-1.125, -2.345e-4
-1.124, -2.366e-4
-1.123, -2.411e-4
-1.122, -2.434e-4
-1.121, -2.472e-4
-1.120, -2.445e-4
-1.119, -2.494e-4
-1.118, -2.522e-4
-1.117, -2.528e-4
-1.116, -2.555e-4
-1.115, -2.589e-4
-1.114, -2.591e-4
-1.113, -2.650e-4
-1.112, -2.651e-4
-1.111, -2.678e-4
-1.110, -2.701e-4
-1.109, -2.715e-4
-1.108, -2.784e-4
-1.107, -2.801e-4
-1.106, -2.806e-4
-1.105, -2.853e-4
-1.104, -2.885e-4
-1.103, -2.875e-4
-1.102, -2.956e-4
-1.101, -2.954e-4
-1.100, -2.999e-4
-1.099, -3.005e-4
-1.098, -3.023e-4
-1.097, -3.099e-4
-1.096, -3.116e-4
-1.095, -3.152e-4
-1.094, -3.160e-4
-1.093, -3.214e-4
-1.092, -3.241e-4
-1.091, -3.266e-4
-1.090, -3.316e-4
-1.089, -3.355e-4
-1.088, -3.377e-4
-1.087, -3.407e-4
-1.086, -3.448e-4
-1.085, -3.510e-4
-1.084, -3.531e-4
-1.083, -3.580e-4
-1.082, -3.599e-4
-1.081, -3.632e-4
-1.080, -3.719e-4
-1.079, -3.715e-4
-1.078, -3.780e-4
-1.077, -3.798e-4
-1.076, -3.891e-4
-1.075, -3.956e-4
-1.074, -3.941e-4
-1.073, -3.979e-4
-1.072, -4.055e-4
-1.071, -4.091e-4
-1.070, -4.161e-4
-1.069, -4.167e-4
-1.068, -4.192e-4
-1.067, -4.271e-4
-1.066, -4.331e-4
-1.065, -4.357e-4
-1.064, -4.455e-4
-1.063, -4.450e-4
-1.062, -4.566e-4
-1.061, -4.586e-4
-1.060, -4.668e-4
-1.059, -4.697e-4
-1.058, -4.790e-4
-1.057, -4.852e-4
-1.056, -4.864e-4
-1.055, -4.894e-4
-1.054, -4.952e-4
-1.053, -5.010e-4
-1.052, -5.081e-4
-1.051, -5.149e-4
-1.050, -5.206e-4
-1.049, -5.286e-4
-1.048, -5.339e-4
-1.047, -5.451e-4
-1.046, -5.451e-4
-1.045, -5.520e-4
-1.044, -5.577e-4
-1.043, -5.669e-4
-1.042, -5.760e-4
-1.041, -5.803e-4
-1.040, -5.851e-4
-1.039, -5.887e-4
-1.038, -6.006e-4
-1.037, -6.124e-4
-1.036, -6.166e-4
-1.035, -6.254e-4
-1.034, -6.366e-4
-1.033, -6.386e-4
-1.032, -6.484e-4
-1.031, -6.551e-4
-1.030, -6.677e-4
-1.029, -6.733e-4
-1.028, -6.795e-4
-1.027, -6.885e-4
-1.026, -6.937e-4
-1.025, -7.091e-4
-1.024, -7.205e-4
-1.023, -7.257e-4
-1.022, -7.440e-4
-1.021, -7.439e-4
-1.020, -7.582e-4
-1.019, -7.697e-4
-1.018, -7.804e-4
-1.017, -7.965e-4
-1.016, -8.036e-4
-1.015, -8.217e-4
-1.014, -8.188e-4
-1.013, -8.293e-4
-1.012, -8.429e-4
-1.011, -8.564e-4
-1.010, -8.719e-4
-1.009, -8.808e-4
-1.008, -8.939e-4
-1.007, -9.087e-4
-1.006, -9.210e-4
-1.005, -9.374e-4
-1.004, -9.520e-4
-1.003, -9.597e-4
-1.002, -9.738e-4
-1.001, -9.862e-4
-1.000, -8.856e-4
-1.001, -7.063e-4
-1.002, -6.006e-4
-1.003, -5.045e-4
-1.004, -4.209e-4
-1.005, -3.575e-4
-1.006, -3.005e-4
-1.007, -2.451e-4
-1.008, -1.996e-4
-1.009, -1.566e-4
-1.010, -1.155e-4
-1.011, -7.555e-5
-1.012, -4.215e-5
-1.013, -1.117e-5
-1.014, 1.751e-5
-1.015, 4.428e-5
-1.016, 6.920e-5
-1.017, 9.199e-5
-1.018, 1.117e-4
-1.019, 1.302e-4
-1.020, 1.496e-4
-1.021, 1.670e-4
-1.022, 1.821e-4
-1.023, 1.979e-4
-1.024, 2.114e-4
-1.025, 2.233e-4
-1.026, 2.354e-4
-1.027, 2.451e-4
-1.028, 2.567e-4
-1.029, 2.641e-4
-1.030, 2.734e-4
-1.031, 2.845e-4
-1.032, 2.939e-4
-1.033, 2.953e-4
-1.034, 3.039e-4
-1.035, 3.109e-4
-1.036, 3.145e-4
-1.037, 3.189e-4
-1.038, 3.206e-4
-1.039, 3.276e-4
-1.040, 3.313e-4
-1.041, 3.378e-4
-1.042, 3.409e-4
-1.043, 3.410e-4
-1.044, 3.468e-4
-1.045, 3.462e-4
-1.046, 3.520e-4
-1.047, 3.556e-4
-1.048, 3.549e-4
-1.049, 3.565e-4
-1.050, 3.584e-4
-1.051, 3.577e-4
-1.052, 3.607e-4
-1.053, 3.662e-4
-1.054, 3.618e-4
-1.055, 3.643e-4
-1.056, 3.630e-4
-1.057, 3.657e-4
-1.058, 3.685e-4
-1.059, 3.635e-4
-1.060, 3.641e-4
-1.061, 3.658e-4
-1.062, 3.649e-4
-1.063, 3.675e-4
-1.064, 3.645e-4
-1.065, 3.675e-4
-1.066, 3.678e-4
-1.067, 3.641e-4
-1.068, 3.666e-4
-1.069, 3.619e-4
-1.070, 3.627e-4
-1.071, 3.648e-4
-1.072, 3.618e-4
-1.073, 3.618e-4
-1.074, 3.591e-4
-1.075, 3.572e-4
-1.076, 3.599e-4
-1.077, 3.566e-4
-1.078, 3.561e-4
-1.079, 3.532e-4
-1.080, 3.555e-4
-1.081, 3.524e-4
-1.082, 3.473e-4
-1.083, 3.469e-4
-1.084, 3.529e-4
-1.085, 3.425e-4
-1.086, 3.425e-4
-1.087, 3.449e-4
-1.088, 3.384e-4
-1.089, 3.413e-4
-1.090, 3.394e-4
-1.091, 3.363e-4
-1.092, 3.361e-4
-1.093, 3.327e-4
-1.094, 3.334e-4
-1.095, 3.281e-4
-1.096, 3.275e-4
-1.097, 3.234e-4
-1.098, 3.226e-4
-1.099, 3.224e-4
-1.100, 3.185e-4
-1.101, 3.180e-4
-1.102, 3.181e-4
-1.103, 3.163e-4
-1.104, 3.129e-4
-1.105, 3.122e-4
-1.106, 3.108e-4
-1.107, 3.097e-4
-1.108, 3.051e-4
-1.109, 3.028e-4
-1.110, 3.031e-4
-1.111, 3.023e-4
-1.112, 3.027e-4
-1.113, 2.993e-4
-1.114, 2.938e-4
-1.115, 2.951e-4
-1.116, 2.957e-4
-1.117, 2.958e-4
-1.118, 2.949e-4
-1.119, 2.921e-4
-1.120, 2.876e-4
-1.121, 2.889e-4
-1.122, 2.895e-4
-1.123, 2.857e-4
-1.124, 2.850e-4
-1.125, 2.800e-4
-1.126, 2.837e-4
-1.127, 2.820e-4
-1.128, 2.799e-4
-1.129, 2.773e-4
-1.130, 2.821e-4
-1.131, 2.820e-4
-1.132, 2.819e-4
-1.133, 2.768e-4
-1.134, 2.737e-4
-1.135, 2.736e-4
-1.136, 2.738e-4
-1.137, 2.749e-4
-1.138, 2.758e-4
-1.139, 2.757e-4
-1.140, 2.714e-4
-1.141, 2.702e-4
-1.142, 2.713e-4
-1.143, 2.723e-4
-1.144, 2.717e-4
-1.145, 2.714e-4
-1.146, 2.716e-4
-1.147, 2.689e-4
-1.148, 2.670e-4
-1.149, 2.670e-4
-1.150, 2.682e-4
-1.151, 2.703e-4
-1.152, 2.688e-4
-1.153, 2.673e-4
-1.154, 2.683e-4
-1.155, 2.664e-4
-1.156, 2.684e-4
-1.157, 2.662e-4
-1.158, 2.668e-4
-1.159, 2.669e-4
-1.160, 2.656e-4
-1.161, 2.669e-4
-1.162, 2.678e-4
-1.163, 2.658e-4
-1.164, 2.660e-4
-1.165, 2.676e-4
-1.166, 2.675e-4
-1.167, 2.695e-4
-1.168, 2.671e-4
-1.169, 2.677e-4
-1.170, 2.668e-4
-1.171, 2.668e-4
-1.172, 2.704e-4
-1.173, 2.693e-4
-1.174, 2.690e-4
-1.175, 2.683e-4
-1.176, 2.702e-4
-1.177, 2.728e-4
-1.178, 2.713e-4
-1.179, 2.694e-4
-1.180, 2.694e-4
-1.181, 2.730e-4
-1.182, 2.734e-4
-1.183, 2.719e-4
-1.184, 2.745e-4
-1.185, 2.741e-4
-1.186, 2.757e-4
-1.187, 2.781e-4
-1.188, 2.763e-4
-1.189, 2.753e-4
-1.190, 2.779e-4
-1.191, 2.798e-4
-1.192, 2.825e-4
-1.193, 2.800e-4
-1.194, 2.847e-4
-1.195, 2.844e-4
-1.196, 2.866e-4
-1.197, 2.884e-4
-1.198, 2.868e-4
-1.199, 2.871e-4
-1.200, 2.908e-4
-1.201, 2.941e-4
-1.202, 2.957e-4
-1.203, 2.954e-4
-1.204, 2.957e-4
-1.205, 2.996e-4
-1.206, 3.003e-4
-1.207, 3.036e-4
-1.208, 3.066e-4
-1.209, 3.031e-4
-1.210, 3.068e-4
-1.211, 3.137e-4
-1.212, 3.124e-4
-1.213, 3.147e-4
-1.214, 3.145e-4
-1.215, 3.204e-4
-1.216, 3.224e-4
-1.217, 3.242e-4
-1.218, 3.266e-4
-1.219, 3.275e-4
-1.220, 3.306e-4
-1.221, 3.369e-4
-1.222, 3.404e-4
-1.223, 3.363e-4
-1.224, 3.394e-4
-1.225, 3.441e-4
-1.226, 3.518e-4
-1.227, 3.529e-4
-1.228, 3.557e-4
-1.229, 3.650e-4
-1.230, 3.633e-4
-1.231, 3.654e-4
-1.232, 3.690e-4
-1.233, 3.722e-4
-1.234, 3.754e-4
-1.235, 3.815e-4
-1.236, 3.802e-4
-1.237, 3.856e-4
-1.238, 3.938e-4
-1.239, 3.984e-4
-1.240, 4.015e-4
-1.241, 4.005e-4
-1.242, 4.066e-4
-1.243, 4.107e-4
-1.244, 4.162e-4
-1.245, 4.197e-4
-1.246, 4.230e-4
-1.247, 4.309e-4
-1.248, 4.340e-4
-1.249, 4.384e-4
-1.250, 4.425e-4
-1.251, 4.480e-4
-1.252, 4.500e-4
-1.253, 4.580e-4
-1.254, 4.618e-4
-1.255, 4.685e-4
-1.256, 4.718e-4
-1.257, 4.784e-4
-1.258, 4.825e-4
-1.259, 4.881e-4
-1.260, 4.955e-4
-1.261, 4.981e-4
-1.262, 5.069e-4
-1.263, 5.123e-4
-1.264, 5.157e-4
-1.265, 5.242e-4
-1.266, 5.302e-4
-1.267, 5.364e-4
-1.268, 5.366e-4
-1.269, 5.500e-4
-1.270, 5.535e-4
-1.271, 5.621e-4
-1.272, 5.646e-4
-1.273, 5.710e-4
-1.274, 5.831e-4
-1.275, 5.859e-4
-1.276, 5.952e-4
-1.277, 6.001e-4
-1.278, 6.125e-4
-1.279, 6.143e-4
-1.280, 6.236e-4
-1.281, 6.339e-4
-1.282, 6.356e-4
-1.283, 6.491e-4
-1.284, 6.533e-4
-1.285, 6.635e-4
-1.286, 6.648e-4
-1.287, 6.728e-4
-1.288, 6.819e-4
-1.289, 6.922e-4
-1.290, 6.981e-4
-1.291, 7.033e-4
-1.292, 7.179e-4
-1.293, 7.261e-4
-1.294, 7.350e-4
-1.295, 7.432e-4
-1.296, 7.514e-4
-1.297, 7.575e-4
-1.298, 7.653e-4
-1.299, 7.718e-4
-1.300, 7.830e-4
-1.301, 7.966e-4
-1.302, 8.067e-4
-1.303, 8.129e-4
-1.304, 8.194e-4
-1.305, 8.309e-4
-1.306, 8.395e-4
-1.307, 8.519e-4
-1.308, 8.634e-4
-1.309, 8.682e-4
-1.310, 8.838e-4
-1.311, 8.924e-4
-1.312, 8.985e-4
-1.313, 9.134e-4
-1.314, 9.188e-4
-1.315, 9.312e-4
-1.316, 9.468e-4
-1.317, 9.560e-4
-1.318, 9.660e-4
-1.319, 9.783e-4
-1.320, 9.917e-4
-1.321, 1.001e-3
-1.322, 1.014e-3
-1.323, 1.023e-3
-1.324, 1.042e-3
-1.325, 1.056e-3
-1.326, 1.069e-3
-1.327, 1.086e-3
-1.328, 1.099e-3
-1.329, 1.111e-3
-1.330, 1.128e-3
-1.331, 1.150e-3
-1.332, 1.161e-3
-1.333, 1.169e-3
-1.334, 1.186e-3
-1.335, 1.211e-3
-1.336, 1.230e-3
-1.337, 1.244e-3
-1.338, 1.256e-3
-1.339, 1.274e-3
-1.340, 1.294e-3
-1.341, 1.314e-3
-1.342, 1.325e-3
-1.343, 1.352e-3
-1.344, 1.371e-3
-1.345, 1.403e-3
-1.346, 1.414e-3
-1.347, 1.423e-3
-1.348, 1.449e-3
-1.349, 1.477e-3
-1.350, 1.499e-3
-1.351, 1.523e-3
-1.352, 1.557e-3
-1.353, 1.578e-3
-1.354, 1.594e-3
-1.355, 1.632e-3
-1.356, 1.635e-3
-1.357, 1.679e-3
-1.358, 1.698e-3
-1.359, 1.722e-3
-1.360, 1.750e-3
-1.361, 1.772e-3
-1.362, 1.816e-3
-1.363, 1.862e-3
-1.364, 1.880e-3
-1.365, 1.903e-3
-1.366, 1.954e-3
-1.367, 1.932e-3
-1.368, 1.988e-3
-1.369, 2.041e-3
-1.370, 2.074e-3
-1.371, 2.091e-3
-1.372, 2.136e-3
-1.373, 2.177e-3
-1.374, 2.209e-3
-1.375, 2.252e-3
-1.376, 2.268e-3
-1.377, 2.311e-3
-1.378, 2.349e-3
-1.379, 2.381e-3
-1.380, 2.431e-3
-1.381, 2.477e-3
-1.382, 2.509e-3
-1.383, 2.565e-3
-1.384, 2.598e-3
-1.385, 2.642e-3
-1.386, 2.678e-3
-1.387, 2.731e-3
-1.388, 2.777e-3
-1.389, 2.827e-3
-1.390, 2.857e-3
-1.391, 2.902e-3
-1.392, 2.961e-3
-1.393, 3.024e-3
-1.394, 3.074e-3
-1.395, 3.102e-3
-1.396, 3.160e-3
-1.397, 3.222e-3
-1.398, 3.264e-3
-1.399, 3.312e-3
-1.400, 3.349e-3
-1.401, 3.437e-3
-1.402, 3.452e-3
-1.403, 3.548e-3
-1.404, 3.558e-3
-1.405, 3.635e-3
-1.406, 3.687e-3
-1.407, 3.768e-3
-1.408, 3.822e-3
-1.409, 3.893e-3
-1.410, 3.918e-3
-1.411, 3.999e-3
-1.412, 4.077e-3
-1.413, 4.085e-3
-1.414, 4.181e-3
-1.415, 4.234e-3
-1.416, 4.304e-3
-1.417, 4.360e-3
-1.418, 4.423e-3
-1.419, 4.504e-3
-1.420, 4.572e-3
-1.421, 4.630e-3
-1.422, 4.684e-3
-1.423, 4.800e-3
-1.424, 4.829e-3
-1.425, 4.930e-3
-1.426, 4.939e-3
-1.427, 5.033e-3
-1.428, 5.113e-3
-1.429, 5.181e-3
-1.430, 5.301e-3
-1.431, 5.324e-3
-1.432, 5.398e-3
-1.433, 5.473e-3
-1.434, 5.521e-3
-1.435, 5.606e-3
-1.436, 5.685e-3
-1.437, 5.767e-3
-1.438, 5.916e-3
-1.439, 5.930e-3
-1.440, 6.065e-3
-1.441, 6.237e-3
-1.442, 6.278e-3
-1.443, 6.377e-3
-1.444, 6.413e-3
-1.445, 6.465e-3
-1.446, 6.594e-3
-1.447, 6.685e-3
-1.448, 6.756e-3
-1.449, 6.850e-3
-1.450, 6.960e-3
-1.451, 7.150e-3
-1.452, 7.183e-3
-1.453, 7.245e-3
-1.454, 7.322e-3
-1.455, 7.409e-3
-1.456, 7.504e-3
-1.457, 7.604e-3
-1.458, 7.678e-3
-1.459, 7.712e-3
-1.460, 7.858e-3
-1.461, 7.928e-3
-1.462, 8.037e-3
-1.463, 8.107e-3
-1.464, 8.187e-3
-1.465, 8.276e-3
-1.466, 8.373e-3
-1.467, 8.499e-3
-1.468, 8.568e-3
-1.469, 8.672e-3
-1.470, 8.727e-3
-1.471, 8.929e-3
-1.472, 8.970e-3
-1.473, 9.047e-3
-1.474, 9.108e-3
-1.475, 9.260e-3
-1.476, 9.305e-3
-1.477, 9.417e-3
-1.478, 9.432e-3
-1.479, 9.561e-3
-1.480, 9.745e-3
-1.481, 9.769e-3
-1.482, 9.863e-3
-1.483, 9.967e-3
-1.484, 1.001e-2
-1.485, 1.010e-2
-1.486, 1.011e-2
-1.487, 1.011e-2
-1.488, 1.011e-2
-1.489, 1.011e-2
-1.490, 1.011e-2
-1.491, 1.011e-2
-1.492, 1.011e-2
-1.493, 1.011e-2
-1.494, 1.011e-2
-1.495, 1.011e-2
-1.496, 1.011e-2
-1.497, 1.011e-2
-1.498, 1.011e-2
-1.499, 1.011e-2
-1.500, 1.011e-2
-1.499, 1.011e-2
-1.498, 1.011e-2
-1.497, 1.011e-2
-1.496, 1.011e-2
-1.495, 1.011e-2
-1.494, 1.011e-2
-1.493, 1.011e-2
-1.492, 1.011e-2
-1.491, 1.011e-2
-1.490, 1.011e-2
-1.489, 1.008e-2
-1.488, 9.956e-3
-1.487, 9.804e-3
-1.486, 9.727e-3
-1.485, 9.602e-3
-1.484, 9.438e-3
-1.483, 9.361e-3
-1.482, 9.114e-3
-1.481, 9.068e-3
-1.480, 8.981e-3
-1.479, 8.863e-3
-1.478, 8.780e-3
-1.477, 8.730e-3
-1.476, 8.589e-3
-1.475, 8.430e-3
-1.474, 8.379e-3
-1.473, 8.273e-3
-1.472, 8.205e-3
-1.471, 8.112e-3
-1.470, 7.976e-3
-1.469, 7.969e-3
-1.468, 7.764e-3
-1.467, 7.642e-3
-1.466, 7.582e-3
-1.465, 7.411e-3
-1.464, 7.336e-3
-1.463, 7.238e-3
-1.462, 7.144e-3
-1.461, 7.009e-3
-1.460, 6.955e-3
-1.459, 6.852e-3
-1.458, 6.735e-3
-1.457, 6.617e-3
-1.456, 6.510e-3
-1.455, 6.438e-3
-1.454, 6.341e-3
-1.453, 6.261e-3
-1.452, 6.170e-3
-1.451, 6.041e-3
-1.450, 5.960e-3
-1.449, 5.888e-3
-1.448, 5.811e-3
-1.447, 5.708e-3
-1.446, 5.644e-3
-1.445, 5.551e-3
-1.444, 5.464e-3
-1.443, 5.391e-3
-1.442, 5.285e-3
-1.441, 5.239e-3
-1.440, 5.183e-3
-1.439, 5.154e-3
-1.438, 5.066e-3
-1.437, 4.975e-3
-1.436, 4.919e-3
-1.435, 4.821e-3
-1.434, 4.767e-3
-1.433, 4.700e-3
-1.432, 4.618e-3
-1.431, 4.546e-3
-1.430, 4.446e-3
-1.429, 4.409e-3
-1.428, 4.326e-3
-1.427, 4.229e-3
-1.426, 4.176e-3
-1.425, 4.093e-3
-1.424, 4.029e-3
-1.423, 3.988e-3
-1.422, 3.868e-3
-1.421, 3.839e-3
-1.420, 3.766e-3
-1.419, 3.710e-3
-1.418, 3.637e-3
-1.417, 3.546e-3
-1.416, 3.502e-3
-1.415, 3.437e-3
-1.414, 3.393e-3
-1.413, 3.333e-3
-1.412, 3.269e-3
-1.411, 3.194e-3
-1.410, 3.119e-3
-1.409, 3.063e-3
-1.408, 3.027e-3
-1.407, 2.982e-3
-1.406, 2.899e-3
-1.405, 2.848e-3
-1.404, 2.809e-3
-1.403, 2.742e-3
-1.402, 2.715e-3
-1.401, 2.630e-3
-1.400, 2.614e-3
-1.399, 2.541e-3
-1.398, 2.492e-3
-1.397, 2.454e-3
-1.396, 2.373e-3
-1.395, 2.346e-3
-1.394, 2.297e-3
-1.393, 2.249e-3
-1.392, 2.197e-3
-1.391, 2.148e-3
-1.390, 2.120e-3
-1.389, 2.072e-3
-1.388, 2.019e-3
-1.387, 1.982e-3
-1.386, 1.950e-3
-1.385, 1.895e-3
-1.384, 1.858e-3
-1.383, 1.812e-3
-1.382, 1.778e-3
-1.381, 1.757e-3
-1.380, 1.713e-3
-1.379, 1.675e-3
-1.378, 1.629e-3
-1.377, 1.594e-3
-1.376, 1.571e-3
-1.375, 1.527e-3
-1.374, 1.493e-3
-1.373, 1.461e-3
-1.372, 1.428e-3
-1.371, 1.405e-3
-1.370, 1.381e-3
-1.369, 1.343e-3
-1.368, 1.320e-3
-1.367, 1.286e-3
-1.366, 1.253e-3
-1.365, 1.221e-3
-1.364, 1.195e-3
-1.363, 1.163e-3
-1.362, 1.138e-3
-1.361, 1.108e-3
-1.360, 1.082e-3
-1.359, 1.065e-3
-1.358, 1.039e-3
-1.357, 1.008e-3
-1.356, 9.876e-4
-1.355, 9.551e-4
-1.354, 9.342e-4
-1.353, 9.152e-4
-1.352, 8.876e-4
-1.351, 8.662e-4
-1.350, 8.455e-4
-1.349, 8.270e-4
-1.348, 8.071e-4
-1.347, 7.869e-4
-1.346, 7.673e-4
-1.345, 7.382e-4
-1.344, 7.268e-4
-1.343, 7.178e-4
-1.342, 6.929e-4
-1.341, 6.741e-4
-1.340, 6.571e-4
-1.339, 6.351e-4
-1.338, 6.292e-4
-1.337, 6.029e-4
-1.336, 5.864e-4
-1.335, 5.723e-4
-1.334, 5.563e-4
-1.333, 5.455e-4
-1.332, 5.267e-4
-1.331, 5.140e-4
-1.330, 5.002e-4
-1.329, 4.859e-4
-1.328, 4.704e-4
-1.327, 4.596e-4
-1.326, 4.434e-4
-1.325, 4.309e-4
-1.324, 4.225e-4
-1.323, 4.120e-4
-1.322, 3.982e-4
-1.321, 3.816e-4
-1.320, 3.725e-4
-1.319, 3.614e-4
-1.318, 3.474e-4
-1.317, 3.439e-4
-1.316, 3.302e-4
-1.315, 3.175e-4
-1.314, 3.116e-4
-1.313, 2.977e-4
-1.312, 2.907e-4
-1.311, 2.816e-4
-1.310, 2.699e-4
-1.309, 2.622e-4
-1.308, 2.550e-4
-1.307, 2.435e-4
-1.306, 2.369e-4
-1.305, 2.301e-4
-1.304, 2.207e-4
-1.303, 2.149e-4
-1.302, 2.062e-4
-1.301, 1.984e-4
-1.300, 1.919e-4
-1.299, 1.829e-4
-1.298, 1.793e-4
-1.297, 1.686e-4
-1.296, 1.647e-4
-1.295, 1.554e-4
-1.294, 1.488e-4
-1.293, 1.443e-4
-1.292, 1.385e-4
-1.291, 1.313e-4
-1.290, 1.246e-4
-1.289, 1.194e-4
-1.288, 1.162e-4
-1.287, 1.115e-4
-1.286, 1.054e-4
-1.285, 9.782e-5
-1.284, 9.253e-5
-1.283, 8.892e-5
-1.282, 8.481e-5
-1.281, 7.881e-5
-1.280, 7.288e-5
-1.279, 6.822e-5
-1.278, 6.375e-5
-1.277, 6.073e-5
-1.276, 5.674e-5
-1.275, 5.119e-5
-1.274, 4.679e-5
-1.273, 4.295e-5
-1.272, 4.071e-5
-1.271, 3.655e-5
-1.270, 3.232e-5
-1.269, 2.903e-5
-1.268, 2.589e-5
-1.267, 2.311e-5
-1.266, 1.895e-5
-1.265, 1.371e-5
-1.264, 1.036e-5
-1.263, 6.844e-6
-1.262, 4.075e-6
-1.261, 1.344e-6
-1.260, -2.499e-6
-1.259, -4.842e-6
-1.258, -6.802e-6
-1.257, -8.929e-6
-1.256, -1.161e-5
-1.255, -1.560e-5
-1.254, -1.873e-5
-1.253, -2.098e-5
-1.252, -2.275e-5
-1.251, -2.520e-5
-1.250, -2.833e-5
-1.249, -3.119e-5
-1.248, -3.276e-5
-1.247, -3.389e-5
-1.246, -3.627e-5
-1.245, -3.877e-5
-1.244, -4.153e-5
-1.243, -4.345e-5
-1.242, -4.476e-5
-1.241, -4.839e-5
-1.240, -5.051e-5
-1.239, -5.362e-5
-1.238, -5.497e-5
-1.237, -5.518e-5
-1.236, -5.805e-5
-1.235, -6.107e-5
-1.234, -6.225e-5
-1.233, -6.421e-5
-1.232, -6.408e-5
-1.231, -6.621e-5
-1.230, -6.857e-5
-1.229, -7.213e-5
-1.228, -7.333e-5
-1.227, -7.456e-5
-1.226, -7.555e-5
-1.225, -7.829e-5
-1.224, -7.882e-5
-1.223, -7.919e-5
-1.222, -7.994e-5
-1.221, -8.182e-5
-1.220, -8.547e-5
-1.219, -8.760e-5
-1.218, -8.751e-5
-1.217, -8.944e-5
-1.216, -9.012e-5
-1.215, -9.184e-5
-1.214, -9.378e-5
-1.213, -9.378e-5
-1.212, -9.490e-5
-1.211, -9.674e-5
-1.210, -9.796e-5
-1.209, -1.000e-4
-1.208, -1.015e-4
-1.207, -1.011e-4
-1.206, -1.030e-4
-1.205, -1.035e-4
-1.204, -1.057e-4
-1.203, -1.065e-4
-1.202, -1.076e-4
-1.201, -1.098e-4
-1.200, -1.107e-4
-1.199, -1.122e-4
-1.198, -1.135e-4
-1.197, -1.140e-4
-1.196, -1.152e-4
-1.195, -1.161e-4
-1.194, -1.212e-4
-1.193, -1.203e-4
-1.192, -1.206e-4
-1.191, -1.228e-4
-1.190, -1.237e-4
-1.189, -1.256e-4
-1.188, -1.253e-4
-1.187, -1.275e-4
-1.186, -1.262e-4
-1.185, -1.282e-4
-1.184, -1.291e-4
-1.183, -1.281e-4
-1.182, -1.310e-4
-1.181, -1.318e-4
-1.180, -1.330e-4
-1.179, -1.344e-4
-1.178, -1.354e-4
-1.177, -1.352e-4
-1.176, -1.386e-4
-1.175, -1.367e-4
-1.174, -1.406e-4
-1.173, -1.411e-4
-1.172, -1.414e-4
-1.171, -1.427e-4
-1.170, -1.450e-4
-1.169, -1.450e-4
-1.168, -1.470e-4
-1.167, -1.464e-4
-1.166, -1.493e-4
-1.165, -1.491e-4
-1.164, -1.516e-4
-1.163, -1.527e-4
-1.162, -1.539e-4
-1.161, -1.554e-4
-1.160, -1.556e-4
-1.159, -1.591e-4
-1.158, -1.590e-4
-1.157, -1.588e-4
-1.156, -1.608e-4
-1.155, -1.633e-4
-1.154, -1.657e-4
-1.153, -1.639e-4
-1.152, -1.651e-4
-1.151, -1.669e-4
-1.150, -1.692e-4
-1.149, -1.706e-4
-1.148, -1.708e-4
-1.147, -1.727e-4
-1.146, -1.743e-4
-1.145, -1.769e-4
-1.144, -1.766e-4
-1.143, -1.775e-4
-1.142, -1.781e-4
-1.141, -1.788e-4
-1.140, -1.839e-4
-1.139, -1.837e-4
-1.138, -1.853e-4
-1.137, -1.825e-4
-1.136, -1.861e-4
-1.135, -1.888e-4
-1.134, -1.943e-4
-1.133, -1.936e-4
-1.132, -1.925e-4
-1.131, -1.939e-4
-1.130, -1.979e-4
-1.129, -2.000e-4
-1.128, -2.001e-4
-1.127, -1.997e-4
-1.126, -2.039e-4
-1.125, -2.044e-4
-1.124, -2.073e-4
-1.123, -2.080e-4
-1.122, -2.100e-4
-1.121, -2.123e-4
-1.120, -2.132e-4
-1.119, -2.173e-4
-1.118, -2.186e-4
-1.117, -2.178e-4
-1.116, -2.207e-4
-1.115, -2.246e-4
-1.114, -2.263e-4
-1.113, -2.305e-4
-1.112, -2.301e-4
-1.111, -2.297e-4
-1.110, -2.348e-4
-1.109, -2.367e-4
-1.108, -2.382e-4
-1.107, -2.409e-4
-1.106, -2.445e-4
-1.105, -2.475e-4
-1.104, -2.520e-4
-1.103, -2.504e-4
-1.102, -2.539e-4
-1.101, -2.540e-4
-1.100, -2.576e-4
-1.099, -2.628e-4
-1.098, -2.658e-4
-1.097, -2.697e-4
-1.096, -2.685e-4
-1.095, -2.764e-4
-1.094, -2.785e-4
-1.093, -2.787e-4
-1.092, -2.797e-4
-1.091, -2.832e-4
-1.090, -2.881e-4
-1.089, -2.938e-4
-1.088, -2.933e-4
-1.087, -2.955e-4
-1.086, -3.006e-4
-1.085, -3.034e-4
-1.084, -3.108e-4
-1.083, -3.122e-4
-1.082, -3.141e-4
-1.081, -3.172e-4
-1.080, -3.202e-4
-1.079, -3.286e-4
-1.078, -3.313e-4
-1.077, -3.294e-4
-1.076, -3.414e-4
-1.075, -3.428e-4
-1.074, -3.505e-4
-1.073, -3.517e-4
-1.072, -3.527e-4
-1.071, -3.558e-4
-1.070, -3.593e-4
-1.069, -3.669e-4
-1.068, -3.683e-4
-1.067, -3.747e-4
-1.066, -3.800e-4
-1.065, -3.867e-4
-1.064, -3.909e-4
-1.063, -3.955e-4
-1.062, -3.985e-4
-1.061, -4.029e-4
-1.060, -4.096e-4
-1.059, -4.164e-4
-1.058, -4.194e-4
-1.057, -4.242e-4
-1.056, -4.288e-4
-1.055, -4.379e-4
-1.054, -4.388e-4
-1.053, -4.441e-4
-1.052, -4.538e-4
-1.051, -4.540e-4
-1.050, -4.655e-4
-1.049, -4.687e-4
-1.048, -4.710e-4
-1.047, -4.734e-4
-1.046, -4.806e-4
-1.045, -4.895e-4
-1.044, -4.967e-4
-1.043, -5.113e-4
-1.042, -5.180e-4
-1.041, -5.158e-4
-1.040, -5.232e-4
-1.039, -5.289e-4
-1.038, -5.361e-4
-1.037, -5.384e-4
-1.036, -5.509e-4
-1.035, -5.582e-4
-1.034, -5.574e-4
-1.033, -5.715e-4
-1.032, -5.800e-4
-1.031, -5.861e-4
-1.030, -5.997e-4
-1.029, -5.985e-4
-1.028, -6.128e-4
-1.027, -6.133e-4
-1.026, -6.223e-4
-1.025, -6.352e-4
-1.024, -6.415e-4
-1.023, -6.542e-4
-1.022, -6.592e-4
-1.021, -6.712e-4
-1.020, -6.774e-4
-1.019, -6.921e-4
-1.018, -7.029e-4
-1.017, -7.073e-4
-1.016, -7.203e-4
-1.015, -7.395e-4
-1.014, -7.393e-4
-1.013, -7.537e-4
-1.012, -7.569e-4
-1.011, -7.718e-4
-1.010, -7.802e-4
-1.009, -7.945e-4
-1.008, -8.026e-4
-1.007, -8.224e-4
-1.006, -8.296e-4
-1.005, -8.450e-4
-1.004, -8.687e-4
-1.003, -8.819e-4
-1.002, -8.917e-4
-1.001, -9.002e-4
-1.000, -7.965e-4
-1.001, -6.288e-4
-1.002, -5.257e-4
-1.003, -4.414e-4
-1.004, -3.711e-4
-1.005, -3.057e-4
-1.006, -2.482e-4
-1.007, -1.995e-4
-1.008, -1.527e-4
-1.009, -1.134e-4
-1.010, -7.595e-5
-1.011, -4.337e-5
-1.012, -1.281e-5
-1.013, 1.469e-5
-1.014, 4.141e-5
-1.015, 6.498e-5
-1.016, 8.641e-5
-1.017, 1.066e-4
-1.018, 1.254e-4
-1.019, 1.426e-4
-1.020, 1.602e-4
-1.021, 1.728e-4
-1.022, 1.856e-4
-1.023, 2.001e-4
-1.024, 2.128e-4
-1.025, 2.226e-4
-1.026, 2.315e-4
-1.027, 2.408e-4
-1.028, 2.494e-4
-1.029, 2.574e-4
-1.030, 2.656e-4
-1.031, 2.718e-4
-1.032, 2.779e-4
-1.033, 2.853e-4
-1.034, 2.923e-4
-1.035, 2.968e-4
-1.036, 2.993e-4
-1.037, 3.036e-4
-1.038, 3.087e-4
-1.039, 3.145e-4
-1.040, 3.152e-4
-1.041, 3.171e-4
-1.042, 3.196e-4
-1.043, 3.258e-4
-1.044, 3.312e-4
-1.045, 3.289e-4
-1.046, 3.302e-4
-1.047, 3.333e-4
-1.048, 3.334e-4
-1.049, 3.387e-4
-1.050, 3.406e-4
-1.051, 3.352e-4
-1.052, 3.379e-4
-1.053, 3.384e-4
-1.054, 3.431e-4
-1.055, 3.412e-4
-1.056, 3.430e-4
-1.057, 3.387e-4
-1.058, 3.417e-4
-1.059, 3.425e-4
-1.060, 3.428e-4
-1.061, 3.402e-4
-1.062, 3.427e-4
-1.063, 3.379e-4
-1.064, 3.401e-4
-1.065, 3.392e-4
-1.066, 3.388e-4
-1.067, 3.371e-4
-1.068, 3.396e-4
-1.069, 3.356e-4
-1.070, 3.416e-4
-1.071, 3.364e-4
-1.072, 3.311e-4
-1.073, 3.312e-4
-1.074, 3.322e-4
-1.075, 3.319e-4
-1.076, 3.302e-4
-1.077, 3.262e-4
-1.078, 3.251e-4
-1.079, 3.255e-4
-1.080, 3.253e-4
-1.081, 3.217e-4
-1.082, 3.205e-4
-1.083, 3.164e-4
-1.084, 3.169e-4
-1.085, 3.166e-4
-1.086, 3.102e-4
-1.087, 3.126e-4
-1.088, 3.088e-4
-1.089, 3.089e-4
-1.090, 3.076e-4
-1.091, 3.040e-4
-1.092, 3.037e-4
-1.093, 3.023e-4
-1.094, 3.008e-4
-1.095, 2.984e-4
-1.096, 2.946e-4
-1.097, 2.948e-4
-1.098, 2.927e-4
-1.099, 2.915e-4
-1.100, 2.903e-4
-1.101, 2.891e-4
-1.102, 2.875e-4
-1.103, 2.835e-4
-1.104, 2.832e-4
-1.105, 2.849e-4
-1.106, 2.806e-4
-1.107, 2.778e-4
-1.108, 2.752e-4
-1.109, 2.751e-4
-1.110, 2.765e-4
-1.111, 2.726e-4
-1.112, 2.728e-4
-1.113, 2.716e-4
-1.114, 2.691e-4
-1.115, 2.668e-4
-1.116, 2.668e-4
-1.117, 2.648e-4
-1.118, 2.644e-4
-1.119, 2.628e-4
-1.120, 2.627e-4
-1.121, 2.603e-4
-1.122, 2.588e-4
-1.123, 2.583e-4
-1.124, 2.587e-4
-1.125, 2.555e-4
-1.126, 2.562e-4
-1.127, 2.552e-4
-1.128, 2.531e-4
-1.129, 2.532e-4
-1.130, 2.546e-4
-1.131, 2.498e-4
-1.132, 2.515e-4
-1.133, 2.508e-4
-1.134, 2.501e-4
-1.135, 2.497e-4
-1.136, 2.469e-4
-1.137, 2.475e-4
-1.138, 2.464e-4
-1.139, 2.480e-4
-1.140, 2.467e-4
-1.141, 2.437e-4
-1.142, 2.448e-4
-1.143, 2.442e-4
-1.144, 2.445e-4
-1.145, 2.452e-4
-1.146, 2.428e-4
-1.147, 2.441e-4
-1.148, 2.422e-4
-1.149, 2.443e-4
-1.150, 2.447e-4
-1.151, 2.419e-4
-1.152, 2.418e-4
-1.153, 2.395e-4
-1.154, 2.425e-4
-1.155, 2.422e-4
-1.156, 2.406e-4
-1.157, 2.392e-4
-1.158, 2.417e-4
-1.159, 2.417e-4
-1.160, 2.402e-4
-1.161, 2.413e-4
-1.162, 2.401e-4
-1.163, 2.448e-4
-1.164, 2.373e-4
-1.165, 2.378e-4
-1.166, 2.399e-4
-1.167, 2.384e-4
-1.168, 2.412e-4
-1.169, 2.408e-4
-1.170, 2.413e-4
-1.171, 2.401e-4
-1.172, 2.403e-4
-1.173, 2.388e-4
-1.174, 2.419e-4
-1.175, 2.408e-4
-1.176, 2.386e-4
-1.177, 2.391e-4
-1.178, 2.391e-4
-1.179, 2.427e-4
-1.180, 2.406e-4
-1.181, 2.416e-4
-1.182, 2.421e-4
-1.183, 2.401e-4
-1.184, 2.450e-4
-1.185, 2.439e-4
-1.186, 2.429e-4
-1.187, 2.426e-4
-1.188, 2.443e-4
-1.189, 2.449e-4
-1.190, 2.445e-4
-1.191, 2.474e-4
-1.192, 2.452e-4
-1.193, 2.457e-4
-1.194, 2.500e-4
-1.195, 2.490e-4
-1.196, 2.488e-4
-1.197, 2.532e-4
-1.198, 2.503e-4
-1.199, 2.538e-4
-1.200, 2.556e-4
-1.201, 2.565e-4
-1.202, 2.559e-4
-1.203, 2.578e-4
-1.204, 2.579e-4
-1.205, 2.609e-4
-1.206, 2.627e-4
-1.207, 2.601e-4
-1.208, 2.617e-4
-1.209, 2.666e-4
-1.210, 2.682e-4
-1.211, 2.678e-4
-1.212, 2.708e-4
-1.213, 2.695e-4
-1.214, 2.726e-4
-1.215, 2.766e-4
-1.216, 2.753e-4
-1.217, 2.762e-4
-1.218, 2.795e-4
-1.219, 2.819e-4
-1.220, 2.847e-4
-1.221, 2.869e-4
-1.222, 2.857e-4
-1.223, 2.896e-4
-1.224, 2.929e-4
-1.225, 2.965e-4
-1.226, 2.973e-4
-1.227, 2.982e-4
-1.228, 3.013e-4
-1.229, 3.068e-4
-1.230, 3.076e-4
-1.231, 3.111e-4
-1.232, 3.111e-4
-1.233, 3.128e-4
-1.234, 3.196e-4
-1.235, 3.196e-4
-1.236, 3.229e-4
-1.237, 3.242e-4
-1.238, 3.284e-4
-1.239, 3.322e-4
-1.240, 3.364e-4
-1.241, 3.387e-4
-1.242, 3.458e-4
-1.243, 3.398e-4
-1.244, 3.484e-4
-1.245, 3.519e-4
-1.246, 3.546e-4
-1.247, 3.589e-4
-1.248, 3.601e-4
-1.249, 3.675e-4
-1.250, 3.695e-4
-1.251, 3.742e-4
-1.252, 3.763e-4
-1.253, 3.810e-4
-1.254, 3.854e-4
-1.255, 3.918e-4
-1.256, 3.920e-4
-1.257, 3.963e-4
-1.258, 4.013e-4
-1.259, 4.046e-4
-1.260, 4.125e-4
-1.261, 4.167e-4
-1.262, 4.207e-4
-1.263, 4.245e-4
-1.264, 4.283e-4
-1.265, 4.347e-4
-1.266, 4.404e-4
-1.267, 4.410e-4
-1.268, 4.486e-4
-1.269, 4.563e-4
-1.270, 4.575e-4
-1.271, 4.719e-4
-1.272, 4.692e-4
-1.273, 4.775e-4
-1.274, 4.818e-4
-1.275, 4.890e-4
-1.276, 4.879e-4
-1.277, 4.980e-4
-1.278, 5.037e-4
-1.279, 5.108e-4
-1.280, 5.197e-4
-1.281, 5.212e-4
-1.282, 5.306e-4
-1.283, 5.357e-4
-1.284, 5.408e-4
-1.285, 5.493e-4
-1.286, 5.547e-4
-1.287, 5.610e-4
-1.288, 5.653e-4
-1.289, 5.731e-4
-1.290, 5.841e-4
-1.291, 5.874e-4
-1.292, 5.963e-4
-1.293, 6.043e-4
-1.294, 6.103e-4
-1.295, 6.184e-4
-1.296, 6.223e-4
-1.297, 6.297e-4
-1.298, 6.424e-4
-1.299, 6.480e-4
-1.300, 6.575e-4
-1.301, 6.614e-4
-1.302, 6.718e-4
-1.303, 6.787e-4
-1.304, 6.911e-4
-1.305, 7.000e-4
-1.306, 7.049e-4
-1.307, 7.105e-4
-1.308, 7.223e-4
-1.309, 7.374e-4
-1.310, 7.439e-4
-1.311, 7.483e-4
-1.312, 7.664e-4
-1.313, 7.684e-4
-1.314, 7.805e-4
-1.315, 7.912e-4
-1.316, 7.990e-4
-1.317, 8.137e-4
-1.318, 8.253e-4
-1.319, 8.368e-4
-1.320, 8.417e-4
-1.321, 8.499e-4
-1.322, 8.646e-4
-1.323, 8.772e-4
-1.324, 8.947e-4
-1.325, 9.066e-4
-1.326, 9.176e-4
-1.327, 9.315e-4
-1.328, 9.358e-4
-1.329, 9.524e-4
-1.330, 9.710e-4
-1.331, 9.806e-4
-1.332, 9.939e-4
-1.333, 1.008e-3
-1.334, 1.021e-3
-1.335, 1.038e-3
-1.336, 1.049e-3
-1.337, 1.075e-3
-1.338, 1.087e-3
-1.339, 1.099e-3
-1.340, 1.117e-3
-1.341, 1.128e-3
-1.342, 1.148e-3
-1.343, 1.165e-3
-1.344, 1.184e-3
-1.345, 1.205e-3
-1.346, 1.224e-3
-1.347, 1.238e-3
-1.348, 1.263e-3
-1.349, 1.287e-3
-1.350, 1.294e-3
-1.351, 1.331e-3
-1.352, 1.334e-3
-1.353, 1.374e-3
-1.354, 1.394e-3
-1.355, 1.412e-3
-1.356, 1.423e-3
-1.357, 1.444e-3
-1.358, 1.489e-3
-1.359, 1.501e-3
-1.360, 1.531e-3
-1.361, 1.553e-3
-1.362, 1.578e-3
-1.363, 1.614e-3
-1.364, 1.641e-3
-1.365, 1.655e-3
-1.366, 1.686e-3
-1.367, 1.715e-3
-1.368, 1.740e-3
-1.369, 1.778e-3
-1.370, 1.809e-3
-1.371, 1.831e-3
-1.372, 1.866e-3
-1.373, 1.900e-3
-1.374, 1.943e-3
-1.375, 1.966e-3
-1.376, 1.998e-3
-1.377, 2.035e-3
-1.378, 2.056e-3
-1.379, 2.109e-3
-1.380, 2.129e-3
-1.381, 2.175e-3
-1.382, 2.217e-3
-1.383, 2.261e-3
-1.384, 2.283e-3
-1.385, 2.335e-3
-1.386, 2.376e-3
-1.387, 2.397e-3
-1.388, 2.475e-3
-1.389, 2.490e-3
-1.390, 2.534e-3
-1.391, 2.592e-3
-1.392, 2.627e-3
-1.393, 2.668e-3
-1.394, 2.720e-3
-1.395, 2.787e-3
-1.396, 2.805e-3
-1.397, 2.843e-3
-1.398, 2.891e-3
-1.399, 2.941e-3
-1.400, 3.020e-3
-1.401, 3.057e-3
-1.402, 3.104e-3
-1.403, 3.151e-3
-1.404, 3.219e-3
-1.405, 3.263e-3
-1.406, 3.328e-3
-1.407, 3.363e-3
-1.408, 3.430e-3
-1.409, 3.474e-3
-1.410, 3.556e-3
-1.411, 3.598e-3
-1.412, 3.651e-3
-1.413, 3.721e-3
-1.414, 3.772e-3
-1.415, 3.854e-3
-1.416, 3.856e-3
-1.417, 3.954e-3
-1.418, 4.093e-3
-1.419, 4.089e-3
-1.420, 4.154e-3
-1.421, 4.188e-3
-1.422, 4.250e-3
-1.423, 4.325e-3
-1.424, 4.387e-3
-1.425, 4.484e-3
-1.426, 4.531e-3
-1.427, 4.601e-3
-1.428, 4.658e-3
-1.429, 4.742e-3
-1.430, 4.839e-3
-1.431, 4.894e-3
-1.432, 4.939e-3
-1.433, 4.990e-3
-1.434, 5.127e-3
-1.435, 5.194e-3
-1.436, 5.281e-3
-1.437, 5.319e-3
-1.438, 5.418e-3
-1.439, 5.450e-3
-1.440, 5.544e-3
-1.441, 5.623e-3
-1.442, 5.686e-3
-1.443, 5.788e-3
-1.444, 5.894e-3
-1.445, 5.926e-3
-1.446, 6.042e-3
-1.447, 6.108e-3
-1.448, 6.202e-3
-1.449, 6.242e-3
-1.450, 6.335e-3
-1.451, 6.468e-3
-1.452, 6.525e-3
-1.453, 6.605e-3
-1.454, 6.690e-3
-1.455, 6.742e-3
-1.456, 6.892e-3
-1.457, 6.974e-3
-1.458, 7.059e-3
-1.459, 7.119e-3
-1.460, 7.213e-3
-1.461, 7.272e-3
-1.462, 7.361e-3
-1.463, 7.455e-3
-1.464, 7.543e-3
-1.465, 7.627e-3
-1.466, 7.741e-3
-1.467, 7.811e-3
-1.468, 7.897e-3
-1.469, 7.999e-3
-1.470, 8.116e-3
-1.471, 8.173e-3
-1.472, 8.232e-3
-1.473, 8.348e-3
-1.474, 8.451e-3
-1.475, 8.540e-3
-1.476, 8.624e-3
-1.477, 8.720e-3
-1.478, 8.771e-3
-1.479, 8.917e-3
-1.480, 9.021e-3
-1.481, 9.045e-3
-1.482, 9.088e-3
-1.483, 9.219e-3
-1.484, 9.337e-3
-1.485, 9.353e-3
-1.486, 9.529e-3
-1.487, 9.633e-3
-1.488, 9.726e-3
-1.489, 9.791e-3
-1.490, 9.893e-3
-1.491, 1.003e-2
-1.492, 1.010e-2
-1.493, 1.011e-2
-1.494, 1.011e-2
-1.495, 1.011e-2
-1.496, 1.011e-2
-1.497, 1.011e-2
-1.498, 1.011e-2
-1.499, 1.011e-2
-1.500, 1.011e-2
-1.499, 1.011e-2
-1.498, 1.011e-2
-1.497, 1.011e-2
-1.496, 1.011e-2
-1.495, 1.009e-2
-1.494, 1.009e-2
-1.493, 9.980e-3
-1.492, 9.812e-3
-1.491, 9.734e-3
-1.490, 9.600e-3
-1.489, 9.504e-3
-1.488, 9.375e-3
-1.487, 9.233e-3
-1.486, 9.081e-3
-1.485, 9.016e-3
-1.484, 8.861e-3
-1.483, 8.728e-3
-1.482, 8.638e-3
-1.481, 8.447e-3
-1.480, 8.465e-3
-1.479, 8.353e-3
-1.478, 8.214e-3
-1.477, 8.080e-3
-1.476, 7.926e-3
-1.475, 7.877e-3
-1.474, 7.755e-3
-1.473, 7.655e-3
-1.472, 7.556e-3
-1.471, 7.426e-3
-1.470, 7.377e-3
-1.469, 7.294e-3
-1.468, 7.169e-3
-1.467, 7.063e-3
-1.466, 6.987e-3
-1.465, 6.861e-3
-1.464, 6.784e-3
-1.463, 6.647e-3
-1.462, 6.609e-3
-1.461, 6.530e-3
-1.460, 6.422e-3
-1.459, 6.418e-3
-1.458, 6.248e-3
-1.457, 6.190e-3
-1.456, 6.064e-3
-1.455, 5.988e-3
-1.454, 5.906e-3
-1.453, 5.843e-3
-1.452, 5.786e-3
-1.451, 5.682e-3
-1.450, 5.523e-3
-1.449, 5.497e-3
-1.448, 5.450e-3
-1.447, 5.349e-3
-1.446, 5.289e-3
-1.445, 5.240e-3
-1.444, 5.097e-3
-1.443, 4.979e-3
-1.442, 4.895e-3
-1.441, 4.821e-3
-1.440, 4.715e-3
-1.439, 4.671e-3
-1.438, 4.591e-3
-1.437, 4.512e-3
-1.436, 4.486e-3
-1.435, 4.398e-3
-1.434, 4.300e-3
-1.433, 4.237e-3
-1.432, 4.163e-3
-1.431, 4.087e-3
-1.430, 4.020e-3
-1.429, 3.977e-3
-1.428, 3.878e-3
-1.427, 3.831e-3
-1.426, 3.743e-3
-1.425, 3.685e-3
-1.424, 3.632e-3
-1.423, 3.542e-3
-1.422, 3.502e-3
-1.421, 3.445e-3
-1.420, 3.401e-3
-1.419, 3.341e-3
-1.418, 3.267e-3
-1.417, 3.184e-3
-1.416, 3.140e-3
-1.415, 3.054e-3
-1.414, 3.047e-3
-1.413, 2.979e-3
-1.412, 2.907e-3
-1.411, 2.847e-3
-1.410, 2.823e-3
-1.409, 2.784e-3
-1.408, 2.695e-3
-1.407, 2.650e-3
-1.406, 2.597e-3
-1.405, 2.553e-3
-1.404, 2.502e-3
-1.403, 2.455e-3
-1.402, 2.393e-3
-1.401, 2.340e-3
-1.400, 2.302e-3
-1.399, 2.251e-3
-1.398, 2.208e-3
-1.397, 2.165e-3
-1.396, 2.138e-3
-1.395, 2.070e-3
-1.394, 2.043e-3
-1.393, 1.999e-3
-1.392, 1.949e-3
-1.391, 1.918e-3
-1.390, 1.864e-3
-1.389, 1.845e-3
-1.388, 1.799e-3
-1.387, 1.759e-3
-1.386, 1.740e-3
-1.385, 1.680e-3
-1.384, 1.652e-3
-1.383, 1.614e-3
-1.382, 1.567e-3
-1.381, 1.539e-3
-1.380, 1.504e-3
-1.379, 1.481e-3
-1.378, 1.440e-3
-1.377, 1.408e-3
-1.376, 1.386e-3
-1.375, 1.357e-3
-1.374, 1.313e-3
-1.373, 1.291e-3
-1.372, 1.263e-3
-1.371, 1.238e-3
-1.370, 1.200e-3
-1.369, 1.172e-3
-1.368, 1.154e-3
-1.367, 1.125e-3
-1.366, 1.097e-3
-1.365, 1.075e-3
-1.364, 1.042e-3
-1.363, 1.023e-3
-1.362, 9.926e-4
-1.361, 9.765e-4
-1.360, 9.525e-4
-1.359, 9.225e-4
-1.358, 9.033e-4
-1.357, 8.763e-4
-1.356, 8.530e-4
-1.355, 8.378e-4
-1.354, 8.169e-4
-1.353, 7.978e-4
-1.352, 7.782e-4
-1.351, 7.572e-4
-1.350, 7.362e-4
-1.349, 7.156e-4
-1.348, 6.965e-4
-1.347, 6.864e-4
-1.346, 6.601e-4
-1.345, 6.467e-4
-1.344, 6.273e-4
-1.343, 6.096e-4
-1.342, 5.985e-4
-1.341, 5.767e-4
-1.340, 5.701e-4
-1.339, 5.527e-4
-1.338, 5.339e-4
-1.337, 5.148e-4
-1.336, 5.041e-4
-1.335, 4.951e-4
-1.334, 4.775e-4
-1.333, 4.626e-4
-1.332, 4.495e-4
-1.331, 4.375e-4
-1.330, 4.264e-4
-1.329, 4.165e-4
-1.328, 4.018e-4
-1.327, 3.900e-4
-1.326, 3.798e-4
-1.325, 3.660e-4
-1.324, 3.580e-4
-1.323, 3.485e-4
-1.322, 3.389e-4
-1.321, 3.217e-4
-1.320, 3.121e-4
-1.319, 3.069e-4
-1.318, 2.952e-4
-1.317, 2.867e-4
-1.316, 2.760e-4
-1.315, 2.690e-4
-1.314, 2.591e-4
-1.313, 2.473e-4
-1.312, 2.411e-4
-1.311, 2.340e-4
-1.310, 2.271e-4
-1.309, 2.177e-4
-1.308, 2.082e-4
-1.307, 2.013e-4
-1.306, 1.952e-4
-1.305, 1.900e-4
-1.304, 1.817e-4
-1.303, 1.734e-4
-1.302, 1.646e-4
-1.301, 1.603e-4
-1.300, 1.544e-4
-1.299, 1.484e-4
-1.298, 1.430e-4
-1.297, 1.351e-4
-1.296, 1.299e-4
-1.295, 1.249e-4
-1.294, 1.185e-4
-1.293, 1.137e-4
-1.292, 1.075e-4
-1.291, 1.013e-4
-1.290, 9.749e-5
-1.289, 9.334e-5
-1.288, 8.811e-5
-1.287, 8.360e-5
-1.286, 7.941e-5
-1.285, 7.573e-5
-1.284, 7.074e-5
-1.283, 6.451e-5
-1.282, 5.956e-5
-1.281, 5.531e-5
-1.280, 5.188e-5
-1.279, 4.932e-5
-1.278, 4.489e-5
-1.277, 4.087e-5
-1.276, 3.681e-5
-1.275, 3.487e-5
-1.274, 3.133e-5
-1.273, 2.644e-5
-1.272, 2.208e-5
-1.271, 1.913e-5
-1.270, 1.662e-5
-1.269, 1.484e-5
-1.268, 1.136e-5
-1.267, 7.370e-6
-1.266, 4.410e-6
-1.265, 1.202e-6
-1.264, -7.175e-7
-1.263, -4.155e-6
-1.262, -8.150e-6
-1.261, -9.350e-6
-1.260, -1.098e-5
-1.259, -1.366e-5
-1.258, -1.631e-5
-1.257, -2.027e-5
-1.256, -2.224e-5
-1.255, -2.431e-5
-1.254, -2.648e-5
-1.253, -2.905e-5
-1.252, -3.196e-5
-1.251, -3.327e-5
-1.250, -3.446e-5
-1.249, -3.713e-5
-1.248, -3.923e-5
-1.247, -4.221e-5
-1.246, -4.424e-5
-1.245, -4.536e-5
-1.244, -4.664e-5
-1.243, -4.876e-5
-1.242, -5.136e-5
-1.241, -5.307e-5
-1.240, -5.478e-5
-1.239, -5.579e-5
-1.238, -5.816e-5
-1.237, -6.039e-5
-1.236, -6.216e-5
-1.235, -6.261e-5
-1.234, -6.435e-5
-1.233, -6.537e-5
-1.232, -6.619e-5
-1.231, -6.883e-5
-1.230, -7.091e-5
-1.229, -7.267e-5
-1.228, -7.363e-5
-1.227, -7.509e-5
-1.226, -7.690e-5
-1.225, -7.837e-5
-1.224, -7.838e-5
-1.223, -7.981e-5
-1.222, -8.148e-5
-1.221, -8.264e-5
-1.220, -8.384e-5
-1.219, -8.389e-5
-1.218, -8.595e-5
-1.217, -8.915e-5
-1.216, -9.013e-5
-1.215, -8.968e-5
-1.214, -9.128e-5
-1.213, -9.194e-5
-1.212, -9.416e-5
-1.211, -9.476e-5
-1.210, -9.527e-5
-1.209, -9.670e-5
-1.208, -9.689e-5
-1.207, -9.997e-5
-1.206, -1.010e-4
-1.205, -1.006e-4
-1.204, -1.010e-4
-1.203, -1.028e-4
-1.202, -1.053e-4
-1.201, -1.066e-4
-1.200, -1.057e-4
-1.199, -1.067e-4
-1.198, -1.086e-4
-1.197, -1.094e-4
-1.196, -1.113e-4
-1.195, -1.118e-4
-1.194, -1.119e-4
-1.193, -1.140e-4
-1.192, -1.143e-4
-1.191, -1.165e-4
-1.190, -1.161e-4
-1.189, -1.162e-4
-1.188, -1.174e-4
-1.187, -1.189e-4
-1.186, -1.215e-4
-1.185, -1.209e-4
-1.184, -1.230e-4
-1.183, -1.245e-4
-1.182, -1.227e-4
-1.181, -1.253e-4
-1.180, -1.266e-4
-1.179, -1.252e-4
-1.178, -1.288e-4
-1.177, -1.301e-4
-1.176, -1.317e-4
-1.175, -1.308e-4
-1.174, -1.313e-4
-1.173, -1.325e-4
-1.172, -1.346e-4
-1.171, -1.353e-4
-1.170, -1.345e-4
-1.169, -1.338e-4
-1.168, -1.352e-4
-1.167, -1.371e-4
-1.166, -1.388e-4
-1.165, -1.410e-4
-1.164, -1.412e-4
-1.163, -1.413e-4
-1.162, -1.433e-4
-1.161, -1.436e-4
-1.160, -1.453e-4
-1.159, -1.461e-4
-1.158, -1.467e-4
-1.157, -1.481e-4
-1.156, -1.496e-4
-1.155, -1.514e-4
-1.154, -1.507e-4
-1.153, -1.516e-4
-1.152, -1.531e-4
-1.151, -1.555e-4
-1.150, -1.563e-4
-1.149, -1.545e-4
-1.148, -1.553e-4
-1.147, -1.607e-4
-1.146, -1.615e-4
-1.145, -1.614e-4
-1.144, -1.601e-4
-1.143, -1.623e-4
-1.142, -1.653e-4
-1.141, -1.634e-4
-1.140, -1.657e-4
-1.139, -1.674e-4
-1.138, -1.692e-4
-1.137, -1.727e-4
-1.136, -1.724e-4
-1.135, -1.725e-4
-1.134, -1.730e-4
-1.133, -1.755e-4
-1.132, -1.779e-4
-1.131, -1.793e-4
-1.130, -1.794e-4
-1.129, -1.803e-4
-1.128, -1.810e-4
-1.127, -1.809e-4
-1.126, -1.810e-4
-1.125, -1.852e-4
-1.124, -1.878e-4
-1.123, -1.903e-4
-1.122, -1.915e-4
-1.121, -1.927e-4
-1.120, -1.939e-4
-1.119, -1.939e-4
-1.118, -1.978e-4
-1.117, -2.008e-4
-1.116, -2.015e-4
-1.115, -2.048e-4
-1.114, -2.054e-4
-1.113, -2.042e-4
-1.112, -2.079e-4
-1.111, -2.112e-4
-1.110, -2.121e-4
-1.109, -2.122e-4
-1.108, -2.170e-4
-1.107, -2.206e-4
-1.106, -2.215e-4
-1.105, -2.215e-4
-1.104, -2.230e-4
-1.103, -2.254e-4
-1.102, -2.307e-4
-1.101, -2.342e-4
-1.100, -2.323e-4
-1.099, -2.361e-4
-1.098, -2.401e-4
-1.097, -2.414e-4
-1.096, -2.431e-4
-1.095, -2.451e-4
-1.094, -2.476e-4
-1.093, -2.496e-4
-1.092, -2.545e-4
-1.091, -2.572e-4
-1.090, -2.600e-4
-1.089, -2.635e-4
-1.088, -2.626e-4
-1.087, -2.693e-4
-1.086, -2.709e-4
-1.085, -2.732e-4
-1.084, -2.747e-4
-1.083, -2.810e-4
-1.082, -2.823e-4
-1.081, -2.860e-4
-1.080, -2.883e-4
-1.079, -2.904e-4
-1.078, -2.959e-4
-1.077, -2.978e-4
-1.076, -3.009e-4
-1.075, -3.064e-4
-1.074, -3.083e-4
-1.073, -3.130e-4
-1.072, -3.152e-4
-1.071, -3.191e-4
-1.070, -3.224e-4
-1.069, -3.253e-4
-1.068, -3.321e-4
-1.067, -3.379e-4
-1.066, -3.400e-4
-1.065, -3.422e-4
-1.064, -3.430e-4
-1.063, -3.536e-4
-1.062, -3.585e-4
-1.061, -3.629e-4
-1.060, -3.643e-4
-1.059, -3.680e-4
-1.058, -3.724e-4
-1.057, -3.778e-4
-1.056, -3.825e-4
-1.055, -3.857e-4
-1.054, -3.920e-4
-1.053, -3.968e-4
-1.052, -4.037e-4
-1.051, -4.079e-4
-1.050, -4.121e-4
-1.049, -4.175e-4
-1.048, -4.207e-4
-1.047, -4.254e-4
-1.046, -4.328e-4
-1.045, -4.363e-4
-1.044, -4.410e-4
-1.043, -4.511e-4
-1.042, -4.565e-4
-1.041, -4.634e-4
-1.040, -4.611e-4
-1.039, -4.758e-4
-1.038, -4.782e-4
-1.037, -4.802e-4
-1.036, -4.886e-4
-1.035, -4.970e-4
-1.034, -5.023e-4
-1.033, -5.100e-4
-1.032, -5.125e-4
-1.031, -5.235e-4
-1.030, -5.309e-4
-1.029, -5.351e-4
-1.028, -5.388e-4
-1.027, -5.451e-4
-1.026, -5.604e-4
-1.025, -5.607e-4
-1.024, -5.712e-4
-1.023, -5.792e-4
-1.022, -5.832e-4
-1.021, -6.008e-4
-1.020, -6.080e-4
-1.019, -6.120e-4
-1.018, -6.164e-4
-1.017, -6.260e-4
-1.016, -6.390e-4
-1.015, -6.506e-4
-1.014, -6.624e-4
-1.013, -6.771e-4
-1.012, -6.699e-4
-1.011, -6.861e-4
-1.010, -6.937e-4
-1.009, -7.012e-4
-1.008, -7.193e-4
-1.007, -7.344e-4
-1.006, -7.489e-4
-1.005, -7.493e-4
-1.004, -7.607e-4
-1.003, -7.743e-4
-1.002, -7.795e-4
-1.001, -7.985e-4
