Potential V vs RHE, Current mA cm-2
0.013299999999999867,0.9137620285828272
0.012299999999999978,-0.48199213986401795
0.011299999999999866,-1.5293029151541047
0.010299999999999976,-2.4446211261667834
0.009299999999999864,-3.6655169779503103
0.008299999999999974,-5.017980980621284
0.007299999999999862,-6.282732882700628
0.006299999999999972,-7.155609754717355
0.00529999999999986,-7.591340835075788
0.0042999999999999705,-7.809206375255003
0.0032999999999998586,-8.202496116617484
0.0022999999999999687,-8.943804837746763
0.0012999999999998568,-9.85912304875944
0.00029999999999996696,-10.601846481188586
-0.000700000000000145,-10.949865460955383
-0.0017000000000000348,-10.993721511251199
-0.0027000000000001467,-10.993721511251199
-0.0037000000000000366,-11.343155202317865
-0.0047000000000001485,-11.909039722263879
-0.005700000000000038,-12.651763154693022
-0.00670000000000015,-13.087494235051453
-0.00770000000000004,-13.13135028534727
-0.008700000000000152,-12.913484745168056
-0.009700000000000042,-12.781916594280606
-0.010700000000000154,-13.087494235051453
-0.011700000000000044,-13.698649516593148
-0.012700000000000156,-14.175407224647667
-0.013700000000000045,-14.444202371622024
-0.014700000000000157,-14.345172580631472
-0.015700000000000047,-14.046668496359947
-0.01670000000000016,-14.002812446064135
-0.01770000000000005,-14.345172580631472
-0.01870000000000016,-14.925204213576137
-0.01970000000000005,-15.264734925543747
-0.020700000000000163,-15.307176264539699
-0.021700000000000053,-15.01008689156804
-0.022700000000000164,-14.741291744593681
-0.023700000000000054,-14.741291744593681
-0.024700000000000166,-15.137410908555893
-0.025700000000000056,-15.660854089505953
-0.026700000000000168,-15.91550212348166
-0.027700000000000058,-15.78817810649381
-0.02870000000000017,-15.3920589425316
-0.02970000000000006,-15.137410908555893
-0.03070000000000017,-15.349617603535648
-0.03170000000000006,-15.830619445489761
-0.03270000000000017,-16.22673860945197
-0.03370000000000006,-16.396503965435777
-0.034700000000000175,-16.141855931460068
-0.035700000000000065,-15.78817810649381
-0.03670000000000018,-15.660854089505953
-0.03770000000000007,-15.972090575476265
-0.03870000000000018,-16.396503965435777
-0.03970000000000007,-16.750181790402035
-0.04070000000000018,-16.750181790402035
-0.04170000000000007,-16.396503965435777
-0.04270000000000018,-16.099414592464115
-0.04370000000000007,-16.099414592464115
-0.044700000000000184,-16.396503965435777
-0.045700000000000074,-16.835064468393938
-0.046700000000000186,-17.061418276372343
-0.047700000000000076,-16.835064468393938
-0.04870000000000019,-16.495533756426326
-0.04970000000000008,-16.141855931460068
-0.05070000000000019,-16.269179948447924
-0.05170000000000008,-16.665299112410132
-0.05270000000000019,-17.103859615368293
-0.05370000000000008,-17.146300954364243
-0.05470000000000019,-16.919947146385837
-0.05570000000000008,-16.495533756426326
-0.056700000000000195,-16.354062626439823
-0.057700000000000085,-16.622857773414182
-0.058700000000000196,-17.061418276372343
-0.059700000000000086,-17.358507649344002
-0.0607000000000002,-17.316066310348052
-0.06170000000000009,-17.018976937376394
-0.0627000000000002,-16.665299112410132
-0.06370000000000009,-16.665299112410132
-0.0647000000000002,-16.919947146385837
-0.06570000000000009,-17.40094898833995
-0.0667000000000002,-17.584861457322408
-0.0677000000000001,-17.40094898833995
-0.0687000000000002,-17.018976937376394
-0.0697000000000001,-16.70774045140608
-0.07070000000000021,-16.835064468393938
-0.0717000000000001,-17.231183632356142
-0.07270000000000021,-17.584861457322408
-0.0737000000000001,-17.669744135314307
-0.07470000000000021,-17.358507649344002
-0.0757000000000001,-16.962388485381787
-0.07670000000000021,-16.792623129397985
-0.0777000000000001,-17.061418276372343
-0.07870000000000021,-17.542420118326454
-0.0797000000000001,-17.797068152302163
-0.08070000000000022,-17.75462681330621
-0.0817000000000001,-17.358507649344002
-0.08270000000000022,-17.018976937376394
-0.08370000000000011,-16.962388485381787
-0.08470000000000022,-17.316066310348052
-0.08570000000000011,-17.797068152302163
-0.08670000000000022,-18.009274847281915
-0.08770000000000011,-17.797068152302163
-0.08870000000000022,-17.48583166633185
-0.08970000000000011,-17.188742293360193
-0.09070000000000022,-17.316066310348052
-0.09170000000000011,-17.839509491298113
-0.09270000000000023,-18.19318731626437
-0.09370000000000012,-18.27806999425627
-0.09470000000000023,-17.966833508285966
-0.09570000000000012,-17.542420118326454
-0.09670000000000023,-17.316066310348052
-0.09770000000000012,-17.584861457322408
-0.09870000000000023,-17.966833508285966
-0.09970000000000012,-18.27806999425627
-0.10070000000000023,-18.19318731626437
-0.10170000000000012,-17.839509491298113
-0.10270000000000024,-17.542420118326454
-0.10370000000000013,-17.584861457322408
-0.10470000000000024,-17.881950830294063
-0.10570000000000013,-18.362952672248177
-0.10670000000000024,-18.53271802823198
-0.10770000000000013,-18.27806999425627
-0.10870000000000024,-17.881950830294063
-0.10970000000000013,-17.584861457322408
-0.11070000000000024,-17.71218547431026
-0.11170000000000013,-18.15074597726842
-0.11270000000000002,-18.49027668923603
-0.11370000000000013,-18.53271802823198
-0.11470000000000002,-18.27806999425627
-0.11570000000000014,-17.839509491298113
-0.11670000000000003,-17.71218547431026
-0.11770000000000014,-17.924392169290012
-0.11870000000000003,-18.40539401124413
-0.11970000000000014,-18.674189158218486
-0.12070000000000003,-18.674189158218486
-0.12170000000000014,-18.362952672248177
-0.12270000000000003,-18.10830463827247
-0.12370000000000014,-18.15074597726842
-0.12470000000000003,-18.49027668923603
-0.12570000000000014,-19.056161209182044
-0.12670000000000003,-19.2400736781645
-0.12770000000000015,-19.01371987018609
-0.12870000000000004,-18.631747819222536
-0.12970000000000015,-18.40539401124413
-0.13070000000000004,-18.49027668923603
-0.13170000000000015,-18.97127853119014
-0.13270000000000004,-19.28251501716045
-0.13370000000000015,-19.367397695152352
-0.13470000000000004,-19.056161209182044
-0.13570000000000015,-18.631747819222536
-0.13670000000000004,-18.40539401124413
-0.13770000000000016,-18.674189158218486
-0.13870000000000005,-19.112749661176647
-0.13970000000000016,-19.367397695152352
-0.14070000000000005,-19.3249563561564
-0.14170000000000016,-18.92883719219419
-0.14270000000000005,-18.674189158218486
-0.14370000000000016,-18.674189158218486
-0.14470000000000005,-19.056161209182044
-0.14570000000000016,-19.579604390132108
-0.14670000000000005,-19.805958198110513
-0.14770000000000016,-19.636192842126707
-0.14870000000000005,-19.2400736781645
-0.14970000000000017,-18.97127853119014
-0.15070000000000006,-19.155191000172596
-0.15170000000000017,-19.537163051136158
-0.15270000000000006,-19.93328221509837
-0.15370000000000017,-19.93328221509837
-0.15470000000000006,-19.678634181122664
-0.15570000000000017,-19.2400736781645
-0.15670000000000006,-19.056161209182044
-0.15770000000000017,-19.367397695152352
-0.15870000000000006,-19.805958198110513
-0.15970000000000018,-20.159636023076775
-0.16070000000000007,-20.06060623208622
-0.16170000000000018,-19.763516859114564
-0.16270000000000007,-19.409839034148305
-0.16370000000000018,-19.49472171214021
-0.16470000000000007,-19.805958198110513
-0.16570000000000018,-20.286960040064624
-0.16670000000000007,-20.499166735044383
-0.16770000000000018,-20.286960040064624
-0.16870000000000007,-19.93328221509837
-0.16970000000000018,-19.678634181122664
-0.17070000000000007,-19.848399537106463
-0.17170000000000019,-20.329401379060574
-0.17270000000000008,-20.76796188201874
-0.1737000000000002,-20.76796188201874
-0.17470000000000008,-20.499166735044383
-0.1757000000000002,-20.10304757108217
-0.17670000000000008,-19.93328221509837
-0.1777000000000002,-20.202077362072725
-0.17870000000000008,-20.626490752032236
-0.1797000000000002,-20.89528589900659
-0.18070000000000008,-20.810403221014692
-0.1817000000000002,-20.456725396048434
-0.18270000000000008,-20.159636023076775
-0.1837000000000002,-20.244518701068674
-0.1847000000000001,-20.626490752032236
-0.1857000000000002,-21.107492593986347
-0.1867000000000001,-21.333846401964752
-0.1877000000000002,-21.149933932982297
-0.1887000000000001,-20.810403221014692
-0.1897000000000002,-20.626490752032236
-0.1907000000000001,-20.810403221014692
-0.1917000000000001,-21.248963723972853
-0.19269999999999998,-21.67337711393236
-0.1937000000000001,-21.729965565926964
-0.19469999999999998,-21.418729079956652
-0.1957000000000001,-21.065051254990397
-0.19669999999999999,-20.980168576998494
-0.1977000000000001,-21.333846401964752
-0.1987,-21.814848243918867
-0.1997000000000001,-22.069496277894572
-0.2007,-21.98461359990267
-0.2017000000000001,-21.63093577493641
-0.2027,-21.376287740960702
-0.2037000000000001,-21.503611757948562
-0.2047,-21.857289582914817
-0.2057000000000001,-22.38073276386488
-0.2067,-22.550498119848687
-0.2077000000000001,-22.253408746877028
-0.2087,-21.814848243918867
-0.2097000000000001,-21.54605309694451
-0.2107,-21.729965565926964
-0.2117000000000001,-22.15437895588647
-0.2127,-22.550498119848687
-0.2137000000000001,-22.63538079784059
-0.2147,-22.46561544185678
-0.2157000000000001,-22.253408746877028
-0.2167,-22.15437895588647
-0.21770000000000012,-22.508056780852733
-0.2187,-23.073941300798747
-0.21970000000000012,-23.427619125765005
-0.2207,-23.342736447773106
-0.22170000000000012,-22.946617283810895
-0.2227,-22.67782213683654
-0.22370000000000012,-22.72026347583249
-0.2247,-23.031499961802798
-0.22570000000000012,-23.51250180375691
-0.2267,-23.682267159740714
-0.22770000000000012,-23.55494314275286
-0.22870000000000001,-23.15882397879065
-0.22970000000000013,-22.989058622806844
-0.23070000000000002,-23.15882397879065
-0.23170000000000013,-23.639825820744765
-0.23270000000000002,-24.078386323702922
-0.23370000000000013,-24.16326900169483
-0.23470000000000002,-23.951062306715073
-0.23570000000000013,-23.597384481748815
-0.23670000000000002,-23.51250180375691
-0.2376999999999999,-23.767149837732617
-0.23870000000000002,-24.34718147067728
-0.2396999999999999,-24.64427084364894
-0.24070000000000003,-24.601829504652986
-0.24169999999999991,-24.24815167968673
-0.24270000000000003,-23.993503645711023
-0.24369999999999992,-24.078386323702922
-0.24470000000000003,-24.474505487665134
-0.24569999999999992,-24.997948668615198
-0.24670000000000003,-25.337479380582806
-0.24769999999999992,-25.210155363594954
-0.24870000000000003,-24.870624651627345
-0.24969999999999992,-24.771594860636792
-0.25070000000000003,-24.95550732961925
-0.2516999999999999,-25.43650917157336
-0.25270000000000004,-25.81848122253692
-0.2536999999999999,-25.959952352523427
-0.25470000000000004,-25.73359854454502
-0.2556999999999999,-25.337479380582806
-0.25670000000000004,-25.167714024599
-0.25769999999999993,-25.563833188561212
-0.25870000000000004,-26.129717708507226
-0.25969999999999993,-26.568278211465387
-0.26070000000000004,-26.61071955046134
-0.26169999999999993,-26.440954194477534
-0.26270000000000004,-26.257041725495082
-0.26369999999999993,-26.38436574248293
-0.26470000000000005,-26.780484906445146
-0.26569999999999994,-27.303928087395207
-0.26670000000000005,-27.572723234369565
-0.26769999999999994,-27.38881076538711
-0.26870000000000005,-27.00683871442355
-0.26969999999999994,-26.86536758443705
-0.27070000000000005,-27.176604070407354
-0.27169999999999994,-27.700047251357418
-0.27270000000000005,-28.22349043230748
-0.27369999999999994,-28.350814449295335
-0.27470000000000006,-28.22349043230748
-0.27569999999999995,-27.912253946337174
-0.27670000000000006,-27.827371268345274
-0.27769999999999995,-28.22349043230748
-0.27870000000000006,-28.831816291249446
-0.27969999999999995,-29.18549411621571
-0.28070000000000006,-29.18549411621571
-0.28169999999999995,-28.831816291249446
-0.28270000000000006,-28.704492274261593
-0.28369999999999995,-28.959140308237306
-0.28470000000000006,-29.440142150191413
-0.28569999999999995,-30.10505646112798
-0.28670000000000007,-30.444587173095588
-0.28769999999999996,-30.444587173095588
-0.28870000000000007,-30.232380478115836
-0.28969999999999996,-30.317263156107735
-0.29070000000000007,-30.71338232006995
-0.29169999999999996,-31.40659085700382
-0.29270000000000007,-31.930034037953877
-0.29369999999999996,-32.14224073293363
-0.2947000000000001,-32.05735805494172
-0.29569999999999996,-31.84515135996197
-0.2967000000000001,-31.84515135996197
-0.29769999999999996,-32.24127052392419
-0.2987000000000001,-32.764713704874254
-0.29969999999999997,-33.14668575583781
-0.3007000000000001,-33.231568433829715
-0.30169999999999997,-33.06180307784591
-0.3027000000000001,-33.06180307784591
-0.30369999999999997,-33.373039563816214
-0.3047000000000001,-34.02380676175414
-0.30569999999999997,-34.717015298688004
-0.3067000000000001,-35.15557580164616
-0.3077,-35.240458479638065
-0.3087000000000001,-35.02825178465831
-0.3097,-34.98581044566235
-0.3107000000000001,-35.46681228761647
-0.3117,-36.16002082455034
-0.3127000000000001,-36.95225915247476
-0.3137,-37.334231203438314
-0.3147000000000001,-37.206907186450465
-0.3157,-36.99470049147071
-0.3167000000000001,-36.89567070048016
-0.3177,-37.291789864442364
-0.3187000000000001,-37.81523304539243
-0.3197,-38.33867622634249
-0.3207000000000001,-38.46600024333035
-0.3217,-38.33867622634249
-0.3227000000000001,-38.42355890433439
-0.3237,-38.94700208528445
-0.3247000000000001,-39.739240413208876
-0.3257,-40.616361419125205
-0.3267000000000001,-41.182245939071215
-0.3277,-41.352011295055014
-0.3287000000000001,-41.352011295055014
-0.3297,-41.66324778102533
-0.3307000000000001,-42.2715736399673
-0.3317,-43.04966485489307
-0.3327000000000001,-43.75702050482558
-0.3337,-44.011668538801295
-0.3347000000000001,-44.011668538801295
-0.3357,-43.92678586080939
-0.3367000000000001,-44.096551216793195
-0.3377,-44.704877075735155
-0.3387000000000001,-45.53955674265553
-0.3397,-46.147882601597495
-0.3407000000000001,-46.501560426563756
-0.3417,-46.586443104555656
-0.3427000000000001,-46.84109113853137
-0.3437,-47.40697565847737
-0.3447000000000001,-48.32653800338966
-0.3457,-49.28854168729788
-0.3467000000000001,-49.98175022423175
-0.3477,-50.2505453712061
-0.3487000000000001,-50.20810403221015
-0.3497,-50.42031072718991
-0.3507000000000001,-50.98619524713592
-0.3517,-51.86331625305225
-0.3527000000000001,-52.64140746797801
-0.3537,-53.12240930993213
-0.3547000000000001,-53.22143910092268
-0.3557,-53.39120445690648
-0.35670000000000013,-53.74488228187274
-0.3577,-54.56541483579447
-0.35870000000000013,-55.527418519702685
-0.3597,-56.26306839563251
-0.36070000000000013,-56.74407023758662
-0.3617,-56.927982706569075
-0.3626999999999999,-57.26751341853669
-0.3637,-57.87583927747865
-0.3646999999999999,-58.75296028339497
-0.3657,-59.6300812893113
-0.3666999999999999,-60.28084848724921
-0.3677,-60.54964363422357
-0.3686999999999999,-60.761850329203334
-0.36970000000000003,-61.15796949316553
-0.3706999999999999,-61.97850204708726
-0.37170000000000003,-63.11027108697928
-0.3726999999999999,-64.15715744887942
-0.37370000000000003,-64.77963042082003
-0.3746999999999999,-65.11916113278764
-0.37570000000000003,-65.38795627976201
-0.3766999999999999,-65.91139946071206
-0.37770000000000004,-66.81681469262568
-0.3786999999999999,-67.86370105452582
-0.37970000000000004,-68.69838072144618
-0.3806999999999999,-69.0944998854084
-0.38170000000000004,-69.3491479193841
-0.38269999999999993,-69.61794306635846
-0.38370000000000004,-70.39603428128423
-0.38469999999999993,-71.44292064318435
-0.38570000000000004,-72.57468968307639
-0.38669999999999993,-73.3669280110008
-0.38770000000000004,-73.93281253094682
-0.38869999999999993,-74.14501922592657
-0.38970000000000005,-74.72505085887124
-0.39069999999999994,-75.94170257675518
-0.39170000000000005,-77.243236972631
-0.39269999999999994,-78.33256467352709
-0.39370000000000005,-79.25212701843935
-0.39469999999999994,-79.73312886039348
-0.39570000000000005,-79.94533555537322
-0.39669999999999994,-80.56780852731384
-0.39770000000000005,-81.47322375922747
-0.39869999999999994,-82.47766878213164
-0.39970000000000006,-83.18502443206415
-0.40069999999999995,-83.75090895201016
-0.40170000000000006,-84.04799832498183
-0.40269999999999995,-84.57144150593189
-0.40370000000000006,-85.44856251184822
-0.40469999999999995,-86.49544887374834
-0.40570000000000006,-87.58477657464444
-0.40669999999999995,-88.46189758056073
-0.40770000000000006,-88.9853407615108
-0.40869999999999995,-89.36731281247435
-0.40970000000000006,-89.89075599342443
-0.41069999999999995,-90.89520101632861
-0.41170000000000007,-92.12599984721119
-0.41269999999999996,-93.34265156509512
-0.41370000000000007,-94.47442060498715
-0.41469999999999996,-95.22421759391563
-0.41570000000000007,-95.91742613084948
-0.41669999999999996,-96.83698847576176
-0.41770000000000007,-98.18096421063355
-0.41869999999999996,-99.45420438051207
-0.4197000000000001,-100.40206095142165
-0.42069999999999996,-100.88306279337576
-0.4217000000000001,-101.10941660135417
-0.42269999999999996,-101.40650597432582
-0.4237000000000001,-102.11386162425833
-0.42469999999999997,-103.16074798615847
-0.4257000000000001,-104.2076343480586
-0.42669999999999997,-105.07060824097626
-0.4277000000000001,-105.69308121291688
-0.42869999999999997,-106.2589657328629
-0.4297000000000001,-107.03705694778867
-0.43069999999999997,-108.2537086656726
-0.4317000000000001,-109.654272852539
-0.4327,-111.09727837840134
-0.4337000000000001,-112.14416474030146
-0.4347,-113.06372708521374
-0.4357000000000001,-113.92670097813141
-0.4367,-114.88870466203963
-0.4377000000000001,-116.14779771891952
-0.4387,-117.50592056678994
-0.4397000000000001,-118.55280692869007
-0.4407,-119.24601546562396
-0.4417000000000001,-119.64213462958614
-0.4427,-120.03825379354835
-0.4437000000000001,-120.81634500847414
-0.4447,-121.90567270937021
-0.4457000000000001,-123.17891287924873
-0.4467,-124.22579924114888
-0.4477000000000001,-125.04633179507057
-0.4487,-125.71124610600715
-0.4497000000000001,-126.71569112891132
-0.4507,-128.144549541775
-0.4517000000000001,-129.79976176261712
-0.4527,-131.32764996647134
-0.4537000000000001,-132.47356611936203
-0.4547,-133.2516573342878
-0.4557000000000001,-133.9873072102176
-0.4567,-135.03419357211774
-0.4577000000000001,-136.43475775898415
-0.4587,-137.83532194585052
-0.4597000000000001,-138.88220830775063
-0.4607,-139.53297550568857
-0.4617000000000001,-139.9290946696508
-0.4627,-140.45253785060083
-0.4637000000000001,-141.2306290655266
-0.4647,-142.31995676642268
-0.4657000000000001,-143.5931969363012
-0.4667,-144.72496597619326
-0.4677000000000001,-145.57379275611228
-0.4687,-146.28114840604482
-0.4697000000000001,-147.27144631595033
-0.4707,-148.68615761581535
-0.4717000000000001,-150.5252823056399
-0.4727,-152.22293586547795
-0.4737000000000001,-153.63764716534297
-0.4747,-154.3450028152755
-0.4757000000000001,-154.9108873352215
-0.4767,-155.75971411514055
-0.4777000000000001,-156.89148315503257
-0.4787,-158.1647233249111
-0.4797000000000001,-159.29649236480313
-0.4807,-159.86237688474912
-0.48170000000000013,-160.28679027470866
-0.4827,-160.99414592464117
-0.48370000000000013,-162.12591496453322
-0.4847,-163.82356852437124
-0.48570000000000013,-165.6626932141958
-0.4867,-165.8041643441823
-0.48570000000000013,-163.39915513441173
-0.4847,-160.8526747946547
-0.48370000000000013,-158.73060784485713
-0.4827,-157.17442541500557
-0.48170000000000013,-155.90118524512707
-0.4807,-154.6279450752485
-0.4797000000000001,-153.07176264539694
-0.4787,-151.37410908555893
-0.4777000000000001,-149.6764555257209
-0.4767,-148.40321535584232
-0.4757000000000001,-147.4129174459368
-0.4747,-146.7055617960043
-0.4737000000000001,-145.7152638860988
-0.4727,-144.15908145624724
-0.4717000000000001,-142.4614278964092
-0.4707,-140.70718588457655
-0.4697000000000001,-139.44809282769666
-0.4687,-138.52853048278442
-0.4677000000000001,-137.6089681378721
-0.4667,-136.51964043697603
