Jan. 8, 2025   09:34:20
Cyclic Voltammetry
File: c:/users/guazh/data/banditlqround7_x0exp772_r5/2025-01-07-exp796\exp796-2025-01-08t09_22_04-arkoh\exp796_cv_sr_800mvs_efin_-1500mv.bin
Data Source:  Experiment
Instrument Model:  CHI760E
Header: CV ran at 800 mVs
Note: 

Init E (V) = -1
High E (V) = -1
Low E (V) = -1.5
Final E (V) = -1
Init P/N = N
Scan Rate (V/s) = 0.8
Segment = 3
Sample Interval (V) = 0.001
Quiet Time (sec) = 2
Sensitivity (A/V) = 0.01
Comp R (ohm) = 1.5

Results:

Channel 1:
Segment 1:

Segment 2:

Segment 3:

Potential/V, Current/A

-1.000, -6.151e-5
-1.001, 4.640e-5
-1.002, 1.481e-4
-1.003, 2.406e-4
-1.004, 3.424e-4
-1.005, 4.441e-4
-1.006, 5.459e-4
-1.007, 6.414e-4
-1.008, 7.278e-4
-1.009, 8.079e-4
-1.010, 8.788e-4
-1.011, 9.374e-4
-1.012, 9.868e-4
-1.013, 1.033e-3
-1.014, 1.064e-3
-1.015, 1.107e-3
-1.016, 1.144e-3
-1.017, 1.196e-3
-1.018, 1.249e-3
-1.019, 1.301e-3
-1.020, 1.354e-3
-1.021, 1.406e-3
-1.022, 1.452e-3
-1.023, 1.495e-3
-1.024, 1.520e-3
-1.025, 1.545e-3
-1.026, 1.566e-3
-1.027, 1.576e-3
-1.028, 1.597e-3
-1.029, 1.613e-3
-1.030, 1.640e-3
-1.031, 1.671e-3
-1.032, 1.711e-3
-1.033, 1.745e-3
-1.034, 1.791e-3
-1.035, 1.819e-3
-1.036, 1.853e-3
-1.037, 1.865e-3
-1.038, 1.878e-3
-1.039, 1.884e-3
-1.040, 1.887e-3
-1.041, 1.887e-3
-1.042, 1.896e-3
-1.043, 1.902e-3
-1.044, 1.921e-3
-1.045, 1.946e-3
-1.046, 1.970e-3
-1.047, 2.004e-3
-1.048, 2.026e-3
-1.049, 2.047e-3
-1.050, 2.057e-3
-1.051, 2.066e-3
-1.052, 2.069e-3
-1.053, 2.066e-3
-1.054, 2.054e-3
-1.055, 2.057e-3
-1.056, 2.057e-3
-1.057, 2.072e-3
-1.058, 2.087e-3
-1.059, 2.106e-3
-1.060, 2.128e-3
-1.061, 2.146e-3
-1.062, 2.164e-3
-1.063, 2.171e-3
-1.064, 2.174e-3
-1.065, 2.168e-3
-1.066, 2.158e-3
-1.067, 2.146e-3
-1.068, 2.143e-3
-1.069, 2.137e-3
-1.070, 2.143e-3
-1.071, 2.152e-3
-1.072, 2.164e-3
-1.073, 2.183e-3
-1.074, 2.208e-3
-1.075, 2.223e-3
-1.076, 2.238e-3
-1.077, 2.238e-3
-1.078, 2.238e-3
-1.079, 2.232e-3
-1.080, 2.220e-3
-1.081, 2.214e-3
-1.082, 2.208e-3
-1.083, 2.205e-3
-1.084, 2.211e-3
-1.085, 2.223e-3
-1.086, 2.242e-3
-1.087, 2.263e-3
-1.088, 2.275e-3
-1.089, 2.285e-3
-1.090, 2.288e-3
-1.091, 2.285e-3
-1.092, 2.279e-3
-1.093, 2.266e-3
-1.094, 2.248e-3
-1.095, 2.245e-3
-1.096, 2.238e-3
-1.097, 2.242e-3
-1.098, 2.251e-3
-1.099, 2.263e-3
-1.100, 2.282e-3
-1.101, 2.294e-3
-1.102, 2.306e-3
-1.103, 2.312e-3
-1.104, 2.309e-3
-1.105, 2.303e-3
-1.106, 2.291e-3
-1.107, 2.279e-3
-1.108, 2.269e-3
-1.109, 2.263e-3
-1.110, 2.266e-3
-1.111, 2.275e-3
-1.112, 2.291e-3
-1.113, 2.306e-3
-1.114, 2.331e-3
-1.115, 2.343e-3
-1.116, 2.359e-3
-1.117, 2.356e-3
-1.118, 2.346e-3
-1.119, 2.337e-3
-1.120, 2.325e-3
-1.121, 2.316e-3
-1.122, 2.309e-3
-1.123, 2.303e-3
-1.124, 2.309e-3
-1.125, 2.325e-3
-1.126, 2.343e-3
-1.127, 2.365e-3
-1.128, 2.377e-3
-1.129, 2.393e-3
-1.130, 2.396e-3
-1.131, 2.390e-3
-1.132, 2.383e-3
-1.133, 2.374e-3
-1.134, 2.356e-3
-1.135, 2.349e-3
-1.136, 2.343e-3
-1.137, 2.356e-3
-1.138, 2.365e-3
-1.139, 2.380e-3
-1.140, 2.396e-3
-1.141, 2.414e-3
-1.142, 2.427e-3
-1.143, 2.433e-3
-1.144, 2.427e-3
-1.145, 2.420e-3
-1.146, 2.408e-3
-1.147, 2.393e-3
-1.148, 2.383e-3
-1.149, 2.374e-3
-1.150, 2.377e-3
-1.151, 2.386e-3
-1.152, 2.399e-3
-1.153, 2.414e-3
-1.154, 2.439e-3
-1.155, 2.451e-3
-1.156, 2.467e-3
-1.157, 2.464e-3
-1.158, 2.460e-3
-1.159, 2.451e-3
-1.160, 2.439e-3
-1.161, 2.430e-3
-1.162, 2.423e-3
-1.163, 2.420e-3
-1.164, 2.427e-3
-1.165, 2.439e-3
-1.166, 2.454e-3
-1.167, 2.479e-3
-1.168, 2.488e-3
-1.169, 2.501e-3
-1.170, 2.504e-3
-1.171, 2.504e-3
-1.172, 2.497e-3
-1.173, 2.488e-3
-1.174, 2.464e-3
-1.175, 2.451e-3
-1.176, 2.442e-3
-1.177, 2.454e-3
-1.178, 2.467e-3
-1.179, 2.485e-3
-1.180, 2.510e-3
-1.181, 2.531e-3
-1.182, 2.553e-3
-1.183, 2.562e-3
-1.184, 2.568e-3
-1.185, 2.568e-3
-1.186, 2.562e-3
-1.187, 2.547e-3
-1.188, 2.544e-3
-1.189, 2.541e-3
-1.190, 2.547e-3
-1.191, 2.556e-3
-1.192, 2.571e-3
-1.193, 2.587e-3
-1.194, 2.608e-3
-1.195, 2.615e-3
-1.196, 2.627e-3
-1.197, 2.618e-3
-1.198, 2.605e-3
-1.199, 2.590e-3
-1.200, 2.559e-3
-1.201, 2.544e-3
-1.202, 2.528e-3
-1.203, 2.513e-3
-1.204, 2.510e-3
-1.205, 2.519e-3
-1.206, 2.528e-3
-1.207, 2.547e-3
-1.208, 2.556e-3
-1.209, 2.565e-3
-1.210, 2.565e-3
-1.211, 2.565e-3
-1.212, 2.559e-3
-1.213, 2.553e-3
-1.214, 2.544e-3
-1.215, 2.550e-3
-1.216, 2.559e-3
-1.217, 2.575e-3
-1.218, 2.602e-3
-1.219, 2.627e-3
-1.220, 2.658e-3
-1.221, 2.679e-3
-1.222, 2.701e-3
-1.223, 2.713e-3
-1.224, 2.716e-3
-1.225, 2.710e-3
-1.226, 2.704e-3
-1.227, 2.689e-3
-1.228, 2.689e-3
-1.229, 2.686e-3
-1.230, 2.692e-3
-1.231, 2.707e-3
-1.232, 2.723e-3
-1.233, 2.738e-3
-1.234, 2.760e-3
-1.235, 2.769e-3
-1.236, 2.784e-3
-1.237, 2.778e-3
-1.238, 2.769e-3
-1.239, 2.763e-3
-1.240, 2.753e-3
-1.241, 2.744e-3
-1.242, 2.741e-3
-1.243, 2.738e-3
-1.244, 2.744e-3
-1.245, 2.756e-3
-1.246, 2.772e-3
-1.247, 2.787e-3
-1.248, 2.790e-3
-1.249, 2.800e-3
-1.250, 2.800e-3
-1.251, 2.793e-3
-1.252, 2.781e-3
-1.253, 2.772e-3
-1.254, 2.760e-3
-1.255, 2.760e-3
-1.256, 2.756e-3
-1.257, 2.772e-3
-1.258, 2.787e-3
-1.259, 2.806e-3
-1.260, 2.827e-3
-1.261, 2.846e-3
-1.262, 2.871e-3
-1.263, 2.880e-3
-1.264, 2.886e-3
-1.265, 2.892e-3
-1.266, 2.892e-3
-1.267, 2.886e-3
-1.268, 2.892e-3
-1.269, 2.892e-3
-1.270, 2.911e-3
-1.271, 2.929e-3
-1.272, 2.948e-3
-1.273, 2.969e-3
-1.274, 3.000e-3
-1.275, 3.019e-3
-1.276, 3.037e-3
-1.277, 3.037e-3
-1.278, 3.037e-3
-1.279, 3.034e-3
-1.280, 3.025e-3
-1.281, 3.022e-3
-1.282, 3.019e-3
-1.283, 3.022e-3
-1.284, 3.031e-3
-1.285, 3.049e-3
-1.286, 3.071e-3
-1.287, 3.102e-3
-1.288, 3.117e-3
-1.289, 3.139e-3
-1.290, 3.145e-3
-1.291, 3.148e-3
-1.292, 3.148e-3
-1.293, 3.142e-3
-1.294, 3.126e-3
-1.295, 3.123e-3
-1.296, 3.120e-3
-1.297, 3.130e-3
-1.298, 3.145e-3
-1.299, 3.163e-3
-1.300, 3.185e-3
-1.301, 3.204e-3
-1.302, 3.222e-3
-1.303, 3.228e-3
-1.304, 3.234e-3
-1.305, 3.237e-3
-1.306, 3.234e-3
-1.307, 3.225e-3
-1.308, 3.228e-3
-1.309, 3.234e-3
-1.310, 3.250e-3
-1.311, 3.271e-3
-1.312, 3.299e-3
-1.313, 3.327e-3
-1.314, 3.364e-3
-1.315, 3.388e-3
-1.316, 3.419e-3
-1.317, 3.435e-3
-1.318, 3.444e-3
-1.319, 3.450e-3
-1.320, 3.447e-3
-1.321, 3.456e-3
-1.322, 3.462e-3
-1.323, 3.475e-3
-1.324, 3.496e-3
-1.325, 3.524e-3
-1.326, 3.558e-3
-1.327, 3.598e-3
-1.328, 3.623e-3
-1.329, 3.654e-3
-1.330, 3.672e-3
-1.331, 3.688e-3
-1.332, 3.694e-3
-1.333, 3.700e-3
-1.334, 3.700e-3
-1.335, 3.715e-3
-1.336, 3.728e-3
-1.337, 3.749e-3
-1.338, 3.783e-3
-1.339, 3.820e-3
-1.340, 3.860e-3
-1.341, 3.891e-3
-1.342, 3.925e-3
-1.343, 3.947e-3
-1.344, 3.968e-3
-1.345, 3.980e-3
-1.346, 3.984e-3
-1.347, 3.984e-3
-1.348, 3.996e-3
-1.349, 4.002e-3
-1.350, 4.027e-3
-1.351, 4.058e-3
-1.352, 4.091e-3
-1.353, 4.132e-3
-1.354, 4.172e-3
-1.355, 4.209e-3
-1.356, 4.249e-3
-1.357, 4.273e-3
-1.358, 4.289e-3
-1.359, 4.304e-3
-1.360, 4.323e-3
-1.361, 4.344e-3
-1.362, 4.363e-3
-1.363, 4.391e-3
-1.364, 4.428e-3
-1.365, 4.474e-3
-1.366, 4.520e-3
-1.367, 4.575e-3
-1.368, 4.619e-3
-1.369, 4.662e-3
-1.370, 4.696e-3
-1.371, 4.717e-3
-1.372, 4.742e-3
-1.373, 4.760e-3
-1.374, 4.773e-3
-1.375, 4.797e-3
-1.376, 4.819e-3
-1.377, 4.856e-3
-1.378, 4.896e-3
-1.379, 4.942e-3
-1.380, 4.998e-3
-1.381, 5.047e-3
-1.382, 5.097e-3
-1.383, 5.134e-3
-1.384, 5.167e-3
-1.385, 5.195e-3
-1.386, 5.223e-3
-1.387, 5.245e-3
-1.388, 5.269e-3
-1.389, 5.297e-3
-1.390, 5.337e-3
-1.391, 5.383e-3
-1.392, 5.426e-3
-1.393, 5.473e-3
-1.394, 5.528e-3
-1.395, 5.574e-3
-1.396, 5.627e-3
-1.397, 5.661e-3
-1.398, 5.698e-3
-1.399, 5.738e-3
-1.400, 5.772e-3
-1.401, 5.812e-3
-1.402, 5.849e-3
-1.403, 5.892e-3
-1.404, 5.941e-3
-1.405, 5.994e-3
-1.406, 6.055e-3
-1.407, 6.126e-3
-1.408, 6.188e-3
-1.409, 6.250e-3
-1.410, 6.302e-3
-1.411, 6.358e-3
-1.412, 6.410e-3
-1.413, 6.459e-3
-1.414, 6.496e-3
-1.415, 6.546e-3
-1.416, 6.586e-3
-1.417, 6.638e-3
-1.418, 6.691e-3
-1.419, 6.752e-3
-1.420, 6.817e-3
-1.421, 6.872e-3
-1.422, 6.919e-3
-1.423, 6.956e-3
-1.424, 6.993e-3
-1.425, 7.023e-3
-1.426, 7.051e-3
-1.427, 7.070e-3
-1.428, 7.104e-3
-1.429, 7.138e-3
-1.430, 7.190e-3
-1.431, 7.242e-3
-1.432, 7.307e-3
-1.433, 7.378e-3
-1.434, 7.458e-3
-1.435, 7.523e-3
-1.436, 7.597e-3
-1.437, 7.665e-3
-1.438, 7.730e-3
-1.439, 7.794e-3
-1.440, 7.856e-3
-1.441, 7.927e-3
-1.442, 7.995e-3
-1.443, 8.066e-3
-1.444, 8.140e-3
-1.445, 8.226e-3
-1.446, 8.312e-3
-1.447, 8.408e-3
-1.448, 8.482e-3
-1.449, 8.559e-3
-1.450, 8.614e-3
-1.451, 8.667e-3
-1.452, 8.707e-3
-1.453, 8.750e-3
-1.454, 8.787e-3
-1.455, 8.830e-3
-1.456, 8.873e-3
-1.457, 8.923e-3
-1.458, 8.987e-3
-1.459, 9.052e-3
-1.460, 9.123e-3
-1.461, 9.185e-3
-1.462, 9.253e-3
-1.463, 9.311e-3
-1.464, 9.367e-3
-1.465, 9.425e-3
-1.466, 9.478e-3
-1.467, 9.527e-3
-1.468, 9.589e-3
-1.469, 9.647e-3
-1.470, 9.721e-3
-1.471, 9.801e-3
-1.472, 9.882e-3
-1.473, 9.968e-3
-1.474, 1.005e-2
-1.475, 1.013e-2
-1.476, 1.021e-2
-1.477, 1.028e-2
-1.478, 1.034e-2
-1.479, 1.040e-2
-1.480, 1.046e-2
-1.481, 1.053e-2
-1.482, 1.059e-2
-1.483, 1.066e-2
-1.484, 1.074e-2
-1.485, 1.082e-2
-1.486, 1.091e-2
-1.487, 1.099e-2
-1.488, 1.107e-2
-1.489, 1.115e-2
-1.490, 1.122e-2
-1.491, 1.129e-2
-1.492, 1.136e-2
-1.493, 1.143e-2
-1.494, 1.150e-2
-1.495, 1.157e-2
-1.496, 1.164e-2
-1.497, 1.172e-2
-1.498, 1.180e-2
-1.499, 1.188e-2
-1.500, 1.188e-2
-1.499, 1.173e-2
-1.498, 1.159e-2
-1.497, 1.144e-2
-1.496, 1.131e-2
-1.495, 1.118e-2
-1.494, 1.105e-2
-1.493, 1.092e-2
-1.492, 1.080e-2
-1.491, 1.068e-2
-1.490, 1.059e-2
-1.489, 1.050e-2
-1.488, 1.041e-2
-1.487, 1.033e-2
-1.486, 1.025e-2
-1.485, 1.017e-2
-1.484, 1.009e-2
-1.483, 1.000e-2
-1.482, 9.912e-3
-1.481, 9.817e-3
-1.480, 9.715e-3
-1.479, 9.613e-3
-1.478, 9.515e-3
-1.477, 9.422e-3
-1.476, 9.333e-3
-1.475, 9.253e-3
-1.474, 9.169e-3
-1.473, 9.098e-3
-1.472, 9.015e-3
-1.471, 8.932e-3
-1.470, 8.846e-3
-1.469, 8.756e-3
-1.468, 8.664e-3
-1.467, 8.571e-3
-1.466, 8.473e-3
-1.465, 8.389e-3
-1.464, 8.306e-3
-1.463, 8.232e-3
-1.462, 8.164e-3
-1.461, 8.099e-3
-1.460, 8.041e-3
-1.459, 7.970e-3
-1.458, 7.899e-3
-1.457, 7.816e-3
-1.456, 7.736e-3
-1.455, 7.649e-3
-1.454, 7.557e-3
-1.453, 7.455e-3
-1.452, 7.363e-3
-1.451, 7.270e-3
-1.450, 7.193e-3
-1.449, 7.116e-3
-1.448, 7.054e-3
-1.447, 6.990e-3
-1.446, 6.931e-3
-1.445, 6.869e-3
-1.444, 6.805e-3
-1.443, 6.734e-3
-1.442, 6.654e-3
-1.441, 6.567e-3
-1.440, 6.478e-3
-1.439, 6.401e-3
-1.438, 6.321e-3
-1.437, 6.250e-3
-1.436, 6.182e-3
-1.435, 6.126e-3
-1.434, 6.071e-3
-1.433, 6.018e-3
-1.432, 5.960e-3
-1.431, 5.898e-3
-1.430, 5.824e-3
-1.429, 5.744e-3
-1.428, 5.658e-3
-1.427, 5.571e-3
-1.426, 5.485e-3
-1.425, 5.405e-3
-1.424, 5.328e-3
-1.423, 5.257e-3
-1.422, 5.201e-3
-1.421, 5.149e-3
-1.420, 5.103e-3
-1.419, 5.050e-3
-1.418, 4.998e-3
-1.417, 4.933e-3
-1.416, 4.868e-3
-1.415, 4.791e-3
-1.414, 4.717e-3
-1.413, 4.634e-3
-1.412, 4.566e-3
-1.411, 4.492e-3
-1.410, 4.437e-3
-1.409, 4.384e-3
-1.408, 4.335e-3
-1.407, 4.289e-3
-1.406, 4.236e-3
-1.405, 4.187e-3
-1.404, 4.128e-3
-1.403, 4.064e-3
-1.402, 3.990e-3
-1.401, 3.913e-3
-1.400, 3.832e-3
-1.399, 3.765e-3
-1.398, 3.691e-3
-1.397, 3.632e-3
-1.396, 3.580e-3
-1.395, 3.530e-3
-1.394, 3.481e-3
-1.393, 3.444e-3
-1.392, 3.395e-3
-1.391, 3.345e-3
-1.390, 3.281e-3
-1.389, 3.210e-3
-1.388, 3.139e-3
-1.387, 3.065e-3
-1.386, 2.991e-3
-1.385, 2.923e-3
-1.384, 2.861e-3
-1.383, 2.806e-3
-1.382, 2.760e-3
-1.381, 2.716e-3
-1.380, 2.676e-3
-1.379, 2.630e-3
-1.378, 2.587e-3
-1.377, 2.531e-3
-1.376, 2.476e-3
-1.375, 2.414e-3
-1.374, 2.353e-3
-1.373, 2.279e-3
-1.372, 2.217e-3
-1.371, 2.155e-3
-1.370, 2.112e-3
-1.369, 2.069e-3
-1.368, 2.029e-3
-1.367, 1.992e-3
-1.366, 1.961e-3
-1.365, 1.921e-3
-1.364, 1.878e-3
-1.363, 1.822e-3
-1.362, 1.764e-3
-1.361, 1.702e-3
-1.360, 1.631e-3
-1.359, 1.573e-3
-1.358, 1.511e-3
-1.357, 1.465e-3
-1.356, 1.421e-3
-1.355, 1.381e-3
-1.354, 1.344e-3
-1.353, 1.320e-3
-1.352, 1.283e-3
-1.351, 1.249e-3
-1.350, 1.199e-3
-1.349, 1.147e-3
-1.348, 1.088e-3
-1.347, 1.027e-3
-1.346, 9.683e-4
-1.345, 9.158e-4
-1.344, 8.665e-4
-1.343, 8.233e-4
-1.342, 7.894e-4
-1.341, 7.617e-4
-1.340, 7.370e-4
-1.339, 7.093e-4
-1.338, 6.723e-4
-1.337, 6.291e-4
-1.336, 5.829e-4
-1.335, 5.335e-4
-1.334, 4.780e-4
-1.333, 4.164e-4
-1.332, 3.670e-4
-1.331, 3.177e-4
-1.330, 2.869e-4
-1.329, 2.530e-4
-1.328, 2.252e-4
-1.327, 2.036e-4
-1.326, 1.790e-4
-1.325, 1.481e-4
-1.324, 1.173e-4
-1.323, 8.032e-5
-1.322, 3.407e-5
-1.321, -1.834e-5
-1.320, -7.384e-5
-1.319, -1.170e-4
-1.318, -1.632e-4
-1.317, -1.972e-4
-1.316, -2.280e-4
-1.315, -2.527e-4
-1.314, -2.742e-4
-1.313, -2.866e-4
-1.312, -3.143e-4
-1.311, -3.359e-4
-1.310, -3.729e-4
-1.309, -4.130e-4
-1.308, -4.592e-4
-1.307, -5.086e-4
-1.306, -5.486e-4
-1.305, -5.887e-4
-1.304, -6.257e-4
-1.303, -6.565e-4
-1.302, -6.750e-4
-1.301, -6.905e-4
-1.300, -6.997e-4
-1.299, -7.213e-4
-1.298, -7.367e-4
-1.297, -7.706e-4
-1.296, -8.015e-4
-1.295, -8.446e-4
-1.294, -8.816e-4
-1.293, -9.309e-4
-1.292, -9.679e-4
-1.291, -1.008e-3
-1.290, -1.030e-3
-1.289, -1.045e-3
-1.288, -1.057e-3
-1.287, -1.070e-3
-1.286, -1.085e-3
-1.285, -1.097e-3
-1.284, -1.116e-3
-1.283, -1.147e-3
-1.282, -1.181e-3
-1.281, -1.218e-3
-1.280, -1.261e-3
-1.279, -1.292e-3
-1.278, -1.329e-3
-1.277, -1.350e-3
-1.276, -1.363e-3
-1.275, -1.375e-3
-1.274, -1.384e-3
-1.273, -1.384e-3
-1.272, -1.396e-3
-1.271, -1.406e-3
-1.270, -1.430e-3
-1.269, -1.464e-3
-1.268, -1.492e-3
-1.267, -1.529e-3
-1.266, -1.563e-3
-1.265, -1.594e-3
-1.264, -1.612e-3
-1.263, -1.628e-3
-1.262, -1.634e-3
-1.261, -1.637e-3
-1.260, -1.634e-3
-1.259, -1.640e-3
-1.258, -1.646e-3
-1.257, -1.668e-3
-1.256, -1.689e-3
-1.255, -1.714e-3
-1.254, -1.742e-3
-1.253, -1.773e-3
-1.252, -1.800e-3
-1.251, -1.825e-3
-1.250, -1.831e-3
-1.249, -1.834e-3
-1.248, -1.840e-3
-1.247, -1.837e-3
-1.246, -1.840e-3
-1.245, -1.847e-3
-1.244, -1.859e-3
-1.243, -1.881e-3
-1.242, -1.902e-3
-1.241, -1.930e-3
-1.240, -1.964e-3
-1.239, -1.985e-3
-1.238, -2.007e-3
-1.237, -2.016e-3
-1.236, -2.022e-3
-1.235, -2.025e-3
-1.234, -2.022e-3
-1.233, -2.013e-3
-1.232, -2.019e-3
-1.231, -2.019e-3
-1.230, -2.032e-3
-1.229, -2.053e-3
-1.228, -2.075e-3
-1.227, -2.099e-3
-1.226, -2.121e-3
-1.225, -2.136e-3
-1.224, -2.146e-3
-1.223, -2.155e-3
-1.222, -2.155e-3
-1.221, -2.152e-3
-1.220, -2.140e-3
-1.219, -2.143e-3
-1.218, -2.146e-3
-1.217, -2.158e-3
-1.216, -2.167e-3
-1.215, -2.189e-3
-1.214, -2.207e-3
-1.213, -2.232e-3
-1.212, -2.247e-3
-1.211, -2.260e-3
-1.210, -2.263e-3
-1.209, -2.263e-3
-1.208, -2.257e-3
-1.207, -2.244e-3
-1.206, -2.241e-3
-1.205, -2.235e-3
-1.204, -2.232e-3
-1.203, -2.238e-3
-1.202, -2.247e-3
-1.201, -2.266e-3
-1.200, -2.284e-3
-1.199, -2.297e-3
-1.198, -2.312e-3
-1.197, -2.318e-3
-1.196, -2.318e-3
-1.195, -2.312e-3
-1.194, -2.309e-3
-1.193, -2.300e-3
-1.192, -2.303e-3
-1.191, -2.303e-3
-1.190, -2.315e-3
-1.189, -2.337e-3
-1.188, -2.365e-3
-1.187, -2.389e-3
-1.186, -2.411e-3
-1.185, -2.429e-3
-1.184, -2.445e-3
-1.183, -2.448e-3
-1.182, -2.445e-3
-1.181, -2.436e-3
-1.180, -2.420e-3
-1.179, -2.411e-3
-1.178, -2.399e-3
-1.177, -2.402e-3
-1.176, -2.405e-3
-1.175, -2.411e-3
-1.174, -2.417e-3
-1.173, -2.432e-3
-1.172, -2.439e-3
-1.171, -2.445e-3
-1.170, -2.439e-3
-1.169, -2.426e-3
-1.168, -2.411e-3
-1.167, -2.399e-3
-1.166, -2.386e-3
-1.165, -2.374e-3
-1.164, -2.371e-3
-1.163, -2.374e-3
-1.162, -2.386e-3
-1.161, -2.399e-3
-1.160, -2.417e-3
-1.159, -2.429e-3
-1.158, -2.451e-3
-1.157, -2.454e-3
-1.156, -2.457e-3
-1.155, -2.454e-3
-1.154, -2.451e-3
-1.153, -2.436e-3
-1.152, -2.439e-3
-1.151, -2.432e-3
-1.150, -2.442e-3
-1.149, -2.460e-3
-1.148, -2.479e-3
-1.147, -2.497e-3
-1.146, -2.513e-3
-1.145, -2.525e-3
-1.144, -2.534e-3
-1.143, -2.534e-3
-1.142, -2.525e-3
-1.141, -2.519e-3
-1.140, -2.497e-3
-1.139, -2.491e-3
-1.138, -2.485e-3
-1.137, -2.488e-3
-1.136, -2.491e-3
-1.135, -2.503e-3
-1.134, -2.516e-3
-1.133, -2.534e-3
-1.132, -2.550e-3
-1.131, -2.559e-3
-1.130, -2.553e-3
-1.129, -2.546e-3
-1.128, -2.534e-3
-1.127, -2.516e-3
-1.126, -2.506e-3
-1.125, -2.491e-3
-1.124, -2.494e-3
-1.123, -2.497e-3
-1.122, -2.506e-3
-1.121, -2.519e-3
-1.120, -2.540e-3
-1.119, -2.550e-3
-1.118, -2.559e-3
-1.117, -2.556e-3
-1.116, -2.546e-3
-1.115, -2.534e-3
-1.114, -2.519e-3
-1.113, -2.497e-3
-1.112, -2.488e-3
-1.111, -2.479e-3
-1.110, -2.479e-3
-1.109, -2.488e-3
-1.108, -2.500e-3
-1.107, -2.525e-3
-1.106, -2.537e-3
-1.105, -2.553e-3
-1.104, -2.559e-3
-1.103, -2.565e-3
-1.102, -2.559e-3
-1.101, -2.550e-3
-1.100, -2.534e-3
-1.099, -2.534e-3
-1.098, -2.534e-3
-1.097, -2.543e-3
-1.096, -2.553e-3
-1.095, -2.571e-3
-1.094, -2.593e-3
-1.093, -2.614e-3
-1.092, -2.627e-3
-1.091, -2.636e-3
-1.090, -2.639e-3
-1.089, -2.630e-3
-1.088, -2.617e-3
-1.087, -2.602e-3
-1.086, -2.593e-3
-1.085, -2.583e-3
-1.084, -2.587e-3
-1.083, -2.590e-3
-1.082, -2.602e-3
-1.081, -2.620e-3
-1.080, -2.642e-3
-1.079, -2.651e-3
-1.078, -2.667e-3
-1.077, -2.667e-3
-1.076, -2.664e-3
-1.075, -2.654e-3
-1.074, -2.645e-3
-1.073, -2.633e-3
-1.072, -2.630e-3
-1.071, -2.624e-3
-1.070, -2.633e-3
-1.069, -2.648e-3
-1.068, -2.664e-3
-1.067, -2.688e-3
-1.066, -2.701e-3
-1.065, -2.716e-3
-1.064, -2.722e-3
-1.063, -2.725e-3
-1.062, -2.719e-3
-1.061, -2.713e-3
-1.060, -2.698e-3
-1.059, -2.698e-3
-1.058, -2.688e-3
-1.057, -2.698e-3
-1.056, -2.713e-3
-1.055, -2.728e-3
-1.054, -2.750e-3
-1.053, -2.775e-3
-1.052, -2.790e-3
-1.051, -2.805e-3
-1.050, -2.809e-3
-1.049, -2.805e-3
-1.048, -2.796e-3
-1.047, -2.784e-3
-1.046, -2.778e-3
-1.045, -2.772e-3
-1.044, -2.778e-3
-1.043, -2.787e-3
-1.042, -2.802e-3
-1.041, -2.818e-3
-1.040, -2.839e-3
-1.039, -2.852e-3
-1.038, -2.870e-3
-1.037, -2.867e-3
-1.036, -2.864e-3
-1.035, -2.855e-3
-1.034, -2.849e-3
-1.033, -2.833e-3
-1.032, -2.830e-3
-1.031, -2.824e-3
-1.030, -2.839e-3
-1.029, -2.852e-3
-1.028, -2.873e-3
-1.027, -2.898e-3
-1.026, -2.916e-3
-1.025, -2.932e-3
-1.024, -2.941e-3
-1.023, -2.947e-3
-1.022, -2.944e-3
-1.021, -2.944e-3
-1.020, -2.929e-3
-1.019, -2.932e-3
-1.018, -2.932e-3
-1.017, -2.947e-3
-1.016, -2.966e-3
-1.015, -2.984e-3
-1.014, -3.009e-3
-1.013, -3.040e-3
-1.012, -3.061e-3
-1.011, -3.077e-3
-1.010, -3.086e-3
-1.009, -3.089e-3
-1.008, -3.086e-3
-1.007, -3.077e-3
-1.006, -3.077e-3
-1.005, -3.077e-3
-1.004, -3.092e-3
-1.003, -3.101e-3
-1.002, -3.123e-3
-1.001, -3.145e-3
