Potential V vs RHE, Current mA cm-2
0.4132999999999999,0.0005068910587416426
0.4122999999999999,-0.0012907825899968596
0.4112999999999999,-0.001779706815230216
0.4102999999999999,-0.002051331384804303
0.4092999999999999,-0.002274855770182979
0.4082999999999999,-0.0024573535278655688
0.4072999999999999,-0.002621460038649913
0.4062999999999999,-0.002811031352831828
0.4052999999999999,-0.002970893729716577
0.4042999999999999,-0.0031406590857003813
0.4032999999999999,-0.0032793007930871547
0.4022999999999999,-0.0034165277891740633
0.4012999999999999,-0.0035749754547589473
0.4002999999999999,-0.00369381120394761
0.3992999999999999,-0.0038678206938310106
0.3982999999999999,-0.004003632978618054
0.3972999999999999,-0.004104077480908471
0.3962999999999999,-0.004256866301293895
0.3952999999999999,-0.0043530666696847175
0.3942999999999999,-0.004478975975372706
0.39329999999999987,-0.00461761768275948
0.39229999999999987,-0.004710988628550571
0.39129999999999987,-0.00482275082123991
0.39029999999999987,-0.0049486601269278984
0.38929999999999987,-0.0050392016501192615
0.38829999999999987,-0.005175013934906304
0.38729999999999987,-0.005258481901598342
0.38629999999999987,-0.005391464763785655
0.38529999999999986,-0.005497568111275533
0.38429999999999986,-0.005588109634466895
0.38329999999999986,-0.0056984571158563676
0.38229999999999986,-0.00579748690684692
0.38129999999999986,-0.0058993461204372025
0.38029999999999986,-0.006013937735726271
0.37929999999999986,-0.006118626371916283
0.37829999999999986,-0.006217656162906836
0.37729999999999986,-0.0063110271086979286
0.37629999999999986,-0.006419959878787536
0.37529999999999986,-0.006514745535878493
0.37429999999999986,-0.006613775326869047
0.37329999999999985,-0.006719878674358924
0.37229999999999985,-0.0068118349088501515
0.37129999999999985,-0.006896717586842053
0.37029999999999985,-0.006998576800432336
0.36929999999999985,-0.007086288901023969
0.36829999999999985,-0.007159853888616951
0.36729999999999985,-0.007261713102207234
0.36629999999999985,-0.00736781644969711
0.36529999999999985,-0.007441381437290093
0.36429999999999985,-0.007548899496079835
0.36329999999999985,-0.007628123328872277
0.36229999999999984,-0.00770168831646526
0.36129999999999984,-0.007821938776953788
0.36029999999999984,-0.00790116260974623
0.35929999999999984,-0.008000192400736782
0.35829999999999984,-0.008089319212628279
0.35729999999999984,-0.008155810643721936
0.35629999999999984,-0.008252011012112759
0.35529999999999984,-0.008319917154506282
0.35429999999999984,-0.008427435213296022
0.35329999999999984,-0.008517976736487387
0.35229999999999984,-0.008568906343282527
0.35129999999999983,-0.008673594979472541
0.35029999999999983,-0.008742915833165926
0.34929999999999983,-0.008840530912856614
0.34829999999999983,-0.008946634260346491
0.34729999999999983,-0.00904990818523664
0.34629999999999983,-0.00911498490503043
0.34529999999999983,-0.009191379315223142
0.34429999999999983,-0.009274847281915181
0.3432999999999998,-0.009356900537307353
0.3422999999999998,-0.009416318411901685
0.3412999999999998,-0.009513933491592371
0.3402999999999998,-0.009587498479185353
0.3392999999999998,-0.00966530760067793
0.3382999999999998,-0.00975726383516916
0.3372999999999998,-0.009840731801861194
0.3362999999999998,-0.009904393810355122
0.3352999999999998,-0.01000200889004581
0.3342999999999998,-0.010064256187239872
0.3332999999999998,-0.010134991752233124
0.3322999999999998,-0.010204312605926509
0.3312999999999998,-0.010282121727419087
0.3302999999999998,-0.010358516137611799
0.3292999999999998,-0.01046037535120208
0.3282999999999998,-0.010541013895294387
0.3272999999999998,-0.0106174083054871
0.3262999999999998,-0.010676826180081431
0.3252999999999999,-0.01075463530157401
0.3242999999999999,-0.010825370866567261
0.3232999999999999,-0.010887618163761324
0.3222999999999999,-0.010965427285253898
0.3212999999999999,-0.011067286498844182
0.3202999999999999,-0.011128119084738378
0.3192999999999999,-0.011248369545226906
0.3182999999999999,-0.011304957997221508
0.3172999999999999,-0.01137286413961503
0.3162999999999999,-0.0114549173950072
0.3152999999999999,-0.011500188156602883
0.3142999999999999,-0.011604876792792897
0.3132999999999999,-0.011684100625585338
0.3122999999999999,-0.011722297830681695
0.3112999999999999,-0.011828401178171572
0.3102999999999999,-0.011890648475365634
0.3092999999999999,-0.011996751822855511
0.3082999999999999,-0.012057584408749707
0.3072999999999999,-0.01209153747994647
0.3062999999999999,-0.01219339669353675
0.3052999999999999,-0.012247155722931623
0.3042999999999999,-0.012317891287924874
0.3032999999999999,-0.012412676945015832
0.3022999999999999,-0.0124706801083103
0.3012999999999999,-0.012566880476701122
0.3002999999999999,-0.012627713062595318
0.2992999999999999,-0.012691375071089243
0.2982999999999999,-0.012763525347382362
0.2972999999999999,-0.012821528510676828
0.2962999999999999,-0.012923387724267111
0.2952999999999999,-0.012991293866660631
0.2942999999999999,-0.013076176544652533
0.2932999999999999,-0.01313135028534727
0.2922999999999999,-0.013213403540739443
0.2912999999999999,-0.01327423612663364
0.2902999999999999,-0.013340727557727295
0.2892999999999999,-0.01342278081311947
0.2882999999999999,-0.013486442821613395
0.2872999999999999,-0.013554348964006917
0.2862999999999999,-0.013615181549901115
0.2852999999999999,-0.013695820093993422
0.2842999999999999,-0.013775043926785864
0.2832999999999999,-0.013840120646579654
0.2822999999999999,-0.01389812380987412
0.2812999999999999,-0.013987250621765616
0.2802999999999999,-0.01404949791895968
0.2792999999999999,-0.0141174040613532
0.2782999999999999,-0.014175407224647668
0.2772999999999999,-0.014231995676642267
0.2762999999999999,-0.014345172580631472
0.2752999999999999,-0.014387613919627423
0.2742999999999999,-0.014458349484620674
0.2732999999999999,-0.014529085049613928
0.2722999999999999,-0.014585673501608528
0.2712999999999999,-0.014670556179600431
0.2702999999999999,-0.014741291744593682
0.2692999999999999,-0.014826174422585584
0.26829999999999987,-0.014882762874580187
0.26729999999999987,-0.014925204213576137
0.26629999999999987,-0.01501008689156804
0.26529999999999987,-0.015080822456561293
0.26429999999999987,-0.015165705134553195
0.26329999999999987,-0.015222293586547794
0.26229999999999987,-0.015264734925543746
0.26129999999999987,-0.015335470490536997
0.26029999999999986,-0.015406206055530251
0.25929999999999986,-0.01546279450752485
0.25829999999999986,-0.015547677185516754
0.25729999999999986,-0.015604265637511355
0.25629999999999986,-0.015660854089505957
0.25529999999999986,-0.01573158965449921
0.25429999999999986,-0.015774030993495156
0.25329999999999986,-0.01584476655848841
0.25229999999999986,-0.015901355010483013
0.25129999999999986,-0.01597209057547626
0.25029999999999986,-0.016042826140469518
0.24929999999999986,-0.01611356170546277
0.24829999999999985,-0.01615600304445872
0.24729999999999985,-0.016226738609451972
0.24629999999999985,-0.016283327061446574
0.24529999999999985,-0.01638235685243712
0.24429999999999985,-0.016438945304431726
0.24329999999999985,-0.01648138664342768
0.24229999999999985,-0.016552122208420932
0.24129999999999985,-0.016637004886412832
0.24029999999999985,-0.016679446225408782
0.23929999999999985,-0.016750181790402035
0.23829999999999985,-0.016820917355395284
0.23729999999999984,-0.016863358694391237
0.23629999999999984,-0.016948241372383138
0.23529999999999984,-0.01699068271137909
0.23429999999999984,-0.01706141827637234
0.23329999999999984,-0.017118006728366945
0.23229999999999984,-0.017188742293360197
0.23129999999999984,-0.017259477858353446
0.23029999999999984,-0.0173302134233467
0.22929999999999984,-0.0173868018753413
0.22829999999999984,-0.017457537440334552
0.22729999999999984,-0.01748583166633185
0.22629999999999983,-0.017570714344323755
0.22529999999999983,-0.017627302796318356
0.22429999999999983,-0.01768389124831296
0.22329999999999983,-0.01774047970030756
0.22229999999999983,-0.017797068152302163
0.22129999999999983,-0.01785365660429676
0.22029999999999983,-0.017952686395287316
0.21929999999999983,-0.017995127734283266
0.21829999999999983,-0.018051716186277867
0.21729999999999983,-0.018108304638272472
0.21629999999999983,-0.01817904020326572
0.21529999999999982,-0.018235628655260322
0.21429999999999982,-0.018306364220253574
0.21329999999999982,-0.018377099785246823
0.21229999999999982,-0.018433688237241428
0.21129999999999982,-0.01849027668923603
0.21029999999999982,-0.018546865141230634
0.20929999999999982,-0.018603453593225232
0.20829999999999982,-0.018660042045219833
0.20729999999999982,-0.018730777610213082
0.20629999999999982,-0.018815660288204986
0.20529999999999982,-0.01885810162720094
0.20429999999999982,-0.018957131418191494
0.20329999999999981,-0.018985425644188793
0.2022999999999998,-0.019070308322180696
0.2012999999999998,-0.019141043887173945
0.20029999999999992,-0.019211779452167198
0.19929999999999992,-0.01928251501716045
0.19829999999999992,-0.019310809243157753
0.19729999999999992,-0.019353250582153703
0.19629999999999992,-0.019423986147146955
0.19529999999999992,-0.019466427486142905
0.19429999999999992,-0.01959375150313076
0.19329999999999992,-0.01967863418112266
0.19229999999999992,-0.01969278129412131
0.19129999999999991,-0.019763516859114563
0.1902999999999999,-0.019791811085111865
0.1892999999999999,-0.019848399537106463
0.1882999999999999,-0.019904987989101064
0.1872999999999999,-0.019947429328097017
0.1862999999999999,-0.02003231200608892
0.1852999999999999,-0.02011719468408082
0.1842999999999999,-0.02015963602307677
0.1832999999999999,-0.020216224475071376
0.1822999999999999,-0.020258665814067326
0.1812999999999999,-0.020343548492059226
0.1802999999999999,-0.02038598983105518
0.1792999999999999,-0.020442578283049778
0.1782999999999999,-0.020499166735044382
0.1772999999999999,-0.020541608074040336
0.1762999999999999,-0.020626490752032236
0.1752999999999999,-0.020697226317025485
0.1742999999999999,-0.02075381476902009
0.1732999999999999,-0.02079625610801604
0.1722999999999999,-0.02085284456001064
0.1712999999999999,-0.020909433012005242
0.1702999999999999,-0.020966021463999843
0.1692999999999999,-0.021050904141991744
0.1682999999999999,-0.021107492593986348
0.1672999999999999,-0.021164081045980946
0.1662999999999999,-0.02122066949797555
0.1652999999999999,-0.0212631108369715
0.1642999999999999,-0.021333846401964753
0.1632999999999999,-0.021390434853959358
0.1622999999999999,-0.021432876192955305
0.1612999999999999,-0.021517758870947205
0.1602999999999999,-0.02157434732294181
0.1592999999999999,-0.02163093577493641
0.15829999999999989,-0.021687524226931015
0.15729999999999988,-0.021744112678925617
0.15629999999999988,-0.021828995356917517
0.15529999999999988,-0.021885583808912118
0.15429999999999988,-0.021928025147908068
0.15329999999999988,-0.02197046648690402
0.15229999999999988,-0.02204120205189727
0.15129999999999988,-0.022111937616890523
0.15029999999999988,-0.022168526068885124
0.14929999999999988,-0.022225114520879725
0.14829999999999988,-0.022281702972874327
0.14729999999999988,-0.022338291424868928
0.14629999999999987,-0.02242317410286083
0.14529999999999987,-0.022465615441856785
0.14429999999999987,-0.022508056780852735
0.14329999999999987,-0.022578792345845984
0.14229999999999987,-0.02264952791083924
0.14129999999999987,-0.02270611636283384
0.14029999999999987,-0.02274855770182979
0.13929999999999987,-0.02280514615382439
0.13829999999999987,-0.02287588171881764
0.13729999999999987,-0.022932470170812246
0.13629999999999987,-0.022989058622806844
0.13529999999999986,-0.0230597941878001
0.13429999999999986,-0.02310223552679605
0.13329999999999986,-0.023144676865792004
0.13229999999999986,-0.0232012653177866
0.13129999999999986,-0.02327200088277985
0.13029999999999986,-0.023342736447773106
0.12929999999999986,-0.023399324899767704
0.12829999999999986,-0.023441766238763657
0.12729999999999986,-0.023512501803756906
0.12629999999999986,-0.02356909025575151
0.12529999999999986,-0.023625678707746112
0.12429999999999986,-0.023696414272739365
0.12329999999999985,-0.023724708498736664
0.12229999999999985,-0.02378129695073127
0.12129999999999985,-0.02385203251572452
0.12029999999999985,-0.02390862096771912
0.11929999999999985,-0.023965209419713723
0.11829999999999985,-0.02400765075870967
0.11729999999999985,-0.024078386323702922
0.11629999999999985,-0.024163269001694826
0.11529999999999985,-0.02420571034069078
0.11429999999999985,-0.02429059301868268
0.11329999999999985,-0.02433303435767863
0.11229999999999984,-0.02436132858367593
0.11129999999999984,-0.024446211261667832
0.11029999999999984,-0.024488652600663786
0.10929999999999984,-0.024559388165657038
0.10829999999999984,-0.024601829504652988
0.10729999999999984,-0.02465841795664759
0.10629999999999984,-0.02474330063463949
0.10529999999999984,-0.024785741973635443
0.10429999999999984,-0.024842330425630044
0.10329999999999984,-0.024913065990623297
0.10229999999999984,-0.024969654442617898
0.10129999999999983,-0.0250262428946125
0.10029999999999983,-0.0250828313466071
0.09929999999999983,-0.0251111255726044
0.09829999999999983,-0.025196008250596303
0.09729999999999983,-0.025238449589592253
0.09629999999999983,-0.025309185154585506
0.09529999999999983,-0.02537992071957876
0.09429999999999983,-0.02543650917157336
0.09329999999999983,-0.025493097623567964
0.09229999999999983,-0.02554968607556256
0.09129999999999983,-0.02562042164055581
0.09029999999999982,-0.025677010092550415
0.08929999999999982,-0.025747745657543668
0.08829999999999982,-0.02577603988354097
0.08729999999999982,-0.025846775448534223
0.08629999999999982,-0.02590336390052882
0.08529999999999982,-0.025974099465522073
0.08429999999999982,-0.026044835030515325
0.08329999999999982,-0.026073129256512624
0.08229999999999982,-0.02614386482150588
0.08129999999999982,-0.02621460038649913
0.08029999999999982,-0.02624289461249643
0.07929999999999982,-0.02632777729048833
0.07829999999999981,-0.026384365742482933
0.07729999999999981,-0.026426807081478886
0.07629999999999981,-0.026511689759470786
0.07529999999999992,-0.02655413109846674
0.07429999999999992,-0.02661071955046134
0.07329999999999992,-0.02668145511545459
0.07229999999999992,-0.026723896454450544
0.07129999999999992,-0.026794632019443793
0.07029999999999992,-0.026851220471438397
0.06929999999999992,-0.02692195603643165
0.06829999999999992,-0.026978544488426247
0.06729999999999992,-0.027006838714423546
0.06629999999999991,-0.027120015618412752
0.06529999999999991,-0.027162456957408702
0.06429999999999991,-0.027219045409403307
0.06329999999999991,-0.027289780974396556
0.06229999999999991,-0.027332222313392506
0.06129999999999991,-0.02740295787838576
0.06029999999999991,-0.027445399217381712
0.05929999999999991,-0.027516134782374965
0.05829999999999991,-0.027572723234369562
0.05729999999999991,-0.02764345879936281
0.056299999999999906,-0.02770004725135742
0.055299999999999905,-0.027770782816350672
0.054299999999999904,-0.027813224155346622
0.0532999999999999,-0.027869812607341227
0.0522999999999999,-0.027954695285333123
0.0512999999999999,-0.027997136624329073
0.0502999999999999,-0.02806787218932233
0.0492999999999999,-0.02813860775431558
0.0482999999999999,-0.028166901980312884
0.0472999999999999,-0.028237637545306133
0.0462999999999999,-0.028308373110299385
0.045299999999999896,-0.028379108675292634
0.044299999999999895,-0.028449844240285887
0.043299999999999894,-0.02847813846628319
0.04229999999999989,-0.028563021144275093
0.04129999999999989,-0.028633756709268345
0.04029999999999989,-0.028718639387260245
0.03929999999999989,-0.028775227839254847
0.03829999999999989,-0.02880352206525215
0.03729999999999989,-0.028860110517246747
0.03629999999999989,-0.0289591403082373
0.03529999999999989,-0.029001581647233248
0.034299999999999886,-0.0290723172122265
0.033299999999999885,-0.02912890566422111
0.032299999999999884,-0.029185494116215707
0.031299999999999883,-0.02927037679420761
0.030299999999999883,-0.02931281813320356
0.02929999999999988,-0.029383553698196813
0.02829999999999988,-0.02946843637618871
0.02729999999999988,-0.029510877715184666
0.02629999999999988,-0.02959576039317657
0.025299999999999878,-0.029652348845171168
0.024299999999999877,-0.02972308441016442
0.023299999999999876,-0.029779672862159025
0.022299999999999875,-0.029807967088156324
0.021299999999999875,-0.029906996879146875
0.020299999999999874,-0.029963585331141473
0.019299999999999873,-0.03000602667013743
0.018299999999999872,-0.03007676223513068
0.01729999999999987,-0.030133350687125283
0.01629999999999987,-0.03018993913911988
0.01529999999999987,-0.030274821817111785
0.014299999999999868,-0.030345557382105034
0.013299999999999867,-0.03040214583409964
0.012299999999999978,-0.03047288139909289
0.011299999999999866,-0.030529469851087492
0.010299999999999976,-0.03058605830308209
0.009299999999999864,-0.03065679386807535
0.008299999999999974,-0.030685088094072648
0.007299999999999862,-0.030755823659065897
0.006299999999999972,-0.03082655922405915
0.00529999999999986,-0.030883147676053754
0.0042999999999999705,-0.030968030354045658
0.0032999999999998586,-0.031010471693041605
0.0022999999999999687,-0.031067060145036202
0.0012999999999998568,-0.031137795710029458
0.00029999999999996696,-0.03120853127502271
-0.000700000000000145,-0.03126511972701731
-0.0017000000000000348,-0.03130756106601326
-0.0027000000000001467,-0.03137829663100652
-0.0037000000000000366,-0.03144903219599977
-0.0047000000000001485,-0.03151976776099302
-0.005700000000000038,-0.03157635621298762
-0.00670000000000015,-0.03163294466498222
-0.00770000000000004,-0.03168953311697682
-0.008700000000000152,-0.03174612156897143
-0.009700000000000042,-0.03183100424696332
-0.010700000000000154,-0.03190173981195658
-0.011700000000000044,-0.031972475376949826
-0.012700000000000156,-0.03200076960294713
-0.013700000000000045,-0.032085652280939035
-0.014700000000000157,-0.03214224073293363
-0.015700000000000047,-0.032184682071929586
-0.01670000000000016,-0.03224127052392419
-0.01770000000000005,-0.03229785897591879
-0.01870000000000016,-0.03238274165391069
-0.01970000000000005,-0.03243933010590529
-0.020700000000000163,-0.03248177144490124
-0.021700000000000053,-0.03256665412289315
-0.022700000000000164,-0.032637389687886396
-0.023700000000000054,-0.03267983102688235
-0.024700000000000166,-0.0327505665918756
-0.025700000000000056,-0.032807155043870204
-0.026700000000000168,-0.03284959638286615
-0.027700000000000058,-0.03293447906085806
-0.02870000000000017,-0.032991067512852655
-0.02970000000000006,-0.03304765596484726
-0.03070000000000017,-0.03311839152984051
-0.03170000000000006,-0.03316083286883646
-0.03270000000000017,-0.03321742132083106
-0.03370000000000006,-0.033274009772825665
-0.034700000000000175,-0.033344745337818914
-0.035700000000000065,-0.03341548090281216
-0.03670000000000018,-0.03347206935480676
-0.03770000000000007,-0.033542804919800016
-0.03870000000000018,-0.033627687597791917
-0.03970000000000007,-0.03367012893678788
-0.04070000000000018,-0.033726717388782475
-0.04170000000000007,-0.03378330584077707
-0.04270000000000018,-0.03383989429277168
-0.04370000000000007,-0.033924776970763584
-0.044700000000000184,-0.03395307119676088
-0.045700000000000074,-0.03402380676175413
-0.046700000000000186,-0.034094542326747385
-0.047700000000000076,-0.03413698366574334
-0.04870000000000019,-0.03420771923073659
-0.04970000000000008,-0.034264307682731185
-0.05070000000000019,-0.034306749021727145
-0.05170000000000008,-0.034391631699719045
-0.05270000000000019,-0.03443407303871499
-0.05370000000000008,-0.0344906614907096
-0.05470000000000019,-0.034561397055702846
-0.05570000000000008,-0.034617985507697444
-0.056700000000000195,-0.0346604268466934
-0.057700000000000085,-0.03470286818568935
-0.058700000000000196,-0.0347736037506826
-0.059700000000000086,-0.03484433931567585
-0.0607000000000002,-0.03487263354167316
-0.06170000000000009,-0.03495751621966506
-0.0627000000000002,-0.03501410467165966
-0.06370000000000009,-0.03504239889765696
-0.0647000000000002,-0.035127281575648865
