Potential V vs RHE, Current mA cm-2
0.013299999999999867,12.384382719018532
0.012299999999999978,11.077189477943236
0.011299999999999866,9.854878914859846
0.010299999999999976,8.764136502663902
0.009299999999999864,7.936530392242855
0.008299999999999974,7.281519060405343
0.007299999999999862,6.671778490163514
0.006299999999999972,5.9729111080301855
0.00529999999999986,5.145304997609139
0.0042999999999999705,4.272428125592412
0.0032999999999998586,3.5311194044631313
0.0022999999999999687,3.0076762235130676
0.0012999999999998568,2.5705304318547717
0.00029999999999996696,2.0909433012005243
-0.000700000000000145,1.4373466806628774
-0.0017000000000000348,0.6956135461436386
-0.0027000000000001467,-0.002205534916489592
-0.0037000000000000366,-0.5692798270656908
-0.0047000000000001485,-0.9617207416482519
-0.005700000000000038,-1.2671569112891135
-0.00670000000000015,-1.7033124050375041
-0.00770000000000004,-2.3144676865791998
-0.008700000000000152,-2.968064307116847
-0.009700000000000042,-3.579219588658543
-0.010700000000000154,-3.971094618721158
-0.011700000000000044,-4.276672259492005
-0.012700000000000156,-4.538393849967037
-0.013700000000000045,-4.974124930325469
-0.014700000000000157,-5.5414241615713475
-0.015700000000000047,-6.152579443113044
-0.01670000000000016,-6.632166573767292
-0.01770000000000005,-6.93774421453814
-0.01870000000000016,-7.155609754717355
-0.01970000000000005,-7.4173313451923875
-0.020700000000000163,-7.853062425550818
-0.021700000000000053,-8.376505606500881
-0.022700000000000164,-8.943804837746763
-0.023700000000000054,-9.335679867809377
-0.024700000000000166,-9.59740145828441
-0.025700000000000056,-9.81668170976349
-0.026700000000000168,-10.164700689530287
-0.027700000000000058,-10.644287820184536
-0.02870000000000017,-11.255443101726232
-0.02970000000000006,-11.778886282676295
-0.03070000000000017,-12.12831997374296
-0.03170000000000006,-12.302329463626359
-0.03270000000000017,-12.56405105410139
-0.03370000000000006,-12.99978213445982
-0.034700000000000175,-13.567081365705702
-0.035700000000000065,-14.217848563643619
-0.03670000000000018,-14.741291744593681
-0.03770000000000007,-15.094969569559943
-0.03870000000000018,-15.307176264539699
-0.03970000000000007,-15.575971411514052
-0.04070000000000018,-15.972090575476265
-0.04170000000000007,-16.438945304431726
-0.04270000000000018,-16.835064468393938
-0.04370000000000007,-16.962388485381787
-0.044700000000000184,-17.061418276372343
-0.045700000000000074,-17.061418276372343
-0.046700000000000186,-17.188742293360193
-0.047700000000000076,-17.48583166633185
-0.04870000000000019,-17.966833508285966
-0.04970000000000008,-18.44783535024008
-0.05070000000000019,-18.80151317520634
-0.05170000000000008,-18.92883719219419
-0.05270000000000019,-19.112749661176647
-0.05370000000000008,-19.367397695152352
-0.05470000000000019,-19.890840876102416
-0.05570000000000008,-20.456725396048434
-0.056700000000000195,-21.022609915994444
-0.057700000000000085,-21.418729079956652
-0.058700000000000196,-21.729965565926964
-0.059700000000000086,-22.027054938898623
-0.0607000000000002,-22.550498119848687
-0.06170000000000009,-23.1163826397947
-0.0627000000000002,-23.682267159740714
-0.06370000000000009,-23.993503645711023
-0.0647000000000002,-24.120827662698876
-0.06570000000000009,-24.16326900169483
-0.0667000000000002,-24.290593018682678
-0.0677000000000001,-24.686712182644893
-0.0687000000000002,-25.252596702590903
-0.0697000000000001,-25.691157205549064
-0.07070000000000021,-26.002393691519377
-0.0717000000000001,-26.21460038649913
-0.07270000000000021,-26.483395533473487
-0.0737000000000001,-26.9643973754276
-0.07470000000000021,-27.572723234369565
-0.0757000000000001,-28.22349043230748
-0.07670000000000021,-28.746933613257543
-0.0777000000000001,-29.14305277721976
-0.07870000000000021,-29.440142150191413
-0.0797000000000001,-29.836261314153624
-0.08070000000000022,-30.359704495103685
-0.0817000000000001,-30.968030354045652
-0.08270000000000022,-31.49147353499572
-0.08370000000000011,-31.887592698957924
-0.08470000000000022,-32.09979939393769
-0.08570000000000011,-32.24127052392419
-0.08670000000000022,-32.49591855789989
-0.08770000000000011,-32.892037721862096
-0.08870000000000022,-33.41548090281216
-0.08970000000000011,-33.81160006677438
-0.09070000000000022,-34.10868943974604
-0.09170000000000011,-34.33504324772444
-0.09270000000000023,-34.5472499427042
-0.09370000000000012,-34.94336910666641
-0.09470000000000023,-35.46681228761647
-0.09570000000000012,-36.03269680756248
-0.09670000000000023,-36.47125731052064
-0.09770000000000012,-36.725905344496354
-0.09870000000000023,-36.95225915247476
-0.09970000000000012,-37.206907186450465
-0.10070000000000023,-37.60302635041268
-0.10170000000000012,-38.16891087035869
-0.10270000000000024,-38.777236729300654
-0.10370000000000013,-39.21579723225882
-0.10470000000000024,-39.42800392723857
-0.10570000000000013,-39.654357735216976
-0.10670000000000024,-39.90900576919269
-0.10770000000000013,-40.43244895014274
-0.10870000000000024,-40.99833347008877
-0.10970000000000013,-41.47933531204288
-0.11070000000000024,-41.83301313700913
-0.11170000000000013,-41.96033715399699
-0.11270000000000002,-42.130102509980794
-0.11370000000000013,-42.483780334947056
-0.11470000000000002,-43.09210619388902
-0.11570000000000014,-43.79946184382153
-0.11670000000000003,-44.36534636376755
-0.11770000000000014,-44.80390686672572
-0.11870000000000003,-45.05855490070142
-0.11970000000000014,-45.36979138667173
-0.12070000000000003,-45.89323456762179
-0.12170000000000014,-46.45911908756781
-0.12270000000000003,-47.067444946509774
-0.12370000000000014,-47.506005449467935
-0.12470000000000003,-47.76065348344364
-0.12570000000000014,-47.93041883942744
-0.12670000000000003,-48.1992139864018
-0.12770000000000015,-48.55289181136806
-0.12870000000000004,-48.97730520132757
-0.12970000000000015,-49.373424365289786
-0.13070000000000004,-49.59977817326819
-0.13170000000000015,-49.68466085126009
-0.13270000000000004,-49.85442620724389
-0.13370000000000015,-50.2505453712061
-0.13470000000000004,-50.81642989115212
-0.13570000000000015,-51.509638428085985
-0.13670000000000004,-52.11796428702795
-0.13770000000000016,-52.55652478998611
-0.13870000000000005,-52.86776127595642
-0.13970000000000016,-53.16485064892808
-0.14070000000000005,-53.64585249088219
-0.14170000000000016,-54.2117370108282
-0.14270000000000005,-54.73518019177827
-0.14370000000000016,-55.13129935574048
-0.14470000000000005,-55.31521182472294
-0.14570000000000016,-55.357653163718886
-0.14670000000000005,-55.484977180706736
-0.14770000000000016,-55.9235376836649
-0.14870000000000005,-56.53186354260687
-0.14970000000000017,-57.05530672355693
-0.15070000000000006,-57.45142588751914
-0.15170000000000017,-57.62119124350295
-0.15270000000000006,-57.87583927747865
-0.15370000000000017,-58.31439978043681
-0.15470000000000006,-58.83784296138688
-0.15570000000000017,-59.44616882032884
-0.15670000000000006,-59.92717066228296
-0.15770000000000017,-60.19596580925731
-0.15870000000000006,-60.40817250423707
-0.15970000000000018,-60.80429166819927
-0.16070000000000007,-61.455058866137186
-0.16170000000000018,-62.24729719406162
-0.16270000000000007,-63.02538840898739
-0.16370000000000018,-63.6761556069253
-0.16470000000000007,-64.02983343189156
-0.16570000000000018,-64.29862857886593
-0.16670000000000007,-64.90695443780788
-0.16770000000000018,-65.64260431373769
-0.16870000000000007,-66.20848883368372
-0.16970000000000018,-66.64704933664189
-0.17070000000000007,-67.128051178596
-0.17170000000000019,-67.52417034255821
-0.17270000000000008,-68.0051721845123
-0.1737000000000002,-68.57105670445833
-0.17470000000000008,-69.05205854641244
-0.1757000000000002,-69.43403059737601
-0.17670000000000008,-69.74526708334632
-0.1777000000000002,-69.78770842234226
-0.17870000000000008,-69.8301497613382
-0.1797000000000002,-70.09894490831257
-0.18070000000000008,-70.39603428128423
-0.1817000000000002,-70.96191880123024
-0.18270000000000008,-71.6268331121668
-0.1837000000000002,-72.19271763211282
-0.1847000000000001,-72.67371947406694
-0.1857000000000002,-73.09813286402644
-0.1867000000000001,-73.53669336698461
-0.1877000000000002,-74.20160767792116
-0.1887000000000001,-74.93725755385098
-0.1897000000000002,-75.63046609078486
-0.1907000000000001,-76.02658525474708
-0.1917000000000001,-76.19635061073087
-0.19269999999999998,-76.33782174071737
-0.1937000000000001,-76.46514575770523
-0.19469999999999998,-76.67735245268499
-0.1957000000000001,-76.86126492166746
-0.19669999999999999,-76.9037062606634
-0.1977000000000001,-76.86126492166746
-0.1987,-76.9037062606634
-0.1997000000000001,-77.1583542946391
-0.2007,-77.76668015358106
-0.2017000000000001,-78.8135665154812
-0.2027,-80.12924802435568
-0.2037000000000001,-81.3458997422396
-0.2047,-82.18057940915998
-0.2057000000000001,-82.52011012112759
-0.2067,-82.746463929106
-0.2077000000000001,-83.0011119630817
-0.2087,-83.39723112704392
-0.2097000000000001,-83.56699648302772
-0.2107,-83.48211380503581
-0.2117000000000001,-83.18502443206415
-0.2127,-83.0011119630817
-0.2137000000000001,-83.14258309306821
-0.2147,-83.39723112704392
-0.2157000000000001,-83.79335029100612
-0.2167,-84.13288100297372
-0.21770000000000012,-84.35923481095215
-0.2187,-84.57144150593189
-0.21970000000000012,-84.96756066989411
-0.2207,-85.61832786783202
-0.22170000000000012,-86.45300753475239
-0.2227,-87.14621607168625
-0.22370000000000012,-87.49989389665252
-0.2247,-87.66965925263632
-0.22570000000000012,-87.79698326962418
-0.2267,-88.10821975559449
-0.22770000000000012,-88.5892215975486
-0.22870000000000001,-89.19754745649055
-0.22970000000000013,-89.76343197643658
-0.23070000000000002,-90.15955114039879
-0.23170000000000013,-90.20199247939475
-0.23270000000000002,-90.11710980140283
-0.23370000000000013,-90.07466846240689
-0.23470000000000002,-90.07466846240689
-0.23570000000000013,-90.28687515738663
-0.23670000000000002,-90.6405529823529
-0.2376999999999999,-91.07911348531105
-0.23870000000000002,-91.60255666626112
-0.2396999999999999,-92.25332386419905
-0.24070000000000003,-93.08800353111941
-0.24169999999999991,-93.95097742403709
-0.24270000000000003,-94.87053976894937
-0.24369999999999992,-95.47886562789132
-0.24470000000000003,-95.87498479185354
-0.24569999999999992,-96.17207416482519
-0.24670000000000003,-96.61063466778336
-0.24769999999999992,-97.13407784873341
-0.24870000000000003,-97.61507969068752
-0.24969999999999992,-97.96875751565379
-0.25070000000000003,-98.18096421063355
-0.2516999999999999,-98.2234055496295
-0.25270000000000004,-98.3082882276214
-0.2536999999999999,-98.4497593576079
-0.25470000000000004,-98.57708337459576
-0.2556999999999999,-98.6195247135917
-0.25670000000000004,-98.57708337459576
-0.25769999999999993,-98.5346420355998
-0.25870000000000004,-98.6195247135917
-0.25969999999999993,-98.88831986056607
-0.26070000000000004,-99.45420438051207
-0.26169999999999993,-100.14741291744595
-0.26270000000000004,-100.92550413237171
-0.26369999999999993,-101.50553576531638
-0.26470000000000005,-102.02897894626645
-0.26569999999999994,-102.45339233622596
-0.26670000000000005,-102.97683551717601
-0.26769999999999994,-103.64174982811258
-0.26870000000000005,-104.2076343480586
-0.26969999999999994,-104.64619485101677
-0.27070000000000005,-104.90084288499246
-0.27169999999999994,-105.02816690198033
-0.27270000000000005,-105.02816690198033
-0.27369999999999994,-105.07060824097626
-0.27470000000000006,-105.16963803196683
-0.27569999999999995,-105.33940338795064
-0.27670000000000006,-105.42428606594254
-0.27769999999999995,-105.46672740493848
-0.27870000000000006,-105.5516100829304
-0.27969999999999995,-105.73552255191284
-0.28070000000000006,-106.0326119248845
-0.28169999999999995,-106.55605510583456
-0.28270000000000006,-107.03705694778867
-0.28369999999999995,-107.47561745074682
-0.28470000000000006,-107.914177953705
-0.28569999999999995,-108.3102971176672
-0.28670000000000007,-108.73471050762672
-0.28769999999999996,-109.13082967158894
-0.28870000000000007,-109.52694883555114
-0.28969999999999996,-109.69671419153494
-0.29070000000000007,-109.73915553053091
-0.29169999999999996,-109.73915553053091
-0.29270000000000007,-109.73915553053091
-0.29369999999999996,-109.8806266605174
-0.2947000000000001,-110.00795067750525
-0.29569999999999996,-110.09283335549715
-0.2967000000000001,-110.17771603348905
-0.29769999999999996,-110.22015737248502
-0.2987000000000001,-110.34748138947285
-0.29969999999999997,-110.65871787544317
-0.3007000000000001,-111.05483703940537
-0.30169999999999997,-111.49339754236355
-0.3027000000000001,-111.74804557633925
-0.30369999999999997,-111.7904869153352
-0.3047000000000001,-111.74804557633925
-0.30569999999999997,-111.6207215593514
-0.3067000000000001,-111.57828022035544
-0.3077,-111.7056042373433
-0.3087000000000001,-111.96025227131899
-0.3097,-112.22904741829338
-0.3107000000000001,-112.39881277427718
-0.3117,-112.58272524325962
-0.3127000000000001,-112.83737327723534
-0.3137,-113.31837511918944
-0.3147000000000001,-113.92670097813141
-0.3157,-114.63405662806393
-0.3167000000000001,-115.2423824870059
-0.3177,-115.76582566795594
-0.3187000000000001,-115.97803236293572
-0.3197,-116.02047370193165
-0.3207000000000001,-116.02047370193165
-0.3217,-115.85070834594785
-0.3227000000000001,-115.53947185997755
-0.3237,-115.10091135701937
-0.3247000000000001,-114.76138064505177
-0.3257,-114.57746817606933
-0.3267000000000001,-114.4925854980774
-0.3277,-114.63405662806393
-0.3287000000000001,-114.88870466203963
-0.3297,-114.97358734003153
-0.3307000000000001,-114.88870466203963
-0.3317,-114.63405662806393
-0.3327000000000001,-114.45014415908147
-0.3337,-114.57746817606933
-0.3347000000000001,-115.05847001802343
-0.3357,-115.62435453796945
-0.3367000000000001,-116.06291504092759
-0.3377,-116.37415152689792
-0.3387000000000001,-116.58635822187767
-0.3397,-116.94003604684394
-0.3407000000000001,-117.54836190578591
-0.3417,-118.1991291037238
-0.3427000000000001,-118.76501362366983
-0.3437,-118.94892609265229
-0.3447000000000001,-118.76501362366983
-0.3457,-118.15668776472786
-0.3467000000000001,-117.50592056678994
-0.3477,-116.89759470784797
-0.3487000000000001,-116.37415152689792
-0.3497,-115.80826700695191
-0.3507000000000001,-115.32726516499778
-0.3517,-115.01602867902749
-0.3527000000000001,-114.97358734003153
-0.3537,-115.2423824870059
-0.3547000000000001,-115.72338432896
-0.3557,-116.06291504092759
-0.35670000000000013,-116.06291504092759
-0.3577,-115.80826700695191
-0.35870000000000013,-115.32726516499778
-0.3597,-114.88870466203963
-0.36070000000000013,-114.71893930605583
-0.3617,-114.76138064505177
-0.3626999999999999,-115.01602867902749
-0.3637,-115.4121478429897
-0.3646999999999999,-115.62435453796945
-0.3657,-115.8931496849438
-0.3666999999999999,-116.41659286589388
-0.3677,-116.98247738583989
-0.3686999999999999,-117.46347922779398
-0.36970000000000003,-117.54836190578591
-0.3706999999999999,-117.3785965498021
-0.37170000000000003,-117.06736006383179
-0.3726999999999999,-116.81271202985609
-0.37370000000000003,-116.77027069086012
-0.3746999999999999,-116.77027069086012
-0.37570000000000003,-116.81271202985609
-0.3766999999999999,-116.77027069086012
-0.37770000000000004,-116.67124089986959
-0.3786999999999999,-116.50147554388576
-0.37970000000000004,-116.45903420488982
-0.3806999999999999,-116.41659286589388
-0.38170000000000004,-116.41659286589388
-0.38269999999999993,-116.37415152689792
-0.38370000000000004,-116.28926884890602
-0.38469999999999993,-116.28926884890602
-0.38570000000000004,-116.33171018790196
-0.38669999999999993,-116.50147554388576
-0.38770000000000004,-116.81271202985609
-0.38869999999999993,-117.10980140282774
-0.38970000000000005,-117.25127253281424
-0.39069999999999994,-117.25127253281424
-0.39170000000000005,-117.02491872483584
-0.39269999999999994,-116.85515336885203
-0.39370000000000005,-116.81271202985609
-0.39469999999999994,-116.94003604684394
-0.39570000000000005,-117.19468408081964
-0.39669999999999994,-117.33615521080614
-0.39770000000000005,-117.33615521080614
-0.39869999999999994,-117.19468408081964
-0.39970000000000006,-117.10980140282774
-0.40069999999999995,-117.19468408081964
-0.40170000000000006,-117.3785965498021
-0.40269999999999995,-117.54836190578591
-0.40370000000000006,-117.3785965498021
-0.40469999999999995,-116.94003604684394
-0.40570000000000006,-116.45903420488982
-0.40669999999999995,-116.20438617091412
-0.40770000000000006,-116.37415152689792
-0.40869999999999995,-116.72782935186417
-0.40970000000000006,-117.02491872483584
-0.41069999999999995,-117.06736006383179
-0.41170000000000007,-116.94003604684394
-0.41269999999999996,-116.81271202985609
-0.41370000000000007,-116.72782935186417
-0.41469999999999996,-116.81271202985609
-0.41570000000000007,-116.89759470784797
-0.41669999999999996,-116.85515336885203
-0.41770000000000007,-116.67124089986959
-0.41869999999999996,-116.45903420488982
-0.4197000000000001,-116.28926884890602
-0.42069999999999996,-116.33171018790196
-0.4217000000000001,-116.54391688288172
-0.42269999999999996,-116.98247738583989
-0.4237000000000001,-117.25127253281424
-0.42469999999999997,-117.19468408081964
-0.4257000000000001,-117.10980140282774
-0.42669999999999997,-117.29371387181018
-0.4277000000000001,-117.54836190578591
-0.42869999999999997,-117.81715705276027
-0.4297000000000001,-118.1991291037238
-0.43069999999999997,-118.51036558969413
-0.4317000000000001,-118.68013094567793
-0.4327,-118.86404341466037
-0.4337000000000001,-119.4299279346064
-0.4347,-120.25046048852812
-0.4357000000000001,-120.77390366947817
-0.4367,-120.73146233048222
-0.4377000000000001,-120.39193161851462
-0.4387,-120.16557781053622
-0.4397000000000001,-120.25046048852812
-0.4407,-120.51925563550247
-0.4417000000000001,-120.9153747994647
-0.4427,-121.38222952842017
-0.4437000000000001,-121.77834869238235
-0.4447,-122.0471438393567
-0.4457000000000001,-122.30179187333242
-0.4467,-122.57058702030677
-0.4477000000000001,-122.91011773227437
-0.4487,-123.26379555724066
-0.4497000000000001,-123.34867823523254
-0.4507,-123.3062368962366
-0.4517000000000001,-123.2213542182447
-0.4527,-123.17891287924873
-0.4537000000000001,-123.26379555724066
-0.4547,-123.57503204321095
-0.4557000000000001,-123.91456275517855
-0.4567,-124.22579924114888
-0.4577000000000001,-124.43800593612862
-0.4587,-124.66435974410705
-0.4597000000000001,-125.00389045607463
-0.4607,-125.48489229802875
-0.4617000000000001,-126.00833547897882
-0.4627,-126.48933732093293
-0.4637000000000001,-126.71569112891132
-0.4647,-126.80057380690324
-0.4657000000000001,-126.75813246790726
-0.4667,-126.80057380690324
-0.4677000000000001,-127.05522184087894
-0.4687,-127.53622368283307
-0.4697000000000001,-127.93234284679528
-0.4707,-128.10210820277908
-0.4717000000000001,-128.2294322197669
-0.4727,-128.41334468874936
-0.4737000000000001,-128.8094638527116
-0.4747,-129.33290703366166
-0.4757000000000001,-129.89879155360765
-0.4767,-130.28076360457123
-0.4777000000000001,-130.46467607355368
-0.4787,-130.7193241075294
-0.4797000000000001,-131.07300193249566
-0.4807,-131.32764996647134
-0.48170000000000013,-131.5964451134457
-0.4827,-132.20477097238768
-0.48370000000000013,-133.03945063930803
-0.4847,-133.81754185423384
-0.48570000000000013,-134.34098503518388
-0.4867,-133.73265917624192
-0.48570000000000013,-131.63888645244168
-0.4847,-129.9412328926036
-0.48370000000000013,-128.37090334975343
-0.4827,-126.61666133792076
-0.48170000000000013,-124.66435974410705
-0.4807,-122.74035237629057
-0.4797000000000001,-121.29734685042824
-0.4787,-120.47681429650652
-0.4777000000000001,-119.81189998556997
-0.4767,-118.90648475365633
-0.4757000000000001,-117.63324458377778
-0.4747,-116.06291504092759
-0.4737000000000001,-114.45014415908147
-0.4727,-112.92225595522721
-0.4717000000000001,-111.394367751373
-0.4707,-109.69671419153494
-0.4697000000000001,-107.6029414677347
-0.4687,-105.38184472694657
-0.4677000000000001,-103.20318932515443
-0.4667,-101.40650597432582
-0.4657000000000001,-100.18985425644189
