Potential V vs RHE, Current mA cm-2
0.013299999999999867,0.01970692840711996
0.012299999999999978,0.010217045007625295
0.011299999999999866,0.002122066949797555
0.010299999999999976,-0.0034617985507697452
0.009299999999999864,-0.008765551213963767
0.008299999999999974,-0.0135104929137111
0.007299999999999862,-0.017839509491298113
0.006299999999999972,-0.021885583808912118
0.00529999999999986,-0.023837885402725866
0.0042999999999999705,-0.026073129256512624
0.0032999999999998586,-0.029284523907206258
0.0022999999999999687,-0.03151976776099302
0.0012999999999998568,-0.03333059822482026
0.00029999999999996696,-0.03458969128170015
-0.000700000000000145,-0.03737667254243427
-0.0017000000000000348,-0.03835282333934115
-0.0027000000000001467,-0.0403051249331549
-0.0037000000000000366,-0.0404465960631414
-0.0047000000000001485,-0.04128127573006177
-0.005700000000000038,-0.042130102509980796
-0.00670000000000015,-0.044223875233781046
-0.00770000000000004,-0.04701085649451517
-0.008700000000000152,-0.044492670380755404
-0.009700000000000042,-0.04575176343763528
-0.010700000000000154,-0.04742112277147603
-0.011700000000000044,-0.04756259390146254
-0.012700000000000156,-0.04896315808832892
-0.013700000000000045,-0.049939308885235796
-0.014700000000000157,-0.05203308160903605
-0.015700000000000047,-0.05105693081212918
-0.01670000000000016,-0.051481344202088684
-0.01770000000000005,-0.05329217466591593
-0.01870000000000016,-0.05300923240594292
-0.01970000000000005,-0.05286776127595642
-0.020700000000000163,-0.053575116925888934
-0.021700000000000053,-0.054268325462822814
-0.022700000000000164,-0.05455126772279582
-0.023700000000000054,-0.055796213666677044
-0.024700000000000166,-0.056645040446596066
-0.025700000000000056,-0.056362098186623064
-0.026700000000000168,-0.057196777853543435
-0.027700000000000058,-0.05691383559357043
-0.02870000000000017,-0.05593768479666354
-0.02970000000000006,-0.05691383559357043
-0.03070000000000017,-0.05776266237348945
-0.03170000000000006,-0.05873881317039633
-0.03270000000000017,-0.059149079447357186
-0.03370000000000006,-0.058172928650450303
-0.034700000000000175,-0.05873881317039633
-0.035700000000000065,-0.05971496396730319
-0.03670000000000018,-0.05886613718738417
-0.03770000000000007,-0.06054964363422357
-0.03870000000000018,-0.05943202170733019
-0.03970000000000007,-0.060408172504237065
-0.04070000000000018,-0.06110138104117093
-0.04170000000000007,-0.06166726556111695
-0.04270000000000018,-0.06319515376497119
-0.04370000000000007,-0.06138432330114395
-0.044700000000000184,-0.06054964363422357
-0.045700000000000074,-0.06207753183807782
-0.046700000000000186,-0.06138432330114395
-0.047700000000000076,-0.06195020782108995
-0.04870000000000019,-0.06195020782108995
-0.04970000000000008,-0.06473718908182408
-0.05070000000000019,-0.06514745535878494
-0.05170000000000008,-0.06333662489495769
-0.05270000000000019,-0.06543039761875795
-0.05370000000000008,-0.06445424682185108
-0.05470000000000019,-0.06417130456187807
-0.05570000000000008,-0.06333662489495769
-0.056700000000000195,-0.0637610382849172
-0.057700000000000085,-0.06502013134179709
-0.058700000000000196,-0.06431277569186457
-0.059700000000000086,-0.06502013134179709
-0.0607000000000002,-0.06502013134179709
-0.06170000000000009,-0.06514745535878494
-0.0627000000000002,-0.06835885000947857
-0.06370000000000009,-0.0673826992125717
-0.0647000000000002,-0.06697243293561084
-0.06570000000000009,-0.06640654841566482
-0.0667000000000002,-0.06528892648877145
-0.0677000000000001,-0.0676656414725447
-0.0687000000000002,-0.06697243293561084
-0.0697000000000001,-0.06654801954565133
-0.07070000000000021,-0.06543039761875795
-0.0717000000000001,-0.06626507728567832
-0.07270000000000021,-0.06668949067563783
-0.0737000000000001,-0.0672412280825852
-0.07470000000000021,-0.06780711260253121
-0.0757000000000001,-0.06780711260253121
-0.07670000000000021,-0.06878326339943809
-0.0777000000000001,-0.06892473452942459
-0.07870000000000021,-0.0679485837325177
-0.0797000000000001,-0.06835885000947857
-0.08070000000000022,-0.06850032113946508
-0.0817000000000001,-0.06780711260253121
-0.08270000000000022,-0.06780711260253121
-0.08370000000000011,-0.06850032113946508
-0.08470000000000022,-0.06975941419634496
-0.08570000000000011,-0.06850032113946508
-0.08670000000000022,-0.06711390406559734
-0.08770000000000011,-0.07115997838321135
-0.08870000000000022,-0.06990088532633146
-0.08970000000000011,-0.06990088532633146
-0.09070000000000022,-0.06975941419634496
-0.09170000000000011,-0.0692076767893976
-0.09270000000000023,-0.0714287735301857
-0.09370000000000012,-0.07031115160329232
-0.09470000000000023,-0.0731122799770251
-0.09570000000000012,-0.07101850725322485
-0.09670000000000023,-0.07004235645631796
-0.09770000000000012,-0.06947647193637195
-0.09870000000000023,-0.06835885000947857
-0.09970000000000012,-0.0690662056594111
-0.10070000000000023,-0.07059409386326533
-0.10170000000000012,-0.07031115160329232
-0.10270000000000024,-0.0715702446601722
-0.10370000000000013,-0.07227760031010473
-0.10470000000000024,-0.07185318692014521
-0.10570000000000013,-0.07031115160329232
-0.10670000000000024,-0.07031115160329232
-0.10770000000000013,-0.07254639545707908
-0.10870000000000024,-0.07185318692014521
-0.10970000000000013,-0.0715702446601722
-0.11070000000000024,-0.06990088532633146
-0.11170000000000013,-0.07031115160329232
-0.11270000000000002,-0.07213612918011822
-0.11370000000000013,-0.07227760031010473
-0.11470000000000002,-0.0715702446601722
-0.11570000000000014,-0.07240492432709257
-0.11670000000000003,-0.07185318692014521
-0.11770000000000014,-0.07437137303390498
-0.11870000000000003,-0.0731122799770251
-0.11970000000000014,-0.0731122799770251
-0.12070000000000003,-0.07437137303390498
-0.12170000000000014,-0.0717117157901587
-0.12270000000000003,-0.0732537511070116
-0.12370000000000014,-0.07408843077393197
-0.12470000000000003,-0.07352254625398597
-0.12570000000000014,-0.07464016818087933
-0.12670000000000003,-0.07297080884703859
-0.12770000000000015,-0.07548899496079836
-0.12870000000000004,-0.07268786658706558
-0.12970000000000015,-0.07408843077393197
-0.13070000000000004,-0.07254639545707908
-0.13170000000000015,-0.07213612918011822
-0.13270000000000004,-0.0765924697746931
-0.13370000000000015,-0.07464016818087933
-0.13470000000000004,-0.07464016818087933
-0.13570000000000015,-0.07380548851395898
-0.13670000000000004,-0.0765924697746931
-0.13770000000000016,-0.0771583542946391
-0.13870000000000005,-0.07548899496079836
-0.13970000000000016,-0.07478163931086583
-0.14070000000000005,-0.07575779010777271
-0.14170000000000016,-0.07520605270082535
-0.14270000000000005,-0.07632367462771873
-0.14370000000000016,-0.07632367462771873
-0.14470000000000005,-0.07701688316465259
-0.14570000000000016,-0.0767339409046796
-0.14670000000000005,-0.0765924697746931
-0.14770000000000016,-0.07841744735151898
-0.14870000000000005,-0.07701688316465259
-0.14970000000000017,-0.07589926123775922
-0.15070000000000006,-0.07575779010777271
-0.15170000000000017,-0.07813450509154597
-0.15270000000000006,-0.07925212701843935
-0.15370000000000017,-0.07855891848150548
-0.15470000000000006,-0.07896918475846634
-0.15570000000000017,-0.0772998254246256
-0.15670000000000006,-0.07701688316465259
-0.15770000000000017,-0.07911065588845285
-0.15870000000000006,-0.08065269120530574
-0.15970000000000018,-0.07966239329540022
-0.16070000000000007,-0.0809214863522801
-0.16170000000000018,-0.08106295748226659
-0.16270000000000007,-0.0813458997422396
-0.16370000000000018,-0.0826049927991195
-0.16470000000000007,-0.08232205053914649
-0.16570000000000018,-0.0826049927991195
-0.16670000000000007,-0.08065269120530574
-0.16770000000000018,-0.08329820133605337
-0.16870000000000007,-0.08315673020606687
-0.16970000000000018,-0.08372261472601288
-0.17070000000000007,-0.08441582326294673
-0.17170000000000019,-0.08274646392910599
-0.17270000000000008,-0.08329820133605337
-0.1737000000000002,-0.08510903179988061
-0.17470000000000008,-0.08455729439293323
-0.1757000000000002,-0.08510903179988061
-0.17670000000000008,-0.0849675606698941
-0.1777000000000002,-0.08679253824672
-0.17870000000000008,-0.08720280452368086
-0.1797000000000002,-0.0869340093767065
-0.18070000000000008,-0.08791016017361337
-0.1817000000000002,-0.08803748419060124
-0.18270000000000008,-0.08791016017361337
-0.1837000000000002,-0.08986246176742714
-0.1847000000000001,-0.08929657724748112
-0.1857000000000002,-0.09027272804438799
-0.1867000000000001,-0.090555670304361
-0.1877000000000002,-0.09209770562121389
-0.1887000000000001,-0.09279091415814776
-0.1897000000000002,-0.094601744621975
-0.1907000000000001,-0.09488468688194801
-0.1917000000000001,-0.09419147834501414
-0.19269999999999998,-0.09348412269508162
-0.1937000000000001,-0.09543642428889539
-0.19469999999999998,-0.09431880236200199
-0.1957000000000001,-0.09543642428889539
-0.19669999999999999,-0.09669551734577525
-0.1977000000000001,-0.09935517458952153
-0.1987,-0.09893076119956201
-0.1997000000000001,-0.10088306279337576
-0.2007,-0.0997654408664824
-0.2017000000000001,-0.1003313253864284
-0.2027,-0.10228362698024217
-0.2037000000000001,-0.10144894731332177
-0.2047,-0.1039529863140829
-0.2057000000000001,-0.10478766598100327
-0.2067,-0.10521207937096277
-0.2077000000000001,-0.10590528790789665
-0.2087,-0.10590528790789665
-0.2097000000000001,-0.1079990606316969
-0.2107,-0.10939962481856329
-0.2117000000000001,-0.11023430448548364
-0.2127,-0.11401158365612331
-0.2137000000000001,-0.1135871702661638
-0.2147,-0.11470479219305717
-0.2157000000000001,-0.11553947185997754
-0.2167,-0.11484626332304368
-0.21770000000000012,-0.11749177345379128
-0.2187,-0.11832645312071166
-0.21970000000000012,-0.11944407504760506
-0.2207,-0.12126905262443094
-0.22170000000000012,-0.12363162049520555
-0.2227,-0.12643274886893832
-0.22370000000000012,-0.12489071355208542
-0.2247,-0.12600833547897883
-0.22570000000000012,-0.1272674285358587
-0.2267,-0.12796063707279257
-0.22770000000000012,-0.1307476183335267
-0.22870000000000001,-0.1322896536503796
-0.22970000000000013,-0.13424195524419333
-0.23070000000000002,-0.13702893650492745
-0.23170000000000013,-0.13912270922872771
-0.23270000000000002,-0.1406647445455806
-0.23370000000000013,-0.13968859374867373
-0.23470000000000002,-0.14175407224647668
-0.23570000000000013,-0.14302731241635522
-0.23670000000000002,-0.1433102546763282
-0.2376999999999999,-0.14684703292599083
-0.23870000000000002,-0.14882762874580185
-0.2396999999999999,-0.1498179266557074
-0.24070000000000003,-0.15335470490536995
-0.24169999999999991,-0.15476941620523502
-0.24270000000000003,-0.1574573676749786
-0.24369999999999992,-0.1588720789748436
-0.24470000000000003,-0.16028679027470866
-0.24569999999999992,-0.16537975095422278
-0.24670000000000003,-0.16835064468393937
-0.24769999999999992,-0.17004829824377743
-0.24870000000000003,-0.17103859615368294
-0.24969999999999992,-0.16905800033387192
-0.25070000000000003,-0.17132153841365594
-0.2516999999999999,-0.17400948988339954
-0.25270000000000004,-0.1772633258730891
-0.2536999999999999,-0.18193187316264373
-0.25470000000000004,-0.1858930648022658
-0.2556999999999999,-0.18971278531190142
-0.25670000000000004,-0.18829807401203638
-0.25769999999999993,-0.19042014096183393
-0.25870000000000004,-0.1931080924315775
-0.25969999999999993,-0.1966448706812401
-0.26070000000000004,-0.2008890045808352
-0.26169999999999993,-0.20301107153063278
-0.26270000000000004,-0.2065478497802954
-0.26369999999999993,-0.20725520543022788
-0.26470000000000005,-0.21121639706985
-0.26569999999999994,-0.21404581966958006
-0.26670000000000005,-0.21828995356917516
-0.26769999999999994,-0.22210967407881074
-0.26870000000000005,-0.22479762554855431
-0.26969999999999994,-0.2281929326682304
-0.27070000000000005,-0.22989058622806843
-0.27169999999999994,-0.2321541243078525
-0.27270000000000005,-0.2354079602975421
-0.27369999999999994,-0.24248151679686727
-0.27470000000000006,-0.24785741973635445
-0.27569999999999995,-0.2526674381558955
-0.27670000000000006,-0.25337479380582806
-0.27769999999999995,-0.25394067832577405
-0.27870000000000006,-0.25592127414558513
-0.27969999999999995,-0.2622874749949778
-0.28070000000000006,-0.2652583687246944
-0.28169999999999995,-0.268229262454411
-0.28270000000000006,-0.2741710499138441
-0.28369999999999995,-0.27784929929349317
-0.28470000000000006,-0.2816690198031288
-0.28569999999999995,-0.28775227839254847
-0.28670000000000007,-0.290157287602319
-0.28769999999999996,-0.29454289263190064
-0.28870000000000007,-0.2986455554015092
-0.28969999999999996,-0.30373851608102337
-0.29070000000000007,-0.3074167654606725
-0.29169999999999996,-0.310670601450362
-0.29270000000000007,-0.3173197445597277
-0.29369999999999996,-0.3194418115095253
-0.2947000000000001,-0.32750566591875596
-0.29569999999999996,-0.3340133378981352
-0.2967000000000001,-0.3351451069380272
-0.29769999999999996,-0.3450480860370824
-0.2987000000000001,-0.3532534115762997
-0.29969999999999997,-0.35594136304604324
-0.3007000000000001,-0.35763901660588127
-0.30169999999999997,-0.3565072475659892
-0.3027000000000001,-0.3597610835556788
-0.30369999999999997,-0.36244903502542236
-0.3047000000000001,-0.36683464005500405
-0.30569999999999997,-0.37518143672420773
-0.3067000000000001,-0.38961149198283107
-0.3077,-0.4010706535117379
-0.3087000000000001,-0.4054562585413195
-0.3097,-0.4071539121011576
-0.3107000000000001,-0.40602214306126555
-0.3117,-0.4082856811410496
-0.3127000000000001,-0.4123883439106582
-0.3137,-0.4196033715399699
-0.3147000000000001,-0.4265354569093086
-0.3157,-0.4354481380984583
-0.3167000000000001,-0.44535111719751347
-0.3177,-0.45539556742655535
-0.3187000000000001,-0.4593567590661774
-0.3197,-0.4621861816659074
-0.3207000000000001,-0.46487413313565107
-0.3217,-0.4735038720648278
-0.3227000000000001,-0.48878275410337013
-0.3237,-0.49104629218315415
-0.3247000000000001,-0.4896315808832892
-0.3257,-0.49246100348301924
-0.3267000000000001,-0.5019395691921149
-0.3277,-0.5109937215112512
-0.3287000000000001,-0.5218869985202121
-0.3297,-0.5289605550195372
-0.3307000000000001,-0.5354682269989164
-0.3317,-0.5424003123682551
-0.3327000000000001,-0.5456541483579447
-0.3337,-0.5497568111275533
-0.3347000000000001,-0.5585280211867165
-0.3357,-0.5691383559357043
-0.3367000000000001,-0.5755045567850969
-0.3377,-0.5824366421544356
-0.3387000000000001,-0.5892272563937878
-0.3397,-0.5933299191633964
-0.3407000000000001,-0.5964422840230995
-0.3417,-0.6045061384323301
-0.3427000000000001,-0.6122870505815878
-0.3437,-0.619360607080913
-0.3447000000000001,-0.6230388564605621
-0.3457,-0.6284147594000492
-0.3467000000000001,-0.6384592096290911
-0.3477,-0.6485036598581327
-0.3487000000000001,-0.6626507728567832
-0.3497,-0.6651972531965403
-0.3507000000000001,-0.674392876645663
-0.3517,-0.6869838072144618
-0.3527000000000001,-0.6919352967639895
-0.3537,-0.6881155762543539
-0.3547000000000001,-0.6910864699840705
-0.3557,-0.6966038440535441
-0.35670000000000013,-0.7055165252426938
-0.3577,-0.7200880516313036
-0.35870000000000013,-0.733103395590062
-0.3597,-0.7434307880790767
-0.36070000000000013,-0.7513531713583209
-0.3617,-0.7554558341279295
-0.3626999999999999,-0.7653588132269848
-0.3637,-0.76960294712658
-0.3646999999999999,-0.773564138766202
-0.3657,-0.7817694643054193
-0.3666999999999999,-0.7906821454945689
-0.3677,-0.8027071915434218
-0.3686999999999999,-0.8086489790028549
-0.36970000000000003,-0.8165713622820991
-0.3706999999999999,-0.8249181589513029
-0.37170000000000003,-0.8390652719499533
-0.3726999999999999,-0.8450070594093865
-0.37370000000000003,-0.8501000200889006
-0.3746999999999999,-0.8581638744981313
-0.37570000000000003,-0.8728768720167276
-0.3766999999999999,-0.8793845439961068
-0.37770000000000004,-0.8911266477849867
-0.3786999999999999,-0.8909851766550001
-0.37970000000000004,-0.8922584168248787
-0.3806999999999999,-0.9008881557540553
-0.38170000000000004,-0.9126302595429352
-0.38269999999999993,-0.9249382478517609
-0.38370000000000004,-0.9338509290409107
-0.38469999999999993,-0.9506859935093046
-0.38570000000000004,-0.965116048767928
-0.38669999999999993,-0.9702090094474421
-0.38770000000000004,-0.9658234044178605
-0.38869999999999993,-0.9590327901785084
-0.38970000000000005,-0.9663892889378066
-0.39069999999999994,-0.9781313927266864
-0.39170000000000005,-0.9900149676455526
-0.39269999999999994,-1.0074159166338927
-0.39370000000000005,-1.0194409626827452
-0.39469999999999994,-1.0301927685617198
-0.39570000000000005,-1.0327392489014768
-0.39669999999999994,-1.0311830664716253
-0.39770000000000005,-1.0430666413904914
-0.39869999999999994,-1.0548087451793715
-0.39970000000000006,-1.0706535117378597
-0.40069999999999995,-1.074614703377482
-0.40170000000000006,-1.0886203452461456
-0.40269999999999995,-1.0928644791457407
-0.40370000000000006,-1.0964012573954034
-0.40469999999999995,-1.0992306799951337
-0.40570000000000006,-1.1098410147441211
-0.40669999999999995,-1.1313446265020697
-0.40770000000000006,-1.1471893930605581
-0.40869999999999995,-1.1487455754904097
-0.40970000000000006,-1.1596388524993706
-0.41069999999999995,-1.1712394851582637
-0.41170000000000007,-1.1737859654980207
-0.41269999999999996,-1.1884989630166172
-0.41370000000000007,-1.191469856746334
-0.41469999999999996,-1.200241066805497
-0.41570000000000007,-1.2008069513254431
-0.41669999999999996,-1.2234423321232837
-0.41770000000000007,-1.2194811404836614
-0.41869999999999996,-1.2353259070421498
-0.4197000000000001,-1.2623468928695722
-0.42069999999999996,-1.2798893129878988
-0.4217000000000001,-1.2790404862079796
-0.42269999999999996,-1.2739475255284654
-0.4237000000000001,-1.2714010451887086
-0.42469999999999997,-1.2680057380690324
-0.4257000000000001,-1.2762110636082498
-0.42669999999999997,-1.2910655322568325
-0.4277000000000001,-1.3332239289928105
-0.42869999999999997,-1.35104929137111
-0.4297000000000001,-1.3562837231806106
-0.43069999999999997,-1.3555763675306782
-0.4317000000000001,-1.3460978018215823
-0.4327,-1.3425610235719199
-0.4337000000000001,-1.3565666654405837
-0.4347,-1.3760896813787211
-0.4357000000000001,-1.4096183391855226
-0.4367,-1.423199567664227
-0.4377000000000001,-1.421784856364362
-0.4387,-1.4140039442151042
-0.4397000000000001,-1.431687835463417
-0.4407,-1.4302731241635522
-0.4417000000000001,-1.4359319693630124
-0.4427,-1.461396772760583
-0.4437000000000001,-1.4755438857592333
-0.4447,-1.4854468648582886
-0.4457000000000001,-1.5137410908555893
-0.4467,-1.5363764716534298
-0.4477000000000001,-1.5349617603535646
-0.4487,-1.5377911829532949
-0.4497000000000001,-1.5080822456561291
-0.4507,-1.501008689156804
-0.4517000000000001,-1.5094969569559942
-0.4527,-1.5264734925543744
-0.4537000000000001,-1.5491088733522151
-0.4547,-1.5816472332491107
-0.4557000000000001,-1.6113561705462767
-0.4567,-1.6099414592464116
-0.4577000000000001,-1.6085267479465466
-0.4587,-1.5972090575476263
-0.4597000000000001,-1.5972090575476263
-0.4607,-1.6085267479465466
-0.4617000000000001,-1.6198444383454669
-0.4627,-1.6354062626439825
-0.4637000000000001,-1.6707740451406083
-0.4647,-1.6792623129397986
-0.4657000000000001,-1.6750181790402037
-0.4667,-1.6778476016399335
-0.4677000000000001,-1.690580003338719
-0.4687,-1.7132153841365596
-0.4697000000000001,-1.7188742293360195
-0.4707,-1.7245330745354797
-0.4717000000000001,-1.7358507649344
-0.4727,-1.7542420118326456
-0.4737000000000001,-1.774047970030756
-0.4747,-1.778292103930351
-0.4757000000000001,-1.7853656604296764
-0.4767,-1.7867803717295414
-0.4777000000000001,-1.768389124831296
-0.4787,-1.7966833508285964
-0.4797000000000001,-1.8164893090267071
-0.4807,-1.8278069994256272
-0.48170000000000013,-1.8518570915233332
-0.4827,-1.8759071836210386
-0.48370000000000013,-1.8858101627200938
-0.4847,-1.8801513175206337
-0.48570000000000013,-1.8561012254229279
-0.4867,-1.8433688237241426
-0.4876999999999999,-1.8603453593225232
-0.4887,-1.897127853119014
-0.4896999999999999,-1.9098602548177994
-0.4907,-1.92400736781645
-0.4916999999999999,-1.933910346915505
-0.4927,-1.9480574599141556
