Potential V vs RHE, Current mA cm-2
0.05339999999999995,-0.025323332267584157
0.05239999999999995,-0.02624289461249643
0.051399999999999946,-0.02673804356744919
0.050399999999999945,-0.027120015618412752
0.049399999999999944,-0.027459546330380363
0.04839999999999994,-0.027841518381343924
0.04739999999999994,-0.02820934331930883
0.04639999999999994,-0.02852057980527914
0.04539999999999994,-0.028845963404248096
0.04439999999999994,-0.029171347003217055
0.04339999999999994,-0.029510877715184666
0.04239999999999994,-0.02986455554015093
0.04139999999999994,-0.030161644913122586
0.040399999999999936,-0.03044458717309559
0.039399999999999935,-0.030755823659065897
0.038399999999999934,-0.03110950148403216
0.03739999999999993,-0.031434885083001116
0.03639999999999993,-0.03171782734297412
0.03539999999999993,-0.032014916715945786
0.03439999999999993,-0.03231200608891744
0.03339999999999993,-0.0326656839138837
0.03239999999999993,-0.033005214625851306
0.03139999999999993,-0.03331645111182161
0.030399999999999927,-0.033627687597791917
0.029399999999999926,-0.033967218309759524
0.028399999999999925,-0.034306749021727145
0.027399999999999924,-0.03464627973369475
0.026399999999999924,-0.0349716633326637
0.025399999999999923,-0.03526875270563536
0.024399999999999922,-0.03560828341760297
0.02339999999999992,-0.03597610835556788
0.02239999999999992,-0.03631563906753549
0.02139999999999992,-0.0366551697795031
0.020399999999999918,-0.03699470049147071
0.019399999999999917,-0.03734837831643697
0.018399999999999916,-0.03774449748039918
0.017399999999999916,-0.038112322418364084
0.016399999999999915,-0.038409411791335744
0.015399999999999914,-0.038763089616302
0.014399999999999913,-0.03910262032826961
0.013399999999999912,-0.03951288660523048
0.012399999999999911,-0.039909005769192686
0.01139999999999991,-0.04024853648116029
0.01039999999999991,-0.0406163614191252
0.009399999999999908,-0.04097003924409146
0.008399999999999908,-0.041380305521052325
0.007399999999999907,-0.04177642468501453
0.006399999999999906,-0.04211595539698214
0.005399999999999905,-0.0424979274479457
0.004399999999999904,-0.04286575238591061
0.003399999999999903,-0.04327601866287147
0.002399999999999902,-0.04370043205283098
0.0013999999999999013,-0.04406825699079589
0.00039999999999990044,-0.044464376154758095
-0.0006000000000001005,-0.044860495318720314
-0.0016000000000001013,-0.04529905582167848
-0.0026000000000001022,-0.045709322098639336
-0.003600000000000103,-0.046077147036604246
-0.004600000000000104,-0.0464591190875678
-0.005600000000000105,-0.046869385364528664
-0.006600000000000106,-0.047336240093484125
-0.007600000000000107,-0.04777480059644229
-0.008600000000000108,-0.048170919760404496
-0.009600000000000108,-0.04858118603736536
-0.01060000000000011,-0.04899145231432622
-0.01160000000000011,-0.049458307043281684
-0.012600000000000111,-0.049911014659238494
-0.013600000000000112,-0.05032128093619936
-0.014600000000000113,-0.050745694326158865
-0.015600000000000114,-0.051184254829117024
-0.016600000000000115,-0.051665256671071136
-0.017600000000000116,-0.052132111400026604
-0.018600000000000116,-0.05255652478998611
-0.019600000000000117,-0.052980938179945626
-0.020600000000000118,-0.053419498682903785
-0.02160000000000012,-0.05391464763785655
-0.02260000000000012,-0.054395649479810654
-0.02360000000000012,-0.05483420998276882
-0.024600000000000122,-0.05530106471172429
-0.025600000000000123,-0.05573962521468245
-0.026600000000000124,-0.05623477416963521
-0.027600000000000124,-0.05671577601158932
-0.028600000000000125,-0.05716848362754613
-0.029600000000000126,-0.05762119124350294
-0.030600000000000127,-0.05808804597245841
-0.03160000000000013,-0.05858319492741117
-0.03260000000000013,-0.05907834388236394
-0.03360000000000013,-0.05951690438532209
-0.03460000000000002,-0.05996961200127891
-0.03560000000000002,-0.06043646673023437
-0.03660000000000002,-0.060959909911184426
-0.03760000000000002,-0.06146920597913584
-0.03860000000000002,-0.06195020782108995
-0.039600000000000024,-0.06243120966304407
-0.040600000000000025,-0.06294050573099548
-0.041600000000000026,-0.06346394891194555
-0.04260000000000003,-0.06398739209289561
-0.04360000000000003,-0.06448254104784838
-0.04460000000000003,-0.06497769000280114
-0.04560000000000003,-0.0655011331837512
-0.04660000000000003,-0.06602457636470126
-0.04760000000000003,-0.06654801954565133
-0.04860000000000003,-0.06704316850060409
-0.04960000000000003,-0.06753831745555686
-0.050600000000000034,-0.06806176063650692
-0.051600000000000035,-0.06861349804345429
-0.052600000000000036,-0.06912279411140569
-0.053600000000000037,-0.06964623729235576
-0.05460000000000004,-0.07014138624730852
-0.05560000000000004,-0.07065068231525992
-0.05660000000000004,-0.07124486106120324
-0.05760000000000004,-0.07178245135515196
-0.05860000000000004,-0.07227760031010473
-0.05960000000000004,-0.07278689637805613
-0.06060000000000004,-0.0733103395590062
-0.061600000000000044,-0.07387622407895222
-0.06260000000000004,-0.07442796148589957
-0.06360000000000005,-0.07495140466684964
-0.06460000000000005,-0.0754748478477997
-0.06560000000000005,-0.07601243814174842
-0.06660000000000005,-0.07656417554869578
-0.06760000000000005,-0.07711591295564316
-0.06860000000000005,-0.07762520902359457
-0.06960000000000005,-0.07814865220454463
-0.07060000000000005,-0.07871453672449064
-0.07160000000000005,-0.07926627413143801
-0.07260000000000005,-0.07983215865138403
-0.07360000000000005,-0.08032730760633679
-0.07460000000000006,-0.08083660367428819
-0.07560000000000006,-0.08140248819423422
-0.07660000000000006,-0.08198251982717887
-0.07760000000000006,-0.08254840434712489
-0.07860000000000006,-0.08307184752807495
-0.07960000000000006,-0.08355284937002906
-0.08060000000000006,-0.08403385121198319
-0.08160000000000006,-0.08459973573192921
-0.08260000000000006,-0.08516562025187521
-0.08360000000000006,-0.08568906343282526
-0.08460000000000006,-0.08621250661377533
-0.08560000000000006,-0.08675009690772406
-0.08660000000000007,-0.08728768720167276
-0.08760000000000007,-0.08779698326962418
-0.08860000000000007,-0.08829213222457694
-0.08960000000000007,-0.088815575405527
-0.09060000000000007,-0.08932487147347841
-0.09160000000000007,-0.08990490310642309
-0.09260000000000007,-0.09044249340037179
-0.09360000000000007,-0.0909517894683232
-0.09460000000000007,-0.09146108553627462
-0.09560000000000007,-0.09197038160422603
-0.09660000000000007,-0.09250797189817477
-0.09760000000000008,-0.09305970930512211
-0.09860000000000008,-0.09354071114707624
-0.09960000000000008,-0.0940641543280263
-0.10060000000000008,-0.0945451561699804
-0.10160000000000008,-0.09509689357692777
-0.10260000000000008,-0.09562033675787783
-0.10360000000000008,-0.09611548571283059
-0.10460000000000008,-0.0965964875547847
-0.10560000000000008,-0.09709163650973747
-0.10660000000000008,-0.09761507969068753
-0.10760000000000008,-0.09811022864564029
-0.10860000000000009,-0.09856293626159711
-0.10960000000000009,-0.09905808521654987
-0.11060000000000009,-0.09951079283250668
-0.11160000000000009,-0.10002008890045809
-0.11260000000000009,-0.10052938496840952
-0.11360000000000009,-0.10096794547136766
-0.11460000000000009,-0.10143480020032314
-0.11560000000000009,-0.1019299491552759
-0.11660000000000009,-0.10241095099723
-0.1176000000000001,-0.10286365861318682
-0.1186000000000001,-0.10328807200314633
-0.1196000000000001,-0.10371248539310583
-0.1206000000000001,-0.10416519300906264
-0.1216000000000001,-0.10463204773801811
-0.1226000000000001,-0.10507060824097628
-0.1236000000000001,-0.10549502163093578
-0.1246000000000001,-0.10591943502089529
-0.1256000000000001,-0.10634384841085481
-0.1266000000000001,-0.10679655602681161
-0.1276000000000001,-0.10723511652976979
-0.1286000000000001,-0.107631235693732
-0.1296000000000001,-0.1079990606316969
-0.1306000000000001,-0.10842347402165642
-0.1316000000000001,-0.10884788741161593
-0.1326000000000001,-0.10927230080157543
-0.1336000000000001,-0.10964012573954035
-0.1346000000000001,-0.11002209779050391
-0.1356000000000001,-0.1103899227284688
-0.1366000000000001,-0.11081433611842831
-0.1376000000000001,-0.11119630816939187
-0.1386000000000001,-0.11154998599435814
-0.1396000000000001,-0.11190366381932441
-0.1406000000000001,-0.11225734164429065
-0.14160000000000011,-0.11265346080825286
-0.14260000000000012,-0.11302128574621777
-0.14360000000000012,-0.1133325222321881
-0.14460000000000012,-0.11365790583115705
-0.14560000000000012,-0.11398328943012599
-0.14660000000000012,-0.11436526148108955
-0.14760000000000012,-0.11469064508005854
-0.14860000000000012,-0.11498773445303019
-0.14960000000000012,-0.11528482382600183
-0.15060000000000012,-0.11562435453796945
-0.15160000000000012,-0.1159780323629357
-0.15260000000000012,-0.11630341596190466
-0.15360000000000013,-0.11658635822187767
-0.15460000000000013,-0.11686930048185068
-0.15560000000000013,-0.11716638985482233
-0.15660000000000013,-0.11747762634079266
-0.15760000000000013,-0.11776056860076566
-0.15860000000000013,-0.11800106952174272
-0.15960000000000002,-0.11826986466871706
-0.16060000000000002,-0.11852451270269278
-0.16160000000000002,-0.11879330784966712
-0.16260000000000002,-0.11904795588364282
-0.16360000000000002,-0.11927430969162124
-0.16460000000000002,-0.11951481061259829
-0.16560000000000002,-0.1197977528725713
-0.16660000000000003,-0.12010898935854163
-0.16760000000000003,-0.12032119605352137
-0.16860000000000003,-0.12051925563550246
-0.16960000000000003,-0.12073146233048222
-0.17060000000000003,-0.120943669025462
-0.17160000000000003,-0.1211700228334404
-0.17260000000000003,-0.1213963766414188
-0.17360000000000003,-0.12156614199740261
-0.17460000000000003,-0.12172176024038774
-0.17560000000000003,-0.12189152559637156
-0.17660000000000003,-0.12210373229135131
-0.17760000000000004,-0.12228764476033378
-0.17860000000000004,-0.12242911589032028
-0.17960000000000004,-0.12259888124630408
-0.18060000000000004,-0.12275449948928924
-0.18160000000000004,-0.12296670618426901
-0.18260000000000004,-0.12313647154025278
-0.18360000000000004,-0.12326379555724064
-0.18460000000000004,-0.1234194138002258
-0.18560000000000004,-0.12356088493021229
-0.18660000000000004,-0.12373065028619613
-0.18760000000000004,-0.12388626852918126
-0.18860000000000005,-0.1239852983201718
-0.18960000000000005,-0.12411262233715968
-0.19060000000000005,-0.12426824058014481
-0.19160000000000005,-0.12442385882312997
-0.19260000000000005,-0.12455118284011783
-0.19360000000000005,-0.12463606551810973
-0.19460000000000005,-0.12476338953509758
-0.19560000000000005,-0.1248765664390868
-0.19660000000000005,-0.12500389045607466
-0.19760000000000005,-0.12511706736006384
-0.19860000000000005,-0.12518780292505707
-0.19960000000000006,-0.12525853849005034
-0.20060000000000006,-0.12535756828104092
-0.20160000000000006,-0.12548489229802873
-0.20260000000000006,-0.12556977497602065
-0.20360000000000006,-0.1256405105410139
-0.20460000000000006,-0.12571124610600715
-0.20560000000000006,-0.12578198167100044
-0.20660000000000006,-0.12589515857498962
-0.20760000000000006,-0.12596589413998285
-0.20860000000000006,-0.12602248259197746
-0.20960000000000006,-0.12606492393097343
-0.21060000000000006,-0.12614980660896533
-0.21160000000000007,-0.12624883639995585
-0.21260000000000007,-0.12630542485195048
-0.21360000000000007,-0.1263620133039451
-0.21460000000000007,-0.12639030752994238
-0.21560000000000007,-0.12644689598193698
-0.21660000000000007,-0.12657421999892482
-0.21760000000000007,-0.12663080845091942
-0.21860000000000007,-0.12667324978991537
-0.21960000000000007,-0.1267015440159127
-0.22060000000000007,-0.1267581324679073
-0.22160000000000007,-0.12682886803290053
-0.22260000000000008,-0.12688545648489513
-0.22360000000000008,-0.1268996035978938
-0.22460000000000008,-0.1269278978238911
-0.22560000000000008,-0.12694204493688974
-0.22660000000000008,-0.12701278050188297
-0.22760000000000008,-0.1270693689538776
-0.22860000000000008,-0.1270976631798749
-0.22960000000000008,-0.1271259574058722
-0.23060000000000008,-0.1271542516318695
-0.23160000000000008,-0.1272108400838641
-0.23260000000000008,-0.12725328142286002
-0.23360000000000009,-0.12725328142286002
-0.2346000000000001,-0.12725328142286002
-0.2356000000000001,-0.127295722761856
-0.2366000000000001,-0.1273523112138506
-0.2376000000000001,-0.12738060543984792
-0.2386000000000001,-0.12739475255284655
-0.2396000000000001,-0.1274088996658452
-0.2406000000000001,-0.12742304677884386
-0.2416000000000001,-0.12747963523083847
-0.2426000000000001,-0.12753622368283307
-0.2436000000000001,-0.12753622368283307
-0.2446000000000001,-0.12753622368283307
-0.2456000000000001,-0.12756451790883036
-0.2466000000000001,-0.12759281213482765
-0.2476000000000001,-0.1276069592478263
-0.2486000000000001,-0.1276069592478263
-0.2496000000000001,-0.1276352534738236
-0.2506000000000001,-0.1276352534738236
-0.2516000000000001,-0.12767769481281957
-0.2526000000000001,-0.12769184192581823
-0.2536000000000001,-0.12770598903881686
-0.2546000000000001,-0.12769184192581823
-0.2556000000000001,-0.12772013615181552
-0.2566000000000001,-0.12779087171680875
-0.2576000000000001,-0.1277767246038101
-0.2586000000000001,-0.1277625774908115
-0.2596000000000001,-0.1277767246038101
-0.2606000000000001,-0.12779087171680875
-0.2616000000000001,-0.12786160728180201
-0.2626000000000001,-0.12787575439480064
-0.2636000000000001,-0.12786160728180201
-0.2646000000000001,-0.12787575439480064
-0.2656000000000001,-0.1278899015077993
-0.2666000000000001,-0.12793234284679525
-0.2676000000000001,-0.12796063707279257
-0.2686000000000001,-0.1279464899597939
-0.2696000000000001,-0.1279464899597939
-0.2706000000000001,-0.12797478418579122
-0.2716000000000001,-0.12801722552478714
-0.2726000000000001,-0.1280455197507845
-0.2736000000000001,-0.1280313726377858
-0.2746000000000001,-0.1280313726377858
-0.2756000000000001,-0.12805966686378314
-0.2766000000000001,-0.1280879610897804
-0.2776000000000001,-0.12810210820277906
-0.2786000000000001,-0.12811625531577772
-0.2796000000000001,-0.12810210820277906
-0.2806000000000001,-0.12813040242877638
-0.28160000000000013,-0.12815869665477364
-0.28260000000000013,-0.12817284376777233
-0.28360000000000013,-0.12817284376777233
-0.2846,-0.12815869665477364
-0.2856,-0.12817284376777233
-0.2866,-0.12824357933276556
-0.2876,-0.12825772644576422
-0.2886,-0.12824357933276556
-0.2896,-0.12824357933276556
-0.2906,-0.12825772644576422
-0.2916,-0.12831431489775882
-0.2926,-0.12832846201075748
-0.2936,-0.12831431489775882
-0.29460000000000003,-0.12834260912375614
-0.29560000000000003,-0.12834260912375614
-0.29660000000000003,-0.12839919757575072
-0.29760000000000003,-0.12839919757575072
-0.29860000000000003,-0.12841334468874938
-0.29960000000000003,-0.12841334468874938
-0.30060000000000003,-0.12842749180174803
-0.30160000000000003,-0.12848408025374264
-0.30260000000000004,-0.12849822736674127
-0.30360000000000004,-0.12849822736674127
-0.30460000000000004,-0.12849822736674127
-0.30560000000000004,-0.12852652159273859
-0.30660000000000004,-0.1285831100447332
-0.30760000000000004,-0.12859725715773185
-0.30860000000000004,-0.12859725715773185
-0.30960000000000004,-0.12861140427073048
-0.31060000000000004,-0.12863969849672777
-0.31160000000000004,-0.12868213983572377
-0.31260000000000004,-0.1287245811747197
-0.31360000000000005,-0.1287245811747197
-0.31460000000000005,-0.12873872828771835
-0.31560000000000005,-0.12876702251371563
-0.31660000000000005,-0.12882361096571027
-0.31760000000000005,-0.12888019941770484
-0.31860000000000005,-0.12886605230470619
-0.31960000000000005,-0.12890849364370216
-0.32060000000000005,-0.12893678786969942
-0.32160000000000005,-0.12899337632169403
-0.32260000000000005,-0.12904996477368866
-0.32360000000000005,-0.12906411188668732
-0.32460000000000006,-0.12906411188668732
-0.32560000000000006,-0.1290924061126846
-0.32660000000000006,-0.12914899456467918
-0.32760000000000006,-0.12916314167767784
-0.32860000000000006,-0.1291772887906765
-0.32960000000000006,-0.1291772887906765
-0.33060000000000006,-0.12921973012967244
-0.33160000000000006,-0.1292904656946657
-0.33260000000000006,-0.129318759920663
-0.33360000000000006,-0.12933290703366165
-0.33460000000000006,-0.12936120125965894
-0.33560000000000006,-0.12940364259865492
-0.33660000000000007,-0.12947437816364815
-0.33760000000000007,-0.12950267238964547
-0.33860000000000007,-0.12953096661564276
-0.33960000000000007,-0.12955926084164004
-0.34060000000000007,-0.1295734079546387
-0.34160000000000007,-0.1296299964066333
-0.34260000000000007,-0.12964414351963197
-0.34360000000000007,-0.12965829063263062
-0.3446000000000001,-0.1296865848586279
-0.3456000000000001,-0.12974317331062254
-0.3466000000000001,-0.1298563502146117
-0.34759999999999996,-0.12988464444060904
-0.3486000000000001,-0.12988464444060904
-0.34959999999999997,-0.1299129386666063
-0.3506000000000001,-0.12996952711860094
-0.35159999999999997,-0.13004026268359417
-0.3526000000000001,-0.13009685113558878
-0.35359999999999997,-0.13011099824858743
-0.3546000000000001,-0.13015343958758338
-0.35559999999999997,-0.13022417515257662
-0.3566000000000001,-0.13028076360457122
-0.3576,-0.13033735205656583
-0.3586000000000001,-0.13033735205656583
-0.3596,-0.13035149916956448
-0.3606000000000001,-0.1304363818475564
-0.3616,-0.13049297029955098
-0.3626000000000001,-0.13054955875154559
-0.3636,-0.13059200009054156
-0.3646000000000001,-0.13064858854253616
-0.3656,-0.13069102988153208
-0.3666000000000001,-0.13077591255952398
-0.3676,-0.13083250101151858
-0.3686000000000001,-0.13087494235051456
-0.3696,-0.13088908946351321
-0.3706000000000001,-0.1309739721415051
-0.3716,-0.13107300193249566
-0.3726000000000001,-0.13110129615849295
-0.3736,-0.13115788461048755
-0.3746000000000001,-0.13121447306248216
-0.3756,-0.13127106151447676
-0.3766000000000001,-0.1313700913054673
-0.3776,-0.1313983855314646
-0.3786000000000001,-0.13144082687046055
-0.3796,-0.1314832682094565
-0.3806000000000001,-0.13156815088744844
-0.3816,-0.13165303356544034
-0.3826000000000001,-0.13169547490443625
-0.3836,-0.13175206335643086
-0.3846000000000001,-0.13178035758242818
-0.3856,-0.13185109314742144
-0.3866000000000001,-0.13193597582541333
-0.3876,-0.13202085850340523
-0.3886000000000001,-0.13202085850340523
-0.3896,-0.13206329984240117
-0.3906000000000001,-0.13213403540739443
-0.3916,-0.13221891808538633
-0.3926000000000001,-0.13227550653738093
-0.3936,-0.13231794787637688
-0.3946000000000001,-0.13236038921537283
-0.3956,-0.1324311247803661
-0.3966000000000001,-0.13253015457135664
-0.3976,-0.13258674302335122
-0.3986000000000001,-0.13264333147534585
-0.3996,-0.13292627373531885
-0.4006000000000001,-0.1331667746562959
-0.4016,-0.1332799515602851
-0.4026000000000001,-0.13332239289928105
-0.4036,-0.13333654001227974
-0.4046000000000001,-0.13337898135127566
-0.4056,-0.13346386402926755
-0.40660000000000013,-0.13356289382025813
-0.4076,-0.13360533515925405
-0.40860000000000013,-0.1336760707242473
-0.4096,-0.1337326591762419
-0.41060000000000013,-0.1338175418542338
-0.4116,-0.13393071875822302
-0.41260000000000013,-0.13398730721021762
-0.4136,-0.13404389566221223
-0.41460000000000014,-0.1341146312272055
-0.4156,-0.13422780813119467
-0.41660000000000014,-0.13434098503518388
-0.4176,-0.13446830905217175
-0.41860000000000014,-0.13497760512012316
-0.41960000000000003,-0.13509078202411234
-0.42060000000000014,-0.1351615175891056
-0.42160000000000003,-0.13528884160609345
-0.42260000000000014,-0.1354444598490786
-0.42360000000000003,-0.13552934252707052
-0.42460000000000014,-0.13561422520506242
-0.42560000000000003,-0.13567081365705702
-0.42660000000000015,-0.13578399056104623
-0.42760000000000004,-0.13582643190004218
-0.42860000000000015,-0.13588302035203678
-0.42960000000000004,-0.13593960880403136
-0.43060000000000015,-0.13602449148202328
-0.43160000000000004,-0.13613766838601246
-0.43260000000000015,-0.13622255106400438
-0.43360000000000004,-0.13626499240300033
-0.43460000000000015,-0.13636402219399088
-0.43560000000000004,-0.1364489048719828
-0.43660000000000015,-0.13656208177597198
