Potential V vs RHE, Current mA cm-2
0.4132999999999999,0.008027071915434218
0.4122999999999999,0.004945830704328168
0.4112999999999999,0.003611757948555439
0.4102999999999999,0.00270209858274222
0.4092999999999999,0.0019084455435179344
0.4082999999999999,0.001326291843623472
0.4072999999999999,0.0007652173420969984
0.4062999999999999,0.00024035944984706972
0.4052999999999999,-0.00026073129256512625
0.4042999999999999,-0.0007520605270082535
0.4032999999999999,-0.0011889233764065768
0.4022999999999999,-0.0015943796349478963
0.4012999999999999,-0.0019622045729128057
0.4002999999999999,-0.00232012653177866
0.3992999999999999,-0.0027473693443379014
0.3982999999999999,-0.0030982177467044304
0.3972999999999999,-0.0034405778812717693
0.3962999999999999,-0.0037263495638445066
0.3952999999999999,-0.004013535957717109
0.3942999999999999,-0.004319113598487957
0.39329999999999987,-0.0045978117245613695
0.39229999999999987,-0.004889242252333567
0.39129999999999987,-0.005160866821907653
0.39029999999999987,-0.0054155148558833605
0.38929999999999987,-0.005658845199460146
0.38829999999999987,-0.005869637183140037
0.38729999999999987,-0.006054964363422357
0.38629999999999987,-0.006274244614901438
0.38529999999999986,-0.006462401217783488
0.38429999999999986,-0.006618019460768641
0.38329999999999986,-0.006855690959145968
0.38229999999999986,-0.007076385921924913
0.38129999999999986,-0.00729708088470386
0.38029999999999986,-0.00749938460058456
0.37929999999999986,-0.007687541203466609
0.37829999999999986,-0.00788135665154812
0.37729999999999986,-0.0080723426770299
0.37629999999999986,-0.008209569673116807
0.37529999999999986,-0.008356699648302771
0.37429999999999986,-0.008519391447787251
0.37329999999999985,-0.00866793613427308
0.37229999999999985,-0.008865995716254184
0.37129999999999985,-0.009048493473936775
0.37029999999999985,-0.009228161809019635
0.36929999999999985,-0.009358315248607219
0.36829999999999985,-0.009471492152596421
0.36729999999999985,-0.009638428085980496
0.36629999999999985,-0.009767166814268213
0.36529999999999985,-0.009888831986056607
0.36429999999999985,-0.01005859734204041
0.36329999999999985,-0.01017601837992921
0.36229999999999984,-0.010351442581112473
0.36129999999999984,-0.010478766598100325
0.36029999999999984,-0.010621652439386696
0.35929999999999984,-0.01077444125977212
0.35829999999999984,-0.010869226916863078
0.35729999999999984,-0.01100220977905039
0.35629999999999984,-0.011146510331636625
0.35529999999999984,-0.011286566750323261
0.35429999999999984,-0.01144642912720801
0.35329999999999984,-0.01158365612329492
0.35229999999999984,-0.0116897594707848
0.35129999999999983,-0.011808595219973463
0.35029999999999983,-0.011896307320565094
0.34929999999999983,-0.012026460760152678
0.34829999999999983,-0.012187737848337292
0.34729999999999983,-0.0123249648444242
0.34629999999999983,-0.012394285698117586
0.34529999999999983,-0.012497559623007734
0.34429999999999983,-0.012636201330394507
0.3432999999999998,-0.012763525347382362
0.3422999999999998,-0.012855481581873588
0.3412999999999998,-0.012984220310161308
0.3402999999999998,-0.013149741532245515
0.3392999999999998,-0.013228965365037957
0.3382999999999998,-0.013325165733428781
0.3372999999999998,-0.013448245616517038
0.3362999999999998,-0.013557178386606646
0.3352999999999998,-0.01367318471319558
0.3342999999999998,-0.013787776328484647
0.3332999999999998,-0.013871244295176685
0.3322999999999998,-0.013987250621765616
0.3312999999999998,-0.01407496272235725
0.3302999999999998,-0.014203701450644968
0.3292999999999998,-0.014316878354634173
0.3282999999999998,-0.014430055258623373
0.3272999999999998,-0.014543232162612576
0.3262999999999998,-0.014642261953603129
0.3252999999999999,-0.01469885040559773
0.3242999999999999,-0.014826174422585584
0.3232999999999999,-0.014911057100577486
0.3222999999999999,-0.01505252823056399
0.3212999999999999,-0.015179852247551842
0.3202999999999999,-0.015236440699546445
0.3192999999999999,-0.0153637647165343
0.3182999999999999,-0.015420353168528897
0.3172999999999999,-0.015491088733522153
0.3162999999999999,-0.015604265637511355
0.3152999999999999,-0.015660854089505957
0.3142999999999999,-0.01578817810649381
0.3132999999999999,-0.01588720789748436
0.3122999999999999,-0.01597209057547626
0.3112999999999999,-0.01608526747946547
0.3102999999999999,-0.01614185593146007
0.3092999999999999,-0.01624088572245062
0.3082999999999999,-0.016354062626439823
0.3072999999999999,-0.016438945304431726
0.3062999999999999,-0.016552122208420932
0.3052999999999999,-0.016637004886412832
0.3042999999999999,-0.016721887564404736
0.3032999999999999,-0.01683506446839394
0.3022999999999999,-0.01693409425938449
0.3012999999999999,-0.017047271163373692
0.3002999999999999,-0.017160448067362895
0.2992999999999999,-0.017231183632356147
0.2982999999999999,-0.0173302134233467
0.2972999999999999,-0.017471684553333203
0.2962999999999999,-0.017542420118326456
0.2952999999999999,-0.017627302796318356
0.2942999999999999,-0.01769803836131161
0.2932999999999999,-0.01781121526530081
0.2922999999999999,-0.017896097943292714
0.2912999999999999,-0.017980980621284618
0.2902999999999999,-0.018094157525273817
0.2892999999999999,-0.018235628655260322
0.2882999999999999,-0.018320511333252226
0.2872999999999999,-0.018405394011244126
0.2862999999999999,-0.01849027668923603
0.2852999999999999,-0.018546865141230634
0.2842999999999999,-0.018645894932221182
0.2832999999999999,-0.018702483384215783
0.2822999999999999,-0.01882980740120364
0.2812999999999999,-0.018942984305192843
0.2802999999999999,-0.018999572757187444
0.2792999999999999,-0.019098602548177995
0.2782999999999999,-0.0191551910001726
0.2772999999999999,-0.019211779452167198
0.2762999999999999,-0.0193249563561564
0.2752999999999999,-0.019381544808151
0.2742999999999999,-0.01950886882513886
0.2732999999999999,-0.019579604390132108
0.2722999999999999,-0.019664487068124008
0.2712999999999999,-0.019749369746115915
0.2702999999999999,-0.019820105311109164
0.2692999999999999,-0.019919135102099715
0.26829999999999987,-0.020018164893090266
0.26729999999999987,-0.02008890045808352
0.26629999999999987,-0.020173783136075422
0.26529999999999987,-0.020244518701068675
0.26429999999999987,-0.020315254266061927
0.26329999999999987,-0.02045672539604843
0.26229999999999987,-0.02055575518703898
0.26129999999999987,-0.020654784978029535
0.26029999999999986,-0.02071137343002414
0.25929999999999986,-0.02079625610801604
0.25829999999999986,-0.020895285899006594
0.25729999999999986,-0.020980168576998495
0.25629999999999986,-0.021036757028993096
0.25529999999999986,-0.021121639706984996
0.25429999999999986,-0.0212065223849769
0.25329999999999986,-0.021291405062968803
0.25229999999999986,-0.021418729079956657
0.25129999999999986,-0.02150361175794856
0.25029999999999986,-0.02157434732294181
0.24929999999999986,-0.02167337711393236
0.24829999999999985,-0.021744112678925617
0.24729999999999985,-0.02185728958291482
0.24629999999999985,-0.02189973092191077
0.24529999999999985,-0.022027054938898623
0.24429999999999985,-0.022097790503891875
0.24329999999999985,-0.02218267318188378
0.24229999999999985,-0.022295850085872978
0.24129999999999985,-0.02238073276386488
0.24029999999999985,-0.02245146832885813
0.23929999999999985,-0.022564645232847336
0.23829999999999985,-0.022607086571843286
0.23729999999999984,-0.02267782213683654
0.23629999999999984,-0.02274855770182979
0.23529999999999984,-0.02279099904082574
0.23429999999999984,-0.022890028831816296
0.23329999999999984,-0.022989058622806844
0.23229999999999984,-0.0230880884137974
0.23129999999999984,-0.0232012653177866
0.23029999999999984,-0.023257853769781203
0.22929999999999984,-0.023314442221775804
0.22829999999999984,-0.023399324899767704
0.22729999999999984,-0.02347006046476096
0.22629999999999983,-0.02352664891675556
0.22529999999999983,-0.023611531594747465
0.22429999999999983,-0.023710561385738016
0.22329999999999983,-0.023837885402725866
0.22229999999999983,-0.02389447385472047
0.22129999999999983,-0.023993503645711022
0.22029999999999983,-0.024050092097705623
0.21929999999999983,-0.024092533436701577
0.21829999999999983,-0.02417741611469348
0.21729999999999983,-0.02424815167968673
0.21629999999999983,-0.024318887244679982
0.21529999999999982,-0.024417917035670533
0.21429999999999982,-0.024502799713662437
0.21329999999999982,-0.024545241052658383
0.21229999999999982,-0.02457353527865569
0.21129999999999982,-0.024630123730650287
0.21029999999999982,-0.02474330063463949
0.20929999999999982,-0.02479988908663409
0.20829999999999982,-0.024870624651627343
0.20729999999999982,-0.024983801555616546
0.20629999999999982,-0.02506868423360845
0.20529999999999982,-0.02512527268560305
0.20429999999999982,-0.025210155363594954
0.20329999999999981,-0.025252596702590904
0.2022999999999998,-0.025337479380582808
0.2012999999999998,-0.025422362058574708
0.20029999999999992,-0.02546480339757066
0.19929999999999992,-0.02554968607556256
0.19829999999999992,-0.025634568753554465
0.19729999999999992,-0.025691157205549067
0.19629999999999992,-0.02577603988354097
0.19529999999999992,-0.02580433410953827
0.19429999999999992,-0.025931658126526123
0.19329999999999992,-0.026016540804518026
0.19229999999999992,-0.026030687917516674
0.19129999999999991,-0.026101423482509926
0.1902999999999999,-0.026172159047503182
0.1892999999999999,-0.02622874749949778
0.1882999999999999,-0.026356071516485634
0.1872999999999999,-0.026426807081478886
0.1862999999999999,-0.02645510130747619
0.1852999999999999,-0.026539983985468085
0.1842999999999999,-0.02659657243746269
0.1832999999999999,-0.026695602228453245
0.1822999999999999,-0.026752190680447843
0.1812999999999999,-0.026879514697435696
0.1802999999999999,-0.026936103149430297
0.1792999999999999,-0.026978544488426247
0.1782999999999999,-0.0270775742794168
0.1772999999999999,-0.027134162731411407
0.1762999999999999,-0.027190751183406005
0.1752999999999999,-0.027261486748399254
0.1742999999999999,-0.02731807520039386
0.1732999999999999,-0.02740295787838576
0.1722999999999999,-0.027459546330380363
0.1712999999999999,-0.027530281895373616
0.1702999999999999,-0.02762931168636417
0.1692999999999999,-0.027714194364356067
0.1682999999999999,-0.027799077042347967
0.1672999999999999,-0.02788395972033987
0.1662999999999999,-0.027926401059335824
0.1652999999999999,-0.02796884239833177
0.1642999999999999,-0.028039577963325023
0.1632999999999999,-0.028124460641316927
0.1622999999999999,-0.028223490432307482
0.1612999999999999,-0.02829422599730073
0.1602999999999999,-0.028364961562293983
0.1592999999999999,-0.02847813846628319
0.15829999999999989,-0.02854887403127644
0.15729999999999988,-0.02861960959626969
0.15629999999999988,-0.028704492274261594
0.15529999999999988,-0.028732786500258897
0.15429999999999988,-0.02880352206525215
0.15329999999999988,-0.028916698969241348
0.15229999999999988,-0.028973287421235953
0.15129999999999988,-0.0290723172122265
0.15029999999999988,-0.029143052777219756
0.14929999999999988,-0.029199641229214358
0.14829999999999988,-0.02931281813320356
0.14729999999999988,-0.029369406585198165
0.14629999999999987,-0.029482583489187364
0.14529999999999987,-0.02959576039317657
0.14429999999999987,-0.02970893729716577
0.14329999999999987,-0.02982211420115497
0.14229999999999987,-0.029921143992145526
0.14129999999999987,-0.029991879557138775
0.14029999999999987,-0.03006261512213203
0.13929999999999987,-0.03010505646112798
0.13829999999999987,-0.030218233365117184
0.13729999999999987,-0.030317263156107735
0.13629999999999987,-0.03040214583409964
0.13529999999999986,-0.030529469851087492
0.13429999999999986,-0.03058605830308209
0.13329999999999986,-0.030699235207071292
0.13229999999999986,-0.030769970772064545
0.13129999999999986,-0.03082655922405915
0.13029999999999986,-0.0308690005630551
0.12929999999999986,-0.0309255890150497
0.12829999999999986,-0.03099632458004295
0.12729999999999986,-0.031123648597030807
0.12629999999999986,-0.031222678388021355
0.12529999999999986,-0.03132170817901191
0.12429999999999986,-0.031434885083001116
0.12329999999999985,-0.031505620647994365
0.12229999999999985,-0.03159050332598627
0.12129999999999985,-0.03166123889097952
0.12029999999999985,-0.03174612156897143
0.11929999999999985,-0.03181685713396468
0.11829999999999985,-0.031972475376949826
0.11729999999999985,-0.03204321094194308
0.11629999999999985,-0.032071505167940384
0.11529999999999985,-0.03214224073293363
0.11429999999999985,-0.032184682071929586
0.11329999999999985,-0.03229785897591879
0.11229999999999984,-0.032340300314914736
0.11129999999999984,-0.032425182992906636
0.11029999999999984,-0.032524212783897194
0.10929999999999984,-0.03256665412289315
0.10829999999999984,-0.03267983102688235
0.10729999999999984,-0.03276471370487424
0.10629999999999984,-0.03287789060886345
0.10529999999999984,-0.03296277328685536
0.10429999999999984,-0.03301936173884996
0.10329999999999984,-0.033104244416841865
0.10229999999999984,-0.033174979981835113
0.10129999999999983,-0.033274009772825665
0.10029999999999983,-0.03338718667681487
0.09929999999999983,-0.033457922241808116
0.09829999999999983,-0.03357109914579732
0.09729999999999983,-0.03368427604978652
0.09629999999999983,-0.033740864501781126
0.09529999999999983,-0.03383989429277168
0.09429999999999983,-0.033896482744766275
0.09329999999999983,-0.033967218309759524
0.09229999999999983,-0.03406624810075008
0.09129999999999983,-0.03416527789174064
0.09029999999999982,-0.03425016056973254
0.08929999999999982,-0.034335043247724434
0.08829999999999982,-0.03441992592571634
0.08729999999999982,-0.03450480860370824
0.08629999999999982,-0.0345755441687015
0.08529999999999982,-0.03464627973369475
0.08429999999999982,-0.034717015298688
0.08329999999999982,-0.03481604508967855
0.08229999999999982,-0.03494336910666641
0.08129999999999982,-0.03501410467165966
0.08029999999999982,-0.03508484023665291
0.07929999999999982,-0.03515557580164616
0.07829999999999981,-0.03524045847963807
0.07729999999999981,-0.035297046931632665
0.07629999999999981,-0.035381929609624566
0.07529999999999992,-0.03543851806161917
0.07429999999999992,-0.035509253626612426
0.07329999999999992,-0.03560828341760297
0.07229999999999992,-0.03569316609559487
0.07129999999999992,-0.03577804877358678
0.07029999999999992,-0.03584878433858003
0.06929999999999992,-0.03591951990357328
0.06829999999999992,-0.036032696807562485
0.06729999999999992,-0.036131726598553036
0.06629999999999991,-0.03625905061554088
0.06529999999999991,-0.03634393329353279
0.06429999999999991,-0.03638637463252875
0.06329999999999991,-0.036485404423519295
0.06229999999999991,-0.03655613998851255
0.06129999999999991,-0.0366551697795031
0.06029999999999991,-0.036740052457495
0.05929999999999991,-0.036768346683492305
0.05829999999999991,-0.036881523587481514
0.05729999999999991,-0.03698055337847206
0.056299999999999906,-0.03703714183046666
0.055299999999999905,-0.03713617162145721
0.054299999999999904,-0.037206907186450464
0.0532999999999999,-0.037305936977441015
0.0522999999999999,-0.03736252542943562
0.0512999999999999,-0.037461555220426164
0.0502999999999999,-0.03754643789841807
0.0492999999999999,-0.03763132057640997
0.0482999999999999,-0.03774449748039918
0.0472999999999999,-0.03785767438438838
0.0462999999999999,-0.037956704175378934
0.045299999999999896,-0.038041586853370835
0.044299999999999895,-0.038126469531362735
0.043299999999999894,-0.03819720509635599
0.04229999999999989,-0.03829623488734655
0.04129999999999989,-0.03838111756533845
0.04029999999999989,-0.038508441582326296
0.03929999999999989,-0.0385367358083236
0.03829999999999989,-0.038621618486315505
0.03729999999999989,-0.038692354051308754
0.03629999999999989,-0.03880553095529796
0.03529999999999989,-0.03887626652029121
0.034299999999999886,-0.03894700208528446
0.033299999999999885,-0.039060178989273664
0.032299999999999884,-0.03913091455426691
0.031299999999999883,-0.03925823857125477
0.030299999999999883,-0.03935726836224532
0.02929999999999988,-0.03948459237923317
0.02829999999999988,-0.039611916396221025
0.02729999999999988,-0.039682651961214274
0.02629999999999988,-0.03976753463920618
0.025299999999999878,-0.03988071154319539
0.024299999999999877,-0.03992315288219133
0.023299999999999876,-0.04005047689917919
0.022299999999999875,-0.04010706535117379
0.021299999999999875,-0.040220242255163
0.020299999999999874,-0.040333419159152194
0.019299999999999873,-0.040418301837144094
0.018299999999999872,-0.040531478741133296
0.01729999999999987,-0.040644655645122506
0.01629999999999987,-0.040729538323114406
0.01529999999999987,-0.04084271522710361
0.014299999999999868,-0.04091345079209686
0.013299999999999867,-0.041012480583087416
0.012299999999999978,-0.04113980460007527
0.011299999999999866,-0.04122468727806717
0.010299999999999976,-0.04133786418205637
0.009299999999999864,-0.041465188199044226
0.008299999999999974,-0.041620806442029375
0.007299999999999862,-0.04173398334601858
0.006299999999999972,-0.04180471891101184
0.00529999999999986,-0.04190374870200239
0.0042999999999999705,-0.042016925605991594
0.0032999999999998586,-0.04211595539698214
0.0022999999999999687,-0.042271573639967294
0.0012999999999998568,-0.04242719188295245
0.00029999999999996696,-0.04261110435193491
-0.000700000000000145,-0.042780869707918716
-0.0017000000000000348,-0.04299307640289847
-0.0027000000000001467,-0.04314869464588362
-0.0037000000000000366,-0.04334675422786472
-0.0047000000000001485,-0.04353066669684717
-0.005700000000000038,-0.04368628493983233
-0.00670000000000015,-0.043841903182817485
-0.00770000000000004,-0.04398337431280399
-0.008700000000000152,-0.044124845442790495
-0.009700000000000042,-0.044266316572777
-0.010700000000000154,-0.044421934815762155
-0.011700000000000044,-0.0445209646067527
-0.012700000000000156,-0.044591700171745956
-0.013700000000000045,-0.044676582849737856
-0.014700000000000157,-0.044775612640728414
-0.015700000000000047,-0.04490293665771626
-0.01670000000000016,-0.045100996239697363
-0.01770000000000005,-0.04527076159568117
-0.01870000000000016,-0.04544052695166498
-0.01970000000000005,-0.045624439420647436
-0.020700000000000163,-0.04578005766363259
-0.021700000000000053,-0.04597811724561369
-0.022700000000000164,-0.046147882601597495
-0.023700000000000054,-0.046317647957581295
-0.024700000000000166,-0.0464591190875678
-0.025700000000000056,-0.04655814887855836
-0.026700000000000168,-0.04662888444355161
-0.027700000000000058,-0.04675620846053946
-0.02870000000000017,-0.04682694402553272
-0.02970000000000006,-0.046954268042520564
-0.03070000000000017,-0.04702500360751381
-0.03170000000000006,-0.04710988628550572
-0.03270000000000017,-0.04722306318949493
-0.03370000000000006,-0.04732209298048548
-0.034700000000000175,-0.04742112277147603
-0.035700000000000065,-0.047548446788463886
-0.03670000000000018,-0.04767577080545173
-0.03770000000000007,-0.04784553616143554
-0.03870000000000018,-0.047987007291422044
-0.03970000000000007,-0.04810018419541125
-0.04070000000000018,-0.048269949551395054
-0.04170000000000007,-0.0483972735683829
-0.04270000000000018,-0.04856703892436671
-0.04370000000000007,-0.04866606871535726
-0.044700000000000184,-0.04877924561934646
-0.045700000000000074,-0.048892422523335664
-0.046700000000000186,-0.049005599427324874
-0.047700000000000076,-0.04913292344431273
-0.04870000000000019,-0.04933098302629382
-0.04970000000000008,-0.04944415993028303
-0.05070000000000019,-0.04952904260827493
-0.05170000000000008,-0.04961392528626684
-0.05270000000000019,-0.04971295507725739
-0.05370000000000008,-0.04979783775524929
-0.05470000000000019,-0.04989686754623984
-0.05570000000000008,-0.0499958973372304
-0.056700000000000195,-0.0501373684672169
-0.057700000000000085,-0.05026469248420476
-0.058700000000000196,-0.050377869388193955
-0.059700000000000086,-0.050491046292183164
-0.0607000000000002,-0.05057592897017506
-0.06170000000000009,-0.050731547213160214
-0.0627000000000002,-0.05087301834314672
-0.06370000000000009,-0.05098619524713593
-0.0647000000000002,-0.05115596060311973
-0.06570000000000009,-0.05125499039411028
-0.0667000000000002,-0.05135402018510083
