Aug. 8, 2024   12:43:14
Cyclic Voltammetry
File: c:/users/guazh/data/20240802_batch_500/2024-08-02-exp54\exp54-2024-08-08t12_22_22-arkoh\exp54_cv_sr_700mvs_efin_-1800mv.bin
Data Source:  Experiment
Instrument Model:  CHI760E
Header: CV ran at 700 mVs
Note: 

Init E (V) = -1
High E (V) = -1
Low E (V) = -1.8
Final E (V) = -1
Init P/N = N
Scan Rate (V/s) = 0.7
Segment = 3
Sample Interval (V) = 0.001
Quiet Time (sec) = 2
Sensitivity (A/V) = 0.01
Comp R (ohm) = 2.1

Results:

Channel 1:
Segment 1:

Segment 2:

Segment 3:

Potential/V, Current/A

-1.000, 3.239e-6
-1.001, 3.239e-6
-1.002, 3.239e-6
-1.003, 3.239e-6
-1.004, 3.239e-6
-1.005, 3.239e-6
-1.006, 3.239e-6
-1.007, 3.239e-6
-1.008, 6.322e-6
-1.009, 6.322e-6
-1.010, 6.322e-6
-1.011, 3.239e-6
-1.012, 3.239e-6
-1.013, 3.239e-6
-1.014, 6.322e-6
-1.015, 6.322e-6
-1.016, 6.322e-6
-1.017, 6.322e-6
-1.018, 6.322e-6
-1.019, 6.322e-6
-1.020, 6.322e-6
-1.021, 6.322e-6
-1.022, 6.322e-6
-1.023, 6.322e-6
-1.024, 6.322e-6
-1.025, 6.322e-6
-1.026, 6.322e-6
-1.027, 6.322e-6
-1.028, 6.322e-6
-1.029, 6.322e-6
-1.030, 6.322e-6
-1.031, 6.322e-6
-1.032, 6.322e-6
-1.033, 6.322e-6
-1.034, 6.322e-6
-1.035, 6.322e-6
-1.036, 6.322e-6
-1.037, 6.322e-6
-1.038, 6.322e-6
-1.039, 6.322e-6
-1.040, 6.322e-6
-1.041, 6.322e-6
-1.042, 6.322e-6
-1.043, 6.322e-6
-1.044, 6.322e-6
-1.045, 6.322e-6
-1.046, 6.322e-6
-1.047, 6.322e-6
-1.048, 6.322e-6
-1.049, 6.322e-6
-1.050, 6.322e-6
-1.051, 6.322e-6
-1.052, 6.322e-6
-1.053, 6.322e-6
-1.054, 6.322e-6
-1.055, 6.322e-6
-1.056, 6.322e-6
-1.057, 6.322e-6
-1.058, 6.322e-6
-1.059, 6.322e-6
-1.060, 9.405e-6
-1.061, 6.322e-6
-1.062, 6.322e-6
-1.063, 6.322e-6
-1.064, 6.322e-6
-1.065, 6.322e-6
-1.066, 6.322e-6
-1.067, 9.405e-6
-1.068, 6.322e-6
-1.069, 6.322e-6
-1.070, 6.322e-6
-1.071, 6.322e-6
-1.072, 6.322e-6
-1.073, 9.405e-6
-1.074, 6.322e-6
-1.075, 6.322e-6
-1.076, 9.405e-6
-1.077, 6.322e-6
-1.078, 6.322e-6
-1.079, 6.322e-6
-1.080, 6.322e-6
-1.081, 6.322e-6
-1.082, 9.405e-6
-1.083, 9.405e-6
-1.084, 9.405e-6
-1.085, 9.405e-6
-1.086, 6.322e-6
-1.087, 9.405e-6
-1.088, 6.322e-6
-1.089, 9.405e-6
-1.090, 6.322e-6
-1.091, 6.322e-6
-1.092, 9.405e-6
-1.093, 6.322e-6
-1.094, 9.405e-6
-1.095, 9.405e-6
-1.096, 9.405e-6
-1.097, 9.405e-6
-1.098, 9.405e-6
-1.099, 6.322e-6
-1.100, 9.405e-6
-1.101, 9.405e-6
-1.102, 9.405e-6
-1.103, 9.405e-6
-1.104, 9.405e-6
-1.105, 9.405e-6
-1.106, 6.322e-6
-1.107, 9.405e-6
-1.108, 9.405e-6
-1.109, 9.405e-6
-1.110, 9.405e-6
-1.111, 9.405e-6
-1.112, 9.405e-6
-1.113, 9.405e-6
-1.114, 9.405e-6
-1.115, 9.405e-6
-1.116, 9.405e-6
-1.117, 9.405e-6
-1.118, 9.405e-6
-1.119, 9.405e-6
-1.120, 9.405e-6
-1.121, 9.405e-6
-1.122, 9.405e-6
-1.123, 9.405e-6
-1.124, 9.405e-6
-1.125, 9.405e-6
-1.126, 9.405e-6
-1.127, 9.405e-6
-1.128, 9.405e-6
-1.129, 9.405e-6
-1.130, 9.405e-6
-1.131, 9.405e-6
-1.132, 9.405e-6
-1.133, 9.405e-6
-1.134, 9.405e-6
-1.135, 9.405e-6
-1.136, 9.405e-6
-1.137, 9.405e-6
-1.138, 9.405e-6
-1.139, 9.405e-6
-1.140, 9.405e-6
-1.141, 9.405e-6
-1.142, 9.405e-6
-1.143, 9.405e-6
-1.144, 9.405e-6
-1.145, 9.405e-6
-1.146, 9.405e-6
-1.147, 9.405e-6
-1.148, 9.405e-6
-1.149, 9.405e-6
-1.150, 9.405e-6
-1.151, 9.405e-6
-1.152, 9.405e-6
-1.153, 9.405e-6
-1.154, 9.405e-6
-1.155, 9.405e-6
-1.156, 9.405e-6
-1.157, 9.405e-6
-1.158, 9.405e-6
-1.159, 9.405e-6
-1.160, 9.405e-6
-1.161, 9.405e-6
-1.162, 9.405e-6
-1.163, 9.405e-6
-1.164, 9.405e-6
-1.165, 9.405e-6
-1.166, 9.405e-6
-1.167, 9.405e-6
-1.168, 9.405e-6
-1.169, 9.405e-6
-1.170, 9.405e-6
-1.171, 9.405e-6
-1.172, 9.405e-6
-1.173, 9.405e-6
-1.174, 9.405e-6
-1.175, 9.405e-6
-1.176, 9.405e-6
-1.177, 9.405e-6
-1.178, 9.405e-6
-1.179, 9.405e-6
-1.180, 9.405e-6
-1.181, 9.405e-6
-1.182, 9.405e-6
-1.183, 9.405e-6
-1.184, 1.249e-5
-1.185, 9.405e-6
-1.186, 9.405e-6
-1.187, 9.405e-6
-1.188, 9.405e-6
-1.189, 9.405e-6
-1.190, 9.405e-6
-1.191, 9.405e-6
-1.192, 9.405e-6
-1.193, 9.405e-6
-1.194, 9.405e-6
-1.195, 9.405e-6
-1.196, 9.405e-6
-1.197, 9.405e-6
-1.198, 9.405e-6
-1.199, 9.405e-6
-1.200, 9.405e-6
-1.201, 9.405e-6
-1.202, 1.249e-5
-1.203, 9.405e-6
-1.204, 9.405e-6
-1.205, 9.405e-6
-1.206, 9.405e-6
-1.207, 9.405e-6
-1.208, 9.405e-6
-1.209, 1.249e-5
-1.210, 9.405e-6
-1.211, 9.405e-6
-1.212, 9.405e-6
-1.213, 1.249e-5
-1.214, 9.405e-6
-1.215, 9.405e-6
-1.216, 9.405e-6
-1.217, 9.405e-6
-1.218, 1.249e-5
-1.219, 9.405e-6
-1.220, 1.249e-5
-1.221, 9.405e-6
-1.222, 9.405e-6
-1.223, 9.405e-6
-1.224, 9.405e-6
-1.225, 1.249e-5
-1.226, 9.405e-6
-1.227, 1.249e-5
-1.228, 9.405e-6
-1.229, 1.249e-5
-1.230, 9.405e-6
-1.231, 1.249e-5
-1.232, 1.249e-5
-1.233, 9.405e-6
-1.234, 1.249e-5
-1.235, 9.405e-6
-1.236, 1.249e-5
-1.237, 1.249e-5
-1.238, 1.249e-5
-1.239, 1.249e-5
-1.240, 1.249e-5
-1.241, 9.405e-6
-1.242, 1.249e-5
-1.243, 1.249e-5
-1.244, 9.405e-6
-1.245, 1.249e-5
-1.246, 9.405e-6
-1.247, 1.249e-5
-1.248, 1.249e-5
-1.249, 1.249e-5
-1.250, 1.249e-5
-1.251, 1.249e-5
-1.252, 1.249e-5
-1.253, 1.249e-5
-1.254, 1.249e-5
-1.255, 1.249e-5
-1.256, 1.249e-5
-1.257, 1.249e-5
-1.258, 1.249e-5
-1.259, 1.249e-5
-1.260, 1.249e-5
-1.261, 1.249e-5
-1.262, 1.249e-5
-1.263, 1.249e-5
-1.264, 1.249e-5
-1.265, 1.249e-5
-1.266, 1.249e-5
-1.267, 1.249e-5
-1.268, 1.249e-5
-1.269, 1.249e-5
-1.270, 1.249e-5
-1.271, 1.249e-5
-1.272, 1.249e-5
-1.273, 1.249e-5
-1.274, 1.249e-5
-1.275, 1.249e-5
-1.276, 1.249e-5
-1.277, 1.249e-5
-1.278, 1.249e-5
-1.279, 1.249e-5
-1.280, 1.249e-5
-1.281, 1.249e-5
-1.282, 1.249e-5
-1.283, 1.249e-5
-1.284, 1.249e-5
-1.285, 1.249e-5
-1.286, 1.249e-5
-1.287, 1.249e-5
-1.288, 1.249e-5
-1.289, 1.249e-5
-1.290, 1.249e-5
-1.291, 1.249e-5
-1.292, 1.249e-5
-1.293, 1.249e-5
-1.294, 1.249e-5
-1.295, 1.249e-5
-1.296, 1.249e-5
-1.297, 1.249e-5
-1.298, 1.249e-5
-1.299, 1.249e-5
-1.300, 1.249e-5
-1.301, 1.249e-5
-1.302, 1.249e-5
-1.303, 1.249e-5
-1.304, 1.249e-5
-1.305, 1.249e-5
-1.306, 1.249e-5
-1.307, 1.249e-5
-1.308, 1.557e-5
-1.309, 1.249e-5
-1.310, 1.249e-5
-1.311, 1.249e-5
-1.312, 1.249e-5
-1.313, 1.557e-5
-1.314, 1.249e-5
-1.315, 1.557e-5
-1.316, 1.557e-5
-1.317, 1.557e-5
-1.318, 1.557e-5
-1.319, 1.557e-5
-1.320, 1.557e-5
-1.321, 1.249e-5
-1.322, 1.557e-5
-1.323, 1.557e-5
-1.324, 1.557e-5
-1.325, 1.557e-5
-1.326, 1.557e-5
-1.327, 1.557e-5
-1.328, 1.557e-5
-1.329, 1.557e-5
-1.330, 1.557e-5
-1.331, 1.557e-5
-1.332, 1.557e-5
-1.333, 1.557e-5
-1.334, 1.557e-5
-1.335, 1.557e-5
-1.336, 1.557e-5
-1.337, 1.557e-5
-1.338, 1.557e-5
-1.339, 1.557e-5
-1.340, 1.557e-5
-1.341, 1.557e-5
-1.342, 1.557e-5
-1.343, 1.557e-5
-1.344, 1.557e-5
-1.345, 1.557e-5
-1.346, 1.557e-5
-1.347, 1.865e-5
-1.348, 1.557e-5
-1.349, 1.557e-5
-1.350, 1.557e-5
-1.351, 1.557e-5
-1.352, 1.557e-5
-1.353, 1.557e-5
-1.354, 1.557e-5
-1.355, 1.557e-5
-1.356, 1.865e-5
-1.357, 1.557e-5
-1.358, 1.865e-5
-1.359, 1.865e-5
-1.360, 1.865e-5
-1.361, 1.557e-5
-1.362, 1.865e-5
-1.363, 1.865e-5
-1.364, 1.865e-5
-1.365, 1.865e-5
-1.366, 1.865e-5
-1.367, 1.865e-5
-1.368, 1.865e-5
-1.369, 1.865e-5
-1.370, 1.865e-5
-1.371, 1.865e-5
-1.372, 1.865e-5
-1.373, 1.865e-5
-1.374, 1.865e-5
-1.375, 1.865e-5
-1.376, 1.865e-5
-1.377, 1.865e-5
-1.378, 1.865e-5
-1.379, 1.865e-5
-1.380, 1.865e-5
-1.381, 1.865e-5
-1.382, 1.865e-5
-1.383, 2.174e-5
-1.384, 1.865e-5
-1.385, 2.174e-5
-1.386, 1.865e-5
-1.387, 2.174e-5
-1.388, 2.174e-5
-1.389, 2.174e-5
-1.390, 2.174e-5
-1.391, 2.174e-5
-1.392, 2.174e-5
-1.393, 2.174e-5
-1.394, 2.174e-5
-1.395, 2.174e-5
-1.396, 2.174e-5
-1.397, 2.174e-5
-1.398, 2.174e-5
-1.399, 2.482e-5
-1.400, 2.174e-5
-1.401, 2.174e-5
-1.402, 2.174e-5
-1.403, 2.482e-5
-1.404, 2.174e-5
-1.405, 2.174e-5
-1.406, 2.482e-5
-1.407, 2.174e-5
-1.408, 2.174e-5
-1.409, 2.482e-5
-1.410, 2.482e-5
-1.411, 2.482e-5
-1.412, 2.482e-5
-1.413, 2.482e-5
-1.414, 2.482e-5
-1.415, 2.482e-5
-1.416, 2.482e-5
-1.417, 2.482e-5
-1.418, 2.482e-5
-1.419, 2.482e-5
-1.420, 2.482e-5
-1.421, 2.482e-5
-1.422, 2.482e-5
-1.423, 2.790e-5
-1.424, 2.790e-5
-1.425, 2.790e-5
-1.426, 2.790e-5
-1.427, 2.790e-5
-1.428, 2.790e-5
-1.429, 2.790e-5
-1.430, 2.790e-5
-1.431, 2.790e-5
-1.432, 2.790e-5
-1.433, 2.790e-5
-1.434, 2.790e-5
-1.435, 3.099e-5
-1.436, 2.790e-5
-1.437, 3.099e-5
-1.438, 3.099e-5
-1.439, 3.099e-5
-1.440, 3.099e-5
-1.441, 3.099e-5
-1.442, 3.099e-5
-1.443, 3.099e-5
-1.444, 3.099e-5
-1.445, 3.099e-5
-1.446, 3.407e-5
-1.447, 3.407e-5
-1.448, 3.407e-5
-1.449, 3.407e-5
-1.450, 3.407e-5
-1.451, 3.407e-5
-1.452, 3.407e-5
-1.453, 3.407e-5
-1.454, 3.407e-5
-1.455, 3.407e-5
-1.456, 3.407e-5
-1.457, 3.407e-5
-1.458, 3.715e-5
-1.459, 3.715e-5
-1.460, 3.715e-5
-1.461, 3.715e-5
-1.462, 3.715e-5
-1.463, 3.715e-5
-1.464, 4.024e-5
-1.465, 3.715e-5
-1.466, 3.715e-5
-1.467, 4.024e-5
-1.468, 4.024e-5
-1.469, 4.024e-5
-1.470, 4.024e-5
-1.471, 4.024e-5
-1.472, 4.024e-5
-1.473, 4.024e-5
-1.474, 4.332e-5
-1.475, 4.332e-5
-1.476, 4.332e-5
-1.477, 4.332e-5
-1.478, 4.332e-5
-1.479, 4.332e-5
-1.480, 4.332e-5
-1.481, 4.332e-5
-1.482, 4.640e-5
-1.483, 4.332e-5
-1.484, 4.640e-5
-1.485, 4.640e-5
-1.486, 4.640e-5
-1.487, 4.640e-5
-1.488, 4.640e-5
-1.489, 4.949e-5
-1.490, 4.949e-5
-1.491, 4.949e-5
-1.492, 4.949e-5
-1.493, 4.949e-5
-1.494, 4.949e-5
-1.495, 4.949e-5
-1.496, 5.257e-5
-1.497, 4.949e-5
-1.498, 5.257e-5
-1.499, 5.257e-5
-1.500, 5.257e-5
-1.501, 5.257e-5
-1.502, 5.257e-5
-1.503, 5.565e-5
-1.504, 5.565e-5
-1.505, 5.565e-5
-1.506, 5.565e-5
-1.507, 5.565e-5
-1.508, 5.873e-5
-1.509, 5.873e-5
-1.510, 5.873e-5
-1.511, 5.873e-5
-1.512, 5.873e-5
-1.513, 5.873e-5
-1.514, 6.182e-5
-1.515, 5.873e-5
-1.516, 6.182e-5
-1.517, 6.182e-5
-1.518, 6.182e-5
-1.519, 6.490e-5
-1.520, 6.490e-5
-1.521, 6.490e-5
-1.522, 6.490e-5
-1.523, 6.490e-5
-1.524, 6.490e-5
-1.525, 6.798e-5
-1.526, 6.798e-5
-1.527, 6.798e-5
-1.528, 7.107e-5
-1.529, 6.798e-5
-1.530, 7.107e-5
-1.531, 7.107e-5
-1.532, 7.107e-5
-1.533, 7.107e-5
-1.534, 7.415e-5
-1.535, 7.415e-5
-1.536, 7.415e-5
-1.537, 7.415e-5
-1.538, 7.723e-5
-1.539, 7.723e-5
-1.540, 7.723e-5
-1.541, 8.032e-5
-1.542, 8.032e-5
-1.543, 8.032e-5
-1.544, 8.032e-5
-1.545, 8.032e-5
-1.546, 8.340e-5
-1.547, 8.340e-5
-1.548, 8.340e-5
-1.549, 8.648e-5
-1.550, 8.648e-5
-1.551, 8.648e-5
-1.552, 8.957e-5
-1.553, 8.957e-5
-1.554, 8.957e-5
-1.555, 9.265e-5
-1.556, 9.265e-5
-1.557, 9.265e-5
-1.558, 9.265e-5
-1.559, 9.573e-5
-1.560, 9.573e-5
-1.561, 9.882e-5
-1.562, 9.882e-5
-1.563, 1.019e-4
-1.564, 1.019e-4
-1.565, 1.019e-4
-1.566, 1.019e-4
-1.567, 1.050e-4
-1.568, 1.081e-4
-1.569, 1.081e-4
-1.570, 1.081e-4
-1.571, 1.111e-4
-1.572, 1.111e-4
-1.573, 1.142e-4
-1.574, 1.142e-4
-1.575, 1.173e-4
-1.576, 1.173e-4
-1.577, 1.173e-4
-1.578, 1.204e-4
-1.579, 1.235e-4
-1.580, 1.235e-4
-1.581, 1.266e-4
-1.582, 1.266e-4
-1.583, 1.266e-4
-1.584, 1.296e-4
-1.585, 1.327e-4
-1.586, 1.358e-4
-1.587, 1.358e-4
-1.588, 1.389e-4
-1.589, 1.420e-4
-1.590, 1.420e-4
-1.591, 1.451e-4
-1.592, 1.481e-4
-1.593, 1.512e-4
-1.594, 1.512e-4
-1.595, 1.543e-4
-1.596, 1.574e-4
-1.597, 1.574e-4
-1.598, 1.636e-4
-1.599, 1.636e-4
-1.600, 1.666e-4
-1.601, 1.697e-4
-1.602, 1.728e-4
-1.603, 1.728e-4
-1.604, 1.790e-4
-1.605, 1.790e-4
-1.606, 1.821e-4
-1.607, 1.851e-4
-1.608, 1.882e-4
-1.609, 1.944e-4
-1.610, 1.944e-4
-1.611, 1.975e-4
-1.612, 2.036e-4
-1.613, 2.067e-4
-1.614, 2.098e-4
-1.615, 2.129e-4
-1.616, 2.160e-4
-1.617, 2.191e-4
-1.618, 2.252e-4
-1.619, 2.283e-4
-1.620, 2.314e-4
-1.621, 2.376e-4
-1.622, 2.406e-4
-1.623, 2.468e-4
-1.624, 2.499e-4
-1.625, 2.561e-4
-1.626, 2.591e-4
-1.627, 2.653e-4
-1.628, 2.684e-4
-1.629, 2.746e-4
-1.630, 2.776e-4
-1.631, 2.838e-4
-1.632, 2.900e-4
-1.633, 2.961e-4
-1.634, 3.023e-4
-1.635, 3.054e-4
-1.636, 3.146e-4
-1.637, 3.177e-4
-1.638, 3.239e-4
-1.639, 3.331e-4
-1.640, 3.393e-4
-1.641, 3.424e-4
-1.642, 3.516e-4
-1.643, 3.578e-4
-1.644, 3.640e-4
-1.645, 3.732e-4
-1.646, 3.794e-4
-1.647, 3.886e-4
-1.648, 3.948e-4
-1.649, 4.040e-4
-1.650, 4.102e-4
-1.651, 4.164e-4
-1.652, 4.256e-4
-1.653, 4.349e-4
-1.654, 4.441e-4
-1.655, 4.534e-4
-1.656, 4.626e-4
-1.657, 4.719e-4
-1.658, 4.811e-4
-1.659, 4.904e-4
-1.660, 4.996e-4
-1.661, 5.089e-4
-1.662, 5.181e-4
-1.663, 5.305e-4
-1.664, 5.397e-4
-1.665, 5.520e-4
-1.666, 5.613e-4
-1.667, 5.736e-4
-1.668, 5.859e-4
-1.669, 5.952e-4
-1.670, 6.106e-4
-1.671, 6.199e-4
-1.672, 6.322e-4
-1.673, 6.445e-4
-1.674, 6.569e-4
-1.675, 6.692e-4
-1.676, 6.815e-4
-1.677, 6.969e-4
-1.678, 7.093e-4
-1.679, 7.247e-4
-1.680, 7.401e-4
-1.681, 7.524e-4
-1.682, 7.679e-4
-1.683, 7.833e-4
-1.684, 7.987e-4
-1.685, 8.110e-4
-1.686, 8.295e-4
-1.687, 8.449e-4
-1.688, 8.603e-4
-1.689, 8.758e-4
-1.690, 8.943e-4
-1.691, 9.097e-4
-1.692, 9.282e-4
-1.693, 9.467e-4
-1.694, 9.621e-4
-1.695, 9.806e-4
-1.696, 9.991e-4
-1.697, 1.018e-3
-1.698, 1.036e-3
-1.699, 1.055e-3
-1.700, 1.073e-3
-1.701, 1.092e-3
-1.702, 1.113e-3
-1.703, 1.135e-3
-1.704, 1.156e-3
-1.705, 1.175e-3
-1.706, 1.196e-3
-1.707, 1.218e-3
-1.708, 1.236e-3
-1.709, 1.261e-3
-1.710, 1.283e-3
-1.711, 1.304e-3
-1.712, 1.326e-3
-1.713, 1.351e-3
-1.714, 1.372e-3
-1.715, 1.397e-3
-1.716, 1.421e-3
-1.717, 1.446e-3
-1.718, 1.471e-3
-1.719, 1.495e-3
-1.720, 1.523e-3
-1.721, 1.545e-3
-1.722, 1.569e-3
-1.723, 1.594e-3
-1.724, 1.622e-3
-1.725, 1.650e-3
-1.726, 1.677e-3
-1.727, 1.705e-3
-1.728, 1.733e-3
-1.729, 1.764e-3
-1.730, 1.791e-3
-1.731, 1.819e-3
-1.732, 1.847e-3
-1.733, 1.875e-3
-1.734, 1.902e-3
-1.735, 1.933e-3
-1.736, 1.964e-3
-1.737, 1.995e-3
-1.738, 2.026e-3
-1.739, 2.057e-3
-1.740, 2.091e-3
-1.741, 2.124e-3
-1.742, 2.155e-3
-1.743, 2.186e-3
-1.744, 2.220e-3
-1.745, 2.251e-3
-1.746, 2.285e-3
-1.747, 2.316e-3
-1.748, 2.349e-3
-1.749, 2.386e-3
-1.750, 2.423e-3
-1.751, 2.457e-3
-1.752, 2.494e-3
-1.753, 2.531e-3
-1.754, 2.568e-3
-1.755, 2.602e-3
-1.756, 2.639e-3
-1.757, 2.673e-3
-1.758, 2.710e-3
-1.759, 2.747e-3
-1.760, 2.787e-3
-1.761, 2.824e-3
-1.762, 2.864e-3
-1.763, 2.904e-3
-1.764, 2.945e-3
-1.765, 2.985e-3
-1.766, 3.022e-3
-1.767, 3.062e-3
-1.768, 3.102e-3
-1.769, 3.142e-3
-1.770, 3.182e-3
-1.771, 3.225e-3
-1.772, 3.268e-3
-1.773, 3.311e-3
-1.774, 3.355e-3
-1.775, 3.398e-3
-1.776, 3.444e-3
-1.777, 3.487e-3
-1.778, 3.530e-3
-1.779, 3.573e-3
-1.780, 3.617e-3
-1.781, 3.663e-3
-1.782, 3.706e-3
-1.783, 3.752e-3
-1.784, 3.795e-3
-1.785, 3.845e-3
-1.786, 3.894e-3
-1.787, 3.940e-3
-1.788, 3.990e-3
-1.789, 4.039e-3
-1.790, 4.085e-3
-1.791, 4.128e-3
-1.792, 4.178e-3
-1.793, 4.227e-3
-1.794, 4.276e-3
-1.795, 4.326e-3
-1.796, 4.375e-3
-1.797, 4.428e-3
-1.798, 4.480e-3
-1.799, 4.532e-3
-1.800, 4.557e-3
-1.799, 4.532e-3
-1.798, 4.508e-3
-1.797, 4.480e-3
-1.796, 4.452e-3
-1.795, 4.424e-3
-1.794, 4.394e-3
-1.793, 4.369e-3
-1.792, 4.338e-3
-1.791, 4.310e-3
-1.790, 4.280e-3
-1.789, 4.249e-3
-1.788, 4.218e-3
-1.787, 4.184e-3
-1.786, 4.150e-3
-1.785, 4.119e-3
-1.784, 4.085e-3
-1.783, 4.051e-3
-1.782, 4.017e-3
-1.781, 3.987e-3
-1.780, 3.953e-3
-1.779, 3.922e-3
-1.778, 3.888e-3
-1.777, 3.854e-3
-1.776, 3.820e-3
-1.775, 3.786e-3
-1.774, 3.752e-3
-1.773, 3.718e-3
-1.772, 3.684e-3
-1.771, 3.651e-3
-1.770, 3.617e-3
-1.769, 3.583e-3
-1.768, 3.552e-3
-1.767, 3.521e-3
-1.766, 3.487e-3
-1.765, 3.456e-3
-1.764, 3.419e-3
-1.763, 3.388e-3
-1.762, 3.355e-3
-1.761, 3.321e-3
-1.760, 3.287e-3
-1.759, 3.256e-3
-1.758, 3.225e-3
-1.757, 3.191e-3
-1.756, 3.163e-3
-1.755, 3.130e-3
-1.754, 3.099e-3
-1.753, 3.068e-3
-1.752, 3.034e-3
-1.751, 3.003e-3
-1.750, 2.972e-3
-1.749, 2.941e-3
-1.748, 2.911e-3
-1.747, 2.880e-3
-1.746, 2.849e-3
-1.745, 2.821e-3
-1.744, 2.790e-3
-1.743, 2.763e-3
-1.742, 2.732e-3
-1.741, 2.701e-3
-1.740, 2.673e-3
-1.739, 2.642e-3
-1.738, 2.612e-3
-1.737, 2.584e-3
-1.736, 2.553e-3
-1.735, 2.525e-3
-1.734, 2.497e-3
-1.733, 2.473e-3
-1.732, 2.442e-3
-1.731, 2.417e-3
-1.730, 2.386e-3
-1.729, 2.359e-3
-1.728, 2.331e-3
-1.727, 2.303e-3
-1.726, 2.275e-3
-1.725, 2.248e-3
-1.724, 2.223e-3
-1.723, 2.195e-3
-1.722, 2.171e-3
-1.721, 2.143e-3
-1.720, 2.118e-3
-1.719, 2.094e-3
-1.718, 2.069e-3
-1.717, 2.041e-3
-1.716, 2.017e-3
-1.715, 1.989e-3
-1.714, 1.964e-3
-1.713, 1.939e-3
-1.712, 1.915e-3
-1.711, 1.893e-3
-1.710, 1.869e-3
-1.709, 1.847e-3
-1.708, 1.822e-3
-1.707, 1.801e-3
-1.706, 1.776e-3
-1.705, 1.751e-3
-1.704, 1.730e-3
-1.703, 1.705e-3
-1.702, 1.680e-3
-1.701, 1.659e-3
-1.700, 1.637e-3
-1.699, 1.616e-3
-1.698, 1.594e-3
-1.697, 1.573e-3
-1.696, 1.551e-3
-1.695, 1.532e-3
-1.694, 1.511e-3
-1.693, 1.489e-3
-1.692, 1.468e-3
-1.691, 1.446e-3
-1.690, 1.425e-3
-1.689, 1.406e-3
-1.688, 1.388e-3
-1.687, 1.369e-3
-1.686, 1.347e-3
-1.685, 1.329e-3
-1.684, 1.310e-3
-1.683, 1.292e-3
-1.682, 1.273e-3
-1.681, 1.255e-3
-1.680, 1.233e-3
-1.679, 1.218e-3
-1.678, 1.199e-3
-1.677, 1.181e-3
-1.676, 1.166e-3
-1.675, 1.147e-3
-1.674, 1.132e-3
-1.673, 1.113e-3
-1.672, 1.098e-3
-1.671, 1.079e-3
-1.670, 1.064e-3
-1.669, 1.048e-3
-1.668, 1.030e-3
-1.667, 1.014e-3
-1.666, 9.991e-4
-1.665, 9.837e-4
-1.664, 9.683e-4
-1.663, 9.528e-4
-1.662, 9.374e-4
-1.661, 9.251e-4
-1.660, 9.097e-4
-1.659, 8.943e-4
-1.658, 8.819e-4
-1.657, 8.665e-4
-1.656, 8.511e-4
-1.655, 8.357e-4
-1.654, 8.233e-4
-1.653, 8.079e-4
-1.652, 7.956e-4
-1.651, 7.833e-4
-1.650, 7.709e-4
-1.649, 7.586e-4
-1.648, 7.432e-4
-1.647, 7.309e-4
-1.646, 7.185e-4
-1.645, 7.062e-4
-1.644, 6.939e-4
-1.643, 6.815e-4
-1.642, 6.692e-4
-1.641, 6.599e-4
-1.640, 6.476e-4
-1.639, 6.353e-4
-1.638, 6.260e-4
-1.637, 6.137e-4
-1.636, 6.044e-4
-1.635, 5.921e-4
-1.634, 5.829e-4
-1.633, 5.705e-4
-1.632, 5.582e-4
-1.631, 5.489e-4
-1.630, 5.397e-4
-1.629, 5.305e-4
-1.628, 5.212e-4
-1.627, 5.120e-4
-1.626, 5.027e-4
-1.625, 4.935e-4
-1.624, 4.842e-4
-1.623, 4.750e-4
-1.622, 4.657e-4
-1.621, 4.565e-4
-1.620, 4.472e-4
-1.619, 4.380e-4
-1.618, 4.318e-4
-1.617, 4.225e-4
-1.616, 4.133e-4
-1.615, 4.071e-4
-1.614, 3.979e-4
-1.613, 3.917e-4
-1.612, 3.825e-4
-1.611, 3.763e-4
-1.610, 3.670e-4
-1.609, 3.609e-4
-1.608, 3.516e-4
-1.607, 3.455e-4
-1.606, 3.393e-4
-1.605, 3.331e-4
-1.604, 3.270e-4
-1.603, 3.208e-4
-1.602, 3.146e-4
-1.601, 3.054e-4
-1.600, 2.992e-4
-1.599, 2.931e-4
-1.598, 2.869e-4
-1.597, 2.807e-4
-1.596, 2.746e-4
-1.595, 2.684e-4
-1.594, 2.653e-4
-1.593, 2.591e-4
-1.592, 2.530e-4
-1.591, 2.499e-4
-1.590, 2.437e-4
-1.589, 2.376e-4
-1.588, 2.345e-4
-1.587, 2.252e-4
-1.586, 2.221e-4
-1.585, 2.160e-4
-1.584, 2.129e-4
-1.583, 2.098e-4
-1.582, 2.036e-4
-1.581, 2.006e-4
-1.580, 1.944e-4
-1.579, 1.913e-4
-1.578, 1.851e-4
-1.577, 1.821e-4
-1.576, 1.790e-4
-1.575, 1.759e-4
-1.574, 1.697e-4
-1.573, 1.666e-4
-1.572, 1.636e-4
-1.571, 1.574e-4
-1.570, 1.574e-4
-1.569, 1.512e-4
-1.568, 1.512e-4
-1.567, 1.451e-4
-1.566, 1.420e-4
-1.565, 1.389e-4
-1.564, 1.358e-4
-1.563, 1.327e-4
-1.562, 1.296e-4
-1.561, 1.266e-4
-1.560, 1.235e-4
-1.559, 1.204e-4
-1.558, 1.173e-4
-1.557, 1.142e-4
-1.556, 1.111e-4
-1.555, 1.081e-4
-1.554, 1.050e-4
-1.553, 1.050e-4
-1.552, 1.019e-4
-1.551, 9.882e-5
-1.550, 9.573e-5
-1.549, 9.573e-5
-1.548, 9.265e-5
-1.547, 8.957e-5
-1.546, 8.957e-5
-1.545, 8.648e-5
-1.544, 8.340e-5
-1.543, 8.032e-5
-1.542, 8.032e-5
-1.541, 7.723e-5
-1.540, 7.415e-5
-1.539, 7.415e-5
-1.538, 7.107e-5
-1.537, 6.798e-5
-1.536, 6.798e-5
-1.535, 6.798e-5
-1.534, 6.490e-5
-1.533, 6.182e-5
-1.532, 6.182e-5
-1.531, 5.873e-5
-1.530, 5.873e-5
-1.529, 5.873e-5
-1.528, 5.565e-5
-1.527, 5.257e-5
-1.526, 5.257e-5
-1.525, 5.257e-5
-1.524, 4.949e-5
-1.523, 4.949e-5
-1.522, 4.640e-5
-1.521, 4.640e-5
-1.520, 4.640e-5
-1.519, 4.332e-5
-1.518, 4.332e-5
-1.517, 4.024e-5
-1.516, 4.024e-5
-1.515, 3.715e-5
-1.514, 3.715e-5
-1.513, 3.715e-5
-1.512, 3.407e-5
-1.511, 3.407e-5
-1.510, 3.407e-5
-1.509, 3.407e-5
-1.508, 3.099e-5
-1.507, 3.099e-5
-1.506, 3.099e-5
-1.505, 2.790e-5
-1.504, 2.790e-5
-1.503, 2.790e-5
-1.502, 2.790e-5
-1.501, 2.482e-5
-1.500, 2.482e-5
-1.499, 2.482e-5
-1.498, 2.482e-5
-1.497, 2.174e-5
-1.496, 2.174e-5
-1.495, 2.174e-5
-1.494, 2.174e-5
-1.493, 1.865e-5
-1.492, 1.865e-5
-1.491, 1.865e-5
-1.490, 1.865e-5
-1.489, 1.865e-5
-1.488, 1.865e-5
-1.487, 1.557e-5
-1.486, 1.557e-5
-1.485, 1.557e-5
-1.484, 1.557e-5
-1.483, 1.249e-5
-1.482, 1.249e-5
-1.481, 1.249e-5
-1.480, 1.249e-5
-1.479, 1.249e-5
-1.478, 9.405e-6
-1.477, 1.249e-5
-1.476, 9.405e-6
-1.475, 1.249e-5
-1.474, 9.405e-6
-1.473, 9.405e-6
-1.472, 9.405e-6
-1.471, 9.405e-6
-1.470, 6.322e-6
-1.469, 6.322e-6
-1.468, 6.322e-6
-1.467, 6.322e-6
-1.466, 6.322e-6
-1.465, 6.322e-6
-1.464, 6.322e-6
-1.463, 6.322e-6
-1.462, 6.322e-6
-1.461, 6.322e-6
-1.460, 3.239e-6
-1.459, 6.322e-6
-1.458, 3.239e-6
-1.457, 3.239e-6
-1.456, 3.239e-6
-1.455, 3.239e-6
-1.454, 3.239e-6
-1.453, 3.239e-6
-1.452, 3.239e-6
-1.451, 3.239e-6
-1.450, 3.239e-6
-1.449, 1.559e-7
-1.448, 3.239e-6
-1.447, 1.559e-7
-1.446, 1.559e-7
-1.445, 3.239e-6
-1.444, 1.559e-7
-1.443, 1.559e-7
-1.442, 1.559e-7
-1.441, 1.559e-7
-1.440, 1.559e-7
-1.439, 1.559e-7
-1.438, 1.559e-7
-1.437, 1.559e-7
-1.436, 1.559e-7
-1.435, 1.559e-7
-1.434, -2.927e-6
-1.433, -2.927e-6
-1.432, -2.927e-6
-1.431, -2.927e-6
-1.430, 1.559e-7
-1.429, -2.927e-6
-1.428, -2.927e-6
-1.427, -2.927e-6
-1.426, -2.927e-6
-1.425, -2.927e-6
-1.424, -2.927e-6
-1.423, -2.927e-6
-1.422, -2.927e-6
-1.421, -2.927e-6
-1.420, -2.927e-6
-1.419, -2.927e-6
-1.418, -2.927e-6
-1.417, -6.010e-6
-1.416, -2.927e-6
-1.415, -6.010e-6
-1.414, -2.927e-6
-1.413, -6.010e-6
-1.412, -6.010e-6
-1.411, -6.010e-6
-1.410, -6.010e-6
-1.409, -6.010e-6
-1.408, -6.010e-6
-1.407, -6.010e-6
-1.406, -6.010e-6
-1.405, -6.010e-6
-1.404, -6.010e-6
-1.403, -6.010e-6
-1.402, -6.010e-6
-1.401, -6.010e-6
-1.400, -6.010e-6
-1.399, -6.010e-6
-1.398, -6.010e-6
-1.397, -6.010e-6
-1.396, -6.010e-6
-1.395, -6.010e-6
-1.394, -6.010e-6
-1.393, -6.010e-6
-1.392, -9.093e-6
-1.391, -6.010e-6
-1.390, -6.010e-6
-1.389, -6.010e-6
-1.388, -6.010e-6
-1.387, -9.093e-6
-1.386, -6.010e-6
-1.385, -9.093e-6
-1.384, -9.093e-6
-1.383, -9.093e-6
-1.382, -6.010e-6
-1.381, -9.093e-6
-1.380, -6.010e-6
-1.379, -9.093e-6
-1.378, -9.093e-6
-1.377, -6.010e-6
-1.376, -9.093e-6
-1.375, -9.093e-6
-1.374, -9.093e-6
-1.373, -9.093e-6
-1.372, -6.010e-6
-1.371, -6.010e-6
-1.370, -9.093e-6
-1.369, -9.093e-6
-1.368, -9.093e-6
-1.367, -9.093e-6
-1.366, -9.093e-6
-1.365, -9.093e-6
-1.364, -9.093e-6
-1.363, -9.093e-6
-1.362, -9.093e-6
-1.361, -9.093e-6
-1.360, -9.093e-6
-1.359, -9.093e-6
-1.358, -9.093e-6
-1.357, -9.093e-6
-1.356, -9.093e-6
-1.355, -9.093e-6
-1.354, -9.093e-6
-1.353, -9.093e-6
-1.352, -9.093e-6
-1.351, -9.093e-6
-1.350, -9.093e-6
-1.349, -9.093e-6
-1.348, -9.093e-6
-1.347, -9.093e-6
-1.346, -9.093e-6
-1.345, -9.093e-6
-1.344, -9.093e-6
-1.343, -9.093e-6
-1.342, -9.093e-6
-1.341, -9.093e-6
-1.340, -9.093e-6
-1.339, -9.093e-6
-1.338, -1.218e-5
-1.337, -9.093e-6
-1.336, -9.093e-6
-1.335, -1.218e-5
-1.334, -9.093e-6
-1.333, -9.093e-6
-1.332, -9.093e-6
-1.331, -9.093e-6
-1.330, -9.093e-6
-1.329, -1.218e-5
-1.328, -1.218e-5
-1.327, -9.093e-6
-1.326, -9.093e-6
-1.325, -9.093e-6
-1.324, -1.218e-5
-1.323, -9.093e-6
-1.322, -9.093e-6
-1.321, -1.218e-5
-1.320, -1.218e-5
-1.319, -9.093e-6
-1.318, -1.218e-5
-1.317, -9.093e-6
-1.316, -9.093e-6
-1.315, -9.093e-6
-1.314, -9.093e-6
-1.313, -9.093e-6
-1.312, -1.218e-5
-1.311, -9.093e-6
-1.310, -1.218e-5
-1.309, -1.218e-5
-1.308, -9.093e-6
-1.307, -9.093e-6
-1.306, -1.218e-5
-1.305, -1.218e-5
-1.304, -1.218e-5
-1.303, -1.218e-5
-1.302, -9.093e-6
-1.301, -1.218e-5
-1.300, -1.218e-5
-1.299, -1.218e-5
-1.298, -9.093e-6
-1.297, -1.218e-5
-1.296, -9.093e-6
-1.295, -1.218e-5
-1.294, -1.218e-5
-1.293, -1.218e-5
-1.292, -1.218e-5
-1.291, -9.093e-6
-1.290, -9.093e-6
-1.289, -1.218e-5
-1.288, -1.218e-5
-1.287, -1.218e-5
-1.286, -1.218e-5
-1.285, -1.218e-5
-1.284, -1.218e-5
-1.283, -1.218e-5
-1.282, -1.218e-5
-1.281, -1.218e-5
-1.280, -1.218e-5
-1.279, -1.218e-5
-1.278, -9.093e-6
-1.277, -1.218e-5
-1.276, -1.218e-5
-1.275, -1.218e-5
-1.274, -1.218e-5
-1.273, -1.218e-5
-1.272, -1.218e-5
-1.271, -1.218e-5
-1.270, -1.218e-5
-1.269, -1.218e-5
-1.268, -1.218e-5
-1.267, -1.218e-5
-1.266, -1.218e-5
-1.265, -1.218e-5
-1.264, -1.218e-5
-1.263, -1.218e-5
-1.262, -9.093e-6
-1.261, -1.218e-5
-1.260, -1.218e-5
-1.259, -1.218e-5
-1.258, -1.218e-5
-1.257, -1.218e-5
-1.256, -1.218e-5
-1.255, -9.093e-6
-1.254, -1.218e-5
-1.253, -1.218e-5
-1.252, -1.218e-5
-1.251, -1.218e-5
-1.250, -1.218e-5
-1.249, -1.218e-5
-1.248, -1.218e-5
-1.247, -1.218e-5
-1.246, -1.218e-5
-1.245, -1.218e-5
-1.244, -1.218e-5
-1.243, -9.093e-6
-1.242, -1.218e-5
-1.241, -1.218e-5
-1.240, -1.218e-5
-1.239, -1.218e-5
-1.238, -1.218e-5
-1.237, -1.218e-5
-1.236, -1.218e-5
-1.235, -1.218e-5
-1.234, -1.218e-5
-1.233, -1.218e-5
-1.232, -1.218e-5
-1.231, -1.218e-5
-1.230, -1.218e-5
-1.229, -1.218e-5
-1.228, -1.218e-5
-1.227, -1.218e-5
-1.226, -1.218e-5
-1.225, -1.218e-5
-1.224, -1.218e-5
-1.223, -1.218e-5
-1.222, -1.218e-5
-1.221, -1.218e-5
-1.220, -1.218e-5
-1.219, -1.218e-5
-1.218, -1.218e-5
-1.217, -1.218e-5
-1.216, -1.218e-5
-1.215, -1.218e-5
-1.214, -1.218e-5
-1.213, -1.218e-5
-1.212, -1.218e-5
-1.211, -1.218e-5
-1.210, -1.218e-5
-1.209, -1.218e-5
-1.208, -1.218e-5
-1.207, -1.218e-5
-1.206, -1.218e-5
-1.205, -1.218e-5
-1.204, -1.218e-5
-1.203, -1.218e-5
-1.202, -1.218e-5
-1.201, -1.218e-5
-1.200, -1.218e-5
-1.199, -1.218e-5
-1.198, -1.218e-5
-1.197, -1.218e-5
-1.196, -1.218e-5
-1.195, -1.218e-5
-1.194, -1.218e-5
-1.193, -1.218e-5
-1.192, -1.218e-5
-1.191, -1.218e-5
-1.190, -1.218e-5
-1.189, -1.218e-5
-1.188, -1.218e-5
-1.187, -1.218e-5
-1.186, -1.218e-5
-1.185, -1.218e-5
-1.184, -1.218e-5
-1.183, -1.218e-5
-1.182, -1.218e-5
-1.181, -1.218e-5
-1.180, -1.218e-5
-1.179, -1.218e-5
-1.178, -1.218e-5
-1.177, -1.218e-5
-1.176, -1.218e-5
-1.175, -1.218e-5
-1.174, -1.218e-5
-1.173, -1.218e-5
-1.172, -1.218e-5
-1.171, -1.218e-5
-1.170, -1.218e-5
-1.169, -1.218e-5
-1.168, -1.218e-5
-1.167, -1.218e-5
-1.166, -1.218e-5
-1.165, -1.218e-5
-1.164, -1.218e-5
-1.163, -1.218e-5
-1.162, -1.218e-5
-1.161, -1.218e-5
-1.160, -1.218e-5
-1.159, -1.218e-5
-1.158, -1.218e-5
-1.157, -1.218e-5
-1.156, -1.218e-5
-1.155, -1.218e-5
-1.154, -1.218e-5
-1.153, -1.218e-5
-1.152, -1.218e-5
-1.151, -1.218e-5
-1.150, -9.093e-6
-1.149, -1.218e-5
-1.148, -1.218e-5
-1.147, -1.218e-5
-1.146, -1.218e-5
-1.145, -1.218e-5
-1.144, -1.218e-5
-1.143, -1.218e-5
-1.142, -1.218e-5
-1.141, -1.218e-5
-1.140, -1.218e-5
-1.139, -1.218e-5
-1.138, -1.218e-5
-1.137, -1.218e-5
-1.136, -1.218e-5
-1.135, -1.218e-5
-1.134, -1.218e-5
-1.133, -1.218e-5
-1.132, -1.218e-5
-1.131, -1.218e-5
-1.130, -1.218e-5
-1.129, -1.218e-5
-1.128, -1.218e-5
-1.127, -1.218e-5
-1.126, -1.218e-5
-1.125, -1.218e-5
-1.124, -1.218e-5
-1.123, -1.218e-5
-1.122, -1.218e-5
-1.121, -1.218e-5
-1.120, -1.218e-5
-1.119, -1.218e-5
-1.118, -1.218e-5
-1.117, -1.218e-5
-1.116, -1.218e-5
-1.115, -1.218e-5
-1.114, -1.218e-5
-1.113, -1.218e-5
-1.112, -1.218e-5
-1.111, -1.218e-5
-1.110, -1.218e-5
-1.109, -1.218e-5
-1.108, -1.218e-5
-1.107, -1.218e-5
-1.106, -1.526e-5
-1.105, -1.218e-5
-1.104, -1.218e-5
-1.103, -1.218e-5
-1.102, -1.218e-5
-1.101, -1.218e-5
-1.100, -1.218e-5
-1.099, -1.218e-5
-1.098, -1.218e-5
-1.097, -1.218e-5
-1.096, -1.218e-5
-1.095, -1.218e-5
-1.094, -1.218e-5
-1.093, -1.218e-5
-1.092, -1.218e-5
-1.091, -1.218e-5
-1.090, -1.218e-5
-1.089, -1.218e-5
-1.088, -1.218e-5
-1.087, -1.218e-5
-1.086, -1.218e-5
-1.085, -1.218e-5
-1.084, -1.218e-5
-1.083, -1.218e-5
-1.082, -1.218e-5
-1.081, -1.218e-5
-1.080, -1.218e-5
-1.079, -1.218e-5
-1.078, -1.218e-5
-1.077, -1.218e-5
-1.076, -1.218e-5
-1.075, -1.218e-5
-1.074, -1.218e-5
-1.073, -1.218e-5
-1.072, -1.218e-5
-1.071, -1.218e-5
-1.070, -1.218e-5
-1.069, -1.218e-5
-1.068, -1.218e-5
-1.067, -1.218e-5
-1.066, -1.218e-5
-1.065, -1.218e-5
-1.064, -1.218e-5
-1.063, -1.218e-5
-1.062, -1.218e-5
-1.061, -1.218e-5
-1.060, -1.218e-5
-1.059, -1.526e-5
-1.058, -1.218e-5
-1.057, -1.218e-5
-1.056, -1.526e-5
-1.055, -1.218e-5
-1.054, -1.218e-5
-1.053, -1.218e-5
-1.052, -1.526e-5
-1.051, -1.218e-5
-1.050, -1.526e-5
-1.049, -1.218e-5
-1.048, -1.526e-5
-1.047, -1.526e-5
-1.046, -1.526e-5
-1.045, -1.526e-5
-1.044, -1.526e-5
-1.043, -1.526e-5
-1.042, -1.218e-5
-1.041, -1.526e-5
-1.040, -1.526e-5
-1.039, -1.218e-5
-1.038, -1.218e-5
-1.037, -1.526e-5
-1.036, -1.526e-5
-1.035, -1.526e-5
-1.034, -1.218e-5
-1.033, -1.218e-5
-1.032, -1.526e-5
-1.031, -1.526e-5
-1.030, -1.526e-5
-1.029, -1.526e-5
-1.028, -1.526e-5
-1.027, -1.526e-5
-1.026, -1.526e-5
-1.025, -1.526e-5
-1.024, -1.526e-5
-1.023, -1.526e-5
-1.022, -1.526e-5
-1.021, -1.218e-5
-1.020, -1.526e-5
-1.019, -1.526e-5
-1.018, -1.526e-5
-1.017, -1.526e-5
-1.016, -1.526e-5
-1.015, -1.526e-5
-1.014, -1.526e-5
-1.013, -1.526e-5
-1.012, -1.526e-5
-1.011, -1.526e-5
-1.010, -1.526e-5
-1.009, -1.526e-5
-1.008, -1.526e-5
-1.007, -1.526e-5
-1.006, -1.526e-5
-1.005, -1.526e-5
-1.004, -1.526e-5
-1.003, -1.526e-5
-1.002, -1.526e-5
-1.001, -1.526e-5
