Potential V vs RHE, Current mA cm-2
0.013299999999999867,-0.06101649836317903
0.012299999999999978,-0.06634995996367023
0.011299999999999866,-0.06947647193637195
0.010299999999999976,-0.07169756867716005
0.009299999999999864,-0.07369231160996977
0.008299999999999974,-0.07588511412476057
0.007299999999999862,-0.07758276768459862
0.006299999999999972,-0.07956336350440966
0.00529999999999986,-0.08073757388329764
0.0042999999999999705,-0.08239278610413973
0.0032999999999998586,-0.08380749740400478
0.0022999999999999687,-0.08534953272085766
0.0012999999999998568,-0.0869905978287011
0.00029999999999996696,-0.08779698326962418
-0.000700000000000145,-0.08923998879548652
-0.0017000000000000348,-0.0902161395923934
-0.0027000000000001467,-0.09141864419727867
-0.0037000000000000366,-0.09337094579109242
-0.0047000000000001485,-0.09362559382506812
-0.005700000000000038,-0.09501201089893586
-0.00670000000000015,-0.09590327901785084
-0.00770000000000004,-0.09699260671874692
-0.008700000000000152,-0.09843561224460926
-0.009700000000000042,-0.09902979099055256
-0.010700000000000154,-0.10082647434138116
-0.011700000000000044,-0.10089720990637441
-0.012700000000000156,-0.1022694798672435
-0.013700000000000045,-0.10340124890713552
-0.014700000000000157,-0.1043208112520478
-0.015700000000000047,-0.10536769761394793
-0.01670000000000016,-0.10576381677791014
-0.01770000000000005,-0.10699461560879273
-0.01870000000000016,-0.10821126732667666
-0.01970000000000005,-0.10889032875061187
-0.020700000000000163,-0.10996550933850929
-0.021700000000000053,-0.11065871787544318
-0.022700000000000164,-0.11153583888135948
-0.023700000000000054,-0.11282322616423668
-0.024700000000000166,-0.11300713863321914
-0.025700000000000056,-0.11433696725509226
-0.026700000000000168,-0.11515749980901398
-0.027700000000000058,-0.1157799727809546
-0.02870000000000017,-0.11739274366280074
-0.02970000000000006,-0.11770398014877105
-0.03070000000000017,-0.11862354249368333
-0.03170000000000006,-0.11967042885558345
-0.03270000000000017,-0.12020801914953216
-0.03370000000000006,-0.12158028911040124
-0.034700000000000175,-0.12203299672635806
-0.035700000000000065,-0.1231647657662501
-0.03670000000000018,-0.12414091656315696
-0.03770000000000007,-0.12484827221308947
-0.03870000000000018,-0.12616395372196398
-0.03970000000000007,-0.12630542485195048
-0.04070000000000018,-0.12746548811783978
-0.04170000000000007,-0.12814454954177504
-0.04270000000000018,-0.1288377580787089
-0.04370000000000007,-0.13008270402259012
-0.044700000000000184,-0.13070517699453074
-0.045700000000000074,-0.13138423841846594
-0.046700000000000186,-0.1323462421023742
-0.047700000000000076,-0.1333082457862824
-0.04870000000000019,-0.13404389566221223
-0.04970000000000008,-0.13500589934612045
-0.05070000000000019,-0.13565666654405836
-0.05170000000000008,-0.13640646353298683
-0.05270000000000019,-0.13762311525087076
-0.05370000000000008,-0.1386700016127709
-0.05470000000000019,-0.13929247458471153
-0.05570000000000008,-0.1402261840426224
-0.056700000000000195,-0.14115989350053335
-0.057700000000000085,-0.1420370145064497
-0.058700000000000196,-0.1427443701563822
-0.059700000000000086,-0.1434517258063147
-0.0607000000000002,-0.14444202371622025
-0.06170000000000009,-0.14543232162612577
-0.0627000000000002,-0.14628114840604478
-0.06370000000000009,-0.14727144631595032
-0.0647000000000002,-0.14840321535584233
-0.06570000000000009,-0.14868615761581536
-0.0667000000000002,-0.1496764555257209
-0.0677000000000001,-0.1508082245656129
-0.0687000000000002,-0.1513741090855589
-0.0697000000000001,-0.15293029151541046
-0.07070000000000021,-0.15250587812545094
-0.0717000000000001,-0.15335470490536995
-0.07270000000000021,-0.15491088733522151
-0.0737000000000001,-0.15547677185516753
-0.07470000000000021,-0.15689148315503257
-0.0757000000000001,-0.15717442541500556
-0.07670000000000021,-0.15774030993495158
-0.0777000000000001,-0.15901355010483012
-0.07870000000000021,-0.15986237688474914
-0.0797000000000001,-0.16127708818461417
-0.08070000000000022,-0.16099414592464115
-0.0817000000000001,-0.1625503283544927
-0.08270000000000022,-0.1626917994844792
-0.08370000000000011,-0.16382356852437122
-0.08470000000000022,-0.16537975095422278
-0.08570000000000011,-0.16537975095422278
-0.08670000000000022,-0.16608710660415532
-0.08770000000000011,-0.16707740451406086
-0.08870000000000022,-0.16764328903400685
-0.08970000000000011,-0.1689165292038854
-0.09070000000000022,-0.16905800033387192
-0.09170000000000011,-0.17033124050375043
-0.09270000000000023,-0.17075565389370992
-0.09370000000000012,-0.17174595180361546
-0.09470000000000023,-0.172736249713521
-0.09570000000000012,-0.172736249713521
-0.09670000000000023,-0.1737265476234265
-0.09770000000000012,-0.17457537440334553
-0.09870000000000023,-0.17599008570321056
-0.09970000000000012,-0.17641449909317006
-0.10070000000000023,-0.1772633258730891
-0.10170000000000012,-0.17797068152302162
-0.10270000000000024,-0.1783950949129811
-0.10370000000000013,-0.17980980621284617
-0.10470000000000024,-0.17980980621284617
-0.10570000000000013,-0.18094157525273818
-0.10670000000000024,-0.18136598864269768
-0.10770000000000013,-0.18221481542261672
-0.10870000000000024,-0.18292217107254924
-0.10970000000000013,-0.18334658446250876
-0.11070000000000024,-0.1843368823724143
-0.11170000000000013,-0.1844783535024008
-0.11270000000000002,-0.18532718028231981
-0.11370000000000013,-0.18660042045219835
-0.11470000000000002,-0.18674189158218485
-0.11570000000000014,-0.18801513175206336
-0.11670000000000003,-0.18843954514202288
-0.11770000000000014,-0.18928837192194192
-0.11870000000000003,-0.1899957275718744
-0.11970000000000014,-0.19027866983184744
-0.12070000000000003,-0.19084455435179343
-0.12170000000000014,-0.19126896774175295
-0.12270000000000003,-0.19282515017160448
-0.12370000000000014,-0.193249563561564
-0.12470000000000003,-0.193532505821537
-0.12570000000000014,-0.19466427486142904
-0.12670000000000003,-0.19523015938137506
-0.12770000000000015,-0.19579604390132105
-0.12870000000000004,-0.19636192842126707
-0.12970000000000015,-0.1973522263311726
-0.13070000000000004,-0.19805958198110513
-0.13170000000000015,-0.19834252424107812
-0.13270000000000004,-0.19961576441095666
-0.13370000000000015,-0.19961576441095666
-0.13470000000000004,-0.19975723554094318
-0.13570000000000015,-0.20060606232086217
-0.13670000000000004,-0.2010304757108217
-0.13770000000000016,-0.20202077362072723
-0.13870000000000005,-0.20258665814067325
-0.13970000000000016,-0.20343548492059227
-0.14070000000000005,-0.2037184271805653
-0.14170000000000016,-0.20428431170051128
-0.14270000000000005,-0.20499166735044383
-0.14370000000000016,-0.20555755187038985
-0.14470000000000005,-0.20640637865030886
-0.14570000000000016,-0.20683079204026839
-0.14670000000000005,-0.2073966765602144
-0.14770000000000016,-0.2082455033401334
-0.14870000000000005,-0.2081040322101469
-0.14970000000000017,-0.20951874351001196
-0.15070000000000006,-0.20966021463999845
-0.15170000000000017,-0.20994315689997145
-0.15270000000000006,-0.21093345480987696
-0.15370000000000017,-0.21107492593986346
-0.15470000000000006,-0.21220669497975553
-0.15570000000000017,-0.21220669497975553
-0.15670000000000006,-0.21305552175967452
-0.15770000000000017,-0.21390434853959353
-0.15870000000000006,-0.21418729079956658
-0.15970000000000018,-0.2154605309694451
-0.16070000000000007,-0.2156020020994316
-0.16170000000000018,-0.21630935774936413
-0.16270000000000007,-0.21701671339929662
-0.16370000000000018,-0.21715818452928315
-0.16470000000000007,-0.21843142469916169
-0.16570000000000018,-0.21843142469916169
-0.16670000000000007,-0.21970466486904017
-0.16770000000000018,-0.21970466486904017
-0.16870000000000007,-0.2199876071290132
-0.16970000000000018,-0.22140231842887825
-0.17070000000000007,-0.22111937616890526
-0.17170000000000019,-0.22225114520879727
-0.17270000000000008,-0.22253408746877026
-0.1737000000000002,-0.2232414431187028
-0.17470000000000008,-0.22437321215859482
-0.1757000000000002,-0.2242317410286083
-0.17670000000000008,-0.22536351006850036
-0.1777000000000002,-0.22536351006850036
-0.17870000000000008,-0.22607086571843285
-0.1797000000000002,-0.22720263475832486
-0.18070000000000008,-0.2273441058883114
-0.1817000000000002,-0.22833440379821693
-0.18270000000000008,-0.22904175944814942
-0.1837000000000002,-0.22946617283810894
-0.1847000000000001,-0.23017352848804143
-0.1857000000000002,-0.23017352848804143
-0.1867000000000001,-0.23116382639794697
-0.1877000000000002,-0.23187118204787951
-0.1887000000000001,-0.23314442221775805
-0.1897000000000002,-0.23314442221775805
-0.1907000000000001,-0.23342736447773108
-0.1917000000000001,-0.23427619125765006
-0.19269999999999998,-0.23512501803756908
-0.1937000000000001,-0.23639825820744764
-0.19469999999999998,-0.23639825820744764
-0.1957000000000001,-0.2368226715974071
-0.19669999999999999,-0.23738855611735316
-0.1977000000000001,-0.2382373828972722
-0.1987,-0.2395106230671507
-0.1997000000000001,-0.2399350364571102
-0.2007,-0.24078386323702924
-0.2017000000000001,-0.24035944984706975
-0.2027,-0.24120827662698877
-0.2037000000000001,-0.2420571034069078
-0.2047,-0.24304740131681332
-0.2057000000000001,-0.2437547569667458
-0.2067,-0.24417917035670533
-0.2077000000000001,-0.24531093939659734
-0.2087,-0.24615976617651636
-0.2097000000000001,-0.24658417956647588
-0.2107,-0.2474330063463949
-0.2117000000000001,-0.24842330425630044
-0.2127,-0.24941360216620592
-0.2137000000000001,-0.250545371206098
-0.2147,-0.25096978459605745
-0.2157000000000001,-0.25337479380582806
-0.2167,-0.2535162649358146
-0.21770000000000012,-0.25436509171573357
-0.2187,-0.2557798030155986
-0.21970000000000012,-0.2562042164055581
-0.2207,-0.25705304318547717
-0.22170000000000012,-0.25761892770542316
-0.2227,-0.2588921678753017
-0.22370000000000012,-0.26016540804518024
-0.2247,-0.2610142348250993
-0.22570000000000012,-0.26129717708507233
-0.2267,-0.2625704172549508
-0.22770000000000012,-0.26440954194477534
-0.22870000000000001,-0.26582425324464043
-0.22970000000000013,-0.2661071955046134
-0.23070000000000002,-0.267946320194438
-0.23170000000000013,-0.268795146974357
-0.23270000000000002,-0.2697854448842625
-0.23370000000000013,-0.27134162731411404
-0.23470000000000002,-0.27162456957408704
-0.23570000000000013,-0.2737466365238846
-0.23670000000000002,-0.27431252104383064
-0.2376999999999999,-0.27601017460366867
-0.23870000000000002,-0.2770004725135742
-0.2396999999999999,-0.27912253946337173
-0.24070000000000003,-0.2801128373732773
-0.24169999999999991,-0.2813860775431558
-0.24270000000000003,-0.28336667336296684
-0.24369999999999992,-0.2849228557928184
-0.24470000000000003,-0.2857716825727374
-0.24569999999999992,-0.287893749522535
-0.24670000000000003,-0.2886011051724675
-0.24769999999999992,-0.29058170099227854
-0.24870000000000003,-0.2921378834221301
-0.24969999999999992,-0.2932696524620221
-0.25070000000000003,-0.2956746616717927
-0.2516999999999999,-0.29680643071168467
-0.25270000000000004,-0.29779672862159023
-0.2536999999999999,-0.2996358533114148
-0.25470000000000004,-0.3009090934812933
-0.2556999999999999,-0.3034555738210504
-0.25670000000000004,-0.30487028512091535
-0.25769999999999993,-0.3076997077206455
-0.25870000000000004,-0.30897294789052404
-0.25969999999999993,-0.310670601450362
-0.26070000000000004,-0.31321708179011915
-0.26169999999999993,-0.31406590857003813
-0.26270000000000004,-0.31675386003978173
-0.26369999999999993,-0.3185929847296063
-0.26470000000000005,-0.31986622489948474
-0.26569999999999994,-0.32326153201916086
-0.26670000000000005,-0.3246762433190259
-0.26769999999999994,-0.32722272365878297
-0.26870000000000005,-0.329203319478594
-0.26969999999999994,-0.3309009730384321
-0.27070000000000005,-0.33316451111821616
-0.27169999999999994,-0.3344377512880947
-0.27270000000000005,-0.3362768759779193
-0.27369999999999994,-0.3382574717977303
-0.27470000000000006,-0.34023806761754133
-0.27569999999999995,-0.3430674902172714
-0.27670000000000006,-0.34476514377710943
-0.27769999999999995,-0.347736037506826
-0.27870000000000006,-0.3495751621966506
-0.27969999999999995,-0.35127281575648867
-0.28070000000000006,-0.3545266517461782
-0.28169999999999995,-0.35594136304604324
-0.28270000000000006,-0.3594781412957058
-0.28369999999999995,-0.3614587371155169
-0.28470000000000006,-0.3637222751953009
-0.28569999999999995,-0.366551697795031
-0.28670000000000007,-0.3686737647448286
-0.28769999999999996,-0.3720690718645046
-0.28870000000000007,-0.37461555220426174
-0.28969999999999996,-0.37716203254401875
-0.29070000000000007,-0.37942557062380283
-0.29169999999999996,-0.3815476375736004
-0.29270000000000007,-0.38508441582326297
-0.29369999999999996,-0.38664059825311453
-0.2947000000000001,-0.38918707859287155
-0.29569999999999996,-0.3920165011926017
-0.2967000000000001,-0.3949873949223182
-0.29769999999999996,-0.3989485865619403
-0.2987000000000001,-0.4020609514216434
-0.29969999999999997,-0.40489037402137346
-0.3007000000000001,-0.40899303679098215
-0.30169999999999997,-0.4106906903508202
-0.3027000000000001,-0.4149348242504153
-0.30369999999999997,-0.4176227757201588
-0.3047000000000001,-0.4205936694498755
-0.30569999999999997,-0.4242719188295245
-0.3067000000000001,-0.4271013414292546
-0.3077,-0.4310625330688767
-0.3087000000000001,-0.4344578401885528
-0.3097,-0.4377116761782423
-0.3107000000000001,-0.4399752142580264
-0.3117,-0.44308757911772945
-0.3127000000000001,-0.44662435736739203
-0.3137,-0.45086849126698714
-0.3147000000000001,-0.4544052695166497
-0.3157,-0.4572346921163799
-0.3167000000000001,-0.46105441262601543
-0.3177,-0.46374236409575903
-0.3187000000000001,-0.4677035557353811
-0.3197,-0.47095739172507073
-0.3207000000000001,-0.47392828545478727
-0.3217,-0.4793041883942744
-0.3227000000000001,-0.4829824377739235
-0.3237,-0.4851045047237211
-0.3247000000000001,-0.48949010975330265
-0.3257,-0.4934513013929247
-0.3267000000000001,-0.49755396416253334
-0.3277,-0.5003833867622635
-0.3287000000000001,-0.5068910587416426
-0.3297,-0.5117010771611837
-0.3307000000000001,-0.5146719708909003
-0.3317,-0.519057575920482
-0.3327000000000001,-0.5225943541701447
-0.3337,-0.5276873148496587
-0.3347000000000001,-0.5320729198792403
-0.3357,-0.5347608713489839
-0.3367000000000001,-0.5388635341185926
-0.3377,-0.5418344278483092
-0.3387000000000001,-0.5466444462678502
-0.3397,-0.5514544646873913
-0.3407000000000001,-0.5559815408469594
-0.3417,-0.5612159726564601
-0.3427000000000001,-0.5670162889859067
-0.3437,-0.5722507207954074
-0.3447000000000001,-0.576919268084962
-0.3457,-0.5815878153745165
-0.3467000000000001,-0.5863978337940576
-0.3477,-0.5896516697837473
-0.3487000000000001,-0.5931884480334099
-0.3497,-0.5975740530629915
-0.3507000000000001,-0.6023840714825326
-0.3517,-0.6069111476421007
-0.3527000000000001,-0.6117211660616418
-0.3537,-0.6169555978711424
-0.3547000000000001,-0.620775318380778
-0.3557,-0.6253023945403461
-0.35670000000000013,-0.6302538840898738
-0.3577,-0.635912729289334
-0.35870000000000013,-0.6405812765788885
-0.3597,-0.6438351125685782
-0.36070000000000013,-0.6528892648877144
-0.3617,-0.6588310523471476
-0.3626999999999999,-0.6640654841566482
-0.3637,-0.6697243293561084
-0.3646999999999999,-0.6751002322955955
-0.3657,-0.6799102507151367
-0.3666999999999999,-0.6855690959145968
-0.3677,-0.6910864699840705
-0.3686999999999999,-0.7041018139428288
-0.36970000000000003,-0.710326543662235
-0.3706999999999999,-0.7168342156416141
-0.37170000000000003,-0.7224930608410742
-0.3726999999999999,-0.7290007328204534
-0.37370000000000003,-0.7357913470598055
-0.3746999999999999,-0.7432893169490903
-0.37570000000000003,-0.74937257553851
-0.3766999999999999,-0.753333767178132
-0.37770000000000004,-0.7592755546375651
-0.3786999999999999,-0.7663491111368903
-0.37970000000000004,-0.7748373789360805
-0.3806999999999999,-0.7792229839656621
-0.38170000000000004,-0.7860135982050144
-0.38269999999999993,-0.7919553856644476
-0.38370000000000004,-0.7987459999037997
-0.38469999999999993,-0.806385440923071
-0.38570000000000004,-0.8126101706424771
-0.38669999999999993,-0.8199666694017753
-0.38770000000000004,-0.8293037639808845
-0.38869999999999993,-0.8352455514403176
-0.38970000000000005,-0.8445826460194269
-0.39069999999999994,-0.8516562025187521
-0.39170000000000005,-0.8601444703179423
-0.39269999999999994,-0.8643886042175374
-0.39370000000000005,-0.8734427565366737
-0.39469999999999994,-0.8809407264259583
-0.39570000000000005,-0.8850433891955669
-0.39669999999999994,-0.8899948787450946
-0.39770000000000005,-0.8982002042843118
-0.39869999999999994,-0.9065470009535155
-0.39970000000000006,-0.9130546729328947
-0.40069999999999995,-0.9215429407320849
-0.40170000000000006,-0.9256456035016934
-0.40269999999999995,-0.930314150791248
-0.40370000000000006,-0.9342753424308702
-0.40469999999999995,-0.9410659566702223
-0.40570000000000006,-0.9499786378593722
-0.40669999999999995,-0.9546471851489268
-0.40770000000000006,-0.9649745776379416
-0.40869999999999995,-0.9727554897871993
-0.40970000000000006,-0.9754434412569427
-0.41069999999999995,-0.9811022864564031
-0.41170000000000007,-0.98647818939589
-0.41269999999999996,-0.9927029191152963
-0.41370000000000007,-1.0004838312645539
-0.41469999999999996,-1.008689156803771
-0.41570000000000007,-1.0194409626827452
-0.41669999999999996,-1.024958336752219
-0.41770000000000007,-1.0310415953416388
-0.41869999999999996,-1.037549267321018
-0.4197000000000001,-1.042359285740559
-0.42069999999999996,-1.0504231401497897
-0.4217000000000001,-1.0573552255191285
-0.42269999999999996,-1.066975262358211
-0.4237000000000001,-1.076029414677347
-0.42469999999999997,-1.0829615000466857
-0.4257000000000001,-1.0907424121959435
-0.42669999999999997,-1.100503920165012
-0.4277000000000001,-1.107718947794324
-0.42869999999999997,-1.115075446553622
-0.4297000000000001,-1.1245540122627176
-0.43069999999999997,-1.1321934532819888
-0.4317000000000001,-1.1405402499511925
-0.4327,-1.1486041043604232
-0.4337000000000001,-1.1587900257194514
-0.4347,-1.1675612357786147
-0.4357000000000001,-1.1797277529574541
-0.4367,-1.1868013094567793
-0.4377000000000001,-1.196562817425848
-0.4387,-1.2047681429650652
-0.4397000000000001,-1.2145296509341341
-0.4407,-1.2207543806535404
-0.4417000000000001,-1.2275449948928923
-0.4427,-1.2360332626920827
-0.4437000000000001,-1.2440971171013133
-0.4447,-1.2521609715105442
-0.4457000000000001,-1.2617810083496264
-0.4467,-1.2726742853585868
-0.4477000000000001,-1.2837090334975343
-0.4487,-1.2936120125965895
-0.4497000000000001,-1.3052126452554829
-0.4507,-1.3101641348050104
-0.4517000000000001,-1.3223306519838498
-0.4527,-1.3312433331729996
-0.4537000000000001,-1.3395901298422033
-0.4547,-1.3517566470210427
-0.4557000000000001,-1.3626499240300034
-0.4567,-1.3702893650492747
-0.4577000000000001,-1.3799094018883569
-0.4587,-1.3876903140376144
-0.4597000000000001,-1.4021203692962378
-0.4607,-1.4125892329152392
-0.4617000000000001,-1.421784856364362
-0.4627,-1.4345172580631471
-0.4637000000000001,-1.4472496597619326
-0.4647,-1.4557379275611226
-0.4657000000000001,-1.4656409066601779
-0.4667,-1.4769585970590984
-0.4677000000000001,-1.4854468648582886
-0.4687,-1.4925204213576138
-0.4697000000000001,-1.501008689156804
-0.4707,-1.512326379555724
-0.4717000000000001,-1.5193999360550492
-0.4727,-1.5250587812545096
-0.4737000000000001,-1.540620605553025
-0.4747,-1.5533530072518102
-0.4757000000000001,-1.5604265637511354
-0.4767,-1.5745736767497858
-0.4777000000000001,-1.583061944548976
-0.4787,-1.5929649236480312
-0.4797000000000001,-1.6014531914472214
-0.4807,-1.6113561705462767
-0.48170000000000013,-1.6255032835449272
-0.4827,-1.6354062626439825
-0.48370000000000013,-1.6453092417430377
-0.4847,-1.653797509542228
-0.48570000000000013,-1.6665299112410132
-0.4867,-1.6778476016399335
-0.4876999999999999,-1.6877505807389888
-0.4887,-1.700482982437774
-0.4896999999999999,-1.7118006728366943
-0.4907,-1.7245330745354797
-0.4916999999999999,-1.7386801875341302
-0.4927,-1.7556567231325106
-0.4936999999999999,-1.766974413531431
