May 2, 2025   21:56:55
Cyclic Voltammetry
File: c:/users/guazh/data/banditlqround7_x0exp1108_r5/2025-04-30-exp1221\exp1221-2025-05-02t21_45_22-arkoh\exp1221_cv_sr_700mvs_efin_-1500mv.bin
Data Source:  Experiment
Instrument Model:  CHI760E
Header: CV ran at 700 mVs
Note: 

Init E (V) = -1
High E (V) = -1
Low E (V) = -1.5
Final E (V) = -1
Init P/N = N
Scan Rate (V/s) = 0.7
Segment = 3
Sample Interval (V) = 0.001
Quiet Time (sec) = 2
Sensitivity (A/V) = 0.01
Comp R (ohm) = 0.9

Results:

Channel 1:
Segment 1:

Segment 2:

Segment 3:

Potential/V, Current/A

-1.000, 2.482e-5
-1.001, 1.266e-4
-1.002, 1.975e-4
-1.003, 2.591e-4
-1.004, 3.085e-4
-1.005, 3.547e-4
-1.006, 3.979e-4
-1.007, 4.349e-4
-1.008, 4.719e-4
-1.009, 5.058e-4
-1.010, 5.335e-4
-1.011, 5.613e-4
-1.012, 5.890e-4
-1.013, 6.106e-4
-1.014, 6.353e-4
-1.015, 6.569e-4
-1.016, 6.815e-4
-1.017, 7.031e-4
-1.018, 7.278e-4
-1.019, 7.494e-4
-1.020, 7.740e-4
-1.021, 7.925e-4
-1.022, 8.141e-4
-1.023, 8.326e-4
-1.024, 8.480e-4
-1.025, 8.634e-4
-1.026, 8.788e-4
-1.027, 8.973e-4
-1.028, 9.097e-4
-1.029, 9.282e-4
-1.030, 9.467e-4
-1.031, 9.652e-4
-1.032, 9.806e-4
-1.033, 9.960e-4
-1.034, 1.008e-3
-1.035, 1.018e-3
-1.036, 1.033e-3
-1.037, 1.042e-3
-1.038, 1.051e-3
-1.039, 1.064e-3
-1.040, 1.076e-3
-1.041, 1.092e-3
-1.042, 1.101e-3
-1.043, 1.116e-3
-1.044, 1.129e-3
-1.045, 1.141e-3
-1.046, 1.150e-3
-1.047, 1.156e-3
-1.048, 1.166e-3
-1.049, 1.172e-3
-1.050, 1.184e-3
-1.051, 1.190e-3
-1.052, 1.203e-3
-1.053, 1.212e-3
-1.054, 1.221e-3
-1.055, 1.233e-3
-1.056, 1.243e-3
-1.057, 1.252e-3
-1.058, 1.258e-3
-1.059, 1.264e-3
-1.060, 1.270e-3
-1.061, 1.273e-3
-1.062, 1.283e-3
-1.063, 1.289e-3
-1.064, 1.298e-3
-1.065, 1.307e-3
-1.066, 1.317e-3
-1.067, 1.326e-3
-1.068, 1.332e-3
-1.069, 1.338e-3
-1.070, 1.344e-3
-1.071, 1.347e-3
-1.072, 1.354e-3
-1.073, 1.357e-3
-1.074, 1.363e-3
-1.075, 1.372e-3
-1.076, 1.381e-3
-1.077, 1.388e-3
-1.078, 1.394e-3
-1.079, 1.400e-3
-1.080, 1.406e-3
-1.081, 1.412e-3
-1.082, 1.415e-3
-1.083, 1.415e-3
-1.084, 1.418e-3
-1.085, 1.421e-3
-1.086, 1.428e-3
-1.087, 1.434e-3
-1.088, 1.443e-3
-1.089, 1.446e-3
-1.090, 1.455e-3
-1.091, 1.458e-3
-1.092, 1.465e-3
-1.093, 1.468e-3
-1.094, 1.471e-3
-1.095, 1.471e-3
-1.096, 1.474e-3
-1.097, 1.480e-3
-1.098, 1.480e-3
-1.099, 1.486e-3
-1.100, 1.492e-3
-1.101, 1.502e-3
-1.102, 1.508e-3
-1.103, 1.511e-3
-1.104, 1.514e-3
-1.105, 1.517e-3
-1.106, 1.517e-3
-1.107, 1.520e-3
-1.108, 1.523e-3
-1.109, 1.523e-3
-1.110, 1.529e-3
-1.111, 1.536e-3
-1.112, 1.539e-3
-1.113, 1.545e-3
-1.114, 1.551e-3
-1.115, 1.554e-3
-1.116, 1.557e-3
-1.117, 1.557e-3
-1.118, 1.557e-3
-1.119, 1.557e-3
-1.120, 1.560e-3
-1.121, 1.563e-3
-1.122, 1.569e-3
-1.123, 1.573e-3
-1.124, 1.579e-3
-1.125, 1.585e-3
-1.126, 1.588e-3
-1.127, 1.591e-3
-1.128, 1.594e-3
-1.129, 1.597e-3
-1.130, 1.594e-3
-1.131, 1.594e-3
-1.132, 1.597e-3
-1.133, 1.600e-3
-1.134, 1.606e-3
-1.135, 1.610e-3
-1.136, 1.616e-3
-1.137, 1.622e-3
-1.138, 1.622e-3
-1.139, 1.625e-3
-1.140, 1.628e-3
-1.141, 1.628e-3
-1.142, 1.628e-3
-1.143, 1.628e-3
-1.144, 1.631e-3
-1.145, 1.634e-3
-1.146, 1.637e-3
-1.147, 1.643e-3
-1.148, 1.650e-3
-1.149, 1.653e-3
-1.150, 1.656e-3
-1.151, 1.659e-3
-1.152, 1.659e-3
-1.153, 1.659e-3
-1.154, 1.659e-3
-1.155, 1.662e-3
-1.156, 1.662e-3
-1.157, 1.665e-3
-1.158, 1.671e-3
-1.159, 1.677e-3
-1.160, 1.680e-3
-1.161, 1.684e-3
-1.162, 1.687e-3
-1.163, 1.690e-3
-1.164, 1.690e-3
-1.165, 1.690e-3
-1.166, 1.690e-3
-1.167, 1.693e-3
-1.168, 1.693e-3
-1.169, 1.699e-3
-1.170, 1.702e-3
-1.171, 1.708e-3
-1.172, 1.711e-3
-1.173, 1.714e-3
-1.174, 1.721e-3
-1.175, 1.717e-3
-1.176, 1.721e-3
-1.177, 1.721e-3
-1.178, 1.724e-3
-1.179, 1.727e-3
-1.180, 1.727e-3
-1.181, 1.733e-3
-1.182, 1.736e-3
-1.183, 1.742e-3
-1.184, 1.748e-3
-1.185, 1.751e-3
-1.186, 1.751e-3
-1.187, 1.754e-3
-1.188, 1.758e-3
-1.189, 1.754e-3
-1.190, 1.758e-3
-1.191, 1.758e-3
-1.192, 1.764e-3
-1.193, 1.770e-3
-1.194, 1.773e-3
-1.195, 1.779e-3
-1.196, 1.782e-3
-1.197, 1.785e-3
-1.198, 1.788e-3
-1.199, 1.788e-3
-1.200, 1.788e-3
-1.201, 1.791e-3
-1.202, 1.795e-3
-1.203, 1.795e-3
-1.204, 1.804e-3
-1.205, 1.807e-3
-1.206, 1.813e-3
-1.207, 1.819e-3
-1.208, 1.822e-3
-1.209, 1.825e-3
-1.210, 1.825e-3
-1.211, 1.828e-3
-1.212, 1.828e-3
-1.213, 1.832e-3
-1.214, 1.835e-3
-1.215, 1.838e-3
-1.216, 1.844e-3
-1.217, 1.850e-3
-1.218, 1.856e-3
-1.219, 1.862e-3
-1.220, 1.865e-3
-1.221, 1.869e-3
-1.222, 1.872e-3
-1.223, 1.872e-3
-1.224, 1.875e-3
-1.225, 1.878e-3
-1.226, 1.881e-3
-1.227, 1.887e-3
-1.228, 1.893e-3
-1.229, 1.906e-3
-1.230, 1.912e-3
-1.231, 1.915e-3
-1.232, 1.918e-3
-1.233, 1.921e-3
-1.234, 1.924e-3
-1.235, 1.927e-3
-1.236, 1.930e-3
-1.237, 1.936e-3
-1.238, 1.939e-3
-1.239, 1.946e-3
-1.240, 1.952e-3
-1.241, 1.961e-3
-1.242, 1.967e-3
-1.243, 1.970e-3
-1.244, 1.980e-3
-1.245, 1.980e-3
-1.246, 1.986e-3
-1.247, 1.989e-3
-1.248, 1.992e-3
-1.249, 1.998e-3
-1.250, 2.001e-3
-1.251, 2.010e-3
-1.252, 2.020e-3
-1.253, 2.029e-3
-1.254, 2.035e-3
-1.255, 2.041e-3
-1.256, 2.044e-3
-1.257, 2.050e-3
-1.258, 2.054e-3
-1.259, 2.060e-3
-1.260, 2.063e-3
-1.261, 2.069e-3
-1.262, 2.078e-3
-1.263, 2.087e-3
-1.264, 2.097e-3
-1.265, 2.106e-3
-1.266, 2.115e-3
-1.267, 2.121e-3
-1.268, 2.128e-3
-1.269, 2.134e-3
-1.270, 2.137e-3
-1.271, 2.143e-3
-1.272, 2.149e-3
-1.273, 2.155e-3
-1.274, 2.168e-3
-1.275, 2.177e-3
-1.276, 2.186e-3
-1.277, 2.195e-3
-1.278, 2.205e-3
-1.279, 2.214e-3
-1.280, 2.223e-3
-1.281, 2.229e-3
-1.282, 2.235e-3
-1.283, 2.242e-3
-1.284, 2.251e-3
-1.285, 2.260e-3
-1.286, 2.272e-3
-1.287, 2.282e-3
-1.288, 2.294e-3
-1.289, 2.306e-3
-1.290, 2.316e-3
-1.291, 2.325e-3
-1.292, 2.331e-3
-1.293, 2.340e-3
-1.294, 2.349e-3
-1.295, 2.359e-3
-1.296, 2.368e-3
-1.297, 2.380e-3
-1.298, 2.393e-3
-1.299, 2.408e-3
-1.300, 2.420e-3
-1.301, 2.433e-3
-1.302, 2.445e-3
-1.303, 2.454e-3
-1.304, 2.467e-3
-1.305, 2.476e-3
-1.306, 2.485e-3
-1.307, 2.497e-3
-1.308, 2.510e-3
-1.309, 2.522e-3
-1.310, 2.538e-3
-1.311, 2.553e-3
-1.312, 2.568e-3
-1.313, 2.581e-3
-1.314, 2.593e-3
-1.315, 2.605e-3
-1.316, 2.618e-3
-1.317, 2.630e-3
-1.318, 2.642e-3
-1.319, 2.658e-3
-1.320, 2.670e-3
-1.321, 2.689e-3
-1.322, 2.704e-3
-1.323, 2.719e-3
-1.324, 2.735e-3
-1.325, 2.750e-3
-1.326, 2.766e-3
-1.327, 2.778e-3
-1.328, 2.793e-3
-1.329, 2.809e-3
-1.330, 2.821e-3
-1.331, 2.840e-3
-1.332, 2.858e-3
-1.333, 2.877e-3
-1.334, 2.895e-3
-1.335, 2.914e-3
-1.336, 2.932e-3
-1.337, 2.951e-3
-1.338, 2.966e-3
-1.339, 2.985e-3
-1.340, 3.000e-3
-1.341, 3.015e-3
-1.342, 3.034e-3
-1.343, 3.052e-3
-1.344, 3.074e-3
-1.345, 3.096e-3
-1.346, 3.114e-3
-1.347, 3.139e-3
-1.348, 3.157e-3
-1.349, 3.179e-3
-1.350, 3.197e-3
-1.351, 3.219e-3
-1.352, 3.237e-3
-1.353, 3.256e-3
-1.354, 3.278e-3
-1.355, 3.299e-3
-1.356, 3.324e-3
-1.357, 3.348e-3
-1.358, 3.373e-3
-1.359, 3.398e-3
-1.360, 3.419e-3
-1.361, 3.441e-3
-1.362, 3.462e-3
-1.363, 3.481e-3
-1.364, 3.503e-3
-1.365, 3.527e-3
-1.366, 3.549e-3
-1.367, 3.577e-3
-1.368, 3.601e-3
-1.369, 3.626e-3
-1.370, 3.657e-3
-1.371, 3.681e-3
-1.372, 3.709e-3
-1.373, 3.731e-3
-1.374, 3.755e-3
-1.375, 3.780e-3
-1.376, 3.802e-3
-1.377, 3.832e-3
-1.378, 3.854e-3
-1.379, 3.885e-3
-1.380, 3.916e-3
-1.381, 3.943e-3
-1.382, 3.977e-3
-1.383, 4.005e-3
-1.384, 4.033e-3
-1.385, 4.061e-3
-1.386, 4.088e-3
-1.387, 4.116e-3
-1.388, 4.141e-3
-1.389, 4.172e-3
-1.390, 4.199e-3
-1.391, 4.230e-3
-1.392, 4.261e-3
-1.393, 4.295e-3
-1.394, 4.326e-3
-1.395, 4.357e-3
-1.396, 4.387e-3
-1.397, 4.415e-3
-1.398, 4.446e-3
-1.399, 4.477e-3
-1.400, 4.508e-3
-1.401, 4.538e-3
-1.402, 4.575e-3
-1.403, 4.609e-3
-1.404, 4.646e-3
-1.405, 4.683e-3
-1.406, 4.720e-3
-1.407, 4.754e-3
-1.408, 4.788e-3
-1.409, 4.822e-3
-1.410, 4.853e-3
-1.411, 4.887e-3
-1.412, 4.924e-3
-1.413, 4.958e-3
-1.414, 4.995e-3
-1.415, 5.035e-3
-1.416, 5.072e-3
-1.417, 5.112e-3
-1.418, 5.149e-3
-1.419, 5.186e-3
-1.420, 5.223e-3
-1.421, 5.260e-3
-1.422, 5.297e-3
-1.423, 5.334e-3
-1.424, 5.374e-3
-1.425, 5.414e-3
-1.426, 5.454e-3
-1.427, 5.494e-3
-1.428, 5.537e-3
-1.429, 5.578e-3
-1.430, 5.618e-3
-1.431, 5.655e-3
-1.432, 5.695e-3
-1.433, 5.735e-3
-1.434, 5.775e-3
-1.435, 5.815e-3
-1.436, 5.858e-3
-1.437, 5.901e-3
-1.438, 5.944e-3
-1.439, 5.991e-3
-1.440, 6.037e-3
-1.441, 6.080e-3
-1.442, 6.126e-3
-1.443, 6.166e-3
-1.444, 6.210e-3
-1.445, 6.253e-3
-1.446, 6.296e-3
-1.447, 6.342e-3
-1.448, 6.385e-3
-1.449, 6.435e-3
-1.450, 6.481e-3
-1.451, 6.530e-3
-1.452, 6.576e-3
-1.453, 6.623e-3
-1.454, 6.669e-3
-1.455, 6.715e-3
-1.456, 6.761e-3
-1.457, 6.808e-3
-1.458, 6.851e-3
-1.459, 6.900e-3
-1.460, 6.956e-3
-1.461, 7.008e-3
-1.462, 7.060e-3
-1.463, 7.110e-3
-1.464, 7.159e-3
-1.465, 7.205e-3
-1.466, 7.252e-3
-1.467, 7.301e-3
-1.468, 7.350e-3
-1.469, 7.403e-3
-1.470, 7.455e-3
-1.471, 7.508e-3
-1.472, 7.560e-3
-1.473, 7.615e-3
-1.474, 7.668e-3
-1.475, 7.723e-3
-1.476, 7.779e-3
-1.477, 7.831e-3
-1.478, 7.884e-3
-1.479, 7.936e-3
-1.480, 7.992e-3
-1.481, 8.044e-3
-1.482, 8.103e-3
-1.483, 8.155e-3
-1.484, 8.214e-3
-1.485, 8.269e-3
-1.486, 8.328e-3
-1.487, 8.386e-3
-1.488, 8.439e-3
-1.489, 8.497e-3
-1.490, 8.550e-3
-1.491, 8.605e-3
-1.492, 8.661e-3
-1.493, 8.719e-3
-1.494, 8.778e-3
-1.495, 8.836e-3
-1.496, 8.898e-3
-1.497, 8.963e-3
-1.498, 9.028e-3
-1.499, 9.092e-3
-1.500, 9.049e-3
-1.499, 8.883e-3
-1.498, 8.747e-3
-1.497, 8.624e-3
-1.496, 8.510e-3
-1.495, 8.405e-3
-1.494, 8.306e-3
-1.493, 8.217e-3
-1.492, 8.127e-3
-1.491, 8.041e-3
-1.490, 7.958e-3
-1.489, 7.874e-3
-1.488, 7.791e-3
-1.487, 7.708e-3
-1.486, 7.625e-3
-1.485, 7.541e-3
-1.484, 7.461e-3
-1.483, 7.381e-3
-1.482, 7.304e-3
-1.481, 7.233e-3
-1.480, 7.159e-3
-1.479, 7.088e-3
-1.478, 7.017e-3
-1.477, 6.946e-3
-1.476, 6.875e-3
-1.475, 6.801e-3
-1.474, 6.724e-3
-1.473, 6.654e-3
-1.472, 6.580e-3
-1.471, 6.512e-3
-1.470, 6.441e-3
-1.469, 6.376e-3
-1.468, 6.308e-3
-1.467, 6.247e-3
-1.466, 6.185e-3
-1.465, 6.120e-3
-1.464, 6.058e-3
-1.463, 5.994e-3
-1.462, 5.929e-3
-1.461, 5.861e-3
-1.460, 5.799e-3
-1.459, 5.735e-3
-1.458, 5.670e-3
-1.457, 5.608e-3
-1.456, 5.547e-3
-1.455, 5.491e-3
-1.454, 5.433e-3
-1.453, 5.374e-3
-1.452, 5.315e-3
-1.451, 5.254e-3
-1.450, 5.195e-3
-1.449, 5.134e-3
-1.448, 5.078e-3
-1.447, 5.019e-3
-1.446, 4.964e-3
-1.445, 4.912e-3
-1.444, 4.859e-3
-1.443, 4.807e-3
-1.442, 4.751e-3
-1.441, 4.699e-3
-1.440, 4.643e-3
-1.439, 4.591e-3
-1.438, 4.535e-3
-1.437, 4.477e-3
-1.436, 4.428e-3
-1.435, 4.372e-3
-1.434, 4.323e-3
-1.433, 4.270e-3
-1.432, 4.224e-3
-1.431, 4.175e-3
-1.430, 4.125e-3
-1.429, 4.076e-3
-1.428, 4.024e-3
-1.427, 3.974e-3
-1.426, 3.922e-3
-1.425, 3.876e-3
-1.424, 3.826e-3
-1.423, 3.780e-3
-1.422, 3.737e-3
-1.421, 3.691e-3
-1.420, 3.647e-3
-1.419, 3.601e-3
-1.418, 3.555e-3
-1.417, 3.506e-3
-1.416, 3.459e-3
-1.415, 3.413e-3
-1.414, 3.367e-3
-1.413, 3.324e-3
-1.412, 3.278e-3
-1.411, 3.234e-3
-1.410, 3.194e-3
-1.409, 3.151e-3
-1.408, 3.114e-3
-1.407, 3.068e-3
-1.406, 3.028e-3
-1.405, 2.985e-3
-1.404, 2.941e-3
-1.403, 2.898e-3
-1.402, 2.855e-3
-1.401, 2.815e-3
-1.400, 2.775e-3
-1.399, 2.738e-3
-1.398, 2.698e-3
-1.397, 2.661e-3
-1.396, 2.621e-3
-1.395, 2.584e-3
-1.394, 2.544e-3
-1.393, 2.504e-3
-1.392, 2.464e-3
-1.391, 2.423e-3
-1.390, 2.386e-3
-1.389, 2.349e-3
-1.388, 2.312e-3
-1.387, 2.279e-3
-1.386, 2.245e-3
-1.385, 2.211e-3
-1.384, 2.177e-3
-1.383, 2.140e-3
-1.382, 2.103e-3
-1.381, 2.066e-3
-1.380, 2.029e-3
-1.379, 1.995e-3
-1.378, 1.961e-3
-1.377, 1.924e-3
-1.376, 1.896e-3
-1.375, 1.865e-3
-1.374, 1.835e-3
-1.373, 1.807e-3
-1.372, 1.773e-3
-1.371, 1.739e-3
-1.370, 1.705e-3
-1.369, 1.671e-3
-1.368, 1.634e-3
-1.367, 1.600e-3
-1.366, 1.569e-3
-1.365, 1.536e-3
-1.364, 1.505e-3
-1.363, 1.477e-3
-1.362, 1.446e-3
-1.361, 1.415e-3
-1.360, 1.384e-3
-1.359, 1.354e-3
-1.358, 1.320e-3
-1.357, 1.286e-3
-1.356, 1.252e-3
-1.355, 1.224e-3
-1.354, 1.193e-3
-1.353, 1.166e-3
-1.352, 1.138e-3
-1.351, 1.110e-3
-1.350, 1.082e-3
-1.349, 1.055e-3
-1.348, 1.027e-3
-1.347, 9.991e-4
-1.346, 9.683e-4
-1.345, 9.374e-4
-1.344, 9.066e-4
-1.343, 8.788e-4
-1.342, 8.511e-4
-1.341, 8.264e-4
-1.340, 7.956e-4
-1.339, 7.740e-4
-1.338, 7.494e-4
-1.337, 7.247e-4
-1.336, 6.969e-4
-1.335, 6.692e-4
-1.334, 6.414e-4
-1.333, 6.137e-4
-1.332, 5.859e-4
-1.331, 5.582e-4
-1.330, 5.335e-4
-1.329, 5.120e-4
-1.328, 4.873e-4
-1.327, 4.657e-4
-1.326, 4.410e-4
-1.325, 4.164e-4
-1.324, 3.948e-4
-1.323, 3.670e-4
-1.322, 3.424e-4
-1.321, 3.146e-4
-1.320, 2.900e-4
-1.319, 2.653e-4
-1.318, 2.437e-4
-1.317, 2.252e-4
-1.316, 2.036e-4
-1.315, 1.821e-4
-1.314, 1.605e-4
-1.313, 1.389e-4
-1.312, 1.173e-4
-1.311, 9.265e-5
-1.310, 6.798e-5
-1.309, 4.332e-5
-1.308, 2.174e-5
-1.307, 1.559e-7
-1.306, -1.834e-5
-1.305, -3.992e-5
-1.304, -5.842e-5
-1.303, -7.692e-5
-1.302, -9.542e-5
-1.301, -1.170e-4
-1.300, -1.386e-4
-1.299, -1.602e-4
-1.298, -1.817e-4
-1.297, -2.033e-4
-1.296, -2.249e-4
-1.295, -2.434e-4
-1.294, -2.619e-4
-1.293, -2.773e-4
-1.292, -2.958e-4
-1.291, -3.143e-4
-1.290, -3.297e-4
-1.289, -3.513e-4
-1.288, -3.698e-4
-1.287, -3.883e-4
-1.286, -4.099e-4
-1.285, -4.284e-4
-1.284, -4.469e-4
-1.283, -4.654e-4
-1.282, -4.808e-4
-1.281, -4.962e-4
-1.280, -5.116e-4
-1.279, -5.271e-4
-1.278, -5.425e-4
-1.277, -5.610e-4
-1.276, -5.795e-4
-1.275, -5.980e-4
-1.274, -6.165e-4
-1.273, -6.319e-4
-1.272, -6.535e-4
-1.271, -6.658e-4
-1.270, -6.812e-4
-1.269, -6.935e-4
-1.268, -7.059e-4
-1.267, -7.213e-4
-1.266, -7.367e-4
-1.265, -7.552e-4
-1.264, -7.706e-4
-1.263, -7.891e-4
-1.262, -8.076e-4
-1.261, -8.200e-4
-1.260, -8.354e-4
-1.259, -8.477e-4
-1.258, -8.600e-4
-1.257, -8.724e-4
-1.256, -8.847e-4
-1.255, -8.970e-4
-1.254, -9.124e-4
-1.253, -9.279e-4
-1.252, -9.433e-4
-1.251, -9.618e-4
-1.250, -9.741e-4
-1.249, -9.895e-4
-1.248, -9.988e-4
-1.247, -1.011e-3
-1.246, -1.023e-3
-1.245, -1.033e-3
-1.244, -1.045e-3
-1.243, -1.057e-3
-1.242, -1.073e-3
-1.241, -1.085e-3
-1.240, -1.101e-3
-1.239, -1.116e-3
-1.238, -1.128e-3
-1.237, -1.141e-3
-1.236, -1.150e-3
-1.235, -1.159e-3
-1.234, -1.168e-3
-1.233, -1.178e-3
-1.232, -1.190e-3
-1.231, -1.199e-3
-1.230, -1.215e-3
-1.229, -1.230e-3
-1.228, -1.242e-3
-1.227, -1.255e-3
-1.226, -1.267e-3
-1.225, -1.276e-3
-1.224, -1.286e-3
-1.223, -1.295e-3
-1.222, -1.301e-3
-1.221, -1.310e-3
-1.220, -1.322e-3
-1.219, -1.332e-3
-1.218, -1.344e-3
-1.217, -1.356e-3
-1.216, -1.369e-3
-1.215, -1.378e-3
-1.214, -1.390e-3
-1.213, -1.400e-3
-1.212, -1.406e-3
-1.211, -1.412e-3
-1.210, -1.421e-3
-1.209, -1.427e-3
-1.208, -1.437e-3
-1.207, -1.449e-3
-1.206, -1.458e-3
-1.205, -1.470e-3
-1.204, -1.483e-3
-1.203, -1.492e-3
-1.202, -1.501e-3
-1.201, -1.511e-3
-1.200, -1.517e-3
-1.199, -1.523e-3
-1.198, -1.529e-3
-1.197, -1.535e-3
-1.196, -1.544e-3
-1.195, -1.557e-3
-1.194, -1.566e-3
-1.193, -1.578e-3
-1.192, -1.588e-3
-1.191, -1.597e-3
-1.190, -1.606e-3
-1.189, -1.609e-3
-1.188, -1.618e-3
-1.187, -1.622e-3
-1.186, -1.628e-3
-1.185, -1.637e-3
-1.184, -1.643e-3
-1.183, -1.652e-3
-1.182, -1.665e-3
-1.181, -1.674e-3
-1.180, -1.683e-3
-1.179, -1.689e-3
-1.178, -1.699e-3
-1.177, -1.702e-3
-1.176, -1.708e-3
-1.175, -1.711e-3
-1.174, -1.720e-3
-1.173, -1.723e-3
-1.172, -1.736e-3
-1.171, -1.742e-3
-1.170, -1.751e-3
-1.169, -1.760e-3
-1.168, -1.766e-3
-1.167, -1.776e-3
-1.166, -1.779e-3
-1.165, -1.785e-3
-1.164, -1.791e-3
-1.163, -1.794e-3
-1.162, -1.800e-3
-1.161, -1.807e-3
-1.160, -1.816e-3
-1.159, -1.822e-3
-1.158, -1.831e-3
-1.157, -1.840e-3
-1.156, -1.847e-3
-1.155, -1.853e-3
-1.154, -1.859e-3
-1.153, -1.862e-3
-1.152, -1.868e-3
-1.151, -1.871e-3
-1.150, -1.877e-3
-1.149, -1.884e-3
-1.148, -1.893e-3
-1.147, -1.899e-3
-1.146, -1.908e-3
-1.145, -1.914e-3
-1.144, -1.921e-3
-1.143, -1.927e-3
-1.142, -1.930e-3
-1.141, -1.933e-3
-1.140, -1.936e-3
-1.139, -1.942e-3
-1.138, -1.945e-3
-1.137, -1.955e-3
-1.136, -1.961e-3
-1.135, -1.967e-3
-1.134, -1.976e-3
-1.133, -1.979e-3
-1.132, -1.988e-3
-1.131, -1.992e-3
-1.130, -1.995e-3
-1.129, -1.998e-3
-1.128, -1.998e-3
-1.127, -2.007e-3
-1.126, -2.010e-3
-1.125, -2.016e-3
-1.124, -2.025e-3
-1.123, -2.032e-3
-1.122, -2.038e-3
-1.121, -2.044e-3
-1.120, -2.047e-3
-1.119, -2.053e-3
-1.118, -2.056e-3
-1.117, -2.059e-3
-1.116, -2.062e-3
-1.115, -2.066e-3
-1.114, -2.072e-3
-1.113, -2.078e-3
-1.112, -2.084e-3
-1.111, -2.090e-3
-1.110, -2.096e-3
-1.109, -2.103e-3
-1.108, -2.106e-3
-1.107, -2.109e-3
-1.106, -2.109e-3
-1.105, -2.112e-3
-1.104, -2.115e-3
-1.103, -2.118e-3
-1.102, -2.127e-3
-1.101, -2.133e-3
-1.100, -2.140e-3
-1.099, -2.143e-3
-1.098, -2.149e-3
-1.097, -2.152e-3
-1.096, -2.155e-3
-1.095, -2.158e-3
-1.094, -2.161e-3
-1.093, -2.158e-3
-1.092, -2.164e-3
-1.091, -2.164e-3
-1.090, -2.173e-3
-1.089, -2.180e-3
-1.088, -2.183e-3
-1.087, -2.189e-3
-1.086, -2.192e-3
-1.085, -2.198e-3
-1.084, -2.198e-3
-1.083, -2.198e-3
-1.082, -2.201e-3
-1.081, -2.204e-3
-1.080, -2.204e-3
-1.079, -2.207e-3
-1.078, -2.214e-3
-1.077, -2.220e-3
-1.076, -2.226e-3
-1.075, -2.229e-3
-1.074, -2.235e-3
-1.073, -2.235e-3
-1.072, -2.235e-3
-1.071, -2.235e-3
-1.070, -2.235e-3
-1.069, -2.238e-3
-1.068, -2.238e-3
-1.067, -2.241e-3
-1.066, -2.247e-3
-1.065, -2.254e-3
-1.064, -2.257e-3
-1.063, -2.260e-3
-1.062, -2.263e-3
-1.061, -2.263e-3
-1.060, -2.266e-3
-1.059, -2.263e-3
-1.058, -2.263e-3
-1.057, -2.263e-3
-1.056, -2.263e-3
-1.055, -2.269e-3
-1.054, -2.272e-3
-1.053, -2.275e-3
-1.052, -2.281e-3
-1.051, -2.281e-3
-1.050, -2.284e-3
-1.049, -2.284e-3
-1.048, -2.284e-3
-1.047, -2.281e-3
-1.046, -2.281e-3
-1.045, -2.284e-3
-1.044, -2.284e-3
-1.043, -2.288e-3
-1.042, -2.291e-3
-1.041, -2.294e-3
-1.040, -2.297e-3
-1.039, -2.297e-3
-1.038, -2.300e-3
-1.037, -2.297e-3
-1.036, -2.297e-3
-1.035, -2.294e-3
-1.034, -2.294e-3
-1.033, -2.294e-3
-1.032, -2.297e-3
-1.031, -2.300e-3
-1.030, -2.300e-3
-1.029, -2.303e-3
-1.028, -2.306e-3
-1.027, -2.306e-3
-1.026, -2.306e-3
-1.025, -2.306e-3
-1.024, -2.306e-3
-1.023, -2.303e-3
-1.022, -2.303e-3
-1.021, -2.300e-3
-1.020, -2.303e-3
-1.019, -2.306e-3
-1.018, -2.309e-3
-1.017, -2.312e-3
-1.016, -2.312e-3
-1.015, -2.312e-3
-1.014, -2.309e-3
-1.013, -2.306e-3
-1.012, -2.306e-3
-1.011, -2.306e-3
-1.010, -2.306e-3
-1.009, -2.306e-3
-1.008, -2.309e-3
-1.007, -2.312e-3
-1.006, -2.315e-3
-1.005, -2.318e-3
-1.004, -2.321e-3
-1.003, -2.318e-3
-1.002, -2.318e-3
-1.001, -2.318e-3
