Potential V vs RHE, Current mA cm-2
0.013299999999999867,26.511689759470787
0.012299999999999978,24.460358374666487
0.011299999999999866,22.508056780852733
0.010299999999999976,20.584049413036283
0.009299999999999864,18.759071836210385
0.008299999999999974,16.962388485381787
0.007299999999999862,15.307176264539699
0.006299999999999972,13.65054933239774
0.00529999999999986,12.036363739251732
0.0042999999999999705,10.422178146105725
0.0032999999999998586,8.851848603255535
0.0022999999999999687,7.32537511070116
0.0012999999999998568,5.75504556785097
0.00029999999999996696,4.2285720752965945
-0.000700000000000145,2.70209858274222
-0.0017000000000000348,1.175483619057859
-0.0027000000000001467,-0.30755823659065895
-0.0037000000000000366,-1.7910245056291363
-0.0047000000000001485,-3.1859298472960624
-0.005700000000000038,-4.538393849967037
-0.00670000000000015,-5.890857852638012
-0.00770000000000004,-7.243321855308987
-0.008700000000000152,-8.55051509638428
-0.009700000000000042,-9.902979099055257
-0.010700000000000154,-11.255443101726232
-0.011700000000000044,-12.607907104397206
-0.012700000000000156,-13.960371107068182
-0.013700000000000045,-15.307176264539699
-0.014700000000000157,-16.622857773414182
-0.015700000000000047,-17.839509491298113
-0.01670000000000016,-19.112749661176647
-0.01770000000000005,-20.329401379060574
-0.01870000000000016,-21.503611757948562
-0.01970000000000005,-22.72026347583249
-0.020700000000000163,-23.908620967719123
-0.021700000000000053,-25.12527268560305
-0.022700000000000164,-26.38436574248293
-0.023700000000000054,-27.572723234369565
-0.024700000000000166,-28.831816291249446
-0.025700000000000056,-30.00602667013743
-0.026700000000000168,-31.19438416202406
-0.027700000000000058,-32.368594540912035
-0.02870000000000017,-33.50036358080407
-0.02970000000000006,-34.632132620696105
-0.03070000000000017,-35.721460321592176
-0.03170000000000006,-36.8532293614842
-0.03270000000000017,-37.99914551437489
-0.03370000000000006,-39.130914554266916
-0.034700000000000175,-40.26268359415894
-0.035700000000000065,-41.43689397304693
-0.03670000000000018,-42.568663012938956
-0.03770000000000007,-43.657990713835034
-0.03870000000000018,-44.80390686672572
-0.03970000000000007,-45.85079322862584
-0.04070000000000018,-46.94012092952192
-0.04170000000000007,-47.987007291422046
-0.04270000000000018,-49.076334992318124
-0.04370000000000007,-50.12322135421825
-0.044700000000000184,-51.17010771611838
-0.045700000000000074,-52.25943541701445
-0.046700000000000186,-53.30632177891458
-0.047700000000000076,-54.39564947981066
-0.04870000000000019,-55.484977180706736
-0.04970000000000008,-56.53186354260687
-0.05070000000000019,-57.57874990450699
-0.05170000000000008,-58.62563626640712
-0.05270000000000019,-59.67252262830725
-0.05370000000000008,-60.67696765121143
-0.05470000000000019,-61.6814126741156
-0.05570000000000008,-62.68585769701977
-0.056700000000000195,-63.732744058919906
-0.057700000000000085,-64.82207175981598
-0.058700000000000196,-65.86895812171612
-0.059700000000000086,-67.00072716160814
-0.0607000000000002,-68.04761352350828
-0.06170000000000009,-69.05205854641244
-0.0627000000000002,-70.09894490831257
-0.06370000000000009,-71.0043601402262
-0.0647000000000002,-72.00880516313036
-0.06570000000000009,-72.97080884703858
-0.0667000000000002,-73.97525386994278
-0.0677000000000001,-74.97969889284694
-0.0687000000000002,-75.98414391575112
-0.0697000000000001,-77.03103027765125
-0.07070000000000021,-78.07791663955136
-0.0717000000000001,-79.1248030014515
-0.07270000000000021,-80.12924802435568
-0.0737000000000001,-81.13369304725985
-0.07470000000000021,-82.13813807016405
-0.0757000000000001,-83.08599464107361
-0.07670000000000021,-84.04799832498183
-0.0777000000000001,-84.96756066989411
-0.07870000000000021,-85.97200569279828
-0.0797000000000001,-86.93400937670651
-0.08070000000000022,-87.93845439961068
-0.0817000000000001,-88.94289942251486
-0.08270000000000022,-89.98978578441499
-0.08370000000000011,-91.03667214631511
-0.08470000000000022,-92.04111716921928
-0.08570000000000011,-92.98897374012887
-0.08670000000000022,-93.95097742403709
-0.08770000000000011,-94.91298110794531
-0.08870000000000022,-95.87498479185354
-0.08970000000000011,-96.83698847576176
-0.09070000000000022,-97.84143349866595
-0.09170000000000011,-98.83173140857146
-0.09270000000000023,-99.83617643147564
-0.09370000000000012,-100.88306279337576
-0.09470000000000023,-101.92994915527588
-0.09570000000000012,-102.93439417818009
-0.09670000000000023,-103.93883920108425
-0.09770000000000012,-104.90084288499246
-0.09870000000000023,-105.86284656890071
-0.09970000000000012,-106.82485025280893
-0.10070000000000023,-107.73026548472255
-0.10170000000000012,-108.69226916863077
-0.10270000000000024,-109.654272852539
-0.10370000000000013,-110.6162765364472
-0.10470000000000024,-111.66316289834735
-0.10570000000000013,-112.66760792125153
-0.10670000000000024,-113.67205294415571
-0.10770000000000013,-114.71893930605583
-0.10870000000000024,-115.68094298996405
-0.10970000000000013,-116.67124089986959
-0.11070000000000024,-117.63324458377778
-0.11170000000000013,-118.59524826768603
-0.11270000000000002,-119.5996932905902
-0.11370000000000013,-120.60413831349437
-0.11470000000000002,-121.60858333639854
-0.11570000000000014,-122.65546969829869
-0.11670000000000003,-123.70235606019881
-0.11770000000000014,-124.74924242209892
-0.11870000000000003,-125.7536874450031
-0.11970000000000014,-126.80057380690324
-0.12070000000000003,-127.84746016880335
-0.12170000000000014,-128.752875400717
-0.12270000000000003,-129.7148790846252
-0.12370000000000014,-130.63444142953747
-0.12470000000000003,-131.55400377444977
-0.12570000000000014,-132.516007458358
-0.12670000000000003,-133.46386402926754
-0.12770000000000015,-134.46830905217172
-0.12870000000000004,-135.47275407507593
-0.12970000000000015,-136.51964043697603
-0.13070000000000004,-137.52408545988024
-0.13170000000000015,-138.65585449977226
-0.13270000000000004,-139.6602995226764
-0.13370000000000015,-140.62230320658463
-0.13470000000000004,-141.61260111649017
-0.13570000000000015,-142.6028990263957
-0.13670000000000004,-143.4517258063147
-0.13770000000000016,-144.44202371622026
-0.13870000000000005,-145.57379275611228
-0.13970000000000016,-146.5640906660178
-0.14070000000000005,-147.55438857592333
-0.14170000000000016,-148.54468648582886
-0.14270000000000005,-149.6764555257209
-0.14370000000000016,-150.8082245656129
-0.14470000000000005,-151.93999360550492
-0.14570000000000016,-152.93029151541046
-0.14670000000000005,-153.920589425316
-0.14770000000000016,-154.9108873352215
-0.14870000000000005,-155.90118524512707
-0.14970000000000017,-157.03295428501906
-0.15070000000000006,-158.02325219492457
-0.15170000000000017,-159.01355010483013
-0.15270000000000006,-160.00384801473567
-0.15370000000000017,-160.99414592464117
-0.15470000000000006,-162.12591496453322
-0.15570000000000017,-163.11621287443873
-0.15670000000000006,-164.10651078434424
-0.15770000000000017,-165.2382798242363
-0.15870000000000006,-166.22857773414182
-0.15970000000000018,-167.21887564404733
-0.16070000000000007,-168.20917355395284
-0.16170000000000018,-169.3409425938449
-0.16270000000000007,-170.47271163373694
-0.16370000000000018,-171.46300954364247
-0.16470000000000007,-172.45330745354798
-0.16570000000000018,-173.44360536345349
-0.16670000000000007,-174.43390327335902
-0.16770000000000018,-175.42420118326456
-0.16870000000000007,-176.4144990931701
-0.16970000000000018,-177.4047970030756
-0.17070000000000007,-178.3950949129811
-0.17170000000000019,-179.38539282288664
-0.17270000000000008,-180.5171618627787
-0.1737000000000002,-181.64893090267074
-0.17470000000000008,-182.63922881257625
-0.1757000000000002,-183.62952672248176
-0.17670000000000008,-184.6198246323873
-0.1777000000000002,-185.7515936722793
-0.17870000000000008,-186.74189158218485
-0.1797000000000002,-187.87366062207687
-0.18070000000000008,-189.0054296619689
-0.1817000000000002,-190.13719870186094
-0.18270000000000008,-191.268967741753
-0.1837000000000002,-192.2592656516585
-0.1847000000000001,-193.3910346915505
-0.1857000000000002,-194.38133260145605
-0.1867000000000001,-195.37163051136156
-0.1877000000000002,-196.3619284212671
-0.1887000000000001,-197.35222633117263
-0.1897000000000002,-198.3425242410781
-0.1907000000000001,-199.47429328097016
-0.1917000000000001,-200.6060623208622
-0.19269999999999998,-201.73783136075423
-0.1937000000000001,-202.7281292706598
-0.19469999999999998,-203.71842718056527
-0.1957000000000001,-204.8501962204573
-0.19669999999999999,-205.98196526034934
-0.1977000000000001,-207.1137343002414
-0.1987,-208.1040322101469
-0.1997000000000001,-209.23580125003892
-0.2007,-210.22609915994445
-0.2017000000000001,-211.35786819983647
-0.2027,-212.34816610974204
-0.2037000000000001,-213.47993514963403
-0.2047,-214.47023305953954
-0.2057000000000001,-215.4605309694451
-0.2067,-216.4508288793506
-0.2077000000000001,-217.58259791924263
-0.2087,-218.71436695913465
-0.2097000000000001,-219.8461359990267
-0.2107,-220.97790503891872
-0.2117000000000001,-222.10967407881074
-0.2127,-223.09997198871628
-0.2137000000000001,-224.2317410286083
-0.2147,-225.36351006850035
-0.2157000000000001,-226.49527910839237
-0.2167,-227.4855770182979
-0.21770000000000012,-228.61734605818995
-0.2187,-229.60764396809546
-0.21970000000000012,-230.7394130079875
-0.2207,-231.729710917893
-0.22170000000000012,-233.00295108777152
-0.2227,-234.13472012766357
-0.22370000000000012,-235.26648916755556
-0.2247,-236.25678707746113
-0.22570000000000012,-237.38855611735315
-0.2267,-238.5203251572452
-0.22770000000000012,-239.5106230671507
-0.22870000000000001,-240.50092097705624
-0.22970000000000013,-241.6326900169483
-0.23070000000000002,-242.62298792685377
-0.23170000000000013,-243.6132858367593
-0.23270000000000002,-244.74505487665132
-0.23370000000000013,-245.87682391654337
-0.23470000000000002,-247.0085929564354
-0.23570000000000013,-248.14036199632744
-0.23670000000000002,-249.2721310362195
-0.2376999999999999,-250.262428946125
-0.23870000000000002,-251.25272685603056
-0.2396999999999999,-252.243024765936
-0.24070000000000003,-253.37479380582806
-0.24169999999999991,-254.36509171573357
-0.24270000000000003,-255.35538962563913
-0.24369999999999992,-256.4871586655312
-0.24470000000000003,-257.6189277054232
-0.24569999999999992,-258.7506967453152
-0.24670000000000003,-259.8824657852072
-0.24769999999999992,-261.01423482509927
-0.24870000000000003,-262.0045327350048
-0.24969999999999992,-263.13630177489676
-0.25070000000000003,-264.12659968480233
-0.2516999999999999,-265.2583687246944
-0.25270000000000004,-266.3901377645864
-0.2536999999999999,-267.5219068044785
-0.25470000000000004,-268.512204714384
-0.2556999999999999,-269.64397375427603
-0.25670000000000004,-270.775742794168
-0.25769999999999993,-271.9075118340601
-0.25870000000000004,-273.03928087395207
-0.25969999999999993,-274.1710499138441
-0.26070000000000004,-275.30281895373616
-0.26169999999999993,-276.29311686364167
-0.26270000000000004,-277.4248859035337
-0.26369999999999993,-278.5566549434257
-0.26470000000000005,-279.6884239833177
-0.26569999999999994,-280.82019302320975
-0.26670000000000005,-281.8104909331153
-0.26769999999999994,-282.9422599730073
-0.26870000000000005,-284.07402901289936
-0.26969999999999994,-285.0643269228049
-0.27070000000000005,-286.196095962697
-0.27169999999999994,-287.327865002589
-0.27270000000000005,-288.3181629124945
-0.27369999999999994,-289.4499319523865
-0.27470000000000006,-290.5817009922785
-0.27569999999999995,-291.71347003217056
-0.27670000000000006,-292.8452390720626
-0.27769999999999995,-293.9770081119546
-0.27870000000000006,-295.10877715184665
-0.27969999999999995,-296.0990750617522
-0.28070000000000006,-297.23084410164427
-0.28169999999999995,-298.3626131415362
-0.28270000000000006,-299.49438218142825
-0.28369999999999995,-300.6261512213203
-0.28470000000000006,-301.7579202612123
-0.28569999999999995,-302.74821817111786
-0.28670000000000007,-303.5970449510368
-0.28769999999999996,-304.4458717309559
-0.28870000000000007,-305.43616964086146
-0.28969999999999996,-306.28499642078043
-0.29070000000000007,-307.27529433068594
-0.29169999999999996,-308.407063370578
-0.29270000000000007,-309.53883241047004
-0.29369999999999996,-310.81207258034857
-0.2947000000000001,-311.94384162024056
-0.29569999999999996,-313.0756106601326
-0.2967000000000001,-314.20737970002466
-0.29769999999999996,-315.19767760993017
-0.2987000000000001,-316.04650438984913
-0.29969999999999997,-317.46121568971427
-0.3007000000000001,-318.4515135996198
-0.30169999999999997,-319.58328263951176
-0.3027000000000001,-320.71505167940376
-0.30369999999999997,-321.7053495893094
-0.3047000000000001,-322.83711862920137
-0.30569999999999997,-323.8274165391069
-0.3067000000000001,-324.81771444901244
-0.3077,-326.090954618891
-0.3087000000000001,-327.222723658783
-0.3097,-328.4959638286615
-0.3107000000000001,-329.62773286855355
-0.3117,-330.7595019084456
-0.3127000000000001,-332.03274207832413
-0.3137,-333.30598224820267
-0.3147000000000001,-334.7206935480677
-0.3157,-335.8524625879597
-0.3167000000000001,-337.12570275783827
-0.3177,-338.39894292771675
-0.3187000000000001,-339.5307119676088
-0.3197,-340.66248100750084
-0.3207000000000001,-341.7942500473929
-0.3217,-342.7845479572984
-0.3227000000000001,-343.7748458672039
-0.3237,-344.90661490709596
-0.3247000000000001,-346.03838394698795
-0.3257,-347.17015298688
-0.3267000000000001,-348.301922026772
-0.3277,-349.43369106666404
-0.3287000000000001,-350.5654601065561
-0.3297,-351.8387002764346
-0.3307000000000001,-352.9704693163266
-0.3317,-353.96076722623224
-0.3327000000000001,-354.95106513613774
-0.3337,-355.7998919160567
-0.3347000000000001,-356.7901898259622
-0.3357,-357.92195886585426
-0.3367000000000001,-359.0537279057463
-0.3377,-360.0440258156518
-0.3387000000000001,-361.17579485554387
-0.3397,-362.3075638954359
-0.3407000000000001,-363.58080406531445
-0.3417,-364.854044235193
-0.3427000000000001,-366.268755535058
-0.3437,-367.683466834923
-0.3447000000000001,-368.95670700480156
-0.3457,-370.2299471746801
-0.3467000000000001,-371.3617162145721
-0.3477,-372.49348525446413
-0.3487000000000001,-373.6252542943562
-0.3497,-374.8984944642347
-0.3507000000000001,-376.0302635041267
-0.3517,-377.16203254401876
-0.3527000000000001,-378.2938015839108
-0.3537,-379.42557062380286
-0.3547000000000001,-380.55733966369485
-0.3557,-381.6891087035869
-0.35670000000000013,-382.82087774347895
-0.3577,-383.952646783371
-0.35870000000000013,-384.9429446932765
-0.3597,-386.21618486315504
-0.36070000000000013,-387.48942503303357
-0.3617,-388.9041363328986
-0.3626999999999999,-390.03590537279064
-0.3637,-391.30914554266917
-0.3646999999999999,-392.2994434525747
-0.3657,-393.4312124924667
-0.3666999999999999,-394.5629815323587
-0.3677,-395.83622170223725
-0.3686999999999999,-396.82651961214276
-0.36970000000000003,-397.9582886520348
-0.3706999999999999,-399.09005769192686
-0.37170000000000003,-399.6559422118729
-0.3726999999999999,-399.79741334185934
-0.37370000000000003,-400.9291823817514
-0.3746999999999999,-402.06095142164344
-0.37570000000000003,-403.1927204615355
-0.3766999999999999,-404.183018371441
-0.37770000000000004,-405.1733162813465
-0.3786999999999999,-406.30508532123855
-0.37970000000000004,-407.578325491117
-0.3806999999999999,-408.7100945310091
-0.38170000000000004,-409.9833347008876
-0.38269999999999993,-411.11510374077966
-0.38370000000000004,-412.2468727806717
-0.38469999999999993,-413.5201129505502
-0.38570000000000004,-414.65188199044223
-0.38669999999999993,-414.08599747049624
-0.38570000000000004,-410.9736326107932
-0.38469999999999993,-408.0027388810766
-0.38370000000000004,-405.03184515135996
-0.38269999999999993,-402.2024225516299
-0.38170000000000004,-399.51447108188637
-0.3806999999999999,-396.6850484821562
-0.37970000000000004,-394.1385681423992
-0.3786999999999999,-391.30914554266917
-0.37770000000000004,-388.6211940729256
-0.3766999999999999,-385.933242603182
-0.37570000000000003,-383.38676226342494
-0.3746999999999999,-380.8402819236679
-0.37370000000000003,-378.0108593239378
-0.3726999999999999,-375.3229078541942
-0.37170000000000003,-372.6349563844507
-0.3706999999999999,-370.5128894346531
-0.36970000000000003,-367.96640909489605
-0.3686999999999999,-365.419928755139
-0.3677,-362.5905061554089
-0.3666999999999999,-360.0440258156518
-0.3657,-357.35607434590827
-0.3646999999999999,-354.95106513613774
-0.3637,-352.68752705635364
-0.3626999999999999,-350.2825178465831
-0.3617,-347.73603750682605
-0.36070000000000013,-345.1895571670689
-0.3597,-342.64307682731186
-0.35870000000000013,-340.2380676175413
-0.3577,-337.9745295377573
-0.35670000000000013,-335.42804919800017
-0.3557,-333.02303998822964
-0.3547000000000001,-330.4765596484726
-0.3537,-328.071550438702
-0.3527000000000001,-325.5250700989449
-0.3517,-323.1200608891744
-0.3507000000000001,-320.71505167940376
-0.3497,-318.4515135996198
-0.3487000000000001,-315.9050332598627
-0.3477,-313.5000240500921
-0.3467000000000001,-311.09501484032154
-0.3457,-308.690005630551
-0.3447000000000001,-306.28499642078043
-0.3437,-303.73851608102336
-0.3427000000000001,-301.1920357412663
-0.3417,-298.9284976614822
-0.3407000000000001,-296.6649595816982
-0.3397,-294.68436376188714
-0.3387000000000001,-292.70376794207607
-0.3377,-290.723172122265
-0.3367000000000001,-288.6011051724675
-0.3357,-286.6205093526564
-0.3347000000000001,-284.49844240285887
-0.3337,-282.65931771303434
-0.3327000000000001,-280.67872189322327
-0.3317,-278.5566549434257
-0.3307000000000001,-276.43458799362816
-0.3297,-274.4539921738171
-0.3287000000000001,-272.47339635400607
-0.3277,-270.49280053419506
-0.3267000000000001,-268.512204714384
-0.3257,-266.3901377645864
-0.3247000000000001,-264.40954194477536
-0.3237,-262.2874749949778
-0.3227000000000001,-260.02393691519376
-0.3217,-257.90186996539614
-0.3207000000000001,-255.77980301559862
-0.3197,-253.51626493581452
-0.3187000000000001,-251.25272685603056
-0.3177,-248.9891887762465
-0.3167000000000001,-246.8671218264489
-0.3157,-244.74505487665132
-0.3147000000000001,-242.62298792685377
-0.3137,-240.35944984706975
-0.3127000000000001,-238.2373828972722
-0.3117,-236.1153159474746
-0.3107000000000001,-233.99324899767706
-0.3097,-231.8711820478795
-0.3087000000000001,-229.74911509808197
-0.3077,-227.62704814828442
-0.3067000000000001,-225.36351006850035
-0.30569999999999997,-223.2414431187028
-0.3047000000000001,-221.11937616890526
-0.30369999999999997,-218.99730921910768
-0.3027000000000001,-217.01671339929663
-0.30169999999999997,-214.89464644949908
-0.3007000000000001,-212.631108369715
-0.29969999999999997,-210.50904141991748
-0.2987000000000001,-208.3869744701199
-0.29769999999999996,-206.26490752032234
-0.2967000000000001,-204.2843117005113
-0.29569999999999996,-202.30371588070025
-0.2947000000000001,-200.18164893090267
-0.29369999999999996,-198.20105311109162
-0.29270000000000007,-196.2204572912806
-0.29169999999999996,-194.2398614714695
-0.29070000000000007,-192.2592656516585
-0.28969999999999996,-190.27866983184742
-0.28870000000000007,-188.29807401203638
-0.28769999999999996,-186.31747819222534
-0.28670000000000007,-184.33688237241427
-0.28569999999999995,-182.35628655260325
-0.28470000000000006,-180.37569073279218
-0.28369999999999995,-178.3950949129811
-0.28270000000000006,-176.4144990931701
-0.28169999999999995,-174.57537440334553
-0.28070000000000006,-172.45330745354798
-0.27969999999999995,-170.47271163373694
-0.27870000000000006,-168.49211581392586
-0.27769999999999995,-166.51151999411482
-0.27670000000000006,-164.53092417430375
-0.27569999999999995,-162.5503283544927
-0.27470000000000006,-160.71120366466818
-0.27369999999999994,-158.87207897484362
-0.27270000000000005,-157.03295428501906
-0.27169999999999994,-155.19382959519453
-0.27070000000000005,-153.49617603535648
-0.26969999999999994,-151.65705134553193
-0.26870000000000005,-149.8179266557074
-0.26769999999999994,-147.97880196588284
-0.26670000000000005,-146.1396772760583
