Potential V vs RHE, Current mA cm-2
0.013299999999999867,37.291789864442364
0.012299999999999978,35.367782496625914
0.011299999999999866,33.58524625879597
0.010299999999999976,31.74612156897142
0.009299999999999864,30.04846800913338
0.008299999999999974,28.478138466283188
0.007299999999999862,27.035132940420848
0.006299999999999972,25.46480339757066
0.00529999999999986,23.894473854720466
0.0042999999999999705,22.36658565086623
0.0032999999999998586,21.022609915994444
0.0022999999999999687,19.70692840711996
0.0012999999999998568,18.320511333252224
0.00029999999999996696,16.877505807389888
-0.000700000000000145,15.519382959519453
-0.0017000000000000348,14.30273124163552
-0.0027000000000001467,13.127106151447675
-0.0037000000000000366,11.862354249368334
-0.0047000000000001485,10.553746296993173
-0.005700000000000038,9.287579683613965
-0.00670000000000015,8.154395932422071
-0.00770000000000004,7.019797469930312
-0.008700000000000152,5.8427576684426015
-0.009700000000000042,4.6218618166590755
-0.010700000000000154,3.4434073038714996
-0.011700000000000044,2.352664891675556
-0.012700000000000156,1.349917522331218
-0.013700000000000045,0.21588494435940458
-0.014700000000000157,-0.9617207416482519
-0.015700000000000047,-2.052746096104168
-0.01670000000000016,-3.055776407708479
-0.01770000000000005,-4.0588067193127895
-0.01870000000000016,-5.105693081212917
-0.01970000000000005,-6.196435493408861
-0.020700000000000163,-7.28576319430494
-0.021700000000000053,-8.202496116617484
-0.022700000000000164,-9.161670377925978
-0.023700000000000054,-10.164700689530287
-0.024700000000000166,-11.211587051430415
-0.025700000000000056,-12.258473413330542
-0.026700000000000168,-13.175206335643086
-0.027700000000000058,-14.090524546655764
-0.02870000000000017,-15.05252823056399
-0.02970000000000006,-16.056973253468165
-0.03070000000000017,-17.061418276372343
-0.03170000000000006,-17.881950830294063
-0.03270000000000017,-18.80151317520634
-0.03370000000000006,-19.721075520118614
-0.034700000000000175,-20.72552054302279
-0.035700000000000065,-21.63093577493641
-0.03670000000000018,-22.508056780852733
-0.03770000000000007,-23.342736447773106
-0.03870000000000018,-24.24815167968673
-0.03970000000000007,-25.252596702590903
-0.04070000000000018,-26.17215904750318
-0.04170000000000007,-27.00683871442355
-0.04270000000000018,-27.742488590353368
-0.04370000000000007,-28.662050935265643
-0.044700000000000184,-29.525024828183312
-0.045700000000000074,-30.444587173095588
-0.046700000000000186,-31.27926684001596
-0.047700000000000076,-32.05735805494172
-0.04870000000000019,-32.93447906085806
-0.04970000000000008,-33.89648274476628
-0.05070000000000019,-34.75945663768395
-0.05170000000000008,-35.55169496560837
-0.05270000000000019,-36.37222751953009
-0.05370000000000008,-37.249348525446415
-0.05470000000000019,-38.211352209354644
-0.05570000000000008,-39.08847321527096
-0.056700000000000195,-39.86656443019674
-0.057700000000000085,-40.65880275812115
-0.058700000000000196,-41.43689397304693
-0.059700000000000086,-42.3564563179592
-0.0607000000000002,-43.134547532884966
-0.06170000000000009,-43.88434452181344
-0.0627000000000002,-44.619994397743255
-0.06370000000000009,-45.45467406466363
-0.0647000000000002,-46.3176479575813
-0.06570000000000009,-47.19476896349763
-0.0667000000000002,-47.93041883942744
-0.0677000000000001,-48.72265716735186
-0.0687000000000002,-49.557336834272235
-0.0697000000000001,-50.50519340518181
-0.07070000000000021,-51.38231441109813
-0.0717000000000001,-52.17455273902255
-0.07270000000000021,-52.86776127595642
-0.0737000000000001,-53.68829382987814
-0.07470000000000021,-54.60785617479041
-0.0757000000000001,-55.484977180706736
-0.07670000000000021,-56.13574437864466
-0.0777000000000001,-56.786511576582576
-0.07870000000000021,-57.62119124350295
-0.0797000000000001,-58.498312249419264
-0.08070000000000022,-59.36128614233694
-0.0817000000000001,-60.11108313126541
-0.08270000000000022,-60.889174346191176
-0.08370000000000011,-61.80873669110345
-0.08470000000000022,-62.72829903601572
-0.08570000000000011,-63.59127292893339
-0.08670000000000022,-64.38351125685783
-0.08770000000000011,-65.0767197937917
-0.08870000000000022,-65.86895812171612
-0.08970000000000011,-66.60460799764593
-0.09070000000000022,-67.39684632557035
-0.09170000000000011,-68.17493754049613
-0.09270000000000023,-68.86814607742998
-0.09370000000000012,-69.74526708334632
-0.09470000000000023,-70.62238808926263
-0.09570000000000012,-71.48536198218031
-0.09670000000000023,-72.27760031010472
-0.09770000000000012,-73.01325018603454
-0.09870000000000023,-74.0176952089387
-0.09970000000000012,-74.97969889284694
-0.10070000000000023,-75.85681989876326
-0.10170000000000012,-76.5924697746931
-0.10270000000000024,-77.28567831162695
-0.10370000000000013,-78.12035797854733
-0.10470000000000024,-79.0399203234596
-0.10570000000000013,-79.90289421637728
-0.10670000000000024,-80.69513254430169
-0.10770000000000013,-81.43078242023151
-0.10870000000000024,-82.26546208715187
-0.10970000000000013,-83.08599464107361
-0.11070000000000024,-83.87823296899803
-0.11170000000000013,-84.52900016693594
-0.11270000000000002,-85.23635581686847
-0.11370000000000013,-86.09932970978613
-0.11470000000000002,-87.06133339369435
-0.11570000000000014,-88.02333707760259
-0.11670000000000003,-88.8438696315243
-0.11770000000000014,-89.59366662045278
-0.11870000000000003,-90.47078762636909
-0.11970000000000014,-91.37620285828272
-0.12070000000000003,-92.2108825252031
-0.12170000000000014,-92.98897374012887
-0.12270000000000003,-93.73877072905732
-0.12370000000000014,-94.601744621975
-0.12470000000000003,-95.47886562789132
-0.12570000000000014,-96.3984279728036
-0.12670000000000003,-97.26140186572127
-0.12770000000000015,-98.05364019364569
-0.12870000000000004,-99.01564387755391
-0.12970000000000015,-100.10497157844999
-0.13070000000000004,-101.06697526235823
-0.13170000000000015,-101.88750781627995
-0.13270000000000004,-102.67974614420436
-0.13370000000000015,-103.41539602013418
-0.13470000000000004,-104.33495836504645
-0.13570000000000015,-105.21207937096277
-0.13670000000000004,-105.94772924689259
-0.13770000000000016,-106.68337912282242
-0.13870000000000005,-107.51805878974278
-0.13970000000000016,-108.2537086656726
-0.14070000000000005,-109.08838833259297
-0.14170000000000016,-109.78159686952685
-0.14270000000000005,-110.74360055343507
-0.14370000000000016,-111.83292825433115
-0.14470000000000005,-112.96469729422319
-0.14570000000000016,-114.0115836561233
-0.14670000000000005,-114.80382198404773
-0.14770000000000016,-115.68094298996405
-0.14870000000000005,-116.62879956087362
-0.14970000000000017,-117.63324458377778
-0.15070000000000006,-118.55280692869007
-0.15170000000000017,-119.2884568046199
-0.15270000000000006,-119.99581245455242
-0.15370000000000017,-120.77390366947817
-0.15470000000000006,-121.69346601439047
-0.15570000000000017,-122.52814568131083
-0.15670000000000006,-123.34867823523254
-0.15770000000000017,-124.14091656315696
-0.15870000000000006,-125.04633179507057
-0.15970000000000018,-126.14980660896532
-0.16070000000000007,-127.32401698785328
-0.16170000000000018,-128.32846201075745
-0.16270000000000007,-129.19143590367514
-0.16370000000000018,-130.19588092657932
-0.16470000000000007,-131.1154432714916
-0.16570000000000018,-131.8510931474214
-0.16670000000000007,-132.516007458358
-0.16770000000000018,-133.08189197830401
-0.16870000000000007,-133.81754185423384
-0.16970000000000018,-134.6522215211542
-0.17070000000000007,-135.43031273607997
-0.17170000000000019,-136.1801097250084
-0.17270000000000008,-136.8733182619423
-0.1737000000000002,-137.79288060685457
-0.17470000000000008,-138.88220830775063
-0.1757000000000002,-139.84421199165885
-0.17670000000000008,-140.74962722357247
-0.1777000000000002,-141.61260111649017
-0.17870000000000008,-142.4614278964092
-0.1797000000000002,-143.4517258063147
-0.18070000000000008,-144.15908145624724
-0.1817000000000002,-145.00790823616626
-0.18270000000000008,-145.57379275611228
-0.1837000000000002,-146.4226195360313
-0.1847000000000001,-147.27144631595033
-0.1857000000000002,-148.40321535584232
-0.1867000000000001,-149.25204213576137
-0.1877000000000002,-150.1008689156804
-0.1887000000000001,-151.09116682558593
-0.1897000000000002,-152.0814647354914
-0.1907000000000001,-152.93029151541046
-0.1917000000000001,-153.63764716534297
-0.19269999999999998,-154.203531685289
-0.1937000000000001,-154.9108873352215
-0.19469999999999998,-155.75971411514055
-0.1957000000000001,-156.75001202504606
-0.19669999999999999,-157.59883880496508
-0.1977000000000001,-158.3061944548976
-0.1987,-159.29649236480313
-0.1997000000000001,-160.28679027470866
-0.2007,-161.2770881846142
-0.2017000000000001,-162.12591496453322
-0.2027,-162.8332706144657
-0.2037000000000001,-163.68209739438475
-0.2047,-164.67239530429026
-0.2057000000000001,-165.8041643441823
-0.2067,-166.65299112410133
-0.2077000000000001,-167.50181790402033
-0.2087,-168.35064468393938
-0.2097000000000001,-169.3409425938449
-0.2107,-170.33124050375042
-0.2117000000000001,-171.18006728366944
-0.2127,-172.0288940635885
-0.2137000000000001,-173.01919197349397
-0.2147,-174.0094898833995
-0.2157000000000001,-174.99978779330505
-0.2167,-175.84861457322407
-0.21770000000000012,-176.8389124831296
-0.2187,-177.82921039303508
-0.21970000000000012,-178.96097943292713
-0.2207,-180.09274847281918
-0.22170000000000012,-180.94157525273818
-0.2227,-181.64893090267074
-0.22370000000000012,-182.63922881257625
-0.2247,-183.62952672248176
-0.22570000000000012,-184.47835350240078
-0.2267,-185.1857091523333
-0.22770000000000012,-185.89306480226583
-0.22870000000000001,-186.88336271217133
-0.22970000000000013,-187.59071836210387
-0.23070000000000002,-188.29807401203638
-0.23170000000000013,-189.0054296619689
-0.23270000000000002,-189.71278531190143
-0.23370000000000013,-190.70308322180696
-0.23470000000000002,-191.83485226169896
-0.23570000000000013,-192.966621301591
-0.23670000000000002,-194.09839034148303
-0.2376999999999999,-195.08868825138856
-0.23870000000000002,-195.93751503130758
-0.2396999999999999,-196.92781294121312
-0.24070000000000003,-197.63516859114563
-0.24169999999999991,-198.48399537106465
-0.24270000000000003,-199.19135102099716
-0.24369999999999992,-200.04017780091618
-0.24470000000000003,-201.03047571082172
-0.24569999999999992,-201.87930249074074
-0.24670000000000003,-202.58665814067325
-0.24769999999999992,-203.29401379060576
-0.24870000000000003,-204.14284057052478
-0.24969999999999992,-205.27460961041683
-0.25070000000000003,-206.26490752032234
-0.2516999999999999,-207.3966765602144
-0.25270000000000004,-208.3869744701199
-0.2536999999999999,-209.23580125003892
-0.25470000000000004,-210.22609915994445
-0.2556999999999999,-211.21639706985
-0.25670000000000004,-211.9237527197825
-0.25769999999999993,-212.914050629688
-0.25870000000000004,-213.76287740960703
-0.25969999999999993,-214.89464644949908
-0.26070000000000004,-215.7434732294181
-0.26169999999999993,-216.4508288793506
-0.26270000000000004,-217.58259791924263
-0.26369999999999993,-218.71436695913465
-0.26470000000000005,-220.2705493889862
-0.26569999999999994,-221.68526068885126
-0.26670000000000005,-222.9585008587298
-0.26769999999999994,-224.09026989862178
-0.26870000000000005,-224.93909667854084
-0.26969999999999994,-225.78792345845983
-0.27070000000000005,-226.77822136836537
-0.27169999999999994,-227.4855770182979
-0.27270000000000005,-228.0514615382439
-0.27369999999999994,-228.90028831816295
-0.27470000000000006,-229.60764396809546
-0.27569999999999995,-230.45647074801445
-0.27670000000000006,-231.3052975279335
-0.27769999999999995,-232.29559543783904
-0.27870000000000006,-233.28589334774458
-0.27969999999999995,-234.4176623876366
-0.28070000000000006,-235.40796029754208
-0.28169999999999995,-236.3982582074476
-0.28270000000000006,-237.24708498736666
-0.28369999999999995,-237.9544406372992
-0.28470000000000006,-238.8032674172182
-0.28569999999999995,-239.7935653271237
-0.28670000000000007,-240.64239210704275
-0.28769999999999996,-241.77416114693477
-0.28870000000000007,-243.04740131681334
-0.28969999999999996,-244.46211261667833
-0.29070000000000007,-245.59388165657037
-0.29169999999999996,-246.5841795664759
-0.29270000000000007,-247.2915352164084
-0.29369999999999996,-247.99889086634093
-0.2947000000000001,-248.9891887762465
-0.29569999999999996,-249.69654442617897
-0.2967000000000001,-250.545371206098
-0.29769999999999996,-251.111255726044
-0.2987000000000001,-251.96008250596302
-0.29969999999999997,-253.09185154585506
-0.3007000000000001,-254.08214945576057
-0.30169999999999997,-254.78950510569314
-0.3027000000000001,-255.49686075562562
-0.30369999999999997,-256.20421640555816
-0.3047000000000001,-257.0530431854772
-0.30569999999999997,-257.90186996539614
-0.3067000000000001,-258.7506967453152
-0.3077,-259.7409946552208
-0.3087000000000001,-261.01423482509927
-0.3097,-262.42894612496434
-0.3107000000000001,-263.98512855481584
-0.3117,-264.9754264647214
-0.3127000000000001,-265.9657243746269
-0.3137,-266.9560222845325
-0.3147000000000001,-267.80484906445145
-0.3157,-268.79514697435695
-0.3167000000000001,-269.361031494303
-0.3177,-270.0683871442355
-0.3187000000000001,-270.775742794168
-0.3197,-271.4830984441005
-0.3207000000000001,-272.47339635400607
-0.3217,-273.4636942639116
-0.3227000000000001,-274.4539921738171
-0.3237,-275.44429008372265
-0.3247000000000001,-276.43458799362816
-0.3257,-277.56635703352015
-0.3267000000000001,-278.4151838134392
-0.3277,-279.26401059335825
-0.3287000000000001,-280.3957796332503
-0.3297,-281.52754867314235
-0.3307000000000001,-282.3763754530613
-0.3317,-283.22520223298034
-0.3327000000000001,-283.9325578829129
-0.3337,-284.7813846628319
-0.3347000000000001,-285.6302114427509
-0.3357,-286.76198048264297
-0.3367000000000001,-287.893749522535
-0.3377,-288.8840474324405
-0.3387000000000001,-290.0158164723325
-0.3397,-291.14758551222457
-0.3407000000000001,-292.2793545521166
-0.3417,-293.4111235920086
-0.3427000000000001,-294.4014215019141
-0.3437,-294.96730602186017
-0.3447000000000001,-295.3917194118196
-0.3457,-296.3820173217252
-0.3467000000000001,-297.51378636161724
-0.3477,-298.50408427152274
-0.3487000000000001,-299.49438218142825
-0.3497,-300.2017378313608
-0.3507000000000001,-301.0505646112798
-0.3517,-301.8993913911989
-0.3527000000000001,-302.0408625211853
-0.3537,-302.6067470411313
-0.3547000000000001,-303.4555738210504
-0.3557,-304.3044006009694
-0.35670000000000013,-305.1532273808884
-0.3577,-306.00205416080746
-0.35870000000000013,-306.70940981073994
-0.3597,-307.55823659065896
-0.36070000000000013,-308.407063370578
-0.3617,-309.255890150497
-0.3626999999999999,-310.10471693041603
-0.3637,-311.09501484032154
-0.3646999999999999,-312.36825501020013
-0.3657,-313.5000240500921
-0.3666999999999999,-314.49032195999763
-0.3677,-315.4806198699032
-0.3686999999999999,-316.47091777980876
-0.36970000000000003,-317.1782734297412
-0.3706999999999999,-317.60268681970075
-0.37170000000000003,-318.16857133964675
-0.3726999999999999,-318.8759269895793
-0.37370000000000003,-319.58328263951176
-0.3746999999999999,-320.4321094194308
-0.37570000000000003,-321.2809361993498
-0.3766999999999999,-322.12976297926883
-0.37770000000000004,-322.97858975918786
-0.3786999999999999,-323.8274165391069
-0.37970000000000004,-324.81771444901244
-0.3806999999999999,-325.80801235891795
-0.38170000000000004,-326.656839138837
-0.38269999999999993,-327.3641947887695
-0.38370000000000004,-328.071550438702
-0.38469999999999993,-328.63743495864804
-0.38570000000000004,-329.20331947859404
-0.38669999999999993,-327.9300793087155
-0.38570000000000004,-324.1103587990799
-0.38469999999999993,-320.71505167940376
-0.38370000000000004,-317.46121568971427
-0.38269999999999993,-314.49032195999763
-0.38170000000000004,-311.3779571002945
-0.3806999999999999,-308.2655922405915
-0.37970000000000004,-305.29469851087487
-0.3786999999999999,-302.6067470411313
-0.37770000000000004,-299.7773244414013
-0.3766999999999999,-296.80643071168464
-0.37570000000000003,-293.6940658519816
-0.3746999999999999,-290.86464325225154
-0.37370000000000003,-288.03522065252145
-0.3726999999999999,-285.2057980527914
-0.37170000000000003,-282.2349043230748
-0.3706999999999999,-279.40548172334474
-0.36970000000000003,-277.0004725135742
-0.3686999999999999,-274.5954633038036
-0.3677,-272.1904540940331
-0.3666999999999999,-269.5025026242895
-0.3657,-266.6730800245594
-0.3646999999999999,-263.98512855481584
-0.3637,-261.1557059550858
-0.3626999999999999,-258.60922561532874
-0.3617,-255.77980301559862
-0.36070000000000013,-253.09185154585506
-0.3597,-250.4039000761115
-0.35870000000000013,-247.57447747638145
-0.3577,-244.74505487665132
-0.35670000000000013,-241.9156322769213
-0.3557,-239.2276808071777
-0.3547000000000001,-236.53972933743412
-0.3537,-233.99324899767706
-0.3527000000000001,-231.5882397879065
-0.3517,-229.04175944814943
-0.3507000000000001,-226.49527910839237
-0.3497,-224.09026989862178
-0.3487000000000001,-221.68526068885126
-0.3477,-219.42172260906716
-0.3467000000000001,-217.01671339929663
-0.3457,-214.75317531951256
-0.3447000000000001,-212.34816610974204
-0.3437,-210.22609915994445
-0.3427000000000001,-207.96256108016038
-0.3417,-205.55755187038983
-0.3407000000000001,-203.29401379060576
-0.3397,-201.03047571082172
-0.3387000000000001,-198.76693763103765
-0.3377,-196.6448706812401
-0.3367000000000001,-194.2398614714695
-0.3357,-191.83485226169896
-0.3347000000000001,-189.57131418191491
-0.3337,-187.44924723211736
-0.3327000000000001,-185.3271802823198
-0.3317,-182.92217107254925
-0.3307000000000001,-180.5171618627787
-0.3297,-178.3950949129811
-0.3287000000000001,-176.27302796318358
-0.3277,-174.150961013386
-0.3267000000000001,-172.0288940635885
-0.3257,-169.9068271137909
-0.3247000000000001,-167.92623129397984
-0.3237,-166.0871066041553
-0.3227000000000001,-164.10651078434424
-0.3217,-161.84297270456022
-0.3207000000000001,-159.72090575476264
-0.3197,-157.7403099349516
-0.3187000000000001,-155.90118524512707
-0.3177,-153.77911829532948
-0.3167000000000001,-151.7985224755184
-0.3157,-149.6764555257209
-0.3147000000000001,-147.6958597059098
-0.3137,-145.7152638860988
-0.3127000000000001,-143.87613919627424
-0.3117,-141.89554337646317
-0.3107000000000001,-139.80177065266292
-0.3097,-137.92020462384244
-0.3087000000000001,-136.2225510640044
-0.3077,-134.56733884316228
-0.3067000000000001,-132.6857728143418
-0.30569999999999997,-130.76176544652535
-0.3047000000000001,-128.89434653070347
-0.30369999999999997,-127.09766317987489
-0.3027000000000001,-125.272685603049
-0.30169999999999997,-123.43356091322445
-0.3007000000000001,-121.48125931941068
-0.29969999999999997,-119.51481061259831
-0.2987000000000001,-117.63324458377778
-0.29769999999999996,-115.72338432896
-0.2967000000000001,-113.75693562214758
-0.29569999999999996,-111.74804557633925
-0.2947000000000001,-109.8806266605174
-0.29369999999999996,-108.0839433096888
-0.29270000000000007,-106.38628974985076
-0.29169999999999996,-104.5471650600262
-0.29070000000000007,-102.67974614420436
-0.28969999999999996,-100.98209258436633
-0.28870000000000007,-99.35517458952152
-0.28769999999999996,-97.61507969068752
-0.28670000000000007,-95.79010211386164
-0.28569999999999995,-93.95097742403709
-0.28470000000000006,-92.2108825252031
-0.28369999999999995,-90.55567030436099
-0.28270000000000006,-88.8438696315243
-0.28169999999999995,-87.06133339369435
-0.28070000000000006,-85.32123849486035
-0.27969999999999995,-83.66602627401826
-0.27870000000000006,-82.09569673116808
-0.27769999999999995,-80.38389605833139
-0.27670000000000006,-78.55891848150549
-0.27569999999999995,-76.7622351306769
-0.27470000000000006,-75.14946424883075
-0.27369999999999994,-73.57913470598055
-0.27270000000000005,-72.05124650212633
-0.27169999999999994,-70.39603428128423
-0.27070000000000005,-68.78326339943808
-0.26969999999999994,-67.21293385658788
-0.26870000000000005,-65.68504565273366
-0.26769999999999994,-64.25618723986996
-0.26670000000000005,-62.72829903601572
