Potential V vs RHE, Current mA cm-2
0.013299999999999867,24.035944984706973
0.012299999999999978,21.899730921910766
0.011299999999999866,19.93328221509837
0.010299999999999976,18.009274847281915
0.009299999999999864,16.141855931460068
0.008299999999999974,14.345172580631472
0.007299999999999862,12.603662970497613
0.006299999999999972,10.901765276759972
0.00529999999999986,9.245138344618015
0.0042999999999999705,7.630952751472008
0.0032999999999998586,6.016767158326001
0.0022999999999999687,4.44643761547581
0.0012999999999998568,2.8322520223298033
0.00029999999999996696,1.3063444142953748
-0.000700000000000145,-0.26384365742482935
-0.0017000000000000348,-1.8334658446250875
-0.0027000000000001467,-3.317497998183511
-0.0037000000000000366,-4.843971490737885
-0.0047000000000001485,-6.282732882700628
-0.005700000000000038,-7.679052935667419
-0.00670000000000015,-9.11781432763016
-0.00770000000000004,-10.470278330301136
-0.008700000000000152,-11.86659838326793
-0.009700000000000042,-13.217647674639037
-0.010700000000000154,-14.61396772760583
-0.011700000000000044,-15.972090575476265
-0.012700000000000156,-17.316066310348052
-0.013700000000000045,-18.674189158218486
-0.014700000000000157,-20.06060623208622
-0.015700000000000047,-21.376287740960702
-0.01670000000000016,-22.72026347583249
-0.01770000000000005,-24.035944984706973
-0.01870000000000016,-25.295038041586857
-0.01970000000000005,-26.525836872469437
-0.020700000000000163,-27.742488590353368
-0.021700000000000053,-28.959140308237306
-0.022700000000000164,-30.189939139119886
-0.023700000000000054,-31.36414951800786
-0.024700000000000166,-32.58080123589179
-0.025700000000000056,-33.85404140577033
-0.026700000000000168,-35.11313446265021
-0.027700000000000058,-36.329786180534136
-0.02870000000000017,-37.56058501141672
-0.02970000000000006,-38.777236729300654
-0.03070000000000017,-39.90900576919269
-0.03170000000000006,-40.99833347008877
-0.03270000000000017,-42.130102509980794
-0.03370000000000006,-43.27601866287147
-0.034700000000000175,-44.36534636376755
-0.035700000000000065,-45.497115403659585
-0.03670000000000018,-46.586443104555656
-0.03770000000000007,-47.71821214444768
-0.03870000000000018,-48.84998118433972
-0.03970000000000007,-50.024191563227696
-0.04070000000000018,-51.127666377122424
-0.04170000000000007,-52.34431809500636
-0.04270000000000018,-53.433645795902436
-0.04370000000000007,-54.52297349679851
-0.044700000000000184,-55.56985985869864
-0.045700000000000074,-56.65918755959472
-0.046700000000000186,-57.70607392149485
-0.047700000000000076,-58.71051894439902
-0.04870000000000019,-59.757405306299155
-0.04970000000000008,-60.761850329203334
-0.05070000000000019,-61.7662953521075
-0.05170000000000008,-62.81318171400764
-0.05270000000000019,-63.860068075907755
-0.05370000000000008,-64.90695443780788
-0.05470000000000019,-65.99628213870396
-0.05570000000000008,-67.04316850060408
-0.056700000000000195,-68.0900548625042
-0.057700000000000085,-69.13694122440434
-0.058700000000000196,-70.09894490831257
-0.059700000000000086,-71.1458312702127
-0.0607000000000002,-72.19271763211282
-0.06170000000000009,-73.197162655017
-0.0627000000000002,-74.20160767792116
-0.06370000000000009,-75.19190558782671
-0.0647000000000002,-76.29538040172143
-0.06570000000000009,-77.34226676362155
-0.0667000000000002,-78.43159446451764
-0.0677000000000001,-79.52092216541372
-0.0687000000000002,-80.56780852731384
-0.0697000000000001,-81.61469488921396
-0.07070000000000021,-82.6615812511141
-0.0717000000000001,-83.66602627401826
-0.07270000000000021,-84.61388284492786
-0.0737000000000001,-85.61832786783202
-0.07470000000000021,-86.58033155174023
-0.0757000000000001,-87.58477657464444
-0.07670000000000021,-88.54678025855264
-0.0777000000000001,-89.50878394246087
-0.07870000000000021,-90.51322896536506
-0.0797000000000001,-91.51767398826922
-0.08070000000000022,-92.6070016891653
-0.0817000000000001,-93.65388805106544
-0.08270000000000022,-94.70077441296557
-0.08370000000000011,-95.74766077486568
-0.08470000000000022,-96.79454713676581
-0.08570000000000011,-97.78484504667132
-0.08670000000000022,-98.7892900695755
-0.08770000000000011,-99.83617643147564
-0.08870000000000022,-100.84062145437981
-0.08970000000000011,-101.84506647728399
-0.09070000000000022,-102.89195283918411
-0.09170000000000011,-103.93883920108425
-0.09270000000000023,-104.98572556298437
-0.09370000000000012,-106.0326119248845
-0.09470000000000023,-107.12193962578058
-0.09570000000000012,-108.1688259876807
-0.09670000000000023,-109.25815368857677
-0.09770000000000012,-110.26259871148096
-0.09870000000000023,-111.22460239538917
-0.09970000000000012,-112.27148875728932
-0.10070000000000023,-113.27593378019348
-0.10170000000000012,-114.23793746410173
-0.10270000000000024,-115.2423824870059
-0.10370000000000013,-116.20438617091412
-0.10470000000000024,-117.19468408081964
-0.10570000000000013,-118.1991291037238
-0.10670000000000024,-119.24601546562396
-0.10770000000000013,-120.33534316652002
-0.10870000000000024,-121.38222952842017
-0.10970000000000013,-122.42911589032028
-0.11070000000000024,-123.43356091322445
-0.11170000000000013,-124.43800593612862
-0.11270000000000002,-125.44245095903281
-0.11370000000000013,-126.44689598193698
-0.11470000000000002,-127.4088996658452
-0.11570000000000014,-128.45578602774532
-0.11670000000000003,-129.4602310506495
-0.11770000000000014,-130.46467607355368
-0.11870000000000003,-131.5115624354538
-0.11970000000000014,-132.60089013634988
-0.12070000000000003,-133.64777649825
-0.12170000000000014,-134.73710419914607
-0.12270000000000003,-135.78399056104624
-0.12370000000000014,-136.83087692294635
-0.12470000000000003,-137.83532194585052
-0.12570000000000014,-138.88220830775063
-0.12670000000000003,-139.9290946696508
-0.12770000000000015,-140.89109835355902
-0.12870000000000004,-141.89554337646317
-0.12970000000000015,-142.8858412863687
-0.13070000000000004,-143.87613919627424
-0.13170000000000015,-145.00790823616626
-0.13270000000000004,-146.1396772760583
-0.13370000000000015,-147.1299751859638
-0.13470000000000004,-148.26174422585584
-0.13570000000000015,-149.39351326574788
-0.13670000000000004,-150.38381117565342
-0.13770000000000016,-151.37410908555893
-0.13870000000000005,-152.50587812545095
-0.13970000000000016,-153.49617603535648
-0.14070000000000005,-154.486473945262
-0.14170000000000016,-155.47677185516753
-0.14270000000000005,-156.60854089505958
-0.14370000000000016,-157.59883880496508
-0.14470000000000005,-158.5891367148706
-0.14570000000000016,-159.72090575476264
-0.14670000000000005,-160.8526747946547
-0.14770000000000016,-161.84297270456022
-0.14870000000000005,-162.97474174445222
-0.14970000000000017,-164.10651078434424
-0.15070000000000006,-165.2382798242363
-0.15170000000000017,-166.22857773414182
-0.15270000000000006,-167.21887564404733
-0.15370000000000017,-168.20917355395284
-0.15470000000000006,-169.19947146385837
-0.15570000000000017,-170.33124050375042
-0.15670000000000006,-171.32153841365593
-0.15770000000000017,-172.45330745354798
-0.15870000000000006,-173.58507649344
-0.15970000000000018,-174.57537440334553
-0.16070000000000007,-175.70714344323756
-0.16170000000000018,-176.8389124831296
-0.16270000000000007,-177.9706815230216
-0.16370000000000018,-179.10245056291362
-0.16470000000000007,-180.23421960280567
-0.16570000000000018,-181.36598864269772
-0.16670000000000007,-182.35628655260325
-0.16770000000000018,-183.34658446250873
-0.16870000000000007,-184.47835350240078
-0.16970000000000018,-185.6101225422928
-0.17070000000000007,-186.74189158218485
-0.17170000000000019,-187.87366062207687
-0.17270000000000008,-189.0054296619689
-0.1737000000000002,-190.13719870186094
-0.17470000000000008,-191.268967741753
-0.1757000000000002,-192.2592656516585
-0.17670000000000008,-193.3910346915505
-0.1777000000000002,-194.52280373144254
-0.17870000000000008,-195.65457277133459
-0.1797000000000002,-196.6448706812401
-0.18070000000000008,-197.77663972113214
-0.1817000000000002,-198.62546650105114
-0.18270000000000008,-199.75723554094319
-0.1837000000000002,-200.7475334508487
-0.1847000000000001,-201.87930249074074
-0.1857000000000002,-203.01107153063276
-0.1867000000000001,-204.0013694405383
-0.1877000000000002,-205.13313848043032
-0.1887000000000001,-206.12343639033585
-0.1897000000000002,-207.1137343002414
-0.1907000000000001,-208.24550334013338
-0.1917000000000001,-209.37727238002543
-0.19269999999999998,-210.50904141991748
-0.1937000000000001,-211.499339329823
-0.19469999999999998,-212.48963723972852
-0.1957000000000001,-213.62140627962054
-0.19669999999999999,-214.61170418952605
-0.1977000000000001,-215.7434732294181
-0.1987,-216.87524226931012
-0.1997000000000001,-218.00701130920217
-0.2007,-219.13878034909416
-0.2017000000000001,-220.1290782589997
-0.2027,-221.26084729889175
-0.2037000000000001,-222.25114520879725
-0.2047,-223.38291424868927
-0.2057000000000001,-224.37321215859478
-0.2067,-225.50498119848683
-0.2077000000000001,-226.49527910839237
-0.2087,-227.62704814828442
-0.2097000000000001,-228.61734605818995
-0.2107,-229.74911509808197
-0.2117000000000001,-231.0223552679605
-0.2127,-232.15412430785253
-0.2137000000000001,-233.4273644777311
-0.2147,-234.55913351762308
-0.2157000000000001,-235.69090255751513
-0.2167,-236.6812004674206
-0.21770000000000012,-237.67149837732615
-0.2187,-238.8032674172182
-0.21970000000000012,-239.93503645711021
-0.2207,-241.06680549700224
-0.22170000000000012,-242.19857453689428
-0.2227,-243.3303435767863
-0.22370000000000012,-244.46211261667833
-0.2247,-245.59388165657037
-0.22570000000000012,-246.8671218264489
-0.2267,-248.14036199632744
-0.22770000000000012,-249.41360216620598
-0.22870000000000001,-250.545371206098
-0.22970000000000013,-251.81861137597656
-0.23070000000000002,-253.09185154585506
-0.23170000000000013,-254.2236205857471
-0.23270000000000002,-255.63833188561213
-0.23370000000000013,-256.91157205549064
-0.23470000000000002,-258.18481222536917
-0.23570000000000013,-259.4580523952477
-0.23670000000000002,-260.58982143513975
-0.2376999999999999,-261.7215904750318
-0.23870000000000002,-262.9948306449103
-0.2396999999999999,-264.12659968480233
-0.24070000000000003,-265.39983985468086
-0.24169999999999991,-266.6730800245594
-0.24270000000000003,-267.80484906445145
-0.24369999999999992,-268.93661810434344
-0.24470000000000003,-269.926916014249
-0.24569999999999992,-271.05868505414105
-0.24670000000000003,-272.1904540940331
-0.24769999999999992,-273.1807520039386
-0.24870000000000003,-274.1710499138441
-0.24969999999999992,-275.1613478237496
-0.25070000000000003,-276.15164573365513
-0.2516999999999999,-277.1419436435607
-0.25270000000000004,-278.2737126834527
-0.2536999999999999,-279.26401059335825
-0.25470000000000004,-280.5372507632368
-0.2556999999999999,-281.66901980312883
-0.25670000000000004,-282.65931771303434
-0.25769999999999993,-283.79108675292633
-0.25870000000000004,-284.7813846628319
-0.25969999999999993,-285.9131537027239
-0.26070000000000004,-287.04492274261594
-0.26169999999999993,-288.176691782508
-0.26270000000000004,-289.3084608224
-0.26369999999999993,-290.29875873230554
-0.26470000000000005,-291.571998902184
-0.26569999999999994,-292.56229681208964
-0.26670000000000005,-293.6940658519816
-0.26769999999999994,-294.8258348918736
-0.26870000000000005,-295.9576039317657
-0.26969999999999994,-297.0893729716577
-0.27070000000000005,-298.07967088156323
-0.27169999999999994,-299.2114399214552
-0.27270000000000005,-300.2017378313608
-0.27369999999999994,-301.33350687125284
-0.27470000000000006,-302.4652759111449
-0.27569999999999995,-303.5970449510368
-0.27670000000000006,-304.5873428609424
-0.27769999999999995,-305.71911190083443
-0.27870000000000006,-306.70940981073994
-0.27969999999999995,-307.841178850632
-0.28070000000000006,-308.972947890524
-0.28169999999999995,-310.10471693041603
-0.28270000000000006,-311.3779571002945
-0.28369999999999995,-312.50972614018656
-0.28470000000000006,-313.5000240500921
-0.28569999999999995,-314.6317930899841
-0.28670000000000007,-315.4806198699032
-0.28769999999999996,-316.6123889097952
-0.28870000000000007,-317.60268681970075
-0.28969999999999996,-318.73445585959274
-0.29070000000000007,-319.8662248994848
-0.29169999999999996,-320.9979939393768
-0.29270000000000007,-321.8468207192958
-0.29369999999999996,-323.1200608891744
-0.2947000000000001,-324.3933010590529
-0.29569999999999996,-325.6665412289314
-0.2967000000000001,-326.79831026882346
-0.29769999999999996,-328.071550438702
-0.2987000000000001,-329.20331947859404
-0.29969999999999997,-330.19361738849955
-0.3007000000000001,-331.3253864283916
-0.30169999999999997,-332.3156843382971
-0.3027000000000001,-333.44745337818915
-0.30369999999999997,-334.43775128809466
-0.3047000000000001,-335.5695203279867
-0.30569999999999997,-336.4183471079057
-0.3067000000000001,-337.40864501781124
-0.3077,-338.6818851876898
-0.3087000000000001,-339.95512535756825
-0.3097,-341.0868943974603
-0.3107000000000001,-342.3601345673389
-0.3117,-343.49190360723094
-0.3127000000000001,-344.62367264712293
-0.3137,-345.6139705570285
-0.3147000000000001,-346.7457395969205
-0.3157,-347.87750863681254
-0.3167000000000001,-349.15074880669107
-0.3177,-350.2825178465831
-0.3187000000000001,-351.4142868864751
-0.3197,-352.54605592636716
-0.3207000000000001,-353.6778249662592
-0.3217,-354.8095940061512
-0.3227000000000001,-355.7998919160567
-0.3237,-357.07313208593524
-0.3247000000000001,-358.0634299958408
-0.3257,-359.1951990357328
-0.3267000000000001,-360.18549694563836
-0.3277,-361.31726598553036
-0.3287000000000001,-362.4490350254224
-0.3297,-363.58080406531445
-0.3307000000000001,-364.7125731052065
-0.3317,-365.8443421450985
-0.3327000000000001,-366.97611118499054
-0.3337,-368.10788022488254
-0.3347000000000001,-369.3811203947611
-0.3357,-370.5128894346531
-0.3367000000000001,-371.64465847454517
-0.3377,-372.9178986444237
-0.3387000000000001,-374.19113881430224
-0.3397,-375.3229078541942
-0.3407000000000001,-376.59614802407276
-0.3417,-377.7279170639648
-0.3427000000000001,-378.85968610385686
-0.3437,-379.99145514374885
-0.3447000000000001,-381.2646953136274
-0.3457,-382.537935483506
-0.3467000000000001,-383.952646783371
-0.3477,-385.5088292132225
-0.3487000000000001,-386.9235405130875
-0.3497,-388.33825181295254
-0.3507000000000001,-389.75296311281767
-0.3517,-391.30914554266917
-0.3527000000000001,-392.7238568425342
-0.3537,-394.1385681423992
-0.3547000000000001,-395.5532794422643
-0.3557,-396.82651961214276
-0.35670000000000013,-398.0997597820213
-0.3577,-399.51447108188637
-0.35870000000000013,-400.78771125176496
-0.3597,-401.9194802916569
-0.36070000000000013,-403.33419159152197
-0.3617,-404.46596063141396
-0.3626999999999999,-404.748902891387
-0.3637,-405.88067193127904
-0.3646999999999999,-407.0124409711711
-0.3657,-408.1442100110631
-0.3666999999999999,-409.27597905095513
-0.3677,-410.54921922083366
-0.3686999999999999,-411.6809882607257
-0.36970000000000003,-412.9542284306042
-0.3706999999999999,-414.2274686004828
-0.37170000000000003,-415.35923764037483
-0.3726999999999999,-416.49100668026676
-0.37370000000000003,-417.48130459017233
-0.3746999999999999,-418.75454476005086
-0.37570000000000003,-419.8863137999429
-0.3766999999999999,-421.01808283983496
-0.37770000000000004,-422.29132300971344
-0.3786999999999999,-423.42309204960543
-0.37970000000000004,-424.8378033494705
-0.3806999999999999,-426.1110435193491
-0.38170000000000004,-427.2428125592411
-0.38269999999999993,-428.5160527291196
-0.38370000000000004,-429.64782176901167
-0.38469999999999993,-430.9210619388902
-0.38570000000000004,-432.0528309787822
-0.38669999999999993,-431.3454753288497
-0.38570000000000004,-428.2331104691466
-0.38469999999999993,-425.4036878694165
-0.38370000000000004,-422.57426526968646
-0.38269999999999993,-419.74484266995637
-0.38170000000000004,-416.6324778102533
-0.3806999999999999,-413.6615840805367
-0.37970000000000004,-410.9736326107932
-0.3786999999999999,-408.1442100110631
-0.37770000000000004,-405.597729671306
-0.3766999999999999,-402.9097782015624
-0.37570000000000003,-400.2218267318189
-0.3746999999999999,-397.67534639206184
-0.37370000000000003,-394.9873949223183
-0.3726999999999999,-392.2994434525747
-0.37170000000000003,-389.61149198283107
-0.3706999999999999,-387.20648277306054
-0.36970000000000003,-384.518531303317
-0.3686999999999999,-381.8305798335734
-0.3677,-378.85968610385686
-0.3666999999999999,-375.74732124415374
-0.3657,-372.7764275144371
-0.3646999999999999,-369.9470049147071
-0.3637,-367.2590534449635
-0.3626999999999999,-364.57110197521996
-0.3617,-361.88315050547635
-0.36070000000000013,-359.3366701657193
-0.3597,-356.64871869597573
-0.35870000000000013,-354.2437094862052
-0.3577,-351.69722914644814
-0.35670000000000013,-349.43369106666404
-0.3557,-347.0286818568935
-0.3547000000000001,-344.48220151713645
-0.3537,-341.9357211773794
-0.3527000000000001,-339.3892408376223
-0.3517,-336.70128936787876
-0.3507000000000001,-334.1548090281217
-0.3497,-331.74979981835105
-0.3487000000000001,-329.3447906085805
-0.3477,-327.0812525287965
-0.3467000000000001,-324.67624331902596
-0.3457,-322.2712341092554
-0.3447000000000001,-320.00769602947133
-0.3437,-317.60268681970075
-0.3427000000000001,-315.19767760993017
-0.3417,-312.9341395301461
-0.3407000000000001,-310.52913032037554
-0.3397,-308.407063370578
-0.3387000000000001,-306.1435252907939
-0.3377,-303.87998721100985
-0.3367000000000001,-301.6164491312258
-0.3357,-299.3529110514418
-0.3347000000000001,-297.0893729716577
-0.3337,-294.8258348918736
-0.3327000000000001,-292.56229681208964
-0.3317,-290.29875873230554
-0.3307000000000001,-287.893749522535
-0.3297,-285.6302114427509
-0.3287000000000001,-283.22520223298034
-0.3277,-280.9616641531963
-0.3267000000000001,-278.6981260734122
-0.3257,-276.29311686364167
-0.3247000000000001,-274.0295787838576
-0.3237,-271.62456957408705
-0.3227000000000001,-269.361031494303
-0.3217,-267.09749341451896
-0.3207000000000001,-264.83395533473487
-0.3197,-262.57041725495077
-0.3187000000000001,-260.58982143513975
-0.3177,-258.32628335535566
-0.3167000000000001,-256.20421640555816
-0.3157,-253.94067832577412
-0.3147000000000001,-251.67714024599002
-0.3137,-249.41360216620598
-0.3127000000000001,-247.1500640864219
-0.3117,-244.8865260066378
-0.3107000000000001,-242.62298792685377
-0.3097,-240.50092097705624
-0.3087000000000001,-238.5203251572452
-0.3077,-236.53972933743412
-0.3067000000000001,-234.55913351762308
-0.30569999999999997,-232.43706656782552
-0.3047000000000001,-230.45647074801445
-0.30369999999999997,-228.33440379821695
-0.3027000000000001,-226.35380797840588
-0.30169999999999997,-224.2317410286083
-0.3007000000000001,-222.10967407881074
-0.29969999999999997,-219.98760712901318
-0.2987000000000001,-217.72406904922914
-0.29769999999999996,-215.6020020994316
-0.2967000000000001,-213.47993514963403
-0.29569999999999996,-211.35786819983647
-0.2947000000000001,-209.37727238002543
-0.29369999999999996,-207.3966765602144
-0.29270000000000007,-205.41608074040332
-0.29169999999999996,-203.43548492059227
-0.29070000000000007,-201.31341797079472
-0.28969999999999996,-199.33282215098367
-0.28870000000000007,-197.21075520118612
-0.28769999999999996,-195.23015938137505
-0.28670000000000007,-193.249563561564
-0.28569999999999995,-191.12749661176645
-0.28470000000000006,-189.1469007919554
-0.28369999999999995,-187.02483384215788
-0.28270000000000006,-185.0442380223468
-0.28169999999999995,-183.06364220253573
-0.28070000000000006,-181.2245175127112
-0.27969999999999995,-179.24392169290016
-0.27870000000000006,-177.4047970030756
-0.27769999999999995,-175.28273005327804
-0.27670000000000006,-173.44360536345349
-0.27569999999999995,-171.46300954364247
-0.27470000000000006,-169.48241372383137
-0.27369999999999994,-167.50181790402033
-0.27270000000000005,-165.5212220842093
-0.27169999999999994,-163.54062626439824
-0.27070000000000005,-161.5600304445872
-0.26969999999999994,-159.57943462477613
-0.26870000000000005,-157.59883880496508
-0.26769999999999994,-155.75971411514055
