Potential V vs RHE, Current mA cm-2
0.013299999999999867,34.67457395969205
0.012299999999999978,32.7505665918756
0.011299999999999866,30.968030354045652
0.010299999999999976,29.171347003217054
0.009299999999999864,27.473693443379013
0.008299999999999974,25.77603988354097
0.007299999999999862,24.16326900169483
0.006299999999999972,22.63538079784059
0.00529999999999986,21.149933932982297
0.0042999999999999705,19.70692840711996
0.0032999999999998586,18.23562865526032
0.0022999999999999687,16.750181790402035
0.0012999999999998568,15.222293586547794
0.00029999999999996696,13.824558822281137
-0.000700000000000145,12.472094819610163
-0.0017000000000000348,11.20734291753082
-0.0027000000000001467,9.854878914859846
-0.0037000000000000366,8.503829623488736
-0.0047000000000001485,7.15136562081776
-0.005700000000000038,5.798901618146785
-0.00670000000000015,4.578005766363259
-0.00770000000000004,3.355695203279867
-0.008700000000000152,2.1347993514963406
-0.009700000000000042,0.9573351366186703
-0.010700000000000154,-0.3511313446265021
-0.011700000000000044,-1.6156003044458718
-0.012700000000000156,-2.794054817233447
-0.013700000000000045,-3.927238568425342
-0.014700000000000157,-5.0618370309171015
-0.015700000000000047,-6.152579443113044
-0.01670000000000016,-7.28576319430494
-0.01770000000000005,-8.464217707092514
-0.01870000000000016,-9.641257508580225
-0.01970000000000005,-10.731999920776168
-0.020700000000000163,-11.82274233297211
-0.021700000000000053,-12.825772644576423
-0.022700000000000164,-13.916515056772363
-0.023700000000000054,-15.01008689156804
-0.024700000000000166,-16.141855931460068
-0.025700000000000056,-17.231183632356142
-0.026700000000000168,-18.27806999425627
-0.027700000000000058,-19.28251501716045
-0.02870000000000017,-20.202077362072725
-0.02970000000000006,-21.248963723972853
-0.03070000000000017,-22.295850085872978
-0.03170000000000006,-23.342736447773106
-0.03270000000000017,-24.432064148669184
-0.03370000000000006,-25.39406783257741
-0.034700000000000175,-26.29948306449103
-0.035700000000000065,-27.261486748399253
-0.03670000000000018,-28.22349043230748
-0.03770000000000007,-29.27037679420761
-0.03870000000000018,-30.317263156107735
-0.03970000000000007,-31.27926684001596
-0.04070000000000018,-32.184682071929586
-0.04170000000000007,-33.06180307784591
-0.04270000000000018,-34.02380676175414
-0.04370000000000007,-34.98581044566235
-0.044700000000000184,-35.99025546856653
-0.045700000000000074,-36.89567070048016
-0.046700000000000186,-37.81523304539243
-0.047700000000000076,-38.6499127123128
-0.04870000000000019,-39.51288660523048
-0.04970000000000008,-40.3900076111468
-0.05070000000000019,-41.352011295055014
-0.05170000000000008,-42.39889765695515
-0.05270000000000019,-43.40334267985933
-0.05370000000000008,-44.36534636376755
-0.05470000000000019,-45.22832025668522
-0.05570000000000008,-46.10544126260155
-0.056700000000000195,-47.067444946509774
-0.057700000000000085,-47.987007291422046
-0.058700000000000196,-48.89242252333566
-0.059700000000000086,-49.81198486824794
-0.0607000000000002,-50.60422319617236
-0.06170000000000009,-51.33987307210218
-0.0627000000000002,-52.2169940780185
-0.06370000000000009,-53.03752663194023
-0.0647000000000002,-53.9570889768525
-0.06570000000000009,-54.834209982768826
-0.0667000000000002,-55.65474253669055
-0.0677000000000001,-56.44698086461496
-0.0687000000000002,-57.26751341853669
-0.0697000000000001,-58.14463442445301
-0.07070000000000021,-59.10663810836124
-0.0717000000000001,-60.02620045327351
-0.07270000000000021,-60.93161568518713
-0.0737000000000001,-61.89361936909536
-0.07470000000000021,-62.77074037501168
-0.0757000000000001,-63.6761556069253
-0.07670000000000021,-64.59571795183757
-0.0777000000000001,-65.5577216357458
-0.07870000000000021,-66.47728398065809
-0.0797000000000001,-67.2978165345798
-0.08070000000000022,-68.13249620150016
-0.0817000000000001,-68.91058741642594
-0.08270000000000022,-69.74526708334632
-0.08370000000000011,-70.66482942825859
-0.08470000000000022,-71.6268331121668
-0.08570000000000011,-72.53224834408043
-0.08670000000000022,-73.40936934999675
-0.08770000000000011,-74.28649035591307
-0.08870000000000022,-75.1070229098348
-0.08970000000000011,-75.98414391575112
-0.09070000000000022,-76.9037062606634
-0.09170000000000011,-77.90815128356756
-0.09270000000000023,-78.8135665154812
-0.09370000000000012,-79.7755701993894
-0.09470000000000023,-80.65269120530574
-0.09570000000000012,-81.47322375922747
-0.09670000000000023,-82.39278610413973
-0.09770000000000012,-83.31234844905201
-0.09870000000000023,-84.13288100297372
-0.09970000000000012,-84.96756066989411
-0.10070000000000023,-85.75979899781852
-0.10170000000000012,-86.5378902127443
-0.10270000000000024,-87.33012854066871
-0.10370000000000013,-88.15066109459043
-0.10470000000000024,-89.02778210050676
-0.10570000000000013,-89.89075599342443
-0.10670000000000024,-90.7254356603448
-0.10770000000000013,-91.60255666626112
-0.10870000000000024,-92.42308922018285
-0.10970000000000013,-93.30021022609918
-0.11070000000000024,-94.26221391000739
-0.11170000000000013,-95.22421759391563
-0.11270000000000002,-96.17207416482519
-0.11370000000000013,-97.04919517074151
-0.11470000000000002,-97.96875751565379
-0.11570000000000014,-98.97320253855796
-0.11670000000000003,-99.93520622246619
-0.11770000000000014,-100.92550413237171
-0.11870000000000003,-101.97239049427183
-0.11970000000000014,-102.89195283918411
-0.12070000000000003,-103.7266325061045
-0.12170000000000014,-104.5471650600262
-0.12270000000000003,-105.42428606594254
-0.12370000000000014,-106.34384841085482
-0.12470000000000003,-107.26341075576708
-0.12570000000000014,-108.21126732667666
-0.12670000000000003,-109.08838833259297
-0.12770000000000015,-109.8240382085228
-0.12870000000000004,-110.70115921443913
-0.12970000000000015,-111.49339754236355
-0.13070000000000004,-112.22904741829338
-0.13170000000000015,-113.14860976320564
-0.13270000000000004,-114.11061344711386
-0.13370000000000015,-115.01602867902749
-0.13470000000000004,-115.93559102393975
-0.13570000000000015,-116.89759470784797
-0.13670000000000004,-117.85959839175621
-0.13770000000000016,-118.82160207566443
-0.13870000000000005,-119.81189998556997
-0.13970000000000016,-120.77390366947817
-0.14070000000000005,-121.60858333639854
-0.14170000000000016,-122.42911589032028
-0.14270000000000005,-123.3062368962366
-0.14370000000000016,-124.18335790215292
-0.14470000000000005,-125.18780292505707
-0.14570000000000016,-126.14980660896532
-0.14670000000000005,-127.09766317987489
-0.14770000000000016,-127.93234284679528
-0.14870000000000005,-128.8094638527116
-0.14970000000000017,-129.67243774562928
-0.15070000000000006,-130.59200009054155
-0.15170000000000017,-131.55400377444977
-0.15270000000000006,-132.516007458358
-0.15370000000000017,-133.4214226902716
-0.15470000000000006,-134.29854369618792
-0.15570000000000017,-135.26054738009617
-0.15670000000000006,-136.2225510640044
-0.15770000000000017,-137.1845547479126
-0.15870000000000006,-138.23144110981272
-0.15970000000000018,-139.22173901971826
-0.16070000000000007,-140.14130136463055
-0.16170000000000018,-140.9759810315509
-0.16270000000000007,-141.89554337646317
-0.16370000000000018,-142.7443701563822
-0.16470000000000007,-143.87613919627424
-0.16570000000000018,-144.72496597619326
-0.16670000000000007,-145.7152638860988
-0.16770000000000018,-146.5640906660178
-0.16870000000000007,-147.27144631595033
-0.16970000000000018,-148.26174422585584
-0.17070000000000007,-149.1105710057749
-0.17170000000000019,-150.24234004566688
-0.17270000000000008,-151.23263795557244
-0.1737000000000002,-152.22293586547795
-0.17470000000000008,-153.07176264539694
-0.1757000000000002,-154.0620605553025
-0.17670000000000008,-155.05235846520802
-0.1777000000000002,-156.18412750510007
-0.17870000000000008,-157.31589654499206
-0.1797000000000002,-158.1647233249111
-0.18070000000000008,-158.87207897484362
-0.1817000000000002,-159.57943462477613
-0.18270000000000008,-160.28679027470866
-0.1837000000000002,-161.2770881846142
-0.1847000000000001,-162.12591496453322
-0.1857000000000002,-162.97474174445222
-0.1867000000000001,-164.10651078434424
-0.1877000000000002,-164.81386643427678
-0.1887000000000001,-165.6626932141958
-0.1897000000000002,-166.51151999411482
-0.1907000000000001,-167.36034677403384
-0.1917000000000001,-168.35064468393938
-0.19269999999999998,-169.3409425938449
-0.1937000000000001,-170.33124050375042
-0.19469999999999998,-171.18006728366944
-0.1957000000000001,-172.31183632356147
-0.19669999999999999,-173.58507649344
-0.1977000000000001,-174.85831666331853
-0.1987,-176.13155683319707
-0.1997000000000001,-177.1218547431026
-0.2007,-178.1121526530081
-0.2017000000000001,-178.96097943292713
-0.2027,-179.95127734283267
-0.2037000000000001,-180.94157525273818
-0.2047,-181.79040203265723
-0.2057000000000001,-182.49775768258974
-0.2067,-183.34658446250873
-0.2077000000000001,-184.05394011244127
-0.2087,-184.9027668923603
-0.2097000000000001,-185.6101225422928
-0.2107,-186.45894932221185
-0.2117000000000001,-187.30777610213087
-0.2127,-188.15660288204987
-0.2137000000000001,-189.0054296619689
-0.2147,-189.99572757187443
-0.2157000000000001,-190.98602548177996
-0.2167,-192.11779452167198
-0.21770000000000012,-193.3910346915505
-0.2187,-194.80574599141553
-0.21970000000000012,-195.93751503130758
-0.2207,-196.92781294121312
-0.22170000000000012,-197.91811085111863
-0.2227,-198.76693763103765
-0.22370000000000012,-199.61576441095667
-0.2247,-200.7475334508487
-0.22570000000000012,-201.59636023076774
-0.2267,-202.44518701068677
-0.22770000000000012,-203.29401379060576
-0.22870000000000001,-204.14284057052478
-0.22970000000000013,-204.9916673504438
-0.23070000000000002,-205.98196526034934
-0.23170000000000013,-206.83079204026836
-0.23270000000000002,-207.67961882018741
-0.23370000000000013,-208.52844560010638
-0.23470000000000002,-209.37727238002543
-0.23570000000000013,-210.08462802995794
-0.23670000000000002,-211.21639706985
-0.2376999999999999,-212.34816610974204
-0.23870000000000002,-213.76287740960703
-0.2396999999999999,-215.03611757948556
-0.24070000000000003,-216.3093577493641
-0.24169999999999991,-217.44112678925615
-0.24270000000000003,-218.43142469916165
-0.24369999999999992,-219.42172260906716
-0.24470000000000003,-220.2705493889862
-0.24569999999999992,-221.11937616890526
-0.24670000000000003,-221.96820294882426
-0.24769999999999992,-222.9585008587298
-0.24870000000000003,-224.09026989862178
-0.24969999999999992,-225.22203893851383
-0.25070000000000003,-226.35380797840588
-0.2516999999999999,-227.4855770182979
-0.25270000000000004,-228.75881718817644
-0.2536999999999999,-230.17352848804146
-0.25470000000000004,-231.44676865792
-0.2556999999999999,-232.43706656782552
-0.25670000000000004,-233.28589334774458
-0.25769999999999993,-234.27619125765005
-0.25870000000000004,-235.12501803756908
-0.25969999999999993,-236.1153159474746
-0.26070000000000004,-236.96414272739366
-0.26169999999999993,-237.67149837732615
-0.26270000000000004,-238.5203251572452
-0.26369999999999993,-239.36915193716422
-0.26470000000000005,-240.21797871708318
-0.26569999999999994,-241.06680549700224
-0.26670000000000005,-241.9156322769213
-0.26769999999999994,-242.76445905684034
-0.26870000000000005,-243.75475696674582
-0.26969999999999994,-244.74505487665132
-0.27070000000000005,-245.59388165657037
-0.27169999999999994,-246.7256506964624
-0.27270000000000005,-247.4330063463949
-0.27369999999999994,-248.56477538628693
-0.27470000000000006,-249.69654442617897
-0.27569999999999995,-250.6868423360845
-0.27670000000000006,-251.81861137597656
-0.27769999999999995,-252.95038041586852
-0.27870000000000006,-253.94067832577412
-0.27969999999999995,-254.78950510569314
-0.28070000000000006,-255.77980301559862
-0.28169999999999995,-256.62862979551767
-0.28270000000000006,-257.4774565754367
-0.28369999999999995,-258.32628335535566
-0.28470000000000006,-259.17511013527474
-0.28569999999999995,-260.4483503051532
-0.28670000000000007,-261.7215904750318
-0.28769999999999996,-262.8533595149238
-0.28870000000000007,-263.56071516485633
-0.28969999999999996,-264.2680708147888
-0.29070000000000007,-265.2583687246944
-0.29169999999999996,-266.3901377645864
-0.29270000000000007,-267.38043567449193
-0.29369999999999996,-268.22926245441096
-0.2947000000000001,-269.07808923433
-0.29569999999999996,-269.926916014249
-0.2967000000000001,-270.9172139241545
-0.29769999999999996,-271.9075118340601
-0.2987000000000001,-272.8978097439656
-0.29969999999999997,-273.8881076538711
-0.3007000000000001,-275.0198766937631
-0.30169999999999997,-275.86870347368216
-0.3027000000000001,-276.7175302536012
-0.30369999999999997,-277.4248859035337
-0.3047000000000001,-278.2737126834527
-0.30569999999999997,-278.8395972033987
-0.3067000000000001,-279.6884239833177
-0.3077,-280.9616641531963
-0.3087000000000001,-282.65931771303434
-0.3097,-284.49844240285887
-0.3107000000000001,-286.33756709268346
-0.3117,-287.610807262562
-0.3127000000000001,-288.176691782508
-0.3137,-288.742576302454
-0.3147000000000001,-289.73287421235955
-0.3157,-291.14758551222457
-0.3167000000000001,-292.4208256821031
-0.3177,-293.6940658519816
-0.3187000000000001,-294.68436376188714
-0.3197,-295.53319054180616
-0.3207000000000001,-296.52348845171167
-0.3217,-297.51378636161724
-0.3227000000000001,-298.50408427152274
-0.3237,-299.49438218142825
-0.3247000000000001,-300.48468009133376
-0.3257,-301.47497800123926
-0.3267000000000001,-302.6067470411313
-0.3277,-303.87998721100985
-0.3287000000000001,-305.29469851087487
-0.3297,-306.56793868075346
-0.3307000000000001,-307.841178850632
-0.3317,-309.3973612804835
-0.3327000000000001,-310.95354371033505
-0.3337,-312.36825501020013
-0.3347000000000001,-313.5000240500921
-0.3357,-314.91473534995714
-0.3367000000000001,-315.9050332598627
-0.3377,-317.03680229975475
-0.3387000000000001,-318.16857133964675
-0.3397,-319.15886924955225
-0.3407000000000001,-319.8662248994848
-0.3417,-320.4321094194308
-0.3427000000000001,-320.9979939393768
-0.3437,-321.56387845932284
-0.3447000000000001,-322.2712341092554
-0.3457,-323.1200608891744
-0.3467000000000001,-323.9688876690934
-0.3477,-324.81771444901244
-0.3487000000000001,-325.5250700989449
-0.3497,-325.94948348890443
-0.3507000000000001,-326.656839138837
-0.3517,-328.071550438702
-0.3527000000000001,-329.0618483486075
-0.3537,-330.19361738849955
-0.3547000000000001,-331.0424441684186
-0.3557,-331.89127094833765
-0.35670000000000013,-332.8815688582431
-0.3577,-333.87186676814866
-0.35870000000000013,-335.2865780680136
-0.3597,-336.4183471079057
-0.36070000000000013,-337.40864501781124
-0.3617,-338.2574717977303
-0.3626999999999999,-339.1062985776493
-0.3637,-340.0965964875548
-0.3646999999999999,-340.94542326747387
-0.3657,-341.9357211773794
-0.3666999999999999,-342.7845479572984
-0.3677,-343.7748458672039
-0.3686999999999999,-344.48220151713645
-0.36970000000000003,-345.33102829705547
-0.3706999999999999,-346.03838394698795
-0.37170000000000003,-346.88721072690697
-0.3726999999999999,-347.87750863681254
-0.37370000000000003,-348.72633541673156
-0.3746999999999999,-349.5751621966506
-0.37570000000000003,-350.7069312365426
-0.3766999999999999,-351.8387002764346
-0.37770000000000004,-352.8289981863402
-0.3786999999999999,-353.96076722623224
-0.37970000000000004,-355.09253626612417
-0.3806999999999999,-355.9413630460432
-0.38170000000000004,-356.64871869597573
-0.38269999999999993,-357.63901660588124
-0.38370000000000004,-358.62931451578686
-0.38469999999999993,-359.4781412957058
-0.38570000000000004,-360.46843920561133
-0.38669999999999993,-359.90255468566534
-0.38570000000000004,-356.36577643600276
-0.38469999999999993,-353.11194044631316
-0.38370000000000004,-350.2825178465831
-0.38269999999999993,-347.3116241168665
-0.38170000000000004,-344.34073038714996
-0.3806999999999999,-341.51130778741987
-0.37970000000000004,-338.8233563176763
-0.3786999999999999,-335.71099145797325
-0.37770000000000004,-332.7400977282566
-0.3766999999999999,-330.19361738849955
-0.37570000000000003,-327.505665918756
-0.3746999999999999,-324.81771444901244
-0.37370000000000003,-321.98829184928235
-0.3726999999999999,-319.15886924955225
-0.37170000000000003,-316.3294466498222
-0.3706999999999999,-313.6414951800786
-0.36970000000000003,-311.2364859703081
-0.3686999999999999,-308.690005630551
-0.3677,-306.00205416080746
-0.3666999999999999,-303.4555738210504
-0.3657,-300.76762235130684
-0.3646999999999999,-298.07967088156323
-0.3637,-295.53319054180616
-0.3626999999999999,-292.9867102020491
-0.3617,-290.44022986229203
-0.36070000000000013,-287.7522783925485
-0.3597,-285.3472691827779
-0.35870000000000013,-283.08373110299385
-0.3577,-280.82019302320975
-0.35670000000000013,-278.6981260734122
-0.3557,-276.43458799362816
-0.3547000000000001,-273.8881076538711
-0.3537,-271.05868505414105
-0.3527000000000001,-268.22926245441096
-0.3517,-265.5413109846674
-0.3507000000000001,-262.9948306449103
-0.3497,-260.73129256512624
-0.3487000000000001,-258.60922561532874
-0.3477,-256.34568753554464
-0.3467000000000001,-254.08214945576057
-0.3457,-251.96008250596302
-0.3447000000000001,-249.69654442617897
-0.3437,-247.1500640864219
-0.3427000000000001,-244.74505487665132
-0.3417,-242.62298792685377
-0.3407000000000001,-240.35944984706975
-0.3397,-237.9544406372992
-0.3387000000000001,-235.40796029754208
-0.3377,-232.86147995778504
-0.3367000000000001,-230.45647074801445
-0.3357,-228.1929326682304
-0.3347000000000001,-226.07086571843288
-0.3337,-223.6658565086623
-0.3327000000000001,-221.11937616890526
-0.3317,-218.85583808912116
-0.3307000000000001,-216.87524226931012
-0.3297,-214.61170418952605
-0.3287000000000001,-212.48963723972852
-0.3277,-210.50904141991748
-0.3267000000000001,-208.3869744701199
-0.3257,-206.26490752032234
-0.3247000000000001,-204.0013694405383
-0.3237,-201.87930249074074
-0.3227000000000001,-199.75723554094319
-0.3217,-197.49369746115914
-0.3207000000000001,-195.51310164134807
-0.3197,-193.249563561564
-0.3187000000000001,-190.70308322180696
-0.3177,-188.29807401203638
-0.3167000000000001,-186.03453593225234
-0.3157,-183.91246898245475
-0.3147000000000001,-181.64893090267074
-0.3137,-179.52686395287316
-0.3127000000000001,-177.54626813306209
-0.3117,-175.42420118326456
-0.3107000000000001,-173.44360536345349
-0.3097,-171.32153841365593
-0.3087000000000001,-169.48241372383137
-0.3077,-167.6432890340068
-0.3067000000000001,-165.8041643441823
-0.30569999999999997,-163.68209739438475
-0.3047000000000001,-161.70150157457368
-0.30369999999999997,-159.57943462477613
-0.3027000000000001,-157.59883880496508
-0.30169999999999997,-155.61824298515404
-0.3007000000000001,-153.77911829532948
-0.29969999999999997,-151.7985224755184
-0.2987000000000001,-149.6764555257209
-0.29769999999999996,-147.55438857592333
-0.2967000000000001,-145.57379275611228
-0.29569999999999996,-143.73466806628772
-0.2947000000000001,-141.89554337646317
-0.29369999999999996,-140.05641868663866
-0.29270000000000007,-138.13241131882216
-0.29169999999999996,-136.1801097250084
-0.29070000000000007,-134.256102357192
-0.28969999999999996,-132.33209498937555
-0.28870000000000007,-130.37979339556176
-0.28769999999999996,-128.4982273667413
-0.28670000000000007,-126.75813246790726
-0.28569999999999995,-124.91900777808273
-0.28470000000000006,-123.05158886226087
-0.28369999999999995,-121.2549055114323
-0.28270000000000006,-119.5996932905902
-0.28169999999999995,-117.90203973075215
-0.28070000000000006,-116.14779771891952
-0.27969999999999995,-114.3228201420936
-0.27870000000000006,-112.39881277427718
-0.27769999999999995,-110.4465111804634
-0.27670000000000006,-108.73471050762672
-0.27569999999999995,-107.07949828678463
-0.27470000000000006,-105.50916874393444
-0.27369999999999994,-103.85395652309235
-0.27270000000000005,-102.1563029632543
-0.27169999999999994,-100.2747369344338
-0.27070000000000005,-98.4497593576079
-0.26969999999999994,-96.69551734577524
-0.26870000000000005,-95.04030512493317
-0.26769999999999994,-93.30021022609918
