Potential V vs RHE, Current mA cm-2
0.013299999999999867,-0.3947044526623452
0.012299999999999978,-2.2706116362833835
0.011299999999999866,-3.403795387475278
0.010299999999999976,-4.1889601589003735
0.009299999999999864,-4.800115440442069
0.008299999999999974,-5.235846520800501
0.007299999999999862,-5.585280211867165
0.006299999999999972,-5.847001802342197
0.00529999999999986,-6.064867342521412
0.0042999999999999705,-6.282732882700628
0.0032999999999998586,-6.500598422879844
0.0022999999999999687,-6.632166573767292
0.0012999999999998568,-6.762320013354876
0.00029999999999996696,-6.850032113946507
-0.000700000000000145,-6.893888164242324
-0.0017000000000000348,-6.93774421453814
-0.0027000000000001467,-7.024041603829907
-0.0037000000000000366,-7.067897654125724
-0.0047000000000001485,-7.111753704421539
-0.005700000000000038,-7.199465805013171
-0.00670000000000015,-7.28576319430494
-0.00770000000000004,-7.329619244600755
-0.008700000000000152,-7.461187395488204
-0.009700000000000042,-7.50504344578402
-0.010700000000000154,-7.5474847847799715
-0.011700000000000044,-7.5474847847799715
-0.012700000000000156,-7.5474847847799715
-0.013700000000000045,-7.5474847847799715
-0.014700000000000157,-7.591340835075788
-0.015700000000000047,-7.591340835075788
-0.01670000000000016,-7.679052935667419
-0.01770000000000005,-7.722908985963235
-0.01870000000000016,-7.7653503249591855
-0.01970000000000005,-7.809206375255003
-0.020700000000000163,-7.853062425550818
-0.021700000000000053,-7.896918475846635
-0.022700000000000164,-7.896918475846635
-0.023700000000000054,-7.896918475846635
-0.024700000000000166,-7.940774526142452
-0.025700000000000056,-7.896918475846635
-0.026700000000000168,-7.940774526142452
-0.027700000000000058,-7.984630576438266
-0.02870000000000017,-8.027071915434218
-0.02970000000000006,-8.070927965730034
-0.03070000000000017,-8.11478401602585
-0.03170000000000006,-8.158640066321666
-0.03270000000000017,-8.202496116617484
-0.03370000000000006,-8.246352166913299
-0.034700000000000175,-8.202496116617484
-0.035700000000000065,-8.246352166913299
-0.03670000000000018,-8.202496116617484
-0.03770000000000007,-8.202496116617484
-0.03870000000000018,-8.246352166913299
-0.03970000000000007,-8.246352166913299
-0.04070000000000018,-8.288793505909249
-0.04170000000000007,-8.332649556205066
-0.04270000000000018,-8.376505606500881
-0.04370000000000007,-8.464217707092514
-0.044700000000000184,-8.464217707092514
-0.045700000000000074,-8.464217707092514
-0.046700000000000186,-8.464217707092514
-0.047700000000000076,-8.464217707092514
-0.04870000000000019,-8.464217707092514
-0.04970000000000008,-8.464217707092514
-0.05070000000000019,-8.464217707092514
-0.05170000000000008,-8.55051509638428
-0.05270000000000019,-8.55051509638428
-0.05370000000000008,-8.638227196975913
-0.05470000000000019,-8.68208324727173
-0.05570000000000008,-8.725939297567548
-0.056700000000000195,-8.725939297567548
-0.057700000000000085,-8.725939297567548
-0.058700000000000196,-8.725939297567548
-0.059700000000000086,-8.769795347863363
-0.0607000000000002,-8.725939297567548
-0.06170000000000009,-8.769795347863363
-0.0627000000000002,-8.812236686859313
-0.06370000000000009,-8.812236686859313
-0.0647000000000002,-8.899948787450944
-0.06570000000000009,-8.899948787450944
-0.0667000000000002,-8.943804837746763
-0.0677000000000001,-9.031516938338395
-0.0687000000000002,-9.031516938338395
-0.0697000000000001,-9.031516938338395
-0.07070000000000021,-8.987660888042578
-0.0717000000000001,-8.987660888042578
-0.07270000000000021,-9.031516938338395
-0.0737000000000001,-9.031516938338395
-0.07470000000000021,-9.031516938338395
-0.0757000000000001,-9.073958277334345
-0.07670000000000021,-9.11781432763016
-0.0777000000000001,-9.161670377925978
-0.07870000000000021,-9.24938247851761
-0.0797000000000001,-9.24938247851761
-0.08070000000000022,-9.293238528813426
-0.0817000000000001,-9.293238528813426
-0.08270000000000022,-9.293238528813426
-0.08370000000000011,-9.293238528813426
-0.08470000000000022,-9.24938247851761
-0.08570000000000011,-9.293238528813426
-0.08670000000000022,-9.335679867809377
-0.08770000000000011,-9.423391968401008
-0.08870000000000022,-9.467248018696827
-0.08970000000000011,-9.511104068992642
-0.09070000000000022,-9.511104068992642
-0.09170000000000011,-9.55496011928846
-0.09270000000000023,-9.55496011928846
-0.09370000000000012,-9.59740145828441
-0.09470000000000023,-9.59740145828441
-0.09570000000000012,-9.59740145828441
-0.09670000000000023,-9.641257508580225
-0.09770000000000012,-9.59740145828441
-0.09870000000000023,-9.685113558876042
-0.09970000000000012,-9.728969609171857
-0.10070000000000023,-9.772825659467674
-0.10170000000000012,-9.85912304875944
-0.10270000000000024,-9.85912304875944
-0.10370000000000013,-9.902979099055257
-0.10470000000000024,-9.902979099055257
-0.10570000000000013,-9.902979099055257
-0.10670000000000024,-9.902979099055257
-0.10770000000000013,-9.902979099055257
-0.10870000000000024,-9.946835149351072
-0.10970000000000013,-9.946835149351072
-0.11070000000000024,-10.034547249942705
-0.11170000000000013,-10.034547249942705
-0.11270000000000002,-10.120844639234473
-0.11370000000000013,-10.208556739826104
-0.11470000000000002,-10.208556739826104
-0.11570000000000014,-10.25241279012192
-0.11670000000000003,-10.25241279012192
-0.11770000000000014,-10.25241279012192
-0.11870000000000003,-10.25241279012192
-0.11970000000000014,-10.25241279012192
-0.12070000000000003,-10.296268840417738
-0.12170000000000014,-10.340124890713554
-0.12270000000000003,-10.382566229709504
-0.12370000000000014,-10.470278330301136
-0.12470000000000003,-10.514134380596953
-0.12570000000000014,-10.557990430892769
-0.12670000000000003,-10.601846481188586
-0.12770000000000015,-10.601846481188586
-0.12870000000000004,-10.601846481188586
-0.12970000000000015,-10.601846481188586
-0.13070000000000004,-10.644287820184536
-0.13170000000000015,-10.644287820184536
-0.13270000000000004,-10.688143870480351
-0.13370000000000015,-10.731999920776168
-0.13470000000000004,-10.775855971071984
-0.13570000000000015,-10.819712021367803
-0.13670000000000004,-10.906009410659568
-0.13770000000000016,-10.906009410659568
-0.13870000000000005,-10.949865460955383
-0.13970000000000016,-10.993721511251199
-0.14070000000000005,-10.993721511251199
-0.14170000000000016,-10.993721511251199
-0.14270000000000005,-10.993721511251199
-0.14370000000000016,-10.993721511251199
-0.14470000000000005,-11.037577561547016
-0.14570000000000016,-11.081433611842833
-0.14670000000000005,-11.1677310011346
-0.14770000000000016,-11.211587051430415
-0.14870000000000005,-11.255443101726232
-0.14970000000000017,-11.299299152022046
-0.15070000000000006,-11.343155202317865
-0.15170000000000017,-11.299299152022046
-0.15270000000000006,-11.343155202317865
-0.15370000000000017,-11.343155202317865
-0.15470000000000006,-11.343155202317865
-0.15570000000000017,-11.42945259160963
-0.15670000000000006,-11.42945259160963
-0.15770000000000017,-11.473308641905447
-0.15870000000000006,-11.517164692201263
-0.15970000000000018,-11.604876792792895
-0.16070000000000007,-11.647318131788847
-0.16170000000000018,-11.691174182084664
-0.16270000000000007,-11.647318131788847
-0.16370000000000018,-11.691174182084664
-0.16470000000000007,-11.691174182084664
-0.16570000000000018,-11.691174182084664
-0.16670000000000007,-11.691174182084664
-0.16770000000000018,-11.691174182084664
-0.16870000000000007,-11.778886282676295
-0.16970000000000018,-11.82274233297211
-0.17070000000000007,-11.82274233297211
-0.17170000000000019,-11.909039722263879
-0.17270000000000008,-11.952895772559694
-0.1737000000000002,-11.952895772559694
-0.17470000000000008,-11.996751822855511
-0.1757000000000002,-11.996751822855511
-0.17670000000000008,-11.996751822855511
-0.1777000000000002,-12.040607873151327
-0.17870000000000008,-12.040607873151327
-0.1797000000000002,-12.084463923447142
-0.18070000000000008,-12.12831997374296
-0.1817000000000002,-12.170761312738911
-0.18270000000000008,-12.258473413330542
-0.1837000000000002,-12.302329463626359
-0.1847000000000001,-12.346185513922174
-0.1857000000000002,-12.346185513922174
-0.1867000000000001,-12.390041564217992
-0.1877000000000002,-12.390041564217992
-0.1887000000000001,-12.432482903213943
-0.1897000000000002,-12.432482903213943
-0.1907000000000001,-12.476338953509758
-0.1917000000000001,-12.520195003805576
-0.19269999999999998,-12.56405105410139
-0.1937000000000001,-12.607907104397206
-0.19469999999999998,-12.694204493688973
-0.1957000000000001,-12.781916594280606
-0.19669999999999999,-12.825772644576423
-0.1977000000000001,-12.825772644576423
-0.1987,-12.825772644576423
-0.1997000000000001,-12.869628694872238
-0.2007,-12.869628694872238
-0.2017000000000001,-12.913484745168056
-0.2027,-12.955926084164007
-0.2037000000000001,-13.043638184755638
-0.2047,-13.087494235051453
-0.2057000000000001,-13.13135028534727
-0.2067,-13.217647674639037
-0.2077000000000001,-13.261503724934855
-0.2087,-13.30535977523067
-0.2097000000000001,-13.349215825526485
-0.2107,-13.349215825526485
-0.2117000000000001,-13.3930718758223
-0.2127,-13.3930718758223
-0.2137000000000001,-13.436927926118118
-0.2147,-13.47936926511407
-0.2157000000000001,-13.610937416001518
-0.2167,-13.654793466297335
-0.21770000000000012,-13.741090855589102
-0.2187,-13.784946905884919
-0.21970000000000012,-13.872659006476551
-0.2207,-13.872659006476551
-0.22170000000000012,-13.916515056772363
-0.2227,-13.916515056772363
-0.22370000000000012,-13.960371107068182
-0.2247,-14.002812446064135
-0.22570000000000012,-14.046668496359947
-0.2267,-14.090524546655764
-0.22770000000000012,-14.175407224647667
-0.22870000000000001,-14.217848563643619
-0.22970000000000013,-14.30273124163552
-0.23070000000000002,-14.345172580631472
-0.23170000000000013,-14.444202371622024
-0.23270000000000002,-14.486643710617974
-0.23370000000000013,-14.529085049613924
-0.23470000000000002,-14.57152638860988
-0.23570000000000013,-14.57152638860988
-0.23670000000000002,-14.61396772760583
-0.2376999999999999,-14.65640906660178
-0.23870000000000002,-14.783733083589633
-0.2396999999999999,-14.826174422585586
-0.24070000000000003,-14.925204213576137
-0.24169999999999991,-15.01008689156804
-0.24270000000000003,-15.05252823056399
-0.24369999999999992,-15.137410908555893
-0.24470000000000003,-15.137410908555893
-0.24569999999999992,-15.137410908555893
-0.24670000000000003,-15.222293586547794
-0.24769999999999992,-15.222293586547794
-0.24870000000000003,-15.307176264539699
-0.24969999999999992,-15.349617603535648
-0.25070000000000003,-15.448647394526201
-0.2516999999999999,-15.533530072518102
-0.25270000000000004,-15.618412750510005
-0.2536999999999999,-15.70329542850191
-0.25470000000000004,-15.74573676749786
-0.2556999999999999,-15.78817810649381
-0.25670000000000004,-15.830619445489761
-0.25769999999999993,-15.87306078448571
-0.25870000000000004,-15.91550212348166
-0.25969999999999993,-15.972090575476265
-0.26070000000000004,-16.014531914472215
-0.26169999999999993,-16.056973253468165
-0.26270000000000004,-16.141855931460068
-0.26369999999999993,-16.184297270456018
-0.26470000000000005,-16.269179948447924
-0.26569999999999994,-16.354062626439823
-0.26670000000000005,-16.438945304431726
-0.26769999999999994,-16.495533756426326
-0.26870000000000005,-16.495533756426326
-0.26969999999999994,-16.53797509542228
-0.27070000000000005,-16.53797509542228
-0.27169999999999994,-16.580416434418233
-0.27270000000000005,-16.622857773414182
-0.27369999999999994,-16.70774045140608
-0.27470000000000006,-16.750181790402035
-0.27569999999999995,-16.835064468393938
-0.27670000000000006,-16.919947146385837
-0.27769999999999995,-16.962388485381787
-0.27870000000000006,-17.018976937376394
-0.27969999999999995,-17.061418276372343
-0.28070000000000006,-17.103859615368293
-0.28169999999999995,-17.061418276372343
-0.28270000000000006,-17.103859615368293
-0.28369999999999995,-17.146300954364243
-0.28470000000000006,-17.188742293360193
-0.28569999999999995,-17.231183632356142
-0.28670000000000007,-17.316066310348052
-0.28769999999999996,-17.358507649344002
-0.28870000000000007,-17.4433903273359
-0.28969999999999996,-17.48583166633185
-0.29070000000000007,-17.48583166633185
-0.29169999999999996,-17.542420118326454
-0.29270000000000007,-17.542420118326454
-0.29369999999999996,-17.542420118326454
-0.2947000000000001,-17.542420118326454
-0.29569999999999996,-17.584861457322408
-0.2967000000000001,-17.584861457322408
-0.29769999999999996,-17.669744135314307
-0.2987000000000001,-17.71218547431026
-0.29969999999999997,-17.71218547431026
-0.3007000000000001,-17.797068152302163
-0.30169999999999997,-17.797068152302163
-0.3027000000000001,-17.797068152302163
-0.30369999999999997,-17.797068152302163
-0.3047000000000001,-17.797068152302163
-0.30569999999999997,-17.797068152302163
-0.3067000000000001,-17.797068152302163
-0.3077,-17.839509491298113
-0.3087000000000001,-17.839509491298113
-0.3097,-17.881950830294063
-0.3107000000000001,-17.924392169290012
-0.3117,-17.924392169290012
-0.3127000000000001,-17.966833508285966
-0.3137,-17.966833508285966
-0.3147000000000001,-17.966833508285966
-0.3157,-17.966833508285966
-0.3167000000000001,-17.924392169290012
-0.3177,-17.924392169290012
-0.3187000000000001,-17.924392169290012
-0.3197,-17.924392169290012
-0.3207000000000001,-18.009274847281915
-0.3217,-18.009274847281915
-0.3227000000000001,-18.06586329927652
-0.3237,-18.10830463827247
-0.3247000000000001,-18.10830463827247
-0.3257,-18.10830463827247
-0.3267000000000001,-18.15074597726842
-0.3277,-18.10830463827247
-0.3287000000000001,-18.15074597726842
-0.3297,-18.10830463827247
-0.3307000000000001,-18.15074597726842
-0.3317,-18.19318731626437
-0.3327000000000001,-18.23562865526032
-0.3337,-18.320511333252224
-0.3347000000000001,-18.362952672248177
-0.3357,-18.40539401124413
-0.3367000000000001,-18.44783535024008
-0.3377,-18.49027668923603
-0.3387000000000001,-18.49027668923603
-0.3397,-18.53271802823198
-0.3407000000000001,-18.53271802823198
-0.3417,-18.631747819222536
-0.3427000000000001,-18.674189158218486
-0.3437,-18.716630497214435
-0.3447000000000001,-18.80151317520634
-0.3457,-18.92883719219419
-0.3467000000000001,-19.01371987018609
-0.3477,-19.112749661176647
-0.3487000000000001,-19.197632339168546
-0.3497,-19.28251501716045
-0.3507000000000001,-19.3249563561564
-0.3517,-19.409839034148305
-0.3527000000000001,-19.49472171214021
-0.3537,-19.579604390132108
-0.3547000000000001,-19.678634181122664
-0.3557,-19.805958198110513
-0.35670000000000013,-19.93328221509837
-0.3577,-20.06060623208622
-0.35870000000000013,-20.244518701068674
-0.3597,-20.371842718056527
-0.36070000000000013,-20.499166735044383
-0.3617,-20.584049413036283
-0.3626999999999999,-20.72552054302279
-0.3637,-20.85284456001064
-0.3646999999999999,-20.980168576998494
-0.3657,-21.107492593986347
-0.3666999999999999,-21.291405062968803
-0.3677,-21.503611757948562
-0.3686999999999999,-21.67337711393236
-0.36970000000000003,-21.899730921910766
-0.3706999999999999,-22.069496277894572
-0.37170000000000003,-22.253408746877028
-0.3726999999999999,-22.42317410286083
-0.37370000000000003,-22.592939458844636
-0.3746999999999999,-22.776851927827092
-0.37570000000000003,-22.904175944814945
-0.3766999999999999,-23.1163826397947
-0.37770000000000004,-23.342736447773106
-0.3786999999999999,-23.55494314275286
-0.37970000000000004,-23.823738289727217
-0.3806999999999999,-24.035944984706973
-0.38170000000000004,-24.24815167968673
-0.38269999999999993,-24.516946826661083
-0.38370000000000004,-24.729153521640843
-0.38469999999999993,-24.95550732961925
-0.38570000000000004,-25.167714024599
-0.38669999999999993,-25.337479380582806
-0.38770000000000004,-25.563833188561212
-0.38869999999999993,-25.81848122253692
-0.38970000000000005,-26.044835030515326
-0.39069999999999994,-26.38436574248293
-0.39170000000000005,-26.61071955046134
-0.39269999999999994,-26.907808923433
-0.39370000000000005,-27.261486748399253
-0.39469999999999994,-27.530281895373616
-0.39570000000000005,-27.78492992934932
-0.39669999999999994,-28.09616641531963
-0.39770000000000005,-28.350814449295335
-0.39869999999999994,-28.619609596269694
-0.39970000000000006,-28.8742576302454
-0.40069999999999995,-29.18549411621571
-0.40170000000000006,-29.482583489187363
-0.40269999999999995,-29.793819975157668
-0.40370000000000006,-30.189939139119886
-0.40469999999999995,-30.529469851087494
-0.40570000000000006,-30.8407063370578
-0.40669999999999995,-31.23682550102001
-0.40770000000000006,-31.533914873991666
-0.40869999999999995,-31.930034037953877
-0.40970000000000006,-32.283711862920136
-0.41069999999999995,-32.58080123589179
-0.41170000000000007,-32.97692039985401
-0.41269999999999996,-33.330598224820264
-0.41370000000000007,-33.712570275783825
-0.41469999999999996,-34.15113077874198
-0.41570000000000007,-34.5472499427042
-0.41669999999999996,-34.94336910666641
-0.41770000000000007,-35.38192960962457
-0.41869999999999996,-35.806342999584075
-0.4197000000000001,-36.16002082455034
-0.42069999999999996,-36.5985813275085
-0.4217000000000001,-36.99470049147071
-0.42269999999999996,-37.376672542434264
-0.4237000000000001,-37.81523304539243
-0.42469999999999997,-38.253793548350586
-0.4257000000000001,-38.692354051308754
-0.42669999999999997,-39.173355893262865
-0.4277000000000001,-39.61191639622103
-0.42869999999999997,-40.135359577171094
-0.4297000000000001,-40.616361419125205
-0.43069999999999997,-41.083216148080666
-0.4317000000000001,-41.56421799003478
-0.4327,-42.04521983198889
-0.4337000000000001,-42.526221673943
-0.4347,-42.96478217690117
-0.4357000000000001,-43.48822535785123
-0.4367,-44.011668538801295
-0.4377000000000001,-44.577553058747306
-0.4387,-45.10099623969737
-0.4397000000000001,-45.666880759643384
-0.4407,-46.27520661858535
-0.4417000000000001,-46.79864979953541
-0.4427,-47.36453431948143
-0.4437000000000001,-47.8879775004315
-0.4447,-48.41142068138156
-0.4457000000000001,-49.03389365332217
-0.4467,-49.59977817326819
-0.4477000000000001,-50.20810403221015
-0.4487,-50.81642989115212
-0.4497000000000001,-51.46719708909004
-0.4507,-52.075522948032
-0.4517000000000001,-52.74043725896857
-0.4527,-53.348763117910536
-0.4537000000000001,-53.9570889768525
-0.4547,-54.60785617479041
-0.4557000000000001,-55.21618203373238
-0.4567,-55.881096344668954
-0.4577000000000001,-56.489422203610914
-0.4587,-57.14018940154883
-0.4597000000000001,-57.79095659948675
-0.4607,-58.498312249419264
-0.4617000000000001,-59.19152078635314
-0.4627,-59.92717066228296
-0.4637000000000001,-60.63452631221547
-0.4647,-61.327734849149344
-0.4657000000000001,-61.97850204708726
-0.4667,-62.68585769701977
-0.4677000000000001,-63.37906623395363
-0.4687,-64.02983343189156
-0.4697000000000001,-64.77963042082003
-0.4707,-65.4728389577539
-0.4717000000000001,-66.25093017267966
-0.4727,-67.00072716160814
-0.4737000000000001,-67.82125971552985
-0.4747,-68.57105670445833
-0.4757000000000001,-69.39158925838004
-0.4767,-70.14138624730852
-0.4777000000000001,-70.87703612323833
-0.4787,-71.66927445116276
-0.4797000000000001,-72.40492432709259
-0.4807,-73.197162655017
-0.48170000000000013,-73.97525386994278
-0.4827,-74.76749219786718
-0.48370000000000013,-75.5880247517889
-0.4847,-76.42270441870929
-0.48570000000000013,-77.243236972631
-0.4867,-78.07791663955136
-0.4876999999999999,-78.91259630647174
-0.4887,-79.7755701993894
-0.4896999999999999,-80.61024986630979
-0.4907,-81.43078242023151
-0.4916999999999999,-82.26546208715187
-0.4927,-83.04355330207765
-0.4936999999999999,-83.92067430799398
-0.49470000000000003,-84.75535397491434
-0.4956999999999999,-85.57588652883607
-0.49670000000000003,-86.49544887374834
-0.4976999999999999,-87.41501121866061
-0.49870000000000003,-88.32042645057423
-0.4996999999999999,-89.19754745649055
-0.5007,-90.07466846240689
-0.5016999999999999,-90.99423080731917
-0.5027,-91.85720470023682
-0.5036999999999999,-92.73432570615316
-0.5047,-93.61144671206948
-0.5056999999999999,-94.47442060498715
-0.5067,-95.39398294989942
-0.5076999999999999,-96.35598663380765
