Sept. 12, 2024   08:50:53
Cyclic Voltammetry
File: c:/users/guazh/data/20240903_batch_252_500/2024-09-03-exp332\exp332-2024-09-12t08_44_48-h2koh\exp332_cv_sr_100mvs_efin_-1400mv.bin
Data Source:  Experiment
Instrument Model:  CHI760E
Header: CV ran at 100 mVs
Note: 

Init E (V) = -1
High E (V) = -1
Low E (V) = -1.4
Final E (V) = -1
Init P/N = N
Scan Rate (V/s) = 0.1
Segment = 3
Sample Interval (V) = 0.001
Quiet Time (sec) = 2
Sensitivity (A/V) = 0.01
Comp R (ohm) = 2.1

Results:

Channel 1:
Segment 1:

Segment 2:

Segment 3:

Potential/V, Current/A

-1.000, 1.358e-5
-1.001, 5.490e-5
-1.002, 7.554e-5
-1.003, 8.633e-5
-1.004, 9.216e-5
-1.005, 9.641e-5
-1.006, 9.835e-5
-1.007, 1.011e-4
-1.008, 1.021e-4
-1.009, 1.031e-4
-1.010, 1.047e-4
-1.011, 1.051e-4
-1.012, 1.069e-4
-1.013, 1.071e-4
-1.014, 1.075e-4
-1.015, 1.091e-4
-1.016, 1.089e-4
-1.017, 1.101e-4
-1.018, 1.100e-4
-1.019, 1.099e-4
-1.020, 1.116e-4
-1.021, 1.112e-4
-1.022, 1.122e-4
-1.023, 1.124e-4
-1.024, 1.127e-4
-1.025, 1.139e-4
-1.026, 1.134e-4
-1.027, 1.140e-4
-1.028, 1.143e-4
-1.029, 1.139e-4
-1.030, 1.153e-4
-1.031, 1.151e-4
-1.032, 1.155e-4
-1.033, 1.158e-4
-1.034, 1.153e-4
-1.035, 1.165e-4
-1.036, 1.165e-4
-1.037, 1.166e-4
-1.038, 1.169e-4
-1.039, 1.169e-4
-1.040, 1.178e-4
-1.041, 1.174e-4
-1.042, 1.180e-4
-1.043, 1.180e-4
-1.044, 1.181e-4
-1.045, 1.188e-4
-1.046, 1.186e-4
-1.047, 1.194e-4
-1.048, 1.193e-4
-1.049, 1.191e-4
-1.050, 1.204e-4
-1.051, 1.195e-4
-1.052, 1.203e-4
-1.053, 1.201e-4
-1.054, 1.201e-4
-1.055, 1.215e-4
-1.056, 1.206e-4
-1.057, 1.215e-4
-1.058, 1.211e-4
-1.059, 1.208e-4
-1.060, 1.223e-4
-1.061, 1.218e-4
-1.062, 1.225e-4
-1.063, 1.226e-4
-1.064, 1.220e-4
-1.065, 1.230e-4
-1.066, 1.225e-4
-1.067, 1.233e-4
-1.068, 1.239e-4
-1.069, 1.236e-4
-1.070, 1.243e-4
-1.071, 1.236e-4
-1.072, 1.243e-4
-1.073, 1.245e-4
-1.074, 1.245e-4
-1.075, 1.262e-4
-1.076, 1.255e-4
-1.077, 1.258e-4
-1.078, 1.262e-4
-1.079, 1.258e-4
-1.080, 1.262e-4
-1.081, 1.263e-4
-1.082, 1.270e-4
-1.083, 1.271e-4
-1.084, 1.269e-4
-1.085, 1.277e-4
-1.086, 1.272e-4
-1.087, 1.282e-4
-1.088, 1.281e-4
-1.089, 1.280e-4
-1.090, 1.292e-4
-1.091, 1.285e-4
-1.092, 1.294e-4
-1.093, 1.295e-4
-1.094, 1.292e-4
-1.095, 1.306e-4
-1.096, 1.300e-4
-1.097, 1.308e-4
-1.098, 1.308e-4
-1.099, 1.307e-4
-1.100, 1.320e-4
-1.101, 1.314e-4
-1.102, 1.321e-4
-1.103, 1.327e-4
-1.104, 1.323e-4
-1.105, 1.338e-4
-1.106, 1.332e-4
-1.107, 1.337e-4
-1.108, 1.344e-4
-1.109, 1.340e-4
-1.110, 1.354e-4
-1.111, 1.350e-4
-1.112, 1.356e-4
-1.113, 1.362e-4
-1.114, 1.362e-4
-1.115, 1.373e-4
-1.116, 1.370e-4
-1.117, 1.377e-4
-1.118, 1.385e-4
-1.119, 1.384e-4
-1.120, 1.396e-4
-1.121, 1.391e-4
-1.122, 1.398e-4
-1.123, 1.407e-4
-1.124, 1.412e-4
-1.125, 1.423e-4
-1.126, 1.422e-4
-1.127, 1.434e-4
-1.128, 1.435e-4
-1.129, 1.437e-4
-1.130, 1.452e-4
-1.131, 1.453e-4
-1.132, 1.468e-4
-1.133, 1.470e-4
-1.134, 1.470e-4
-1.135, 1.485e-4
-1.136, 1.482e-4
-1.137, 1.499e-4
-1.138, 1.513e-4
-1.139, 1.515e-4
-1.140, 1.534e-4
-1.141, 1.530e-4
-1.142, 1.539e-4
-1.143, 1.553e-4
-1.144, 1.558e-4
-1.145, 1.575e-4
-1.146, 1.578e-4
-1.147, 1.592e-4
-1.148, 1.606e-4
-1.149, 1.608e-4
-1.150, 1.628e-4
-1.151, 1.635e-4
-1.152, 1.655e-4
-1.153, 1.668e-4
-1.154, 1.669e-4
-1.155, 1.692e-4
-1.156, 1.702e-4
-1.157, 1.720e-4
-1.158, 1.733e-4
-1.159, 1.745e-4
-1.160, 1.768e-4
-1.161, 1.780e-4
-1.162, 1.796e-4
-1.163, 1.816e-4
-1.164, 1.831e-4
-1.165, 1.853e-4
-1.166, 1.868e-4
-1.167, 1.889e-4
-1.168, 1.905e-4
-1.169, 1.928e-4
-1.170, 1.960e-4
-1.171, 1.971e-4
-1.172, 1.997e-4
-1.173, 2.020e-4
-1.174, 2.039e-4
-1.175, 2.071e-4
-1.176, 2.093e-4
-1.177, 2.122e-4
-1.178, 2.153e-4
-1.179, 2.167e-4
-1.180, 2.205e-4
-1.181, 2.223e-4
-1.182, 2.261e-4
-1.183, 2.293e-4
-1.184, 2.315e-4
-1.185, 2.357e-4
-1.186, 2.384e-4
-1.187, 2.419e-4
-1.188, 2.451e-4
-1.189, 2.485e-4
-1.190, 2.538e-4
-1.191, 2.568e-4
-1.192, 2.606e-4
-1.193, 2.644e-4
-1.194, 2.676e-4
-1.195, 2.733e-4
-1.196, 2.779e-4
-1.197, 2.820e-4
-1.198, 2.869e-4
-1.199, 2.905e-4
-1.200, 2.960e-4
-1.201, 3.004e-4
-1.202, 3.059e-4
-1.203, 3.114e-4
-1.204, 3.167e-4
-1.205, 3.225e-4
-1.206, 3.273e-4
-1.207, 3.335e-4
-1.208, 3.396e-4
-1.209, 3.445e-4
-1.210, 3.513e-4
-1.211, 3.577e-4
-1.212, 3.653e-4
-1.213, 3.714e-4
-1.214, 3.775e-4
-1.215, 3.846e-4
-1.216, 3.911e-4
-1.217, 3.991e-4
-1.218, 4.062e-4
-1.219, 4.135e-4
-1.220, 4.223e-4
-1.221, 4.288e-4
-1.222, 4.372e-4
-1.223, 4.451e-4
-1.224, 4.528e-4
-1.225, 4.631e-4
-1.226, 4.712e-4
-1.227, 4.805e-4
-1.228, 4.901e-4
-1.229, 4.999e-4
-1.230, 5.097e-4
-1.231, 5.180e-4
-1.232, 5.280e-4
-1.233, 5.392e-4
-1.234, 5.485e-4
-1.235, 5.598e-4
-1.236, 5.701e-4
-1.237, 5.811e-4
-1.238, 5.926e-4
-1.239, 6.026e-4
-1.240, 6.150e-4
-1.241, 6.262e-4
-1.242, 6.386e-4
-1.243, 6.514e-4
-1.244, 6.634e-4
-1.245, 6.762e-4
-1.246, 6.883e-4
-1.247, 7.013e-4
-1.248, 7.148e-4
-1.249, 7.286e-4
-1.250, 7.442e-4
-1.251, 7.562e-4
-1.252, 7.710e-4
-1.253, 7.852e-4
-1.254, 7.995e-4
-1.255, 8.162e-4
-1.256, 8.312e-4
-1.257, 8.471e-4
-1.258, 8.620e-4
-1.259, 8.778e-4
-1.260, 8.952e-4
-1.261, 9.109e-4
-1.262, 9.274e-4
-1.263, 9.443e-4
-1.264, 9.611e-4
-1.265, 9.809e-4
-1.266, 9.969e-4
-1.267, 1.015e-3
-1.268, 1.033e-3
-1.269, 1.051e-3
-1.270, 1.070e-3
-1.271, 1.088e-3
-1.272, 1.108e-3
-1.273, 1.130e-3
-1.274, 1.150e-3
-1.275, 1.168e-3
-1.276, 1.188e-3
-1.277, 1.208e-3
-1.278, 1.229e-3
-1.279, 1.249e-3
-1.280, 1.273e-3
-1.281, 1.295e-3
-1.282, 1.316e-3
-1.283, 1.338e-3
-1.284, 1.359e-3
-1.285, 1.385e-3
-1.286, 1.408e-3
-1.287, 1.429e-3
-1.288, 1.454e-3
-1.289, 1.479e-3
-1.290, 1.503e-3
-1.291, 1.526e-3
-1.292, 1.551e-3
-1.293, 1.577e-3
-1.294, 1.604e-3
-1.295, 1.629e-3
-1.296, 1.655e-3
-1.297, 1.682e-3
-1.298, 1.709e-3
-1.299, 1.736e-3
-1.300, 1.762e-3
-1.301, 1.788e-3
-1.302, 1.817e-3
-1.303, 1.846e-3
-1.304, 1.873e-3
-1.305, 1.903e-3
-1.306, 1.932e-3
-1.307, 1.962e-3
-1.308, 1.990e-3
-1.309, 2.018e-3
-1.310, 2.051e-3
-1.311, 2.080e-3
-1.312, 2.109e-3
-1.313, 2.143e-3
-1.314, 2.173e-3
-1.315, 2.206e-3
-1.316, 2.235e-3
-1.317, 2.267e-3
-1.318, 2.299e-3
-1.319, 2.331e-3
-1.320, 2.368e-3
-1.321, 2.402e-3
-1.322, 2.434e-3
-1.323, 2.467e-3
-1.324, 2.500e-3
-1.325, 2.535e-3
-1.326, 2.570e-3
-1.327, 2.609e-3
-1.328, 2.643e-3
-1.329, 2.675e-3
-1.330, 2.710e-3
-1.331, 2.744e-3
-1.332, 2.779e-3
-1.333, 2.819e-3
-1.334, 2.855e-3
-1.335, 2.891e-3
-1.336, 2.929e-3
-1.337, 2.968e-3
-1.338, 3.000e-3
-1.339, 3.032e-3
-1.340, 3.078e-3
-1.341, 3.122e-3
-1.342, 3.161e-3
-1.343, 3.198e-3
-1.344, 3.231e-3
-1.345, 3.271e-3
-1.346, 3.315e-3
-1.347, 3.353e-3
-1.348, 3.395e-3
-1.349, 3.435e-3
-1.350, 3.475e-3
-1.351, 3.518e-3
-1.352, 3.549e-3
-1.353, 3.588e-3
-1.354, 3.635e-3
-1.355, 3.685e-3
-1.356, 3.722e-3
-1.357, 3.762e-3
-1.358, 3.803e-3
-1.359, 3.845e-3
-1.360, 3.890e-3
-1.361, 3.934e-3
-1.362, 3.977e-3
-1.363, 4.021e-3
-1.364, 4.063e-3
-1.365, 4.106e-3
-1.366, 4.153e-3
-1.367, 4.196e-3
-1.368, 4.240e-3
-1.369, 4.283e-3
-1.370, 4.332e-3
-1.371, 4.369e-3
-1.372, 4.414e-3
-1.373, 4.461e-3
-1.374, 4.509e-3
-1.375, 4.553e-3
-1.376, 4.598e-3
-1.377, 4.643e-3
-1.378, 4.688e-3
-1.379, 4.744e-3
-1.380, 4.789e-3
-1.381, 4.828e-3
-1.382, 4.875e-3
-1.383, 4.924e-3
-1.384, 4.980e-3
-1.385, 5.030e-3
-1.386, 5.070e-3
-1.387, 5.118e-3
-1.388, 5.166e-3
-1.389, 5.216e-3
-1.390, 5.263e-3
-1.391, 5.312e-3
-1.392, 5.360e-3
-1.393, 5.412e-3
-1.394, 5.461e-3
-1.395, 5.505e-3
-1.396, 5.555e-3
-1.397, 5.604e-3
-1.398, 5.662e-3
-1.399, 5.714e-3
-1.400, 5.699e-3
-1.399, 5.626e-3
-1.398, 5.568e-3
-1.397, 5.511e-3
-1.396, 5.459e-3
-1.395, 5.410e-3
-1.394, 5.354e-3
-1.393, 5.309e-3
-1.392, 5.259e-3
-1.391, 5.201e-3
-1.390, 5.145e-3
-1.389, 5.094e-3
-1.388, 5.047e-3
-1.387, 5.000e-3
-1.386, 4.946e-3
-1.385, 4.896e-3
-1.384, 4.848e-3
-1.383, 4.800e-3
-1.382, 4.742e-3
-1.381, 4.689e-3
-1.380, 4.650e-3
-1.379, 4.606e-3
-1.378, 4.558e-3
-1.377, 4.502e-3
-1.376, 4.449e-3
-1.375, 4.399e-3
-1.374, 4.358e-3
-1.373, 4.318e-3
-1.372, 4.273e-3
-1.371, 4.225e-3
-1.370, 4.174e-3
-1.369, 4.121e-3
-1.368, 4.074e-3
-1.367, 4.036e-3
-1.366, 3.997e-3
-1.365, 3.950e-3
-1.364, 3.896e-3
-1.363, 3.850e-3
-1.362, 3.807e-3
-1.361, 3.762e-3
-1.360, 3.726e-3
-1.359, 3.680e-3
-1.358, 3.635e-3
-1.357, 3.593e-3
-1.356, 3.545e-3
-1.355, 3.503e-3
-1.354, 3.462e-3
-1.353, 3.420e-3
-1.352, 3.380e-3
-1.351, 3.338e-3
-1.350, 3.298e-3
-1.349, 3.252e-3
-1.348, 3.206e-3
-1.347, 3.166e-3
-1.346, 3.132e-3
-1.345, 3.095e-3
-1.344, 3.054e-3
-1.343, 3.008e-3
-1.342, 2.969e-3
-1.341, 2.932e-3
-1.340, 2.893e-3
-1.339, 2.852e-3
-1.338, 2.818e-3
-1.337, 2.780e-3
-1.336, 2.744e-3
-1.335, 2.702e-3
-1.334, 2.662e-3
-1.333, 2.626e-3
-1.332, 2.592e-3
-1.331, 2.553e-3
-1.330, 2.520e-3
-1.329, 2.483e-3
-1.328, 2.447e-3
-1.327, 2.410e-3
-1.326, 2.374e-3
-1.325, 2.339e-3
-1.324, 2.305e-3
-1.323, 2.274e-3
-1.322, 2.239e-3
-1.321, 2.204e-3
-1.320, 2.171e-3
-1.319, 2.135e-3
-1.318, 2.104e-3
-1.317, 2.070e-3
-1.316, 2.038e-3
-1.315, 2.009e-3
-1.314, 1.975e-3
-1.313, 1.942e-3
-1.312, 1.912e-3
-1.311, 1.879e-3
-1.310, 1.847e-3
-1.309, 1.818e-3
-1.308, 1.789e-3
-1.307, 1.760e-3
-1.306, 1.731e-3
-1.305, 1.698e-3
-1.304, 1.665e-3
-1.303, 1.638e-3
-1.302, 1.613e-3
-1.301, 1.585e-3
-1.300, 1.557e-3
-1.299, 1.526e-3
-1.298, 1.498e-3
-1.297, 1.469e-3
-1.296, 1.442e-3
-1.295, 1.420e-3
-1.294, 1.394e-3
-1.293, 1.367e-3
-1.292, 1.340e-3
-1.291, 1.312e-3
-1.290, 1.286e-3
-1.289, 1.262e-3
-1.288, 1.240e-3
-1.287, 1.216e-3
-1.286, 1.191e-3
-1.285, 1.168e-3
-1.284, 1.142e-3
-1.283, 1.119e-3
-1.282, 1.096e-3
-1.281, 1.075e-3
-1.280, 1.052e-3
-1.279, 1.028e-3
-1.278, 1.006e-3
-1.277, 9.845e-4
-1.276, 9.626e-4
-1.275, 9.412e-4
-1.274, 9.207e-4
-1.273, 8.995e-4
-1.272, 8.804e-4
-1.271, 8.592e-4
-1.270, 8.396e-4
-1.269, 8.184e-4
-1.268, 7.990e-4
-1.267, 7.808e-4
-1.266, 7.612e-4
-1.265, 7.420e-4
-1.264, 7.226e-4
-1.263, 7.056e-4
-1.262, 6.879e-4
-1.261, 6.700e-4
-1.260, 6.529e-4
-1.259, 6.348e-4
-1.258, 6.181e-4
-1.257, 6.022e-4
-1.256, 5.853e-4
-1.255, 5.694e-4
-1.254, 5.526e-4
-1.253, 5.375e-4
-1.252, 5.224e-4
-1.251, 5.059e-4
-1.250, 4.919e-4
-1.249, 4.767e-4
-1.248, 4.627e-4
-1.247, 4.485e-4
-1.246, 4.331e-4
-1.245, 4.204e-4
-1.244, 4.063e-4
-1.243, 3.936e-4
-1.242, 3.802e-4
-1.241, 3.664e-4
-1.240, 3.548e-4
-1.239, 3.419e-4
-1.238, 3.297e-4
-1.237, 3.177e-4
-1.236, 3.048e-4
-1.235, 2.935e-4
-1.234, 2.824e-4
-1.233, 2.709e-4
-1.232, 2.601e-4
-1.231, 2.486e-4
-1.230, 2.386e-4
-1.229, 2.266e-4
-1.228, 2.164e-4
-1.227, 2.067e-4
-1.226, 1.968e-4
-1.225, 1.880e-4
-1.224, 1.781e-4
-1.223, 1.689e-4
-1.222, 1.592e-4
-1.221, 1.497e-4
-1.220, 1.416e-4
-1.219, 1.329e-4
-1.218, 1.245e-4
-1.217, 1.161e-4
-1.216, 1.076e-4
-1.215, 9.994e-5
-1.214, 9.147e-5
-1.213, 8.424e-5
-1.212, 7.703e-5
-1.211, 6.906e-5
-1.210, 6.253e-5
-1.209, 5.469e-5
-1.208, 4.806e-5
-1.207, 4.143e-5
-1.206, 3.403e-5
-1.205, 2.833e-5
-1.204, 2.117e-5
-1.203, 1.492e-5
-1.202, 9.124e-6
-1.201, 2.070e-6
-1.200, -2.528e-6
-1.199, -9.098e-6
-1.198, -1.459e-5
-1.197, -1.938e-5
-1.196, -2.572e-5
-1.195, -2.968e-5
-1.194, -3.565e-5
-1.193, -4.075e-5
-1.192, -4.457e-5
-1.191, -5.027e-5
-1.190, -5.418e-5
-1.189, -5.919e-5
-1.188, -6.381e-5
-1.187, -6.750e-5
-1.186, -7.247e-5
-1.185, -7.586e-5
-1.184, -8.038e-5
-1.183, -8.441e-5
-1.182, -8.807e-5
-1.181, -9.220e-5
-1.180, -9.504e-5
-1.179, -9.921e-5
-1.178, -1.029e-4
-1.177, -1.064e-4
-1.176, -1.099e-4
-1.175, -1.125e-4
-1.174, -1.162e-4
-1.173, -1.187e-4
-1.172, -1.216e-4
-1.171, -1.250e-4
-1.170, -1.273e-4
-1.169, -1.308e-4
-1.168, -1.330e-4
-1.167, -1.356e-4
-1.166, -1.389e-4
-1.165, -1.402e-4
-1.164, -1.435e-4
-1.163, -1.454e-4
-1.162, -1.475e-4
-1.161, -1.508e-4
-1.160, -1.518e-4
-1.159, -1.544e-4
-1.158, -1.566e-4
-1.157, -1.583e-4
-1.156, -1.608e-4
-1.155, -1.614e-4
-1.154, -1.640e-4
-1.153, -1.665e-4
-1.152, -1.674e-4
-1.151, -1.701e-4
-1.150, -1.708e-4
-1.149, -1.725e-4
-1.148, -1.743e-4
-1.147, -1.754e-4
-1.146, -1.779e-4
-1.145, -1.785e-4
-1.144, -1.804e-4
-1.143, -1.814e-4
-1.142, -1.825e-4
-1.141, -1.841e-4
-1.140, -1.850e-4
-1.139, -1.871e-4
-1.138, -1.880e-4
-1.137, -1.887e-4
-1.136, -1.903e-4
-1.135, -1.906e-4
-1.134, -1.926e-4
-1.133, -1.932e-4
-1.132, -1.939e-4
-1.131, -1.956e-4
-1.130, -1.960e-4
-1.129, -1.974e-4
-1.128, -1.978e-4
-1.127, -1.986e-4
-1.126, -2.006e-4
-1.125, -2.001e-4
-1.124, -2.014e-4
-1.123, -2.022e-4
-1.122, -2.025e-4
-1.121, -2.046e-4
-1.120, -2.038e-4
-1.119, -2.049e-4
-1.118, -2.059e-4
-1.117, -2.064e-4
-1.116, -2.079e-4
-1.115, -2.076e-4
-1.114, -2.082e-4
-1.113, -2.090e-4
-1.112, -2.091e-4
-1.111, -2.105e-4
-1.110, -2.102e-4
-1.109, -2.108e-4
-1.108, -2.117e-4
-1.107, -2.119e-4
-1.106, -2.127e-4
-1.105, -2.127e-4
-1.104, -2.132e-4
-1.103, -2.137e-4
-1.102, -2.143e-4
-1.101, -2.150e-4
-1.100, -2.144e-4
-1.099, -2.154e-4
-1.098, -2.160e-4
-1.097, -2.162e-4
-1.096, -2.163e-4
-1.095, -2.159e-4
-1.094, -2.173e-4
-1.093, -2.177e-4
-1.092, -2.174e-4
-1.091, -2.182e-4
-1.090, -2.178e-4
-1.089, -2.190e-4
-1.088, -2.192e-4
-1.087, -2.187e-4
-1.086, -2.198e-4
-1.085, -2.193e-4
-1.084, -2.205e-4
-1.083, -2.203e-4
-1.082, -2.198e-4
-1.081, -2.213e-4
-1.080, -2.207e-4
-1.079, -2.216e-4
-1.078, -2.216e-4
-1.077, -2.210e-4
-1.076, -2.226e-4
-1.075, -2.227e-4
-1.074, -2.224e-4
-1.073, -2.227e-4
-1.072, -2.221e-4
-1.071, -2.237e-4
-1.070, -2.231e-4
-1.069, -2.232e-4
-1.068, -2.234e-4
-1.067, -2.232e-4
-1.066, -2.244e-4
-1.065, -2.242e-4
-1.064, -2.239e-4
-1.063, -2.245e-4
-1.062, -2.242e-4
-1.061, -2.249e-4
-1.060, -2.251e-4
-1.059, -2.257e-4
-1.058, -2.255e-4
-1.057, -2.254e-4
-1.056, -2.260e-4
-1.055, -2.256e-4
-1.054, -2.263e-4
-1.053, -2.267e-4
-1.052, -2.264e-4
-1.051, -2.272e-4
-1.050, -2.266e-4
-1.049, -2.275e-4
-1.048, -2.271e-4
-1.047, -2.274e-4
-1.046, -2.286e-4
-1.045, -2.279e-4
-1.044, -2.280e-4
-1.043, -2.282e-4
-1.042, -2.281e-4
-1.041, -2.297e-4
-1.040, -2.290e-4
-1.039, -2.297e-4
-1.038, -2.295e-4
-1.037, -2.296e-4
-1.036, -2.308e-4
-1.035, -2.297e-4
-1.034, -2.301e-4
-1.033, -2.311e-4
-1.032, -2.310e-4
-1.031, -2.320e-4
-1.030, -2.311e-4
-1.029, -2.317e-4
-1.028, -2.326e-4
-1.027, -2.324e-4
-1.026, -2.330e-4
-1.025, -2.327e-4
-1.024, -2.339e-4
-1.023, -2.344e-4
-1.022, -2.342e-4
-1.021, -2.348e-4
-1.020, -2.345e-4
-1.019, -2.357e-4
-1.018, -2.357e-4
-1.017, -2.353e-4
-1.016, -2.369e-4
-1.015, -2.366e-4
-1.014, -2.375e-4
-1.013, -2.376e-4
-1.012, -2.375e-4
-1.011, -2.387e-4
-1.010, -2.386e-4
-1.009, -2.398e-4
-1.008, -2.401e-4
-1.007, -2.402e-4
-1.006, -2.413e-4
-1.005, -2.409e-4
-1.004, -2.420e-4
-1.003, -2.425e-4
-1.002, -2.429e-4
-1.001, -2.444e-4
