Potential V vs RHE, Current mA cm-2
0.013299999999999867,-0.2202705493889862
0.012299999999999978,-1.3107300193249565
0.011299999999999866,-2.1828995356917518
0.010299999999999976,-2.968064307116847
0.009299999999999864,-3.6655169779503103
0.008299999999999974,-4.23281620919619
0.007299999999999862,-4.756259390146253
0.006299999999999972,-5.235846520800501
0.00529999999999986,-5.629136262162981
0.0042999999999999705,-5.977155241929781
0.0032999999999998586,-6.326588932996443
0.0022999999999999687,-6.588310523471475
0.0012999999999998568,-6.850032113946507
0.00029999999999996696,-7.067897654125724
-0.000700000000000145,-7.28576319430494
-0.0017000000000000348,-7.461187395488204
-0.0027000000000001467,-7.591340835075788
-0.0037000000000000366,-7.7653503249591855
-0.0047000000000001485,-7.853062425550818
-0.005700000000000038,-7.984630576438266
-0.00670000000000015,-8.11478401602585
-0.00770000000000004,-8.202496116617484
-0.008700000000000152,-8.332649556205066
-0.009700000000000042,-8.376505606500881
-0.010700000000000154,-8.4203616567967
-0.011700000000000044,-8.508073757388331
-0.012700000000000156,-8.55051509638428
-0.013700000000000045,-8.594371146680096
-0.014700000000000157,-8.638227196975913
-0.015700000000000047,-8.725939297567548
-0.01670000000000016,-8.769795347863363
-0.01770000000000005,-8.769795347863363
-0.01870000000000016,-8.812236686859313
-0.01970000000000005,-8.812236686859313
-0.020700000000000163,-8.812236686859313
-0.021700000000000053,-8.85609273715513
-0.022700000000000164,-8.85609273715513
-0.023700000000000054,-8.85609273715513
-0.024700000000000166,-8.899948787450944
-0.025700000000000056,-8.899948787450944
-0.026700000000000168,-8.943804837746763
-0.027700000000000058,-8.943804837746763
-0.02870000000000017,-8.987660888042578
-0.02970000000000006,-8.987660888042578
-0.03070000000000017,-8.987660888042578
-0.03170000000000006,-8.987660888042578
-0.03270000000000017,-8.987660888042578
-0.03370000000000006,-8.987660888042578
-0.034700000000000175,-8.987660888042578
-0.035700000000000065,-9.031516938338395
-0.03670000000000018,-9.031516938338395
-0.03770000000000007,-9.073958277334345
-0.03870000000000018,-9.073958277334345
-0.03970000000000007,-9.073958277334345
-0.04070000000000018,-9.073958277334345
-0.04170000000000007,-9.073958277334345
-0.04270000000000018,-9.073958277334345
-0.04370000000000007,-9.073958277334345
-0.044700000000000184,-9.11781432763016
-0.045700000000000074,-9.11781432763016
-0.046700000000000186,-9.11781432763016
-0.047700000000000076,-9.11781432763016
-0.04870000000000019,-9.11781432763016
-0.04970000000000008,-9.11781432763016
-0.05070000000000019,-9.11781432763016
-0.05170000000000008,-9.11781432763016
-0.05270000000000019,-9.11781432763016
-0.05370000000000008,-9.11781432763016
-0.05470000000000019,-9.161670377925978
-0.05570000000000008,-9.161670377925978
-0.056700000000000195,-9.161670377925978
-0.057700000000000085,-9.205526428221793
-0.058700000000000196,-9.205526428221793
-0.059700000000000086,-9.205526428221793
-0.0607000000000002,-9.205526428221793
-0.06170000000000009,-9.205526428221793
-0.0627000000000002,-9.205526428221793
-0.06370000000000009,-9.205526428221793
-0.0647000000000002,-9.24938247851761
-0.06570000000000009,-9.24938247851761
-0.0667000000000002,-9.293238528813426
-0.0677000000000001,-9.293238528813426
-0.0687000000000002,-9.293238528813426
-0.0697000000000001,-9.24938247851761
-0.07070000000000021,-9.24938247851761
-0.0717000000000001,-9.24938247851761
-0.07270000000000021,-9.24938247851761
-0.0737000000000001,-9.24938247851761
-0.07470000000000021,-9.24938247851761
-0.0757000000000001,-9.293238528813426
-0.07670000000000021,-9.293238528813426
-0.0777000000000001,-9.293238528813426
-0.07870000000000021,-9.293238528813426
-0.0797000000000001,-9.293238528813426
-0.08070000000000022,-9.293238528813426
-0.0817000000000001,-9.293238528813426
-0.08270000000000022,-9.293238528813426
-0.08370000000000011,-9.293238528813426
-0.08470000000000022,-9.335679867809377
-0.08570000000000011,-9.335679867809377
-0.08670000000000022,-9.335679867809377
-0.08770000000000011,-9.335679867809377
-0.08870000000000022,-9.379535918105192
-0.08970000000000011,-9.379535918105192
-0.09070000000000022,-9.379535918105192
-0.09170000000000011,-9.379535918105192
-0.09270000000000023,-9.423391968401008
-0.09370000000000012,-9.423391968401008
-0.09470000000000023,-9.423391968401008
-0.09570000000000012,-9.423391968401008
-0.09670000000000023,-9.467248018696827
-0.09770000000000012,-9.467248018696827
-0.09870000000000023,-9.467248018696827
-0.09970000000000012,-9.467248018696827
-0.10070000000000023,-9.467248018696827
-0.10170000000000012,-9.467248018696827
-0.10270000000000024,-9.467248018696827
-0.10370000000000013,-9.467248018696827
-0.10470000000000024,-9.467248018696827
-0.10570000000000013,-9.467248018696827
-0.10670000000000024,-9.511104068992642
-0.10770000000000013,-9.511104068992642
-0.10870000000000024,-9.55496011928846
-0.10970000000000013,-9.55496011928846
-0.11070000000000024,-9.55496011928846
-0.11170000000000013,-9.55496011928846
-0.11270000000000002,-9.55496011928846
-0.11370000000000013,-9.55496011928846
-0.11470000000000002,-9.59740145828441
-0.11570000000000014,-9.59740145828441
-0.11670000000000003,-9.59740145828441
-0.11770000000000014,-9.641257508580225
-0.11870000000000003,-9.685113558876042
-0.11970000000000014,-9.641257508580225
-0.12070000000000003,-9.641257508580225
-0.12170000000000014,-9.641257508580225
-0.12270000000000003,-9.641257508580225
-0.12370000000000014,-9.685113558876042
-0.12470000000000003,-9.685113558876042
-0.12570000000000014,-9.685113558876042
-0.12670000000000003,-9.728969609171857
-0.12770000000000015,-9.728969609171857
-0.12870000000000004,-9.728969609171857
-0.12970000000000015,-9.772825659467674
-0.13070000000000004,-9.772825659467674
-0.13170000000000015,-9.772825659467674
-0.13270000000000004,-9.772825659467674
-0.13370000000000015,-9.772825659467674
-0.13470000000000004,-9.772825659467674
-0.13570000000000015,-9.81668170976349
-0.13670000000000004,-9.81668170976349
-0.13770000000000016,-9.81668170976349
-0.13870000000000005,-9.85912304875944
-0.13970000000000016,-9.902979099055257
-0.14070000000000005,-9.902979099055257
-0.14170000000000016,-9.902979099055257
-0.14270000000000005,-9.946835149351072
-0.14370000000000016,-9.946835149351072
-0.14470000000000005,-9.946835149351072
-0.14570000000000016,-9.99069119964689
-0.14670000000000005,-9.99069119964689
-0.14770000000000016,-10.034547249942705
-0.14870000000000005,-10.034547249942705
-0.14970000000000017,-10.078403300238522
-0.15070000000000006,-10.078403300238522
-0.15170000000000017,-10.078403300238522
-0.15270000000000006,-10.120844639234473
-0.15370000000000017,-10.120844639234473
-0.15470000000000006,-10.120844639234473
-0.15570000000000017,-10.164700689530287
-0.15670000000000006,-10.208556739826104
-0.15770000000000017,-10.208556739826104
-0.15870000000000006,-10.296268840417738
-0.15970000000000018,-10.296268840417738
-0.16070000000000007,-10.340124890713554
-0.16170000000000018,-10.382566229709504
-0.16270000000000007,-10.382566229709504
-0.16370000000000018,-10.382566229709504
-0.16470000000000007,-10.42642228000532
-0.16570000000000018,-10.470278330301136
-0.16670000000000007,-10.514134380596953
-0.16770000000000018,-10.557990430892769
-0.16870000000000007,-10.601846481188586
-0.16970000000000018,-10.644287820184536
-0.17070000000000007,-10.644287820184536
-0.17170000000000019,-10.688143870480351
-0.17270000000000008,-10.688143870480351
-0.1737000000000002,-10.731999920776168
-0.17470000000000008,-10.775855971071984
-0.1757000000000002,-10.819712021367803
-0.17670000000000008,-10.863568071663616
-0.1777000000000002,-10.906009410659568
-0.17870000000000008,-10.949865460955383
-0.1797000000000002,-10.993721511251199
-0.18070000000000008,-10.993721511251199
-0.1817000000000002,-11.037577561547016
-0.18270000000000008,-11.081433611842833
-0.1837000000000002,-11.123874950838783
-0.1847000000000001,-11.211587051430415
-0.1857000000000002,-11.255443101726232
-0.1867000000000001,-11.299299152022046
-0.1877000000000002,-11.385596541313816
-0.1887000000000001,-11.42945259160963
-0.1897000000000002,-11.517164692201263
-0.1907000000000001,-11.56102074249708
-0.1917000000000001,-11.604876792792895
-0.19269999999999998,-11.691174182084664
-0.1937000000000001,-11.73503023238048
-0.19469999999999998,-11.82274233297211
-0.1957000000000001,-11.909039722263879
-0.19669999999999999,-11.952895772559694
-0.1977000000000001,-12.040607873151327
-0.1987,-12.12831997374296
-0.1997000000000001,-12.170761312738911
-0.2007,-12.258473413330542
-0.2017000000000001,-12.302329463626359
-0.2027,-12.390041564217992
-0.2037000000000001,-12.476338953509758
-0.2047,-12.56405105410139
-0.2057000000000001,-12.607907104397206
-0.2067,-12.73806054398479
-0.2077000000000001,-12.781916594280606
-0.2087,-12.913484745168056
-0.2097000000000001,-12.99978213445982
-0.2107,-13.087494235051453
-0.2117000000000001,-13.217647674639037
-0.2127,-13.349215825526485
-0.2137000000000001,-13.436927926118118
-0.2147,-13.523225315409885
-0.2157000000000001,-13.654793466297335
-0.2167,-13.784946905884919
-0.21770000000000012,-13.872659006476551
-0.2187,-14.002812446064135
-0.21970000000000012,-14.13438059695158
-0.2207,-14.26028990263957
-0.22170000000000012,-14.345172580631472
-0.2227,-14.486643710617974
-0.22370000000000012,-14.61396772760583
-0.2247,-14.741291744593681
-0.22570000000000012,-14.868615761581536
-0.2267,-15.01008689156804
-0.22770000000000012,-15.137410908555893
-0.22870000000000001,-15.307176264539699
-0.22970000000000013,-15.448647394526201
-0.23070000000000002,-15.575971411514052
-0.23170000000000013,-15.70329542850191
-0.23270000000000002,-15.87306078448571
-0.23370000000000013,-16.014531914472215
-0.23470000000000002,-16.184297270456018
-0.23570000000000013,-16.354062626439823
-0.23670000000000002,-16.53797509542228
-0.2376999999999999,-16.70774045140608
-0.23870000000000002,-16.877505807389888
-0.2396999999999999,-17.018976937376394
-0.24070000000000003,-17.188742293360193
-0.24169999999999991,-17.358507649344002
-0.24270000000000003,-17.542420118326454
-0.24369999999999992,-17.75462681330621
-0.24470000000000003,-17.924392169290012
-0.24569999999999992,-18.15074597726842
-0.24670000000000003,-18.362952672248177
-0.24769999999999992,-18.589306480226583
-0.24870000000000003,-18.80151317520634
-0.24969999999999992,-19.01371987018609
-0.25070000000000003,-19.197632339168546
-0.2516999999999999,-19.409839034148305
-0.25270000000000004,-19.636192842126707
-0.2536999999999999,-19.848399537106463
-0.25470000000000004,-20.10304757108217
-0.2556999999999999,-20.329401379060574
-0.25670000000000004,-20.584049413036283
-0.25769999999999993,-20.85284456001064
-0.25870000000000004,-21.065051254990397
-0.25969999999999993,-21.333846401964752
-0.26070000000000004,-21.54605309694451
-0.26169999999999993,-21.814848243918867
-0.26270000000000004,-22.069496277894572
-0.26369999999999993,-22.33829142486893
-0.26470000000000005,-22.592939458844636
-0.26569999999999994,-22.904175944814945
-0.26670000000000005,-23.2012653177866
-0.26769999999999994,-23.47006046476096
-0.26870000000000005,-23.767149837732617
-0.26969999999999994,-24.035944984706973
-0.27070000000000005,-24.34718147067728
-0.27169999999999994,-24.64427084364894
-0.27270000000000005,-24.95550732961925
-0.27369999999999994,-25.252596702590903
-0.27470000000000006,-25.563833188561212
-0.27569999999999995,-25.86092256153287
-0.27670000000000006,-26.17215904750318
-0.27769999999999995,-26.483395533473487
-0.27870000000000006,-26.780484906445146
-0.27969999999999995,-27.091721392415455
-0.28070000000000006,-27.38881076538711
-0.28169999999999995,-27.742488590353368
-0.28270000000000006,-28.05372507632368
-0.28369999999999995,-28.393255788291288
-0.28470000000000006,-28.704492274261593
-0.28569999999999995,-29.058170099227848
-0.28670000000000007,-29.39770081119546
-0.28769999999999996,-29.751378636161718
-0.28870000000000007,-30.10505646112798
-0.28969999999999996,-30.444587173095588
-0.29070000000000007,-30.8407063370578
-0.29169999999999996,-31.23682550102001
-0.29270000000000007,-31.618797551983565
-0.29369999999999996,-32.05735805494172
-0.2947000000000001,-32.49591855789989
-0.29569999999999996,-32.892037721862096
-0.2967000000000001,-33.330598224820264
-0.29769999999999996,-33.670128936787876
-0.2987000000000001,-34.10868943974604
-0.29969999999999997,-34.50480860370825
-0.3007000000000001,-34.98581044566235
-0.30169999999999997,-35.42437094862052
-0.3027000000000001,-35.806342999584075
-0.30369999999999997,-36.244903502542236
-0.3047000000000001,-36.64102266650445
-0.30569999999999997,-37.037141830466666
-0.3067000000000001,-37.47570233342482
-0.3077,-37.90011572338433
-0.3087000000000001,-38.38111756533845
-0.3097,-38.81967806829661
-0.3107000000000001,-39.258238571254765
-0.3117,-39.696799074212926
-0.3127000000000001,-40.135359577171094
-0.3137,-40.559772967130606
-0.3147000000000001,-40.99833347008877
-0.3157,-41.52177665103883
-0.3167000000000001,-41.96033715399699
-0.3177,-42.4413389959511
-0.3187000000000001,-42.87989949890926
-0.3197,-43.36090134086337
-0.3207000000000001,-43.84190318281749
-0.3217,-44.3229050247716
-0.3227000000000001,-44.80390686672572
-0.3237,-45.36979138667173
-0.3247000000000001,-45.89323456762179
-0.3257,-46.41667774857186
-0.3267000000000001,-46.88353247752732
-0.3277,-47.36453431948143
-0.3287000000000001,-47.8879775004315
-0.3297,-48.36897934238561
-0.3307000000000001,-48.93486386233162
-0.3317,-49.50074838227763
-0.3327000000000001,-49.98175022423175
-0.3337,-50.50519340518181
-0.3347000000000001,-51.071077925127824
-0.3357,-51.594521106077885
-0.3367000000000001,-52.17455273902255
-0.3377,-52.69799591997262
-0.3387000000000001,-53.22143910092268
-0.3397,-53.74488228187274
-0.3407000000000001,-54.26832546282281
-0.3417,-54.834209982768826
-0.3427000000000001,-55.442535841710786
-0.3437,-56.093303039648696
-0.3447000000000001,-56.70162889859067
-0.3457,-57.30995475753264
-0.3467000000000001,-57.93242772947325
-0.3477,-58.498312249419264
-0.3487000000000001,-59.06419676936528
-0.3497,-59.587639950315335
-0.3507000000000001,-60.11108313126541
-0.3517,-60.71940899020737
-0.3527000000000001,-61.37017618814529
-0.3537,-61.97850204708726
-0.3547000000000001,-62.64341635802381
-0.3557,-63.251742216965795
-0.35670000000000013,-63.860068075907755
-0.3577,-64.46839393484973
-0.35870000000000013,-65.03427845479574
-0.3597,-65.60016297474175
-0.36070000000000013,-66.20848883368372
-0.3617,-66.81681469262568
-0.3626999999999999,-67.48172900356225
-0.3637,-68.0900548625042
-0.3646999999999999,-68.69838072144618
-0.3657,-69.30670658038814
-0.3666999999999999,-69.91503243933012
-0.3677,-70.53750541127073
-0.3686999999999999,-71.18827260920865
-0.36970000000000003,-71.8814811461425
-0.3706999999999999,-72.48980700508447
-0.37170000000000003,-73.15472131602105
-0.3726999999999999,-73.80548851395896
-0.37370000000000003,-74.49869705089283
-0.3746999999999999,-75.14946424883075
-0.37570000000000003,-75.77193722077136
-0.3766999999999999,-76.46514575770523
-0.37770000000000004,-77.11591295564315
-0.3786999999999999,-77.80912149257702
-0.37970000000000004,-78.51647714250953
-0.3806999999999999,-79.20968567944341
-0.38170000000000004,-79.90289421637728
-0.38269999999999993,-80.65269120530574
-0.38370000000000004,-81.3458997422396
-0.38469999999999993,-82.03910827917348
-0.38570000000000004,-82.70402259011003
-0.38669999999999993,-82.56255146012353
-0.38570000000000004,-81.1761343862558
-0.38469999999999993,-79.94533555537322
-0.38370000000000004,-78.9550376454677
-0.38269999999999993,-78.03547530055542
-0.38170000000000004,-77.1583542946391
-0.3806999999999999,-76.23879194972683
-0.37970000000000004,-75.29093537881725
-0.3786999999999999,-74.41381437290093
-0.37770000000000004,-73.57913470598055
-0.3766999999999999,-72.8859261690467
-0.37570000000000003,-72.10783495412092
-0.3746999999999999,-71.35803796519245
-0.37370000000000003,-70.62238808926263
-0.3726999999999999,-69.78770842234226
-0.37170000000000003,-68.96717586842054
-0.3706999999999999,-68.21737887949207
-0.36970000000000003,-67.52417034255821
-0.3686999999999999,-66.81681469262568
-0.3677,-66.12360615569182
-0.3666999999999999,-65.34551494076604
-0.3657,-64.59571795183757
-0.3646999999999999,-63.860068075907755
-0.3637,-63.11027108697928
-0.3626999999999999,-62.41706255004542
-0.3617,-61.72385401311155
-0.36070000000000013,-61.07308681517363
-0.3597,-60.32328982624517
-0.35870000000000013,-59.6300812893113
-0.3577,-58.880284300382826
-0.35670000000000013,-58.18707576344896
-0.3557,-57.493867226515086
-0.3547000000000001,-56.82895291557852
-0.3537,-56.1781857176406
-0.3527000000000001,-55.527418519702685
-0.3517,-54.834209982768826
-0.3507000000000001,-54.1268543328363
-0.3497,-53.433645795902436
-0.3487000000000001,-52.78287859796452
-0.3477,-52.11796428702795
-0.3467000000000001,-51.46719708909004
-0.3457,-50.85887123014807
-0.3447000000000001,-50.20810403221015
-0.3437,-49.50074838227763
-0.3427000000000001,-48.84998118433972
-0.3417,-48.156772647405845
-0.3407000000000001,-47.54844678846388
-0.3397,-46.88353247752732
-0.3387000000000001,-46.3176479575813
-0.3377,-45.70932209863933
-0.3367000000000001,-45.10099623969737
-0.3357,-44.4926703807554
-0.3347000000000001,-43.84190318281749
-0.3337,-43.27601866287147
-0.3327000000000001,-42.653545690930855
-0.3317,-42.04521983198889
-0.3307000000000001,-41.43689397304693
-0.3297,-40.78612677510901
-0.3287000000000001,-40.135359577171094
-0.3277,-39.56947505722508
-0.3267000000000001,-39.046031876275016
-0.3257,-38.46600024333035
-0.3247000000000001,-37.90011572338433
-0.3237,-37.291789864442364
-0.3227000000000001,-36.6834640055004
-0.3217,-36.07513814655844
-0.3207000000000001,-35.46681228761647
-0.3197,-34.90092776767045
-0.3187000000000001,-34.377484586720385
-0.3177,-33.81160006677438
-0.3167000000000001,-33.231568433829715
-0.3157,-32.66568391388369
-0.3147000000000001,-32.09979939393769
-0.3137,-31.49147353499572
-0.3127000000000001,-30.968030354045652
-0.3117,-30.444587173095588
-0.3107000000000001,-29.921143992145527
-0.3097,-29.35525947219951
-0.3087000000000001,-28.831816291249446
-0.3077,-28.308373110299385
-0.3067000000000001,-27.78492992934932
-0.30569999999999997,-27.261486748399253
-0.3047000000000001,-26.738043567449193
-0.30369999999999997,-26.257041725495082
-0.3027000000000001,-25.73359854454502
-0.30169999999999997,-25.252596702590903
-0.3007000000000001,-24.729153521640843
-0.29969999999999997,-24.24815167968673
-0.2987000000000001,-23.767149837732617
-0.29769999999999996,-23.300295108777156
-0.2967000000000001,-22.819293266823045
-0.29569999999999996,-22.295850085872978
-0.2947000000000001,-21.814848243918867
-0.29369999999999996,-21.333846401964752
-0.29270000000000007,-20.85284456001064
-0.29169999999999996,-20.371842718056527
-0.29070000000000007,-19.890840876102416
-0.28969999999999996,-19.409839034148305
-0.28870000000000007,-18.97127853119014
-0.28769999999999996,-18.53271802823198
-0.28670000000000007,-18.06586329927652
-0.28569999999999995,-17.627302796318357
-0.28470000000000006,-17.188742293360193
-0.28369999999999995,-16.792623129397985
-0.28270000000000006,-16.396503965435777
-0.28169999999999995,-15.972090575476265
-0.28070000000000006,-15.533530072518102
-0.27969999999999995,-15.094969569559943
-0.27870000000000006,-14.65640906660178
-0.27769999999999995,-14.26028990263957
-0.27670000000000006,-13.872659006476551
-0.27569999999999995,-13.47936926511407
-0.27470000000000006,-13.087494235051453
-0.27369999999999994,-12.651763154693022
-0.27270000000000005,-12.258473413330542
-0.27169999999999994,-11.86659838326793
-0.27070000000000005,-11.473308641905447
-0.26969999999999994,-11.081433611842833
-0.26870000000000005,-10.731999920776168
-0.26769999999999994,-10.340124890713554
-0.26670000000000005,-9.946835149351072
-0.26569999999999994,-9.59740145828441
-0.26470000000000005,-9.24938247851761
