Potential V vs RHE, Current mA cm-2
0.013299999999999867,-0.1766974413531431
0.012299999999999978,-1.1798692240874404
0.011299999999999866,-2.008890045808352
0.010299999999999976,-2.618630616050183
0.009299999999999864,-3.1859298472960624
0.008299999999999974,-3.579219588658543
0.007299999999999862,-3.971094618721158
0.006299999999999972,-4.276672259492005
0.00529999999999986,-4.582249900262854
0.0042999999999999705,-4.800115440442069
0.0032999999999998586,-4.974124930325469
0.0022999999999999687,-5.105693081212917
0.0012999999999998568,-5.235846520800501
0.00029999999999996696,-5.367414671687949
-0.000700000000000145,-5.453712060979717
-0.0017000000000000348,-5.585280211867165
-0.0027000000000001467,-5.629136262162981
-0.0037000000000000366,-5.672992312458796
-0.0047000000000001485,-5.715433651454749
-0.005700000000000038,-5.759289701750564
-0.00670000000000015,-5.80314575204638
-0.00770000000000004,-5.847001802342197
-0.008700000000000152,-5.890857852638012
-0.009700000000000042,-5.9347139029338285
-0.010700000000000154,-5.977155241929781
-0.011700000000000044,-5.977155241929781
-0.012700000000000156,-5.977155241929781
-0.013700000000000045,-6.021011292225596
-0.014700000000000157,-6.064867342521412
-0.015700000000000047,-6.064867342521412
-0.01670000000000016,-6.064867342521412
-0.01770000000000005,-6.064867342521412
-0.01870000000000016,-6.064867342521412
-0.01970000000000005,-6.108723392817228
-0.020700000000000163,-6.108723392817228
-0.021700000000000053,-6.108723392817228
-0.022700000000000164,-6.108723392817228
-0.023700000000000054,-6.108723392817228
-0.024700000000000166,-6.152579443113044
-0.025700000000000056,-6.108723392817228
-0.026700000000000168,-6.108723392817228
-0.027700000000000058,-6.152579443113044
-0.02870000000000017,-6.152579443113044
-0.02970000000000006,-6.152579443113044
-0.03070000000000017,-6.152579443113044
-0.03170000000000006,-6.152579443113044
-0.03270000000000017,-6.196435493408861
-0.03370000000000006,-6.196435493408861
-0.034700000000000175,-6.196435493408861
-0.035700000000000065,-6.238876832404812
-0.03670000000000018,-6.238876832404812
-0.03770000000000007,-6.196435493408861
-0.03870000000000018,-6.196435493408861
-0.03970000000000007,-6.196435493408861
-0.04070000000000018,-6.238876832404812
-0.04170000000000007,-6.238876832404812
-0.04270000000000018,-6.238876832404812
-0.04370000000000007,-6.238876832404812
-0.044700000000000184,-6.282732882700628
-0.045700000000000074,-6.238876832404812
-0.046700000000000186,-6.238876832404812
-0.047700000000000076,-6.282732882700628
-0.04870000000000019,-6.282732882700628
-0.04970000000000008,-6.282732882700628
-0.05070000000000019,-6.282732882700628
-0.05170000000000008,-6.282732882700628
-0.05270000000000019,-6.282732882700628
-0.05370000000000008,-6.282732882700628
-0.05470000000000019,-6.326588932996443
-0.05570000000000008,-6.326588932996443
-0.056700000000000195,-6.326588932996443
-0.057700000000000085,-6.326588932996443
-0.058700000000000196,-6.282732882700628
-0.059700000000000086,-6.282732882700628
-0.0607000000000002,-6.326588932996443
-0.06170000000000009,-6.326588932996443
-0.0627000000000002,-6.37044498329226
-0.06370000000000009,-6.326588932996443
-0.0647000000000002,-6.326588932996443
-0.06570000000000009,-6.326588932996443
-0.0667000000000002,-6.326588932996443
-0.0677000000000001,-6.37044498329226
-0.0687000000000002,-6.37044498329226
-0.0697000000000001,-6.37044498329226
-0.07070000000000021,-6.37044498329226
-0.0717000000000001,-6.37044498329226
-0.07270000000000021,-6.37044498329226
-0.0737000000000001,-6.37044498329226
-0.07470000000000021,-6.414301033588076
-0.0757000000000001,-6.414301033588076
-0.07670000000000021,-6.458157083883892
-0.0777000000000001,-6.458157083883892
-0.07870000000000021,-6.414301033588076
-0.0797000000000001,-6.414301033588076
-0.08070000000000022,-6.414301033588076
-0.0817000000000001,-6.458157083883892
-0.08270000000000022,-6.458157083883892
-0.08370000000000011,-6.458157083883892
-0.08470000000000022,-6.458157083883892
-0.08570000000000011,-6.458157083883892
-0.08670000000000022,-6.458157083883892
-0.08770000000000011,-6.500598422879844
-0.08870000000000022,-6.500598422879844
-0.08970000000000011,-6.500598422879844
-0.09070000000000022,-6.500598422879844
-0.09170000000000011,-6.500598422879844
-0.09270000000000023,-6.500598422879844
-0.09370000000000012,-6.500598422879844
-0.09470000000000023,-6.54445447317566
-0.09570000000000012,-6.54445447317566
-0.09670000000000023,-6.54445447317566
-0.09770000000000012,-6.54445447317566
-0.09870000000000023,-6.54445447317566
-0.09970000000000012,-6.54445447317566
-0.10070000000000023,-6.588310523471475
-0.10170000000000012,-6.588310523471475
-0.10270000000000024,-6.588310523471475
-0.10370000000000013,-6.588310523471475
-0.10470000000000024,-6.588310523471475
-0.10570000000000013,-6.588310523471475
-0.10670000000000024,-6.588310523471475
-0.10770000000000013,-6.632166573767292
-0.10870000000000024,-6.632166573767292
-0.10970000000000013,-6.632166573767292
-0.11070000000000024,-6.6760226240631075
-0.11170000000000013,-6.6760226240631075
-0.11270000000000002,-6.6760226240631075
-0.11370000000000013,-6.6760226240631075
-0.11470000000000002,-6.6760226240631075
-0.11570000000000014,-6.719878674358924
-0.11670000000000003,-6.719878674358924
-0.11770000000000014,-6.719878674358924
-0.11870000000000003,-6.719878674358924
-0.11970000000000014,-6.719878674358924
-0.12070000000000003,-6.762320013354876
-0.12170000000000014,-6.762320013354876
-0.12270000000000003,-6.762320013354876
-0.12370000000000014,-6.762320013354876
-0.12470000000000003,-6.762320013354876
-0.12570000000000014,-6.806176063650692
-0.12670000000000003,-6.806176063650692
-0.12770000000000015,-6.806176063650692
-0.12870000000000004,-6.850032113946507
-0.12970000000000015,-6.850032113946507
-0.13070000000000004,-6.850032113946507
-0.13170000000000015,-6.850032113946507
-0.13270000000000004,-6.850032113946507
-0.13370000000000015,-6.893888164242324
-0.13470000000000004,-6.893888164242324
-0.13570000000000015,-6.93774421453814
-0.13670000000000004,-6.893888164242324
-0.13770000000000016,-6.93774421453814
-0.13870000000000005,-6.93774421453814
-0.13970000000000016,-6.981600264833956
-0.14070000000000005,-6.981600264833956
-0.14170000000000016,-7.024041603829907
-0.14270000000000005,-7.024041603829907
-0.14370000000000016,-7.067897654125724
-0.14470000000000005,-7.067897654125724
-0.14570000000000016,-7.067897654125724
-0.14670000000000005,-7.111753704421539
-0.14770000000000016,-7.111753704421539
-0.14870000000000005,-7.155609754717355
-0.14970000000000017,-7.199465805013171
-0.15070000000000006,-7.199465805013171
-0.15170000000000017,-7.199465805013171
-0.15270000000000006,-7.243321855308987
-0.15370000000000017,-7.243321855308987
-0.15470000000000006,-7.28576319430494
-0.15570000000000017,-7.329619244600755
-0.15670000000000006,-7.329619244600755
-0.15770000000000017,-7.37347529489657
-0.15870000000000006,-7.4173313451923875
-0.15970000000000018,-7.4173313451923875
-0.16070000000000007,-7.461187395488204
-0.16170000000000018,-7.50504344578402
-0.16270000000000007,-7.50504344578402
-0.16370000000000018,-7.5474847847799715
-0.16470000000000007,-7.591340835075788
-0.16570000000000018,-7.591340835075788
-0.16670000000000007,-7.635196885371603
-0.16770000000000018,-7.679052935667419
-0.16870000000000007,-7.722908985963235
-0.16970000000000018,-7.7653503249591855
-0.17070000000000007,-7.7653503249591855
-0.17170000000000019,-7.853062425550818
-0.17270000000000008,-7.896918475846635
-0.1737000000000002,-7.940774526142452
-0.17470000000000008,-7.984630576438266
-0.1757000000000002,-7.984630576438266
-0.17670000000000008,-8.070927965730034
-0.1777000000000002,-8.070927965730034
-0.17870000000000008,-8.11478401602585
-0.1797000000000002,-8.158640066321666
-0.18070000000000008,-8.246352166913299
-0.1817000000000002,-8.288793505909249
-0.18270000000000008,-8.332649556205066
-0.1837000000000002,-8.4203616567967
-0.1847000000000001,-8.464217707092514
-0.1857000000000002,-8.508073757388331
-0.1867000000000001,-8.55051509638428
-0.1877000000000002,-8.638227196975913
-0.1887000000000001,-8.68208324727173
-0.1897000000000002,-8.769795347863363
-0.1907000000000001,-8.812236686859313
-0.1917000000000001,-8.899948787450944
-0.19269999999999998,-8.943804837746763
-0.1937000000000001,-9.031516938338395
-0.19469999999999998,-9.073958277334345
-0.1957000000000001,-9.205526428221793
-0.19669999999999999,-9.24938247851761
-0.1977000000000001,-9.293238528813426
-0.1987,-9.379535918105192
-0.1997000000000001,-9.511104068992642
-0.2007,-9.59740145828441
-0.2017000000000001,-9.685113558876042
-0.2027,-9.772825659467674
-0.2037000000000001,-9.85912304875944
-0.2047,-9.946835149351072
-0.2057000000000001,-9.99069119964689
-0.2067,-10.120844639234473
-0.2077000000000001,-10.208556739826104
-0.2087,-10.340124890713554
-0.2097000000000001,-10.42642228000532
-0.2107,-10.557990430892769
-0.2117000000000001,-10.644287820184536
-0.2127,-10.731999920776168
-0.2137000000000001,-10.863568071663616
-0.2147,-10.993721511251199
-0.2157000000000001,-11.1677310011346
-0.2167,-11.299299152022046
-0.21770000000000012,-11.385596541313816
-0.2187,-11.517164692201263
-0.21970000000000012,-11.647318131788847
-0.2207,-11.73503023238048
-0.22170000000000012,-11.909039722263879
-0.2227,-12.084463923447142
-0.22370000000000012,-12.170761312738911
-0.2247,-12.346185513922174
-0.22570000000000012,-12.476338953509758
-0.2267,-12.607907104397206
-0.22770000000000012,-12.73806054398479
-0.22870000000000001,-12.913484745168056
-0.22970000000000013,-13.087494235051453
-0.23070000000000002,-13.261503724934855
-0.23170000000000013,-13.436927926118118
-0.23270000000000002,-13.567081365705702
-0.23370000000000013,-13.741090855589102
-0.23470000000000002,-13.916515056772363
-0.23570000000000013,-14.13438059695158
-0.23670000000000002,-14.30273124163552
-0.2376999999999999,-14.486643710617974
-0.23870000000000002,-14.65640906660178
-0.2396999999999999,-14.826174422585586
-0.24070000000000003,-15.05252823056399
-0.24169999999999991,-15.264734925543747
-0.24270000000000003,-15.491088733522153
-0.24369999999999992,-15.660854089505953
-0.24470000000000003,-15.87306078448571
-0.24569999999999992,-16.099414592464115
-0.24670000000000003,-16.269179948447924
-0.24769999999999992,-16.495533756426326
-0.24870000000000003,-16.70774045140608
-0.24969999999999992,-16.962388485381787
-0.25070000000000003,-17.146300954364243
-0.2516999999999999,-17.358507649344002
-0.25270000000000004,-17.584861457322408
-0.2536999999999999,-17.839509491298113
-0.25470000000000004,-18.15074597726842
-0.2556999999999999,-18.40539401124413
-0.25670000000000004,-18.631747819222536
-0.25769999999999993,-18.843954514202288
-0.25870000000000004,-19.112749661176647
-0.25969999999999993,-19.409839034148305
-0.26070000000000004,-19.721075520118614
-0.26169999999999993,-19.97572355409432
-0.26270000000000004,-20.244518701068674
-0.26369999999999993,-20.499166735044383
-0.26470000000000005,-20.76796188201874
-0.26569999999999994,-21.022609915994444
-0.26670000000000005,-21.333846401964752
-0.26769999999999994,-21.67337711393236
-0.26870000000000005,-21.98461359990267
-0.26969999999999994,-22.295850085872978
-0.27070000000000005,-22.550498119848687
-0.27169999999999994,-22.819293266823045
-0.27270000000000005,-23.15882397879065
-0.27369999999999994,-23.55494314275286
-0.27470000000000006,-23.86617962872317
-0.27569999999999995,-24.16326900169483
-0.27670000000000006,-24.432064148669184
-0.27769999999999995,-24.771594860636792
-0.27870000000000006,-25.12527268560305
-0.27969999999999995,-25.478950510569312
-0.28070000000000006,-25.86092256153287
-0.28169999999999995,-26.17215904750318
-0.28270000000000006,-26.525836872469437
-0.28369999999999995,-26.86536758443705
-0.28470000000000006,-27.176604070407354
-0.28569999999999995,-27.572723234369565
-0.28670000000000007,-28.011283737327723
-0.28769999999999996,-28.393255788291288
-0.28870000000000007,-28.789374952253496
-0.28969999999999996,-29.100611438223805
-0.29070000000000007,-29.440142150191413
-0.29169999999999996,-29.836261314153624
-0.29270000000000007,-30.274821817111786
-0.29369999999999996,-30.670940981073993
-0.2947000000000001,-31.052913032037555
-0.29569999999999996,-31.49147353499572
-0.2967000000000001,-31.887592698957924
-0.29769999999999996,-32.283711862920136
-0.2987000000000001,-32.70812525287965
-0.29969999999999997,-33.10424441684186
-0.3007000000000001,-33.54280491980002
-0.30169999999999997,-34.02380676175414
-0.3027000000000001,-34.41992592571634
-0.30369999999999997,-34.85848642867451
-0.3047000000000001,-35.240458479638065
-0.30569999999999997,-35.679018982596226
-0.3067000000000001,-36.11757948555439
-0.3077,-36.55613998851254
-0.3087000000000001,-36.99470049147071
-0.3097,-37.41911388143023
-0.3107000000000001,-37.90011572338433
-0.3117,-38.33867622634249
-0.3127000000000001,-38.777236729300654
-0.3137,-39.21579723225882
-0.3147000000000001,-39.78168175220483
-0.3157,-40.34756627215084
-0.3167000000000001,-40.828568114104954
-0.3177,-41.267128617063115
-0.3187000000000001,-41.79057179801318
-0.3197,-42.3564563179592
-0.3207000000000001,-42.87989949890926
-0.3217,-43.31846000186743
-0.3227000000000001,-43.75702050482558
-0.3237,-44.3229050247716
-0.3247000000000001,-44.88878954471762
-0.3257,-45.412232725667685
-0.3267000000000001,-45.89323456762179
-0.3277,-46.37423640957591
-0.3287000000000001,-46.84109113853137
-0.3297,-47.40697565847737
-0.3307000000000001,-47.8879775004315
-0.3317,-48.41142068138156
-0.3327000000000001,-48.93486386233162
-0.3337,-49.557336834272235
-0.3347000000000001,-50.0807800152223
-0.3357,-50.60422319617236
-0.3367000000000001,-51.127666377122424
-0.3377,-51.69355089706845
-0.3387000000000001,-52.30187675601041
-0.3397,-52.95264395394832
-0.3407000000000001,-53.518528473894335
-0.3417,-54.08441299384035
-0.3427000000000001,-54.60785617479041
-0.3437,-55.088858016744524
-0.3447000000000001,-55.65474253669055
-0.3457,-56.1781857176406
-0.3467000000000001,-56.786511576582576
-0.3477,-57.45142588751914
-0.3487000000000001,-58.10219308545706
-0.3497,-58.62563626640712
-0.3507000000000001,-59.19152078635314
-0.3517,-59.7998466452951
-0.3527000000000001,-60.45061384323302
-0.3537,-61.11552815416958
-0.3547000000000001,-61.72385401311155
-0.3557,-62.33217987205352
-0.35670000000000013,-62.89806439199953
-0.3577,-63.54883158993744
-0.35870000000000013,-64.25618723986996
-0.3597,-64.86451309881193
-0.36070000000000013,-65.4728389577539
-0.3617,-65.99628213870396
-0.3626999999999999,-66.60460799764593
-0.3637,-67.17049251759194
-0.3646999999999999,-67.82125971552985
-0.3657,-68.48617402646643
-0.3666999999999999,-69.1793825634003
-0.3677,-69.8301497613382
-0.3686999999999999,-70.43847562028017
-0.36970000000000003,-71.10338993121674
-0.3706999999999999,-71.7965984681506
-0.37170000000000003,-72.48980700508447
-0.3726999999999999,-73.23960399401295
-0.37370000000000003,-73.97525386994278
-0.3746999999999999,-74.72505085887124
-0.37570000000000003,-75.4182593958051
-0.3766999999999999,-76.06902659374302
-0.37770000000000004,-76.71979379168094
-0.3786999999999999,-77.28567831162695
-0.37970000000000004,-77.95059262256353
-0.3806999999999999,-78.60135982050144
-0.38170000000000004,-79.20968567944341
-0.38269999999999993,-79.7755701993894
-0.38370000000000004,-80.46877873632329
-0.38469999999999993,-81.26101706424771
-0.38570000000000004,-81.95422560118158
-0.38669999999999993,-81.91178426218562
-0.38570000000000004,-80.61024986630979
-0.38469999999999993,-79.56336350440966
-0.38370000000000004,-78.64380115949739
-0.38269999999999993,-77.7242388145851
-0.38170000000000004,-76.81882358267148
-0.3806999999999999,-76.02658525474708
-0.37970000000000004,-75.4182593958051
-0.3786999999999999,-74.72505085887124
-0.37770000000000004,-73.8479298529549
-0.3766999999999999,-72.97080884703858
-0.37570000000000003,-72.19271763211282
-0.3746999999999999,-71.4004793041884
-0.37370000000000003,-70.70727076725453
-0.3726999999999999,-69.95747377832606
-0.37170000000000003,-69.13694122440434
-0.3706999999999999,-68.38714423547587
-0.36970000000000003,-67.693935698542
-0.3686999999999999,-66.9582858226122
-0.3677,-66.25093017267966
-0.3666999999999999,-65.51528029674984
-0.3657,-64.86451309881193
-0.3646999999999999,-64.15715744887942
-0.3637,-63.5063902509415
-0.3626999999999999,-62.855623053003576
-0.3617,-62.20485585506566
-0.36070000000000013,-61.49750020513315
-0.3597,-60.761850329203334
-0.35870000000000013,-59.9696120012789
-0.3577,-59.23396212534908
-0.35670000000000013,-58.54075358841522
-0.3557,-57.8333979384827
-0.3547000000000001,-57.182630740544774
-0.3537,-56.53186354260687
-0.3527000000000001,-55.7820665536784
-0.3517,-55.088858016744524
-0.3507000000000001,-54.480532157802564
-0.3497,-53.91464763785655
-0.3487000000000001,-53.30632177891458
-0.3477,-52.64140746797801
-0.3467000000000001,-51.90575759204819
-0.3457,-51.25499039411028
-0.3447000000000001,-50.73154721316022
-0.3437,-50.12322135421825
-0.3427000000000001,-49.458307043281685
-0.3417,-48.76509850634781
-0.3407000000000001,-48.114331308409895
-0.3397,-47.40697565847737
-0.3387000000000001,-46.79864979953541
-0.3377,-46.19032394059345
-0.3367000000000001,-45.53955674265553
-0.3357,-44.88878954471762
-0.3347000000000001,-44.28046368577565
-0.3337,-43.70043205283099
-0.3327000000000001,-43.09210619388902
-0.3317,-42.483780334947056
-0.3307000000000001,-41.91789581500104
-0.3297,-41.352011295055014
-0.3287000000000001,-40.78612677510901
-0.3277,-40.26268359415894
-0.3267000000000001,-39.696799074212926
-0.3257,-39.130914554266916
-0.3247000000000001,-38.522588695324956
-0.3237,-37.85767438438838
-0.3227000000000001,-37.291789864442364
-0.3217,-36.6834640055004
-0.3207000000000001,-36.11757948555439
-0.3197,-35.55169496560837
-0.3187000000000001,-35.02825178465831
-0.3177,-34.462367264712285
-0.3167000000000001,-33.89648274476628
-0.3157,-33.373039563816214
-0.3147000000000001,-32.892037721862096
-0.3137,-32.368594540912035
-0.3127000000000001,-31.84515135996197
-0.3117,-31.27926684001596
-0.3107000000000001,-30.7558236590659
-0.3097,-30.317263156107735
-0.3087000000000001,-29.793819975157668
-0.3077,-29.27037679420761
-0.3067000000000001,-28.704492274261593
-0.30569999999999997,-28.18104909331153
-0.3047000000000001,-27.700047251357418
-0.30369999999999997,-27.176604070407354
-0.3027000000000001,-26.65316088945729
-0.30169999999999997,-26.17215904750318
-0.3007000000000001,-25.648715866553115
-0.29969999999999997,-25.167714024599
-0.2987000000000001,-24.729153521640843
-0.29769999999999996,-24.24815167968673
-0.2967000000000001,-23.767149837732617
-0.29569999999999996,-23.300295108777156
-0.2947000000000001,-22.861734605818995
-0.29369999999999996,-22.42317410286083
-0.29270000000000007,-21.98461359990267
-0.29169999999999996,-21.54605309694451
-0.29070000000000007,-21.107492593986347
-0.28969999999999996,-20.626490752032236
-0.28870000000000007,-20.159636023076775
-0.28769999999999996,-19.721075520118614
-0.28670000000000007,-19.2400736781645
-0.28569999999999995,-18.843954514202288
-0.28470000000000006,-18.44783535024008
-0.28369999999999995,-18.009274847281915
-0.28270000000000006,-17.584861457322408
-0.28169999999999995,-17.188742293360193
-0.28070000000000006,-16.792623129397985
-0.27969999999999995,-16.438945304431726
-0.27870000000000006,-16.056973253468165
-0.27769999999999995,-15.618412750510005
-0.27670000000000006,-15.222293586547794
-0.27569999999999995,-14.826174422585586
-0.27470000000000006,-14.486643710617974
-0.27369999999999994,-14.090524546655764
-0.27270000000000005,-13.741090855589102
-0.27169999999999994,-13.349215825526485
-0.27070000000000005,-12.955926084164007
-0.26969999999999994,-12.607907104397206
-0.26870000000000005,-12.214617363034726
-0.26769999999999994,-11.86659838326793
-0.26670000000000005,-11.473308641905447
-0.26569999999999994,-11.123874950838783
-0.26470000000000005,-10.819712021367803
-0.26369999999999993,-10.470278330301136
