Sept. 12, 2024   08:52:08
Cyclic Voltammetry
File: c:/users/guazh/data/20240903_batch_252_500/2024-09-03-exp332\exp332-2024-09-12t08_44_48-h2koh\exp332_cv_sr_400mvs_efin_-1400mv.bin
Data Source:  Experiment
Instrument Model:  CHI760E
Header: CV ran at 400 mVs
Note: 

Init E (V) = -1
High E (V) = -1
Low E (V) = -1.4
Final E (V) = -1
Init P/N = N
Scan Rate (V/s) = 0.4
Segment = 3
Sample Interval (V) = 0.001
Quiet Time (sec) = 2
Sensitivity (A/V) = 0.01
Comp R (ohm) = 2.1

Results:

Channel 1:
Segment 1:

Segment 2:

Segment 3:

Potential/V, Current/A

-1.000, 1.249e-5
-1.001, 8.340e-5
-1.002, 1.420e-4
-1.003, 1.851e-4
-1.004, 2.252e-4
-1.005, 2.530e-4
-1.006, 2.807e-4
-1.007, 3.023e-4
-1.008, 3.239e-4
-1.009, 3.393e-4
-1.010, 3.516e-4
-1.011, 3.609e-4
-1.012, 3.701e-4
-1.013, 3.794e-4
-1.014, 3.855e-4
-1.015, 3.948e-4
-1.016, 3.979e-4
-1.017, 4.010e-4
-1.018, 4.040e-4
-1.019, 4.071e-4
-1.020, 4.102e-4
-1.021, 4.133e-4
-1.022, 4.164e-4
-1.023, 4.195e-4
-1.024, 4.225e-4
-1.025, 4.225e-4
-1.026, 4.225e-4
-1.027, 4.256e-4
-1.028, 4.287e-4
-1.029, 4.287e-4
-1.030, 4.287e-4
-1.031, 4.287e-4
-1.032, 4.287e-4
-1.033, 4.318e-4
-1.034, 4.318e-4
-1.035, 4.318e-4
-1.036, 4.318e-4
-1.037, 4.318e-4
-1.038, 4.349e-4
-1.039, 4.318e-4
-1.040, 4.318e-4
-1.041, 4.349e-4
-1.042, 4.349e-4
-1.043, 4.349e-4
-1.044, 4.349e-4
-1.045, 4.349e-4
-1.046, 4.380e-4
-1.047, 4.380e-4
-1.048, 4.380e-4
-1.049, 4.410e-4
-1.050, 4.410e-4
-1.051, 4.380e-4
-1.052, 4.380e-4
-1.053, 4.380e-4
-1.054, 4.410e-4
-1.055, 4.410e-4
-1.056, 4.410e-4
-1.057, 4.410e-4
-1.058, 4.441e-4
-1.059, 4.410e-4
-1.060, 4.410e-4
-1.061, 4.441e-4
-1.062, 4.441e-4
-1.063, 4.441e-4
-1.064, 4.441e-4
-1.065, 4.441e-4
-1.066, 4.441e-4
-1.067, 4.441e-4
-1.068, 4.472e-4
-1.069, 4.472e-4
-1.070, 4.472e-4
-1.071, 4.472e-4
-1.072, 4.441e-4
-1.073, 4.441e-4
-1.074, 4.472e-4
-1.075, 4.472e-4
-1.076, 4.503e-4
-1.077, 4.472e-4
-1.078, 4.472e-4
-1.079, 4.472e-4
-1.080, 4.472e-4
-1.081, 4.503e-4
-1.082, 4.503e-4
-1.083, 4.503e-4
-1.084, 4.503e-4
-1.085, 4.503e-4
-1.086, 4.503e-4
-1.087, 4.503e-4
-1.088, 4.534e-4
-1.089, 4.534e-4
-1.090, 4.565e-4
-1.091, 4.565e-4
-1.092, 4.534e-4
-1.093, 4.534e-4
-1.094, 4.534e-4
-1.095, 4.565e-4
-1.096, 4.565e-4
-1.097, 4.565e-4
-1.098, 4.565e-4
-1.099, 4.565e-4
-1.100, 4.565e-4
-1.101, 4.595e-4
-1.102, 4.595e-4
-1.103, 4.595e-4
-1.104, 4.595e-4
-1.105, 4.595e-4
-1.106, 4.595e-4
-1.107, 4.595e-4
-1.108, 4.626e-4
-1.109, 4.626e-4
-1.110, 4.626e-4
-1.111, 4.626e-4
-1.112, 4.626e-4
-1.113, 4.626e-4
-1.114, 4.657e-4
-1.115, 4.657e-4
-1.116, 4.657e-4
-1.117, 4.657e-4
-1.118, 4.657e-4
-1.119, 4.657e-4
-1.120, 4.657e-4
-1.121, 4.688e-4
-1.122, 4.688e-4
-1.123, 4.688e-4
-1.124, 4.719e-4
-1.125, 4.719e-4
-1.126, 4.719e-4
-1.127, 4.719e-4
-1.128, 4.719e-4
-1.129, 4.750e-4
-1.130, 4.750e-4
-1.131, 4.750e-4
-1.132, 4.750e-4
-1.133, 4.750e-4
-1.134, 4.780e-4
-1.135, 4.780e-4
-1.136, 4.780e-4
-1.137, 4.780e-4
-1.138, 4.780e-4
-1.139, 4.811e-4
-1.140, 4.811e-4
-1.141, 4.811e-4
-1.142, 4.842e-4
-1.143, 4.842e-4
-1.144, 4.842e-4
-1.145, 4.842e-4
-1.146, 4.842e-4
-1.147, 4.873e-4
-1.148, 4.873e-4
-1.149, 4.904e-4
-1.150, 4.873e-4
-1.151, 4.904e-4
-1.152, 4.904e-4
-1.153, 4.935e-4
-1.154, 4.935e-4
-1.155, 4.965e-4
-1.156, 4.965e-4
-1.157, 4.996e-4
-1.158, 4.996e-4
-1.159, 4.996e-4
-1.160, 5.027e-4
-1.161, 5.027e-4
-1.162, 5.058e-4
-1.163, 5.089e-4
-1.164, 5.089e-4
-1.165, 5.089e-4
-1.166, 5.120e-4
-1.167, 5.120e-4
-1.168, 5.150e-4
-1.169, 5.181e-4
-1.170, 5.181e-4
-1.171, 5.212e-4
-1.172, 5.243e-4
-1.173, 5.243e-4
-1.174, 5.274e-4
-1.175, 5.305e-4
-1.176, 5.305e-4
-1.177, 5.335e-4
-1.178, 5.366e-4
-1.179, 5.366e-4
-1.180, 5.397e-4
-1.181, 5.428e-4
-1.182, 5.459e-4
-1.183, 5.489e-4
-1.184, 5.489e-4
-1.185, 5.551e-4
-1.186, 5.582e-4
-1.187, 5.613e-4
-1.188, 5.644e-4
-1.189, 5.644e-4
-1.190, 5.705e-4
-1.191, 5.705e-4
-1.192, 5.736e-4
-1.193, 5.767e-4
-1.194, 5.829e-4
-1.195, 5.859e-4
-1.196, 5.890e-4
-1.197, 5.952e-4
-1.198, 5.983e-4
-1.199, 6.014e-4
-1.200, 6.044e-4
-1.201, 6.106e-4
-1.202, 6.137e-4
-1.203, 6.199e-4
-1.204, 6.229e-4
-1.205, 6.291e-4
-1.206, 6.322e-4
-1.207, 6.384e-4
-1.208, 6.414e-4
-1.209, 6.507e-4
-1.210, 6.538e-4
-1.211, 6.569e-4
-1.212, 6.630e-4
-1.213, 6.723e-4
-1.214, 6.784e-4
-1.215, 6.846e-4
-1.216, 6.908e-4
-1.217, 6.969e-4
-1.218, 7.031e-4
-1.219, 7.062e-4
-1.220, 7.154e-4
-1.221, 7.216e-4
-1.222, 7.309e-4
-1.223, 7.370e-4
-1.224, 7.463e-4
-1.225, 7.524e-4
-1.226, 7.586e-4
-1.227, 7.679e-4
-1.228, 7.771e-4
-1.229, 7.894e-4
-1.230, 7.987e-4
-1.231, 8.048e-4
-1.232, 8.141e-4
-1.233, 8.233e-4
-1.234, 8.295e-4
-1.235, 8.418e-4
-1.236, 8.542e-4
-1.237, 8.603e-4
-1.238, 8.727e-4
-1.239, 8.819e-4
-1.240, 8.912e-4
-1.241, 9.004e-4
-1.242, 9.128e-4
-1.243, 9.251e-4
-1.244, 9.374e-4
-1.245, 9.498e-4
-1.246, 9.590e-4
-1.247, 9.713e-4
-1.248, 9.837e-4
-1.249, 9.991e-4
-1.250, 1.011e-3
-1.251, 1.024e-3
-1.252, 1.036e-3
-1.253, 1.048e-3
-1.254, 1.064e-3
-1.255, 1.079e-3
-1.256, 1.095e-3
-1.257, 1.107e-3
-1.258, 1.122e-3
-1.259, 1.138e-3
-1.260, 1.150e-3
-1.261, 1.166e-3
-1.262, 1.181e-3
-1.263, 1.199e-3
-1.264, 1.212e-3
-1.265, 1.227e-3
-1.266, 1.243e-3
-1.267, 1.261e-3
-1.268, 1.283e-3
-1.269, 1.301e-3
-1.270, 1.317e-3
-1.271, 1.332e-3
-1.272, 1.351e-3
-1.273, 1.372e-3
-1.274, 1.394e-3
-1.275, 1.412e-3
-1.276, 1.431e-3
-1.277, 1.449e-3
-1.278, 1.468e-3
-1.279, 1.486e-3
-1.280, 1.508e-3
-1.281, 1.532e-3
-1.282, 1.554e-3
-1.283, 1.576e-3
-1.284, 1.594e-3
-1.285, 1.613e-3
-1.286, 1.637e-3
-1.287, 1.665e-3
-1.288, 1.687e-3
-1.289, 1.708e-3
-1.290, 1.727e-3
-1.291, 1.751e-3
-1.292, 1.776e-3
-1.293, 1.801e-3
-1.294, 1.828e-3
-1.295, 1.850e-3
-1.296, 1.875e-3
-1.297, 1.899e-3
-1.298, 1.921e-3
-1.299, 1.949e-3
-1.300, 1.980e-3
-1.301, 2.007e-3
-1.302, 2.035e-3
-1.303, 2.057e-3
-1.304, 2.081e-3
-1.305, 2.109e-3
-1.306, 2.140e-3
-1.307, 2.168e-3
-1.308, 2.195e-3
-1.309, 2.226e-3
-1.310, 2.254e-3
-1.311, 2.282e-3
-1.312, 2.312e-3
-1.313, 2.340e-3
-1.314, 2.371e-3
-1.315, 2.405e-3
-1.316, 2.433e-3
-1.317, 2.464e-3
-1.318, 2.491e-3
-1.319, 2.522e-3
-1.320, 2.553e-3
-1.321, 2.584e-3
-1.322, 2.615e-3
-1.323, 2.645e-3
-1.324, 2.679e-3
-1.325, 2.710e-3
-1.326, 2.741e-3
-1.327, 2.772e-3
-1.328, 2.812e-3
-1.329, 2.852e-3
-1.330, 2.886e-3
-1.331, 2.917e-3
-1.332, 2.954e-3
-1.333, 2.994e-3
-1.334, 3.031e-3
-1.335, 3.062e-3
-1.336, 3.093e-3
-1.337, 3.133e-3
-1.338, 3.173e-3
-1.339, 3.210e-3
-1.340, 3.244e-3
-1.341, 3.278e-3
-1.342, 3.311e-3
-1.343, 3.351e-3
-1.344, 3.385e-3
-1.345, 3.422e-3
-1.346, 3.459e-3
-1.347, 3.503e-3
-1.348, 3.540e-3
-1.349, 3.577e-3
-1.350, 3.614e-3
-1.351, 3.654e-3
-1.352, 3.697e-3
-1.353, 3.743e-3
-1.354, 3.783e-3
-1.355, 3.823e-3
-1.356, 3.860e-3
-1.357, 3.894e-3
-1.358, 3.934e-3
-1.359, 3.971e-3
-1.360, 4.014e-3
-1.361, 4.061e-3
-1.362, 4.107e-3
-1.363, 4.144e-3
-1.364, 4.184e-3
-1.365, 4.227e-3
-1.366, 4.273e-3
-1.367, 4.320e-3
-1.368, 4.363e-3
-1.369, 4.406e-3
-1.370, 4.446e-3
-1.371, 4.492e-3
-1.372, 4.542e-3
-1.373, 4.585e-3
-1.374, 4.628e-3
-1.375, 4.665e-3
-1.376, 4.708e-3
-1.377, 4.748e-3
-1.378, 4.794e-3
-1.379, 4.841e-3
-1.380, 4.890e-3
-1.381, 4.936e-3
-1.382, 4.979e-3
-1.383, 5.026e-3
-1.384, 5.075e-3
-1.385, 5.124e-3
-1.386, 5.177e-3
-1.387, 5.229e-3
-1.388, 5.282e-3
-1.389, 5.331e-3
-1.390, 5.377e-3
-1.391, 5.423e-3
-1.392, 5.463e-3
-1.393, 5.510e-3
-1.394, 5.556e-3
-1.395, 5.599e-3
-1.396, 5.639e-3
-1.397, 5.688e-3
-1.398, 5.744e-3
-1.399, 5.793e-3
-1.400, 5.790e-3
-1.399, 5.698e-3
-1.398, 5.624e-3
-1.397, 5.559e-3
-1.396, 5.494e-3
-1.395, 5.430e-3
-1.394, 5.374e-3
-1.393, 5.331e-3
-1.392, 5.282e-3
-1.391, 5.220e-3
-1.390, 5.158e-3
-1.389, 5.103e-3
-1.388, 5.047e-3
-1.387, 4.998e-3
-1.386, 4.945e-3
-1.385, 4.887e-3
-1.384, 4.834e-3
-1.383, 4.785e-3
-1.382, 4.733e-3
-1.381, 4.683e-3
-1.380, 4.631e-3
-1.379, 4.585e-3
-1.378, 4.535e-3
-1.377, 4.489e-3
-1.376, 4.443e-3
-1.375, 4.397e-3
-1.374, 4.347e-3
-1.373, 4.295e-3
-1.372, 4.239e-3
-1.371, 4.187e-3
-1.370, 4.138e-3
-1.369, 4.088e-3
-1.368, 4.042e-3
-1.367, 3.996e-3
-1.366, 3.943e-3
-1.365, 3.894e-3
-1.364, 3.851e-3
-1.363, 3.811e-3
-1.362, 3.768e-3
-1.361, 3.721e-3
-1.360, 3.669e-3
-1.359, 3.623e-3
-1.358, 3.586e-3
-1.357, 3.543e-3
-1.356, 3.496e-3
-1.355, 3.447e-3
-1.354, 3.401e-3
-1.353, 3.351e-3
-1.352, 3.308e-3
-1.351, 3.265e-3
-1.350, 3.219e-3
-1.349, 3.173e-3
-1.348, 3.130e-3
-1.347, 3.089e-3
-1.346, 3.046e-3
-1.345, 3.003e-3
-1.344, 2.963e-3
-1.343, 2.923e-3
-1.342, 2.883e-3
-1.341, 2.846e-3
-1.340, 2.806e-3
-1.339, 2.766e-3
-1.338, 2.723e-3
-1.337, 2.676e-3
-1.336, 2.636e-3
-1.335, 2.593e-3
-1.334, 2.553e-3
-1.333, 2.513e-3
-1.332, 2.476e-3
-1.331, 2.436e-3
-1.330, 2.396e-3
-1.329, 2.359e-3
-1.328, 2.325e-3
-1.327, 2.288e-3
-1.326, 2.251e-3
-1.325, 2.211e-3
-1.324, 2.174e-3
-1.323, 2.143e-3
-1.322, 2.106e-3
-1.321, 2.069e-3
-1.320, 2.029e-3
-1.319, 1.992e-3
-1.318, 1.958e-3
-1.317, 1.921e-3
-1.316, 1.884e-3
-1.315, 1.850e-3
-1.314, 1.813e-3
-1.313, 1.779e-3
-1.312, 1.748e-3
-1.311, 1.714e-3
-1.310, 1.680e-3
-1.309, 1.647e-3
-1.308, 1.616e-3
-1.307, 1.585e-3
-1.306, 1.554e-3
-1.305, 1.523e-3
-1.304, 1.492e-3
-1.303, 1.458e-3
-1.302, 1.425e-3
-1.301, 1.394e-3
-1.300, 1.360e-3
-1.299, 1.332e-3
-1.298, 1.304e-3
-1.297, 1.273e-3
-1.296, 1.243e-3
-1.295, 1.215e-3
-1.294, 1.187e-3
-1.293, 1.162e-3
-1.292, 1.135e-3
-1.291, 1.104e-3
-1.290, 1.076e-3
-1.289, 1.048e-3
-1.288, 1.024e-3
-1.287, 9.960e-4
-1.286, 9.713e-4
-1.285, 9.436e-4
-1.284, 9.158e-4
-1.283, 8.912e-4
-1.282, 8.634e-4
-1.281, 8.388e-4
-1.280, 8.110e-4
-1.279, 7.863e-4
-1.278, 7.648e-4
-1.277, 7.401e-4
-1.276, 7.154e-4
-1.275, 6.908e-4
-1.274, 6.661e-4
-1.273, 6.476e-4
-1.272, 6.260e-4
-1.271, 6.044e-4
-1.270, 5.829e-4
-1.269, 5.613e-4
-1.268, 5.366e-4
-1.267, 5.150e-4
-1.266, 4.935e-4
-1.265, 4.750e-4
-1.264, 4.534e-4
-1.263, 4.318e-4
-1.262, 4.102e-4
-1.261, 3.917e-4
-1.260, 3.732e-4
-1.259, 3.547e-4
-1.258, 3.393e-4
-1.257, 3.177e-4
-1.256, 2.992e-4
-1.255, 2.807e-4
-1.254, 2.622e-4
-1.253, 2.468e-4
-1.252, 2.283e-4
-1.251, 2.129e-4
-1.250, 1.975e-4
-1.249, 1.759e-4
-1.248, 1.605e-4
-1.247, 1.451e-4
-1.246, 1.266e-4
-1.245, 1.142e-4
-1.244, 9.882e-5
-1.243, 8.340e-5
-1.242, 6.798e-5
-1.241, 5.257e-5
-1.240, 3.715e-5
-1.239, 2.482e-5
-1.238, 9.405e-6
-1.237, -2.927e-6
-1.236, -1.834e-5
-1.235, -3.068e-5
-1.234, -4.609e-5
-1.233, -5.842e-5
-1.232, -6.767e-5
-1.231, -8.000e-5
-1.230, -9.234e-5
-1.229, -1.078e-4
-1.228, -1.201e-4
-1.227, -1.293e-4
-1.226, -1.417e-4
-1.225, -1.509e-4
-1.224, -1.602e-4
-1.223, -1.725e-4
-1.222, -1.848e-4
-1.221, -1.972e-4
-1.220, -2.064e-4
-1.219, -2.157e-4
-1.218, -2.249e-4
-1.217, -2.342e-4
-1.216, -2.434e-4
-1.215, -2.527e-4
-1.214, -2.619e-4
-1.213, -2.681e-4
-1.212, -2.804e-4
-1.211, -2.866e-4
-1.210, -2.958e-4
-1.209, -3.051e-4
-1.208, -3.112e-4
-1.207, -3.205e-4
-1.206, -3.267e-4
-1.205, -3.359e-4
-1.204, -3.421e-4
-1.203, -3.513e-4
-1.202, -3.575e-4
-1.201, -3.667e-4
-1.200, -3.698e-4
-1.199, -3.791e-4
-1.198, -3.821e-4
-1.197, -3.914e-4
-1.196, -3.976e-4
-1.195, -4.006e-4
-1.194, -4.099e-4
-1.193, -4.161e-4
-1.192, -4.191e-4
-1.191, -4.253e-4
-1.190, -4.315e-4
-1.189, -4.376e-4
-1.188, -4.438e-4
-1.187, -4.469e-4
-1.186, -4.531e-4
-1.185, -4.561e-4
-1.184, -4.623e-4
-1.183, -4.685e-4
-1.182, -4.716e-4
-1.181, -4.746e-4
-1.180, -4.808e-4
-1.179, -4.839e-4
-1.178, -4.901e-4
-1.177, -4.931e-4
-1.176, -4.962e-4
-1.175, -4.993e-4
-1.174, -5.055e-4
-1.173, -5.086e-4
-1.172, -5.116e-4
-1.171, -5.147e-4
-1.170, -5.178e-4
-1.169, -5.209e-4
-1.168, -5.271e-4
-1.167, -5.301e-4
-1.166, -5.332e-4
-1.165, -5.332e-4
-1.164, -5.394e-4
-1.163, -5.394e-4
-1.162, -5.456e-4
-1.161, -5.486e-4
-1.160, -5.517e-4
-1.159, -5.548e-4
-1.158, -5.548e-4
-1.157, -5.579e-4
-1.156, -5.610e-4
-1.155, -5.641e-4
-1.154, -5.671e-4
-1.153, -5.671e-4
-1.152, -5.702e-4
-1.151, -5.702e-4
-1.150, -5.733e-4
-1.149, -5.764e-4
-1.148, -5.795e-4
-1.147, -5.795e-4
-1.146, -5.826e-4
-1.145, -5.856e-4
-1.144, -5.856e-4
-1.143, -5.887e-4
-1.142, -5.918e-4
-1.141, -5.918e-4
-1.140, -5.949e-4
-1.139, -5.949e-4
-1.138, -5.980e-4
-1.137, -5.980e-4
-1.136, -6.011e-4
-1.135, -6.011e-4
-1.134, -6.041e-4
-1.133, -6.041e-4
-1.132, -6.072e-4
-1.131, -6.072e-4
-1.130, -6.072e-4
-1.129, -6.103e-4
-1.128, -6.103e-4
-1.127, -6.134e-4
-1.126, -6.165e-4
-1.125, -6.165e-4
-1.124, -6.165e-4
-1.123, -6.165e-4
-1.122, -6.195e-4
-1.121, -6.226e-4
-1.120, -6.226e-4
-1.119, -6.257e-4
-1.118, -6.226e-4
-1.117, -6.257e-4
-1.116, -6.288e-4
-1.115, -6.288e-4
-1.114, -6.288e-4
-1.113, -6.288e-4
-1.112, -6.288e-4
-1.111, -6.319e-4
-1.110, -6.319e-4
-1.109, -6.319e-4
-1.108, -6.350e-4
-1.107, -6.350e-4
-1.106, -6.350e-4
-1.105, -6.350e-4
-1.104, -6.380e-4
-1.103, -6.380e-4
-1.102, -6.411e-4
-1.101, -6.411e-4
-1.100, -6.411e-4
-1.099, -6.411e-4
-1.098, -6.411e-4
-1.097, -6.442e-4
-1.096, -6.442e-4
-1.095, -6.442e-4
-1.094, -6.442e-4
-1.093, -6.473e-4
-1.092, -6.473e-4
-1.091, -6.473e-4
-1.090, -6.473e-4
-1.089, -6.504e-4
-1.088, -6.504e-4
-1.087, -6.504e-4
-1.086, -6.535e-4
-1.085, -6.535e-4
-1.084, -6.535e-4
-1.083, -6.535e-4
-1.082, -6.535e-4
-1.081, -6.565e-4
-1.080, -6.565e-4
-1.079, -6.565e-4
-1.078, -6.535e-4
-1.077, -6.535e-4
-1.076, -6.565e-4
-1.075, -6.565e-4
-1.074, -6.596e-4
-1.073, -6.596e-4
-1.072, -6.596e-4
-1.071, -6.596e-4
-1.070, -6.627e-4
-1.069, -6.627e-4
-1.068, -6.627e-4
-1.067, -6.627e-4
-1.066, -6.627e-4
-1.065, -6.627e-4
-1.064, -6.596e-4
-1.063, -6.627e-4
-1.062, -6.658e-4
-1.061, -6.658e-4
-1.060, -6.658e-4
-1.059, -6.658e-4
-1.058, -6.658e-4
-1.057, -6.658e-4
-1.056, -6.689e-4
-1.055, -6.689e-4
-1.054, -6.689e-4
-1.053, -6.689e-4
-1.052, -6.689e-4
-1.051, -6.720e-4
-1.050, -6.720e-4
-1.049, -6.720e-4
-1.048, -6.720e-4
-1.047, -6.720e-4
-1.046, -6.720e-4
-1.045, -6.720e-4
-1.044, -6.750e-4
-1.043, -6.750e-4
-1.042, -6.750e-4
-1.041, -6.750e-4
-1.040, -6.750e-4
-1.039, -6.781e-4
-1.038, -6.750e-4
-1.037, -6.781e-4
-1.036, -6.781e-4
-1.035, -6.812e-4
-1.034, -6.812e-4
-1.033, -6.812e-4
-1.032, -6.812e-4
-1.031, -6.812e-4
-1.030, -6.812e-4
-1.029, -6.812e-4
-1.028, -6.843e-4
-1.027, -6.812e-4
-1.026, -6.843e-4
-1.025, -6.843e-4
-1.024, -6.843e-4
-1.023, -6.874e-4
-1.022, -6.905e-4
-1.021, -6.905e-4
-1.020, -6.905e-4
-1.019, -6.905e-4
-1.018, -6.905e-4
-1.017, -6.935e-4
-1.016, -6.935e-4
-1.015, -6.966e-4
-1.014, -6.966e-4
-1.013, -6.966e-4
-1.012, -6.935e-4
-1.011, -6.935e-4
-1.010, -6.966e-4
-1.009, -6.997e-4
-1.008, -6.997e-4
-1.007, -6.997e-4
-1.006, -6.997e-4
-1.005, -6.997e-4
-1.004, -7.028e-4
-1.003, -7.028e-4
-1.002, -7.059e-4
-1.001, -7.090e-4
