Potential V vs RHE, Current mA cm-2
0.013299999999999867,-0.4384190318281749
0.012299999999999978,-1.7033124050375041
0.011299999999999866,-2.4884771764625997
0.010299999999999976,-3.0119203574126634
0.009299999999999864,-3.403795387475278
0.008299999999999974,-3.623075638954359
0.007299999999999862,-3.7532290785419424
0.006299999999999972,-3.840941179133574
0.00529999999999986,-3.840941179133574
0.0042999999999999705,-3.840941179133574
0.0032999999999998586,-3.840941179133574
0.0022999999999999687,-3.884797229429391
0.0012999999999998568,-3.927238568425342
0.00029999999999996696,-4.014950669016974
-0.000700000000000145,-4.0588067193127895
-0.0017000000000000348,-4.146518819904423
-0.0027000000000001467,-4.1889601589003735
-0.0037000000000000366,-4.1889601589003735
-0.0047000000000001485,-4.1889601589003735
-0.005700000000000038,-4.146518819904423
-0.00670000000000015,-4.0588067193127895
-0.00770000000000004,-4.014950669016974
-0.008700000000000152,-4.014950669016974
-0.009700000000000042,-4.014950669016974
-0.010700000000000154,-4.014950669016974
-0.011700000000000044,-4.102662769608606
-0.012700000000000156,-4.146518819904423
-0.013700000000000045,-4.1889601589003735
-0.014700000000000157,-4.23281620919619
-0.015700000000000047,-4.23281620919619
-0.01670000000000016,-4.146518819904423
-0.01770000000000005,-4.102662769608606
-0.01870000000000016,-4.0588067193127895
-0.01970000000000005,-3.971094618721158
-0.020700000000000163,-4.014950669016974
-0.021700000000000053,-4.014950669016974
-0.022700000000000164,-4.0588067193127895
-0.023700000000000054,-4.102662769608606
-0.024700000000000166,-4.1889601589003735
-0.025700000000000056,-4.23281620919619
-0.026700000000000168,-4.1889601589003735
-0.027700000000000058,-4.1889601589003735
-0.02870000000000017,-4.146518819904423
-0.02970000000000006,-4.102662769608606
-0.03070000000000017,-4.014950669016974
-0.03170000000000006,-3.971094618721158
-0.03270000000000017,-3.971094618721158
-0.03370000000000006,-4.014950669016974
-0.034700000000000175,-4.0588067193127895
-0.035700000000000065,-4.102662769608606
-0.03670000000000018,-4.146518819904423
-0.03770000000000007,-4.1889601589003735
-0.03870000000000018,-4.1889601589003735
-0.03970000000000007,-4.146518819904423
-0.04070000000000018,-4.102662769608606
-0.04170000000000007,-4.0588067193127895
-0.04270000000000018,-4.014950669016974
-0.04370000000000007,-3.971094618721158
-0.044700000000000184,-3.971094618721158
-0.045700000000000074,-4.014950669016974
-0.046700000000000186,-4.0588067193127895
-0.047700000000000076,-4.146518819904423
-0.04870000000000019,-4.146518819904423
-0.04970000000000008,-4.1889601589003735
-0.05070000000000019,-4.1889601589003735
-0.05170000000000008,-4.146518819904423
-0.05270000000000019,-4.0588067193127895
-0.05370000000000008,-4.014950669016974
-0.05470000000000019,-3.971094618721158
-0.05570000000000008,-3.971094618721158
-0.056700000000000195,-3.971094618721158
-0.057700000000000085,-4.014950669016974
-0.058700000000000196,-4.0588067193127895
-0.059700000000000086,-4.146518819904423
-0.0607000000000002,-4.1889601589003735
-0.06170000000000009,-4.1889601589003735
-0.0627000000000002,-4.1889601589003735
-0.06370000000000009,-4.146518819904423
-0.0647000000000002,-4.0588067193127895
-0.06570000000000009,-4.014950669016974
-0.0667000000000002,-3.971094618721158
-0.0677000000000001,-3.971094618721158
-0.0687000000000002,-4.014950669016974
-0.0697000000000001,-4.0588067193127895
-0.07070000000000021,-4.102662769608606
-0.0717000000000001,-4.146518819904423
-0.07270000000000021,-4.1889601589003735
-0.0737000000000001,-4.1889601589003735
-0.07470000000000021,-4.146518819904423
-0.0757000000000001,-4.102662769608606
-0.07670000000000021,-4.0588067193127895
-0.0777000000000001,-4.014950669016974
-0.07870000000000021,-3.971094618721158
-0.0797000000000001,-4.014950669016974
-0.08070000000000022,-4.0588067193127895
-0.0817000000000001,-4.102662769608606
-0.08270000000000022,-4.102662769608606
-0.08370000000000011,-4.1889601589003735
-0.08470000000000022,-4.23281620919619
-0.08570000000000011,-4.1889601589003735
-0.08670000000000022,-4.146518819904423
-0.08770000000000011,-4.102662769608606
-0.08870000000000022,-4.0588067193127895
-0.08970000000000011,-4.014950669016974
-0.09070000000000022,-4.014950669016974
-0.09170000000000011,-4.0588067193127895
-0.09270000000000023,-4.0588067193127895
-0.09370000000000012,-4.102662769608606
-0.09470000000000023,-4.146518819904423
-0.09570000000000012,-4.23281620919619
-0.09670000000000023,-4.23281620919619
-0.09770000000000012,-4.23281620919619
-0.09870000000000023,-4.146518819904423
-0.09970000000000012,-4.146518819904423
-0.10070000000000023,-4.0588067193127895
-0.10170000000000012,-4.014950669016974
-0.10270000000000024,-4.0588067193127895
-0.10370000000000013,-4.0588067193127895
-0.10470000000000024,-4.102662769608606
-0.10570000000000013,-4.1889601589003735
-0.10670000000000024,-4.23281620919619
-0.10770000000000013,-4.276672259492005
-0.10870000000000024,-4.23281620919619
-0.10970000000000013,-4.23281620919619
-0.11070000000000024,-4.1889601589003735
-0.11170000000000013,-4.146518819904423
-0.11270000000000002,-4.102662769608606
-0.11370000000000013,-4.0588067193127895
-0.11470000000000002,-4.0588067193127895
-0.11570000000000014,-4.102662769608606
-0.11670000000000003,-4.1889601589003735
-0.11770000000000014,-4.23281620919619
-0.11870000000000003,-4.3205283097878215
-0.11970000000000014,-4.276672259492005
-0.12070000000000003,-4.276672259492005
-0.12170000000000014,-4.23281620919619
-0.12270000000000003,-4.1889601589003735
-0.12370000000000014,-4.1889601589003735
-0.12470000000000003,-4.102662769608606
-0.12570000000000014,-4.146518819904423
-0.12670000000000003,-4.146518819904423
-0.12770000000000015,-4.146518819904423
-0.12870000000000004,-4.23281620919619
-0.12970000000000015,-4.276672259492005
-0.13070000000000004,-4.3205283097878215
-0.13170000000000015,-4.364384360083638
-0.13270000000000004,-4.3205283097878215
-0.13370000000000015,-4.3205283097878215
-0.13470000000000004,-4.276672259492005
-0.13570000000000015,-4.1889601589003735
-0.13670000000000004,-4.146518819904423
-0.13770000000000016,-4.1889601589003735
-0.13870000000000005,-4.1889601589003735
-0.13970000000000016,-4.276672259492005
-0.14070000000000005,-4.3205283097878215
-0.14170000000000016,-4.3205283097878215
-0.14270000000000005,-4.406825699079589
-0.14370000000000016,-4.364384360083638
-0.14470000000000005,-4.364384360083638
-0.14570000000000016,-4.3205283097878215
-0.14670000000000005,-4.276672259492005
-0.14770000000000016,-4.276672259492005
-0.14870000000000005,-4.23281620919619
-0.14970000000000017,-4.23281620919619
-0.15070000000000006,-4.276672259492005
-0.15170000000000017,-4.3205283097878215
-0.15270000000000006,-4.406825699079589
-0.15370000000000017,-4.406825699079589
-0.15470000000000006,-4.450681749375406
-0.15570000000000017,-4.450681749375406
-0.15670000000000006,-4.450681749375406
-0.15770000000000017,-4.364384360083638
-0.15870000000000006,-4.364384360083638
-0.15970000000000018,-4.276672259492005
-0.16070000000000007,-4.276672259492005
-0.16170000000000018,-4.276672259492005
-0.16270000000000007,-4.364384360083638
-0.16370000000000018,-4.450681749375406
-0.16470000000000007,-4.494537799671222
-0.16570000000000018,-4.582249900262854
-0.16670000000000007,-4.538393849967037
-0.16770000000000018,-4.538393849967037
-0.16870000000000007,-4.494537799671222
-0.16970000000000018,-4.450681749375406
-0.17070000000000007,-4.406825699079589
-0.17170000000000019,-4.364384360083638
-0.17270000000000008,-4.364384360083638
-0.1737000000000002,-4.364384360083638
-0.17470000000000008,-4.450681749375406
-0.1757000000000002,-4.494537799671222
-0.17670000000000008,-4.538393849967037
-0.1777000000000002,-4.626105950558669
-0.17870000000000008,-4.582249900262854
-0.1797000000000002,-4.582249900262854
-0.18070000000000008,-4.538393849967037
-0.1817000000000002,-4.494537799671222
-0.18270000000000008,-4.494537799671222
-0.1837000000000002,-4.450681749375406
-0.1847000000000001,-4.494537799671222
-0.1857000000000002,-4.494537799671222
-0.1867000000000001,-4.582249900262854
-0.1877000000000002,-4.626105950558669
-0.1887000000000001,-4.668547289554621
-0.1897000000000002,-4.712403339850438
-0.1907000000000001,-4.712403339850438
-0.1917000000000001,-4.668547289554621
-0.19269999999999998,-4.626105950558669
-0.1937000000000001,-4.582249900262854
-0.19469999999999998,-4.538393849967037
-0.1957000000000001,-4.538393849967037
-0.19669999999999999,-4.538393849967037
-0.1977000000000001,-4.582249900262854
-0.1987,-4.668547289554621
-0.1997000000000001,-4.712403339850438
-0.2007,-4.800115440442069
-0.2017000000000001,-4.756259390146253
-0.2027,-4.800115440442069
-0.2037000000000001,-4.756259390146253
-0.2047,-4.712403339850438
-0.2057000000000001,-4.668547289554621
-0.2067,-4.626105950558669
-0.2077000000000001,-4.668547289554621
-0.2087,-4.668547289554621
-0.2097000000000001,-4.756259390146253
-0.2107,-4.800115440442069
-0.2117000000000001,-4.843971490737885
-0.2127,-4.887827541033701
-0.2137000000000001,-4.887827541033701
-0.2147,-4.887827541033701
-0.2157000000000001,-4.887827541033701
-0.2167,-4.800115440442069
-0.21770000000000012,-4.800115440442069
-0.2187,-4.756259390146253
-0.21970000000000012,-4.756259390146253
-0.2207,-4.800115440442069
-0.22170000000000012,-4.843971490737885
-0.2227,-4.9302688800296535
-0.22370000000000012,-4.974124930325469
-0.2247,-5.017980980621284
-0.22570000000000012,-5.017980980621284
-0.2267,-4.974124930325469
-0.22770000000000012,-4.9302688800296535
-0.22870000000000001,-4.9302688800296535
-0.22970000000000013,-4.887827541033701
-0.23070000000000002,-4.887827541033701
-0.23170000000000013,-4.887827541033701
-0.23270000000000002,-4.974124930325469
-0.23370000000000013,-5.017980980621284
-0.23470000000000002,-5.0618370309171015
-0.23570000000000013,-5.149549131508733
-0.23670000000000002,-5.105693081212917
-0.2376999999999999,-5.149549131508733
-0.23870000000000002,-5.105693081212917
-0.2396999999999999,-5.0618370309171015
-0.24070000000000003,-5.017980980621284
-0.24169999999999991,-4.974124930325469
-0.24270000000000003,-5.017980980621284
-0.24369999999999992,-5.017980980621284
-0.24470000000000003,-5.0618370309171015
-0.24569999999999992,-5.149549131508733
-0.24670000000000003,-5.191990470504685
-0.24769999999999992,-5.235846520800501
-0.24870000000000003,-5.235846520800501
-0.24969999999999992,-5.235846520800501
-0.25070000000000003,-5.191990470504685
-0.2516999999999999,-5.149549131508733
-0.25270000000000004,-5.149549131508733
-0.2536999999999999,-5.105693081212917
-0.25470000000000004,-5.149549131508733
-0.2556999999999999,-5.191990470504685
-0.25670000000000004,-5.235846520800501
-0.25769999999999993,-5.323558621392133
-0.25870000000000004,-5.323558621392133
-0.25969999999999993,-5.367414671687949
-0.26070000000000004,-5.411270721983764
-0.26169999999999993,-5.367414671687949
-0.26270000000000004,-5.323558621392133
-0.26369999999999993,-5.279702571096316
-0.26470000000000005,-5.279702571096316
-0.26569999999999994,-5.279702571096316
-0.26670000000000005,-5.279702571096316
-0.26769999999999994,-5.367414671687949
-0.26870000000000005,-5.411270721983764
-0.26969999999999994,-5.453712060979717
-0.27070000000000005,-5.497568111275533
-0.27169999999999994,-5.497568111275533
-0.27270000000000005,-5.5414241615713475
-0.27369999999999994,-5.497568111275533
-0.27470000000000006,-5.453712060979717
-0.27569999999999995,-5.453712060979717
-0.27670000000000006,-5.411270721983764
-0.27769999999999995,-5.411270721983764
-0.27870000000000006,-5.411270721983764
-0.27969999999999995,-5.497568111275533
-0.28070000000000006,-5.5414241615713475
-0.28169999999999995,-5.629136262162981
-0.28270000000000006,-5.672992312458796
-0.28369999999999995,-5.672992312458796
-0.28470000000000006,-5.672992312458796
-0.28569999999999995,-5.672992312458796
-0.28670000000000007,-5.629136262162981
-0.28769999999999996,-5.585280211867165
-0.28870000000000007,-5.585280211867165
-0.28969999999999996,-5.629136262162981
-0.29070000000000007,-5.629136262162981
-0.29169999999999996,-5.715433651454749
-0.29270000000000007,-5.759289701750564
-0.29369999999999996,-5.80314575204638
-0.2947000000000001,-5.847001802342197
-0.29569999999999996,-5.847001802342197
-0.2967000000000001,-5.847001802342197
-0.29769999999999996,-5.80314575204638
-0.2987000000000001,-5.80314575204638
-0.29969999999999997,-5.759289701750564
-0.3007000000000001,-5.759289701750564
-0.30169999999999997,-5.80314575204638
-0.3027000000000001,-5.847001802342197
-0.30369999999999997,-5.9347139029338285
-0.3047000000000001,-5.977155241929781
-0.30569999999999997,-6.064867342521412
-0.3067000000000001,-6.064867342521412
-0.3077,-6.108723392817228
-0.3087000000000001,-6.064867342521412
-0.3097,-6.021011292225596
-0.3107000000000001,-6.021011292225596
-0.3117,-5.977155241929781
-0.3127000000000001,-6.021011292225596
-0.3137,-6.021011292225596
-0.3147000000000001,-6.108723392817228
-0.3157,-6.196435493408861
-0.3167000000000001,-6.238876832404812
-0.3177,-6.282732882700628
-0.3187000000000001,-6.282732882700628
-0.3197,-6.326588932996443
-0.3207000000000001,-6.282732882700628
-0.3217,-6.282732882700628
-0.3227000000000001,-6.282732882700628
-0.3237,-6.282732882700628
-0.3247000000000001,-6.282732882700628
-0.3257,-6.37044498329226
-0.3267000000000001,-6.458157083883892
-0.3277,-6.500598422879844
-0.3287000000000001,-6.632166573767292
-0.3297,-6.632166573767292
-0.3307000000000001,-6.6760226240631075
-0.3317,-6.6760226240631075
-0.3327000000000001,-6.6760226240631075
-0.3337,-6.6760226240631075
-0.3347000000000001,-6.6760226240631075
-0.3357,-6.719878674358924
-0.3367000000000001,-6.762320013354876
-0.3377,-6.850032113946507
-0.3387000000000001,-6.893888164242324
-0.3397,-6.981600264833956
-0.3407000000000001,-7.111753704421539
-0.3417,-7.111753704421539
-0.3427000000000001,-7.199465805013171
-0.3437,-7.199465805013171
-0.3447000000000001,-7.199465805013171
-0.3457,-7.199465805013171
-0.3467000000000001,-7.243321855308987
-0.3477,-7.329619244600755
-0.3487000000000001,-7.37347529489657
-0.3497,-7.461187395488204
-0.3507000000000001,-7.591340835075788
-0.3517,-7.679052935667419
-0.3527000000000001,-7.809206375255003
-0.3537,-7.853062425550818
-0.3547000000000001,-7.940774526142452
-0.3557,-7.984630576438266
-0.35670000000000013,-8.027071915434218
-0.3577,-8.070927965730034
-0.35870000000000013,-8.11478401602585
-0.3597,-8.202496116617484
-0.36070000000000013,-8.332649556205066
-0.3617,-8.4203616567967
-0.3626999999999999,-8.594371146680096
-0.3637,-8.725939297567548
-0.3646999999999999,-8.812236686859313
-0.3657,-8.943804837746763
-0.3666999999999999,-9.031516938338395
-0.3677,-9.11781432763016
-0.3686999999999999,-9.205526428221793
-0.36970000000000003,-9.293238528813426
-0.3706999999999999,-9.423391968401008
-0.37170000000000003,-9.55496011928846
-0.3726999999999999,-9.728969609171857
-0.37370000000000003,-9.902979099055257
-0.3746999999999999,-10.078403300238522
-0.37570000000000003,-10.296268840417738
-0.3766999999999999,-10.42642228000532
-0.37770000000000004,-10.601846481188586
-0.3786999999999999,-10.731999920776168
-0.37970000000000004,-10.863568071663616
-0.3806999999999999,-10.993721511251199
-0.38170000000000004,-11.1677310011346
-0.38269999999999993,-11.343155202317865
-0.38370000000000004,-11.56102074249708
-0.38469999999999993,-11.82274233297211
-0.38570000000000004,-12.084463923447142
-0.38669999999999993,-12.346185513922174
-0.38770000000000004,-12.607907104397206
-0.38869999999999993,-12.825772644576423
-0.38970000000000005,-13.087494235051453
-0.39069999999999994,-13.30535977523067
-0.39170000000000005,-13.567081365705702
-0.39269999999999994,-13.784946905884919
-0.39370000000000005,-14.002812446064135
-0.39469999999999994,-14.345172580631472
-0.39570000000000005,-14.65640906660178
-0.39669999999999994,-15.01008689156804
-0.39770000000000005,-15.349617603535648
-0.39869999999999994,-15.74573676749786
-0.39970000000000006,-16.099414592464115
-0.40069999999999995,-16.438945304431726
-0.40170000000000006,-16.750181790402035
-0.40269999999999995,-17.103859615368293
-0.40370000000000006,-17.4433903273359
-0.40469999999999995,-17.797068152302163
-0.40570000000000006,-18.23562865526032
-0.40669999999999995,-18.631747819222536
-0.40770000000000006,-19.112749661176647
-0.40869999999999995,-19.636192842126707
-0.40970000000000006,-20.10304757108217
-0.41069999999999995,-20.683079204026836
-0.41170000000000007,-21.149933932982297
-0.41269999999999996,-21.729965565926964
-0.41370000000000007,-22.196820294882425
-0.41469999999999996,-22.72026347583249
-0.41570000000000007,-23.24370665678255
-0.41669999999999996,-23.767149837732617
-0.41770000000000007,-24.34718147067728
-0.41869999999999996,-24.9130659906233
-0.4197000000000001,-25.563833188561212
-0.42069999999999996,-26.257041725495082
-0.4217000000000001,-26.9643973754276
-0.42269999999999996,-27.65760591236147
-0.4237000000000001,-28.308373110299385
-0.42469999999999997,-29.001581647233255
-0.4257000000000001,-29.708937297165768
-0.42669999999999997,-30.402145834099635
-0.4277000000000001,-31.137795710029454
-0.42869999999999997,-31.84515135996197
-0.4297000000000001,-32.66568391388369
-0.43069999999999997,-33.50036358080407
-0.4317000000000001,-34.33504324772444
-0.4327,-35.240458479638065
-0.4337000000000001,-36.16002082455034
-0.4347,-37.07958316946261
-0.4357000000000001,-38.04158685337084
-0.4367,-38.90456074628851
-0.4377000000000001,-39.82412309120078
-0.4387,-40.743685436113054
-0.4397000000000001,-41.66324778102533
-0.4407,-42.6111043519349
-0.4417000000000001,-43.57310803584313
-0.4427,-44.577553058747306
-0.4437000000000001,-45.624439420647434
-0.4447,-46.67132578254756
-0.4457000000000001,-47.76065348344364
-0.4467,-48.84998118433972
-0.4477000000000001,-49.939308885235796
-0.4487,-50.98619524713592
-0.4497000000000001,-52.075522948032
-0.4507,-53.16485064892808
-0.4517000000000001,-54.26832546282281
-0.4527,-55.400094502714836
-0.4537000000000001,-56.57430488160282
-0.4547,-57.79095659948675
-0.4557000000000001,-59.02175543036933
-0.4567,-60.23840714825326
-0.4577000000000001,-61.53994154412909
-0.4587,-62.77074037501168
-0.4597000000000001,-64.02983343189156
-0.4607,-65.20404381077954
-0.4617000000000001,-66.39240130266617
-0.4627,-67.6090530205501
-0.4637000000000001,-68.74082206044213
-0.4647,-70.01406223032066
-0.4657000000000001,-71.18827260920865
-0.4667,-72.48980700508447
-0.4677000000000001,-73.80548851395896
-0.4687,-75.1070229098348
-0.4697000000000001,-76.46514575770523
-0.4707,-77.80912149257702
-0.4717000000000001,-79.16724434044745
-0.4727,-80.52536718831789
-0.4737000000000001,-81.82690158419373
-0.4747,-83.18502443206415
-0.4757000000000001,-84.48655882793999
-0.4767,-85.88712301480638
-0.4777000000000001,-87.27354008867411
-0.4787,-88.71654561453644
-0.4797000000000001,-90.15955114039879
-0.4807,-91.64499800525708
-0.48170000000000013,-93.08800353111941
-0.4827,-94.5168619439831
-0.48370000000000013,-95.91742613084948
-0.4847,-97.31799031771587
-0.48570000000000013,-98.6195247135917
-0.4867,-98.7892900695755
-0.48570000000000013,-97.53019701269562
-0.4847,-96.3984279728036
-0.48370000000000013,-95.35154161090348
-0.4827,-94.34709658799929
-0.48170000000000013,-93.34265156509512
-0.4807,-92.3806478811869
-0.4797000000000001,-91.37620285828272
-0.4787,-90.41419917437449
-0.4777000000000001,-89.36731281247435
-0.4767,-88.32042645057423
-0.4757000000000001,-87.27354008867411
-0.4747,-86.18421238777805
-0.4737000000000001,-85.13732602587791
-0.4727,-84.09043966397778
-0.4717000000000001,-83.08599464107361
-0.4707,-82.03910827917348
-0.4697000000000001,-81.04881036926795
-0.4687,-80.04436534636378
-0.4677000000000001,-79.0399203234596
-0.4667,-77.99303396155948
-0.4657000000000001,-76.9037062606634
-0.4647,-75.81437855976732
-0.4637000000000001,-74.72505085887124
-0.4627,-73.6781644969711
-0.4617000000000001,-72.63127813507097
-0.4607,-71.58439177317086
