Potential V vs RHE, Current mA cm-2
0.013299999999999867,-4.276672259492005
0.012299999999999978,-6.850032113946507
0.011299999999999866,-9.161670377925978
0.010299999999999976,-11.343155202317865
0.009299999999999864,-13.30535977523067
0.008299999999999974,-15.222293586547794
0.007299999999999862,-17.018976937376394
0.006299999999999972,-18.631747819222536
0.00529999999999986,-20.10304757108217
0.0042999999999999705,-21.63093577493641
0.0032999999999998586,-22.946617283810895
0.0022999999999999687,-24.20571034069078
0.0012999999999998568,-25.337479380582806
0.00029999999999996696,-26.34192440348698
-0.000700000000000145,-27.303928087395207
-0.0017000000000000348,-28.13860775431558
-0.0027000000000001467,-29.001581647233255
-0.0037000000000000366,-29.836261314153624
-0.0047000000000001485,-30.614352529079397
-0.005700000000000038,-31.40659085700382
-0.00670000000000015,-32.184682071929586
-0.00770000000000004,-32.93447906085806
-0.008700000000000152,-33.712570275783825
-0.009700000000000042,-34.41992592571634
-0.010700000000000154,-35.07069312365426
-0.011700000000000044,-35.679018982596226
-0.012700000000000156,-36.20246216354629
-0.013700000000000045,-36.725905344496354
-0.014700000000000157,-37.249348525446415
-0.015700000000000047,-37.73035036740053
-0.01670000000000016,-38.253793548350586
-0.01770000000000005,-38.734795390304704
-0.01870000000000016,-39.21579723225882
-0.01970000000000005,-39.739240413208876
-0.020700000000000163,-40.220242255162994
-0.021700000000000053,-40.701244097117105
-0.022700000000000164,-41.182245939071215
-0.023700000000000054,-41.606659329030734
-0.024700000000000166,-42.00277849299294
-0.025700000000000056,-42.31401497896325
-0.026700000000000168,-42.6111043519349
-0.027700000000000058,-42.96478217690117
-0.02870000000000017,-43.23357732387552
-0.02970000000000006,-43.53066669684718
-0.03070000000000017,-43.79946184382153
-0.03170000000000006,-44.138992555789144
-0.03270000000000017,-44.45022904175945
-0.03370000000000006,-44.80390686672572
-0.034700000000000175,-45.10099623969737
-0.035700000000000065,-45.45467406466363
-0.03670000000000018,-45.75176343763528
-0.03770000000000007,-46.02055858460964
-0.03870000000000018,-46.2327652795894
-0.03970000000000007,-46.45911908756781
-0.04070000000000018,-46.67132578254756
-0.04170000000000007,-46.84109113853137
-0.04270000000000018,-47.067444946509774
-0.04370000000000007,-47.32209298048547
-0.044700000000000184,-47.54844678846388
-0.045700000000000074,-47.80309482243959
-0.046700000000000186,-48.071889969413945
-0.047700000000000076,-48.32653800338966
-0.04870000000000019,-48.68021582835591
-0.04970000000000008,-48.93486386233162
-0.05070000000000019,-49.20365900930597
-0.05170000000000008,-49.41586570428573
-0.05270000000000019,-49.59977817326819
-0.05370000000000008,-49.81198486824794
-0.05470000000000019,-49.939308885235796
-0.05570000000000008,-50.12322135421825
-0.056700000000000195,-50.335428049198
-0.057700000000000085,-50.50519340518181
-0.058700000000000196,-50.73154721316022
-0.059700000000000086,-50.98619524713592
-0.0607000000000002,-51.25499039411028
-0.06170000000000009,-51.55207976708194
-0.0627000000000002,-51.77843357506035
-0.06370000000000009,-51.990640270040096
-0.0647000000000002,-52.2169940780185
-0.06570000000000009,-52.386759434002315
-0.0667000000000002,-52.55652478998611
-0.0677000000000001,-52.69799591997262
-0.0687000000000002,-52.82531993696047
-0.0697000000000001,-52.95264395394832
-0.07070000000000021,-53.12240930993213
-0.0717000000000001,-53.348763117910536
-0.07270000000000021,-53.603411151886235
-0.0737000000000001,-53.7873236208687
-0.07470000000000021,-53.999530315848446
-0.0757000000000001,-54.26832546282281
-0.07670000000000021,-54.43809081880661
-0.0777000000000001,-54.65029751378637
-0.07870000000000021,-54.791768643772876
-0.0797000000000001,-54.919092660760725
-0.08070000000000022,-55.046416677748574
-0.0817000000000001,-55.17374069473642
-0.08270000000000022,-55.31521182472294
-0.08370000000000011,-55.484977180706736
-0.08470000000000022,-55.6971838756865
-0.08570000000000011,-55.9235376836649
-0.08670000000000022,-56.13574437864466
-0.08770000000000011,-56.36209818662306
-0.08870000000000022,-56.61674622059877
-0.08970000000000011,-56.82895291557852
-0.09070000000000022,-57.012865384560975
-0.09170000000000011,-57.182630740544774
-0.09270000000000023,-57.30995475753264
-0.09370000000000012,-57.408984548523186
-0.09470000000000023,-57.57874990450699
-0.09570000000000012,-57.70607392149485
-0.09670000000000023,-57.8333979384827
-0.09770000000000012,-58.017310407465146
-0.09870000000000023,-58.18707576344896
-0.09970000000000012,-58.39928245842871
-0.10070000000000023,-58.62563626640712
-0.10170000000000012,-58.83784296138688
-0.10270000000000024,-59.02175543036933
-0.10370000000000013,-59.23396212534908
-0.10470000000000024,-59.36128614233694
-0.10570000000000013,-59.502757272323436
-0.10670000000000024,-59.6300812893113
-0.10770000000000013,-59.7149639673032
-0.10870000000000024,-59.757405306299155
-0.10970000000000013,-59.92717066228296
-0.11070000000000024,-60.02620045327351
-0.11170000000000013,-60.19596580925731
-0.11270000000000002,-60.40817250423707
-0.11370000000000013,-60.63452631221547
-0.11470000000000002,-60.80429166819927
-0.11570000000000014,-61.01649836317903
-0.11670000000000003,-61.20041083216149
-0.11770000000000014,-61.37017618814529
-0.11870000000000003,-61.49750020513315
-0.11970000000000014,-61.5965299961237
-0.12070000000000003,-61.6814126741156
-0.12170000000000014,-61.7662953521075
-0.12270000000000003,-61.851178030099405
-0.12370000000000014,-61.97850204708726
-0.12470000000000003,-62.16241451606972
-0.12570000000000014,-62.33217987205352
-0.12670000000000003,-62.544386567033264
-0.12770000000000015,-62.72829903601572
-0.12870000000000004,-62.94050573099548
-0.12970000000000015,-63.15271242597524
-0.13070000000000004,-63.3366248949577
-0.13170000000000015,-63.421507572949594
-0.13270000000000004,-63.54883158993744
-0.13370000000000015,-63.6761556069253
-0.13470000000000004,-63.77518539791585
-0.13570000000000015,-63.860068075907755
-0.13670000000000004,-63.98739209289561
-0.13770000000000016,-64.11471610988345
-0.13870000000000005,-64.29862857886593
-0.13970000000000016,-64.46839393484973
-0.14070000000000005,-64.63815929083353
-0.14170000000000016,-64.82207175981598
-0.14270000000000005,-65.03427845479574
-0.14370000000000016,-65.16160247178358
-0.14470000000000005,-65.3030736017701
-0.14570000000000016,-65.4728389577539
-0.14670000000000005,-65.5577216357458
-0.14770000000000016,-65.64260431373769
-0.14870000000000005,-65.7274869917296
-0.14970000000000017,-65.86895812171612
-0.15070000000000006,-65.99628213870396
-0.15170000000000017,-66.16604749468777
-0.15270000000000006,-66.39240130266617
-0.15370000000000017,-66.51972531965401
-0.15470000000000006,-66.73193201463377
-0.15570000000000017,-66.9582858226122
-0.15670000000000006,-67.128051178596
-0.15770000000000017,-67.2978165345798
-0.15870000000000006,-67.43928766456631
-0.15970000000000018,-67.56661168155415
-0.16070000000000007,-67.693935698542
-0.16170000000000018,-67.7788183765339
-0.16270000000000007,-67.9202895065204
-0.16370000000000018,-68.0051721845123
-0.16470000000000007,-68.21737887949207
-0.16570000000000018,-68.38714423547587
-0.16670000000000007,-68.57105670445833
-0.16770000000000018,-68.78326339943808
-0.16870000000000007,-69.0096172074165
-0.16970000000000018,-69.1793825634003
-0.17070000000000007,-69.3491479193841
-0.17170000000000019,-69.53306038836655
-0.17270000000000008,-69.61794306635846
-0.1737000000000002,-69.78770842234226
-0.17470000000000008,-69.91503243933012
-0.1757000000000002,-70.01406223032066
-0.17670000000000008,-70.14138624730852
-0.1777000000000002,-70.31115160329232
-0.17870000000000008,-70.48091695927613
-0.1797000000000002,-70.70727076725453
-0.18070000000000008,-70.87703612323833
-0.1817000000000002,-71.1458312702127
-0.18270000000000008,-71.4004793041884
-0.1837000000000002,-71.6268331121668
-0.1847000000000001,-71.7965984681506
-0.1857000000000002,-71.96636382413442
-0.1867000000000001,-72.15027629311687
-0.1877000000000002,-72.32004164910067
-0.1887000000000001,-72.48980700508447
-0.1897000000000002,-72.67371947406694
-0.1907000000000001,-72.8859261690467
-0.1917000000000001,-73.0556915250305
-0.19269999999999998,-73.3669280110008
-0.1937000000000001,-73.57913470598055
-0.19469999999999998,-73.8479298529549
-0.1957000000000001,-74.10257788693062
-0.19669999999999999,-74.32893169490903
-0.1977000000000001,-74.62602106788069
-0.1987,-74.80993353686314
-0.1997000000000001,-75.02214023184291
-0.2007,-75.2484940398213
-0.2017000000000001,-75.37581805680915
-0.2027,-75.5880247517889
-0.2037000000000001,-75.81437855976732
-0.2047,-76.06902659374302
-0.2057000000000001,-76.33782174071737
-0.2067,-76.63491111368903
-0.2077000000000001,-76.94614759965934
-0.2087,-77.28567831162695
-0.2097000000000001,-77.55447345860131
-0.2107,-77.80912149257702
-0.2117000000000001,-78.07791663955136
-0.2127,-78.29012333453113
-0.2137000000000001,-78.55891848150549
-0.2147,-78.77112517648524
-0.2157000000000001,-79.08236166245555
-0.2167,-79.33700969643127
-0.21770000000000012,-79.56336350440966
-0.2187,-79.86045287738132
-0.21970000000000012,-80.17168936335163
-0.2207,-80.46877873632329
-0.22170000000000012,-80.82245656128954
-0.2227,-81.1761343862558
-0.22370000000000012,-81.47322375922747
-0.2247,-81.78446024519776
-0.22570000000000012,-82.03910827917348
-0.2267,-82.30790342614785
-0.22770000000000012,-82.61913991211814
-0.22870000000000001,-82.8313466070979
-0.22970000000000013,-83.14258309306821
-0.23070000000000002,-83.39723112704392
-0.23170000000000013,-83.75090895201016
-0.23270000000000002,-84.09043966397778
-0.23370000000000013,-84.44411748894404
-0.23470000000000002,-84.7977953139103
-0.23570000000000013,-85.13732602587791
-0.23670000000000002,-85.49100385084417
-0.2376999999999999,-85.84468167581042
-0.23870000000000002,-86.14177104878208
-0.2396999999999999,-86.41056619575643
-0.24070000000000003,-86.66521422973216
-0.24169999999999991,-86.97645071570246
-0.24270000000000003,-87.23109874967815
-0.24369999999999992,-87.58477657464444
-0.24470000000000003,-87.93845439961068
-0.24569999999999992,-88.32042645057423
-0.24670000000000003,-88.6741042755405
-0.24769999999999992,-89.02778210050676
-0.24870000000000003,-89.50878394246087
-0.24969999999999992,-89.84831465442848
-0.25070000000000003,-90.24443381839069
-0.2516999999999999,-90.59811164335694
-0.25270000000000004,-90.85275967733266
-0.2536999999999999,-91.20643750229891
-0.25470000000000004,-91.56011532726518
-0.2556999999999999,-91.81476336124088
-0.25670000000000004,-92.16844118620713
-0.25769999999999993,-92.50797189817473
-0.25870000000000004,-92.90409106213696
-0.25969999999999993,-93.30021022609918
-0.26070000000000004,-93.69632939006138
-0.26169999999999993,-94.13488989301955
-0.26270000000000004,-94.55930328297906
-0.26369999999999993,-94.95542244694126
-0.26470000000000005,-95.35154161090348
-0.26569999999999994,-95.69107232287108
-0.26670000000000005,-96.0871914868333
-0.26769999999999994,-96.4833106507955
-0.26870000000000005,-96.79454713676581
-0.26969999999999994,-97.21896052672531
-0.27070000000000005,-97.61507969068752
-0.27169999999999994,-98.01119885464975
-0.27270000000000005,-98.49220069660386
-0.27369999999999994,-98.97320253855796
-0.27470000000000006,-99.41176304151614
-0.27569999999999995,-99.87861777047159
-0.27670000000000006,-100.31717827342976
-0.27769999999999995,-100.75573877638791
-0.27870000000000006,-101.19429927934607
-0.27969999999999995,-101.59041844330828
-0.28070000000000006,-101.97239049427183
-0.28169999999999995,-102.36850965823406
-0.28270000000000006,-102.76462882219626
-0.28369999999999995,-103.20318932515443
-0.28470000000000006,-103.68419116710854
-0.28569999999999995,-104.12275167006669
-0.28670000000000007,-104.64619485101677
-0.28769999999999996,-105.16963803196683
-0.28870000000000007,-105.73552255191284
-0.28969999999999996,-106.21652439386696
-0.29070000000000007,-106.68337912282242
-0.29169999999999996,-107.16438096477653
-0.29270000000000007,-107.64538280673065
-0.29369999999999996,-108.04150197069285
-0.2947000000000001,-108.52250381264696
-0.29569999999999996,-108.96106431560513
-0.2967000000000001,-109.39962481856328
-0.29769999999999996,-109.8806266605174
-0.2987000000000001,-110.40406984146746
-0.29969999999999997,-110.96995436141347
-0.3007000000000001,-111.49339754236355
-0.30169999999999997,-112.14416474030146
-0.3027000000000001,-112.66760792125153
-0.30369999999999997,-113.23349244119754
-0.3047000000000001,-113.71449428315165
-0.30569999999999997,-114.28037880309766
-0.3067000000000001,-114.80382198404773
-0.3077,-115.32726516499778
-0.3087000000000001,-115.80826700695191
-0.3097,-116.37415152689792
-0.3107000000000001,-116.94003604684394
-0.3117,-117.54836190578591
-0.3127000000000001,-118.15668776472786
-0.3137,-118.82160207566443
-0.3147000000000001,-119.47236927360234
-0.3157,-120.16557781053622
-0.3167000000000001,-120.73146233048222
-0.3177,-121.38222952842017
-0.3187000000000001,-122.00470250036076
-0.3197,-122.52814568131083
-0.3207000000000001,-123.1364715402528
-0.3217,-123.65991472120285
-0.3227000000000001,-124.31068191914078
-0.3237,-124.91900777808273
-0.3247000000000001,-125.62636342801528
-0.3257,-126.3195719649491
-0.3267000000000001,-127.05522184087894
-0.3277,-127.76257749081147
-0.3287000000000001,-128.54066870573723
-0.3297,-129.27631858166706
-0.3307000000000001,-130.02611557059552
-0.3317,-130.7193241075294
-0.3327000000000001,-131.37009130546733
-0.3337,-132.07744695539984
-0.3347000000000001,-132.7706554923337
-0.3357,-133.4214226902716
-0.3367000000000001,-134.17121967920008
-0.3377,-134.86442821613394
-0.3387000000000001,-135.65666654405837
-0.3397,-136.47719909798008
-0.3407000000000001,-137.2694374259045
-0.3417,-138.08996997982624
-0.3427000000000001,-138.92464964674662
-0.3437,-139.70274086167237
-0.3447000000000001,-140.4949791895968
-0.3457,-141.27307040452254
-0.3467000000000001,-142.03701450644968
-0.3477,-142.8858412863687
-0.3487000000000001,-143.73466806628772
-0.3497,-144.44202371622026
-0.3507000000000001,-145.43232162612577
-0.3517,-146.28114840604482
-0.3527000000000001,-147.27144631595033
-0.3537,-148.26174422585584
-0.3547000000000001,-149.1105710057749
-0.3557,-150.1008689156804
-0.35670000000000013,-151.09116682558593
-0.3577,-151.93999360550492
-0.35870000000000013,-152.93029151541046
-0.3597,-153.77911829532948
-0.36070000000000013,-154.76941620523502
-0.3617,-155.61824298515404
-0.3626999999999999,-156.60854089505958
-0.3637,-157.59883880496508
-0.3646999999999999,-158.5891367148706
-0.3657,-159.57943462477613
-0.3666999999999999,-160.71120366466818
-0.3677,-161.70150157457368
-0.3686999999999999,-162.8332706144657
-0.36970000000000003,-163.96503965435775
-0.3706999999999999,-165.09680869424977
-0.37170000000000003,-166.0871066041553
-0.3726999999999999,-167.07740451406085
-0.37370000000000003,-168.20917355395284
-0.3746999999999999,-169.19947146385837
-0.37570000000000003,-170.33124050375042
-0.3766999999999999,-171.32153841365593
-0.37770000000000004,-172.45330745354798
-0.3786999999999999,-173.58507649344
-0.37970000000000004,-174.85831666331853
-0.3806999999999999,-175.99008570321055
-0.38170000000000004,-177.2633258730891
-0.38269999999999993,-178.3950949129811
-0.38370000000000004,-179.66833508285964
-0.38469999999999993,-180.8001041227517
-0.38570000000000004,-181.93187316264374
-0.38669999999999993,-181.2245175127112
-0.38570000000000004,-176.98038361311612
-0.38469999999999993,-173.16066310348046
-0.38370000000000004,-169.7653559838044
-0.38269999999999993,-166.51151999411482
-0.38170000000000004,-163.54062626439824
-0.3806999999999999,-160.71120366466818
-0.37970000000000004,-157.88178106493808
-0.3786999999999999,-155.33530072518104
-0.37770000000000004,-152.78882038542397
-0.3766999999999999,-150.38381117565342
-0.37570000000000003,-147.97880196588284
-0.3746999999999999,-145.57379275611228
-0.37370000000000003,-143.3102546763282
-0.3726999999999999,-141.06086370954282
-0.37170000000000003,-138.7548842907628
-0.3706999999999999,-136.60452311496792
-0.36970000000000003,-134.38342637417986
-0.3686999999999999,-132.2896536503796
-0.3677,-130.28076360457123
-0.3666999999999999,-128.32846201075745
-0.3657,-126.40445464294103
-0.3646999999999999,-124.48044727512458
-0.3637,-122.65546969829869
-0.3626999999999999,-120.77390366947817
-0.3617,-118.90648475365633
-0.36070000000000013,-116.98247738583989
-0.3597,-115.10091135701937
-0.35870000000000013,-113.19105110220158
-0.3577,-111.3094850733811
-0.35670000000000013,-109.44206615755924
-0.3557,-107.64538280673065
-0.3547000000000001,-105.86284656890071
-0.3537,-104.12275167006669
-0.3527000000000001,-102.41095099723
-0.3517,-100.75573877638791
-0.3507000000000001,-99.01564387755391
-0.3497,-97.36043165671182
-0.3487000000000001,-95.64863098387512
-0.3477,-93.90853608504113
-0.3467000000000001,-92.25332386419905
-0.3457,-90.55567030436099
-0.3447000000000001,-88.80142829252836
-0.3437,-87.18865741068221
-0.3427000000000001,-85.53344518984011
-0.3417,-83.96311564698992
-0.3407000000000001,-82.43522744313569
-0.3397,-80.90733923928146
-0.3387000000000001,-79.37945103542721
-0.3377,-77.90815128356756
-0.3367000000000001,-76.38026307971333
-0.3357,-74.89481621485504
-0.3347000000000001,-73.3669280110008
-0.3337,-71.83903980714656
-0.3327000000000001,-70.31115160329232
-0.3317,-68.78326339943808
-0.3307000000000001,-67.34025787357575
-0.3297,-65.86895812171612
-0.3287000000000001,-64.46839393484973
-0.3277,-63.06782974798333
-0.3267000000000001,-61.72385401311155
-0.3257,-60.40817250423707
-0.3247000000000001,-59.14907944735718
-0.3237,-57.79095659948675
-0.3227000000000001,-56.489422203610914
-0.3217,-55.17374069473642
-0.3207000000000001,-53.7873236208687
-0.3197,-52.471642111994214
-0.3187000000000001,-51.127666377122424
-0.3177,-49.81198486824794
-0.3167000000000001,-48.51045047237211
-0.3157,-47.19476896349763
-0.3147000000000001,-46.02055858460964
-0.3137,-44.74731841473111
-0.3127000000000001,-43.57310803584313
-0.3117,-42.39889765695515
-0.3107000000000001,-41.22468727806717
-0.3097,-40.03632978618054
-0.3087000000000001,-38.86211940729255
-0.3077,-37.645467689408626
-0.3067000000000001,-36.4288159715247
-0.30569999999999997,-35.198017140642115
-0.3047000000000001,-33.93892408376223
-0.30369999999999997,-32.807155043870196
-0.3027000000000001,-31.57635621298762
-0.30169999999999997,-30.487028512091538
-0.3007000000000001,-29.39770081119546
-0.29969999999999997,-28.308373110299385
-0.2987000000000001,-27.261486748399253
-0.29769999999999996,-26.21460038649913
-0.2967000000000001,-25.167714024599
-0.29569999999999996,-24.120827662698876
-0.2947000000000001,-23.031499961802798
-0.29369999999999996,-21.98461359990267
-0.29270000000000007,-20.85284456001064
-0.29169999999999996,-19.763516859114564
-0.29070000000000007,-18.716630497214435
-0.28969999999999996,-17.627302796318357
-0.28870000000000007,-16.665299112410132
-0.28769999999999996,-15.70329542850191
-0.28670000000000007,-14.741291744593681
-0.28569999999999995,-13.784946905884919
-0.28470000000000006,-12.913484745168056
-0.28369999999999995,-11.952895772559694
-0.28270000000000006,-11.037577561547016
-0.28169999999999995,-10.078403300238522
-0.28070000000000006,-9.073958277334345
-0.27969999999999995,-8.11478401602585
-0.27870000000000006,-7.155609754717355
-0.27769999999999995,-6.238876832404812
-0.27670000000000006,-5.323558621392133
-0.27569999999999995,-4.364384360083638
-0.27470000000000006,-3.5353635383627267
-0.27369999999999994,-2.706342716641815
-0.27270000000000005,-1.8773218949209036
-0.27169999999999994,-1.0925815368857679
-0.27070000000000005,-0.26384365742482935
-0.26969999999999994,0.5211796428702795
-0.26870000000000005,1.349917522331218
-0.26769999999999994,2.178655401792157
-0.26670000000000005,3.0515322738088844
-0.26569999999999994,3.8791383842299307
