May 5, 2025   12:27:08
Cyclic Voltammetry
File: c:/users/guazh/data/banditlqround7_x0exp1108_r5/2025-04-30-exp1248\exp1248-2025-05-05t12_19_55-h2koh\exp1248_cv_sr_500mvs_efin_-1400mv.bin
Data Source:  Experiment
Instrument Model:  CHI760E
Header: CV ran at 500 mVs
Note: 

Init E (V) = -1
High E (V) = -1
Low E (V) = -1.4
Final E (V) = -1
Init P/N = N
Scan Rate (V/s) = 0.5
Segment = 3
Sample Interval (V) = 0.001
Quiet Time (sec) = 2
Sensitivity (A/V) = 0.01
Comp R (ohm) = 1.1

Results:

Channel 1:
Segment 1:

Segment 2:

Segment 3:

Potential/V, Current/A

-1.000, 2.900e-4
-1.001, 4.595e-4
-1.002, 6.075e-4
-1.003, 7.432e-4
-1.004, 8.696e-4
-1.005, 9.837e-4
-1.006, 1.082e-3
-1.007, 1.169e-3
-1.008, 1.240e-3
-1.009, 1.304e-3
-1.010, 1.366e-3
-1.011, 1.425e-3
-1.012, 1.483e-3
-1.013, 1.539e-3
-1.014, 1.588e-3
-1.015, 1.634e-3
-1.016, 1.671e-3
-1.017, 1.705e-3
-1.018, 1.736e-3
-1.019, 1.767e-3
-1.020, 1.801e-3
-1.021, 1.838e-3
-1.022, 1.872e-3
-1.023, 1.902e-3
-1.024, 1.927e-3
-1.025, 1.949e-3
-1.026, 1.964e-3
-1.027, 1.983e-3
-1.028, 2.007e-3
-1.029, 2.032e-3
-1.030, 2.060e-3
-1.031, 2.081e-3
-1.032, 2.103e-3
-1.033, 2.118e-3
-1.034, 2.128e-3
-1.035, 2.140e-3
-1.036, 2.158e-3
-1.037, 2.177e-3
-1.038, 2.198e-3
-1.039, 2.220e-3
-1.040, 2.238e-3
-1.041, 2.248e-3
-1.042, 2.257e-3
-1.043, 2.266e-3
-1.044, 2.279e-3
-1.045, 2.294e-3
-1.046, 2.312e-3
-1.047, 2.331e-3
-1.048, 2.346e-3
-1.049, 2.359e-3
-1.050, 2.365e-3
-1.051, 2.371e-3
-1.052, 2.380e-3
-1.053, 2.393e-3
-1.054, 2.411e-3
-1.055, 2.430e-3
-1.056, 2.445e-3
-1.057, 2.454e-3
-1.058, 2.464e-3
-1.059, 2.470e-3
-1.060, 2.479e-3
-1.061, 2.488e-3
-1.062, 2.504e-3
-1.063, 2.522e-3
-1.064, 2.538e-3
-1.065, 2.550e-3
-1.066, 2.556e-3
-1.067, 2.562e-3
-1.068, 2.568e-3
-1.069, 2.578e-3
-1.070, 2.590e-3
-1.071, 2.602e-3
-1.072, 2.621e-3
-1.073, 2.633e-3
-1.074, 2.639e-3
-1.075, 2.649e-3
-1.076, 2.649e-3
-1.077, 2.652e-3
-1.078, 2.667e-3
-1.079, 2.679e-3
-1.080, 2.695e-3
-1.081, 2.710e-3
-1.082, 2.719e-3
-1.083, 2.723e-3
-1.084, 2.726e-3
-1.085, 2.732e-3
-1.086, 2.741e-3
-1.087, 2.753e-3
-1.088, 2.766e-3
-1.089, 2.784e-3
-1.090, 2.793e-3
-1.091, 2.800e-3
-1.092, 2.803e-3
-1.093, 2.803e-3
-1.094, 2.809e-3
-1.095, 2.821e-3
-1.096, 2.830e-3
-1.097, 2.846e-3
-1.098, 2.858e-3
-1.099, 2.867e-3
-1.100, 2.871e-3
-1.101, 2.874e-3
-1.102, 2.880e-3
-1.103, 2.889e-3
-1.104, 2.904e-3
-1.105, 2.920e-3
-1.106, 2.932e-3
-1.107, 2.938e-3
-1.108, 2.945e-3
-1.109, 2.945e-3
-1.110, 2.951e-3
-1.111, 2.957e-3
-1.112, 2.969e-3
-1.113, 2.982e-3
-1.114, 2.994e-3
-1.115, 3.003e-3
-1.116, 3.009e-3
-1.117, 3.009e-3
-1.118, 3.012e-3
-1.119, 3.015e-3
-1.120, 3.028e-3
-1.121, 3.040e-3
-1.122, 3.052e-3
-1.123, 3.065e-3
-1.124, 3.071e-3
-1.125, 3.077e-3
-1.126, 3.080e-3
-1.127, 3.083e-3
-1.128, 3.093e-3
-1.129, 3.108e-3
-1.130, 3.120e-3
-1.131, 3.133e-3
-1.132, 3.139e-3
-1.133, 3.145e-3
-1.134, 3.145e-3
-1.135, 3.148e-3
-1.136, 3.157e-3
-1.137, 3.167e-3
-1.138, 3.179e-3
-1.139, 3.188e-3
-1.140, 3.197e-3
-1.141, 3.200e-3
-1.142, 3.204e-3
-1.143, 3.204e-3
-1.144, 3.204e-3
-1.145, 3.213e-3
-1.146, 3.222e-3
-1.147, 3.234e-3
-1.148, 3.244e-3
-1.149, 3.250e-3
-1.150, 3.250e-3
-1.151, 3.250e-3
-1.152, 3.253e-3
-1.153, 3.262e-3
-1.154, 3.274e-3
-1.155, 3.287e-3
-1.156, 3.299e-3
-1.157, 3.302e-3
-1.158, 3.308e-3
-1.159, 3.308e-3
-1.160, 3.311e-3
-1.161, 3.321e-3
-1.162, 3.333e-3
-1.163, 3.348e-3
-1.164, 3.361e-3
-1.165, 3.370e-3
-1.166, 3.373e-3
-1.167, 3.379e-3
-1.168, 3.379e-3
-1.169, 3.385e-3
-1.170, 3.398e-3
-1.171, 3.407e-3
-1.172, 3.425e-3
-1.173, 3.435e-3
-1.174, 3.441e-3
-1.175, 3.444e-3
-1.176, 3.444e-3
-1.177, 3.450e-3
-1.178, 3.459e-3
-1.179, 3.472e-3
-1.180, 3.487e-3
-1.181, 3.499e-3
-1.182, 3.506e-3
-1.183, 3.512e-3
-1.184, 3.512e-3
-1.185, 3.518e-3
-1.186, 3.524e-3
-1.187, 3.540e-3
-1.188, 3.552e-3
-1.189, 3.564e-3
-1.190, 3.577e-3
-1.191, 3.580e-3
-1.192, 3.586e-3
-1.193, 3.589e-3
-1.194, 3.595e-3
-1.195, 3.607e-3
-1.196, 3.620e-3
-1.197, 3.635e-3
-1.198, 3.647e-3
-1.199, 3.657e-3
-1.200, 3.660e-3
-1.201, 3.666e-3
-1.202, 3.669e-3
-1.203, 3.684e-3
-1.204, 3.700e-3
-1.205, 3.718e-3
-1.206, 3.731e-3
-1.207, 3.746e-3
-1.208, 3.752e-3
-1.209, 3.758e-3
-1.210, 3.765e-3
-1.211, 3.777e-3
-1.212, 3.792e-3
-1.213, 3.808e-3
-1.214, 3.823e-3
-1.215, 3.842e-3
-1.216, 3.851e-3
-1.217, 3.860e-3
-1.218, 3.863e-3
-1.219, 3.876e-3
-1.220, 3.891e-3
-1.221, 3.906e-3
-1.222, 3.928e-3
-1.223, 3.940e-3
-1.224, 3.956e-3
-1.225, 3.962e-3
-1.226, 3.974e-3
-1.227, 3.984e-3
-1.228, 4.002e-3
-1.229, 4.027e-3
-1.230, 4.048e-3
-1.231, 4.067e-3
-1.232, 4.079e-3
-1.233, 4.091e-3
-1.234, 4.098e-3
-1.235, 4.113e-3
-1.236, 4.128e-3
-1.237, 4.147e-3
-1.238, 4.172e-3
-1.239, 4.193e-3
-1.240, 4.209e-3
-1.241, 4.224e-3
-1.242, 4.233e-3
-1.243, 4.243e-3
-1.244, 4.252e-3
-1.245, 4.270e-3
-1.246, 4.292e-3
-1.247, 4.317e-3
-1.248, 4.341e-3
-1.249, 4.363e-3
-1.250, 4.378e-3
-1.251, 4.394e-3
-1.252, 4.409e-3
-1.253, 4.428e-3
-1.254, 4.452e-3
-1.255, 4.474e-3
-1.256, 4.495e-3
-1.257, 4.511e-3
-1.258, 4.526e-3
-1.259, 4.538e-3
-1.260, 4.551e-3
-1.261, 4.566e-3
-1.262, 4.588e-3
-1.263, 4.609e-3
-1.264, 4.634e-3
-1.265, 4.656e-3
-1.266, 4.674e-3
-1.267, 4.686e-3
-1.268, 4.705e-3
-1.269, 4.720e-3
-1.270, 4.745e-3
-1.271, 4.770e-3
-1.272, 4.794e-3
-1.273, 4.819e-3
-1.274, 4.838e-3
-1.275, 4.859e-3
-1.276, 4.878e-3
-1.277, 4.896e-3
-1.278, 4.927e-3
-1.279, 4.955e-3
-1.280, 4.992e-3
-1.281, 5.023e-3
-1.282, 5.050e-3
-1.283, 5.072e-3
-1.284, 5.093e-3
-1.285, 5.115e-3
-1.286, 5.143e-3
-1.287, 5.171e-3
-1.288, 5.204e-3
-1.289, 5.235e-3
-1.290, 5.263e-3
-1.291, 5.288e-3
-1.292, 5.312e-3
-1.293, 5.337e-3
-1.294, 5.362e-3
-1.295, 5.396e-3
-1.296, 5.430e-3
-1.297, 5.467e-3
-1.298, 5.497e-3
-1.299, 5.528e-3
-1.300, 5.556e-3
-1.301, 5.581e-3
-1.302, 5.608e-3
-1.303, 5.642e-3
-1.304, 5.679e-3
-1.305, 5.719e-3
-1.306, 5.759e-3
-1.307, 5.793e-3
-1.308, 5.827e-3
-1.309, 5.855e-3
-1.310, 5.892e-3
-1.311, 5.926e-3
-1.312, 5.963e-3
-1.313, 6.003e-3
-1.314, 6.043e-3
-1.315, 6.083e-3
-1.316, 6.114e-3
-1.317, 6.145e-3
-1.318, 6.176e-3
-1.319, 6.213e-3
-1.320, 6.253e-3
-1.321, 6.299e-3
-1.322, 6.348e-3
-1.323, 6.395e-3
-1.324, 6.441e-3
-1.325, 6.481e-3
-1.326, 6.524e-3
-1.327, 6.567e-3
-1.328, 6.617e-3
-1.329, 6.672e-3
-1.330, 6.724e-3
-1.331, 6.777e-3
-1.332, 6.823e-3
-1.333, 6.866e-3
-1.334, 6.906e-3
-1.335, 6.949e-3
-1.336, 6.996e-3
-1.337, 7.048e-3
-1.338, 7.104e-3
-1.339, 7.159e-3
-1.340, 7.212e-3
-1.341, 7.261e-3
-1.342, 7.307e-3
-1.343, 7.353e-3
-1.344, 7.403e-3
-1.345, 7.461e-3
-1.346, 7.520e-3
-1.347, 7.585e-3
-1.348, 7.646e-3
-1.349, 7.705e-3
-1.350, 7.760e-3
-1.351, 7.816e-3
-1.352, 7.878e-3
-1.353, 7.942e-3
-1.354, 8.013e-3
-1.355, 8.087e-3
-1.356, 8.155e-3
-1.357, 8.220e-3
-1.358, 8.281e-3
-1.359, 8.340e-3
-1.360, 8.399e-3
-1.361, 8.463e-3
-1.362, 8.528e-3
-1.363, 8.602e-3
-1.364, 8.670e-3
-1.365, 8.738e-3
-1.366, 8.806e-3
-1.367, 8.870e-3
-1.368, 8.932e-3
-1.369, 9.006e-3
-1.370, 9.083e-3
-1.371, 9.163e-3
-1.372, 9.246e-3
-1.373, 9.327e-3
-1.374, 9.407e-3
-1.375, 9.484e-3
-1.376, 9.558e-3
-1.377, 9.635e-3
-1.378, 9.715e-3
-1.379, 9.801e-3
-1.380, 9.885e-3
-1.381, 9.965e-3
-1.382, 1.005e-2
-1.383, 1.012e-2
-1.384, 1.020e-2
-1.385, 1.027e-2
-1.386, 1.035e-2
-1.387, 1.044e-2
-1.388, 1.052e-2
-1.389, 1.061e-2
-1.390, 1.070e-2
-1.391, 1.078e-2
-1.392, 1.087e-2
-1.393, 1.095e-2
-1.394, 1.104e-2
-1.395, 1.113e-2
-1.396, 1.123e-2
-1.397, 1.133e-2
-1.398, 1.143e-2
-1.399, 1.153e-2
-1.400, 1.148e-2
-1.399, 1.121e-2
-1.398, 1.097e-2
-1.397, 1.076e-2
-1.396, 1.058e-2
-1.395, 1.040e-2
-1.394, 1.023e-2
-1.393, 1.006e-2
-1.392, 9.903e-3
-1.391, 9.740e-3
-1.390, 9.586e-3
-1.389, 9.438e-3
-1.388, 9.296e-3
-1.387, 9.160e-3
-1.386, 9.028e-3
-1.385, 8.892e-3
-1.384, 8.756e-3
-1.383, 8.621e-3
-1.382, 8.488e-3
-1.381, 8.362e-3
-1.380, 8.241e-3
-1.379, 8.127e-3
-1.378, 8.016e-3
-1.377, 7.902e-3
-1.376, 7.782e-3
-1.375, 7.659e-3
-1.374, 7.538e-3
-1.373, 7.418e-3
-1.372, 7.304e-3
-1.371, 7.193e-3
-1.370, 7.085e-3
-1.369, 6.971e-3
-1.368, 6.860e-3
-1.367, 6.740e-3
-1.366, 6.623e-3
-1.365, 6.512e-3
-1.364, 6.401e-3
-1.363, 6.299e-3
-1.362, 6.194e-3
-1.361, 6.092e-3
-1.360, 5.991e-3
-1.359, 5.883e-3
-1.358, 5.775e-3
-1.357, 5.667e-3
-1.356, 5.565e-3
-1.355, 5.470e-3
-1.354, 5.377e-3
-1.353, 5.291e-3
-1.352, 5.198e-3
-1.351, 5.106e-3
-1.350, 5.007e-3
-1.349, 4.908e-3
-1.348, 4.810e-3
-1.347, 4.717e-3
-1.346, 4.628e-3
-1.345, 4.542e-3
-1.344, 4.452e-3
-1.343, 4.357e-3
-1.342, 4.261e-3
-1.341, 4.165e-3
-1.340, 4.076e-3
-1.339, 3.990e-3
-1.338, 3.910e-3
-1.337, 3.832e-3
-1.336, 3.755e-3
-1.335, 3.675e-3
-1.334, 3.589e-3
-1.333, 3.503e-3
-1.332, 3.416e-3
-1.331, 3.333e-3
-1.330, 3.253e-3
-1.329, 3.176e-3
-1.328, 3.102e-3
-1.327, 3.025e-3
-1.326, 2.945e-3
-1.325, 2.861e-3
-1.324, 2.781e-3
-1.323, 2.701e-3
-1.322, 2.627e-3
-1.321, 2.556e-3
-1.320, 2.491e-3
-1.319, 2.423e-3
-1.318, 2.349e-3
-1.317, 2.275e-3
-1.316, 2.195e-3
-1.315, 2.124e-3
-1.314, 2.050e-3
-1.313, 1.986e-3
-1.312, 1.924e-3
-1.311, 1.859e-3
-1.310, 1.791e-3
-1.309, 1.724e-3
-1.308, 1.650e-3
-1.307, 1.579e-3
-1.306, 1.511e-3
-1.305, 1.452e-3
-1.304, 1.394e-3
-1.303, 1.338e-3
-1.302, 1.283e-3
-1.301, 1.218e-3
-1.300, 1.156e-3
-1.299, 1.092e-3
-1.298, 1.030e-3
-1.297, 9.744e-4
-1.296, 9.251e-4
-1.295, 8.727e-4
-1.294, 8.203e-4
-1.293, 7.648e-4
-1.292, 7.062e-4
-1.291, 6.445e-4
-1.290, 5.859e-4
-1.289, 5.274e-4
-1.288, 4.811e-4
-1.287, 4.349e-4
-1.286, 3.886e-4
-1.285, 3.393e-4
-1.284, 2.869e-4
-1.283, 2.314e-4
-1.282, 1.759e-4
-1.281, 1.266e-4
-1.280, 8.340e-5
-1.279, 4.024e-5
-1.278, 1.559e-7
-1.277, -3.992e-5
-1.276, -8.925e-5
-1.275, -1.324e-4
-1.274, -1.817e-4
-1.273, -2.280e-4
-1.272, -2.681e-4
-1.271, -3.112e-4
-1.270, -3.452e-4
-1.269, -3.821e-4
-1.268, -4.253e-4
-1.267, -4.685e-4
-1.266, -5.178e-4
-1.265, -5.610e-4
-1.264, -5.980e-4
-1.263, -6.350e-4
-1.262, -6.658e-4
-1.261, -6.966e-4
-1.260, -7.336e-4
-1.259, -7.706e-4
-1.258, -8.138e-4
-1.257, -8.539e-4
-1.256, -8.909e-4
-1.255, -9.217e-4
-1.254, -9.494e-4
-1.253, -9.741e-4
-1.252, -1.002e-3
-1.251, -1.033e-3
-1.250, -1.067e-3
-1.249, -1.104e-3
-1.248, -1.138e-3
-1.247, -1.168e-3
-1.246, -1.196e-3
-1.245, -1.221e-3
-1.244, -1.249e-3
-1.243, -1.279e-3
-1.242, -1.316e-3
-1.241, -1.353e-3
-1.240, -1.384e-3
-1.239, -1.415e-3
-1.238, -1.440e-3
-1.237, -1.461e-3
-1.236, -1.486e-3
-1.235, -1.511e-3
-1.234, -1.541e-3
-1.233, -1.572e-3
-1.232, -1.603e-3
-1.231, -1.631e-3
-1.230, -1.649e-3
-1.229, -1.674e-3
-1.228, -1.692e-3
-1.227, -1.711e-3
-1.226, -1.736e-3
-1.225, -1.760e-3
-1.224, -1.788e-3
-1.223, -1.813e-3
-1.222, -1.834e-3
-1.221, -1.850e-3
-1.220, -1.862e-3
-1.219, -1.881e-3
-1.218, -1.902e-3
-1.217, -1.924e-3
-1.216, -1.951e-3
-1.215, -1.973e-3
-1.214, -1.995e-3
-1.213, -2.010e-3
-1.212, -2.022e-3
-1.211, -2.038e-3
-1.210, -2.053e-3
-1.209, -2.075e-3
-1.208, -2.096e-3
-1.207, -2.121e-3
-1.206, -2.140e-3
-1.205, -2.152e-3
-1.204, -2.164e-3
-1.203, -2.173e-3
-1.202, -2.186e-3
-1.201, -2.204e-3
-1.200, -2.226e-3
-1.199, -2.247e-3
-1.198, -2.266e-3
-1.197, -2.278e-3
-1.196, -2.291e-3
-1.195, -2.297e-3
-1.194, -2.309e-3
-1.193, -2.325e-3
-1.192, -2.343e-3
-1.191, -2.362e-3
-1.190, -2.380e-3
-1.189, -2.392e-3
-1.188, -2.405e-3
-1.187, -2.411e-3
-1.186, -2.420e-3
-1.185, -2.432e-3
-1.184, -2.445e-3
-1.183, -2.466e-3
-1.182, -2.485e-3
-1.181, -2.500e-3
-1.180, -2.513e-3
-1.179, -2.516e-3
-1.178, -2.522e-3
-1.177, -2.534e-3
-1.176, -2.546e-3
-1.175, -2.562e-3
-1.174, -2.580e-3
-1.173, -2.596e-3
-1.172, -2.602e-3
-1.171, -2.608e-3
-1.170, -2.611e-3
-1.169, -2.620e-3
-1.168, -2.627e-3
-1.167, -2.642e-3
-1.166, -2.657e-3
-1.165, -2.670e-3
-1.164, -2.682e-3
-1.163, -2.685e-3
-1.162, -2.688e-3
-1.161, -2.691e-3
-1.160, -2.698e-3
-1.159, -2.710e-3
-1.158, -2.722e-3
-1.157, -2.738e-3
-1.156, -2.747e-3
-1.155, -2.750e-3
-1.154, -2.753e-3
-1.153, -2.756e-3
-1.152, -2.759e-3
-1.151, -2.772e-3
-1.150, -2.781e-3
-1.149, -2.796e-3
-1.148, -2.805e-3
-1.147, -2.812e-3
-1.146, -2.812e-3
-1.145, -2.815e-3
-1.144, -2.818e-3
-1.143, -2.821e-3
-1.142, -2.830e-3
-1.141, -2.839e-3
-1.140, -2.855e-3
-1.139, -2.858e-3
-1.138, -2.858e-3
-1.137, -2.855e-3
-1.136, -2.855e-3
-1.135, -2.855e-3
-1.134, -2.861e-3
-1.133, -2.873e-3
-1.132, -2.886e-3
-1.131, -2.889e-3
-1.130, -2.889e-3
-1.129, -2.889e-3
-1.128, -2.883e-3
-1.127, -2.886e-3
-1.126, -2.892e-3
-1.125, -2.898e-3
-1.124, -2.907e-3
-1.123, -2.910e-3
-1.122, -2.910e-3
-1.121, -2.910e-3
-1.120, -2.904e-3
-1.119, -2.907e-3
-1.118, -2.913e-3
-1.117, -2.920e-3
-1.116, -2.932e-3
-1.115, -2.935e-3
-1.114, -2.941e-3
-1.113, -2.938e-3
-1.112, -2.932e-3
-1.111, -2.929e-3
-1.110, -2.926e-3
-1.109, -2.932e-3
-1.108, -2.935e-3
-1.107, -2.941e-3
-1.106, -2.944e-3
-1.105, -2.941e-3
-1.104, -2.935e-3
-1.103, -2.929e-3
-1.102, -2.926e-3
-1.101, -2.929e-3
-1.100, -2.932e-3
-1.099, -2.935e-3
-1.098, -2.941e-3
-1.097, -2.938e-3
-1.096, -2.932e-3
-1.095, -2.926e-3
-1.094, -2.920e-3
-1.093, -2.923e-3
-1.092, -2.926e-3
-1.091, -2.932e-3
-1.090, -2.935e-3
-1.089, -2.938e-3
-1.088, -2.932e-3
-1.087, -2.929e-3
-1.086, -2.923e-3
-1.085, -2.920e-3
-1.084, -2.923e-3
-1.083, -2.926e-3
-1.082, -2.932e-3
-1.081, -2.932e-3
-1.080, -2.929e-3
-1.079, -2.923e-3
-1.078, -2.916e-3
-1.077, -2.910e-3
-1.076, -2.910e-3
-1.075, -2.920e-3
-1.074, -2.923e-3
-1.073, -2.929e-3
-1.072, -2.926e-3
-1.071, -2.923e-3
-1.070, -2.916e-3
-1.069, -2.910e-3
-1.068, -2.910e-3
-1.067, -2.913e-3
-1.066, -2.920e-3
-1.065, -2.923e-3
-1.064, -2.923e-3
-1.063, -2.920e-3
-1.062, -2.916e-3
-1.061, -2.910e-3
-1.060, -2.910e-3
-1.059, -2.913e-3
-1.058, -2.920e-3
-1.057, -2.929e-3
-1.056, -2.932e-3
-1.055, -2.932e-3
-1.054, -2.926e-3
-1.053, -2.920e-3
-1.052, -2.920e-3
-1.051, -2.923e-3
-1.050, -2.929e-3
-1.049, -2.938e-3
-1.048, -2.941e-3
-1.047, -2.941e-3
-1.046, -2.941e-3
-1.045, -2.938e-3
-1.044, -2.938e-3
-1.043, -2.944e-3
-1.042, -2.950e-3
-1.041, -2.960e-3
-1.040, -2.963e-3
-1.039, -2.969e-3
-1.038, -2.966e-3
-1.037, -2.963e-3
-1.036, -2.960e-3
-1.035, -2.960e-3
-1.034, -2.966e-3
-1.033, -2.972e-3
-1.032, -2.981e-3
-1.031, -2.987e-3
-1.030, -2.987e-3
-1.029, -2.984e-3
-1.028, -2.981e-3
-1.027, -2.978e-3
-1.026, -2.984e-3
-1.025, -2.990e-3
-1.024, -3.003e-3
-1.023, -3.009e-3
-1.022, -3.009e-3
-1.021, -3.006e-3
-1.020, -3.006e-3
-1.019, -3.003e-3
-1.018, -3.009e-3
-1.017, -3.015e-3
-1.016, -3.027e-3
-1.015, -3.034e-3
-1.014, -3.040e-3
-1.013, -3.040e-3
-1.012, -3.043e-3
-1.011, -3.043e-3
-1.010, -3.046e-3
-1.009, -3.055e-3
-1.008, -3.064e-3
-1.007, -3.077e-3
-1.006, -3.086e-3
-1.005, -3.089e-3
-1.004, -3.089e-3
-1.003, -3.089e-3
-1.002, -3.092e-3
-1.001, -3.101e-3
