Sept. 13, 2024   18:21:28
Linear Sweep Voltammetry
File: c:/users/guazh/data/20240903_batch_252_500/2024-09-03-exp344\regeneratedgce-2024-09-13t18_16_50-lsvinkoh\regeneratedgce_lsv_50mvs_efin_-1900mv.bin
Data Source:  Experiment
Instrument Model:  CHI760E
Header: LSV ran at 50 mVs with Efin at -1900mV
Note: 

Init E (V) = -0.6
Final E (V) = -1.9
Scan Rate (V/s) = 0.05
Sample Interval (V) = 0.001
Quiet Time (sec) = 2
Sensitivity (A/V) = 1e-4
Comp R (ohm) = 2.3

Results:

Channel 1:

Potential/V, Current/A

-0.600, 8.986e-7
-0.601, 1.003e-6
-0.602, 1.024e-6
-0.603, 1.034e-6
-0.604, 1.045e-6
-0.605, 1.056e-6
-0.606, 1.066e-6
-0.607, 1.072e-6
-0.608, 1.076e-6
-0.609, 1.081e-6
-0.610, 1.083e-6
-0.611, 1.089e-6
-0.612, 1.096e-6
-0.613, 1.101e-6
-0.614, 1.107e-6
-0.615, 1.113e-6
-0.616, 1.116e-6
-0.617, 1.120e-6
-0.618, 1.123e-6
-0.619, 1.126e-6
-0.620, 1.129e-6
-0.621, 1.133e-6
-0.622, 1.141e-6
-0.623, 1.148e-6
-0.624, 1.152e-6
-0.625, 1.156e-6
-0.626, 1.156e-6
-0.627, 1.158e-6
-0.628, 1.158e-6
-0.629, 1.162e-6
-0.630, 1.170e-6
-0.631, 1.180e-6
-0.632, 1.183e-6
-0.633, 1.187e-6
-0.634, 1.186e-6
-0.635, 1.187e-6
-0.636, 1.191e-6
-0.637, 1.194e-6
-0.638, 1.199e-6
-0.639, 1.203e-6
-0.640, 1.208e-6
-0.641, 1.214e-6
-0.642, 1.214e-6
-0.643, 1.218e-6
-0.644, 1.220e-6
-0.645, 1.222e-6
-0.646, 1.225e-6
-0.647, 1.226e-6
-0.648, 1.232e-6
-0.649, 1.238e-6
-0.650, 1.241e-6
-0.651, 1.246e-6
-0.652, 1.248e-6
-0.653, 1.249e-6
-0.654, 1.250e-6
-0.655, 1.250e-6
-0.656, 1.255e-6
-0.657, 1.261e-6
-0.658, 1.268e-6
-0.659, 1.273e-6
-0.660, 1.274e-6
-0.661, 1.274e-6
-0.662, 1.274e-6
-0.663, 1.278e-6
-0.664, 1.281e-6
-0.665, 1.287e-6
-0.666, 1.295e-6
-0.667, 1.298e-6
-0.668, 1.302e-6
-0.669, 1.302e-6
-0.670, 1.306e-6
-0.671, 1.309e-6
-0.672, 1.313e-6
-0.673, 1.316e-6
-0.674, 1.315e-6
-0.675, 1.316e-6
-0.676, 1.322e-6
-0.677, 1.328e-6
-0.678, 1.338e-6
-0.679, 1.341e-6
-0.680, 1.341e-6
-0.681, 1.342e-6
-0.682, 1.340e-6
-0.683, 1.342e-6
-0.684, 1.347e-6
-0.685, 1.356e-6
-0.686, 1.368e-6
-0.687, 1.372e-6
-0.688, 1.370e-6
-0.689, 1.366e-6
-0.690, 1.364e-6
-0.691, 1.366e-6
-0.692, 1.374e-6
-0.693, 1.384e-6
-0.694, 1.394e-6
-0.695, 1.395e-6
-0.696, 1.393e-6
-0.697, 1.390e-6
-0.698, 1.390e-6
-0.699, 1.392e-6
-0.700, 1.401e-6
-0.701, 1.410e-6
-0.702, 1.415e-6
-0.703, 1.416e-6
-0.704, 1.414e-6
-0.705, 1.413e-6
-0.706, 1.416e-6
-0.707, 1.422e-6
-0.708, 1.430e-6
-0.709, 1.435e-6
-0.710, 1.435e-6
-0.711, 1.435e-6
-0.712, 1.435e-6
-0.713, 1.437e-6
-0.714, 1.439e-6
-0.715, 1.445e-6
-0.716, 1.450e-6
-0.717, 1.452e-6
-0.718, 1.457e-6
-0.719, 1.459e-6
-0.720, 1.462e-6
-0.721, 1.466e-6
-0.722, 1.465e-6
-0.723, 1.466e-6
-0.724, 1.467e-6
-0.725, 1.470e-6
-0.726, 1.479e-6
-0.727, 1.487e-6
-0.728, 1.492e-6
-0.729, 1.491e-6
-0.730, 1.487e-6
-0.731, 1.489e-6
-0.732, 1.491e-6
-0.733, 1.495e-6
-0.734, 1.505e-6
-0.735, 1.511e-6
-0.736, 1.514e-6
-0.737, 1.513e-6
-0.738, 1.512e-6
-0.739, 1.512e-6
-0.740, 1.514e-6
-0.741, 1.522e-6
-0.742, 1.529e-6
-0.743, 1.533e-6
-0.744, 1.534e-6
-0.745, 1.535e-6
-0.746, 1.535e-6
-0.747, 1.538e-6
-0.748, 1.543e-6
-0.749, 1.549e-6
-0.750, 1.555e-6
-0.751, 1.556e-6
-0.752, 1.556e-6
-0.753, 1.556e-6
-0.754, 1.557e-6
-0.755, 1.563e-6
-0.756, 1.571e-6
-0.757, 1.575e-6
-0.758, 1.577e-6
-0.759, 1.577e-6
-0.760, 1.578e-6
-0.761, 1.580e-6
-0.762, 1.582e-6
-0.763, 1.588e-6
-0.764, 1.596e-6
-0.765, 1.602e-6
-0.766, 1.607e-6
-0.767, 1.606e-6
-0.768, 1.607e-6
-0.769, 1.603e-6
-0.770, 1.602e-6
-0.771, 1.607e-6
-0.772, 1.617e-6
-0.773, 1.628e-6
-0.774, 1.636e-6
-0.775, 1.637e-6
-0.776, 1.633e-6
-0.777, 1.631e-6
-0.778, 1.629e-6
-0.779, 1.631e-6
-0.780, 1.638e-6
-0.781, 1.649e-6
-0.782, 1.658e-6
-0.783, 1.660e-6
-0.784, 1.659e-6
-0.785, 1.659e-6
-0.786, 1.660e-6
-0.787, 1.663e-6
-0.788, 1.669e-6
-0.789, 1.671e-6
-0.790, 1.674e-6
-0.791, 1.677e-6
-0.792, 1.680e-6
-0.793, 1.687e-6
-0.794, 1.690e-6
-0.795, 1.690e-6
-0.796, 1.693e-6
-0.797, 1.696e-6
-0.798, 1.702e-6
-0.799, 1.706e-6
-0.800, 1.709e-6
-0.801, 1.713e-6
-0.802, 1.715e-6
-0.803, 1.720e-6
-0.804, 1.722e-6
-0.805, 1.726e-6
-0.806, 1.730e-6
-0.807, 1.734e-6
-0.808, 1.738e-6
-0.809, 1.742e-6
-0.810, 1.745e-6
-0.811, 1.748e-6
-0.812, 1.751e-6
-0.813, 1.755e-6
-0.814, 1.758e-6
-0.815, 1.762e-6
-0.816, 1.765e-6
-0.817, 1.768e-6
-0.818, 1.773e-6
-0.819, 1.779e-6
-0.820, 1.784e-6
-0.821, 1.785e-6
-0.822, 1.789e-6
-0.823, 1.791e-6
-0.824, 1.794e-6
-0.825, 1.798e-6
-0.826, 1.802e-6
-0.827, 1.806e-6
-0.828, 1.810e-6
-0.829, 1.812e-6
-0.830, 1.816e-6
-0.831, 1.819e-6
-0.832, 1.824e-6
-0.833, 1.829e-6
-0.834, 1.830e-6
-0.835, 1.835e-6
-0.836, 1.837e-6
-0.837, 1.841e-6
-0.838, 1.846e-6
-0.839, 1.848e-6
-0.840, 1.852e-6
-0.841, 1.855e-6
-0.842, 1.858e-6
-0.843, 1.863e-6
-0.844, 1.866e-6
-0.845, 1.871e-6
-0.846, 1.875e-6
-0.847, 1.877e-6
-0.848, 1.881e-6
-0.849, 1.884e-6
-0.850, 1.888e-6
-0.851, 1.892e-6
-0.852, 1.896e-6
-0.853, 1.898e-6
-0.854, 1.902e-6
-0.855, 1.905e-6
-0.856, 1.910e-6
-0.857, 1.915e-6
-0.858, 1.917e-6
-0.859, 1.919e-6
-0.860, 1.923e-6
-0.861, 1.926e-6
-0.862, 1.929e-6
-0.863, 1.933e-6
-0.864, 1.935e-6
-0.865, 1.940e-6
-0.866, 1.943e-6
-0.867, 1.948e-6
-0.868, 1.951e-6
-0.869, 1.952e-6
-0.870, 1.958e-6
-0.871, 1.962e-6
-0.872, 1.963e-6
-0.873, 1.969e-6
-0.874, 1.970e-6
-0.875, 1.975e-6
-0.876, 1.978e-6
-0.877, 1.982e-6
-0.878, 1.984e-6
-0.879, 1.987e-6
-0.880, 1.990e-6
-0.881, 1.995e-6
-0.882, 1.997e-6
-0.883, 2.002e-6
-0.884, 2.006e-6
-0.885, 2.008e-6
-0.886, 2.012e-6
-0.887, 2.014e-6
-0.888, 2.018e-6
-0.889, 2.021e-6
-0.890, 2.025e-6
-0.891, 2.028e-6
-0.892, 2.032e-6
-0.893, 2.035e-6
-0.894, 2.036e-6
-0.895, 2.039e-6
-0.896, 2.044e-6
-0.897, 2.048e-6
-0.898, 2.052e-6
-0.899, 2.055e-6
-0.900, 2.058e-6
-0.901, 2.060e-6
-0.902, 2.064e-6
-0.903, 2.067e-6
-0.904, 2.070e-6
-0.905, 2.074e-6
-0.906, 2.076e-6
-0.907, 2.078e-6
-0.908, 2.082e-6
-0.909, 2.085e-6
-0.910, 2.088e-6
-0.911, 2.091e-6
-0.912, 2.093e-6
-0.913, 2.097e-6
-0.914, 2.100e-6
-0.915, 2.104e-6
-0.916, 2.107e-6
-0.917, 2.109e-6
-0.918, 2.112e-6
-0.919, 2.113e-6
-0.920, 2.117e-6
-0.921, 2.121e-6
-0.922, 2.126e-6
-0.923, 2.130e-6
-0.924, 2.131e-6
-0.925, 2.133e-6
-0.926, 2.137e-6
-0.927, 2.138e-6
-0.928, 2.143e-6
-0.929, 2.144e-6
-0.930, 2.147e-6
-0.931, 2.149e-6
-0.932, 2.156e-6
-0.933, 2.160e-6
-0.934, 2.161e-6
-0.935, 2.162e-6
-0.936, 2.161e-6
-0.937, 2.159e-6
-0.938, 2.160e-6
-0.939, 2.167e-6
-0.940, 2.179e-6
-0.941, 2.189e-6
-0.942, 2.189e-6
-0.943, 2.185e-6
-0.944, 2.182e-6
-0.945, 2.180e-6
-0.946, 2.181e-6
-0.947, 2.191e-6
-0.948, 2.202e-6
-0.949, 2.207e-6
-0.950, 2.209e-6
-0.951, 2.206e-6
-0.952, 2.204e-6
-0.953, 2.206e-6
-0.954, 2.208e-6
-0.955, 2.215e-6
-0.956, 2.218e-6
-0.957, 2.221e-6
-0.958, 2.227e-6
-0.959, 2.229e-6
-0.960, 2.233e-6
-0.961, 2.234e-6
-0.962, 2.235e-6
-0.963, 2.238e-6
-0.964, 2.238e-6
-0.965, 2.243e-6
-0.966, 2.251e-6
-0.967, 2.257e-6
-0.968, 2.259e-6
-0.969, 2.260e-6
-0.970, 2.262e-6
-0.971, 2.262e-6
-0.972, 2.266e-6
-0.973, 2.273e-6
-0.974, 2.279e-6
-0.975, 2.282e-6
-0.976, 2.284e-6
-0.977, 2.287e-6
-0.978, 2.289e-6
-0.979, 2.290e-6
-0.980, 2.295e-6
-0.981, 2.299e-6
-0.982, 2.303e-6
-0.983, 2.304e-6
-0.984, 2.306e-6
-0.985, 2.312e-6
-0.986, 2.317e-6
-0.987, 2.320e-6
-0.988, 2.323e-6
-0.989, 2.324e-6
-0.990, 2.330e-6
-0.991, 2.333e-6
-0.992, 2.336e-6
-0.993, 2.340e-6
-0.994, 2.343e-6
-0.995, 2.348e-6
-0.996, 2.350e-6
-0.997, 2.354e-6
-0.998, 2.360e-6
-0.999, 2.365e-6
-1.000, 2.368e-6
-1.001, 2.371e-6
-1.002, 2.373e-6
-1.003, 2.376e-6
-1.004, 2.377e-6
-1.005, 2.380e-6
-1.006, 2.386e-6
-1.007, 2.396e-6
-1.008, 2.406e-6
-1.009, 2.409e-6
-1.010, 2.407e-6
-1.011, 2.406e-6
-1.012, 2.403e-6
-1.013, 2.407e-6
-1.014, 2.415e-6
-1.015, 2.428e-6
-1.016, 2.440e-6
-1.017, 2.441e-6
-1.018, 2.439e-6
-1.019, 2.434e-6
-1.020, 2.431e-6
-1.021, 2.431e-6
-1.022, 2.438e-6
-1.023, 2.451e-6
-1.024, 2.465e-6
-1.025, 2.472e-6
-1.026, 2.467e-6
-1.027, 2.463e-6
-1.028, 2.460e-6
-1.029, 2.458e-6
-1.030, 2.462e-6
-1.031, 2.471e-6
-1.032, 2.482e-6
-1.033, 2.492e-6
-1.034, 2.491e-6
-1.035, 2.489e-6
-1.036, 2.485e-6
-1.037, 2.484e-6
-1.038, 2.488e-6
-1.039, 2.494e-6
-1.040, 2.505e-6
-1.041, 2.514e-6
-1.042, 2.516e-6
-1.043, 2.515e-6
-1.044, 2.513e-6
-1.045, 2.510e-6
-1.046, 2.511e-6
-1.047, 2.518e-6
-1.048, 2.528e-6
-1.049, 2.533e-6
-1.050, 2.535e-6
-1.051, 2.535e-6
-1.052, 2.536e-6
-1.053, 2.537e-6
-1.054, 2.539e-6
-1.055, 2.543e-6
-1.056, 2.550e-6
-1.057, 2.556e-6
-1.058, 2.560e-6
-1.059, 2.562e-6
-1.060, 2.567e-6
-1.061, 2.569e-6
-1.062, 2.573e-6
-1.063, 2.576e-6
-1.064, 2.575e-6
-1.065, 2.577e-6
-1.066, 2.578e-6
-1.067, 2.586e-6
-1.068, 2.597e-6
-1.069, 2.603e-6
-1.070, 2.606e-6
-1.071, 2.605e-6
-1.072, 2.603e-6
-1.073, 2.604e-6
-1.074, 2.606e-6
-1.075, 2.617e-6
-1.076, 2.627e-6
-1.077, 2.633e-6
-1.078, 2.636e-6
-1.079, 2.633e-6
-1.080, 2.633e-6
-1.081, 2.631e-6
-1.082, 2.634e-6
-1.083, 2.645e-6
-1.084, 2.658e-6
-1.085, 2.668e-6
-1.086, 2.669e-6
-1.087, 2.665e-6
-1.088, 2.663e-6
-1.089, 2.660e-6
-1.090, 2.665e-6
-1.091, 2.677e-6
-1.092, 2.688e-6
-1.093, 2.693e-6
-1.094, 2.695e-6
-1.095, 2.693e-6
-1.096, 2.691e-6
-1.097, 2.693e-6
-1.098, 2.698e-6
-1.099, 2.703e-6
-1.100, 2.711e-6
-1.101, 2.718e-6
-1.102, 2.727e-6
-1.103, 2.732e-6
-1.104, 2.729e-6
-1.105, 2.728e-6
-1.106, 2.725e-6
-1.107, 2.729e-6
-1.108, 2.740e-6
-1.109, 2.749e-6
-1.110, 2.757e-6
-1.111, 2.759e-6
-1.112, 2.757e-6
-1.113, 2.758e-6
-1.114, 2.757e-6
-1.115, 2.765e-6
-1.116, 2.775e-6
-1.117, 2.783e-6
-1.118, 2.788e-6
-1.119, 2.787e-6
-1.120, 2.789e-6
-1.121, 2.791e-6
-1.122, 2.790e-6
-1.123, 2.795e-6
-1.124, 2.801e-6
-1.125, 2.811e-6
-1.126, 2.824e-6
-1.127, 2.827e-6
-1.128, 2.827e-6
-1.129, 2.826e-6
-1.130, 2.823e-6
-1.131, 2.825e-6
-1.132, 2.834e-6
-1.133, 2.849e-6
-1.134, 2.860e-6
-1.135, 2.863e-6
-1.136, 2.861e-6
-1.137, 2.859e-6
-1.138, 2.855e-6
-1.139, 2.862e-6
-1.140, 2.873e-6
-1.141, 2.880e-6
-1.142, 2.887e-6
-1.143, 2.890e-6
-1.144, 2.891e-6
-1.145, 2.894e-6
-1.146, 2.895e-6
-1.147, 2.899e-6
-1.148, 2.902e-6
-1.149, 2.907e-6
-1.150, 2.918e-6
-1.151, 2.928e-6
-1.152, 2.936e-6
-1.153, 2.939e-6
-1.154, 2.935e-6
-1.155, 2.935e-6
-1.156, 2.934e-6
-1.157, 2.943e-6
-1.158, 2.957e-6
-1.159, 2.965e-6
-1.160, 2.969e-6
-1.161, 2.972e-6
-1.162, 2.971e-6
-1.163, 2.974e-6
-1.164, 2.977e-6
-1.165, 2.981e-6
-1.166, 2.983e-6
-1.167, 2.989e-6
-1.168, 3.000e-6
-1.169, 3.011e-6
-1.170, 3.016e-6
-1.171, 3.017e-6
-1.172, 3.017e-6
-1.173, 3.015e-6
-1.174, 3.017e-6
-1.175, 3.022e-6
-1.176, 3.035e-6
-1.177, 3.052e-6
-1.178, 3.058e-6
-1.179, 3.056e-6
-1.180, 3.054e-6
-1.181, 3.051e-6
-1.182, 3.052e-6
-1.183, 3.061e-6
-1.184, 3.073e-6
-1.185, 3.085e-6
-1.186, 3.089e-6
-1.187, 3.089e-6
-1.188, 3.086e-6
-1.189, 3.081e-6
-1.190, 3.086e-6
-1.191, 3.094e-6
-1.192, 3.106e-6
-1.193, 3.121e-6
-1.194, 3.125e-6
-1.195, 3.126e-6
-1.196, 3.122e-6
-1.197, 3.121e-6
-1.198, 3.123e-6
-1.199, 3.128e-6
-1.200, 3.140e-6
-1.201, 3.148e-6
-1.202, 3.152e-6
-1.203, 3.156e-6
-1.204, 3.157e-6
-1.205, 3.159e-6
-1.206, 3.164e-6
-1.207, 3.170e-6
-1.208, 3.177e-6
-1.209, 3.181e-6
-1.210, 3.186e-6
-1.211, 3.190e-6
-1.212, 3.191e-6
-1.213, 3.192e-6
-1.214, 3.197e-6
-1.215, 3.207e-6
-1.216, 3.220e-6
-1.217, 3.229e-6
-1.218, 3.228e-6
-1.219, 3.227e-6
-1.220, 3.224e-6
-1.221, 3.226e-6
-1.222, 3.237e-6
-1.223, 3.248e-6
-1.224, 3.259e-6
-1.225, 3.265e-6
-1.226, 3.263e-6
-1.227, 3.262e-6
-1.228, 3.262e-6
-1.229, 3.269e-6
-1.230, 3.275e-6
-1.231, 3.282e-6
-1.232, 3.293e-6
-1.233, 3.298e-6
-1.234, 3.301e-6
-1.235, 3.304e-6
-1.236, 3.301e-6
-1.237, 3.301e-6
-1.238, 3.309e-6
-1.239, 3.318e-6
-1.240, 3.328e-6
-1.241, 3.333e-6
-1.242, 3.334e-6
-1.243, 3.335e-6
-1.244, 3.336e-6
-1.245, 3.339e-6
-1.246, 3.349e-6
-1.247, 3.355e-6
-1.248, 3.360e-6
-1.249, 3.363e-6
-1.250, 3.365e-6
-1.251, 3.367e-6
-1.252, 3.369e-6
-1.253, 3.374e-6
-1.254, 3.382e-6
-1.255, 3.388e-6
-1.256, 3.392e-6
-1.257, 3.398e-6
-1.258, 3.398e-6
-1.259, 3.399e-6
-1.260, 3.402e-6
-1.261, 3.406e-6
-1.262, 3.414e-6
-1.263, 3.419e-6
-1.264, 3.424e-6
-1.265, 3.428e-6
-1.266, 3.428e-6
-1.267, 3.429e-6
-1.268, 3.432e-6
-1.269, 3.437e-6
-1.270, 3.446e-6
-1.271, 3.450e-6
-1.272, 3.453e-6
-1.273, 3.455e-6
-1.274, 3.454e-6
-1.275, 3.461e-6
-1.276, 3.470e-6
-1.277, 3.477e-6
-1.278, 3.480e-6
-1.279, 3.479e-6
-1.280, 3.482e-6
-1.281, 3.481e-6
-1.282, 3.483e-6
-1.283, 3.491e-6
-1.284, 3.501e-6
-1.285, 3.507e-6
-1.286, 3.512e-6
-1.287, 3.510e-6
-1.288, 3.508e-6
-1.289, 3.505e-6
-1.290, 3.508e-6
-1.291, 3.514e-6
-1.292, 3.527e-6
-1.293, 3.536e-6
-1.294, 3.539e-6
-1.295, 3.536e-6
-1.296, 3.534e-6
-1.297, 3.534e-6
-1.298, 3.534e-6
-1.299, 3.542e-6
-1.300, 3.552e-6
-1.301, 3.556e-6
-1.302, 3.560e-6
-1.303, 3.561e-6
-1.304, 3.560e-6
-1.305, 3.558e-6
-1.306, 3.557e-6
-1.307, 3.562e-6
-1.308, 3.573e-6
-1.309, 3.584e-6
-1.310, 3.592e-6
-1.311, 3.586e-6
-1.312, 3.585e-6
-1.313, 3.582e-6
-1.314, 3.579e-6
-1.315, 3.587e-6
-1.316, 3.599e-6
-1.317, 3.610e-6
-1.318, 3.612e-6
-1.319, 3.609e-6
-1.320, 3.607e-6
-1.321, 3.604e-6
-1.322, 3.605e-6
-1.323, 3.615e-6
-1.324, 3.625e-6
-1.325, 3.632e-6
-1.326, 3.633e-6
-1.327, 3.633e-6
-1.328, 3.631e-6
-1.329, 3.629e-6
-1.330, 3.632e-6
-1.331, 3.642e-6
-1.332, 3.652e-6
-1.333, 3.653e-6
-1.334, 3.651e-6
-1.335, 3.652e-6
-1.336, 3.657e-6
-1.337, 3.663e-6
-1.338, 3.665e-6
-1.339, 3.669e-6
-1.340, 3.669e-6
-1.341, 3.670e-6
-1.342, 3.675e-6
-1.343, 3.681e-6
-1.344, 3.691e-6
-1.345, 3.700e-6
-1.346, 3.698e-6
-1.347, 3.697e-6
-1.348, 3.694e-6
-1.349, 3.690e-6
-1.350, 3.694e-6
-1.351, 3.705e-6
-1.352, 3.721e-6
-1.353, 3.732e-6
-1.354, 3.731e-6
-1.355, 3.727e-6
-1.356, 3.722e-6
-1.357, 3.717e-6
-1.358, 3.720e-6
-1.359, 3.729e-6
-1.360, 3.745e-6
-1.361, 3.755e-6
-1.362, 3.754e-6
-1.363, 3.753e-6
-1.364, 3.747e-6
-1.365, 3.743e-6
-1.366, 3.745e-6
-1.367, 3.752e-6
-1.368, 3.759e-6
-1.369, 3.765e-6
-1.370, 3.770e-6
-1.371, 3.772e-6
-1.372, 3.775e-6
-1.373, 3.772e-6
-1.374, 3.772e-6
-1.375, 3.770e-6
-1.376, 3.770e-6
-1.377, 3.778e-6
-1.378, 3.786e-6
-1.379, 3.799e-6
-1.380, 3.803e-6
-1.381, 3.801e-6
-1.382, 3.798e-6
-1.383, 3.795e-6
-1.384, 3.789e-6
-1.385, 3.798e-6
-1.386, 3.810e-6
-1.387, 3.823e-6
-1.388, 3.826e-6
-1.389, 3.820e-6
-1.390, 3.816e-6
-1.391, 3.808e-6
-1.392, 3.811e-6
-1.393, 3.818e-6
-1.394, 3.827e-6
-1.395, 3.836e-6
-1.396, 3.835e-6
-1.397, 3.832e-6
-1.398, 3.827e-6
-1.399, 3.823e-6
-1.400, 3.828e-6
-1.401, 3.834e-6
-1.402, 3.838e-6
-1.403, 3.845e-6
-1.404, 3.847e-6
-1.405, 3.846e-6
-1.406, 3.846e-6
-1.407, 3.845e-6
-1.408, 3.842e-6
-1.409, 3.841e-6
-1.410, 3.843e-6
-1.411, 3.850e-6
-1.412, 3.861e-6
-1.413, 3.865e-6
-1.414, 3.867e-6
-1.415, 3.862e-6
-1.416, 3.856e-6
-1.417, 3.853e-6
-1.418, 3.855e-6
-1.419, 3.862e-6
-1.420, 3.873e-6
-1.421, 3.877e-6
-1.422, 3.878e-6
-1.423, 3.871e-6
-1.424, 3.866e-6
-1.425, 3.867e-6
-1.426, 3.870e-6
-1.427, 3.880e-6
-1.428, 3.883e-6
-1.429, 3.883e-6
-1.430, 3.883e-6
-1.431, 3.880e-6
-1.432, 3.877e-6
-1.433, 3.878e-6
-1.434, 3.886e-6
-1.435, 3.893e-6
-1.436, 3.896e-6
-1.437, 3.897e-6
-1.438, 3.896e-6
-1.439, 3.893e-6
-1.440, 3.892e-6
-1.441, 3.897e-6
-1.442, 3.903e-6
-1.443, 3.912e-6
-1.444, 3.914e-6
-1.445, 3.911e-6
-1.446, 3.907e-6
-1.447, 3.904e-6
-1.448, 3.906e-6
-1.449, 3.916e-6
-1.450, 3.925e-6
-1.451, 3.930e-6
-1.452, 3.930e-6
-1.453, 3.925e-6
-1.454, 3.921e-6
-1.455, 3.920e-6
-1.456, 3.923e-6
-1.457, 3.933e-6
-1.458, 3.938e-6
-1.459, 3.942e-6
-1.460, 3.944e-6
-1.461, 3.944e-6
-1.462, 3.945e-6
-1.463, 3.945e-6
-1.464, 3.945e-6
-1.465, 3.943e-6
-1.466, 3.945e-6
-1.467, 3.956e-6
-1.468, 3.967e-6
-1.469, 3.974e-6
-1.470, 3.976e-6
-1.471, 3.972e-6
-1.472, 3.966e-6
-1.473, 3.963e-6
-1.474, 3.962e-6
-1.475, 3.974e-6
-1.476, 3.990e-6
-1.477, 4.003e-6
-1.478, 4.004e-6
-1.479, 3.999e-6
-1.480, 3.994e-6
-1.481, 3.989e-6
-1.482, 3.986e-6
-1.483, 3.993e-6
-1.484, 4.008e-6
-1.485, 4.027e-6
-1.486, 4.030e-6
-1.487, 4.026e-6
-1.488, 4.020e-6
-1.489, 4.017e-6
-1.490, 4.016e-6
-1.491, 4.021e-6
-1.492, 4.033e-6
-1.493, 4.041e-6
-1.494, 4.046e-6
-1.495, 4.050e-6
-1.496, 4.047e-6
-1.497, 4.049e-6
-1.498, 4.050e-6
-1.499, 4.052e-6
-1.500, 4.054e-6
-1.501, 4.061e-6
-1.502, 4.072e-6
-1.503, 4.081e-6
-1.504, 4.089e-6
-1.505, 4.093e-6
-1.506, 4.088e-6
-1.507, 4.088e-6
-1.508, 4.087e-6
-1.509, 4.092e-6
-1.510, 4.107e-6
-1.511, 4.113e-6
-1.512, 4.117e-6
-1.513, 4.119e-6
-1.514, 4.123e-6
-1.515, 4.132e-6
-1.516, 4.135e-6
-1.517, 4.136e-6
-1.518, 4.135e-6
-1.519, 4.134e-6
-1.520, 4.142e-6
-1.521, 4.160e-6
-1.522, 4.172e-6
-1.523, 4.179e-6
-1.524, 4.177e-6
-1.525, 4.174e-6
-1.526, 4.171e-6
-1.527, 4.175e-6
-1.528, 4.184e-6
-1.529, 4.196e-6
-1.530, 4.206e-6
-1.531, 4.210e-6
-1.532, 4.211e-6
-1.533, 4.210e-6
-1.534, 4.214e-6
-1.535, 4.220e-6
-1.536, 4.229e-6
-1.537, 4.238e-6
-1.538, 4.239e-6
-1.539, 4.242e-6
-1.540, 4.248e-6
-1.541, 4.254e-6
-1.542, 4.263e-6
-1.543, 4.270e-6
-1.544, 4.272e-6
-1.545, 4.276e-6
-1.546, 4.278e-6
-1.547, 4.288e-6
-1.548, 4.293e-6
-1.549, 4.299e-6
-1.550, 4.307e-6
-1.551, 4.312e-6
-1.552, 4.318e-6
-1.553, 4.324e-6
-1.554, 4.326e-6
-1.555, 4.333e-6
-1.556, 4.334e-6
-1.557, 4.341e-6
-1.558, 4.355e-6
-1.559, 4.368e-6
-1.560, 4.379e-6
-1.561, 4.382e-6
-1.562, 4.379e-6
-1.563, 4.377e-6
-1.564, 4.378e-6
-1.565, 4.390e-6
-1.566, 4.413e-6
-1.567, 4.431e-6
-1.568, 4.437e-6
-1.569, 4.436e-6
-1.570, 4.430e-6
-1.571, 4.428e-6
-1.572, 4.431e-6
-1.573, 4.443e-6
-1.574, 4.466e-6
-1.575, 4.482e-6
-1.576, 4.487e-6
-1.577, 4.488e-6
-1.578, 4.485e-6
-1.579, 4.487e-6
-1.580, 4.496e-6
-1.581, 4.507e-6
-1.582, 4.519e-6
-1.583, 4.527e-6
-1.584, 4.539e-6
-1.585, 4.553e-6
-1.586, 4.553e-6
-1.587, 4.563e-6
-1.588, 4.570e-6
-1.589, 4.572e-6
-1.590, 4.584e-6
-1.591, 4.595e-6
-1.592, 4.608e-6
-1.593, 4.619e-6
-1.594, 4.624e-6
-1.595, 4.632e-6
-1.596, 4.638e-6
-1.597, 4.643e-6
-1.598, 4.655e-6
-1.599, 4.668e-6
-1.600, 4.687e-6
-1.601, 4.704e-6
-1.602, 4.711e-6
-1.603, 4.717e-6
-1.604, 4.721e-6
-1.605, 4.725e-6
-1.606, 4.736e-6
-1.607, 4.754e-6
-1.608, 4.776e-6
-1.609, 4.789e-6
-1.610, 4.793e-6
-1.611, 4.803e-6
-1.612, 4.812e-6
-1.613, 4.820e-6
-1.614, 4.831e-6
-1.615, 4.844e-6
-1.616, 4.863e-6
-1.617, 4.886e-6
-1.618, 4.899e-6
-1.619, 4.912e-6
-1.620, 4.920e-6
-1.621, 4.923e-6
-1.622, 4.934e-6
-1.623, 4.944e-6
-1.624, 4.966e-6
-1.625, 4.997e-6
-1.626, 5.023e-6
-1.627, 5.043e-6
-1.628, 5.049e-6
-1.629, 5.051e-6
-1.630, 5.060e-6
-1.631, 5.067e-6
-1.632, 5.092e-6
-1.633, 5.121e-6
-1.634, 5.150e-6
-1.635, 5.174e-6
-1.636, 5.186e-6
-1.637, 5.194e-6
-1.638, 5.208e-6
-1.639, 5.226e-6
-1.640, 5.236e-6
-1.641, 5.265e-6
-1.642, 5.296e-6
-1.643, 5.324e-6
-1.644, 5.342e-6
-1.645, 5.354e-6
-1.646, 5.369e-6
-1.647, 5.385e-6
-1.648, 5.404e-6
-1.649, 5.433e-6
-1.650, 5.467e-6
-1.651, 5.497e-6
-1.652, 5.520e-6
-1.653, 5.539e-6
-1.654, 5.562e-6
-1.655, 5.579e-6
-1.656, 5.605e-6
-1.657, 5.638e-6
-1.658, 5.665e-6
-1.659, 5.699e-6
-1.660, 5.729e-6
-1.661, 5.758e-6
-1.662, 5.788e-6
-1.663, 5.813e-6
-1.664, 5.845e-6
-1.665, 5.876e-6
-1.666, 5.903e-6
-1.667, 5.937e-6
-1.668, 5.973e-6
-1.669, 6.008e-6
-1.670, 6.045e-6
-1.671, 6.079e-6
-1.672, 6.113e-6
-1.673, 6.144e-6
-1.674, 6.169e-6
-1.675, 6.206e-6
-1.676, 6.250e-6
-1.677, 6.300e-6
-1.678, 6.351e-6
-1.679, 6.387e-6
-1.680, 6.424e-6
-1.681, 6.459e-6
-1.682, 6.495e-6
-1.683, 6.536e-6
-1.684, 6.585e-6
-1.685, 6.641e-6
-1.686, 6.701e-6
-1.687, 6.753e-6
-1.688, 6.798e-6
-1.689, 6.841e-6
-1.690, 6.888e-6
-1.691, 6.929e-6
-1.692, 6.982e-6
-1.693, 7.044e-6
-1.694, 7.110e-6
-1.695, 7.171e-6
-1.696, 7.224e-6
-1.697, 7.275e-6
-1.698, 7.325e-6
-1.699, 7.382e-6
-1.700, 7.448e-6
-1.701, 7.518e-6
-1.702, 7.593e-6
-1.703, 7.658e-6
-1.704, 7.724e-6
-1.705, 7.792e-6
-1.706, 7.851e-6
-1.707, 7.923e-6
-1.708, 7.998e-6
-1.709, 8.075e-6
-1.710, 8.164e-6
-1.711, 8.247e-6
-1.712, 8.322e-6
-1.713, 8.401e-6
-1.714, 8.477e-6
-1.715, 8.565e-6
-1.716, 8.652e-6
-1.717, 8.742e-6
-1.718, 8.836e-6
-1.719, 8.925e-6
-1.720, 9.022e-6
-1.721, 9.121e-6
-1.722, 9.219e-6
-1.723, 9.320e-6
-1.724, 9.415e-6
-1.725, 9.517e-6
-1.726, 9.625e-6
-1.727, 9.734e-6
-1.728, 9.851e-6
-1.729, 9.963e-6
-1.730, 1.007e-5
-1.731, 1.018e-5
-1.732, 1.030e-5
-1.733, 1.043e-5
-1.734, 1.056e-5
-1.735, 1.069e-5
-1.736, 1.082e-5
-1.737, 1.094e-5
-1.738, 1.106e-5
-1.739, 1.120e-5
-1.740, 1.135e-5
-1.741, 1.151e-5
-1.742, 1.166e-5
-1.743, 1.180e-5
-1.744, 1.195e-5
-1.745, 1.208e-5
-1.746, 1.223e-5
-1.747, 1.239e-5
-1.748, 1.257e-5
-1.749, 1.274e-5
-1.750, 1.292e-5
-1.751, 1.309e-5
-1.752, 1.326e-5
-1.753, 1.344e-5
-1.754, 1.361e-5
-1.755, 1.381e-5
-1.756, 1.401e-5
-1.757, 1.421e-5
-1.758, 1.442e-5
-1.759, 1.462e-5
-1.760, 1.483e-5
-1.761, 1.503e-5
-1.762, 1.525e-5
-1.763, 1.549e-5
-1.764, 1.572e-5
-1.765, 1.596e-5
-1.766, 1.619e-5
-1.767, 1.643e-5
-1.768, 1.667e-5
-1.769, 1.692e-5
-1.770, 1.720e-5
-1.771, 1.747e-5
-1.772, 1.774e-5
-1.773, 1.800e-5
-1.774, 1.827e-5
-1.775, 1.855e-5
-1.776, 1.884e-5
-1.777, 1.915e-5
-1.778, 1.945e-5
-1.779, 1.977e-5
-1.780, 2.008e-5
-1.781, 2.039e-5
-1.782, 2.072e-5
-1.783, 2.105e-5
-1.784, 2.139e-5
-1.785, 2.175e-5
-1.786, 2.211e-5
-1.787, 2.247e-5
-1.788, 2.284e-5
-1.789, 2.321e-5
-1.790, 2.360e-5
-1.791, 2.398e-5
-1.792, 2.440e-5
-1.793, 2.482e-5
-1.794, 2.525e-5
-1.795, 2.567e-5
-1.796, 2.610e-5
-1.797, 2.653e-5
-1.798, 2.698e-5
-1.799, 2.743e-5
-1.800, 2.790e-5
-1.801, 2.838e-5
-1.802, 2.887e-5
-1.803, 2.937e-5
-1.804, 2.988e-5
-1.805, 3.039e-5
-1.806, 3.093e-5
-1.807, 3.147e-5
-1.808, 3.202e-5
-1.809, 3.258e-5
-1.810, 3.316e-5
-1.811, 3.374e-5
-1.812, 3.432e-5
-1.813, 3.492e-5
-1.814, 3.554e-5
-1.815, 3.616e-5
-1.816, 3.681e-5
-1.817, 3.746e-5
-1.818, 3.813e-5
-1.819, 3.881e-5
-1.820, 3.950e-5
-1.821, 4.020e-5
-1.822, 4.093e-5
-1.823, 4.167e-5
-1.824, 4.241e-5
-1.825, 4.317e-5
-1.826, 4.393e-5
-1.827, 4.472e-5
-1.828, 4.554e-5
-1.829, 4.635e-5
-1.830, 4.719e-5
-1.831, 4.806e-5
-1.832, 4.893e-5
-1.833, 4.981e-5
-1.834, 5.071e-5
-1.835, 5.162e-5
-1.836, 5.256e-5
-1.837, 5.352e-5
-1.838, 5.449e-5
-1.839, 5.549e-5
-1.840, 5.651e-5
-1.841, 5.754e-5
-1.842, 5.859e-5
-1.843, 5.965e-5
-1.844, 6.074e-5
-1.845, 6.186e-5
-1.846, 6.300e-5
-1.847, 6.415e-5
-1.848, 6.534e-5
-1.849, 6.656e-5
-1.850, 6.779e-5
-1.851, 6.903e-5
-1.852, 7.029e-5
-1.853, 7.157e-5
-1.854, 7.287e-5
-1.855, 7.421e-5
-1.856, 7.557e-5
-1.857, 7.699e-5
-1.858, 7.842e-5
-1.859, 7.989e-5
-1.860, 8.137e-5
-1.861, 8.286e-5
-1.862, 8.438e-5
-1.863, 8.593e-5
-1.864, 8.756e-5
-1.865, 8.920e-5
-1.866, 9.085e-5
-1.867, 9.254e-5
-1.868, 9.425e-5
-1.869, 9.601e-5
-1.870, 9.778e-5
-1.871, 9.959e-5
-1.872, 1.015e-4
-1.873, 1.034e-4
-1.874, 1.053e-4
-1.875, 1.072e-4
-1.876, 1.092e-4
-1.877, 1.113e-4
-1.878, 1.133e-4
-1.879, 1.155e-4
-1.880, 1.176e-4
-1.881, 1.199e-4
-1.882, 1.221e-4
-1.883, 1.244e-4
-1.884, 1.267e-4
-1.885, 1.291e-4
-1.886, 1.315e-4
-1.887, 1.340e-4
-1.888, 1.365e-4
-1.889, 1.390e-4
-1.890, 1.416e-4
-1.891, 1.443e-4
-1.892, 1.471e-4
-1.893, 1.499e-4
-1.894, 1.527e-4
-1.895, 1.556e-4
-1.896, 1.586e-4
-1.897, 1.616e-4
-1.898, 1.645e-4
-1.899, 1.675e-4
