Potential V vs RHE, Current mA cm-2
0.013299999999999867,6.299709418299008
0.012299999999999978,5.244334788599692
0.011299999999999866,4.46058472847446
0.010299999999999976,3.7320084090439667
0.009299999999999864,2.924208256821031
0.008299999999999974,2.2904175944814944
0.007299999999999862,1.7542420118326456
0.006299999999999972,1.0907424121959435
0.00529999999999986,0.49981750224231747
0.0042999999999999705,0.07274445503906019
0.0032999999999998586,-0.4528490870867982
0.0022999999999999687,-1.0231192120623944
0.0012999999999998568,-1.4175407224647667
0.00029999999999996696,-1.8108304638272468
-0.000700000000000145,-2.3427619125765005
-0.0017000000000000348,-2.741710499138441
-0.0027000000000001467,-3.0487028512091543
-0.0037000000000000366,-3.504239889765696
-0.0047000000000001485,-3.9173355893262864
-0.005700000000000038,-4.184716025000778
-0.00670000000000015,-4.5638586533646075
-0.00770000000000004,-4.995345599823445
-0.008700000000000152,-5.258481901598341
-0.009700000000000042,-5.5414241615713475
-0.010700000000000154,-5.967252262830725
-0.011700000000000044,-6.277074037501167
-0.012700000000000156,-6.503427845479574
-0.013700000000000045,-6.872667494744348
-0.014700000000000157,-7.199465805013171
-0.015700000000000047,-7.369231160996977
-0.01670000000000016,-7.663491111368903
-0.01770000000000005,-7.9153097227448805
-0.01870000000000016,-8.259084568612085
-0.01970000000000005,-8.512317891287925
-0.020700000000000163,-8.864581004954319
-0.021700000000000053,-9.093764235532456
-0.022700000000000164,-9.293238528813426
-0.023700000000000054,-9.6624781780782
-0.024700000000000166,-9.986447065747294
-0.025700000000000056,-10.14772415393191
-0.026700000000000168,-10.410860455706805
-0.027700000000000058,-10.743317611175089
-0.02870000000000017,-10.939962481856329
-0.02970000000000006,-11.163486867235004
-0.03070000000000017,-11.538385361699238
-0.03170000000000006,-11.784545127875756
-0.03270000000000017,-11.96562817425848
-0.03370000000000006,-12.310817731425548
-0.034700000000000175,-12.612151238296804
-0.035700000000000065,-12.760695924782631
-0.03670000000000018,-13.033735205656583
-0.03770000000000007,-13.357704093325674
-0.03870000000000018,-13.545860696207727
-0.03970000000000007,-13.779288060685458
-0.04070000000000018,-14.138624730851175
-0.04170000000000007,-14.373466806628771
-0.04270000000000018,-14.543232162612577
-0.04370000000000007,-14.868615761581536
-0.044700000000000184,-15.165705134553193
-0.045700000000000074,-15.307176264539699
-0.046700000000000186,-15.575971411514052
-0.047700000000000076,-15.901355010483012
-0.04870000000000019,-16.11356170546277
-0.04970000000000008,-16.339915513441174
-0.05070000000000019,-16.693593338407435
-0.05170000000000008,-16.891652920388537
-0.05270000000000019,-16.99068271137909
-0.05370000000000008,-17.3302134233467
-0.05470000000000019,-17.641449909317007
-0.05570000000000008,-17.825362378299463
-0.056700000000000195,-18.122451751271118
-0.057700000000000085,-18.47612957623738
-0.058700000000000196,-18.631747819222536
-0.059700000000000086,-18.80151317520634
-0.0607000000000002,-19.169338113171246
-0.06170000000000009,-19.466427486142905
-0.0627000000000002,-19.664487068124007
-0.06370000000000009,-19.98987066709297
-0.0647000000000002,-20.25866581406732
-0.06570000000000009,-20.38598983105518
-0.0667000000000002,-20.654784978029536
-0.0677000000000001,-21.008462802995794
-0.0687000000000002,-21.2065223849769
-0.0697000000000001,-21.447023305953955
-0.07070000000000021,-21.814848243918867
-0.0717000000000001,-22.04120205189727
-0.07270000000000021,-22.196820294882425
-0.0737000000000001,-22.522203893851387
-0.07470000000000021,-22.84758749282034
-0.0757000000000001,-23.045647074801447
-0.07670000000000021,-23.342736447773106
-0.0777000000000001,-23.696414272739364
-0.07870000000000021,-23.88032674172182
-0.0797000000000001,-24.106680549700226
-0.08070000000000022,-24.488652600663784
-0.0817000000000001,-24.71500640864219
-0.08270000000000022,-24.870624651627345
-0.08370000000000011,-25.210155363594954
-0.08470000000000022,-25.521391849565262
-0.08570000000000011,-25.691157205549064
-0.08670000000000022,-25.959952352523427
-0.08770000000000011,-26.29948306449103
-0.08870000000000022,-26.469248420474838
-0.08970000000000011,-26.681455115454593
-0.09070000000000022,-27.035132940420848
-0.09170000000000011,-27.261486748399253
-0.09270000000000023,-27.417104991384413
-0.09370000000000012,-27.756635703352025
-0.09470000000000023,-28.06787218932233
-0.09570000000000012,-28.237637545306132
-0.09670000000000023,-28.506432692280487
-0.09770000000000012,-28.789374952253496
-0.09870000000000023,-28.944993195238652
-0.09970000000000012,-29.14305277721976
-0.10070000000000023,-29.55331905418062
-0.10170000000000012,-29.850408427152274
-0.10270000000000024,-29.977732444140123
-0.10370000000000013,-30.232380478115836
-0.10470000000000024,-30.529469851087494
-0.10570000000000013,-30.7841178850632
-0.10670000000000024,-31.08120725803486
-0.10770000000000013,-31.37829663100651
-0.10870000000000024,-31.519767760993016
-0.10970000000000013,-31.703680229975475
-0.11070000000000024,-32.07150516794038
-0.11170000000000013,-32.39688876690934
-0.11270000000000002,-32.62324257488775
-0.11370000000000013,-32.92033194785941
-0.11470000000000002,-33.13253864283916
-0.11570000000000014,-33.245715546828364
-0.11670000000000003,-33.57109914579732
-0.11770000000000014,-33.93892408376223
-0.11870000000000003,-34.10868943974604
-0.11970000000000014,-34.236013456733886
-0.12070000000000003,-34.53310282970554
-0.12170000000000014,-34.7453095246853
-0.12270000000000003,-34.92922199366775
-0.12370000000000014,-35.240458479638065
-0.12470000000000003,-35.56584207860703
-0.12570000000000014,-35.721460321592176
-0.12670000000000003,-35.93366701657193
-0.12770000000000015,-36.230756389543586
-0.12870000000000004,-36.45711019752199
-0.12970000000000015,-36.669316892501755
-0.13070000000000004,-36.99470049147071
-0.13170000000000015,-37.192760073451815
-0.13270000000000004,-37.334231203438314
-0.13370000000000015,-37.673761915405926
-0.13470000000000004,-37.98499840137623
-0.13570000000000015,-38.09817530536544
-0.13670000000000004,-38.35282333934114
-0.13770000000000016,-38.706501164307404
-0.13870000000000005,-38.8762665202912
-0.13970000000000016,-39.08847321527096
-0.14070000000000005,-39.41385681423992
-0.14170000000000016,-39.61191639622103
-0.14270000000000005,-39.75338752620753
-0.14370000000000016,-40.07877112517649
-0.14470000000000005,-40.36171338514949
-0.14570000000000016,-40.48903740213735
-0.14670000000000005,-40.77197966211036
-0.14770000000000016,-41.083216148080666
-0.14870000000000005,-41.168098826072566
-0.14970000000000017,-41.352011295055014
-0.15070000000000006,-41.77642468501453
-0.15170000000000017,-42.00277849299294
-0.15270000000000006,-42.05936694498754
-0.15370000000000017,-42.28572075296594
-0.15470000000000006,-42.568663012938956
-0.15570000000000017,-42.766722594920054
-0.15670000000000006,-42.99307640289846
-0.15770000000000017,-43.26187154987282
-0.15870000000000006,-43.40334267985933
-0.15970000000000018,-43.629696487837734
-0.16070000000000007,-44.025815651799945
-0.16170000000000018,-44.25216945977835
-0.16270000000000007,-44.39364058976485
-0.16370000000000018,-44.690729962736505
-0.16470000000000007,-44.87464243171897
-0.16570000000000018,-44.98781933570817
-0.16670000000000007,-45.29905582167847
-0.16770000000000018,-45.63858653364609
-0.16870000000000007,-45.75176343763528
-0.16970000000000018,-45.93567590661774
-0.17070000000000007,-46.24691239258805
-0.17170000000000019,-46.47326620056646
-0.17270000000000008,-46.628884443551605
-0.1737000000000002,-46.94012092952192
-0.17470000000000008,-47.23721030249357
-0.1757000000000002,-47.36453431948143
-0.17670000000000008,-47.619182353457134
-0.1777000000000002,-47.91627172642879
-0.17870000000000008,-48.04359574341665
-0.1797000000000002,-48.24165532539775
-0.18070000000000008,-48.609480263362656
-0.1817000000000002,-48.82168695834242
-0.18270000000000008,-48.93486386233162
-0.1837000000000002,-49.24610034830193
-0.1847000000000001,-49.52904260827494
-0.1857000000000002,-49.68466085126009
-0.1867000000000001,-49.89686754623985
-0.1877000000000002,-50.2505453712061
-0.1887000000000001,-50.40616361419126
-0.1897000000000002,-50.47689917918451
-0.1907000000000001,-50.68910587416426
-0.1917000000000001,-50.75984143915752
-0.19269999999999998,-51.028636586131874
-0.1937000000000001,-51.495491315087335
-0.19469999999999998,-51.919904705046854
-0.1957000000000001,-52.047228722034696
-0.19669999999999999,-52.2169940780185
-0.1977000000000001,-52.471642111994214
-0.1987,-52.61311324198071
-0.1997000000000001,-52.853614162957776
-0.2007,-53.20729198792403
-0.2017000000000001,-53.405351569905136
-0.2027,-53.56096981289029
-0.2037000000000001,-53.9005005248579
-0.2047,-54.19758989782956
-0.2057000000000001,-54.33906102781606
-0.2067,-54.59370906179176
-0.2077000000000001,-54.890798434763425
-0.2087,-55.07471090374588
-0.2097000000000001,-55.30106471172429
-0.2107,-55.64059542369189
-0.2117000000000001,-55.8669492316703
-0.2127,-56.022567474655446
-0.2137000000000001,-56.34795107362442
-0.2147,-56.64504044659606
-0.2157000000000001,-56.77236446358392
-0.2167,-56.97042404556503
-0.21770000000000012,-57.32410187053129
-0.2187,-57.57874990450699
-0.21970000000000012,-57.819250825484055
-0.2207,-58.07389885945976
-0.22170000000000012,-58.28610555443952
-0.2227,-58.61148915340847
-0.22370000000000012,-59.02175543036933
-0.2247,-59.290550577343694
-0.22570000000000012,-59.34713902933829
-0.2267,-59.60178706331399
-0.22770000000000012,-59.913023549284304
-0.22870000000000001,-60.18181869625866
-0.22970000000000013,-60.43646673023436
-0.23070000000000002,-60.73355610320602
-0.23170000000000013,-60.93161568518713
-0.23270000000000002,-61.01649836317903
-0.23370000000000013,-61.35602907514664
-0.23470000000000002,-61.66726556111695
-0.23570000000000013,-61.695559787114256
-0.23670000000000002,-61.851178030099405
-0.2376999999999999,-62.21900296806431
-0.23870000000000002,-62.36047409805081
-0.2396999999999999,-62.544386567033264
-0.24070000000000003,-62.96879995699278
-0.24169999999999991,-63.29418355596174
-0.24270000000000003,-63.6761556069253
-0.24369999999999992,-63.930803640901004
-0.24470000000000003,-63.874215188906405
-0.24569999999999992,-62.544386567033264
-0.24670000000000003,-64.15715744887942
-0.24769999999999992,-65.37380916676335
-0.24870000000000003,-65.5860158617431
-0.24969999999999992,-65.670898539735
-0.25070000000000003,-65.79822255672285
-0.2516999999999999,-65.8972523477134
-0.25270000000000004,-66.05287059069857
-0.2536999999999999,-66.44898975466076
-0.25470000000000004,-66.83096180562433
-0.2556999999999999,-66.98658004860948
-0.25670000000000004,-67.24122808258521
-0.25769999999999993,-67.55246456855551
-0.25870000000000004,-67.70808281154066
-0.25969999999999993,-67.9202895065204
-0.26070000000000004,-68.03346641050962
-0.26169999999999993,-68.52861536546239
-0.26270000000000004,-69.02376432041514
-0.26369999999999993,-69.46232482337331
-0.26470000000000005,-69.75941419634496
-0.26569999999999994,-69.8018555353409
-0.26670000000000005,-69.9716208913247
-0.26769999999999994,-70.16968047330582
-0.26870000000000005,-70.24041603829907
-0.26969999999999994,-70.48091695927613
-0.27070000000000005,-70.91947746223428
-0.27169999999999994,-69.6603844053544
-0.27270000000000005,-69.5189132753679
-0.27369999999999994,-69.7735613093436
-0.27470000000000006,-70.53750541127073
-0.27569999999999995,-71.0043601402262
-0.27670000000000006,-71.18827260920865
-0.27769999999999995,-71.10338993121674
-0.27870000000000006,-71.17412549621
-0.27969999999999995,-71.41462641718705
-0.28070000000000006,-71.76830424215332
-0.28169999999999995,-71.89562825914116
-0.28270000000000006,-71.93806959813712
-0.28369999999999995,-72.20686474511147
-0.28470000000000006,-72.37663010109527
-0.28569999999999995,-72.81519060405343
-0.28670000000000007,-73.53669336698461
-0.28769999999999996,-74.0176952089387
-0.28870000000000007,-73.59328181897921
-0.28969999999999996,-73.4235164629954
-0.29070000000000007,-73.52254625398596
-0.29169999999999996,-74.08843077393198
-0.29270000000000007,-74.7391979718699
-0.29369999999999996,-74.96555177984828
-0.2947000000000001,-74.95140466684964
-0.29569999999999996,-74.96555177984828
-0.2967000000000001,-75.13531713583208
-0.29769999999999996,-75.4465536218024
-0.2987000000000001,-75.7577901077727
-0.29969999999999997,-76.05487948074436
-0.3007000000000001,-76.23879194972683
-0.30169999999999997,-76.16805638473357
-0.3027000000000001,-76.21049772372953
-0.30369999999999997,-76.49343998370253
-0.3047000000000001,-76.67735245268499
-0.30569999999999997,-76.71979379168094
-0.3067000000000001,-76.9037062606634
-0.3077,-77.14420718164045
-0.3087000000000001,-77.1583542946391
-0.3097,-77.03103027765125
-0.3107000000000001,-77.17250140763775
-0.3117,-77.46959078060941
-0.3127000000000001,-77.59691479759726
-0.3137,-77.48373789360807
-0.3147000000000001,-77.48373789360807
-0.3157,-77.45544366761075
-0.3167000000000001,-78.09206375255003
-0.3177,-78.64380115949739
-0.3187000000000001,-78.44574157751629
-0.3197,-77.92229839656622
-0.3207000000000001,-78.03547530055542
-0.3217,-78.50233002951089
-0.3227000000000001,-78.70038961149199
-0.3237,-78.8701549674758
-0.3247000000000001,-78.9550376454677
-0.3257,-78.91259630647174
-0.3267000000000001,-78.91259630647174
-0.3277,-79.22383279244205
-0.3287000000000001,-79.20968567944341
-0.3297,-79.05406743645825
-0.3307000000000001,-79.37945103542721
-0.3317,-79.1248030014515
-0.3327000000000001,-78.91259630647174
-0.3337,-78.8135665154812
-0.3347000000000001,-79.02577321046095
-0.3357,-79.87459999037998
-0.3367000000000001,-80.17168936335163
-0.3377,-79.97362978137053
-0.3387000000000001,-79.69068752139752
-0.3397,-79.49262793941642
-0.3407000000000001,-79.56336350440966
-0.3417,-79.59165773040696
-0.3427000000000001,-79.64824618240156
-0.3437,-79.73312886039348
-0.3447000000000001,-79.52092216541372
-0.3457,-79.0965087754542
-0.3467000000000001,-79.08236166245555
-0.3477,-79.2945683574353
-0.3487000000000001,-79.28042124443665
-0.3497,-79.28042124443665
-0.3507000000000001,-79.40774526142451
-0.3517,-79.28042124443665
-0.3527000000000001,-79.01162609746228
-0.3537,-79.02577321046095
-0.3547000000000001,-79.0965087754542
-0.3557,-79.11065588845284
-0.35670000000000013,-79.1248030014515
-0.3577,-78.99747898446365
-0.35870000000000013,-78.7569780634866
-0.3597,-78.7569780634866
-0.36070000000000013,-78.983331871465
-0.3617,-78.9550376454677
-0.3626999999999999,-78.72868383748929
-0.3637,-78.67209538549469
-0.3646999999999999,-78.6155069335001
-0.3657,-78.43159446451764
-0.3666999999999999,-78.37500601252303
-0.3677,-78.38915312552167
-0.3686999999999999,-78.29012333453113
-0.36970000000000003,-78.14865220454463
-0.3706999999999999,-78.09206375255003
-0.37170000000000003,-77.87985705757028
-0.3726999999999999,-77.69594458858782
-0.37370000000000003,-77.76668015358106
-0.3746999999999999,-77.73838592758376
-0.37570000000000003,-77.48373789360807
-0.3766999999999999,-77.34226676362155
-0.37770000000000004,-77.31397253762425
-0.3786999999999999,-77.1017658426445
-0.37970000000000004,-76.960294712658
-0.3806999999999999,-76.960294712658
-0.38170000000000004,-76.8754120346661
-0.38269999999999993,-76.69149956568363
-0.38370000000000004,-76.63491111368903
-0.38469999999999993,-76.60661688769173
-0.38570000000000004,-76.40855730571064
-0.38669999999999993,-76.30952751472009
-0.38770000000000004,-76.26708617572413
-0.38869999999999993,-76.06902659374302
-0.38970000000000005,-75.95584968975382
-0.39069999999999994,-75.99829102874978
-0.39170000000000005,-75.91340835075786
-0.39269999999999994,-75.74364299477406
-0.39370000000000005,-75.68705454277946
-0.39469999999999994,-75.61631897778622
-0.39570000000000005,-75.48899496079835
-0.39669999999999994,-75.47484784779972
-0.39770000000000005,-75.50314207379701
-0.39869999999999994,-75.38996516980781
-0.39970000000000006,-75.40411228280645
-0.40069999999999995,-75.40411228280645
-0.40170000000000006,-75.23434692682265
-0.40269999999999995,-75.12117002283344
-0.40370000000000006,-75.26264115281995
-0.40469999999999995,-75.31922960481455
-0.40570000000000006,-75.12117002283344
-0.40669999999999995,-75.12117002283344
-0.40770000000000006,-75.19190558782671
-0.40869999999999995,-75.06458157083884
-0.40970000000000006,-75.0504344578402
-0.41069999999999995,-75.23434692682265
-0.41170000000000007,-75.29093537881725
-0.41269999999999996,-75.2484940398213
-0.41370000000000007,-75.31922960481455
-0.41469999999999996,-75.38996516980781
-0.41570000000000007,-75.36167094381051
-0.41669999999999996,-75.43240650880375
-0.41770000000000007,-75.50314207379701
-0.41869999999999996,-75.4465536218024
-0.4197000000000001,-75.48899496079835
-0.42069999999999996,-75.7012016557781
-0.4217000000000001,-75.80023144676866
-0.42269999999999996,-75.81437855976732
-0.4237000000000001,-75.99829102874978
-0.42469999999999997,-76.18220349773222
-0.4257000000000001,-76.21049772372953
-0.42669999999999997,-76.52173420969983
-0.4277000000000001,-76.64905822668769
-0.42869999999999997,-76.30952751472009
-0.4297000000000001,-76.19635061073087
-0.43069999999999997,-76.52173420969983
-0.4317000000000001,-77.0734716166472
-0.4327,-77.42714944161345
-0.4337000000000001,-77.82326860557566
-0.4347,-78.27597622153247
-0.4357000000000001,-78.60135982050144
-0.4367,-78.983331871465
-0.4377000000000001,-79.3228625834326
-0.4387,-79.36530392242857
-0.4397000000000001,-79.33700969643127
-0.4407,-79.45018660042047
-0.4417000000000001,-79.66239329540022
-0.4427,-79.86045287738132
-0.4437000000000001,-80.44048451032599
-0.4447,-80.8083094482909
-0.4457000000000001,-80.92148635228011
-0.4467,-81.21857572525175
-0.4477000000000001,-81.50151798522475
-0.4487,-81.65713622820991
-0.4497000000000001,-82.32205053914649
-0.4507,-82.9162292850898
-0.4517000000000001,-83.1991715450628
-0.4527,-83.35478978804795
-0.4537000000000001,-83.45381957903851
-0.4547,-84.09043966397778
-0.4557000000000001,-84.55729439293323
-0.4567,-85.03829623488735
-0.4577000000000001,-85.49100385084417
-0.4587,-85.83053456281178
-0.4597000000000001,-86.15591816178073
-0.4607,-86.94815648970517
-0.4617000000000001,-87.52818812264981
-0.4627,-87.95260151260933
-0.4637000000000001,-88.37701490256885
-0.4647,-88.9287523095162
-0.4657000000000001,-89.43804837746762
-0.4667,-90.27272804438799
-0.4677000000000001,-90.90934812932726
-0.4687,-91.23473172829621
-0.4697000000000001,-91.65914511825574
-0.4707,-92.42308922018285
-0.4717000000000001,-92.94653240113291
-0.4727,-93.35679867809377
-0.4737000000000001,-93.93683031103843
-0.4747,-94.5451561699804
-0.4757000000000001,-95.22421759391563
-0.4767,-95.97401458284409
-0.4777000000000001,-96.5964875547847
-0.4787,-96.92187115375367
-0.4797000000000001,-97.58678546469022
-0.4807,-98.52049492260115
-0.48170000000000013,-99.36932170252018
-0.4827,-100.00594178745945
-0.48370000000000013,-100.670856098396
-0.4847,-101.37821174832852
-0.48570000000000013,-102.14215585025565
-0.4867,-102.07142028526239
-0.48570000000000013,-100.65670898539736
-0.4847,-99.11467366854447
-0.48370000000000013,-97.68581525568078
-0.4827,-96.70966445877391
-0.48170000000000013,-95.66277809687378
-0.4807,-94.5451561699804
-0.4797000000000001,-93.61144671206948
-0.4787,-92.76261993215046
-0.4777000000000001,-91.80061624824224
-0.4767,-91.05081925931376
-0.4757000000000001,-90.28687515738663
-0.4747,-89.40975415147031
-0.4737000000000001,-88.57507448454994
-0.4727,-88.00918996460392
-0.4717000000000001,-87.16036318468491
-0.4707,-86.29738929176723
-0.4697000000000001,-85.66076920682796
-0.4687,-84.98170778289276
-0.4677000000000001,-84.23191079396429
-0.4667,-83.72261472601286
-0.4657000000000001,-83.11428886707091
-0.4647,-82.33619765214513
-0.4637000000000001,-81.50151798522475
-0.4627,-80.99222191727335
-0.4617000000000001,-80.41219028432867
-0.4607,-79.61995195640426
-0.4597000000000001,-79.0965087754542
