Sept. 21, 2024   05:03:14
Chronoamperometry
File: c:/users/guazh/data/20240903_batch_400_500/2024-09-20-exp405\pre-regen-2024-09-21t04_39_21-lsvinphos\ca_2024-09-21t05_00_07.bin
Data Source:  Experiment
Instrument Model:  CHI760E
Header: CA
Note: 

Init E (V) = 1
High E (V) = 1
Low E (V) = -1.5
Init P/N = N
Step = 181
Pulse Width (sec) = 1
Sample Interval (s) = 0.1
Quiet Time (sec) = 2
Sensitivity (A/V) = 0.001

Results:

Channel 1:
Forward:
Slp = 5.276e-4
Int = -9.241e-5
Cor = 0.99022

Reverse:
Slp = -7.091e-4
Int = 9.721e-5
Cor = -0.98990

Time/sec, Current/A

1.000e-1, 2.905e-3
2.000e-1, 1.588e-3
3.000e-1, 9.045e-4
4.000e-1, 7.189e-4
5.000e-1, 6.326e-4
6.000e-1, 5.720e-4
7.000e-1, 5.292e-4
8.000e-1, 4.992e-4
9.000e-1, 4.755e-4
1.000e+0, 4.576e-4
1.100e+0, -5.807e-3
1.200e+0, -1.961e-3
1.300e+0, -6.114e-4
1.400e+0, -3.964e-4
1.500e+0, -3.006e-4
1.600e+0, -2.423e-4
1.700e+0, -2.013e-4
1.800e+0, -1.719e-4
1.900e+0, -1.493e-4
2.000e+0, -1.312e-4
2.100e+0, 2.304e-3
2.200e+0, 1.658e-3
2.300e+0, 1.133e-3
2.400e+0, 8.173e-4
2.500e+0, 6.441e-4
2.600e+0, 5.455e-4
2.700e+0, 4.872e-4
2.800e+0, 4.455e-4
2.900e+0, 4.150e-4
3.000e+0, 3.897e-4
3.100e+0, -4.913e-3
3.200e+0, -9.115e-4
3.300e+0, -3.967e-4
3.400e+0, -2.690e-4
3.500e+0, -2.042e-4
3.600e+0, -1.627e-4
3.700e+0, -1.368e-4
3.800e+0, -1.176e-4
3.900e+0, -1.037e-4
4.000e+0, -9.271e-5
4.100e+0, 1.776e-3
4.200e+0, 1.286e-3
4.300e+0, 9.309e-4
4.400e+0, 6.660e-4
4.500e+0, 5.206e-4
4.600e+0, 4.375e-4
4.700e+0, 3.891e-4
4.800e+0, 3.581e-4
4.900e+0, 3.370e-4
5.000e+0, 3.240e-4
5.100e+0, -3.531e-3
5.200e+0, -5.601e-4
5.300e+0, -3.098e-4
5.400e+0, -2.208e-4
5.500e+0, -1.732e-4
5.600e+0, -1.408e-4
5.700e+0, -1.209e-4
5.800e+0, -1.055e-4
5.900e+0, -9.403e-5
6.000e+0, -8.557e-5
6.100e+0, 1.494e-3
6.200e+0, 1.022e-3
6.300e+0, 7.544e-4
6.400e+0, 5.688e-4
6.500e+0, 4.585e-4
6.600e+0, 3.919e-4
6.700e+0, 3.521e-4
6.800e+0, 3.287e-4
6.900e+0, 3.152e-4
7.000e+0, 3.067e-4
7.100e+0, -2.860e-3
7.200e+0, -4.696e-4
7.300e+0, -2.811e-4
7.400e+0, -2.049e-4
7.500e+0, -1.639e-4
7.600e+0, -1.389e-4
7.700e+0, -1.195e-4
7.800e+0, -1.064e-4
7.900e+0, -9.640e-5
8.000e+0, -8.831e-5
8.100e+0, 1.367e-3
8.200e+0, 9.016e-4
8.300e+0, 6.910e-4
8.400e+0, 5.459e-4
8.500e+0, 4.515e-4
8.600e+0, 3.932e-4
8.700e+0, 3.581e-4
8.800e+0, 3.366e-4
8.900e+0, 3.247e-4
9.000e+0, 3.172e-4
9.100e+0, -2.722e-3
9.200e+0, -4.531e-4
9.300e+0, -2.727e-4
9.400e+0, -1.999e-4
9.500e+0, -1.617e-4
9.600e+0, -1.383e-4
9.700e+0, -1.213e-4
9.800e+0, -1.082e-4
9.900e+0, -9.838e-5
1.000e+1, -9.025e-5
1.010e+1, 1.300e-3
1.020e+1, 8.845e-4
1.030e+1, 6.866e-4
1.040e+1, 5.579e-4
1.050e+1, 4.717e-4
1.060e+1, 4.161e-4
1.070e+1, 3.802e-4
1.080e+1, 3.553e-4
1.090e+1, 3.379e-4
1.100e+1, 3.255e-4
1.110e+1, -2.868e-3
1.120e+1, -5.136e-4
1.130e+1, -3.025e-4
1.140e+1, -2.182e-4
1.150e+1, -1.720e-4
1.160e+1, -1.427e-4
1.170e+1, -1.225e-4
1.180e+1, -1.074e-4
1.190e+1, -9.681e-5
1.200e+1, -8.818e-5
1.210e+1, 1.255e-3
1.220e+1, 9.011e-4
1.230e+1, 7.120e-4
1.240e+1, 5.816e-4
1.250e+1, 4.987e-4
1.260e+1, 4.407e-4
1.270e+1, 3.987e-4
1.280e+1, 3.701e-4
1.290e+1, 3.499e-4
1.300e+1, 3.354e-4
1.310e+1, -3.018e-3
1.320e+1, -5.710e-4
1.330e+1, -3.341e-4
1.340e+1, -2.406e-4
1.350e+1, -1.856e-4
1.360e+1, -1.505e-4
1.370e+1, -1.284e-4
1.380e+1, -1.135e-4
1.390e+1, -1.022e-4
1.400e+1, -9.286e-5
1.410e+1, 1.270e-3
1.420e+1, 9.662e-4
1.430e+1, 7.549e-4
1.440e+1, 6.081e-4
1.450e+1, 5.148e-4
1.460e+1, 4.552e-4
1.470e+1, 4.113e-4
1.480e+1, 3.780e-4
1.490e+1, 3.556e-4
1.500e+1, 3.389e-4
1.510e+1, -3.196e-3
1.520e+1, -6.114e-4
1.530e+1, -3.556e-4
1.540e+1, -2.543e-4
1.550e+1, -1.954e-4
1.560e+1, -1.590e-4
1.570e+1, -1.337e-4
1.580e+1, -1.162e-4
1.590e+1, -1.047e-4
1.600e+1, -9.542e-5
1.610e+1, 1.279e-3
1.620e+1, 1.029e-3
1.630e+1, 7.982e-4
1.640e+1, 6.370e-4
1.650e+1, 5.417e-4
1.660e+1, 4.766e-4
1.670e+1, 4.308e-4
1.680e+1, 3.958e-4
1.690e+1, 3.714e-4
1.700e+1, 3.529e-4
1.710e+1, -3.340e-3
1.720e+1, -6.391e-4
1.730e+1, -3.744e-4
1.740e+1, -2.718e-4
1.750e+1, -2.109e-4
1.760e+1, -1.717e-4
1.770e+1, -1.444e-4
1.780e+1, -1.258e-4
1.790e+1, -1.108e-4
1.800e+1, -9.960e-5
1.810e+1, 1.288e-3
1.820e+1, 1.077e-3
1.830e+1, 8.377e-4
1.840e+1, 6.625e-4
1.850e+1, 5.616e-4
1.860e+1, 4.934e-4
1.870e+1, 4.477e-4
1.880e+1, 4.163e-4
1.890e+1, 3.894e-4
1.900e+1, 3.680e-4
1.910e+1, -3.555e-3
1.920e+1, -6.955e-4
1.930e+1, -3.999e-4
1.940e+1, -2.858e-4
1.950e+1, -2.225e-4
1.960e+1, -1.817e-4
1.970e+1, -1.529e-4
1.980e+1, -1.333e-4
1.990e+1, -1.187e-4
2.000e+1, -1.063e-4
2.010e+1, 1.340e-3
2.020e+1, 1.155e-3
2.030e+1, 8.735e-4
2.040e+1, 6.801e-4
2.050e+1, 5.731e-4
2.060e+1, 5.045e-4
2.070e+1, 4.556e-4
2.080e+1, 4.184e-4
2.090e+1, 3.888e-4
2.100e+1, 3.663e-4
2.110e+1, -3.633e-3
2.120e+1, -6.861e-4
2.130e+1, -4.056e-4
2.140e+1, -2.971e-4
2.150e+1, -2.337e-4
2.160e+1, -1.911e-4
2.170e+1, -1.615e-4
2.180e+1, -1.391e-4
2.190e+1, -1.228e-4
2.200e+1, -1.101e-4
2.210e+1, 1.363e-3
2.220e+1, 1.186e-3
2.230e+1, 8.965e-4
2.240e+1, 6.976e-4
2.250e+1, 5.874e-4
2.260e+1, 5.150e-4
2.270e+1, 4.654e-4
2.280e+1, 4.278e-4
2.290e+1, 3.986e-4
2.300e+1, 3.760e-4
2.310e+1, -3.763e-3
2.320e+1, -7.092e-4
2.330e+1, -4.210e-4
2.340e+1, -3.079e-4
2.350e+1, -2.433e-4
2.360e+1, -2.001e-4
2.370e+1, -1.704e-4
2.380e+1, -1.483e-4
2.390e+1, -1.317e-4
2.400e+1, -1.197e-4
2.410e+1, 1.423e-3
2.420e+1, 1.218e-3
2.430e+1, 9.136e-4
2.440e+1, 7.202e-4
2.450e+1, 6.100e-4
2.460e+1, 5.331e-4
2.470e+1, 4.800e-4
2.480e+1, 4.413e-4
2.490e+1, 4.082e-4
2.500e+1, 3.838e-4
2.510e+1, -3.957e-3
2.520e+1, -7.518e-4
2.530e+1, -4.379e-4
2.540e+1, -3.183e-4
2.550e+1, -2.500e-4
2.560e+1, -2.054e-4
2.570e+1, -1.754e-4
2.580e+1, -1.538e-4
2.590e+1, -1.374e-4
2.600e+1, -1.242e-4
2.610e+1, 1.457e-3
2.620e+1, 1.257e-3
2.630e+1, 9.397e-4
2.640e+1, 7.367e-4
2.650e+1, 6.228e-4
2.660e+1, 5.466e-4
2.670e+1, 4.913e-4
2.680e+1, 4.515e-4
2.690e+1, 4.206e-4
2.700e+1, 3.950e-4
2.710e+1, -4.080e-3
2.720e+1, -7.813e-4
2.730e+1, -4.473e-4
2.740e+1, -3.226e-4
2.750e+1, -2.526e-4
2.760e+1, -2.084e-4
2.770e+1, -1.770e-4
2.780e+1, -1.563e-4
2.790e+1, -1.401e-4
2.800e+1, -1.272e-4
2.810e+1, 1.495e-3
2.820e+1, 1.280e-3
2.830e+1, 9.617e-4
2.840e+1, 7.528e-4
2.850e+1, 6.341e-4
2.860e+1, 5.559e-4
2.870e+1, 5.001e-4
2.880e+1, 4.587e-4
2.890e+1, 4.281e-4
2.900e+1, 4.035e-4
2.910e+1, -4.242e-3
2.920e+1, -8.091e-4
2.930e+1, -4.502e-4
2.940e+1, -3.264e-4
2.950e+1, -2.573e-4
2.960e+1, -2.116e-4
2.970e+1, -1.807e-4
2.980e+1, -1.574e-4
2.990e+1, -1.414e-4
3.000e+1, -1.281e-4
3.010e+1, 1.512e-3
3.020e+1, 1.318e-3
3.030e+1, 9.893e-4
3.040e+1, 7.712e-4
3.050e+1, 6.466e-4
3.060e+1, 5.657e-4
3.070e+1, 5.097e-4
3.080e+1, 4.671e-4
3.090e+1, 4.313e-4
3.100e+1, 4.040e-4
3.110e+1, -4.313e-3
3.120e+1, -8.156e-4
3.130e+1, -4.523e-4
3.140e+1, -3.261e-4
3.150e+1, -2.577e-4
3.160e+1, -2.126e-4
3.170e+1, -1.821e-4
3.180e+1, -1.618e-4
3.190e+1, -1.461e-4
3.200e+1, -1.333e-4
3.210e+1, 1.547e-3
3.220e+1, 1.333e-3
3.230e+1, 1.009e-3
3.240e+1, 7.810e-4
3.250e+1, 6.555e-4
3.260e+1, 5.747e-4
3.270e+1, 5.154e-4
3.280e+1, 4.719e-4
3.290e+1, 4.367e-4
3.300e+1, 4.072e-4
3.310e+1, -4.428e-3
3.320e+1, -8.586e-4
3.330e+1, -4.698e-4
3.340e+1, -3.367e-4
3.350e+1, -2.644e-4
3.360e+1, -2.180e-4
3.370e+1, -1.878e-4
3.380e+1, -1.669e-4
3.390e+1, -1.505e-4
3.400e+1, -1.372e-4
3.410e+1, 1.612e-3
3.420e+1, 1.370e-3
3.430e+1, 1.021e-3
3.440e+1, 7.916e-4
3.450e+1, 6.637e-4
3.460e+1, 5.825e-4
3.470e+1, 5.239e-4
3.480e+1, 4.788e-4
3.490e+1, 4.433e-4
3.500e+1, 4.159e-4
3.510e+1, -4.541e-3
3.520e+1, -9.033e-4
3.530e+1, -4.769e-4
3.540e+1, -3.405e-4
3.550e+1, -2.671e-4
3.560e+1, -2.223e-4
3.570e+1, -1.920e-4
3.580e+1, -1.691e-4
3.590e+1, -1.530e-4
3.600e+1, -1.402e-4
3.610e+1, 1.641e-3
3.620e+1, 1.406e-3
3.630e+1, 1.040e-3
3.640e+1, 7.998e-4
3.650e+1, 6.706e-4
3.660e+1, 5.874e-4
3.670e+1, 5.292e-4
3.680e+1, 4.845e-4
3.690e+1, 4.479e-4
3.700e+1, 4.194e-4
3.710e+1, -4.580e-3
3.720e+1, -9.187e-4
3.730e+1, -4.908e-4
3.740e+1, -3.502e-4
3.750e+1, -2.761e-4
3.760e+1, -2.276e-4
3.770e+1, -1.953e-4
3.780e+1, -1.711e-4
3.790e+1, -1.530e-4
3.800e+1, -1.396e-4
3.810e+1, 1.653e-3
3.820e+1, 1.433e-3
3.830e+1, 1.060e-3
3.840e+1, 8.099e-4
3.850e+1, 6.764e-4
3.860e+1, 5.921e-4
3.870e+1, 5.320e-4
3.880e+1, 4.894e-4
3.890e+1, 4.549e-4
3.900e+1, 4.280e-4
3.910e+1, -4.604e-3
3.920e+1, -9.253e-4
3.930e+1, -5.004e-4
3.940e+1, -3.562e-4
3.950e+1, -2.803e-4
3.960e+1, -2.318e-4
3.970e+1, -1.996e-4
3.980e+1, -1.775e-4
3.990e+1, -1.618e-4
4.000e+1, -1.479e-4
4.010e+1, 1.684e-3
4.020e+1, 1.453e-3
4.030e+1, 1.064e-3
4.040e+1, 8.143e-4
4.050e+1, 6.766e-4
4.060e+1, 5.926e-4
4.070e+1, 5.328e-4
4.080e+1, 4.880e-4
4.090e+1, 4.535e-4
4.100e+1, 4.254e-4
4.110e+1, -4.675e-3
4.120e+1, -9.622e-4
4.130e+1, -5.121e-4
4.140e+1, -3.663e-4
4.150e+1, -2.857e-4
4.160e+1, -2.361e-4
4.170e+1, -2.029e-4
4.180e+1, -1.796e-4
4.190e+1, -1.610e-4
4.200e+1, -1.465e-4
4.210e+1, 1.692e-3
4.220e+1, 1.478e-3
4.230e+1, 1.086e-3
4.240e+1, 8.325e-4
4.250e+1, 6.933e-4
4.260e+1, 6.063e-4
4.270e+1, 5.452e-4
4.280e+1, 4.994e-4
4.290e+1, 4.629e-4
4.300e+1, 4.342e-4
4.310e+1, -4.644e-3
4.320e+1, -9.342e-4
4.330e+1, -5.042e-4
4.340e+1, -3.656e-4
4.350e+1, -2.890e-4
4.360e+1, -2.412e-4
4.370e+1, -2.087e-4
4.380e+1, -1.856e-4
4.390e+1, -1.684e-4
4.400e+1, -1.557e-4
4.410e+1, 1.727e-3
4.420e+1, 1.473e-3
4.430e+1, 1.082e-3
4.440e+1, 8.359e-4
4.450e+1, 6.983e-4
4.460e+1, 6.103e-4
4.470e+1, 5.486e-4
4.480e+1, 5.058e-4
4.490e+1, 4.724e-4
4.500e+1, 4.436e-4
4.510e+1, -4.792e-3
4.520e+1, -1.005e-3
4.530e+1, -5.285e-4
4.540e+1, -3.774e-4
4.550e+1, -2.953e-4
4.560e+1, -2.437e-4
4.570e+1, -2.079e-4
4.580e+1, -1.815e-4
4.590e+1, -1.639e-4
4.600e+1, -1.503e-4
4.610e+1, 1.721e-3
4.620e+1, 1.491e-3
4.630e+1, 1.098e-3
4.640e+1, 8.444e-4
4.650e+1, 7.036e-4
4.660e+1, 6.175e-4
4.670e+1, 5.557e-4
4.680e+1, 5.110e-4
4.690e+1, 4.769e-4
4.700e+1, 4.485e-4
4.710e+1, -4.783e-3
4.720e+1, -9.998e-4
4.730e+1, -5.293e-4
4.740e+1, -3.773e-4
4.750e+1, -2.938e-4
4.760e+1, -2.423e-4
4.770e+1, -2.067e-4
4.780e+1, -1.815e-4
4.790e+1, -1.643e-4
4.800e+1, -1.509e-4
4.810e+1, 1.745e-3
4.820e+1, 1.507e-3
4.830e+1, 1.096e-3
4.840e+1, 8.357e-4
4.850e+1, 6.937e-4
4.860e+1, 6.078e-4
4.870e+1, 5.488e-4
4.880e+1, 5.058e-4
4.890e+1, 4.727e-4
4.900e+1, 4.469e-4
4.910e+1, -4.799e-3
4.920e+1, -1.017e-3
4.930e+1, -5.345e-4
4.940e+1, -3.827e-4
4.950e+1, -2.991e-4
4.960e+1, -2.455e-4
4.970e+1, -2.095e-4
4.980e+1, -1.840e-4
4.990e+1, -1.653e-4
5.000e+1, -1.502e-4
5.010e+1, 1.762e-3
5.020e+1, 1.526e-3
5.030e+1, 1.100e-3
5.040e+1, 8.372e-4
5.050e+1, 6.941e-4
5.060e+1, 6.072e-4
5.070e+1, 5.492e-4
5.080e+1, 5.074e-4
5.090e+1, 4.730e-4
5.100e+1, 4.466e-4
5.110e+1, -4.793e-3
5.120e+1, -1.010e-3
5.130e+1, -5.357e-4
5.140e+1, -3.825e-4
5.150e+1, -2.984e-4
5.160e+1, -2.460e-4
5.170e+1, -2.090e-4
5.180e+1, -1.834e-4
5.190e+1, -1.645e-4
5.200e+1, -1.500e-4
5.210e+1, 1.771e-3
5.220e+1, 1.517e-3
5.230e+1, 1.100e-3
5.240e+1, 8.426e-4
5.250e+1, 7.002e-4
5.260e+1, 6.139e-4
5.270e+1, 5.536e-4
5.280e+1, 5.110e-4
5.290e+1, 4.780e-4
5.300e+1, 4.509e-4
5.310e+1, -4.810e-3
5.320e+1, -1.017e-3
5.330e+1, -5.331e-4
5.340e+1, -3.798e-4
5.350e+1, -2.968e-4
5.360e+1, -2.437e-4
5.370e+1, -2.081e-4
5.380e+1, -1.829e-4
5.390e+1, -1.632e-4
5.400e+1, -1.486e-4
5.410e+1, 1.760e-3
5.420e+1, 1.513e-3
5.430e+1, 1.108e-3
5.440e+1, 8.514e-4
5.450e+1, 7.069e-4
5.460e+1, 6.196e-4
5.470e+1, 5.600e-4
5.480e+1, 5.155e-4
5.490e+1, 4.828e-4
5.500e+1, 4.569e-4
5.510e+1, -4.842e-3
5.520e+1, -1.019e-3
5.530e+1, -5.286e-4
5.540e+1, -3.740e-4
5.550e+1, -2.911e-4
5.560e+1, -2.382e-4
5.570e+1, -2.022e-4
5.580e+1, -1.772e-4
5.590e+1, -1.579e-4
5.600e+1, -1.440e-4
5.610e+1, 1.765e-3
5.620e+1, 1.516e-3
5.630e+1, 1.110e-3
5.640e+1, 8.586e-4
5.650e+1, 7.139e-4
5.660e+1, 6.234e-4
5.670e+1, 5.637e-4
5.680e+1, 5.204e-4
5.690e+1, 4.878e-4
5.700e+1, 4.627e-4
5.710e+1, -4.923e-3
5.720e+1, -1.071e-3
5.730e+1, -5.401e-4
5.740e+1, -3.766e-4
5.750e+1, -2.916e-4
5.760e+1, -2.375e-4
5.770e+1, -2.014e-4
5.780e+1, -1.760e-4
5.790e+1, -1.583e-4
5.800e+1, -1.437e-4
5.810e+1, 1.777e-3
5.820e+1, 1.544e-3
5.830e+1, 1.116e-3
5.840e+1, 8.518e-4
5.850e+1, 7.065e-4
5.860e+1, 6.174e-4
5.870e+1, 5.565e-4
5.880e+1, 5.138e-4
5.890e+1, 4.810e-4
5.900e+1, 4.544e-4
5.910e+1, -4.926e-3
5.920e+1, -1.072e-3
5.930e+1, -5.434e-4
5.940e+1, -3.824e-4
5.950e+1, -2.977e-4
5.960e+1, -2.452e-4
5.970e+1, -2.105e-4
5.980e+1, -1.850e-4
5.990e+1, -1.668e-4
6.000e+1, -1.525e-4
6.010e+1, 1.825e-3
6.020e+1, 1.546e-3
6.030e+1, 1.115e-3
6.040e+1, 8.466e-4
6.050e+1, 6.986e-4
6.060e+1, 6.114e-4
6.070e+1, 5.542e-4
6.080e+1, 5.112e-4
6.090e+1, 4.797e-4
6.100e+1, 4.553e-4
6.110e+1, -4.918e-3
6.120e+1, -1.086e-3
6.130e+1, -5.420e-4
6.140e+1, -3.732e-4
6.150e+1, -2.884e-4
6.160e+1, -2.361e-4
6.170e+1, -2.002e-4
6.180e+1, -1.753e-4
6.190e+1, -1.566e-4
6.200e+1, -1.418e-4
6.210e+1, 1.796e-3
6.220e+1, 1.551e-3
6.230e+1, 1.116e-3
6.240e+1, 8.460e-4
6.250e+1, 6.960e-4
6.260e+1, 6.066e-4
6.270e+1, 5.502e-4
6.280e+1, 5.084e-4
6.290e+1, 4.761e-4
6.300e+1, 4.525e-4
6.310e+1, -4.868e-3
6.320e+1, -1.040e-3
6.330e+1, -5.192e-4
6.340e+1, -3.629e-4
6.350e+1, -2.814e-4
6.360e+1, -2.312e-4
6.370e+1, -1.973e-4
6.380e+1, -1.728e-4
6.390e+1, -1.562e-4
6.400e+1, -1.424e-4
6.410e+1, 1.807e-3
6.420e+1, 1.544e-3
6.430e+1, 1.108e-3
6.440e+1, 8.467e-4
6.450e+1, 6.979e-4
6.460e+1, 6.069e-4
6.470e+1, 5.490e-4
6.480e+1, 5.089e-4
6.490e+1, 4.784e-4
6.500e+1, 4.549e-4
6.510e+1, -4.952e-3
6.520e+1, -1.110e-3
6.530e+1, -5.522e-4
6.540e+1, -3.851e-4
6.550e+1, -2.962e-4
6.560e+1, -2.395e-4
6.570e+1, -2.022e-4
6.580e+1, -1.752e-4
6.590e+1, -1.547e-4
6.600e+1, -1.397e-4
6.610e+1, 1.820e-3
6.620e+1, 1.562e-3
6.630e+1, 1.113e-3
6.640e+1, 8.454e-4
6.650e+1, 6.966e-4
6.660e+1, 6.091e-4
6.670e+1, 5.513e-4
6.680e+1, 5.098e-4
6.690e+1, 4.812e-4
6.700e+1, 4.582e-4
6.710e+1, -4.894e-3
6.720e+1, -1.048e-3
6.730e+1, -5.165e-4
6.740e+1, -3.619e-4
6.750e+1, -2.818e-4
6.760e+1, -2.328e-4
6.770e+1, -1.996e-4
6.780e+1, -1.763e-4
6.790e+1, -1.594e-4
6.800e+1, -1.467e-4
6.810e+1, 1.849e-3
6.820e+1, 1.566e-3
6.830e+1, 1.107e-3
6.840e+1, 8.419e-4
6.850e+1, 6.933e-4
6.860e+1, 6.035e-4
6.870e+1, 5.486e-4
6.880e+1, 5.091e-4
6.890e+1, 4.789e-4
6.900e+1, 4.558e-4
6.910e+1, -4.942e-3
6.920e+1, -1.089e-3
6.930e+1, -5.339e-4
6.940e+1, -3.748e-4
6.950e+1, -2.900e-4
6.960e+1, -2.349e-4
6.970e+1, -1.988e-4
6.980e+1, -1.726e-4
6.990e+1, -1.537e-4
7.000e+1, -1.397e-4
7.010e+1, 1.826e-3
7.020e+1, 1.551e-3
7.030e+1, 1.111e-3
7.040e+1, 8.448e-4
7.050e+1, 6.967e-4
7.060e+1, 6.069e-4
7.070e+1, 5.507e-4
7.080e+1, 5.107e-4
7.090e+1, 4.794e-4
7.100e+1, 4.569e-4
7.110e+1, -4.916e-3
7.120e+1, -1.053e-3
7.130e+1, -5.193e-4
7.140e+1, -3.659e-4
7.150e+1, -2.851e-4
7.160e+1, -2.338e-4
7.170e+1, -1.995e-4
7.180e+1, -1.765e-4
7.190e+1, -1.591e-4
7.200e+1, -1.463e-4
7.210e+1, 1.849e-3
7.220e+1, 1.549e-3
7.230e+1, 1.107e-3
7.240e+1, 8.411e-4
7.250e+1, 6.927e-4
7.260e+1, 6.045e-4
7.270e+1, 5.456e-4
7.280e+1, 5.041e-4
7.290e+1, 4.744e-4
7.300e+1, 4.501e-4
7.310e+1, -4.931e-3
7.320e+1, -1.073e-3
7.330e+1, -5.209e-4
7.340e+1, -3.668e-4
7.350e+1, -2.854e-4
7.360e+1, -2.325e-4
7.370e+1, -1.981e-4
7.380e+1, -1.737e-4
7.390e+1, -1.550e-4
7.400e+1, -1.408e-4
7.410e+1, 1.864e-3
7.420e+1, 1.564e-3
7.430e+1, 1.110e-3
7.440e+1, 8.438e-4
7.450e+1, 6.913e-4
7.460e+1, 5.999e-4
7.470e+1, 5.414e-4
7.480e+1, 4.988e-4
7.490e+1, 4.688e-4
7.500e+1, 4.469e-4
7.510e+1, -4.929e-3
7.520e+1, -1.086e-3
7.530e+1, -5.287e-4
7.540e+1, -3.727e-4
7.550e+1, -2.903e-4
7.560e+1, -2.382e-4
7.570e+1, -2.028e-4
7.580e+1, -1.783e-4
7.590e+1, -1.603e-4
7.600e+1, -1.459e-4
7.610e+1, 1.888e-3
7.620e+1, 1.561e-3
7.630e+1, 1.115e-3
7.640e+1, 8.507e-4
7.650e+1, 6.971e-4
7.660e+1, 6.031e-4
7.670e+1, 5.428e-4
7.680e+1, 5.020e-4
7.690e+1, 4.709e-4
7.700e+1, 4.484e-4
7.710e+1, -4.953e-3
7.720e+1, -1.094e-3
7.730e+1, -5.263e-4
7.740e+1, -3.655e-4
7.750e+1, -2.816e-4
7.760e+1, -2.286e-4
7.770e+1, -1.923e-4
7.780e+1, -1.668e-4
7.790e+1, -1.476e-4
7.800e+1, -1.336e-4
7.810e+1, 1.835e-3
7.820e+1, 1.556e-3
7.830e+1, 1.108e-3
7.840e+1, 8.413e-4
7.850e+1, 6.893e-4
7.860e+1, 5.988e-4
7.870e+1, 5.391e-4
7.880e+1, 4.988e-4
7.890e+1, 4.698e-4
7.900e+1, 4.469e-4
7.910e+1, -4.888e-3
7.920e+1, -1.035e-3
7.930e+1, -5.035e-4
7.940e+1, -3.544e-4
7.950e+1, -2.777e-4
7.960e+1, -2.298e-4
7.970e+1, -1.956e-4
7.980e+1, -1.720e-4
7.990e+1, -1.535e-4
8.000e+1, -1.399e-4
8.010e+1, 1.856e-3
8.020e+1, 1.533e-3
8.030e+1, 1.097e-3
8.040e+1, 8.354e-4
8.050e+1, 6.828e-4
8.060e+1, 5.915e-4
8.070e+1, 5.332e-4
8.080e+1, 4.914e-4
8.090e+1, 4.627e-4
8.100e+1, 4.414e-4
8.110e+1, -4.913e-3
8.120e+1, -1.065e-3
8.130e+1, -5.074e-4
8.140e+1, -3.532e-4
8.150e+1, -2.735e-4
8.160e+1, -2.235e-4
8.170e+1, -1.886e-4
8.180e+1, -1.646e-4
8.190e+1, -1.467e-4
8.200e+1, -1.335e-4
8.210e+1, 1.838e-3
8.220e+1, 1.525e-3
8.230e+1, 1.101e-3
8.240e+1, 8.415e-4
8.250e+1, 6.900e-4
8.260e+1, 5.972e-4
8.270e+1, 5.394e-4
8.280e+1, 4.994e-4
8.290e+1, 4.719e-4
8.300e+1, 4.528e-4
8.310e+1, -4.965e-3
8.320e+1, -1.087e-3
8.330e+1, -5.200e-4
8.340e+1, -3.640e-4
8.350e+1, -2.803e-4
8.360e+1, -2.293e-4
8.370e+1, -1.941e-4
8.380e+1, -1.700e-4
8.390e+1, -1.521e-4
8.400e+1, -1.378e-4
8.410e+1, 1.859e-3
8.420e+1, 1.537e-3
8.430e+1, 1.090e-3
8.440e+1, 8.187e-4
8.450e+1, 6.720e-4
8.460e+1, 5.852e-4
8.470e+1, 5.270e-4
8.480e+1, 4.885e-4
8.490e+1, 4.618e-4
8.500e+1, 4.417e-4
8.510e+1, -4.845e-3
8.520e+1, -1.044e-3
8.530e+1, -4.988e-4
8.540e+1, -3.503e-4
8.550e+1, -2.743e-4
8.560e+1, -2.260e-4
8.570e+1, -1.936e-4
8.580e+1, -1.706e-4
8.590e+1, -1.533e-4
8.600e+1, -1.388e-4
8.610e+1, 1.878e-3
8.620e+1, 1.525e-3
8.630e+1, 1.081e-3
8.640e+1, 8.150e-4
8.650e+1, 6.636e-4
8.660e+1, 5.774e-4
8.670e+1, 5.217e-4
8.680e+1, 4.802e-4
8.690e+1, 4.519e-4
8.700e+1, 4.307e-4
8.710e+1, -4.805e-3
8.720e+1, -1.017e-3
8.730e+1, -4.839e-4
8.740e+1, -3.377e-4
8.750e+1, -2.630e-4
8.760e+1, -2.167e-4
8.770e+1, -1.854e-4
8.780e+1, -1.621e-4
8.790e+1, -1.447e-4
8.800e+1, -1.318e-4
8.810e+1, 1.850e-3
8.820e+1, 1.507e-3
8.830e+1, 1.067e-3
8.840e+1, 8.142e-4
8.850e+1, 6.665e-4
8.860e+1, 5.784e-4
8.870e+1, 5.220e-4
8.880e+1, 4.813e-4
8.890e+1, 4.522e-4
8.900e+1, 4.316e-4
8.910e+1, -4.824e-3
8.920e+1, -1.016e-3
8.930e+1, -4.856e-4
8.940e+1, -3.381e-4
8.950e+1, -2.631e-4
8.960e+1, -2.145e-4
8.970e+1, -1.819e-4
8.980e+1, -1.590e-4
8.990e+1, -1.415e-4
9.000e+1, -1.278e-4
9.010e+1, 1.818e-3
9.020e+1, 1.486e-3
9.030e+1, 1.069e-3
9.040e+1, 8.158e-4
9.050e+1, 6.665e-4
9.060e+1, 5.757e-4
9.070e+1, 5.170e-4
9.080e+1, 4.762e-4
9.090e+1, 4.468e-4
9.100e+1, 4.262e-4
9.110e+1, -4.775e-3
9.120e+1, -1.011e-3
9.130e+1, -4.816e-4
9.140e+1, -3.352e-4
9.150e+1, -2.600e-4
9.160e+1, -2.127e-4
9.170e+1, -1.813e-4
9.180e+1, -1.588e-4
9.190e+1, -1.428e-4
9.200e+1, -1.295e-4
9.210e+1, 1.840e-3
9.220e+1, 1.490e-3
9.230e+1, 1.059e-3
9.240e+1, 8.094e-4
9.250e+1, 6.620e-4
9.260e+1, 5.734e-4
9.270e+1, 5.155e-4
9.280e+1, 4.740e-4
9.290e+1, 4.464e-4
9.300e+1, 4.261e-4
9.310e+1, -4.807e-3
9.320e+1, -1.018e-3
9.330e+1, -4.786e-4
9.340e+1, -3.344e-4
9.350e+1, -2.596e-4
9.360e+1, -2.135e-4
9.370e+1, -1.822e-4
9.380e+1, -1.602e-4
9.390e+1, -1.435e-4
9.400e+1, -1.306e-4
9.410e+1, 1.844e-3
9.420e+1, 1.505e-3
9.430e+1, 1.063e-3
9.440e+1, 8.097e-4
9.450e+1, 6.614e-4
9.460e+1, 5.706e-4
9.470e+1, 5.136e-4
9.480e+1, 4.729e-4
9.490e+1, 4.440e-4
9.500e+1, 4.245e-4
9.510e+1, -4.793e-3
9.520e+1, -1.009e-3
9.530e+1, -4.800e-4
9.540e+1, -3.373e-4
9.550e+1, -2.619e-4
9.560e+1, -2.145e-4
9.570e+1, -1.824e-4
9.580e+1, -1.596e-4
9.590e+1, -1.427e-4
9.600e+1, -1.292e-4
9.610e+1, 1.838e-3
9.620e+1, 1.497e-3
9.630e+1, 1.068e-3
9.640e+1, 8.146e-4
9.650e+1, 6.642e-4
9.660e+1, 5.717e-4
9.670e+1, 5.134e-4
9.680e+1, 4.737e-4
9.690e+1, 4.449e-4
9.700e+1, 4.250e-4
9.710e+1, -4.782e-3
9.720e+1, -1.013e-3
9.730e+1, -4.813e-4
9.740e+1, -3.363e-4
9.750e+1, -2.609e-4
9.760e+1, -2.142e-4
9.770e+1, -1.818e-4
9.780e+1, -1.590e-4
9.790e+1, -1.428e-4
9.800e+1, -1.307e-4
9.810e+1, 1.842e-3
9.820e+1, 1.499e-3
9.830e+1, 1.068e-3
9.840e+1, 8.084e-4
9.850e+1, 6.576e-4
9.860e+1, 5.698e-4
9.870e+1, 5.127e-4
9.880e+1, 4.714e-4
9.890e+1, 4.425e-4
9.900e+1, 4.208e-4
9.910e+1, -4.750e-3
9.920e+1, -9.745e-4
9.930e+1, -4.681e-4
9.940e+1, -3.290e-4
9.950e+1, -2.588e-4
9.960e+1, -2.137e-4
9.970e+1, -1.841e-4
9.980e+1, -1.624e-4
9.990e+1, -1.457e-4
1.000e+2, -1.324e-4
1.001e+2, 1.863e-3
1.002e+2, 1.500e-3
1.003e+2, 1.054e-3
1.004e+2, 8.010e-4
1.005e+2, 6.504e-4
1.006e+2, 5.609e-4
1.007e+2, 5.043e-4
1.008e+2, 4.629e-4
1.009e+2, 4.349e-4
1.010e+2, 4.161e-4
1.011e+2, -4.769e-3
1.012e+2, -1.020e-3
1.013e+2, -4.762e-4
1.014e+2, -3.303e-4
1.015e+2, -2.578e-4
1.016e+2, -2.106e-4
1.017e+2, -1.800e-4
1.018e+2, -1.580e-4
1.019e+2, -1.401e-4
1.020e+2, -1.275e-4
1.021e+2, 1.846e-3
1.022e+2, 1.493e-3
1.023e+2, 1.050e-3
1.024e+2, 7.975e-4
1.025e+2, 6.519e-4
1.026e+2, 5.625e-4
1.027e+2, 5.051e-4
1.028e+2, 4.636e-4
1.029e+2, 4.335e-4
1.030e+2, 4.139e-4
1.031e+2, -4.714e-3
1.032e+2, -9.659e-4
1.033e+2, -4.533e-4
1.034e+2, -3.159e-4
1.035e+2, -2.466e-4
1.036e+2, -2.036e-4
1.037e+2, -1.758e-4
1.038e+2, -1.546e-4
1.039e+2, -1.389e-4
1.040e+2, -1.270e-4
1.041e+2, 1.850e-3
1.042e+2, 1.494e-3
1.043e+2, 1.037e-3
1.044e+2, 7.887e-4
1.045e+2, 6.426e-4
1.046e+2, 5.531e-4
1.047e+2, 4.942e-4
1.048e+2, 4.543e-4
1.049e+2, 4.270e-4
1.050e+2, 4.081e-4
1.051e+2, -4.738e-3
1.052e+2, -1.016e-3
1.053e+2, -4.771e-4
1.054e+2, -3.325e-4
1.055e+2, -2.576e-4
1.056e+2, -2.117e-4
1.057e+2, -1.791e-4
1.058e+2, -1.552e-4
1.059e+2, -1.380e-4
1.060e+2, -1.242e-4
1.061e+2, 1.845e-3
1.062e+2, 1.495e-3
1.063e+2, 1.050e-3
1.064e+2, 7.959e-4
1.065e+2, 6.457e-4
1.066e+2, 5.560e-4
1.067e+2, 4.969e-4
1.068e+2, 4.538e-4
1.069e+2, 4.250e-4
1.070e+2, 4.045e-4
1.071e+2, -4.672e-3
1.072e+2, -9.559e-4
1.073e+2, -4.589e-4
1.074e+2, -3.221e-4
1.075e+2, -2.503e-4
1.076e+2, -2.060e-4
1.077e+2, -1.753e-4
1.078e+2, -1.538e-4
1.079e+2, -1.369e-4
1.080e+2, -1.244e-4
1.081e+2, 1.850e-3
1.082e+2, 1.466e-3
1.083e+2, 1.037e-3
1.084e+2, 7.934e-4
1.085e+2, 6.439e-4
1.086e+2, 5.505e-4
1.087e+2, 4.917e-4
1.088e+2, 4.504e-4
1.089e+2, 4.210e-4
1.090e+2, 4.021e-4
1.091e+2, -4.700e-3
1.092e+2, -9.733e-4
1.093e+2, -4.551e-4
1.094e+2, -3.169e-4
1.095e+2, -2.460e-4
1.096e+2, -2.022e-4
1.097e+2, -1.736e-4
1.098e+2, -1.528e-4
1.099e+2, -1.355e-4
1.100e+2, -1.226e-4
1.101e+2, 1.823e-3
1.102e+2, 1.472e-3
1.103e+2, 1.043e-3
1.104e+2, 7.947e-4
1.105e+2, 6.462e-4
1.106e+2, 5.536e-4
1.107e+2, 4.922e-4
1.108e+2, 4.488e-4
1.109e+2, 4.194e-4
1.110e+2, 3.993e-4
1.111e+2, -4.655e-3
1.112e+2, -9.673e-4
1.113e+2, -4.516e-4
1.114e+2, -3.127e-4
1.115e+2, -2.413e-4
1.116e+2, -1.992e-4
1.117e+2, -1.699e-4
1.118e+2, -1.494e-4
1.119e+2, -1.334e-4
1.120e+2, -1.208e-4
1.121e+2, 1.835e-3
1.122e+2, 1.477e-3
1.123e+2, 1.035e-3
1.124e+2, 7.845e-4
1.125e+2, 6.338e-4
1.126e+2, 5.420e-4
1.127e+2, 4.811e-4
1.128e+2, 4.388e-4
1.129e+2, 4.115e-4
1.130e+2, 3.926e-4
1.131e+2, -4.674e-3
1.132e+2, -9.666e-4
1.133e+2, -4.562e-4
1.134e+2, -3.194e-4
1.135e+2, -2.502e-4
1.136e+2, -2.067e-4
1.137e+2, -1.777e-4
1.138e+2, -1.552e-4
1.139e+2, -1.388e-4
1.140e+2, -1.259e-4
1.141e+2, 1.857e-3
1.142e+2, 1.474e-3
1.143e+2, 1.024e-3
1.144e+2, 7.756e-4
1.145e+2, 6.275e-4
1.146e+2, 5.384e-4
1.147e+2, 4.819e-4
1.148e+2, 4.407e-4
1.149e+2, 4.121e-4
1.150e+2, 3.926e-4
1.151e+2, -4.626e-3
1.152e+2, -9.234e-4
1.153e+2, -4.380e-4
1.154e+2, -3.081e-4
1.155e+2, -2.412e-4
1.156e+2, -1.996e-4
1.157e+2, -1.719e-4
1.158e+2, -1.516e-4
1.159e+2, -1.359e-4
1.160e+2, -1.239e-4
1.161e+2, 1.847e-3
1.162e+2, 1.469e-3
1.163e+2, 1.007e-3
1.164e+2, 7.554e-4
1.165e+2, 6.132e-4
1.166e+2, 5.262e-4
1.167e+2, 4.689e-4
1.168e+2, 4.289e-4
1.169e+2, 4.003e-4
1.170e+2, 3.822e-4
1.171e+2, -4.578e-3
1.172e+2, -9.314e-4
1.173e+2, -4.366e-4
1.174e+2, -3.037e-4
1.175e+2, -2.375e-4
1.176e+2, -1.942e-4
1.177e+2, -1.633e-4
1.178e+2, -1.428e-4
1.179e+2, -1.284e-4
1.180e+2, -1.168e-4
1.181e+2, 1.836e-3
1.182e+2, 1.458e-3
1.183e+2, 1.004e-3
1.184e+2, 7.570e-4
1.185e+2, 6.163e-4
1.186e+2, 5.316e-4
1.187e+2, 4.742e-4
1.188e+2, 4.341e-4
1.189e+2, 4.063e-4
1.190e+2, 3.866e-4
1.191e+2, -4.611e-3
1.192e+2, -9.235e-4
1.193e+2, -4.317e-4
1.194e+2, -3.006e-4
1.195e+2, -2.347e-4
1.196e+2, -1.951e-4
1.197e+2, -1.669e-4
1.198e+2, -1.461e-4
1.199e+2, -1.318e-4
1.200e+2, -1.207e-4
1.201e+2, 1.836e-3
1.202e+2, 1.434e-3
1.203e+2, 9.960e-4
1.204e+2, 7.524e-4
1.205e+2, 6.122e-4
1.206e+2, 5.260e-4
1.207e+2, 4.670e-4
1.208e+2, 4.222e-4
1.209e+2, 3.926e-4
1.210e+2, 3.735e-4
1.211e+2, -4.502e-3
1.212e+2, -8.995e-4
1.213e+2, -4.283e-4
1.214e+2, -3.027e-4
1.215e+2, -2.385e-4
1.216e+2, -1.992e-4
1.217e+2, -1.721e-4
1.218e+2, -1.523e-4
1.219e+2, -1.369e-4
1.220e+2, -1.246e-4
1.221e+2, 1.857e-3
1.222e+2, 1.445e-3
1.223e+2, 9.943e-4
1.224e+2, 7.479e-4
1.225e+2, 6.045e-4
1.226e+2, 5.174e-4
1.227e+2, 4.627e-4
1.228e+2, 4.263e-4
1.229e+2, 3.997e-4
1.230e+2, 3.809e-4
1.231e+2, -4.572e-3
1.232e+2, -9.058e-4
1.233e+2, -4.250e-4
1.234e+2, -2.962e-4
1.235e+2, -2.307e-4
1.236e+2, -1.898e-4
1.237e+2, -1.630e-4
1.238e+2, -1.432e-4
1.239e+2, -1.275e-4
1.240e+2, -1.163e-4
1.241e+2, 1.828e-3
1.242e+2, 1.441e-3
1.243e+2, 9.826e-4
1.244e+2, 7.391e-4
1.245e+2, 6.012e-4
1.246e+2, 5.175e-4
1.247e+2, 4.599e-4
1.248e+2, 4.192e-4
1.249e+2, 3.928e-4
1.250e+2, 3.733e-4
1.251e+2, -4.492e-3
1.252e+2, -8.818e-4
1.253e+2, -4.215e-4
1.254e+2, -2.939e-4
1.255e+2, -2.293e-4
1.256e+2, -1.907e-4
1.257e+2, -1.638e-4
1.258e+2, -1.443e-4
1.259e+2, -1.297e-4
1.260e+2, -1.185e-4
1.261e+2, 1.834e-3
1.262e+2, 1.431e-3
1.263e+2, 9.733e-4
1.264e+2, 7.357e-4
1.265e+2, 5.965e-4
1.266e+2, 5.109e-4
1.267e+2, 4.541e-4
1.268e+2, 4.125e-4
1.269e+2, 3.854e-4
1.270e+2, 3.671e-4
1.271e+2, -4.471e-3
1.272e+2, -8.890e-4
1.273e+2, -4.177e-4
1.274e+2, -2.918e-4
1.275e+2, -2.282e-4
1.276e+2, -1.896e-4
1.277e+2, -1.622e-4
1.278e+2, -1.426e-4
1.279e+2, -1.280e-4
1.280e+2, -1.166e-4
1.281e+2, 1.842e-3
1.282e+2, 1.422e-3
1.283e+2, 9.719e-4
1.284e+2, 7.372e-4
1.285e+2, 6.005e-4
1.286e+2, 5.146e-4
1.287e+2, 4.577e-4
1.288e+2, 4.176e-4
1.289e+2, 3.891e-4
1.290e+2, 3.695e-4
1.291e+2, -4.508e-3
1.292e+2, -9.150e-4
1.293e+2, -4.290e-4
1.294e+2, -2.975e-4
1.295e+2, -2.331e-4
1.296e+2, -1.933e-4
1.297e+2, -1.661e-4
1.298e+2, -1.462e-4
1.299e+2, -1.299e-4
1.300e+2, -1.181e-4
1.301e+2, 1.833e-3
1.302e+2, 1.421e-3
1.303e+2, 9.761e-4
1.304e+2, 7.375e-4
1.305e+2, 5.984e-4
1.306e+2, 5.107e-4
1.307e+2, 4.506e-4
1.308e+2, 4.083e-4
1.309e+2, 3.793e-4
1.310e+2, 3.597e-4
1.311e+2, -4.387e-3
1.312e+2, -8.647e-4
1.313e+2, -4.082e-4
1.314e+2, -2.849e-4
1.315e+2, -2.232e-4
1.316e+2, -1.852e-4
1.317e+2, -1.594e-4
1.318e+2, -1.407e-4
1.319e+2, -1.268e-4
1.320e+2, -1.163e-4
1.321e+2, 1.834e-3
1.322e+2, 1.408e-3
1.323e+2, 9.671e-4
1.324e+2, 7.302e-4
1.325e+2, 5.880e-4
1.326e+2, 5.026e-4
1.327e+2, 4.453e-4
1.328e+2, 4.023e-4
1.329e+2, 3.736e-4
1.330e+2, 3.548e-4
1.331e+2, -4.447e-3
1.332e+2, -8.909e-4
1.333e+2, -4.157e-4
1.334e+2, -2.894e-4
1.335e+2, -2.257e-4
1.336e+2, -1.875e-4
1.337e+2, -1.609e-4
1.338e+2, -1.417e-4
1.339e+2, -1.279e-4
1.340e+2, -1.171e-4
1.341e+2, 1.835e-3
1.342e+2, 1.427e-3
1.343e+2, 9.640e-4
1.344e+2, 7.245e-4
1.345e+2, 5.856e-4
1.346e+2, 4.984e-4
1.347e+2, 4.403e-4
1.348e+2, 3.989e-4
1.349e+2, 3.708e-4
1.350e+2, 3.534e-4
1.351e+2, -4.434e-3
1.352e+2, -8.750e-4
1.353e+2, -4.156e-4
1.354e+2, -2.890e-4
1.355e+2, -2.253e-4
1.356e+2, -1.880e-4
1.357e+2, -1.627e-4
1.358e+2, -1.454e-4
1.359e+2, -1.321e-4
1.360e+2, -1.209e-4
1.361e+2, 1.846e-3
1.362e+2, 1.419e-3
1.363e+2, 9.566e-4
1.364e+2, 7.154e-4
1.365e+2, 5.764e-4
1.366e+2, 4.909e-4
1.367e+2, 4.330e-4
1.368e+2, 3.920e-4
1.369e+2, 3.631e-4
1.370e+2, 3.436e-4
1.371e+2, -4.378e-3
1.372e+2, -8.641e-4
1.373e+2, -4.025e-4
1.374e+2, -2.812e-4
1.375e+2, -2.214e-4
1.376e+2, -1.852e-4
1.377e+2, -1.602e-4
1.378e+2, -1.413e-4
1.379e+2, -1.280e-4
1.380e+2, -1.174e-4
1.381e+2, 1.837e-3
1.382e+2, 1.399e-3
1.383e+2, 9.526e-4
1.384e+2, 7.147e-4
1.385e+2, 5.722e-4
1.386e+2, 4.873e-4
1.387e+2, 4.307e-4
1.388e+2, 3.893e-4
1.389e+2, 3.617e-4
1.390e+2, 3.432e-4
1.391e+2, -4.343e-3
1.392e+2, -8.268e-4
1.393e+2, -3.838e-4
1.394e+2, -2.664e-4
1.395e+2, -2.096e-4
1.396e+2, -1.752e-4
1.397e+2, -1.527e-4
1.398e+2, -1.368e-4
1.399e+2, -1.240e-4
1.400e+2, -1.146e-4
1.401e+2, 1.805e-3
1.402e+2, 1.372e-3
1.403e+2, 9.375e-4
1.404e+2, 7.073e-4
1.405e+2, 5.688e-4
1.406e+2, 4.836e-4
1.407e+2, 4.273e-4
1.408e+2, 3.860e-4
1.409e+2, 3.579e-4
1.410e+2, 3.409e-4
1.411e+2, -4.356e-3
1.412e+2, -8.453e-4
1.413e+2, -4.050e-4
1.414e+2, -2.872e-4
1.415e+2, -2.269e-4
1.416e+2, -1.895e-4
1.417e+2, -1.652e-4
1.418e+2, -1.473e-4
1.419e+2, -1.337e-4
1.420e+2, -1.221e-4
1.421e+2, 1.864e-3
1.422e+2, 1.407e-3
1.423e+2, 9.367e-4
1.424e+2, 7.008e-4
1.425e+2, 5.636e-4
1.426e+2, 4.797e-4
1.427e+2, 4.227e-4
1.428e+2, 3.818e-4
1.429e+2, 3.532e-4
1.430e+2, 3.340e-4
1.431e+2, -4.297e-3
1.432e+2, -8.322e-4
1.433e+2, -3.955e-4
1.434e+2, -2.794e-4
1.435e+2, -2.211e-4
1.436e+2, -1.848e-4
1.437e+2, -1.608e-4
1.438e+2, -1.429e-4
1.439e+2, -1.285e-4
1.440e+2, -1.184e-4
1.441e+2, 1.827e-3
1.442e+2, 1.383e-3
1.443e+2, 9.322e-4
1.444e+2, 7.005e-4
1.445e+2, 5.631e-4
1.446e+2, 4.815e-4
1.447e+2, 4.265e-4
1.448e+2, 3.863e-4
1.449e+2, 3.583e-4
1.450e+2, 3.368e-4
1.451e+2, -4.310e-3
1.452e+2, -8.207e-4
1.453e+2, -3.931e-4
1.454e+2, -2.760e-4
1.455e+2, -2.168e-4
1.456e+2, -1.808e-4
1.457e+2, -1.567e-4
1.458e+2, -1.389e-4
1.459e+2, -1.269e-4
1.460e+2, -1.148e-4
1.461e+2, 1.800e-3
1.462e+2, 1.356e-3
1.463e+2, 9.174e-4
1.464e+2, 6.862e-4
1.465e+2, 5.512e-4
1.466e+2, 4.690e-4
1.467e+2, 4.143e-4
1.468e+2, 3.741e-4
1.469e+2, 3.467e-4
1.470e+2, 3.292e-4
1.471e+2, -4.214e-3
1.472e+2, -8.155e-4
1.473e+2, -3.890e-4
1.474e+2, -2.724e-4
1.475e+2, -2.142e-4
1.476e+2, -1.793e-4
1.477e+2, -1.547e-4
1.478e+2, -1.365e-4
1.479e+2, -1.231e-4
1.480e+2, -1.133e-4
1.481e+2, 1.811e-3
1.482e+2, 1.358e-3
1.483e+2, 9.129e-4
1.484e+2, 6.838e-4
1.485e+2, 5.513e-4
1.486e+2, 4.702e-4
1.487e+2, 4.152e-4
1.488e+2, 3.755e-4
1.489e+2, 3.478e-4
1.490e+2, 3.296e-4
1.491e+2, -4.237e-3
1.492e+2, -8.000e-4
1.493e+2, -3.831e-4
1.494e+2, -2.686e-4
1.495e+2, -2.100e-4
1.496e+2, -1.745e-4
1.497e+2, -1.506e-4
1.498e+2, -1.322e-4
1.499e+2, -1.192e-4
1.500e+2, -1.095e-4
1.501e+2, 1.788e-3
1.502e+2, 1.336e-3
1.503e+2, 8.985e-4
1.504e+2, 6.697e-4
1.505e+2, 5.377e-4
1.506e+2, 4.596e-4
1.507e+2, 4.065e-4
1.508e+2, 3.684e-4
1.509e+2, 3.436e-4
1.510e+2, 3.266e-4
1.511e+2, -4.182e-3
1.512e+2, -7.828e-4
1.513e+2, -3.704e-4
1.514e+2, -2.576e-4
1.515e+2, -2.016e-4
1.516e+2, -1.688e-4
1.517e+2, -1.473e-4
1.518e+2, -1.320e-4
1.519e+2, -1.204e-4
1.520e+2, -1.109e-4
1.521e+2, 1.766e-3
1.522e+2, 1.329e-3
1.523e+2, 9.026e-4
1.524e+2, 6.752e-4
1.525e+2, 5.395e-4
1.526e+2, 4.603e-4
1.527e+2, 4.072e-4
1.528e+2, 3.672e-4
1.529e+2, 3.407e-4
1.530e+2, 3.240e-4
1.531e+2, -4.132e-3
1.532e+2, -7.652e-4
1.533e+2, -3.635e-4
1.534e+2, -2.525e-4
1.535e+2, -1.975e-4
1.536e+2, -1.647e-4
1.537e+2, -1.426e-4
1.538e+2, -1.275e-4
1.539e+2, -1.153e-4
1.540e+2, -1.066e-4
1.541e+2, 1.771e-3
1.542e+2, 1.318e-3
1.543e+2, 8.878e-4
1.544e+2, 6.653e-4
1.545e+2, 5.335e-4
1.546e+2, 4.546e-4
1.547e+2, 4.041e-4
1.548e+2, 3.677e-4
1.549e+2, 3.421e-4
1.550e+2, 3.244e-4
1.551e+2, -4.154e-3
1.552e+2, -7.500e-4
1.553e+2, -3.633e-4
1.554e+2, -2.566e-4
1.555e+2, -2.027e-4
1.556e+2, -1.711e-4
1.557e+2, -1.497e-4
1.558e+2, -1.346e-4
1.559e+2, -1.233e-4
1.560e+2, -1.138e-4
1.561e+2, 1.788e-3
1.562e+2, 1.315e-3
1.563e+2, 8.787e-4
1.564e+2, 6.542e-4
1.565e+2, 5.259e-4
1.566e+2, 4.501e-4
1.567e+2, 3.987e-4
1.568e+2, 3.621e-4
1.569e+2, 3.373e-4
1.570e+2, 3.198e-4
1.571e+2, -4.111e-3
1.572e+2, -7.740e-4
1.573e+2, -3.759e-4
1.574e+2, -2.636e-4
1.575e+2, -2.064e-4
1.576e+2, -1.712e-4
1.577e+2, -1.485e-4
1.578e+2, -1.323e-4
1.579e+2, -1.188e-4
1.580e+2, -1.092e-4
1.581e+2, 1.799e-3
1.582e+2, 1.315e-3
1.583e+2, 8.765e-4
1.584e+2, 6.520e-4
1.585e+2, 5.212e-4
1.586e+2, 4.470e-4
1.587e+2, 3.972e-4
1.588e+2, 3.607e-4
1.589e+2, 3.363e-4
1.590e+2, 3.196e-4
1.591e+2, -4.108e-3
1.592e+2, -7.478e-4
1.593e+2, -3.507e-4
1.594e+2, -2.458e-4
1.595e+2, -1.934e-4
1.596e+2, -1.629e-4
1.597e+2, -1.408e-4
1.598e+2, -1.248e-4
1.599e+2, -1.138e-4
1.600e+2, -1.041e-4
1.601e+2, 1.754e-3
1.602e+2, 1.294e-3
1.603e+2, 8.681e-4
1.604e+2, 6.518e-4
1.605e+2, 5.226e-4
1.606e+2, 4.429e-4
1.607e+2, 3.900e-4
1.608e+2, 3.515e-4
1.609e+2, 3.251e-4
1.610e+2, 3.089e-4
1.611e+2, -4.053e-3
1.612e+2, -7.578e-4
1.613e+2, -3.642e-4
1.614e+2, -2.565e-4
1.615e+2, -2.029e-4
1.616e+2, -1.702e-4
1.617e+2, -1.472e-4
1.618e+2, -1.316e-4
1.619e+2, -1.180e-4
1.620e+2, -1.083e-4
1.621e+2, 1.769e-3
1.622e+2, 1.289e-3
1.623e+2, 8.698e-4
1.624e+2, 6.466e-4
1.625e+2, 5.168e-4
1.626e+2, 4.393e-4
1.627e+2, 3.869e-4
1.628e+2, 3.505e-4
1.629e+2, 3.255e-4
1.630e+2, 3.083e-4
1.631e+2, -4.021e-3
1.632e+2, -7.272e-4
1.633e+2, -3.587e-4
1.634e+2, -2.517e-4
1.635e+2, -1.981e-4
1.636e+2, -1.683e-4
1.637e+2, -1.481e-4
1.638e+2, -1.336e-4
1.639e+2, -1.225e-4
1.640e+2, -1.128e-4
1.641e+2, 1.780e-3
1.642e+2, 1.277e-3
1.643e+2, 8.554e-4
1.644e+2, 6.373e-4
1.645e+2, 5.092e-4
1.646e+2, 4.336e-4
1.647e+2, 3.819e-4
1.648e+2, 3.459e-4
1.649e+2, 3.224e-4
1.650e+2, 3.057e-4
1.651e+2, -4.033e-3
1.652e+2, -7.433e-4
1.653e+2, -3.543e-4
1.654e+2, -2.484e-4
1.655e+2, -1.953e-4
1.656e+2, -1.633e-4
1.657e+2, -1.425e-4
1.658e+2, -1.277e-4
1.659e+2, -1.162e-4
1.660e+2, -1.065e-4
1.661e+2, 1.756e-3
1.662e+2, 1.275e-3
1.663e+2, 8.551e-4
1.664e+2, 6.324e-4
1.665e+2, 5.061e-4
1.666e+2, 4.296e-4
1.667e+2, 3.788e-4
1.668e+2, 3.415e-4
1.669e+2, 3.161e-4
1.670e+2, 3.003e-4
1.671e+2, -3.965e-3
1.672e+2, -7.168e-4
1.673e+2, -3.416e-4
1.674e+2, -2.397e-4
1.675e+2, -1.906e-4
1.676e+2, -1.605e-4
1.677e+2, -1.413e-4
1.678e+2, -1.269e-4
1.679e+2, -1.144e-4
1.680e+2, -1.042e-4
1.681e+2, 1.748e-3
1.682e+2, 1.262e-3
1.683e+2, 8.413e-4
1.684e+2, 6.239e-4
1.685e+2, 4.994e-4
1.686e+2, 4.240e-4
1.687e+2, 3.724e-4
1.688e+2, 3.363e-4
1.689e+2, 3.125e-4
1.690e+2, 2.982e-4
1.691e+2, -3.931e-3
1.692e+2, -7.108e-4
1.693e+2, -3.448e-4
1.694e+2, -2.428e-4
1.695e+2, -1.928e-4
1.696e+2, -1.614e-4
1.697e+2, -1.407e-4
1.698e+2, -1.259e-4
1.699e+2, -1.144e-4
1.700e+2, -1.052e-4
1.701e+2, 1.745e-3
1.702e+2, 1.255e-3
1.703e+2, 8.480e-4
1.704e+2, 6.298e-4
1.705e+2, 5.046e-4
1.706e+2, 4.319e-4
1.707e+2, 3.817e-4
1.708e+2, 3.454e-4
1.709e+2, 3.203e-4
1.710e+2, 3.031e-4
1.711e+2, -3.918e-3
1.712e+2, -6.784e-4
1.713e+2, -3.340e-4
1.714e+2, -2.349e-4
1.715e+2, -1.844e-4
1.716e+2, -1.540e-4
1.717e+2, -1.340e-4
1.718e+2, -1.198e-4
1.719e+2, -1.096e-4
1.720e+2, -1.018e-4
1.721e+2, 1.723e-3
1.722e+2, 1.235e-3
1.723e+2, 8.299e-4
1.724e+2, 6.182e-4
1.725e+2, 4.948e-4
1.726e+2, 4.207e-4
1.727e+2, 3.703e-4
1.728e+2, 3.341e-4
1.729e+2, 3.106e-4
1.730e+2, 2.947e-4
1.731e+2, -3.929e-3
1.732e+2, -7.245e-4
1.733e+2, -3.513e-4
1.734e+2, -2.493e-4
1.735e+2, -1.969e-4
1.736e+2, -1.660e-4
1.737e+2, -1.449e-4
1.738e+2, -1.293e-4
1.739e+2, -1.177e-4
1.740e+2, -1.094e-4
1.741e+2, 1.763e-3
1.742e+2, 1.262e-3
1.743e+2, 8.350e-4
1.744e+2, 6.182e-4
1.745e+2, 4.959e-4
1.746e+2, 4.224e-4
1.747e+2, 3.727e-4
1.748e+2, 3.368e-4
1.749e+2, 3.104e-4
1.750e+2, 2.938e-4
1.751e+2, -3.908e-3
1.752e+2, -6.987e-4
1.753e+2, -3.364e-4
1.754e+2, -2.371e-4
1.755e+2, -1.871e-4
1.756e+2, -1.582e-4
1.757e+2, -1.380e-4
1.758e+2, -1.240e-4
1.759e+2, -1.140e-4
1.760e+2, -1.069e-4
1.761e+2, 1.742e-3
1.762e+2, 1.246e-3
1.763e+2, 8.291e-4
1.764e+2, 6.148e-4
1.765e+2, 4.925e-4
1.766e+2, 4.184e-4
1.767e+2, 3.665e-4
1.768e+2, 3.292e-4
1.769e+2, 3.042e-4
1.770e+2, 2.875e-4
1.771e+2, -3.897e-3
1.772e+2, -6.992e-4
1.773e+2, -3.491e-4
1.774e+2, -2.494e-4
1.775e+2, -1.979e-4
1.776e+2, -1.670e-4
1.777e+2, -1.459e-4
1.778e+2, -1.306e-4
1.779e+2, -1.196e-4
1.780e+2, -1.105e-4
1.781e+2, 1.763e-3
1.782e+2, 1.248e-3
1.783e+2, 8.260e-4
1.784e+2, 6.075e-4
1.785e+2, 4.814e-4
1.786e+2, 4.090e-4
1.787e+2, 3.599e-4
1.788e+2, 3.233e-4
1.789e+2, 2.982e-4
1.790e+2, 2.807e-4
1.791e+2, -3.816e-3
1.792e+2, -6.755e-4
1.793e+2, -3.317e-4
1.794e+2, -2.336e-4
1.795e+2, -1.853e-4
1.796e+2, -1.568e-4
1.797e+2, -1.377e-4
1.798e+2, -1.235e-4
1.799e+2, -1.135e-4
1.800e+2, -1.054e-4
1.801e+2, 1.745e-3
1.802e+2, 1.228e-3
1.803e+2, 8.151e-4
1.804e+2, 6.037e-4
1.805e+2, 4.809e-4
1.806e+2, 4.069e-4
1.807e+2, 3.581e-4
1.808e+2, 3.233e-4
1.809e+2, 2.986e-4
1.810e+2, 2.829e-4
