Sept. 28, 2024   12:16:57
Cyclic Voltammetry
File: c:/users/guazh/data/20240922_batch_417_500/2024-09-22-exp472\exp472-2024-09-28t11_52_38-h2koh\exp472_cv_sr_500mvs_efin_-1800mv.bin
Data Source:  Experiment
Instrument Model:  CHI760E
Header: CV ran at 500 mVs
Note: 

Init E (V) = -1
High E (V) = -1
Low E (V) = -1.8
Final E (V) = -1
Init P/N = N
Scan Rate (V/s) = 0.5
Segment = 3
Sample Interval (V) = 0.001
Quiet Time (sec) = 2
Sensitivity (A/V) = 0.01
Comp R (ohm) = 3.3

Results:

Channel 1:
Segment 1:

Segment 2:

Segment 3:

Potential/V, Current/A

-1.000, 6.322e-6
-1.001, 6.322e-6
-1.002, 6.322e-6
-1.003, 6.322e-6
-1.004, 6.322e-6
-1.005, 9.405e-6
-1.006, 6.322e-6
-1.007, 6.322e-6
-1.008, 6.322e-6
-1.009, 9.405e-6
-1.010, 9.405e-6
-1.011, 9.405e-6
-1.012, 9.405e-6
-1.013, 9.405e-6
-1.014, 9.405e-6
-1.015, 9.405e-6
-1.016, 9.405e-6
-1.017, 9.405e-6
-1.018, 1.249e-5
-1.019, 9.405e-6
-1.020, 9.405e-6
-1.021, 9.405e-6
-1.022, 9.405e-6
-1.023, 9.405e-6
-1.024, 9.405e-6
-1.025, 9.405e-6
-1.026, 9.405e-6
-1.027, 9.405e-6
-1.028, 9.405e-6
-1.029, 9.405e-6
-1.030, 1.249e-5
-1.031, 9.405e-6
-1.032, 1.249e-5
-1.033, 9.405e-6
-1.034, 1.249e-5
-1.035, 9.405e-6
-1.036, 1.249e-5
-1.037, 1.249e-5
-1.038, 9.405e-6
-1.039, 1.249e-5
-1.040, 1.249e-5
-1.041, 1.249e-5
-1.042, 1.249e-5
-1.043, 1.249e-5
-1.044, 1.249e-5
-1.045, 1.249e-5
-1.046, 1.249e-5
-1.047, 1.249e-5
-1.048, 1.249e-5
-1.049, 1.249e-5
-1.050, 1.249e-5
-1.051, 1.249e-5
-1.052, 1.249e-5
-1.053, 1.249e-5
-1.054, 1.249e-5
-1.055, 1.249e-5
-1.056, 1.249e-5
-1.057, 1.249e-5
-1.058, 1.249e-5
-1.059, 1.249e-5
-1.060, 1.249e-5
-1.061, 1.249e-5
-1.062, 1.249e-5
-1.063, 1.249e-5
-1.064, 1.557e-5
-1.065, 1.249e-5
-1.066, 1.557e-5
-1.067, 1.249e-5
-1.068, 1.557e-5
-1.069, 1.249e-5
-1.070, 1.249e-5
-1.071, 1.557e-5
-1.072, 1.249e-5
-1.073, 1.557e-5
-1.074, 1.249e-5
-1.075, 1.557e-5
-1.076, 1.557e-5
-1.077, 1.557e-5
-1.078, 1.557e-5
-1.079, 1.557e-5
-1.080, 1.557e-5
-1.081, 1.557e-5
-1.082, 1.557e-5
-1.083, 1.557e-5
-1.084, 1.557e-5
-1.085, 1.865e-5
-1.086, 1.557e-5
-1.087, 1.557e-5
-1.088, 1.557e-5
-1.089, 1.557e-5
-1.090, 1.557e-5
-1.091, 1.557e-5
-1.092, 1.557e-5
-1.093, 1.557e-5
-1.094, 1.557e-5
-1.095, 1.557e-5
-1.096, 1.557e-5
-1.097, 1.557e-5
-1.098, 1.865e-5
-1.099, 1.865e-5
-1.100, 1.557e-5
-1.101, 1.865e-5
-1.102, 1.557e-5
-1.103, 1.865e-5
-1.104, 1.557e-5
-1.105, 1.865e-5
-1.106, 1.557e-5
-1.107, 1.865e-5
-1.108, 1.865e-5
-1.109, 1.865e-5
-1.110, 1.865e-5
-1.111, 1.557e-5
-1.112, 1.865e-5
-1.113, 1.865e-5
-1.114, 1.865e-5
-1.115, 1.865e-5
-1.116, 1.865e-5
-1.117, 1.865e-5
-1.118, 1.865e-5
-1.119, 1.865e-5
-1.120, 1.865e-5
-1.121, 2.174e-5
-1.122, 1.865e-5
-1.123, 1.865e-5
-1.124, 1.865e-5
-1.125, 1.865e-5
-1.126, 2.174e-5
-1.127, 1.865e-5
-1.128, 1.865e-5
-1.129, 1.865e-5
-1.130, 1.865e-5
-1.131, 1.865e-5
-1.132, 2.174e-5
-1.133, 2.174e-5
-1.134, 1.865e-5
-1.135, 2.174e-5
-1.136, 1.865e-5
-1.137, 2.174e-5
-1.138, 2.174e-5
-1.139, 2.174e-5
-1.140, 2.174e-5
-1.141, 2.174e-5
-1.142, 2.174e-5
-1.143, 2.174e-5
-1.144, 2.174e-5
-1.145, 2.174e-5
-1.146, 2.174e-5
-1.147, 2.174e-5
-1.148, 2.174e-5
-1.149, 2.174e-5
-1.150, 2.482e-5
-1.151, 2.482e-5
-1.152, 2.174e-5
-1.153, 2.482e-5
-1.154, 2.174e-5
-1.155, 2.482e-5
-1.156, 2.482e-5
-1.157, 2.174e-5
-1.158, 2.482e-5
-1.159, 2.174e-5
-1.160, 2.482e-5
-1.161, 2.482e-5
-1.162, 2.482e-5
-1.163, 2.482e-5
-1.164, 2.482e-5
-1.165, 2.482e-5
-1.166, 2.482e-5
-1.167, 2.482e-5
-1.168, 2.482e-5
-1.169, 2.482e-5
-1.170, 2.482e-5
-1.171, 2.482e-5
-1.172, 2.482e-5
-1.173, 2.482e-5
-1.174, 2.482e-5
-1.175, 2.482e-5
-1.176, 2.790e-5
-1.177, 2.482e-5
-1.178, 2.790e-5
-1.179, 2.482e-5
-1.180, 2.790e-5
-1.181, 2.482e-5
-1.182, 2.790e-5
-1.183, 2.790e-5
-1.184, 2.790e-5
-1.185, 2.790e-5
-1.186, 2.790e-5
-1.187, 2.790e-5
-1.188, 2.790e-5
-1.189, 2.790e-5
-1.190, 2.790e-5
-1.191, 2.790e-5
-1.192, 2.790e-5
-1.193, 2.790e-5
-1.194, 2.790e-5
-1.195, 2.790e-5
-1.196, 2.790e-5
-1.197, 2.790e-5
-1.198, 2.790e-5
-1.199, 2.790e-5
-1.200, 2.790e-5
-1.201, 3.099e-5
-1.202, 2.790e-5
-1.203, 2.790e-5
-1.204, 2.790e-5
-1.205, 2.790e-5
-1.206, 3.099e-5
-1.207, 3.099e-5
-1.208, 3.099e-5
-1.209, 2.790e-5
-1.210, 3.099e-5
-1.211, 2.790e-5
-1.212, 3.099e-5
-1.213, 3.099e-5
-1.214, 2.790e-5
-1.215, 3.099e-5
-1.216, 3.099e-5
-1.217, 3.099e-5
-1.218, 3.099e-5
-1.219, 3.099e-5
-1.220, 3.099e-5
-1.221, 3.099e-5
-1.222, 3.099e-5
-1.223, 3.099e-5
-1.224, 3.099e-5
-1.225, 3.099e-5
-1.226, 3.407e-5
-1.227, 3.099e-5
-1.228, 3.099e-5
-1.229, 3.099e-5
-1.230, 3.099e-5
-1.231, 3.407e-5
-1.232, 3.099e-5
-1.233, 3.099e-5
-1.234, 3.099e-5
-1.235, 3.407e-5
-1.236, 3.099e-5
-1.237, 3.099e-5
-1.238, 3.099e-5
-1.239, 3.099e-5
-1.240, 3.407e-5
-1.241, 3.099e-5
-1.242, 3.407e-5
-1.243, 3.099e-5
-1.244, 3.099e-5
-1.245, 3.099e-5
-1.246, 3.099e-5
-1.247, 3.407e-5
-1.248, 3.099e-5
-1.249, 3.407e-5
-1.250, 3.099e-5
-1.251, 3.407e-5
-1.252, 3.099e-5
-1.253, 3.407e-5
-1.254, 3.407e-5
-1.255, 3.099e-5
-1.256, 3.407e-5
-1.257, 3.099e-5
-1.258, 3.407e-5
-1.259, 3.099e-5
-1.260, 3.407e-5
-1.261, 3.099e-5
-1.262, 3.099e-5
-1.263, 3.407e-5
-1.264, 3.099e-5
-1.265, 3.407e-5
-1.266, 3.099e-5
-1.267, 3.407e-5
-1.268, 3.407e-5
-1.269, 3.099e-5
-1.270, 3.099e-5
-1.271, 3.099e-5
-1.272, 3.407e-5
-1.273, 3.099e-5
-1.274, 3.407e-5
-1.275, 3.099e-5
-1.276, 3.407e-5
-1.277, 3.407e-5
-1.278, 3.099e-5
-1.279, 3.407e-5
-1.280, 3.099e-5
-1.281, 3.407e-5
-1.282, 3.099e-5
-1.283, 3.407e-5
-1.284, 3.099e-5
-1.285, 3.099e-5
-1.286, 3.407e-5
-1.287, 3.099e-5
-1.288, 3.407e-5
-1.289, 3.099e-5
-1.290, 3.407e-5
-1.291, 3.407e-5
-1.292, 3.407e-5
-1.293, 3.407e-5
-1.294, 3.099e-5
-1.295, 3.407e-5
-1.296, 3.099e-5
-1.297, 3.407e-5
-1.298, 3.099e-5
-1.299, 3.407e-5
-1.300, 3.407e-5
-1.301, 3.407e-5
-1.302, 3.407e-5
-1.303, 3.407e-5
-1.304, 3.099e-5
-1.305, 3.099e-5
-1.306, 3.407e-5
-1.307, 3.099e-5
-1.308, 3.407e-5
-1.309, 3.099e-5
-1.310, 3.407e-5
-1.311, 3.407e-5
-1.312, 3.099e-5
-1.313, 3.407e-5
-1.314, 3.099e-5
-1.315, 3.407e-5
-1.316, 3.407e-5
-1.317, 3.407e-5
-1.318, 3.407e-5
-1.319, 3.099e-5
-1.320, 3.407e-5
-1.321, 3.099e-5
-1.322, 3.407e-5
-1.323, 3.099e-5
-1.324, 3.407e-5
-1.325, 3.407e-5
-1.326, 3.407e-5
-1.327, 3.407e-5
-1.328, 3.407e-5
-1.329, 3.407e-5
-1.330, 3.099e-5
-1.331, 3.407e-5
-1.332, 3.407e-5
-1.333, 3.407e-5
-1.334, 3.407e-5
-1.335, 3.407e-5
-1.336, 3.407e-5
-1.337, 3.407e-5
-1.338, 3.407e-5
-1.339, 3.407e-5
-1.340, 3.407e-5
-1.341, 3.407e-5
-1.342, 3.407e-5
-1.343, 3.715e-5
-1.344, 3.407e-5
-1.345, 3.407e-5
-1.346, 3.407e-5
-1.347, 3.407e-5
-1.348, 3.407e-5
-1.349, 3.407e-5
-1.350, 3.407e-5
-1.351, 3.407e-5
-1.352, 3.407e-5
-1.353, 3.407e-5
-1.354, 3.715e-5
-1.355, 3.407e-5
-1.356, 3.715e-5
-1.357, 3.407e-5
-1.358, 3.407e-5
-1.359, 3.407e-5
-1.360, 3.715e-5
-1.361, 3.715e-5
-1.362, 3.407e-5
-1.363, 3.715e-5
-1.364, 3.715e-5
-1.365, 3.715e-5
-1.366, 3.715e-5
-1.367, 3.715e-5
-1.368, 3.715e-5
-1.369, 3.715e-5
-1.370, 3.715e-5
-1.371, 3.715e-5
-1.372, 3.715e-5
-1.373, 3.715e-5
-1.374, 3.715e-5
-1.375, 3.715e-5
-1.376, 3.715e-5
-1.377, 3.715e-5
-1.378, 3.715e-5
-1.379, 3.715e-5
-1.380, 3.715e-5
-1.381, 4.024e-5
-1.382, 3.715e-5
-1.383, 3.715e-5
-1.384, 4.024e-5
-1.385, 4.024e-5
-1.386, 4.024e-5
-1.387, 3.715e-5
-1.388, 4.024e-5
-1.389, 4.024e-5
-1.390, 4.024e-5
-1.391, 4.024e-5
-1.392, 4.024e-5
-1.393, 4.024e-5
-1.394, 4.024e-5
-1.395, 4.332e-5
-1.396, 4.024e-5
-1.397, 4.332e-5
-1.398, 4.332e-5
-1.399, 4.024e-5
-1.400, 4.332e-5
-1.401, 4.332e-5
-1.402, 4.332e-5
-1.403, 4.024e-5
-1.404, 4.332e-5
-1.405, 4.332e-5
-1.406, 4.332e-5
-1.407, 4.332e-5
-1.408, 4.332e-5
-1.409, 4.332e-5
-1.410, 4.332e-5
-1.411, 4.640e-5
-1.412, 4.332e-5
-1.413, 4.640e-5
-1.414, 4.640e-5
-1.415, 4.640e-5
-1.416, 4.640e-5
-1.417, 4.640e-5
-1.418, 4.640e-5
-1.419, 4.640e-5
-1.420, 4.640e-5
-1.421, 4.640e-5
-1.422, 4.640e-5
-1.423, 4.640e-5
-1.424, 4.640e-5
-1.425, 4.640e-5
-1.426, 4.640e-5
-1.427, 4.949e-5
-1.428, 4.949e-5
-1.429, 4.949e-5
-1.430, 4.949e-5
-1.431, 4.949e-5
-1.432, 4.949e-5
-1.433, 4.949e-5
-1.434, 5.257e-5
-1.435, 4.949e-5
-1.436, 5.257e-5
-1.437, 4.949e-5
-1.438, 5.257e-5
-1.439, 5.257e-5
-1.440, 5.257e-5
-1.441, 5.257e-5
-1.442, 5.257e-5
-1.443, 5.257e-5
-1.444, 5.257e-5
-1.445, 5.257e-5
-1.446, 5.257e-5
-1.447, 5.565e-5
-1.448, 5.565e-5
-1.449, 5.257e-5
-1.450, 5.565e-5
-1.451, 5.565e-5
-1.452, 5.565e-5
-1.453, 5.565e-5
-1.454, 5.565e-5
-1.455, 5.565e-5
-1.456, 5.873e-5
-1.457, 5.873e-5
-1.458, 5.873e-5
-1.459, 5.873e-5
-1.460, 5.873e-5
-1.461, 5.873e-5
-1.462, 5.873e-5
-1.463, 5.873e-5
-1.464, 6.182e-5
-1.465, 5.873e-5
-1.466, 6.182e-5
-1.467, 6.182e-5
-1.468, 6.182e-5
-1.469, 6.182e-5
-1.470, 6.182e-5
-1.471, 6.182e-5
-1.472, 6.182e-5
-1.473, 6.182e-5
-1.474, 6.182e-5
-1.475, 6.490e-5
-1.476, 6.490e-5
-1.477, 6.490e-5
-1.478, 6.490e-5
-1.479, 6.490e-5
-1.480, 6.490e-5
-1.481, 6.490e-5
-1.482, 6.798e-5
-1.483, 6.798e-5
-1.484, 6.798e-5
-1.485, 6.798e-5
-1.486, 6.798e-5
-1.487, 6.798e-5
-1.488, 6.798e-5
-1.489, 6.798e-5
-1.490, 6.798e-5
-1.491, 7.107e-5
-1.492, 6.798e-5
-1.493, 7.107e-5
-1.494, 7.107e-5
-1.495, 7.107e-5
-1.496, 7.107e-5
-1.497, 7.107e-5
-1.498, 7.415e-5
-1.499, 7.107e-5
-1.500, 7.415e-5
-1.501, 7.415e-5
-1.502, 7.415e-5
-1.503, 7.415e-5
-1.504, 7.415e-5
-1.505, 7.723e-5
-1.506, 7.723e-5
-1.507, 7.723e-5
-1.508, 7.723e-5
-1.509, 7.723e-5
-1.510, 7.723e-5
-1.511, 8.032e-5
-1.512, 8.032e-5
-1.513, 7.723e-5
-1.514, 8.032e-5
-1.515, 8.032e-5
-1.516, 8.032e-5
-1.517, 8.032e-5
-1.518, 8.340e-5
-1.519, 8.340e-5
-1.520, 8.340e-5
-1.521, 8.340e-5
-1.522, 8.340e-5
-1.523, 8.340e-5
-1.524, 8.340e-5
-1.525, 8.648e-5
-1.526, 8.648e-5
-1.527, 8.648e-5
-1.528, 8.648e-5
-1.529, 8.648e-5
-1.530, 8.957e-5
-1.531, 8.957e-5
-1.532, 8.957e-5
-1.533, 8.957e-5
-1.534, 8.957e-5
-1.535, 9.265e-5
-1.536, 9.265e-5
-1.537, 9.265e-5
-1.538, 9.265e-5
-1.539, 9.573e-5
-1.540, 9.265e-5
-1.541, 9.573e-5
-1.542, 9.573e-5
-1.543, 9.882e-5
-1.544, 9.573e-5
-1.545, 9.882e-5
-1.546, 9.882e-5
-1.547, 9.882e-5
-1.548, 9.882e-5
-1.549, 9.882e-5
-1.550, 1.019e-4
-1.551, 1.019e-4
-1.552, 1.019e-4
-1.553, 1.050e-4
-1.554, 1.050e-4
-1.555, 1.050e-4
-1.556, 1.050e-4
-1.557, 1.081e-4
-1.558, 1.081e-4
-1.559, 1.081e-4
-1.560, 1.081e-4
-1.561, 1.111e-4
-1.562, 1.111e-4
-1.563, 1.111e-4
-1.564, 1.111e-4
-1.565, 1.142e-4
-1.566, 1.142e-4
-1.567, 1.142e-4
-1.568, 1.173e-4
-1.569, 1.173e-4
-1.570, 1.173e-4
-1.571, 1.173e-4
-1.572, 1.204e-4
-1.573, 1.235e-4
-1.574, 1.204e-4
-1.575, 1.235e-4
-1.576, 1.235e-4
-1.577, 1.235e-4
-1.578, 1.266e-4
-1.579, 1.266e-4
-1.580, 1.296e-4
-1.581, 1.296e-4
-1.582, 1.296e-4
-1.583, 1.327e-4
-1.584, 1.327e-4
-1.585, 1.358e-4
-1.586, 1.358e-4
-1.587, 1.358e-4
-1.588, 1.389e-4
-1.589, 1.389e-4
-1.590, 1.420e-4
-1.591, 1.420e-4
-1.592, 1.451e-4
-1.593, 1.451e-4
-1.594, 1.451e-4
-1.595, 1.481e-4
-1.596, 1.481e-4
-1.597, 1.512e-4
-1.598, 1.512e-4
-1.599, 1.543e-4
-1.600, 1.543e-4
-1.601, 1.574e-4
-1.602, 1.574e-4
-1.603, 1.605e-4
-1.604, 1.605e-4
-1.605, 1.636e-4
-1.606, 1.666e-4
-1.607, 1.697e-4
-1.608, 1.697e-4
-1.609, 1.697e-4
-1.610, 1.728e-4
-1.611, 1.759e-4
-1.612, 1.759e-4
-1.613, 1.790e-4
-1.614, 1.821e-4
-1.615, 1.851e-4
-1.616, 1.882e-4
-1.617, 1.882e-4
-1.618, 1.913e-4
-1.619, 1.944e-4
-1.620, 1.944e-4
-1.621, 2.006e-4
-1.622, 2.006e-4
-1.623, 2.036e-4
-1.624, 2.067e-4
-1.625, 2.067e-4
-1.626, 2.129e-4
-1.627, 2.129e-4
-1.628, 2.160e-4
-1.629, 2.191e-4
-1.630, 2.221e-4
-1.631, 2.252e-4
-1.632, 2.283e-4
-1.633, 2.314e-4
-1.634, 2.345e-4
-1.635, 2.406e-4
-1.636, 2.406e-4
-1.637, 2.468e-4
-1.638, 2.499e-4
-1.639, 2.530e-4
-1.640, 2.561e-4
-1.641, 2.622e-4
-1.642, 2.653e-4
-1.643, 2.684e-4
-1.644, 2.715e-4
-1.645, 2.746e-4
-1.646, 2.807e-4
-1.647, 2.838e-4
-1.648, 2.900e-4
-1.649, 2.931e-4
-1.650, 2.992e-4
-1.651, 3.023e-4
-1.652, 3.054e-4
-1.653, 3.146e-4
-1.654, 3.177e-4
-1.655, 3.239e-4
-1.656, 3.270e-4
-1.657, 3.331e-4
-1.658, 3.393e-4
-1.659, 3.424e-4
-1.660, 3.516e-4
-1.661, 3.547e-4
-1.662, 3.609e-4
-1.663, 3.670e-4
-1.664, 3.732e-4
-1.665, 3.794e-4
-1.666, 3.855e-4
-1.667, 3.948e-4
-1.668, 4.010e-4
-1.669, 4.071e-4
-1.670, 4.133e-4
-1.671, 4.195e-4
-1.672, 4.287e-4
-1.673, 4.349e-4
-1.674, 4.410e-4
-1.675, 4.503e-4
-1.676, 4.595e-4
-1.677, 4.657e-4
-1.678, 4.750e-4
-1.679, 4.842e-4
-1.680, 4.904e-4
-1.681, 4.996e-4
-1.682, 5.089e-4
-1.683, 5.181e-4
-1.684, 5.274e-4
-1.685, 5.397e-4
-1.686, 5.459e-4
-1.687, 5.551e-4
-1.688, 5.674e-4
-1.689, 5.767e-4
-1.690, 5.890e-4
-1.691, 5.983e-4
-1.692, 6.106e-4
-1.693, 6.199e-4
-1.694, 6.322e-4
-1.695, 6.414e-4
-1.696, 6.538e-4
-1.697, 6.661e-4
-1.698, 6.784e-4
-1.699, 6.908e-4
-1.700, 7.031e-4
-1.701, 7.154e-4
-1.702, 7.278e-4
-1.703, 7.401e-4
-1.704, 7.555e-4
-1.705, 7.679e-4
-1.706, 7.833e-4
-1.707, 7.956e-4
-1.708, 8.141e-4
-1.709, 8.264e-4
-1.710, 8.449e-4
-1.711, 8.603e-4
-1.712, 8.727e-4
-1.713, 8.912e-4
-1.714, 9.035e-4
-1.715, 9.220e-4
-1.716, 9.374e-4
-1.717, 9.559e-4
-1.718, 9.744e-4
-1.719, 9.898e-4
-1.720, 1.008e-3
-1.721, 1.024e-3
-1.722, 1.045e-3
-1.723, 1.061e-3
-1.724, 1.082e-3
-1.725, 1.101e-3
-1.726, 1.119e-3
-1.727, 1.141e-3
-1.728, 1.159e-3
-1.729, 1.181e-3
-1.730, 1.199e-3
-1.731, 1.221e-3
-1.732, 1.240e-3
-1.733, 1.264e-3
-1.734, 1.286e-3
-1.735, 1.307e-3
-1.736, 1.329e-3
-1.737, 1.354e-3
-1.738, 1.375e-3
-1.739, 1.400e-3
-1.740, 1.425e-3
-1.741, 1.446e-3
-1.742, 1.474e-3
-1.743, 1.499e-3
-1.744, 1.523e-3
-1.745, 1.548e-3
-1.746, 1.573e-3
-1.747, 1.603e-3
-1.748, 1.628e-3
-1.749, 1.656e-3
-1.750, 1.680e-3
-1.751, 1.711e-3
-1.752, 1.739e-3
-1.753, 1.767e-3
-1.754, 1.795e-3
-1.755, 1.822e-3
-1.756, 1.850e-3
-1.757, 1.881e-3
-1.758, 1.912e-3
-1.759, 1.943e-3
-1.760, 1.973e-3
-1.761, 2.004e-3
-1.762, 2.032e-3
-1.763, 2.066e-3
-1.764, 2.097e-3
-1.765, 2.131e-3
-1.766, 2.161e-3
-1.767, 2.195e-3
-1.768, 2.229e-3
-1.769, 2.260e-3
-1.770, 2.294e-3
-1.771, 2.328e-3
-1.772, 2.362e-3
-1.773, 2.396e-3
-1.774, 2.433e-3
-1.775, 2.467e-3
-1.776, 2.504e-3
-1.777, 2.538e-3
-1.778, 2.571e-3
-1.779, 2.612e-3
-1.780, 2.645e-3
-1.781, 2.682e-3
-1.782, 2.719e-3
-1.783, 2.760e-3
-1.784, 2.797e-3
-1.785, 2.834e-3
-1.786, 2.871e-3
-1.787, 2.908e-3
-1.788, 2.951e-3
-1.789, 2.988e-3
-1.790, 3.028e-3
-1.791, 3.068e-3
-1.792, 3.108e-3
-1.793, 3.151e-3
-1.794, 3.194e-3
-1.795, 3.234e-3
-1.796, 3.274e-3
-1.797, 3.318e-3
-1.798, 3.361e-3
-1.799, 3.404e-3
-1.800, 3.422e-3
-1.799, 3.407e-3
-1.798, 3.388e-3
-1.797, 3.367e-3
-1.796, 3.345e-3
-1.795, 3.321e-3
-1.794, 3.299e-3
-1.793, 3.274e-3
-1.792, 3.253e-3
-1.791, 3.228e-3
-1.790, 3.200e-3
-1.789, 3.176e-3
-1.788, 3.148e-3
-1.787, 3.123e-3
-1.786, 3.099e-3
-1.785, 3.074e-3
-1.784, 3.046e-3
-1.783, 3.019e-3
-1.782, 2.994e-3
-1.781, 2.969e-3
-1.780, 2.945e-3
-1.779, 2.914e-3
-1.778, 2.889e-3
-1.777, 2.864e-3
-1.776, 2.837e-3
-1.775, 2.809e-3
-1.774, 2.787e-3
-1.773, 2.763e-3
-1.772, 2.735e-3
-1.771, 2.707e-3
-1.770, 2.679e-3
-1.769, 2.655e-3
-1.768, 2.630e-3
-1.767, 2.605e-3
-1.766, 2.578e-3
-1.765, 2.553e-3
-1.764, 2.525e-3
-1.763, 2.497e-3
-1.762, 2.473e-3
-1.761, 2.448e-3
-1.760, 2.423e-3
-1.759, 2.396e-3
-1.758, 2.371e-3
-1.757, 2.346e-3
-1.756, 2.322e-3
-1.755, 2.297e-3
-1.754, 2.269e-3
-1.753, 2.248e-3
-1.752, 2.223e-3
-1.751, 2.198e-3
-1.750, 2.174e-3
-1.749, 2.149e-3
-1.748, 2.128e-3
-1.747, 2.103e-3
-1.746, 2.078e-3
-1.745, 2.054e-3
-1.744, 2.032e-3
-1.743, 2.007e-3
-1.742, 1.986e-3
-1.741, 1.967e-3
-1.740, 1.943e-3
-1.739, 1.921e-3
-1.738, 1.896e-3
-1.737, 1.875e-3
-1.736, 1.853e-3
-1.735, 1.832e-3
-1.734, 1.813e-3
-1.733, 1.791e-3
-1.732, 1.773e-3
-1.731, 1.748e-3
-1.730, 1.730e-3
-1.729, 1.708e-3
-1.728, 1.687e-3
-1.727, 1.668e-3
-1.726, 1.647e-3
-1.725, 1.628e-3
-1.724, 1.606e-3
-1.723, 1.588e-3
-1.722, 1.569e-3
-1.721, 1.548e-3
-1.720, 1.529e-3
-1.719, 1.511e-3
-1.718, 1.492e-3
-1.717, 1.474e-3
-1.716, 1.455e-3
-1.715, 1.437e-3
-1.714, 1.421e-3
-1.713, 1.400e-3
-1.712, 1.381e-3
-1.711, 1.366e-3
-1.710, 1.347e-3
-1.709, 1.332e-3
-1.708, 1.314e-3
-1.707, 1.298e-3
-1.706, 1.280e-3
-1.705, 1.264e-3
-1.704, 1.246e-3
-1.703, 1.230e-3
-1.702, 1.218e-3
-1.701, 1.199e-3
-1.700, 1.184e-3
-1.699, 1.172e-3
-1.698, 1.156e-3
-1.697, 1.141e-3
-1.696, 1.122e-3
-1.695, 1.110e-3
-1.694, 1.095e-3
-1.693, 1.082e-3
-1.692, 1.067e-3
-1.691, 1.055e-3
-1.690, 1.039e-3
-1.689, 1.024e-3
-1.688, 1.011e-3
-1.687, 9.960e-4
-1.686, 9.837e-4
-1.685, 9.713e-4
-1.684, 9.590e-4
-1.683, 9.436e-4
-1.682, 9.343e-4
-1.681, 9.189e-4
-1.680, 9.066e-4
-1.679, 8.943e-4
-1.678, 8.819e-4
-1.677, 8.696e-4
-1.676, 8.573e-4
-1.675, 8.480e-4
-1.674, 8.357e-4
-1.673, 8.233e-4
-1.672, 8.141e-4
-1.671, 7.987e-4
-1.670, 7.894e-4
-1.669, 7.771e-4
-1.668, 7.679e-4
-1.667, 7.586e-4
-1.666, 7.494e-4
-1.665, 7.370e-4
-1.664, 7.278e-4
-1.663, 7.154e-4
-1.662, 7.062e-4
-1.661, 6.969e-4
-1.660, 6.877e-4
-1.659, 6.784e-4
-1.658, 6.692e-4
-1.657, 6.599e-4
-1.656, 6.507e-4
-1.655, 6.414e-4
-1.654, 6.322e-4
-1.653, 6.229e-4
-1.652, 6.137e-4
-1.651, 6.044e-4
-1.650, 5.983e-4
-1.649, 5.890e-4
-1.648, 5.829e-4
-1.647, 5.736e-4
-1.646, 5.644e-4
-1.645, 5.582e-4
-1.644, 5.489e-4
-1.643, 5.428e-4
-1.642, 5.335e-4
-1.641, 5.274e-4
-1.640, 5.181e-4
-1.639, 5.120e-4
-1.638, 5.027e-4
-1.637, 4.965e-4
-1.636, 4.904e-4
-1.635, 4.811e-4
-1.634, 4.750e-4
-1.633, 4.688e-4
-1.632, 4.626e-4
-1.631, 4.565e-4
-1.630, 4.472e-4
-1.629, 4.441e-4
-1.628, 4.380e-4
-1.627, 4.318e-4
-1.626, 4.225e-4
-1.625, 4.164e-4
-1.624, 4.133e-4
-1.623, 4.071e-4
-1.622, 4.010e-4
-1.621, 3.948e-4
-1.620, 3.886e-4
-1.619, 3.855e-4
-1.618, 3.794e-4
-1.617, 3.732e-4
-1.616, 3.670e-4
-1.615, 3.640e-4
-1.614, 3.578e-4
-1.613, 3.516e-4
-1.612, 3.455e-4
-1.611, 3.424e-4
-1.610, 3.362e-4
-1.609, 3.300e-4
-1.608, 3.270e-4
-1.607, 3.208e-4
-1.606, 3.177e-4
-1.605, 3.115e-4
-1.604, 3.085e-4
-1.603, 3.023e-4
-1.602, 2.992e-4
-1.601, 2.961e-4
-1.600, 2.900e-4
-1.599, 2.869e-4
-1.598, 2.807e-4
-1.597, 2.776e-4
-1.596, 2.715e-4
-1.595, 2.684e-4
-1.594, 2.653e-4
-1.593, 2.622e-4
-1.592, 2.591e-4
-1.591, 2.530e-4
-1.590, 2.530e-4
-1.589, 2.468e-4
-1.588, 2.437e-4
-1.587, 2.406e-4
-1.586, 2.345e-4
-1.585, 2.314e-4
-1.584, 2.283e-4
-1.583, 2.252e-4
-1.582, 2.221e-4
-1.581, 2.191e-4
-1.580, 2.160e-4
-1.579, 2.129e-4
-1.578, 2.098e-4
-1.577, 2.067e-4
-1.576, 2.036e-4
-1.575, 2.006e-4
-1.574, 1.975e-4
-1.573, 1.944e-4
-1.572, 1.913e-4
-1.571, 1.882e-4
-1.570, 1.851e-4
-1.569, 1.821e-4
-1.568, 1.790e-4
-1.567, 1.790e-4
-1.566, 1.759e-4
-1.565, 1.728e-4
-1.564, 1.697e-4
-1.563, 1.666e-4
-1.562, 1.666e-4
-1.561, 1.605e-4
-1.560, 1.605e-4
-1.559, 1.574e-4
-1.558, 1.543e-4
-1.557, 1.512e-4
-1.556, 1.481e-4
-1.555, 1.451e-4
-1.554, 1.451e-4
-1.553, 1.451e-4
-1.552, 1.389e-4
-1.551, 1.389e-4
-1.550, 1.358e-4
-1.549, 1.358e-4
-1.548, 1.327e-4
-1.547, 1.296e-4
-1.546, 1.266e-4
-1.545, 1.266e-4
-1.544, 1.266e-4
-1.543, 1.235e-4
-1.542, 1.204e-4
-1.541, 1.173e-4
-1.540, 1.173e-4
-1.539, 1.142e-4
-1.538, 1.111e-4
-1.537, 1.111e-4
-1.536, 1.081e-4
-1.535, 1.081e-4
-1.534, 1.050e-4
-1.533, 1.050e-4
-1.532, 1.019e-4
-1.531, 9.882e-5
-1.530, 9.882e-5
-1.529, 9.573e-5
-1.528, 9.573e-5
-1.527, 9.265e-5
-1.526, 9.265e-5
-1.525, 8.957e-5
-1.524, 8.957e-5
-1.523, 8.648e-5
-1.522, 8.648e-5
-1.521, 8.648e-5
-1.520, 8.340e-5
-1.519, 8.340e-5
-1.518, 8.032e-5
-1.517, 8.032e-5
-1.516, 7.723e-5
-1.515, 7.723e-5
-1.514, 7.415e-5
-1.513, 7.107e-5
-1.512, 7.415e-5
-1.511, 7.107e-5
-1.510, 7.107e-5
-1.509, 6.798e-5
-1.508, 6.798e-5
-1.507, 6.798e-5
-1.506, 6.490e-5
-1.505, 6.490e-5
-1.504, 6.182e-5
-1.503, 6.182e-5
-1.502, 5.873e-5
-1.501, 6.182e-5
-1.500, 5.565e-5
-1.499, 5.873e-5
-1.498, 5.565e-5
-1.497, 5.565e-5
-1.496, 5.565e-5
-1.495, 5.257e-5
-1.494, 5.257e-5
-1.493, 5.257e-5
-1.492, 5.257e-5
-1.491, 4.949e-5
-1.490, 4.640e-5
-1.489, 4.949e-5
-1.488, 4.640e-5
-1.487, 4.640e-5
-1.486, 4.332e-5
-1.485, 4.332e-5
-1.484, 4.332e-5
-1.483, 4.332e-5
-1.482, 4.024e-5
-1.481, 4.024e-5
-1.480, 4.024e-5
-1.479, 3.715e-5
-1.478, 3.715e-5
-1.477, 3.715e-5
-1.476, 3.715e-5
-1.475, 3.407e-5
-1.474, 3.407e-5
-1.473, 3.407e-5
-1.472, 3.099e-5
-1.471, 3.407e-5
-1.470, 3.099e-5
-1.469, 3.407e-5
-1.468, 3.099e-5
-1.467, 3.099e-5
-1.466, 3.099e-5
-1.465, 2.790e-5
-1.464, 2.790e-5
-1.463, 2.790e-5
-1.462, 2.790e-5
-1.461, 2.482e-5
-1.460, 2.482e-5
-1.459, 2.482e-5
-1.458, 2.482e-5
-1.457, 2.482e-5
-1.456, 2.174e-5
-1.455, 2.174e-5
-1.454, 2.174e-5
-1.453, 2.174e-5
-1.452, 1.865e-5
-1.451, 2.174e-5
-1.450, 1.865e-5
-1.449, 1.865e-5
-1.448, 1.865e-5
-1.447, 1.557e-5
-1.446, 1.865e-5
-1.445, 1.557e-5
-1.444, 1.557e-5
-1.443, 1.557e-5
-1.442, 1.557e-5
-1.441, 1.557e-5
-1.440, 1.557e-5
-1.439, 1.557e-5
-1.438, 1.249e-5
-1.437, 1.557e-5
-1.436, 1.249e-5
-1.435, 1.249e-5
-1.434, 1.249e-5
-1.433, 1.249e-5
-1.432, 1.249e-5
-1.431, 9.405e-6
-1.430, 9.405e-6
-1.429, 9.405e-6
-1.428, 9.405e-6
-1.427, 9.405e-6
-1.426, 9.405e-6
-1.425, 9.405e-6
-1.424, 9.405e-6
-1.423, 9.405e-6
-1.422, 6.322e-6
-1.421, 6.322e-6
-1.420, 6.322e-6
-1.419, 6.322e-6
-1.418, 6.322e-6
-1.417, 6.322e-6
-1.416, 6.322e-6
-1.415, 3.239e-6
-1.414, 6.322e-6
-1.413, 3.239e-6
-1.412, 6.322e-6
-1.411, 3.239e-6
-1.410, 3.239e-6
-1.409, 3.239e-6
-1.408, 3.239e-6
-1.407, 3.239e-6
-1.406, 1.559e-7
-1.405, 3.239e-6
-1.404, 1.559e-7
-1.403, 3.239e-6
-1.402, 1.559e-7
-1.401, 1.559e-7
-1.400, 1.559e-7
-1.399, 1.559e-7
-1.398, 1.559e-7
-1.397, 1.559e-7
-1.396, 1.559e-7
-1.395, 1.559e-7
-1.394, 1.559e-7
-1.393, 1.559e-7
-1.392, -2.927e-6
-1.391, 1.559e-7
-1.390, -2.927e-6
-1.389, 1.559e-7
-1.388, -2.927e-6
-1.387, -2.927e-6
-1.386, -2.927e-6
-1.385, -2.927e-6
-1.384, -2.927e-6
-1.383, -2.927e-6
-1.382, -2.927e-6
-1.381, -2.927e-6
-1.380, -2.927e-6
-1.379, -6.010e-6
-1.378, -2.927e-6
-1.377, -2.927e-6
-1.376, -6.010e-6
-1.375, -2.927e-6
-1.374, -6.010e-6
-1.373, -6.010e-6
-1.372, -6.010e-6
-1.371, -6.010e-6
-1.370, -6.010e-6
-1.369, -6.010e-6
-1.368, -6.010e-6
-1.367, -6.010e-6
-1.366, -6.010e-6
-1.365, -6.010e-6
-1.364, -6.010e-6
-1.363, -9.093e-6
-1.362, -6.010e-6
-1.361, -6.010e-6
-1.360, -9.093e-6
-1.359, -6.010e-6
-1.358, -9.093e-6
-1.357, -6.010e-6
-1.356, -9.093e-6
-1.355, -9.093e-6
-1.354, -9.093e-6
-1.353, -9.093e-6
-1.352, -9.093e-6
-1.351, -9.093e-6
-1.350, -9.093e-6
-1.349, -9.093e-6
-1.348, -9.093e-6
-1.347, -9.093e-6
-1.346, -9.093e-6
-1.345, -9.093e-6
-1.344, -1.218e-5
-1.343, -9.093e-6
-1.342, -9.093e-6
-1.341, -9.093e-6
-1.340, -1.218e-5
-1.339, -9.093e-6
-1.338, -9.093e-6
-1.337, -1.218e-5
-1.336, -9.093e-6
-1.335, -1.218e-5
-1.334, -1.218e-5
-1.333, -1.218e-5
-1.332, -9.093e-6
-1.331, -1.218e-5
-1.330, -1.218e-5
-1.329, -1.218e-5
-1.328, -1.218e-5
-1.327, -1.218e-5
-1.326, -1.218e-5
-1.325, -1.218e-5
-1.324, -1.218e-5
-1.323, -1.218e-5
-1.322, -1.218e-5
-1.321, -1.218e-5
-1.320, -1.218e-5
-1.319, -1.218e-5
-1.318, -1.218e-5
-1.317, -1.218e-5
-1.316, -1.218e-5
-1.315, -1.218e-5
-1.314, -1.218e-5
-1.313, -1.218e-5
-1.312, -1.526e-5
-1.311, -1.218e-5
-1.310, -1.526e-5
-1.309, -1.218e-5
-1.308, -1.218e-5
-1.307, -1.218e-5
-1.306, -1.526e-5
-1.305, -1.526e-5
-1.304, -1.526e-5
-1.303, -1.526e-5
-1.302, -1.218e-5
-1.301, -1.526e-5
-1.300, -1.218e-5
-1.299, -1.526e-5
-1.298, -1.526e-5
-1.297, -1.526e-5
-1.296, -1.526e-5
-1.295, -1.526e-5
-1.294, -1.526e-5
-1.293, -1.526e-5
-1.292, -1.526e-5
-1.291, -1.526e-5
-1.290, -1.526e-5
-1.289, -1.526e-5
-1.288, -1.526e-5
-1.287, -1.526e-5
-1.286, -1.526e-5
-1.285, -1.526e-5
-1.284, -1.526e-5
-1.283, -1.834e-5
-1.282, -1.526e-5
-1.281, -1.526e-5
-1.280, -1.526e-5
-1.279, -1.834e-5
-1.278, -1.834e-5
-1.277, -1.526e-5
-1.276, -1.834e-5
-1.275, -1.526e-5
-1.274, -1.526e-5
-1.273, -1.834e-5
-1.272, -1.526e-5
-1.271, -1.834e-5
-1.270, -1.526e-5
-1.269, -1.834e-5
-1.268, -1.526e-5
-1.267, -1.834e-5
-1.266, -1.834e-5
-1.265, -1.834e-5
-1.264, -1.834e-5
-1.263, -1.834e-5
-1.262, -1.834e-5
-1.261, -1.834e-5
-1.260, -1.834e-5
-1.259, -1.834e-5
-1.258, -1.834e-5
-1.257, -1.834e-5
-1.256, -1.834e-5
-1.255, -1.834e-5
-1.254, -1.834e-5
-1.253, -1.834e-5
-1.252, -1.834e-5
-1.251, -1.834e-5
-1.250, -1.834e-5
-1.249, -1.834e-5
-1.248, -1.834e-5
-1.247, -1.834e-5
-1.246, -2.143e-5
-1.245, -1.834e-5
-1.244, -1.834e-5
-1.243, -1.834e-5
-1.242, -1.834e-5
-1.241, -1.834e-5
-1.240, -1.834e-5
-1.239, -2.143e-5
-1.238, -1.834e-5
-1.237, -2.143e-5
-1.236, -1.834e-5
-1.235, -2.143e-5
-1.234, -1.834e-5
-1.233, -1.834e-5
-1.232, -2.143e-5
-1.231, -1.834e-5
-1.230, -2.143e-5
-1.229, -1.834e-5
-1.228, -2.143e-5
-1.227, -2.143e-5
-1.226, -2.143e-5
-1.225, -1.834e-5
-1.224, -1.834e-5
-1.223, -2.143e-5
-1.222, -2.143e-5
-1.221, -2.143e-5
-1.220, -1.834e-5
-1.219, -2.143e-5
-1.218, -2.143e-5
-1.217, -2.143e-5
-1.216, -2.143e-5
-1.215, -1.834e-5
-1.214, -2.143e-5
-1.213, -2.143e-5
-1.212, -2.143e-5
-1.211, -2.143e-5
-1.210, -2.143e-5
-1.209, -2.143e-5
-1.208, -2.143e-5
-1.207, -2.143e-5
-1.206, -2.143e-5
-1.205, -2.143e-5
-1.204, -2.143e-5
-1.203, -2.143e-5
-1.202, -2.143e-5
-1.201, -2.143e-5
-1.200, -2.143e-5
-1.199, -2.143e-5
-1.198, -2.143e-5
-1.197, -2.143e-5
-1.196, -2.143e-5
-1.195, -2.143e-5
-1.194, -2.143e-5
-1.193, -2.143e-5
-1.192, -2.143e-5
-1.191, -2.143e-5
-1.190, -2.143e-5
-1.189, -2.143e-5
-1.188, -2.143e-5
-1.187, -2.143e-5
-1.186, -2.143e-5
-1.185, -2.143e-5
-1.184, -2.143e-5
-1.183, -2.143e-5
-1.182, -2.143e-5
-1.181, -2.143e-5
-1.180, -2.143e-5
-1.179, -2.143e-5
-1.178, -2.143e-5
-1.177, -2.143e-5
-1.176, -2.143e-5
-1.175, -2.143e-5
-1.174, -2.143e-5
-1.173, -2.143e-5
-1.172, -2.143e-5
-1.171, -2.451e-5
-1.170, -2.143e-5
-1.169, -2.143e-5
-1.168, -2.143e-5
-1.167, -2.143e-5
-1.166, -2.451e-5
-1.165, -2.143e-5
-1.164, -2.143e-5
-1.163, -2.143e-5
-1.162, -2.143e-5
-1.161, -2.143e-5
-1.160, -2.451e-5
-1.159, -2.143e-5
-1.158, -2.143e-5
-1.157, -2.143e-5
-1.156, -2.143e-5
-1.155, -2.451e-5
-1.154, -2.143e-5
-1.153, -2.143e-5
-1.152, -2.143e-5
-1.151, -2.143e-5
-1.150, -2.143e-5
-1.149, -2.143e-5
-1.148, -2.451e-5
-1.147, -2.143e-5
-1.146, -2.143e-5
-1.145, -2.143e-5
-1.144, -2.143e-5
-1.143, -2.451e-5
-1.142, -2.143e-5
-1.141, -2.143e-5
-1.140, -2.143e-5
-1.139, -2.143e-5
-1.138, -2.143e-5
-1.137, -2.143e-5
-1.136, -2.143e-5
-1.135, -2.143e-5
-1.134, -2.451e-5
-1.133, -2.143e-5
-1.132, -2.143e-5
-1.131, -2.143e-5
-1.130, -2.451e-5
-1.129, -2.451e-5
-1.128, -2.143e-5
-1.127, -2.451e-5
-1.126, -2.143e-5
-1.125, -2.451e-5
-1.124, -2.143e-5
-1.123, -2.451e-5
-1.122, -2.143e-5
-1.121, -2.143e-5
-1.120, -2.451e-5
-1.119, -2.451e-5
-1.118, -2.451e-5
-1.117, -2.143e-5
-1.116, -2.451e-5
-1.115, -2.143e-5
-1.114, -2.143e-5
-1.113, -2.451e-5
-1.112, -2.143e-5
-1.111, -2.143e-5
-1.110, -2.451e-5
-1.109, -2.451e-5
-1.108, -2.143e-5
-1.107, -2.451e-5
-1.106, -2.451e-5
-1.105, -2.451e-5
-1.104, -2.451e-5
-1.103, -2.451e-5
-1.102, -2.451e-5
-1.101, -2.143e-5
-1.100, -2.451e-5
-1.099, -2.143e-5
-1.098, -2.451e-5
-1.097, -2.451e-5
-1.096, -2.451e-5
-1.095, -2.451e-5
-1.094, -2.451e-5
-1.093, -2.451e-5
-1.092, -2.451e-5
-1.091, -2.451e-5
-1.090, -2.451e-5
-1.089, -2.451e-5
-1.088, -2.451e-5
-1.087, -2.451e-5
-1.086, -2.451e-5
-1.085, -2.451e-5
-1.084, -2.451e-5
-1.083, -2.451e-5
-1.082, -2.451e-5
-1.081, -2.451e-5
-1.080, -2.451e-5
-1.079, -2.451e-5
-1.078, -2.451e-5
-1.077, -2.759e-5
-1.076, -2.451e-5
-1.075, -2.451e-5
-1.074, -2.451e-5
-1.073, -2.451e-5
-1.072, -2.451e-5
-1.071, -2.451e-5
-1.070, -2.451e-5
-1.069, -2.451e-5
-1.068, -2.451e-5
-1.067, -2.451e-5
-1.066, -2.451e-5
-1.065, -2.451e-5
-1.064, -2.451e-5
-1.063, -2.759e-5
-1.062, -2.451e-5
-1.061, -2.759e-5
-1.060, -2.451e-5
-1.059, -2.759e-5
-1.058, -2.451e-5
-1.057, -2.451e-5
-1.056, -2.759e-5
-1.055, -2.451e-5
-1.054, -2.759e-5
-1.053, -2.451e-5
-1.052, -2.759e-5
-1.051, -2.451e-5
-1.050, -2.759e-5
-1.049, -2.759e-5
-1.048, -2.759e-5
-1.047, -2.759e-5
-1.046, -2.451e-5
-1.045, -2.759e-5
-1.044, -2.451e-5
-1.043, -2.759e-5
-1.042, -2.451e-5
-1.041, -2.451e-5
-1.040, -2.759e-5
-1.039, -2.759e-5
-1.038, -2.759e-5
-1.037, -2.759e-5
-1.036, -2.759e-5
-1.035, -2.759e-5
-1.034, -2.759e-5
-1.033, -2.759e-5
-1.032, -2.759e-5
-1.031, -3.068e-5
-1.030, -2.759e-5
-1.029, -3.068e-5
-1.028, -2.759e-5
-1.027, -2.759e-5
-1.026, -2.759e-5
-1.025, -2.759e-5
-1.024, -2.759e-5
-1.023, -2.759e-5
-1.022, -2.759e-5
-1.021, -2.759e-5
-1.020, -3.068e-5
-1.019, -2.759e-5
-1.018, -2.759e-5
-1.017, -3.068e-5
-1.016, -2.759e-5
-1.015, -3.068e-5
-1.014, -2.759e-5
-1.013, -3.068e-5
-1.012, -2.759e-5
-1.011, -3.068e-5
-1.010, -3.068e-5
-1.009, -3.068e-5
-1.008, -3.068e-5
-1.007, -3.068e-5
-1.006, -3.068e-5
-1.005, -3.068e-5
-1.004, -3.068e-5
-1.003, -3.068e-5
-1.002, -3.068e-5
-1.001, -3.068e-5
