Aug. 3, 2024   22:45:43
Linear Sweep Voltammetry
File: c:/users/guazh/data/20240802_batch_500/2024-08-02-exp10\1acid_2ac-2024-08-03t22_42_31-lsvinphos\1acid_2ac_lsv_50mvs_efin_-2300mv.bin
Data Source:  Experiment
Instrument Model:  CHI760E
Header: LSV ran at 50 mVs with Efin at -2300mV
Note: 

Init E (V) = -0.6
Final E (V) = -2.3
Scan Rate (V/s) = 0.05
Sample Interval (V) = 0.001
Quiet Time (sec) = 2
Sensitivity (A/V) = 1e-4
Comp R (ohm) = 8.6

Results:

Channel 1:
Ep = -2.005V
ip = 6.225e-4A
Ah = 7.776e-4C

Potential/V, Current/A

-0.600, 2.552e-6
-0.601, 2.637e-6
-0.602, 2.682e-6
-0.603, 2.716e-6
-0.604, 2.751e-6
-0.605, 2.783e-6
-0.606, 2.812e-6
-0.607, 2.839e-6
-0.608, 2.870e-6
-0.609, 2.902e-6
-0.610, 2.930e-6
-0.611, 2.958e-6
-0.612, 2.985e-6
-0.613, 3.014e-6
-0.614, 3.047e-6
-0.615, 3.076e-6
-0.616, 3.104e-6
-0.617, 3.131e-6
-0.618, 3.162e-6
-0.619, 3.193e-6
-0.620, 3.221e-6
-0.621, 3.249e-6
-0.622, 3.277e-6
-0.623, 3.306e-6
-0.624, 3.339e-6
-0.625, 3.369e-6
-0.626, 3.398e-6
-0.627, 3.428e-6
-0.628, 3.459e-6
-0.629, 3.490e-6
-0.630, 3.521e-6
-0.631, 3.549e-6
-0.632, 3.579e-6
-0.633, 3.611e-6
-0.634, 3.644e-6
-0.635, 3.676e-6
-0.636, 3.704e-6
-0.637, 3.735e-6
-0.638, 3.767e-6
-0.639, 3.801e-6
-0.640, 3.834e-6
-0.641, 3.865e-6
-0.642, 3.896e-6
-0.643, 3.927e-6
-0.644, 3.961e-6
-0.645, 3.994e-6
-0.646, 4.025e-6
-0.647, 4.056e-6
-0.648, 4.088e-6
-0.649, 4.124e-6
-0.650, 4.156e-6
-0.651, 4.186e-6
-0.652, 4.217e-6
-0.653, 4.250e-6
-0.654, 4.286e-6
-0.655, 4.319e-6
-0.656, 4.350e-6
-0.657, 4.384e-6
-0.658, 4.417e-6
-0.659, 4.454e-6
-0.660, 4.488e-6
-0.661, 4.522e-6
-0.662, 4.555e-6
-0.663, 4.591e-6
-0.664, 4.626e-6
-0.665, 4.662e-6
-0.666, 4.696e-6
-0.667, 4.729e-6
-0.668, 4.764e-6
-0.669, 4.801e-6
-0.670, 4.836e-6
-0.671, 4.869e-6
-0.672, 4.902e-6
-0.673, 4.938e-6
-0.674, 4.975e-6
-0.675, 5.011e-6
-0.676, 5.045e-6
-0.677, 5.079e-6
-0.678, 5.115e-6
-0.679, 5.152e-6
-0.680, 5.187e-6
-0.681, 5.220e-6
-0.682, 5.255e-6
-0.683, 5.291e-6
-0.684, 5.329e-6
-0.685, 5.364e-6
-0.686, 5.398e-6
-0.687, 5.431e-6
-0.688, 5.467e-6
-0.689, 5.505e-6
-0.690, 5.541e-6
-0.691, 5.576e-6
-0.692, 5.610e-6
-0.693, 5.645e-6
-0.694, 5.682e-6
-0.695, 5.717e-6
-0.696, 5.753e-6
-0.697, 5.786e-6
-0.698, 5.821e-6
-0.699, 5.859e-6
-0.700, 5.892e-6
-0.701, 5.924e-6
-0.702, 5.956e-6
-0.703, 5.989e-6
-0.704, 6.026e-6
-0.705, 6.062e-6
-0.706, 6.094e-6
-0.707, 6.128e-6
-0.708, 6.160e-6
-0.709, 6.195e-6
-0.710, 6.227e-6
-0.711, 6.258e-6
-0.712, 6.291e-6
-0.713, 6.323e-6
-0.714, 6.360e-6
-0.715, 6.393e-6
-0.716, 6.424e-6
-0.717, 6.457e-6
-0.718, 6.488e-6
-0.719, 6.523e-6
-0.720, 6.556e-6
-0.721, 6.586e-6
-0.722, 6.615e-6
-0.723, 6.647e-6
-0.724, 6.681e-6
-0.725, 6.712e-6
-0.726, 6.740e-6
-0.727, 6.769e-6
-0.728, 6.800e-6
-0.729, 6.831e-6
-0.730, 6.863e-6
-0.731, 6.889e-6
-0.732, 6.917e-6
-0.733, 6.944e-6
-0.734, 6.976e-6
-0.735, 7.004e-6
-0.736, 7.029e-6
-0.737, 7.056e-6
-0.738, 7.083e-6
-0.739, 7.113e-6
-0.740, 7.139e-6
-0.741, 7.164e-6
-0.742, 7.190e-6
-0.743, 7.216e-6
-0.744, 7.242e-6
-0.745, 7.267e-6
-0.746, 7.290e-6
-0.747, 7.312e-6
-0.748, 7.336e-6
-0.749, 7.361e-6
-0.750, 7.384e-6
-0.751, 7.405e-6
-0.752, 7.426e-6
-0.753, 7.448e-6
-0.754, 7.472e-6
-0.755, 7.496e-6
-0.756, 7.515e-6
-0.757, 7.534e-6
-0.758, 7.554e-6
-0.759, 7.576e-6
-0.760, 7.597e-6
-0.761, 7.616e-6
-0.762, 7.633e-6
-0.763, 7.651e-6
-0.764, 7.670e-6
-0.765, 7.690e-6
-0.766, 7.705e-6
-0.767, 7.721e-6
-0.768, 7.739e-6
-0.769, 7.758e-6
-0.770, 7.774e-6
-0.771, 7.789e-6
-0.772, 7.801e-6
-0.773, 7.814e-6
-0.774, 7.831e-6
-0.775, 7.846e-6
-0.776, 7.859e-6
-0.777, 7.870e-6
-0.778, 7.882e-6
-0.779, 7.897e-6
-0.780, 7.910e-6
-0.781, 7.921e-6
-0.782, 7.933e-6
-0.783, 7.942e-6
-0.784, 7.955e-6
-0.785, 7.967e-6
-0.786, 7.974e-6
-0.787, 7.984e-6
-0.788, 7.992e-6
-0.789, 8.002e-6
-0.790, 8.013e-6
-0.791, 8.019e-6
-0.792, 8.025e-6
-0.793, 8.033e-6
-0.794, 8.041e-6
-0.795, 8.050e-6
-0.796, 8.056e-6
-0.797, 8.060e-6
-0.798, 8.066e-6
-0.799, 8.072e-6
-0.800, 8.081e-6
-0.801, 8.084e-6
-0.802, 8.086e-6
-0.803, 8.092e-6
-0.804, 8.097e-6
-0.805, 8.103e-6
-0.806, 8.106e-6
-0.807, 8.108e-6
-0.808, 8.110e-6
-0.809, 8.115e-6
-0.810, 8.120e-6
-0.811, 8.121e-6
-0.812, 8.123e-6
-0.813, 8.124e-6
-0.814, 8.129e-6
-0.815, 8.132e-6
-0.816, 8.132e-6
-0.817, 8.132e-6
-0.818, 8.132e-6
-0.819, 8.138e-6
-0.820, 8.143e-6
-0.821, 8.141e-6
-0.822, 8.139e-6
-0.823, 8.139e-6
-0.824, 8.140e-6
-0.825, 8.142e-6
-0.826, 8.139e-6
-0.827, 8.139e-6
-0.828, 8.137e-6
-0.829, 8.139e-6
-0.830, 8.139e-6
-0.831, 8.136e-6
-0.832, 8.135e-6
-0.833, 8.133e-6
-0.834, 8.133e-6
-0.835, 8.133e-6
-0.836, 8.130e-6
-0.837, 8.128e-6
-0.838, 8.125e-6
-0.839, 8.125e-6
-0.840, 8.125e-6
-0.841, 8.122e-6
-0.842, 8.119e-6
-0.843, 8.116e-6
-0.844, 8.115e-6
-0.845, 8.115e-6
-0.846, 8.111e-6
-0.847, 8.107e-6
-0.848, 8.104e-6
-0.849, 8.103e-6
-0.850, 8.100e-6
-0.851, 8.098e-6
-0.852, 8.095e-6
-0.853, 8.090e-6
-0.854, 8.090e-6
-0.855, 8.088e-6
-0.856, 8.085e-6
-0.857, 8.083e-6
-0.858, 8.078e-6
-0.859, 8.077e-6
-0.860, 8.075e-6
-0.861, 8.070e-6
-0.862, 8.066e-6
-0.863, 8.063e-6
-0.864, 8.061e-6
-0.865, 8.061e-6
-0.866, 8.056e-6
-0.867, 8.052e-6
-0.868, 8.047e-6
-0.869, 8.045e-6
-0.870, 8.047e-6
-0.871, 8.042e-6
-0.872, 8.037e-6
-0.873, 8.033e-6
-0.874, 8.032e-6
-0.875, 8.031e-6
-0.876, 8.026e-6
-0.877, 8.021e-6
-0.878, 8.018e-6
-0.879, 8.017e-6
-0.880, 8.015e-6
-0.881, 8.011e-6
-0.882, 8.006e-6
-0.883, 8.004e-6
-0.884, 8.003e-6
-0.885, 8.000e-6
-0.886, 7.998e-6
-0.887, 7.994e-6
-0.888, 7.991e-6
-0.889, 7.988e-6
-0.890, 7.989e-6
-0.891, 7.985e-6
-0.892, 7.980e-6
-0.893, 7.978e-6
-0.894, 7.975e-6
-0.895, 7.974e-6
-0.896, 7.972e-6
-0.897, 7.969e-6
-0.898, 7.964e-6
-0.899, 7.964e-6
-0.900, 7.962e-6
-0.901, 7.959e-6
-0.902, 7.956e-6
-0.903, 7.952e-6
-0.904, 7.952e-6
-0.905, 7.952e-6
-0.906, 7.947e-6
-0.907, 7.945e-6
-0.908, 7.941e-6
-0.909, 7.941e-6
-0.910, 7.942e-6
-0.911, 7.939e-6
-0.912, 7.936e-6
-0.913, 7.933e-6
-0.914, 7.933e-6
-0.915, 7.933e-6
-0.916, 7.931e-6
-0.917, 7.926e-6
-0.918, 7.925e-6
-0.919, 7.926e-6
-0.920, 7.926e-6
-0.921, 7.924e-6
-0.922, 7.922e-6
-0.923, 7.920e-6
-0.924, 7.920e-6
-0.925, 7.920e-6
-0.926, 7.920e-6
-0.927, 7.917e-6
-0.928, 7.916e-6
-0.929, 7.916e-6
-0.930, 7.916e-6
-0.931, 7.914e-6
-0.932, 7.912e-6
-0.933, 7.910e-6
-0.934, 7.913e-6
-0.935, 7.913e-6
-0.936, 7.912e-6
-0.937, 7.910e-6
-0.938, 7.908e-6
-0.939, 7.908e-6
-0.940, 7.910e-6
-0.941, 7.910e-6
-0.942, 7.908e-6
-0.943, 7.907e-6
-0.944, 7.908e-6
-0.945, 7.910e-6
-0.946, 7.909e-6
-0.947, 7.910e-6
-0.948, 7.910e-6
-0.949, 7.909e-6
-0.950, 7.912e-6
-0.951, 7.911e-6
-0.952, 7.910e-6
-0.953, 7.908e-6
-0.954, 7.910e-6
-0.955, 7.912e-6
-0.956, 7.911e-6
-0.957, 7.910e-6
-0.958, 7.909e-6
-0.959, 7.911e-6
-0.960, 7.914e-6
-0.961, 7.914e-6
-0.962, 7.912e-6
-0.963, 7.912e-6
-0.964, 7.913e-6
-0.965, 7.916e-6
-0.966, 7.916e-6
-0.967, 7.916e-6
-0.968, 7.915e-6
-0.969, 7.917e-6
-0.970, 7.919e-6
-0.971, 7.918e-6
-0.972, 7.919e-6
-0.973, 7.920e-6
-0.974, 7.922e-6
-0.975, 7.924e-6
-0.976, 7.925e-6
-0.977, 7.923e-6
-0.978, 7.923e-6
-0.979, 7.926e-6
-0.980, 7.929e-6
-0.981, 7.929e-6
-0.982, 7.929e-6
-0.983, 7.929e-6
-0.984, 7.932e-6
-0.985, 7.935e-6
-0.986, 7.937e-6
-0.987, 7.937e-6
-0.988, 7.938e-6
-0.989, 7.940e-6
-0.990, 7.945e-6
-0.991, 7.947e-6
-0.992, 7.946e-6
-0.993, 7.946e-6
-0.994, 7.950e-6
-0.995, 7.954e-6
-0.996, 7.955e-6
-0.997, 7.955e-6
-0.998, 7.956e-6
-0.999, 7.960e-6
-1.000, 7.963e-6
-1.001, 7.966e-6
-1.002, 7.964e-6
-1.003, 7.967e-6
-1.004, 7.970e-6
-1.005, 7.973e-6
-1.006, 7.975e-6
-1.007, 7.975e-6
-1.008, 7.977e-6
-1.009, 7.982e-6
-1.010, 7.984e-6
-1.011, 7.988e-6
-1.012, 7.988e-6
-1.013, 7.988e-6
-1.014, 7.993e-6
-1.015, 7.998e-6
-1.016, 8.000e-6
-1.017, 8.002e-6
-1.018, 8.004e-6
-1.019, 8.008e-6
-1.020, 8.012e-6
-1.021, 8.014e-6
-1.022, 8.016e-6
-1.023, 8.018e-6
-1.024, 8.023e-6
-1.025, 8.028e-6
-1.026, 8.029e-6
-1.027, 8.032e-6
-1.028, 8.034e-6
-1.029, 8.038e-6
-1.030, 8.045e-6
-1.031, 8.048e-6
-1.032, 8.051e-6
-1.033, 8.054e-6
-1.034, 8.057e-6
-1.035, 8.062e-6
-1.036, 8.066e-6
-1.037, 8.068e-6
-1.038, 8.072e-6
-1.039, 8.077e-6
-1.040, 8.083e-6
-1.041, 8.087e-6
-1.042, 8.090e-6
-1.043, 8.094e-6
-1.044, 8.101e-6
-1.045, 8.109e-6
-1.046, 8.112e-6
-1.047, 8.115e-6
-1.048, 8.118e-6
-1.049, 8.124e-6
-1.050, 8.131e-6
-1.051, 8.135e-6
-1.052, 8.139e-6
-1.053, 8.144e-6
-1.054, 8.150e-6
-1.055, 8.157e-6
-1.056, 8.163e-6
-1.057, 8.167e-6
-1.058, 8.172e-6
-1.059, 8.179e-6
-1.060, 8.187e-6
-1.061, 8.192e-6
-1.062, 8.199e-6
-1.063, 8.205e-6
-1.064, 8.212e-6
-1.065, 8.221e-6
-1.066, 8.227e-6
-1.067, 8.232e-6
-1.068, 8.238e-6
-1.069, 8.245e-6
-1.070, 8.255e-6
-1.071, 8.261e-6
-1.072, 8.267e-6
-1.073, 8.273e-6
-1.074, 8.281e-6
-1.075, 8.292e-6
-1.076, 8.299e-6
-1.077, 8.305e-6
-1.078, 8.312e-6
-1.079, 8.320e-6
-1.080, 8.330e-6
-1.081, 8.338e-6
-1.082, 8.344e-6
-1.083, 8.352e-6
-1.084, 8.360e-6
-1.085, 8.370e-6
-1.086, 8.378e-6
-1.087, 8.386e-6
-1.088, 8.395e-6
-1.089, 8.405e-6
-1.090, 8.415e-6
-1.091, 8.423e-6
-1.092, 8.433e-6
-1.093, 8.442e-6
-1.094, 8.450e-6
-1.095, 8.462e-6
-1.096, 8.472e-6
-1.097, 8.481e-6
-1.098, 8.489e-6
-1.099, 8.500e-6
-1.100, 8.512e-6
-1.101, 8.524e-6
-1.102, 8.535e-6
-1.103, 8.546e-6
-1.104, 8.556e-6
-1.105, 8.568e-6
-1.106, 8.579e-6
-1.107, 8.588e-6
-1.108, 8.599e-6
-1.109, 8.609e-6
-1.110, 8.622e-6
-1.111, 8.635e-6
-1.112, 8.650e-6
-1.113, 8.661e-6
-1.114, 8.674e-6
-1.115, 8.688e-6
-1.116, 8.700e-6
-1.117, 8.710e-6
-1.118, 8.723e-6
-1.119, 8.735e-6
-1.120, 8.752e-6
-1.121, 8.764e-6
-1.122, 8.775e-6
-1.123, 8.788e-6
-1.124, 8.802e-6
-1.125, 8.816e-6
-1.126, 8.830e-6
-1.127, 8.842e-6
-1.128, 8.854e-6
-1.129, 8.869e-6
-1.130, 8.884e-6
-1.131, 8.899e-6
-1.132, 8.913e-6
-1.133, 8.927e-6
-1.134, 8.943e-6
-1.135, 8.960e-6
-1.136, 8.977e-6
-1.137, 8.991e-6
-1.138, 9.006e-6
-1.139, 9.023e-6
-1.140, 9.042e-6
-1.141, 9.058e-6
-1.142, 9.074e-6
-1.143, 9.088e-6
-1.144, 9.107e-6
-1.145, 9.126e-6
-1.146, 9.142e-6
-1.147, 9.160e-6
-1.148, 9.177e-6
-1.149, 9.195e-6
-1.150, 9.218e-6
-1.151, 9.238e-6
-1.152, 9.257e-6
-1.153, 9.276e-6
-1.154, 9.295e-6
-1.155, 9.318e-6
-1.156, 9.338e-6
-1.157, 9.356e-6
-1.158, 9.376e-6
-1.159, 9.395e-6
-1.160, 9.418e-6
-1.161, 9.440e-6
-1.162, 9.461e-6
-1.163, 9.482e-6
-1.164, 9.505e-6
-1.165, 9.529e-6
-1.166, 9.555e-6
-1.167, 9.576e-6
-1.168, 9.601e-6
-1.169, 9.624e-6
-1.170, 9.649e-6
-1.171, 9.675e-6
-1.172, 9.698e-6
-1.173, 9.723e-6
-1.174, 9.750e-6
-1.175, 9.778e-6
-1.176, 9.805e-6
-1.177, 9.831e-6
-1.178, 9.859e-6
-1.179, 9.886e-6
-1.180, 9.916e-6
-1.181, 9.945e-6
-1.182, 9.972e-6
-1.183, 1.000e-5
-1.184, 1.003e-5
-1.185, 1.006e-5
-1.186, 1.009e-5
-1.187, 1.012e-5
-1.188, 1.015e-5
-1.189, 1.018e-5
-1.190, 1.022e-5
-1.191, 1.025e-5
-1.192, 1.028e-5
-1.193, 1.031e-5
-1.194, 1.035e-5
-1.195, 1.038e-5
-1.196, 1.042e-5
-1.197, 1.045e-5
-1.198, 1.049e-5
-1.199, 1.053e-5
-1.200, 1.057e-5
-1.201, 1.060e-5
-1.202, 1.064e-5
-1.203, 1.068e-5
-1.204, 1.072e-5
-1.205, 1.076e-5
-1.206, 1.080e-5
-1.207, 1.084e-5
-1.208, 1.088e-5
-1.209, 1.092e-5
-1.210, 1.097e-5
-1.211, 1.101e-5
-1.212, 1.105e-5
-1.213, 1.109e-5
-1.214, 1.113e-5
-1.215, 1.118e-5
-1.216, 1.123e-5
-1.217, 1.127e-5
-1.218, 1.131e-5
-1.219, 1.136e-5
-1.220, 1.141e-5
-1.221, 1.146e-5
-1.222, 1.150e-5
-1.223, 1.155e-5
-1.224, 1.160e-5
-1.225, 1.165e-5
-1.226, 1.170e-5
-1.227, 1.175e-5
-1.228, 1.180e-5
-1.229, 1.185e-5
-1.230, 1.190e-5
-1.231, 1.195e-5
-1.232, 1.200e-5
-1.233, 1.205e-5
-1.234, 1.209e-5
-1.235, 1.214e-5
-1.236, 1.220e-5
-1.237, 1.225e-5
-1.238, 1.230e-5
-1.239, 1.236e-5
-1.240, 1.241e-5
-1.241, 1.247e-5
-1.242, 1.252e-5
-1.243, 1.258e-5
-1.244, 1.263e-5
-1.245, 1.269e-5
-1.246, 1.275e-5
-1.247, 1.280e-5
-1.248, 1.286e-5
-1.249, 1.292e-5
-1.250, 1.297e-5
-1.251, 1.304e-5
-1.252, 1.309e-5
-1.253, 1.315e-5
-1.254, 1.320e-5
-1.255, 1.327e-5
-1.256, 1.333e-5
-1.257, 1.338e-5
-1.258, 1.344e-5
-1.259, 1.350e-5
-1.260, 1.356e-5
-1.261, 1.362e-5
-1.262, 1.368e-5
-1.263, 1.373e-5
-1.264, 1.379e-5
-1.265, 1.385e-5
-1.266, 1.391e-5
-1.267, 1.397e-5
-1.268, 1.402e-5
-1.269, 1.408e-5
-1.270, 1.414e-5
-1.271, 1.419e-5
-1.272, 1.425e-5
-1.273, 1.431e-5
-1.274, 1.436e-5
-1.275, 1.442e-5
-1.276, 1.448e-5
-1.277, 1.453e-5
-1.278, 1.459e-5
-1.279, 1.465e-5
-1.280, 1.471e-5
-1.281, 1.476e-5
-1.282, 1.482e-5
-1.283, 1.487e-5
-1.284, 1.492e-5
-1.285, 1.498e-5
-1.286, 1.504e-5
-1.287, 1.509e-5
-1.288, 1.514e-5
-1.289, 1.520e-5
-1.290, 1.525e-5
-1.291, 1.530e-5
-1.292, 1.535e-5
-1.293, 1.540e-5
-1.294, 1.545e-5
-1.295, 1.551e-5
-1.296, 1.555e-5
-1.297, 1.560e-5
-1.298, 1.565e-5
-1.299, 1.570e-5
-1.300, 1.575e-5
-1.301, 1.579e-5
-1.302, 1.584e-5
-1.303, 1.588e-5
-1.304, 1.593e-5
-1.305, 1.597e-5
-1.306, 1.602e-5
-1.307, 1.606e-5
-1.308, 1.610e-5
-1.309, 1.615e-5
-1.310, 1.619e-5
-1.311, 1.623e-5
-1.312, 1.627e-5
-1.313, 1.631e-5
-1.314, 1.635e-5
-1.315, 1.639e-5
-1.316, 1.643e-5
-1.317, 1.646e-5
-1.318, 1.650e-5
-1.319, 1.654e-5
-1.320, 1.657e-5
-1.321, 1.661e-5
-1.322, 1.664e-5
-1.323, 1.667e-5
-1.324, 1.670e-5
-1.325, 1.674e-5
-1.326, 1.677e-5
-1.327, 1.680e-5
-1.328, 1.683e-5
-1.329, 1.686e-5
-1.330, 1.689e-5
-1.331, 1.692e-5
-1.332, 1.695e-5
-1.333, 1.697e-5
-1.334, 1.700e-5
-1.335, 1.703e-5
-1.336, 1.706e-5
-1.337, 1.708e-5
-1.338, 1.711e-5
-1.339, 1.713e-5
-1.340, 1.716e-5
-1.341, 1.718e-5
-1.342, 1.720e-5
-1.343, 1.722e-5
-1.344, 1.724e-5
-1.345, 1.727e-5
-1.346, 1.729e-5
-1.347, 1.731e-5
-1.348, 1.732e-5
-1.349, 1.734e-5
-1.350, 1.736e-5
-1.351, 1.738e-5
-1.352, 1.740e-5
-1.353, 1.742e-5
-1.354, 1.743e-5
-1.355, 1.745e-5
-1.356, 1.747e-5
-1.357, 1.748e-5
-1.358, 1.750e-5
-1.359, 1.751e-5
-1.360, 1.753e-5
-1.361, 1.754e-5
-1.362, 1.756e-5
-1.363, 1.757e-5
-1.364, 1.758e-5
-1.365, 1.760e-5
-1.366, 1.761e-5
-1.367, 1.762e-5
-1.368, 1.763e-5
-1.369, 1.765e-5
-1.370, 1.766e-5
-1.371, 1.767e-5
-1.372, 1.768e-5
-1.373, 1.769e-5
-1.374, 1.770e-5
-1.375, 1.771e-5
-1.376, 1.772e-5
-1.377, 1.773e-5
-1.378, 1.774e-5
-1.379, 1.775e-5
-1.380, 1.776e-5
-1.381, 1.777e-5
-1.382, 1.777e-5
-1.383, 1.778e-5
-1.384, 1.779e-5
-1.385, 1.780e-5
-1.386, 1.781e-5
-1.387, 1.782e-5
-1.388, 1.783e-5
-1.389, 1.784e-5
-1.390, 1.785e-5
-1.391, 1.785e-5
-1.392, 1.786e-5
-1.393, 1.787e-5
-1.394, 1.788e-5
-1.395, 1.789e-5
-1.396, 1.790e-5
-1.397, 1.791e-5
-1.398, 1.791e-5
-1.399, 1.792e-5
-1.400, 1.793e-5
-1.401, 1.794e-5
-1.402, 1.794e-5
-1.403, 1.795e-5
-1.404, 1.796e-5
-1.405, 1.797e-5
-1.406, 1.798e-5
-1.407, 1.798e-5
-1.408, 1.799e-5
-1.409, 1.800e-5
-1.410, 1.801e-5
-1.411, 1.802e-5
-1.412, 1.803e-5
-1.413, 1.804e-5
-1.414, 1.805e-5
-1.415, 1.806e-5
-1.416, 1.807e-5
-1.417, 1.808e-5
-1.418, 1.809e-5
-1.419, 1.810e-5
-1.420, 1.812e-5
-1.421, 1.813e-5
-1.422, 1.814e-5
-1.423, 1.815e-5
-1.424, 1.817e-5
-1.425, 1.818e-5
-1.426, 1.819e-5
-1.427, 1.821e-5
-1.428, 1.822e-5
-1.429, 1.823e-5
-1.430, 1.824e-5
-1.431, 1.826e-5
-1.432, 1.827e-5
-1.433, 1.829e-5
-1.434, 1.830e-5
-1.435, 1.832e-5
-1.436, 1.834e-5
-1.437, 1.836e-5
-1.438, 1.837e-5
-1.439, 1.839e-5
-1.440, 1.841e-5
-1.441, 1.843e-5
-1.442, 1.845e-5
-1.443, 1.846e-5
-1.444, 1.848e-5
-1.445, 1.850e-5
-1.446, 1.853e-5
-1.447, 1.855e-5
-1.448, 1.857e-5
-1.449, 1.859e-5
-1.450, 1.861e-5
-1.451, 1.864e-5
-1.452, 1.866e-5
-1.453, 1.868e-5
-1.454, 1.870e-5
-1.455, 1.873e-5
-1.456, 1.876e-5
-1.457, 1.878e-5
-1.458, 1.880e-5
-1.459, 1.883e-5
-1.460, 1.886e-5
-1.461, 1.889e-5
-1.462, 1.892e-5
-1.463, 1.894e-5
-1.464, 1.897e-5
-1.465, 1.900e-5
-1.466, 1.903e-5
-1.467, 1.906e-5
-1.468, 1.909e-5
-1.469, 1.912e-5
-1.470, 1.916e-5
-1.471, 1.919e-5
-1.472, 1.923e-5
-1.473, 1.926e-5
-1.474, 1.930e-5
-1.475, 1.933e-5
-1.476, 1.937e-5
-1.477, 1.941e-5
-1.478, 1.945e-5
-1.479, 1.948e-5
-1.480, 1.953e-5
-1.481, 1.957e-5
-1.482, 1.961e-5
-1.483, 1.965e-5
-1.484, 1.970e-5
-1.485, 1.975e-5
-1.486, 1.979e-5
-1.487, 1.984e-5
-1.488, 1.988e-5
-1.489, 1.993e-5
-1.490, 1.998e-5
-1.491, 2.003e-5
-1.492, 2.008e-5
-1.493, 2.013e-5
-1.494, 2.019e-5
-1.495, 2.024e-5
-1.496, 2.030e-5
-1.497, 2.036e-5
-1.498, 2.041e-5
-1.499, 2.047e-5
-1.500, 2.053e-5
-1.501, 2.060e-5
-1.502, 2.066e-5
-1.503, 2.072e-5
-1.504, 2.079e-5
-1.505, 2.085e-5
-1.506, 2.092e-5
-1.507, 2.099e-5
-1.508, 2.105e-5
-1.509, 2.112e-5
-1.510, 2.120e-5
-1.511, 2.127e-5
-1.512, 2.135e-5
-1.513, 2.142e-5
-1.514, 2.149e-5
-1.515, 2.158e-5
-1.516, 2.166e-5
-1.517, 2.174e-5
-1.518, 2.182e-5
-1.519, 2.190e-5
-1.520, 2.199e-5
-1.521, 2.208e-5
-1.522, 2.217e-5
-1.523, 2.226e-5
-1.524, 2.235e-5
-1.525, 2.244e-5
-1.526, 2.254e-5
-1.527, 2.264e-5
-1.528, 2.274e-5
-1.529, 2.284e-5
-1.530, 2.294e-5
-1.531, 2.305e-5
-1.532, 2.315e-5
-1.533, 2.326e-5
-1.534, 2.337e-5
-1.535, 2.348e-5
-1.536, 2.360e-5
-1.537, 2.372e-5
-1.538, 2.384e-5
-1.539, 2.396e-5
-1.540, 2.409e-5
-1.541, 2.423e-5
-1.542, 2.435e-5
-1.543, 2.447e-5
-1.544, 2.461e-5
-1.545, 2.474e-5
-1.546, 2.488e-5
-1.547, 2.502e-5
-1.548, 2.515e-5
-1.549, 2.530e-5
-1.550, 2.544e-5
-1.551, 2.559e-5
-1.552, 2.574e-5
-1.553, 2.590e-5
-1.554, 2.604e-5
-1.555, 2.621e-5
-1.556, 2.637e-5
-1.557, 2.654e-5
-1.558, 2.671e-5
-1.559, 2.688e-5
-1.560, 2.706e-5
-1.561, 2.724e-5
-1.562, 2.742e-5
-1.563, 2.759e-5
-1.564, 2.777e-5
-1.565, 2.795e-5
-1.566, 2.814e-5
-1.567, 2.833e-5
-1.568, 2.852e-5
-1.569, 2.872e-5
-1.570, 2.892e-5
-1.571, 2.913e-5
-1.572, 2.933e-5
-1.573, 2.954e-5
-1.574, 2.975e-5
-1.575, 2.996e-5
-1.576, 3.018e-5
-1.577, 3.040e-5
-1.578, 3.063e-5
-1.579, 3.086e-5
-1.580, 3.109e-5
-1.581, 3.133e-5
-1.582, 3.157e-5
-1.583, 3.181e-5
-1.584, 3.206e-5
-1.585, 3.231e-5
-1.586, 3.256e-5
-1.587, 3.282e-5
-1.588, 3.307e-5
-1.589, 3.333e-5
-1.590, 3.359e-5
-1.591, 3.386e-5
-1.592, 3.412e-5
-1.593, 3.439e-5
-1.594, 3.466e-5
-1.595, 3.494e-5
-1.596, 3.522e-5
-1.597, 3.551e-5
-1.598, 3.579e-5
-1.599, 3.607e-5
-1.600, 3.637e-5
-1.601, 3.667e-5
-1.602, 3.697e-5
-1.603, 3.727e-5
-1.604, 3.757e-5
-1.605, 3.788e-5
-1.606, 3.820e-5
-1.607, 3.851e-5
-1.608, 3.883e-5
-1.609, 3.915e-5
-1.610, 3.948e-5
-1.611, 3.982e-5
-1.612, 4.016e-5
-1.613, 4.049e-5
-1.614, 4.083e-5
-1.615, 4.118e-5
-1.616, 4.153e-5
-1.617, 4.188e-5
-1.618, 4.224e-5
-1.619, 4.260e-5
-1.620, 4.297e-5
-1.621, 4.334e-5
-1.622, 4.371e-5
-1.623, 4.407e-5
-1.624, 4.445e-5
-1.625, 4.484e-5
-1.626, 4.523e-5
-1.627, 4.562e-5
-1.628, 4.601e-5
-1.629, 4.641e-5
-1.630, 4.682e-5
-1.631, 4.722e-5
-1.632, 4.764e-5
-1.633, 4.806e-5
-1.634, 4.847e-5
-1.635, 4.891e-5
-1.636, 4.935e-5
-1.637, 4.979e-5
-1.638, 5.022e-5
-1.639, 5.067e-5
-1.640, 5.112e-5
-1.641, 5.158e-5
-1.642, 5.203e-5
-1.643, 5.249e-5
-1.644, 5.295e-5
-1.645, 5.341e-5
-1.646, 5.388e-5
-1.647, 5.436e-5
-1.648, 5.483e-5
-1.649, 5.531e-5
-1.650, 5.580e-5
-1.651, 5.629e-5
-1.652, 5.679e-5
-1.653, 5.728e-5
-1.654, 5.777e-5
-1.655, 5.828e-5
-1.656, 5.880e-5
-1.657, 5.932e-5
-1.658, 5.984e-5
-1.659, 6.037e-5
-1.660, 6.090e-5
-1.661, 6.144e-5
-1.662, 6.198e-5
-1.663, 6.251e-5
-1.664, 6.305e-5
-1.665, 6.361e-5
-1.666, 6.417e-5
-1.667, 6.473e-5
-1.668, 6.529e-5
-1.669, 6.585e-5
-1.670, 6.643e-5
-1.671, 6.701e-5
-1.672, 6.759e-5
-1.673, 6.817e-5
-1.674, 6.875e-5
-1.675, 6.935e-5
-1.676, 6.996e-5
-1.677, 7.056e-5
-1.678, 7.117e-5
-1.679, 7.179e-5
-1.680, 7.240e-5
-1.681, 7.304e-5
-1.682, 7.366e-5
-1.683, 7.429e-5
-1.684, 7.492e-5
-1.685, 7.555e-5
-1.686, 7.621e-5
-1.687, 7.686e-5
-1.688, 7.751e-5
-1.689, 7.816e-5
-1.690, 7.884e-5
-1.691, 7.952e-5
-1.692, 8.020e-5
-1.693, 8.087e-5
-1.694, 8.155e-5
-1.695, 8.224e-5
-1.696, 8.294e-5
-1.697, 8.363e-5
-1.698, 8.434e-5
-1.699, 8.504e-5
-1.700, 8.575e-5
-1.701, 8.647e-5
-1.702, 8.720e-5
-1.703, 8.794e-5
-1.704, 8.866e-5
-1.705, 8.940e-5
-1.706, 9.014e-5
-1.707, 9.089e-5
-1.708, 9.162e-5
-1.709, 9.237e-5
-1.710, 9.314e-5
-1.711, 9.392e-5
-1.712, 9.469e-5
-1.713, 9.547e-5
-1.714, 9.624e-5
-1.715, 9.702e-5
-1.716, 9.781e-5
-1.717, 9.861e-5
-1.718, 9.941e-5
-1.719, 1.002e-4
-1.720, 1.010e-4
-1.721, 1.018e-4
-1.722, 1.026e-4
-1.723, 1.035e-4
-1.724, 1.043e-4
-1.725, 1.051e-4
-1.726, 1.059e-4
-1.727, 1.068e-4
-1.728, 1.076e-4
-1.729, 1.084e-4
-1.730, 1.093e-4
-1.731, 1.102e-4
-1.732, 1.110e-4
-1.733, 1.119e-4
-1.734, 1.128e-4
-1.735, 1.136e-4
-1.736, 1.145e-4
-1.737, 1.154e-4
-1.738, 1.163e-4
-1.739, 1.172e-4
-1.740, 1.180e-4
-1.741, 1.190e-4
-1.742, 1.199e-4
-1.743, 1.208e-4
-1.744, 1.217e-4
-1.745, 1.226e-4
-1.746, 1.235e-4
-1.747, 1.244e-4
-1.748, 1.254e-4
-1.749, 1.263e-4
-1.750, 1.272e-4
-1.751, 1.282e-4
-1.752, 1.291e-4
-1.753, 1.300e-4
-1.754, 1.310e-4
-1.755, 1.319e-4
-1.756, 1.329e-4
-1.757, 1.339e-4
-1.758, 1.348e-4
-1.759, 1.358e-4
-1.760, 1.368e-4
-1.761, 1.378e-4
-1.762, 1.387e-4
-1.763, 1.397e-4
-1.764, 1.407e-4
-1.765, 1.417e-4
-1.766, 1.427e-4
-1.767, 1.437e-4
-1.768, 1.447e-4
-1.769, 1.457e-4
-1.770, 1.467e-4
-1.771, 1.477e-4
-1.772, 1.488e-4
-1.773, 1.498e-4
-1.774, 1.508e-4
-1.775, 1.518e-4
-1.776, 1.529e-4
-1.777, 1.539e-4
-1.778, 1.549e-4
-1.779, 1.560e-4
-1.780, 1.570e-4
-1.781, 1.581e-4
-1.782, 1.591e-4
-1.783, 1.602e-4
-1.784, 1.612e-4
-1.785, 1.623e-4
-1.786, 1.634e-4
-1.787, 1.645e-4
-1.788, 1.655e-4
-1.789, 1.666e-4
-1.790, 1.677e-4
-1.791, 1.688e-4
-1.792, 1.699e-4
-1.793, 1.710e-4
-1.794, 1.721e-4
-1.795, 1.733e-4
-1.796, 1.744e-4
-1.797, 1.756e-4
-1.798, 1.767e-4
-1.799, 1.778e-4
-1.800, 1.790e-4
-1.801, 1.801e-4
-1.802, 1.813e-4
-1.803, 1.825e-4
-1.804, 1.837e-4
-1.805, 1.848e-4
-1.806, 1.860e-4
-1.807, 1.872e-4
-1.808, 1.884e-4
-1.809, 1.896e-4
-1.810, 1.909e-4
-1.811, 1.921e-4
-1.812, 1.933e-4
-1.813, 1.946e-4
-1.814, 1.958e-4
-1.815, 1.969e-4
-1.816, 1.981e-4
-1.817, 1.993e-4
-1.818, 2.006e-4
-1.819, 2.019e-4
-1.820, 2.032e-4
-1.821, 2.045e-4
-1.822, 2.058e-4
-1.823, 2.072e-4
-1.824, 2.085e-4
-1.825, 2.099e-4
-1.826, 2.113e-4
-1.827, 2.127e-4
-1.828, 2.141e-4
-1.829, 2.156e-4
-1.830, 2.171e-4
-1.831, 2.185e-4
-1.832, 2.200e-4
-1.833, 2.215e-4
-1.834, 2.229e-4
-1.835, 2.245e-4
-1.836, 2.261e-4
-1.837, 2.276e-4
-1.838, 2.292e-4
-1.839, 2.308e-4
-1.840, 2.323e-4
-1.841, 2.340e-4
-1.842, 2.357e-4
-1.843, 2.373e-4
-1.844, 2.390e-4
-1.845, 2.407e-4
-1.846, 2.424e-4
-1.847, 2.442e-4
-1.848, 2.460e-4
-1.849, 2.478e-4
-1.850, 2.496e-4
-1.851, 2.515e-4
-1.852, 2.533e-4
-1.853, 2.552e-4
-1.854, 2.571e-4
-1.855, 2.590e-4
-1.856, 2.610e-4
-1.857, 2.631e-4
-1.858, 2.651e-4
-1.859, 2.671e-4
-1.860, 2.692e-4
-1.861, 2.712e-4
-1.862, 2.733e-4
-1.863, 2.755e-4
-1.864, 2.777e-4
-1.865, 2.799e-4
-1.866, 2.822e-4
-1.867, 2.845e-4
-1.868, 2.868e-4
-1.869, 2.893e-4
-1.870, 2.917e-4
-1.871, 2.942e-4
-1.872, 2.967e-4
-1.873, 2.992e-4
-1.874, 3.017e-4
-1.875, 3.043e-4
-1.876, 3.070e-4
-1.877, 3.097e-4
-1.878, 3.124e-4
-1.879, 3.153e-4
-1.880, 3.181e-4
-1.881, 3.211e-4
-1.882, 3.240e-4
-1.883, 3.270e-4
-1.884, 3.301e-4
-1.885, 3.332e-4
-1.886, 3.364e-4
-1.887, 3.395e-4
-1.888, 3.428e-4
-1.889, 3.461e-4
-1.890, 3.494e-4
-1.891, 3.528e-4
-1.892, 3.563e-4
-1.893, 3.597e-4
-1.894, 3.633e-4
-1.895, 3.670e-4
-1.896, 3.706e-4
-1.897, 3.744e-4
-1.898, 3.782e-4
-1.899, 3.820e-4
-1.900, 3.858e-4
-1.901, 3.898e-4
-1.902, 3.938e-4
-1.903, 3.979e-4
-1.904, 4.020e-4
-1.905, 4.062e-4
-1.906, 4.105e-4
-1.907, 4.149e-4
-1.908, 4.193e-4
-1.909, 4.236e-4
-1.910, 4.281e-4
-1.911, 4.327e-4
-1.912, 4.373e-4
-1.913, 4.420e-4
-1.914, 4.467e-4
-1.915, 4.515e-4
-1.916, 4.563e-4
-1.917, 4.611e-4
-1.918, 4.661e-4
-1.919, 4.710e-4
-1.920, 4.760e-4
-1.921, 4.811e-4
-1.922, 4.863e-4
-1.923, 4.914e-4
-1.924, 4.965e-4
-1.925, 5.017e-4
-1.926, 5.070e-4
-1.927, 5.124e-4
-1.928, 5.177e-4
-1.929, 5.231e-4
-1.930, 5.285e-4
-1.931, 5.339e-4
-1.932, 5.394e-4
-1.933, 5.450e-4
-1.934, 5.506e-4
-1.935, 5.563e-4
-1.936, 5.617e-4
-1.937, 5.670e-4
-1.938, 5.726e-4
-1.939, 5.782e-4
-1.940, 5.837e-4
-1.941, 5.894e-4
-1.942, 5.953e-4
-1.943, 6.011e-4
-1.944, 6.070e-4
-1.945, 6.129e-4
-1.946, 6.189e-4
-1.947, 6.248e-4
-1.948, 6.309e-4
-1.949, 6.369e-4
-1.950, 6.428e-4
-1.951, 6.488e-4
-1.952, 6.547e-4
-1.953, 6.608e-4
-1.954, 6.667e-4
-1.955, 6.728e-4
-1.956, 6.790e-4
-1.957, 6.853e-4
-1.958, 6.916e-4
-1.959, 6.979e-4
-1.960, 7.043e-4
-1.961, 7.107e-4
-1.962, 7.171e-4
-1.963, 7.237e-4
-1.964, 7.301e-4
-1.965, 7.364e-4
-1.966, 7.426e-4
-1.967, 7.490e-4
-1.968, 7.555e-4
-1.969, 7.622e-4
-1.970, 7.687e-4
-1.971, 7.754e-4
-1.972, 7.821e-4
-1.973, 7.889e-4
-1.974, 7.959e-4
-1.975, 8.029e-4
-1.976, 8.099e-4
-1.977, 8.168e-4
-1.978, 8.237e-4
-1.979, 8.306e-4
-1.980, 8.375e-4
-1.981, 8.443e-4
-1.982, 8.511e-4
-1.983, 8.581e-4
-1.984, 8.647e-4
-1.985, 8.713e-4
-1.986, 8.781e-4
-1.987, 8.850e-4
-1.988, 8.919e-4
-1.989, 8.989e-4
-1.990, 9.060e-4
-1.991, 9.133e-4
-1.992, 9.206e-4
-1.993, 9.277e-4
-1.994, 9.349e-4
-1.995, 9.422e-4
-1.996, 9.496e-4
-1.997, 9.571e-4
-1.998, 9.644e-4
-1.999, 9.719e-4
-2.000, 9.792e-4
-2.001, 9.866e-4
-2.002, 9.940e-4
-2.003, 1.001e-3
-2.004, 1.009e-3
-2.005, 1.011e-3
-2.006, 1.011e-3
-2.007, 1.011e-3
-2.008, 1.011e-3
-2.009, 1.011e-3
-2.010, 1.011e-3
-2.011, 1.011e-3
-2.012, 1.011e-3
-2.013, 1.011e-3
-2.014, 1.011e-3
-2.015, 1.011e-3
-2.016, 1.011e-3
-2.017, 1.011e-3
-2.018, 1.011e-3
-2.019, 1.011e-3
-2.020, 1.011e-3
-2.021, 1.011e-3
-2.022, 1.011e-3
-2.023, 1.011e-3
-2.024, 1.011e-3
-2.025, 1.011e-3
-2.026, 1.011e-3
-2.027, 1.011e-3
-2.028, 1.011e-3
-2.029, 1.011e-3
-2.030, 1.011e-3
-2.031, 1.011e-3
-2.032, 1.011e-3
-2.033, 1.011e-3
-2.034, 1.011e-3
-2.035, 1.011e-3
-2.036, 1.011e-3
-2.037, 1.011e-3
-2.038, 1.011e-3
-2.039, 1.011e-3
-2.040, 1.011e-3
-2.041, 1.011e-3
-2.042, 1.011e-3
-2.043, 1.011e-3
-2.044, 1.011e-3
-2.045, 1.011e-3
-2.046, 1.011e-3
-2.047, 1.011e-3
-2.048, 1.011e-3
-2.049, 1.011e-3
-2.050, 1.011e-3
-2.051, 1.011e-3
-2.052, 1.011e-3
-2.053, 1.011e-3
-2.054, 1.011e-3
-2.055, 1.011e-3
-2.056, 1.011e-3
-2.057, 1.011e-3
-2.058, 1.011e-3
-2.059, 1.011e-3
-2.060, 1.011e-3
-2.061, 1.011e-3
-2.062, 1.011e-3
-2.063, 1.011e-3
-2.064, 1.011e-3
-2.065, 1.011e-3
-2.066, 1.011e-3
-2.067, 1.011e-3
-2.068, 1.011e-3
-2.069, 1.011e-3
-2.070, 1.011e-3
-2.071, 1.011e-3
-2.072, 1.011e-3
-2.073, 1.011e-3
-2.074, 1.011e-3
-2.075, 1.011e-3
-2.076, 1.011e-3
-2.077, 1.011e-3
-2.078, 1.011e-3
-2.079, 1.011e-3
-2.080, 1.011e-3
-2.081, 1.011e-3
-2.082, 1.011e-3
-2.083, 1.011e-3
-2.084, 1.011e-3
-2.085, 1.011e-3
-2.086, 1.011e-3
-2.087, 1.011e-3
-2.088, 1.011e-3
-2.089, 1.011e-3
-2.090, 1.011e-3
-2.091, 1.011e-3
-2.092, 1.011e-3
-2.093, 1.011e-3
-2.094, 1.011e-3
-2.095, 1.011e-3
-2.096, 1.011e-3
-2.097, 1.011e-3
-2.098, 1.011e-3
-2.099, 1.011e-3
-2.100, 1.011e-3
-2.101, 1.011e-3
-2.102, 1.011e-3
-2.103, 1.011e-3
-2.104, 1.011e-3
-2.105, 1.011e-3
-2.106, 1.011e-3
-2.107, 1.011e-3
-2.108, 1.011e-3
-2.109, 1.011e-3
-2.110, 1.011e-3
-2.111, 1.011e-3
-2.112, 1.011e-3
-2.113, 1.011e-3
-2.114, 1.011e-3
-2.115, 1.011e-3
-2.116, 1.011e-3
-2.117, 1.011e-3
-2.118, 1.011e-3
-2.119, 1.011e-3
-2.120, 1.011e-3
-2.121, 1.011e-3
-2.122, 1.011e-3
-2.123, 1.011e-3
-2.124, 1.011e-3
-2.125, 1.011e-3
-2.126, 1.011e-3
-2.127, 1.011e-3
-2.128, 1.011e-3
-2.129, 1.011e-3
-2.130, 1.011e-3
-2.131, 1.011e-3
-2.132, 1.011e-3
-2.133, 1.011e-3
-2.134, 1.011e-3
-2.135, 1.011e-3
-2.136, 1.011e-3
-2.137, 1.011e-3
-2.138, 1.011e-3
-2.139, 1.011e-3
-2.140, 1.011e-3
-2.141, 1.011e-3
-2.142, 1.011e-3
-2.143, 1.011e-3
-2.144, 1.011e-3
-2.145, 1.011e-3
-2.146, 1.011e-3
-2.147, 1.011e-3
-2.148, 1.011e-3
-2.149, 1.011e-3
-2.150, 1.011e-3
-2.151, 1.011e-3
-2.152, 1.011e-3
-2.153, 1.011e-3
-2.154, 1.011e-3
-2.155, 1.011e-3
-2.156, 1.011e-3
-2.157, 1.011e-3
-2.158, 1.011e-3
-2.159, 1.011e-3
-2.160, 1.011e-3
-2.161, 1.011e-3
-2.162, 1.011e-3
-2.163, 1.011e-3
-2.164, 1.011e-3
-2.165, 1.011e-3
-2.166, 1.011e-3
-2.167, 1.011e-3
-2.168, 1.011e-3
-2.169, 1.011e-3
-2.170, 1.011e-3
-2.171, 1.011e-3
-2.172, 1.011e-3
-2.173, 1.011e-3
-2.174, 1.011e-3
-2.175, 1.011e-3
-2.176, 1.011e-3
-2.177, 1.011e-3
-2.178, 1.011e-3
-2.179, 1.011e-3
-2.180, 1.011e-3
-2.181, 1.011e-3
-2.182, 1.011e-3
-2.183, 1.011e-3
-2.184, 1.011e-3
-2.185, 1.011e-3
-2.186, 1.011e-3
-2.187, 1.011e-3
-2.188, 1.011e-3
-2.189, 1.011e-3
-2.190, 1.011e-3
-2.191, 1.011e-3
-2.192, 1.011e-3
-2.193, 1.011e-3
-2.194, 1.011e-3
-2.195, 1.011e-3
-2.196, 1.011e-3
-2.197, 1.011e-3
-2.198, 1.011e-3
-2.199, 1.011e-3
-2.200, 1.011e-3
-2.201, 1.011e-3
-2.202, 1.011e-3
-2.203, 1.011e-3
-2.204, 1.011e-3
-2.205, 1.011e-3
-2.206, 1.011e-3
-2.207, 1.011e-3
-2.208, 1.011e-3
-2.209, 1.011e-3
-2.210, 1.011e-3
-2.211, 1.011e-3
-2.212, 1.011e-3
-2.213, 1.011e-3
-2.214, 1.011e-3
-2.215, 1.011e-3
-2.216, 1.011e-3
-2.217, 1.011e-3
-2.218, 1.011e-3
-2.219, 1.011e-3
-2.220, 1.011e-3
-2.221, 1.011e-3
-2.222, 1.011e-3
-2.223, 1.011e-3
-2.224, 1.011e-3
-2.225, 1.011e-3
-2.226, 1.011e-3
-2.227, 1.011e-3
-2.228, 1.011e-3
-2.229, 1.011e-3
-2.230, 1.011e-3
-2.231, 1.011e-3
-2.232, 1.011e-3
-2.233, 1.011e-3
-2.234, 1.011e-3
-2.235, 1.011e-3
-2.236, 1.011e-3
-2.237, 1.011e-3
-2.238, 1.011e-3
-2.239, 1.011e-3
-2.240, 1.011e-3
-2.241, 1.011e-3
-2.242, 1.011e-3
-2.243, 1.011e-3
-2.244, 1.011e-3
-2.245, 1.011e-3
-2.246, 1.011e-3
-2.247, 1.011e-3
-2.248, 1.011e-3
-2.249, 1.011e-3
-2.250, 1.011e-3
-2.251, 1.011e-3
-2.252, 1.011e-3
-2.253, 1.011e-3
-2.254, 1.011e-3
-2.255, 1.011e-3
-2.256, 1.011e-3
-2.257, 1.011e-3
-2.258, 1.011e-3
-2.259, 1.011e-3
-2.260, 1.011e-3
-2.261, 1.011e-3
-2.262, 1.011e-3
-2.263, 1.011e-3
-2.264, 1.011e-3
-2.265, 1.011e-3
-2.266, 1.011e-3
-2.267, 1.011e-3
-2.268, 1.011e-3
-2.269, 1.011e-3
-2.270, 1.011e-3
-2.271, 1.011e-3
-2.272, 1.011e-3
-2.273, 1.011e-3
-2.274, 1.011e-3
-2.275, 1.011e-3
-2.276, 1.011e-3
-2.277, 1.011e-3
-2.278, 1.011e-3
-2.279, 1.011e-3
-2.280, 1.011e-3
-2.281, 1.011e-3
-2.282, 1.011e-3
-2.283, 1.011e-3
-2.284, 1.011e-3
-2.285, 1.011e-3
-2.286, 1.011e-3
-2.287, 1.011e-3
-2.288, 1.011e-3
-2.289, 1.011e-3
-2.290, 1.011e-3
-2.291, 1.011e-3
-2.292, 1.011e-3
-2.293, 1.011e-3
-2.294, 1.011e-3
-2.295, 1.011e-3
-2.296, 1.011e-3
-2.297, 1.011e-3
-2.298, 1.011e-3
-2.299, 1.011e-3
