Potential V vs RHE, Current mA cm-2
0.05339999999999995,-0.04897730520132757
0.05239999999999995,-0.050476899179184506
0.051399999999999946,-0.05128328462010758
0.050399999999999945,-0.05187746336605089
0.049399999999999944,-0.05240090654700096
0.04839999999999994,-0.05286776127595642
0.04739999999999994,-0.05330632177891458
0.04639999999999994,-0.05375902939487139
0.04539999999999994,-0.05421173701082821
0.04439999999999994,-0.05466444462678501
0.04339999999999994,-0.05510300512974318
0.04239999999999994,-0.05549912429370539
0.04139999999999994,-0.0558952434576676
0.040399999999999936,-0.056291362621629815
0.039399999999999935,-0.056744070237586625
0.038399999999999934,-0.05715433651454749
0.03739999999999993,-0.05753630856551105
0.03639999999999993,-0.05793242772947325
0.03539999999999993,-0.05834269400643411
0.03439999999999993,-0.058767107396393625
0.03339999999999993,-0.059149079447357186
0.03239999999999993,-0.05954519861131939
0.03139999999999993,-0.0599130235492843
0.030399999999999927,-0.06032328982624517
0.029399999999999926,-0.06073355610320603
0.028399999999999925,-0.06115796949316554
0.027399999999999924,-0.06152579443113045
0.026399999999999924,-0.06196435493408861
0.025399999999999923,-0.06237462121104946
0.024399999999999922,-0.06278488748801032
0.02339999999999992,-0.06322344799096849
0.02239999999999992,-0.0636195671549307
0.02139999999999992,-0.0640439805448902
0.020399999999999918,-0.06449668816084701
0.019399999999999917,-0.06489280732480923
0.018399999999999916,-0.06531722071476874
0.017399999999999916,-0.06571333987873097
0.016399999999999915,-0.06615190038168911
0.015399999999999914,-0.06660460799764592
0.014399999999999913,-0.06701487427460678
0.013399999999999912,-0.06745343477756495
0.012399999999999911,-0.06787784816752446
0.01139999999999991,-0.06828811444448532
0.01039999999999991,-0.06872667494744349
0.009399999999999908,-0.06913694122440435
0.008399999999999908,-0.06960379595335982
0.007399999999999907,-0.07004235645631796
0.006399999999999906,-0.07046676984627748
0.005399999999999905,-0.07090533034923564
0.004399999999999904,-0.0713438908521938
0.003399999999999903,-0.07176830424215332
0.002399999999999902,-0.07220686474511147
0.0013999999999999013,-0.07263127813507098
0.00039999999999990044,-0.0730556915250305
-0.0006000000000001005,-0.07352254625398597
-0.0016000000000001013,-0.07394695964394547
-0.0026000000000001022,-0.07437137303390498
-0.003600000000000103,-0.07482408064986179
-0.004600000000000104,-0.07524849403982131
-0.005600000000000105,-0.07572949588177541
-0.006600000000000106,-0.07618220349773222
-0.007600000000000107,-0.0765924697746931
-0.008600000000000108,-0.07703103027765125
-0.009600000000000108,-0.07746959078060942
-0.01060000000000011,-0.07792229839656621
-0.01160000000000011,-0.07840330023852032
-0.012600000000000111,-0.07884186074147849
-0.013600000000000112,-0.07928042124443666
-0.014600000000000113,-0.07971898174739482
-0.015600000000000114,-0.08014339513735433
-0.016600000000000115,-0.0806102498663098
-0.017600000000000116,-0.08104881036926795
-0.018600000000000116,-0.08150151798522477
-0.019600000000000117,-0.08198251982717887
-0.020600000000000118,-0.08242108033013704
-0.02160000000000012,-0.08287378794609385
-0.02260000000000012,-0.0832840542230547
-0.02360000000000012,-0.08369432050001557
-0.024600000000000122,-0.08413288100297373
-0.025600000000000123,-0.0845714415059319
-0.026600000000000124,-0.08502414912188871
-0.027600000000000124,-0.08544856251184822
-0.028600000000000125,-0.08588712301480637
-0.029600000000000126,-0.08633983063076318
-0.030600000000000127,-0.08679253824672
-0.03160000000000013,-0.08721695163667952
-0.03260000000000013,-0.08762721791364038
-0.03360000000000013,-0.08803748419060124
-0.03460000000000002,-0.08844775046756209
-0.03560000000000002,-0.0889004580835189
-0.03660000000000002,-0.08932487147347841
-0.03760000000000002,-0.08976343197643659
-0.03860000000000002,-0.09018784536639608
-0.039600000000000024,-0.09062640586935425
-0.040600000000000025,-0.09105081925931376
-0.041600000000000026,-0.09146108553627462
-0.04260000000000003,-0.09185720470023684
-0.04360000000000003,-0.09229576520319499
-0.04460000000000003,-0.09272017859315451
-0.04560000000000003,-0.09313044487011536
-0.04660000000000003,-0.09355485826007487
-0.04760000000000003,-0.09393683031103843
-0.04860000000000003,-0.0943753908139966
-0.04960000000000003,-0.09481395131695476
-0.050600000000000034,-0.09522421759391562
-0.051600000000000035,-0.09562033675787783
-0.052600000000000036,-0.09598816169584275
-0.053600000000000037,-0.09637013374680631
-0.05460000000000004,-0.09675210579776986
-0.05560000000000004,-0.09713407784873342
-0.05660000000000004,-0.09751604989969698
-0.05760000000000004,-0.0978838748376619
-0.05860000000000004,-0.0982516997756268
-0.05960000000000004,-0.09860537760059306
-0.06060000000000004,-0.09897320253855796
-0.061600000000000044,-0.09935517458952153
-0.06260000000000004,-0.09969470530148912
-0.06360000000000005,-0.10004838312645539
-0.06460000000000005,-0.10040206095142165
-0.06560000000000005,-0.10075573877638791
-0.06660000000000005,-0.10110941660135417
-0.06760000000000005,-0.10143480020032314
-0.06860000000000005,-0.10174603668629344
-0.06960000000000005,-0.1020714202852624
-0.07060000000000005,-0.10241095099723
-0.07160000000000005,-0.10270804037020166
-0.07260000000000005,-0.10299098263017467
-0.07360000000000005,-0.10330221911614497
-0.07460000000000006,-0.10359930848911664
-0.07560000000000006,-0.10391054497508695
-0.07660000000000006,-0.10419348723505996
-0.07760000000000006,-0.10446228238203431
-0.07860000000000006,-0.1047452246420073
-0.07960000000000006,-0.10499987267598301
-0.08060000000000006,-0.10532525627495198
-0.08160000000000006,-0.10557990430892769
-0.08260000000000006,-0.10582040522990475
-0.08360000000000006,-0.10607505326388045
-0.08460000000000006,-0.10628725995886021
-0.08560000000000006,-0.10655605510583457
-0.08660000000000007,-0.10678240891381298
-0.08760000000000007,-0.10699461560879273
-0.08860000000000007,-0.10723511652976979
-0.08960000000000007,-0.10746147033774818
-0.09060000000000007,-0.10767367703272793
-0.09160000000000007,-0.10790003084070635
-0.09260000000000007,-0.1080556490836915
-0.09360000000000007,-0.10825370866567262
-0.09460000000000007,-0.10845176824765372
-0.09560000000000007,-0.10863568071663617
-0.09660000000000007,-0.10883374029861728
-0.09760000000000008,-0.10897521142860378
-0.09860000000000008,-0.10915912389758622
-0.09960000000000008,-0.1093147421405714
-0.10060000000000008,-0.10944206615755923
-0.10160000000000008,-0.10962597862654169
-0.10260000000000008,-0.10992306799951335
-0.10360000000000008,-0.1100503920165012
-0.10460000000000008,-0.1101352746944931
-0.10560000000000008,-0.11022015737248501
-0.10660000000000008,-0.11031918716347557
-0.10760000000000008,-0.11036162850247151
-0.10860000000000009,-0.11046065829346206
-0.10960000000000009,-0.11055968808445263
-0.11060000000000009,-0.1106162765364472
-0.11160000000000009,-0.11072945344043642
-0.11260000000000009,-0.11077189477943236
-0.11360000000000009,-0.11082848323142698
-0.11460000000000009,-0.11092751302241752
-0.11560000000000009,-0.11099824858741078
-0.11660000000000009,-0.11104068992640674
-0.1176000000000001,-0.11105483703940537
-0.1186000000000001,-0.11111142549139998
-0.1196000000000001,-0.11113971971739729
-0.1206000000000001,-0.11116801394339458
-0.1216000000000001,-0.11119630816939187
-0.1226000000000001,-0.11118216105639324
-0.1236000000000001,-0.11119630816939187
-0.1246000000000001,-0.11121045528239053
-0.1256000000000001,-0.11122460239538919
-0.1266000000000001,-0.11121045528239053
-0.1276000000000001,-0.11116801394339458
-0.1286000000000001,-0.11116801394339458
-0.1296000000000001,-0.11115386683039592
-0.1306000000000001,-0.11113971971739729
-0.1316000000000001,-0.11111142549139998
-0.1326000000000001,-0.11105483703940537
-0.1336000000000001,-0.11104068992640674
-0.1346000000000001,-0.11096995436141348
-0.1356000000000001,-0.11092751302241752
-0.1366000000000001,-0.11087092457042293
-0.1376000000000001,-0.11081433611842831
-0.1386000000000001,-0.11075774766643375
-0.1396000000000001,-0.11070115921443913
-0.1406000000000001,-0.11063042364944586
-0.14160000000000011,-0.11055968808445263
-0.14260000000000012,-0.11046065829346206
-0.14360000000000012,-0.11037577561547016
-0.14460000000000012,-0.11030504005047691
-0.14560000000000012,-0.11022015737248501
-0.14660000000000012,-0.11014942180749175
-0.14760000000000012,-0.1100503920165012
-0.14860000000000012,-0.109937215112512
-0.14960000000000012,-0.10985233243452008
-0.15060000000000012,-0.1097391555305309
-0.15160000000000012,-0.10962597862654169
-0.15260000000000012,-0.10951280172255247
-0.15360000000000013,-0.10939962481856329
-0.15460000000000013,-0.10928644791457408
-0.15560000000000013,-0.1091732710105849
-0.15660000000000013,-0.10904594699359701
-0.15760000000000013,-0.10890447586361052
-0.15860000000000013,-0.10879129895962131
-0.15960000000000002,-0.10864982782963481
-0.16060000000000002,-0.10852250381264696
-0.16160000000000002,-0.10838103268266046
-0.16260000000000002,-0.1082254144396753
-0.16360000000000002,-0.1080839433096888
-0.16460000000000002,-0.1079990606316969
-0.16560000000000002,-0.10795661929270095
-0.16660000000000003,-0.10787173661470904
-0.16760000000000003,-0.10767367703272793
-0.16860000000000003,-0.10748976456374548
-0.16960000000000003,-0.10730585209476304
-0.17060000000000003,-0.10715023385177787
-0.17160000000000003,-0.10699461560879273
-0.17260000000000003,-0.10679655602681161
-0.17360000000000003,-0.10666923200982377
-0.17460000000000003,-0.10649946665383996
-0.17560000000000003,-0.10634384841085481
-0.17660000000000003,-0.10618823016786964
-0.17760000000000004,-0.10601846481188584
-0.17860000000000004,-0.1058628465689007
-0.17960000000000004,-0.10570722832591554
-0.18060000000000004,-0.10553746296993173
-0.18160000000000004,-0.10536769761394793
-0.18260000000000004,-0.10518378514496549
-0.18360000000000004,-0.10502816690198033
-0.18460000000000004,-0.10484425443299787
-0.18560000000000004,-0.10470278330301136
-0.18660000000000004,-0.10451887083402892
-0.18760000000000004,-0.10436325259104375
-0.18860000000000005,-0.1041793401220613
-0.18960000000000005,-0.1040378689920748
-0.19060000000000005,-0.10388225074908965
-0.19160000000000005,-0.10371248539310583
-0.19260000000000005,-0.10354272003712203
-0.19360000000000005,-0.10335880756813957
-0.19460000000000005,-0.10320318932515443
-0.19560000000000005,-0.10304757108216928
-0.19660000000000005,-0.10289195283918412
-0.19760000000000005,-0.10270804037020166
-0.19860000000000005,-0.10256656924021516
-0.19960000000000006,-0.10239680388423136
-0.20060000000000006,-0.10225533275424485
-0.20160000000000006,-0.10208556739826105
-0.20260000000000006,-0.1019016549292786
-0.20360000000000006,-0.10173188957329479
-0.20460000000000006,-0.10156212421731098
-0.20560000000000006,-0.10140650597432584
-0.20660000000000006,-0.10122259350534336
-0.20760000000000006,-0.10105282814935958
-0.20860000000000006,-0.10091135701937308
-0.20960000000000006,-0.10072744455039061
-0.21060000000000006,-0.10057182630740545
-0.21160000000000007,-0.10043035517741895
-0.21260000000000007,-0.1002464427084365
-0.21360000000000007,-0.10010497157845
-0.21460000000000007,-0.09992105910946754
-0.21560000000000007,-0.09973714664048508
-0.21660000000000007,-0.09965226396249319
-0.21760000000000007,-0.09946835149351073
-0.21860000000000007,-0.09931273325052556
-0.21960000000000007,-0.09917126212053906
-0.22060000000000007,-0.09898734965155662
-0.22160000000000007,-0.09886002563456876
-0.22260000000000008,-0.09869026027858496
-0.22360000000000008,-0.09852049492260115
-0.22460000000000008,-0.098364876679616
-0.22560000000000008,-0.09820925843663084
-0.22660000000000008,-0.09803949308064704
-0.22760000000000008,-0.0978838748376619
-0.22860000000000008,-0.0977424037076754
-0.22960000000000008,-0.09760093257768888
-0.23060000000000008,-0.09745946144770237
-0.23160000000000008,-0.09731799031771587
-0.23260000000000008,-0.09714822496173206
-0.23360000000000009,-0.09699260671874692
-0.2346000000000001,-0.09686528270175906
-0.2356000000000001,-0.09672381157177255
-0.2366000000000001,-0.0965964875547847
-0.2376000000000001,-0.09641257508580224
-0.2386000000000001,-0.09627110395581574
-0.2396000000000001,-0.09612963282582924
-0.2406000000000001,-0.09601645592184005
-0.2416000000000001,-0.0958608376788549
-0.2426000000000001,-0.09570521943586972
-0.2436000000000001,-0.09559204253188053
-0.2446000000000001,-0.09540813006289808
-0.2456000000000001,-0.09529495315890889
-0.2466000000000001,-0.09516762914192102
-0.2476000000000001,-0.0949978637859372
-0.2486000000000001,-0.09488468688194801
-0.2496000000000001,-0.09472906863896285
-0.2506000000000001,-0.09461589173497365
-0.2516000000000001,-0.0944885677179858
-0.2526000000000001,-0.09431880236200199
-0.2536000000000001,-0.0942056254580128
-0.2546000000000001,-0.09407830144102494
-0.2556000000000001,-0.09395097742403709
-0.2566000000000001,-0.09382365340704923
-0.2576000000000001,-0.09366803516406408
-0.2586000000000001,-0.09354071114707624
-0.2596000000000001,-0.09342753424308703
-0.2606000000000001,-0.09330021022609918
-0.2616000000000001,-0.09318703332210997
-0.2626000000000001,-0.09303141507912481
-0.2636000000000001,-0.09293238528813427
-0.2646000000000001,-0.09281920838414506
-0.2656000000000001,-0.09269188436715721
-0.2666000000000001,-0.09257870746316801
-0.2676000000000001,-0.0924372363331815
-0.2686000000000001,-0.09230991231619365
-0.2696000000000001,-0.09221088252520308
-0.2706000000000001,-0.09208355850821524
-0.2716000000000001,-0.09197038160422603
-0.2726000000000001,-0.09185720470023684
-0.2736000000000001,-0.09172988068324898
-0.2746000000000001,-0.09161670377925978
-0.2756000000000001,-0.09151767398826924
-0.2766000000000001,-0.09140449708428001
-0.2776000000000001,-0.09130546729328948
-0.2786000000000001,-0.09117814327630162
-0.2796000000000001,-0.09107911348531106
-0.2806000000000001,-0.09099423080731917
-0.28160000000000013,-0.09088105390332996
-0.28260000000000013,-0.09075372988634212
-0.28360000000000013,-0.0906405529823529
-0.2846,-0.09051322896536505
-0.2856,-0.09042834628737315
-0.2866,-0.0903293164963826
-0.2876,-0.0902161395923934
-0.2886,-0.09013125691440148
-0.2896,-0.09001808001041228
-0.2906,-0.08993319733242039
-0.2916,-0.08983416754142984
-0.2926,-0.08970684352444197
-0.2936,-0.08963610795944872
-0.29460000000000003,-0.08955122528145683
-0.29560000000000003,-0.08945219549046628
-0.29660000000000003,-0.08935316569947571
-0.29760000000000003,-0.08925413590848516
-0.29860000000000003,-0.08914095900449596
-0.29960000000000003,-0.0890419292135054
-0.30060000000000003,-0.08897119364851215
-0.30160000000000003,-0.08887216385752161
-0.30260000000000004,-0.0887589869535324
-0.30360000000000004,-0.0886741042755405
-0.30460000000000004,-0.0885892215975486
-0.30560000000000004,-0.08849019180655805
-0.30660000000000004,-0.0884194562415648
-0.30760000000000004,-0.08833457356357288
-0.30860000000000004,-0.08823554377258234
-0.30960000000000004,-0.08816480820758908
-0.31060000000000004,-0.08810821975559449
-0.31160000000000004,-0.08802333707760258
-0.31260000000000004,-0.08792430728661203
-0.31360000000000005,-0.08786771883461743
-0.31460000000000005,-0.08778283615662552
-0.31560000000000005,-0.08774039481762959
-0.31660000000000005,-0.08764136502663902
-0.31760000000000005,-0.08754233523564847
-0.31860000000000005,-0.08747159967065522
-0.31960000000000005,-0.08742915833165928
-0.32060000000000005,-0.08735842276666603
-0.32160000000000005,-0.0872735400886741
-0.32260000000000005,-0.08718865741068221
-0.32360000000000005,-0.08713206895868761
-0.32460000000000006,-0.08706133339369435
-0.32560000000000006,-0.08700474494169977
-0.32660000000000006,-0.0869340093767065
-0.32760000000000006,-0.0868491266987146
-0.32860000000000006,-0.08680668535971865
-0.32960000000000006,-0.08675009690772406
-0.33060000000000006,-0.0866793613427308
-0.33160000000000006,-0.08660862577773754
-0.33260000000000006,-0.08655203732574294
-0.33360000000000006,-0.08649544887374834
-0.33460000000000006,-0.08643886042175375
-0.33560000000000006,-0.0863681248567605
-0.33660000000000007,-0.08633983063076318
-0.33760000000000007,-0.08625494795277128
-0.33860000000000007,-0.08619835950077669
-0.33960000000000007,-0.08615591816178074
-0.34060000000000007,-0.08609932970978613
-0.34160000000000007,-0.08604274125779153
-0.34260000000000007,-0.08598615280579694
-0.34360000000000007,-0.08592956435380232
-0.3446000000000001,-0.08591541724080368
-0.3456000000000001,-0.08587297590180773
-0.3466000000000001,-0.08581638744981313
-0.34759999999999996,-0.08577394611081718
-0.3486000000000001,-0.08573150477182122
-0.34959999999999997,-0.08567491631982663
-0.3506000000000001,-0.08566076920682797
-0.35159999999999997,-0.08563247498083068
-0.3526000000000001,-0.08557588652883606
-0.35359999999999997,-0.08553344518984012
-0.3546000000000001,-0.08550515096384281
-0.35559999999999997,-0.08547685673784551
-0.3566000000000001,-0.08544856251184822
-0.3576,-0.0854202682858509
-0.3586000000000001,-0.08540612117285226
-0.3596,-0.08537782694685496
-0.3606000000000001,-0.08536367983385632
-0.3616,-0.08532123849486037
-0.3626000000000001,-0.08529294426886307
-0.3636,-0.08532123849486037
-0.3646000000000001,-0.08529294426886307
-0.3656,-0.08529294426886307
-0.3666000000000001,-0.08527879715586441
-0.3676,-0.08523635581686846
-0.3686000000000001,-0.08525050292986712
-0.3696,-0.08523635581686846
-0.3706000000000001,-0.08526465004286575
-0.3716,-0.08525050292986712
-0.3726000000000001,-0.08525050292986712
-0.3736,-0.08525050292986712
-0.3746000000000001,-0.08522220870386982
-0.3756,-0.08523635581686846
-0.3766000000000001,-0.08525050292986712
-0.3776,-0.08522220870386982
-0.3786000000000001,-0.08523635581686846
-0.3796,-0.08525050292986712
-0.3806000000000001,-0.08526465004286575
-0.3816,-0.08529294426886307
-0.3826000000000001,-0.08530709138186171
-0.3836,-0.08533538560785901
-0.3846000000000001,-0.08537782694685496
-0.3856,-0.0854202682858509
-0.3866000000000001,-0.08544856251184822
-0.3876,-0.08546270962484687
-0.3886000000000001,-0.08549100385084417
-0.3896,-0.08553344518984012
-0.3906000000000001,-0.08559003364183472
-0.3916,-0.08561832786783201
-0.3926000000000001,-0.08564662209382931
-0.3936,-0.08570321054582393
-0.3946000000000001,-0.08573150477182122
-0.3956,-0.08581638744981313
-0.3966000000000001,-0.08587297590180773
-0.3976,-0.08590127012780503
-0.3986000000000001,-0.08597200569279828
-0.3996,-0.08601444703179424
-0.4006000000000001,-0.08608518259678749
-0.4016,-0.08617006527477938
-0.4026000000000001,-0.08622665372677399
-0.4036,-0.08631153640476588
-0.4046000000000001,-0.0863681248567605
-0.4056,-0.08645300753475238
-0.40660000000000013,-0.08653789021274429
-0.4076,-0.08660862577773754
-0.40860000000000013,-0.0867076555687281
-0.4096,-0.08680668535971865
-0.41060000000000013,-0.08691986226370785
-0.4116,-0.0870188920546984
-0.41260000000000013,-0.08706133339369435
-0.4136,-0.08716036318468491
-0.41460000000000014,-0.08725939297567546
-0.4156,-0.08735842276666603
-0.41660000000000014,-0.08747159967065522
-0.4176,-0.08754233523564847
-0.41860000000000014,-0.08764136502663902
-0.41960000000000003,-0.08774039481762959
-0.42060000000000014,-0.08786771883461743
-0.42160000000000003,-0.08799504285160528
-0.42260000000000014,-0.08810821975559449
-0.42360000000000003,-0.08822139665958369
-0.42460000000000014,-0.08833457356357288
-0.42560000000000003,-0.08846189758056075
-0.42660000000000015,-0.0885892215975486
-0.42760000000000004,-0.0887023985015378
-0.42860000000000015,-0.08882972251852565
-0.42960000000000004,-0.08897119364851215
-0.43060000000000015,-0.08911266477849866
-0.43160000000000004,-0.08925413590848516
-0.43260000000000015,-0.08939560703847166
-0.43360000000000004,-0.08955122528145683
-0.43460000000000015,-0.08969269641144333
-0.43560000000000004,-0.08984831465442847
-0.43660000000000015,-0.08998978578441498
