Potential V vs RHE, Current mA cm-2
0.013299999999999867,0.028916698969241348
0.012299999999999978,-0.018249775768258973
0.011299999999999866,-0.04268183991692816
0.010299999999999976,-0.060408172504237065
0.009299999999999864,-0.07575779010777271
0.008299999999999974,-0.08832042645057424
0.007299999999999862,-0.0997654408664824
0.006299999999999972,-0.10897521142860378
0.00529999999999986,-0.11763324458377779
0.0042999999999999705,-0.12531512694204497
0.0032999999999998586,-0.13466636863415282
0.0022999999999999687,-0.14316878354634172
0.0012999999999998568,-0.14854468648582883
0.00029999999999996696,-0.15575971411514053
-0.000700000000000145,-0.1626917994844792
-0.0017000000000000348,-0.17103859615368294
-0.0027000000000001467,-0.17471684553333205
-0.0037000000000000366,-0.17980980621284617
-0.0047000000000001485,-0.1851857091523333
-0.005700000000000038,-0.19112749661176645
-0.00670000000000015,-0.1965033995512536
-0.00770000000000004,-0.20343548492059227
-0.008700000000000152,-0.20513313848043033
-0.009700000000000042,-0.21036757028993097
-0.010700000000000154,-0.21843142469916169
-0.011700000000000044,-0.2235243853786758
-0.012700000000000156,-0.22833440379821693
-0.013700000000000045,-0.2293247017081224
-0.014700000000000157,-0.23399324899767707
-0.015700000000000047,-0.2386617962872317
-0.01670000000000016,-0.24417917035670533
-0.01770000000000005,-0.24842330425630044
-0.01870000000000016,-0.24997948668615194
-0.01970000000000005,-0.25394067832577405
-0.020700000000000163,-0.2567701009255041
-0.021700000000000053,-0.2591751101352747
-0.022700000000000164,-0.2651168975947079
-0.023700000000000054,-0.26681455115454594
-0.024700000000000166,-0.269643973754276
-0.025700000000000056,-0.2736051653938981
-0.026700000000000168,-0.2764345879936282
-0.027700000000000058,-0.27926401059335826
-0.02870000000000017,-0.2809616641531963
-0.02970000000000006,-0.2839325578829129
-0.03070000000000017,-0.28605462483271044
-0.03170000000000006,-0.28761080726256194
-0.03270000000000017,-0.29072317212226506
-0.03370000000000006,-0.2921378834221301
-0.034700000000000175,-0.2921378834221301
-0.035700000000000065,-0.2949673060218601
-0.03670000000000018,-0.2973723152316307
-0.03770000000000007,-0.2999187955713878
-0.03870000000000018,-0.29977732444140126
-0.03970000000000007,-0.3016164491312258
-0.04070000000000018,-0.30105056461127977
-0.04170000000000007,-0.3058605830308209
-0.04270000000000018,-0.30571911190083445
-0.04370000000000007,-0.30543616964086145
-0.044700000000000184,-0.3055776407708479
-0.045700000000000074,-0.30727529433068596
-0.046700000000000186,-0.31052913032037555
-0.047700000000000076,-0.30854853450056446
-0.04870000000000019,-0.310104716930416
-0.04970000000000008,-0.31052913032037555
-0.05070000000000019,-0.3125097261401866
-0.05170000000000008,-0.31293413953014615
-0.05270000000000019,-0.31548061986990317
-0.05370000000000008,-0.31123648597030806
-0.05470000000000019,-0.3130756106601326
-0.05570000000000008,-0.31434885083001113
-0.056700000000000195,-0.31477326421997065
-0.057700000000000085,-0.3159050332598627
-0.058700000000000196,-0.3136414951800786
-0.059700000000000086,-0.3136414951800786
-0.0607000000000002,-0.3146317930899841
-0.06170000000000009,-0.31604650438984916
-0.0627000000000002,-0.3156220909998897
-0.06370000000000009,-0.3168953311697682
-0.0647000000000002,-0.3144903219599976
-0.06570000000000009,-0.3177441579496872
-0.0667000000000002,-0.3156220909998897
-0.0677000000000001,-0.3171782734297412
-0.0687000000000002,-0.3177441579496872
-0.0697000000000001,-0.31519767760993017
-0.07070000000000021,-0.3161879755198357
-0.0717000000000001,-0.3170368022997547
-0.07270000000000021,-0.3171782734297412
-0.0737000000000001,-0.3178856290796737
-0.07470000000000021,-0.3173197445597277
-0.0757000000000001,-0.3170368022997547
-0.07670000000000021,-0.3191588692495523
-0.0777000000000001,-0.31802710020966024
-0.07870000000000021,-0.3173197445597277
-0.0797000000000001,-0.3174612156897142
-0.08070000000000022,-0.3176026868197007
-0.0817000000000001,-0.31972475376949827
-0.08270000000000022,-0.31831004246963324
-0.08370000000000011,-0.3177441579496872
-0.08470000000000022,-0.31802710020966024
-0.08570000000000011,-0.3184515135996197
-0.08670000000000022,-0.3184515135996197
-0.08770000000000011,-0.3188759269895793
-0.08870000000000022,-0.3191588692495523
-0.08970000000000011,-0.3204321094194308
-0.09070000000000022,-0.3181685713396467
-0.09170000000000011,-0.32014916715945774
-0.09270000000000023,-0.32128093619934983
-0.09370000000000012,-0.3204321094194308
-0.09470000000000023,-0.31958328263951175
-0.09570000000000012,-0.3205735805494173
-0.09670000000000023,-0.32269564749921487
-0.09770000000000012,-0.3215638784593228
-0.09870000000000023,-0.3211394650693633
-0.09970000000000012,-0.3211394650693633
-0.10070000000000023,-0.3234030031491474
-0.10170000000000012,-0.3231200608891744
-0.10270000000000024,-0.3253835989689584
-0.10370000000000013,-0.32354447427913385
-0.10470000000000024,-0.3236859454091204
-0.10570000000000013,-0.32425182992906637
-0.10670000000000024,-0.3248177144490124
-0.10770000000000013,-0.326656839138837
-0.10870000000000024,-0.32552507009894494
-0.10970000000000013,-0.326656839138837
-0.11070000000000024,-0.3253835989689584
-0.11170000000000013,-0.32849596382866153
-0.11270000000000002,-0.329203319478594
-0.11370000000000013,-0.33075950190844555
-0.11470000000000002,-0.3306180307784591
-0.11570000000000014,-0.33019361738849956
-0.11670000000000003,-0.3323156843382971
-0.11770000000000014,-0.33302303998822963
-0.11870000000000003,-0.3323156843382971
-0.11970000000000014,-0.33316451111821616
-0.12070000000000003,-0.3347206935480677
-0.12170000000000014,-0.33585246258795975
-0.12270000000000003,-0.33670128936787874
-0.12370000000000014,-0.3359939337179463
-0.12470000000000003,-0.3362768759779193
-0.12570000000000014,-0.33839894292771683
-0.12670000000000003,-0.3395307119676088
-0.12770000000000015,-0.3425016056973254
-0.12870000000000004,-0.33981365422758186
-0.12970000000000015,-0.3420771923073659
-0.13070000000000004,-0.34434073038714996
-0.13170000000000015,-0.3427845479572984
-0.13270000000000004,-0.347453095246853
-0.13370000000000015,-0.34391631699719044
-0.13470000000000004,-0.34717015298688
-0.13570000000000015,-0.3497166333266371
-0.13670000000000004,-0.3497166333266371
-0.13770000000000016,-0.3536778249662592
-0.13870000000000005,-0.35212164253640765
-0.13970000000000016,-0.35268752705635364
-0.14070000000000005,-0.3572146032159218
-0.14170000000000016,-0.35636577643600276
-0.14270000000000005,-0.3597610835556788
-0.14370000000000016,-0.35636577643600276
-0.14470000000000005,-0.3591951990357328
-0.14570000000000016,-0.36075138146558433
-0.14670000000000005,-0.3620246216354629
-0.14770000000000016,-0.36414668858526045
-0.14870000000000005,-0.36358080406531446
-0.14970000000000017,-0.36329786180534146
-0.15070000000000006,-0.365985813275085
-0.15170000000000017,-0.36796640909489603
-0.15270000000000006,-0.3703714183046666
-0.15370000000000017,-0.36994700491470706
-0.15470000000000006,-0.37051288943465316
-0.15570000000000017,-0.3734837831643697
-0.15670000000000006,-0.37390819655432916
-0.15770000000000017,-0.37687909028404576
-0.15870000000000006,-0.37786938819395127
-0.15970000000000018,-0.3775864459339783
-0.16070000000000007,-0.38140616644361386
-0.16170000000000018,-0.38480147356329
-0.16270000000000007,-0.384518531303317
-0.16370000000000018,-0.38607471373316854
-0.16470000000000007,-0.3884797229429391
-0.16570000000000018,-0.38961149198283107
-0.16670000000000007,-0.39314827023249366
-0.16770000000000018,-0.3945629815323587
-0.16870000000000007,-0.3951288660523047
-0.16970000000000018,-0.3956947505722508
-0.17070000000000007,-0.3976753463920618
-0.17170000000000019,-0.40036329786180536
-0.17270000000000008,-0.40361713385149495
-0.1737000000000002,-0.404465960631414
-0.17470000000000008,-0.404748902891387
-0.1757000000000002,-0.40687096984118454
-0.17670000000000008,-0.40970039244091466
-0.1777000000000002,-0.41323717069057725
-0.17870000000000008,-0.41352011295055024
-0.1797000000000002,-0.41380305521052324
-0.18070000000000008,-0.41776424685014535
-0.1817000000000002,-0.42031072718990237
-0.18270000000000008,-0.42144249622979446
-0.1837000000000002,-0.42441338995951106
-0.1847000000000001,-0.4237060343095785
-0.1857000000000002,-0.42865752385910616
-0.1867000000000001,-0.42922340837905215
-0.1877000000000002,-0.4327601866287147
-0.1887000000000001,-0.4344578401885528
-0.1897000000000002,-0.43601402261840433
-0.1907000000000001,-0.4375702050482558
-0.1917000000000001,-0.44195581007783746
-0.19269999999999998,-0.44322905024771597
-0.1937000000000001,-0.4459170017174596
-0.19469999999999998,-0.44549258832750005
-0.1957000000000001,-0.45086849126698714
-0.19669999999999999,-0.4544052695166497
-0.1977000000000001,-0.4563858653364608
-0.1987,-0.45963970132615045
-0.1997000000000001,-0.45879087454623135
-0.2007,-0.462044710535921
-0.2017000000000001,-0.46685472895546215
-0.2027,-0.4686938536452867
-0.2037000000000001,-0.4723721030249357
-0.2047,-0.47421122771476026
-0.2057000000000001,-0.4760503524045848
-0.2067,-0.47972860178423393
-0.2077000000000001,-0.4826994955139505
-0.2087,-0.4846800913337616
-0.2097000000000001,-0.4900559942732487
-0.2107,-0.49090482105316774
-0.2117000000000001,-0.4943001281728438
-0.2127,-0.5002419156322769
-0.2137000000000001,-0.5015151558021554
-0.2147,-0.5060422319617235
-0.2157000000000001,-0.5118425482911703
-0.2167,-0.5142475575009409
-0.21770000000000012,-0.5177843357506035
-0.2187,-0.519623460440428
-0.21970000000000012,-0.5224528830401581
-0.2207,-0.5271214303297127
-0.22170000000000012,-0.5312240930993213
-0.2227,-0.5339120445690649
-0.22370000000000012,-0.5370244094287681
-0.2247,-0.539570889768525
-0.22570000000000012,-0.5432491391481741
-0.2267,-0.5477762153077422
-0.22770000000000012,-0.5524447625972969
-0.22870000000000001,-0.556688896496892
-0.22970000000000013,-0.558952434576676
-0.23070000000000002,-0.5639039241262036
-0.23170000000000013,-0.5687139425457448
-0.23270000000000002,-0.5725336630553803
-0.23370000000000013,-0.5753630856551104
-0.23470000000000002,-0.5798901618146786
-0.23570000000000013,-0.5856904781441251
-0.23670000000000002,-0.5886613718738418
-0.2376999999999999,-0.5937543325533559
-0.23870000000000002,-0.5988472932328701
-0.2396999999999999,-0.6023840714825326
-0.24070000000000003,-0.6087502723319252
-0.24169999999999991,-0.6132773484914934
-0.24270000000000003,-0.6179458957810481
-0.24369999999999992,-0.6224729719406161
-0.24470000000000003,-0.6264341635802383
-0.24569999999999992,-0.6320930087796983
-0.24670000000000003,-0.63930803640901
-0.24769999999999992,-0.6451083527384567
-0.24870000000000003,-0.6496354288980248
-0.24969999999999992,-0.6534551494076605
-0.25070000000000003,-0.659821350257053
-0.2516999999999999,-0.6646313686765942
-0.25270000000000004,-0.673261107605771
-0.2536999999999999,-0.6792028950652041
-0.25470000000000004,-0.6842958557447183
-0.2556999999999999,-0.6900961720741648
-0.25670000000000004,-0.6967453151835306
-0.25769999999999993,-0.7053750541127073
-0.25870000000000004,-0.7094777168823159
-0.25969999999999993,-0.7151365620817761
-0.26070000000000004,-0.7247565989208583
-0.26169999999999993,-0.7304154441203184
-0.26270000000000004,-0.7383378273995627
-0.26369999999999993,-0.7456943261588609
-0.26470000000000005,-0.751070229098348
-0.26569999999999994,-0.7595584968975382
-0.26670000000000005,-0.7677638224367553
-0.26769999999999994,-0.7786570994457161
-0.26870000000000005,-0.7860135982050144
-0.26969999999999994,-0.791813914534461
-0.27070000000000005,-0.8021413070234757
-0.27169999999999994,-0.8120442861225311
-0.27270000000000005,-0.8199666694017753
-0.27369999999999994,-0.8278890526810195
-0.27470000000000006,-0.8375090895201018
-0.27569999999999995,-0.8452900016693595
-0.27670000000000006,-0.8561832786783202
-0.27769999999999995,-0.864247133087551
-0.27870000000000006,-0.8766965925263633
-0.27969999999999995,-0.88532633145554
-0.28070000000000006,-0.8963610795944873
-0.28169999999999995,-0.907254356603448
-0.28270000000000006,-0.9174402779624763
-0.28369999999999995,-0.9288994394913831
-0.28470000000000006,-0.9399341876303302
-0.28569999999999995,-0.9509689357692777
-0.28670000000000007,-0.9644086931179956
-0.28769999999999996,-0.9754434412569427
-0.28870000000000007,-0.9884587852157011
-0.28969999999999996,-0.9997764756146215
-0.29070000000000007,-1.0132162329633392
-0.29169999999999996,-1.0266559903120571
-0.29270000000000007,-1.0405201610507344
-0.29369999999999996,-1.0538184472694658
-0.2947000000000001,-1.068107031398103
-0.29569999999999996,-1.0806979619669015
-0.2967000000000001,-1.0975330264352956
-0.29769999999999996,-1.1123874950838784
-0.2987000000000001,-1.1271004926024746
-0.29969999999999997,-1.140398778821206
-0.3007000000000001,-1.1579411989395323
-0.30169999999999997,-1.1747762634079266
-0.3027000000000001,-1.1921772123962666
-0.30369999999999997,-1.2081634500847414
-0.3047000000000001,-1.2230179187333243
-0.30569999999999997,-1.2411262233715967
-0.3067000000000001,-1.2600833547897883
-0.3077,-1.2780501882980742
-0.3087000000000001,-1.2970073197162655
-0.3097,-1.3134179707947
-0.3107000000000001,-1.3323751022128916
-0.3117,-1.3533128294508943
-0.3127000000000001,-1.3731187876490045
-0.3137,-1.3939150437570205
-0.3147000000000001,-1.4124477617852527
-0.3157,-1.4345172580631471
-0.3167000000000001,-1.4557379275611226
-0.3177,-1.4783733083589634
-0.3187000000000001,-1.501008689156804
-0.3197,-1.5208146473549145
-0.3207000000000001,-1.543450028152755
-0.3217,-1.5703295428501907
-0.3227000000000001,-1.5915502123481662
-0.3237,-1.6156003044458718
-0.3247000000000001,-1.6396503965435776
-0.3257,-1.6622857773414181
-0.3267000000000001,-1.690580003338719
-0.3277,-1.7146300954364246
-0.3287000000000001,-1.7415096101338603
-0.3297,-1.766974413531431
-0.3307000000000001,-1.7938539282288664
-0.3317,-1.822148154226167
-0.3327000000000001,-1.850442380223468
-0.3337,-1.8759071836210386
-0.3347000000000001,-1.9056161209182045
-0.3357,-1.9324956356156402
-0.3367000000000001,-1.9622045729128061
-0.3377,-1.993328221509837
-0.3387000000000001,-2.020207736207272
-0.3397,-2.052746096104168
-0.3407000000000001,-2.082455033401334
-0.3417,-2.1121639706984996
-0.3427000000000001,-2.1461170418952604
-0.3437,-2.178655401792157
-0.3447000000000001,-2.208364339089322
-0.3457,-2.2409026989862184
-0.3467000000000001,-2.2748557701829792
-0.3477,-2.307394130079875
-0.3487000000000001,-2.3413472012766356
-0.3497,-2.3738855611735317
-0.3507000000000001,-2.4092533436701573
-0.3517,-2.4446211261667834
-0.3527000000000001,-2.4799889086634095
-0.3537,-2.5139419798601703
-0.3547000000000001,-2.549309762356796
-0.3557,-2.584677544853422
-0.35670000000000013,-2.6228747499497778
-0.3577,-2.659657243746269
-0.35870000000000013,-2.69643973754276
-0.3597,-2.734636942639116
-0.36070000000000013,-2.770004725135742
-0.3617,-2.8096166415319628
-0.3626999999999999,-2.8478138466283185
-0.3637,-2.8845963404248094
-0.3646999999999999,-2.922793545521166
-0.3657,-2.9609907506175217
-0.3666999999999999,-3.002017378313608
-0.3677,-3.041629294709829
-0.3686999999999999,-3.082655922405915
-0.36970000000000003,-3.122267838802136
-0.3706999999999999,-3.1632944664982214
-0.37170000000000003,-3.204321094194308
-0.3726999999999999,-3.246762433190259
-0.37370000000000003,-3.287789060886346
-0.3746999999999999,-3.328815688582431
-0.37570000000000003,-3.371257027578382
-0.3766999999999999,-3.412283655274469
-0.37770000000000004,-3.4575544168701495
-0.3786999999999999,-3.4985810445662353
-0.37970000000000004,-3.542437094862052
-0.3806999999999999,-3.5848784338580026
-0.38170000000000004,-3.630149195453684
-0.38269999999999993,-3.67683466834923
-0.38370000000000004,-3.7206907186450464
-0.38469999999999993,-3.764546768940863
-0.38570000000000004,-3.811232241836409
-0.38669999999999993,-3.8565030034320897
-0.38770000000000004,-3.903188476327636
-0.38869999999999993,-3.952703371822913
-0.38970000000000005,-3.9965594221187284
-0.39069999999999994,-4.0446596063141405
-0.39170000000000005,-4.089930367909821
-0.39269999999999994,-4.138030552105232
-0.39370000000000005,-4.1889601589003735
-0.39469999999999994,-4.23564563179592
-0.39570000000000005,-4.286575238591061
-0.39669999999999994,-4.336090134086337
-0.39770000000000005,-4.385605029581614
-0.39869999999999994,-4.436534636376755
-0.39970000000000006,-4.486049531872031
-0.40069999999999995,-4.5369791386671725
-0.40170000000000006,-4.587908745462314
-0.40269999999999995,-4.640253063557321
-0.40370000000000006,-4.694012092952192
-0.40469999999999995,-4.744941699747333
-0.40570000000000006,-4.798700729142205
-0.40669999999999995,-4.851045047237211
-0.40770000000000006,-4.909048210531677
-0.40869999999999995,-4.959977817326819
-0.40970000000000006,-5.015151558021555
-0.41069999999999995,-5.070325298716291
-0.41170000000000007,-5.125499039411029
-0.41269999999999996,-5.18208749140563
-0.41370000000000007,-5.2386759434002315
-0.41469999999999996,-5.293849684094967
-0.41570000000000007,-5.349023424789703
-0.41669999999999996,-5.409856010683901
-0.41770000000000007,-5.467859173978367
-0.41869999999999996,-5.525862337272833
-0.4197000000000001,-5.5838655005673
-0.42069999999999996,-5.644698086461496
-0.4217000000000001,-5.702701249755963
-0.42269999999999996,-5.762119124350295
-0.4237000000000001,-5.8229517102444905
-0.42469999999999997,-5.882369584838822
-0.4257000000000001,-5.944616882032884
-0.42669999999999997,-6.005449467927082
-0.4277000000000001,-6.067696765121143
-0.42869999999999997,-6.132773484914934
-0.4297000000000001,-6.193606070809131
-0.43069999999999997,-6.258682790602922
-0.4317000000000001,-6.320930087796984
-0.4327,-6.387421518890641
-0.4337000000000001,-6.455327661284162
-0.4347,-6.517574958478224
-0.4357000000000001,-6.585481100871745
-0.4367,-6.659046088464728
-0.4377000000000001,-6.7212933856587895
-0.4387,-6.792028950652041
-0.4397000000000001,-6.858520381745699
-0.4407,-6.933500080638546
-0.4417000000000001,-7.001406223032068
-0.4427,-7.070727076725453
-0.4437000000000001,-7.142877353018569
-0.4447,-7.219271763211282
-0.4457000000000001,-7.2928367508042635
-0.4467,-7.36215760449765
-0.4477000000000001,-7.434307880790768
-0.4487,-7.5092875796836145
-0.4497000000000001,-7.5814378559767315
-0.4507,-7.656417554869579
-0.4517000000000001,-7.7328119650622895
-0.4527,-7.809206375255003
-0.4537000000000001,-7.88701549674758
-0.4547,-7.963409906940291
-0.4557000000000001,-8.039804317133003
-0.4567,-8.119028149925446
-0.4577000000000001,-8.198251982717888
-0.4587,-8.276061104210465
-0.4597000000000001,-8.352455514403177
-0.4607,-8.433094058495483
-0.4617000000000001,-8.51090317998806
-0.4627,-8.592956435380232
-0.4637000000000001,-8.672180268172674
-0.4647,-8.754233523564846
-0.4657000000000001,-8.84477504675621
-0.4667,-8.928243013448247
-0.4677000000000001,-9.013125691440148
-0.4687,-9.09800836943205
-0.4697000000000001,-9.184305758723816
-0.4707,-9.270603148015587
-0.4717000000000001,-9.361144671206947
-0.4727,-9.463003884797232
-0.4737000000000001,-9.549301274088998
-0.4747,-9.63701337468063
-0.4757000000000001,-9.726140186572128
-0.4767,-9.81668170976349
-0.4777000000000001,-9.910052655554582
-0.4787,-10.00200889004581
-0.4797000000000001,-10.093965124537037
-0.4807,-10.18733607032813
-0.48170000000000013,-10.283536438718953
-0.4827,-10.379736807109774
-0.48370000000000013,-10.477351886800463
-0.4847,-10.574966966491148
-0.48570000000000013,-10.671167334881972
-0.4867,-10.77444125977212
-0.4876999999999999,-10.874885762062537
-0.4887,-10.97674497565282
-0.4896999999999999,-11.080018900542967
-0.4907,-11.181878114133252
-0.4916999999999999,-11.289396172922991
-0.4927,-11.395499520412871
-0.4936999999999999,-11.504432290502479
-0.49470000000000003,-11.611950349292222
-0.4956999999999999,-11.72088311938183
-0.49670000000000003,-11.836889445970762
-0.4976999999999999,-11.95148106125983
-0.49870000000000003,-12.064657965249033
-0.4996999999999999,-12.182079003137831
-0.5007,-12.298085329726765
