Sept. 18, 2024   16:03:44
Cyclic Voltammetry
File: c:/users/guazh/data/20240903_batch_252_500/2024-09-03-exp389\exp389-2024-09-18t15_34_37-h2koh\exp389_cv_sr_400mvs_efin_-2000mv.bin
Data Source:  Experiment
Instrument Model:  CHI760E
Header: CV ran at 400 mVs
Note: 

Init E (V) = -1
High E (V) = -1
Low E (V) = -2
Final E (V) = -1
Init P/N = N
Scan Rate (V/s) = 0.4
Segment = 3
Sample Interval (V) = 0.001
Quiet Time (sec) = 2
Sensitivity (A/V) = 0.01
Comp R (ohm) = 2.9

Results:

Channel 1:
Segment 1:

Segment 2:

Segment 3:

Potential/V, Current/A

-1.000, -2.927e-6
-1.001, -2.927e-6
-1.002, 1.559e-7
-1.003, 1.559e-7
-1.004, 1.559e-7
-1.005, 1.559e-7
-1.006, 1.559e-7
-1.007, 1.559e-7
-1.008, 1.559e-7
-1.009, 1.559e-7
-1.010, 1.559e-7
-1.011, 1.559e-7
-1.012, 1.559e-7
-1.013, 1.559e-7
-1.014, 1.559e-7
-1.015, 1.559e-7
-1.016, 1.559e-7
-1.017, 1.559e-7
-1.018, 1.559e-7
-1.019, 3.239e-6
-1.020, 3.239e-6
-1.021, 3.239e-6
-1.022, 3.239e-6
-1.023, 3.239e-6
-1.024, 3.239e-6
-1.025, 3.239e-6
-1.026, 1.559e-7
-1.027, 3.239e-6
-1.028, 3.239e-6
-1.029, 3.239e-6
-1.030, 3.239e-6
-1.031, 3.239e-6
-1.032, 3.239e-6
-1.033, 3.239e-6
-1.034, 3.239e-6
-1.035, 3.239e-6
-1.036, 3.239e-6
-1.037, 3.239e-6
-1.038, 3.239e-6
-1.039, 3.239e-6
-1.040, 3.239e-6
-1.041, 3.239e-6
-1.042, 3.239e-6
-1.043, 3.239e-6
-1.044, 3.239e-6
-1.045, 3.239e-6
-1.046, 3.239e-6
-1.047, 3.239e-6
-1.048, 3.239e-6
-1.049, 3.239e-6
-1.050, 3.239e-6
-1.051, 3.239e-6
-1.052, 6.322e-6
-1.053, 3.239e-6
-1.054, 3.239e-6
-1.055, 3.239e-6
-1.056, 6.322e-6
-1.057, 6.322e-6
-1.058, 3.239e-6
-1.059, 6.322e-6
-1.060, 6.322e-6
-1.061, 6.322e-6
-1.062, 6.322e-6
-1.063, 6.322e-6
-1.064, 6.322e-6
-1.065, 6.322e-6
-1.066, 6.322e-6
-1.067, 6.322e-6
-1.068, 6.322e-6
-1.069, 6.322e-6
-1.070, 6.322e-6
-1.071, 6.322e-6
-1.072, 6.322e-6
-1.073, 6.322e-6
-1.074, 6.322e-6
-1.075, 6.322e-6
-1.076, 6.322e-6
-1.077, 6.322e-6
-1.078, 6.322e-6
-1.079, 6.322e-6
-1.080, 6.322e-6
-1.081, 6.322e-6
-1.082, 6.322e-6
-1.083, 6.322e-6
-1.084, 6.322e-6
-1.085, 6.322e-6
-1.086, 6.322e-6
-1.087, 6.322e-6
-1.088, 6.322e-6
-1.089, 9.405e-6
-1.090, 6.322e-6
-1.091, 9.405e-6
-1.092, 9.405e-6
-1.093, 6.322e-6
-1.094, 9.405e-6
-1.095, 6.322e-6
-1.096, 9.405e-6
-1.097, 9.405e-6
-1.098, 9.405e-6
-1.099, 9.405e-6
-1.100, 9.405e-6
-1.101, 6.322e-6
-1.102, 9.405e-6
-1.103, 9.405e-6
-1.104, 9.405e-6
-1.105, 9.405e-6
-1.106, 9.405e-6
-1.107, 6.322e-6
-1.108, 9.405e-6
-1.109, 9.405e-6
-1.110, 9.405e-6
-1.111, 9.405e-6
-1.112, 9.405e-6
-1.113, 9.405e-6
-1.114, 9.405e-6
-1.115, 9.405e-6
-1.116, 9.405e-6
-1.117, 9.405e-6
-1.118, 9.405e-6
-1.119, 9.405e-6
-1.120, 9.405e-6
-1.121, 9.405e-6
-1.122, 9.405e-6
-1.123, 9.405e-6
-1.124, 9.405e-6
-1.125, 9.405e-6
-1.126, 9.405e-6
-1.127, 9.405e-6
-1.128, 9.405e-6
-1.129, 9.405e-6
-1.130, 9.405e-6
-1.131, 9.405e-6
-1.132, 9.405e-6
-1.133, 9.405e-6
-1.134, 9.405e-6
-1.135, 9.405e-6
-1.136, 9.405e-6
-1.137, 9.405e-6
-1.138, 9.405e-6
-1.139, 1.249e-5
-1.140, 9.405e-6
-1.141, 9.405e-6
-1.142, 9.405e-6
-1.143, 1.249e-5
-1.144, 9.405e-6
-1.145, 9.405e-6
-1.146, 1.249e-5
-1.147, 1.249e-5
-1.148, 1.249e-5
-1.149, 1.249e-5
-1.150, 1.249e-5
-1.151, 1.249e-5
-1.152, 1.249e-5
-1.153, 1.249e-5
-1.154, 1.249e-5
-1.155, 1.249e-5
-1.156, 1.249e-5
-1.157, 1.249e-5
-1.158, 1.249e-5
-1.159, 1.249e-5
-1.160, 9.405e-6
-1.161, 1.249e-5
-1.162, 1.249e-5
-1.163, 1.249e-5
-1.164, 1.249e-5
-1.165, 1.249e-5
-1.166, 1.249e-5
-1.167, 1.249e-5
-1.168, 1.249e-5
-1.169, 1.249e-5
-1.170, 1.249e-5
-1.171, 1.249e-5
-1.172, 1.249e-5
-1.173, 1.249e-5
-1.174, 1.249e-5
-1.175, 1.249e-5
-1.176, 1.249e-5
-1.177, 1.249e-5
-1.178, 1.249e-5
-1.179, 1.249e-5
-1.180, 1.249e-5
-1.181, 1.249e-5
-1.182, 1.249e-5
-1.183, 1.249e-5
-1.184, 1.249e-5
-1.185, 1.249e-5
-1.186, 1.249e-5
-1.187, 1.249e-5
-1.188, 1.249e-5
-1.189, 1.249e-5
-1.190, 1.249e-5
-1.191, 1.249e-5
-1.192, 1.249e-5
-1.193, 1.249e-5
-1.194, 1.249e-5
-1.195, 1.249e-5
-1.196, 1.249e-5
-1.197, 1.249e-5
-1.198, 1.557e-5
-1.199, 1.249e-5
-1.200, 1.557e-5
-1.201, 1.557e-5
-1.202, 1.557e-5
-1.203, 1.557e-5
-1.204, 1.557e-5
-1.205, 1.557e-5
-1.206, 1.557e-5
-1.207, 1.249e-5
-1.208, 1.557e-5
-1.209, 1.557e-5
-1.210, 1.557e-5
-1.211, 1.557e-5
-1.212, 1.557e-5
-1.213, 1.557e-5
-1.214, 1.557e-5
-1.215, 1.249e-5
-1.216, 1.557e-5
-1.217, 1.557e-5
-1.218, 1.557e-5
-1.219, 1.557e-5
-1.220, 1.557e-5
-1.221, 1.557e-5
-1.222, 1.557e-5
-1.223, 1.557e-5
-1.224, 1.557e-5
-1.225, 1.557e-5
-1.226, 1.557e-5
-1.227, 1.557e-5
-1.228, 1.557e-5
-1.229, 1.557e-5
-1.230, 1.557e-5
-1.231, 1.557e-5
-1.232, 1.557e-5
-1.233, 1.557e-5
-1.234, 1.557e-5
-1.235, 1.557e-5
-1.236, 1.557e-5
-1.237, 1.557e-5
-1.238, 1.557e-5
-1.239, 1.557e-5
-1.240, 1.557e-5
-1.241, 1.557e-5
-1.242, 1.557e-5
-1.243, 1.557e-5
-1.244, 1.557e-5
-1.245, 1.865e-5
-1.246, 1.865e-5
-1.247, 1.557e-5
-1.248, 1.557e-5
-1.249, 1.557e-5
-1.250, 1.557e-5
-1.251, 1.557e-5
-1.252, 1.557e-5
-1.253, 1.865e-5
-1.254, 1.557e-5
-1.255, 1.865e-5
-1.256, 1.557e-5
-1.257, 1.557e-5
-1.258, 1.865e-5
-1.259, 1.865e-5
-1.260, 1.557e-5
-1.261, 1.865e-5
-1.262, 1.865e-5
-1.263, 1.865e-5
-1.264, 1.865e-5
-1.265, 1.865e-5
-1.266, 1.865e-5
-1.267, 1.865e-5
-1.268, 1.865e-5
-1.269, 1.865e-5
-1.270, 1.865e-5
-1.271, 1.865e-5
-1.272, 1.865e-5
-1.273, 1.865e-5
-1.274, 1.865e-5
-1.275, 1.865e-5
-1.276, 1.865e-5
-1.277, 1.865e-5
-1.278, 1.865e-5
-1.279, 1.865e-5
-1.280, 1.865e-5
-1.281, 1.865e-5
-1.282, 1.865e-5
-1.283, 1.865e-5
-1.284, 1.865e-5
-1.285, 1.865e-5
-1.286, 1.865e-5
-1.287, 1.865e-5
-1.288, 1.865e-5
-1.289, 1.865e-5
-1.290, 1.865e-5
-1.291, 1.865e-5
-1.292, 1.865e-5
-1.293, 1.865e-5
-1.294, 1.865e-5
-1.295, 1.865e-5
-1.296, 1.865e-5
-1.297, 1.865e-5
-1.298, 1.865e-5
-1.299, 2.174e-5
-1.300, 1.865e-5
-1.301, 1.865e-5
-1.302, 1.865e-5
-1.303, 1.865e-5
-1.304, 1.865e-5
-1.305, 1.865e-5
-1.306, 1.865e-5
-1.307, 1.865e-5
-1.308, 1.865e-5
-1.309, 1.865e-5
-1.310, 2.174e-5
-1.311, 1.865e-5
-1.312, 2.174e-5
-1.313, 1.865e-5
-1.314, 2.174e-5
-1.315, 2.174e-5
-1.316, 2.174e-5
-1.317, 2.174e-5
-1.318, 2.174e-5
-1.319, 2.174e-5
-1.320, 2.174e-5
-1.321, 2.174e-5
-1.322, 2.174e-5
-1.323, 2.174e-5
-1.324, 2.174e-5
-1.325, 2.174e-5
-1.326, 2.174e-5
-1.327, 2.174e-5
-1.328, 2.174e-5
-1.329, 2.174e-5
-1.330, 2.174e-5
-1.331, 2.174e-5
-1.332, 2.174e-5
-1.333, 2.174e-5
-1.334, 2.174e-5
-1.335, 2.174e-5
-1.336, 2.174e-5
-1.337, 2.174e-5
-1.338, 2.174e-5
-1.339, 2.174e-5
-1.340, 2.174e-5
-1.341, 2.174e-5
-1.342, 2.174e-5
-1.343, 2.174e-5
-1.344, 2.174e-5
-1.345, 2.174e-5
-1.346, 2.174e-5
-1.347, 2.174e-5
-1.348, 2.174e-5
-1.349, 2.482e-5
-1.350, 2.174e-5
-1.351, 2.174e-5
-1.352, 2.174e-5
-1.353, 2.174e-5
-1.354, 2.482e-5
-1.355, 2.482e-5
-1.356, 2.482e-5
-1.357, 2.482e-5
-1.358, 2.174e-5
-1.359, 2.482e-5
-1.360, 2.482e-5
-1.361, 2.174e-5
-1.362, 2.482e-5
-1.363, 2.482e-5
-1.364, 2.482e-5
-1.365, 2.482e-5
-1.366, 2.482e-5
-1.367, 2.174e-5
-1.368, 2.174e-5
-1.369, 2.482e-5
-1.370, 2.174e-5
-1.371, 2.482e-5
-1.372, 2.482e-5
-1.373, 2.482e-5
-1.374, 2.482e-5
-1.375, 2.482e-5
-1.376, 2.482e-5
-1.377, 2.482e-5
-1.378, 2.482e-5
-1.379, 2.482e-5
-1.380, 2.482e-5
-1.381, 2.482e-5
-1.382, 2.482e-5
-1.383, 2.482e-5
-1.384, 2.482e-5
-1.385, 2.482e-5
-1.386, 2.482e-5
-1.387, 2.482e-5
-1.388, 2.482e-5
-1.389, 2.482e-5
-1.390, 2.482e-5
-1.391, 2.482e-5
-1.392, 2.482e-5
-1.393, 2.482e-5
-1.394, 2.482e-5
-1.395, 2.482e-5
-1.396, 2.482e-5
-1.397, 2.482e-5
-1.398, 2.790e-5
-1.399, 2.482e-5
-1.400, 2.482e-5
-1.401, 2.482e-5
-1.402, 2.790e-5
-1.403, 2.482e-5
-1.404, 2.482e-5
-1.405, 2.482e-5
-1.406, 2.790e-5
-1.407, 2.482e-5
-1.408, 2.790e-5
-1.409, 2.790e-5
-1.410, 2.482e-5
-1.411, 2.790e-5
-1.412, 2.790e-5
-1.413, 2.790e-5
-1.414, 2.790e-5
-1.415, 2.790e-5
-1.416, 2.790e-5
-1.417, 2.790e-5
-1.418, 2.790e-5
-1.419, 2.790e-5
-1.420, 2.790e-5
-1.421, 2.790e-5
-1.422, 2.790e-5
-1.423, 2.790e-5
-1.424, 2.790e-5
-1.425, 2.790e-5
-1.426, 2.790e-5
-1.427, 2.790e-5
-1.428, 2.790e-5
-1.429, 2.790e-5
-1.430, 2.790e-5
-1.431, 2.790e-5
-1.432, 2.790e-5
-1.433, 2.790e-5
-1.434, 2.790e-5
-1.435, 2.790e-5
-1.436, 2.790e-5
-1.437, 2.790e-5
-1.438, 2.790e-5
-1.439, 2.790e-5
-1.440, 2.790e-5
-1.441, 2.790e-5
-1.442, 3.099e-5
-1.443, 2.790e-5
-1.444, 3.099e-5
-1.445, 2.790e-5
-1.446, 3.099e-5
-1.447, 3.099e-5
-1.448, 2.790e-5
-1.449, 3.099e-5
-1.450, 3.099e-5
-1.451, 3.099e-5
-1.452, 3.099e-5
-1.453, 3.099e-5
-1.454, 3.099e-5
-1.455, 3.099e-5
-1.456, 3.099e-5
-1.457, 3.099e-5
-1.458, 3.099e-5
-1.459, 3.099e-5
-1.460, 3.099e-5
-1.461, 3.099e-5
-1.462, 3.099e-5
-1.463, 3.099e-5
-1.464, 3.099e-5
-1.465, 3.099e-5
-1.466, 3.099e-5
-1.467, 3.099e-5
-1.468, 3.099e-5
-1.469, 3.099e-5
-1.470, 3.099e-5
-1.471, 3.407e-5
-1.472, 3.407e-5
-1.473, 3.099e-5
-1.474, 3.099e-5
-1.475, 3.407e-5
-1.476, 3.407e-5
-1.477, 3.099e-5
-1.478, 3.099e-5
-1.479, 3.407e-5
-1.480, 3.407e-5
-1.481, 3.099e-5
-1.482, 3.407e-5
-1.483, 3.099e-5
-1.484, 3.407e-5
-1.485, 3.407e-5
-1.486, 3.407e-5
-1.487, 3.407e-5
-1.488, 3.407e-5
-1.489, 3.407e-5
-1.490, 3.407e-5
-1.491, 3.407e-5
-1.492, 3.407e-5
-1.493, 3.407e-5
-1.494, 3.407e-5
-1.495, 3.407e-5
-1.496, 3.407e-5
-1.497, 3.407e-5
-1.498, 3.407e-5
-1.499, 3.407e-5
-1.500, 3.407e-5
-1.501, 3.407e-5
-1.502, 3.407e-5
-1.503, 3.715e-5
-1.504, 3.407e-5
-1.505, 3.715e-5
-1.506, 3.715e-5
-1.507, 3.715e-5
-1.508, 3.715e-5
-1.509, 3.715e-5
-1.510, 3.715e-5
-1.511, 3.715e-5
-1.512, 3.715e-5
-1.513, 3.715e-5
-1.514, 3.715e-5
-1.515, 3.715e-5
-1.516, 3.715e-5
-1.517, 3.715e-5
-1.518, 3.715e-5
-1.519, 3.715e-5
-1.520, 3.715e-5
-1.521, 3.715e-5
-1.522, 3.715e-5
-1.523, 3.715e-5
-1.524, 4.024e-5
-1.525, 4.024e-5
-1.526, 4.024e-5
-1.527, 4.024e-5
-1.528, 4.024e-5
-1.529, 4.024e-5
-1.530, 4.024e-5
-1.531, 4.024e-5
-1.532, 4.024e-5
-1.533, 4.024e-5
-1.534, 4.024e-5
-1.535, 4.024e-5
-1.536, 4.024e-5
-1.537, 4.024e-5
-1.538, 4.024e-5
-1.539, 4.024e-5
-1.540, 4.024e-5
-1.541, 4.024e-5
-1.542, 4.024e-5
-1.543, 4.024e-5
-1.544, 4.024e-5
-1.545, 4.332e-5
-1.546, 4.024e-5
-1.547, 4.332e-5
-1.548, 4.332e-5
-1.549, 4.024e-5
-1.550, 4.332e-5
-1.551, 4.332e-5
-1.552, 4.332e-5
-1.553, 4.332e-5
-1.554, 4.332e-5
-1.555, 4.332e-5
-1.556, 4.332e-5
-1.557, 4.332e-5
-1.558, 4.332e-5
-1.559, 4.332e-5
-1.560, 4.640e-5
-1.561, 4.332e-5
-1.562, 4.640e-5
-1.563, 4.332e-5
-1.564, 4.640e-5
-1.565, 4.640e-5
-1.566, 4.640e-5
-1.567, 4.640e-5
-1.568, 4.640e-5
-1.569, 4.640e-5
-1.570, 4.640e-5
-1.571, 4.640e-5
-1.572, 4.640e-5
-1.573, 4.640e-5
-1.574, 4.640e-5
-1.575, 4.640e-5
-1.576, 4.949e-5
-1.577, 4.949e-5
-1.578, 4.640e-5
-1.579, 4.949e-5
-1.580, 4.949e-5
-1.581, 4.949e-5
-1.582, 4.949e-5
-1.583, 4.949e-5
-1.584, 4.949e-5
-1.585, 5.257e-5
-1.586, 4.949e-5
-1.587, 4.949e-5
-1.588, 5.257e-5
-1.589, 5.257e-5
-1.590, 5.257e-5
-1.591, 5.257e-5
-1.592, 5.257e-5
-1.593, 5.257e-5
-1.594, 5.257e-5
-1.595, 5.257e-5
-1.596, 5.257e-5
-1.597, 5.257e-5
-1.598, 5.565e-5
-1.599, 5.565e-5
-1.600, 5.565e-5
-1.601, 5.565e-5
-1.602, 5.565e-5
-1.603, 5.565e-5
-1.604, 5.565e-5
-1.605, 5.565e-5
-1.606, 5.565e-5
-1.607, 5.565e-5
-1.608, 5.565e-5
-1.609, 5.565e-5
-1.610, 5.565e-5
-1.611, 5.565e-5
-1.612, 5.873e-5
-1.613, 5.873e-5
-1.614, 5.565e-5
-1.615, 5.873e-5
-1.616, 5.873e-5
-1.617, 5.873e-5
-1.618, 5.873e-5
-1.619, 5.873e-5
-1.620, 5.873e-5
-1.621, 5.873e-5
-1.622, 5.873e-5
-1.623, 5.873e-5
-1.624, 5.873e-5
-1.625, 5.873e-5
-1.626, 5.873e-5
-1.627, 6.182e-5
-1.628, 6.182e-5
-1.629, 6.182e-5
-1.630, 6.182e-5
-1.631, 6.182e-5
-1.632, 6.182e-5
-1.633, 6.182e-5
-1.634, 6.182e-5
-1.635, 6.182e-5
-1.636, 6.182e-5
-1.637, 6.182e-5
-1.638, 6.182e-5
-1.639, 6.182e-5
-1.640, 6.490e-5
-1.641, 6.182e-5
-1.642, 6.490e-5
-1.643, 6.182e-5
-1.644, 6.490e-5
-1.645, 6.490e-5
-1.646, 6.490e-5
-1.647, 6.490e-5
-1.648, 6.490e-5
-1.649, 6.490e-5
-1.650, 6.490e-5
-1.651, 6.490e-5
-1.652, 6.490e-5
-1.653, 6.490e-5
-1.654, 6.490e-5
-1.655, 6.798e-5
-1.656, 6.490e-5
-1.657, 6.490e-5
-1.658, 6.798e-5
-1.659, 6.490e-5
-1.660, 6.490e-5
-1.661, 6.490e-5
-1.662, 6.798e-5
-1.663, 6.798e-5
-1.664, 6.798e-5
-1.665, 6.798e-5
-1.666, 6.798e-5
-1.667, 6.798e-5
-1.668, 6.798e-5
-1.669, 6.798e-5
-1.670, 6.798e-5
-1.671, 6.798e-5
-1.672, 6.798e-5
-1.673, 6.798e-5
-1.674, 6.798e-5
-1.675, 6.798e-5
-1.676, 6.798e-5
-1.677, 6.798e-5
-1.678, 6.798e-5
-1.679, 6.798e-5
-1.680, 7.107e-5
-1.681, 6.798e-5
-1.682, 7.107e-5
-1.683, 7.107e-5
-1.684, 7.107e-5
-1.685, 7.107e-5
-1.686, 7.107e-5
-1.687, 7.107e-5
-1.688, 7.107e-5
-1.689, 7.107e-5
-1.690, 7.107e-5
-1.691, 7.107e-5
-1.692, 7.107e-5
-1.693, 7.107e-5
-1.694, 7.107e-5
-1.695, 7.107e-5
-1.696, 7.107e-5
-1.697, 7.107e-5
-1.698, 7.107e-5
-1.699, 7.415e-5
-1.700, 7.107e-5
-1.701, 7.107e-5
-1.702, 7.415e-5
-1.703, 7.415e-5
-1.704, 7.415e-5
-1.705, 7.415e-5
-1.706, 7.415e-5
-1.707, 7.415e-5
-1.708, 7.415e-5
-1.709, 7.415e-5
-1.710, 7.415e-5
-1.711, 7.415e-5
-1.712, 7.723e-5
-1.713, 7.415e-5
-1.714, 7.415e-5
-1.715, 7.723e-5
-1.716, 7.723e-5
-1.717, 7.723e-5
-1.718, 7.723e-5
-1.719, 7.723e-5
-1.720, 7.723e-5
-1.721, 7.723e-5
-1.722, 7.723e-5
-1.723, 7.723e-5
-1.724, 7.723e-5
-1.725, 8.032e-5
-1.726, 7.723e-5
-1.727, 7.723e-5
-1.728, 8.032e-5
-1.729, 8.032e-5
-1.730, 8.032e-5
-1.731, 8.032e-5
-1.732, 8.032e-5
-1.733, 8.032e-5
-1.734, 8.032e-5
-1.735, 8.032e-5
-1.736, 8.032e-5
-1.737, 8.340e-5
-1.738, 8.032e-5
-1.739, 8.340e-5
-1.740, 8.340e-5
-1.741, 8.340e-5
-1.742, 8.340e-5
-1.743, 8.340e-5
-1.744, 8.648e-5
-1.745, 8.648e-5
-1.746, 8.648e-5
-1.747, 8.648e-5
-1.748, 8.648e-5
-1.749, 8.957e-5
-1.750, 8.957e-5
-1.751, 8.957e-5
-1.752, 8.957e-5
-1.753, 8.957e-5
-1.754, 8.957e-5
-1.755, 8.957e-5
-1.756, 8.957e-5
-1.757, 8.957e-5
-1.758, 9.265e-5
-1.759, 9.265e-5
-1.760, 9.265e-5
-1.761, 9.265e-5
-1.762, 9.265e-5
-1.763, 9.265e-5
-1.764, 9.265e-5
-1.765, 9.573e-5
-1.766, 9.573e-5
-1.767, 9.573e-5
-1.768, 9.573e-5
-1.769, 9.882e-5
-1.770, 9.882e-5
-1.771, 9.882e-5
-1.772, 9.882e-5
-1.773, 9.882e-5
-1.774, 1.019e-4
-1.775, 1.019e-4
-1.776, 1.019e-4
-1.777, 1.019e-4
-1.778, 1.019e-4
-1.779, 1.050e-4
-1.780, 1.050e-4
-1.781, 1.081e-4
-1.782, 1.081e-4
-1.783, 1.081e-4
-1.784, 1.111e-4
-1.785, 1.111e-4
-1.786, 1.111e-4
-1.787, 1.111e-4
-1.788, 1.111e-4
-1.789, 1.142e-4
-1.790, 1.142e-4
-1.791, 1.142e-4
-1.792, 1.173e-4
-1.793, 1.173e-4
-1.794, 1.173e-4
-1.795, 1.204e-4
-1.796, 1.204e-4
-1.797, 1.204e-4
-1.798, 1.235e-4
-1.799, 1.235e-4
-1.800, 1.235e-4
-1.801, 1.266e-4
-1.802, 1.296e-4
-1.803, 1.296e-4
-1.804, 1.296e-4
-1.805, 1.327e-4
-1.806, 1.327e-4
-1.807, 1.358e-4
-1.808, 1.358e-4
-1.809, 1.389e-4
-1.810, 1.389e-4
-1.811, 1.420e-4
-1.812, 1.420e-4
-1.813, 1.451e-4
-1.814, 1.451e-4
-1.815, 1.481e-4
-1.816, 1.481e-4
-1.817, 1.481e-4
-1.818, 1.512e-4
-1.819, 1.543e-4
-1.820, 1.574e-4
-1.821, 1.574e-4
-1.822, 1.574e-4
-1.823, 1.605e-4
-1.824, 1.636e-4
-1.825, 1.636e-4
-1.826, 1.666e-4
-1.827, 1.666e-4
-1.828, 1.697e-4
-1.829, 1.728e-4
-1.830, 1.759e-4
-1.831, 1.759e-4
-1.832, 1.790e-4
-1.833, 1.821e-4
-1.834, 1.851e-4
-1.835, 1.851e-4
-1.836, 1.882e-4
-1.837, 1.913e-4
-1.838, 1.944e-4
-1.839, 1.975e-4
-1.840, 2.006e-4
-1.841, 2.036e-4
-1.842, 2.036e-4
-1.843, 2.098e-4
-1.844, 2.129e-4
-1.845, 2.160e-4
-1.846, 2.191e-4
-1.847, 2.221e-4
-1.848, 2.252e-4
-1.849, 2.283e-4
-1.850, 2.314e-4
-1.851, 2.345e-4
-1.852, 2.376e-4
-1.853, 2.437e-4
-1.854, 2.468e-4
-1.855, 2.499e-4
-1.856, 2.561e-4
-1.857, 2.591e-4
-1.858, 2.622e-4
-1.859, 2.684e-4
-1.860, 2.715e-4
-1.861, 2.776e-4
-1.862, 2.807e-4
-1.863, 2.869e-4
-1.864, 2.900e-4
-1.865, 2.961e-4
-1.866, 3.023e-4
-1.867, 3.085e-4
-1.868, 3.146e-4
-1.869, 3.177e-4
-1.870, 3.239e-4
-1.871, 3.300e-4
-1.872, 3.362e-4
-1.873, 3.424e-4
-1.874, 3.485e-4
-1.875, 3.547e-4
-1.876, 3.609e-4
-1.877, 3.670e-4
-1.878, 3.732e-4
-1.879, 3.794e-4
-1.880, 3.886e-4
-1.881, 3.948e-4
-1.882, 4.010e-4
-1.883, 4.102e-4
-1.884, 4.164e-4
-1.885, 4.256e-4
-1.886, 4.318e-4
-1.887, 4.410e-4
-1.888, 4.472e-4
-1.889, 4.565e-4
-1.890, 4.657e-4
-1.891, 4.750e-4
-1.892, 4.842e-4
-1.893, 4.935e-4
-1.894, 5.027e-4
-1.895, 5.150e-4
-1.896, 5.243e-4
-1.897, 5.335e-4
-1.898, 5.459e-4
-1.899, 5.582e-4
-1.900, 5.674e-4
-1.901, 5.798e-4
-1.902, 5.890e-4
-1.903, 6.014e-4
-1.904, 6.137e-4
-1.905, 6.260e-4
-1.906, 6.384e-4
-1.907, 6.507e-4
-1.908, 6.630e-4
-1.909, 6.754e-4
-1.910, 6.908e-4
-1.911, 7.031e-4
-1.912, 7.154e-4
-1.913, 7.309e-4
-1.914, 7.432e-4
-1.915, 7.586e-4
-1.916, 7.709e-4
-1.917, 7.863e-4
-1.918, 8.018e-4
-1.919, 8.172e-4
-1.920, 8.295e-4
-1.921, 8.480e-4
-1.922, 8.634e-4
-1.923, 8.788e-4
-1.924, 8.943e-4
-1.925, 9.128e-4
-1.926, 9.282e-4
-1.927, 9.467e-4
-1.928, 9.652e-4
-1.929, 9.837e-4
-1.930, 1.002e-3
-1.931, 1.021e-3
-1.932, 1.039e-3
-1.933, 1.061e-3
-1.934, 1.079e-3
-1.935, 1.098e-3
-1.936, 1.119e-3
-1.937, 1.138e-3
-1.938, 1.159e-3
-1.939, 1.178e-3
-1.940, 1.199e-3
-1.941, 1.218e-3
-1.942, 1.236e-3
-1.943, 1.258e-3
-1.944, 1.277e-3
-1.945, 1.298e-3
-1.946, 1.317e-3
-1.947, 1.338e-3
-1.948, 1.357e-3
-1.949, 1.378e-3
-1.950, 1.400e-3
-1.951, 1.421e-3
-1.952, 1.443e-3
-1.953, 1.465e-3
-1.954, 1.486e-3
-1.955, 1.511e-3
-1.956, 1.532e-3
-1.957, 1.557e-3
-1.958, 1.579e-3
-1.959, 1.606e-3
-1.960, 1.628e-3
-1.961, 1.656e-3
-1.962, 1.680e-3
-1.963, 1.705e-3
-1.964, 1.733e-3
-1.965, 1.761e-3
-1.966, 1.788e-3
-1.967, 1.816e-3
-1.968, 1.841e-3
-1.969, 1.872e-3
-1.970, 1.896e-3
-1.971, 1.927e-3
-1.972, 1.955e-3
-1.973, 1.983e-3
-1.974, 2.010e-3
-1.975, 2.038e-3
-1.976, 2.069e-3
-1.977, 2.097e-3
-1.978, 2.128e-3
-1.979, 2.158e-3
-1.980, 2.186e-3
-1.981, 2.217e-3
-1.982, 2.248e-3
-1.983, 2.275e-3
-1.984, 2.306e-3
-1.985, 2.337e-3
-1.986, 2.368e-3
-1.987, 2.399e-3
-1.988, 2.430e-3
-1.989, 2.460e-3
-1.990, 2.494e-3
-1.991, 2.525e-3
-1.992, 2.559e-3
-1.993, 2.587e-3
-1.994, 2.621e-3
-1.995, 2.652e-3
-1.996, 2.686e-3
-1.997, 2.719e-3
-1.998, 2.750e-3
-1.999, 2.784e-3
-2.000, 2.797e-3
-1.999, 2.778e-3
-1.998, 2.753e-3
-1.997, 2.732e-3
-1.996, 2.710e-3
-1.995, 2.686e-3
-1.994, 2.664e-3
-1.993, 2.639e-3
-1.992, 2.615e-3
-1.991, 2.593e-3
-1.990, 2.571e-3
-1.989, 2.547e-3
-1.988, 2.525e-3
-1.987, 2.501e-3
-1.986, 2.476e-3
-1.985, 2.451e-3
-1.984, 2.427e-3
-1.983, 2.402e-3
-1.982, 2.380e-3
-1.981, 2.356e-3
-1.980, 2.334e-3
-1.979, 2.309e-3
-1.978, 2.285e-3
-1.977, 2.260e-3
-1.976, 2.238e-3
-1.975, 2.217e-3
-1.974, 2.195e-3
-1.973, 2.171e-3
-1.972, 2.146e-3
-1.971, 2.124e-3
-1.970, 2.100e-3
-1.969, 2.078e-3
-1.968, 2.054e-3
-1.967, 2.032e-3
-1.966, 2.007e-3
-1.965, 1.986e-3
-1.964, 1.964e-3
-1.963, 1.943e-3
-1.962, 1.921e-3
-1.961, 1.899e-3
-1.960, 1.878e-3
-1.959, 1.853e-3
-1.958, 1.835e-3
-1.957, 1.813e-3
-1.956, 1.791e-3
-1.955, 1.770e-3
-1.954, 1.751e-3
-1.953, 1.730e-3
-1.952, 1.708e-3
-1.951, 1.687e-3
-1.950, 1.668e-3
-1.949, 1.647e-3
-1.948, 1.625e-3
-1.947, 1.606e-3
-1.946, 1.585e-3
-1.945, 1.566e-3
-1.944, 1.548e-3
-1.943, 1.526e-3
-1.942, 1.508e-3
-1.941, 1.489e-3
-1.940, 1.471e-3
-1.939, 1.452e-3
-1.938, 1.434e-3
-1.937, 1.415e-3
-1.936, 1.400e-3
-1.935, 1.378e-3
-1.934, 1.363e-3
-1.933, 1.344e-3
-1.932, 1.326e-3
-1.931, 1.310e-3
-1.930, 1.292e-3
-1.929, 1.273e-3
-1.928, 1.258e-3
-1.927, 1.243e-3
-1.926, 1.224e-3
-1.925, 1.209e-3
-1.924, 1.193e-3
-1.923, 1.178e-3
-1.922, 1.162e-3
-1.921, 1.147e-3
-1.920, 1.129e-3
-1.919, 1.113e-3
-1.918, 1.098e-3
-1.917, 1.082e-3
-1.916, 1.067e-3
-1.915, 1.051e-3
-1.914, 1.036e-3
-1.913, 1.024e-3
-1.912, 1.008e-3
-1.911, 9.929e-4
-1.910, 9.806e-4
-1.909, 9.652e-4
-1.908, 9.528e-4
-1.907, 9.374e-4
-1.906, 9.251e-4
-1.905, 9.128e-4
-1.904, 8.973e-4
-1.903, 8.850e-4
-1.902, 8.727e-4
-1.901, 8.603e-4
-1.900, 8.480e-4
-1.899, 8.357e-4
-1.898, 8.233e-4
-1.897, 8.110e-4
-1.896, 7.987e-4
-1.895, 7.894e-4
-1.894, 7.771e-4
-1.893, 7.648e-4
-1.892, 7.524e-4
-1.891, 7.432e-4
-1.890, 7.309e-4
-1.889, 7.216e-4
-1.888, 7.093e-4
-1.887, 7.000e-4
-1.886, 6.877e-4
-1.885, 6.784e-4
-1.884, 6.692e-4
-1.883, 6.569e-4
-1.882, 6.476e-4
-1.881, 6.384e-4
-1.880, 6.260e-4
-1.879, 6.168e-4
-1.878, 6.075e-4
-1.877, 5.983e-4
-1.876, 5.890e-4
-1.875, 5.829e-4
-1.874, 5.736e-4
-1.873, 5.644e-4
-1.872, 5.551e-4
-1.871, 5.459e-4
-1.870, 5.366e-4
-1.869, 5.274e-4
-1.868, 5.212e-4
-1.867, 5.120e-4
-1.866, 5.027e-4
-1.865, 4.965e-4
-1.864, 4.873e-4
-1.863, 4.811e-4
-1.862, 4.719e-4
-1.861, 4.657e-4
-1.860, 4.595e-4
-1.859, 4.503e-4
-1.858, 4.441e-4
-1.857, 4.380e-4
-1.856, 4.318e-4
-1.855, 4.225e-4
-1.854, 4.164e-4
-1.853, 4.102e-4
-1.852, 4.040e-4
-1.851, 3.979e-4
-1.850, 3.917e-4
-1.849, 3.855e-4
-1.848, 3.794e-4
-1.847, 3.732e-4
-1.846, 3.670e-4
-1.845, 3.609e-4
-1.844, 3.547e-4
-1.843, 3.485e-4
-1.842, 3.455e-4
-1.841, 3.393e-4
-1.840, 3.331e-4
-1.839, 3.270e-4
-1.838, 3.208e-4
-1.837, 3.177e-4
-1.836, 3.115e-4
-1.835, 3.085e-4
-1.834, 3.023e-4
-1.833, 2.961e-4
-1.832, 2.931e-4
-1.831, 2.869e-4
-1.830, 2.838e-4
-1.829, 2.776e-4
-1.828, 2.746e-4
-1.827, 2.684e-4
-1.826, 2.653e-4
-1.825, 2.622e-4
-1.824, 2.561e-4
-1.823, 2.530e-4
-1.822, 2.499e-4
-1.821, 2.468e-4
-1.820, 2.406e-4
-1.819, 2.376e-4
-1.818, 2.345e-4
-1.817, 2.314e-4
-1.816, 2.252e-4
-1.815, 2.252e-4
-1.814, 2.191e-4
-1.813, 2.160e-4
-1.812, 2.129e-4
-1.811, 2.098e-4
-1.810, 2.067e-4
-1.809, 2.006e-4
-1.808, 2.006e-4
-1.807, 1.975e-4
-1.806, 1.944e-4
-1.805, 1.913e-4
-1.804, 1.882e-4
-1.803, 1.851e-4
-1.802, 1.821e-4
-1.801, 1.790e-4
-1.800, 1.759e-4
-1.799, 1.728e-4
-1.798, 1.697e-4
-1.797, 1.666e-4
-1.796, 1.636e-4
-1.795, 1.636e-4
-1.794, 1.605e-4
-1.793, 1.574e-4
-1.792, 1.543e-4
-1.791, 1.512e-4
-1.790, 1.512e-4
-1.789, 1.481e-4
-1.788, 1.451e-4
-1.787, 1.451e-4
-1.786, 1.420e-4
-1.785, 1.389e-4
-1.784, 1.358e-4
-1.783, 1.327e-4
-1.782, 1.327e-4
-1.781, 1.296e-4
-1.780, 1.266e-4
-1.779, 1.266e-4
-1.778, 1.235e-4
-1.777, 1.235e-4
-1.776, 1.204e-4
-1.775, 1.204e-4
-1.774, 1.173e-4
-1.773, 1.142e-4
-1.772, 1.142e-4
-1.771, 1.111e-4
-1.770, 1.111e-4
-1.769, 1.081e-4
-1.768, 1.081e-4
-1.767, 1.050e-4
-1.766, 1.019e-4
-1.765, 1.019e-4
-1.764, 1.019e-4
-1.763, 9.882e-5
-1.762, 9.882e-5
-1.761, 9.573e-5
-1.760, 9.573e-5
-1.759, 9.265e-5
-1.758, 9.265e-5
-1.757, 8.957e-5
-1.756, 8.957e-5
-1.755, 8.957e-5
-1.754, 8.648e-5
-1.753, 8.648e-5
-1.752, 8.340e-5
-1.751, 8.340e-5
-1.750, 8.032e-5
-1.749, 8.032e-5
-1.748, 8.032e-5
-1.747, 7.723e-5
-1.746, 7.723e-5
-1.745, 7.415e-5
-1.744, 7.415e-5
-1.743, 7.415e-5
-1.742, 7.107e-5
-1.741, 7.107e-5
-1.740, 6.798e-5
-1.739, 6.798e-5
-1.738, 6.798e-5
-1.737, 6.798e-5
-1.736, 6.490e-5
-1.735, 6.490e-5
-1.734, 6.490e-5
-1.733, 6.490e-5
-1.732, 6.182e-5
-1.731, 6.182e-5
-1.730, 6.182e-5
-1.729, 5.873e-5
-1.728, 5.873e-5
-1.727, 5.873e-5
-1.726, 5.873e-5
-1.725, 5.565e-5
-1.724, 5.565e-5
-1.723, 5.565e-5
-1.722, 5.565e-5
-1.721, 5.257e-5
-1.720, 5.257e-5
-1.719, 5.257e-5
-1.718, 5.257e-5
-1.717, 4.949e-5
-1.716, 4.949e-5
-1.715, 4.949e-5
-1.714, 4.949e-5
-1.713, 4.640e-5
-1.712, 4.640e-5
-1.711, 4.640e-5
-1.710, 4.640e-5
-1.709, 4.640e-5
-1.708, 4.332e-5
-1.707, 4.332e-5
-1.706, 4.332e-5
-1.705, 4.332e-5
-1.704, 4.332e-5
-1.703, 4.024e-5
-1.702, 4.024e-5
-1.701, 4.024e-5
-1.700, 4.024e-5
-1.699, 4.024e-5
-1.698, 4.024e-5
-1.697, 3.715e-5
-1.696, 3.715e-5
-1.695, 3.715e-5
-1.694, 3.715e-5
-1.693, 3.715e-5
-1.692, 3.715e-5
-1.691, 3.715e-5
-1.690, 3.407e-5
-1.689, 3.407e-5
-1.688, 3.407e-5
-1.687, 3.407e-5
-1.686, 3.407e-5
-1.685, 3.099e-5
-1.684, 3.099e-5
-1.683, 3.099e-5
-1.682, 3.099e-5
-1.681, 3.099e-5
-1.680, 3.099e-5
-1.679, 2.790e-5
-1.678, 3.099e-5
-1.677, 2.790e-5
-1.676, 2.790e-5
-1.675, 2.790e-5
-1.674, 2.790e-5
-1.673, 2.790e-5
-1.672, 2.790e-5
-1.671, 2.790e-5
-1.670, 2.482e-5
-1.669, 2.790e-5
-1.668, 2.482e-5
-1.667, 2.482e-5
-1.666, 2.482e-5
-1.665, 2.482e-5
-1.664, 2.482e-5
-1.663, 2.482e-5
-1.662, 2.174e-5
-1.661, 2.482e-5
-1.660, 2.174e-5
-1.659, 2.174e-5
-1.658, 2.174e-5
-1.657, 2.174e-5
-1.656, 2.174e-5
-1.655, 2.174e-5
-1.654, 2.174e-5
-1.653, 2.174e-5
-1.652, 2.174e-5
-1.651, 2.174e-5
-1.650, 2.174e-5
-1.649, 1.865e-5
-1.648, 2.174e-5
-1.647, 1.865e-5
-1.646, 1.865e-5
-1.645, 1.865e-5
-1.644, 1.865e-5
-1.643, 1.865e-5
-1.642, 1.865e-5
-1.641, 1.865e-5
-1.640, 1.865e-5
-1.639, 1.865e-5
-1.638, 1.557e-5
-1.637, 1.557e-5
-1.636, 1.557e-5
-1.635, 1.557e-5
-1.634, 1.557e-5
-1.633, 1.557e-5
-1.632, 1.557e-5
-1.631, 1.557e-5
-1.630, 1.557e-5
-1.629, 1.557e-5
-1.628, 1.557e-5
-1.627, 1.557e-5
-1.626, 1.557e-5
-1.625, 1.557e-5
-1.624, 1.249e-5
-1.623, 1.557e-5
-1.622, 1.249e-5
-1.621, 1.557e-5
-1.620, 1.249e-5
-1.619, 1.249e-5
-1.618, 1.249e-5
-1.617, 1.249e-5
-1.616, 1.249e-5
-1.615, 1.249e-5
-1.614, 1.249e-5
-1.613, 1.249e-5
-1.612, 1.249e-5
-1.611, 1.249e-5
-1.610, 1.249e-5
-1.609, 9.405e-6
-1.608, 1.249e-5
-1.607, 1.249e-5
-1.606, 9.405e-6
-1.605, 1.249e-5
-1.604, 9.405e-6
-1.603, 9.405e-6
-1.602, 9.405e-6
-1.601, 9.405e-6
-1.600, 9.405e-6
-1.599, 9.405e-6
-1.598, 9.405e-6
-1.597, 9.405e-6
-1.596, 9.405e-6
-1.595, 9.405e-6
-1.594, 9.405e-6
-1.593, 9.405e-6
-1.592, 9.405e-6
-1.591, 9.405e-6
-1.590, 9.405e-6
-1.589, 9.405e-6
-1.588, 9.405e-6
-1.587, 9.405e-6
-1.586, 9.405e-6
-1.585, 9.405e-6
-1.584, 6.322e-6
-1.583, 6.322e-6
-1.582, 6.322e-6
-1.581, 9.405e-6
-1.580, 6.322e-6
-1.579, 6.322e-6
-1.578, 6.322e-6
-1.577, 6.322e-6
-1.576, 6.322e-6
-1.575, 6.322e-6
-1.574, 6.322e-6
-1.573, 6.322e-6
-1.572, 6.322e-6
-1.571, 6.322e-6
-1.570, 6.322e-6
-1.569, 6.322e-6
-1.568, 6.322e-6
-1.567, 6.322e-6
-1.566, 6.322e-6
-1.565, 6.322e-6
-1.564, 6.322e-6
-1.563, 6.322e-6
-1.562, 6.322e-6
-1.561, 6.322e-6
-1.560, 6.322e-6
-1.559, 6.322e-6
-1.558, 6.322e-6
-1.557, 6.322e-6
-1.556, 3.239e-6
-1.555, 3.239e-6
-1.554, 3.239e-6
-1.553, 6.322e-6
-1.552, 3.239e-6
-1.551, 3.239e-6
-1.550, 3.239e-6
-1.549, 3.239e-6
-1.548, 3.239e-6
-1.547, 3.239e-6
-1.546, 3.239e-6
-1.545, 3.239e-6
-1.544, 3.239e-6
-1.543, 3.239e-6
-1.542, 3.239e-6
-1.541, 3.239e-6
-1.540, 3.239e-6
-1.539, 3.239e-6
-1.538, 3.239e-6
-1.537, 3.239e-6
-1.536, 3.239e-6
-1.535, 3.239e-6
-1.534, 3.239e-6
-1.533, 3.239e-6
-1.532, 3.239e-6
-1.531, 3.239e-6
-1.530, 3.239e-6
-1.529, 3.239e-6
-1.528, 3.239e-6
-1.527, 3.239e-6
-1.526, 3.239e-6
-1.525, 3.239e-6
-1.524, 3.239e-6
-1.523, 1.559e-7
-1.522, 3.239e-6
-1.521, 3.239e-6
-1.520, 3.239e-6
-1.519, 1.559e-7
-1.518, 1.559e-7
-1.517, 1.559e-7
-1.516, 1.559e-7
-1.515, 1.559e-7
-1.514, 1.559e-7
-1.513, 1.559e-7
-1.512, 1.559e-7
-1.511, 1.559e-7
-1.510, 1.559e-7
-1.509, 1.559e-7
-1.508, 1.559e-7
-1.507, 1.559e-7
-1.506, 1.559e-7
-1.505, 1.559e-7
-1.504, 1.559e-7
-1.503, 1.559e-7
-1.502, 1.559e-7
-1.501, 1.559e-7
-1.500, 1.559e-7
-1.499, 1.559e-7
-1.498, 1.559e-7
-1.497, 1.559e-7
-1.496, 1.559e-7
-1.495, 1.559e-7
-1.494, 1.559e-7
-1.493, 1.559e-7
-1.492, 1.559e-7
-1.491, 1.559e-7
-1.490, 1.559e-7
-1.489, 1.559e-7
-1.488, 1.559e-7
-1.487, -2.927e-6
-1.486, 1.559e-7
-1.485, 1.559e-7
-1.484, -2.927e-6
-1.483, -2.927e-6
-1.482, -2.927e-6
-1.481, -2.927e-6
-1.480, -2.927e-6
-1.479, -2.927e-6
-1.478, -2.927e-6
-1.477, -2.927e-6
-1.476, -2.927e-6
-1.475, -2.927e-6
-1.474, -2.927e-6
-1.473, -2.927e-6
-1.472, -2.927e-6
-1.471, -2.927e-6
-1.470, -2.927e-6
-1.469, -2.927e-6
-1.468, -2.927e-6
-1.467, -2.927e-6
-1.466, -2.927e-6
-1.465, -2.927e-6
-1.464, -2.927e-6
-1.463, -2.927e-6
-1.462, -2.927e-6
-1.461, -2.927e-6
-1.460, -2.927e-6
-1.459, -2.927e-6
-1.458, -2.927e-6
-1.457, -2.927e-6
-1.456, -2.927e-6
-1.455, -2.927e-6
-1.454, -2.927e-6
-1.453, -2.927e-6
-1.452, -2.927e-6
-1.451, -2.927e-6
-1.450, -2.927e-6
-1.449, -2.927e-6
-1.448, -2.927e-6
-1.447, -2.927e-6
-1.446, -2.927e-6
-1.445, -2.927e-6
-1.444, -2.927e-6
-1.443, -2.927e-6
-1.442, -2.927e-6
-1.441, -2.927e-6
-1.440, -2.927e-6
-1.439, -2.927e-6
-1.438, -2.927e-6
-1.437, -2.927e-6
-1.436, -6.010e-6
-1.435, -2.927e-6
-1.434, -6.010e-6
-1.433, -6.010e-6
-1.432, -2.927e-6
-1.431, -2.927e-6
-1.430, -6.010e-6
-1.429, -2.927e-6
-1.428, -6.010e-6
-1.427, -6.010e-6
-1.426, -6.010e-6
-1.425, -2.927e-6
-1.424, -6.010e-6
-1.423, -6.010e-6
-1.422, -6.010e-6
-1.421, -6.010e-6
-1.420, -6.010e-6
-1.419, -6.010e-6
-1.418, -6.010e-6
-1.417, -6.010e-6
-1.416, -6.010e-6
-1.415, -6.010e-6
-1.414, -6.010e-6
-1.413, -6.010e-6
-1.412, -6.010e-6
-1.411, -6.010e-6
-1.410, -6.010e-6
-1.409, -6.010e-6
-1.408, -6.010e-6
-1.407, -6.010e-6
-1.406, -6.010e-6
-1.405, -6.010e-6
-1.404, -6.010e-6
-1.403, -6.010e-6
-1.402, -6.010e-6
-1.401, -6.010e-6
-1.400, -6.010e-6
-1.399, -6.010e-6
-1.398, -6.010e-6
-1.397, -6.010e-6
-1.396, -6.010e-6
-1.395, -6.010e-6
-1.394, -6.010e-6
-1.393, -6.010e-6
-1.392, -6.010e-6
-1.391, -6.010e-6
-1.390, -6.010e-6
-1.389, -6.010e-6
-1.388, -6.010e-6
-1.387, -6.010e-6
-1.386, -9.093e-6
-1.385, -6.010e-6
-1.384, -6.010e-6
-1.383, -6.010e-6
-1.382, -6.010e-6
-1.381, -6.010e-6
-1.380, -6.010e-6
-1.379, -6.010e-6
-1.378, -6.010e-6
-1.377, -9.093e-6
-1.376, -6.010e-6
-1.375, -9.093e-6
-1.374, -9.093e-6
-1.373, -9.093e-6
-1.372, -9.093e-6
-1.371, -9.093e-6
-1.370, -9.093e-6
-1.369, -9.093e-6
-1.368, -6.010e-6
-1.367, -9.093e-6
-1.366, -9.093e-6
-1.365, -9.093e-6
-1.364, -9.093e-6
-1.363, -9.093e-6
-1.362, -9.093e-6
-1.361, -9.093e-6
-1.360, -9.093e-6
-1.359, -9.093e-6
-1.358, -9.093e-6
-1.357, -9.093e-6
-1.356, -9.093e-6
-1.355, -9.093e-6
-1.354, -9.093e-6
-1.353, -9.093e-6
-1.352, -9.093e-6
-1.351, -9.093e-6
-1.350, -9.093e-6
-1.349, -9.093e-6
-1.348, -9.093e-6
-1.347, -9.093e-6
-1.346, -9.093e-6
-1.345, -9.093e-6
-1.344, -9.093e-6
-1.343, -9.093e-6
-1.342, -9.093e-6
-1.341, -9.093e-6
-1.340, -9.093e-6
-1.339, -9.093e-6
-1.338, -9.093e-6
-1.337, -9.093e-6
-1.336, -9.093e-6
-1.335, -9.093e-6
-1.334, -9.093e-6
-1.333, -9.093e-6
-1.332, -9.093e-6
-1.331, -1.218e-5
-1.330, -1.218e-5
-1.329, -9.093e-6
-1.328, -9.093e-6
-1.327, -1.218e-5
-1.326, -9.093e-6
-1.325, -9.093e-6
-1.324, -9.093e-6
-1.323, -9.093e-6
-1.322, -9.093e-6
-1.321, -1.218e-5
-1.320, -9.093e-6
-1.319, -9.093e-6
-1.318, -1.218e-5
-1.317, -9.093e-6
-1.316, -1.218e-5
-1.315, -9.093e-6
-1.314, -1.218e-5
-1.313, -1.218e-5
-1.312, -1.218e-5
-1.311, -9.093e-6
-1.310, -9.093e-6
-1.309, -1.218e-5
-1.308, -1.218e-5
-1.307, -1.218e-5
-1.306, -1.218e-5
-1.305, -1.218e-5
-1.304, -1.218e-5
-1.303, -1.218e-5
-1.302, -1.218e-5
-1.301, -1.218e-5
-1.300, -1.218e-5
-1.299, -1.218e-5
-1.298, -9.093e-6
-1.297, -1.218e-5
-1.296, -1.218e-5
-1.295, -1.218e-5
-1.294, -1.218e-5
-1.293, -1.218e-5
-1.292, -1.218e-5
-1.291, -1.218e-5
-1.290, -1.218e-5
-1.289, -1.218e-5
-1.288, -1.218e-5
-1.287, -1.218e-5
-1.286, -1.218e-5
-1.285, -1.218e-5
-1.284, -1.218e-5
-1.283, -1.218e-5
-1.282, -1.218e-5
-1.281, -1.218e-5
-1.280, -1.218e-5
-1.279, -1.218e-5
-1.278, -1.218e-5
-1.277, -1.218e-5
-1.276, -1.218e-5
-1.275, -1.218e-5
-1.274, -1.218e-5
-1.273, -1.218e-5
-1.272, -1.218e-5
-1.271, -1.218e-5
-1.270, -1.218e-5
-1.269, -1.218e-5
-1.268, -1.218e-5
-1.267, -1.218e-5
-1.266, -1.218e-5
-1.265, -1.218e-5
-1.264, -1.526e-5
-1.263, -1.218e-5
-1.262, -1.218e-5
-1.261, -1.218e-5
-1.260, -1.218e-5
-1.259, -1.526e-5
-1.258, -1.218e-5
-1.257, -1.218e-5
-1.256, -1.526e-5
-1.255, -1.218e-5
-1.254, -1.218e-5
-1.253, -1.526e-5
-1.252, -1.218e-5
-1.251, -1.218e-5
-1.250, -1.526e-5
-1.249, -1.526e-5
-1.248, -1.526e-5
-1.247, -1.526e-5
-1.246, -1.526e-5
-1.245, -1.526e-5
-1.244, -1.526e-5
-1.243, -1.218e-5
-1.242, -1.526e-5
-1.241, -1.526e-5
-1.240, -1.526e-5
-1.239, -1.526e-5
-1.238, -1.526e-5
-1.237, -1.526e-5
-1.236, -1.526e-5
-1.235, -1.526e-5
-1.234, -1.526e-5
-1.233, -1.526e-5
-1.232, -1.526e-5
-1.231, -1.526e-5
-1.230, -1.526e-5
-1.229, -1.526e-5
-1.228, -1.526e-5
-1.227, -1.526e-5
-1.226, -1.526e-5
-1.225, -1.526e-5
-1.224, -1.526e-5
-1.223, -1.526e-5
-1.222, -1.526e-5
-1.221, -1.526e-5
-1.220, -1.526e-5
-1.219, -1.526e-5
-1.218, -1.526e-5
-1.217, -1.526e-5
-1.216, -1.526e-5
-1.215, -1.526e-5
-1.214, -1.526e-5
-1.213, -1.526e-5
-1.212, -1.526e-5
-1.211, -1.526e-5
-1.210, -1.526e-5
-1.209, -1.526e-5
-1.208, -1.526e-5
-1.207, -1.526e-5
-1.206, -1.526e-5
-1.205, -1.526e-5
-1.204, -1.526e-5
-1.203, -1.526e-5
-1.202, -1.526e-5
-1.201, -1.526e-5
-1.200, -1.526e-5
-1.199, -1.526e-5
-1.198, -1.526e-5
-1.197, -1.526e-5
-1.196, -1.834e-5
-1.195, -1.526e-5
-1.194, -1.834e-5
-1.193, -1.834e-5
-1.192, -1.526e-5
-1.191, -1.526e-5
-1.190, -1.834e-5
-1.189, -1.834e-5
-1.188, -1.834e-5
-1.187, -1.834e-5
-1.186, -1.834e-5
-1.185, -1.526e-5
-1.184, -1.834e-5
-1.183, -1.526e-5
-1.182, -1.526e-5
-1.181, -1.834e-5
-1.180, -1.526e-5
-1.179, -1.834e-5
-1.178, -1.526e-5
-1.177, -1.526e-5
-1.176, -1.834e-5
-1.175, -1.834e-5
-1.174, -1.834e-5
-1.173, -1.834e-5
-1.172, -1.834e-5
-1.171, -1.834e-5
-1.170, -1.834e-5
-1.169, -1.834e-5
-1.168, -1.834e-5
-1.167, -1.834e-5
-1.166, -1.834e-5
-1.165, -1.834e-5
-1.164, -1.834e-5
-1.163, -1.834e-5
-1.162, -1.834e-5
-1.161, -1.834e-5
-1.160, -1.834e-5
-1.159, -1.834e-5
-1.158, -1.834e-5
-1.157, -1.834e-5
-1.156, -1.834e-5
-1.155, -1.834e-5
-1.154, -1.834e-5
-1.153, -1.834e-5
-1.152, -1.834e-5
-1.151, -1.834e-5
-1.150, -1.834e-5
-1.149, -1.834e-5
-1.148, -1.834e-5
-1.147, -1.834e-5
-1.146, -1.834e-5
-1.145, -1.834e-5
-1.144, -1.834e-5
-1.143, -1.834e-5
-1.142, -1.834e-5
-1.141, -1.834e-5
-1.140, -1.834e-5
-1.139, -1.834e-5
-1.138, -1.834e-5
-1.137, -1.834e-5
-1.136, -1.834e-5
-1.135, -1.834e-5
-1.134, -1.834e-5
-1.133, -2.143e-5
-1.132, -1.834e-5
-1.131, -1.834e-5
-1.130, -2.143e-5
-1.129, -2.143e-5
-1.128, -1.834e-5
-1.127, -1.834e-5
-1.126, -1.834e-5
-1.125, -1.834e-5
-1.124, -2.143e-5
-1.123, -2.143e-5
-1.122, -2.143e-5
-1.121, -2.143e-5
-1.120, -2.143e-5
-1.119, -2.143e-5
-1.118, -1.834e-5
-1.117, -2.143e-5
-1.116, -2.143e-5
-1.115, -1.834e-5
-1.114, -2.143e-5
-1.113, -2.143e-5
-1.112, -1.834e-5
-1.111, -2.143e-5
-1.110, -2.143e-5
-1.109, -2.143e-5
-1.108, -2.143e-5
-1.107, -2.143e-5
-1.106, -2.143e-5
-1.105, -2.143e-5
-1.104, -2.143e-5
-1.103, -2.143e-5
-1.102, -2.143e-5
-1.101, -2.143e-5
-1.100, -2.143e-5
-1.099, -2.143e-5
-1.098, -2.143e-5
-1.097, -2.143e-5
-1.096, -2.143e-5
-1.095, -2.143e-5
-1.094, -2.143e-5
-1.093, -2.143e-5
-1.092, -2.143e-5
-1.091, -2.143e-5
-1.090, -2.143e-5
-1.089, -2.143e-5
-1.088, -2.143e-5
-1.087, -2.143e-5
-1.086, -2.143e-5
-1.085, -2.143e-5
-1.084, -2.143e-5
-1.083, -2.143e-5
-1.082, -2.143e-5
-1.081, -2.143e-5
-1.080, -2.143e-5
-1.079, -2.143e-5
-1.078, -2.143e-5
-1.077, -2.143e-5
-1.076, -2.143e-5
-1.075, -2.143e-5
-1.074, -2.451e-5
-1.073, -2.451e-5
-1.072, -2.143e-5
-1.071, -2.143e-5
-1.070, -2.143e-5
-1.069, -2.143e-5
-1.068, -2.143e-5
-1.067, -2.143e-5
-1.066, -2.143e-5
-1.065, -2.143e-5
-1.064, -2.143e-5
-1.063, -2.143e-5
-1.062, -2.143e-5
-1.061, -2.143e-5
-1.060, -2.451e-5
-1.059, -2.451e-5
-1.058, -2.451e-5
-1.057, -2.451e-5
-1.056, -2.451e-5
-1.055, -2.451e-5
-1.054, -2.451e-5
-1.053, -2.451e-5
-1.052, -2.451e-5
-1.051, -2.451e-5
-1.050, -2.451e-5
-1.049, -2.451e-5
-1.048, -2.451e-5
-1.047, -2.451e-5
-1.046, -2.451e-5
-1.045, -2.451e-5
-1.044, -2.451e-5
-1.043, -2.451e-5
-1.042, -2.451e-5
-1.041, -2.451e-5
-1.040, -2.451e-5
-1.039, -2.451e-5
-1.038, -2.451e-5
-1.037, -2.451e-5
-1.036, -2.451e-5
-1.035, -2.451e-5
-1.034, -2.451e-5
-1.033, -2.451e-5
-1.032, -2.451e-5
-1.031, -2.451e-5
-1.030, -2.451e-5
-1.029, -2.451e-5
-1.028, -2.451e-5
-1.027, -2.451e-5
-1.026, -2.451e-5
-1.025, -2.451e-5
-1.024, -2.451e-5
-1.023, -2.451e-5
-1.022, -2.451e-5
-1.021, -2.759e-5
-1.020, -2.451e-5
-1.019, -2.759e-5
-1.018, -2.451e-5
-1.017, -2.759e-5
-1.016, -2.759e-5
-1.015, -2.451e-5
-1.014, -2.759e-5
-1.013, -2.759e-5
-1.012, -2.759e-5
-1.011, -2.759e-5
-1.010, -2.759e-5
-1.009, -2.759e-5
-1.008, -2.759e-5
-1.007, -2.759e-5
-1.006, -2.759e-5
-1.005, -2.759e-5
-1.004, -2.759e-5
-1.003, -2.759e-5
-1.002, -2.759e-5
-1.001, -2.759e-5
