Aug. 20, 2024   07:34:31
Linear Sweep Voltammetry
File: c:/users/guazh/data/20240813_batch_94_500/2024-08-15-exp138\regeneratedgce-2024-08-20t07_31_29-lsvinkoh\regeneratedgce_lsv_50mvs_efin_-1700mv.bin
Data Source:  Experiment
Instrument Model:  CHI760E
Header: LSV ran at 50 mVs with Efin at -1700mV
Note: 

Init E (V) = -0.6
Final E (V) = -1.7
Scan Rate (V/s) = 0.05
Sample Interval (V) = 0.001
Quiet Time (sec) = 2
Sensitivity (A/V) = 1e-4
Comp R (ohm) = 1.6

Results:

Channel 1:
Ep = -1.305V
ip = 4.694e-6A
Ah = 9.097e-6C

Potential/V, Current/A

-0.600, 1.778e-6
-0.601, 2.054e-6
-0.602, 2.157e-6
-0.603, 2.210e-6
-0.604, 2.252e-6
-0.605, 2.282e-6
-0.606, 2.322e-6
-0.607, 2.351e-6
-0.608, 2.384e-6
-0.609, 2.412e-6
-0.610, 2.434e-6
-0.611, 2.463e-6
-0.612, 2.489e-6
-0.613, 2.520e-6
-0.614, 2.547e-6
-0.615, 2.572e-6
-0.616, 2.594e-6
-0.617, 2.622e-6
-0.618, 2.648e-6
-0.619, 2.674e-6
-0.620, 2.700e-6
-0.621, 2.724e-6
-0.622, 2.752e-6
-0.623, 2.780e-6
-0.624, 2.804e-6
-0.625, 2.829e-6
-0.626, 2.857e-6
-0.627, 2.885e-6
-0.628, 2.918e-6
-0.629, 2.943e-6
-0.630, 2.969e-6
-0.631, 2.995e-6
-0.632, 3.025e-6
-0.633, 3.054e-6
-0.634, 3.082e-6
-0.635, 3.102e-6
-0.636, 3.136e-6
-0.637, 3.170e-6
-0.638, 3.202e-6
-0.639, 3.228e-6
-0.640, 3.262e-6
-0.641, 3.303e-6
-0.642, 3.343e-6
-0.643, 3.377e-6
-0.644, 3.405e-6
-0.645, 3.435e-6
-0.646, 3.474e-6
-0.647, 3.504e-6
-0.648, 3.539e-6
-0.649, 3.573e-6
-0.650, 3.611e-6
-0.651, 3.645e-6
-0.652, 3.687e-6
-0.653, 3.728e-6
-0.654, 3.763e-6
-0.655, 3.801e-6
-0.656, 3.842e-6
-0.657, 3.884e-6
-0.658, 3.922e-6
-0.659, 3.960e-6
-0.660, 4.003e-6
-0.661, 4.046e-6
-0.662, 4.093e-6
-0.663, 4.135e-6
-0.664, 4.174e-6
-0.665, 4.216e-6
-0.666, 4.261e-6
-0.667, 4.309e-6
-0.668, 4.354e-6
-0.669, 4.392e-6
-0.670, 4.440e-6
-0.671, 4.488e-6
-0.672, 4.536e-6
-0.673, 4.587e-6
-0.674, 4.629e-6
-0.675, 4.676e-6
-0.676, 4.725e-6
-0.677, 4.773e-6
-0.678, 4.829e-6
-0.679, 4.872e-6
-0.680, 4.922e-6
-0.681, 4.974e-6
-0.682, 5.018e-6
-0.683, 5.065e-6
-0.684, 5.119e-6
-0.685, 5.170e-6
-0.686, 5.218e-6
-0.687, 5.267e-6
-0.688, 5.322e-6
-0.689, 5.377e-6
-0.690, 5.429e-6
-0.691, 5.475e-6
-0.692, 5.523e-6
-0.693, 5.578e-6
-0.694, 5.624e-6
-0.695, 5.672e-6
-0.696, 5.725e-6
-0.697, 5.782e-6
-0.698, 5.834e-6
-0.699, 5.884e-6
-0.700, 5.928e-6
-0.701, 5.976e-6
-0.702, 6.024e-6
-0.703, 6.077e-6
-0.704, 6.119e-6
-0.705, 6.163e-6
-0.706, 6.206e-6
-0.707, 6.256e-6
-0.708, 6.311e-6
-0.709, 6.352e-6
-0.710, 6.393e-6
-0.711, 6.437e-6
-0.712, 6.481e-6
-0.713, 6.527e-6
-0.714, 6.565e-6
-0.715, 6.602e-6
-0.716, 6.638e-6
-0.717, 6.672e-6
-0.718, 6.705e-6
-0.719, 6.731e-6
-0.720, 6.763e-6
-0.721, 6.793e-6
-0.722, 6.827e-6
-0.723, 6.858e-6
-0.724, 6.873e-6
-0.725, 6.900e-6
-0.726, 6.921e-6
-0.727, 6.939e-6
-0.728, 6.958e-6
-0.729, 6.985e-6
-0.730, 7.003e-6
-0.731, 7.014e-6
-0.732, 7.033e-6
-0.733, 7.056e-6
-0.734, 7.052e-6
-0.735, 7.064e-6
-0.736, 7.075e-6
-0.737, 7.082e-6
-0.738, 7.097e-6
-0.739, 7.096e-6
-0.740, 7.104e-6
-0.741, 7.107e-6
-0.742, 7.110e-6
-0.743, 7.115e-6
-0.744, 7.111e-6
-0.745, 7.112e-6
-0.746, 7.110e-6
-0.747, 7.112e-6
-0.748, 7.100e-6
-0.749, 7.085e-6
-0.750, 7.072e-6
-0.751, 7.061e-6
-0.752, 7.057e-6
-0.753, 7.045e-6
-0.754, 7.037e-6
-0.755, 7.034e-6
-0.756, 7.031e-6
-0.757, 7.016e-6
-0.758, 7.002e-6
-0.759, 6.951e-6
-0.760, 6.935e-6
-0.761, 6.911e-6
-0.762, 6.902e-6
-0.763, 6.879e-6
-0.764, 6.867e-6
-0.765, 6.844e-6
-0.766, 6.802e-6
-0.767, 6.783e-6
-0.768, 6.755e-6
-0.769, 6.726e-6
-0.770, 6.697e-6
-0.771, 6.662e-6
-0.772, 6.637e-6
-0.773, 6.609e-6
-0.774, 6.581e-6
-0.775, 6.548e-6
-0.776, 6.516e-6
-0.777, 6.504e-6
-0.778, 6.466e-6
-0.779, 6.433e-6
-0.780, 6.409e-6
-0.781, 6.413e-6
-0.782, 6.336e-6
-0.783, 6.286e-6
-0.784, 6.247e-6
-0.785, 6.229e-6
-0.786, 6.227e-6
-0.787, 6.181e-6
-0.788, 6.148e-6
-0.789, 6.095e-6
-0.790, 6.041e-6
-0.791, 6.003e-6
-0.792, 5.999e-6
-0.793, 5.977e-6
-0.794, 5.887e-6
-0.795, 5.841e-6
-0.796, 5.800e-6
-0.797, 5.764e-6
-0.798, 5.734e-6
-0.799, 5.676e-6
-0.800, 5.635e-6
-0.801, 5.595e-6
-0.802, 5.567e-6
-0.803, 5.528e-6
-0.804, 5.496e-6
-0.805, 5.411e-6
-0.806, 5.376e-6
-0.807, 5.344e-6
-0.808, 5.319e-6
-0.809, 5.288e-6
-0.810, 5.225e-6
-0.811, 5.187e-6
-0.812, 5.152e-6
-0.813, 5.119e-6
-0.814, 5.085e-6
-0.815, 5.042e-6
-0.816, 5.006e-6
-0.817, 4.982e-6
-0.818, 4.954e-6
-0.819, 4.912e-6
-0.820, 4.882e-6
-0.821, 4.843e-6
-0.822, 4.808e-6
-0.823, 4.779e-6
-0.824, 4.729e-6
-0.825, 4.680e-6
-0.826, 4.653e-6
-0.827, 4.626e-6
-0.828, 4.596e-6
-0.829, 4.582e-6
-0.830, 4.531e-6
-0.831, 4.498e-6
-0.832, 4.479e-6
-0.833, 4.431e-6
-0.834, 4.388e-6
-0.835, 4.359e-6
-0.836, 4.328e-6
-0.837, 4.311e-6
-0.838, 4.289e-6
-0.839, 4.259e-6
-0.840, 4.240e-6
-0.841, 4.216e-6
-0.842, 4.193e-6
-0.843, 4.194e-6
-0.844, 4.179e-6
-0.845, 4.161e-6
-0.846, 4.145e-6
-0.847, 4.127e-6
-0.848, 4.110e-6
-0.849, 4.103e-6
-0.850, 4.075e-6
-0.851, 4.040e-6
-0.852, 4.017e-6
-0.853, 3.997e-6
-0.854, 3.982e-6
-0.855, 3.961e-6
-0.856, 3.947e-6
-0.857, 3.937e-6
-0.858, 3.931e-6
-0.859, 3.913e-6
-0.860, 3.900e-6
-0.861, 3.882e-6
-0.862, 3.872e-6
-0.863, 3.859e-6
-0.864, 3.841e-6
-0.865, 3.835e-6
-0.866, 3.822e-6
-0.867, 3.811e-6
-0.868, 3.805e-6
-0.869, 3.793e-6
-0.870, 3.783e-6
-0.871, 3.775e-6
-0.872, 3.766e-6
-0.873, 3.759e-6
-0.874, 3.762e-6
-0.875, 3.769e-6
-0.876, 3.760e-6
-0.877, 3.749e-6
-0.878, 3.750e-6
-0.879, 3.743e-6
-0.880, 3.739e-6
-0.881, 3.736e-6
-0.882, 3.733e-6
-0.883, 3.725e-6
-0.884, 3.716e-6
-0.885, 3.707e-6
-0.886, 3.706e-6
-0.887, 3.700e-6
-0.888, 3.700e-6
-0.889, 3.696e-6
-0.890, 3.695e-6
-0.891, 3.690e-6
-0.892, 3.693e-6
-0.893, 3.692e-6
-0.894, 3.693e-6
-0.895, 3.689e-6
-0.896, 3.693e-6
-0.897, 3.693e-6
-0.898, 3.698e-6
-0.899, 3.708e-6
-0.900, 3.703e-6
-0.901, 3.702e-6
-0.902, 3.706e-6
-0.903, 3.707e-6
-0.904, 3.713e-6
-0.905, 3.711e-6
-0.906, 3.706e-6
-0.907, 3.706e-6
-0.908, 3.704e-6
-0.909, 3.703e-6
-0.910, 3.709e-6
-0.911, 3.711e-6
-0.912, 3.717e-6
-0.913, 3.718e-6
-0.914, 3.716e-6
-0.915, 3.731e-6
-0.916, 3.720e-6
-0.917, 3.716e-6
-0.918, 3.722e-6
-0.919, 3.722e-6
-0.920, 3.725e-6
-0.921, 3.738e-6
-0.922, 3.740e-6
-0.923, 3.746e-6
-0.924, 3.751e-6
-0.925, 3.750e-6
-0.926, 3.753e-6
-0.927, 3.755e-6
-0.928, 3.757e-6
-0.929, 3.759e-6
-0.930, 3.766e-6
-0.931, 3.797e-6
-0.932, 3.807e-6
-0.933, 3.807e-6
-0.934, 3.813e-6
-0.935, 3.814e-6
-0.936, 3.816e-6
-0.937, 3.816e-6
-0.938, 3.813e-6
-0.939, 3.821e-6
-0.940, 3.833e-6
-0.941, 3.833e-6
-0.942, 3.839e-6
-0.943, 3.845e-6
-0.944, 3.853e-6
-0.945, 3.857e-6
-0.946, 3.857e-6
-0.947, 3.858e-6
-0.948, 3.862e-6
-0.949, 3.861e-6
-0.950, 3.861e-6
-0.951, 3.869e-6
-0.952, 3.876e-6
-0.953, 3.884e-6
-0.954, 3.881e-6
-0.955, 3.888e-6
-0.956, 3.900e-6
-0.957, 3.897e-6
-0.958, 3.901e-6
-0.959, 3.901e-6
-0.960, 3.910e-6
-0.961, 3.907e-6
-0.962, 3.913e-6
-0.963, 3.914e-6
-0.964, 3.923e-6
-0.965, 3.928e-6
-0.966, 3.935e-6
-0.967, 3.939e-6
-0.968, 3.946e-6
-0.969, 3.952e-6
-0.970, 3.958e-6
-0.971, 3.962e-6
-0.972, 3.967e-6
-0.973, 3.982e-6
-0.974, 3.983e-6
-0.975, 3.994e-6
-0.976, 4.012e-6
-0.977, 4.017e-6
-0.978, 4.021e-6
-0.979, 4.015e-6
-0.980, 4.017e-6
-0.981, 4.024e-6
-0.982, 4.027e-6
-0.983, 4.034e-6
-0.984, 4.039e-6
-0.985, 4.041e-6
-0.986, 4.048e-6
-0.987, 4.050e-6
-0.988, 4.055e-6
-0.989, 4.060e-6
-0.990, 4.060e-6
-0.991, 4.062e-6
-0.992, 4.068e-6
-0.993, 4.076e-6
-0.994, 4.080e-6
-0.995, 4.086e-6
-0.996, 4.087e-6
-0.997, 4.094e-6
-0.998, 4.097e-6
-0.999, 4.092e-6
-1.000, 4.098e-6
-1.001, 4.109e-6
-1.002, 4.109e-6
-1.003, 4.116e-6
-1.004, 4.114e-6
-1.005, 4.117e-6
-1.006, 4.122e-6
-1.007, 4.123e-6
-1.008, 4.126e-6
-1.009, 4.137e-6
-1.010, 4.137e-6
-1.011, 4.142e-6
-1.012, 4.145e-6
-1.013, 4.146e-6
-1.014, 4.150e-6
-1.015, 4.153e-6
-1.016, 4.156e-6
-1.017, 4.163e-6
-1.018, 4.163e-6
-1.019, 4.163e-6
-1.020, 4.164e-6
-1.021, 4.168e-6
-1.022, 4.175e-6
-1.023, 4.176e-6
-1.024, 4.178e-6
-1.025, 4.183e-6
-1.026, 4.183e-6
-1.027, 4.185e-6
-1.028, 4.188e-6
-1.029, 4.187e-6
-1.030, 4.192e-6
-1.031, 4.197e-6
-1.032, 4.204e-6
-1.033, 4.207e-6
-1.034, 4.204e-6
-1.035, 4.205e-6
-1.036, 4.208e-6
-1.037, 4.210e-6
-1.038, 4.214e-6
-1.039, 4.217e-6
-1.040, 4.222e-6
-1.041, 4.226e-6
-1.042, 4.227e-6
-1.043, 4.234e-6
-1.044, 4.231e-6
-1.045, 4.233e-6
-1.046, 4.237e-6
-1.047, 4.241e-6
-1.048, 4.241e-6
-1.049, 4.244e-6
-1.050, 4.245e-6
-1.051, 4.252e-6
-1.052, 4.256e-6
-1.053, 4.262e-6
-1.054, 4.265e-6
-1.055, 4.259e-6
-1.056, 4.267e-6
-1.057, 4.267e-6
-1.058, 4.270e-6
-1.059, 4.275e-6
-1.060, 4.282e-6
-1.061, 4.282e-6
-1.062, 4.287e-6
-1.063, 4.292e-6
-1.064, 4.290e-6
-1.065, 4.289e-6
-1.066, 4.291e-6
-1.067, 4.296e-6
-1.068, 4.302e-6
-1.069, 4.302e-6
-1.070, 4.302e-6
-1.071, 4.303e-6
-1.072, 4.309e-6
-1.073, 4.312e-6
-1.074, 4.311e-6
-1.075, 4.315e-6
-1.076, 4.318e-6
-1.077, 4.320e-6
-1.078, 4.328e-6
-1.079, 4.329e-6
-1.080, 4.332e-6
-1.081, 4.340e-6
-1.082, 4.341e-6
-1.083, 4.344e-6
-1.084, 4.344e-6
-1.085, 4.343e-6
-1.086, 4.351e-6
-1.087, 4.358e-6
-1.088, 4.365e-6
-1.089, 4.366e-6
-1.090, 4.367e-6
-1.091, 4.369e-6
-1.092, 4.367e-6
-1.093, 4.368e-6
-1.094, 4.376e-6
-1.095, 4.379e-6
-1.096, 4.386e-6
-1.097, 4.384e-6
-1.098, 4.385e-6
-1.099, 4.387e-6
-1.100, 4.390e-6
-1.101, 4.397e-6
-1.102, 4.399e-6
-1.103, 4.398e-6
-1.104, 4.401e-6
-1.105, 4.405e-6
-1.106, 4.410e-6
-1.107, 4.414e-6
-1.108, 4.416e-6
-1.109, 4.417e-6
-1.110, 4.424e-6
-1.111, 4.428e-6
-1.112, 4.429e-6
-1.113, 4.431e-6
-1.114, 4.433e-6
-1.115, 4.438e-6
-1.116, 4.444e-6
-1.117, 4.447e-6
-1.118, 4.456e-6
-1.119, 4.457e-6
-1.120, 4.462e-6
-1.121, 4.468e-6
-1.122, 4.472e-6
-1.123, 4.475e-6
-1.124, 4.477e-6
-1.125, 4.478e-6
-1.126, 4.486e-6
-1.127, 4.491e-6
-1.128, 4.494e-6
-1.129, 4.499e-6
-1.130, 4.500e-6
-1.131, 4.509e-6
-1.132, 4.518e-6
-1.133, 4.524e-6
-1.134, 4.526e-6
-1.135, 4.529e-6
-1.136, 4.536e-6
-1.137, 4.541e-6
-1.138, 4.550e-6
-1.139, 4.559e-6
-1.140, 4.562e-6
-1.141, 4.573e-6
-1.142, 4.582e-6
-1.143, 4.590e-6
-1.144, 4.596e-6
-1.145, 4.601e-6
-1.146, 4.611e-6
-1.147, 4.621e-6
-1.148, 4.629e-6
-1.149, 4.642e-6
-1.150, 4.653e-6
-1.151, 4.669e-6
-1.152, 4.683e-6
-1.153, 4.700e-6
-1.154, 4.712e-6
-1.155, 4.728e-6
-1.156, 4.743e-6
-1.157, 4.762e-6
-1.158, 4.780e-6
-1.159, 4.796e-6
-1.160, 4.813e-6
-1.161, 4.842e-6
-1.162, 4.863e-6
-1.163, 4.887e-6
-1.164, 4.913e-6
-1.165, 4.941e-6
-1.166, 4.969e-6
-1.167, 5.000e-6
-1.168, 5.033e-6
-1.169, 5.067e-6
-1.170, 5.098e-6
-1.171, 5.140e-6
-1.172, 5.178e-6
-1.173, 5.220e-6
-1.174, 5.260e-6
-1.175, 5.305e-6
-1.176, 5.351e-6
-1.177, 5.404e-6
-1.178, 5.458e-6
-1.179, 5.508e-6
-1.180, 5.562e-6
-1.181, 5.618e-6
-1.182, 5.678e-6
-1.183, 5.741e-6
-1.184, 5.804e-6
-1.185, 5.867e-6
-1.186, 5.929e-6
-1.187, 5.999e-6
-1.188, 6.072e-6
-1.189, 6.144e-6
-1.190, 6.208e-6
-1.191, 6.279e-6
-1.192, 6.376e-6
-1.193, 6.454e-6
-1.194, 6.527e-6
-1.195, 6.604e-6
-1.196, 6.680e-6
-1.197, 6.763e-6
-1.198, 6.824e-6
-1.199, 6.915e-6
-1.200, 7.011e-6
-1.201, 7.094e-6
-1.202, 7.174e-6
-1.203, 7.258e-6
-1.204, 7.334e-6
-1.205, 7.413e-6
-1.206, 7.493e-6
-1.207, 7.566e-6
-1.208, 7.646e-6
-1.209, 7.723e-6
-1.210, 7.792e-6
-1.211, 7.865e-6
-1.212, 7.933e-6
-1.213, 8.000e-6
-1.214, 8.064e-6
-1.215, 8.122e-6
-1.216, 8.183e-6
-1.217, 8.241e-6
-1.218, 8.290e-6
-1.219, 8.342e-6
-1.220, 8.385e-6
-1.221, 8.434e-6
-1.222, 8.480e-6
-1.223, 8.518e-6
-1.224, 8.548e-6
-1.225, 8.581e-6
-1.226, 8.611e-6
-1.227, 8.642e-6
-1.228, 8.677e-6
-1.229, 8.710e-6
-1.230, 8.730e-6
-1.231, 8.749e-6
-1.232, 8.770e-6
-1.233, 8.785e-6
-1.234, 8.794e-6
-1.235, 8.806e-6
-1.236, 8.823e-6
-1.237, 8.799e-6
-1.238, 8.810e-6
-1.239, 8.850e-6
-1.240, 8.848e-6
-1.241, 8.846e-6
-1.242, 8.848e-6
-1.243, 8.845e-6
-1.244, 8.837e-6
-1.245, 8.831e-6
-1.246, 8.828e-6
-1.247, 8.820e-6
-1.248, 8.817e-6
-1.249, 8.808e-6
-1.250, 8.792e-6
-1.251, 8.786e-6
-1.252, 8.780e-6
-1.253, 8.764e-6
-1.254, 8.757e-6
-1.255, 8.739e-6
-1.256, 8.726e-6
-1.257, 8.711e-6
-1.258, 8.698e-6
-1.259, 8.696e-6
-1.260, 8.674e-6
-1.261, 8.665e-6
-1.262, 8.667e-6
-1.263, 8.650e-6
-1.264, 8.643e-6
-1.265, 8.645e-6
-1.266, 8.648e-6
-1.267, 8.656e-6
-1.268, 8.660e-6
-1.269, 8.659e-6
-1.270, 8.666e-6
-1.271, 8.676e-6
-1.272, 8.686e-6
-1.273, 8.709e-6
-1.274, 8.719e-6
-1.275, 8.723e-6
-1.276, 8.737e-6
-1.277, 8.759e-6
-1.278, 8.781e-6
-1.279, 8.800e-6
-1.280, 8.831e-6
-1.281, 8.864e-6
-1.282, 8.887e-6
-1.283, 8.920e-6
-1.284, 8.932e-6
-1.285, 8.955e-6
-1.286, 8.978e-6
-1.287, 9.005e-6
-1.288, 9.025e-6
-1.289, 9.057e-6
-1.290, 9.079e-6
-1.291, 9.103e-6
-1.292, 9.135e-6
-1.293, 9.179e-6
-1.294, 9.201e-6
-1.295, 9.225e-6
-1.296, 9.250e-6
-1.297, 9.273e-6
-1.298, 9.302e-6
-1.299, 9.373e-6
-1.300, 9.414e-6
-1.301, 9.444e-6
-1.302, 9.487e-6
-1.303, 9.534e-6
-1.304, 9.584e-6
-1.305, 9.629e-6
-1.306, 9.680e-6
-1.307, 9.735e-6
-1.308, 9.791e-6
-1.309, 9.864e-6
-1.310, 9.930e-6
-1.311, 9.990e-6
-1.312, 1.005e-5
-1.313, 1.010e-5
-1.314, 1.011e-5
-1.315, 1.015e-5
-1.316, 1.020e-5
-1.317, 1.024e-5
-1.318, 1.029e-5
-1.319, 1.033e-5
-1.320, 1.038e-5
-1.321, 1.044e-5
-1.322, 1.049e-5
-1.323, 1.054e-5
-1.324, 1.055e-5
-1.325, 1.056e-5
-1.326, 1.058e-5
-1.327, 1.061e-5
-1.328, 1.068e-5
-1.329, 1.074e-5
-1.330, 1.080e-5
-1.331, 1.087e-5
-1.332, 1.096e-5
-1.333, 1.102e-5
-1.334, 1.106e-5
-1.335, 1.113e-5
-1.336, 1.120e-5
-1.337, 1.126e-5
-1.338, 1.132e-5
-1.339, 1.140e-5
-1.340, 1.146e-5
-1.341, 1.157e-5
-1.342, 1.166e-5
-1.343, 1.176e-5
-1.344, 1.185e-5
-1.345, 1.192e-5
-1.346, 1.201e-5
-1.347, 1.211e-5
-1.348, 1.221e-5
-1.349, 1.230e-5
-1.350, 1.242e-5
-1.351, 1.258e-5
-1.352, 1.276e-5
-1.353, 1.291e-5
-1.354, 1.304e-5
-1.355, 1.320e-5
-1.356, 1.336e-5
-1.357, 1.355e-5
-1.358, 1.374e-5
-1.359, 1.398e-5
-1.360, 1.425e-5
-1.361, 1.441e-5
-1.362, 1.459e-5
-1.363, 1.473e-5
-1.364, 1.480e-5
-1.365, 1.533e-5
-1.366, 1.547e-5
-1.367, 1.579e-5
-1.368, 1.607e-5
-1.369, 1.616e-5
-1.370, 1.633e-5
-1.371, 1.672e-5
-1.372, 1.703e-5
-1.373, 1.782e-5
-1.374, 1.875e-5
-1.375, 1.834e-5
-1.376, 1.869e-5
-1.377, 1.926e-5
-1.378, 1.930e-5
-1.379, 1.970e-5
-1.380, 2.024e-5
-1.381, 2.114e-5
-1.382, 2.188e-5
-1.383, 2.245e-5
-1.384, 2.317e-5
-1.385, 2.417e-5
-1.386, 2.554e-5
-1.387, 2.683e-5
-1.388, 2.816e-5
-1.389, 2.954e-5
-1.390, 3.094e-5
-1.391, 3.323e-5
-1.392, 3.345e-5
-1.393, 3.393e-5
-1.394, 3.491e-5
-1.395, 3.624e-5
-1.396, 3.764e-5
-1.397, 3.903e-5
-1.398, 3.959e-5
-1.399, 4.110e-5
-1.400, 4.226e-5
-1.401, 4.342e-5
-1.402, 4.482e-5
-1.403, 4.747e-5
-1.404, 4.909e-5
-1.405, 5.043e-5
-1.406, 5.206e-5
-1.407, 5.359e-5
-1.408, 5.507e-5
-1.409, 5.714e-5
-1.410, 5.888e-5
-1.411, 6.026e-5
-1.412, 6.134e-5
-1.413, 6.184e-5
-1.414, 6.195e-5
-1.415, 6.225e-5
-1.416, 6.277e-5
-1.417, 6.398e-5
-1.418, 6.504e-5
-1.419, 6.562e-5
-1.420, 6.715e-5
-1.421, 6.894e-5
-1.422, 7.050e-5
-1.423, 7.181e-5
-1.424, 7.193e-5
-1.425, 7.271e-5
-1.426, 7.389e-5
-1.427, 7.526e-5
-1.428, 7.633e-5
-1.429, 7.709e-5
-1.430, 7.881e-5
-1.431, 8.111e-5
-1.432, 8.327e-5
-1.433, 8.570e-5
-1.434, 8.710e-5
-1.435, 8.968e-5
-1.436, 9.306e-5
-1.437, 9.594e-5
-1.438, 9.760e-5
-1.439, 9.972e-5
-1.440, 1.022e-4
-1.441, 1.027e-4
-1.442, 1.002e-4
-1.443, 9.892e-5
-1.444, 1.013e-4
-1.445, 1.025e-4
-1.446, 1.030e-4
-1.447, 1.035e-4
-1.448, 1.037e-4
-1.449, 1.025e-4
-1.450, 1.014e-4
-1.451, 1.004e-4
-1.452, 9.888e-5
-1.453, 9.844e-5
-1.454, 9.640e-5
-1.455, 9.446e-5
-1.456, 9.207e-5
-1.457, 8.964e-5
-1.458, 8.744e-5
-1.459, 8.419e-5
-1.460, 8.094e-5
-1.461, 7.847e-5
-1.462, 7.825e-5
-1.463, 7.886e-5
-1.464, 7.916e-5
-1.465, 7.880e-5
-1.466, 7.870e-5
-1.467, 7.816e-5
-1.468, 7.854e-5
-1.469, 7.910e-5
-1.470, 7.872e-5
-1.471, 7.931e-5
-1.472, 8.028e-5
-1.473, 8.154e-5
-1.474, 8.211e-5
-1.475, 8.291e-5
-1.476, 8.362e-5
-1.477, 8.464e-5
-1.478, 8.653e-5
-1.479, 8.784e-5
-1.480, 8.868e-5
-1.481, 8.950e-5
-1.482, 8.910e-5
-1.483, 8.557e-5
-1.484, 8.216e-5
-1.485, 8.092e-5
-1.486, 8.091e-5
-1.487, 8.099e-5
-1.488, 8.026e-5
-1.489, 7.881e-5
-1.490, 7.884e-5
-1.491, 7.899e-5
-1.492, 7.958e-5
-1.493, 7.953e-5
-1.494, 7.971e-5
-1.495, 8.002e-5
-1.496, 8.118e-5
-1.497, 8.148e-5
-1.498, 8.140e-5
-1.499, 8.148e-5
-1.500, 8.212e-5
-1.501, 8.282e-5
-1.502, 8.294e-5
-1.503, 8.349e-5
-1.504, 8.394e-5
-1.505, 8.436e-5
-1.506, 8.559e-5
-1.507, 8.633e-5
-1.508, 8.735e-5
-1.509, 8.858e-5
-1.510, 8.965e-5
-1.511, 9.122e-5
-1.512, 9.293e-5
-1.513, 9.441e-5
-1.514, 9.496e-5
-1.515, 9.561e-5
-1.516, 9.578e-5
-1.517, 9.526e-5
-1.518, 9.533e-5
-1.519, 9.521e-5
-1.520, 9.457e-5
-1.521, 9.433e-5
-1.522, 9.304e-5
-1.523, 9.188e-5
-1.524, 9.026e-5
-1.525, 8.977e-5
-1.526, 8.900e-5
-1.527, 8.851e-5
-1.528, 8.879e-5
-1.529, 8.927e-5
-1.530, 8.952e-5
-1.531, 9.008e-5
-1.532, 9.047e-5
-1.533, 9.088e-5
-1.534, 9.126e-5
-1.535, 9.157e-5
-1.536, 9.206e-5
-1.537, 9.284e-5
-1.538, 9.373e-5
-1.539, 9.433e-5
-1.540, 9.472e-5
-1.541, 9.545e-5
-1.542, 9.666e-5
-1.543, 9.741e-5
-1.544, 9.724e-5
-1.545, 9.827e-5
-1.546, 9.954e-5
-1.547, 1.001e-4
-1.548, 1.008e-4
-1.549, 1.012e-4
-1.550, 1.011e-4
-1.551, 1.008e-4
-1.552, 1.010e-4
-1.553, 1.018e-4
-1.554, 1.024e-4
-1.555, 1.031e-4
-1.556, 1.038e-4
-1.557, 1.044e-4
-1.558, 1.049e-4
-1.559, 1.053e-4
-1.560, 1.058e-4
-1.561, 1.064e-4
-1.562, 1.066e-4
-1.563, 1.077e-4
-1.564, 1.083e-4
-1.565, 1.092e-4
-1.566, 1.101e-4
-1.567, 1.109e-4
-1.568, 1.120e-4
-1.569, 1.132e-4
-1.570, 1.141e-4
-1.571, 1.145e-4
-1.572, 1.144e-4
-1.573, 1.145e-4
-1.574, 1.153e-4
-1.575, 1.162e-4
-1.576, 1.169e-4
-1.577, 1.176e-4
-1.578, 1.179e-4
-1.579, 1.187e-4
-1.580, 1.196e-4
-1.581, 1.203e-4
-1.582, 1.207e-4
-1.583, 1.215e-4
-1.584, 1.222e-4
-1.585, 1.231e-4
-1.586, 1.240e-4
-1.587, 1.249e-4
-1.588, 1.259e-4
-1.589, 1.265e-4
-1.590, 1.275e-4
-1.591, 1.287e-4
-1.592, 1.299e-4
-1.593, 1.313e-4
-1.594, 1.327e-4
-1.595, 1.341e-4
-1.596, 1.353e-4
-1.597, 1.368e-4
-1.598, 1.381e-4
-1.599, 1.395e-4
-1.600, 1.412e-4
-1.601, 1.425e-4
-1.602, 1.440e-4
-1.603, 1.454e-4
-1.604, 1.469e-4
-1.605, 1.485e-4
-1.606, 1.501e-4
-1.607, 1.519e-4
-1.608, 1.536e-4
-1.609, 1.555e-4
-1.610, 1.572e-4
-1.611, 1.590e-4
-1.612, 1.608e-4
-1.613, 1.628e-4
-1.614, 1.648e-4
-1.615, 1.669e-4
-1.616, 1.690e-4
-1.617, 1.710e-4
-1.618, 1.732e-4
-1.619, 1.755e-4
-1.620, 1.777e-4
-1.621, 1.800e-4
-1.622, 1.824e-4
-1.623, 1.847e-4
-1.624, 1.871e-4
-1.625, 1.899e-4
-1.626, 1.925e-4
-1.627, 1.950e-4
-1.628, 1.977e-4
-1.629, 2.004e-4
-1.630, 2.032e-4
-1.631, 2.061e-4
-1.632, 2.090e-4
-1.633, 2.116e-4
-1.634, 2.145e-4
-1.635, 2.175e-4
-1.636, 2.207e-4
-1.637, 2.241e-4
-1.638, 2.277e-4
-1.639, 2.312e-4
-1.640, 2.348e-4
-1.641, 2.384e-4
-1.642, 2.423e-4
-1.643, 2.462e-4
-1.644, 2.501e-4
-1.645, 2.539e-4
-1.646, 2.568e-4
-1.647, 2.602e-4
-1.648, 2.643e-4
-1.649, 2.684e-4
-1.650, 2.727e-4
-1.651, 2.771e-4
-1.652, 2.817e-4
-1.653, 2.863e-4
-1.654, 2.911e-4
-1.655, 2.961e-4
-1.656, 3.010e-4
-1.657, 3.059e-4
-1.658, 3.110e-4
-1.659, 3.165e-4
-1.660, 3.222e-4
-1.661, 3.279e-4
-1.662, 3.338e-4
-1.663, 3.401e-4
-1.664, 3.464e-4
-1.665, 3.529e-4
-1.666, 3.592e-4
-1.667, 3.658e-4
-1.668, 3.724e-4
-1.669, 3.791e-4
-1.670, 3.852e-4
-1.671, 3.915e-4
-1.672, 3.982e-4
-1.673, 4.043e-4
-1.674, 4.114e-4
-1.675, 4.190e-4
-1.676, 4.268e-4
-1.677, 4.349e-4
-1.678, 4.424e-4
-1.679, 4.503e-4
-1.680, 4.586e-4
-1.681, 4.670e-4
-1.682, 4.760e-4
-1.683, 4.852e-4
-1.684, 4.944e-4
-1.685, 5.041e-4
-1.686, 5.142e-4
-1.687, 5.243e-4
-1.688, 5.342e-4
-1.689, 5.436e-4
-1.690, 5.526e-4
-1.691, 5.623e-4
-1.692, 5.728e-4
-1.693, 5.833e-4
-1.694, 5.936e-4
-1.695, 6.036e-4
-1.696, 6.140e-4
-1.697, 6.250e-4
-1.698, 6.363e-4
-1.699, 6.486e-4
