Jan. 7, 2025   23:31:50
Cyclic Voltammetry
File: c:/users/guazh/data/banditlqround7_x0exp772_r5/2025-01-07-exp792\exp792-2025-01-07t23_22_08-arkoh\exp792_cv_sr_100mvs_efin_-1500mv.bin
Data Source:  Experiment
Instrument Model:  CHI760E
Header: CV ran at 100 mVs
Note: 

Init E (V) = -1
High E (V) = -1
Low E (V) = -1.5
Final E (V) = -1
Init P/N = N
Scan Rate (V/s) = 0.1
Segment = 3
Sample Interval (V) = 0.001
Quiet Time (sec) = 2
Sensitivity (A/V) = 0.01
Comp R (ohm) = 1.4

Results:

Channel 1:
Segment 1:

Segment 2:

Segment 3:

Potential/V, Current/A

-1.000, -8.936e-5
-1.001, -8.280e-6
-1.002, -8.635e-6
-1.003, 4.723e-5
-1.004, 3.500e-5
-1.005, 5.147e-5
-1.006, 7.687e-5
-1.007, 5.206e-5
-1.008, 9.454e-5
-1.009, 7.439e-5
-1.010, 8.665e-5
-1.011, 1.078e-4
-1.012, 8.083e-5
-1.013, 1.218e-4
-1.014, 9.954e-5
-1.015, 1.109e-4
-1.016, 1.308e-4
-1.017, 1.028e-4
-1.018, 1.429e-4
-1.019, 1.203e-4
-1.020, 1.311e-4
-1.021, 1.495e-4
-1.022, 1.208e-4
-1.023, 1.607e-4
-1.024, 1.377e-4
-1.025, 1.482e-4
-1.026, 1.662e-4
-1.027, 1.363e-4
-1.028, 1.765e-4
-1.029, 1.519e-4
-1.030, 1.621e-4
-1.031, 1.800e-4
-1.032, 1.500e-4
-1.033, 1.889e-4
-1.034, 1.641e-4
-1.035, 1.741e-4
-1.036, 1.919e-4
-1.037, 1.611e-4
-1.038, 2.008e-4
-1.039, 1.757e-4
-1.040, 1.845e-4
-1.041, 2.018e-4
-1.042, 1.713e-4
-1.043, 2.097e-4
-1.044, 1.852e-4
-1.045, 1.943e-4
-1.046, 2.106e-4
-1.047, 1.803e-4
-1.048, 2.187e-4
-1.049, 1.937e-4
-1.050, 2.031e-4
-1.051, 2.188e-4
-1.052, 1.889e-4
-1.053, 2.265e-4
-1.054, 2.004e-4
-1.055, 2.106e-4
-1.056, 2.259e-4
-1.057, 1.958e-4
-1.058, 2.335e-4
-1.059, 2.069e-4
-1.060, 2.167e-4
-1.061, 2.319e-4
-1.062, 2.020e-4
-1.063, 2.403e-4
-1.064, 2.134e-4
-1.065, 2.229e-4
-1.066, 2.379e-4
-1.067, 2.071e-4
-1.068, 2.452e-4
-1.069, 2.196e-4
-1.070, 2.296e-4
-1.071, 2.442e-4
-1.072, 2.131e-4
-1.073, 2.515e-4
-1.074, 2.242e-4
-1.075, 2.342e-4
-1.076, 2.495e-4
-1.077, 2.187e-4
-1.078, 2.568e-4
-1.079, 2.297e-4
-1.080, 2.386e-4
-1.081, 2.537e-4
-1.082, 2.232e-4
-1.083, 2.607e-4
-1.084, 2.340e-4
-1.085, 2.429e-4
-1.086, 2.577e-4
-1.087, 2.277e-4
-1.088, 2.653e-4
-1.089, 2.385e-4
-1.090, 2.483e-4
-1.091, 2.621e-4
-1.092, 2.323e-4
-1.093, 2.694e-4
-1.094, 2.425e-4
-1.095, 2.530e-4
-1.096, 2.668e-4
-1.097, 2.363e-4
-1.098, 2.740e-4
-1.099, 2.466e-4
-1.100, 2.573e-4
-1.101, 2.702e-4
-1.102, 2.407e-4
-1.103, 2.781e-4
-1.104, 2.505e-4
-1.105, 2.608e-4
-1.106, 2.746e-4
-1.107, 2.447e-4
-1.108, 2.825e-4
-1.109, 2.543e-4
-1.110, 2.645e-4
-1.111, 2.786e-4
-1.112, 2.486e-4
-1.113, 2.865e-4
-1.114, 2.587e-4
-1.115, 2.690e-4
-1.116, 2.832e-4
-1.117, 2.523e-4
-1.118, 2.890e-4
-1.119, 2.616e-4
-1.120, 2.725e-4
-1.121, 2.863e-4
-1.122, 2.563e-4
-1.123, 2.936e-4
-1.124, 2.665e-4
-1.125, 2.773e-4
-1.126, 2.903e-4
-1.127, 2.609e-4
-1.128, 2.977e-4
-1.129, 2.699e-4
-1.130, 2.807e-4
-1.131, 2.935e-4
-1.132, 2.637e-4
-1.133, 3.012e-4
-1.134, 2.729e-4
-1.135, 2.841e-4
-1.136, 2.966e-4
-1.137, 2.676e-4
-1.138, 3.047e-4
-1.139, 2.771e-4
-1.140, 2.888e-4
-1.141, 3.004e-4
-1.142, 2.712e-4
-1.143, 3.088e-4
-1.144, 2.805e-4
-1.145, 2.925e-4
-1.146, 3.049e-4
-1.147, 2.749e-4
-1.148, 3.124e-4
-1.149, 2.838e-4
-1.150, 2.955e-4
-1.151, 3.082e-4
-1.152, 2.792e-4
-1.153, 3.168e-4
-1.154, 2.880e-4
-1.155, 2.996e-4
-1.156, 3.122e-4
-1.157, 2.839e-4
-1.158, 3.217e-4
-1.159, 2.927e-4
-1.160, 3.039e-4
-1.161, 3.162e-4
-1.162, 2.879e-4
-1.163, 3.247e-4
-1.164, 2.965e-4
-1.165, 3.081e-4
-1.166, 3.201e-4
-1.167, 2.906e-4
-1.168, 3.272e-4
-1.169, 2.995e-4
-1.170, 3.122e-4
-1.171, 3.247e-4
-1.172, 2.965e-4
-1.173, 3.329e-4
-1.174, 3.040e-4
-1.175, 3.169e-4
-1.176, 3.289e-4
-1.177, 3.016e-4
-1.178, 3.398e-4
-1.179, 3.104e-4
-1.180, 3.235e-4
-1.181, 3.348e-4
-1.182, 3.067e-4
-1.183, 3.441e-4
-1.184, 3.144e-4
-1.185, 3.273e-4
-1.186, 3.395e-4
-1.187, 3.117e-4
-1.188, 3.494e-4
-1.189, 3.202e-4
-1.190, 3.338e-4
-1.191, 3.449e-4
-1.192, 3.159e-4
-1.193, 3.529e-4
-1.194, 3.243e-4
-1.195, 3.371e-4
-1.196, 3.494e-4
-1.197, 3.205e-4
-1.198, 3.572e-4
-1.199, 3.290e-4
-1.200, 3.428e-4
-1.201, 3.549e-4
-1.202, 3.276e-4
-1.203, 3.649e-4
-1.204, 3.364e-4
-1.205, 3.500e-4
-1.206, 3.616e-4
-1.207, 3.346e-4
-1.208, 3.721e-4
-1.209, 3.439e-4
-1.210, 3.576e-4
-1.211, 3.687e-4
-1.212, 3.416e-4
-1.213, 3.788e-4
-1.214, 3.507e-4
-1.215, 3.647e-4
-1.216, 3.759e-4
-1.217, 3.491e-4
-1.218, 3.863e-4
-1.219, 3.582e-4
-1.220, 3.735e-4
-1.221, 3.858e-4
-1.222, 3.593e-4
-1.223, 3.975e-4
-1.224, 3.671e-4
-1.225, 3.829e-4
-1.226, 3.941e-4
-1.227, 3.679e-4
-1.228, 4.066e-4
-1.229, 3.799e-4
-1.230, 3.936e-4
-1.231, 4.049e-4
-1.232, 3.792e-4
-1.233, 4.183e-4
-1.234, 3.904e-4
-1.235, 4.056e-4
-1.236, 4.161e-4
-1.237, 3.902e-4
-1.238, 4.294e-4
-1.239, 4.028e-4
-1.240, 4.182e-4
-1.241, 4.297e-4
-1.242, 4.042e-4
-1.243, 4.428e-4
-1.244, 4.147e-4
-1.245, 4.311e-4
-1.246, 4.431e-4
-1.247, 4.192e-4
-1.248, 4.582e-4
-1.249, 4.318e-4
-1.250, 4.492e-4
-1.251, 4.613e-4
-1.252, 4.368e-4
-1.253, 4.757e-4
-1.254, 4.472e-4
-1.255, 4.655e-4
-1.256, 4.772e-4
-1.257, 4.548e-4
-1.258, 4.957e-4
-1.259, 4.682e-4
-1.260, 4.848e-4
-1.261, 4.960e-4
-1.262, 4.741e-4
-1.263, 5.149e-4
-1.264, 4.882e-4
-1.265, 5.084e-4
-1.266, 5.217e-4
-1.267, 4.996e-4
-1.268, 5.408e-4
-1.269, 5.145e-4
-1.270, 5.357e-4
-1.271, 5.498e-4
-1.272, 5.283e-4
-1.273, 5.697e-4
-1.274, 5.436e-4
-1.275, 5.635e-4
-1.276, 5.770e-4
-1.277, 5.546e-4
-1.278, 5.967e-4
-1.279, 5.722e-4
-1.280, 5.942e-4
-1.281, 6.085e-4
-1.282, 5.872e-4
-1.283, 6.294e-4
-1.284, 6.052e-4
-1.285, 6.276e-4
-1.286, 6.435e-4
-1.287, 6.236e-4
-1.288, 6.664e-4
-1.289, 6.440e-4
-1.290, 6.684e-4
-1.291, 6.836e-4
-1.292, 6.661e-4
-1.293, 7.101e-4
-1.294, 6.863e-4
-1.295, 7.115e-4
-1.296, 7.283e-4
-1.297, 7.117e-4
-1.298, 7.574e-4
-1.299, 7.357e-4
-1.300, 7.609e-4
-1.301, 7.777e-4
-1.302, 7.616e-4
-1.303, 8.087e-4
-1.304, 7.882e-4
-1.305, 8.161e-4
-1.306, 8.346e-4
-1.307, 8.193e-4
-1.308, 8.675e-4
-1.309, 8.478e-4
-1.310, 8.773e-4
-1.311, 8.970e-4
-1.312, 8.829e-4
-1.313, 9.334e-4
-1.314, 9.139e-4
-1.315, 9.438e-4
-1.316, 9.646e-4
-1.317, 9.510e-4
-1.318, 1.002e-3
-1.319, 9.857e-4
-1.320, 1.017e-3
-1.321, 1.039e-3
-1.322, 1.027e-3
-1.323, 1.078e-3
-1.324, 1.062e-3
-1.325, 1.094e-3
-1.326, 1.118e-3
-1.327, 1.110e-3
-1.328, 1.162e-3
-1.329, 1.144e-3
-1.330, 1.179e-3
-1.331, 1.203e-3
-1.332, 1.197e-3
-1.333, 1.250e-3
-1.334, 1.238e-3
-1.335, 1.274e-3
-1.336, 1.299e-3
-1.337, 1.294e-3
-1.338, 1.349e-3
-1.339, 1.338e-3
-1.340, 1.375e-3
-1.341, 1.402e-3
-1.342, 1.399e-3
-1.343, 1.456e-3
-1.344, 1.445e-3
-1.345, 1.483e-3
-1.346, 1.511e-3
-1.347, 1.509e-3
-1.348, 1.569e-3
-1.349, 1.559e-3
-1.350, 1.601e-3
-1.351, 1.632e-3
-1.352, 1.631e-3
-1.353, 1.692e-3
-1.354, 1.684e-3
-1.355, 1.724e-3
-1.356, 1.756e-3
-1.357, 1.756e-3
-1.358, 1.817e-3
-1.359, 1.814e-3
-1.360, 1.859e-3
-1.361, 1.891e-3
-1.362, 1.893e-3
-1.363, 1.958e-3
-1.364, 1.957e-3
-1.365, 2.001e-3
-1.366, 2.034e-3
-1.367, 2.038e-3
-1.368, 2.103e-3
-1.369, 2.101e-3
-1.370, 2.151e-3
-1.371, 2.187e-3
-1.372, 2.192e-3
-1.373, 2.259e-3
-1.374, 2.259e-3
-1.375, 2.309e-3
-1.376, 2.347e-3
-1.377, 2.361e-3
-1.378, 2.431e-3
-1.379, 2.435e-3
-1.380, 2.482e-3
-1.381, 2.513e-3
-1.382, 2.523e-3
-1.383, 2.590e-3
-1.384, 2.592e-3
-1.385, 2.647e-3
-1.386, 2.689e-3
-1.387, 2.700e-3
-1.388, 2.774e-3
-1.389, 2.777e-3
-1.390, 2.826e-3
-1.391, 2.870e-3
-1.392, 2.889e-3
-1.393, 2.966e-3
-1.394, 2.971e-3
-1.395, 3.026e-3
-1.396, 3.067e-3
-1.397, 3.080e-3
-1.398, 3.155e-3
-1.399, 3.170e-3
-1.400, 3.226e-3
-1.401, 3.278e-3
-1.402, 3.301e-3
-1.403, 3.375e-3
-1.404, 3.384e-3
-1.405, 3.445e-3
-1.406, 3.493e-3
-1.407, 3.513e-3
-1.408, 3.589e-3
-1.409, 3.599e-3
-1.410, 3.660e-3
-1.411, 3.713e-3
-1.412, 3.733e-3
-1.413, 3.812e-3
-1.414, 3.821e-3
-1.415, 3.885e-3
-1.416, 3.939e-3
-1.417, 3.967e-3
-1.418, 4.050e-3
-1.419, 4.068e-3
-1.420, 4.137e-3
-1.421, 4.190e-3
-1.422, 4.216e-3
-1.423, 4.300e-3
-1.424, 4.315e-3
-1.425, 4.382e-3
-1.426, 4.435e-3
-1.427, 4.457e-3
-1.428, 4.539e-3
-1.429, 4.554e-3
-1.430, 4.622e-3
-1.431, 4.676e-3
-1.432, 4.703e-3
-1.433, 4.791e-3
-1.434, 4.815e-3
-1.435, 4.888e-3
-1.436, 4.946e-3
-1.437, 4.971e-3
-1.438, 5.054e-3
-1.439, 5.076e-3
-1.440, 5.151e-3
-1.441, 5.206e-3
-1.442, 5.238e-3
-1.443, 5.332e-3
-1.444, 5.355e-3
-1.445, 5.424e-3
-1.446, 5.485e-3
-1.447, 5.525e-3
-1.448, 5.614e-3
-1.449, 5.638e-3
-1.450, 5.710e-3
-1.451, 5.774e-3
-1.452, 5.803e-3
-1.453, 5.885e-3
-1.454, 5.910e-3
-1.455, 5.980e-3
-1.456, 6.031e-3
-1.457, 6.055e-3
-1.458, 6.162e-3
-1.459, 6.195e-3
-1.460, 6.276e-3
-1.461, 6.342e-3
-1.462, 6.381e-3
-1.463, 6.468e-3
-1.464, 6.486e-3
-1.465, 6.556e-3
-1.466, 6.608e-3
-1.467, 6.639e-3
-1.468, 6.737e-3
-1.469, 6.775e-3
-1.470, 6.852e-3
-1.471, 6.912e-3
-1.472, 6.959e-3
-1.473, 7.035e-3
-1.474, 7.065e-3
-1.475, 7.164e-3
-1.476, 7.227e-3
-1.477, 7.255e-3
-1.478, 7.335e-3
-1.479, 7.368e-3
-1.480, 7.438e-3
-1.481, 7.476e-3
-1.482, 7.525e-3
-1.483, 7.620e-3
-1.484, 7.656e-3
-1.485, 7.725e-3
-1.486, 7.783e-3
-1.487, 7.822e-3
-1.488, 7.896e-3
-1.489, 7.913e-3
-1.490, 7.984e-3
-1.491, 8.074e-3
-1.492, 8.110e-3
-1.493, 8.202e-3
-1.494, 8.212e-3
-1.495, 8.271e-3
-1.496, 8.340e-3
-1.497, 8.386e-3
-1.498, 8.506e-3
-1.499, 8.559e-3
-1.500, 8.531e-3
-1.499, 8.411e-3
-1.498, 8.299e-3
-1.497, 8.255e-3
-1.496, 8.152e-3
-1.495, 8.103e-3
-1.494, 8.015e-3
-1.493, 7.929e-3
-1.492, 7.871e-3
-1.491, 7.788e-3
-1.490, 7.719e-3
-1.489, 7.660e-3
-1.488, 7.555e-3
-1.487, 7.510e-3
-1.486, 7.388e-3
-1.485, 7.331e-3
-1.484, 7.250e-3
-1.483, 7.157e-3
-1.482, 7.143e-3
-1.481, 7.029e-3
-1.480, 6.992e-3
-1.479, 6.936e-3
-1.478, 6.880e-3
-1.477, 6.824e-3
-1.476, 6.718e-3
-1.475, 6.664e-3
-1.474, 6.601e-3
-1.473, 6.504e-3
-1.472, 6.470e-3
-1.471, 6.383e-3
-1.470, 6.331e-3
-1.469, 6.279e-3
-1.468, 6.180e-3
-1.467, 6.156e-3
-1.466, 6.078e-3
-1.465, 6.056e-3
-1.464, 6.001e-3
-1.463, 5.893e-3
-1.462, 5.865e-3
-1.461, 5.776e-3
-1.460, 5.716e-3
-1.459, 5.669e-3
-1.458, 5.585e-3
-1.457, 5.545e-3
-1.456, 5.462e-3
-1.455, 5.431e-3
-1.454, 5.364e-3
-1.453, 5.303e-3
-1.452, 5.260e-3
-1.451, 5.180e-3
-1.450, 5.161e-3
-1.449, 5.082e-3
-1.448, 5.006e-3
-1.447, 4.978e-3
-1.446, 4.889e-3
-1.445, 4.864e-3
-1.444, 4.815e-3
-1.443, 4.732e-3
-1.442, 4.733e-3
-1.441, 4.652e-3
-1.440, 4.615e-3
-1.439, 4.550e-3
-1.438, 4.472e-3
-1.437, 4.435e-3
-1.436, 4.357e-3
-1.435, 4.333e-3
-1.434, 4.285e-3
-1.433, 4.200e-3
-1.432, 4.191e-3
-1.431, 4.111e-3
-1.430, 4.067e-3
-1.429, 4.015e-3
-1.428, 3.953e-3
-1.427, 3.940e-3
-1.426, 3.860e-3
-1.425, 3.829e-3
-1.424, 3.782e-3
-1.423, 3.733e-3
-1.422, 3.696e-3
-1.421, 3.609e-3
-1.420, 3.587e-3
-1.419, 3.540e-3
-1.418, 3.468e-3
-1.417, 3.455e-3
-1.416, 3.385e-3
-1.415, 3.364e-3
-1.414, 3.317e-3
-1.413, 3.245e-3
-1.412, 3.227e-3
-1.411, 3.154e-3
-1.410, 3.124e-3
-1.409, 3.080e-3
-1.408, 3.026e-3
-1.407, 3.017e-3
-1.406, 2.936e-3
-1.405, 2.912e-3
-1.404, 2.870e-3
-1.403, 2.808e-3
-1.402, 2.793e-3
-1.401, 2.719e-3
-1.400, 2.702e-3
-1.399, 2.659e-3
-1.398, 2.590e-3
-1.397, 2.585e-3
-1.396, 2.521e-3
-1.395, 2.518e-3
-1.394, 2.487e-3
-1.393, 2.419e-3
-1.392, 2.409e-3
-1.391, 2.329e-3
-1.390, 2.309e-3
-1.389, 2.265e-3
-1.388, 2.212e-3
-1.387, 2.210e-3
-1.386, 2.148e-3
-1.385, 2.129e-3
-1.384, 2.088e-3
-1.383, 2.033e-3
-1.382, 2.029e-3
-1.381, 1.970e-3
-1.380, 1.952e-3
-1.379, 1.916e-3
-1.378, 1.867e-3
-1.377, 1.864e-3
-1.376, 1.801e-3
-1.375, 1.785e-3
-1.374, 1.744e-3
-1.373, 1.695e-3
-1.372, 1.693e-3
-1.371, 1.632e-3
-1.370, 1.624e-3
-1.369, 1.594e-3
-1.368, 1.547e-3
-1.367, 1.545e-3
-1.366, 1.480e-3
-1.365, 1.470e-3
-1.364, 1.439e-3
-1.363, 1.393e-3
-1.362, 1.394e-3
-1.361, 1.337e-3
-1.360, 1.335e-3
-1.359, 1.303e-3
-1.358, 1.258e-3
-1.357, 1.261e-3
-1.356, 1.211e-3
-1.355, 1.211e-3
-1.354, 1.180e-3
-1.353, 1.131e-3
-1.352, 1.134e-3
-1.351, 1.077e-3
-1.350, 1.071e-3
-1.349, 1.045e-3
-1.348, 1.004e-3
-1.347, 1.012e-3
-1.346, 9.566e-4
-1.345, 9.538e-4
-1.344, 9.290e-4
-1.343, 8.894e-4
-1.342, 8.987e-4
-1.341, 8.448e-4
-1.340, 8.416e-4
-1.339, 8.174e-4
-1.338, 7.789e-4
-1.337, 7.877e-4
-1.336, 7.357e-4
-1.335, 7.360e-4
-1.334, 7.136e-4
-1.333, 6.785e-4
-1.332, 6.884e-4
-1.331, 6.354e-4
-1.330, 6.370e-4
-1.329, 6.158e-4
-1.328, 5.808e-4
-1.327, 5.935e-4
-1.326, 5.436e-4
-1.325, 5.466e-4
-1.324, 5.285e-4
-1.323, 4.949e-4
-1.322, 5.074e-4
-1.321, 4.603e-4
-1.320, 4.653e-4
-1.319, 4.462e-4
-1.318, 4.133e-4
-1.317, 4.279e-4
-1.316, 3.811e-4
-1.315, 3.869e-4
-1.314, 3.702e-4
-1.313, 3.386e-4
-1.312, 3.544e-4
-1.311, 3.084e-4
-1.310, 3.145e-4
-1.309, 2.986e-4
-1.308, 2.695e-4
-1.307, 2.864e-4
-1.306, 2.429e-4
-1.305, 2.507e-4
-1.304, 2.360e-4
-1.303, 2.068e-4
-1.302, 2.249e-4
-1.301, 1.834e-4
-1.300, 1.920e-4
-1.299, 1.787e-4
-1.298, 1.507e-4
-1.297, 1.686e-4
-1.296, 1.277e-4
-1.295, 1.377e-4
-1.294, 1.249e-4
-1.293, 9.916e-5
-1.292, 1.178e-4
-1.291, 7.770e-5
-1.290, 8.922e-5
-1.289, 7.708e-5
-1.288, 5.230e-5
-1.287, 7.240e-5
-1.286, 3.284e-5
-1.285, 4.504e-5
-1.284, 3.414e-5
-1.283, 9.538e-6
-1.282, 3.125e-5
-1.281, -7.984e-6
-1.280, 4.270e-6
-1.279, -5.468e-6
-1.278, -2.883e-5
-1.277, -6.632e-6
-1.276, -4.407e-5
-1.275, -2.998e-5
-1.274, -3.902e-5
-1.273, -6.247e-5
-1.272, -3.891e-5
-1.271, -7.609e-5
-1.270, -6.135e-5
-1.269, -6.919e-5
-1.268, -9.140e-5
-1.267, -6.788e-5
-1.266, -1.041e-4
-1.265, -8.898e-5
-1.264, -9.597e-5
-1.263, -1.185e-4
-1.262, -9.396e-5
-1.261, -1.294e-4
-1.260, -1.131e-4
-1.259, -1.203e-4
-1.258, -1.410e-4
-1.257, -1.165e-4
-1.256, -1.509e-4
-1.255, -1.348e-4
-1.254, -1.421e-4
-1.253, -1.616e-4
-1.252, -1.362e-4
-1.251, -1.700e-4
-1.250, -1.523e-4
-1.249, -1.594e-4
-1.248, -1.782e-4
-1.247, -1.527e-4
-1.246, -1.869e-4
-1.245, -1.689e-4
-1.244, -1.748e-4
-1.243, -1.939e-4
-1.242, -1.679e-4
-1.241, -2.016e-4
-1.240, -1.837e-4
-1.239, -1.886e-4
-1.238, -2.076e-4
-1.237, -1.800e-4
-1.236, -2.141e-4
-1.235, -1.952e-4
-1.234, -2.002e-4
-1.233, -2.187e-4
-1.232, -1.914e-4
-1.231, -2.247e-4
-1.230, -2.061e-4
-1.229, -2.130e-4
-1.228, -2.307e-4
-1.227, -2.028e-4
-1.226, -2.355e-4
-1.225, -2.154e-4
-1.224, -2.203e-4
-1.223, -2.378e-4
-1.222, -2.111e-4
-1.221, -2.432e-4
-1.220, -2.234e-4
-1.219, -2.280e-4
-1.218, -2.458e-4
-1.217, -2.188e-4
-1.216, -2.510e-4
-1.215, -2.311e-4
-1.214, -2.355e-4
-1.213, -2.523e-4
-1.212, -2.242e-4
-1.211, -2.563e-4
-1.210, -2.362e-4
-1.209, -2.414e-4
-1.208, -2.582e-4
-1.207, -2.310e-4
-1.206, -2.646e-4
-1.205, -2.422e-4
-1.204, -2.469e-4
-1.203, -2.644e-4
-1.202, -2.346e-4
-1.201, -2.675e-4
-1.200, -2.454e-4
-1.199, -2.495e-4
-1.198, -2.666e-4
-1.197, -2.369e-4
-1.196, -2.704e-4
-1.195, -2.484e-4
-1.194, -2.531e-4
-1.193, -2.700e-4
-1.192, -2.400e-4
-1.191, -2.735e-4
-1.190, -2.514e-4
-1.189, -2.559e-4
-1.188, -2.721e-4
-1.187, -2.429e-4
-1.186, -2.765e-4
-1.185, -2.544e-4
-1.184, -2.583e-4
-1.183, -2.749e-4
-1.182, -2.455e-4
-1.181, -2.782e-4
-1.180, -2.562e-4
-1.179, -2.606e-4
-1.178, -2.776e-4
-1.177, -2.488e-4
-1.176, -2.807e-4
-1.175, -2.590e-4
-1.174, -2.639e-4
-1.173, -2.796e-4
-1.172, -2.504e-4
-1.171, -2.839e-4
-1.170, -2.605e-4
-1.169, -2.666e-4
-1.168, -2.817e-4
-1.167, -2.525e-4
-1.166, -2.853e-4
-1.165, -2.627e-4
-1.164, -2.675e-4
-1.163, -2.835e-4
-1.162, -2.545e-4
-1.161, -2.876e-4
-1.160, -2.654e-4
-1.159, -2.736e-4
-1.158, -2.880e-4
-1.157, -2.578e-4
-1.156, -2.916e-4
-1.155, -2.691e-4
-1.154, -2.742e-4
-1.153, -2.906e-4
-1.152, -2.605e-4
-1.151, -2.940e-4
-1.150, -2.713e-4
-1.149, -2.759e-4
-1.148, -2.931e-4
-1.147, -2.627e-4
-1.146, -2.954e-4
-1.145, -2.732e-4
-1.144, -2.783e-4
-1.143, -2.946e-4
-1.142, -2.655e-4
-1.141, -2.991e-4
-1.140, -2.757e-4
-1.139, -2.816e-4
-1.138, -2.974e-4
-1.137, -2.685e-4
-1.136, -3.019e-4
-1.135, -2.798e-4
-1.134, -2.861e-4
-1.133, -3.014e-4
-1.132, -2.724e-4
-1.131, -3.064e-4
-1.130, -2.825e-4
-1.129, -2.888e-4
-1.128, -3.041e-4
-1.127, -2.751e-4
-1.126, -3.097e-4
-1.125, -2.865e-4
-1.124, -2.933e-4
-1.123, -3.092e-4
-1.122, -2.801e-4
-1.121, -3.149e-4
-1.120, -2.912e-4
-1.119, -2.994e-4
-1.118, -3.153e-4
-1.117, -2.852e-4
-1.116, -3.202e-4
-1.115, -2.968e-4
-1.114, -3.030e-4
-1.113, -3.197e-4
-1.112, -2.907e-4
-1.111, -3.269e-4
-1.110, -3.050e-4
-1.109, -3.111e-4
-1.108, -3.277e-4
-1.107, -2.990e-4
-1.106, -3.340e-4
-1.105, -3.108e-4
-1.104, -3.170e-4
-1.103, -3.342e-4
-1.102, -3.059e-4
-1.101, -3.409e-4
-1.100, -3.189e-4
-1.099, -3.254e-4
-1.098, -3.412e-4
-1.097, -3.140e-4
-1.096, -3.484e-4
-1.095, -3.266e-4
-1.094, -3.341e-4
-1.093, -3.502e-4
-1.092, -3.229e-4
-1.091, -3.580e-4
-1.090, -3.357e-4
-1.089, -3.439e-4
-1.088, -3.598e-4
-1.087, -3.329e-4
-1.086, -3.677e-4
-1.085, -3.454e-4
-1.084, -3.532e-4
-1.083, -3.695e-4
-1.082, -3.421e-4
-1.081, -3.775e-4
-1.080, -3.553e-4
-1.079, -3.633e-4
-1.078, -3.796e-4
-1.077, -3.522e-4
-1.076, -3.886e-4
-1.075, -3.669e-4
-1.074, -3.746e-4
-1.073, -3.914e-4
-1.072, -3.639e-4
-1.071, -3.998e-4
-1.070, -3.788e-4
-1.069, -3.878e-4
-1.068, -4.068e-4
-1.067, -3.778e-4
-1.066, -4.124e-4
-1.065, -3.918e-4
-1.064, -3.980e-4
-1.063, -4.153e-4
-1.062, -3.887e-4
-1.061, -4.251e-4
-1.060, -4.036e-4
-1.059, -4.126e-4
-1.058, -4.296e-4
-1.057, -4.023e-4
-1.056, -4.394e-4
-1.055, -4.183e-4
-1.054, -4.281e-4
-1.053, -4.447e-4
-1.052, -4.171e-4
-1.051, -4.526e-4
-1.050, -4.302e-4
-1.049, -4.410e-4
-1.048, -4.587e-4
-1.047, -4.328e-4
-1.046, -4.712e-4
-1.045, -4.501e-4
-1.044, -4.603e-4
-1.043, -4.795e-4
-1.042, -4.529e-4
-1.041, -4.903e-4
-1.040, -4.664e-4
-1.039, -4.761e-4
-1.038, -4.935e-4
-1.037, -4.661e-4
-1.036, -5.042e-4
-1.035, -4.832e-4
-1.034, -4.939e-4
-1.033, -5.126e-4
-1.032, -4.861e-4
-1.031, -5.250e-4
-1.030, -5.036e-4
-1.029, -5.134e-4
-1.028, -5.326e-4
-1.027, -5.052e-4
-1.026, -5.448e-4
-1.025, -5.240e-4
-1.024, -5.355e-4
-1.023, -5.537e-4
-1.022, -5.279e-4
-1.021, -5.657e-4
-1.020, -5.448e-4
-1.019, -5.559e-4
-1.018, -5.743e-4
-1.017, -5.482e-4
-1.016, -5.870e-4
-1.015, -5.665e-4
-1.014, -5.787e-4
-1.013, -5.974e-4
-1.012, -5.760e-4
-1.011, -6.152e-4
-1.010, -5.931e-4
-1.009, -6.048e-4
-1.008, -6.237e-4
-1.007, -5.984e-4
-1.006, -6.390e-4
-1.005, -6.178e-4
-1.004, -6.302e-4
-1.003, -6.487e-4
-1.002, -6.219e-4
-1.001, -6.618e-4
