Oct. 19, 2024   21:59:21
Linear Sweep Voltammetry
File: c:/users/guazh/data/banditlqround2/2024-10-18-exp578\1acid_1ac-2024-10-19t21_56_12-lsvinphos\1acid_1ac_lsv_50mvs_efin_-2100mv.bin
Data Source:  Experiment
Instrument Model:  CHI760E
Header: LSV ran at 50 mVs with Efin at -2100mV
Note: 

Init E (V) = -0.6
Final E (V) = -2.1
Scan Rate (V/s) = 0.05
Sample Interval (V) = 0.001
Quiet Time (sec) = 2
Sensitivity (A/V) = 1e-4
Comp R (ohm) = 7.5

Results:

Channel 1:
Ep = -1.852V
ip = 7.588e-4A
Ah = 9.415e-4C

Potential/V, Current/A

-0.600, 4.254e-6
-0.601, 4.402e-6
-0.602, 4.462e-6
-0.603, 4.506e-6
-0.604, 4.546e-6
-0.605, 4.585e-6
-0.606, 4.623e-6
-0.607, 4.658e-6
-0.608, 4.692e-6
-0.609, 4.731e-6
-0.610, 4.764e-6
-0.611, 4.801e-6
-0.612, 4.832e-6
-0.613, 4.863e-6
-0.614, 4.893e-6
-0.615, 4.926e-6
-0.616, 4.960e-6
-0.617, 4.988e-6
-0.618, 5.018e-6
-0.619, 5.052e-6
-0.620, 5.081e-6
-0.621, 5.114e-6
-0.622, 5.144e-6
-0.623, 5.168e-6
-0.624, 5.199e-6
-0.625, 5.235e-6
-0.626, 5.263e-6
-0.627, 5.293e-6
-0.628, 5.315e-6
-0.629, 5.343e-6
-0.630, 5.373e-6
-0.631, 5.405e-6
-0.632, 5.436e-6
-0.633, 5.457e-6
-0.634, 5.484e-6
-0.635, 5.514e-6
-0.636, 5.544e-6
-0.637, 5.571e-6
-0.638, 5.595e-6
-0.639, 5.623e-6
-0.640, 5.651e-6
-0.641, 5.686e-6
-0.642, 5.713e-6
-0.643, 5.738e-6
-0.644, 5.765e-6
-0.645, 5.793e-6
-0.646, 5.819e-6
-0.647, 5.842e-6
-0.648, 5.861e-6
-0.649, 5.890e-6
-0.650, 5.915e-6
-0.651, 5.939e-6
-0.652, 5.959e-6
-0.653, 5.985e-6
-0.654, 6.006e-6
-0.655, 6.033e-6
-0.656, 6.054e-6
-0.657, 6.077e-6
-0.658, 6.101e-6
-0.659, 6.125e-6
-0.660, 6.143e-6
-0.661, 6.170e-6
-0.662, 6.194e-6
-0.663, 6.215e-6
-0.664, 6.227e-6
-0.665, 6.250e-6
-0.666, 6.277e-6
-0.667, 6.299e-6
-0.668, 6.317e-6
-0.669, 6.337e-6
-0.670, 6.359e-6
-0.671, 6.375e-6
-0.672, 6.392e-6
-0.673, 6.410e-6
-0.674, 6.428e-6
-0.675, 6.448e-6
-0.676, 6.465e-6
-0.677, 6.480e-6
-0.678, 6.497e-6
-0.679, 6.512e-6
-0.680, 6.530e-6
-0.681, 6.549e-6
-0.682, 6.567e-6
-0.683, 6.582e-6
-0.684, 6.596e-6
-0.685, 6.614e-6
-0.686, 6.634e-6
-0.687, 6.647e-6
-0.688, 6.661e-6
-0.689, 6.675e-6
-0.690, 6.689e-6
-0.691, 6.707e-6
-0.692, 6.718e-6
-0.693, 6.728e-6
-0.694, 6.742e-6
-0.695, 6.758e-6
-0.696, 6.773e-6
-0.697, 6.784e-6
-0.698, 6.795e-6
-0.699, 6.805e-6
-0.700, 6.818e-6
-0.701, 6.831e-6
-0.702, 6.840e-6
-0.703, 6.848e-6
-0.704, 6.862e-6
-0.705, 6.873e-6
-0.706, 6.882e-6
-0.707, 6.892e-6
-0.708, 6.897e-6
-0.709, 6.906e-6
-0.710, 6.919e-6
-0.711, 6.927e-6
-0.712, 6.931e-6
-0.713, 6.937e-6
-0.714, 6.942e-6
-0.715, 6.954e-6
-0.716, 6.963e-6
-0.717, 6.967e-6
-0.718, 6.972e-6
-0.719, 6.977e-6
-0.720, 6.983e-6
-0.721, 6.991e-6
-0.722, 6.995e-6
-0.723, 7.006e-6
-0.724, 7.003e-6
-0.725, 7.008e-6
-0.726, 7.011e-6
-0.727, 7.011e-6
-0.728, 7.014e-6
-0.729, 7.016e-6
-0.730, 7.019e-6
-0.731, 7.026e-6
-0.732, 7.027e-6
-0.733, 7.026e-6
-0.734, 7.027e-6
-0.735, 7.029e-6
-0.736, 7.035e-6
-0.737, 7.035e-6
-0.738, 7.033e-6
-0.739, 7.033e-6
-0.740, 7.034e-6
-0.741, 7.036e-6
-0.742, 7.034e-6
-0.743, 7.033e-6
-0.744, 7.031e-6
-0.745, 7.033e-6
-0.746, 7.034e-6
-0.747, 7.032e-6
-0.748, 7.025e-6
-0.749, 7.025e-6
-0.750, 7.025e-6
-0.751, 7.023e-6
-0.752, 7.019e-6
-0.753, 7.013e-6
-0.754, 7.004e-6
-0.755, 7.002e-6
-0.756, 7.003e-6
-0.757, 7.004e-6
-0.758, 7.004e-6
-0.759, 6.997e-6
-0.760, 6.988e-6
-0.761, 6.984e-6
-0.762, 6.979e-6
-0.763, 6.971e-6
-0.764, 6.962e-6
-0.765, 6.957e-6
-0.766, 6.955e-6
-0.767, 6.949e-6
-0.768, 6.944e-6
-0.769, 6.937e-6
-0.770, 6.930e-6
-0.771, 6.930e-6
-0.772, 6.921e-6
-0.773, 6.910e-6
-0.774, 6.906e-6
-0.775, 6.901e-6
-0.776, 6.897e-6
-0.777, 6.890e-6
-0.778, 6.882e-6
-0.779, 6.871e-6
-0.780, 6.864e-6
-0.781, 6.861e-6
-0.782, 6.857e-6
-0.783, 6.849e-6
-0.784, 6.842e-6
-0.785, 6.845e-6
-0.786, 6.835e-6
-0.787, 6.818e-6
-0.788, 6.808e-6
-0.789, 6.800e-6
-0.790, 6.792e-6
-0.791, 6.783e-6
-0.792, 6.773e-6
-0.793, 6.762e-6
-0.794, 6.752e-6
-0.795, 6.745e-6
-0.796, 6.738e-6
-0.797, 6.728e-6
-0.798, 6.721e-6
-0.799, 6.709e-6
-0.800, 6.701e-6
-0.801, 6.696e-6
-0.802, 6.684e-6
-0.803, 6.673e-6
-0.804, 6.663e-6
-0.805, 6.658e-6
-0.806, 6.652e-6
-0.807, 6.641e-6
-0.808, 6.631e-6
-0.809, 6.623e-6
-0.810, 6.612e-6
-0.811, 6.605e-6
-0.812, 6.591e-6
-0.813, 6.576e-6
-0.814, 6.569e-6
-0.815, 6.562e-6
-0.816, 6.558e-6
-0.817, 6.557e-6
-0.818, 6.545e-6
-0.819, 6.542e-6
-0.820, 6.528e-6
-0.821, 6.518e-6
-0.822, 6.523e-6
-0.823, 6.521e-6
-0.824, 6.504e-6
-0.825, 6.488e-6
-0.826, 6.471e-6
-0.827, 6.463e-6
-0.828, 6.453e-6
-0.829, 6.441e-6
-0.830, 6.435e-6
-0.831, 6.424e-6
-0.832, 6.416e-6
-0.833, 6.414e-6
-0.834, 6.402e-6
-0.835, 6.394e-6
-0.836, 6.389e-6
-0.837, 6.380e-6
-0.838, 6.371e-6
-0.839, 6.357e-6
-0.840, 6.347e-6
-0.841, 6.341e-6
-0.842, 6.327e-6
-0.843, 6.323e-6
-0.844, 6.311e-6
-0.845, 6.300e-6
-0.846, 6.298e-6
-0.847, 6.281e-6
-0.848, 6.273e-6
-0.849, 6.264e-6
-0.850, 6.256e-6
-0.851, 6.243e-6
-0.852, 6.232e-6
-0.853, 6.222e-6
-0.854, 6.218e-6
-0.855, 6.210e-6
-0.856, 6.201e-6
-0.857, 6.196e-6
-0.858, 6.198e-6
-0.859, 6.190e-6
-0.860, 6.179e-6
-0.861, 6.171e-6
-0.862, 6.162e-6
-0.863, 6.151e-6
-0.864, 6.141e-6
-0.865, 6.133e-6
-0.866, 6.130e-6
-0.867, 6.123e-6
-0.868, 6.116e-6
-0.869, 6.105e-6
-0.870, 6.103e-6
-0.871, 6.100e-6
-0.872, 6.090e-6
-0.873, 6.077e-6
-0.874, 6.071e-6
-0.875, 6.068e-6
-0.876, 6.069e-6
-0.877, 6.059e-6
-0.878, 6.045e-6
-0.879, 6.039e-6
-0.880, 6.033e-6
-0.881, 6.025e-6
-0.882, 6.022e-6
-0.883, 6.019e-6
-0.884, 6.012e-6
-0.885, 6.006e-6
-0.886, 6.003e-6
-0.887, 5.999e-6
-0.888, 5.993e-6
-0.889, 5.984e-6
-0.890, 5.979e-6
-0.891, 5.977e-6
-0.892, 5.970e-6
-0.893, 5.966e-6
-0.894, 5.953e-6
-0.895, 5.949e-6
-0.896, 5.949e-6
-0.897, 5.937e-6
-0.898, 5.930e-6
-0.899, 5.932e-6
-0.900, 5.924e-6
-0.901, 5.917e-6
-0.902, 5.911e-6
-0.903, 5.905e-6
-0.904, 5.899e-6
-0.905, 5.890e-6
-0.906, 5.889e-6
-0.907, 5.884e-6
-0.908, 5.888e-6
-0.909, 5.879e-6
-0.910, 5.864e-6
-0.911, 5.861e-6
-0.912, 5.856e-6
-0.913, 5.852e-6
-0.914, 5.854e-6
-0.915, 5.870e-6
-0.916, 5.869e-6
-0.917, 5.856e-6
-0.918, 5.844e-6
-0.919, 5.842e-6
-0.920, 5.837e-6
-0.921, 5.837e-6
-0.922, 5.833e-6
-0.923, 5.824e-6
-0.924, 5.822e-6
-0.925, 5.819e-6
-0.926, 5.818e-6
-0.927, 5.811e-6
-0.928, 5.807e-6
-0.929, 5.801e-6
-0.930, 5.795e-6
-0.931, 5.784e-6
-0.932, 5.777e-6
-0.933, 5.772e-6
-0.934, 5.773e-6
-0.935, 5.789e-6
-0.936, 5.794e-6
-0.937, 5.788e-6
-0.938, 5.783e-6
-0.939, 5.778e-6
-0.940, 5.777e-6
-0.941, 5.786e-6
-0.942, 5.784e-6
-0.943, 5.770e-6
-0.944, 5.775e-6
-0.945, 5.782e-6
-0.946, 5.783e-6
-0.947, 5.786e-6
-0.948, 5.767e-6
-0.949, 5.772e-6
-0.950, 5.784e-6
-0.951, 5.788e-6
-0.952, 5.787e-6
-0.953, 5.780e-6
-0.954, 5.773e-6
-0.955, 5.773e-6
-0.956, 5.777e-6
-0.957, 5.774e-6
-0.958, 5.763e-6
-0.959, 5.756e-6
-0.960, 5.753e-6
-0.961, 5.759e-6
-0.962, 5.767e-6
-0.963, 5.773e-6
-0.964, 5.770e-6
-0.965, 5.760e-6
-0.966, 5.755e-6
-0.967, 5.756e-6
-0.968, 5.760e-6
-0.969, 5.755e-6
-0.970, 5.745e-6
-0.971, 5.737e-6
-0.972, 5.728e-6
-0.973, 5.726e-6
-0.974, 5.721e-6
-0.975, 5.727e-6
-0.976, 5.735e-6
-0.977, 5.726e-6
-0.978, 5.711e-6
-0.979, 5.701e-6
-0.980, 5.708e-6
-0.981, 5.713e-6
-0.982, 5.708e-6
-0.983, 5.697e-6
-0.984, 5.690e-6
-0.985, 5.685e-6
-0.986, 5.681e-6
-0.987, 5.677e-6
-0.988, 5.678e-6
-0.989, 5.670e-6
-0.990, 5.670e-6
-0.991, 5.666e-6
-0.992, 5.663e-6
-0.993, 5.661e-6
-0.994, 5.656e-6
-0.995, 5.665e-6
-0.996, 5.659e-6
-0.997, 5.657e-6
-0.998, 5.656e-6
-0.999, 5.648e-6
-1.000, 5.643e-6
-1.001, 5.649e-6
-1.002, 5.661e-6
-1.003, 5.662e-6
-1.004, 5.672e-6
-1.005, 5.685e-6
-1.006, 5.679e-6
-1.007, 5.674e-6
-1.008, 5.680e-6
-1.009, 5.682e-6
-1.010, 5.675e-6
-1.011, 5.684e-6
-1.012, 5.693e-6
-1.013, 5.688e-6
-1.014, 5.673e-6
-1.015, 5.666e-6
-1.016, 5.676e-6
-1.017, 5.688e-6
-1.018, 5.688e-6
-1.019, 5.673e-6
-1.020, 5.697e-6
-1.021, 5.708e-6
-1.022, 5.713e-6
-1.023, 5.705e-6
-1.024, 5.708e-6
-1.025, 5.709e-6
-1.026, 5.701e-6
-1.027, 5.715e-6
-1.028, 5.709e-6
-1.029, 5.693e-6
-1.030, 5.692e-6
-1.031, 5.692e-6
-1.032, 5.688e-6
-1.033, 5.682e-6
-1.034, 5.692e-6
-1.035, 5.695e-6
-1.036, 5.691e-6
-1.037, 5.695e-6
-1.038, 5.680e-6
-1.039, 5.684e-6
-1.040, 5.753e-6
-1.041, 5.815e-6
-1.042, 5.831e-6
-1.043, 5.919e-6
-1.044, 5.895e-6
-1.045, 5.829e-6
-1.046, 5.810e-6
-1.047, 5.824e-6
-1.048, 5.868e-6
-1.049, 6.116e-6
-1.050, 6.251e-6
-1.051, 6.258e-6
-1.052, 6.159e-6
-1.053, 6.113e-6
-1.054, 6.052e-6
-1.055, 5.941e-6
-1.056, 5.884e-6
-1.057, 5.845e-6
-1.058, 5.834e-6
-1.059, 5.828e-6
-1.060, 5.795e-6
-1.061, 5.782e-6
-1.062, 5.762e-6
-1.063, 5.769e-6
-1.064, 5.770e-6
-1.065, 5.771e-6
-1.066, 5.755e-6
-1.067, 5.749e-6
-1.068, 5.756e-6
-1.069, 5.759e-6
-1.070, 5.764e-6
-1.071, 5.765e-6
-1.072, 5.768e-6
-1.073, 5.775e-6
-1.074, 5.773e-6
-1.075, 5.781e-6
-1.076, 5.790e-6
-1.077, 5.831e-6
-1.078, 5.882e-6
-1.079, 5.907e-6
-1.080, 5.934e-6
-1.081, 6.023e-6
-1.082, 6.158e-6
-1.083, 6.203e-6
-1.084, 6.220e-6
-1.085, 6.245e-6
-1.086, 6.264e-6
-1.087, 6.271e-6
-1.088, 6.262e-6
-1.089, 6.274e-6
-1.090, 6.285e-6
-1.091, 6.289e-6
-1.092, 6.270e-6
-1.093, 6.261e-6
-1.094, 6.250e-6
-1.095, 6.226e-6
-1.096, 6.202e-6
-1.097, 6.216e-6
-1.098, 6.220e-6
-1.099, 6.230e-6
-1.100, 6.243e-6
-1.101, 6.256e-6
-1.102, 6.273e-6
-1.103, 6.295e-6
-1.104, 6.313e-6
-1.105, 6.327e-6
-1.106, 6.352e-6
-1.107, 6.379e-6
-1.108, 6.402e-6
-1.109, 6.420e-6
-1.110, 6.446e-6
-1.111, 6.484e-6
-1.112, 6.519e-6
-1.113, 6.549e-6
-1.114, 6.590e-6
-1.115, 6.615e-6
-1.116, 6.650e-6
-1.117, 6.699e-6
-1.118, 6.743e-6
-1.119, 6.769e-6
-1.120, 6.789e-6
-1.121, 6.801e-6
-1.122, 6.818e-6
-1.123, 6.842e-6
-1.124, 6.878e-6
-1.125, 6.894e-6
-1.126, 6.900e-6
-1.127, 6.926e-6
-1.128, 6.943e-6
-1.129, 6.958e-6
-1.130, 6.950e-6
-1.131, 6.940e-6
-1.132, 6.951e-6
-1.133, 6.966e-6
-1.134, 6.971e-6
-1.135, 6.973e-6
-1.136, 6.975e-6
-1.137, 6.981e-6
-1.138, 6.990e-6
-1.139, 7.001e-6
-1.140, 7.014e-6
-1.141, 7.020e-6
-1.142, 7.028e-6
-1.143, 7.035e-6
-1.144, 7.043e-6
-1.145, 7.059e-6
-1.146, 7.080e-6
-1.147, 7.115e-6
-1.148, 7.116e-6
-1.149, 7.113e-6
-1.150, 7.119e-6
-1.151, 7.135e-6
-1.152, 7.149e-6
-1.153, 7.164e-6
-1.154, 7.192e-6
-1.155, 7.206e-6
-1.156, 7.218e-6
-1.157, 7.247e-6
-1.158, 7.280e-6
-1.159, 7.288e-6
-1.160, 7.300e-6
-1.161, 7.315e-6
-1.162, 7.332e-6
-1.163, 7.353e-6
-1.164, 7.368e-6
-1.165, 7.385e-6
-1.166, 7.403e-6
-1.167, 7.415e-6
-1.168, 7.429e-6
-1.169, 7.443e-6
-1.170, 7.476e-6
-1.171, 7.513e-6
-1.172, 7.509e-6
-1.173, 7.521e-6
-1.174, 7.523e-6
-1.175, 7.529e-6
-1.176, 7.549e-6
-1.177, 7.592e-6
-1.178, 7.608e-6
-1.179, 7.630e-6
-1.180, 7.639e-6
-1.181, 7.656e-6
-1.182, 7.673e-6
-1.183, 7.688e-6
-1.184, 7.712e-6
-1.185, 7.734e-6
-1.186, 7.745e-6
-1.187, 7.756e-6
-1.188, 7.772e-6
-1.189, 7.802e-6
-1.190, 7.828e-6
-1.191, 7.852e-6
-1.192, 7.866e-6
-1.193, 7.881e-6
-1.194, 7.891e-6
-1.195, 7.916e-6
-1.196, 7.956e-6
-1.197, 7.964e-6
-1.198, 7.988e-6
-1.199, 8.028e-6
-1.200, 8.022e-6
-1.201, 8.013e-6
-1.202, 8.045e-6
-1.203, 8.055e-6
-1.204, 8.065e-6
-1.205, 8.087e-6
-1.206, 8.106e-6
-1.207, 8.120e-6
-1.208, 8.142e-6
-1.209, 8.161e-6
-1.210, 8.195e-6
-1.211, 8.213e-6
-1.212, 8.223e-6
-1.213, 8.241e-6
-1.214, 8.264e-6
-1.215, 8.293e-6
-1.216, 8.312e-6
-1.217, 8.326e-6
-1.218, 8.350e-6
-1.219, 8.384e-6
-1.220, 8.420e-6
-1.221, 8.412e-6
-1.222, 8.435e-6
-1.223, 8.453e-6
-1.224, 8.469e-6
-1.225, 8.482e-6
-1.226, 8.498e-6
-1.227, 8.507e-6
-1.228, 8.520e-6
-1.229, 8.524e-6
-1.230, 8.477e-6
-1.231, 8.478e-6
-1.232, 8.499e-6
-1.233, 8.525e-6
-1.234, 8.542e-6
-1.235, 8.558e-6
-1.236, 8.572e-6
-1.237, 8.568e-6
-1.238, 8.589e-6
-1.239, 8.604e-6
-1.240, 8.624e-6
-1.241, 8.648e-6
-1.242, 8.661e-6
-1.243, 8.673e-6
-1.244, 8.683e-6
-1.245, 8.685e-6
-1.246, 8.705e-6
-1.247, 8.747e-6
-1.248, 8.761e-6
-1.249, 8.797e-6
-1.250, 8.812e-6
-1.251, 8.843e-6
-1.252, 8.865e-6
-1.253, 8.886e-6
-1.254, 8.894e-6
-1.255, 8.902e-6
-1.256, 8.911e-6
-1.257, 8.925e-6
-1.258, 8.924e-6
-1.259, 8.926e-6
-1.260, 8.943e-6
-1.261, 8.959e-6
-1.262, 8.972e-6
-1.263, 8.987e-6
-1.264, 9.004e-6
-1.265, 9.013e-6
-1.266, 9.030e-6
-1.267, 9.039e-6
-1.268, 9.055e-6
-1.269, 9.073e-6
-1.270, 9.093e-6
-1.271, 9.117e-6
-1.272, 9.134e-6
-1.273, 9.145e-6
-1.274, 9.158e-6
-1.275, 9.164e-6
-1.276, 9.183e-6
-1.277, 9.205e-6
-1.278, 9.233e-6
-1.279, 9.272e-6
-1.280, 9.290e-6
-1.281, 9.294e-6
-1.282, 9.289e-6
-1.283, 9.298e-6
-1.284, 9.296e-6
-1.285, 9.301e-6
-1.286, 9.324e-6
-1.287, 9.354e-6
-1.288, 9.381e-6
-1.289, 9.398e-6
-1.290, 9.389e-6
-1.291, 9.396e-6
-1.292, 9.405e-6
-1.293, 9.417e-6
-1.294, 9.424e-6
-1.295, 9.442e-6
-1.296, 9.467e-6
-1.297, 9.492e-6
-1.298, 9.509e-6
-1.299, 9.531e-6
-1.300, 9.555e-6
-1.301, 9.563e-6
-1.302, 9.571e-6
-1.303, 9.583e-6
-1.304, 9.638e-6
-1.305, 9.671e-6
-1.306, 9.688e-6
-1.307, 9.696e-6
-1.308, 9.696e-6
-1.309, 9.693e-6
-1.310, 9.703e-6
-1.311, 9.717e-6
-1.312, 9.727e-6
-1.313, 9.724e-6
-1.314, 9.739e-6
-1.315, 9.748e-6
-1.316, 9.753e-6
-1.317, 9.770e-6
-1.318, 9.798e-6
-1.319, 9.831e-6
-1.320, 9.833e-6
-1.321, 9.822e-6
-1.322, 9.837e-6
-1.323, 9.844e-6
-1.324, 9.857e-6
-1.325, 9.876e-6
-1.326, 9.911e-6
-1.327, 9.896e-6
-1.328, 9.898e-6
-1.329, 9.903e-6
-1.330, 9.905e-6
-1.331, 9.923e-6
-1.332, 9.927e-6
-1.333, 9.947e-6
-1.334, 9.966e-6
-1.335, 9.977e-6
-1.336, 1.000e-5
-1.337, 9.990e-6
-1.338, 1.001e-5
-1.339, 1.001e-5
-1.340, 1.003e-5
-1.341, 1.005e-5
-1.342, 1.005e-5
-1.343, 1.006e-5
-1.344, 1.008e-5
-1.345, 1.010e-5
-1.346, 1.012e-5
-1.347, 1.012e-5
-1.348, 1.013e-5
-1.349, 1.014e-5
-1.350, 1.016e-5
-1.351, 1.017e-5
-1.352, 1.020e-5
-1.353, 1.023e-5
-1.354, 1.025e-5
-1.355, 1.026e-5
-1.356, 1.028e-5
-1.357, 1.028e-5
-1.358, 1.029e-5
-1.359, 1.031e-5
-1.360, 1.034e-5
-1.361, 1.036e-5
-1.362, 1.037e-5
-1.363, 1.037e-5
-1.364, 1.038e-5
-1.365, 1.041e-5
-1.366, 1.043e-5
-1.367, 1.044e-5
-1.368, 1.044e-5
-1.369, 1.043e-5
-1.370, 1.045e-5
-1.371, 1.047e-5
-1.372, 1.048e-5
-1.373, 1.049e-5
-1.374, 1.049e-5
-1.375, 1.052e-5
-1.376, 1.055e-5
-1.377, 1.056e-5
-1.378, 1.058e-5
-1.379, 1.060e-5
-1.380, 1.059e-5
-1.381, 1.060e-5
-1.382, 1.062e-5
-1.383, 1.064e-5
-1.384, 1.065e-5
-1.385, 1.067e-5
-1.386, 1.069e-5
-1.387, 1.070e-5
-1.388, 1.071e-5
-1.389, 1.072e-5
-1.390, 1.074e-5
-1.391, 1.075e-5
-1.392, 1.074e-5
-1.393, 1.074e-5
-1.394, 1.076e-5
-1.395, 1.077e-5
-1.396, 1.079e-5
-1.397, 1.080e-5
-1.398, 1.083e-5
-1.399, 1.085e-5
-1.400, 1.087e-5
-1.401, 1.088e-5
-1.402, 1.089e-5
-1.403, 1.091e-5
-1.404, 1.093e-5
-1.405, 1.096e-5
-1.406, 1.101e-5
-1.407, 1.103e-5
-1.408, 1.105e-5
-1.409, 1.107e-5
-1.410, 1.109e-5
-1.411, 1.111e-5
-1.412, 1.113e-5
-1.413, 1.115e-5
-1.414, 1.118e-5
-1.415, 1.121e-5
-1.416, 1.121e-5
-1.417, 1.123e-5
-1.418, 1.123e-5
-1.419, 1.124e-5
-1.420, 1.129e-5
-1.421, 1.130e-5
-1.422, 1.133e-5
-1.423, 1.132e-5
-1.424, 1.133e-5
-1.425, 1.139e-5
-1.426, 1.144e-5
-1.427, 1.145e-5
-1.428, 1.143e-5
-1.429, 1.144e-5
-1.430, 1.147e-5
-1.431, 1.149e-5
-1.432, 1.150e-5
-1.433, 1.153e-5
-1.434, 1.155e-5
-1.435, 1.156e-5
-1.436, 1.160e-5
-1.437, 1.161e-5
-1.438, 1.164e-5
-1.439, 1.166e-5
-1.440, 1.168e-5
-1.441, 1.170e-5
-1.442, 1.173e-5
-1.443, 1.175e-5
-1.444, 1.176e-5
-1.445, 1.178e-5
-1.446, 1.181e-5
-1.447, 1.185e-5
-1.448, 1.188e-5
-1.449, 1.191e-5
-1.450, 1.193e-5
-1.451, 1.197e-5
-1.452, 1.198e-5
-1.453, 1.202e-5
-1.454, 1.203e-5
-1.455, 1.205e-5
-1.456, 1.208e-5
-1.457, 1.210e-5
-1.458, 1.213e-5
-1.459, 1.216e-5
-1.460, 1.218e-5
-1.461, 1.225e-5
-1.462, 1.227e-5
-1.463, 1.227e-5
-1.464, 1.231e-5
-1.465, 1.236e-5
-1.466, 1.239e-5
-1.467, 1.242e-5
-1.468, 1.244e-5
-1.469, 1.248e-5
-1.470, 1.254e-5
-1.471, 1.257e-5
-1.472, 1.260e-5
-1.473, 1.264e-5
-1.474, 1.268e-5
-1.475, 1.273e-5
-1.476, 1.277e-5
-1.477, 1.283e-5
-1.478, 1.286e-5
-1.479, 1.289e-5
-1.480, 1.294e-5
-1.481, 1.300e-5
-1.482, 1.301e-5
-1.483, 1.304e-5
-1.484, 1.310e-5
-1.485, 1.316e-5
-1.486, 1.321e-5
-1.487, 1.325e-5
-1.488, 1.332e-5
-1.489, 1.336e-5
-1.490, 1.336e-5
-1.491, 1.343e-5
-1.492, 1.347e-5
-1.493, 1.356e-5
-1.494, 1.361e-5
-1.495, 1.367e-5
-1.496, 1.372e-5
-1.497, 1.375e-5
-1.498, 1.381e-5
-1.499, 1.388e-5
-1.500, 1.392e-5
-1.501, 1.397e-5
-1.502, 1.403e-5
-1.503, 1.409e-5
-1.504, 1.417e-5
-1.505, 1.426e-5
-1.506, 1.433e-5
-1.507, 1.441e-5
-1.508, 1.446e-5
-1.509, 1.454e-5
-1.510, 1.462e-5
-1.511, 1.467e-5
-1.512, 1.474e-5
-1.513, 1.486e-5
-1.514, 1.492e-5
-1.515, 1.500e-5
-1.516, 1.510e-5
-1.517, 1.520e-5
-1.518, 1.526e-5
-1.519, 1.537e-5
-1.520, 1.548e-5
-1.521, 1.555e-5
-1.522, 1.561e-5
-1.523, 1.571e-5
-1.524, 1.579e-5
-1.525, 1.590e-5
-1.526, 1.601e-5
-1.527, 1.612e-5
-1.528, 1.622e-5
-1.529, 1.633e-5
-1.530, 1.643e-5
-1.531, 1.656e-5
-1.532, 1.670e-5
-1.533, 1.683e-5
-1.534, 1.697e-5
-1.535, 1.710e-5
-1.536, 1.723e-5
-1.537, 1.737e-5
-1.538, 1.750e-5
-1.539, 1.758e-5
-1.540, 1.771e-5
-1.541, 1.788e-5
-1.542, 1.803e-5
-1.543, 1.816e-5
-1.544, 1.839e-5
-1.545, 1.858e-5
-1.546, 1.872e-5
-1.547, 1.888e-5
-1.548, 1.908e-5
-1.549, 1.928e-5
-1.550, 1.942e-5
-1.551, 1.957e-5
-1.552, 1.978e-5
-1.553, 1.997e-5
-1.554, 2.010e-5
-1.555, 2.027e-5
-1.556, 2.048e-5
-1.557, 2.071e-5
-1.558, 2.094e-5
-1.559, 2.116e-5
-1.560, 2.142e-5
-1.561, 2.166e-5
-1.562, 2.190e-5
-1.563, 2.215e-5
-1.564, 2.238e-5
-1.565, 2.263e-5
-1.566, 2.290e-5
-1.567, 2.319e-5
-1.568, 2.354e-5
-1.569, 2.384e-5
-1.570, 2.498e-5
-1.571, 2.660e-5
-1.572, 2.672e-5
-1.573, 2.682e-5
-1.574, 2.683e-5
-1.575, 2.699e-5
-1.576, 2.656e-5
-1.577, 2.665e-5
-1.578, 2.693e-5
-1.579, 2.730e-5
-1.580, 2.777e-5
-1.581, 2.811e-5
-1.582, 2.857e-5
-1.583, 2.925e-5
-1.584, 2.982e-5
-1.585, 3.067e-5
-1.586, 3.152e-5
-1.587, 3.215e-5
-1.588, 3.285e-5
-1.589, 3.326e-5
-1.590, 3.358e-5
-1.591, 3.368e-5
-1.592, 3.379e-5
-1.593, 3.416e-5
-1.594, 3.474e-5
-1.595, 3.519e-5
-1.596, 3.554e-5
-1.597, 3.595e-5
-1.598, 3.650e-5
-1.599, 3.712e-5
-1.600, 3.768e-5
-1.601, 3.811e-5
-1.602, 3.879e-5
-1.603, 3.935e-5
-1.604, 4.002e-5
-1.605, 4.060e-5
-1.606, 4.123e-5
-1.607, 4.197e-5
-1.608, 4.253e-5
-1.609, 4.315e-5
-1.610, 4.376e-5
-1.611, 4.438e-5
-1.612, 4.510e-5
-1.613, 4.584e-5
-1.614, 4.657e-5
-1.615, 4.731e-5
-1.616, 4.806e-5
-1.617, 4.885e-5
-1.618, 4.962e-5
-1.619, 5.047e-5
-1.620, 5.135e-5
-1.621, 5.223e-5
-1.622, 5.320e-5
-1.623, 5.405e-5
-1.624, 5.496e-5
-1.625, 5.590e-5
-1.626, 5.687e-5
-1.627, 5.783e-5
-1.628, 5.875e-5
-1.629, 5.973e-5
-1.630, 6.064e-5
-1.631, 6.173e-5
-1.632, 6.287e-5
-1.633, 6.398e-5
-1.634, 6.498e-5
-1.635, 6.595e-5
-1.636, 6.705e-5
-1.637, 6.816e-5
-1.638, 6.934e-5
-1.639, 7.054e-5
-1.640, 7.182e-5
-1.641, 7.301e-5
-1.642, 7.418e-5
-1.643, 7.527e-5
-1.644, 7.634e-5
-1.645, 7.749e-5
-1.646, 7.895e-5
-1.647, 8.011e-5
-1.648, 8.131e-5
-1.649, 8.253e-5
-1.650, 8.381e-5
-1.651, 8.511e-5
-1.652, 8.649e-5
-1.653, 8.784e-5
-1.654, 8.920e-5
-1.655, 9.053e-5
-1.656, 9.183e-5
-1.657, 9.304e-5
-1.658, 9.430e-5
-1.659, 9.567e-5
-1.660, 9.713e-5
-1.661, 9.858e-5
-1.662, 1.001e-4
-1.663, 1.015e-4
-1.664, 1.030e-4
-1.665, 1.045e-4
-1.666, 1.060e-4
-1.667, 1.073e-4
-1.668, 1.087e-4
-1.669, 1.101e-4
-1.670, 1.116e-4
-1.671, 1.131e-4
-1.672, 1.145e-4
-1.673, 1.160e-4
-1.674, 1.173e-4
-1.675, 1.187e-4
-1.676, 1.202e-4
-1.677, 1.217e-4
-1.678, 1.233e-4
-1.679, 1.246e-4
-1.680, 1.260e-4
-1.681, 1.273e-4
-1.682, 1.289e-4
-1.683, 1.303e-4
-1.684, 1.316e-4
-1.685, 1.329e-4
-1.686, 1.343e-4
-1.687, 1.358e-4
-1.688, 1.373e-4
-1.689, 1.386e-4
-1.690, 1.399e-4
-1.691, 1.413e-4
-1.692, 1.427e-4
-1.693, 1.441e-4
-1.694, 1.455e-4
-1.695, 1.470e-4
-1.696, 1.479e-4
-1.697, 1.491e-4
-1.698, 1.505e-4
-1.699, 1.517e-4
-1.700, 1.531e-4
-1.701, 1.547e-4
-1.702, 1.563e-4
-1.703, 1.580e-4
-1.704, 1.596e-4
-1.705, 1.614e-4
-1.706, 1.631e-4
-1.707, 1.649e-4
-1.708, 1.670e-4
-1.709, 1.691e-4
-1.710, 1.712e-4
-1.711, 1.734e-4
-1.712, 1.756e-4
-1.713, 1.778e-4
-1.714, 1.800e-4
-1.715, 1.824e-4
-1.716, 1.849e-4
-1.717, 1.874e-4
-1.718, 1.899e-4
-1.719, 1.925e-4
-1.720, 1.951e-4
-1.721, 1.978e-4
-1.722, 2.005e-4
-1.723, 2.033e-4
-1.724, 2.063e-4
-1.725, 2.092e-4
-1.726, 2.121e-4
-1.727, 2.151e-4
-1.728, 2.182e-4
-1.729, 2.214e-4
-1.730, 2.246e-4
-1.731, 2.279e-4
-1.732, 2.313e-4
-1.733, 2.344e-4
-1.734, 2.377e-4
-1.735, 2.413e-4
-1.736, 2.448e-4
-1.737, 2.482e-4
-1.738, 2.519e-4
-1.739, 2.556e-4
-1.740, 2.594e-4
-1.741, 2.632e-4
-1.742, 2.671e-4
-1.743, 2.711e-4
-1.744, 2.750e-4
-1.745, 2.791e-4
-1.746, 2.833e-4
-1.747, 2.873e-4
-1.748, 2.915e-4
-1.749, 2.958e-4
-1.750, 3.000e-4
-1.751, 3.043e-4
-1.752, 3.088e-4
-1.753, 3.134e-4
-1.754, 3.180e-4
-1.755, 3.226e-4
-1.756, 3.271e-4
-1.757, 3.318e-4
-1.758, 3.368e-4
-1.759, 3.417e-4
-1.760, 3.467e-4
-1.761, 3.518e-4
-1.762, 3.569e-4
-1.763, 3.621e-4
-1.764, 3.673e-4
-1.765, 3.726e-4
-1.766, 3.778e-4
-1.767, 3.832e-4
-1.768, 3.887e-4
-1.769, 3.942e-4
-1.770, 3.998e-4
-1.771, 4.054e-4
-1.772, 4.111e-4
-1.773, 4.169e-4
-1.774, 4.227e-4
-1.775, 4.285e-4
-1.776, 4.343e-4
-1.777, 4.403e-4
-1.778, 4.463e-4
-1.779, 4.524e-4
-1.780, 4.585e-4
-1.781, 4.645e-4
-1.782, 4.707e-4
-1.783, 4.769e-4
-1.784, 4.834e-4
-1.785, 4.900e-4
-1.786, 4.966e-4
-1.787, 5.031e-4
-1.788, 5.093e-4
-1.789, 5.157e-4
-1.790, 5.224e-4
-1.791, 5.294e-4
-1.792, 5.364e-4
-1.793, 5.432e-4
-1.794, 5.498e-4
-1.795, 5.565e-4
-1.796, 5.633e-4
-1.797, 5.704e-4
-1.798, 5.776e-4
-1.799, 5.847e-4
-1.800, 5.917e-4
-1.801, 5.989e-4
-1.802, 6.062e-4
-1.803, 6.137e-4
-1.804, 6.210e-4
-1.805, 6.284e-4
-1.806, 6.358e-4
-1.807, 6.434e-4
-1.808, 6.510e-4
-1.809, 6.584e-4
-1.810, 6.662e-4
-1.811, 6.740e-4
-1.812, 6.817e-4
-1.813, 6.895e-4
-1.814, 6.972e-4
-1.815, 7.050e-4
-1.816, 7.131e-4
-1.817, 7.212e-4
-1.818, 7.294e-4
-1.819, 7.374e-4
-1.820, 7.456e-4
-1.821, 7.537e-4
-1.822, 7.616e-4
-1.823, 7.698e-4
-1.824, 7.780e-4
-1.825, 7.864e-4
-1.826, 7.944e-4
-1.827, 8.029e-4
-1.828, 8.111e-4
-1.829, 8.195e-4
-1.830, 8.279e-4
-1.831, 8.363e-4
-1.832, 8.449e-4
-1.833, 8.533e-4
-1.834, 8.614e-4
-1.835, 8.699e-4
-1.836, 8.786e-4
-1.837, 8.875e-4
-1.838, 8.961e-4
-1.839, 9.049e-4
-1.840, 9.139e-4
-1.841, 9.226e-4
-1.842, 9.315e-4
-1.843, 9.403e-4
-1.844, 9.494e-4
-1.845, 9.581e-4
-1.846, 9.671e-4
-1.847, 9.762e-4
-1.848, 9.852e-4
-1.849, 9.941e-4
-1.850, 1.003e-3
-1.851, 1.010e-3
-1.852, 1.011e-3
-1.853, 1.011e-3
-1.854, 1.011e-3
-1.855, 1.011e-3
-1.856, 1.011e-3
-1.857, 1.011e-3
-1.858, 1.011e-3
-1.859, 1.011e-3
-1.860, 1.011e-3
-1.861, 1.011e-3
-1.862, 1.011e-3
-1.863, 1.011e-3
-1.864, 1.011e-3
-1.865, 1.011e-3
-1.866, 1.011e-3
-1.867, 1.011e-3
-1.868, 1.011e-3
-1.869, 1.011e-3
-1.870, 1.011e-3
-1.871, 1.011e-3
-1.872, 1.011e-3
-1.873, 1.011e-3
-1.874, 1.011e-3
-1.875, 1.011e-3
-1.876, 1.011e-3
-1.877, 1.011e-3
-1.878, 1.011e-3
-1.879, 1.011e-3
-1.880, 1.011e-3
-1.881, 1.011e-3
-1.882, 1.011e-3
-1.883, 1.011e-3
-1.884, 1.011e-3
-1.885, 1.011e-3
-1.886, 1.011e-3
-1.887, 1.011e-3
-1.888, 1.011e-3
-1.889, 1.011e-3
-1.890, 1.011e-3
-1.891, 1.011e-3
-1.892, 1.011e-3
-1.893, 1.011e-3
-1.894, 1.011e-3
-1.895, 1.011e-3
-1.896, 1.011e-3
-1.897, 1.011e-3
-1.898, 1.011e-3
-1.899, 1.011e-3
-1.900, 1.011e-3
-1.901, 1.011e-3
-1.902, 1.011e-3
-1.903, 1.011e-3
-1.904, 1.011e-3
-1.905, 1.011e-3
-1.906, 1.011e-3
-1.907, 1.011e-3
-1.908, 1.011e-3
-1.909, 1.011e-3
-1.910, 1.011e-3
-1.911, 1.011e-3
-1.912, 1.011e-3
-1.913, 1.011e-3
-1.914, 1.011e-3
-1.915, 1.011e-3
-1.916, 1.011e-3
-1.917, 1.011e-3
-1.918, 1.011e-3
-1.919, 1.011e-3
-1.920, 1.011e-3
-1.921, 1.011e-3
-1.922, 1.011e-3
-1.923, 1.011e-3
-1.924, 1.011e-3
-1.925, 1.011e-3
-1.926, 1.011e-3
-1.927, 1.011e-3
-1.928, 1.011e-3
-1.929, 1.011e-3
-1.930, 1.011e-3
-1.931, 1.011e-3
-1.932, 1.011e-3
-1.933, 1.011e-3
-1.934, 1.011e-3
-1.935, 1.011e-3
-1.936, 1.011e-3
-1.937, 1.011e-3
-1.938, 1.011e-3
-1.939, 1.011e-3
-1.940, 1.011e-3
-1.941, 1.011e-3
-1.942, 1.011e-3
-1.943, 1.011e-3
-1.944, 1.011e-3
-1.945, 1.011e-3
-1.946, 1.011e-3
-1.947, 1.011e-3
-1.948, 1.011e-3
-1.949, 1.011e-3
-1.950, 1.011e-3
-1.951, 1.011e-3
-1.952, 1.011e-3
-1.953, 1.011e-3
-1.954, 1.011e-3
-1.955, 1.011e-3
-1.956, 1.011e-3
-1.957, 1.011e-3
-1.958, 1.011e-3
-1.959, 1.011e-3
-1.960, 1.011e-3
-1.961, 1.011e-3
-1.962, 1.011e-3
-1.963, 1.011e-3
-1.964, 1.011e-3
-1.965, 1.011e-3
-1.966, 1.011e-3
-1.967, 1.011e-3
-1.968, 1.011e-3
-1.969, 1.011e-3
-1.970, 1.011e-3
-1.971, 1.011e-3
-1.972, 1.011e-3
-1.973, 1.011e-3
-1.974, 1.011e-3
-1.975, 1.011e-3
-1.976, 1.011e-3
-1.977, 1.011e-3
-1.978, 1.011e-3
-1.979, 1.011e-3
-1.980, 1.011e-3
-1.981, 1.011e-3
-1.982, 1.011e-3
-1.983, 1.011e-3
-1.984, 1.011e-3
-1.985, 1.011e-3
-1.986, 1.011e-3
-1.987, 1.011e-3
-1.988, 1.011e-3
-1.989, 1.011e-3
-1.990, 1.011e-3
-1.991, 1.011e-3
-1.992, 1.011e-3
-1.993, 1.011e-3
-1.994, 1.011e-3
-1.995, 1.011e-3
-1.996, 1.011e-3
-1.997, 1.011e-3
-1.998, 1.011e-3
-1.999, 1.011e-3
-2.000, 1.011e-3
-2.001, 1.011e-3
-2.002, 1.011e-3
-2.003, 1.011e-3
-2.004, 1.011e-3
-2.005, 1.011e-3
-2.006, 1.011e-3
-2.007, 1.011e-3
-2.008, 1.011e-3
-2.009, 1.011e-3
-2.010, 1.011e-3
-2.011, 1.011e-3
-2.012, 1.011e-3
-2.013, 1.011e-3
-2.014, 1.011e-3
-2.015, 1.011e-3
-2.016, 1.011e-3
-2.017, 1.011e-3
-2.018, 1.011e-3
-2.019, 1.011e-3
-2.020, 1.011e-3
-2.021, 1.011e-3
-2.022, 1.011e-3
-2.023, 1.011e-3
-2.024, 1.011e-3
-2.025, 1.011e-3
-2.026, 1.011e-3
-2.027, 1.011e-3
-2.028, 1.011e-3
-2.029, 1.011e-3
-2.030, 1.011e-3
-2.031, 1.011e-3
-2.032, 1.011e-3
-2.033, 1.011e-3
-2.034, 1.011e-3
-2.035, 1.011e-3
-2.036, 1.011e-3
-2.037, 1.011e-3
-2.038, 1.011e-3
-2.039, 1.011e-3
-2.040, 1.011e-3
-2.041, 1.011e-3
-2.042, 1.011e-3
-2.043, 1.011e-3
-2.044, 1.011e-3
-2.045, 1.011e-3
-2.046, 1.011e-3
-2.047, 1.011e-3
-2.048, 1.011e-3
-2.049, 1.011e-3
-2.050, 1.011e-3
-2.051, 1.011e-3
-2.052, 1.011e-3
-2.053, 1.011e-3
-2.054, 1.011e-3
-2.055, 1.011e-3
-2.056, 1.011e-3
-2.057, 1.011e-3
-2.058, 1.011e-3
-2.059, 1.011e-3
-2.060, 1.011e-3
-2.061, 1.011e-3
-2.062, 1.011e-3
-2.063, 1.011e-3
-2.064, 1.011e-3
-2.065, 1.011e-3
-2.066, 1.011e-3
-2.067, 1.011e-3
-2.068, 1.011e-3
-2.069, 1.011e-3
-2.070, 1.011e-3
-2.071, 1.011e-3
-2.072, 1.011e-3
-2.073, 1.011e-3
-2.074, 1.011e-3
-2.075, 1.011e-3
-2.076, 1.011e-3
-2.077, 1.011e-3
-2.078, 1.011e-3
-2.079, 1.011e-3
-2.080, 1.011e-3
-2.081, 1.011e-3
-2.082, 1.011e-3
-2.083, 1.011e-3
-2.084, 1.011e-3
-2.085, 1.011e-3
-2.086, 1.011e-3
-2.087, 1.011e-3
-2.088, 1.011e-3
-2.089, 1.011e-3
-2.090, 1.011e-3
-2.091, 1.011e-3
-2.092, 1.011e-3
-2.093, 1.011e-3
-2.094, 1.011e-3
-2.095, 1.011e-3
-2.096, 1.011e-3
-2.097, 1.011e-3
-2.098, 1.011e-3
-2.099, 1.011e-3
