Aug. 23, 2024   12:43:34
Cyclic Voltammetry
File: c:/users/guazh/data/20240813_batch_94_500/2024-08-15-exp169\exp169-2024-08-23t12_35_54-arkoh\exp169_cv_sr_500mvs_efin_-1400mv.bin
Data Source:  Experiment
Instrument Model:  CHI760E
Header: CV ran at 500 mVs
Note: 

Init E (V) = -1
High E (V) = -1
Low E (V) = -1.4
Final E (V) = -1
Init P/N = N
Scan Rate (V/s) = 0.5
Segment = 3
Sample Interval (V) = 0.001
Quiet Time (sec) = 2
Sensitivity (A/V) = 0.01
Comp R (ohm) = 1.7

Results:

Channel 1:
Segment 1:

Segment 2:

Segment 3:

Potential/V, Current/A

-1.000, 2.482e-5
-1.001, 6.182e-5
-1.002, 8.340e-5
-1.003, 9.882e-5
-1.004, 1.081e-4
-1.005, 1.173e-4
-1.006, 1.296e-4
-1.007, 1.358e-4
-1.008, 1.420e-4
-1.009, 1.481e-4
-1.010, 1.512e-4
-1.011, 1.605e-4
-1.012, 1.636e-4
-1.013, 1.728e-4
-1.014, 1.759e-4
-1.015, 1.790e-4
-1.016, 1.821e-4
-1.017, 1.821e-4
-1.018, 1.882e-4
-1.019, 1.913e-4
-1.020, 1.944e-4
-1.021, 2.036e-4
-1.022, 2.067e-4
-1.023, 2.129e-4
-1.024, 2.129e-4
-1.025, 2.191e-4
-1.026, 2.221e-4
-1.027, 2.252e-4
-1.028, 2.345e-4
-1.029, 2.345e-4
-1.030, 2.406e-4
-1.031, 2.437e-4
-1.032, 2.437e-4
-1.033, 2.468e-4
-1.034, 2.468e-4
-1.035, 2.499e-4
-1.036, 2.530e-4
-1.037, 2.561e-4
-1.038, 2.561e-4
-1.039, 2.591e-4
-1.040, 2.622e-4
-1.041, 2.591e-4
-1.042, 2.591e-4
-1.043, 2.591e-4
-1.044, 2.591e-4
-1.045, 2.622e-4
-1.046, 2.653e-4
-1.047, 2.653e-4
-1.048, 2.653e-4
-1.049, 2.622e-4
-1.050, 2.622e-4
-1.051, 2.622e-4
-1.052, 2.653e-4
-1.053, 2.653e-4
-1.054, 2.653e-4
-1.055, 2.684e-4
-1.056, 2.684e-4
-1.057, 2.684e-4
-1.058, 2.653e-4
-1.059, 2.684e-4
-1.060, 2.653e-4
-1.061, 2.684e-4
-1.062, 2.684e-4
-1.063, 2.684e-4
-1.064, 2.715e-4
-1.065, 2.684e-4
-1.066, 2.715e-4
-1.067, 2.684e-4
-1.068, 2.684e-4
-1.069, 2.684e-4
-1.070, 2.684e-4
-1.071, 2.715e-4
-1.072, 2.715e-4
-1.073, 2.715e-4
-1.074, 2.684e-4
-1.075, 2.684e-4
-1.076, 2.715e-4
-1.077, 2.684e-4
-1.078, 2.715e-4
-1.079, 2.715e-4
-1.080, 2.746e-4
-1.081, 2.746e-4
-1.082, 2.715e-4
-1.083, 2.746e-4
-1.084, 2.715e-4
-1.085, 2.715e-4
-1.086, 2.746e-4
-1.087, 2.746e-4
-1.088, 2.746e-4
-1.089, 2.776e-4
-1.090, 2.776e-4
-1.091, 2.746e-4
-1.092, 2.746e-4
-1.093, 2.746e-4
-1.094, 2.746e-4
-1.095, 2.776e-4
-1.096, 2.776e-4
-1.097, 2.776e-4
-1.098, 2.807e-4
-1.099, 2.776e-4
-1.100, 2.776e-4
-1.101, 2.746e-4
-1.102, 2.776e-4
-1.103, 2.776e-4
-1.104, 2.776e-4
-1.105, 2.807e-4
-1.106, 2.807e-4
-1.107, 2.807e-4
-1.108, 2.807e-4
-1.109, 2.807e-4
-1.110, 2.807e-4
-1.111, 2.807e-4
-1.112, 2.838e-4
-1.113, 2.838e-4
-1.114, 2.869e-4
-1.115, 2.838e-4
-1.116, 2.838e-4
-1.117, 2.838e-4
-1.118, 2.838e-4
-1.119, 2.838e-4
-1.120, 2.838e-4
-1.121, 2.869e-4
-1.122, 2.869e-4
-1.123, 2.900e-4
-1.124, 2.869e-4
-1.125, 2.869e-4
-1.126, 2.900e-4
-1.127, 2.869e-4
-1.128, 2.869e-4
-1.129, 2.900e-4
-1.130, 2.900e-4
-1.131, 2.931e-4
-1.132, 2.900e-4
-1.133, 2.931e-4
-1.134, 2.931e-4
-1.135, 2.931e-4
-1.136, 2.931e-4
-1.137, 2.931e-4
-1.138, 2.961e-4
-1.139, 2.961e-4
-1.140, 2.992e-4
-1.141, 2.961e-4
-1.142, 2.931e-4
-1.143, 2.992e-4
-1.144, 2.961e-4
-1.145, 2.992e-4
-1.146, 2.992e-4
-1.147, 2.992e-4
-1.148, 3.054e-4
-1.149, 3.023e-4
-1.150, 3.023e-4
-1.151, 3.023e-4
-1.152, 3.023e-4
-1.153, 3.054e-4
-1.154, 3.054e-4
-1.155, 3.085e-4
-1.156, 3.085e-4
-1.157, 3.085e-4
-1.158, 3.085e-4
-1.159, 3.115e-4
-1.160, 3.085e-4
-1.161, 3.085e-4
-1.162, 3.115e-4
-1.163, 3.146e-4
-1.164, 3.177e-4
-1.165, 3.177e-4
-1.166, 3.146e-4
-1.167, 3.146e-4
-1.168, 3.146e-4
-1.169, 3.177e-4
-1.170, 3.177e-4
-1.171, 3.208e-4
-1.172, 3.239e-4
-1.173, 3.239e-4
-1.174, 3.239e-4
-1.175, 3.239e-4
-1.176, 3.239e-4
-1.177, 3.239e-4
-1.178, 3.300e-4
-1.179, 3.300e-4
-1.180, 3.331e-4
-1.181, 3.331e-4
-1.182, 3.331e-4
-1.183, 3.331e-4
-1.184, 3.362e-4
-1.185, 3.362e-4
-1.186, 3.393e-4
-1.187, 3.393e-4
-1.188, 3.424e-4
-1.189, 3.424e-4
-1.190, 3.455e-4
-1.191, 3.455e-4
-1.192, 3.424e-4
-1.193, 3.455e-4
-1.194, 3.485e-4
-1.195, 3.516e-4
-1.196, 3.547e-4
-1.197, 3.547e-4
-1.198, 3.609e-4
-1.199, 3.578e-4
-1.200, 3.578e-4
-1.201, 3.609e-4
-1.202, 3.640e-4
-1.203, 3.670e-4
-1.204, 3.701e-4
-1.205, 3.732e-4
-1.206, 3.763e-4
-1.207, 3.763e-4
-1.208, 3.763e-4
-1.209, 3.763e-4
-1.210, 3.825e-4
-1.211, 3.825e-4
-1.212, 3.855e-4
-1.213, 3.886e-4
-1.214, 3.948e-4
-1.215, 3.948e-4
-1.216, 3.979e-4
-1.217, 4.010e-4
-1.218, 4.010e-4
-1.219, 4.071e-4
-1.220, 4.102e-4
-1.221, 4.133e-4
-1.222, 4.164e-4
-1.223, 4.195e-4
-1.224, 4.256e-4
-1.225, 4.256e-4
-1.226, 4.287e-4
-1.227, 4.349e-4
-1.228, 4.380e-4
-1.229, 4.441e-4
-1.230, 4.472e-4
-1.231, 4.534e-4
-1.232, 4.565e-4
-1.233, 4.595e-4
-1.234, 4.657e-4
-1.235, 4.657e-4
-1.236, 4.750e-4
-1.237, 4.780e-4
-1.238, 4.873e-4
-1.239, 4.935e-4
-1.240, 4.965e-4
-1.241, 5.027e-4
-1.242, 5.058e-4
-1.243, 5.120e-4
-1.244, 5.181e-4
-1.245, 5.212e-4
-1.246, 5.335e-4
-1.247, 5.397e-4
-1.248, 5.489e-4
-1.249, 5.551e-4
-1.250, 5.613e-4
-1.251, 5.705e-4
-1.252, 5.736e-4
-1.253, 5.859e-4
-1.254, 5.983e-4
-1.255, 6.106e-4
-1.256, 6.199e-4
-1.257, 6.291e-4
-1.258, 6.384e-4
-1.259, 6.445e-4
-1.260, 6.569e-4
-1.261, 6.661e-4
-1.262, 6.784e-4
-1.263, 6.908e-4
-1.264, 7.000e-4
-1.265, 7.124e-4
-1.266, 7.247e-4
-1.267, 7.370e-4
-1.268, 7.494e-4
-1.269, 7.648e-4
-1.270, 7.802e-4
-1.271, 7.956e-4
-1.272, 8.141e-4
-1.273, 8.295e-4
-1.274, 8.449e-4
-1.275, 8.634e-4
-1.276, 8.819e-4
-1.277, 8.973e-4
-1.278, 9.189e-4
-1.279, 9.436e-4
-1.280, 9.652e-4
-1.281, 9.868e-4
-1.282, 1.008e-3
-1.283, 1.030e-3
-1.284, 1.058e-3
-1.285, 1.079e-3
-1.286, 1.107e-3
-1.287, 1.138e-3
-1.288, 1.166e-3
-1.289, 1.196e-3
-1.290, 1.224e-3
-1.291, 1.255e-3
-1.292, 1.286e-3
-1.293, 1.317e-3
-1.294, 1.354e-3
-1.295, 1.388e-3
-1.296, 1.428e-3
-1.297, 1.462e-3
-1.298, 1.502e-3
-1.299, 1.539e-3
-1.300, 1.576e-3
-1.301, 1.616e-3
-1.302, 1.653e-3
-1.303, 1.699e-3
-1.304, 1.739e-3
-1.305, 1.782e-3
-1.306, 1.828e-3
-1.307, 1.865e-3
-1.308, 1.912e-3
-1.309, 1.952e-3
-1.310, 1.998e-3
-1.311, 2.041e-3
-1.312, 2.087e-3
-1.313, 2.134e-3
-1.314, 2.183e-3
-1.315, 2.229e-3
-1.316, 2.275e-3
-1.317, 2.319e-3
-1.318, 2.368e-3
-1.319, 2.414e-3
-1.320, 2.464e-3
-1.321, 2.510e-3
-1.322, 2.559e-3
-1.323, 2.608e-3
-1.324, 2.655e-3
-1.325, 2.701e-3
-1.326, 2.747e-3
-1.327, 2.797e-3
-1.328, 2.846e-3
-1.329, 2.898e-3
-1.330, 2.948e-3
-1.331, 2.997e-3
-1.332, 3.046e-3
-1.333, 3.096e-3
-1.334, 3.145e-3
-1.335, 3.197e-3
-1.336, 3.247e-3
-1.337, 3.302e-3
-1.338, 3.351e-3
-1.339, 3.407e-3
-1.340, 3.456e-3
-1.341, 3.509e-3
-1.342, 3.558e-3
-1.343, 3.610e-3
-1.344, 3.666e-3
-1.345, 3.718e-3
-1.346, 3.774e-3
-1.347, 3.826e-3
-1.348, 3.882e-3
-1.349, 3.934e-3
-1.350, 3.984e-3
-1.351, 4.039e-3
-1.352, 4.091e-3
-1.353, 4.150e-3
-1.354, 4.202e-3
-1.355, 4.255e-3
-1.356, 4.310e-3
-1.357, 4.360e-3
-1.358, 4.415e-3
-1.359, 4.468e-3
-1.360, 4.520e-3
-1.361, 4.579e-3
-1.362, 4.631e-3
-1.363, 4.686e-3
-1.364, 4.739e-3
-1.365, 4.794e-3
-1.366, 4.841e-3
-1.367, 4.887e-3
-1.368, 4.942e-3
-1.369, 4.995e-3
-1.370, 5.050e-3
-1.371, 5.106e-3
-1.372, 5.158e-3
-1.373, 5.217e-3
-1.374, 5.269e-3
-1.375, 5.319e-3
-1.376, 5.371e-3
-1.377, 5.423e-3
-1.378, 5.482e-3
-1.379, 5.537e-3
-1.380, 5.596e-3
-1.381, 5.642e-3
-1.382, 5.698e-3
-1.383, 5.753e-3
-1.384, 5.806e-3
-1.385, 5.861e-3
-1.386, 5.917e-3
-1.387, 5.972e-3
-1.388, 6.031e-3
-1.389, 6.086e-3
-1.390, 6.148e-3
-1.391, 6.203e-3
-1.392, 6.253e-3
-1.393, 6.305e-3
-1.394, 6.364e-3
-1.395, 6.422e-3
-1.396, 6.484e-3
-1.397, 6.543e-3
-1.398, 6.598e-3
-1.399, 6.657e-3
-1.400, 6.644e-3
-1.399, 6.558e-3
-1.398, 6.487e-3
-1.397, 6.432e-3
-1.396, 6.370e-3
-1.395, 6.308e-3
-1.394, 6.247e-3
-1.393, 6.185e-3
-1.392, 6.126e-3
-1.391, 6.071e-3
-1.390, 6.006e-3
-1.389, 5.947e-3
-1.388, 5.886e-3
-1.387, 5.824e-3
-1.386, 5.769e-3
-1.385, 5.710e-3
-1.384, 5.651e-3
-1.383, 5.590e-3
-1.382, 5.534e-3
-1.381, 5.473e-3
-1.380, 5.414e-3
-1.379, 5.359e-3
-1.378, 5.300e-3
-1.377, 5.245e-3
-1.376, 5.186e-3
-1.375, 5.134e-3
-1.374, 5.078e-3
-1.373, 5.023e-3
-1.372, 4.970e-3
-1.371, 4.915e-3
-1.370, 4.856e-3
-1.369, 4.801e-3
-1.368, 4.757e-3
-1.367, 4.708e-3
-1.366, 4.659e-3
-1.365, 4.606e-3
-1.364, 4.557e-3
-1.363, 4.505e-3
-1.362, 4.452e-3
-1.361, 4.400e-3
-1.360, 4.347e-3
-1.359, 4.298e-3
-1.358, 4.255e-3
-1.357, 4.199e-3
-1.356, 4.147e-3
-1.355, 4.098e-3
-1.354, 4.051e-3
-1.353, 3.999e-3
-1.352, 3.953e-3
-1.351, 3.900e-3
-1.350, 3.848e-3
-1.349, 3.802e-3
-1.348, 3.749e-3
-1.347, 3.706e-3
-1.346, 3.669e-3
-1.345, 3.617e-3
-1.344, 3.570e-3
-1.343, 3.521e-3
-1.342, 3.472e-3
-1.341, 3.422e-3
-1.340, 3.382e-3
-1.339, 3.339e-3
-1.338, 3.296e-3
-1.337, 3.253e-3
-1.336, 3.213e-3
-1.335, 3.163e-3
-1.334, 3.123e-3
-1.333, 3.080e-3
-1.332, 3.049e-3
-1.331, 3.009e-3
-1.330, 2.963e-3
-1.329, 2.923e-3
-1.328, 2.883e-3
-1.327, 2.843e-3
-1.326, 2.803e-3
-1.325, 2.760e-3
-1.324, 2.719e-3
-1.323, 2.679e-3
-1.322, 2.652e-3
-1.321, 2.612e-3
-1.320, 2.575e-3
-1.319, 2.538e-3
-1.318, 2.497e-3
-1.317, 2.460e-3
-1.316, 2.433e-3
-1.315, 2.399e-3
-1.314, 2.359e-3
-1.313, 2.322e-3
-1.312, 2.285e-3
-1.311, 2.251e-3
-1.310, 2.217e-3
-1.309, 2.183e-3
-1.308, 2.146e-3
-1.307, 2.109e-3
-1.306, 2.078e-3
-1.305, 2.044e-3
-1.304, 2.017e-3
-1.303, 1.983e-3
-1.302, 1.952e-3
-1.301, 1.921e-3
-1.300, 1.887e-3
-1.299, 1.853e-3
-1.298, 1.825e-3
-1.297, 1.791e-3
-1.296, 1.767e-3
-1.295, 1.736e-3
-1.294, 1.708e-3
-1.293, 1.680e-3
-1.292, 1.647e-3
-1.291, 1.622e-3
-1.290, 1.588e-3
-1.289, 1.563e-3
-1.288, 1.536e-3
-1.287, 1.508e-3
-1.286, 1.483e-3
-1.285, 1.455e-3
-1.284, 1.431e-3
-1.283, 1.403e-3
-1.282, 1.375e-3
-1.281, 1.354e-3
-1.280, 1.326e-3
-1.279, 1.304e-3
-1.278, 1.280e-3
-1.277, 1.258e-3
-1.276, 1.233e-3
-1.275, 1.209e-3
-1.274, 1.187e-3
-1.273, 1.162e-3
-1.272, 1.144e-3
-1.271, 1.119e-3
-1.270, 1.101e-3
-1.269, 1.079e-3
-1.268, 1.055e-3
-1.267, 1.036e-3
-1.266, 1.011e-3
-1.265, 9.929e-4
-1.264, 9.744e-4
-1.263, 9.528e-4
-1.262, 9.343e-4
-1.261, 9.158e-4
-1.260, 8.973e-4
-1.259, 8.758e-4
-1.258, 8.573e-4
-1.257, 8.388e-4
-1.256, 8.233e-4
-1.255, 8.048e-4
-1.254, 7.863e-4
-1.253, 7.709e-4
-1.252, 7.524e-4
-1.251, 7.370e-4
-1.250, 7.185e-4
-1.249, 7.031e-4
-1.248, 6.877e-4
-1.247, 6.692e-4
-1.246, 6.569e-4
-1.245, 6.384e-4
-1.244, 6.260e-4
-1.243, 6.106e-4
-1.242, 5.921e-4
-1.241, 5.798e-4
-1.240, 5.644e-4
-1.239, 5.520e-4
-1.238, 5.366e-4
-1.237, 5.243e-4
-1.236, 5.120e-4
-1.235, 4.965e-4
-1.234, 4.811e-4
-1.233, 4.688e-4
-1.232, 4.534e-4
-1.231, 4.441e-4
-1.230, 4.318e-4
-1.229, 4.195e-4
-1.228, 4.071e-4
-1.227, 3.948e-4
-1.226, 3.825e-4
-1.225, 3.701e-4
-1.224, 3.701e-4
-1.223, 3.578e-4
-1.222, 3.547e-4
-1.221, 3.424e-4
-1.220, 3.300e-4
-1.219, 3.208e-4
-1.218, 3.054e-4
-1.217, 2.931e-4
-1.216, 2.807e-4
-1.215, 2.715e-4
-1.214, 2.622e-4
-1.213, 2.499e-4
-1.212, 2.437e-4
-1.211, 2.345e-4
-1.210, 2.221e-4
-1.209, 2.129e-4
-1.208, 2.036e-4
-1.207, 1.944e-4
-1.206, 1.851e-4
-1.205, 1.759e-4
-1.204, 1.697e-4
-1.203, 1.636e-4
-1.202, 1.543e-4
-1.201, 1.451e-4
-1.200, 1.358e-4
-1.199, 1.266e-4
-1.198, 1.204e-4
-1.197, 1.111e-4
-1.196, 1.081e-4
-1.195, 9.882e-5
-1.194, 9.265e-5
-1.193, 8.648e-5
-1.192, 7.415e-5
-1.191, 7.107e-5
-1.190, 6.182e-5
-1.189, 5.873e-5
-1.188, 5.257e-5
-1.187, 4.332e-5
-1.186, 4.024e-5
-1.185, 3.099e-5
-1.184, 2.482e-5
-1.183, 1.865e-5
-1.182, 1.249e-5
-1.181, 9.405e-6
-1.180, 3.239e-6
-1.179, 1.559e-7
-1.178, -6.010e-6
-1.177, -1.218e-5
-1.176, -1.526e-5
-1.175, -2.451e-5
-1.174, -2.759e-5
-1.173, -3.376e-5
-1.172, -3.684e-5
-1.171, -3.992e-5
-1.170, -4.301e-5
-1.169, -4.609e-5
-1.168, -5.534e-5
-1.167, -5.842e-5
-1.166, -6.459e-5
-1.165, -6.767e-5
-1.164, -7.076e-5
-1.163, -7.384e-5
-1.162, -7.692e-5
-1.161, -8.000e-5
-1.160, -8.309e-5
-1.159, -8.925e-5
-1.158, -9.234e-5
-1.157, -9.850e-5
-1.156, -1.016e-4
-1.155, -1.016e-4
-1.154, -1.047e-4
-1.153, -1.078e-4
-1.152, -1.108e-4
-1.151, -1.170e-4
-1.150, -1.201e-4
-1.149, -1.232e-4
-1.148, -1.263e-4
-1.147, -1.293e-4
-1.146, -1.293e-4
-1.145, -1.324e-4
-1.144, -1.324e-4
-1.143, -1.386e-4
-1.142, -1.417e-4
-1.141, -1.448e-4
-1.140, -1.478e-4
-1.139, -1.509e-4
-1.138, -1.509e-4
-1.137, -1.540e-4
-1.136, -1.540e-4
-1.135, -1.571e-4
-1.134, -1.602e-4
-1.133, -1.602e-4
-1.132, -1.663e-4
-1.131, -1.663e-4
-1.130, -1.694e-4
-1.129, -1.694e-4
-1.128, -1.725e-4
-1.127, -1.756e-4
-1.126, -1.756e-4
-1.125, -1.817e-4
-1.124, -1.817e-4
-1.123, -1.848e-4
-1.122, -1.879e-4
-1.121, -1.848e-4
-1.120, -1.879e-4
-1.119, -1.879e-4
-1.118, -1.941e-4
-1.117, -1.941e-4
-1.116, -1.972e-4
-1.115, -2.002e-4
-1.114, -1.972e-4
-1.113, -2.033e-4
-1.112, -2.002e-4
-1.111, -2.033e-4
-1.110, -2.033e-4
-1.109, -2.064e-4
-1.108, -2.095e-4
-1.107, -2.095e-4
-1.106, -2.126e-4
-1.105, -2.126e-4
-1.104, -2.126e-4
-1.103, -2.126e-4
-1.102, -2.126e-4
-1.101, -2.157e-4
-1.100, -2.187e-4
-1.099, -2.218e-4
-1.098, -2.218e-4
-1.097, -2.249e-4
-1.096, -2.218e-4
-1.095, -2.218e-4
-1.094, -2.249e-4
-1.093, -2.249e-4
-1.092, -2.311e-4
-1.091, -2.311e-4
-1.090, -2.311e-4
-1.089, -2.311e-4
-1.088, -2.311e-4
-1.087, -2.342e-4
-1.086, -2.342e-4
-1.085, -2.342e-4
-1.084, -2.372e-4
-1.083, -2.372e-4
-1.082, -2.372e-4
-1.081, -2.403e-4
-1.080, -2.403e-4
-1.079, -2.403e-4
-1.078, -2.403e-4
-1.077, -2.434e-4
-1.076, -2.403e-4
-1.075, -2.465e-4
-1.074, -2.465e-4
-1.073, -2.465e-4
-1.072, -2.465e-4
-1.071, -2.465e-4
-1.070, -2.496e-4
-1.069, -2.465e-4
-1.068, -2.496e-4
-1.067, -2.496e-4
-1.066, -2.527e-4
-1.065, -2.527e-4
-1.064, -2.527e-4
-1.063, -2.557e-4
-1.062, -2.527e-4
-1.061, -2.527e-4
-1.060, -2.557e-4
-1.059, -2.557e-4
-1.058, -2.588e-4
-1.057, -2.588e-4
-1.056, -2.588e-4
-1.055, -2.588e-4
-1.054, -2.557e-4
-1.053, -2.588e-4
-1.052, -2.588e-4
-1.051, -2.619e-4
-1.050, -2.619e-4
-1.049, -2.619e-4
-1.048, -2.650e-4
-1.047, -2.650e-4
-1.046, -2.650e-4
-1.045, -2.650e-4
-1.044, -2.650e-4
-1.043, -2.681e-4
-1.042, -2.681e-4
-1.041, -2.712e-4
-1.040, -2.681e-4
-1.039, -2.681e-4
-1.038, -2.681e-4
-1.037, -2.681e-4
-1.036, -2.681e-4
-1.035, -2.712e-4
-1.034, -2.712e-4
-1.033, -2.712e-4
-1.032, -2.712e-4
-1.031, -2.742e-4
-1.030, -2.742e-4
-1.029, -2.742e-4
-1.028, -2.712e-4
-1.027, -2.742e-4
-1.026, -2.742e-4
-1.025, -2.804e-4
-1.024, -2.773e-4
-1.023, -2.773e-4
-1.022, -2.773e-4
-1.021, -2.773e-4
-1.020, -2.804e-4
-1.019, -2.773e-4
-1.018, -2.804e-4
-1.017, -2.804e-4
-1.016, -2.804e-4
-1.015, -2.835e-4
-1.014, -2.804e-4
-1.013, -2.804e-4
-1.012, -2.804e-4
-1.011, -2.804e-4
-1.010, -2.866e-4
-1.009, -2.835e-4
-1.008, -2.866e-4
-1.007, -2.866e-4
-1.006, -2.866e-4
-1.005, -2.866e-4
-1.004, -2.866e-4
-1.003, -2.866e-4
-1.002, -2.835e-4
-1.001, -2.897e-4
