Apr. 30, 2025   21:04:57
Cyclic Voltammetry
File: c:/users/guazh/data/banditlqround7_x0exp1108_r5/2025-04-30-exp1200\exp1200-2025-04-30t20_52_40-arkoh\exp1200_cv_50mvs_efin_-1600mv.bin
Data Source:  Experiment
Instrument Model:  CHI760E
Header: CV ran at 50 mVs
Note: 

Init E (V) = -1
High E (V) = -1
Low E (V) = -1.6
Final E (V) = -1
Init P/N = N
Scan Rate (V/s) = 0.05
Segment = 7
Sample Interval (V) = 0.001
Quiet Time (sec) = 60
Sensitivity (A/V) = 0.001
Comp R (ohm) = 1.2

Results:

Channel 1:
Segment 1:

Segment 2:

Segment 3:

Segment 4:

Segment 5:

Segment 6:

Segment 7:

Potential/V, Current/A

-1.000, 1.614e-5
-1.001, 2.141e-5
-1.002, 2.144e-5
-1.003, 2.133e-5
-1.004, 2.296e-5
-1.005, 2.419e-5
-1.006, 2.434e-5
-1.007, 2.371e-5
-1.008, 2.320e-5
-1.009, 2.438e-5
-1.010, 2.569e-5
-1.011, 2.555e-5
-1.012, 2.470e-5
-1.013, 2.439e-5
-1.014, 2.544e-5
-1.015, 2.656e-5
-1.016, 2.650e-5
-1.017, 2.542e-5
-1.018, 2.521e-5
-1.019, 2.606e-5
-1.020, 2.736e-5
-1.021, 2.715e-5
-1.022, 2.619e-5
-1.023, 2.591e-5
-1.024, 2.682e-5
-1.025, 2.779e-5
-1.026, 2.775e-5
-1.027, 2.661e-5
-1.028, 2.640e-5
-1.029, 2.742e-5
-1.030, 2.837e-5
-1.031, 2.830e-5
-1.032, 2.697e-5
-1.033, 2.677e-5
-1.034, 2.787e-5
-1.035, 2.876e-5
-1.036, 2.871e-5
-1.037, 2.757e-5
-1.038, 2.729e-5
-1.039, 2.822e-5
-1.040, 2.910e-5
-1.041, 2.899e-5
-1.042, 2.806e-5
-1.043, 2.745e-5
-1.044, 2.874e-5
-1.045, 2.965e-5
-1.046, 2.927e-5
-1.047, 2.850e-5
-1.048, 2.794e-5
-1.049, 2.899e-5
-1.050, 3.004e-5
-1.051, 2.977e-5
-1.052, 2.877e-5
-1.053, 2.834e-5
-1.054, 2.934e-5
-1.055, 3.045e-5
-1.056, 3.001e-5
-1.057, 2.896e-5
-1.058, 2.889e-5
-1.059, 2.973e-5
-1.060, 3.075e-5
-1.061, 3.047e-5
-1.062, 2.927e-5
-1.063, 2.923e-5
-1.064, 3.001e-5
-1.065, 3.099e-5
-1.066, 3.091e-5
-1.067, 2.964e-5
-1.068, 2.965e-5
-1.069, 3.044e-5
-1.070, 3.131e-5
-1.071, 3.135e-5
-1.072, 2.985e-5
-1.073, 2.988e-5
-1.074, 3.081e-5
-1.075, 3.189e-5
-1.076, 3.163e-5
-1.077, 3.030e-5
-1.078, 3.012e-5
-1.079, 3.127e-5
-1.080, 3.196e-5
-1.081, 3.186e-5
-1.082, 3.094e-5
-1.083, 3.044e-5
-1.084, 3.148e-5
-1.085, 3.243e-5
-1.086, 3.209e-5
-1.087, 3.128e-5
-1.088, 3.088e-5
-1.089, 3.175e-5
-1.090, 3.296e-5
-1.091, 3.246e-5
-1.092, 3.145e-5
-1.093, 3.130e-5
-1.094, 3.213e-5
-1.095, 3.334e-5
-1.096, 3.284e-5
-1.097, 3.174e-5
-1.098, 3.184e-5
-1.099, 3.249e-5
-1.100, 3.362e-5
-1.101, 3.317e-5
-1.102, 3.218e-5
-1.103, 3.204e-5
-1.104, 3.302e-5
-1.105, 3.384e-5
-1.106, 3.378e-5
-1.107, 3.242e-5
-1.108, 3.247e-5
-1.109, 3.347e-5
-1.110, 3.432e-5
-1.111, 3.420e-5
-1.112, 3.291e-5
-1.113, 3.277e-5
-1.114, 3.386e-5
-1.115, 3.465e-5
-1.116, 3.457e-5
-1.117, 3.330e-5
-1.118, 3.333e-5
-1.119, 3.440e-5
-1.120, 3.508e-5
-1.121, 3.480e-5
-1.122, 3.386e-5
-1.123, 3.367e-5
-1.124, 3.474e-5
-1.125, 3.577e-5
-1.126, 3.529e-5
-1.127, 3.447e-5
-1.128, 3.411e-5
-1.129, 3.512e-5
-1.130, 3.621e-5
-1.131, 3.573e-5
-1.132, 3.469e-5
-1.133, 3.474e-5
-1.134, 3.572e-5
-1.135, 3.684e-5
-1.136, 3.622e-5
-1.137, 3.508e-5
-1.138, 3.526e-5
-1.139, 3.619e-5
-1.140, 3.732e-5
-1.141, 3.686e-5
-1.142, 3.572e-5
-1.143, 3.581e-5
-1.144, 3.664e-5
-1.145, 3.767e-5
-1.146, 3.751e-5
-1.147, 3.630e-5
-1.148, 3.625e-5
-1.149, 3.739e-5
-1.150, 3.817e-5
-1.151, 3.808e-5
-1.152, 3.696e-5
-1.153, 3.682e-5
-1.154, 3.809e-5
-1.155, 3.893e-5
-1.156, 3.861e-5
-1.157, 3.753e-5
-1.158, 3.746e-5
-1.159, 3.877e-5
-1.160, 3.958e-5
-1.161, 3.920e-5
-1.162, 3.828e-5
-1.163, 3.831e-5
-1.164, 3.938e-5
-1.165, 4.039e-5
-1.166, 3.988e-5
-1.167, 3.914e-5
-1.168, 3.912e-5
-1.169, 4.022e-5
-1.170, 4.133e-5
-1.171, 4.069e-5
-1.172, 3.985e-5
-1.173, 3.991e-5
-1.174, 4.104e-5
-1.175, 4.227e-5
-1.176, 4.166e-5
-1.177, 4.097e-5
-1.178, 4.107e-5
-1.179, 4.199e-5
-1.180, 4.316e-5
-1.181, 4.274e-5
-1.182, 4.181e-5
-1.183, 4.216e-5
-1.184, 4.314e-5
-1.185, 4.432e-5
-1.186, 4.393e-5
-1.187, 4.297e-5
-1.188, 4.320e-5
-1.189, 4.453e-5
-1.190, 4.559e-5
-1.191, 4.537e-5
-1.192, 4.416e-5
-1.193, 4.455e-5
-1.194, 4.602e-5
-1.195, 4.697e-5
-1.196, 4.671e-5
-1.197, 4.590e-5
-1.198, 4.614e-5
-1.199, 4.768e-5
-1.200, 4.854e-5
-1.201, 4.838e-5
-1.202, 4.776e-5
-1.203, 4.798e-5
-1.204, 4.941e-5
-1.205, 5.070e-5
-1.206, 5.021e-5
-1.207, 4.985e-5
-1.208, 5.009e-5
-1.209, 5.148e-5
-1.210, 5.300e-5
-1.211, 5.252e-5
-1.212, 5.198e-5
-1.213, 5.254e-5
-1.214, 5.405e-5
-1.215, 5.535e-5
-1.216, 5.511e-5
-1.217, 5.469e-5
-1.218, 5.541e-5
-1.219, 5.674e-5
-1.220, 5.839e-5
-1.221, 5.827e-5
-1.222, 5.781e-5
-1.223, 5.872e-5
-1.224, 6.012e-5
-1.225, 6.163e-5
-1.226, 6.173e-5
-1.227, 6.118e-5
-1.228, 6.250e-5
-1.229, 6.436e-5
-1.230, 6.560e-5
-1.231, 6.595e-5
-1.232, 6.539e-5
-1.233, 6.645e-5
-1.234, 6.853e-5
-1.235, 7.013e-5
-1.236, 7.038e-5
-1.237, 7.017e-5
-1.238, 7.133e-5
-1.239, 7.353e-5
-1.240, 7.527e-5
-1.241, 7.563e-5
-1.242, 7.599e-5
-1.243, 7.692e-5
-1.244, 7.925e-5
-1.245, 8.120e-5
-1.246, 8.168e-5
-1.247, 8.224e-5
-1.248, 8.337e-5
-1.249, 8.598e-5
-1.250, 8.831e-5
-1.251, 8.862e-5
-1.252, 8.928e-5
-1.253, 9.088e-5
-1.254, 9.348e-5
-1.255, 9.602e-5
-1.256, 9.673e-5
-1.257, 9.737e-5
-1.258, 9.948e-5
-1.259, 1.023e-4
-1.260, 1.049e-4
-1.261, 1.058e-4
-1.262, 1.068e-4
-1.263, 1.091e-4
-1.264, 1.120e-4
-1.265, 1.148e-4
-1.266, 1.164e-4
-1.267, 1.175e-4
-1.268, 1.199e-4
-1.269, 1.233e-4
-1.270, 1.264e-4
-1.271, 1.281e-4
-1.272, 1.294e-4
-1.273, 1.322e-4
-1.274, 1.360e-4
-1.275, 1.393e-4
-1.276, 1.415e-4
-1.277, 1.433e-4
-1.278, 1.463e-4
-1.279, 1.505e-4
-1.280, 1.542e-4
-1.281, 1.562e-4
-1.282, 1.587e-4
-1.283, 1.621e-4
-1.284, 1.668e-4
-1.285, 1.708e-4
-1.286, 1.733e-4
-1.287, 1.762e-4
-1.288, 1.798e-4
-1.289, 1.844e-4
-1.290, 1.890e-4
-1.291, 1.921e-4
-1.292, 1.954e-4
-1.293, 1.997e-4
-1.294, 2.049e-4
-1.295, 2.100e-4
-1.296, 2.131e-4
-1.297, 2.165e-4
-1.298, 2.217e-4
-1.299, 2.274e-4
-1.300, 2.328e-4
-1.301, 2.366e-4
-1.302, 2.408e-4
-1.303, 2.463e-4
-1.304, 2.522e-4
-1.305, 2.580e-4
-1.306, 2.623e-4
-1.307, 2.669e-4
-1.308, 2.730e-4
-1.309, 2.796e-4
-1.310, 2.861e-4
-1.311, 2.912e-4
-1.312, 2.957e-4
-1.313, 3.021e-4
-1.314, 3.095e-4
-1.315, 3.165e-4
-1.316, 3.223e-4
-1.317, 3.280e-4
-1.318, 3.348e-4
-1.319, 3.427e-4
-1.320, 3.498e-4
-1.321, 3.559e-4
-1.322, 3.623e-4
-1.323, 3.697e-4
-1.324, 3.785e-4
-1.325, 3.865e-4
-1.326, 3.930e-4
-1.327, 4.003e-4
-1.328, 4.078e-4
-1.329, 4.172e-4
-1.330, 4.258e-4
-1.331, 4.331e-4
-1.332, 4.408e-4
-1.333, 4.490e-4
-1.334, 4.588e-4
-1.335, 4.689e-4
-1.336, 4.767e-4
-1.337, 4.845e-4
-1.338, 4.943e-4
-1.339, 5.039e-4
-1.340, 5.136e-4
-1.341, 5.225e-4
-1.342, 5.318e-4
-1.343, 5.422e-4
-1.344, 5.529e-4
-1.345, 5.636e-4
-1.346, 5.730e-4
-1.347, 5.826e-4
-1.348, 5.937e-4
-1.349, 6.049e-4
-1.350, 6.146e-4
-1.351, 6.252e-4
-1.352, 6.356e-4
-1.353, 6.473e-4
-1.354, 6.602e-4
-1.355, 6.717e-4
-1.356, 6.824e-4
-1.357, 6.931e-4
-1.358, 7.051e-4
-1.359, 7.182e-4
-1.360, 7.309e-4
-1.361, 7.421e-4
-1.362, 7.540e-4
-1.363, 7.665e-4
-1.364, 7.805e-4
-1.365, 7.936e-4
-1.366, 8.056e-4
-1.367, 8.185e-4
-1.368, 8.310e-4
-1.369, 8.460e-4
-1.370, 8.594e-4
-1.371, 8.725e-4
-1.372, 8.865e-4
-1.373, 9.008e-4
-1.374, 9.170e-4
-1.375, 9.314e-4
-1.376, 9.434e-4
-1.377, 9.554e-4
-1.378, 9.706e-4
-1.379, 9.881e-4
-1.380, 1.004e-3
-1.381, 1.019e-3
-1.382, 1.033e-3
-1.383, 1.048e-3
-1.384, 1.064e-3
-1.385, 1.080e-3
-1.386, 1.096e-3
-1.387, 1.112e-3
-1.388, 1.128e-3
-1.389, 1.145e-3
-1.390, 1.162e-3
-1.391, 1.178e-3
-1.392, 1.194e-3
-1.393, 1.211e-3
-1.394, 1.229e-3
-1.395, 1.247e-3
-1.396, 1.260e-3
-1.397, 1.278e-3
-1.398, 1.297e-3
-1.399, 1.318e-3
-1.400, 1.339e-3
-1.401, 1.354e-3
-1.402, 1.369e-3
-1.403, 1.385e-3
-1.404, 1.406e-3
-1.405, 1.427e-3
-1.406, 1.446e-3
-1.407, 1.465e-3
-1.408, 1.483e-3
-1.409, 1.504e-3
-1.410, 1.524e-3
-1.411, 1.544e-3
-1.412, 1.562e-3
-1.413, 1.582e-3
-1.414, 1.605e-3
-1.415, 1.627e-3
-1.416, 1.647e-3
-1.417, 1.665e-3
-1.418, 1.684e-3
-1.419, 1.706e-3
-1.420, 1.729e-3
-1.421, 1.750e-3
-1.422, 1.771e-3
-1.423, 1.794e-3
-1.424, 1.817e-3
-1.425, 1.839e-3
-1.426, 1.857e-3
-1.427, 1.882e-3
-1.428, 1.907e-3
-1.429, 1.930e-3
-1.430, 1.955e-3
-1.431, 1.977e-3
-1.432, 1.997e-3
-1.433, 2.023e-3
-1.434, 2.048e-3
-1.435, 2.073e-3
-1.436, 2.097e-3
-1.437, 2.120e-3
-1.438, 2.145e-3
-1.439, 2.168e-3
-1.440, 2.192e-3
-1.441, 2.216e-3
-1.442, 2.244e-3
-1.443, 2.272e-3
-1.444, 2.302e-3
-1.445, 2.329e-3
-1.446, 2.351e-3
-1.447, 2.373e-3
-1.448, 2.399e-3
-1.449, 2.426e-3
-1.450, 2.454e-3
-1.451, 2.481e-3
-1.452, 2.508e-3
-1.453, 2.531e-3
-1.454, 2.568e-3
-1.455, 2.600e-3
-1.456, 2.623e-3
-1.457, 2.644e-3
-1.458, 2.671e-3
-1.459, 2.703e-3
-1.460, 2.737e-3
-1.461, 2.768e-3
-1.462, 2.793e-3
-1.463, 2.820e-3
-1.464, 2.850e-3
-1.465, 2.878e-3
-1.466, 2.910e-3
-1.467, 2.940e-3
-1.468, 2.972e-3
-1.469, 3.005e-3
-1.470, 3.036e-3
-1.471, 3.065e-3
-1.472, 3.096e-3
-1.473, 3.125e-3
-1.474, 3.160e-3
-1.475, 3.195e-3
-1.476, 3.226e-3
-1.477, 3.258e-3
-1.478, 3.289e-3
-1.479, 3.321e-3
-1.480, 3.354e-3
-1.481, 3.387e-3
-1.482, 3.422e-3
-1.483, 3.458e-3
-1.484, 3.491e-3
-1.485, 3.528e-3
-1.486, 3.564e-3
-1.487, 3.598e-3
-1.488, 3.634e-3
-1.489, 3.672e-3
-1.490, 3.710e-3
-1.491, 3.743e-3
-1.492, 3.777e-3
-1.493, 3.819e-3
-1.494, 3.859e-3
-1.495, 3.892e-3
-1.496, 3.920e-3
-1.497, 3.952e-3
-1.498, 3.994e-3
-1.499, 4.036e-3
-1.500, 4.076e-3
-1.501, 4.114e-3
-1.502, 4.148e-3
-1.503, 4.183e-3
-1.504, 4.222e-3
-1.505, 4.264e-3
-1.506, 4.305e-3
-1.507, 4.343e-3
-1.508, 4.382e-3
-1.509, 4.423e-3
-1.510, 4.464e-3
-1.511, 4.504e-3
-1.512, 4.541e-3
-1.513, 4.578e-3
-1.514, 4.623e-3
-1.515, 4.668e-3
-1.516, 4.712e-3
-1.517, 4.756e-3
-1.518, 4.802e-3
-1.519, 4.844e-3
-1.520, 4.883e-3
-1.521, 4.922e-3
-1.522, 4.962e-3
-1.523, 5.010e-3
-1.524, 5.061e-3
-1.525, 5.114e-3
-1.526, 5.158e-3
-1.527, 5.187e-3
-1.528, 5.197e-3
-1.529, 5.246e-3
-1.530, 5.297e-3
-1.531, 5.359e-3
-1.532, 5.427e-3
-1.533, 5.473e-3
-1.534, 5.494e-3
-1.535, 5.523e-3
-1.536, 5.554e-3
-1.537, 5.601e-3
-1.538, 5.662e-3
-1.539, 5.723e-3
-1.540, 5.778e-3
-1.541, 5.816e-3
-1.542, 5.859e-3
-1.543, 5.909e-3
-1.544, 5.962e-3
-1.545, 5.995e-3
-1.546, 6.032e-3
-1.547, 6.087e-3
-1.548, 6.147e-3
-1.549, 6.201e-3
-1.550, 6.254e-3
-1.551, 6.302e-3
-1.552, 6.341e-3
-1.553, 6.389e-3
-1.554, 6.442e-3
-1.555, 6.502e-3
-1.556, 6.549e-3
-1.557, 6.589e-3
-1.558, 6.631e-3
-1.559, 6.684e-3
-1.560, 6.737e-3
-1.561, 6.793e-3
-1.562, 6.836e-3
-1.563, 6.884e-3
-1.564, 6.939e-3
-1.565, 6.999e-3
-1.566, 7.069e-3
-1.567, 7.135e-3
-1.568, 7.192e-3
-1.569, 7.232e-3
-1.570, 7.250e-3
-1.571, 7.279e-3
-1.572, 7.337e-3
-1.573, 7.412e-3
-1.574, 7.485e-3
-1.575, 7.542e-3
-1.576, 7.570e-3
-1.577, 7.595e-3
-1.578, 7.620e-3
-1.579, 7.674e-3
-1.580, 7.733e-3
-1.581, 7.796e-3
-1.582, 7.853e-3
-1.583, 7.913e-3
-1.584, 7.932e-3
-1.585, 7.978e-3
-1.586, 8.030e-3
-1.587, 8.079e-3
-1.588, 8.138e-3
-1.589, 8.194e-3
-1.590, 8.231e-3
-1.591, 8.264e-3
-1.592, 8.296e-3
-1.593, 8.354e-3
-1.594, 8.405e-3
-1.595, 8.465e-3
-1.596, 8.527e-3
-1.597, 8.578e-3
-1.598, 8.608e-3
-1.599, 8.622e-3
-1.600, 8.588e-3
-1.599, 8.505e-3
-1.598, 8.447e-3
-1.597, 8.390e-3
-1.596, 8.324e-3
-1.595, 8.232e-3
-1.594, 8.161e-3
-1.593, 8.068e-3
-1.592, 7.978e-3
-1.591, 7.881e-3
-1.590, 7.793e-3
-1.589, 7.728e-3
-1.588, 7.649e-3
-1.587, 7.585e-3
-1.586, 7.515e-3
-1.585, 7.437e-3
-1.584, 7.338e-3
-1.583, 7.227e-3
-1.582, 7.151e-3
-1.581, 7.088e-3
-1.580, 7.030e-3
-1.579, 6.952e-3
-1.578, 6.877e-3
-1.577, 6.803e-3
-1.576, 6.720e-3
-1.575, 6.624e-3
-1.574, 6.531e-3
-1.573, 6.466e-3
-1.572, 6.404e-3
-1.571, 6.361e-3
-1.570, 6.311e-3
-1.569, 6.229e-3
-1.568, 6.132e-3
-1.567, 6.043e-3
-1.566, 5.978e-3
-1.565, 5.922e-3
-1.564, 5.858e-3
-1.563, 5.796e-3
-1.562, 5.740e-3
-1.561, 5.683e-3
-1.560, 5.620e-3
-1.559, 5.548e-3
-1.558, 5.493e-3
-1.557, 5.433e-3
-1.556, 5.380e-3
-1.555, 5.318e-3
-1.554, 5.262e-3
-1.553, 5.206e-3
-1.552, 5.155e-3
-1.551, 5.099e-3
-1.550, 5.039e-3
-1.549, 4.979e-3
-1.548, 4.928e-3
-1.547, 4.884e-3
-1.546, 4.836e-3
-1.545, 4.774e-3
-1.544, 4.711e-3
-1.543, 4.670e-3
-1.542, 4.619e-3
-1.541, 4.580e-3
-1.540, 4.547e-3
-1.539, 4.493e-3
-1.538, 4.428e-3
-1.537, 4.362e-3
-1.536, 4.300e-3
-1.535, 4.247e-3
-1.534, 4.204e-3
-1.533, 4.161e-3
-1.532, 4.115e-3
-1.531, 4.059e-3
-1.530, 4.000e-3
-1.529, 3.943e-3
-1.528, 3.897e-3
-1.527, 3.856e-3
-1.526, 3.817e-3
-1.525, 3.785e-3
-1.524, 3.742e-3
-1.523, 3.698e-3
-1.522, 3.639e-3
-1.521, 3.585e-3
-1.520, 3.540e-3
-1.519, 3.505e-3
-1.518, 3.466e-3
-1.517, 3.430e-3
-1.516, 3.390e-3
-1.515, 3.354e-3
-1.514, 3.312e-3
-1.513, 3.266e-3
-1.512, 3.218e-3
-1.511, 3.169e-3
-1.510, 3.127e-3
-1.509, 3.097e-3
-1.508, 3.062e-3
-1.507, 3.027e-3
-1.506, 2.991e-3
-1.505, 2.955e-3
-1.504, 2.913e-3
-1.503, 2.864e-3
-1.502, 2.821e-3
-1.501, 2.788e-3
-1.500, 2.762e-3
-1.499, 2.759e-3
-1.498, 2.712e-3
-1.497, 2.678e-3
-1.496, 2.638e-3
-1.495, 2.602e-3
-1.494, 2.573e-3
-1.493, 2.546e-3
-1.492, 2.504e-3
-1.491, 2.463e-3
-1.490, 2.427e-3
-1.489, 2.398e-3
-1.488, 2.370e-3
-1.487, 2.339e-3
-1.486, 2.307e-3
-1.485, 2.276e-3
-1.484, 2.245e-3
-1.483, 2.214e-3
-1.482, 2.180e-3
-1.481, 2.153e-3
-1.480, 2.122e-3
-1.479, 2.096e-3
-1.478, 2.066e-3
-1.477, 2.038e-3
-1.476, 2.007e-3
-1.475, 1.975e-3
-1.474, 1.946e-3
-1.473, 1.917e-3
-1.472, 1.891e-3
-1.471, 1.866e-3
-1.470, 1.838e-3
-1.469, 1.812e-3
-1.468, 1.786e-3
-1.467, 1.763e-3
-1.466, 1.738e-3
-1.465, 1.709e-3
-1.464, 1.682e-3
-1.463, 1.658e-3
-1.462, 1.635e-3
-1.461, 1.612e-3
-1.460, 1.587e-3
-1.459, 1.562e-3
-1.458, 1.538e-3
-1.457, 1.514e-3
-1.456, 1.491e-3
-1.455, 1.467e-3
-1.454, 1.445e-3
-1.453, 1.423e-3
-1.452, 1.401e-3
-1.451, 1.382e-3
-1.450, 1.361e-3
-1.449, 1.341e-3
-1.448, 1.318e-3
-1.447, 1.296e-3
-1.446, 1.277e-3
-1.445, 1.258e-3
-1.444, 1.239e-3
-1.443, 1.219e-3
-1.442, 1.197e-3
-1.441, 1.180e-3
-1.440, 1.164e-3
-1.439, 1.147e-3
-1.438, 1.127e-3
-1.437, 1.103e-3
-1.436, 1.086e-3
-1.435, 1.069e-3
-1.434, 1.054e-3
-1.433, 1.039e-3
-1.432, 1.022e-3
-1.431, 1.004e-3
-1.430, 9.846e-4
-1.429, 9.671e-4
-1.428, 9.537e-4
-1.427, 9.393e-4
-1.426, 9.224e-4
-1.425, 9.043e-4
-1.424, 8.877e-4
-1.423, 8.725e-4
-1.422, 8.581e-4
-1.421, 8.440e-4
-1.420, 8.276e-4
-1.419, 8.125e-4
-1.418, 7.974e-4
-1.417, 7.837e-4
-1.416, 7.712e-4
-1.415, 7.565e-4
-1.414, 7.419e-4
-1.413, 7.282e-4
-1.412, 7.146e-4
-1.411, 7.016e-4
-1.410, 6.878e-4
-1.409, 6.742e-4
-1.408, 6.623e-4
-1.407, 6.505e-4
-1.406, 6.386e-4
-1.405, 6.255e-4
-1.404, 6.118e-4
-1.403, 5.999e-4
-1.402, 5.891e-4
-1.401, 5.790e-4
-1.400, 5.678e-4
-1.399, 5.560e-4
-1.398, 5.442e-4
-1.397, 5.340e-4
-1.396, 5.227e-4
-1.395, 5.116e-4
-1.394, 5.010e-4
-1.393, 4.915e-4
-1.392, 4.829e-4
-1.391, 4.736e-4
-1.390, 4.623e-4
-1.389, 4.516e-4
-1.388, 4.422e-4
-1.387, 4.338e-4
-1.386, 4.259e-4
-1.385, 4.160e-4
-1.384, 4.061e-4
-1.383, 3.976e-4
-1.382, 3.899e-4
-1.381, 3.824e-4
-1.380, 3.728e-4
-1.379, 3.639e-4
-1.378, 3.562e-4
-1.377, 3.495e-4
-1.376, 3.422e-4
-1.375, 3.338e-4
-1.374, 3.255e-4
-1.373, 3.186e-4
-1.372, 3.121e-4
-1.371, 3.057e-4
-1.370, 2.975e-4
-1.369, 2.897e-4
-1.368, 2.839e-4
-1.367, 2.784e-4
-1.366, 2.724e-4
-1.365, 2.652e-4
-1.364, 2.578e-4
-1.363, 2.518e-4
-1.362, 2.473e-4
-1.361, 2.421e-4
-1.360, 2.351e-4
-1.359, 2.286e-4
-1.358, 2.228e-4
-1.357, 2.188e-4
-1.356, 2.139e-4
-1.355, 2.083e-4
-1.354, 2.028e-4
-1.353, 1.976e-4
-1.352, 1.934e-4
-1.351, 1.889e-4
-1.350, 1.831e-4
-1.349, 1.779e-4
-1.348, 1.736e-4
-1.347, 1.704e-4
-1.346, 1.668e-4
-1.345, 1.614e-4
-1.344, 1.566e-4
-1.343, 1.526e-4
-1.342, 1.493e-4
-1.341, 1.458e-4
-1.340, 1.409e-4
-1.339, 1.363e-4
-1.338, 1.332e-4
-1.337, 1.306e-4
-1.336, 1.275e-4
-1.335, 1.232e-4
-1.334, 1.184e-4
-1.333, 1.155e-4
-1.332, 1.132e-4
-1.331, 1.106e-4
-1.330, 1.067e-4
-1.329, 1.025e-4
-1.328, 1.000e-4
-1.327, 9.799e-5
-1.326, 9.516e-5
-1.325, 9.183e-5
-1.324, 8.807e-5
-1.323, 8.546e-5
-1.322, 8.396e-5
-1.321, 8.154e-5
-1.320, 7.818e-5
-1.319, 7.491e-5
-1.318, 7.244e-5
-1.317, 7.152e-5
-1.316, 6.937e-5
-1.315, 6.599e-5
-1.314, 6.301e-5
-1.313, 6.081e-5
-1.312, 6.005e-5
-1.311, 5.834e-5
-1.310, 5.524e-5
-1.309, 5.251e-5
-1.308, 5.069e-5
-1.307, 4.978e-5
-1.306, 4.831e-5
-1.305, 4.536e-5
-1.304, 4.292e-5
-1.303, 4.152e-5
-1.302, 4.067e-5
-1.301, 3.934e-5
-1.300, 3.687e-5
-1.299, 3.413e-5
-1.298, 3.315e-5
-1.297, 3.249e-5
-1.296, 3.139e-5
-1.295, 2.898e-5
-1.294, 2.644e-5
-1.293, 2.561e-5
-1.292, 2.529e-5
-1.291, 2.401e-5
-1.290, 2.186e-5
-1.289, 1.957e-5
-1.288, 1.880e-5
-1.287, 1.868e-5
-1.286, 1.762e-5
-1.285, 1.551e-5
-1.284, 1.350e-5
-1.283, 1.259e-5
-1.282, 1.278e-5
-1.281, 1.181e-5
-1.280, 9.510e-6
-1.279, 8.001e-6
-1.278, 7.277e-6
-1.277, 7.539e-6
-1.276, 6.688e-6
-1.275, 4.687e-6
-1.274, 3.045e-6
-1.273, 2.463e-6
-1.272, 2.825e-6
-1.271, 2.139e-6
-1.270, 1.162e-7
-1.269, -1.487e-6
-1.268, -1.684e-6
-1.267, -1.576e-6
-1.266, -2.029e-6
-1.265, -4.109e-6
-1.264, -5.284e-6
-1.263, -5.557e-6
-1.262, -5.461e-6
-1.261, -5.744e-6
-1.260, -7.540e-6
-1.259, -8.964e-6
-1.258, -9.003e-6
-1.257, -8.728e-6
-1.256, -9.173e-6
-1.255, -1.081e-5
-1.254, -1.229e-5
-1.253, -1.233e-5
-1.252, -1.177e-5
-1.251, -1.228e-5
-1.250, -1.359e-5
-1.249, -1.522e-5
-1.248, -1.499e-5
-1.247, -1.439e-5
-1.246, -1.504e-5
-1.245, -1.623e-5
-1.244, -1.770e-5
-1.243, -1.760e-5
-1.242, -1.696e-5
-1.241, -1.742e-5
-1.240, -1.871e-5
-1.239, -1.987e-5
-1.238, -1.978e-5
-1.237, -1.901e-5
-1.236, -1.943e-5
-1.235, -2.103e-5
-1.234, -2.190e-5
-1.233, -2.186e-5
-1.232, -2.095e-5
-1.231, -2.128e-5
-1.230, -2.287e-5
-1.229, -2.430e-5
-1.228, -2.350e-5
-1.227, -2.297e-5
-1.226, -2.299e-5
-1.225, -2.467e-5
-1.224, -2.542e-5
-1.223, -2.501e-5
-1.222, -2.462e-5
-1.221, -2.462e-5
-1.220, -2.593e-5
-1.219, -2.706e-5
-1.218, -2.647e-5
-1.217, -2.589e-5
-1.216, -2.603e-5
-1.215, -2.739e-5
-1.214, -2.839e-5
-1.213, -2.784e-5
-1.212, -2.710e-5
-1.211, -2.744e-5
-1.210, -2.870e-5
-1.209, -2.972e-5
-1.208, -2.892e-5
-1.207, -2.823e-5
-1.206, -2.874e-5
-1.205, -2.978e-5
-1.204, -3.075e-5
-1.203, -3.040e-5
-1.202, -2.942e-5
-1.201, -2.985e-5
-1.200, -3.091e-5
-1.199, -3.180e-5
-1.198, -3.134e-5
-1.197, -3.035e-5
-1.196, -3.078e-5
-1.195, -3.215e-5
-1.194, -3.275e-5
-1.193, -3.233e-5
-1.192, -3.133e-5
-1.191, -3.171e-5
-1.190, -3.310e-5
-1.189, -3.370e-5
-1.188, -3.312e-5
-1.187, -3.248e-5
-1.186, -3.259e-5
-1.185, -3.411e-5
-1.184, -3.458e-5
-1.183, -3.392e-5
-1.182, -3.343e-5
-1.181, -3.359e-5
-1.180, -3.478e-5
-1.179, -3.564e-5
-1.178, -3.500e-5
-1.177, -3.428e-5
-1.176, -3.443e-5
-1.175, -3.570e-5
-1.174, -3.638e-5
-1.173, -3.569e-5
-1.172, -3.493e-5
-1.171, -3.539e-5
-1.170, -3.660e-5
-1.169, -3.762e-5
-1.168, -3.670e-5
-1.167, -3.589e-5
-1.166, -3.650e-5
-1.165, -3.744e-5
-1.164, -3.811e-5
-1.163, -3.772e-5
-1.162, -3.677e-5
-1.161, -3.743e-5
-1.160, -3.851e-5
-1.159, -3.897e-5
-1.158, -3.851e-5
-1.157, -3.743e-5
-1.156, -3.792e-5
-1.155, -3.942e-5
-1.154, -3.983e-5
-1.153, -3.939e-5
-1.152, -3.844e-5
-1.151, -3.874e-5
-1.150, -4.016e-5
-1.149, -4.044e-5
-1.148, -3.991e-5
-1.147, -3.911e-5
-1.146, -3.950e-5
-1.145, -4.097e-5
-1.144, -4.120e-5
-1.143, -4.069e-5
-1.142, -4.002e-5
-1.141, -4.030e-5
-1.140, -4.159e-5
-1.139, -4.215e-5
-1.138, -4.138e-5
-1.137, -4.070e-5
-1.136, -4.104e-5
-1.135, -4.235e-5
-1.134, -4.293e-5
-1.133, -4.212e-5
-1.132, -4.137e-5
-1.131, -4.193e-5
-1.130, -4.309e-5
-1.129, -4.362e-5
-1.128, -4.280e-5
-1.127, -4.202e-5
-1.126, -4.272e-5
-1.125, -4.406e-5
-1.124, -4.449e-5
-1.123, -4.387e-5
-1.122, -4.305e-5
-1.121, -4.355e-5
-1.120, -4.472e-5
-1.119, -4.502e-5
-1.118, -4.456e-5
-1.117, -4.377e-5
-1.116, -4.447e-5
-1.115, -4.579e-5
-1.114, -4.590e-5
-1.113, -4.544e-5
-1.112, -4.444e-5
-1.111, -4.501e-5
-1.110, -4.660e-5
-1.109, -4.678e-5
-1.108, -4.614e-5
-1.107, -4.553e-5
-1.106, -4.583e-5
-1.105, -4.750e-5
-1.104, -4.762e-5
-1.103, -4.690e-5
-1.102, -4.636e-5
-1.101, -4.681e-5
-1.100, -4.817e-5
-1.099, -4.873e-5
-1.098, -4.793e-5
-1.097, -4.738e-5
-1.096, -4.772e-5
-1.095, -4.890e-5
-1.094, -4.956e-5
-1.093, -4.865e-5
-1.092, -4.810e-5
-1.091, -4.883e-5
-1.090, -4.992e-5
-1.089, -5.053e-5
-1.088, -4.953e-5
-1.087, -4.886e-5
-1.086, -4.989e-5
-1.085, -5.077e-5
-1.084, -5.122e-5
-1.083, -5.062e-5
-1.082, -4.987e-5
-1.081, -5.072e-5
-1.080, -5.183e-5
-1.079, -5.212e-5
-1.078, -5.154e-5
-1.077, -5.075e-5
-1.076, -5.164e-5
-1.075, -5.301e-5
-1.074, -5.318e-5
-1.073, -5.234e-5
-1.072, -5.170e-5
-1.071, -5.248e-5
-1.070, -5.408e-5
-1.069, -5.442e-5
-1.068, -5.366e-5
-1.067, -5.307e-5
-1.066, -5.373e-5
-1.065, -5.509e-5
-1.064, -5.518e-5
-1.063, -5.439e-5
-1.062, -5.425e-5
-1.061, -5.480e-5
-1.060, -5.615e-5
-1.059, -5.647e-5
-1.058, -5.548e-5
-1.057, -5.511e-5
-1.056, -5.582e-5
-1.055, -5.725e-5
-1.054, -5.763e-5
-1.053, -5.659e-5
-1.052, -5.593e-5
-1.051, -5.702e-5
-1.050, -5.820e-5
-1.049, -5.873e-5
-1.048, -5.775e-5
-1.047, -5.701e-5
-1.046, -5.808e-5
-1.045, -5.913e-5
-1.044, -5.941e-5
-1.043, -5.890e-5
-1.042, -5.815e-5
-1.041, -5.923e-5
-1.040, -6.025e-5
-1.039, -6.046e-5
-1.038, -5.979e-5
-1.037, -5.908e-5
-1.036, -6.007e-5
-1.035, -6.151e-5
-1.034, -6.144e-5
-1.033, -6.076e-5
-1.032, -6.011e-5
-1.031, -6.109e-5
-1.030, -6.237e-5
-1.029, -6.238e-5
-1.028, -6.159e-5
-1.027, -6.123e-5
-1.026, -6.207e-5
-1.025, -6.342e-5
-1.024, -6.347e-5
-1.023, -6.257e-5
-1.022, -6.230e-5
-1.021, -6.316e-5
-1.020, -6.435e-5
-1.019, -6.456e-5
-1.018, -6.351e-5
-1.017, -6.315e-5
-1.016, -6.410e-5
-1.015, -6.540e-5
-1.014, -6.556e-5
-1.013, -6.444e-5
-1.012, -6.412e-5
-1.011, -6.543e-5
-1.010, -6.639e-5
-1.009, -6.647e-5
-1.008, -6.565e-5
-1.007, -6.530e-5
-1.006, -6.654e-5
-1.005, -6.747e-5
-1.004, -6.734e-5
-1.003, -6.684e-5
-1.002, -6.626e-5
-1.001, -6.751e-5
-1.000, -3.447e-5
-1.001, -1.958e-5
-1.002, -1.405e-5
-1.003, -1.051e-5
-1.004, -8.587e-6
-1.005, -7.553e-6
-1.006, -5.170e-6
-1.007, -2.248e-6
-1.008, -5.103e-7
-1.009, 2.208e-7
-1.010, 6.549e-7
-1.011, 1.859e-6
-1.012, 4.227e-6
-1.013, 5.712e-6
-1.014, 5.652e-6
-1.015, 5.961e-6
-1.016, 6.852e-6
-1.017, 8.705e-6
-1.018, 1.004e-5
-1.019, 9.651e-6
-1.020, 9.519e-6
-1.021, 1.020e-5
-1.022, 1.195e-5
-1.023, 1.308e-5
-1.024, 1.281e-5
-1.025, 1.219e-5
-1.026, 1.319e-5
-1.027, 1.447e-5
-1.028, 1.548e-5
-1.029, 1.512e-5
-1.030, 1.448e-5
-1.031, 1.539e-5
-1.032, 1.667e-5
-1.033, 1.744e-5
-1.034, 1.713e-5
-1.035, 1.628e-5
-1.036, 1.705e-5
-1.037, 1.858e-5
-1.038, 1.909e-5
-1.039, 1.868e-5
-1.040, 1.787e-5
-1.041, 1.853e-5
-1.042, 2.010e-5
-1.043, 2.052e-5
-1.044, 1.990e-5
-1.045, 1.922e-5
-1.046, 1.979e-5
-1.047, 2.143e-5
-1.048, 2.173e-5
-1.049, 2.108e-5
-1.050, 2.053e-5
-1.051, 2.103e-5
-1.052, 2.239e-5
-1.053, 2.289e-5
-1.054, 2.214e-5
-1.055, 2.164e-5
-1.056, 2.194e-5
-1.057, 2.330e-5
-1.058, 2.386e-5
-1.059, 2.300e-5
-1.060, 2.241e-5
-1.061, 2.300e-5
-1.062, 2.431e-5
-1.063, 2.472e-5
-1.064, 2.374e-5
-1.065, 2.314e-5
-1.066, 2.395e-5
-1.067, 2.502e-5
-1.068, 2.552e-5
-1.069, 2.454e-5
-1.070, 2.377e-5
-1.071, 2.470e-5
-1.072, 2.558e-5
-1.073, 2.617e-5
-1.074, 2.538e-5
-1.075, 2.483e-5
-1.076, 2.527e-5
-1.077, 2.642e-5
-1.078, 2.670e-5
-1.079, 2.591e-5
-1.080, 2.512e-5
-1.081, 2.572e-5
-1.082, 2.709e-5
-1.083, 2.718e-5
-1.084, 2.651e-5
-1.085, 2.565e-5
-1.086, 2.635e-5
-1.087, 2.770e-5
-1.088, 2.757e-5
-1.089, 2.676e-5
-1.090, 2.631e-5
-1.091, 2.676e-5
-1.092, 2.816e-5
-1.093, 2.830e-5
-1.094, 2.723e-5
-1.095, 2.683e-5
-1.096, 2.734e-5
-1.097, 2.842e-5
-1.098, 2.873e-5
-1.099, 2.766e-5
-1.100, 2.715e-5
-1.101, 2.783e-5
-1.102, 2.893e-5
-1.103, 2.920e-5
-1.104, 2.818e-5
-1.105, 2.749e-5
-1.106, 2.845e-5
-1.107, 2.933e-5
-1.108, 2.956e-5
-1.109, 2.858e-5
-1.110, 2.784e-5
-1.111, 2.897e-5
-1.112, 2.968e-5
-1.113, 2.991e-5
-1.114, 2.916e-5
-1.115, 2.819e-5
-1.116, 2.929e-5
-1.117, 3.014e-5
-1.118, 3.027e-5
-1.119, 2.937e-5
-1.120, 2.867e-5
-1.121, 2.962e-5
-1.122, 3.071e-5
-1.123, 3.059e-5
-1.124, 2.965e-5
-1.125, 2.904e-5
-1.126, 3.000e-5
-1.127, 3.108e-5
-1.128, 3.098e-5
-1.129, 2.985e-5
-1.130, 2.947e-5
-1.131, 3.027e-5
-1.132, 3.140e-5
-1.133, 3.138e-5
-1.134, 3.027e-5
-1.135, 2.994e-5
-1.136, 3.052e-5
-1.137, 3.170e-5
-1.138, 3.168e-5
-1.139, 3.064e-5
-1.140, 3.029e-5
-1.141, 3.106e-5
-1.142, 3.204e-5
-1.143, 3.206e-5
-1.144, 3.087e-5
-1.145, 3.039e-5
-1.146, 3.153e-5
-1.147, 3.239e-5
-1.148, 3.249e-5
-1.149, 3.119e-5
-1.150, 3.086e-5
-1.151, 3.187e-5
-1.152, 3.277e-5
-1.153, 3.261e-5
-1.154, 3.176e-5
-1.155, 3.119e-5
-1.156, 3.220e-5
-1.157, 3.316e-5
-1.158, 3.305e-5
-1.159, 3.211e-5
-1.160, 3.161e-5
-1.161, 3.248e-5
-1.162, 3.371e-5
-1.163, 3.337e-5
-1.164, 3.248e-5
-1.165, 3.221e-5
-1.166, 3.285e-5
-1.167, 3.420e-5
-1.168, 3.375e-5
-1.169, 3.281e-5
-1.170, 3.259e-5
-1.171, 3.333e-5
-1.172, 3.460e-5
-1.173, 3.422e-5
-1.174, 3.318e-5
-1.175, 3.304e-5
-1.176, 3.388e-5
-1.177, 3.513e-5
-1.178, 3.495e-5
-1.179, 3.366e-5
-1.180, 3.354e-5
-1.181, 3.447e-5
-1.182, 3.535e-5
-1.183, 3.524e-5
-1.184, 3.412e-5
-1.185, 3.403e-5
-1.186, 3.496e-5
-1.187, 3.595e-5
-1.188, 3.588e-5
-1.189, 3.462e-5
-1.190, 3.464e-5
-1.191, 3.566e-5
-1.192, 3.653e-5
-1.193, 3.628e-5
-1.194, 3.546e-5
-1.195, 3.520e-5
-1.196, 3.631e-5
-1.197, 3.727e-5
-1.198, 3.708e-5
-1.199, 3.616e-5
-1.200, 3.577e-5
-1.201, 3.689e-5
-1.202, 3.820e-5
-1.203, 3.772e-5
-1.204, 3.691e-5
-1.205, 3.678e-5
-1.206, 3.775e-5
-1.207, 3.890e-5
-1.208, 3.870e-5
-1.209, 3.774e-5
-1.210, 3.785e-5
-1.211, 3.876e-5
-1.212, 3.992e-5
-1.213, 3.961e-5
-1.214, 3.858e-5
-1.215, 3.894e-5
-1.216, 3.979e-5
-1.217, 4.092e-5
-1.218, 4.093e-5
-1.219, 3.983e-5
-1.220, 4.004e-5
-1.221, 4.119e-5
-1.222, 4.213e-5
-1.223, 4.222e-5
-1.224, 4.108e-5
-1.225, 4.134e-5
-1.226, 4.274e-5
-1.227, 4.374e-5
-1.228, 4.396e-5
-1.229, 4.307e-5
-1.230, 4.294e-5
-1.231, 4.437e-5
-1.232, 4.534e-5
-1.233, 4.536e-5
-1.234, 4.484e-5
-1.235, 4.474e-5
-1.236, 4.623e-5
-1.237, 4.750e-5
-1.238, 4.719e-5
-1.239, 4.668e-5
-1.240, 4.704e-5
-1.241, 4.841e-5
-1.242, 4.992e-5
-1.243, 4.965e-5
-1.244, 4.898e-5
-1.245, 4.945e-5
-1.246, 5.091e-5
-1.247, 5.258e-5
-1.248, 5.223e-5
-1.249, 5.180e-5
-1.250, 5.247e-5
-1.251, 5.378e-5
-1.252, 5.541e-5
-1.253, 5.542e-5
-1.254, 5.495e-5
-1.255, 5.569e-5
-1.256, 5.725e-5
-1.257, 5.856e-5
-1.258, 5.896e-5
-1.259, 5.843e-5
-1.260, 5.942e-5
-1.261, 6.118e-5
-1.262, 6.286e-5
-1.263, 6.308e-5
-1.264, 6.257e-5
-1.265, 6.339e-5
-1.266, 6.544e-5
-1.267, 6.731e-5
-1.268, 6.769e-5
-1.269, 6.741e-5
-1.270, 6.840e-5
-1.271, 7.063e-5
-1.272, 7.227e-5
-1.273, 7.262e-5
-1.274, 7.277e-5
-1.275, 7.393e-5
-1.276, 7.615e-5
-1.277, 7.810e-5
-1.278, 7.874e-5
-1.279, 7.896e-5
-1.280, 8.042e-5
-1.281, 8.265e-5
-1.282, 8.485e-5
-1.283, 8.530e-5
-1.284, 8.586e-5
-1.285, 8.738e-5
-1.286, 8.995e-5
-1.287, 9.242e-5
-1.288, 9.309e-5
-1.289, 9.374e-5
-1.290, 9.562e-5
-1.291, 9.807e-5
-1.292, 1.007e-4
-1.293, 1.017e-4
-1.294, 1.025e-4
-1.295, 1.050e-4
-1.296, 1.076e-4
-1.297, 1.104e-4
-1.298, 1.116e-4
-1.299, 1.124e-4
-1.300, 1.147e-4
-1.301, 1.183e-4
-1.302, 1.211e-4
-1.303, 1.229e-4
-1.304, 1.240e-4
-1.305, 1.264e-4
-1.306, 1.302e-4
-1.307, 1.332e-4
-1.308, 1.350e-4
-1.309, 1.371e-4
-1.310, 1.396e-4
-1.311, 1.436e-4
-1.312, 1.471e-4
-1.313, 1.494e-4
-1.314, 1.516e-4
-1.315, 1.545e-4
-1.316, 1.588e-4
-1.317, 1.627e-4
-1.318, 1.650e-4
-1.319, 1.680e-4
-1.320, 1.716e-4
-1.321, 1.764e-4
-1.322, 1.807e-4
-1.323, 1.833e-4
-1.324, 1.858e-4
-1.325, 1.900e-4
-1.326, 1.953e-4
-1.327, 2.007e-4
-1.328, 2.040e-4
-1.329, 2.074e-4
-1.330, 2.118e-4
-1.331, 2.170e-4
-1.332, 2.222e-4
-1.333, 2.263e-4
-1.334, 2.305e-4
-1.335, 2.359e-4
-1.336, 2.417e-4
-1.337, 2.475e-4
-1.338, 2.521e-4
-1.339, 2.566e-4
-1.340, 2.628e-4
-1.341, 2.696e-4
-1.342, 2.756e-4
-1.343, 2.808e-4
-1.344, 2.855e-4
-1.345, 2.920e-4
-1.346, 3.000e-4
-1.347, 3.070e-4
-1.348, 3.132e-4
-1.349, 3.184e-4
-1.350, 3.258e-4
-1.351, 3.344e-4
-1.352, 3.417e-4
-1.353, 3.481e-4
-1.354, 3.553e-4
-1.355, 3.626e-4
-1.356, 3.718e-4
-1.357, 3.804e-4
-1.358, 3.879e-4
-1.359, 3.953e-4
-1.360, 4.029e-4
-1.361, 4.129e-4
-1.362, 4.231e-4
-1.363, 4.318e-4
-1.364, 4.399e-4
-1.365, 4.487e-4
-1.366, 4.586e-4
-1.367, 4.683e-4
-1.368, 4.783e-4
-1.369, 4.886e-4
-1.370, 4.991e-4
-1.371, 5.091e-4
-1.372, 5.195e-4
-1.373, 5.295e-4
-1.374, 5.397e-4
-1.375, 5.514e-4
-1.376, 5.638e-4
-1.377, 5.755e-4
-1.378, 5.861e-4
-1.379, 5.960e-4
-1.380, 6.087e-4
-1.381, 6.218e-4
-1.382, 6.348e-4
-1.383, 6.462e-4
-1.384, 6.572e-4
-1.385, 6.707e-4
-1.386, 6.834e-4
-1.387, 6.973e-4
-1.388, 7.108e-4
-1.389, 7.236e-4
-1.390, 7.364e-4
-1.391, 7.517e-4
-1.392, 7.649e-4
-1.393, 7.768e-4
-1.394, 7.913e-4
-1.395, 8.063e-4
-1.396, 8.217e-4
-1.397, 8.366e-4
-1.398, 8.479e-4
-1.399, 8.645e-4
-1.400, 8.798e-4
-1.401, 8.971e-4
-1.402, 9.124e-4
-1.403, 9.259e-4
-1.404, 9.400e-4
-1.405, 9.573e-4
-1.406, 9.755e-4
-1.407, 9.923e-4
-1.408, 1.006e-3
-1.409, 1.022e-3
-1.410, 1.039e-3
-1.411, 1.058e-3
-1.412, 1.075e-3
-1.413, 1.090e-3
-1.414, 1.106e-3
-1.415, 1.124e-3
-1.416, 1.143e-3
-1.417, 1.160e-3
-1.418, 1.178e-3
-1.419, 1.195e-3
-1.420, 1.215e-3
-1.421, 1.235e-3
-1.422, 1.253e-3
-1.423, 1.271e-3
-1.424, 1.289e-3
-1.425, 1.308e-3
-1.426, 1.329e-3
-1.427, 1.348e-3
-1.428, 1.366e-3
-1.429, 1.385e-3
-1.430, 1.406e-3
-1.431, 1.428e-3
-1.432, 1.449e-3
-1.433, 1.468e-3
-1.434, 1.487e-3
-1.435, 1.507e-3
-1.436, 1.528e-3
-1.437, 1.552e-3
-1.438, 1.572e-3
-1.439, 1.592e-3
-1.440, 1.613e-3
-1.441, 1.638e-3
-1.442, 1.664e-3
-1.443, 1.687e-3
-1.444, 1.708e-3
-1.445, 1.726e-3
-1.446, 1.744e-3
-1.447, 1.768e-3
-1.448, 1.795e-3
-1.449, 1.819e-3
-1.450, 1.844e-3
-1.451, 1.868e-3
-1.452, 1.892e-3
-1.453, 1.914e-3
-1.454, 1.934e-3
-1.455, 1.959e-3
-1.456, 1.985e-3
-1.457, 2.014e-3
-1.458, 2.043e-3
-1.459, 2.067e-3
-1.460, 2.090e-3
-1.461, 2.112e-3
-1.462, 2.135e-3
-1.463, 2.161e-3
-1.464, 2.189e-3
-1.465, 2.219e-3
-1.466, 2.248e-3
-1.467, 2.274e-3
-1.468, 2.297e-3
-1.469, 2.323e-3
-1.470, 2.348e-3
-1.471, 2.377e-3
-1.472, 2.406e-3
-1.473, 2.437e-3
-1.474, 2.464e-3
-1.475, 2.496e-3
-1.476, 2.529e-3
-1.477, 2.558e-3
-1.478, 2.582e-3
-1.479, 2.599e-3
-1.480, 2.627e-3
-1.481, 2.666e-3
-1.482, 2.702e-3
-1.483, 2.739e-3
-1.484, 2.768e-3
-1.485, 2.799e-3
-1.486, 2.824e-3
-1.487, 2.846e-3
-1.488, 2.872e-3
-1.489, 2.911e-3
-1.490, 2.949e-3
-1.491, 2.984e-3
-1.492, 3.015e-3
-1.493, 3.044e-3
-1.494, 3.071e-3
-1.495, 3.103e-3
-1.496, 3.139e-3
-1.497, 3.178e-3
-1.498, 3.211e-3
-1.499, 3.243e-3
-1.500, 3.277e-3
-1.501, 3.313e-3
-1.502, 3.350e-3
-1.503, 3.372e-3
-1.504, 3.408e-3
-1.505, 3.458e-3
-1.506, 3.491e-3
-1.507, 3.532e-3
-1.508, 3.565e-3
-1.509, 3.595e-3
-1.510, 3.624e-3
-1.511, 3.652e-3
-1.512, 3.702e-3
-1.513, 3.748e-3
-1.514, 3.789e-3
-1.515, 3.810e-3
-1.516, 3.846e-3
-1.517, 3.879e-3
-1.518, 3.926e-3
-1.519, 3.983e-3
-1.520, 4.023e-3
-1.521, 4.051e-3
-1.522, 4.078e-3
-1.523, 4.117e-3
-1.524, 4.157e-3
-1.525, 4.197e-3
-1.526, 4.254e-3
-1.527, 4.289e-3
-1.528, 4.340e-3
-1.529, 4.381e-3
-1.530, 4.415e-3
-1.531, 4.465e-3
-1.532, 4.497e-3
-1.533, 4.531e-3
-1.534, 4.586e-3
-1.535, 4.629e-3
-1.536, 4.684e-3
-1.537, 4.738e-3
-1.538, 4.778e-3
-1.539, 4.815e-3
-1.540, 4.850e-3
-1.541, 4.882e-3
-1.542, 4.929e-3
-1.543, 4.988e-3
-1.544, 5.048e-3
-1.545, 5.092e-3
-1.546, 5.128e-3
-1.547, 5.165e-3
-1.548, 5.193e-3
-1.549, 5.231e-3
-1.550, 5.289e-3
-1.551, 5.374e-3
-1.552, 5.437e-3
-1.553, 5.461e-3
-1.554, 5.484e-3
-1.555, 5.498e-3
-1.556, 5.558e-3
-1.557, 5.639e-3
-1.558, 5.721e-3
-1.559, 5.762e-3
-1.560, 5.802e-3
-1.561, 5.865e-3
-1.562, 5.925e-3
-1.563, 5.952e-3
-1.564, 5.959e-3
-1.565, 5.987e-3
-1.566, 6.069e-3
-1.567, 6.149e-3
-1.568, 6.208e-3
-1.569, 6.265e-3
-1.570, 6.315e-3
-1.571, 6.356e-3
-1.572, 6.399e-3
-1.573, 6.442e-3
-1.574, 6.476e-3
-1.575, 6.551e-3
-1.576, 6.629e-3
-1.577, 6.681e-3
-1.578, 6.740e-3
-1.579, 6.798e-3
-1.580, 6.840e-3
-1.581, 6.886e-3
-1.582, 6.939e-3
-1.583, 6.986e-3
-1.584, 7.066e-3
-1.585, 7.152e-3
-1.586, 7.229e-3
-1.587, 7.282e-3
-1.588, 7.311e-3
-1.589, 7.309e-3
-1.590, 7.334e-3
-1.591, 7.419e-3
-1.592, 7.506e-3
-1.593, 7.590e-3
-1.594, 7.616e-3
-1.595, 7.663e-3
-1.596, 7.714e-3
-1.597, 7.730e-3
-1.598, 7.756e-3
-1.599, 7.823e-3
-1.600, 7.840e-3
-1.599, 7.817e-3
-1.598, 7.761e-3
-1.597, 7.655e-3
-1.596, 7.531e-3
-1.595, 7.399e-3
-1.594, 7.304e-3
-1.593, 7.253e-3
-1.592, 7.215e-3
-1.591, 7.157e-3
-1.590, 7.067e-3
-1.589, 6.971e-3
-1.588, 6.878e-3
-1.587, 6.796e-3
-1.586, 6.713e-3
-1.585, 6.640e-3
-1.584, 6.600e-3
-1.583, 6.550e-3
-1.582, 6.492e-3
-1.581, 6.433e-3
-1.580, 6.346e-3
-1.579, 6.245e-3
-1.578, 6.124e-3
-1.577, 6.059e-3
-1.576, 6.022e-3
-1.575, 5.978e-3
-1.574, 5.936e-3
-1.573, 5.878e-3
-1.572, 5.783e-3
-1.571, 5.693e-3
-1.570, 5.606e-3
-1.569, 5.560e-3
-1.568, 5.510e-3
-1.567, 5.465e-3
-1.566, 5.409e-3
-1.565, 5.357e-3
-1.564, 5.274e-3
-1.563, 5.196e-3
-1.562, 5.140e-3
-1.561, 5.104e-3
-1.560, 5.070e-3
-1.559, 5.010e-3
-1.558, 4.945e-3
-1.557, 4.875e-3
-1.556, 4.809e-3
-1.555, 4.757e-3
-1.554, 4.710e-3
-1.553, 4.667e-3
-1.552, 4.615e-3
-1.551, 4.558e-3
-1.550, 4.498e-3
-1.549, 4.423e-3
-1.548, 4.389e-3
-1.547, 4.361e-3
-1.546, 4.315e-3
-1.545, 4.274e-3
-1.544, 4.247e-3
-1.543, 4.174e-3
-1.542, 4.105e-3
-1.541, 4.055e-3
-1.540, 4.016e-3
-1.539, 3.981e-3
-1.538, 3.934e-3
-1.537, 3.891e-3
-1.536, 3.843e-3
-1.535, 3.795e-3
-1.534, 3.749e-3
-1.533, 3.691e-3
-1.532, 3.640e-3
-1.531, 3.586e-3
-1.530, 3.556e-3
-1.529, 3.531e-3
-1.528, 3.487e-3
-1.527, 3.439e-3
-1.526, 3.393e-3
-1.525, 3.343e-3
-1.524, 3.292e-3
-1.523, 3.254e-3
-1.522, 3.216e-3
-1.521, 3.176e-3
-1.520, 3.141e-3
-1.519, 3.105e-3
-1.518, 3.066e-3
-1.517, 3.020e-3
-1.516, 2.975e-3
-1.515, 2.935e-3
-1.514, 2.896e-3
-1.513, 2.862e-3
-1.512, 2.831e-3
-1.511, 2.792e-3
-1.510, 2.758e-3
-1.509, 2.725e-3
-1.508, 2.695e-3
-1.507, 2.661e-3
-1.506, 2.622e-3
-1.505, 2.583e-3
-1.504, 2.545e-3
-1.503, 2.516e-3
-1.502, 2.484e-3
-1.501, 2.450e-3
-1.500, 2.420e-3
-1.499, 2.380e-3
-1.498, 2.345e-3
-1.497, 2.316e-3
-1.496, 2.296e-3
-1.495, 2.270e-3
-1.494, 2.238e-3
-1.493, 2.201e-3
-1.492, 2.166e-3
-1.491, 2.138e-3
-1.490, 2.103e-3
-1.489, 2.079e-3
-1.488, 2.048e-3
-1.487, 2.025e-3
-1.486, 2.002e-3
-1.485, 1.977e-3
-1.484, 1.947e-3
-1.483, 1.919e-3
-1.482, 1.887e-3
-1.481, 1.853e-3
-1.480, 1.830e-3
-1.479, 1.812e-3
-1.478, 1.792e-3
-1.477, 1.764e-3
-1.476, 1.734e-3
-1.475, 1.704e-3
-1.474, 1.674e-3
-1.473, 1.653e-3
-1.472, 1.634e-3
-1.471, 1.612e-3
-1.470, 1.588e-3
-1.469, 1.563e-3
-1.468, 1.537e-3
-1.467, 1.513e-3
-1.466, 1.491e-3
-1.465, 1.471e-3
-1.464, 1.447e-3
-1.463, 1.425e-3
-1.462, 1.403e-3
-1.461, 1.381e-3
-1.460, 1.362e-3
-1.459, 1.341e-3
-1.458, 1.319e-3
-1.457, 1.296e-3
-1.456, 1.276e-3
-1.455, 1.256e-3
-1.454, 1.235e-3
-1.453, 1.217e-3
-1.452, 1.197e-3
-1.451, 1.176e-3
-1.450, 1.161e-3
-1.449, 1.142e-3
-1.448, 1.123e-3
-1.447, 1.103e-3
-1.446, 1.085e-3
-1.445, 1.068e-3
-1.444, 1.050e-3
-1.443, 1.032e-3
-1.442, 1.015e-3
-1.441, 9.988e-4
-1.440, 9.832e-4
-1.439, 9.667e-4
-1.438, 9.467e-4
-1.437, 9.297e-4
-1.436, 9.164e-4
-1.435, 9.037e-4
-1.434, 8.887e-4
-1.433, 8.704e-4
-1.432, 8.529e-4
-1.431, 8.392e-4
-1.430, 8.257e-4
-1.429, 8.138e-4
-1.428, 7.982e-4
-1.427, 7.839e-4
-1.426, 7.698e-4
-1.425, 7.553e-4
-1.424, 7.404e-4
-1.423, 7.278e-4
-1.422, 7.152e-4
-1.421, 7.029e-4
-1.420, 6.912e-4
-1.419, 6.782e-4
-1.418, 6.650e-4
-1.417, 6.524e-4
-1.416, 6.407e-4
-1.415, 6.289e-4
-1.414, 6.160e-4
-1.413, 6.028e-4
-1.412, 5.925e-4
-1.411, 5.823e-4
-1.410, 5.726e-4
-1.409, 5.610e-4
-1.408, 5.491e-4
-1.407, 5.369e-4
-1.406, 5.267e-4
-1.405, 5.176e-4
-1.404, 5.080e-4
-1.403, 4.974e-4
-1.402, 4.865e-4
-1.401, 4.772e-4
-1.400, 4.679e-4
-1.399, 4.586e-4
-1.398, 4.483e-4
-1.397, 4.393e-4
-1.396, 4.314e-4
-1.395, 4.226e-4
-1.394, 4.138e-4
-1.393, 4.039e-4
-1.392, 3.951e-4
-1.391, 3.877e-4
-1.390, 3.804e-4
-1.389, 3.732e-4
-1.388, 3.642e-4
-1.387, 3.555e-4
-1.386, 3.486e-4
-1.385, 3.416e-4
-1.384, 3.343e-4
-1.383, 3.259e-4
-1.382, 3.183e-4
-1.381, 3.121e-4
-1.380, 3.061e-4
-1.379, 2.994e-4
-1.378, 2.918e-4
-1.377, 2.848e-4
-1.376, 2.791e-4
-1.375, 2.738e-4
-1.374, 2.670e-4
-1.373, 2.605e-4
-1.372, 2.541e-4
-1.371, 2.491e-4
-1.370, 2.443e-4
-1.369, 2.383e-4
-1.368, 2.315e-4
-1.367, 2.257e-4
-1.366, 2.213e-4
-1.365, 2.169e-4
-1.364, 2.121e-4
-1.363, 2.059e-4
-1.362, 2.005e-4
-1.361, 1.959e-4
-1.360, 1.920e-4
-1.359, 1.872e-4
-1.358, 1.814e-4
-1.357, 1.773e-4
-1.356, 1.731e-4
-1.355, 1.700e-4
-1.354, 1.658e-4
-1.353, 1.602e-4
-1.352, 1.556e-4
-1.351, 1.522e-4
-1.350, 1.493e-4
-1.349, 1.458e-4
-1.348, 1.409e-4
-1.347, 1.366e-4
-1.346, 1.336e-4
-1.345, 1.310e-4
-1.344, 1.274e-4
-1.343, 1.230e-4
-1.342, 1.189e-4
-1.341, 1.168e-4
-1.340, 1.144e-4
-1.339, 1.111e-4
-1.338, 1.070e-4
-1.337, 1.034e-4
-1.336, 1.013e-4
-1.335, 9.914e-5
-1.334, 9.594e-5
-1.333, 9.233e-5
-1.332, 8.934e-5
-1.331, 8.723e-5
-1.330, 8.564e-5
-1.329, 8.250e-5
-1.328, 7.918e-5
-1.327, 7.630e-5
-1.326, 7.448e-5
-1.325, 7.315e-5
-1.324, 7.056e-5
-1.323, 6.703e-5
-1.322, 6.463e-5
-1.321, 6.320e-5
-1.320, 6.197e-5
-1.319, 5.957e-5
-1.318, 5.628e-5
-1.317, 5.425e-5
-1.316, 5.304e-5
-1.315, 5.191e-5
-1.314, 4.974e-5
-1.313, 4.657e-5
-1.312, 4.480e-5
-1.311, 4.388e-5
-1.310, 4.274e-5
-1.309, 4.093e-5
-1.308, 3.809e-5
-1.307, 3.622e-5
-1.306, 3.543e-5
-1.305, 3.466e-5
-1.304, 3.294e-5
-1.303, 3.025e-5
-1.302, 2.835e-5
-1.301, 2.809e-5
-1.300, 2.733e-5
-1.299, 2.549e-5
-1.298, 2.325e-5
-1.297, 2.162e-5
-1.296, 2.133e-5
-1.295, 2.107e-5
-1.294, 1.893e-5
-1.293, 1.684e-5
-1.292, 1.533e-5
-1.291, 1.493e-5
-1.290, 1.480e-5
-1.289, 1.311e-5
-1.288, 1.099e-5
-1.287, 9.966e-6
-1.286, 9.653e-6
-1.285, 9.677e-6
-1.284, 8.093e-6
-1.283, 5.821e-6
-1.282, 5.008e-6
-1.281, 4.810e-6
-1.280, 4.709e-6
-1.279, 3.383e-6
-1.278, 1.279e-6
-1.277, 6.608e-7
-1.276, 6.115e-7
-1.275, 4.497e-7
-1.274, -8.260e-7
-1.273, -2.703e-6
-1.272, -3.402e-6
-1.271, -3.252e-6
-1.270, -3.416e-6
-1.269, -4.565e-6
-1.268, -6.387e-6
-1.267, -7.135e-6
-1.266, -6.784e-6
-1.265, -6.767e-6
-1.264, -7.989e-6
-1.263, -9.629e-6
-1.262, -1.058e-5
-1.261, -9.890e-6
-1.260, -9.754e-6
-1.259, -1.091e-5
-1.258, -1.249e-5
-1.257, -1.323e-5
-1.256, -1.270e-5
-1.255, -1.274e-5
-1.254, -1.411e-5
-1.253, -1.539e-5
-1.252, -1.580e-5
-1.251, -1.566e-5
-1.250, -1.517e-5
-1.249, -1.652e-5
-1.248, -1.773e-5
-1.247, -1.821e-5
-1.246, -1.793e-5
-1.245, -1.753e-5
-1.244, -1.881e-5
-1.243, -2.018e-5
-1.242, -2.026e-5
-1.241, -1.983e-5
-1.240, -1.949e-5
-1.239, -2.064e-5
-1.238, -2.214e-5
-1.237, -2.223e-5
-1.236, -2.165e-5
-1.235, -2.142e-5
-1.234, -2.256e-5
-1.233, -2.392e-5
-1.232, -2.391e-5
-1.231, -2.311e-5
-1.230, -2.320e-5
-1.229, -2.468e-5
-1.228, -2.549e-5
-1.227, -2.562e-5
-1.226, -2.478e-5
-1.225, -2.474e-5
-1.224, -2.545e-5
-1.223, -2.685e-5
-1.222, -2.698e-5
-1.221, -2.604e-5
-1.220, -2.591e-5
-1.219, -2.712e-5
-1.218, -2.813e-5
-1.217, -2.819e-5
-1.216, -2.720e-5
-1.215, -2.703e-5
-1.214, -2.837e-5
-1.213, -2.919e-5
-1.212, -2.917e-5
-1.211, -2.855e-5
-1.210, -2.813e-5
-1.209, -2.940e-5
-1.208, -3.035e-5
-1.207, -3.018e-5
-1.206, -2.952e-5
-1.205, -2.919e-5
-1.204, -3.029e-5
-1.203, -3.147e-5
-1.202, -3.129e-5
-1.201, -3.047e-5
-1.200, -3.021e-5
-1.199, -3.110e-5
-1.198, -3.238e-5
-1.197, -3.216e-5
-1.196, -3.128e-5
-1.195, -3.120e-5
-1.194, -3.214e-5
-1.193, -3.324e-5
-1.192, -3.301e-5
-1.191, -3.219e-5
-1.190, -3.219e-5
-1.189, -3.291e-5
-1.188, -3.394e-5
-1.187, -3.391e-5
-1.186, -3.286e-5
-1.185, -3.300e-5
-1.184, -3.388e-5
-1.183, -3.464e-5
-1.182, -3.483e-5
-1.181, -3.359e-5
-1.180, -3.352e-5
-1.179, -3.478e-5
-1.178, -3.581e-5
-1.177, -3.543e-5
-1.176, -3.465e-5
-1.175, -3.448e-5
-1.174, -3.591e-5
-1.173, -3.679e-5
-1.172, -3.619e-5
-1.171, -3.545e-5
-1.170, -3.515e-5
-1.169, -3.659e-5
-1.168, -3.739e-5
-1.167, -3.727e-5
-1.166, -3.651e-5
-1.165, -3.630e-5
-1.164, -3.723e-5
-1.163, -3.828e-5
-1.162, -3.773e-5
-1.161, -3.720e-5
-1.160, -3.697e-5
-1.159, -3.817e-5
-1.158, -3.911e-5
-1.157, -3.861e-5
-1.156, -3.756e-5
-1.155, -3.774e-5
-1.154, -3.867e-5
-1.153, -3.969e-5
-1.152, -3.927e-5
-1.151, -3.834e-5
-1.150, -3.857e-5
-1.149, -3.938e-5
-1.148, -4.038e-5
-1.147, -3.994e-5
-1.146, -3.895e-5
-1.145, -3.941e-5
-1.144, -4.025e-5
-1.143, -4.106e-5
-1.142, -4.079e-5
-1.141, -3.963e-5
-1.140, -3.984e-5
-1.139, -4.114e-5
-1.138, -4.191e-5
-1.137, -4.157e-5
-1.136, -4.053e-5
-1.135, -4.058e-5
-1.134, -4.201e-5
-1.133, -4.254e-5
-1.132, -4.212e-5
-1.131, -4.135e-5
-1.130, -4.131e-5
-1.129, -4.261e-5
-1.128, -4.329e-5
-1.127, -4.282e-5
-1.126, -4.217e-5
-1.125, -4.223e-5
-1.124, -4.319e-5
-1.123, -4.424e-5
-1.122, -4.341e-5
-1.121, -4.297e-5
-1.120, -4.288e-5
-1.119, -4.406e-5
-1.118, -4.505e-5
-1.117, -4.418e-5
-1.116, -4.350e-5
-1.115, -4.382e-5
-1.114, -4.521e-5
-1.113, -4.599e-5
-1.112, -4.514e-5
-1.111, -4.436e-5
-1.110, -4.474e-5
-1.109, -4.578e-5
-1.108, -4.668e-5
-1.107, -4.600e-5
-1.106, -4.518e-5
-1.105, -4.580e-5
-1.104, -4.686e-5
-1.103, -4.767e-5
-1.102, -4.723e-5
-1.101, -4.613e-5
-1.100, -4.643e-5
-1.099, -4.788e-5
-1.098, -4.840e-5
-1.097, -4.813e-5
-1.096, -4.702e-5
-1.095, -4.733e-5
-1.094, -4.872e-5
-1.093, -4.952e-5
-1.092, -4.879e-5
-1.091, -4.848e-5
-1.090, -4.871e-5
-1.089, -5.024e-5
-1.088, -5.043e-5
-1.087, -4.996e-5
-1.086, -4.926e-5
-1.085, -4.937e-5
-1.084, -5.080e-5
-1.083, -5.158e-5
-1.082, -5.104e-5
-1.081, -5.028e-5
-1.080, -5.062e-5
-1.079, -5.199e-5
-1.078, -5.263e-5
-1.077, -5.177e-5
-1.076, -5.124e-5
-1.075, -5.177e-5
-1.074, -5.307e-5
-1.073, -5.381e-5
-1.072, -5.311e-5
-1.071, -5.222e-5
-1.070, -5.294e-5
-1.069, -5.417e-5
-1.068, -5.469e-5
-1.067, -5.418e-5
-1.066, -5.337e-5
-1.065, -5.411e-5
-1.064, -5.537e-5
-1.063, -5.571e-5
-1.062, -5.529e-5
-1.061, -5.442e-5
-1.060, -5.494e-5
-1.059, -5.640e-5
-1.058, -5.696e-5
-1.057, -5.656e-5
-1.056, -5.557e-5
-1.055, -5.603e-5
-1.054, -5.751e-5
-1.053, -5.793e-5
-1.052, -5.755e-5
-1.051, -5.727e-5
-1.050, -5.747e-5
-1.049, -5.899e-5
-1.048, -5.923e-5
-1.047, -5.845e-5
-1.046, -5.796e-5
-1.045, -5.851e-5
-1.044, -6.001e-5
-1.043, -6.059e-5
-1.042, -5.982e-5
-1.041, -5.924e-5
-1.040, -5.975e-5
-1.039, -6.114e-5
-1.038, -6.173e-5
-1.037, -6.082e-5
-1.036, -6.025e-5
-1.035, -6.100e-5
-1.034, -6.209e-5
-1.033, -6.287e-5
-1.032, -6.205e-5
-1.031, -6.142e-5
-1.030, -6.229e-5
-1.029, -6.325e-5
-1.028, -6.376e-5
-1.027, -6.347e-5
-1.026, -6.274e-5
-1.025, -6.358e-5
-1.024, -6.484e-5
-1.023, -6.511e-5
-1.022, -6.436e-5
-1.021, -6.364e-5
-1.020, -6.464e-5
-1.019, -6.611e-5
-1.018, -6.641e-5
-1.017, -6.579e-5
-1.016, -6.487e-5
-1.015, -6.553e-5
-1.014, -6.737e-5
-1.013, -6.758e-5
-1.012, -6.677e-5
-1.011, -6.633e-5
-1.010, -6.698e-5
-1.009, -6.851e-5
-1.008, -6.869e-5
-1.007, -6.786e-5
-1.006, -6.783e-5
-1.005, -6.853e-5
-1.004, -7.024e-5
-1.003, -7.067e-5
-1.002, -6.967e-5
-1.001, -6.938e-5
-1.000, -3.561e-5
-1.001, -2.174e-5
-1.002, -1.740e-5
-1.003, -1.313e-5
-1.004, -9.458e-6
-1.005, -7.989e-6
-1.006, -7.141e-6
-1.007, -5.128e-6
-1.008, -2.763e-6
-1.009, -4.629e-7
-1.010, 4.517e-7
-1.011, 4.083e-7
-1.012, 1.621e-6
-1.013, 3.661e-6
-1.014, 5.375e-6
-1.015, 5.930e-6
-1.016, 5.478e-6
-1.017, 6.250e-6
-1.018, 8.372e-6
-1.019, 9.587e-6
-1.020, 9.683e-6
-1.021, 9.314e-6
-1.022, 9.862e-6
-1.023, 1.181e-5
-1.024, 1.294e-5
-1.025, 1.256e-5
-1.026, 1.223e-5
-1.027, 1.267e-5
-1.028, 1.422e-5
-1.029, 1.542e-5
-1.030, 1.507e-5
-1.031, 1.464e-5
-1.032, 1.491e-5
-1.033, 1.636e-5
-1.034, 1.758e-5
-1.035, 1.694e-5
-1.036, 1.642e-5
-1.037, 1.679e-5
-1.038, 1.820e-5
-1.039, 1.946e-5
-1.040, 1.858e-5
-1.041, 1.797e-5
-1.042, 1.852e-5
-1.043, 1.963e-5
-1.044, 2.072e-5
-1.045, 2.007e-5
-1.046, 1.920e-5
-1.047, 1.998e-5
-1.048, 2.108e-5
-1.049, 2.186e-5
-1.050, 2.135e-5
-1.051, 2.053e-5
-1.052, 2.100e-5
-1.053, 2.220e-5
-1.054, 2.294e-5
-1.055, 2.241e-5
-1.056, 2.147e-5
-1.057, 2.195e-5
-1.058, 2.340e-5
-1.059, 2.375e-5
-1.060, 2.332e-5
-1.061, 2.250e-5
-1.062, 2.284e-5
-1.063, 2.429e-5
-1.064, 2.461e-5
-1.065, 2.394e-5
-1.066, 2.339e-5
-1.067, 2.353e-5
-1.068, 2.506e-5
-1.069, 2.544e-5
-1.070, 2.476e-5
-1.071, 2.416e-5
-1.072, 2.430e-5
-1.073, 2.557e-5
-1.074, 2.621e-5
-1.075, 2.561e-5
-1.076, 2.477e-5
-1.077, 2.501e-5
-1.078, 2.621e-5
-1.079, 2.696e-5
-1.080, 2.591e-5
-1.081, 2.518e-5
-1.082, 2.575e-5
-1.083, 2.678e-5
-1.084, 2.723e-5
-1.085, 2.651e-5
-1.086, 2.569e-5
-1.087, 2.631e-5
-1.088, 2.727e-5
-1.089, 2.769e-5
-1.090, 2.707e-5
-1.091, 2.609e-5
-1.092, 2.671e-5
-1.093, 2.778e-5
-1.094, 2.825e-5
-1.095, 2.761e-5
-1.096, 2.657e-5
-1.097, 2.701e-5
-1.098, 2.837e-5
-1.099, 2.856e-5
-1.100, 2.798e-5
-1.101, 2.721e-5
-1.102, 2.745e-5
-1.103, 2.884e-5
-1.104, 2.892e-5
-1.105, 2.819e-5
-1.106, 2.760e-5
-1.107, 2.780e-5
-1.108, 2.921e-5
-1.109, 2.945e-5
-1.110, 2.849e-5
-1.111, 2.801e-5
-1.112, 2.834e-5
-1.113, 2.953e-5
-1.114, 2.997e-5
-1.115, 2.890e-5
-1.116, 2.821e-5
-1.117, 2.858e-5
-1.118, 2.982e-5
-1.119, 3.035e-5
-1.120, 2.925e-5
-1.121, 2.864e-5
-1.122, 2.910e-5
-1.123, 3.016e-5
-1.124, 3.051e-5
-1.125, 2.965e-5
-1.126, 2.893e-5
-1.127, 2.968e-5
-1.128, 3.057e-5
-1.129, 3.079e-5
-1.130, 3.014e-5
-1.131, 2.916e-5
-1.132, 2.985e-5
-1.133, 3.096e-5
-1.134, 3.116e-5
-1.135, 3.040e-5
-1.136, 2.950e-5
-1.137, 3.015e-5
-1.138, 3.142e-5
-1.139, 3.146e-5
-1.140, 3.070e-5
-1.141, 2.995e-5
-1.142, 3.037e-5
-1.143, 3.169e-5
-1.144, 3.179e-5
-1.145, 3.096e-5
-1.146, 3.031e-5
-1.147, 3.082e-5
-1.148, 3.200e-5
-1.149, 3.229e-5
-1.150, 3.111e-5
-1.151, 3.058e-5
-1.152, 3.127e-5
-1.153, 3.239e-5
-1.154, 3.257e-5
-1.155, 3.143e-5
-1.156, 3.091e-5
-1.157, 3.161e-5
-1.158, 3.273e-5
-1.159, 3.295e-5
-1.160, 3.186e-5
-1.161, 3.119e-5
-1.162, 3.191e-5
-1.163, 3.314e-5
-1.164, 3.323e-5
-1.165, 3.266e-5
-1.166, 3.234e-5
-1.167, 3.298e-5
-1.168, 3.361e-5
-1.169, 3.365e-5
-1.170, 3.284e-5
-1.171, 3.201e-5
-1.172, 3.295e-5
-1.173, 3.386e-5
-1.174, 3.398e-5
-1.175, 3.296e-5
-1.176, 3.232e-5
-1.177, 3.343e-5
-1.178, 3.443e-5
-1.179, 3.439e-5
-1.180, 3.345e-5
-1.181, 3.268e-5
-1.182, 3.349e-5
-1.183, 3.486e-5
-1.184, 3.455e-5
-1.185, 3.381e-5
-1.186, 3.347e-5
-1.187, 3.410e-5
-1.188, 3.525e-5
-1.189, 3.520e-5
-1.190, 3.428e-5
-1.191, 3.390e-5
-1.192, 3.461e-5
-1.193, 3.563e-5
-1.194, 3.608e-5
-1.195, 3.478e-5
-1.196, 3.440e-5
-1.197, 3.545e-5
-1.198, 3.627e-5
-1.199, 3.658e-5
-1.200, 3.537e-5
-1.201, 3.510e-5
-1.202, 3.611e-5
-1.203, 3.702e-5
-1.204, 3.729e-5
-1.205, 3.610e-5
-1.206, 3.585e-5
-1.207, 3.688e-5
-1.208, 3.783e-5
-1.209, 3.784e-5
-1.210, 3.713e-5
-1.211, 3.663e-5
-1.212, 3.782e-5
-1.213, 3.885e-5
-1.214, 3.877e-5
-1.215, 3.800e-5
-1.216, 3.767e-5
-1.217, 3.875e-5
-1.218, 4.003e-5
-1.219, 3.975e-5
-1.220, 3.907e-5
-1.221, 3.883e-5
-1.222, 3.998e-5
-1.223, 4.135e-5
-1.224, 4.107e-5
-1.225, 4.019e-5
-1.226, 4.021e-5
-1.227, 4.099e-5
-1.228, 4.293e-5
-1.229, 4.286e-5
-1.230, 4.187e-5
-1.231, 4.207e-5
-1.232, 4.282e-5
-1.233, 4.402e-5
-1.234, 4.411e-5
-1.235, 4.331e-5
-1.236, 4.353e-5
-1.237, 4.476e-5
-1.238, 4.594e-5
-1.239, 4.634e-5
-1.240, 4.525e-5
-1.241, 4.543e-5
-1.242, 4.688e-5
-1.243, 4.797e-5
-1.244, 4.823e-5
-1.245, 4.768e-5
-1.246, 4.777e-5
-1.247, 4.938e-5
-1.248, 5.053e-5
-1.249, 5.068e-5
-1.250, 5.023e-5
-1.251, 5.037e-5
-1.252, 5.196e-5
-1.253, 5.345e-5
-1.254, 5.360e-5
-1.255, 5.322e-5
-1.256, 5.349e-5
-1.257, 5.500e-5
-1.258, 5.670e-5
-1.259, 5.692e-5
-1.260, 5.662e-5
-1.261, 5.695e-5
-1.262, 5.845e-5
-1.263, 6.044e-5
-1.264, 6.052e-5
-1.265, 6.031e-5
-1.266, 6.116e-5
-1.267, 6.263e-5
-1.268, 6.461e-5
-1.269, 6.503e-5
-1.270, 6.461e-5
-1.271, 6.556e-5
-1.272, 6.716e-5
-1.273, 6.892e-5
-1.274, 6.998e-5
-1.275, 6.971e-5
-1.276, 7.070e-5
-1.277, 7.270e-5
-1.278, 7.447e-5
-1.279, 7.503e-5
-1.280, 7.566e-5
-1.281, 7.634e-5
-1.282, 7.908e-5
-1.283, 8.104e-5
-1.284, 8.160e-5
-1.285, 8.177e-5
-1.286, 8.282e-5
-1.287, 8.514e-5
-1.288, 8.755e-5
-1.289, 8.885e-5
-1.290, 8.940e-5
-1.291, 9.053e-5
-1.292, 9.317e-5
-1.293, 9.543e-5
-1.294, 9.641e-5
-1.295, 9.721e-5
-1.296, 9.875e-5
-1.297, 1.016e-4
-1.298, 1.044e-4
-1.299, 1.058e-4
-1.300, 1.066e-4
-1.301, 1.083e-4
-1.302, 1.114e-4
-1.303, 1.141e-4
-1.304, 1.156e-4
-1.305, 1.167e-4
-1.306, 1.191e-4
-1.307, 1.222e-4
-1.308, 1.253e-4
-1.309, 1.272e-4
-1.310, 1.287e-4
-1.311, 1.312e-4
-1.312, 1.344e-4
-1.313, 1.377e-4
-1.314, 1.396e-4
-1.315, 1.413e-4
-1.316, 1.444e-4
-1.317, 1.485e-4
-1.318, 1.520e-4
-1.319, 1.546e-4
-1.320, 1.563e-4
-1.321, 1.593e-4
-1.322, 1.641e-4
-1.323, 1.682e-4
-1.324, 1.709e-4
-1.325, 1.730e-4
-1.326, 1.763e-4
-1.327, 1.809e-4
-1.328, 1.856e-4
-1.329, 1.892e-4
-1.330, 1.921e-4
-1.331, 1.960e-4
-1.332, 2.006e-4
-1.333, 2.054e-4
-1.334, 2.093e-4
-1.335, 2.130e-4
-1.336, 2.174e-4
-1.337, 2.226e-4
-1.338, 2.271e-4
-1.339, 2.315e-4
-1.340, 2.357e-4
-1.341, 2.418e-4
-1.342, 2.487e-4
-1.343, 2.540e-4
-1.344, 2.577e-4
-1.345, 2.612e-4
-1.346, 2.668e-4
-1.347, 2.744e-4
-1.348, 2.819e-4
-1.349, 2.869e-4
-1.350, 2.923e-4
-1.351, 2.985e-4
-1.352, 3.056e-4
-1.353, 3.128e-4
-1.354, 3.183e-4
-1.355, 3.234e-4
-1.356, 3.302e-4
-1.357, 3.393e-4
-1.358, 3.477e-4
-1.359, 3.547e-4
-1.360, 3.609e-4
-1.361, 3.684e-4
-1.362, 3.769e-4
-1.363, 3.855e-4
-1.364, 3.925e-4
-1.365, 3.997e-4
-1.366, 4.085e-4
-1.367, 4.188e-4
-1.368, 4.286e-4
-1.369, 4.374e-4
-1.370, 4.454e-4
-1.371, 4.539e-4
-1.372, 4.635e-4
-1.373, 4.719e-4
-1.374, 4.823e-4
-1.375, 4.927e-4
-1.376, 5.040e-4
-1.377, 5.151e-4
-1.378, 5.262e-4
-1.379, 5.354e-4
-1.380, 5.442e-4
-1.381, 5.547e-4
-1.382, 5.664e-4
-1.383, 5.803e-4
-1.384, 5.908e-4
-1.385, 6.022e-4
-1.386, 6.136e-4
-1.387, 6.260e-4
-1.388, 6.385e-4
-1.389, 6.500e-4
-1.390, 6.617e-4
-1.391, 6.750e-4
-1.392, 6.891e-4
-1.393, 7.021e-4
-1.394, 7.141e-4
-1.395, 7.258e-4
-1.396, 7.398e-4
-1.397, 7.529e-4
-1.398, 7.677e-4
-1.399, 7.831e-4
-1.400, 7.989e-4
-1.401, 8.137e-4
-1.402, 8.275e-4
-1.403, 8.400e-4
-1.404, 8.504e-4
-1.405, 8.646e-4
-1.406, 8.829e-4
-1.407, 9.009e-4
-1.408, 9.174e-4
-1.409, 9.323e-4
-1.410, 9.470e-4
-1.411, 9.624e-4
-1.412, 9.775e-4
-1.413, 9.917e-4
-1.414, 1.006e-3
-1.415, 1.024e-3
-1.416, 1.043e-3
-1.417, 1.061e-3
-1.418, 1.078e-3
-1.419, 1.096e-3
-1.420, 1.112e-3
-1.421, 1.128e-3
-1.422, 1.144e-3
-1.423, 1.164e-3
-1.424, 1.183e-3
-1.425, 1.200e-3
-1.426, 1.217e-3
-1.427, 1.234e-3
-1.428, 1.253e-3
-1.429, 1.274e-3
-1.430, 1.290e-3
-1.431, 1.307e-3
-1.432, 1.332e-3
-1.433, 1.353e-3
-1.434, 1.372e-3
-1.435, 1.385e-3
-1.436, 1.404e-3
-1.437, 1.423e-3
-1.438, 1.447e-3
-1.439, 1.472e-3
-1.440, 1.494e-3
-1.441, 1.513e-3
-1.442, 1.534e-3
-1.443, 1.554e-3
-1.444, 1.570e-3
-1.445, 1.589e-3
-1.446, 1.611e-3
-1.447, 1.636e-3
-1.448, 1.660e-3
-1.449, 1.684e-3
-1.450, 1.706e-3
-1.451, 1.726e-3
-1.452, 1.749e-3
-1.453, 1.774e-3
-1.454, 1.789e-3
-1.455, 1.816e-3
-1.456, 1.842e-3
-1.457, 1.864e-3
-1.458, 1.890e-3
-1.459, 1.911e-3
-1.460, 1.933e-3
-1.461, 1.960e-3
-1.462, 1.984e-3
-1.463, 2.016e-3
-1.464, 2.041e-3
-1.465, 2.062e-3
-1.466, 2.085e-3
-1.467, 2.106e-3
-1.468, 2.135e-3
-1.469, 2.166e-3
-1.470, 2.190e-3
-1.471, 2.210e-3
-1.472, 2.229e-3
-1.473, 2.260e-3
-1.474, 2.295e-3
-1.475, 2.328e-3
-1.476, 2.356e-3
-1.477, 2.382e-3
-1.478, 2.404e-3
-1.479, 2.424e-3
-1.480, 2.449e-3
-1.481, 2.481e-3
-1.482, 2.517e-3
-1.483, 2.552e-3
-1.484, 2.580e-3
-1.485, 2.602e-3
-1.486, 2.622e-3
-1.487, 2.651e-3
-1.488, 2.683e-3
-1.489, 2.727e-3
-1.490, 2.766e-3
-1.491, 2.796e-3
-1.492, 2.822e-3
-1.493, 2.839e-3
-1.494, 2.849e-3
-1.495, 2.890e-3
-1.496, 2.935e-3
-1.497, 2.978e-3
-1.498, 3.016e-3
-1.499, 3.045e-3
-1.500, 3.064e-3
-1.501, 3.080e-3
-1.502, 3.118e-3
-1.503, 3.164e-3
-1.504, 3.195e-3
-1.505, 3.222e-3
-1.506, 3.260e-3
-1.507, 3.298e-3
-1.508, 3.339e-3
-1.509, 3.382e-3
-1.510, 3.417e-3
-1.511, 3.444e-3
-1.512, 3.463e-3
-1.513, 3.484e-3
-1.514, 3.530e-3
-1.515, 3.581e-3
-1.516, 3.636e-3
-1.517, 3.677e-3
-1.518, 3.706e-3
-1.519, 3.733e-3
-1.520, 3.726e-3
-1.521, 3.759e-3
-1.522, 3.794e-3
-1.523, 3.864e-3
-1.524, 3.942e-3
-1.525, 3.993e-3
-1.526, 4.013e-3
-1.527, 4.023e-3
-1.528, 4.024e-3
-1.529, 4.056e-3
-1.530, 4.108e-3
-1.531, 4.175e-3
-1.532, 4.243e-3
-1.533, 4.299e-3
-1.534, 4.332e-3
-1.535, 4.355e-3
-1.536, 4.360e-3
-1.537, 4.387e-3
-1.538, 4.441e-3
-1.539, 4.503e-3
-1.540, 4.561e-3
-1.541, 4.607e-3
-1.542, 4.657e-3
-1.543, 4.683e-3
-1.544, 4.701e-3
-1.545, 4.742e-3
-1.546, 4.787e-3
-1.547, 4.851e-3
-1.548, 4.934e-3
-1.549, 4.989e-3
-1.550, 5.003e-3
-1.551, 4.986e-3
-1.552, 5.046e-3
-1.553, 5.126e-3
-1.554, 5.200e-3
-1.555, 5.238e-3
-1.556, 5.241e-3
-1.557, 5.250e-3
-1.558, 5.337e-3
-1.559, 5.433e-3
-1.560, 5.499e-3
-1.561, 5.536e-3
-1.562, 5.561e-3
-1.563, 5.555e-3
-1.564, 5.579e-3
-1.565, 5.672e-3
-1.566, 5.768e-3
-1.567, 5.847e-3
-1.568, 5.891e-3
-1.569, 5.914e-3
-1.570, 5.927e-3
-1.571, 5.952e-3
-1.572, 6.020e-3
-1.573, 6.101e-3
-1.574, 6.152e-3
-1.575, 6.186e-3
-1.576, 6.234e-3
-1.577, 6.305e-3
-1.578, 6.382e-3
-1.579, 6.450e-3
-1.580, 6.461e-3
-1.581, 6.468e-3
-1.582, 6.539e-3
-1.583, 6.602e-3
-1.584, 6.664e-3
-1.585, 6.757e-3
-1.586, 6.829e-3
-1.587, 6.865e-3
-1.588, 6.877e-3
-1.589, 6.894e-3
-1.590, 6.957e-3
-1.591, 7.022e-3
-1.592, 7.105e-3
-1.593, 7.193e-3
-1.594, 7.263e-3
-1.595, 7.317e-3
-1.596, 7.353e-3
-1.597, 7.379e-3
-1.598, 7.408e-3
-1.599, 7.480e-3
-1.600, 7.485e-3
-1.599, 7.407e-3
-1.598, 7.325e-3
-1.597, 7.262e-3
-1.596, 7.192e-3
-1.595, 7.130e-3
-1.594, 7.060e-3
-1.593, 6.987e-3
-1.592, 6.896e-3
-1.591, 6.794e-3
-1.590, 6.723e-3
-1.589, 6.657e-3
-1.588, 6.625e-3
-1.587, 6.566e-3
-1.586, 6.479e-3
-1.585, 6.400e-3
-1.584, 6.341e-3
-1.583, 6.271e-3
-1.582, 6.215e-3
-1.581, 6.153e-3
-1.580, 6.079e-3
-1.579, 5.985e-3
-1.578, 5.912e-3
-1.577, 5.887e-3
-1.576, 5.850e-3
-1.575, 5.799e-3
-1.574, 5.733e-3
-1.573, 5.658e-3
-1.572, 5.585e-3
-1.571, 5.508e-3
-1.570, 5.440e-3
-1.569, 5.374e-3
-1.568, 5.304e-3
-1.567, 5.245e-3
-1.566, 5.195e-3
-1.565, 5.158e-3
-1.564, 5.101e-3
-1.563, 5.022e-3
-1.562, 4.953e-3
-1.561, 4.896e-3
-1.560, 4.840e-3
-1.559, 4.792e-3
-1.558, 4.747e-3
-1.557, 4.687e-3
-1.556, 4.626e-3
-1.555, 4.566e-3
-1.554, 4.535e-3
-1.553, 4.502e-3
-1.552, 4.451e-3
-1.551, 4.390e-3
-1.550, 4.319e-3
-1.549, 4.242e-3
-1.548, 4.181e-3
-1.547, 4.147e-3
-1.546, 4.111e-3
-1.545, 4.072e-3
-1.544, 4.013e-3
-1.543, 3.954e-3
-1.542, 3.880e-3
-1.541, 3.808e-3
-1.540, 3.766e-3
-1.539, 3.732e-3
-1.538, 3.725e-3
-1.537, 3.697e-3
-1.536, 3.638e-3
-1.535, 3.574e-3
-1.534, 3.503e-3
-1.533, 3.456e-3
-1.532, 3.416e-3
-1.531, 3.394e-3
-1.530, 3.367e-3
-1.529, 3.343e-3
-1.528, 3.300e-3
-1.527, 3.252e-3
-1.526, 3.195e-3
-1.525, 3.151e-3
-1.524, 3.122e-3
-1.523, 3.089e-3
-1.522, 3.057e-3
-1.521, 3.018e-3
-1.520, 2.975e-3
-1.519, 2.935e-3
-1.518, 2.895e-3
-1.517, 2.857e-3
-1.516, 2.821e-3
-1.515, 2.773e-3
-1.514, 2.752e-3
-1.513, 2.720e-3
-1.512, 2.685e-3
-1.511, 2.656e-3
-1.510, 2.619e-3
-1.509, 2.574e-3
-1.508, 2.538e-3
-1.507, 2.498e-3
-1.506, 2.462e-3
-1.505, 2.449e-3
-1.504, 2.421e-3
-1.503, 2.394e-3
-1.502, 2.359e-3
-1.501, 2.314e-3
-1.500, 2.268e-3
-1.499, 2.247e-3
-1.498, 2.226e-3
-1.497, 2.201e-3
-1.496, 2.169e-3
-1.495, 2.136e-3
-1.494, 2.099e-3
-1.493, 2.071e-3
-1.492, 2.043e-3
-1.491, 2.016e-3
-1.490, 1.990e-3
-1.489, 1.965e-3
-1.488, 1.937e-3
-1.487, 1.905e-3
-1.486, 1.873e-3
-1.485, 1.841e-3
-1.484, 1.820e-3
-1.483, 1.800e-3
-1.482, 1.780e-3
-1.481, 1.752e-3
-1.480, 1.724e-3
-1.479, 1.698e-3
-1.478, 1.668e-3
-1.477, 1.639e-3
-1.476, 1.610e-3
-1.475, 1.600e-3
-1.474, 1.575e-3
-1.473, 1.558e-3
-1.472, 1.540e-3
-1.471, 1.514e-3
-1.470, 1.482e-3
-1.469, 1.451e-3
-1.468, 1.430e-3
-1.467, 1.415e-3
-1.466, 1.398e-3
-1.465, 1.380e-3
-1.464, 1.361e-3
-1.463, 1.338e-3
-1.462, 1.314e-3
-1.461, 1.291e-3
-1.460, 1.269e-3
-1.459, 1.253e-3
-1.458, 1.236e-3
-1.457, 1.219e-3
-1.456, 1.201e-3
-1.455, 1.181e-3
-1.454, 1.160e-3
-1.453, 1.139e-3
-1.452, 1.119e-3
-1.451, 1.101e-3
-1.450, 1.084e-3
-1.449, 1.069e-3
-1.448, 1.053e-3
-1.447, 1.035e-3
-1.446, 1.018e-3
-1.445, 1.001e-3
-1.444, 9.825e-4
-1.443, 9.628e-4
-1.442, 9.451e-4
-1.441, 9.312e-4
-1.440, 9.189e-4
-1.439, 9.043e-4
-1.438, 8.888e-4
-1.437, 8.729e-4
-1.436, 8.558e-4
-1.435, 8.390e-4
-1.434, 8.268e-4
-1.433, 8.148e-4
-1.432, 7.994e-4
-1.431, 7.833e-4
-1.430, 7.701e-4
-1.429, 7.575e-4
-1.428, 7.437e-4
-1.427, 7.233e-4
-1.426, 7.144e-4
-1.425, 6.994e-4
-1.424, 6.918e-4
-1.423, 6.823e-4
-1.422, 6.674e-4
-1.421, 6.525e-4
-1.420, 6.385e-4
-1.419, 6.275e-4
-1.418, 6.184e-4
-1.417, 6.058e-4
-1.416, 5.932e-4
-1.415, 5.828e-4
-1.414, 5.729e-4
-1.413, 5.628e-4
-1.412, 5.504e-4
-1.411, 5.386e-4
-1.410, 5.275e-4
-1.409, 5.188e-4
-1.408, 5.086e-4
-1.407, 4.993e-4
-1.406, 4.881e-4
-1.405, 4.788e-4
-1.404, 4.698e-4
-1.403, 4.596e-4
-1.402, 4.491e-4
-1.401, 4.399e-4
-1.400, 4.317e-4
-1.399, 4.253e-4
-1.398, 4.170e-4
-1.397, 4.083e-4
-1.396, 3.985e-4
-1.395, 3.894e-4
-1.394, 3.813e-4
-1.393, 3.731e-4
-1.392, 3.667e-4
-1.391, 3.589e-4
-1.390, 3.515e-4
-1.389, 3.450e-4
-1.388, 3.376e-4
-1.387, 3.290e-4
-1.386, 3.211e-4
-1.385, 3.147e-4
-1.384, 3.098e-4
-1.383, 3.032e-4
-1.382, 2.951e-4
-1.381, 2.873e-4
-1.380, 2.814e-4
-1.379, 2.757e-4
-1.378, 2.710e-4
-1.377, 2.640e-4
-1.376, 2.575e-4
-1.375, 2.515e-4
-1.374, 2.462e-4
-1.373, 2.408e-4
-1.372, 2.349e-4
-1.371, 2.286e-4
-1.370, 2.235e-4
-1.369, 2.191e-4
-1.368, 2.144e-4
-1.367, 2.085e-4
-1.366, 2.027e-4
-1.365, 1.984e-4
-1.364, 1.945e-4
-1.363, 1.898e-4
-1.362, 1.847e-4
-1.361, 1.788e-4
-1.360, 1.752e-4
-1.359, 1.721e-4
-1.358, 1.676e-4
-1.357, 1.626e-4
-1.356, 1.577e-4
-1.355, 1.539e-4
-1.354, 1.513e-4
-1.353, 1.476e-4
-1.352, 1.428e-4
-1.351, 1.387e-4
-1.350, 1.355e-4
-1.349, 1.326e-4
-1.348, 1.293e-4
-1.347, 1.245e-4
-1.346, 1.207e-4
-1.345, 1.180e-4
-1.344, 1.161e-4
-1.343, 1.131e-4
-1.342, 1.087e-4
-1.341, 1.052e-4
-1.340, 1.026e-4
-1.339, 1.006e-4
-1.338, 9.815e-5
-1.337, 9.432e-5
-1.336, 9.076e-5
-1.335, 8.869e-5
-1.334, 8.675e-5
-1.333, 8.446e-5
-1.332, 8.115e-5
-1.331, 7.774e-5
-1.330, 7.606e-5
-1.329, 7.455e-5
-1.328, 7.229e-5
-1.327, 6.900e-5
-1.326, 6.593e-5
-1.325, 6.446e-5
-1.324, 6.358e-5
-1.323, 6.127e-5
-1.322, 5.839e-5
-1.321, 5.543e-5
-1.320, 5.422e-5
-1.319, 5.319e-5
-1.318, 5.118e-5
-1.317, 4.866e-5
-1.316, 4.626e-5
-1.315, 4.485e-5
-1.314, 4.424e-5
-1.313, 4.235e-5
-1.312, 3.980e-5
-1.311, 3.749e-5
-1.310, 3.642e-5
-1.309, 3.596e-5
-1.308, 3.450e-5
-1.307, 3.197e-5
-1.306, 2.990e-5
-1.305, 2.885e-5
-1.304, 2.873e-5
-1.303, 2.745e-5
-1.302, 2.483e-5
-1.301, 2.306e-5
-1.300, 2.238e-5
-1.299, 2.198e-5
-1.298, 2.086e-5
-1.297, 1.853e-5
-1.296, 1.691e-5
-1.295, 1.641e-5
-1.294, 1.609e-5
-1.293, 1.507e-5
-1.292, 1.312e-5
-1.291, 1.107e-5
-1.290, 1.093e-5
-1.289, 1.069e-5
-1.288, 9.907e-6
-1.287, 7.864e-6
-1.286, 6.105e-6
-1.285, 6.163e-6
-1.284, 6.067e-6
-1.283, 5.119e-6
-1.282, 3.293e-6
-1.281, 1.586e-6
-1.280, 1.372e-6
-1.279, 1.661e-6
-1.278, 6.628e-7
-1.277, -9.848e-7
-1.276, -2.472e-6
-1.275, -2.551e-6
-1.274, -2.103e-6
-1.273, -3.168e-6
-1.272, -4.700e-6
-1.271, -5.944e-6
-1.270, -6.157e-6
-1.269, -5.558e-6
-1.268, -6.433e-6
-1.267, -8.267e-6
-1.266, -9.284e-6
-1.265, -9.137e-6
-1.264, -8.711e-6
-1.263, -9.499e-6
-1.262, -1.121e-5
-1.261, -1.212e-5
-1.260, -1.191e-5
-1.259, -1.168e-5
-1.258, -1.218e-5
-1.257, -1.389e-5
-1.256, -1.468e-5
-1.255, -1.448e-5
-1.254, -1.422e-5
-1.253, -1.461e-5
-1.252, -1.614e-5
-1.251, -1.722e-5
-1.250, -1.679e-5
-1.249, -1.649e-5
-1.248, -1.689e-5
-1.247, -1.832e-5
-1.246, -1.942e-5
-1.245, -1.895e-5
-1.244, -1.845e-5
-1.243, -1.894e-5
-1.242, -2.029e-5
-1.241, -2.130e-5
-1.240, -2.084e-5
-1.239, -2.020e-5
-1.238, -2.096e-5
-1.237, -2.214e-5
-1.236, -2.294e-5
-1.235, -2.257e-5
-1.234, -2.188e-5
-1.233, -2.249e-5
-1.232, -2.364e-5
-1.231, -2.450e-5
-1.230, -2.427e-5
-1.229, -2.391e-5
-1.228, -2.396e-5
-1.227, -2.542e-5
-1.226, -2.597e-5
-1.225, -2.550e-5
-1.224, -2.469e-5
-1.223, -2.524e-5
-1.222, -2.674e-5
-1.221, -2.725e-5
-1.220, -2.675e-5
-1.219, -2.616e-5
-1.218, -2.660e-5
-1.217, -2.818e-5
-1.216, -2.879e-5
-1.215, -2.795e-5
-1.214, -2.737e-5
-1.213, -2.772e-5
-1.212, -2.909e-5
-1.211, -2.975e-5
-1.210, -2.923e-5
-1.209, -2.853e-5
-1.208, -2.884e-5
-1.207, -3.005e-5
-1.206, -3.078e-5
-1.205, -2.981e-5
-1.204, -2.934e-5
-1.203, -2.992e-5
-1.202, -3.113e-5
-1.201, -3.175e-5
-1.200, -3.096e-5
-1.199, -3.019e-5
-1.198, -3.077e-5
-1.197, -3.191e-5
-1.196, -3.223e-5
-1.195, -3.182e-5
-1.194, -3.113e-5
-1.193, -3.173e-5
-1.192, -3.281e-5
-1.191, -3.325e-5
-1.190, -3.271e-5
-1.189, -3.179e-5
-1.188, -3.219e-5
-1.187, -3.358e-5
-1.186, -3.399e-5
-1.185, -3.343e-5
-1.184, -3.274e-5
-1.183, -3.298e-5
-1.182, -3.451e-5
-1.181, -3.462e-5
-1.180, -3.405e-5
-1.179, -3.357e-5
-1.178, -3.404e-5
-1.177, -3.518e-5
-1.176, -3.542e-5
-1.175, -3.477e-5
-1.174, -3.421e-5
-1.173, -3.463e-5
-1.172, -3.595e-5
-1.171, -3.637e-5
-1.170, -3.551e-5
-1.169, -3.487e-5
-1.168, -3.525e-5
-1.167, -3.645e-5
-1.166, -3.721e-5
-1.165, -3.625e-5
-1.164, -3.581e-5
-1.163, -3.638e-5
-1.162, -3.742e-5
-1.161, -3.768e-5
-1.160, -3.713e-5
-1.159, -3.608e-5
-1.158, -3.701e-5
-1.157, -3.815e-5
-1.156, -3.851e-5
-1.155, -3.798e-5
-1.154, -3.708e-5
-1.153, -3.782e-5
-1.152, -3.898e-5
-1.151, -3.911e-5
-1.150, -3.858e-5
-1.149, -3.776e-5
-1.148, -3.840e-5
-1.147, -3.993e-5
-1.146, -4.015e-5
-1.145, -3.955e-5
-1.144, -3.859e-5
-1.143, -3.913e-5
-1.142, -4.055e-5
-1.141, -4.053e-5
-1.140, -4.003e-5
-1.139, -3.956e-5
-1.138, -4.005e-5
-1.137, -4.141e-5
-1.136, -4.165e-5
-1.135, -4.067e-5
-1.134, -4.015e-5
-1.133, -4.055e-5
-1.132, -4.188e-5
-1.131, -4.263e-5
-1.130, -4.160e-5
-1.129, -4.118e-5
-1.128, -4.156e-5
-1.127, -4.278e-5
-1.126, -4.316e-5
-1.125, -4.217e-5
-1.124, -4.163e-5
-1.123, -4.237e-5
-1.122, -4.347e-5
-1.121, -4.395e-5
-1.120, -4.290e-5
-1.119, -4.240e-5
-1.118, -4.312e-5
-1.117, -4.418e-5
-1.116, -4.456e-5
-1.115, -4.397e-5
-1.114, -4.305e-5
-1.113, -4.400e-5
-1.112, -4.497e-5
-1.111, -4.519e-5
-1.110, -4.473e-5
-1.109, -4.377e-5
-1.108, -4.472e-5
-1.107, -4.593e-5
-1.106, -4.606e-5
-1.105, -4.540e-5
-1.104, -4.454e-5
-1.103, -4.537e-5
-1.102, -4.684e-5
-1.101, -4.688e-5
-1.100, -4.617e-5
-1.099, -4.570e-5
-1.098, -4.631e-5
-1.097, -4.764e-5
-1.096, -4.775e-5
-1.095, -4.703e-5
-1.094, -4.656e-5
-1.093, -4.735e-5
-1.092, -4.869e-5
-1.091, -4.879e-5
-1.090, -4.793e-5
-1.089, -4.752e-5
-1.088, -4.810e-5
-1.087, -4.933e-5
-1.086, -4.993e-5
-1.085, -4.903e-5
-1.084, -4.846e-5
-1.083, -4.925e-5
-1.082, -5.044e-5
-1.081, -5.072e-5
-1.080, -4.987e-5
-1.079, -4.944e-5
-1.078, -5.050e-5
-1.077, -5.169e-5
-1.076, -5.186e-5
-1.075, -5.121e-5
-1.074, -5.039e-5
-1.073, -5.156e-5
-1.072, -5.272e-5
-1.071, -5.296e-5
-1.070, -5.237e-5
-1.069, -5.156e-5
-1.068, -5.249e-5
-1.067, -5.361e-5
-1.066, -5.418e-5
-1.065, -5.367e-5
-1.064, -5.339e-5
-1.063, -5.442e-5
-1.062, -5.572e-5
-1.061, -5.539e-5
-1.060, -5.461e-5
-1.059, -5.417e-5
-1.058, -5.530e-5
-1.057, -5.680e-5
-1.056, -5.683e-5
-1.055, -5.600e-5
-1.054, -5.575e-5
-1.053, -5.641e-5
-1.052, -5.760e-5
-1.051, -5.800e-5
-1.050, -5.718e-5
-1.049, -5.679e-5
-1.048, -5.762e-5
-1.047, -5.891e-5
-1.046, -5.929e-5
-1.045, -5.828e-5
-1.044, -5.803e-5
-1.043, -5.927e-5
-1.042, -6.001e-5
-1.041, -6.023e-5
-1.040, -5.935e-5
-1.039, -5.875e-5
-1.038, -6.065e-5
-1.037, -6.141e-5
-1.036, -6.174e-5
-1.035, -6.098e-5
-1.034, -6.055e-5
-1.033, -6.157e-5
-1.032, -6.258e-5
-1.031, -6.248e-5
-1.030, -6.199e-5
-1.029, -6.169e-5
-1.028, -6.288e-5
-1.027, -6.412e-5
-1.026, -6.414e-5
-1.025, -6.337e-5
-1.024, -6.295e-5
-1.023, -6.392e-5
-1.022, -6.527e-5
-1.021, -6.520e-5
-1.020, -6.456e-5
-1.019, -6.430e-5
-1.018, -6.523e-5
-1.017, -6.663e-5
-1.016, -6.675e-5
-1.015, -6.602e-5
-1.014, -6.585e-5
-1.013, -6.651e-5
-1.012, -6.767e-5
-1.011, -6.784e-5
-1.010, -6.724e-5
-1.009, -6.734e-5
-1.008, -6.826e-5
-1.007, -6.930e-5
-1.006, -6.953e-5
-1.005, -6.857e-5
-1.004, -6.833e-5
-1.003, -6.946e-5
-1.002, -7.085e-5
-1.001, -7.117e-5
