Potential V vs RHE, Current mA cm-2
0.013299999999999867,-0.4384190318281749
0.012299999999999978,-1.7910245056291363
0.011299999999999866,-2.662486666345999
0.010299999999999976,-3.317497998183511
0.009299999999999864,-3.7970851288377587
0.008299999999999974,-4.146518819904423
0.007299999999999862,-4.450681749375406
0.006299999999999972,-4.626105950558669
0.00529999999999986,-4.800115440442069
0.0042999999999999705,-4.9302688800296535
0.0032999999999998586,-5.017980980621284
0.0022999999999999687,-5.0618370309171015
0.0012999999999998568,-5.105693081212917
0.00029999999999996696,-5.105693081212917
-0.000700000000000145,-5.105693081212917
-0.0017000000000000348,-5.105693081212917
-0.0027000000000001467,-5.149549131508733
-0.0037000000000000366,-5.191990470504685
-0.0047000000000001485,-5.191990470504685
-0.005700000000000038,-5.279702571096316
-0.00670000000000015,-5.367414671687949
-0.00770000000000004,-5.367414671687949
-0.008700000000000152,-5.411270721983764
-0.009700000000000042,-5.497568111275533
-0.010700000000000154,-5.497568111275533
-0.011700000000000044,-5.5414241615713475
-0.012700000000000156,-5.497568111275533
-0.013700000000000045,-5.497568111275533
-0.014700000000000157,-5.497568111275533
-0.015700000000000047,-5.453712060979717
-0.01670000000000016,-5.411270721983764
-0.01770000000000005,-5.453712060979717
-0.01870000000000016,-5.453712060979717
-0.01970000000000005,-5.453712060979717
-0.020700000000000163,-5.497568111275533
-0.021700000000000053,-5.5414241615713475
-0.022700000000000164,-5.585280211867165
-0.023700000000000054,-5.629136262162981
-0.024700000000000166,-5.672992312458796
-0.025700000000000056,-5.672992312458796
-0.026700000000000168,-5.715433651454749
-0.027700000000000058,-5.672992312458796
-0.02870000000000017,-5.629136262162981
-0.02970000000000006,-5.629136262162981
-0.03070000000000017,-5.629136262162981
-0.03170000000000006,-5.585280211867165
-0.03270000000000017,-5.585280211867165
-0.03370000000000006,-5.629136262162981
-0.034700000000000175,-5.585280211867165
-0.035700000000000065,-5.672992312458796
-0.03670000000000018,-5.672992312458796
-0.03770000000000007,-5.759289701750564
-0.03870000000000018,-5.759289701750564
-0.03970000000000007,-5.80314575204638
-0.04070000000000018,-5.80314575204638
-0.04170000000000007,-5.80314575204638
-0.04270000000000018,-5.80314575204638
-0.04370000000000007,-5.759289701750564
-0.044700000000000184,-5.759289701750564
-0.045700000000000074,-5.759289701750564
-0.046700000000000186,-5.715433651454749
-0.047700000000000076,-5.715433651454749
-0.04870000000000019,-5.715433651454749
-0.04970000000000008,-5.715433651454749
-0.05070000000000019,-5.759289701750564
-0.05170000000000008,-5.80314575204638
-0.05270000000000019,-5.847001802342197
-0.05370000000000008,-5.890857852638012
-0.05470000000000019,-5.890857852638012
-0.05570000000000008,-5.890857852638012
-0.056700000000000195,-5.890857852638012
-0.057700000000000085,-5.890857852638012
-0.058700000000000196,-5.847001802342197
-0.059700000000000086,-5.847001802342197
-0.0607000000000002,-5.847001802342197
-0.06170000000000009,-5.80314575204638
-0.0627000000000002,-5.80314575204638
-0.06370000000000009,-5.80314575204638
-0.0647000000000002,-5.80314575204638
-0.06570000000000009,-5.847001802342197
-0.0667000000000002,-5.890857852638012
-0.0677000000000001,-5.9347139029338285
-0.0687000000000002,-5.977155241929781
-0.0697000000000001,-5.977155241929781
-0.07070000000000021,-5.977155241929781
-0.0717000000000001,-5.977155241929781
-0.07270000000000021,-5.977155241929781
-0.0737000000000001,-5.9347139029338285
-0.07470000000000021,-5.890857852638012
-0.0757000000000001,-5.9347139029338285
-0.07670000000000021,-5.847001802342197
-0.0777000000000001,-5.890857852638012
-0.07870000000000021,-5.890857852638012
-0.0797000000000001,-5.890857852638012
-0.08070000000000022,-5.9347139029338285
-0.0817000000000001,-5.977155241929781
-0.08270000000000022,-5.977155241929781
-0.08370000000000011,-6.021011292225596
-0.08470000000000022,-6.021011292225596
-0.08570000000000011,-6.021011292225596
-0.08670000000000022,-6.064867342521412
-0.08770000000000011,-6.021011292225596
-0.08870000000000022,-6.021011292225596
-0.08970000000000011,-5.977155241929781
-0.09070000000000022,-5.9347139029338285
-0.09170000000000011,-5.9347139029338285
-0.09270000000000023,-5.890857852638012
-0.09370000000000012,-5.9347139029338285
-0.09470000000000023,-5.9347139029338285
-0.09570000000000012,-5.9347139029338285
-0.09670000000000023,-6.021011292225596
-0.09770000000000012,-6.021011292225596
-0.09870000000000023,-6.064867342521412
-0.09970000000000012,-6.108723392817228
-0.10070000000000023,-6.108723392817228
-0.10170000000000012,-6.108723392817228
-0.10270000000000024,-6.108723392817228
-0.10370000000000013,-6.064867342521412
-0.10470000000000024,-6.064867342521412
-0.10570000000000013,-6.021011292225596
-0.10670000000000024,-5.9347139029338285
-0.10770000000000013,-6.021011292225596
-0.10870000000000024,-5.977155241929781
-0.10970000000000013,-5.977155241929781
-0.11070000000000024,-6.021011292225596
-0.11170000000000013,-6.064867342521412
-0.11270000000000002,-6.108723392817228
-0.11370000000000013,-6.152579443113044
-0.11470000000000002,-6.196435493408861
-0.11570000000000014,-6.196435493408861
-0.11670000000000003,-6.196435493408861
-0.11770000000000014,-6.152579443113044
-0.11870000000000003,-6.108723392817228
-0.11970000000000014,-6.108723392817228
-0.12070000000000003,-6.108723392817228
-0.12170000000000014,-6.021011292225596
-0.12270000000000003,-6.064867342521412
-0.12370000000000014,-6.064867342521412
-0.12470000000000003,-6.064867342521412
-0.12570000000000014,-6.152579443113044
-0.12670000000000003,-6.152579443113044
-0.12770000000000015,-6.196435493408861
-0.12870000000000004,-6.238876832404812
-0.12970000000000015,-6.282732882700628
-0.13070000000000004,-6.282732882700628
-0.13170000000000015,-6.282732882700628
-0.13270000000000004,-6.238876832404812
-0.13370000000000015,-6.196435493408861
-0.13470000000000004,-6.196435493408861
-0.13570000000000015,-6.152579443113044
-0.13670000000000004,-6.108723392817228
-0.13770000000000016,-6.152579443113044
-0.13870000000000005,-6.152579443113044
-0.13970000000000016,-6.152579443113044
-0.14070000000000005,-6.196435493408861
-0.14170000000000016,-6.238876832404812
-0.14270000000000005,-6.238876832404812
-0.14370000000000016,-6.282732882700628
-0.14470000000000005,-6.326588932996443
-0.14570000000000016,-6.326588932996443
-0.14670000000000005,-6.37044498329226
-0.14770000000000016,-6.326588932996443
-0.14870000000000005,-6.282732882700628
-0.14970000000000017,-6.282732882700628
-0.15070000000000006,-6.282732882700628
-0.15170000000000017,-6.238876832404812
-0.15270000000000006,-6.282732882700628
-0.15370000000000017,-6.282732882700628
-0.15470000000000006,-6.282732882700628
-0.15570000000000017,-6.282732882700628
-0.15670000000000006,-6.37044498329226
-0.15770000000000017,-6.37044498329226
-0.15870000000000006,-6.458157083883892
-0.15970000000000018,-6.458157083883892
-0.16070000000000007,-6.458157083883892
-0.16170000000000018,-6.500598422879844
-0.16270000000000007,-6.458157083883892
-0.16370000000000018,-6.458157083883892
-0.16470000000000007,-6.458157083883892
-0.16570000000000018,-6.414301033588076
-0.16670000000000007,-6.37044498329226
-0.16770000000000018,-6.414301033588076
-0.16870000000000007,-6.37044498329226
-0.16970000000000018,-6.37044498329226
-0.17070000000000007,-6.458157083883892
-0.17170000000000019,-6.500598422879844
-0.17270000000000008,-6.500598422879844
-0.1737000000000002,-6.54445447317566
-0.17470000000000008,-6.588310523471475
-0.1757000000000002,-6.588310523471475
-0.17670000000000008,-6.588310523471475
-0.1777000000000002,-6.588310523471475
-0.17870000000000008,-6.588310523471475
-0.1797000000000002,-6.588310523471475
-0.18070000000000008,-6.54445447317566
-0.1817000000000002,-6.500598422879844
-0.18270000000000008,-6.500598422879844
-0.1837000000000002,-6.500598422879844
-0.1847000000000001,-6.54445447317566
-0.1857000000000002,-6.588310523471475
-0.1867000000000001,-6.632166573767292
-0.1877000000000002,-6.6760226240631075
-0.1887000000000001,-6.719878674358924
-0.1897000000000002,-6.762320013354876
-0.1907000000000001,-6.762320013354876
-0.1917000000000001,-6.762320013354876
-0.19269999999999998,-6.762320013354876
-0.1937000000000001,-6.719878674358924
-0.19469999999999998,-6.719878674358924
-0.1957000000000001,-6.719878674358924
-0.19669999999999999,-6.6760226240631075
-0.1977000000000001,-6.6760226240631075
-0.1987,-6.719878674358924
-0.1997000000000001,-6.719878674358924
-0.2007,-6.762320013354876
-0.2017000000000001,-6.806176063650692
-0.2027,-6.850032113946507
-0.2037000000000001,-6.893888164242324
-0.2047,-6.93774421453814
-0.2057000000000001,-6.93774421453814
-0.2067,-6.981600264833956
-0.2077000000000001,-6.93774421453814
-0.2087,-6.93774421453814
-0.2097000000000001,-6.93774421453814
-0.2107,-6.893888164242324
-0.2117000000000001,-6.893888164242324
-0.2127,-6.893888164242324
-0.2137000000000001,-6.93774421453814
-0.2147,-6.93774421453814
-0.2157000000000001,-7.024041603829907
-0.2167,-7.067897654125724
-0.21770000000000012,-7.111753704421539
-0.2187,-7.155609754717355
-0.21970000000000012,-7.199465805013171
-0.2207,-7.199465805013171
-0.22170000000000012,-7.243321855308987
-0.2227,-7.199465805013171
-0.22370000000000012,-7.199465805013171
-0.2247,-7.199465805013171
-0.22570000000000012,-7.155609754717355
-0.2267,-7.155609754717355
-0.22770000000000012,-7.199465805013171
-0.22870000000000001,-7.199465805013171
-0.22970000000000013,-7.243321855308987
-0.23070000000000002,-7.28576319430494
-0.23170000000000013,-7.329619244600755
-0.23270000000000002,-7.37347529489657
-0.23370000000000013,-7.461187395488204
-0.23470000000000002,-7.461187395488204
-0.23570000000000013,-7.50504344578402
-0.23670000000000002,-7.5474847847799715
-0.2376999999999999,-7.5474847847799715
-0.23870000000000002,-7.5474847847799715
-0.2396999999999999,-7.50504344578402
-0.24070000000000003,-7.50504344578402
-0.24169999999999991,-7.50504344578402
-0.24270000000000003,-7.5474847847799715
-0.24369999999999992,-7.591340835075788
-0.24470000000000003,-7.591340835075788
-0.24569999999999992,-7.679052935667419
-0.24670000000000003,-7.7653503249591855
-0.24769999999999992,-7.809206375255003
-0.24870000000000003,-7.853062425550818
-0.24969999999999992,-7.896918475846635
-0.25070000000000003,-7.940774526142452
-0.2516999999999999,-7.984630576438266
-0.25270000000000004,-7.984630576438266
-0.2536999999999999,-7.984630576438266
-0.25470000000000004,-7.984630576438266
-0.2556999999999999,-8.027071915434218
-0.25670000000000004,-8.027071915434218
-0.25769999999999993,-8.027071915434218
-0.25870000000000004,-8.11478401602585
-0.25969999999999993,-8.158640066321666
-0.26070000000000004,-8.202496116617484
-0.26169999999999993,-8.288793505909249
-0.26270000000000004,-8.376505606500881
-0.26369999999999993,-8.4203616567967
-0.26470000000000005,-8.508073757388331
-0.26569999999999994,-8.55051509638428
-0.26670000000000005,-8.638227196975913
-0.26769999999999994,-8.638227196975913
-0.26870000000000005,-8.638227196975913
-0.26969999999999994,-8.68208324727173
-0.27070000000000005,-8.68208324727173
-0.27169999999999994,-8.68208324727173
-0.27270000000000005,-8.769795347863363
-0.27369999999999994,-8.812236686859313
-0.27470000000000006,-8.85609273715513
-0.27569999999999995,-8.943804837746763
-0.27670000000000006,-9.031516938338395
-0.27769999999999995,-9.11781432763016
-0.27870000000000006,-9.205526428221793
-0.27969999999999995,-9.293238528813426
-0.28070000000000006,-9.335679867809377
-0.28169999999999995,-9.423391968401008
-0.28270000000000006,-9.423391968401008
-0.28369999999999995,-9.467248018696827
-0.28470000000000006,-9.511104068992642
-0.28569999999999995,-9.55496011928846
-0.28670000000000007,-9.59740145828441
-0.28769999999999996,-9.641257508580225
-0.28870000000000007,-9.728969609171857
-0.28969999999999996,-9.81668170976349
-0.29070000000000007,-9.902979099055257
-0.29169999999999996,-9.99069119964689
-0.29270000000000007,-10.120844639234473
-0.29369999999999996,-10.25241279012192
-0.2947000000000001,-10.340124890713554
-0.29569999999999996,-10.42642228000532
-0.2967000000000001,-10.514134380596953
-0.29769999999999996,-10.557990430892769
-0.2987000000000001,-10.601846481188586
-0.29969999999999997,-10.688143870480351
-0.3007000000000001,-10.731999920776168
-0.30169999999999997,-10.775855971071984
-0.3027000000000001,-10.863568071663616
-0.30369999999999997,-10.949865460955383
-0.3047000000000001,-11.037577561547016
-0.30569999999999997,-11.211587051430415
-0.3067000000000001,-11.299299152022046
-0.3077,-11.42945259160963
-0.3087000000000001,-11.56102074249708
-0.3097,-11.691174182084664
-0.3107000000000001,-11.82274233297211
-0.3117,-11.952895772559694
-0.3127000000000001,-11.996751822855511
-0.3137,-12.084463923447142
-0.3147000000000001,-12.170761312738911
-0.3157,-12.258473413330542
-0.3167000000000001,-12.346185513922174
-0.3177,-12.432482903213943
-0.3187000000000001,-12.56405105410139
-0.3197,-12.651763154693022
-0.3207000000000001,-12.825772644576423
-0.3217,-12.99978213445982
-0.3227000000000001,-13.13135028534727
-0.3237,-13.30535977523067
-0.3247000000000001,-13.47936926511407
-0.3257,-13.567081365705702
-0.3267000000000001,-13.741090855589102
-0.3277,-13.828802956180734
-0.3287000000000001,-13.916515056772363
-0.3297,-14.046668496359947
-0.3307000000000001,-14.175407224647667
-0.3317,-14.26028990263957
-0.3327000000000001,-14.444202371622024
-0.3337,-14.57152638860988
-0.3347000000000001,-14.741291744593681
-0.3357,-14.925204213576137
-0.3367000000000001,-15.137410908555893
-0.3377,-15.307176264539699
-0.3387000000000001,-15.491088733522153
-0.3397,-15.70329542850191
-0.3407000000000001,-15.87306078448571
-0.3417,-16.014531914472215
-0.3427000000000001,-16.184297270456018
-0.3437,-16.311621287443874
-0.3447000000000001,-16.495533756426326
-0.3457,-16.622857773414182
-0.3467000000000001,-16.750181790402035
-0.3477,-16.962388485381787
-0.3487000000000001,-17.103859615368293
-0.3497,-17.2736249713521
-0.3507000000000001,-17.48583166633185
-0.3517,-17.71218547431026
-0.3527000000000001,-17.966833508285966
-0.3537,-18.19318731626437
-0.3547000000000001,-18.40539401124413
-0.3557,-18.631747819222536
-0.35670000000000013,-18.843954514202288
-0.3577,-19.01371987018609
-0.35870000000000013,-19.197632339168546
-0.3597,-19.409839034148305
-0.36070000000000013,-19.579604390132108
-0.3617,-19.763516859114564
-0.3626999999999999,-19.97572355409432
-0.3637,-20.202077362072725
-0.3646999999999999,-20.456725396048434
-0.3657,-20.683079204026836
-0.3666999999999999,-20.980168576998494
-0.3677,-21.248963723972853
-0.3686999999999999,-21.503611757948562
-0.36970000000000003,-21.814848243918867
-0.3706999999999999,-22.027054938898623
-0.37170000000000003,-22.295850085872978
-0.3726999999999999,-22.508056780852733
-0.37370000000000003,-22.72026347583249
-0.3746999999999999,-22.989058622806844
-0.37570000000000003,-23.2012653177866
-0.3766999999999999,-23.427619125765005
-0.37770000000000004,-23.682267159740714
-0.3786999999999999,-23.993503645711023
-0.37970000000000004,-24.24815167968673
-0.3806999999999999,-24.559388165657033
-0.38170000000000004,-24.870624651627345
-0.38269999999999993,-25.167714024599
-0.38370000000000004,-25.478950510569312
-0.38469999999999993,-25.77603988354097
-0.38570000000000004,-26.044835030515326
-0.38669999999999993,-26.34192440348698
-0.38770000000000004,-26.61071955046134
-0.38869999999999993,-26.86536758443705
-0.38970000000000005,-27.176604070407354
-0.39069999999999994,-27.487840556377662
-0.39170000000000005,-27.742488590353368
-0.39269999999999994,-28.05372507632368
-0.39370000000000005,-28.393255788291288
-0.39469999999999994,-28.662050935265643
-0.39570000000000005,-29.058170099227848
-0.39669999999999994,-29.35525947219951
-0.39770000000000005,-29.708937297165768
-0.39869999999999994,-30.04846800913338
-0.39970000000000006,-30.402145834099635
-0.40069999999999995,-30.79826499806185
-0.40170000000000006,-31.137795710029454
-0.40269999999999995,-31.449032195999767
-0.40370000000000006,-31.802710020966025
-0.40469999999999995,-32.14224073293363
-0.40570000000000006,-32.53835989689585
-0.40669999999999995,-32.84959638286615
-0.40770000000000006,-33.231568433829715
-0.40869999999999995,-33.627687597791926
-0.40970000000000006,-33.98136542275818
-0.41069999999999995,-34.377484586720385
-0.41170000000000007,-34.8018979766799
-0.41269999999999996,-35.240458479638065
-0.41370000000000007,-35.679018982596226
-0.41469999999999996,-36.11757948555439
-0.41570000000000007,-36.5136986495166
-0.41669999999999996,-36.95225915247476
-0.41770000000000007,-37.334231203438314
-0.41869999999999996,-37.73035036740053
-0.4197000000000001,-38.12646953136274
-0.42069999999999996,-38.522588695324956
-0.4217000000000001,-38.90456074628851
-0.42269999999999996,-39.30067991025072
-0.4237000000000001,-39.696799074212926
-0.42469999999999997,-40.135359577171094
-0.4257000000000001,-40.559772967130606
-0.42669999999999997,-41.04077480908471
-0.4277000000000001,-41.52177665103883
-0.42869999999999997,-42.00277849299294
-0.4297000000000001,-42.483780334947056
-0.43069999999999997,-42.96478217690117
-0.4317000000000001,-43.40334267985933
-0.4327,-43.84190318281749
-0.4337000000000001,-44.28046368577565
-0.4347,-44.704877075735155
-0.4357000000000001,-45.18587891768927
-0.4367,-45.581998081651484
-0.4377000000000001,-46.062999923605595
-0.4387,-46.586443104555656
-0.4397000000000001,-47.067444946509774
-0.4407,-47.54844678846388
-0.4417000000000001,-48.114331308409895
-0.4427,-48.63777448935996
-0.4437000000000001,-49.16121767031002
-0.4447,-49.72710219025603
-0.4457000000000001,-50.20810403221015
-0.4467,-50.73154721316022
-0.4477000000000001,-51.21254905511432
-0.4487,-51.73599223606439
-0.4497000000000001,-52.2169940780185
-0.4507,-52.69799591997262
-0.4517000000000001,-53.16485064892808
-0.4527,-53.68829382987814
-0.4537000000000001,-54.2117370108282
-0.4547,-54.73518019177827
-0.4557000000000001,-55.31521182472294
-0.4567,-55.881096344668954
-0.4577000000000001,-56.44698086461496
-0.4587,-57.012865384560975
-0.4597000000000001,-57.57874990450699
-0.4607,-58.14463442445301
-0.4617000000000001,-58.71051894439902
-0.4627,-59.23396212534908
-0.4637000000000001,-59.7149639673032
-0.4647,-60.28084848724921
-0.4657000000000001,-60.80429166819927
-0.4667,-61.327734849149344
-0.4677000000000001,-61.89361936909536
-0.4687,-62.41706255004542
-0.4697000000000001,-62.98294706999144
-0.4707,-63.59127292893339
-0.4717000000000001,-64.19959878787537
-0.4727,-64.77963042082003
-0.4737000000000001,-65.38795627976201
-0.4747,-65.99628213870396
-0.4757000000000001,-66.60460799764593
-0.4767,-67.21293385658788
-0.4777000000000001,-67.7788183765339
-0.4787,-68.34470289647993
-0.4797000000000001,-68.91058741642594
-0.4807,-69.4906190493706
-0.48170000000000013,-70.01406223032066
-0.4827,-70.57994675026669
-0.48370000000000013,-71.1458312702127
-0.4847,-71.7117157901587
-0.48570000000000013,-72.32004164910067
-0.4867,-72.92836750804264
-0.4876999999999999,-73.53669336698461
-0.4887,-74.14501922592657
-0.4896999999999999,-74.80993353686314
-0.4907,-75.37581805680915
-0.4916999999999999,-76.02658525474708
-0.4927,-76.63491111368903
-0.4936999999999999,-77.20079563363505
-0.49470000000000003,-77.80912149257702
-0.4956999999999999,-78.38915312552167
-0.49670000000000003,-78.99747898446365
-0.4976999999999999,-79.56336350440966
-0.49870000000000003,-80.21413070234757
-0.4996999999999999,-80.7800152222936
-0.5007,-81.43078242023151
-0.5016999999999999,-82.09569673116808
-0.5027,-82.746463929106
-0.5036999999999999,-83.39723112704392
-0.5047,-84.09043966397778
-0.5056999999999999,-84.7129126359184
-0.5067,-85.36367983385631
-0.5076999999999999,-85.97200569279828
-0.5087,-86.6227728907362
-0.5096999999999999,-87.23109874967815
-0.5107,-87.89601306061473
-0.5116999999999999,-88.5043389195567
-0.5127,-89.15510611749461
