Potential V vs RHE, Current mA cm-2
0.013299999999999867,-0.2973723152316307
0.012299999999999978,-1.21226611285435
0.011299999999999866,-1.6990682711379093
0.010299999999999976,-2.007475334508487
0.009299999999999864,-2.238073276386488
0.008299999999999974,-2.392276808071777
0.007299999999999862,-2.506868423360845
0.006299999999999972,-2.591751101352747
0.00529999999999986,-2.655413109846674
0.0042999999999999705,-2.706342716641815
0.0032999999999998586,-2.7572723234369563
0.0022999999999999687,-2.791225394633717
0.0012999999999998568,-2.8082019302320975
0.00029999999999996696,-2.822349043230748
-0.000700000000000145,-2.8732786500258896
-0.0017000000000000348,-2.9185494116215707
-0.0027000000000001467,-2.9086464325225156
-0.0037000000000000366,-2.9100611438223805
-0.0047000000000001485,-2.9086464325225156
-0.005700000000000038,-2.8987434534234597
-0.00670000000000015,-2.900158164723325
-0.00770000000000004,-2.91571998902184
-0.008700000000000152,-2.9298671020204905
-0.009700000000000042,-2.9284523907206257
-0.010700000000000154,-2.945428926319006
-0.011700000000000044,-2.935525947219951
-0.012700000000000156,-2.9143052777219753
-0.013700000000000045,-2.8817669178250793
-0.014700000000000157,-2.8732786500258896
-0.015700000000000047,-2.8860110517246746
-0.01670000000000016,-2.8789374952253497
-0.01770000000000005,-2.870449227426159
-0.01870000000000016,-2.8577168257273744
-0.01970000000000005,-2.8761080726256196
-0.020700000000000163,-2.867619804826429
-0.021700000000000053,-2.852057980527914
-0.022700000000000164,-2.843569712728724
-0.023700000000000054,-2.8039577963325026
-0.024700000000000166,-2.7869812607341222
-0.025700000000000056,-2.772834147735472
-0.026700000000000168,-2.7714194364356066
-0.027700000000000058,-2.7742488590353367
-0.02870000000000017,-2.770004725135742
-0.02970000000000006,-2.754442900837226
-0.03070000000000017,-2.768590013835877
-0.03170000000000006,-2.775663570335202
-0.03270000000000017,-2.741710499138441
-0.03370000000000006,-2.7035132940420854
-0.034700000000000175,-2.669560222845324
-0.035700000000000065,-2.6879514697435702
-0.03670000000000018,-2.700683871442355
-0.03770000000000007,-2.670974934145189
-0.03870000000000018,-2.6511689759470785
-0.03970000000000007,-2.6327777290488332
-0.04070000000000018,-2.6285335951492383
-0.04170000000000007,-2.6143864821505876
-0.04270000000000018,-2.615801193450453
-0.04370000000000007,-2.6257041725495083
-0.044700000000000184,-2.6044835030515325
-0.045700000000000074,-2.5945805239524775
-0.046700000000000186,-2.586092256153287
-0.047700000000000076,-2.5634568753554463
-0.04870000000000019,-2.5351626493581456
-0.04970000000000008,-2.5408214945576058
-0.05070000000000019,-2.5408214945576058
-0.05170000000000008,-2.533747938058281
-0.05270000000000019,-2.5309185154585507
-0.05370000000000008,-2.5167714024599
-0.05470000000000019,-2.512527268560305
-0.05570000000000008,-2.5167714024599
-0.056700000000000195,-2.4828183312631396
-0.057700000000000085,-2.465841795664759
-0.058700000000000196,-2.451694682666109
-0.059700000000000086,-2.463012373065029
-0.0607000000000002,-2.468671218264489
-0.06170000000000009,-2.4785741973635442
-0.0627000000000002,-2.4587682391654337
-0.06370000000000009,-2.424815167968673
-0.0647000000000002,-2.433303435767863
-0.06570000000000009,-2.433303435767863
-0.0667000000000002,-2.4219857453689424
-0.0677000000000001,-2.417741611469348
-0.0687000000000002,-2.3979356532712375
-0.0697000000000001,-2.4021797871708324
-0.07070000000000021,-2.4035944984706976
-0.0717000000000001,-2.3993503645711023
-0.07270000000000021,-2.382373828972722
-0.0737000000000001,-2.3682267159740715
-0.07470000000000021,-2.3753002724733965
-0.0757000000000001,-2.382373828972722
-0.07670000000000021,-2.3908620967719116
-0.0777000000000001,-2.3781296950731265
-0.07870000000000021,-2.354079602975421
-0.0797000000000001,-2.348420757775961
-0.08070000000000022,-2.351250180375691
-0.0817000000000001,-2.355494314275286
-0.08270000000000022,-2.3427619125765005
-0.08370000000000011,-2.330029510877715
-0.08470000000000022,-2.339932489976771
-0.08570000000000011,-2.3455913351762305
-0.08670000000000022,-2.348420757775961
-0.08770000000000011,-2.3371030673770408
-0.08870000000000022,-2.3385177786769056
-0.08970000000000011,-2.3328589334774454
-0.09070000000000022,-2.3257853769781205
-0.09170000000000011,-2.32861479957785
-0.09270000000000023,-2.3229559543783904
-0.09370000000000012,-2.3116382639794697
-0.09470000000000023,-2.321541243078525
-0.09570000000000012,-2.321541243078525
-0.09670000000000023,-2.3257853769781205
-0.09770000000000012,-2.3130529752793345
-0.09870000000000023,-2.307394130079875
-0.09970000000000012,-2.3045647074801447
-0.10070000000000023,-2.30880884137974
-0.10170000000000012,-2.310223552679605
-0.10270000000000024,-2.3130529752793345
-0.10370000000000013,-2.307394130079875
-0.10470000000000024,-2.307394130079875
-0.10570000000000013,-2.3116382639794697
-0.10670000000000024,-2.30880884137974
-0.10770000000000013,-2.307394130079875
-0.10870000000000024,-2.296076439680954
-0.10970000000000013,-2.2918323057813597
-0.11070000000000024,-2.3144676865791998
-0.11170000000000013,-2.3045647074801447
-0.11270000000000002,-2.3116382639794697
-0.11370000000000013,-2.298905862280684
-0.11470000000000002,-2.286173460581899
-0.11570000000000014,-2.2974911509808194
-0.11670000000000003,-2.3017352848804147
-0.11770000000000014,-2.3045647074801447
-0.11870000000000003,-2.3045647074801447
-0.11970000000000014,-2.30597941878001
-0.12070000000000003,-2.30597941878001
-0.12170000000000014,-2.3017352848804147
-0.12270000000000003,-2.296076439680954
-0.12370000000000014,-2.2819293266823037
-0.12470000000000003,-2.30597941878001
-0.12570000000000014,-2.3003205735805494
-0.12670000000000003,-2.298905862280684
-0.12770000000000015,-2.2890028831816296
-0.12870000000000004,-2.276270481482844
-0.12970000000000015,-2.2875881718817643
-0.13070000000000004,-2.2946617283810897
-0.13170000000000015,-2.298905862280684
-0.13270000000000004,-2.2875881718817643
-0.13370000000000015,-2.272026347583249
-0.13470000000000004,-2.284758749282034
-0.13570000000000015,-2.284758749282034
-0.13670000000000004,-2.2904175944814944
-0.13770000000000016,-2.2819293266823037
-0.13870000000000005,-2.272026347583249
-0.13970000000000016,-2.273441058883114
-0.14070000000000005,-2.2819293266823037
-0.14170000000000016,-2.2776851927827093
-0.14270000000000005,-2.2706116362833835
-0.14370000000000016,-2.2621233684841937
-0.14470000000000005,-2.2691969249835187
-0.14570000000000016,-2.2904175944814944
-0.14670000000000005,-2.280514615382439
-0.14770000000000016,-2.2677822136836534
-0.14870000000000005,-2.2550498119848683
-0.14970000000000017,-2.263538079784059
-0.15070000000000006,-2.2890028831816296
-0.15170000000000017,-2.2691969249835187
-0.15270000000000006,-2.2663675023837886
-0.15370000000000017,-2.260708657184329
-0.15470000000000006,-2.257879234584599
-0.15570000000000017,-2.272026347583249
-0.15670000000000006,-2.280514615382439
-0.15770000000000017,-2.2621233684841937
-0.15870000000000006,-2.2621233684841937
-0.15970000000000018,-2.2522203893851382
-0.16070000000000007,-2.2621233684841937
-0.16170000000000018,-2.30597941878001
-0.16270000000000007,-2.280514615382439
-0.16370000000000018,-2.2748557701829792
-0.16470000000000007,-2.2932470170812245
-0.16570000000000018,-2.2875881718817643
-0.16670000000000007,-2.2946617283810897
-0.16770000000000018,-2.279099904082574
-0.16870000000000007,-2.257879234584599
-0.16970000000000018,-2.283344037982169
-0.17070000000000007,-2.296076439680954
-0.17170000000000019,-2.30880884137974
-0.17270000000000008,-2.2918323057813597
-0.1737000000000002,-2.2748557701829792
-0.17470000000000008,-2.279099904082574
-0.1757000000000002,-2.2875881718817643
-0.17670000000000008,-2.3045647074801447
-0.1777000000000002,-2.30314999618028
-0.17870000000000008,-2.2875881718817643
-0.1797000000000002,-2.2904175944814944
-0.18070000000000008,-2.298905862280684
-0.1817000000000002,-2.3017352848804147
-0.18270000000000008,-2.3045647074801447
-0.1837000000000002,-2.296076439680954
-0.1847000000000001,-2.3017352848804147
-0.1857000000000002,-2.30880884137974
-0.1867000000000001,-2.30314999618028
-0.1877000000000002,-2.318711820478795
-0.1887000000000001,-2.296076439680954
-0.1897000000000002,-2.3144676865791998
-0.1907000000000001,-2.3413472012766356
-0.1917000000000001,-2.3356883560771755
-0.19269999999999998,-2.330029510877715
-0.1937000000000001,-2.3201265317786604
-0.19469999999999998,-2.3257853769781205
-0.1957000000000001,-2.339932489976771
-0.19669999999999999,-2.349835469075826
-0.1977000000000001,-2.349835469075826
-0.1987,-2.3441766238763657
-0.1997000000000001,-2.349835469075826
-0.2007,-2.3668120046742067
-0.2017000000000001,-2.386617962872317
-0.2027,-2.3738855611735317
-0.2037000000000001,-2.3668120046742067
-0.2047,-2.3767149837732613
-0.2057000000000001,-2.389447385472047
-0.2067,-2.4191563227692128
-0.2077000000000001,-2.392276808071777
-0.2087,-2.388032674172182
-0.2097000000000001,-2.3979356532712375
-0.2107,-2.4106680549700226
-0.2117000000000001,-2.438962280967323
-0.2127,-2.433303435767863
-0.2137000000000001,-2.424815167968673
-0.2147,-2.438962280967323
-0.2157000000000001,-2.472915352164084
-0.2167,-2.463012373065029
-0.21770000000000012,-2.467256506964624
-0.2187,-2.463012373065029
-0.21970000000000012,-2.465841795664759
-0.2207,-2.50262428946125
-0.22170000000000012,-2.49979486686152
-0.2227,-2.49696544426179
-0.22370000000000012,-2.4884771764625997
-0.2247,-2.50828313466071
-0.22570000000000012,-2.5295038041586855
-0.2267,-2.539406783257741
-0.22770000000000012,-2.554968607556256
-0.22870000000000001,-2.554968607556256
-0.22970000000000013,-2.5719451431546365
-0.23070000000000002,-2.591751101352747
-0.23170000000000013,-2.579018699653962
-0.23270000000000002,-2.590336390052882
-0.23370000000000013,-2.597409946552207
-0.23470000000000002,-2.6143864821505876
-0.23570000000000013,-2.6426807081478887
-0.23670000000000002,-2.659657243746269
-0.2376999999999999,-2.6738043567449195
-0.23870000000000002,-2.6440954194477535
-0.2396999999999999,-2.6752190680447843
-0.24070000000000003,-2.69643973754276
-0.24169999999999991,-2.709172139241545
-0.24270000000000003,-2.7148309844410052
-0.24369999999999992,-2.734636942639116
-0.24470000000000003,-2.740295787838576
-0.24569999999999992,-2.765760591236147
-0.24670000000000003,-2.7869812607341222
-0.24769999999999992,-2.8025430850326374
-0.24870000000000003,-2.811031352831828
-0.24969999999999992,-2.819519620631018
-0.25070000000000003,-2.844984424028589
-0.2516999999999999,-2.864790382226699
-0.25270000000000004,-2.89025518562427
-0.2536999999999999,-2.8944993195238653
-0.25470000000000004,-2.9072317212226504
-0.2556999999999999,-2.925622968120896
-0.25670000000000004,-2.945428926319006
-0.25769999999999993,-2.9807967088156326
-0.25870000000000004,-2.9850408427152275
-0.25969999999999993,-2.990699687914687
-0.26070000000000004,-3.034555738210504
-0.26169999999999993,-3.0529469851087487
-0.26270000000000004,-3.082655922405915
-0.26369999999999993,-3.082655922405915
-0.26470000000000005,-3.1052913032037557
-0.26569999999999994,-3.1420737970002466
-0.26670000000000005,-3.1802710020966023
-0.26769999999999994,-3.1915886924955226
-0.26870000000000005,-3.205735805494173
-0.26969999999999994,-3.2340300314914736
-0.27070000000000005,-3.2665683913883696
-0.27169999999999994,-3.303350885184861
-0.27270000000000005,-3.3118391529840507
-0.27369999999999994,-3.335889245081757
-0.27470000000000006,-3.3740864501781123
-0.27569999999999995,-3.408039521374873
-0.27670000000000006,-3.4448220151713644
-0.27769999999999995,-3.4858486428674507
-0.27870000000000006,-3.5183870027643462
-0.27969999999999995,-3.5282899818634013
-0.28070000000000006,-3.557998919160567
-0.28169999999999995,-3.6117579485554394
-0.28270000000000006,-3.6372227519530096
-0.28369999999999995,-3.678249379649095
-0.28470000000000006,-3.715031873445586
-0.28569999999999995,-3.7631320576409975
-0.28670000000000007,-3.794255706238028
-0.28769999999999996,-3.8267940661349247
-0.28870000000000007,-3.8621618486315503
-0.28969999999999996,-3.9215797232258818
-0.29070000000000007,-3.962606350921967
-0.29169999999999996,-4.002218267318188
-0.29270000000000007,-4.05314787411333
-0.29369999999999996,-4.081442100110631
-0.2947000000000001,-4.139445263405097
-0.29569999999999996,-4.181886602401049
-0.2967000000000001,-4.245548610894974
-0.29769999999999996,-4.295063506390251
-0.2987000000000001,-4.324772443687417
-0.29969999999999997,-4.391263874781075
-0.3007000000000001,-4.450681749375406
-0.30169999999999997,-4.511514335269602
-0.3027000000000001,-4.573761632463664
-0.30369999999999997,-4.61478826015975
-0.3047000000000001,-4.684109113853137
-0.30569999999999997,-4.747771122347063
-0.3067000000000001,-4.802944863041799
-0.3077,-4.865192160235861
-0.3087000000000001,-4.927439457429923
-0.3097,-5.0094927128220945
-0.3107000000000001,-5.077398855215616
-0.3117,-5.158037399307924
-0.3127000000000001,-5.21321114000266
-0.3137,-5.310826219693348
-0.3147000000000001,-5.3759029394871405
-0.3157,-5.443809081880661
-0.3167000000000001,-5.530106471172428
-0.3177,-5.640453952561901
-0.3187000000000001,-5.668748178559202
-0.3197,-5.815878153745166
-0.3207000000000001,-5.821536998944626
-0.3217,-5.9601787063314
-0.3227000000000001,-6.025255426125191
-0.3237,-6.110138104117093
-0.3247000000000001,-6.221900296806432
-0.3257,-6.299709418299008
-0.3267000000000001,-6.448254104784837
-0.3277,-6.54728389577539
-0.3287000000000001,-6.6689490675637835
-0.3297,-6.731196364757845
-0.3307000000000001,-6.834470289647991
-0.3317,-6.980185553534091
-0.3327000000000001,-7.077800633224777
-0.3337,-7.215027629311687
-0.3347000000000001,-7.304154441203185
-0.3357,-7.4498697050892835
-0.3367000000000001,-7.570120165577812
-0.3377,-7.715835429463911
-0.3387000000000001,-7.8502330029510885
-0.3397,-7.987459999037997
-0.3407000000000001,-8.141663530723285
-0.3417,-8.263328702511679
-0.3427000000000001,-8.428849924595887
-0.3437,-8.556173941583742
-0.3447000000000001,-8.754233523564846
-0.3457,-8.92116945694892
-0.3467000000000001,-9.056981741735965
-0.3477,-9.26070016891653
-0.3487000000000001,-9.441783215299255
-0.3497,-9.583254345285757
-0.3507000000000001,-9.84214651316106
-0.3517,-10.07557387763879
-0.3527000000000001,-10.178847802528939
-0.3537,-10.405201610507346
-0.3547000000000001,-10.60043176988872
-0.3557,-10.846591536065237
-0.35670000000000013,-11.121045528239053
-0.3577,-11.334666934518673
-0.35870000000000013,-11.583656123294919
-0.3597,-11.858110115468737
-0.36070000000000013,-12.109928726844714
-0.3617,-12.416921078915427
-0.3626999999999999,-12.681472091990189
-0.3637,-12.991293866660634
-0.3646999999999999,-13.295456796131614
-0.3657,-13.705723073092477
-0.3666999999999999,-14.062230320658465
-0.3677,-14.373466806628771
-0.3686999999999999,-14.71299751859638
-0.36970000000000003,-15.10911668255859
-0.3706999999999999,-15.575971411514052
-0.37170000000000003,-16.02867902747086
-0.3726999999999999,-16.50968086942498
-0.37370000000000003,-17.00482982437774
-0.3746999999999999,-17.471684553333205
-0.37570000000000003,-18.06586329927652
-0.3766999999999999,-18.631747819222536
-0.37770000000000004,-19.28251501716045
-0.3786999999999999,-19.876693763103766
-0.37970000000000004,-20.612343639033586
-0.3806999999999999,-21.277257949970153
-0.38170000000000004,-21.99876071290132
-0.38269999999999993,-22.932470170812245
-0.38370000000000004,-23.767149837732617
-0.38469999999999993,-24.74330063463949
-0.38570000000000004,-25.691157205549064
-0.38669999999999993,-26.723896454450543
-0.38770000000000004,-27.799077042347974
-0.38869999999999993,-28.86011051724675
-0.38970000000000005,-30.10505646112798
-0.39069999999999994,-31.29341395301461
-0.39170000000000005,-32.56665412289314
-0.39269999999999994,-33.98136542275818
-0.39370000000000005,-35.42437094862052
-0.39469999999999994,-36.90981781347881
-0.39570000000000005,-38.40941179133574
-0.39669999999999994,-39.47044526623452
-0.39770000000000005,-41.05492192208336
-0.39869999999999994,-42.85160527291196
-0.39970000000000006,-44.2097281207824
-0.40069999999999995,-45.87908745462314
-0.40170000000000006,-47.46356411047198
-0.40269999999999995,-49.14707055731138
-0.40370000000000006,-50.66081164816696
-0.40469999999999995,-52.34431809500636
-0.40570000000000006,-54.05611876784305
-0.40669999999999995,-55.65474253669055
-0.40770000000000006,-57.352396096528594
-0.40869999999999995,-58.78125450939227
-0.40970000000000006,-60.50720229522762
-0.41069999999999995,-61.7662953521075
-0.41170000000000007,-63.08197686098199
-0.41269999999999996,-64.51083527384567
-0.41370000000000007,-65.99628213870396
-0.41469999999999996,-67.63734724654739
-0.41570000000000007,-69.19352967639895
-0.41669999999999996,-70.90533034923564
-0.41770000000000007,-72.54639545707909
-0.41869999999999996,-74.35722592090633
-0.4197000000000001,-75.94170257675518
-0.42069999999999996,-77.65350324959186
-0.4217000000000001,-79.25212701843935
-0.42269999999999996,-80.59610275331114
-0.4237000000000001,-81.99666694017753
-0.42469999999999997,-83.58114359602637
-0.4257000000000001,-85.08073757388331
-0.42669999999999997,-86.50959598674699
-0.4277000000000001,-88.09407264259583
-0.42869999999999997,-90.3576107223799
-0.4297000000000001,-91.47523264927328
-0.43069999999999997,-92.88994394913831
-0.4317000000000001,-95.18177625491967
-0.4327,-96.99260671874691
-0.4337000000000001,-98.19511132363219
-0.4347,-99.15711500754041
-0.4357000000000001,-100.69915032439332
-0.4367,-102.48168656222326
-0.4377000000000001,-104.02372187907615
-0.4387,-105.28281493595603
-0.4397000000000001,-106.27311284586155
-0.4407,-107.65952991972928
-0.4417000000000001,-109.28644791457408
-0.4427,-110.92751302241753
-0.4437000000000001,-112.24319453129202
-0.4447,-113.72864139615028
-0.4457000000000001,-115.2140882610086
-0.4467,-116.86930048185067
-0.4477000000000001,-118.62354249368333
-0.4487,-120.20801914953216
-0.4497000000000001,-121.45296509341341
-0.4507,-122.76864660228789
-0.4517000000000001,-124.36727037113538
-0.4527,-126.10736526996938
-0.4537000000000001,-127.33816410085197
-0.4547,-128.68213983572375
-0.4557000000000001,-130.05440979659284
-0.4567,-131.3135028534727
-0.4577000000000001,-132.99700930031207
-0.4587,-135.14737047610697
-0.4597000000000001,-136.70355290595847
-0.4607,-138.17485265781812
-0.4617000000000001,-139.57541684468453
-0.4627,-141.06086370954282
-0.4637000000000001,-142.6028990263957
-0.4647,-143.4517258063147
-0.4657000000000001,-145.14937936615277
-0.4667,-147.4129174459368
-0.4677000000000001,-148.96909987578834
-0.4687,-150.38381117565342
-0.4697000000000001,-151.23263795557244
-0.4707,-152.78882038542397
-0.4717000000000001,-153.920589425316
-0.4727,-155.05235846520802
-0.4737000000000001,-156.75001202504606
-0.4747,-156.60854089505958
-0.4757000000000001,-162.2673860945197
-0.4767,-164.9553375642633
-0.4777000000000001,-168.91652920388537
-0.4787,-174.2924321433725
-0.4797000000000001,-175.42420118326456
-0.4807,-176.6974413531431
-0.48170000000000013,-178.81950830294062
-0.4827,-181.5074597726842
-0.48370000000000013,-182.49775768258974
-0.4847,-183.20511333252225
-0.48570000000000013,-184.33688237241427
-0.4867,-183.62952672248176
-0.48570000000000013,-182.35628655260325
-0.4847,-180.94157525273818
-0.48370000000000013,-179.95127734283267
-0.4827,-178.25362378299462
-0.48170000000000013,-176.13155683319707
-0.4807,-174.43390327335902
-0.4797000000000001,-172.87772084350746
-0.4787,-170.47271163373694
-0.4777000000000001,-169.6238848538179
-0.4767,-167.92623129397984
-0.4757000000000001,-166.93593338407433
-0.4747,-165.3797509542228
-0.4737000000000001,-164.10651078434424
-0.4727,-163.82356852437124
-0.4717000000000001,-161.41855931460069
-0.4707,-159.43796349478964
-0.4697000000000001,-157.88178106493808
-0.4687,-155.90118524512707
-0.4677000000000001,-154.9108873352215
-0.4667,-153.63764716534297
-0.4657000000000001,-153.21323377538346
-0.4647,-151.5155802155454
