Dec. 13, 2024   15:21:58
Cyclic Voltammetry
File: c:/users/guazh/data/banditlqround7_x0exp59_r20/2024-12-09-exp649\exp649-2024-12-13t15_14_39-h2koh\exp649_cv_sr_400mvs_efin_-1400mv.bin
Data Source:  Experiment
Instrument Model:  CHI760E
Header: CV ran at 400 mVs
Note: 

Init E (V) = -1
High E (V) = -1
Low E (V) = -1.4
Final E (V) = -1
Init P/N = N
Scan Rate (V/s) = 0.4
Segment = 3
Sample Interval (V) = 0.001
Quiet Time (sec) = 2
Sensitivity (A/V) = 0.01
Comp R (ohm) = 1.3

Results:

Channel 1:
Segment 1:

Segment 2:

Segment 3:

Potential/V, Current/A

-1.000, -2.557e-4
-1.001, -1.602e-4
-1.002, -8.000e-5
-1.003, -1.526e-5
-1.004, 4.332e-5
-1.005, 9.882e-5
-1.006, 1.543e-4
-1.007, 2.160e-4
-1.008, 2.746e-4
-1.009, 3.300e-4
-1.010, 3.732e-4
-1.011, 4.133e-4
-1.012, 4.534e-4
-1.013, 4.996e-4
-1.014, 5.520e-4
-1.015, 5.983e-4
-1.016, 6.384e-4
-1.017, 6.723e-4
-1.018, 7.000e-4
-1.019, 7.339e-4
-1.020, 7.740e-4
-1.021, 8.172e-4
-1.022, 8.603e-4
-1.023, 8.912e-4
-1.024, 9.189e-4
-1.025, 9.498e-4
-1.026, 9.837e-4
-1.027, 1.018e-3
-1.028, 1.058e-3
-1.029, 1.088e-3
-1.030, 1.110e-3
-1.031, 1.132e-3
-1.032, 1.150e-3
-1.033, 1.181e-3
-1.034, 1.215e-3
-1.035, 1.249e-3
-1.036, 1.280e-3
-1.037, 1.301e-3
-1.038, 1.317e-3
-1.039, 1.338e-3
-1.040, 1.366e-3
-1.041, 1.391e-3
-1.042, 1.412e-3
-1.043, 1.431e-3
-1.044, 1.443e-3
-1.045, 1.462e-3
-1.046, 1.486e-3
-1.047, 1.520e-3
-1.048, 1.554e-3
-1.049, 1.582e-3
-1.050, 1.597e-3
-1.051, 1.603e-3
-1.052, 1.613e-3
-1.053, 1.628e-3
-1.054, 1.650e-3
-1.055, 1.674e-3
-1.056, 1.693e-3
-1.057, 1.711e-3
-1.058, 1.724e-3
-1.059, 1.745e-3
-1.060, 1.773e-3
-1.061, 1.798e-3
-1.062, 1.816e-3
-1.063, 1.822e-3
-1.064, 1.825e-3
-1.065, 1.825e-3
-1.066, 1.844e-3
-1.067, 1.872e-3
-1.068, 1.902e-3
-1.069, 1.930e-3
-1.070, 1.946e-3
-1.071, 1.946e-3
-1.072, 1.946e-3
-1.073, 1.955e-3
-1.074, 1.973e-3
-1.075, 1.992e-3
-1.076, 2.001e-3
-1.077, 2.010e-3
-1.078, 2.020e-3
-1.079, 2.029e-3
-1.080, 2.044e-3
-1.081, 2.063e-3
-1.082, 2.087e-3
-1.083, 2.100e-3
-1.084, 2.106e-3
-1.085, 2.115e-3
-1.086, 2.134e-3
-1.087, 2.152e-3
-1.088, 2.168e-3
-1.089, 2.177e-3
-1.090, 2.180e-3
-1.091, 2.174e-3
-1.092, 2.171e-3
-1.093, 2.174e-3
-1.094, 2.192e-3
-1.095, 2.208e-3
-1.096, 2.226e-3
-1.097, 2.245e-3
-1.098, 2.257e-3
-1.099, 2.266e-3
-1.100, 2.282e-3
-1.101, 2.297e-3
-1.102, 2.306e-3
-1.103, 2.303e-3
-1.104, 2.294e-3
-1.105, 2.291e-3
-1.106, 2.294e-3
-1.107, 2.306e-3
-1.108, 2.325e-3
-1.109, 2.343e-3
-1.110, 2.359e-3
-1.111, 2.365e-3
-1.112, 2.365e-3
-1.113, 2.368e-3
-1.114, 2.374e-3
-1.115, 2.374e-3
-1.116, 2.374e-3
-1.117, 2.374e-3
-1.118, 2.380e-3
-1.119, 2.399e-3
-1.120, 2.427e-3
-1.121, 2.448e-3
-1.122, 2.460e-3
-1.123, 2.457e-3
-1.124, 2.451e-3
-1.125, 2.442e-3
-1.126, 2.445e-3
-1.127, 2.454e-3
-1.128, 2.470e-3
-1.129, 2.479e-3
-1.130, 2.479e-3
-1.131, 2.476e-3
-1.132, 2.479e-3
-1.133, 2.485e-3
-1.134, 2.494e-3
-1.135, 2.507e-3
-1.136, 2.516e-3
-1.137, 2.522e-3
-1.138, 2.522e-3
-1.139, 2.528e-3
-1.140, 2.538e-3
-1.141, 2.547e-3
-1.142, 2.556e-3
-1.143, 2.553e-3
-1.144, 2.544e-3
-1.145, 2.541e-3
-1.146, 2.538e-3
-1.147, 2.550e-3
-1.148, 2.565e-3
-1.149, 2.575e-3
-1.150, 2.581e-3
-1.151, 2.578e-3
-1.152, 2.578e-3
-1.153, 2.584e-3
-1.154, 2.596e-3
-1.155, 2.605e-3
-1.156, 2.608e-3
-1.157, 2.608e-3
-1.158, 2.608e-3
-1.159, 2.608e-3
-1.160, 2.615e-3
-1.161, 2.627e-3
-1.162, 2.639e-3
-1.163, 2.642e-3
-1.164, 2.639e-3
-1.165, 2.639e-3
-1.166, 2.645e-3
-1.167, 2.655e-3
-1.168, 2.664e-3
-1.169, 2.670e-3
-1.170, 2.664e-3
-1.171, 2.658e-3
-1.172, 2.655e-3
-1.173, 2.661e-3
-1.174, 2.673e-3
-1.175, 2.689e-3
-1.176, 2.692e-3
-1.177, 2.695e-3
-1.178, 2.695e-3
-1.179, 2.698e-3
-1.180, 2.704e-3
-1.181, 2.716e-3
-1.182, 2.726e-3
-1.183, 2.726e-3
-1.184, 2.719e-3
-1.185, 2.713e-3
-1.186, 2.716e-3
-1.187, 2.732e-3
-1.188, 2.747e-3
-1.189, 2.760e-3
-1.190, 2.769e-3
-1.191, 2.772e-3
-1.192, 2.769e-3
-1.193, 2.772e-3
-1.194, 2.778e-3
-1.195, 2.784e-3
-1.196, 2.787e-3
-1.197, 2.781e-3
-1.198, 2.781e-3
-1.199, 2.787e-3
-1.200, 2.793e-3
-1.201, 2.809e-3
-1.202, 2.818e-3
-1.203, 2.821e-3
-1.204, 2.818e-3
-1.205, 2.818e-3
-1.206, 2.818e-3
-1.207, 2.821e-3
-1.208, 2.834e-3
-1.209, 2.849e-3
-1.210, 2.858e-3
-1.211, 2.861e-3
-1.212, 2.858e-3
-1.213, 2.858e-3
-1.214, 2.864e-3
-1.215, 2.871e-3
-1.216, 2.874e-3
-1.217, 2.874e-3
-1.218, 2.877e-3
-1.219, 2.883e-3
-1.220, 2.895e-3
-1.221, 2.911e-3
-1.222, 2.923e-3
-1.223, 2.926e-3
-1.224, 2.923e-3
-1.225, 2.920e-3
-1.226, 2.917e-3
-1.227, 2.926e-3
-1.228, 2.935e-3
-1.229, 2.945e-3
-1.230, 2.948e-3
-1.231, 2.948e-3
-1.232, 2.951e-3
-1.233, 2.963e-3
-1.234, 2.982e-3
-1.235, 2.994e-3
-1.236, 3.003e-3
-1.237, 3.000e-3
-1.238, 2.997e-3
-1.239, 3.000e-3
-1.240, 3.006e-3
-1.241, 3.022e-3
-1.242, 3.031e-3
-1.243, 3.037e-3
-1.244, 3.040e-3
-1.245, 3.037e-3
-1.246, 3.040e-3
-1.247, 3.052e-3
-1.248, 3.065e-3
-1.249, 3.077e-3
-1.250, 3.080e-3
-1.251, 3.083e-3
-1.252, 3.083e-3
-1.253, 3.093e-3
-1.254, 3.108e-3
-1.255, 3.120e-3
-1.256, 3.126e-3
-1.257, 3.126e-3
-1.258, 3.126e-3
-1.259, 3.136e-3
-1.260, 3.148e-3
-1.261, 3.163e-3
-1.262, 3.179e-3
-1.263, 3.182e-3
-1.264, 3.179e-3
-1.265, 3.173e-3
-1.266, 3.176e-3
-1.267, 3.191e-3
-1.268, 3.207e-3
-1.269, 3.219e-3
-1.270, 3.228e-3
-1.271, 3.231e-3
-1.272, 3.234e-3
-1.273, 3.241e-3
-1.274, 3.247e-3
-1.275, 3.250e-3
-1.276, 3.253e-3
-1.277, 3.250e-3
-1.278, 3.250e-3
-1.279, 3.262e-3
-1.280, 3.281e-3
-1.281, 3.302e-3
-1.282, 3.321e-3
-1.283, 3.336e-3
-1.284, 3.342e-3
-1.285, 3.342e-3
-1.286, 3.345e-3
-1.287, 3.358e-3
-1.288, 3.370e-3
-1.289, 3.382e-3
-1.290, 3.385e-3
-1.291, 3.385e-3
-1.292, 3.392e-3
-1.293, 3.404e-3
-1.294, 3.419e-3
-1.295, 3.435e-3
-1.296, 3.444e-3
-1.297, 3.444e-3
-1.298, 3.444e-3
-1.299, 3.447e-3
-1.300, 3.456e-3
-1.301, 3.475e-3
-1.302, 3.496e-3
-1.303, 3.512e-3
-1.304, 3.524e-3
-1.305, 3.533e-3
-1.306, 3.540e-3
-1.307, 3.552e-3
-1.308, 3.564e-3
-1.309, 3.570e-3
-1.310, 3.577e-3
-1.311, 3.577e-3
-1.312, 3.589e-3
-1.313, 3.607e-3
-1.314, 3.632e-3
-1.315, 3.657e-3
-1.316, 3.672e-3
-1.317, 3.678e-3
-1.318, 3.678e-3
-1.319, 3.684e-3
-1.320, 3.697e-3
-1.321, 3.718e-3
-1.322, 3.734e-3
-1.323, 3.740e-3
-1.324, 3.749e-3
-1.325, 3.755e-3
-1.326, 3.774e-3
-1.327, 3.795e-3
-1.328, 3.817e-3
-1.329, 3.836e-3
-1.330, 3.848e-3
-1.331, 3.860e-3
-1.332, 3.869e-3
-1.333, 3.888e-3
-1.334, 3.906e-3
-1.335, 3.928e-3
-1.336, 3.950e-3
-1.337, 3.968e-3
-1.338, 3.980e-3
-1.339, 3.999e-3
-1.340, 4.017e-3
-1.341, 4.039e-3
-1.342, 4.061e-3
-1.343, 4.082e-3
-1.344, 4.101e-3
-1.345, 4.122e-3
-1.346, 4.147e-3
-1.347, 4.178e-3
-1.348, 4.215e-3
-1.349, 4.243e-3
-1.350, 4.264e-3
-1.351, 4.276e-3
-1.352, 4.289e-3
-1.353, 4.317e-3
-1.354, 4.354e-3
-1.355, 4.394e-3
-1.356, 4.431e-3
-1.357, 4.455e-3
-1.358, 4.480e-3
-1.359, 4.517e-3
-1.360, 4.563e-3
-1.361, 4.609e-3
-1.362, 4.649e-3
-1.363, 4.680e-3
-1.364, 4.711e-3
-1.365, 4.745e-3
-1.366, 4.791e-3
-1.367, 4.847e-3
-1.368, 4.908e-3
-1.369, 4.970e-3
-1.370, 5.026e-3
-1.371, 5.084e-3
-1.372, 5.149e-3
-1.373, 5.220e-3
-1.374, 5.291e-3
-1.375, 5.359e-3
-1.376, 5.426e-3
-1.377, 5.491e-3
-1.378, 5.565e-3
-1.379, 5.645e-3
-1.380, 5.738e-3
-1.381, 5.836e-3
-1.382, 5.935e-3
-1.383, 6.031e-3
-1.384, 6.123e-3
-1.385, 6.210e-3
-1.386, 6.299e-3
-1.387, 6.401e-3
-1.388, 6.509e-3
-1.389, 6.626e-3
-1.390, 6.749e-3
-1.391, 6.869e-3
-1.392, 6.990e-3
-1.393, 7.119e-3
-1.394, 7.252e-3
-1.395, 7.378e-3
-1.396, 7.495e-3
-1.397, 7.603e-3
-1.398, 7.717e-3
-1.399, 7.844e-3
-1.400, 7.908e-3
-1.399, 7.878e-3
-1.398, 7.859e-3
-1.397, 7.834e-3
-1.396, 7.807e-3
-1.395, 7.794e-3
-1.394, 7.785e-3
-1.393, 7.773e-3
-1.392, 7.748e-3
-1.391, 7.717e-3
-1.390, 7.686e-3
-1.389, 7.659e-3
-1.388, 7.640e-3
-1.387, 7.637e-3
-1.386, 7.640e-3
-1.385, 7.646e-3
-1.384, 7.634e-3
-1.383, 7.597e-3
-1.382, 7.541e-3
-1.381, 7.483e-3
-1.380, 7.430e-3
-1.379, 7.393e-3
-1.378, 7.378e-3
-1.377, 7.375e-3
-1.376, 7.372e-3
-1.375, 7.353e-3
-1.374, 7.341e-3
-1.373, 7.316e-3
-1.372, 7.286e-3
-1.371, 7.252e-3
-1.370, 7.205e-3
-1.369, 7.147e-3
-1.368, 7.097e-3
-1.367, 7.057e-3
-1.366, 7.023e-3
-1.365, 6.996e-3
-1.364, 6.956e-3
-1.363, 6.906e-3
-1.362, 6.851e-3
-1.361, 6.792e-3
-1.360, 6.749e-3
-1.359, 6.706e-3
-1.358, 6.660e-3
-1.357, 6.607e-3
-1.356, 6.558e-3
-1.355, 6.509e-3
-1.354, 6.462e-3
-1.353, 6.428e-3
-1.352, 6.401e-3
-1.351, 6.358e-3
-1.350, 6.293e-3
-1.349, 6.222e-3
-1.348, 6.145e-3
-1.347, 6.077e-3
-1.346, 6.018e-3
-1.345, 5.969e-3
-1.344, 5.917e-3
-1.343, 5.855e-3
-1.342, 5.793e-3
-1.341, 5.735e-3
-1.340, 5.682e-3
-1.339, 5.633e-3
-1.338, 5.574e-3
-1.337, 5.510e-3
-1.336, 5.442e-3
-1.335, 5.377e-3
-1.334, 5.319e-3
-1.333, 5.266e-3
-1.332, 5.214e-3
-1.331, 5.161e-3
-1.330, 5.103e-3
-1.329, 5.038e-3
-1.328, 4.973e-3
-1.327, 4.912e-3
-1.326, 4.853e-3
-1.325, 4.801e-3
-1.324, 4.739e-3
-1.323, 4.674e-3
-1.322, 4.609e-3
-1.321, 4.545e-3
-1.320, 4.489e-3
-1.319, 4.440e-3
-1.318, 4.394e-3
-1.317, 4.338e-3
-1.316, 4.267e-3
-1.315, 4.193e-3
-1.314, 4.125e-3
-1.313, 4.070e-3
-1.312, 4.017e-3
-1.311, 3.971e-3
-1.310, 3.916e-3
-1.309, 3.857e-3
-1.308, 3.795e-3
-1.307, 3.737e-3
-1.306, 3.684e-3
-1.305, 3.629e-3
-1.304, 3.567e-3
-1.303, 3.493e-3
-1.302, 3.422e-3
-1.301, 3.358e-3
-1.300, 3.305e-3
-1.299, 3.265e-3
-1.298, 3.222e-3
-1.297, 3.170e-3
-1.296, 3.108e-3
-1.295, 3.046e-3
-1.294, 2.994e-3
-1.293, 2.957e-3
-1.292, 2.911e-3
-1.291, 2.855e-3
-1.290, 2.787e-3
-1.289, 2.723e-3
-1.288, 2.661e-3
-1.287, 2.602e-3
-1.286, 2.547e-3
-1.285, 2.504e-3
-1.284, 2.457e-3
-1.283, 2.402e-3
-1.282, 2.343e-3
-1.281, 2.291e-3
-1.280, 2.245e-3
-1.279, 2.201e-3
-1.278, 2.155e-3
-1.277, 2.100e-3
-1.276, 2.044e-3
-1.275, 1.986e-3
-1.274, 1.936e-3
-1.273, 1.890e-3
-1.272, 1.847e-3
-1.271, 1.795e-3
-1.270, 1.742e-3
-1.269, 1.684e-3
-1.268, 1.628e-3
-1.267, 1.579e-3
-1.266, 1.536e-3
-1.265, 1.495e-3
-1.264, 1.452e-3
-1.263, 1.406e-3
-1.262, 1.351e-3
-1.261, 1.298e-3
-1.260, 1.255e-3
-1.259, 1.215e-3
-1.258, 1.178e-3
-1.257, 1.129e-3
-1.256, 1.079e-3
-1.255, 1.027e-3
-1.254, 9.806e-4
-1.253, 9.405e-4
-1.252, 9.035e-4
-1.251, 8.696e-4
-1.250, 8.203e-4
-1.249, 7.709e-4
-1.248, 7.216e-4
-1.247, 6.815e-4
-1.246, 6.445e-4
-1.245, 6.137e-4
-1.244, 5.736e-4
-1.243, 5.274e-4
-1.242, 4.811e-4
-1.241, 4.349e-4
-1.240, 4.010e-4
-1.239, 3.670e-4
-1.238, 3.362e-4
-1.237, 2.931e-4
-1.236, 2.499e-4
-1.235, 2.067e-4
-1.234, 1.666e-4
-1.233, 1.358e-4
-1.232, 1.081e-4
-1.231, 7.723e-5
-1.230, 3.715e-5
-1.229, -9.093e-6
-1.228, -4.917e-5
-1.227, -8.309e-5
-1.226, -1.108e-4
-1.225, -1.386e-4
-1.224, -1.663e-4
-1.223, -2.064e-4
-1.222, -2.465e-4
-1.221, -2.835e-4
-1.220, -3.143e-4
-1.219, -3.390e-4
-1.218, -3.637e-4
-1.217, -3.976e-4
-1.216, -4.346e-4
-1.215, -4.716e-4
-1.214, -5.055e-4
-1.213, -5.301e-4
-1.212, -5.517e-4
-1.211, -5.764e-4
-1.210, -6.072e-4
-1.209, -6.442e-4
-1.208, -6.781e-4
-1.207, -7.059e-4
-1.206, -7.244e-4
-1.205, -7.460e-4
-1.204, -7.737e-4
-1.203, -8.045e-4
-1.202, -8.415e-4
-1.201, -8.724e-4
-1.200, -8.939e-4
-1.199, -9.124e-4
-1.198, -9.340e-4
-1.197, -9.556e-4
-1.196, -9.864e-4
-1.195, -1.014e-3
-1.194, -1.042e-3
-1.193, -1.060e-3
-1.192, -1.076e-3
-1.191, -1.097e-3
-1.190, -1.125e-3
-1.189, -1.156e-3
-1.188, -1.187e-3
-1.187, -1.208e-3
-1.186, -1.224e-3
-1.185, -1.239e-3
-1.184, -1.255e-3
-1.183, -1.282e-3
-1.182, -1.307e-3
-1.181, -1.332e-3
-1.180, -1.350e-3
-1.179, -1.363e-3
-1.178, -1.378e-3
-1.177, -1.403e-3
-1.176, -1.427e-3
-1.175, -1.458e-3
-1.174, -1.480e-3
-1.173, -1.492e-3
-1.172, -1.504e-3
-1.171, -1.514e-3
-1.170, -1.532e-3
-1.169, -1.557e-3
-1.168, -1.581e-3
-1.167, -1.597e-3
-1.166, -1.609e-3
-1.165, -1.618e-3
-1.164, -1.637e-3
-1.163, -1.662e-3
-1.162, -1.686e-3
-1.161, -1.708e-3
-1.160, -1.720e-3
-1.159, -1.726e-3
-1.158, -1.736e-3
-1.157, -1.748e-3
-1.156, -1.766e-3
-1.155, -1.788e-3
-1.154, -1.807e-3
-1.153, -1.822e-3
-1.152, -1.831e-3
-1.151, -1.844e-3
-1.150, -1.859e-3
-1.149, -1.881e-3
-1.148, -1.896e-3
-1.147, -1.905e-3
-1.146, -1.908e-3
-1.145, -1.908e-3
-1.144, -1.918e-3
-1.143, -1.939e-3
-1.142, -1.964e-3
-1.141, -1.985e-3
-1.140, -2.001e-3
-1.139, -2.007e-3
-1.138, -2.016e-3
-1.137, -2.029e-3
-1.136, -2.044e-3
-1.135, -2.059e-3
-1.134, -2.069e-3
-1.133, -2.072e-3
-1.132, -2.072e-3
-1.131, -2.078e-3
-1.130, -2.093e-3
-1.129, -2.115e-3
-1.128, -2.133e-3
-1.127, -2.149e-3
-1.126, -2.155e-3
-1.125, -2.158e-3
-1.124, -2.164e-3
-1.123, -2.177e-3
-1.122, -2.189e-3
-1.121, -2.201e-3
-1.120, -2.210e-3
-1.119, -2.217e-3
-1.118, -2.223e-3
-1.117, -2.232e-3
-1.116, -2.247e-3
-1.115, -2.269e-3
-1.114, -2.281e-3
-1.113, -2.281e-3
-1.112, -2.278e-3
-1.111, -2.281e-3
-1.110, -2.294e-3
-1.109, -2.312e-3
-1.108, -2.328e-3
-1.107, -2.337e-3
-1.106, -2.337e-3
-1.105, -2.334e-3
-1.104, -2.340e-3
-1.103, -2.352e-3
-1.102, -2.368e-3
-1.101, -2.383e-3
-1.100, -2.389e-3
-1.099, -2.392e-3
-1.098, -2.399e-3
-1.097, -2.411e-3
-1.096, -2.423e-3
-1.095, -2.432e-3
-1.094, -2.436e-3
-1.093, -2.432e-3
-1.092, -2.432e-3
-1.091, -2.436e-3
-1.090, -2.451e-3
-1.089, -2.469e-3
-1.088, -2.485e-3
-1.087, -2.491e-3
-1.086, -2.491e-3
-1.085, -2.494e-3
-1.084, -2.500e-3
-1.083, -2.509e-3
-1.082, -2.522e-3
-1.081, -2.534e-3
-1.080, -2.537e-3
-1.079, -2.534e-3
-1.078, -2.534e-3
-1.077, -2.537e-3
-1.076, -2.553e-3
-1.075, -2.577e-3
-1.074, -2.590e-3
-1.073, -2.596e-3
-1.072, -2.593e-3
-1.071, -2.593e-3
-1.070, -2.596e-3
-1.069, -2.608e-3
-1.068, -2.620e-3
-1.067, -2.630e-3
-1.066, -2.624e-3
-1.065, -2.620e-3
-1.064, -2.624e-3
-1.063, -2.639e-3
-1.062, -2.657e-3
-1.061, -2.670e-3
-1.060, -2.670e-3
-1.059, -2.670e-3
-1.058, -2.670e-3
-1.057, -2.679e-3
-1.056, -2.688e-3
-1.055, -2.698e-3
-1.054, -2.704e-3
-1.053, -2.710e-3
-1.052, -2.713e-3
-1.051, -2.722e-3
-1.050, -2.735e-3
-1.049, -2.753e-3
-1.048, -2.765e-3
-1.047, -2.772e-3
-1.046, -2.768e-3
-1.045, -2.765e-3
-1.044, -2.775e-3
-1.043, -2.784e-3
-1.042, -2.799e-3
-1.041, -2.812e-3
-1.040, -2.815e-3
-1.039, -2.812e-3
-1.038, -2.809e-3
-1.037, -2.809e-3
-1.036, -2.821e-3
-1.035, -2.839e-3
-1.034, -2.852e-3
-1.033, -2.858e-3
-1.032, -2.864e-3
-1.031, -2.864e-3
-1.030, -2.873e-3
-1.029, -2.892e-3
-1.028, -2.907e-3
-1.027, -2.907e-3
-1.026, -2.913e-3
-1.025, -2.926e-3
-1.024, -2.938e-3
-1.023, -2.953e-3
-1.022, -2.966e-3
-1.021, -2.978e-3
-1.020, -2.978e-3
-1.019, -2.969e-3
-1.018, -2.963e-3
-1.017, -2.972e-3
-1.016, -2.994e-3
-1.015, -3.015e-3
-1.014, -3.027e-3
-1.013, -3.034e-3
-1.012, -3.034e-3
-1.011, -3.034e-3
-1.010, -3.043e-3
-1.009, -3.068e-3
-1.008, -3.089e-3
-1.007, -3.098e-3
-1.006, -3.092e-3
-1.005, -3.092e-3
-1.004, -3.108e-3
-1.003, -3.132e-3
-1.002, -3.148e-3
-1.001, -3.157e-3
