Oct. 19, 2024   23:52:28
Cyclic Voltammetry
File: c:/users/guazh/data/banditlqround2/2024-10-18-exp579\exp579-2024-10-19t23_38_15-arkoh\exp579_cv_sr_300mvs_efin_-1600mv.bin
Data Source:  Experiment
Instrument Model:  CHI760E
Header: CV ran at 300 mVs
Note: 

Init E (V) = -1
High E (V) = -1
Low E (V) = -1.6
Final E (V) = -1
Init P/N = N
Scan Rate (V/s) = 0.3
Segment = 3
Sample Interval (V) = 0.001
Quiet Time (sec) = 2
Sensitivity (A/V) = 0.01
Comp R (ohm) = 0.9

Results:

Channel 1:
Segment 1:

Segment 2:

Segment 3:

Potential/V, Current/A

-1.000, 2.174e-5
-1.001, 4.949e-5
-1.002, 5.257e-5
-1.003, 4.949e-5
-1.004, 4.640e-5
-1.005, 4.949e-5
-1.006, 5.565e-5
-1.007, 5.873e-5
-1.008, 5.257e-5
-1.009, 4.949e-5
-1.010, 5.257e-5
-1.011, 5.873e-5
-1.012, 6.182e-5
-1.013, 5.565e-5
-1.014, 5.257e-5
-1.015, 5.257e-5
-1.016, 5.873e-5
-1.017, 6.182e-5
-1.018, 5.565e-5
-1.019, 5.257e-5
-1.020, 5.565e-5
-1.021, 6.182e-5
-1.022, 6.182e-5
-1.023, 5.565e-5
-1.024, 5.257e-5
-1.025, 5.565e-5
-1.026, 6.182e-5
-1.027, 6.182e-5
-1.028, 5.873e-5
-1.029, 5.257e-5
-1.030, 5.565e-5
-1.031, 6.182e-5
-1.032, 6.182e-5
-1.033, 5.873e-5
-1.034, 5.257e-5
-1.035, 5.565e-5
-1.036, 6.182e-5
-1.037, 6.490e-5
-1.038, 5.873e-5
-1.039, 5.257e-5
-1.040, 5.565e-5
-1.041, 6.182e-5
-1.042, 6.490e-5
-1.043, 5.873e-5
-1.044, 5.565e-5
-1.045, 5.565e-5
-1.046, 6.182e-5
-1.047, 6.490e-5
-1.048, 5.873e-5
-1.049, 5.565e-5
-1.050, 5.873e-5
-1.051, 6.490e-5
-1.052, 6.490e-5
-1.053, 5.873e-5
-1.054, 5.565e-5
-1.055, 5.565e-5
-1.056, 6.490e-5
-1.057, 6.490e-5
-1.058, 5.873e-5
-1.059, 5.565e-5
-1.060, 5.873e-5
-1.061, 6.490e-5
-1.062, 6.490e-5
-1.063, 6.182e-5
-1.064, 5.565e-5
-1.065, 5.873e-5
-1.066, 6.490e-5
-1.067, 6.490e-5
-1.068, 6.182e-5
-1.069, 5.565e-5
-1.070, 5.873e-5
-1.071, 6.490e-5
-1.072, 6.490e-5
-1.073, 6.182e-5
-1.074, 5.565e-5
-1.075, 5.873e-5
-1.076, 6.490e-5
-1.077, 6.490e-5
-1.078, 6.182e-5
-1.079, 5.565e-5
-1.080, 5.873e-5
-1.081, 6.490e-5
-1.082, 6.490e-5
-1.083, 6.182e-5
-1.084, 5.565e-5
-1.085, 5.873e-5
-1.086, 6.490e-5
-1.087, 6.798e-5
-1.088, 6.182e-5
-1.089, 5.873e-5
-1.090, 5.873e-5
-1.091, 6.490e-5
-1.092, 6.798e-5
-1.093, 6.182e-5
-1.094, 5.565e-5
-1.095, 5.873e-5
-1.096, 6.490e-5
-1.097, 6.798e-5
-1.098, 6.182e-5
-1.099, 5.873e-5
-1.100, 6.182e-5
-1.101, 6.490e-5
-1.102, 6.798e-5
-1.103, 6.182e-5
-1.104, 5.873e-5
-1.105, 5.873e-5
-1.106, 6.490e-5
-1.107, 6.798e-5
-1.108, 6.182e-5
-1.109, 5.565e-5
-1.110, 6.182e-5
-1.111, 6.798e-5
-1.112, 6.798e-5
-1.113, 6.182e-5
-1.114, 5.873e-5
-1.115, 6.182e-5
-1.116, 6.798e-5
-1.117, 6.798e-5
-1.118, 6.182e-5
-1.119, 5.873e-5
-1.120, 6.182e-5
-1.121, 6.798e-5
-1.122, 6.798e-5
-1.123, 6.490e-5
-1.124, 5.873e-5
-1.125, 6.182e-5
-1.126, 6.798e-5
-1.127, 7.107e-5
-1.128, 6.182e-5
-1.129, 5.873e-5
-1.130, 6.182e-5
-1.131, 6.798e-5
-1.132, 6.798e-5
-1.133, 6.490e-5
-1.134, 5.873e-5
-1.135, 6.182e-5
-1.136, 6.798e-5
-1.137, 7.107e-5
-1.138, 6.490e-5
-1.139, 5.873e-5
-1.140, 6.182e-5
-1.141, 6.798e-5
-1.142, 7.107e-5
-1.143, 6.490e-5
-1.144, 5.873e-5
-1.145, 6.182e-5
-1.146, 6.798e-5
-1.147, 6.798e-5
-1.148, 6.490e-5
-1.149, 6.182e-5
-1.150, 6.490e-5
-1.151, 6.798e-5
-1.152, 7.107e-5
-1.153, 6.490e-5
-1.154, 6.182e-5
-1.155, 6.182e-5
-1.156, 7.107e-5
-1.157, 7.107e-5
-1.158, 6.490e-5
-1.159, 6.182e-5
-1.160, 6.182e-5
-1.161, 7.107e-5
-1.162, 7.107e-5
-1.163, 6.490e-5
-1.164, 6.182e-5
-1.165, 6.490e-5
-1.166, 7.107e-5
-1.167, 7.107e-5
-1.168, 6.798e-5
-1.169, 6.182e-5
-1.170, 6.490e-5
-1.171, 7.107e-5
-1.172, 7.107e-5
-1.173, 6.798e-5
-1.174, 6.182e-5
-1.175, 6.490e-5
-1.176, 7.107e-5
-1.177, 7.107e-5
-1.178, 6.798e-5
-1.179, 6.182e-5
-1.180, 6.490e-5
-1.181, 7.107e-5
-1.182, 7.415e-5
-1.183, 6.798e-5
-1.184, 6.182e-5
-1.185, 6.490e-5
-1.186, 7.107e-5
-1.187, 7.415e-5
-1.188, 6.798e-5
-1.189, 6.490e-5
-1.190, 6.490e-5
-1.191, 7.415e-5
-1.192, 7.415e-5
-1.193, 6.798e-5
-1.194, 6.490e-5
-1.195, 6.490e-5
-1.196, 7.415e-5
-1.197, 7.415e-5
-1.198, 6.798e-5
-1.199, 6.490e-5
-1.200, 6.490e-5
-1.201, 7.415e-5
-1.202, 7.415e-5
-1.203, 6.798e-5
-1.204, 6.490e-5
-1.205, 6.798e-5
-1.206, 7.415e-5
-1.207, 7.415e-5
-1.208, 6.798e-5
-1.209, 6.490e-5
-1.210, 6.798e-5
-1.211, 7.415e-5
-1.212, 7.415e-5
-1.213, 6.798e-5
-1.214, 6.490e-5
-1.215, 6.798e-5
-1.216, 7.415e-5
-1.217, 7.415e-5
-1.218, 7.107e-5
-1.219, 6.490e-5
-1.220, 6.798e-5
-1.221, 7.415e-5
-1.222, 7.415e-5
-1.223, 7.107e-5
-1.224, 6.490e-5
-1.225, 6.798e-5
-1.226, 7.415e-5
-1.227, 7.415e-5
-1.228, 7.107e-5
-1.229, 6.490e-5
-1.230, 6.798e-5
-1.231, 7.415e-5
-1.232, 7.415e-5
-1.233, 7.107e-5
-1.234, 6.798e-5
-1.235, 6.798e-5
-1.236, 7.415e-5
-1.237, 7.723e-5
-1.238, 7.107e-5
-1.239, 6.798e-5
-1.240, 6.798e-5
-1.241, 7.415e-5
-1.242, 7.415e-5
-1.243, 7.107e-5
-1.244, 6.798e-5
-1.245, 6.798e-5
-1.246, 7.415e-5
-1.247, 7.723e-5
-1.248, 7.107e-5
-1.249, 6.798e-5
-1.250, 7.107e-5
-1.251, 7.415e-5
-1.252, 7.723e-5
-1.253, 7.107e-5
-1.254, 6.798e-5
-1.255, 7.107e-5
-1.256, 7.415e-5
-1.257, 7.723e-5
-1.258, 7.107e-5
-1.259, 6.798e-5
-1.260, 7.107e-5
-1.261, 7.723e-5
-1.262, 7.723e-5
-1.263, 7.415e-5
-1.264, 6.798e-5
-1.265, 7.107e-5
-1.266, 7.723e-5
-1.267, 7.723e-5
-1.268, 7.415e-5
-1.269, 6.798e-5
-1.270, 7.107e-5
-1.271, 7.723e-5
-1.272, 7.723e-5
-1.273, 7.415e-5
-1.274, 6.798e-5
-1.275, 7.107e-5
-1.276, 7.723e-5
-1.277, 8.032e-5
-1.278, 7.415e-5
-1.279, 6.798e-5
-1.280, 7.107e-5
-1.281, 7.723e-5
-1.282, 8.032e-5
-1.283, 7.415e-5
-1.284, 7.107e-5
-1.285, 7.415e-5
-1.286, 7.723e-5
-1.287, 8.032e-5
-1.288, 7.415e-5
-1.289, 7.107e-5
-1.290, 7.415e-5
-1.291, 8.032e-5
-1.292, 8.032e-5
-1.293, 7.723e-5
-1.294, 7.107e-5
-1.295, 7.415e-5
-1.296, 8.032e-5
-1.297, 8.340e-5
-1.298, 7.723e-5
-1.299, 7.415e-5
-1.300, 7.415e-5
-1.301, 8.032e-5
-1.302, 8.340e-5
-1.303, 7.723e-5
-1.304, 7.415e-5
-1.305, 7.723e-5
-1.306, 8.032e-5
-1.307, 8.340e-5
-1.308, 7.723e-5
-1.309, 7.415e-5
-1.310, 7.723e-5
-1.311, 8.340e-5
-1.312, 8.340e-5
-1.313, 8.032e-5
-1.314, 7.723e-5
-1.315, 7.723e-5
-1.316, 8.340e-5
-1.317, 8.648e-5
-1.318, 8.032e-5
-1.319, 7.723e-5
-1.320, 7.723e-5
-1.321, 8.648e-5
-1.322, 8.648e-5
-1.323, 8.340e-5
-1.324, 8.032e-5
-1.325, 8.032e-5
-1.326, 8.648e-5
-1.327, 8.957e-5
-1.328, 8.340e-5
-1.329, 8.032e-5
-1.330, 8.340e-5
-1.331, 8.957e-5
-1.332, 8.957e-5
-1.333, 8.648e-5
-1.334, 8.032e-5
-1.335, 8.340e-5
-1.336, 8.957e-5
-1.337, 9.265e-5
-1.338, 8.648e-5
-1.339, 8.340e-5
-1.340, 8.648e-5
-1.341, 9.265e-5
-1.342, 9.265e-5
-1.343, 8.957e-5
-1.344, 8.648e-5
-1.345, 8.957e-5
-1.346, 9.573e-5
-1.347, 9.573e-5
-1.348, 9.265e-5
-1.349, 8.957e-5
-1.350, 9.265e-5
-1.351, 9.882e-5
-1.352, 9.882e-5
-1.353, 9.573e-5
-1.354, 9.265e-5
-1.355, 9.573e-5
-1.356, 1.019e-4
-1.357, 1.050e-4
-1.358, 9.882e-5
-1.359, 9.573e-5
-1.360, 9.882e-5
-1.361, 1.050e-4
-1.362, 1.081e-4
-1.363, 1.019e-4
-1.364, 9.882e-5
-1.365, 1.019e-4
-1.366, 1.111e-4
-1.367, 1.111e-4
-1.368, 1.081e-4
-1.369, 1.050e-4
-1.370, 1.081e-4
-1.371, 1.142e-4
-1.372, 1.173e-4
-1.373, 1.111e-4
-1.374, 1.081e-4
-1.375, 1.111e-4
-1.376, 1.204e-4
-1.377, 1.235e-4
-1.378, 1.173e-4
-1.379, 1.142e-4
-1.380, 1.204e-4
-1.381, 1.266e-4
-1.382, 1.266e-4
-1.383, 1.266e-4
-1.384, 1.235e-4
-1.385, 1.266e-4
-1.386, 1.327e-4
-1.387, 1.358e-4
-1.388, 1.327e-4
-1.389, 1.296e-4
-1.390, 1.327e-4
-1.391, 1.420e-4
-1.392, 1.451e-4
-1.393, 1.420e-4
-1.394, 1.389e-4
-1.395, 1.451e-4
-1.396, 1.512e-4
-1.397, 1.543e-4
-1.398, 1.512e-4
-1.399, 1.512e-4
-1.400, 1.543e-4
-1.401, 1.605e-4
-1.402, 1.666e-4
-1.403, 1.636e-4
-1.404, 1.636e-4
-1.405, 1.666e-4
-1.406, 1.759e-4
-1.407, 1.821e-4
-1.408, 1.790e-4
-1.409, 1.790e-4
-1.410, 1.851e-4
-1.411, 1.913e-4
-1.412, 1.975e-4
-1.413, 1.975e-4
-1.414, 1.975e-4
-1.415, 2.036e-4
-1.416, 2.129e-4
-1.417, 2.221e-4
-1.418, 2.221e-4
-1.419, 2.221e-4
-1.420, 2.314e-4
-1.421, 2.406e-4
-1.422, 2.499e-4
-1.423, 2.530e-4
-1.424, 2.561e-4
-1.425, 2.653e-4
-1.426, 2.807e-4
-1.427, 2.931e-4
-1.428, 2.992e-4
-1.429, 3.054e-4
-1.430, 3.177e-4
-1.431, 3.362e-4
-1.432, 3.547e-4
-1.433, 3.640e-4
-1.434, 3.763e-4
-1.435, 3.979e-4
-1.436, 4.225e-4
-1.437, 4.441e-4
-1.438, 4.595e-4
-1.439, 4.811e-4
-1.440, 5.058e-4
-1.441, 5.366e-4
-1.442, 5.674e-4
-1.443, 5.921e-4
-1.444, 6.199e-4
-1.445, 6.507e-4
-1.446, 6.846e-4
-1.447, 7.216e-4
-1.448, 7.494e-4
-1.449, 7.802e-4
-1.450, 8.141e-4
-1.451, 8.542e-4
-1.452, 8.912e-4
-1.453, 9.220e-4
-1.454, 9.528e-4
-1.455, 9.868e-4
-1.456, 1.027e-3
-1.457, 1.064e-3
-1.458, 1.095e-3
-1.459, 1.122e-3
-1.460, 1.156e-3
-1.461, 1.196e-3
-1.462, 1.230e-3
-1.463, 1.264e-3
-1.464, 1.292e-3
-1.465, 1.326e-3
-1.466, 1.366e-3
-1.467, 1.400e-3
-1.468, 1.431e-3
-1.469, 1.458e-3
-1.470, 1.492e-3
-1.471, 1.532e-3
-1.472, 1.569e-3
-1.473, 1.603e-3
-1.474, 1.634e-3
-1.475, 1.668e-3
-1.476, 1.705e-3
-1.477, 1.745e-3
-1.478, 1.776e-3
-1.479, 1.804e-3
-1.480, 1.838e-3
-1.481, 1.878e-3
-1.482, 1.918e-3
-1.483, 1.949e-3
-1.484, 1.980e-3
-1.485, 2.017e-3
-1.486, 2.060e-3
-1.487, 2.100e-3
-1.488, 2.134e-3
-1.489, 2.164e-3
-1.490, 2.201e-3
-1.491, 2.245e-3
-1.492, 2.288e-3
-1.493, 2.325e-3
-1.494, 2.356e-3
-1.495, 2.396e-3
-1.496, 2.439e-3
-1.497, 2.485e-3
-1.498, 2.525e-3
-1.499, 2.559e-3
-1.500, 2.599e-3
-1.501, 2.645e-3
-1.502, 2.695e-3
-1.503, 2.735e-3
-1.504, 2.772e-3
-1.505, 2.812e-3
-1.506, 2.861e-3
-1.507, 2.911e-3
-1.508, 2.954e-3
-1.509, 2.991e-3
-1.510, 3.034e-3
-1.511, 3.086e-3
-1.512, 3.136e-3
-1.513, 3.179e-3
-1.514, 3.219e-3
-1.515, 3.265e-3
-1.516, 3.318e-3
-1.517, 3.370e-3
-1.518, 3.413e-3
-1.519, 3.456e-3
-1.520, 3.499e-3
-1.521, 3.555e-3
-1.522, 3.607e-3
-1.523, 3.654e-3
-1.524, 3.697e-3
-1.525, 3.746e-3
-1.526, 3.805e-3
-1.527, 3.866e-3
-1.528, 3.916e-3
-1.529, 3.959e-3
-1.530, 4.008e-3
-1.531, 4.067e-3
-1.532, 4.125e-3
-1.533, 4.175e-3
-1.534, 4.224e-3
-1.535, 4.276e-3
-1.536, 4.338e-3
-1.537, 4.397e-3
-1.538, 4.452e-3
-1.539, 4.498e-3
-1.540, 4.551e-3
-1.541, 4.612e-3
-1.542, 4.677e-3
-1.543, 4.733e-3
-1.544, 4.788e-3
-1.545, 4.844e-3
-1.546, 4.905e-3
-1.547, 4.970e-3
-1.548, 5.029e-3
-1.549, 5.081e-3
-1.550, 5.140e-3
-1.551, 5.208e-3
-1.552, 5.278e-3
-1.553, 5.337e-3
-1.554, 5.393e-3
-1.555, 5.451e-3
-1.556, 5.522e-3
-1.557, 5.593e-3
-1.558, 5.655e-3
-1.559, 5.713e-3
-1.560, 5.778e-3
-1.561, 5.846e-3
-1.562, 5.920e-3
-1.563, 5.978e-3
-1.564, 6.037e-3
-1.565, 6.099e-3
-1.566, 6.169e-3
-1.567, 6.243e-3
-1.568, 6.308e-3
-1.569, 6.364e-3
-1.570, 6.428e-3
-1.571, 6.502e-3
-1.572, 6.576e-3
-1.573, 6.644e-3
-1.574, 6.709e-3
-1.575, 6.774e-3
-1.576, 6.848e-3
-1.577, 6.928e-3
-1.578, 6.999e-3
-1.579, 7.060e-3
-1.580, 7.125e-3
-1.581, 7.202e-3
-1.582, 7.279e-3
-1.583, 7.347e-3
-1.584, 7.406e-3
-1.585, 7.471e-3
-1.586, 7.551e-3
-1.587, 7.631e-3
-1.588, 7.702e-3
-1.589, 7.763e-3
-1.590, 7.834e-3
-1.591, 7.908e-3
-1.592, 7.985e-3
-1.593, 8.056e-3
-1.594, 8.121e-3
-1.595, 8.189e-3
-1.596, 8.278e-3
-1.597, 8.371e-3
-1.598, 8.457e-3
-1.599, 8.516e-3
-1.600, 8.497e-3
-1.599, 8.411e-3
-1.598, 8.337e-3
-1.597, 8.266e-3
-1.596, 8.177e-3
-1.595, 8.087e-3
-1.594, 8.004e-3
-1.593, 7.927e-3
-1.592, 7.850e-3
-1.591, 7.767e-3
-1.590, 7.686e-3
-1.589, 7.625e-3
-1.588, 7.560e-3
-1.587, 7.489e-3
-1.586, 7.406e-3
-1.585, 7.326e-3
-1.584, 7.258e-3
-1.583, 7.193e-3
-1.582, 7.116e-3
-1.581, 7.036e-3
-1.580, 6.959e-3
-1.579, 6.894e-3
-1.578, 6.829e-3
-1.577, 6.752e-3
-1.576, 6.669e-3
-1.575, 6.592e-3
-1.574, 6.530e-3
-1.573, 6.475e-3
-1.572, 6.407e-3
-1.571, 6.333e-3
-1.570, 6.265e-3
-1.569, 6.203e-3
-1.568, 6.142e-3
-1.567, 6.065e-3
-1.566, 5.984e-3
-1.565, 5.920e-3
-1.564, 5.855e-3
-1.563, 5.796e-3
-1.562, 5.732e-3
-1.561, 5.667e-3
-1.560, 5.605e-3
-1.559, 5.559e-3
-1.558, 5.510e-3
-1.557, 5.454e-3
-1.556, 5.386e-3
-1.555, 5.319e-3
-1.554, 5.257e-3
-1.553, 5.195e-3
-1.552, 5.130e-3
-1.551, 5.060e-3
-1.550, 4.992e-3
-1.549, 4.939e-3
-1.548, 4.887e-3
-1.547, 4.825e-3
-1.546, 4.760e-3
-1.545, 4.696e-3
-1.544, 4.637e-3
-1.543, 4.582e-3
-1.542, 4.517e-3
-1.541, 4.449e-3
-1.540, 4.391e-3
-1.539, 4.341e-3
-1.538, 4.292e-3
-1.537, 4.236e-3
-1.536, 4.175e-3
-1.535, 4.113e-3
-1.534, 4.064e-3
-1.533, 4.014e-3
-1.532, 3.959e-3
-1.531, 3.897e-3
-1.530, 3.839e-3
-1.529, 3.789e-3
-1.528, 3.743e-3
-1.527, 3.688e-3
-1.526, 3.626e-3
-1.525, 3.570e-3
-1.524, 3.524e-3
-1.523, 3.481e-3
-1.522, 3.425e-3
-1.521, 3.367e-3
-1.520, 3.314e-3
-1.519, 3.268e-3
-1.518, 3.225e-3
-1.517, 3.173e-3
-1.516, 3.117e-3
-1.515, 3.068e-3
-1.514, 3.025e-3
-1.513, 2.982e-3
-1.512, 2.932e-3
-1.511, 2.877e-3
-1.510, 2.830e-3
-1.509, 2.790e-3
-1.508, 2.750e-3
-1.507, 2.701e-3
-1.506, 2.652e-3
-1.505, 2.605e-3
-1.504, 2.568e-3
-1.503, 2.528e-3
-1.502, 2.485e-3
-1.501, 2.436e-3
-1.500, 2.390e-3
-1.499, 2.356e-3
-1.498, 2.319e-3
-1.497, 2.275e-3
-1.496, 2.229e-3
-1.495, 2.189e-3
-1.494, 2.155e-3
-1.493, 2.121e-3
-1.492, 2.078e-3
-1.491, 2.035e-3
-1.490, 1.998e-3
-1.489, 1.964e-3
-1.488, 1.933e-3
-1.487, 1.896e-3
-1.486, 1.856e-3
-1.485, 1.819e-3
-1.484, 1.788e-3
-1.483, 1.758e-3
-1.482, 1.721e-3
-1.481, 1.680e-3
-1.480, 1.650e-3
-1.479, 1.622e-3
-1.478, 1.594e-3
-1.477, 1.560e-3
-1.476, 1.523e-3
-1.475, 1.492e-3
-1.474, 1.465e-3
-1.473, 1.440e-3
-1.472, 1.406e-3
-1.471, 1.372e-3
-1.470, 1.344e-3
-1.469, 1.320e-3
-1.468, 1.295e-3
-1.467, 1.264e-3
-1.466, 1.230e-3
-1.465, 1.206e-3
-1.464, 1.187e-3
-1.463, 1.166e-3
-1.462, 1.135e-3
-1.461, 1.104e-3
-1.460, 1.079e-3
-1.459, 1.061e-3
-1.458, 1.039e-3
-1.457, 1.011e-3
-1.456, 9.837e-4
-1.455, 9.621e-4
-1.454, 9.467e-4
-1.453, 9.282e-4
-1.452, 9.035e-4
-1.451, 8.758e-4
-1.450, 8.573e-4
-1.449, 8.418e-4
-1.448, 8.264e-4
-1.447, 8.018e-4
-1.446, 7.802e-4
-1.445, 7.617e-4
-1.444, 7.463e-4
-1.443, 7.309e-4
-1.442, 7.124e-4
-1.441, 6.877e-4
-1.440, 6.723e-4
-1.439, 6.599e-4
-1.438, 6.476e-4
-1.437, 6.260e-4
-1.436, 6.075e-4
-1.435, 5.921e-4
-1.434, 5.829e-4
-1.433, 5.705e-4
-1.432, 5.520e-4
-1.431, 5.335e-4
-1.430, 5.181e-4
-1.429, 5.120e-4
-1.428, 4.996e-4
-1.427, 4.842e-4
-1.426, 4.657e-4
-1.425, 4.565e-4
-1.424, 4.503e-4
-1.423, 4.410e-4
-1.422, 4.225e-4
-1.421, 4.071e-4
-1.420, 3.979e-4
-1.419, 3.948e-4
-1.418, 3.855e-4
-1.417, 3.701e-4
-1.416, 3.547e-4
-1.415, 3.485e-4
-1.414, 3.424e-4
-1.413, 3.362e-4
-1.412, 3.208e-4
-1.411, 3.085e-4
-1.410, 2.992e-4
-1.409, 2.961e-4
-1.408, 2.931e-4
-1.407, 2.776e-4
-1.406, 2.653e-4
-1.405, 2.591e-4
-1.404, 2.561e-4
-1.403, 2.530e-4
-1.402, 2.406e-4
-1.401, 2.283e-4
-1.400, 2.252e-4
-1.399, 2.221e-4
-1.398, 2.160e-4
-1.397, 2.067e-4
-1.396, 1.975e-4
-1.395, 1.913e-4
-1.394, 1.913e-4
-1.393, 1.851e-4
-1.392, 1.759e-4
-1.391, 1.666e-4
-1.390, 1.636e-4
-1.389, 1.636e-4
-1.388, 1.605e-4
-1.387, 1.512e-4
-1.386, 1.420e-4
-1.385, 1.389e-4
-1.384, 1.389e-4
-1.383, 1.358e-4
-1.382, 1.266e-4
-1.381, 1.173e-4
-1.380, 1.173e-4
-1.379, 1.173e-4
-1.378, 1.173e-4
-1.377, 1.081e-4
-1.376, 9.573e-5
-1.375, 9.573e-5
-1.374, 9.882e-5
-1.373, 9.573e-5
-1.372, 8.648e-5
-1.371, 8.032e-5
-1.370, 8.032e-5
-1.369, 8.032e-5
-1.368, 8.032e-5
-1.367, 7.415e-5
-1.366, 6.490e-5
-1.365, 6.490e-5
-1.364, 6.798e-5
-1.363, 6.490e-5
-1.362, 5.873e-5
-1.361, 5.257e-5
-1.360, 5.257e-5
-1.359, 5.565e-5
-1.358, 5.257e-5
-1.357, 4.640e-5
-1.356, 4.024e-5
-1.355, 4.024e-5
-1.354, 4.332e-5
-1.353, 4.024e-5
-1.352, 3.407e-5
-1.351, 2.790e-5
-1.350, 2.790e-5
-1.349, 3.099e-5
-1.348, 3.099e-5
-1.347, 2.482e-5
-1.346, 1.865e-5
-1.345, 1.865e-5
-1.344, 2.174e-5
-1.343, 2.174e-5
-1.342, 1.557e-5
-1.341, 9.405e-6
-1.340, 9.405e-6
-1.339, 1.557e-5
-1.338, 1.557e-5
-1.337, 9.405e-6
-1.336, 3.239e-6
-1.335, 3.239e-6
-1.334, 9.405e-6
-1.333, 6.322e-6
-1.332, 1.559e-7
-1.331, -2.927e-6
-1.330, -2.927e-6
-1.329, 3.239e-6
-1.328, 3.239e-6
-1.327, -6.010e-6
-1.326, -9.093e-6
-1.325, -9.093e-6
-1.324, -6.010e-6
-1.323, -2.927e-6
-1.322, -9.093e-6
-1.321, -1.526e-5
-1.320, -1.218e-5
-1.319, -9.093e-6
-1.318, -9.093e-6
-1.317, -1.218e-5
-1.316, -1.834e-5
-1.315, -1.834e-5
-1.314, -1.218e-5
-1.313, -1.218e-5
-1.312, -1.834e-5
-1.311, -2.143e-5
-1.310, -2.143e-5
-1.309, -1.526e-5
-1.308, -1.526e-5
-1.307, -2.143e-5
-1.306, -2.451e-5
-1.305, -2.451e-5
-1.304, -2.143e-5
-1.303, -1.834e-5
-1.302, -2.451e-5
-1.301, -3.068e-5
-1.300, -2.759e-5
-1.299, -2.451e-5
-1.298, -2.143e-5
-1.297, -2.759e-5
-1.296, -3.068e-5
-1.295, -3.068e-5
-1.294, -2.451e-5
-1.293, -2.451e-5
-1.292, -3.068e-5
-1.291, -3.376e-5
-1.290, -3.068e-5
-1.289, -2.759e-5
-1.288, -2.451e-5
-1.287, -3.068e-5
-1.286, -3.684e-5
-1.285, -3.376e-5
-1.284, -3.068e-5
-1.283, -2.759e-5
-1.282, -3.376e-5
-1.281, -3.684e-5
-1.280, -3.684e-5
-1.279, -3.068e-5
-1.278, -3.068e-5
-1.277, -3.684e-5
-1.276, -3.992e-5
-1.275, -3.992e-5
-1.274, -3.376e-5
-1.273, -3.376e-5
-1.272, -3.684e-5
-1.271, -3.992e-5
-1.270, -3.992e-5
-1.269, -3.376e-5
-1.268, -3.376e-5
-1.267, -3.992e-5
-1.266, -4.301e-5
-1.265, -4.301e-5
-1.264, -3.684e-5
-1.263, -3.376e-5
-1.262, -3.992e-5
-1.261, -4.609e-5
-1.260, -4.301e-5
-1.259, -3.684e-5
-1.258, -3.684e-5
-1.257, -4.301e-5
-1.256, -4.609e-5
-1.255, -4.301e-5
-1.254, -3.992e-5
-1.253, -3.684e-5
-1.252, -4.301e-5
-1.251, -4.609e-5
-1.250, -4.609e-5
-1.249, -3.992e-5
-1.248, -3.992e-5
-1.247, -4.301e-5
-1.246, -4.609e-5
-1.245, -4.609e-5
-1.244, -3.992e-5
-1.243, -3.992e-5
-1.242, -4.609e-5
-1.241, -4.917e-5
-1.240, -4.609e-5
-1.239, -3.992e-5
-1.238, -3.992e-5
-1.237, -4.609e-5
-1.236, -4.917e-5
-1.235, -4.917e-5
-1.234, -4.301e-5
-1.233, -3.992e-5
-1.232, -4.609e-5
-1.231, -4.917e-5
-1.230, -4.917e-5
-1.229, -4.301e-5
-1.228, -4.301e-5
-1.227, -4.609e-5
-1.226, -4.917e-5
-1.225, -4.917e-5
-1.224, -4.301e-5
-1.223, -4.301e-5
-1.222, -4.917e-5
-1.221, -5.226e-5
-1.220, -5.226e-5
-1.219, -4.609e-5
-1.218, -4.301e-5
-1.217, -4.917e-5
-1.216, -5.226e-5
-1.215, -5.226e-5
-1.214, -4.609e-5
-1.213, -4.609e-5
-1.212, -4.917e-5
-1.211, -5.534e-5
-1.210, -5.226e-5
-1.209, -4.609e-5
-1.208, -4.609e-5
-1.207, -4.917e-5
-1.206, -5.534e-5
-1.205, -5.226e-5
-1.204, -4.917e-5
-1.203, -4.609e-5
-1.202, -5.226e-5
-1.201, -5.534e-5
-1.200, -5.226e-5
-1.199, -4.917e-5
-1.198, -4.609e-5
-1.197, -5.226e-5
-1.196, -5.842e-5
-1.195, -5.534e-5
-1.194, -4.917e-5
-1.193, -4.917e-5
-1.192, -5.226e-5
-1.191, -5.842e-5
-1.190, -5.534e-5
-1.189, -4.917e-5
-1.188, -4.917e-5
-1.187, -5.226e-5
-1.186, -5.842e-5
-1.185, -5.534e-5
-1.184, -5.226e-5
-1.183, -4.917e-5
-1.182, -5.534e-5
-1.181, -5.842e-5
-1.180, -5.842e-5
-1.179, -5.226e-5
-1.178, -5.226e-5
-1.177, -5.534e-5
-1.176, -6.151e-5
-1.175, -5.842e-5
-1.174, -5.226e-5
-1.173, -4.917e-5
-1.172, -5.534e-5
-1.171, -6.151e-5
-1.170, -5.842e-5
-1.169, -5.534e-5
-1.168, -5.226e-5
-1.167, -5.842e-5
-1.166, -6.151e-5
-1.165, -5.842e-5
-1.164, -5.534e-5
-1.163, -5.226e-5
-1.162, -5.842e-5
-1.161, -6.151e-5
-1.160, -5.842e-5
-1.159, -5.534e-5
-1.158, -5.226e-5
-1.157, -5.842e-5
-1.156, -6.459e-5
-1.155, -6.151e-5
-1.154, -5.534e-5
-1.153, -5.226e-5
-1.152, -5.842e-5
-1.151, -6.459e-5
-1.150, -6.459e-5
-1.149, -5.842e-5
-1.148, -5.534e-5
-1.147, -6.151e-5
-1.146, -6.459e-5
-1.145, -6.459e-5
-1.144, -5.842e-5
-1.143, -5.534e-5
-1.142, -6.151e-5
-1.141, -6.459e-5
-1.140, -6.459e-5
-1.139, -5.842e-5
-1.138, -5.534e-5
-1.137, -6.151e-5
-1.136, -6.767e-5
-1.135, -6.459e-5
-1.134, -5.842e-5
-1.133, -5.842e-5
-1.132, -6.151e-5
-1.131, -6.767e-5
-1.130, -6.459e-5
-1.129, -6.151e-5
-1.128, -5.842e-5
-1.127, -6.151e-5
-1.126, -6.767e-5
-1.125, -6.767e-5
-1.124, -6.151e-5
-1.123, -5.842e-5
-1.122, -6.459e-5
-1.121, -6.767e-5
-1.120, -6.767e-5
-1.119, -6.151e-5
-1.118, -6.151e-5
-1.117, -6.459e-5
-1.116, -7.076e-5
-1.115, -6.767e-5
-1.114, -6.151e-5
-1.113, -6.151e-5
-1.112, -6.459e-5
-1.111, -7.076e-5
-1.110, -6.767e-5
-1.109, -6.459e-5
-1.108, -6.151e-5
-1.107, -6.767e-5
-1.106, -7.076e-5
-1.105, -7.076e-5
-1.104, -6.459e-5
-1.103, -6.151e-5
-1.102, -6.767e-5
-1.101, -7.076e-5
-1.100, -7.076e-5
-1.099, -6.459e-5
-1.098, -6.151e-5
-1.097, -6.767e-5
-1.096, -7.384e-5
-1.095, -7.076e-5
-1.094, -6.459e-5
-1.093, -6.151e-5
-1.092, -6.767e-5
-1.091, -7.384e-5
-1.090, -7.076e-5
-1.089, -6.459e-5
-1.088, -6.459e-5
-1.087, -6.767e-5
-1.086, -7.384e-5
-1.085, -7.076e-5
-1.084, -6.459e-5
-1.083, -6.459e-5
-1.082, -6.767e-5
-1.081, -7.384e-5
-1.080, -7.384e-5
-1.079, -6.767e-5
-1.078, -6.459e-5
-1.077, -7.076e-5
-1.076, -7.692e-5
-1.075, -7.384e-5
-1.074, -6.767e-5
-1.073, -6.459e-5
-1.072, -7.076e-5
-1.071, -7.692e-5
-1.070, -7.384e-5
-1.069, -6.767e-5
-1.068, -6.767e-5
-1.067, -7.076e-5
-1.066, -7.692e-5
-1.065, -7.384e-5
-1.064, -6.767e-5
-1.063, -6.767e-5
-1.062, -7.076e-5
-1.061, -7.692e-5
-1.060, -7.384e-5
-1.059, -6.767e-5
-1.058, -6.767e-5
-1.057, -7.384e-5
-1.056, -7.692e-5
-1.055, -7.384e-5
-1.054, -7.076e-5
-1.053, -6.767e-5
-1.052, -7.384e-5
-1.051, -7.692e-5
-1.050, -7.692e-5
-1.049, -7.076e-5
-1.048, -7.076e-5
-1.047, -7.384e-5
-1.046, -8.000e-5
-1.045, -7.692e-5
-1.044, -7.076e-5
-1.043, -6.767e-5
-1.042, -7.384e-5
-1.041, -8.000e-5
-1.040, -7.692e-5
-1.039, -7.076e-5
-1.038, -7.076e-5
-1.037, -7.384e-5
-1.036, -8.000e-5
-1.035, -7.692e-5
-1.034, -7.076e-5
-1.033, -7.076e-5
-1.032, -7.384e-5
-1.031, -8.000e-5
-1.030, -8.000e-5
-1.029, -7.384e-5
-1.028, -7.076e-5
-1.027, -7.692e-5
-1.026, -8.000e-5
-1.025, -8.000e-5
-1.024, -7.384e-5
-1.023, -7.076e-5
-1.022, -7.692e-5
-1.021, -8.309e-5
-1.020, -8.000e-5
-1.019, -7.384e-5
-1.018, -7.384e-5
-1.017, -7.692e-5
-1.016, -8.309e-5
-1.015, -8.000e-5
-1.014, -7.692e-5
-1.013, -7.076e-5
-1.012, -7.692e-5
-1.011, -8.309e-5
-1.010, -8.000e-5
-1.009, -7.692e-5
-1.008, -7.384e-5
-1.007, -8.000e-5
-1.006, -8.309e-5
-1.005, -8.309e-5
-1.004, -7.692e-5
-1.003, -7.384e-5
-1.002, -8.000e-5
-1.001, -8.617e-5
