Potential V vs RHE, Current mA cm-2
0.4132999999999999,0.008706133339369435
0.4122999999999999,0.006684510891862298
0.4112999999999999,0.005890857852638013
0.4102999999999999,0.005422588412382685
0.4092999999999999,0.0050476899179184515
0.4082999999999999,0.004681279691253406
0.4072999999999999,0.0043445784018855274
0.4062999999999999,0.004119639305206987
0.4052999999999999,0.003893285497228581
0.4042999999999999,0.0036754199570493648
0.4032999999999999,0.0034533102829705548
0.4022999999999999,0.003234030031491474
0.4012999999999999,0.0030713382320069946
0.4002999999999999,0.002925622968120896
0.3992999999999999,0.0027473693443379014
0.3982999999999999,0.002530918515458551
0.3972999999999999,0.0023554943142752856
0.3962999999999999,0.002225340874687703
0.3952999999999999,0.0021008462802995795
0.3942999999999999,0.001942398614714695
0.39329999999999987,0.0017839509491298113
0.39229999999999987,0.0016368209739438474
0.39129999999999987,0.0015193999360550493
0.39029999999999987,0.001426028990263957
0.38929999999999987,0.0013080420678552127
0.38829999999999987,0.0011517164692201264
0.38729999999999987,0.0010177433091229074
0.38629999999999987,0.000904707876263691
0.38529999999999986,0.000808366036742882
0.38429999999999986,0.0006981600264833956
0.38329999999999986,0.0005501812245175128
0.38229999999999986,0.00042455486108949756
0.38129999999999986,0.0003562243053060163
0.38029999999999986,0.00025705304318547715
0.37929999999999986,0.00017896097943292716
0.37829999999999986,4.2158396735978093e-05
0.37729999999999986,-6.253023945403462e-05
0.37629999999999986,-0.00013091738368951048
0.37529999999999986,-0.00022861734605818994
0.37429999999999986,-0.0002886011051724675
0.37329999999999985,-0.0004225742652696865
0.37229999999999985,-0.000541268543328363
0.37129999999999985,-0.0005886613718738418
0.37029999999999985,-0.0006835885000947857
0.36929999999999985,-0.0007575779010777271
0.36829999999999985,-0.0008791016017361338
0.36729999999999985,-0.0009753019701269562
0.36629999999999985,-0.0010340124890713554
0.36529999999999985,-0.0010883374029861726
0.36429999999999985,-0.001160912092669249
0.36329999999999985,-0.0012503218468207194
0.36229999999999984,-0.001367601413579531
0.36129999999999984,-0.0014274437015638218
0.36029999999999984,-0.0014769585970590981
0.35929999999999984,-0.00154486473945262
0.35829999999999984,-0.0016396503965435774
0.35729999999999984,-0.00174433903273359
0.35629999999999984,-0.0017811215265300813
0.35529999999999984,-0.0018235628655260323
0.35429999999999984,-0.0018801513175206337
0.35329999999999984,-0.0019777663972113213
0.35229999999999984,-0.002062649075203223
0.35129999999999983,-0.00212914050629688
0.35029999999999983,-0.002175825979192426
0.34929999999999983,-0.0022196820294882427
0.34829999999999983,-0.0023187118204787954
0.34729999999999983,-0.002441791703567053
0.34629999999999983,-0.0024828183312631397
0.34529999999999983,-0.002506868423360845
0.34429999999999983,-0.0025563833188561214
0.3432999999999998,-0.0026469248420474835
0.3422999999999998,-0.0027247339635400607
0.3412999999999998,-0.0027728341477354724
0.3402999999999998,-0.002812446064131693
0.3392999999999998,-0.0028379108675292636
0.3382999999999998,-0.0029326965246202212
0.3372999999999998,-0.0030175792026121235
0.3362999999999998,-0.003050117562509019
0.3352999999999998,-0.0031052913032037555
0.3342999999999998,-0.0031533914873991668
0.3332999999999998,-0.0032227123410925535
0.3322999999999998,-0.0033302303998822965
0.3312999999999998,-0.003334474533781891
0.3302999999999998,-0.0033726717388782475
0.3292999999999998,-0.0034122836552744687
0.3282999999999998,-0.0034971663332663706
0.3272999999999998,-0.0035933667016571935
0.3262999999999998,-0.0036032696807562488
0.3252999999999999,-0.003621660927654494
0.3242999999999999,-0.003692396492647746
0.3232999999999999,-0.0037532290785419428
0.3222999999999999,-0.0038550882921322242
0.3212999999999999,-0.0038805530955297956
0.3202999999999999,-0.003908847321527097
0.3192999999999999,-0.003954118083122777
0.3182999999999999,-0.004016365380316839
0.3172999999999999,-0.004098418635709011
0.3162999999999999,-0.0041309569956059075
0.3152999999999999,-0.004160665932903073
0.3142999999999999,-0.004188960158900374
0.3132999999999999,-0.0042766722594920065
0.3122999999999999,-0.0043403342679859324
0.3112999999999999,-0.004377116761782424
0.3102999999999999,-0.004413899255578915
0.3092999999999999,-0.0044436081928760805
0.3082999999999999,-0.004510099623969737
0.3072999999999999,-0.004566688075964338
0.3062999999999999,-0.004603470569760829
0.3052999999999999,-0.004613373548859884
0.3042999999999999,-0.004638838352257455
0.3032999999999999,-0.004725135741549223
0.3022999999999999,-0.004793041883942744
0.3012999999999999,-0.0048114331308409895
0.3002999999999999,-0.004835483222938695
0.2992999999999999,-0.004852459758537075
0.2982999999999999,-0.004930268880029653
0.2972999999999999,-0.004995345599823445
0.2962999999999999,-0.00502505453712061
0.2952999999999999,-0.005034957516219666
0.2942999999999999,-0.005053348763117911
0.2932999999999999,-0.005132572595910353
0.2922999999999999,-0.00519340518180455
0.2912999999999999,-0.0052061375835033355
0.2902999999999999,-0.005228772964301175
0.2892999999999999,-0.005264140746797801
0.2882999999999999,-0.005319314487492538
0.2872999999999999,-0.0053900500524857895
0.2862999999999999,-0.005407026588084171
0.2852999999999999,-0.0054155148558833605
0.2842999999999999,-0.005448053215780256
0.2832999999999999,-0.005518788780773508
0.2822999999999999,-0.005579621366667705
0.2812999999999999,-0.00559235376836649
0.2802999999999999,-0.00560084203616568
0.2792999999999999,-0.005641868663861766
0.2782999999999999,-0.0056814805802579875
0.2772999999999999,-0.005773436814749215
0.2762999999999999,-0.00577202210344935
0.2752999999999999,-0.005790413350347595
0.2742999999999999,-0.005821536998944626
0.2732999999999999,-0.005883784296138688
0.2722999999999999,-0.005936128614233694
0.2712999999999999,-0.00596866697413059
0.2702999999999999,-0.0059884729323287
0.2692999999999999,-0.006016767158326
0.26829999999999987,-0.006087502723319252
0.26729999999999987,-0.006138432330114394
0.26629999999999987,-0.0061624824222121
0.26529999999999987,-0.006146920597913584
0.26429999999999987,-0.0061822883804102105
0.26329999999999987,-0.006226144430706026
0.26229999999999987,-0.0063067829747983336
0.26129999999999987,-0.0063237595103967145
0.26029999999999986,-0.0063407360459950945
0.25929999999999986,-0.00634498017989469
0.25829999999999986,-0.006417130456187806
0.25729999999999986,-0.0064822071759815985
0.25629999999999986,-0.006485036598581328
0.25529999999999986,-0.006502013134179708
0.25429999999999986,-0.006496354288980248
0.25329999999999986,-0.006565675142673635
0.25229999999999986,-0.006626507728567831
0.25129999999999986,-0.006625093017267966
0.25029999999999986,-0.006639240130266616
0.24929999999999986,-0.0066661196449640525
0.24829999999999985,-0.006712805117859599
0.24729999999999985,-0.006793443661951905
0.24629999999999985,-0.006794858373251771
0.24529999999999985,-0.006840129134847452
0.24429999999999985,-0.006851446825246373
0.24329999999999985,-0.006882570473843404
0.24229999999999985,-0.006956135461436385
0.24129999999999985,-0.0069915032439330106
0.24029999999999985,-0.006975941419634496
0.23929999999999985,-0.0070127239134309865
0.23829999999999985,-0.007063653520226129
0.23729999999999984,-0.007117412549620999
0.23629999999999984,-0.0071329743739195145
0.23529999999999984,-0.007124486106120325
0.23429999999999984,-0.007148536198218029
0.23329999999999984,-0.007195221671113577
0.23229999999999984,-0.007258883679607504
0.23129999999999984,-0.0072744455039060185
0.23029999999999984,-0.007273030792606153
0.22929999999999984,-0.007315472131602104
0.22829999999999984,-0.007370645872296841
0.22729999999999984,-0.0074031842321937375
0.22629999999999983,-0.007425819612991578
0.22529999999999983,-0.0074244049016917125
0.22429999999999983,-0.007455528550288743
0.22329999999999983,-0.0074880669101856385
0.22229999999999983,-0.0075701201655778115
0.22129999999999983,-0.0075743642994774065
0.22029999999999983,-0.007582852567276597
0.21929999999999983,-0.007602658525474707
0.21829999999999983,-0.007643685153170794
0.21729999999999983,-0.0077101765842644485
0.21629999999999983,-0.007731397253762425
0.21529999999999982,-0.007738470810261752
0.21429999999999982,-0.007758276768459861
0.21329999999999982,-0.007800718107455813
0.21229999999999982,-0.007875697806348659
0.21129999999999982,-0.007872868383748928
0.21029999999999982,-0.00787852722894839
0.20929999999999982,-0.007894089053246905
0.20829999999999982,-0.007930871547043396
0.20729999999999982,-0.008012924802435569
0.20629999999999982,-0.008027071915434218
0.20529999999999982,-0.008039804317133005
0.20429999999999982,-0.008048292584932193
0.20329999999999981,-0.008085075078728684
0.2022999999999998,-0.008150151798522475
0.2012999999999998,-0.008167128334120857
0.20029999999999992,-0.008162884200221262
0.19929999999999992,-0.008205325539217212
0.19829999999999992,-0.00823786389911411
0.19729999999999992,-0.008281719949409926
0.19629999999999992,-0.008317087731906552
0.19529999999999992,-0.008304355330207765
0.19429999999999992,-0.008384993874300072
0.19329999999999992,-0.008441582326294673
0.19229999999999992,-0.00846280299579265
0.19129999999999991,-0.00848826779919022
0.1902999999999999,-0.008482608953990762
0.1892999999999999,-0.008474120686191569
0.1882999999999999,-0.008522220870386982
0.1872999999999999,-0.008575979899781852
0.1862999999999999,-0.008588712301480637
0.1852999999999999,-0.008598615280579694
0.1842999999999999,-0.008605688837079017
0.1832999999999999,-0.008660862577773754
0.1822999999999999,-0.008716036318468491
0.1812999999999999,-0.008724524586267681
0.1802999999999999,-0.008748574678365387
0.1792999999999999,-0.008738671699266332
0.1782999999999999,-0.008792430728661203
0.1772999999999999,-0.00884194562415648
0.1762999999999999,-0.00885609273715513
0.1752999999999999,-0.0088815575405527
0.1742999999999999,-0.008867410427554049
0.1732999999999999,-0.008921169456948923
0.1722999999999999,-0.008979172620243388
0.1712999999999999,-0.00899331973324204
0.1702999999999999,-0.009004637423640958
0.1692999999999999,-0.009030102227038529
0.1682999999999999,-0.009073958277334345
0.1672999999999999,-0.009148937976227192
0.1662999999999999,-0.009146108553627462
0.1652999999999999,-0.009137620285828273
0.1642999999999999,-0.009163085089225842
0.1632999999999999,-0.009189964603923278
0.1622999999999999,-0.00926070016891653
0.1612999999999999,-0.009264944302816125
0.1602999999999999,-0.00928333554971437
0.1592999999999999,-0.009298897374012887
0.15829999999999989,-0.009331435733909783
0.15729999999999988,-0.009392268319803977
0.15629999999999988,-0.00941773312320155
0.15529999999999988,-0.009419147834501415
0.15429999999999988,-0.00944036850399939
0.15329999999999988,-0.009479980420395611
0.15229999999999988,-0.009526665893291156
0.15129999999999988,-0.009563448387087647
0.15029999999999988,-0.009553545407988593
0.14929999999999988,-0.009556374830588323
0.14829999999999988,-0.00961720741648252
0.14729999999999988,-0.009661063466778334
0.14629999999999987,-0.009675210579776985
0.14529999999999987,-0.009685113558876041
0.14429999999999987,-0.009697845960574828
0.14329999999999987,-0.009775655082067403
0.14229999999999987,-0.009830828822762141
0.14129999999999987,-0.00982799940016241
0.14029999999999987,-0.009849220069660386
0.13929999999999987,-0.00985912304875944
0.13829999999999987,-0.009897320253855797
0.13729999999999987,-0.009942591015451478
0.13629999999999987,-0.009972299952748644
0.13529999999999986,-0.00998503235444743
0.13429999999999986,-0.009986447065747294
0.13329999999999986,-0.01001898542564419
0.13229999999999986,-0.010089720990637442
0.13129999999999986,-0.010091135701937308
0.13029999999999986,-0.010110941660135417
0.12929999999999986,-0.010133577040933258
0.12829999999999986,-0.010157627133030964
0.12729999999999986,-0.010231192120623945
0.12629999999999986,-0.01023826567712327
0.12529999999999986,-0.010235436254523542
0.12429999999999986,-0.01026090105792111
0.12329999999999985,-0.010294854129117872
0.12229999999999985,-0.010354272003712204
0.12129999999999985,-0.010367004405410989
0.12029999999999985,-0.010354272003712204
0.11929999999999985,-0.010391054497508694
0.11829999999999985,-0.01043773997040424
0.11729999999999985,-0.010494328422398842
0.11629999999999985,-0.01053535505009493
0.11529999999999985,-0.010545258029193984
0.11429999999999985,-0.010576381677791015
0.11329999999999985,-0.010613164171587506
0.11229999999999984,-0.010666923200982377
0.11129999999999984,-0.010681070313981028
0.11029999999999984,-0.010665508489682512
0.10929999999999984,-0.010682485025280892
0.10829999999999984,-0.010731999920776168
0.10729999999999984,-0.01078292952757131
0.10629999999999984,-0.010814053176168343
0.10529999999999984,-0.010828200289166992
0.10429999999999984,-0.010849420958664967
0.10329999999999984,-0.010894691720260648
0.10229999999999984,-0.010948450749655518
0.10129999999999983,-0.010975330264352956
0.10029999999999983,-0.010988062666051741
0.09929999999999983,-0.01098240382085228
0.09829999999999983,-0.011051724674545666
0.09729999999999983,-0.011104068992640673
0.09629999999999983,-0.011115386683039593
0.09529999999999983,-0.011126704373438514
0.09429999999999983,-0.011140851486437163
0.09329999999999983,-0.011198854649731629
0.09229999999999983,-0.011263931369525422
0.09129999999999983,-0.011292225595522723
0.09029999999999982,-0.011292225595522723
0.08929999999999982,-0.011310616842420969
0.08829999999999982,-0.01135022875881719
0.08729999999999982,-0.011423793746410171
0.08629999999999982,-0.011428037880309766
0.08529999999999982,-0.011450673261107608
0.08429999999999982,-0.011463405662806393
0.08329999999999982,-0.01151292055830167
0.08229999999999982,-0.01158082670069519
0.08129999999999982,-0.011590729679794246
0.08029999999999982,-0.01159214439109411
0.07929999999999982,-0.011628926884890601
0.07829999999999981,-0.01167278293518642
0.07729999999999981,-0.011733615521080614
0.07629999999999981,-0.01177181272617697
0.07529999999999992,-0.01176898330357724
0.07429999999999992,-0.011795862818274676
0.07329999999999992,-0.011849621847669549
0.07229999999999992,-0.011917527990063069
0.07129999999999992,-0.011947236927360235
0.07029999999999992,-0.011950066349959966
0.06929999999999992,-0.011971287019457941
0.06829999999999992,-0.012025046048852812
0.06729999999999992,-0.012064657965249033
0.06629999999999991,-0.012114172860744309
0.06529999999999991,-0.012122661128543499
0.06429999999999991,-0.012138222952842014
0.06329999999999991,-0.012194811404836615
0.06229999999999991,-0.012248570434231488
0.06129999999999991,-0.012269791103729463
0.06029999999999991,-0.012276864660228788
0.05929999999999991,-0.01230798830882582
0.05829999999999991,-0.01235608849302123
0.05729999999999991,-0.012419750501515156
0.056299999999999906,-0.012435312325813672
0.055299999999999905,-0.012476338953509757
0.054299999999999904,-0.012486241932608813
0.0532999999999999,-0.012540000962003686
0.0522999999999999,-0.012619224794796127
0.0512999999999999,-0.012637616041694373
0.0502999999999999,-0.012653177865992887
0.0492999999999999,-0.012674398535490863
0.0482999999999999,-0.01273240169878533
0.0472999999999999,-0.012817284376777233
0.0462999999999999,-0.012848408025374264
0.045299999999999896,-0.012854066870573722
0.044299999999999895,-0.01288943465307035
0.043299999999999894,-0.01291772887906765
0.04229999999999989,-0.012998367423159957
0.04129999999999989,-0.013033735205656581
0.04029999999999989,-0.013056370586454424
0.03929999999999989,-0.013098811925450374
0.03829999999999989,-0.013141253264446326
0.03729999999999989,-0.013211988829439577
0.03629999999999989,-0.013244527189336474
0.03529999999999989,-0.013251600745835798
0.034299999999999886,-0.013275650837933504
0.033299999999999885,-0.013337898135127564
0.032299999999999884,-0.013414292545320276
0.031299999999999883,-0.01346522215211542
0.030299999999999883,-0.013456733884316228
0.02929999999999988,-0.013497760512012314
0.02829999999999988,-0.013544445984907859
0.02729999999999988,-0.013619425683800706
0.02629999999999988,-0.01367035529059585
0.025299999999999878,-0.013671770001895714
0.024299999999999877,-0.013698649516593149
0.023299999999999876,-0.013766555658986672
0.022299999999999875,-0.013835876512680059
0.021299999999999875,-0.013891050253374797
0.020299999999999874,-0.013893879675974526
0.019299999999999873,-0.013915100345472501
0.018299999999999872,-0.013985835910465752
0.01729999999999987,-0.01406647445455806
0.01629999999999987,-0.014073548011057384
0.01529999999999987,-0.01411457463875347
0.014299999999999868,-0.014147112998650365
0.013299999999999867,-0.014217848563643616
0.012299999999999978,-0.014288584128636872
0.011299999999999866,-0.01430273124163552
0.010299999999999976,-0.014331025467632824
0.009299999999999864,-0.014359319693630123
0.008299999999999974,-0.014401761032626074
0.007299999999999862,-0.014500790823616624
0.006299999999999972,-0.014543232162612576
0.00529999999999986,-0.014557379275611227
0.0042999999999999705,-0.01461396772760583
0.0032999999999998586,-0.01465640906660178
0.0022999999999999687,-0.014741291744593682
0.0012999999999998568,-0.014783733083589632
0.00029999999999996696,-0.014812027309586936
-0.000700000000000145,-0.014840321535584235
-0.0017000000000000348,-0.014882762874580187
-0.0027000000000001467,-0.014967645552572089
-0.0037000000000000366,-0.01501008689156804
-0.0047000000000001485,-0.01501008689156804
-0.005700000000000038,-0.015066675343562642
-0.00670000000000015,-0.015123263795557243
-0.00770000000000004,-0.015193999360550494
-0.008700000000000152,-0.015264734925543746
-0.009700000000000042,-0.015278882038542396
-0.010700000000000154,-0.015349617603535646
-0.011700000000000044,-0.015392058942531598
-0.012700000000000156,-0.01546279450752485
-0.013700000000000045,-0.015505235846520802
-0.014700000000000157,-0.015519382959519455
-0.015700000000000047,-0.015547677185516754
-0.01670000000000016,-0.015618412750510005
-0.01770000000000005,-0.01568914831550326
-0.01870000000000016,-0.015745736767497857
-0.01970000000000005,-0.015774030993495156
-0.020700000000000163,-0.01578817810649381
-0.021700000000000053,-0.01584476655848841
-0.022700000000000164,-0.01591550212348166
-0.023700000000000054,-0.015957943462477614
-0.024700000000000166,-0.015986237688474913
-0.025700000000000056,-0.016014531914472215
-0.026700000000000168,-0.016071120366466816
-0.027700000000000058,-0.01615600304445872
-0.02870000000000017,-0.01619844438345467
-0.02970000000000006,-0.016212591496453318
-0.03070000000000017,-0.01624088572245062
-0.03170000000000006,-0.01629747417444522
-0.03270000000000017,-0.016396503965435776
-0.03370000000000006,-0.016410651078434424
-0.034700000000000175,-0.016453092417430374
-0.035700000000000065,-0.016495533756426328
-0.03670000000000018,-0.016537975095422278
-0.03770000000000007,-0.016637004886412832
-0.03870000000000018,-0.016679446225408782
-0.03970000000000007,-0.016693593338407434
-0.04070000000000018,-0.016750181790402035
-0.04170000000000007,-0.016778476016399334
-0.04270000000000018,-0.016863358694391237
-0.04370000000000007,-0.01690580003338719
-0.044700000000000184,-0.01691994714638584
-0.045700000000000074,-0.016962388485381792
-0.046700000000000186,-0.017018976937376393
-0.047700000000000076,-0.017089712502369642
-0.04870000000000019,-0.017160448067362895
-0.04970000000000008,-0.017174595180361543
-0.05070000000000019,-0.017231183632356147
-0.05170000000000008,-0.017273624971352097
-0.05270000000000019,-0.01731606631034805
-0.05370000000000008,-0.0173868018753413
-0.05470000000000019,-0.017400948988339954
-0.05570000000000008,-0.017429243214337253
-0.056700000000000195,-0.017499978779330502
-0.057700000000000085,-0.017556567231325104
-0.058700000000000196,-0.017627302796318356
-0.059700000000000086,-0.017627302796318356
-0.0607000000000002,-0.01765559702231566
