Oct. 28, 2024   01:12:33
Linear Sweep Voltammetry
File: c:/users/guazh/data/banditlqv2round1/2024-10-24-exp602\pre-regen-2024-10-28t01_09_30-lsvinphos\pre-regen_lsv_50mvs_efin_-1900mv.bin
Data Source:  Experiment
Instrument Model:  CHI760E
Header: LSV ran at 50 mVs with Efin at -1900mV
Note: 

Init E (V) = -0.6
Final E (V) = -1.9
Scan Rate (V/s) = 0.05
Sample Interval (V) = 0.001
Quiet Time (sec) = 2
Sensitivity (A/V) = 1e-4
Comp R (ohm) = 7.2

Results:

Channel 1:
Ep = -1.209V
ip = 8.910e-7A
Ah = 1.323e-6C

Potential/V, Current/A

-0.600, 1.294e-6
-0.601, 1.343e-6
-0.602, 1.363e-6
-0.603, 1.377e-6
-0.604, 1.389e-6
-0.605, 1.401e-6
-0.606, 1.412e-6
-0.607, 1.423e-6
-0.608, 1.435e-6
-0.609, 1.447e-6
-0.610, 1.456e-6
-0.611, 1.469e-6
-0.612, 1.479e-6
-0.613, 1.491e-6
-0.614, 1.502e-6
-0.615, 1.514e-6
-0.616, 1.523e-6
-0.617, 1.535e-6
-0.618, 1.545e-6
-0.619, 1.557e-6
-0.620, 1.567e-6
-0.621, 1.578e-6
-0.622, 1.590e-6
-0.623, 1.600e-6
-0.624, 1.611e-6
-0.625, 1.621e-6
-0.626, 1.631e-6
-0.627, 1.642e-6
-0.628, 1.653e-6
-0.629, 1.664e-6
-0.630, 1.675e-6
-0.631, 1.686e-6
-0.632, 1.697e-6
-0.633, 1.707e-6
-0.634, 1.719e-6
-0.635, 1.730e-6
-0.636, 1.741e-6
-0.637, 1.751e-6
-0.638, 1.763e-6
-0.639, 1.774e-6
-0.640, 1.785e-6
-0.641, 1.797e-6
-0.642, 1.808e-6
-0.643, 1.819e-6
-0.644, 1.832e-6
-0.645, 1.842e-6
-0.646, 1.855e-6
-0.647, 1.867e-6
-0.648, 1.878e-6
-0.649, 1.891e-6
-0.650, 1.902e-6
-0.651, 1.914e-6
-0.652, 1.926e-6
-0.653, 1.939e-6
-0.654, 1.952e-6
-0.655, 1.963e-6
-0.656, 1.976e-6
-0.657, 1.988e-6
-0.658, 2.001e-6
-0.659, 2.014e-6
-0.660, 2.027e-6
-0.661, 2.040e-6
-0.662, 2.054e-6
-0.663, 2.067e-6
-0.664, 2.081e-6
-0.665, 2.094e-6
-0.666, 2.109e-6
-0.667, 2.121e-6
-0.668, 2.136e-6
-0.669, 2.150e-6
-0.670, 2.162e-6
-0.671, 2.176e-6
-0.672, 2.189e-6
-0.673, 2.204e-6
-0.674, 2.218e-6
-0.675, 2.232e-6
-0.676, 2.245e-6
-0.677, 2.259e-6
-0.678, 2.275e-6
-0.679, 2.290e-6
-0.680, 2.305e-6
-0.681, 2.319e-6
-0.682, 2.335e-6
-0.683, 2.351e-6
-0.684, 2.367e-6
-0.685, 2.383e-6
-0.686, 2.400e-6
-0.687, 2.414e-6
-0.688, 2.432e-6
-0.689, 2.449e-6
-0.690, 2.462e-6
-0.691, 2.479e-6
-0.692, 2.494e-6
-0.693, 2.511e-6
-0.694, 2.530e-6
-0.695, 2.547e-6
-0.696, 2.563e-6
-0.697, 2.581e-6
-0.698, 2.599e-6
-0.699, 2.619e-6
-0.700, 2.635e-6
-0.701, 2.654e-6
-0.702, 2.672e-6
-0.703, 2.689e-6
-0.704, 2.709e-6
-0.705, 2.726e-6
-0.706, 2.745e-6
-0.707, 2.764e-6
-0.708, 2.783e-6
-0.709, 2.802e-6
-0.710, 2.821e-6
-0.711, 2.840e-6
-0.712, 2.860e-6
-0.713, 2.881e-6
-0.714, 2.900e-6
-0.715, 2.919e-6
-0.716, 2.940e-6
-0.717, 2.960e-6
-0.718, 2.982e-6
-0.719, 3.002e-6
-0.720, 3.022e-6
-0.721, 3.042e-6
-0.722, 3.063e-6
-0.723, 3.085e-6
-0.724, 3.107e-6
-0.725, 3.127e-6
-0.726, 3.149e-6
-0.727, 3.171e-6
-0.728, 3.194e-6
-0.729, 3.217e-6
-0.730, 3.238e-6
-0.731, 3.259e-6
-0.732, 3.281e-6
-0.733, 3.303e-6
-0.734, 3.328e-6
-0.735, 3.350e-6
-0.736, 3.373e-6
-0.737, 3.397e-6
-0.738, 3.420e-6
-0.739, 3.444e-6
-0.740, 3.467e-6
-0.741, 3.491e-6
-0.742, 3.514e-6
-0.743, 3.538e-6
-0.744, 3.562e-6
-0.745, 3.585e-6
-0.746, 3.610e-6
-0.747, 3.635e-6
-0.748, 3.660e-6
-0.749, 3.686e-6
-0.750, 3.709e-6
-0.751, 3.734e-6
-0.752, 3.758e-6
-0.753, 3.784e-6
-0.754, 3.810e-6
-0.755, 3.835e-6
-0.756, 3.863e-6
-0.757, 3.888e-6
-0.758, 3.913e-6
-0.759, 3.940e-6
-0.760, 3.963e-6
-0.761, 3.989e-6
-0.762, 4.016e-6
-0.763, 4.042e-6
-0.764, 4.068e-6
-0.765, 4.094e-6
-0.766, 4.120e-6
-0.767, 4.146e-6
-0.768, 4.173e-6
-0.769, 4.201e-6
-0.770, 4.224e-6
-0.771, 4.251e-6
-0.772, 4.278e-6
-0.773, 4.305e-6
-0.774, 4.332e-6
-0.775, 4.358e-6
-0.776, 4.385e-6
-0.777, 4.413e-6
-0.778, 4.441e-6
-0.779, 4.470e-6
-0.780, 4.496e-6
-0.781, 4.526e-6
-0.782, 4.554e-6
-0.783, 4.582e-6
-0.784, 4.610e-6
-0.785, 4.637e-6
-0.786, 4.665e-6
-0.787, 4.693e-6
-0.788, 4.721e-6
-0.789, 4.749e-6
-0.790, 4.777e-6
-0.791, 4.805e-6
-0.792, 4.834e-6
-0.793, 4.861e-6
-0.794, 4.890e-6
-0.795, 4.917e-6
-0.796, 4.945e-6
-0.797, 4.973e-6
-0.798, 5.002e-6
-0.799, 5.031e-6
-0.800, 5.059e-6
-0.801, 5.089e-6
-0.802, 5.116e-6
-0.803, 5.144e-6
-0.804, 5.173e-6
-0.805, 5.200e-6
-0.806, 5.230e-6
-0.807, 5.258e-6
-0.808, 5.286e-6
-0.809, 5.315e-6
-0.810, 5.343e-6
-0.811, 5.370e-6
-0.812, 5.398e-6
-0.813, 5.426e-6
-0.814, 5.454e-6
-0.815, 5.482e-6
-0.816, 5.511e-6
-0.817, 5.537e-6
-0.818, 5.566e-6
-0.819, 5.598e-6
-0.820, 5.626e-6
-0.821, 5.653e-6
-0.822, 5.679e-6
-0.823, 5.706e-6
-0.824, 5.735e-6
-0.825, 5.761e-6
-0.826, 5.790e-6
-0.827, 5.816e-6
-0.828, 5.844e-6
-0.829, 5.871e-6
-0.830, 5.895e-6
-0.831, 5.919e-6
-0.832, 5.944e-6
-0.833, 5.970e-6
-0.834, 5.998e-6
-0.835, 6.022e-6
-0.836, 6.049e-6
-0.837, 6.075e-6
-0.838, 6.102e-6
-0.839, 6.127e-6
-0.840, 6.150e-6
-0.841, 6.175e-6
-0.842, 6.198e-6
-0.843, 6.222e-6
-0.844, 6.246e-6
-0.845, 6.269e-6
-0.846, 6.294e-6
-0.847, 6.317e-6
-0.848, 6.343e-6
-0.849, 6.366e-6
-0.850, 6.388e-6
-0.851, 6.413e-6
-0.852, 6.436e-6
-0.853, 6.457e-6
-0.854, 6.480e-6
-0.855, 6.502e-6
-0.856, 6.524e-6
-0.857, 6.546e-6
-0.858, 6.569e-6
-0.859, 6.591e-6
-0.860, 6.610e-6
-0.861, 6.631e-6
-0.862, 6.651e-6
-0.863, 6.672e-6
-0.864, 6.692e-6
-0.865, 6.711e-6
-0.866, 6.729e-6
-0.867, 6.749e-6
-0.868, 6.768e-6
-0.869, 6.788e-6
-0.870, 6.806e-6
-0.871, 6.825e-6
-0.872, 6.842e-6
-0.873, 6.861e-6
-0.874, 6.877e-6
-0.875, 6.892e-6
-0.876, 6.909e-6
-0.877, 6.923e-6
-0.878, 6.941e-6
-0.879, 6.956e-6
-0.880, 6.970e-6
-0.881, 6.986e-6
-0.882, 6.999e-6
-0.883, 7.014e-6
-0.884, 7.029e-6
-0.885, 7.041e-6
-0.886, 7.055e-6
-0.887, 7.067e-6
-0.888, 7.079e-6
-0.889, 7.093e-6
-0.890, 7.104e-6
-0.891, 7.116e-6
-0.892, 7.127e-6
-0.893, 7.138e-6
-0.894, 7.149e-6
-0.895, 7.159e-6
-0.896, 7.169e-6
-0.897, 7.178e-6
-0.898, 7.188e-6
-0.899, 7.198e-6
-0.900, 7.206e-6
-0.901, 7.214e-6
-0.902, 7.221e-6
-0.903, 7.229e-6
-0.904, 7.237e-6
-0.905, 7.242e-6
-0.906, 7.249e-6
-0.907, 7.255e-6
-0.908, 7.261e-6
-0.909, 7.268e-6
-0.910, 7.272e-6
-0.911, 7.278e-6
-0.912, 7.282e-6
-0.913, 7.287e-6
-0.914, 7.292e-6
-0.915, 7.294e-6
-0.916, 7.298e-6
-0.917, 7.300e-6
-0.918, 7.305e-6
-0.919, 7.308e-6
-0.920, 7.309e-6
-0.921, 7.311e-6
-0.922, 7.313e-6
-0.923, 7.315e-6
-0.924, 7.317e-6
-0.925, 7.317e-6
-0.926, 7.318e-6
-0.927, 7.318e-6
-0.928, 7.319e-6
-0.929, 7.319e-6
-0.930, 7.317e-6
-0.931, 7.319e-6
-0.932, 7.317e-6
-0.933, 7.316e-6
-0.934, 7.315e-6
-0.935, 7.314e-6
-0.936, 7.312e-6
-0.937, 7.311e-6
-0.938, 7.309e-6
-0.939, 7.307e-6
-0.940, 7.303e-6
-0.941, 7.301e-6
-0.942, 7.298e-6
-0.943, 7.294e-6
-0.944, 7.293e-6
-0.945, 7.288e-6
-0.946, 7.284e-6
-0.947, 7.281e-6
-0.948, 7.279e-6
-0.949, 7.275e-6
-0.950, 7.271e-6
-0.951, 7.267e-6
-0.952, 7.261e-6
-0.953, 7.257e-6
-0.954, 7.254e-6
-0.955, 7.248e-6
-0.956, 7.243e-6
-0.957, 7.238e-6
-0.958, 7.234e-6
-0.959, 7.228e-6
-0.960, 7.224e-6
-0.961, 7.219e-6
-0.962, 7.211e-6
-0.963, 7.208e-6
-0.964, 7.203e-6
-0.965, 7.196e-6
-0.966, 7.189e-6
-0.967, 7.183e-6
-0.968, 7.178e-6
-0.969, 7.172e-6
-0.970, 7.165e-6
-0.971, 7.158e-6
-0.972, 7.153e-6
-0.973, 7.148e-6
-0.974, 7.143e-6
-0.975, 7.135e-6
-0.976, 7.129e-6
-0.977, 7.123e-6
-0.978, 7.116e-6
-0.979, 7.111e-6
-0.980, 7.104e-6
-0.981, 7.098e-6
-0.982, 7.091e-6
-0.983, 7.085e-6
-0.984, 7.079e-6
-0.985, 7.072e-6
-0.986, 7.067e-6
-0.987, 7.060e-6
-0.988, 7.055e-6
-0.989, 7.047e-6
-0.990, 7.041e-6
-0.991, 7.035e-6
-0.992, 7.029e-6
-0.993, 7.023e-6
-0.994, 7.018e-6
-0.995, 7.011e-6
-0.996, 7.005e-6
-0.997, 6.999e-6
-0.998, 6.995e-6
-0.999, 6.990e-6
-1.000, 6.984e-6
-1.001, 6.978e-6
-1.002, 6.973e-6
-1.003, 6.967e-6
-1.004, 6.963e-6
-1.005, 6.956e-6
-1.006, 6.952e-6
-1.007, 6.946e-6
-1.008, 6.942e-6
-1.009, 6.937e-6
-1.010, 6.930e-6
-1.011, 6.927e-6
-1.012, 6.923e-6
-1.013, 6.918e-6
-1.014, 6.913e-6
-1.015, 6.908e-6
-1.016, 6.904e-6
-1.017, 6.901e-6
-1.018, 6.897e-6
-1.019, 6.893e-6
-1.020, 6.888e-6
-1.021, 6.885e-6
-1.022, 6.882e-6
-1.023, 6.878e-6
-1.024, 6.877e-6
-1.025, 6.872e-6
-1.026, 6.870e-6
-1.027, 6.865e-6
-1.028, 6.864e-6
-1.029, 6.862e-6
-1.030, 6.858e-6
-1.031, 6.856e-6
-1.032, 6.853e-6
-1.033, 6.851e-6
-1.034, 6.849e-6
-1.035, 6.846e-6
-1.036, 6.844e-6
-1.037, 6.842e-6
-1.038, 6.841e-6
-1.039, 6.839e-6
-1.040, 6.837e-6
-1.041, 6.836e-6
-1.042, 6.834e-6
-1.043, 6.834e-6
-1.044, 6.834e-6
-1.045, 6.831e-6
-1.046, 6.832e-6
-1.047, 6.830e-6
-1.048, 6.831e-6
-1.049, 6.830e-6
-1.050, 6.829e-6
-1.051, 6.829e-6
-1.052, 6.831e-6
-1.053, 6.831e-6
-1.054, 6.832e-6
-1.055, 6.831e-6
-1.056, 6.833e-6
-1.057, 6.832e-6
-1.058, 6.834e-6
-1.059, 6.835e-6
-1.060, 6.836e-6
-1.061, 6.836e-6
-1.062, 6.839e-6
-1.063, 6.841e-6
-1.064, 6.843e-6
-1.065, 6.844e-6
-1.066, 6.846e-6
-1.067, 6.847e-6
-1.068, 6.850e-6
-1.069, 6.853e-6
-1.070, 6.854e-6
-1.071, 6.857e-6
-1.072, 6.860e-6
-1.073, 6.864e-6
-1.074, 6.866e-6
-1.075, 6.870e-6
-1.076, 6.874e-6
-1.077, 6.877e-6
-1.078, 6.881e-6
-1.079, 6.885e-6
-1.080, 6.887e-6
-1.081, 6.891e-6
-1.082, 6.894e-6
-1.083, 6.900e-6
-1.084, 6.904e-6
-1.085, 6.908e-6
-1.086, 6.913e-6
-1.087, 6.916e-6
-1.088, 6.923e-6
-1.089, 6.928e-6
-1.090, 6.932e-6
-1.091, 6.937e-6
-1.092, 6.943e-6
-1.093, 6.948e-6
-1.094, 6.955e-6
-1.095, 6.960e-6
-1.096, 6.965e-6
-1.097, 6.971e-6
-1.098, 6.978e-6
-1.099, 6.984e-6
-1.100, 6.990e-6
-1.101, 6.996e-6
-1.102, 7.002e-6
-1.103, 7.009e-6
-1.104, 7.016e-6
-1.105, 7.022e-6
-1.106, 7.029e-6
-1.107, 7.035e-6
-1.108, 7.043e-6
-1.109, 7.050e-6
-1.110, 7.057e-6
-1.111, 7.064e-6
-1.112, 7.071e-6
-1.113, 7.081e-6
-1.114, 7.087e-6
-1.115, 7.095e-6
-1.116, 7.103e-6
-1.117, 7.110e-6
-1.118, 7.120e-6
-1.119, 7.127e-6
-1.120, 7.133e-6
-1.121, 7.143e-6
-1.122, 7.151e-6
-1.123, 7.159e-6
-1.124, 7.168e-6
-1.125, 7.176e-6
-1.126, 7.185e-6
-1.127, 7.194e-6
-1.128, 7.203e-6
-1.129, 7.212e-6
-1.130, 7.219e-6
-1.131, 7.229e-6
-1.132, 7.236e-6
-1.133, 7.246e-6
-1.134, 7.254e-6
-1.135, 7.262e-6
-1.136, 7.271e-6
-1.137, 7.280e-6
-1.138, 7.289e-6
-1.139, 7.298e-6
-1.140, 7.306e-6
-1.141, 7.315e-6
-1.142, 7.325e-6
-1.143, 7.335e-6
-1.144, 7.342e-6
-1.145, 7.351e-6
-1.146, 7.360e-6
-1.147, 7.368e-6
-1.148, 7.379e-6
-1.149, 7.387e-6
-1.150, 7.395e-6
-1.151, 7.404e-6
-1.152, 7.413e-6
-1.153, 7.423e-6
-1.154, 7.432e-6
-1.155, 7.440e-6
-1.156, 7.450e-6
-1.157, 7.458e-6
-1.158, 7.469e-6
-1.159, 7.477e-6
-1.160, 7.484e-6
-1.161, 7.494e-6
-1.162, 7.502e-6
-1.163, 7.511e-6
-1.164, 7.519e-6
-1.165, 7.527e-6
-1.166, 7.535e-6
-1.167, 7.542e-6
-1.168, 7.551e-6
-1.169, 7.559e-6
-1.170, 7.565e-6
-1.171, 7.574e-6
-1.172, 7.581e-6
-1.173, 7.590e-6
-1.174, 7.596e-6
-1.175, 7.602e-6
-1.176, 7.609e-6
-1.177, 7.616e-6
-1.178, 7.626e-6
-1.179, 7.631e-6
-1.180, 7.637e-6
-1.181, 7.643e-6
-1.182, 7.649e-6
-1.183, 7.655e-6
-1.184, 7.661e-6
-1.185, 7.665e-6
-1.186, 7.670e-6
-1.187, 7.676e-6
-1.188, 7.680e-6
-1.189, 7.684e-6
-1.190, 7.689e-6
-1.191, 7.695e-6
-1.192, 7.697e-6
-1.193, 7.702e-6
-1.194, 7.704e-6
-1.195, 7.708e-6
-1.196, 7.711e-6
-1.197, 7.713e-6
-1.198, 7.717e-6
-1.199, 7.719e-6
-1.200, 7.721e-6
-1.201, 7.722e-6
-1.202, 7.724e-6
-1.203, 7.726e-6
-1.204, 7.727e-6
-1.205, 7.726e-6
-1.206, 7.728e-6
-1.207, 7.727e-6
-1.208, 7.727e-6
-1.209, 7.728e-6
-1.210, 7.726e-6
-1.211, 7.725e-6
-1.212, 7.724e-6
-1.213, 7.724e-6
-1.214, 7.722e-6
-1.215, 7.719e-6
-1.216, 7.719e-6
-1.217, 7.716e-6
-1.218, 7.714e-6
-1.219, 7.711e-6
-1.220, 7.708e-6
-1.221, 7.705e-6
-1.222, 7.702e-6
-1.223, 7.699e-6
-1.224, 7.696e-6
-1.225, 7.691e-6
-1.226, 7.687e-6
-1.227, 7.683e-6
-1.228, 7.679e-6
-1.229, 7.677e-6
-1.230, 7.672e-6
-1.231, 7.667e-6
-1.232, 7.661e-6
-1.233, 7.658e-6
-1.234, 7.652e-6
-1.235, 7.646e-6
-1.236, 7.642e-6
-1.237, 7.636e-6
-1.238, 7.633e-6
-1.239, 7.627e-6
-1.240, 7.621e-6
-1.241, 7.616e-6
-1.242, 7.611e-6
-1.243, 7.607e-6
-1.244, 7.602e-6
-1.245, 7.595e-6
-1.246, 7.590e-6
-1.247, 7.584e-6
-1.248, 7.581e-6
-1.249, 7.576e-6
-1.250, 7.571e-6
-1.251, 7.566e-6
-1.252, 7.562e-6
-1.253, 7.558e-6
-1.254, 7.554e-6
-1.255, 7.550e-6
-1.256, 7.547e-6
-1.257, 7.542e-6
-1.258, 7.540e-6
-1.259, 7.536e-6
-1.260, 7.534e-6
-1.261, 7.531e-6
-1.262, 7.528e-6
-1.263, 7.527e-6
-1.264, 7.524e-6
-1.265, 7.521e-6
-1.266, 7.522e-6
-1.267, 7.521e-6
-1.268, 7.522e-6
-1.269, 7.521e-6
-1.270, 7.521e-6
-1.271, 7.522e-6
-1.272, 7.522e-6
-1.273, 7.526e-6
-1.274, 7.526e-6
-1.275, 7.527e-6
-1.276, 7.529e-6
-1.277, 7.532e-6
-1.278, 7.537e-6
-1.279, 7.540e-6
-1.280, 7.544e-6
-1.281, 7.549e-6
-1.282, 7.554e-6
-1.283, 7.560e-6
-1.284, 7.566e-6
-1.285, 7.572e-6
-1.286, 7.580e-6
-1.287, 7.587e-6
-1.288, 7.596e-6
-1.289, 7.604e-6
-1.290, 7.611e-6
-1.291, 7.621e-6
-1.292, 7.631e-6
-1.293, 7.641e-6
-1.294, 7.652e-6
-1.295, 7.662e-6
-1.296, 7.675e-6
-1.297, 7.687e-6
-1.298, 7.701e-6
-1.299, 7.715e-6
-1.300, 7.728e-6
-1.301, 7.742e-6
-1.302, 7.757e-6
-1.303, 7.771e-6
-1.304, 7.786e-6
-1.305, 7.802e-6
-1.306, 7.819e-6
-1.307, 7.836e-6
-1.308, 7.855e-6
-1.309, 7.872e-6
-1.310, 7.890e-6
-1.311, 7.909e-6
-1.312, 7.929e-6
-1.313, 7.949e-6
-1.314, 7.970e-6
-1.315, 7.989e-6
-1.316, 8.012e-6
-1.317, 8.032e-6
-1.318, 8.055e-6
-1.319, 8.078e-6
-1.320, 8.100e-6
-1.321, 8.123e-6
-1.322, 8.147e-6
-1.323, 8.172e-6
-1.324, 8.198e-6
-1.325, 8.224e-6
-1.326, 8.251e-6
-1.327, 8.277e-6
-1.328, 8.304e-6
-1.329, 8.330e-6
-1.330, 8.356e-6
-1.331, 8.383e-6
-1.332, 8.410e-6
-1.333, 8.437e-6
-1.334, 8.466e-6
-1.335, 8.494e-6
-1.336, 8.524e-6
-1.337, 8.553e-6
-1.338, 8.581e-6
-1.339, 8.609e-6
-1.340, 8.637e-6
-1.341, 8.666e-6
-1.342, 8.697e-6
-1.343, 8.729e-6
-1.344, 8.760e-6
-1.345, 8.789e-6
-1.346, 8.820e-6
-1.347, 8.850e-6
-1.348, 8.880e-6
-1.349, 8.910e-6
-1.350, 8.942e-6
-1.351, 8.972e-6
-1.352, 9.004e-6
-1.353, 9.037e-6
-1.354, 9.068e-6
-1.355, 9.098e-6
-1.356, 9.129e-6
-1.357, 9.159e-6
-1.358, 9.192e-6
-1.359, 9.224e-6
-1.360, 9.256e-6
-1.361, 9.287e-6
-1.362, 9.318e-6
-1.363, 9.349e-6
-1.364, 9.378e-6
-1.365, 9.407e-6
-1.366, 9.438e-6
-1.367, 9.469e-6
-1.368, 9.500e-6
-1.369, 9.531e-6
-1.370, 9.561e-6
-1.371, 9.592e-6
-1.372, 9.621e-6
-1.373, 9.651e-6
-1.374, 9.679e-6
-1.375, 9.708e-6
-1.376, 9.739e-6
-1.377, 9.769e-6
-1.378, 9.797e-6
-1.379, 9.827e-6
-1.380, 9.855e-6
-1.381, 9.883e-6
-1.382, 9.912e-6
-1.383, 9.942e-6
-1.384, 9.968e-6
-1.385, 9.994e-6
-1.386, 1.002e-5
-1.387, 1.005e-5
-1.388, 1.008e-5
-1.389, 1.010e-5
-1.390, 1.013e-5
-1.391, 1.015e-5
-1.392, 1.018e-5
-1.393, 1.020e-5
-1.394, 1.023e-5
-1.395, 1.025e-5
-1.396, 1.028e-5
-1.397, 1.030e-5
-1.398, 1.033e-5
-1.399, 1.035e-5
-1.400, 1.037e-5
-1.401, 1.039e-5
-1.402, 1.042e-5
-1.403, 1.044e-5
-1.404, 1.047e-5
-1.405, 1.049e-5
-1.406, 1.051e-5
-1.407, 1.053e-5
-1.408, 1.056e-5
-1.409, 1.058e-5
-1.410, 1.060e-5
-1.411, 1.062e-5
-1.412, 1.064e-5
-1.413, 1.066e-5
-1.414, 1.068e-5
-1.415, 1.070e-5
-1.416, 1.072e-5
-1.417, 1.074e-5
-1.418, 1.076e-5
-1.419, 1.078e-5
-1.420, 1.080e-5
-1.421, 1.082e-5
-1.422, 1.083e-5
-1.423, 1.085e-5
-1.424, 1.087e-5
-1.425, 1.089e-5
-1.426, 1.090e-5
-1.427, 1.092e-5
-1.428, 1.094e-5
-1.429, 1.096e-5
-1.430, 1.097e-5
-1.431, 1.099e-5
-1.432, 1.100e-5
-1.433, 1.102e-5
-1.434, 1.103e-5
-1.435, 1.105e-5
-1.436, 1.106e-5
-1.437, 1.108e-5
-1.438, 1.109e-5
-1.439, 1.110e-5
-1.440, 1.112e-5
-1.441, 1.113e-5
-1.442, 1.115e-5
-1.443, 1.116e-5
-1.444, 1.118e-5
-1.445, 1.119e-5
-1.446, 1.120e-5
-1.447, 1.121e-5
-1.448, 1.123e-5
-1.449, 1.124e-5
-1.450, 1.125e-5
-1.451, 1.126e-5
-1.452, 1.127e-5
-1.453, 1.129e-5
-1.454, 1.130e-5
-1.455, 1.131e-5
-1.456, 1.132e-5
-1.457, 1.133e-5
-1.458, 1.134e-5
-1.459, 1.135e-5
-1.460, 1.136e-5
-1.461, 1.137e-5
-1.462, 1.138e-5
-1.463, 1.140e-5
-1.464, 1.140e-5
-1.465, 1.141e-5
-1.466, 1.142e-5
-1.467, 1.143e-5
-1.468, 1.144e-5
-1.469, 1.145e-5
-1.470, 1.146e-5
-1.471, 1.147e-5
-1.472, 1.148e-5
-1.473, 1.149e-5
-1.474, 1.150e-5
-1.475, 1.151e-5
-1.476, 1.152e-5
-1.477, 1.153e-5
-1.478, 1.154e-5
-1.479, 1.154e-5
-1.480, 1.155e-5
-1.481, 1.156e-5
-1.482, 1.157e-5
-1.483, 1.158e-5
-1.484, 1.158e-5
-1.485, 1.159e-5
-1.486, 1.160e-5
-1.487, 1.161e-5
-1.488, 1.162e-5
-1.489, 1.163e-5
-1.490, 1.163e-5
-1.491, 1.164e-5
-1.492, 1.165e-5
-1.493, 1.166e-5
-1.494, 1.167e-5
-1.495, 1.167e-5
-1.496, 1.168e-5
-1.497, 1.169e-5
-1.498, 1.170e-5
-1.499, 1.171e-5
-1.500, 1.172e-5
-1.501, 1.172e-5
-1.502, 1.173e-5
-1.503, 1.174e-5
-1.504, 1.175e-5
-1.505, 1.176e-5
-1.506, 1.177e-5
-1.507, 1.177e-5
-1.508, 1.179e-5
-1.509, 1.179e-5
-1.510, 1.180e-5
-1.511, 1.181e-5
-1.512, 1.182e-5
-1.513, 1.183e-5
-1.514, 1.184e-5
-1.515, 1.185e-5
-1.516, 1.186e-5
-1.517, 1.187e-5
-1.518, 1.187e-5
-1.519, 1.188e-5
-1.520, 1.189e-5
-1.521, 1.191e-5
-1.522, 1.192e-5
-1.523, 1.193e-5
-1.524, 1.194e-5
-1.525, 1.195e-5
-1.526, 1.196e-5
-1.527, 1.197e-5
-1.528, 1.198e-5
-1.529, 1.199e-5
-1.530, 1.200e-5
-1.531, 1.201e-5
-1.532, 1.202e-5
-1.533, 1.203e-5
-1.534, 1.204e-5
-1.535, 1.205e-5
-1.536, 1.207e-5
-1.537, 1.208e-5
-1.538, 1.209e-5
-1.539, 1.210e-5
-1.540, 1.211e-5
-1.541, 1.213e-5
-1.542, 1.214e-5
-1.543, 1.216e-5
-1.544, 1.217e-5
-1.545, 1.218e-5
-1.546, 1.220e-5
-1.547, 1.221e-5
-1.548, 1.223e-5
-1.549, 1.225e-5
-1.550, 1.226e-5
-1.551, 1.228e-5
-1.552, 1.230e-5
-1.553, 1.232e-5
-1.554, 1.233e-5
-1.555, 1.235e-5
-1.556, 1.237e-5
-1.557, 1.239e-5
-1.558, 1.241e-5
-1.559, 1.243e-5
-1.560, 1.245e-5
-1.561, 1.247e-5
-1.562, 1.249e-5
-1.563, 1.251e-5
-1.564, 1.253e-5
-1.565, 1.255e-5
-1.566, 1.257e-5
-1.567, 1.260e-5
-1.568, 1.262e-5
-1.569, 1.264e-5
-1.570, 1.266e-5
-1.571, 1.269e-5
-1.572, 1.271e-5
-1.573, 1.274e-5
-1.574, 1.276e-5
-1.575, 1.279e-5
-1.576, 1.281e-5
-1.577, 1.284e-5
-1.578, 1.287e-5
-1.579, 1.289e-5
-1.580, 1.292e-5
-1.581, 1.295e-5
-1.582, 1.298e-5
-1.583, 1.301e-5
-1.584, 1.304e-5
-1.585, 1.306e-5
-1.586, 1.310e-5
-1.587, 1.313e-5
-1.588, 1.316e-5
-1.589, 1.319e-5
-1.590, 1.322e-5
-1.591, 1.325e-5
-1.592, 1.329e-5
-1.593, 1.333e-5
-1.594, 1.336e-5
-1.595, 1.339e-5
-1.596, 1.343e-5
-1.597, 1.347e-5
-1.598, 1.350e-5
-1.599, 1.354e-5
-1.600, 1.358e-5
-1.601, 1.362e-5
-1.602, 1.366e-5
-1.603, 1.370e-5
-1.604, 1.374e-5
-1.605, 1.378e-5
-1.606, 1.382e-5
-1.607, 1.386e-5
-1.608, 1.391e-5
-1.609, 1.395e-5
-1.610, 1.399e-5
-1.611, 1.403e-5
-1.612, 1.408e-5
-1.613, 1.412e-5
-1.614, 1.417e-5
-1.615, 1.421e-5
-1.616, 1.426e-5
-1.617, 1.431e-5
-1.618, 1.436e-5
-1.619, 1.441e-5
-1.620, 1.446e-5
-1.621, 1.451e-5
-1.622, 1.456e-5
-1.623, 1.461e-5
-1.624, 1.467e-5
-1.625, 1.472e-5
-1.626, 1.477e-5
-1.627, 1.482e-5
-1.628, 1.488e-5
-1.629, 1.494e-5
-1.630, 1.499e-5
-1.631, 1.505e-5
-1.632, 1.511e-5
-1.633, 1.517e-5
-1.634, 1.523e-5
-1.635, 1.529e-5
-1.636, 1.535e-5
-1.637, 1.541e-5
-1.638, 1.548e-5
-1.639, 1.554e-5
-1.640, 1.560e-5
-1.641, 1.567e-5
-1.642, 1.574e-5
-1.643, 1.580e-5
-1.644, 1.587e-5
-1.645, 1.594e-5
-1.646, 1.601e-5
-1.647, 1.608e-5
-1.648, 1.615e-5
-1.649, 1.622e-5
-1.650, 1.629e-5
-1.651, 1.637e-5
-1.652, 1.644e-5
-1.653, 1.652e-5
-1.654, 1.659e-5
-1.655, 1.666e-5
-1.656, 1.674e-5
-1.657, 1.682e-5
-1.658, 1.689e-5
-1.659, 1.697e-5
-1.660, 1.705e-5
-1.661, 1.713e-5
-1.662, 1.721e-5
-1.663, 1.730e-5
-1.664, 1.738e-5
-1.665, 1.746e-5
-1.666, 1.755e-5
-1.667, 1.763e-5
-1.668, 1.772e-5
-1.669, 1.781e-5
-1.670, 1.789e-5
-1.671, 1.798e-5
-1.672, 1.807e-5
-1.673, 1.816e-5
-1.674, 1.825e-5
-1.675, 1.834e-5
-1.676, 1.843e-5
-1.677, 1.852e-5
-1.678, 1.862e-5
-1.679, 1.871e-5
-1.680, 1.881e-5
-1.681, 1.891e-5
-1.682, 1.900e-5
-1.683, 1.911e-5
-1.684, 1.921e-5
-1.685, 1.931e-5
-1.686, 1.941e-5
-1.687, 1.951e-5
-1.688, 1.962e-5
-1.689, 1.972e-5
-1.690, 1.983e-5
-1.691, 1.993e-5
-1.692, 2.004e-5
-1.693, 2.014e-5
-1.694, 2.025e-5
-1.695, 2.036e-5
-1.696, 2.048e-5
-1.697, 2.059e-5
-1.698, 2.070e-5
-1.699, 2.081e-5
-1.700, 2.093e-5
-1.701, 2.104e-5
-1.702, 2.116e-5
-1.703, 2.128e-5
-1.704, 2.140e-5
-1.705, 2.152e-5
-1.706, 2.164e-5
-1.707, 2.177e-5
-1.708, 2.189e-5
-1.709, 2.201e-5
-1.710, 2.214e-5
-1.711, 2.226e-5
-1.712, 2.239e-5
-1.713, 2.252e-5
-1.714, 2.265e-5
-1.715, 2.278e-5
-1.716, 2.292e-5
-1.717, 2.305e-5
-1.718, 2.318e-5
-1.719, 2.332e-5
-1.720, 2.346e-5
-1.721, 2.360e-5
-1.722, 2.374e-5
-1.723, 2.388e-5
-1.724, 2.403e-5
-1.725, 2.417e-5
-1.726, 2.432e-5
-1.727, 2.446e-5
-1.728, 2.462e-5
-1.729, 2.477e-5
-1.730, 2.492e-5
-1.731, 2.507e-5
-1.732, 2.523e-5
-1.733, 2.538e-5
-1.734, 2.553e-5
-1.735, 2.569e-5
-1.736, 2.585e-5
-1.737, 2.601e-5
-1.738, 2.617e-5
-1.739, 2.633e-5
-1.740, 2.650e-5
-1.741, 2.667e-5
-1.742, 2.684e-5
-1.743, 2.702e-5
-1.744, 2.719e-5
-1.745, 2.736e-5
-1.746, 2.753e-5
-1.747, 2.771e-5
-1.748, 2.788e-5
-1.749, 2.806e-5
-1.750, 2.824e-5
-1.751, 2.843e-5
-1.752, 2.862e-5
-1.753, 2.880e-5
-1.754, 2.899e-5
-1.755, 2.918e-5
-1.756, 2.938e-5
-1.757, 2.957e-5
-1.758, 2.977e-5
-1.759, 2.996e-5
-1.760, 3.016e-5
-1.761, 3.037e-5
-1.762, 3.057e-5
-1.763, 3.078e-5
-1.764, 3.099e-5
-1.765, 3.120e-5
-1.766, 3.141e-5
-1.767, 3.163e-5
-1.768, 3.185e-5
-1.769, 3.207e-5
-1.770, 3.229e-5
-1.771, 3.252e-5
-1.772, 3.274e-5
-1.773, 3.297e-5
-1.774, 3.320e-5
-1.775, 3.344e-5
-1.776, 3.368e-5
-1.777, 3.391e-5
-1.778, 3.416e-5
-1.779, 3.439e-5
-1.780, 3.464e-5
-1.781, 3.489e-5
-1.782, 3.514e-5
-1.783, 3.539e-5
-1.784, 3.565e-5
-1.785, 3.590e-5
-1.786, 3.616e-5
-1.787, 3.642e-5
-1.788, 3.669e-5
-1.789, 3.696e-5
-1.790, 3.723e-5
-1.791, 3.750e-5
-1.792, 3.778e-5
-1.793, 3.806e-5
-1.794, 3.835e-5
-1.795, 3.863e-5
-1.796, 3.892e-5
-1.797, 3.921e-5
-1.798, 3.951e-5
-1.799, 3.980e-5
-1.800, 4.011e-5
-1.801, 4.041e-5
-1.802, 4.072e-5
-1.803, 4.103e-5
-1.804, 4.134e-5
-1.805, 4.166e-5
-1.806, 4.197e-5
-1.807, 4.230e-5
-1.808, 4.262e-5
-1.809, 4.294e-5
-1.810, 4.328e-5
-1.811, 4.360e-5
-1.812, 4.393e-5
-1.813, 4.427e-5
-1.814, 4.462e-5
-1.815, 4.496e-5
-1.816, 4.531e-5
-1.817, 4.566e-5
-1.818, 4.602e-5
-1.819, 4.638e-5
-1.820, 4.673e-5
-1.821, 4.710e-5
-1.822, 4.746e-5
-1.823, 4.785e-5
-1.824, 4.822e-5
-1.825, 4.860e-5
-1.826, 4.899e-5
-1.827, 4.938e-5
-1.828, 4.976e-5
-1.829, 5.015e-5
-1.830, 5.055e-5
-1.831, 5.094e-5
-1.832, 5.135e-5
-1.833, 5.175e-5
-1.834, 5.216e-5
-1.835, 5.258e-5
-1.836, 5.300e-5
-1.837, 5.342e-5
-1.838, 5.384e-5
-1.839, 5.426e-5
-1.840, 5.470e-5
-1.841, 5.513e-5
-1.842, 5.557e-5
-1.843, 5.602e-5
-1.844, 5.646e-5
-1.845, 5.691e-5
-1.846, 5.736e-5
-1.847, 5.781e-5
-1.848, 5.827e-5
-1.849, 5.874e-5
-1.850, 5.921e-5
-1.851, 5.967e-5
-1.852, 6.013e-5
-1.853, 6.060e-5
-1.854, 6.108e-5
-1.855, 6.156e-5
-1.856, 6.205e-5
-1.857, 6.255e-5
-1.858, 6.305e-5
-1.859, 6.354e-5
-1.860, 6.404e-5
-1.861, 6.456e-5
-1.862, 6.506e-5
-1.863, 6.556e-5
-1.864, 6.606e-5
-1.865, 6.658e-5
-1.866, 6.710e-5
-1.867, 6.762e-5
-1.868, 6.816e-5
-1.869, 6.869e-5
-1.870, 6.922e-5
-1.871, 6.974e-5
-1.872, 7.028e-5
-1.873, 7.082e-5
-1.874, 7.137e-5
-1.875, 7.193e-5
-1.876, 7.247e-5
-1.877, 7.303e-5
-1.878, 7.359e-5
-1.879, 7.415e-5
-1.880, 7.471e-5
-1.881, 7.526e-5
-1.882, 7.582e-5
-1.883, 7.640e-5
-1.884, 7.697e-5
-1.885, 7.753e-5
-1.886, 7.811e-5
-1.887, 7.869e-5
-1.888, 7.927e-5
-1.889, 7.987e-5
-1.890, 8.045e-5
-1.891, 8.104e-5
-1.892, 8.164e-5
-1.893, 8.224e-5
-1.894, 8.285e-5
-1.895, 8.346e-5
-1.896, 8.405e-5
-1.897, 8.465e-5
-1.898, 8.525e-5
-1.899, 8.586e-5
