Potential V vs RHE, Current mA cm-2
0.013299999999999867,-0.5692798270656908
0.012299999999999978,-2.618630616050183
0.011299999999999866,-4.102662769608606
0.010299999999999976,-5.279702571096316
0.009299999999999864,-6.238876832404812
0.008299999999999974,-7.024041603829907
0.007299999999999862,-7.722908985963235
0.006299999999999972,-8.288793505909249
0.00529999999999986,-8.725939297567548
0.0042999999999999705,-9.11781432763016
0.0032999999999998586,-9.423391968401008
0.0022999999999999687,-9.772825659467674
0.0012999999999998568,-10.034547249942705
0.00029999999999996696,-10.25241279012192
-0.000700000000000145,-10.557990430892769
-0.0017000000000000348,-10.731999920776168
-0.0027000000000001467,-11.037577561547016
-0.0037000000000000366,-11.255443101726232
-0.0047000000000001485,-11.517164692201263
-0.005700000000000038,-11.73503023238048
-0.00670000000000015,-11.909039722263879
-0.00770000000000004,-12.084463923447142
-0.008700000000000152,-12.258473413330542
-0.009700000000000042,-12.346185513922174
-0.010700000000000154,-12.476338953509758
-0.011700000000000044,-12.607907104397206
-0.012700000000000156,-12.651763154693022
-0.013700000000000045,-12.781916594280606
-0.014700000000000157,-12.913484745168056
-0.015700000000000047,-12.99978213445982
-0.01670000000000016,-13.175206335643086
-0.01770000000000005,-13.30535977523067
-0.01870000000000016,-13.436927926118118
-0.01970000000000005,-13.567081365705702
-0.020700000000000163,-13.698649516593148
-0.021700000000000053,-13.784946905884919
-0.022700000000000164,-13.828802956180734
-0.023700000000000054,-13.872659006476551
-0.024700000000000166,-13.872659006476551
-0.025700000000000056,-13.916515056772363
-0.026700000000000168,-14.002812446064135
-0.027700000000000058,-14.090524546655764
-0.02870000000000017,-14.175407224647667
-0.02970000000000006,-14.26028990263957
-0.03070000000000017,-14.345172580631472
-0.03170000000000006,-14.444202371622024
-0.03270000000000017,-14.57152638860988
-0.03370000000000006,-14.65640906660178
-0.034700000000000175,-14.741291744593681
-0.035700000000000065,-14.741291744593681
-0.03670000000000018,-14.783733083589633
-0.03770000000000007,-14.783733083589633
-0.03870000000000018,-14.826174422585586
-0.03970000000000007,-14.783733083589633
-0.04070000000000018,-14.868615761581536
-0.04170000000000007,-14.868615761581536
-0.04270000000000018,-14.967645552572087
-0.04370000000000007,-15.094969569559943
-0.044700000000000184,-15.137410908555893
-0.045700000000000074,-15.222293586547794
-0.046700000000000186,-15.307176264539699
-0.047700000000000076,-15.3920589425316
-0.04870000000000019,-15.3920589425316
-0.04970000000000008,-15.448647394526201
-0.05070000000000019,-15.3920589425316
-0.05170000000000008,-15.3920589425316
-0.05270000000000019,-15.3920589425316
-0.05370000000000008,-15.448647394526201
-0.05470000000000019,-15.448647394526201
-0.05570000000000008,-15.533530072518102
-0.056700000000000195,-15.618412750510005
-0.057700000000000085,-15.70329542850191
-0.058700000000000196,-15.70329542850191
-0.059700000000000086,-15.830619445489761
-0.0607000000000002,-15.87306078448571
-0.06170000000000009,-15.972090575476265
-0.0627000000000002,-15.91550212348166
-0.06370000000000009,-15.91550212348166
-0.0647000000000002,-15.87306078448571
-0.06570000000000009,-15.91550212348166
-0.0667000000000002,-15.91550212348166
-0.0677000000000001,-15.972090575476265
-0.0687000000000002,-15.972090575476265
-0.0697000000000001,-16.014531914472215
-0.07070000000000021,-16.099414592464115
-0.0717000000000001,-16.184297270456018
-0.07270000000000021,-16.269179948447924
-0.0737000000000001,-16.311621287443874
-0.07470000000000021,-16.354062626439823
-0.0757000000000001,-16.354062626439823
-0.07670000000000021,-16.311621287443874
-0.0777000000000001,-16.311621287443874
-0.07870000000000021,-16.311621287443874
-0.0797000000000001,-16.311621287443874
-0.08070000000000022,-16.354062626439823
-0.0817000000000001,-16.354062626439823
-0.08270000000000022,-16.438945304431726
-0.08370000000000011,-16.495533756426326
-0.08470000000000022,-16.580416434418233
-0.08570000000000011,-16.665299112410132
-0.08670000000000022,-16.70774045140608
-0.08770000000000011,-16.750181790402035
-0.08870000000000022,-16.792623129397985
-0.08970000000000011,-16.750181790402035
-0.09070000000000022,-16.792623129397985
-0.09170000000000011,-16.750181790402035
-0.09270000000000023,-16.70774045140608
-0.09370000000000012,-16.750181790402035
-0.09470000000000023,-16.792623129397985
-0.09570000000000012,-16.835064468393938
-0.09670000000000023,-16.919947146385837
-0.09770000000000012,-17.018976937376394
-0.09870000000000023,-17.018976937376394
-0.09970000000000012,-17.103859615368293
-0.10070000000000023,-17.146300954364243
-0.10170000000000012,-17.188742293360193
-0.10270000000000024,-17.188742293360193
-0.10370000000000013,-17.188742293360193
-0.10470000000000024,-17.146300954364243
-0.10570000000000013,-17.146300954364243
-0.10670000000000024,-17.188742293360193
-0.10770000000000013,-17.188742293360193
-0.10870000000000024,-17.231183632356142
-0.10970000000000013,-17.2736249713521
-0.11070000000000024,-17.358507649344002
-0.11170000000000013,-17.40094898833995
-0.11270000000000002,-17.48583166633185
-0.11370000000000013,-17.584861457322408
-0.11470000000000002,-17.584861457322408
-0.11570000000000014,-17.627302796318357
-0.11670000000000003,-17.584861457322408
-0.11770000000000014,-17.584861457322408
-0.11870000000000003,-17.584861457322408
-0.11970000000000014,-17.584861457322408
-0.12070000000000003,-17.627302796318357
-0.12170000000000014,-17.627302796318357
-0.12270000000000003,-17.71218547431026
-0.12370000000000014,-17.797068152302163
-0.12470000000000003,-17.881950830294063
-0.12570000000000014,-17.924392169290012
-0.12670000000000003,-18.009274847281915
-0.12770000000000015,-18.06586329927652
-0.12870000000000004,-18.06586329927652
-0.12970000000000015,-18.10830463827247
-0.13070000000000004,-18.10830463827247
-0.13170000000000015,-18.06586329927652
-0.13270000000000004,-18.06586329927652
-0.13370000000000015,-18.10830463827247
-0.13470000000000004,-18.15074597726842
-0.13570000000000015,-18.19318731626437
-0.13670000000000004,-18.27806999425627
-0.13770000000000016,-18.362952672248177
-0.13870000000000005,-18.44783535024008
-0.13970000000000016,-18.53271802823198
-0.14070000000000005,-18.53271802823198
-0.14170000000000016,-18.631747819222536
-0.14270000000000005,-18.631747819222536
-0.14370000000000016,-18.631747819222536
-0.14470000000000005,-18.631747819222536
-0.14570000000000016,-18.631747819222536
-0.14670000000000005,-18.631747819222536
-0.14770000000000016,-18.716630497214435
-0.14870000000000005,-18.716630497214435
-0.14970000000000017,-18.80151317520634
-0.15070000000000006,-18.88639585319824
-0.15170000000000017,-18.97127853119014
-0.15270000000000006,-19.112749661176647
-0.15370000000000017,-19.112749661176647
-0.15470000000000006,-19.197632339168546
-0.15570000000000017,-19.197632339168546
-0.15670000000000006,-19.197632339168546
-0.15770000000000017,-19.197632339168546
-0.15870000000000006,-19.2400736781645
-0.15970000000000018,-19.197632339168546
-0.16070000000000007,-19.28251501716045
-0.16170000000000018,-19.28251501716045
-0.16270000000000007,-19.367397695152352
-0.16370000000000018,-19.49472171214021
-0.16470000000000007,-19.579604390132108
-0.16570000000000018,-19.678634181122664
-0.16670000000000007,-19.763516859114564
-0.16770000000000018,-19.805958198110513
-0.16870000000000007,-19.848399537106463
-0.16970000000000018,-19.848399537106463
-0.17070000000000007,-19.848399537106463
-0.17170000000000019,-19.848399537106463
-0.17270000000000008,-19.890840876102416
-0.1737000000000002,-19.890840876102416
-0.17470000000000008,-19.93328221509837
-0.1757000000000002,-20.01816489309027
-0.17670000000000008,-20.10304757108217
-0.1777000000000002,-20.244518701068674
-0.17870000000000008,-20.286960040064624
-0.1797000000000002,-20.371842718056527
-0.18070000000000008,-20.414284057052477
-0.1817000000000002,-20.499166735044383
-0.18270000000000008,-20.499166735044383
-0.1837000000000002,-20.499166735044383
-0.1847000000000001,-20.541608074040333
-0.1857000000000002,-20.541608074040333
-0.1867000000000001,-20.584049413036283
-0.1877000000000002,-20.683079204026836
-0.1887000000000001,-20.683079204026836
-0.1897000000000002,-20.810403221014692
-0.1907000000000001,-20.89528589900659
-0.1917000000000001,-20.980168576998494
-0.19269999999999998,-21.107492593986347
-0.1937000000000001,-21.149933932982297
-0.19469999999999998,-21.248963723972853
-0.1957000000000001,-21.291405062968803
-0.19669999999999999,-21.291405062968803
-0.1977000000000001,-21.333846401964752
-0.1987,-21.376287740960702
-0.1997000000000001,-21.333846401964752
-0.2007,-21.461170418952605
-0.2017000000000001,-21.461170418952605
-0.2027,-21.54605309694451
-0.2037000000000001,-21.67337711393236
-0.2047,-21.772406904922917
-0.2057000000000001,-21.857289582914817
-0.2067,-21.98461359990267
-0.2077000000000001,-22.027054938898623
-0.2087,-22.111937616890522
-0.2097000000000001,-22.111937616890522
-0.2107,-22.15437895588647
-0.2117000000000001,-22.196820294882425
-0.2127,-22.196820294882425
-0.2137000000000001,-22.295850085872978
-0.2147,-22.38073276386488
-0.2157000000000001,-22.508056780852733
-0.2167,-22.592939458844636
-0.21770000000000012,-22.67782213683654
-0.2187,-22.819293266823045
-0.21970000000000012,-22.904175944814945
-0.2207,-22.989058622806844
-0.22170000000000012,-23.073941300798747
-0.2227,-23.1163826397947
-0.22370000000000012,-23.1163826397947
-0.2247,-23.15882397879065
-0.22570000000000012,-23.2012653177866
-0.2267,-23.24370665678255
-0.22770000000000012,-23.342736447773106
-0.22870000000000001,-23.427619125765005
-0.22970000000000013,-23.55494314275286
-0.23070000000000002,-23.639825820744765
-0.23170000000000013,-23.767149837732617
-0.23270000000000002,-23.908620967719123
-0.23370000000000013,-23.993503645711023
-0.23470000000000002,-24.078386323702922
-0.23570000000000013,-24.120827662698876
-0.23670000000000002,-24.16326900169483
-0.2376999999999999,-24.20571034069078
-0.23870000000000002,-24.290593018682678
-0.2396999999999999,-24.290593018682678
-0.24070000000000003,-24.389622809673234
-0.24169999999999991,-24.474505487665134
-0.24270000000000003,-24.559388165657033
-0.24369999999999992,-24.686712182644893
-0.24470000000000003,-24.814036199632742
-0.24569999999999992,-24.95550732961925
-0.24670000000000003,-25.0828313466071
-0.24769999999999992,-25.12527268560305
-0.24870000000000003,-25.252596702590903
-0.24969999999999992,-25.295038041586857
-0.25070000000000003,-25.337479380582806
-0.2516999999999999,-25.43650917157336
-0.25270000000000004,-25.43650917157336
-0.2536999999999999,-25.521391849565262
-0.25470000000000004,-25.60627452755716
-0.2556999999999999,-25.73359854454502
-0.25670000000000004,-25.86092256153287
-0.25769999999999993,-26.002393691519377
-0.25870000000000004,-26.129717708507226
-0.25969999999999993,-26.29948306449103
-0.26070000000000004,-26.38436574248293
-0.26169999999999993,-26.525836872469437
-0.26270000000000004,-26.61071955046134
-0.26369999999999993,-26.61071955046134
-0.26470000000000005,-26.738043567449193
-0.26569999999999994,-26.738043567449193
-0.26670000000000005,-26.86536758443705
-0.26769999999999994,-26.9643973754276
-0.26870000000000005,-27.091721392415455
-0.26969999999999994,-27.219045409403304
-0.27070000000000005,-27.34636942639116
-0.27169999999999994,-27.487840556377662
-0.27270000000000005,-27.65760591236147
-0.27369999999999994,-27.78492992934932
-0.27470000000000006,-27.912253946337174
-0.27569999999999995,-28.011283737327723
-0.27670000000000006,-28.05372507632368
-0.27769999999999995,-28.13860775431558
-0.27870000000000006,-28.22349043230748
-0.27969999999999995,-28.308373110299385
-0.28070000000000006,-28.393255788291288
-0.28169999999999995,-28.478138466283188
-0.28270000000000006,-28.619609596269694
-0.28369999999999995,-28.831816291249446
-0.28470000000000006,-28.959140308237306
-0.28569999999999995,-29.14305277721976
-0.28670000000000007,-29.31281813320356
-0.28769999999999996,-29.39770081119546
-0.28870000000000007,-29.525024828183312
-0.28969999999999996,-29.66649595816982
-0.29070000000000007,-29.708937297165768
-0.29169999999999996,-29.836261314153624
-0.29270000000000007,-29.878702653149578
-0.29369999999999996,-30.00602667013743
-0.2947000000000001,-30.147497800123933
-0.29569999999999996,-30.317263156107735
-0.2967000000000001,-30.444587173095588
-0.29769999999999996,-30.670940981073993
-0.2987000000000001,-30.8407063370578
-0.29969999999999997,-31.010471693041605
-0.3007000000000001,-31.137795710029454
-0.30169999999999997,-31.321708179011907
-0.3027000000000001,-31.40659085700382
-0.30369999999999997,-31.49147353499572
-0.3047000000000001,-31.618797551983565
-0.30569999999999997,-31.717827342974125
-0.3067000000000001,-31.802710020966025
-0.3077,-31.972475376949827
-0.3087000000000001,-32.09979939393769
-0.3097,-32.283711862920136
-0.3107000000000001,-32.45347721890394
-0.3117,-32.66568391388369
-0.3127000000000001,-32.892037721862096
-0.3137,-33.01936173884996
-0.3147000000000001,-33.18912709483376
-0.3157,-33.330598224820264
-0.3167000000000001,-33.45792224180811
-0.3177,-33.54280491980002
-0.3187000000000001,-33.712570275783825
-0.3197,-33.81160006677438
-0.3207000000000001,-33.98136542275818
-0.3217,-34.10868943974604
-0.3227000000000001,-34.278454795729836
-0.3237,-34.50480860370825
-0.3247000000000001,-34.717015298688004
-0.3257,-34.94336910666641
-0.3267000000000001,-35.15557580164616
-0.3277,-35.32534115762997
-0.3287000000000001,-35.50925362661242
-0.3297,-35.636577643600276
-0.3307000000000001,-35.806342999584075
-0.3317,-35.94781412957058
-0.3327000000000001,-36.03269680756248
-0.3337,-36.20246216354629
-0.3347000000000001,-36.37222751953009
-0.3357,-36.5985813275085
-0.3367000000000001,-36.8532293614842
-0.3377,-37.07958316946261
-0.3387000000000001,-37.291789864442364
-0.3397,-37.51814367242077
-0.3407000000000001,-37.73035036740053
-0.3417,-37.94255706238028
-0.3427000000000001,-38.08402819236679
-0.3437,-38.253793548350586
-0.3447000000000001,-38.42355890433439
-0.3457,-38.5650300343209
-0.3467000000000001,-38.734795390304704
-0.3477,-38.90456074628851
-0.3487000000000001,-39.130914554266916
-0.3497,-39.34312124924667
-0.3507000000000001,-39.61191639622103
-0.3517,-39.86656443019674
-0.3527000000000001,-40.092918238175145
-0.3537,-40.34756627215084
-0.3547000000000001,-40.559772967130606
-0.3557,-40.78612677510901
-0.35670000000000013,-40.91345079209687
-0.3577,-41.139804600075266
-0.35870000000000013,-41.30956995605907
-0.3597,-41.47933531204288
-0.36070000000000013,-41.70568912002128
-0.3617,-41.91789581500104
-0.3626999999999999,-42.186690961975394
-0.3637,-42.4413389959511
-0.3646999999999999,-42.71013414292546
-0.3657,-42.96478217690117
-0.3666999999999999,-43.27601866287147
-0.3677,-43.44578401885527
-0.3686999999999999,-43.75702050482558
-0.36970000000000003,-43.92678586080939
-0.3706999999999999,-44.138992555789144
-0.37170000000000003,-44.36534636376755
-0.3726999999999999,-44.535111719751356
-0.37370000000000003,-44.80390686672572
-0.3746999999999999,-45.01611356170547
-0.37570000000000003,-45.27076159568118
-0.3766999999999999,-45.581998081651484
-0.37770000000000004,-45.89323456762179
-0.3786999999999999,-46.19032394059345
-0.37970000000000004,-46.501560426563756
-0.3806999999999999,-46.713767121543505
-0.38170000000000004,-47.067444946509774
-0.38269999999999993,-47.27965164148953
-0.38370000000000004,-47.506005449467935
-0.38469999999999993,-47.71821214444768
-0.38570000000000004,-47.93041883942744
-0.38669999999999993,-48.1992139864018
-0.38770000000000004,-48.45386202037751
-0.38869999999999993,-48.72265716735186
-0.38970000000000005,-49.03389365332217
-0.39069999999999994,-49.373424365289786
-0.39170000000000005,-49.68466085126009
-0.39269999999999994,-50.024191563227696
-0.39370000000000005,-50.335428049198
-0.39469999999999994,-50.60422319617236
-0.39570000000000005,-50.90131256914402
-0.39669999999999994,-51.127666377122424
-0.39770000000000005,-51.38231441109813
-0.39869999999999994,-51.69355089706845
-0.39970000000000006,-51.90575759204819
-0.40069999999999995,-52.25943541701445
-0.40170000000000006,-52.471642111994214
-0.40269999999999995,-52.86776127595642
-0.40370000000000006,-53.22143910092268
-0.40469999999999995,-53.518528473894335
-0.40570000000000006,-53.91464763785655
-0.40669999999999995,-54.26832546282281
-0.40770000000000006,-54.56541483579447
-0.40869999999999995,-54.919092660760725
-0.40970000000000006,-55.21618203373238
-0.41069999999999995,-55.484977180706736
-0.41170000000000007,-55.838655005673
-0.41269999999999996,-56.093303039648696
-0.41370000000000007,-56.44698086461496
-0.41469999999999996,-56.74407023758662
-0.41570000000000007,-57.097748062552874
-0.41669999999999996,-57.493867226515086
-0.41770000000000007,-57.87583927747865
-0.41869999999999996,-58.22951710244491
-0.4197000000000001,-58.66807760540307
-0.42069999999999996,-59.02175543036933
-0.4217000000000001,-59.36128614233694
-0.42269999999999996,-59.7149639673032
-0.4237000000000001,-60.02620045327351
-0.42469999999999997,-60.32328982624517
-0.4257000000000001,-60.63452631221547
-0.42669999999999997,-60.974057024183075
-0.4277000000000001,-61.327734849149344
-0.42869999999999997,-61.6814126741156
-0.4297000000000001,-62.06338472507916
-0.43069999999999997,-62.501945228037314
-0.4317000000000001,-62.89806439199953
-0.4327,-63.37906623395363
-0.4337000000000001,-63.732744058919906
-0.4347,-64.11471610988345
-0.4357000000000001,-64.51083527384567
-0.4367,-64.86451309881193
-0.4377000000000001,-65.2464851497755
-0.4387,-65.60016297474175
-0.4397000000000001,-65.99628213870396
-0.4407,-66.39240130266617
-0.4417000000000001,-66.77437335362974
-0.4427,-67.21293385658788
-0.4437000000000001,-67.693935698542
-0.4447,-68.17493754049613
-0.4457000000000001,-68.61349804345427
-0.4467,-69.0944998854084
-0.4477000000000001,-69.53306038836655
-0.4487,-70.01406223032066
-0.4497000000000001,-70.39603428128423
-0.4507,-70.8345947842424
-0.4517000000000001,-71.2307139482046
-0.4527,-71.66927445116276
-0.4537000000000001,-72.05124650212633
-0.4547,-72.53224834408043
-0.4557000000000001,-72.97080884703858
-0.4567,-73.49425202798865
-0.4577000000000001,-74.0176952089387
-0.4587,-74.49869705089283
-0.4597000000000001,-75.06458157083884
-0.4607,-75.50314207379701
-0.4617000000000001,-76.02658525474708
-0.4627,-76.46514575770523
-0.4637000000000001,-76.9037062606634
-0.4647,-77.34226676362155
-0.4657000000000001,-77.80912149257702
-0.4667,-78.24768199553519
-0.4677000000000001,-78.8135665154812
-0.4687,-79.2945683574353
-0.4697000000000001,-79.81801153838538
-0.4707,-80.38389605833139
-0.4717000000000001,-80.9497805782774
-0.4727,-81.51566509822342
-0.4737000000000001,-82.13813807016405
-0.4747,-82.6615812511141
-0.4757000000000001,-83.18502443206415
-0.4767,-83.66602627401826
-0.4777000000000001,-84.18946945496833
-0.4787,-84.75535397491434
-0.4797000000000001,-85.17976736487385
-0.4807,-85.80224033681448
-0.48170000000000013,-86.32568351776455
-0.4827,-86.93400937670651
-0.48370000000000013,-87.58477657464444
-0.4847,-88.19310243358639
-0.48570000000000013,-88.8438696315243
-0.4867,-89.46634260346492
-0.4876999999999999,-90.07466846240689
-0.4887,-90.7254356603448
-0.4896999999999999,-91.29132018029082
-0.4907,-91.85720470023682
-0.4916999999999999,-92.42308922018285
-0.4927,-92.98897374012887
-0.4936999999999999,-93.61144671206948
-0.49470000000000003,-94.26221391000739
-0.4956999999999999,-94.91298110794531
-0.49670000000000003,-95.56374830588322
-0.4976999999999999,-96.17207416482519
-0.49870000000000003,-96.92187115375367
-0.4996999999999999,-97.61507969068752
-0.5007,-98.26584688862545
-0.5016999999999999,-98.97320253855796
-0.5027,-99.58152839749994
-0.5036999999999999,-100.23229559543785
-0.5047,-100.88306279337576
-0.5056999999999999,-101.54797710431234
-0.5067,-102.19874430225026
-0.5076999999999999,-102.93439417818009
