Sept. 13, 2024   08:18:05
Amperometric i-t Curve
File: c:/users/guazh/data/20240903_batch_252_500/2024-09-03-exp341\exp341deposition-2024-09-13t08_13_13-deposition\exp341deposition_it_edep_-130mv.bin
Data Source:  Experiment
Instrument Model:  CHI760E
Header: 
Note: 

Init E (V) = -1.3
Sample Interval (s) = 0.1
Run Time (sec) = 120
Quiet Time (sec) = 2
Sensitivity (A/V) = 0.001
Comp R (ohm) = 16.0

Results:

Channel 1:

Time/sec, Current/A

1.000e-1, 6.223e-4
2.000e-1, 6.160e-4
3.000e-1, 6.108e-4
4.000e-1, 6.058e-4
5.000e-1, 6.000e-4
6.000e-1, 5.940e-4
7.000e-1, 5.887e-4
8.000e-1, 5.826e-4
9.000e-1, 5.768e-4
1.000e+0, 5.717e-4
1.100e+0, 5.659e-4
1.200e+0, 5.602e-4
1.300e+0, 5.550e-4
1.400e+0, 5.496e-4
1.500e+0, 5.440e-4
1.600e+0, 5.387e-4
1.700e+0, 5.325e-4
1.800e+0, 5.265e-4
1.900e+0, 5.214e-4
2.000e+0, 5.162e-4
2.100e+0, 5.118e-4
2.200e+0, 5.081e-4
2.300e+0, 5.040e-4
2.400e+0, 5.000e-4
2.500e+0, 4.968e-4
2.600e+0, 4.931e-4
2.700e+0, 4.895e-4
2.800e+0, 4.867e-4
2.900e+0, 4.835e-4
3.000e+0, 4.799e-4
3.100e+0, 4.769e-4
3.200e+0, 4.736e-4
3.300e+0, 4.705e-4
3.400e+0, 4.683e-4
3.500e+0, 4.654e-4
3.600e+0, 4.619e-4
3.700e+0, 4.591e-4
3.800e+0, 4.560e-4
3.900e+0, 4.532e-4
4.000e+0, 4.510e-4
4.100e+0, 4.483e-4
4.200e+0, 4.453e-4
4.300e+0, 4.437e-4
4.400e+0, 4.420e-4
4.500e+0, 4.400e-4
4.600e+0, 4.390e-4
4.700e+0, 4.378e-4
4.800e+0, 4.366e-4
4.900e+0, 4.358e-4
5.000e+0, 4.348e-4
5.100e+0, 4.333e-4
5.200e+0, 4.322e-4
5.300e+0, 4.306e-4
5.400e+0, 4.292e-4
5.500e+0, 4.281e-4
5.600e+0, 4.264e-4
5.700e+0, 4.247e-4
5.800e+0, 4.238e-4
5.900e+0, 4.227e-4
6.000e+0, 4.212e-4
6.100e+0, 4.200e-4
6.200e+0, 4.186e-4
6.300e+0, 4.175e-4
6.400e+0, 4.171e-4
6.500e+0, 4.165e-4
6.600e+0, 4.151e-4
6.700e+0, 4.141e-4
6.800e+0, 4.126e-4
6.900e+0, 4.112e-4
7.000e+0, 4.105e-4
7.100e+0, 4.096e-4
7.200e+0, 4.084e-4
7.300e+0, 4.078e-4
7.400e+0, 4.066e-4
7.500e+0, 4.052e-4
7.600e+0, 4.046e-4
7.700e+0, 4.035e-4
7.800e+0, 4.022e-4
7.900e+0, 4.014e-4
8.000e+0, 4.001e-4
8.100e+0, 3.987e-4
8.200e+0, 3.981e-4
8.300e+0, 3.971e-4
8.400e+0, 3.963e-4
8.500e+0, 3.957e-4
8.600e+0, 3.948e-4
8.700e+0, 3.938e-4
8.800e+0, 3.931e-4
8.900e+0, 3.920e-4
9.000e+0, 3.907e-4
9.100e+0, 3.902e-4
9.200e+0, 3.894e-4
9.300e+0, 3.885e-4
9.400e+0, 3.882e-4
9.500e+0, 3.874e-4
9.600e+0, 3.867e-4
9.700e+0, 3.863e-4
9.800e+0, 3.853e-4
9.900e+0, 3.843e-4
1.000e+1, 3.839e-4
1.010e+1, 3.833e-4
1.020e+1, 3.827e-4
1.030e+1, 3.825e-4
1.040e+1, 3.817e-4
1.050e+1, 3.808e-4
1.060e+1, 3.803e-4
1.070e+1, 3.793e-4
1.080e+1, 3.786e-4
1.090e+1, 3.785e-4
1.100e+1, 3.777e-4
1.110e+1, 3.771e-4
1.120e+1, 3.772e-4
1.130e+1, 3.766e-4
1.140e+1, 3.762e-4
1.150e+1, 3.761e-4
1.160e+1, 3.756e-4
1.170e+1, 3.751e-4
1.180e+1, 3.748e-4
1.190e+1, 3.748e-4
1.200e+1, 3.752e-4
1.210e+1, 3.751e-4
1.220e+1, 3.746e-4
1.230e+1, 3.744e-4
1.240e+1, 3.749e-4
1.250e+1, 3.745e-4
1.260e+1, 3.744e-4
1.270e+1, 3.744e-4
1.280e+1, 3.738e-4
1.290e+1, 3.732e-4
1.300e+1, 3.730e-4
1.310e+1, 3.728e-4
1.320e+1, 3.726e-4
1.330e+1, 3.724e-4
1.340e+1, 3.721e-4
1.350e+1, 3.717e-4
1.360e+1, 3.716e-4
1.370e+1, 3.708e-4
1.380e+1, 3.704e-4
1.390e+1, 3.699e-4
1.400e+1, 3.688e-4
1.410e+1, 3.681e-4
1.420e+1, 3.679e-4
1.430e+1, 3.671e-4
1.440e+1, 3.667e-4
1.450e+1, 3.667e-4
1.460e+1, 3.663e-4
1.470e+1, 3.664e-4
1.480e+1, 3.665e-4
1.490e+1, 3.659e-4
1.500e+1, 3.658e-4
1.510e+1, 3.665e-4
1.520e+1, 3.666e-4
1.530e+1, 3.670e-4
1.540e+1, 3.673e-4
1.550e+1, 3.672e-4
1.560e+1, 3.673e-4
1.570e+1, 3.673e-4
1.580e+1, 3.668e-4
1.590e+1, 3.666e-4
1.600e+1, 3.666e-4
1.610e+1, 3.660e-4
1.620e+1, 3.659e-4
1.630e+1, 3.662e-4
1.640e+1, 3.661e-4
1.650e+1, 3.664e-4
1.660e+1, 3.666e-4
1.670e+1, 3.663e-4
1.680e+1, 3.664e-4
1.690e+1, 3.666e-4
1.700e+1, 3.661e-4
1.710e+1, 3.661e-4
1.720e+1, 3.662e-4
1.730e+1, 3.661e-4
1.740e+1, 3.664e-4
1.750e+1, 3.673e-4
1.760e+1, 3.685e-4
1.770e+1, 3.692e-4
1.780e+1, 3.696e-4
1.790e+1, 3.693e-4
1.800e+1, 3.689e-4
1.810e+1, 3.683e-4
1.820e+1, 3.673e-4
1.830e+1, 3.669e-4
1.840e+1, 3.666e-4
1.850e+1, 3.659e-4
1.860e+1, 3.656e-4
1.870e+1, 3.657e-4
1.880e+1, 3.652e-4
1.890e+1, 3.656e-4
1.900e+1, 3.661e-4
1.910e+1, 3.664e-4
1.920e+1, 3.671e-4
1.930e+1, 3.674e-4
1.940e+1, 3.671e-4
1.950e+1, 3.674e-4
1.960e+1, 3.683e-4
1.970e+1, 3.690e-4
1.980e+1, 3.701e-4
1.990e+1, 3.703e-4
2.000e+1, 3.700e-4
2.010e+1, 3.700e-4
2.020e+1, 3.698e-4
2.030e+1, 3.691e-4
2.040e+1, 3.686e-4
2.050e+1, 3.687e-4
2.060e+1, 3.686e-4
2.070e+1, 3.690e-4
2.080e+1, 3.693e-4
2.090e+1, 3.687e-4
2.100e+1, 3.682e-4
2.110e+1, 3.675e-4
2.120e+1, 3.662e-4
2.130e+1, 3.660e-4
2.140e+1, 3.667e-4
2.150e+1, 3.666e-4
2.160e+1, 3.665e-4
2.170e+1, 3.663e-4
2.180e+1, 3.655e-4
2.190e+1, 3.651e-4
2.200e+1, 3.646e-4
2.210e+1, 3.640e-4
2.220e+1, 3.638e-4
2.230e+1, 3.627e-4
2.240e+1, 3.610e-4
2.250e+1, 3.602e-4
2.260e+1, 3.598e-4
2.270e+1, 3.595e-4
2.280e+1, 3.600e-4
2.290e+1, 3.612e-4
2.300e+1, 3.616e-4
2.310e+1, 3.610e-4
2.320e+1, 3.606e-4
2.330e+1, 3.608e-4
2.340e+1, 3.611e-4
2.350e+1, 3.615e-4
2.360e+1, 3.612e-4
2.370e+1, 3.611e-4
2.380e+1, 3.607e-4
2.390e+1, 3.600e-4
2.400e+1, 3.601e-4
2.410e+1, 3.600e-4
2.420e+1, 3.600e-4
2.430e+1, 3.607e-4
2.440e+1, 3.610e-4
2.450e+1, 3.609e-4
2.460e+1, 3.615e-4
2.470e+1, 3.620e-4
2.480e+1, 3.621e-4
2.490e+1, 3.621e-4
2.500e+1, 3.613e-4
2.510e+1, 3.615e-4
2.520e+1, 3.630e-4
2.530e+1, 3.640e-4
2.540e+1, 3.645e-4
2.550e+1, 3.648e-4
2.560e+1, 3.645e-4
2.570e+1, 3.639e-4
2.580e+1, 3.639e-4
2.590e+1, 3.637e-4
2.600e+1, 3.635e-4
2.610e+1, 3.638e-4
2.620e+1, 3.638e-4
2.630e+1, 3.635e-4
2.640e+1, 3.640e-4
2.650e+1, 3.645e-4
2.660e+1, 3.648e-4
2.670e+1, 3.655e-4
2.680e+1, 3.660e-4
2.690e+1, 3.663e-4
2.700e+1, 3.670e-4
2.710e+1, 3.671e-4
2.720e+1, 3.667e-4
2.730e+1, 3.672e-4
2.740e+1, 3.681e-4
2.750e+1, 3.681e-4
2.760e+1, 3.680e-4
2.770e+1, 3.676e-4
2.780e+1, 3.669e-4
2.790e+1, 3.665e-4
2.800e+1, 3.661e-4
2.810e+1, 3.659e-4
2.820e+1, 3.660e-4
2.830e+1, 3.656e-4
2.840e+1, 3.648e-4
2.850e+1, 3.643e-4
2.860e+1, 3.632e-4
2.870e+1, 3.624e-4
2.880e+1, 3.623e-4
2.890e+1, 3.618e-4
2.900e+1, 3.615e-4
2.910e+1, 3.619e-4
2.920e+1, 3.621e-4
2.930e+1, 3.622e-4
2.940e+1, 3.627e-4
2.950e+1, 3.629e-4
2.960e+1, 3.630e-4
2.970e+1, 3.635e-4
2.980e+1, 3.636e-4
2.990e+1, 3.639e-4
3.000e+1, 3.648e-4
3.010e+1, 3.652e-4
3.020e+1, 3.656e-4
3.030e+1, 3.661e-4
3.040e+1, 3.658e-4
3.050e+1, 3.658e-4
3.060e+1, 3.663e-4
3.070e+1, 3.663e-4
3.080e+1, 3.664e-4
3.090e+1, 3.670e-4
3.100e+1, 3.669e-4
3.110e+1, 3.669e-4
3.120e+1, 3.676e-4
3.130e+1, 3.682e-4
3.140e+1, 3.686e-4
3.150e+1, 3.691e-4
3.160e+1, 3.689e-4
3.170e+1, 3.692e-4
3.180e+1, 3.709e-4
3.190e+1, 3.716e-4
3.200e+1, 3.719e-4
3.210e+1, 3.723e-4
3.220e+1, 3.724e-4
3.230e+1, 3.729e-4
3.240e+1, 3.738e-4
3.250e+1, 3.740e-4
3.260e+1, 3.737e-4
3.270e+1, 3.740e-4
3.280e+1, 3.737e-4
3.290e+1, 3.736e-4
3.300e+1, 3.742e-4
3.310e+1, 3.743e-4
3.320e+1, 3.746e-4
3.330e+1, 3.751e-4
3.340e+1, 3.749e-4
3.350e+1, 3.750e-4
3.360e+1, 3.754e-4
3.370e+1, 3.753e-4
3.380e+1, 3.755e-4
3.390e+1, 3.761e-4
3.400e+1, 3.760e-4
3.410e+1, 3.762e-4
3.420e+1, 3.769e-4
3.430e+1, 3.772e-4
3.440e+1, 3.774e-4
3.450e+1, 3.778e-4
3.460e+1, 3.777e-4
3.470e+1, 3.779e-4
3.480e+1, 3.781e-4
3.490e+1, 3.778e-4
3.500e+1, 3.780e-4
3.510e+1, 3.787e-4
3.520e+1, 3.789e-4
3.530e+1, 3.791e-4
3.540e+1, 3.796e-4
3.550e+1, 3.799e-4
3.560e+1, 3.800e-4
3.570e+1, 3.800e-4
3.580e+1, 3.793e-4
3.590e+1, 3.790e-4
3.600e+1, 3.792e-4
3.610e+1, 3.787e-4
3.620e+1, 3.789e-4
3.630e+1, 3.793e-4
3.640e+1, 3.792e-4
3.650e+1, 3.795e-4
3.660e+1, 3.800e-4
3.670e+1, 3.806e-4
3.680e+1, 3.819e-4
3.690e+1, 3.827e-4
3.700e+1, 3.824e-4
3.710e+1, 3.822e-4
3.720e+1, 3.817e-4
3.730e+1, 3.804e-4
3.740e+1, 3.797e-4
3.750e+1, 3.794e-4
3.760e+1, 3.787e-4
3.770e+1, 3.785e-4
3.780e+1, 3.783e-4
3.790e+1, 3.777e-4
3.800e+1, 3.776e-4
3.810e+1, 3.785e-4
3.820e+1, 3.793e-4
3.830e+1, 3.803e-4
3.840e+1, 3.806e-4
3.850e+1, 3.801e-4
3.860e+1, 3.799e-4
3.870e+1, 3.793e-4
3.880e+1, 3.779e-4
3.890e+1, 3.769e-4
3.900e+1, 3.763e-4
3.910e+1, 3.756e-4
3.920e+1, 3.757e-4
3.930e+1, 3.760e-4
3.940e+1, 3.758e-4
3.950e+1, 3.765e-4
3.960e+1, 3.772e-4
3.970e+1, 3.772e-4
3.980e+1, 3.777e-4
3.990e+1, 3.783e-4
4.000e+1, 3.780e-4
4.010e+1, 3.775e-4
4.020e+1, 3.766e-4
4.030e+1, 3.755e-4
4.040e+1, 3.760e-4
4.050e+1, 3.774e-4
4.060e+1, 3.774e-4
4.070e+1, 3.772e-4
4.080e+1, 3.765e-4
4.090e+1, 3.754e-4
4.100e+1, 3.755e-4
4.110e+1, 3.755e-4
4.120e+1, 3.751e-4
4.130e+1, 3.752e-4
4.140e+1, 3.752e-4
4.150e+1, 3.747e-4
4.160e+1, 3.746e-4
4.170e+1, 3.743e-4
4.180e+1, 3.737e-4
4.190e+1, 3.735e-4
4.200e+1, 3.735e-4
4.210e+1, 3.729e-4
4.220e+1, 3.727e-4
4.230e+1, 3.730e-4
4.240e+1, 3.734e-4
4.250e+1, 3.750e-4
4.260e+1, 3.762e-4
4.270e+1, 3.759e-4
4.280e+1, 3.757e-4
4.290e+1, 3.751e-4
4.300e+1, 3.740e-4
4.310e+1, 3.736e-4
4.320e+1, 3.733e-4
4.330e+1, 3.725e-4
4.340e+1, 3.724e-4
4.350e+1, 3.722e-4
4.360e+1, 3.719e-4
4.370e+1, 3.727e-4
4.380e+1, 3.735e-4
4.390e+1, 3.734e-4
4.400e+1, 3.737e-4
4.410e+1, 3.735e-4
4.420e+1, 3.730e-4
4.430e+1, 3.733e-4
4.440e+1, 3.737e-4
4.450e+1, 3.736e-4
4.460e+1, 3.740e-4
4.470e+1, 3.742e-4
4.480e+1, 3.743e-4
4.490e+1, 3.747e-4
4.500e+1, 3.747e-4
4.510e+1, 3.744e-4
4.520e+1, 3.756e-4
4.530e+1, 3.763e-4
4.540e+1, 3.766e-4
4.550e+1, 3.778e-4
4.560e+1, 3.788e-4
4.570e+1, 3.787e-4
4.580e+1, 3.793e-4
4.590e+1, 3.796e-4
4.600e+1, 3.795e-4
4.610e+1, 3.801e-4
4.620e+1, 3.803e-4
4.630e+1, 3.800e-4
4.640e+1, 3.803e-4
4.650e+1, 3.806e-4
4.660e+1, 3.809e-4
4.670e+1, 3.821e-4
4.680e+1, 3.830e-4
4.690e+1, 3.832e-4
4.700e+1, 3.837e-4
4.710e+1, 3.838e-4
4.720e+1, 3.837e-4
4.730e+1, 3.843e-4
4.740e+1, 3.849e-4
4.750e+1, 3.848e-4
4.760e+1, 3.846e-4
4.770e+1, 3.837e-4
4.780e+1, 3.825e-4
4.790e+1, 3.822e-4
4.800e+1, 3.819e-4
4.810e+1, 3.815e-4
4.820e+1, 3.816e-4
4.830e+1, 3.819e-4
4.840e+1, 3.830e-4
4.850e+1, 3.849e-4
4.860e+1, 3.857e-4
4.870e+1, 3.855e-4
4.880e+1, 3.857e-4
4.890e+1, 3.856e-4
4.900e+1, 3.851e-4
4.910e+1, 3.853e-4
4.920e+1, 3.853e-4
4.930e+1, 3.850e-4
4.940e+1, 3.851e-4
4.950e+1, 3.848e-4
4.960e+1, 3.844e-4
4.970e+1, 3.847e-4
4.980e+1, 3.849e-4
4.990e+1, 3.856e-4
5.000e+1, 3.865e-4
5.010e+1, 3.862e-4
5.020e+1, 3.858e-4
5.030e+1, 3.861e-4
5.040e+1, 3.861e-4
5.050e+1, 3.859e-4
5.060e+1, 3.861e-4
5.070e+1, 3.858e-4
5.080e+1, 3.856e-4
5.090e+1, 3.858e-4
5.100e+1, 3.858e-4
5.110e+1, 3.859e-4
5.120e+1, 3.862e-4
5.130e+1, 3.862e-4
5.140e+1, 3.863e-4
5.150e+1, 3.869e-4
5.160e+1, 3.870e-4
5.170e+1, 3.869e-4
5.180e+1, 3.873e-4
5.190e+1, 3.872e-4
5.200e+1, 3.869e-4
5.210e+1, 3.875e-4
5.220e+1, 3.875e-4
5.230e+1, 3.877e-4
5.240e+1, 3.885e-4
5.250e+1, 3.887e-4
5.260e+1, 3.888e-4
5.270e+1, 3.892e-4
5.280e+1, 3.892e-4
5.290e+1, 3.891e-4
5.300e+1, 3.892e-4
5.310e+1, 3.886e-4
5.320e+1, 3.880e-4
5.330e+1, 3.885e-4
5.340e+1, 3.885e-4
5.350e+1, 3.885e-4
5.360e+1, 3.888e-4
5.370e+1, 3.883e-4
5.380e+1, 3.876e-4
5.390e+1, 3.876e-4
5.400e+1, 3.869e-4
5.410e+1, 3.860e-4
5.420e+1, 3.854e-4
5.430e+1, 3.842e-4
5.440e+1, 3.834e-4
5.450e+1, 3.831e-4
5.460e+1, 3.824e-4
5.470e+1, 3.818e-4
5.480e+1, 3.816e-4
5.490e+1, 3.808e-4
5.500e+1, 3.803e-4
5.510e+1, 3.806e-4
5.520e+1, 3.807e-4
5.530e+1, 3.814e-4
5.540e+1, 3.825e-4
5.550e+1, 3.830e-4
5.560e+1, 3.832e-4
5.570e+1, 3.836e-4
5.580e+1, 3.840e-4
5.590e+1, 3.844e-4
5.600e+1, 3.853e-4
5.610e+1, 3.852e-4
5.620e+1, 3.846e-4
5.630e+1, 3.840e-4
5.640e+1, 3.831e-4
5.650e+1, 3.830e-4
5.660e+1, 3.828e-4
5.670e+1, 3.817e-4
5.680e+1, 3.814e-4
5.690e+1, 3.822e-4
5.700e+1, 3.823e-4
5.710e+1, 3.820e-4
5.720e+1, 3.817e-4
5.730e+1, 3.810e-4
5.740e+1, 3.805e-4
5.750e+1, 3.803e-4
5.760e+1, 3.795e-4
5.770e+1, 3.796e-4
5.780e+1, 3.808e-4
5.790e+1, 3.819e-4
5.800e+1, 3.836e-4
5.810e+1, 3.850e-4
5.820e+1, 3.856e-4
5.830e+1, 3.857e-4
5.840e+1, 3.860e-4
5.850e+1, 3.855e-4
5.860e+1, 3.855e-4
5.870e+1, 3.861e-4
5.880e+1, 3.855e-4
5.890e+1, 3.850e-4
5.900e+1, 3.846e-4
5.910e+1, 3.841e-4
5.920e+1, 3.833e-4
5.930e+1, 3.827e-4
5.940e+1, 3.816e-4
5.950e+1, 3.812e-4
5.960e+1, 3.813e-4
5.970e+1, 3.806e-4
5.980e+1, 3.802e-4
5.990e+1, 3.800e-4
6.000e+1, 3.794e-4
6.010e+1, 3.796e-4
6.020e+1, 3.801e-4
6.030e+1, 3.800e-4
6.040e+1, 3.802e-4
6.050e+1, 3.807e-4
6.060e+1, 3.802e-4
6.070e+1, 3.801e-4
6.080e+1, 3.801e-4
6.090e+1, 3.797e-4
6.100e+1, 3.800e-4
6.110e+1, 3.804e-4
6.120e+1, 3.801e-4
6.130e+1, 3.801e-4
6.140e+1, 3.802e-4
6.150e+1, 3.798e-4
6.160e+1, 3.798e-4
6.170e+1, 3.800e-4
6.180e+1, 3.798e-4
6.190e+1, 3.803e-4
6.200e+1, 3.812e-4
6.210e+1, 3.814e-4
6.220e+1, 3.819e-4
6.230e+1, 3.825e-4
6.240e+1, 3.824e-4
6.250e+1, 3.826e-4
6.260e+1, 3.830e-4
6.270e+1, 3.828e-4
6.280e+1, 3.830e-4
6.290e+1, 3.832e-4
6.300e+1, 3.827e-4
6.310e+1, 3.828e-4
6.320e+1, 3.829e-4
6.330e+1, 3.825e-4
6.340e+1, 3.827e-4
6.350e+1, 3.829e-4
6.360e+1, 3.825e-4
6.370e+1, 3.828e-4
6.380e+1, 3.832e-4
6.390e+1, 3.829e-4
6.400e+1, 3.830e-4
6.410e+1, 3.831e-4
6.420e+1, 3.828e-4
6.430e+1, 3.831e-4
6.440e+1, 3.834e-4
6.450e+1, 3.830e-4
6.460e+1, 3.832e-4
6.470e+1, 3.835e-4
6.480e+1, 3.835e-4
6.490e+1, 3.838e-4
6.500e+1, 3.839e-4
6.510e+1, 3.836e-4
6.520e+1, 3.839e-4
6.530e+1, 3.843e-4
6.540e+1, 3.842e-4
6.550e+1, 3.846e-4
6.560e+1, 3.850e-4
6.570e+1, 3.851e-4
6.580e+1, 3.858e-4
6.590e+1, 3.863e-4
6.600e+1, 3.861e-4
6.610e+1, 3.861e-4
6.620e+1, 3.859e-4
6.630e+1, 3.854e-4
6.640e+1, 3.856e-4
6.650e+1, 3.859e-4
6.660e+1, 3.855e-4
6.670e+1, 3.857e-4
6.680e+1, 3.857e-4
6.690e+1, 3.854e-4
6.700e+1, 3.857e-4
6.710e+1, 3.861e-4
6.720e+1, 3.861e-4
6.730e+1, 3.865e-4
6.740e+1, 3.868e-4
6.750e+1, 3.865e-4
6.760e+1, 3.867e-4
6.770e+1, 3.867e-4
6.780e+1, 3.863e-4
6.790e+1, 3.865e-4
6.800e+1, 3.866e-4
6.810e+1, 3.864e-4
6.820e+1, 3.868e-4
6.830e+1, 3.869e-4
6.840e+1, 3.867e-4
6.850e+1, 3.873e-4
6.860e+1, 3.876e-4
6.870e+1, 3.874e-4
6.880e+1, 3.876e-4
6.890e+1, 3.876e-4
6.900e+1, 3.871e-4
6.910e+1, 3.872e-4
6.920e+1, 3.871e-4
6.930e+1, 3.869e-4
6.940e+1, 3.876e-4
6.950e+1, 3.881e-4
6.960e+1, 3.882e-4
6.970e+1, 3.887e-4
6.980e+1, 3.887e-4
6.990e+1, 3.884e-4
7.000e+1, 3.886e-4
7.010e+1, 3.884e-4
7.020e+1, 3.877e-4
7.030e+1, 3.878e-4
7.040e+1, 3.877e-4
7.050e+1, 3.874e-4
7.060e+1, 3.876e-4
7.070e+1, 3.874e-4
7.080e+1, 3.867e-4
7.090e+1, 3.868e-4
7.100e+1, 3.866e-4
7.110e+1, 3.861e-4
7.120e+1, 3.864e-4
7.130e+1, 3.864e-4
7.140e+1, 3.861e-4
7.150e+1, 3.864e-4
7.160e+1, 3.864e-4
7.170e+1, 3.861e-4
7.180e+1, 3.863e-4
7.190e+1, 3.862e-4
7.200e+1, 3.857e-4
7.210e+1, 3.857e-4
7.220e+1, 3.854e-4
7.230e+1, 3.849e-4
7.240e+1, 3.851e-4
7.250e+1, 3.848e-4
7.260e+1, 3.842e-4
7.270e+1, 3.844e-4
7.280e+1, 3.841e-4
7.290e+1, 3.838e-4
7.300e+1, 3.840e-4
7.310e+1, 3.840e-4
7.320e+1, 3.838e-4
7.330e+1, 3.841e-4
7.340e+1, 3.840e-4
7.350e+1, 3.837e-4
7.360e+1, 3.839e-4
7.370e+1, 3.837e-4
7.380e+1, 3.835e-4
7.390e+1, 3.839e-4
7.400e+1, 3.839e-4
7.410e+1, 3.837e-4
7.420e+1, 3.841e-4
7.430e+1, 3.840e-4
7.440e+1, 3.837e-4
7.450e+1, 3.842e-4
7.460e+1, 3.844e-4
7.470e+1, 3.845e-4
7.480e+1, 3.855e-4
7.490e+1, 3.858e-4
7.500e+1, 3.860e-4
7.510e+1, 3.869e-4
7.520e+1, 3.872e-4
7.530e+1, 3.874e-4
7.540e+1, 3.878e-4
7.550e+1, 3.872e-4
7.560e+1, 3.865e-4
7.570e+1, 3.868e-4
7.580e+1, 3.871e-4
7.590e+1, 3.871e-4
7.600e+1, 3.879e-4
7.610e+1, 3.882e-4
7.620e+1, 3.884e-4
7.630e+1, 3.891e-4
7.640e+1, 3.893e-4
7.650e+1, 3.893e-4
7.660e+1, 3.898e-4
7.670e+1, 3.899e-4
7.680e+1, 3.895e-4
7.690e+1, 3.898e-4
7.700e+1, 3.898e-4
7.710e+1, 3.898e-4
7.720e+1, 3.905e-4
7.730e+1, 3.905e-4
7.740e+1, 3.902e-4
7.750e+1, 3.905e-4
7.760e+1, 3.904e-4
7.770e+1, 3.904e-4
7.780e+1, 3.910e-4
7.790e+1, 3.911e-4
7.800e+1, 3.910e-4
7.810e+1, 3.911e-4
7.820e+1, 3.908e-4
7.830e+1, 3.903e-4
7.840e+1, 3.904e-4
7.850e+1, 3.902e-4
7.860e+1, 3.898e-4
7.870e+1, 3.898e-4
7.880e+1, 3.895e-4
7.890e+1, 3.892e-4
7.900e+1, 3.894e-4
7.910e+1, 3.892e-4
7.920e+1, 3.890e-4
7.930e+1, 3.895e-4
7.940e+1, 3.894e-4
7.950e+1, 3.891e-4
7.960e+1, 3.893e-4
7.970e+1, 3.891e-4
7.980e+1, 3.889e-4
7.990e+1, 3.893e-4
8.000e+1, 3.893e-4
8.010e+1, 3.894e-4
8.020e+1, 3.897e-4
8.030e+1, 3.894e-4
8.040e+1, 3.891e-4
8.050e+1, 3.894e-4
8.060e+1, 3.891e-4
8.070e+1, 3.889e-4
8.080e+1, 3.890e-4
8.090e+1, 3.888e-4
8.100e+1, 3.887e-4
8.110e+1, 3.891e-4
8.120e+1, 3.888e-4
8.130e+1, 3.886e-4
8.140e+1, 3.888e-4
8.150e+1, 3.887e-4
8.160e+1, 3.887e-4
8.170e+1, 3.891e-4
8.180e+1, 3.887e-4
8.190e+1, 3.886e-4
8.200e+1, 3.887e-4
8.210e+1, 3.879e-4
8.220e+1, 3.874e-4
8.230e+1, 3.873e-4
8.240e+1, 3.866e-4
8.250e+1, 3.861e-4
8.260e+1, 3.861e-4
8.270e+1, 3.856e-4
8.280e+1, 3.852e-4
8.290e+1, 3.851e-4
8.300e+1, 3.845e-4
8.310e+1, 3.841e-4
8.320e+1, 3.839e-4
8.330e+1, 3.833e-4
8.340e+1, 3.829e-4
8.350e+1, 3.830e-4
8.360e+1, 3.824e-4
8.370e+1, 3.821e-4
8.380e+1, 3.821e-4
8.390e+1, 3.815e-4
8.400e+1, 3.811e-4
8.410e+1, 3.810e-4
8.420e+1, 3.803e-4
8.430e+1, 3.799e-4
8.440e+1, 3.797e-4
8.450e+1, 3.790e-4
8.460e+1, 3.784e-4
8.470e+1, 3.782e-4
8.480e+1, 3.774e-4
8.490e+1, 3.770e-4
8.500e+1, 3.768e-4
8.510e+1, 3.761e-4
8.520e+1, 3.759e-4
8.530e+1, 3.758e-4
8.540e+1, 3.755e-4
8.550e+1, 3.757e-4
8.560e+1, 3.761e-4
8.570e+1, 3.760e-4
8.580e+1, 3.764e-4
8.590e+1, 3.768e-4
8.600e+1, 3.768e-4
8.610e+1, 3.770e-4
8.620e+1, 3.775e-4
8.630e+1, 3.773e-4
8.640e+1, 3.775e-4
8.650e+1, 3.777e-4
8.660e+1, 3.774e-4
8.670e+1, 3.775e-4
8.680e+1, 3.776e-4
8.690e+1, 3.770e-4
8.700e+1, 3.765e-4
8.710e+1, 3.761e-4
8.720e+1, 3.751e-4
8.730e+1, 3.745e-4
8.740e+1, 3.741e-4
8.750e+1, 3.732e-4
8.760e+1, 3.727e-4
8.770e+1, 3.723e-4
8.780e+1, 3.713e-4
8.790e+1, 3.708e-4
8.800e+1, 3.705e-4
8.810e+1, 3.697e-4
8.820e+1, 3.695e-4
8.830e+1, 3.694e-4
8.840e+1, 3.688e-4
8.850e+1, 3.688e-4
8.860e+1, 3.689e-4
8.870e+1, 3.684e-4
8.880e+1, 3.686e-4
8.890e+1, 3.688e-4
8.900e+1, 3.685e-4
8.910e+1, 3.688e-4
8.920e+1, 3.691e-4
8.930e+1, 3.687e-4
8.940e+1, 3.689e-4
8.950e+1, 3.689e-4
8.960e+1, 3.684e-4
8.970e+1, 3.685e-4
8.980e+1, 3.687e-4
8.990e+1, 3.686e-4
9.000e+1, 3.691e-4
9.010e+1, 3.696e-4
9.020e+1, 3.697e-4
9.030e+1, 3.704e-4
9.040e+1, 3.710e-4
9.050e+1, 3.711e-4
9.060e+1, 3.717e-4
9.070e+1, 3.721e-4
9.080e+1, 3.720e-4
9.090e+1, 3.725e-4
9.100e+1, 3.728e-4
9.110e+1, 3.724e-4
9.120e+1, 3.724e-4
9.130e+1, 3.722e-4
9.140e+1, 3.715e-4
9.150e+1, 3.712e-4
9.160e+1, 3.708e-4
9.170e+1, 3.700e-4
9.180e+1, 3.698e-4
9.190e+1, 3.695e-4
9.200e+1, 3.689e-4
9.210e+1, 3.688e-4
9.220e+1, 3.684e-4
9.230e+1, 3.678e-4
9.240e+1, 3.679e-4
9.250e+1, 3.677e-4
9.260e+1, 3.671e-4
9.270e+1, 3.672e-4
9.280e+1, 3.672e-4
9.290e+1, 3.671e-4
9.300e+1, 3.678e-4
9.310e+1, 3.681e-4
9.320e+1, 3.681e-4
9.330e+1, 3.686e-4
9.340e+1, 3.688e-4
9.350e+1, 3.682e-4
9.360e+1, 3.681e-4
9.370e+1, 3.677e-4
9.380e+1, 3.669e-4
9.390e+1, 3.668e-4
9.400e+1, 3.664e-4
9.410e+1, 3.656e-4
9.420e+1, 3.655e-4
9.430e+1, 3.652e-4
9.440e+1, 3.647e-4
9.450e+1, 3.649e-4
9.460e+1, 3.649e-4
9.470e+1, 3.647e-4
9.480e+1, 3.650e-4
9.490e+1, 3.651e-4
9.500e+1, 3.649e-4
9.510e+1, 3.652e-4
9.520e+1, 3.653e-4
9.530e+1, 3.648e-4
9.540e+1, 3.649e-4
9.550e+1, 3.650e-4
9.560e+1, 3.648e-4
9.570e+1, 3.652e-4
9.580e+1, 3.654e-4
9.590e+1, 3.653e-4
9.600e+1, 3.656e-4
9.610e+1, 3.656e-4
9.620e+1, 3.654e-4
9.630e+1, 3.657e-4
9.640e+1, 3.656e-4
9.650e+1, 3.652e-4
9.660e+1, 3.655e-4
9.670e+1, 3.653e-4
9.680e+1, 3.648e-4
9.690e+1, 3.652e-4
9.700e+1, 3.651e-4
9.710e+1, 3.647e-4
9.720e+1, 3.651e-4
9.730e+1, 3.650e-4
9.740e+1, 3.647e-4
9.750e+1, 3.649e-4
9.760e+1, 3.648e-4
9.770e+1, 3.646e-4
9.780e+1, 3.651e-4
9.790e+1, 3.653e-4
9.800e+1, 3.652e-4
9.810e+1, 3.656e-4
9.820e+1, 3.658e-4
9.830e+1, 3.658e-4
9.840e+1, 3.664e-4
9.850e+1, 3.666e-4
9.860e+1, 3.664e-4
9.870e+1, 3.667e-4
9.880e+1, 3.667e-4
9.890e+1, 3.667e-4
9.900e+1, 3.675e-4
9.910e+1, 3.677e-4
9.920e+1, 3.676e-4
9.930e+1, 3.681e-4
9.940e+1, 3.681e-4
9.950e+1, 3.680e-4
9.960e+1, 3.682e-4
9.970e+1, 3.681e-4
9.980e+1, 3.677e-4
9.990e+1, 3.680e-4
1.000e+2, 3.679e-4
1.001e+2, 3.678e-4
1.002e+2, 3.681e-4
1.003e+2, 3.680e-4
1.004e+2, 3.677e-4
1.005e+2, 3.678e-4
1.006e+2, 3.675e-4
1.007e+2, 3.673e-4
1.008e+2, 3.677e-4
1.009e+2, 3.676e-4
1.010e+2, 3.675e-4
1.011e+2, 3.681e-4
1.012e+2, 3.682e-4
1.013e+2, 3.681e-4
1.014e+2, 3.685e-4
1.015e+2, 3.685e-4
1.016e+2, 3.683e-4
1.017e+2, 3.686e-4
1.018e+2, 3.686e-4
1.019e+2, 3.687e-4
1.020e+2, 3.694e-4
1.021e+2, 3.695e-4
1.022e+2, 3.695e-4
1.023e+2, 3.699e-4
1.024e+2, 3.696e-4
1.025e+2, 3.694e-4
1.026e+2, 3.698e-4
1.027e+2, 3.697e-4
1.028e+2, 3.694e-4
1.029e+2, 3.697e-4
1.030e+2, 3.695e-4
1.031e+2, 3.694e-4
1.032e+2, 3.697e-4
1.033e+2, 3.696e-4
1.034e+2, 3.694e-4
1.035e+2, 3.695e-4
1.036e+2, 3.689e-4
1.037e+2, 3.684e-4
1.038e+2, 3.686e-4
1.039e+2, 3.682e-4
1.040e+2, 3.680e-4
1.041e+2, 3.682e-4
1.042e+2, 3.679e-4
1.043e+2, 3.676e-4
1.044e+2, 3.678e-4
1.045e+2, 3.675e-4
1.046e+2, 3.673e-4
1.047e+2, 3.676e-4
1.048e+2, 3.675e-4
1.049e+2, 3.673e-4
1.050e+2, 3.677e-4
1.051e+2, 3.675e-4
1.052e+2, 3.674e-4
1.053e+2, 3.676e-4
1.054e+2, 3.672e-4
1.055e+2, 3.668e-4
1.056e+2, 3.668e-4
1.057e+2, 3.664e-4
1.058e+2, 3.661e-4
1.059e+2, 3.663e-4
1.060e+2, 3.658e-4
1.061e+2, 3.656e-4
1.062e+2, 3.659e-4
1.063e+2, 3.655e-4
1.064e+2, 3.654e-4
1.065e+2, 3.657e-4
1.066e+2, 3.653e-4
1.067e+2, 3.652e-4
1.068e+2, 3.654e-4
1.069e+2, 3.650e-4
1.070e+2, 3.649e-4
1.071e+2, 3.651e-4
1.072e+2, 3.647e-4
1.073e+2, 3.646e-4
1.074e+2, 3.648e-4
1.075e+2, 3.643e-4
1.076e+2, 3.642e-4
1.077e+2, 3.644e-4
1.078e+2, 3.641e-4
1.079e+2, 3.640e-4
1.080e+2, 3.643e-4
1.081e+2, 3.642e-4
1.082e+2, 3.641e-4
1.083e+2, 3.643e-4
1.084e+2, 3.639e-4
1.085e+2, 3.638e-4
1.086e+2, 3.641e-4
1.087e+2, 3.637e-4
1.088e+2, 3.637e-4
1.089e+2, 3.639e-4
1.090e+2, 3.636e-4
1.091e+2, 3.637e-4
1.092e+2, 3.640e-4
1.093e+2, 3.638e-4
1.094e+2, 3.639e-4
1.095e+2, 3.645e-4
1.096e+2, 3.644e-4
1.097e+2, 3.646e-4
1.098e+2, 3.650e-4
1.099e+2, 3.648e-4
1.100e+2, 3.651e-4
1.101e+2, 3.655e-4
1.102e+2, 3.653e-4
1.103e+2, 3.655e-4
1.104e+2, 3.658e-4
1.105e+2, 3.654e-4
1.106e+2, 3.655e-4
1.107e+2, 3.659e-4
1.108e+2, 3.659e-4
1.109e+2, 3.662e-4
1.110e+2, 3.664e-4
1.111e+2, 3.661e-4
1.112e+2, 3.663e-4
1.113e+2, 3.666e-4
1.114e+2, 3.664e-4
1.115e+2, 3.669e-4
1.116e+2, 3.675e-4
1.117e+2, 3.675e-4
1.118e+2, 3.679e-4
1.119e+2, 3.685e-4
1.120e+2, 3.686e-4
1.121e+2, 3.690e-4
1.122e+2, 3.694e-4
1.123e+2, 3.691e-4
1.124e+2, 3.692e-4
1.125e+2, 3.695e-4
1.126e+2, 3.691e-4
1.127e+2, 3.692e-4
1.128e+2, 3.695e-4
1.129e+2, 3.691e-4
1.130e+2, 3.693e-4
1.131e+2, 3.695e-4
1.132e+2, 3.691e-4
1.133e+2, 3.693e-4
1.134e+2, 3.694e-4
1.135e+2, 3.689e-4
1.136e+2, 3.690e-4
1.137e+2, 3.691e-4
1.138e+2, 3.687e-4
1.139e+2, 3.687e-4
1.140e+2, 3.687e-4
1.141e+2, 3.683e-4
1.142e+2, 3.685e-4
1.143e+2, 3.687e-4
1.144e+2, 3.684e-4
1.145e+2, 3.685e-4
1.146e+2, 3.684e-4
1.147e+2, 3.679e-4
1.148e+2, 3.679e-4
1.149e+2, 3.678e-4
1.150e+2, 3.673e-4
1.151e+2, 3.675e-4
1.152e+2, 3.673e-4
1.153e+2, 3.668e-4
1.154e+2, 3.669e-4
1.155e+2, 3.668e-4
1.156e+2, 3.664e-4
1.157e+2, 3.665e-4
1.158e+2, 3.665e-4
1.159e+2, 3.660e-4
1.160e+2, 3.663e-4
1.161e+2, 3.663e-4
1.162e+2, 3.660e-4
1.163e+2, 3.664e-4
1.164e+2, 3.667e-4
1.165e+2, 3.666e-4
1.166e+2, 3.670e-4
1.167e+2, 3.671e-4
1.168e+2, 3.667e-4
1.169e+2, 3.668e-4
1.170e+2, 3.668e-4
1.171e+2, 3.663e-4
1.172e+2, 3.664e-4
1.173e+2, 3.664e-4
1.174e+2, 3.660e-4
1.175e+2, 3.661e-4
1.176e+2, 3.660e-4
1.177e+2, 3.655e-4
1.178e+2, 3.656e-4
1.179e+2, 3.654e-4
1.180e+2, 3.649e-4
1.181e+2, 3.650e-4
1.182e+2, 3.648e-4
1.183e+2, 3.643e-4
1.184e+2, 3.643e-4
1.185e+2, 3.640e-4
1.186e+2, 3.634e-4
1.187e+2, 3.636e-4
1.188e+2, 3.635e-4
1.189e+2, 3.630e-4
1.190e+2, 3.633e-4
1.191e+2, 3.633e-4
1.192e+2, 3.631e-4
1.193e+2, 3.634e-4
1.194e+2, 3.632e-4
1.195e+2, 3.627e-4
1.196e+2, 3.629e-4
1.197e+2, 3.632e-4
1.198e+2, 3.635e-4
1.199e+2, 3.645e-4
1.200e+2, 3.646e-4
