July 13, 2024   01:21:59
Cyclic Voltammetry
File: c:/users/guazh/data/20240709_batch67/2024-07-10-exp27\exp27-2024-07-13t01_00_36-h2koh\exp27_cv_50mvs_efin_-1900mv.bin
Data Source:  Experiment
Instrument Model:  CHI760E
Header: CV ran at 50 mVs
Note: 

Init E (V) = -1
High E (V) = -1
Low E (V) = -1.9
Final E (V) = -1
Init P/N = N
Scan Rate (V/s) = 0.05
Segment = 7
Sample Interval (V) = 0.001
Quiet Time (sec) = 60
Sensitivity (A/V) = 0.001
Comp R (ohm) = 1.8

Results:

Channel 1:
Segment 1:

Segment 2:

Segment 3:

Segment 4:

Segment 5:

Segment 6:

Segment 7:

Potential/V, Current/A

-1.000, 5.572e-7
-1.001, 1.051e-6
-1.002, 1.378e-6
-1.003, 1.506e-6
-1.004, 1.600e-6
-1.005, 1.670e-6
-1.006, 1.725e-6
-1.007, 1.801e-6
-1.008, 1.917e-6
-1.009, 1.852e-6
-1.010, 1.936e-6
-1.011, 1.928e-6
-1.012, 2.009e-6
-1.013, 2.060e-6
-1.014, 2.031e-6
-1.015, 2.036e-6
-1.016, 2.051e-6
-1.017, 2.134e-6
-1.018, 2.185e-6
-1.019, 2.153e-6
-1.020, 2.177e-6
-1.021, 2.160e-6
-1.022, 2.167e-6
-1.023, 2.258e-6
-1.024, 2.231e-6
-1.025, 2.180e-6
-1.026, 2.251e-6
-1.027, 2.238e-6
-1.028, 2.301e-6
-1.029, 2.338e-6
-1.030, 2.273e-6
-1.031, 2.297e-6
-1.032, 2.324e-6
-1.033, 2.347e-6
-1.034, 2.344e-6
-1.035, 2.295e-6
-1.036, 2.299e-6
-1.037, 2.376e-6
-1.038, 2.406e-6
-1.039, 2.416e-6
-1.040, 2.383e-6
-1.041, 2.332e-6
-1.042, 2.431e-6
-1.043, 2.451e-6
-1.044, 2.450e-6
-1.045, 2.448e-6
-1.046, 2.438e-6
-1.047, 2.513e-6
-1.048, 2.495e-6
-1.049, 2.493e-6
-1.050, 2.478e-6
-1.051, 2.469e-6
-1.052, 2.531e-6
-1.053, 2.568e-6
-1.054, 2.498e-6
-1.055, 2.535e-6
-1.056, 2.518e-6
-1.057, 2.556e-6
-1.058, 2.602e-6
-1.059, 2.547e-6
-1.060, 2.543e-6
-1.061, 2.530e-6
-1.062, 2.609e-6
-1.063, 2.680e-6
-1.064, 2.648e-6
-1.065, 2.547e-6
-1.066, 2.606e-6
-1.067, 2.644e-6
-1.068, 2.687e-6
-1.069, 2.695e-6
-1.070, 2.624e-6
-1.071, 2.663e-6
-1.072, 2.734e-6
-1.073, 2.715e-6
-1.074, 2.714e-6
-1.075, 2.699e-6
-1.076, 2.696e-6
-1.077, 2.747e-6
-1.078, 2.783e-6
-1.079, 2.760e-6
-1.080, 2.742e-6
-1.081, 2.723e-6
-1.082, 2.827e-6
-1.083, 2.800e-6
-1.084, 2.795e-6
-1.085, 2.801e-6
-1.086, 2.772e-6
-1.087, 2.848e-6
-1.088, 2.880e-6
-1.089, 2.834e-6
-1.090, 2.811e-6
-1.091, 2.795e-6
-1.092, 2.884e-6
-1.093, 2.954e-6
-1.094, 2.892e-6
-1.095, 2.843e-6
-1.096, 2.847e-6
-1.097, 2.918e-6
-1.098, 2.941e-6
-1.099, 2.931e-6
-1.100, 2.915e-6
-1.101, 2.923e-6
-1.102, 2.965e-6
-1.103, 3.017e-6
-1.104, 2.994e-6
-1.105, 2.909e-6
-1.106, 2.943e-6
-1.107, 3.017e-6
-1.108, 3.073e-6
-1.109, 3.079e-6
-1.110, 3.023e-6
-1.111, 3.032e-6
-1.112, 3.092e-6
-1.113, 3.085e-6
-1.114, 3.090e-6
-1.115, 3.059e-6
-1.116, 3.067e-6
-1.117, 3.157e-6
-1.118, 3.173e-6
-1.119, 3.189e-6
-1.120, 3.157e-6
-1.121, 3.116e-6
-1.122, 3.202e-6
-1.123, 3.234e-6
-1.124, 3.178e-6
-1.125, 3.204e-6
-1.126, 3.242e-6
-1.127, 3.291e-6
-1.128, 3.336e-6
-1.129, 3.282e-6
-1.130, 3.318e-6
-1.131, 3.316e-6
-1.132, 3.326e-6
-1.133, 3.432e-6
-1.134, 3.336e-6
-1.135, 3.368e-6
-1.136, 3.364e-6
-1.137, 3.408e-6
-1.138, 3.472e-6
-1.139, 3.455e-6
-1.140, 3.423e-6
-1.141, 3.426e-6
-1.142, 3.524e-6
-1.143, 3.583e-6
-1.144, 3.530e-6
-1.145, 3.481e-6
-1.146, 3.532e-6
-1.147, 3.595e-6
-1.148, 3.621e-6
-1.149, 3.664e-6
-1.150, 3.604e-6
-1.151, 3.645e-6
-1.152, 3.695e-6
-1.153, 3.726e-6
-1.154, 3.752e-6
-1.155, 3.690e-6
-1.156, 3.707e-6
-1.157, 3.791e-6
-1.158, 3.837e-6
-1.159, 3.799e-6
-1.160, 3.848e-6
-1.161, 3.817e-6
-1.162, 3.927e-6
-1.163, 3.912e-6
-1.164, 3.882e-6
-1.165, 3.898e-6
-1.166, 3.889e-6
-1.167, 3.937e-6
-1.168, 4.012e-6
-1.169, 3.986e-6
-1.170, 3.970e-6
-1.171, 3.979e-6
-1.172, 4.038e-6
-1.173, 4.125e-6
-1.174, 4.062e-6
-1.175, 4.038e-6
-1.176, 4.047e-6
-1.177, 4.089e-6
-1.178, 4.160e-6
-1.179, 4.149e-6
-1.180, 4.097e-6
-1.181, 4.130e-6
-1.182, 4.218e-6
-1.183, 4.287e-6
-1.184, 4.213e-6
-1.185, 4.180e-6
-1.186, 4.270e-6
-1.187, 4.311e-6
-1.188, 4.344e-6
-1.189, 4.336e-6
-1.190, 4.229e-6
-1.191, 4.295e-6
-1.192, 4.361e-6
-1.193, 4.389e-6
-1.194, 4.402e-6
-1.195, 4.341e-6
-1.196, 4.362e-6
-1.197, 4.430e-6
-1.198, 4.459e-6
-1.199, 4.454e-6
-1.200, 4.407e-6
-1.201, 4.436e-6
-1.202, 4.500e-6
-1.203, 4.529e-6
-1.204, 4.524e-6
-1.205, 4.527e-6
-1.206, 4.589e-6
-1.207, 4.656e-6
-1.208, 4.605e-6
-1.209, 4.546e-6
-1.210, 4.587e-6
-1.211, 4.591e-6
-1.212, 4.618e-6
-1.213, 4.679e-6
-1.214, 4.607e-6
-1.215, 4.676e-6
-1.216, 4.660e-6
-1.217, 4.682e-6
-1.218, 4.740e-6
-1.219, 4.675e-6
-1.220, 4.690e-6
-1.221, 4.741e-6
-1.222, 4.786e-6
-1.223, 4.787e-6
-1.224, 4.802e-6
-1.225, 4.713e-6
-1.226, 4.800e-6
-1.227, 4.775e-6
-1.228, 4.850e-6
-1.229, 4.851e-6
-1.230, 4.766e-6
-1.231, 4.785e-6
-1.232, 4.852e-6
-1.233, 4.859e-6
-1.234, 4.855e-6
-1.235, 4.762e-6
-1.236, 4.836e-6
-1.237, 4.887e-6
-1.238, 4.874e-6
-1.239, 4.860e-6
-1.240, 4.953e-6
-1.241, 4.864e-6
-1.242, 4.916e-6
-1.243, 4.883e-6
-1.244, 4.843e-6
-1.245, 4.856e-6
-1.246, 4.835e-6
-1.247, 4.902e-6
-1.248, 4.955e-6
-1.249, 4.861e-6
-1.250, 4.868e-6
-1.251, 4.839e-6
-1.252, 4.873e-6
-1.253, 4.914e-6
-1.254, 4.840e-6
-1.255, 4.836e-6
-1.256, 4.835e-6
-1.257, 4.877e-6
-1.258, 4.939e-6
-1.259, 4.864e-6
-1.260, 4.862e-6
-1.261, 4.913e-6
-1.262, 4.917e-6
-1.263, 4.953e-6
-1.264, 4.865e-6
-1.265, 4.834e-6
-1.266, 4.876e-6
-1.267, 4.869e-6
-1.268, 4.936e-6
-1.269, 5.107e-6
-1.270, 4.959e-6
-1.271, 4.880e-6
-1.272, 4.891e-6
-1.273, 4.874e-6
-1.274, 4.977e-6
-1.275, 4.761e-6
-1.276, 4.832e-6
-1.277, 4.909e-6
-1.278, 4.864e-6
-1.279, 4.864e-6
-1.280, 4.823e-6
-1.281, 4.838e-6
-1.282, 4.933e-6
-1.283, 4.914e-6
-1.284, 4.863e-6
-1.285, 4.862e-6
-1.286, 4.876e-6
-1.287, 4.871e-6
-1.288, 4.893e-6
-1.289, 4.890e-6
-1.290, 4.843e-6
-1.291, 4.778e-6
-1.292, 4.830e-6
-1.293, 4.848e-6
-1.294, 4.813e-6
-1.295, 4.854e-6
-1.296, 4.828e-6
-1.297, 4.944e-6
-1.298, 4.877e-6
-1.299, 4.896e-6
-1.300, 4.783e-6
-1.301, 4.829e-6
-1.302, 4.856e-6
-1.303, 4.942e-6
-1.304, 4.864e-6
-1.305, 4.845e-6
-1.306, 4.868e-6
-1.307, 4.916e-6
-1.308, 4.914e-6
-1.309, 4.879e-6
-1.310, 4.817e-6
-1.311, 4.854e-6
-1.312, 4.898e-6
-1.313, 4.917e-6
-1.314, 4.933e-6
-1.315, 4.899e-6
-1.316, 4.928e-6
-1.317, 4.994e-6
-1.318, 4.953e-6
-1.319, 4.964e-6
-1.320, 4.914e-6
-1.321, 4.922e-6
-1.322, 5.025e-6
-1.323, 4.984e-6
-1.324, 4.995e-6
-1.325, 5.027e-6
-1.326, 5.013e-6
-1.327, 5.075e-6
-1.328, 5.075e-6
-1.329, 5.048e-6
-1.330, 5.044e-6
-1.331, 5.012e-6
-1.332, 5.082e-6
-1.333, 5.138e-6
-1.334, 5.133e-6
-1.335, 5.091e-6
-1.336, 5.092e-6
-1.337, 5.180e-6
-1.338, 5.240e-6
-1.339, 5.172e-6
-1.340, 5.157e-6
-1.341, 5.153e-6
-1.342, 5.172e-6
-1.343, 5.270e-6
-1.344, 5.215e-6
-1.345, 5.183e-6
-1.346, 5.270e-6
-1.347, 5.324e-6
-1.348, 5.357e-6
-1.349, 5.360e-6
-1.350, 5.291e-6
-1.351, 5.379e-6
-1.352, 5.437e-6
-1.353, 5.435e-6
-1.354, 5.452e-6
-1.355, 5.388e-6
-1.356, 5.457e-6
-1.357, 5.553e-6
-1.358, 5.530e-6
-1.359, 5.573e-6
-1.360, 5.564e-6
-1.361, 5.564e-6
-1.362, 5.683e-6
-1.363, 5.662e-6
-1.364, 5.655e-6
-1.365, 5.660e-6
-1.366, 5.653e-6
-1.367, 5.769e-6
-1.368, 5.805e-6
-1.369, 5.777e-6
-1.370, 5.829e-6
-1.371, 5.815e-6
-1.372, 5.877e-6
-1.373, 5.945e-6
-1.374, 5.898e-6
-1.375, 5.899e-6
-1.376, 5.914e-6
-1.377, 5.967e-6
-1.378, 5.994e-6
-1.379, 6.006e-6
-1.380, 6.039e-6
-1.381, 6.060e-6
-1.382, 6.076e-6
-1.383, 6.158e-6
-1.384, 6.135e-6
-1.385, 6.146e-6
-1.386, 6.223e-6
-1.387, 6.245e-6
-1.388, 6.264e-6
-1.389, 6.314e-6
-1.390, 6.251e-6
-1.391, 6.351e-6
-1.392, 6.392e-6
-1.393, 6.429e-6
-1.394, 6.435e-6
-1.395, 6.347e-6
-1.396, 6.464e-6
-1.397, 6.577e-6
-1.398, 6.581e-6
-1.399, 6.560e-6
-1.400, 6.572e-6
-1.401, 6.599e-6
-1.402, 6.675e-6
-1.403, 6.697e-6
-1.404, 6.673e-6
-1.405, 6.702e-6
-1.406, 6.727e-6
-1.407, 6.832e-6
-1.408, 6.858e-6
-1.409, 6.780e-6
-1.410, 6.866e-6
-1.411, 6.838e-6
-1.412, 6.949e-6
-1.413, 7.004e-6
-1.414, 6.951e-6
-1.415, 6.979e-6
-1.416, 6.968e-6
-1.417, 7.062e-6
-1.418, 7.126e-6
-1.419, 7.087e-6
-1.420, 7.140e-6
-1.421, 7.201e-6
-1.422, 7.235e-6
-1.423, 7.325e-6
-1.424, 7.267e-6
-1.425, 7.279e-6
-1.426, 7.384e-6
-1.427, 7.423e-6
-1.428, 7.419e-6
-1.429, 7.466e-6
-1.430, 7.483e-6
-1.431, 7.521e-6
-1.432, 7.578e-6
-1.433, 7.612e-6
-1.434, 7.663e-6
-1.435, 7.614e-6
-1.436, 7.699e-6
-1.437, 7.854e-6
-1.438, 7.887e-6
-1.439, 7.945e-6
-1.440, 7.890e-6
-1.441, 7.914e-6
-1.442, 8.044e-6
-1.443, 8.079e-6
-1.444, 8.037e-6
-1.445, 8.119e-6
-1.446, 8.127e-6
-1.447, 8.264e-6
-1.448, 8.304e-6
-1.449, 8.291e-6
-1.450, 8.362e-6
-1.451, 8.415e-6
-1.452, 8.492e-6
-1.453, 8.674e-6
-1.454, 8.577e-6
-1.455, 8.595e-6
-1.456, 8.674e-6
-1.457, 8.750e-6
-1.458, 8.837e-6
-1.459, 8.801e-6
-1.460, 8.831e-6
-1.461, 8.945e-6
-1.462, 9.063e-6
-1.463, 9.058e-6
-1.464, 9.090e-6
-1.465, 9.125e-6
-1.466, 9.173e-6
-1.467, 9.334e-6
-1.468, 9.375e-6
-1.469, 9.373e-6
-1.470, 9.413e-6
-1.471, 9.473e-6
-1.472, 9.612e-6
-1.473, 9.673e-6
-1.474, 9.662e-6
-1.475, 9.740e-6
-1.476, 9.745e-6
-1.477, 9.930e-6
-1.478, 9.988e-6
-1.479, 9.964e-6
-1.480, 1.003e-5
-1.481, 1.004e-5
-1.482, 1.024e-5
-1.483, 1.031e-5
-1.484, 1.037e-5
-1.485, 1.037e-5
-1.486, 1.048e-5
-1.487, 1.053e-5
-1.488, 1.058e-5
-1.489, 1.063e-5
-1.490, 1.064e-5
-1.491, 1.075e-5
-1.492, 1.091e-5
-1.493, 1.104e-5
-1.494, 1.116e-5
-1.495, 1.104e-5
-1.496, 1.111e-5
-1.497, 1.130e-5
-1.498, 1.134e-5
-1.499, 1.144e-5
-1.500, 1.141e-5
-1.501, 1.156e-5
-1.502, 1.174e-5
-1.503, 1.175e-5
-1.504, 1.177e-5
-1.505, 1.188e-5
-1.506, 1.195e-5
-1.507, 1.212e-5
-1.508, 1.216e-5
-1.509, 1.222e-5
-1.510, 1.230e-5
-1.511, 1.237e-5
-1.512, 1.250e-5
-1.513, 1.254e-5
-1.514, 1.255e-5
-1.515, 1.267e-5
-1.516, 1.275e-5
-1.517, 1.298e-5
-1.518, 1.302e-5
-1.519, 1.302e-5
-1.520, 1.313e-5
-1.521, 1.319e-5
-1.522, 1.341e-5
-1.523, 1.345e-5
-1.524, 1.347e-5
-1.525, 1.363e-5
-1.526, 1.368e-5
-1.527, 1.391e-5
-1.528, 1.393e-5
-1.529, 1.392e-5
-1.530, 1.404e-5
-1.531, 1.416e-5
-1.532, 1.438e-5
-1.533, 1.447e-5
-1.534, 1.448e-5
-1.535, 1.461e-5
-1.536, 1.477e-5
-1.537, 1.486e-5
-1.538, 1.497e-5
-1.539, 1.503e-5
-1.540, 1.518e-5
-1.541, 1.534e-5
-1.542, 1.539e-5
-1.543, 1.555e-5
-1.544, 1.560e-5
-1.545, 1.571e-5
-1.546, 1.592e-5
-1.547, 1.603e-5
-1.548, 1.610e-5
-1.549, 1.615e-5
-1.550, 1.626e-5
-1.551, 1.648e-5
-1.552, 1.655e-5
-1.553, 1.669e-5
-1.554, 1.683e-5
-1.555, 1.693e-5
-1.556, 1.708e-5
-1.557, 1.724e-5
-1.558, 1.732e-5
-1.559, 1.743e-5
-1.560, 1.758e-5
-1.561, 1.772e-5
-1.562, 1.796e-5
-1.563, 1.800e-5
-1.564, 1.815e-5
-1.565, 1.825e-5
-1.566, 1.835e-5
-1.567, 1.853e-5
-1.568, 1.867e-5
-1.569, 1.873e-5
-1.570, 1.887e-5
-1.571, 1.906e-5
-1.572, 1.943e-5
-1.573, 1.952e-5
-1.574, 1.959e-5
-1.575, 1.971e-5
-1.576, 1.979e-5
-1.577, 2.002e-5
-1.578, 2.015e-5
-1.579, 2.032e-5
-1.580, 2.081e-5
-1.581, 2.063e-5
-1.582, 2.071e-5
-1.583, 2.092e-5
-1.584, 2.103e-5
-1.585, 2.122e-5
-1.586, 2.150e-5
-1.587, 2.172e-5
-1.588, 2.186e-5
-1.589, 2.193e-5
-1.590, 2.211e-5
-1.591, 2.247e-5
-1.592, 2.255e-5
-1.593, 2.278e-5
-1.594, 2.294e-5
-1.595, 2.293e-5
-1.596, 2.334e-5
-1.597, 2.346e-5
-1.598, 2.367e-5
-1.599, 2.391e-5
-1.600, 2.449e-5
-1.601, 2.604e-5
-1.602, 2.576e-5
-1.603, 2.557e-5
-1.604, 2.583e-5
-1.605, 2.597e-5
-1.606, 2.645e-5
-1.607, 2.715e-5
-1.608, 2.761e-5
-1.609, 2.795e-5
-1.610, 2.814e-5
-1.611, 2.808e-5
-1.612, 2.824e-5
-1.613, 2.815e-5
-1.614, 2.816e-5
-1.615, 2.828e-5
-1.616, 2.845e-5
-1.617, 2.864e-5
-1.618, 2.862e-5
-1.619, 2.870e-5
-1.620, 2.887e-5
-1.621, 2.911e-5
-1.622, 2.937e-5
-1.623, 2.965e-5
-1.624, 2.979e-5
-1.625, 3.016e-5
-1.626, 3.052e-5
-1.627, 3.080e-5
-1.628, 3.116e-5
-1.629, 3.134e-5
-1.630, 3.155e-5
-1.631, 3.212e-5
-1.632, 3.247e-5
-1.633, 3.278e-5
-1.634, 3.306e-5
-1.635, 3.328e-5
-1.636, 3.365e-5
-1.637, 3.402e-5
-1.638, 3.441e-5
-1.639, 3.477e-5
-1.640, 3.527e-5
-1.641, 3.547e-5
-1.642, 3.587e-5
-1.643, 3.616e-5
-1.644, 3.651e-5
-1.645, 3.686e-5
-1.646, 3.732e-5
-1.647, 3.781e-5
-1.648, 3.814e-5
-1.649, 3.851e-5
-1.650, 3.881e-5
-1.651, 3.922e-5
-1.652, 3.996e-5
-1.653, 4.042e-5
-1.654, 4.068e-5
-1.655, 4.153e-5
-1.656, 4.223e-5
-1.657, 4.229e-5
-1.658, 4.263e-5
-1.659, 4.303e-5
-1.660, 4.357e-5
-1.661, 4.419e-5
-1.662, 4.493e-5
-1.663, 4.559e-5
-1.664, 4.583e-5
-1.665, 4.644e-5
-1.666, 4.706e-5
-1.667, 4.761e-5
-1.668, 4.832e-5
-1.669, 4.882e-5
-1.670, 4.953e-5
-1.671, 5.033e-5
-1.672, 5.110e-5
-1.673, 5.172e-5
-1.674, 5.222e-5
-1.675, 5.284e-5
-1.676, 5.368e-5
-1.677, 5.438e-5
-1.678, 5.522e-5
-1.679, 5.590e-5
-1.680, 5.670e-5
-1.681, 5.760e-5
-1.682, 5.855e-5
-1.683, 5.940e-5
-1.684, 6.026e-5
-1.685, 6.089e-5
-1.686, 6.192e-5
-1.687, 6.318e-5
-1.688, 6.392e-5
-1.689, 6.482e-5
-1.690, 6.577e-5
-1.691, 6.694e-5
-1.692, 6.805e-5
-1.693, 6.911e-5
-1.694, 7.014e-5
-1.695, 7.112e-5
-1.696, 7.234e-5
-1.697, 7.361e-5
-1.698, 7.494e-5
-1.699, 7.604e-5
-1.700, 7.731e-5
-1.701, 7.866e-5
-1.702, 8.009e-5
-1.703, 8.136e-5
-1.704, 8.269e-5
-1.705, 8.423e-5
-1.706, 8.577e-5
-1.707, 8.744e-5
-1.708, 8.908e-5
-1.709, 9.043e-5
-1.710, 9.254e-5
-1.711, 9.418e-5
-1.712, 9.564e-5
-1.713, 9.732e-5
-1.714, 9.931e-5
-1.715, 1.012e-4
-1.716, 1.031e-4
-1.717, 1.053e-4
-1.718, 1.074e-4
-1.719, 1.094e-4
-1.720, 1.116e-4
-1.721, 1.136e-4
-1.722, 1.160e-4
-1.723, 1.181e-4
-1.724, 1.206e-4
-1.725, 1.232e-4
-1.726, 1.259e-4
-1.727, 1.287e-4
-1.728, 1.317e-4
-1.729, 1.344e-4
-1.730, 1.374e-4
-1.731, 1.405e-4
-1.732, 1.437e-4
-1.733, 1.468e-4
-1.734, 1.500e-4
-1.735, 1.534e-4
-1.736, 1.571e-4
-1.737, 1.609e-4
-1.738, 1.647e-4
-1.739, 1.684e-4
-1.740, 1.724e-4
-1.741, 1.766e-4
-1.742, 1.811e-4
-1.743, 1.852e-4
-1.744, 1.897e-4
-1.745, 1.943e-4
-1.746, 1.993e-4
-1.747, 2.042e-4
-1.748, 2.096e-4
-1.749, 2.149e-4
-1.750, 2.203e-4
-1.751, 2.263e-4
-1.752, 2.324e-4
-1.753, 2.386e-4
-1.754, 2.446e-4
-1.755, 2.511e-4
-1.756, 2.579e-4
-1.757, 2.649e-4
-1.758, 2.722e-4
-1.759, 2.791e-4
-1.760, 2.866e-4
-1.761, 2.950e-4
-1.762, 3.034e-4
-1.763, 3.120e-4
-1.764, 3.207e-4
-1.765, 3.299e-4
-1.766, 3.394e-4
-1.767, 3.494e-4
-1.768, 3.596e-4
-1.769, 3.699e-4
-1.770, 3.806e-4
-1.771, 3.920e-4
-1.772, 4.041e-4
-1.773, 4.167e-4
-1.774, 4.289e-4
-1.775, 4.417e-4
-1.776, 4.552e-4
-1.777, 4.690e-4
-1.778, 4.824e-4
-1.779, 4.973e-4
-1.780, 5.130e-4
-1.781, 5.292e-4
-1.782, 5.463e-4
-1.783, 5.638e-4
-1.784, 5.818e-4
-1.785, 6.000e-4
-1.786, 6.193e-4
-1.787, 6.394e-4
-1.788, 6.596e-4
-1.789, 6.802e-4
-1.790, 7.024e-4
-1.791, 7.254e-4
-1.792, 7.489e-4
-1.793, 7.734e-4
-1.794, 7.982e-4
-1.795, 8.234e-4
-1.796, 8.499e-4
-1.797, 8.777e-4
-1.798, 9.059e-4
-1.799, 9.345e-4
-1.800, 9.642e-4
-1.801, 9.950e-4
-1.802, 1.027e-3
-1.803, 1.059e-3
-1.804, 1.092e-3
-1.805, 1.127e-3
-1.806, 1.163e-3
-1.807, 1.199e-3
-1.808, 1.236e-3
-1.809, 1.275e-3
-1.810, 1.314e-3
-1.811, 1.354e-3
-1.812, 1.397e-3
-1.813, 1.439e-3
-1.814, 1.482e-3
-1.815, 1.526e-3
-1.816, 1.573e-3
-1.817, 1.620e-3
-1.818, 1.667e-3
-1.819, 1.715e-3
-1.820, 1.766e-3
-1.821, 1.817e-3
-1.822, 1.867e-3
-1.823, 1.920e-3
-1.824, 1.975e-3
-1.825, 2.030e-3
-1.826, 2.085e-3
-1.827, 2.144e-3
-1.828, 2.203e-3
-1.829, 2.260e-3
-1.830, 2.320e-3
-1.831, 2.384e-3
-1.832, 2.447e-3
-1.833, 2.508e-3
-1.834, 2.572e-3
-1.835, 2.639e-3
-1.836, 2.703e-3
-1.837, 2.768e-3
-1.838, 2.839e-3
-1.839, 2.911e-3
-1.840, 2.978e-3
-1.841, 3.046e-3
-1.842, 3.120e-3
-1.843, 3.193e-3
-1.844, 3.262e-3
-1.845, 3.334e-3
-1.846, 3.414e-3
-1.847, 3.489e-3
-1.848, 3.562e-3
-1.849, 3.641e-3
-1.850, 3.722e-3
-1.851, 3.803e-3
-1.852, 3.879e-3
-1.853, 3.963e-3
-1.854, 4.046e-3
-1.855, 4.122e-3
-1.856, 4.201e-3
-1.857, 4.291e-3
-1.858, 4.381e-3
-1.859, 4.464e-3
-1.860, 4.547e-3
-1.861, 4.633e-3
-1.862, 4.718e-3
-1.863, 4.800e-3
-1.864, 4.894e-3
-1.865, 4.986e-3
-1.866, 5.067e-3
-1.867, 5.152e-3
-1.868, 5.253e-3
-1.869, 5.348e-3
-1.870, 5.426e-3
-1.871, 5.503e-3
-1.872, 5.577e-3
-1.873, 5.662e-3
-1.874, 5.744e-3
-1.875, 5.837e-3
-1.876, 5.946e-3
-1.877, 6.047e-3
-1.878, 6.137e-3
-1.879, 6.230e-3
-1.880, 6.316e-3
-1.881, 6.396e-3
-1.882, 6.491e-3
-1.883, 6.607e-3
-1.884, 6.721e-3
-1.885, 6.810e-3
-1.886, 6.896e-3
-1.887, 7.000e-3
-1.888, 7.119e-3
-1.889, 7.214e-3
-1.890, 7.322e-3
-1.891, 7.447e-3
-1.892, 7.559e-3
-1.893, 7.646e-3
-1.894, 7.751e-3
-1.895, 7.880e-3
-1.896, 7.988e-3
-1.897, 8.067e-3
-1.898, 8.176e-3
-1.899, 8.300e-3
-1.900, 8.344e-3
-1.899, 8.311e-3
-1.898, 8.277e-3
-1.897, 8.230e-3
-1.896, 8.156e-3
-1.895, 8.109e-3
-1.894, 8.079e-3
-1.893, 8.024e-3
-1.892, 7.941e-3
-1.891, 7.877e-3
-1.890, 7.835e-3
-1.889, 7.766e-3
-1.888, 7.684e-3
-1.887, 7.624e-3
-1.886, 7.571e-3
-1.885, 7.490e-3
-1.884, 7.410e-3
-1.883, 7.355e-3
-1.882, 7.301e-3
-1.881, 7.226e-3
-1.880, 7.159e-3
-1.879, 7.106e-3
-1.878, 7.042e-3
-1.877, 6.945e-3
-1.876, 6.873e-3
-1.875, 6.829e-3
-1.874, 6.773e-3
-1.873, 6.701e-3
-1.872, 6.633e-3
-1.871, 6.577e-3
-1.870, 6.502e-3
-1.869, 6.442e-3
-1.868, 6.403e-3
-1.867, 6.353e-3
-1.866, 6.283e-3
-1.865, 6.213e-3
-1.864, 6.161e-3
-1.863, 6.114e-3
-1.862, 6.048e-3
-1.861, 5.976e-3
-1.860, 5.922e-3
-1.859, 5.869e-3
-1.858, 5.802e-3
-1.857, 5.742e-3
-1.856, 5.690e-3
-1.855, 5.622e-3
-1.854, 5.555e-3
-1.853, 5.499e-3
-1.852, 5.448e-3
-1.851, 5.392e-3
-1.850, 5.338e-3
-1.849, 5.293e-3
-1.848, 5.243e-3
-1.847, 5.175e-3
-1.846, 5.110e-3
-1.845, 5.054e-3
-1.844, 4.997e-3
-1.843, 4.938e-3
-1.842, 4.882e-3
-1.841, 4.838e-3
-1.840, 4.790e-3
-1.839, 4.734e-3
-1.838, 4.680e-3
-1.837, 4.634e-3
-1.836, 4.582e-3
-1.835, 4.531e-3
-1.834, 4.482e-3
-1.833, 4.434e-3
-1.832, 4.379e-3
-1.831, 4.324e-3
-1.830, 4.276e-3
-1.829, 4.228e-3
-1.828, 4.167e-3
-1.827, 4.109e-3
-1.826, 4.059e-3
-1.825, 4.013e-3
-1.824, 3.957e-3
-1.823, 3.901e-3
-1.822, 3.863e-3
-1.821, 3.821e-3
-1.820, 3.773e-3
-1.819, 3.726e-3
-1.818, 3.686e-3
-1.817, 3.639e-3
-1.816, 3.590e-3
-1.815, 3.544e-3
-1.814, 3.501e-3
-1.813, 3.453e-3
-1.812, 3.402e-3
-1.811, 3.356e-3
-1.810, 3.312e-3
-1.809, 3.265e-3
-1.808, 3.220e-3
-1.807, 3.181e-3
-1.806, 3.135e-3
-1.805, 3.087e-3
-1.804, 3.042e-3
-1.803, 3.004e-3
-1.802, 2.964e-3
-1.801, 2.921e-3
-1.800, 2.878e-3
-1.799, 2.838e-3
-1.798, 2.795e-3
-1.797, 2.750e-3
-1.796, 2.712e-3
-1.795, 2.674e-3
-1.794, 2.631e-3
-1.793, 2.587e-3
-1.792, 2.546e-3
-1.791, 2.508e-3
-1.790, 2.469e-3
-1.789, 2.434e-3
-1.788, 2.400e-3
-1.787, 2.361e-3
-1.786, 2.322e-3
-1.785, 2.284e-3
-1.784, 2.247e-3
-1.783, 2.211e-3
-1.782, 2.174e-3
-1.781, 2.138e-3
-1.780, 2.104e-3
-1.779, 2.068e-3
-1.778, 2.033e-3
-1.777, 1.999e-3
-1.776, 1.963e-3
-1.775, 1.929e-3
-1.774, 1.898e-3
-1.773, 1.866e-3
-1.772, 1.833e-3
-1.771, 1.800e-3
-1.770, 1.769e-3
-1.769, 1.738e-3
-1.768, 1.707e-3
-1.767, 1.678e-3
-1.766, 1.648e-3
-1.765, 1.618e-3
-1.764, 1.588e-3
-1.763, 1.560e-3
-1.762, 1.532e-3
-1.761, 1.503e-3
-1.760, 1.476e-3
-1.759, 1.449e-3
-1.758, 1.422e-3
-1.757, 1.395e-3
-1.756, 1.369e-3
-1.755, 1.344e-3
-1.754, 1.318e-3
-1.753, 1.293e-3
-1.752, 1.270e-3
-1.751, 1.245e-3
-1.750, 1.221e-3
-1.749, 1.198e-3
-1.748, 1.176e-3
-1.747, 1.153e-3
-1.746, 1.130e-3
-1.745, 1.107e-3
-1.744, 1.086e-3
-1.743, 1.064e-3
-1.742, 1.043e-3
-1.741, 1.023e-3
-1.740, 1.003e-3
-1.739, 9.823e-4
-1.738, 9.621e-4
-1.737, 9.429e-4
-1.736, 9.237e-4
-1.735, 9.046e-4
-1.734, 8.863e-4
-1.733, 8.683e-4
-1.732, 8.505e-4
-1.731, 8.329e-4
-1.730, 8.162e-4
-1.729, 8.001e-4
-1.728, 7.839e-4
-1.727, 7.676e-4
-1.726, 7.520e-4
-1.725, 7.365e-4
-1.724, 7.209e-4
-1.723, 7.060e-4
-1.722, 6.911e-4
-1.721, 6.762e-4
-1.720, 6.619e-4
-1.719, 6.479e-4
-1.718, 6.345e-4
-1.717, 6.210e-4
-1.716, 6.076e-4
-1.715, 5.957e-4
-1.714, 5.830e-4
-1.713, 5.702e-4
-1.712, 5.576e-4
-1.711, 5.453e-4
-1.710, 5.338e-4
-1.709, 5.224e-4
-1.708, 5.114e-4
-1.707, 5.003e-4
-1.706, 4.889e-4
-1.705, 4.781e-4
-1.704, 4.679e-4
-1.703, 4.579e-4
-1.702, 4.476e-4
-1.701, 4.374e-4
-1.700, 4.279e-4
-1.699, 4.185e-4
-1.698, 4.094e-4
-1.697, 4.003e-4
-1.696, 3.913e-4
-1.695, 3.829e-4
-1.694, 3.748e-4
-1.693, 3.665e-4
-1.692, 3.577e-4
-1.691, 3.493e-4
-1.690, 3.411e-4
-1.689, 3.335e-4
-1.688, 3.262e-4
-1.687, 3.188e-4
-1.686, 3.115e-4
-1.685, 3.046e-4
-1.684, 2.981e-4
-1.683, 2.914e-4
-1.682, 2.848e-4
-1.681, 2.781e-4
-1.680, 2.718e-4
-1.679, 2.657e-4
-1.678, 2.598e-4
-1.677, 2.540e-4
-1.676, 2.481e-4
-1.675, 2.425e-4
-1.674, 2.372e-4
-1.673, 2.319e-4
-1.672, 2.265e-4
-1.671, 2.212e-4
-1.670, 2.163e-4
-1.669, 2.114e-4
-1.668, 2.065e-4
-1.667, 2.017e-4
-1.666, 1.971e-4
-1.665, 1.927e-4
-1.664, 1.884e-4
-1.663, 1.841e-4
-1.662, 1.799e-4
-1.661, 1.757e-4
-1.660, 1.718e-4
-1.659, 1.679e-4
-1.658, 1.641e-4
-1.657, 1.602e-4
-1.656, 1.565e-4
-1.655, 1.530e-4
-1.654, 1.495e-4
-1.653, 1.461e-4
-1.652, 1.428e-4
-1.651, 1.395e-4
-1.650, 1.363e-4
-1.649, 1.333e-4
-1.648, 1.303e-4
-1.647, 1.273e-4
-1.646, 1.242e-4
-1.645, 1.215e-4
-1.644, 1.189e-4
-1.643, 1.162e-4
-1.642, 1.134e-4
-1.641, 1.108e-4
-1.640, 1.083e-4
-1.639, 1.059e-4
-1.638, 1.036e-4
-1.637, 1.012e-4
-1.636, 9.881e-5
-1.635, 9.667e-5
-1.634, 9.448e-5
-1.633, 9.238e-5
-1.632, 9.031e-5
-1.631, 8.817e-5
-1.630, 8.625e-5
-1.629, 8.435e-5
-1.628, 8.246e-5
-1.627, 8.057e-5
-1.626, 7.868e-5
-1.625, 7.686e-5
-1.624, 7.525e-5
-1.623, 7.362e-5
-1.622, 7.178e-5
-1.621, 7.020e-5
-1.620, 6.867e-5
-1.619, 6.712e-5
-1.618, 6.564e-5
-1.617, 6.411e-5
-1.616, 6.265e-5
-1.615, 6.133e-5
-1.614, 6.000e-5
-1.613, 5.860e-5
-1.612, 5.729e-5
-1.611, 5.596e-5
-1.610, 5.475e-5
-1.609, 5.359e-5
-1.608, 5.239e-5
-1.607, 5.115e-5
-1.606, 5.002e-5
-1.605, 4.894e-5
-1.604, 4.789e-5
-1.603, 4.685e-5
-1.602, 4.569e-5
-1.601, 4.463e-5
-1.600, 4.369e-5
-1.599, 4.281e-5
-1.598, 4.179e-5
-1.597, 4.085e-5
-1.596, 3.992e-5
-1.595, 3.904e-5
-1.594, 3.823e-5
-1.593, 3.732e-5
-1.592, 3.643e-5
-1.591, 3.564e-5
-1.590, 3.489e-5
-1.589, 3.414e-5
-1.588, 3.339e-5
-1.587, 3.256e-5
-1.586, 3.185e-5
-1.585, 3.117e-5
-1.584, 3.052e-5
-1.583, 2.980e-5
-1.582, 2.911e-5
-1.581, 2.841e-5
-1.580, 2.790e-5
-1.579, 2.726e-5
-1.578, 2.669e-5
-1.577, 2.608e-5
-1.576, 2.544e-5
-1.575, 2.490e-5
-1.574, 2.441e-5
-1.573, 2.377e-5
-1.572, 2.324e-5
-1.571, 2.275e-5
-1.570, 2.223e-5
-1.569, 2.184e-5
-1.568, 2.129e-5
-1.567, 2.080e-5
-1.566, 2.035e-5
-1.565, 1.998e-5
-1.564, 1.955e-5
-1.563, 1.916e-5
-1.562, 1.867e-5
-1.561, 1.822e-5
-1.560, 1.789e-5
-1.559, 1.741e-5
-1.558, 1.697e-5
-1.557, 1.660e-5
-1.556, 1.618e-5
-1.555, 1.583e-5
-1.554, 1.560e-5
-1.553, 1.516e-5
-1.552, 1.475e-5
-1.551, 1.448e-5
-1.550, 1.414e-5
-1.549, 1.382e-5
-1.548, 1.349e-5
-1.547, 1.313e-5
-1.546, 1.282e-5
-1.545, 1.261e-5
-1.544, 1.232e-5
-1.543, 1.201e-5
-1.542, 1.167e-5
-1.541, 1.141e-5
-1.540, 1.117e-5
-1.539, 1.093e-5
-1.538, 1.061e-5
-1.537, 1.034e-5
-1.536, 1.011e-5
-1.535, 9.880e-6
-1.534, 9.720e-6
-1.533, 9.452e-6
-1.532, 9.164e-6
-1.531, 8.935e-6
-1.530, 8.738e-6
-1.529, 8.604e-6
-1.528, 8.385e-6
-1.527, 8.135e-6
-1.526, 7.936e-6
-1.525, 7.828e-6
-1.524, 7.587e-6
-1.523, 7.369e-6
-1.522, 7.161e-6
-1.521, 6.952e-6
-1.520, 6.831e-6
-1.519, 6.709e-6
-1.518, 6.546e-6
-1.517, 6.338e-6
-1.516, 6.178e-6
-1.515, 6.021e-6
-1.514, 5.942e-6
-1.513, 5.704e-6
-1.512, 5.523e-6
-1.511, 5.438e-6
-1.510, 5.226e-6
-1.509, 5.143e-6
-1.508, 5.001e-6
-1.507, 4.791e-6
-1.506, 4.695e-6
-1.505, 4.664e-6
-1.504, 4.471e-6
-1.503, 4.432e-6
-1.502, 4.258e-6
-1.501, 4.108e-6
-1.500, 4.076e-6
-1.499, 3.983e-6
-1.498, 3.831e-6
-1.497, 3.691e-6
-1.496, 3.598e-6
-1.495, 3.495e-6
-1.494, 3.481e-6
-1.493, 3.284e-6
-1.492, 3.144e-6
-1.491, 3.111e-6
-1.490, 3.045e-6
-1.489, 2.965e-6
-1.488, 2.881e-6
-1.487, 2.648e-6
-1.486, 2.623e-6
-1.485, 2.569e-6
-1.484, 2.483e-6
-1.483, 2.398e-6
-1.482, 2.272e-6
-1.481, 2.178e-6
-1.480, 2.186e-6
-1.479, 2.128e-6
-1.478, 2.001e-6
-1.477, 1.936e-6
-1.476, 1.884e-6
-1.475, 1.817e-6
-1.474, 1.799e-6
-1.473, 1.665e-6
-1.472, 1.540e-6
-1.471, 1.571e-6
-1.470, 1.481e-6
-1.469, 1.460e-6
-1.468, 1.408e-6
-1.467, 1.324e-6
-1.466, 1.259e-6
-1.465, 1.255e-6
-1.464, 1.155e-6
-1.463, 1.141e-6
-1.462, 1.042e-6
-1.461, 9.765e-7
-1.460, 9.716e-7
-1.459, 9.055e-7
-1.458, 8.098e-7
-1.457, 7.378e-7
-1.456, 7.023e-7
-1.455, 6.727e-7
-1.454, 7.200e-7
-1.453, 5.483e-7
-1.452, 5.040e-7
-1.451, 4.872e-7
-1.450, 4.655e-7
-1.449, 4.970e-7
-1.448, 4.290e-7
-1.447, 3.037e-7
-1.446, 2.879e-7
-1.445, 3.086e-7
-1.444, 2.366e-7
-1.443, 1.833e-7
-1.442, 1.251e-7
-1.441, 6.492e-8
-1.440, 6.097e-8
-1.439, 7.676e-8
-1.438, -6.630e-8
-1.437, -5.545e-8
-1.436, -8.011e-8
-1.435, -8.307e-8
-1.434, -1.028e-7
-1.433, -1.679e-7
-1.432, -2.705e-7
-1.431, -2.222e-7
-1.430, -2.646e-7
-1.429, -2.863e-7
-1.428, -3.149e-7
-1.427, -3.583e-7
-1.426, -4.008e-7
-1.425, -3.593e-7
-1.424, -4.195e-7
-1.423, -4.077e-7
-1.422, -5.231e-7
-1.421, -5.359e-7
-1.420, -5.043e-7
-1.419, -5.162e-7
-1.418, -6.119e-7
-1.417, -5.803e-7
-1.416, -6.415e-7
-1.415, -6.326e-7
-1.414, -6.346e-7
-1.413, -7.273e-7
-1.412, -7.618e-7
-1.411, -7.362e-7
-1.410, -7.766e-7
-1.409, -7.451e-7
-1.408, -7.747e-7
-1.407, -8.536e-7
-1.406, -8.319e-7
-1.405, -8.003e-7
-1.404, -8.062e-7
-1.403, -8.260e-7
-1.402, -8.773e-7
-1.401, -9.375e-7
-1.400, -8.763e-7
-1.399, -9.700e-7
-1.398, -9.858e-7
-1.397, -9.592e-7
-1.396, -1.038e-6
-1.395, -9.838e-7
-1.394, -9.542e-7
-1.393, -1.049e-6
-1.392, -1.063e-6
-1.391, -1.037e-6
-1.390, -1.033e-6
-1.389, -1.043e-6
-1.388, -1.079e-6
-1.387, -1.196e-6
-1.386, -1.135e-6
-1.385, -1.105e-6
-1.384, -1.129e-6
-1.383, -1.142e-6
-1.382, -1.217e-6
-1.381, -1.221e-6
-1.380, -1.148e-6
-1.379, -1.202e-6
-1.378, -1.270e-6
-1.377, -1.271e-6
-1.376, -1.309e-6
-1.375, -1.250e-6
-1.374, -1.238e-6
-1.373, -1.284e-6
-1.372, -1.331e-6
-1.371, -1.290e-6
-1.370, -1.315e-6
-1.369, -1.314e-6
-1.368, -1.340e-6
-1.367, -1.391e-6
-1.366, -1.366e-6
-1.365, -1.330e-6
-1.364, -1.407e-6
-1.363, -1.376e-6
-1.362, -1.399e-6
-1.361, -1.432e-6
-1.360, -1.376e-6
-1.359, -1.421e-6
-1.358, -1.439e-6
-1.357, -1.452e-6
-1.356, -1.480e-6
-1.355, -1.472e-6
-1.354, -1.424e-6
-1.353, -1.541e-6
-1.352, -1.538e-6
-1.351, -1.507e-6
-1.350, -1.489e-6
-1.349, -1.515e-6
-1.348, -1.524e-6
-1.347, -1.582e-6
-1.346, -1.590e-6
-1.345, -1.474e-6
-1.344, -1.537e-6
-1.343, -1.507e-6
-1.342, -1.475e-6
-1.341, -1.515e-6
-1.340, -1.458e-6
-1.339, -1.515e-6
-1.338, -1.564e-6
-1.337, -1.543e-6
-1.336, -1.544e-6
-1.335, -1.550e-6
-1.334, -1.537e-6
-1.333, -1.578e-6
-1.332, -1.628e-6
-1.331, -1.613e-6
-1.330, -1.563e-6
-1.329, -1.568e-6
-1.328, -1.610e-6
-1.327, -1.669e-6
-1.326, -1.611e-6
-1.325, -1.586e-6
-1.324, -1.603e-6
-1.323, -1.654e-6
-1.322, -1.650e-6
-1.321, -1.703e-6
-1.320, -1.609e-6
-1.319, -1.636e-6
-1.318, -1.697e-6
-1.317, -1.691e-6
-1.316, -1.693e-6
-1.315, -1.685e-6
-1.314, -1.637e-6
-1.313, -1.715e-6
-1.312, -1.753e-6
-1.311, -1.680e-6
-1.310, -1.697e-6
-1.309, -1.672e-6
-1.308, -1.692e-6
-1.307, -1.795e-6
-1.306, -1.708e-6
-1.305, -1.703e-6
-1.304, -1.725e-6
-1.303, -1.789e-6
-1.302, -1.771e-6
-1.301, -1.773e-6
-1.300, -1.716e-6
-1.299, -1.751e-6
-1.298, -1.771e-6
-1.297, -1.785e-6
-1.296, -1.771e-6
-1.295, -1.755e-6
-1.294, -1.725e-6
-1.293, -1.838e-6
-1.292, -1.856e-6
-1.291, -1.792e-6
-1.290, -1.772e-6
-1.289, -1.814e-6
-1.288, -1.763e-6
-1.287, -1.851e-6
-1.286, -1.782e-6
-1.285, -1.767e-6
-1.284, -1.815e-6
-1.283, -1.859e-6
-1.282, -1.849e-6
-1.281, -1.861e-6
-1.280, -1.827e-6
-1.279, -1.856e-6
-1.278, -1.904e-6
-1.277, -1.867e-6
-1.276, -1.900e-6
-1.275, -1.817e-6
-1.274, -1.888e-6
-1.273, -1.898e-6
-1.272, -1.939e-6
-1.271, -1.882e-6
-1.270, -1.888e-6
-1.269, -1.896e-6
-1.268, -1.925e-6
-1.267, -2.011e-6
-1.266, -1.965e-6
-1.265, -1.908e-6
-1.264, -1.947e-6
-1.263, -1.966e-6
-1.262, -1.990e-6
-1.261, -2.034e-6
-1.260, -1.979e-6
-1.259, -1.967e-6
-1.258, -2.053e-6
-1.257, -2.032e-6
-1.256, -2.038e-6
-1.255, -1.999e-6
-1.254, -2.037e-6
-1.253, -2.055e-6
-1.252, -2.123e-6
-1.251, -2.058e-6
-1.250, -2.046e-6
-1.249, -2.060e-6
-1.248, -2.063e-6
-1.247, -2.144e-6
-1.246, -2.130e-6
-1.245, -2.053e-6
-1.244, -2.082e-6
-1.243, -2.173e-6
-1.242, -2.146e-6
-1.241, -2.146e-6
-1.240, -2.177e-6
-1.239, -2.114e-6
-1.238, -2.164e-6
-1.237, -2.239e-6
-1.236, -2.160e-6
-1.235, -2.190e-6
-1.234, -2.204e-6
-1.233, -2.255e-6
-1.232, -2.282e-6
-1.231, -2.264e-6
-1.230, -2.182e-6
-1.229, -2.281e-6
-1.228, -2.318e-6
-1.227, -2.304e-6
-1.226, -2.292e-6
-1.225, -2.273e-6
-1.224, -2.262e-6
-1.223, -2.350e-6
-1.222, -2.359e-6
-1.221, -2.298e-6
-1.220, -2.295e-6
-1.219, -2.333e-6
-1.218, -2.339e-6
-1.217, -2.396e-6
-1.216, -2.328e-6
-1.215, -2.317e-6
-1.214, -2.378e-6
-1.213, -2.417e-6
-1.212, -2.432e-6
-1.211, -2.440e-6
-1.210, -2.335e-6
-1.209, -2.420e-6
-1.208, -2.438e-6
-1.207, -2.416e-6
-1.206, -2.356e-6
-1.205, -2.349e-6
-1.204, -2.366e-6
-1.203, -2.466e-6
-1.202, -2.560e-6
-1.201, -2.498e-6
-1.200, -2.390e-6
-1.199, -2.413e-6
-1.198, -2.406e-6
-1.197, -2.428e-6
-1.196, -2.457e-6
-1.195, -2.377e-6
-1.194, -2.432e-6
-1.193, -2.508e-6
-1.192, -2.480e-6
-1.191, -2.476e-6
-1.190, -2.475e-6
-1.189, -2.428e-6
-1.188, -2.526e-6
-1.187, -2.534e-6
-1.186, -2.486e-6
-1.185, -2.485e-6
-1.184, -2.499e-6
-1.183, -2.510e-6
-1.182, -2.530e-6
-1.181, -2.539e-6
-1.180, -2.451e-6
-1.179, -2.520e-6
-1.178, -2.562e-6
-1.177, -2.547e-6
-1.176, -2.552e-6
-1.175, -2.512e-6
-1.174, -2.501e-6
-1.173, -2.537e-6
-1.172, -2.557e-6
-1.171, -2.533e-6
-1.170, -2.572e-6
-1.169, -2.543e-6
-1.168, -2.638e-6
-1.167, -2.575e-6
-1.166, -2.536e-6
-1.165, -2.506e-6
-1.164, -2.572e-6
-1.163, -2.531e-6
-1.162, -2.571e-6
-1.161, -2.588e-6
-1.160, -2.567e-6
-1.159, -2.586e-6
-1.158, -2.621e-6
-1.157, -2.590e-6
-1.156, -2.614e-6
-1.155, -2.619e-6
-1.154, -2.565e-6
-1.153, -2.642e-6
-1.152, -2.639e-6
-1.151, -2.584e-6
-1.150, -2.632e-6
-1.149, -2.588e-6
-1.148, -2.634e-6
-1.147, -2.649e-6
-1.146, -2.620e-6
-1.145, -2.578e-6
-1.144, -2.650e-6
-1.143, -2.646e-6
-1.142, -2.659e-6
-1.141, -2.657e-6
-1.140, -2.606e-6
-1.139, -2.624e-6
-1.138, -2.691e-6
-1.137, -2.638e-6
-1.136, -2.644e-6
-1.135, -2.609e-6
-1.134, -2.656e-6
-1.133, -2.635e-6
-1.132, -2.698e-6
-1.131, -2.619e-6
-1.130, -2.662e-6
-1.129, -2.690e-6
-1.128, -2.688e-6
-1.127, -2.702e-6
-1.126, -2.653e-6
-1.125, -2.637e-6
-1.124, -2.649e-6
-1.123, -2.681e-6
-1.122, -2.718e-6
-1.121, -2.673e-6
-1.120, -2.663e-6
-1.119, -2.715e-6
-1.118, -2.720e-6
-1.117, -2.726e-6
-1.116, -2.645e-6
-1.115, -2.662e-6
-1.114, -2.690e-6
-1.113, -2.721e-6
-1.112, -2.656e-6
-1.111, -2.657e-6
-1.110, -2.662e-6
-1.109, -2.640e-6
-1.108, -2.714e-6
-1.107, -2.687e-6
-1.106, -2.663e-6
-1.105, -2.707e-6
-1.104, -2.633e-6
-1.103, -2.707e-6
-1.102, -2.700e-6
-1.101, -2.650e-6
-1.100, -2.733e-6
-1.099, -2.707e-6
-1.098, -2.715e-6
-1.097, -2.758e-6
-1.096, -2.643e-6
-1.095, -2.665e-6
-1.094, -2.712e-6
-1.093, -2.697e-6
-1.092, -2.711e-6
-1.091, -2.717e-6
-1.090, -2.677e-6
-1.089, -2.764e-6
-1.088, -2.773e-6
-1.087, -2.746e-6
-1.086, -2.760e-6
-1.085, -2.721e-6
-1.084, -2.719e-6
-1.083, -2.762e-6
-1.082, -2.766e-6
-1.081, -2.750e-6
-1.080, -2.729e-6
-1.079, -2.734e-6
-1.078, -2.804e-6
-1.077, -2.797e-6
-1.076, -2.721e-6
-1.075, -2.812e-6
-1.074, -2.792e-6
-1.073, -2.905e-6
-1.072, -2.901e-6
-1.071, -2.756e-6
-1.070, -2.780e-6
-1.069, -2.809e-6
-1.068, -2.797e-6
-1.067, -2.832e-6
-1.066, -2.790e-6
-1.065, -2.785e-6
-1.064, -2.876e-6
-1.063, -2.867e-6
-1.062, -2.924e-6
-1.061, -2.912e-6
-1.060, -2.804e-6
-1.059, -2.882e-6
-1.058, -2.914e-6
-1.057, -2.843e-6
-1.056, -2.842e-6
-1.055, -2.886e-6
-1.054, -2.897e-6
-1.053, -2.923e-6
-1.052, -2.945e-6
-1.051, -2.888e-6
-1.050, -2.884e-6
-1.049, -2.921e-6
-1.048, -2.952e-6
-1.047, -2.987e-6
-1.046, -2.891e-6
-1.045, -2.882e-6
-1.044, -2.913e-6
-1.043, -2.936e-6
-1.042, -2.982e-6
-1.041, -2.905e-6
-1.040, -2.912e-6
-1.039, -3.065e-6
-1.038, -3.226e-6
-1.037, -2.961e-6
-1.036, -2.934e-6
-1.035, -2.886e-6
-1.034, -2.962e-6
-1.033, -2.989e-6
-1.032, -2.966e-6
-1.031, -2.987e-6
-1.030, -2.959e-6
-1.029, -2.997e-6
-1.028, -3.031e-6
-1.027, -3.024e-6
-1.026, -2.975e-6
-1.025, -3.004e-6
-1.024, -3.023e-6
-1.023, -3.109e-6
-1.022, -3.084e-6
-1.021, -3.042e-6
-1.020, -3.089e-6
-1.019, -3.083e-6
-1.018, -3.106e-6
-1.017, -3.123e-6
-1.016, -3.060e-6
-1.015, -3.086e-6
-1.014, -3.136e-6
-1.013, -3.152e-6
-1.012, -3.167e-6
-1.011, -3.102e-6
-1.010, -3.086e-6
-1.009, -3.177e-6
-1.008, -3.153e-6
-1.007, -3.194e-6
-1.006, -3.163e-6
-1.005, -3.099e-6
-1.004, -3.157e-6
-1.003, -3.202e-6
-1.002, -3.196e-6
-1.001, -3.226e-6
-1.000, -2.625e-6
-1.001, -1.973e-6
-1.002, -1.557e-6
-1.003, -1.146e-6
-1.004, -7.776e-7
-1.005, -5.399e-7
-1.006, -2.616e-7
-1.007, -7.222e-8
-1.008, 1.073e-7
-1.009, 3.865e-7
-1.010, 4.931e-7
-1.011, 6.174e-7
-1.012, 7.802e-7
-1.013, 8.611e-7
-1.014, 1.024e-6
-1.015, 1.140e-6
-1.016, 1.145e-6
-1.017, 1.229e-6
-1.018, 1.332e-6
-1.019, 1.420e-6
-1.020, 1.487e-6
-1.021, 1.485e-6
-1.022, 1.503e-6
-1.023, 1.628e-6
-1.024, 1.675e-6
-1.025, 1.714e-6
-1.026, 1.783e-6
-1.027, 1.706e-6
-1.028, 1.820e-6
-1.029, 1.898e-6
-1.030, 1.917e-6
-1.031, 1.988e-6
-1.032, 1.892e-6
-1.033, 1.923e-6
-1.034, 2.027e-6
-1.035, 2.065e-6
-1.036, 2.028e-6
-1.037, 2.082e-6
-1.038, 2.067e-6
-1.039, 2.125e-6
-1.040, 2.180e-6
-1.041, 2.110e-6
-1.042, 2.145e-6
-1.043, 2.164e-6
-1.044, 2.208e-6
-1.045, 2.238e-6
-1.046, 2.212e-6
-1.047, 2.202e-6
-1.048, 2.286e-6
-1.049, 2.300e-6
-1.050, 2.311e-6
-1.051, 2.331e-6
-1.052, 2.261e-6
-1.053, 2.321e-6
-1.054, 2.395e-6
-1.055, 2.355e-6
-1.056, 2.392e-6
-1.057, 2.361e-6
-1.058, 2.359e-6
-1.059, 2.460e-6
-1.060, 2.420e-6
-1.061, 2.378e-6
-1.062, 2.445e-6
-1.063, 2.428e-6
-1.064, 2.446e-6
-1.065, 2.497e-6
-1.066, 2.489e-6
-1.067, 2.472e-6
-1.068, 2.510e-6
-1.069, 2.504e-6
-1.070, 2.524e-6
-1.071, 2.543e-6
-1.072, 2.477e-6
-1.073, 2.534e-6
-1.074, 2.551e-6
-1.075, 2.554e-6
-1.076, 2.548e-6
-1.077, 2.514e-6
-1.078, 2.500e-6
-1.079, 2.580e-6
-1.080, 2.557e-6
-1.081, 2.552e-6
-1.082, 2.577e-6
-1.083, 2.583e-6
-1.084, 2.680e-6
-1.085, 2.651e-6
-1.086, 2.598e-6
-1.087, 2.626e-6
-1.088, 2.595e-6
-1.089, 2.689e-6
-1.090, 2.707e-6
-1.091, 2.627e-6
-1.092, 2.645e-6
-1.093, 2.686e-6
-1.094, 2.682e-6
-1.095, 2.718e-6
-1.096, 2.667e-6
-1.097, 2.691e-6
-1.098, 2.700e-6
-1.099, 2.666e-6
-1.100, 2.688e-6
-1.101, 2.693e-6
-1.102, 2.621e-6
-1.103, 2.671e-6
-1.104, 2.741e-6
-1.105, 2.714e-6
-1.106, 2.658e-6
-1.107, 2.677e-6
-1.108, 2.650e-6
-1.109, 2.736e-6
-1.110, 2.721e-6
-1.111, 2.674e-6
-1.112, 2.722e-6
-1.113, 2.698e-6
-1.114, 2.722e-6
-1.115, 2.751e-6
-1.116, 2.686e-6
-1.117, 2.712e-6
-1.118, 2.710e-6
-1.119, 2.736e-6
-1.120, 2.761e-6
-1.121, 2.745e-6
-1.122, 2.713e-6
-1.123, 2.746e-6
-1.124, 2.754e-6
-1.125, 2.796e-6
-1.126, 2.756e-6
-1.127, 2.716e-6
-1.128, 2.743e-6
-1.129, 2.842e-6
-1.130, 2.825e-6
-1.131, 2.801e-6
-1.132, 2.737e-6
-1.133, 2.781e-6
-1.134, 2.870e-6
-1.135, 2.867e-6
-1.136, 2.776e-6
-1.137, 2.808e-6
-1.138, 2.815e-6
-1.139, 2.826e-6
-1.140, 2.836e-6
-1.141, 2.825e-6
-1.142, 2.811e-6
-1.143, 2.824e-6
-1.144, 2.819e-6
-1.145, 2.862e-6
-1.146, 2.835e-6
-1.147, 2.825e-6
-1.148, 2.895e-6
-1.149, 2.866e-6
-1.150, 2.912e-6
-1.151, 2.888e-6
-1.152, 2.818e-6
-1.153, 2.870e-6
-1.154, 2.935e-6
-1.155, 2.908e-6
-1.156, 2.872e-6
-1.157, 2.901e-6
-1.158, 2.905e-6
-1.159, 2.956e-6
-1.160, 2.938e-6
-1.161, 2.880e-6
-1.162, 2.891e-6
-1.163, 2.938e-6
-1.164, 2.952e-6
-1.165, 2.961e-6
-1.166, 2.921e-6
-1.167, 2.904e-6
-1.168, 2.960e-6
-1.169, 2.946e-6
-1.170, 2.943e-6
-1.171, 2.950e-6
-1.172, 2.929e-6
-1.173, 2.938e-6
-1.174, 2.990e-6
-1.175, 2.984e-6
-1.176, 2.960e-6
-1.177, 2.961e-6
-1.178, 2.965e-6
-1.179, 3.019e-6
-1.180, 2.981e-6
-1.181, 2.956e-6
-1.182, 2.981e-6
-1.183, 2.968e-6
-1.184, 3.022e-6
-1.185, 3.045e-6
-1.186, 2.981e-6
-1.187, 2.968e-6
-1.188, 3.216e-6
-1.189, 3.037e-6
-1.190, 3.049e-6
-1.191, 3.019e-6
-1.192, 2.978e-6
-1.193, 3.072e-6
-1.194, 3.082e-6
-1.195, 3.048e-6
-1.196, 3.139e-6
-1.197, 3.182e-6
-1.198, 3.099e-6
-1.199, 3.149e-6
-1.200, 3.069e-6
-1.201, 3.035e-6
-1.202, 3.073e-6
-1.203, 3.054e-6
-1.204, 3.137e-6
-1.205, 3.135e-6
-1.206, 3.082e-6
-1.207, 3.053e-6
-1.208, 3.110e-6
-1.209, 3.121e-6
-1.210, 3.160e-6
-1.211, 3.104e-6
-1.212, 3.073e-6
-1.213, 3.187e-6
-1.214, 3.187e-6
-1.215, 3.137e-6
-1.216, 3.134e-6
-1.217, 3.125e-6
-1.218, 3.156e-6
-1.219, 3.213e-6
-1.220, 3.168e-6
-1.221, 3.131e-6
-1.222, 3.153e-6
-1.223, 3.156e-6
-1.224, 3.243e-6
-1.225, 3.228e-6
-1.226, 3.141e-6
-1.227, 3.149e-6
-1.228, 3.239e-6
-1.229, 3.206e-6
-1.230, 3.232e-6
-1.231, 3.200e-6
-1.232, 3.188e-6
-1.233, 3.258e-6
-1.234, 3.261e-6
-1.235, 3.269e-6
-1.236, 3.269e-6
-1.237, 3.233e-6
-1.238, 3.249e-6
-1.239, 3.284e-6
-1.240, 3.254e-6
-1.241, 3.225e-6
-1.242, 3.271e-6
-1.243, 3.282e-6
-1.244, 3.312e-6
-1.245, 3.339e-6
-1.246, 3.243e-6
-1.247, 3.266e-6
-1.248, 3.342e-6
-1.249, 3.304e-6
-1.250, 3.339e-6
-1.251, 3.334e-6
-1.252, 3.307e-6
-1.253, 3.351e-6
-1.254, 3.394e-6
-1.255, 3.363e-6
-1.256, 3.355e-6
-1.257, 3.370e-6
-1.258, 3.365e-6
-1.259, 3.393e-6
-1.260, 3.393e-6
-1.261, 3.381e-6
-1.262, 3.408e-6
-1.263, 3.401e-6
-1.264, 3.433e-6
-1.265, 3.468e-6
-1.266, 3.390e-6
-1.267, 3.383e-6
-1.268, 3.466e-6
-1.269, 3.469e-6
-1.270, 3.455e-6
-1.271, 3.440e-6
-1.272, 3.417e-6
-1.273, 3.470e-6
-1.274, 3.507e-6
-1.275, 3.450e-6
-1.276, 3.463e-6
-1.277, 3.461e-6
-1.278, 3.468e-6
-1.279, 3.536e-6
-1.280, 3.529e-6
-1.281, 3.440e-6
-1.282, 3.515e-6
-1.283, 3.506e-6
-1.284, 3.539e-6
-1.285, 3.537e-6
-1.286, 3.480e-6
-1.287, 3.481e-6
-1.288, 3.538e-6
-1.289, 3.503e-6
-1.290, 3.536e-6
-1.291, 3.537e-6
-1.292, 3.533e-6
-1.293, 3.537e-6
-1.294, 3.576e-6
-1.295, 3.532e-6
-1.296, 3.545e-6
-1.297, 3.571e-6
-1.298, 3.602e-6
-1.299, 3.602e-6
-1.300, 3.557e-6
-1.301, 3.529e-6
-1.302, 3.565e-6
-1.303, 3.624e-6
-1.304, 3.625e-6
-1.305, 3.635e-6
-1.306, 3.568e-6
-1.307, 3.568e-6
-1.308, 3.634e-6
-1.309, 3.632e-6
-1.310, 3.687e-6
-1.311, 3.621e-6
-1.312, 3.631e-6
-1.313, 3.649e-6
-1.314, 3.685e-6
-1.315, 3.629e-6
-1.316, 3.650e-6
-1.317, 3.654e-6
-1.318, 3.725e-6
-1.319, 3.766e-6
-1.320, 3.670e-6
-1.321, 3.692e-6
-1.322, 3.750e-6
-1.323, 3.705e-6
-1.324, 3.765e-6
-1.325, 3.781e-6
-1.326, 3.721e-6
-1.327, 3.773e-6
-1.328, 3.763e-6
-1.329, 3.800e-6
-1.330, 3.855e-6
-1.331, 3.790e-6
-1.332, 3.762e-6
-1.333, 3.847e-6
-1.334, 3.869e-6
-1.335, 3.789e-6
-1.336, 3.800e-6
-1.337, 3.801e-6
-1.338, 3.880e-6
-1.339, 3.869e-6
-1.340, 3.825e-6
-1.341, 3.823e-6
-1.342, 3.852e-6
-1.343, 3.866e-6
-1.344, 3.923e-6
-1.345, 3.890e-6
-1.346, 3.886e-6
-1.347, 3.835e-6
-1.348, 3.946e-6
-1.349, 3.956e-6
-1.350, 3.979e-6
-1.351, 3.888e-6
-1.352, 3.911e-6
-1.353, 3.982e-6
-1.354, 3.955e-6
-1.355, 3.989e-6
-1.356, 3.982e-6
-1.357, 3.927e-6
-1.358, 3.971e-6
-1.359, 4.032e-6
-1.360, 3.982e-6
-1.361, 3.997e-6
-1.362, 3.977e-6
-1.363, 4.054e-6
-1.364, 4.138e-6
-1.365, 4.038e-6
-1.366, 4.050e-6
-1.367, 4.085e-6
-1.368, 4.109e-6
-1.369, 4.140e-6
-1.370, 4.149e-6
-1.371, 4.069e-6
-1.372, 4.137e-6
-1.373, 4.152e-6
-1.374, 4.217e-6
-1.375, 4.199e-6
-1.376, 4.150e-6
-1.377, 4.156e-6
-1.378, 4.245e-6
-1.379, 4.225e-6
-1.380, 4.242e-6
-1.381, 4.255e-6
-1.382, 4.217e-6
-1.383, 4.318e-6
-1.384, 4.336e-6
-1.385, 4.283e-6
-1.386, 4.309e-6
-1.387, 4.303e-6
-1.388, 4.339e-6
-1.389, 4.404e-6
-1.390, 4.368e-6
-1.391, 4.366e-6
-1.392, 4.405e-6
-1.393, 4.417e-6
-1.394, 4.482e-6
-1.395, 4.435e-6
-1.396, 4.426e-6
-1.397, 4.474e-6
-1.398, 4.522e-6
-1.399, 4.501e-6
-1.400, 4.520e-6
-1.401, 4.474e-6
-1.402, 4.523e-6
-1.403, 4.591e-6
-1.404, 4.568e-6
-1.405, 4.571e-6
-1.406, 4.570e-6
-1.407, 4.554e-6
-1.408, 4.614e-6
-1.409, 4.685e-6
-1.410, 4.627e-6
-1.411, 4.683e-6
-1.412, 4.725e-6
-1.413, 4.717e-6
-1.414, 4.772e-6
-1.415, 4.766e-6
-1.416, 4.761e-6
-1.417, 4.798e-6
-1.418, 4.833e-6
-1.419, 4.836e-6
-1.420, 4.875e-6
-1.421, 4.831e-6
-1.422, 4.880e-6
-1.423, 4.948e-6
-1.424, 4.964e-6
-1.425, 4.942e-6
-1.426, 4.982e-6
-1.427, 4.961e-6
-1.428, 5.063e-6
-1.429, 5.053e-6
-1.430, 5.022e-6
-1.431, 5.046e-6
-1.432, 5.108e-6
-1.433, 5.209e-6
-1.434, 5.215e-6
-1.435, 5.232e-6
-1.436, 5.145e-6
-1.437, 5.181e-6
-1.438, 5.309e-6
-1.439, 5.321e-6
-1.440, 5.329e-6
-1.441, 5.253e-6
-1.442, 5.401e-6
-1.443, 5.443e-6
-1.444, 5.470e-6
-1.445, 5.404e-6
-1.446, 5.447e-6
-1.447, 5.418e-6
-1.448, 5.568e-6
-1.449, 5.606e-6
-1.450, 5.576e-6
-1.451, 5.586e-6
-1.452, 5.625e-6
-1.453, 5.677e-6
-1.454, 5.718e-6
-1.455, 5.705e-6
-1.456, 5.684e-6
-1.457, 5.767e-6
-1.458, 5.811e-6
-1.459, 5.829e-6
-1.460, 5.884e-6
-1.461, 5.895e-6
-1.462, 5.888e-6
-1.463, 5.998e-6
-1.464, 6.054e-6
-1.465, 6.035e-6
-1.466, 6.087e-6
-1.467, 6.058e-6
-1.468, 6.207e-6
-1.469, 6.264e-6
-1.470, 6.176e-6
-1.471, 6.239e-6
-1.472, 6.235e-6
-1.473, 6.325e-6
-1.474, 6.409e-6
-1.475, 6.458e-6
-1.476, 6.405e-6
-1.477, 6.468e-6
-1.478, 6.489e-6
-1.479, 6.591e-6
-1.480, 6.606e-6
-1.481, 6.588e-6
-1.482, 6.672e-6
-1.483, 6.796e-6
-1.484, 6.788e-6
-1.485, 6.796e-6
-1.486, 6.836e-6
-1.487, 6.904e-6
-1.488, 7.022e-6
-1.489, 7.066e-6
-1.490, 7.033e-6
-1.491, 7.075e-6
-1.492, 7.099e-6
-1.493, 7.193e-6
-1.494, 7.272e-6
-1.495, 7.268e-6
-1.496, 7.286e-6
-1.497, 7.366e-6
-1.498, 7.453e-6
-1.499, 7.534e-6
-1.500, 7.525e-6
-1.501, 7.528e-6
-1.502, 7.642e-6
-1.503, 7.844e-6
-1.504, 7.777e-6
-1.505, 7.778e-6
-1.506, 7.781e-6
-1.507, 7.903e-6
-1.508, 8.093e-6
-1.509, 8.209e-6
-1.510, 8.052e-6
-1.511, 8.123e-6
-1.512, 8.150e-6
-1.513, 8.232e-6
-1.514, 8.400e-6
-1.515, 8.402e-6
-1.516, 8.447e-6
-1.517, 8.481e-6
-1.518, 9.056e-6
-1.519, 9.329e-6
-1.520, 8.846e-6
-1.521, 8.626e-6
-1.522, 8.781e-6
-1.523, 8.876e-6
-1.524, 8.953e-6
-1.525, 9.003e-6
-1.526, 9.074e-6
-1.527, 9.228e-6
-1.528, 9.302e-6
-1.529, 9.269e-6
-1.530, 9.372e-6
-1.531, 9.430e-6
-1.532, 9.527e-6
-1.533, 9.641e-6
-1.534, 9.685e-6
-1.535, 9.734e-6
-1.536, 9.755e-6
-1.537, 9.860e-6
-1.538, 9.968e-6
-1.539, 1.008e-5
-1.540, 1.010e-5
-1.541, 1.020e-5
-1.542, 1.025e-5
-1.543, 1.040e-5
-1.544, 1.048e-5
-1.545, 1.051e-5
-1.546, 1.063e-5
-1.547, 1.070e-5
-1.548, 1.085e-5
-1.549, 1.095e-5
-1.550, 1.096e-5
-1.551, 1.101e-5
-1.552, 1.117e-5
-1.553, 1.130e-5
-1.554, 1.142e-5
-1.555, 1.148e-5
-1.556, 1.154e-5
-1.557, 1.166e-5
-1.558, 1.181e-5
-1.559, 1.186e-5
-1.560, 1.203e-5
-1.561, 1.204e-5
-1.562, 1.216e-5
-1.563, 1.231e-5
-1.564, 1.239e-5
-1.565, 1.246e-5
-1.566, 1.261e-5
-1.567, 1.266e-5
-1.568, 1.285e-5
-1.569, 1.291e-5
-1.570, 1.301e-5
-1.571, 1.311e-5
-1.572, 1.327e-5
-1.573, 1.346e-5
-1.574, 1.351e-5
-1.575, 1.355e-5
-1.576, 1.366e-5
-1.577, 1.385e-5
-1.578, 1.398e-5
-1.579, 1.413e-5
-1.580, 1.421e-5
-1.581, 1.428e-5
-1.582, 1.446e-5
-1.583, 1.463e-5
-1.584, 1.472e-5
-1.585, 1.492e-5
-1.586, 1.494e-5
-1.587, 1.515e-5
-1.588, 1.538e-5
-1.589, 1.552e-5
-1.590, 1.556e-5
-1.591, 1.570e-5
-1.592, 1.587e-5
-1.593, 1.613e-5
-1.594, 1.620e-5
-1.595, 1.633e-5
-1.596, 1.648e-5
-1.597, 1.664e-5
-1.598, 1.689e-5
-1.599, 1.707e-5
-1.600, 1.724e-5
-1.601, 1.736e-5
-1.602, 1.752e-5
-1.603, 1.772e-5
-1.604, 1.794e-5
-1.605, 1.807e-5
-1.606, 1.826e-5
-1.607, 1.839e-5
-1.608, 1.869e-5
-1.609, 1.888e-5
-1.610, 1.905e-5
-1.611, 1.922e-5
-1.612, 1.949e-5
-1.613, 1.971e-5
-1.614, 1.988e-5
-1.615, 2.010e-5
-1.616, 2.023e-5
-1.617, 2.045e-5
-1.618, 2.073e-5
-1.619, 2.094e-5
-1.620, 2.117e-5
-1.621, 2.137e-5
-1.622, 2.167e-5
-1.623, 2.199e-5
-1.624, 2.221e-5
-1.625, 2.239e-5
-1.626, 2.264e-5
-1.627, 2.280e-5
-1.628, 2.316e-5
-1.629, 2.339e-5
-1.630, 2.368e-5
-1.631, 2.394e-5
-1.632, 2.420e-5
-1.633, 2.455e-5
-1.634, 2.483e-5
-1.635, 2.501e-5
-1.636, 2.525e-5
-1.637, 2.570e-5
-1.638, 2.607e-5
-1.639, 2.639e-5
-1.640, 2.668e-5
-1.641, 2.703e-5
-1.642, 2.735e-5
-1.643, 2.767e-5
-1.644, 2.805e-5
-1.645, 2.839e-5
-1.646, 2.872e-5
-1.647, 2.912e-5
-1.648, 2.961e-5
-1.649, 2.992e-5
-1.650, 3.027e-5
-1.651, 3.064e-5
-1.652, 3.109e-5
-1.653, 3.157e-5
-1.654, 3.193e-5
-1.655, 3.231e-5
-1.656, 3.277e-5
-1.657, 3.323e-5
-1.658, 3.377e-5
-1.659, 3.424e-5
-1.660, 3.472e-5
-1.661, 3.513e-5
-1.662, 3.569e-5
-1.663, 3.628e-5
-1.664, 3.682e-5
-1.665, 3.733e-5
-1.666, 3.774e-5
-1.667, 3.844e-5
-1.668, 3.899e-5
-1.669, 3.950e-5
-1.670, 4.012e-5
-1.671, 4.074e-5
-1.672, 4.138e-5
-1.673, 4.227e-5
-1.674, 4.288e-5
-1.675, 4.346e-5
-1.676, 4.416e-5
-1.677, 4.492e-5
-1.678, 4.570e-5
-1.679, 4.643e-5
-1.680, 4.716e-5
-1.681, 4.792e-5
-1.682, 4.883e-5
-1.683, 4.973e-5
-1.684, 5.053e-5
-1.685, 5.123e-5
-1.686, 5.203e-5
-1.687, 5.316e-5
-1.688, 5.418e-5
-1.689, 5.505e-5
-1.690, 5.603e-5
-1.691, 5.701e-5
-1.692, 5.797e-5
-1.693, 5.923e-5
-1.694, 6.026e-5
-1.695, 6.134e-5
-1.696, 6.249e-5
-1.697, 6.373e-5
-1.698, 6.506e-5
-1.699, 6.635e-5
-1.700, 6.756e-5
-1.701, 6.881e-5
-1.702, 7.020e-5
-1.703, 7.173e-5
-1.704, 7.323e-5
-1.705, 7.472e-5
-1.706, 7.610e-5
-1.707, 7.772e-5
-1.708, 7.942e-5
-1.709, 8.114e-5
-1.710, 8.299e-5
-1.711, 8.483e-5
-1.712, 8.667e-5
-1.713, 8.872e-5
-1.714, 9.064e-5
-1.715, 9.257e-5
-1.716, 9.472e-5
-1.717, 9.685e-5
-1.718, 9.920e-5
-1.719, 1.015e-4
-1.720, 1.038e-4
-1.721, 1.062e-4
-1.722, 1.088e-4
-1.723, 1.115e-4
-1.724, 1.144e-4
-1.725, 1.172e-4
-1.726, 1.201e-4
-1.727, 1.231e-4
-1.728, 1.264e-4
-1.729, 1.296e-4
-1.730, 1.328e-4
-1.731, 1.363e-4
-1.732, 1.399e-4
-1.733, 1.437e-4
-1.734, 1.476e-4
-1.735, 1.516e-4
-1.736, 1.556e-4
-1.737, 1.598e-4
-1.738, 1.644e-4
-1.739, 1.690e-4
-1.740, 1.738e-4
-1.741, 1.786e-4
-1.742, 1.838e-4
-1.743, 1.891e-4
-1.744, 1.945e-4
-1.745, 2.000e-4
-1.746, 2.060e-4
-1.747, 2.122e-4
-1.748, 2.186e-4
-1.749, 2.252e-4
-1.750, 2.319e-4
-1.751, 2.388e-4
-1.752, 2.462e-4
-1.753, 2.539e-4
-1.754, 2.620e-4
-1.755, 2.700e-4
-1.756, 2.784e-4
-1.757, 2.873e-4
-1.758, 2.965e-4
-1.759, 3.059e-4
-1.760, 3.156e-4
-1.761, 3.256e-4
-1.762, 3.364e-4
-1.763, 3.478e-4
-1.764, 3.589e-4
-1.765, 3.704e-4
-1.766, 3.824e-4
-1.767, 3.951e-4
-1.768, 4.087e-4
-1.769, 4.225e-4
-1.770, 4.362e-4
-1.771, 4.509e-4
-1.772, 4.660e-4
-1.773, 4.819e-4
-1.774, 4.981e-4
-1.775, 5.149e-4
-1.776, 5.323e-4
-1.777, 5.506e-4
-1.778, 5.692e-4
-1.779, 5.887e-4
-1.780, 6.087e-4
-1.781, 6.289e-4
-1.782, 6.501e-4
-1.783, 6.728e-4
-1.784, 6.958e-4
-1.785, 7.190e-4
-1.786, 7.427e-4
-1.787, 7.682e-4
-1.788, 7.946e-4
-1.789, 8.211e-4
-1.790, 8.488e-4
-1.791, 8.776e-4
-1.792, 9.069e-4
-1.793, 9.371e-4
-1.794, 9.688e-4
-1.795, 1.001e-3
-1.796, 1.034e-3
-1.797, 1.068e-3
-1.798, 1.104e-3
-1.799, 1.140e-3
-1.800, 1.176e-3
-1.801, 1.214e-3
-1.802, 1.253e-3
-1.803, 1.294e-3
-1.804, 1.334e-3
-1.805, 1.377e-3
-1.806, 1.419e-3
-1.807, 1.464e-3
-1.808, 1.509e-3
-1.809, 1.556e-3
-1.810, 1.603e-3
-1.811, 1.650e-3
-1.812, 1.699e-3
-1.813, 1.751e-3
-1.814, 1.804e-3
-1.815, 1.856e-3
-1.816, 1.910e-3
-1.817, 1.966e-3
-1.818, 2.022e-3
-1.819, 2.078e-3
-1.820, 2.136e-3
-1.821, 2.197e-3
-1.822, 2.258e-3
-1.823, 2.319e-3
-1.824, 2.382e-3
-1.825, 2.446e-3
-1.826, 2.509e-3
-1.827, 2.574e-3
-1.828, 2.644e-3
-1.829, 2.713e-3
-1.830, 2.779e-3
-1.831, 2.847e-3
-1.832, 2.923e-3
-1.833, 2.997e-3
-1.834, 3.066e-3
-1.835, 3.138e-3
-1.836, 3.215e-3
-1.837, 3.291e-3
-1.838, 3.367e-3
-1.839, 3.448e-3
-1.840, 3.530e-3
-1.841, 3.605e-3
-1.842, 3.682e-3
-1.843, 3.769e-3
-1.844, 3.855e-3
-1.845, 3.932e-3
-1.846, 4.012e-3
-1.847, 4.099e-3
-1.848, 4.189e-3
-1.849, 4.273e-3
-1.850, 4.360e-3
-1.851, 4.456e-3
-1.852, 4.546e-3
-1.853, 4.627e-3
-1.854, 4.724e-3
-1.855, 4.825e-3
-1.856, 4.908e-3
-1.857, 4.998e-3
-1.858, 5.105e-3
-1.859, 5.200e-3
-1.860, 5.286e-3
-1.861, 5.383e-3
-1.862, 5.497e-3
-1.863, 5.599e-3
-1.864, 5.697e-3
-1.865, 5.798e-3
-1.866, 5.901e-3
-1.867, 5.995e-3
-1.868, 6.097e-3
-1.869, 6.212e-3
-1.870, 6.311e-3
-1.871, 6.402e-3
-1.872, 6.510e-3
-1.873, 6.634e-3
-1.874, 6.738e-3
-1.875, 6.831e-3
-1.876, 6.937e-3
-1.877, 7.058e-3
-1.878, 7.159e-3
-1.879, 7.258e-3
-1.880, 7.377e-3
-1.881, 7.498e-3
-1.882, 7.600e-3
-1.883, 7.711e-3
-1.884, 7.847e-3
-1.885, 7.958e-3
-1.886, 8.051e-3
-1.887, 8.161e-3
-1.888, 8.300e-3
-1.889, 8.409e-3
-1.890, 8.493e-3
-1.891, 8.612e-3
-1.892, 8.750e-3
-1.893, 8.852e-3
-1.894, 8.934e-3
-1.895, 9.050e-3
-1.896, 9.176e-3
-1.897, 9.252e-3
-1.898, 9.325e-3
-1.899, 9.441e-3
-1.900, 9.474e-3
-1.899, 9.390e-3
-1.898, 9.298e-3
-1.897, 9.236e-3
-1.896, 9.158e-3
-1.895, 9.068e-3
-1.894, 8.984e-3
-1.893, 8.910e-3
-1.892, 8.811e-3
-1.891, 8.711e-3
-1.890, 8.641e-3
-1.889, 8.549e-3
-1.888, 8.439e-3
-1.887, 8.379e-3
-1.886, 8.343e-3
-1.885, 8.256e-3
-1.884, 8.180e-3
-1.883, 8.123e-3
-1.882, 8.052e-3
-1.881, 7.963e-3
-1.880, 7.909e-3
-1.879, 7.855e-3
-1.878, 7.816e-3
-1.877, 7.761e-3
-1.876, 7.699e-3
-1.875, 7.643e-3
-1.874, 7.564e-3
-1.873, 7.475e-3
-1.872, 7.418e-3
-1.871, 7.411e-3
-1.870, 7.361e-3
-1.869, 7.282e-3
-1.868, 7.216e-3
-1.867, 7.160e-3
-1.866, 7.100e-3
-1.865, 7.031e-3
-1.864, 6.976e-3
-1.863, 6.924e-3
-1.862, 6.847e-3
-1.861, 6.769e-3
-1.860, 6.718e-3
-1.859, 6.661e-3
-1.858, 6.581e-3
-1.857, 6.491e-3
-1.856, 6.433e-3
-1.855, 6.374e-3
-1.854, 6.302e-3
-1.853, 6.247e-3
-1.852, 6.206e-3
-1.851, 6.151e-3
-1.850, 6.068e-3
-1.849, 6.012e-3
-1.848, 5.964e-3
-1.847, 5.892e-3
-1.846, 5.816e-3
-1.845, 5.778e-3
-1.844, 5.734e-3
-1.843, 5.668e-3
-1.842, 5.606e-3
-1.841, 5.551e-3
-1.840, 5.510e-3
-1.839, 5.454e-3
-1.838, 5.401e-3
-1.837, 5.353e-3
-1.836, 5.288e-3
-1.835, 5.216e-3
-1.834, 5.162e-3
-1.833, 5.113e-3
-1.832, 5.052e-3
-1.831, 4.980e-3
-1.830, 4.910e-3
-1.829, 4.866e-3
-1.828, 4.814e-3
-1.827, 4.783e-3
-1.826, 4.756e-3
-1.825, 4.710e-3
-1.824, 4.645e-3
-1.823, 4.582e-3
-1.822, 4.528e-3
-1.821, 4.476e-3
-1.820, 4.416e-3
-1.819, 4.355e-3
-1.818, 4.308e-3
-1.817, 4.253e-3
-1.816, 4.190e-3
-1.815, 4.136e-3
-1.814, 4.085e-3
-1.813, 4.025e-3
-1.812, 3.967e-3
-1.811, 3.918e-3
-1.810, 3.870e-3
-1.809, 3.814e-3
-1.808, 3.761e-3
-1.807, 3.715e-3
-1.806, 3.666e-3
-1.805, 3.613e-3
-1.804, 3.565e-3
-1.803, 3.519e-3
-1.802, 3.467e-3
-1.801, 3.415e-3
-1.800, 3.369e-3
-1.799, 3.324e-3
-1.798, 3.275e-3
-1.797, 3.229e-3
-1.796, 3.185e-3
-1.795, 3.138e-3
-1.794, 3.084e-3
-1.793, 3.038e-3
-1.792, 2.999e-3
-1.791, 2.955e-3
-1.790, 2.909e-3
-1.789, 2.865e-3
-1.788, 2.824e-3
-1.787, 2.781e-3
-1.786, 2.736e-3
-1.785, 2.694e-3
-1.784, 2.652e-3
-1.783, 2.606e-3
-1.782, 2.562e-3
-1.781, 2.521e-3
-1.780, 2.481e-3
-1.779, 2.439e-3
-1.778, 2.396e-3
-1.777, 2.358e-3
-1.776, 2.320e-3
-1.775, 2.279e-3
-1.774, 2.238e-3
-1.773, 2.203e-3
-1.772, 2.164e-3
-1.771, 2.125e-3
-1.770, 2.089e-3
-1.769, 2.053e-3
-1.768, 2.016e-3
-1.767, 1.980e-3
-1.766, 1.947e-3
-1.765, 1.910e-3
-1.764, 1.873e-3
-1.763, 1.840e-3
-1.762, 1.810e-3
-1.761, 1.779e-3
-1.760, 1.744e-3
-1.759, 1.712e-3
-1.758, 1.681e-3
-1.757, 1.651e-3
-1.756, 1.620e-3
-1.755, 1.591e-3
-1.754, 1.560e-3
-1.753, 1.529e-3
-1.752, 1.501e-3
-1.751, 1.474e-3
-1.750, 1.446e-3
-1.749, 1.418e-3
-1.748, 1.391e-3
-1.747, 1.365e-3
-1.746, 1.338e-3
-1.745, 1.312e-3
-1.744, 1.287e-3
-1.743, 1.263e-3
-1.742, 1.238e-3
-1.741, 1.214e-3
-1.740, 1.190e-3
-1.739, 1.166e-3
-1.738, 1.142e-3
-1.737, 1.120e-3
-1.736, 1.099e-3
-1.735, 1.076e-3
-1.734, 1.053e-3
-1.733, 1.032e-3
-1.732, 1.012e-3
-1.731, 9.901e-4
-1.730, 9.693e-4
-1.729, 9.496e-4
-1.728, 9.303e-4
-1.727, 9.113e-4
-1.726, 8.926e-4
-1.725, 8.741e-4
-1.724, 8.557e-4
-1.723, 8.374e-4
-1.722, 8.201e-4
-1.721, 8.031e-4
-1.720, 7.858e-4
-1.719, 7.689e-4
-1.718, 7.527e-4
-1.717, 7.372e-4
-1.716, 7.214e-4
-1.715, 7.058e-4
-1.714, 6.905e-4
-1.713, 6.760e-4
-1.712, 6.616e-4
-1.711, 6.473e-4
-1.710, 6.334e-4
-1.709, 6.196e-4
-1.708, 6.061e-4
-1.707, 5.929e-4
-1.706, 5.802e-4
-1.705, 5.676e-4
-1.704, 5.552e-4
-1.703, 5.432e-4
-1.702, 5.314e-4
-1.701, 5.196e-4
-1.700, 5.079e-4
-1.699, 4.965e-4
-1.698, 4.858e-4
-1.697, 4.751e-4
-1.696, 4.646e-4
-1.695, 4.542e-4
-1.694, 4.441e-4
-1.693, 4.342e-4
-1.692, 4.246e-4
-1.691, 4.153e-4
-1.690, 4.058e-4
-1.689, 3.963e-4
-1.688, 3.874e-4
-1.687, 3.789e-4
-1.686, 3.704e-4
-1.685, 3.620e-4
-1.684, 3.539e-4
-1.683, 3.461e-4
-1.682, 3.382e-4
-1.681, 3.306e-4
-1.680, 3.232e-4
-1.679, 3.154e-4
-1.678, 3.083e-4
-1.677, 3.011e-4
-1.676, 2.942e-4
-1.675, 2.875e-4
-1.674, 2.810e-4
-1.673, 2.746e-4
-1.672, 2.685e-4
-1.671, 2.623e-4
-1.670, 2.562e-4
-1.669, 2.502e-4
-1.668, 2.446e-4
-1.667, 2.391e-4
-1.666, 2.335e-4
-1.665, 2.281e-4
-1.664, 2.229e-4
-1.663, 2.178e-4
-1.662, 2.129e-4
-1.661, 2.079e-4
-1.660, 2.030e-4
-1.659, 1.983e-4
-1.658, 1.939e-4
-1.657, 1.895e-4
-1.656, 1.850e-4
-1.655, 1.807e-4
-1.654, 1.765e-4
-1.653, 1.725e-4
-1.652, 1.685e-4
-1.651, 1.646e-4
-1.650, 1.608e-4
-1.649, 1.570e-4
-1.648, 1.534e-4
-1.647, 1.500e-4
-1.646, 1.464e-4
-1.645, 1.430e-4
-1.644, 1.397e-4
-1.643, 1.365e-4
-1.642, 1.334e-4
-1.641, 1.303e-4
-1.640, 1.271e-4
-1.639, 1.242e-4
-1.638, 1.214e-4
-1.637, 1.186e-4
-1.636, 1.158e-4
-1.635, 1.131e-4
-1.634, 1.103e-4
-1.633, 1.077e-4
-1.632, 1.053e-4
-1.631, 1.032e-4
-1.630, 1.008e-4
-1.629, 9.845e-5
-1.628, 9.619e-5
-1.627, 9.370e-5
-1.626, 9.144e-5
-1.625, 8.919e-5
-1.624, 8.708e-5
-1.623, 8.513e-5
-1.622, 8.318e-5
-1.621, 8.119e-5
-1.620, 7.921e-5
-1.619, 7.738e-5
-1.618, 7.557e-5
-1.617, 7.388e-5
-1.616, 7.205e-5
-1.615, 7.027e-5
-1.614, 6.868e-5
-1.613, 6.714e-5
-1.612, 6.557e-5
-1.611, 6.401e-5
-1.610, 6.241e-5
-1.609, 6.092e-5
-1.608, 5.956e-5
-1.607, 5.817e-5
-1.606, 5.674e-5
-1.605, 5.539e-5
-1.604, 5.407e-5
-1.603, 5.289e-5
-1.602, 5.167e-5
-1.601, 5.040e-5
-1.600, 4.911e-5
-1.599, 4.797e-5
-1.598, 4.694e-5
-1.597, 4.581e-5
-1.596, 4.473e-5
-1.595, 4.365e-5
-1.594, 4.258e-5
-1.593, 4.165e-5
-1.592, 4.066e-5
-1.591, 3.966e-5
-1.590, 3.868e-5
-1.589, 3.780e-5
-1.588, 3.691e-5
-1.587, 3.607e-5
-1.586, 3.519e-5
-1.585, 3.429e-5
-1.584, 3.353e-5
-1.583, 3.282e-5
-1.582, 3.202e-5
-1.581, 3.121e-5
-1.580, 3.041e-5
-1.579, 2.970e-5
-1.578, 2.903e-5
-1.577, 2.839e-5
-1.576, 2.767e-5
-1.575, 2.700e-5
-1.574, 2.635e-5
-1.573, 2.574e-5
-1.572, 2.517e-5
-1.571, 2.459e-5
-1.570, 2.392e-5
-1.569, 2.335e-5
-1.568, 2.287e-5
-1.567, 2.231e-5
-1.566, 2.172e-5
-1.565, 2.119e-5
-1.564, 2.066e-5
-1.563, 2.025e-5
-1.562, 1.979e-5
-1.561, 1.929e-5
-1.560, 1.878e-5
-1.559, 1.834e-5
-1.558, 1.793e-5
-1.557, 1.750e-5
-1.556, 1.722e-5
-1.555, 1.684e-5
-1.554, 1.625e-5
-1.553, 1.589e-5
-1.552, 1.551e-5
-1.551, 1.509e-5
-1.550, 1.482e-5
-1.549, 1.453e-5
-1.548, 1.424e-5
-1.547, 1.389e-5
-1.546, 1.342e-5
-1.545, 1.304e-5
-1.544, 1.276e-5
-1.543, 1.249e-5
-1.542, 1.213e-5
-1.541, 1.190e-5
-1.540, 1.156e-5
-1.539, 1.134e-5
-1.538, 1.128e-5
-1.537, 1.108e-5
-1.536, 1.061e-5
-1.535, 1.023e-5
-1.534, 9.942e-6
-1.533, 9.705e-6
-1.532, 9.470e-6
-1.531, 9.240e-6
-1.530, 8.923e-6
-1.529, 8.702e-6
-1.528, 8.597e-6
-1.527, 8.394e-6
-1.526, 8.096e-6
-1.525, 7.945e-6
-1.524, 7.893e-6
-1.523, 7.723e-6
-1.522, 7.319e-6
-1.521, 7.050e-6
-1.520, 6.916e-6
-1.519, 6.773e-6
-1.518, 6.607e-6
-1.517, 6.492e-6
-1.516, 6.311e-6
-1.515, 6.049e-6
-1.514, 5.889e-6
-1.513, 5.787e-6
-1.512, 5.598e-6
-1.511, 5.369e-6
-1.510, 5.248e-6
-1.509, 5.096e-6
-1.508, 4.986e-6
-1.507, 4.853e-6
-1.506, 4.681e-6
-1.505, 4.520e-6
-1.504, 4.431e-6
-1.503, 4.287e-6
-1.502, 4.201e-6
-1.501, 4.030e-6
-1.500, 3.886e-6
-1.499, 3.763e-6
-1.498, 3.770e-6
-1.497, 3.589e-6
-1.496, 3.464e-6
-1.495, 3.343e-6
-1.494, 3.245e-6
-1.493, 3.127e-6
-1.492, 3.091e-6
-1.491, 2.945e-6
-1.490, 2.804e-6
-1.489, 2.762e-6
-1.488, 2.685e-6
-1.487, 2.568e-6
-1.486, 2.501e-6
-1.485, 2.374e-6
-1.484, 2.317e-6
-1.483, 2.267e-6
-1.482, 2.180e-6
-1.481, 2.055e-6
-1.480, 1.965e-6
-1.479, 1.874e-6
-1.478, 1.878e-6
-1.477, 1.829e-6
-1.476, 1.710e-6
-1.475, 1.599e-6
-1.474, 1.543e-6
-1.473, 1.528e-6
-1.472, 1.427e-6
-1.471, 1.347e-6
-1.470, 1.264e-6
-1.469, 1.233e-6
-1.468, 1.160e-6
-1.467, 1.205e-6
-1.466, 9.854e-7
-1.465, 9.459e-7
-1.464, 9.469e-7
-1.463, 8.808e-7
-1.462, 8.591e-7
-1.461, 7.812e-7
-1.460, 6.450e-7
-1.459, 6.293e-7
-1.458, 6.756e-7
-1.457, 6.036e-7
-1.456, 4.892e-7
-1.455, 4.615e-7
-1.454, 3.944e-7
-1.453, 4.023e-7
-1.452, 3.362e-7
-1.451, 2.800e-7
-1.450, 1.813e-7
-1.449, 2.188e-7
-1.448, 2.149e-7
-1.447, 1.626e-7
-1.446, 5.308e-8
-1.445, 1.164e-8
-1.444, -3.157e-9
-1.443, 1.066e-8
-1.442, -8.208e-8
-1.441, -1.531e-7
-1.440, -1.531e-7
-1.439, -1.778e-7
-1.438, -1.995e-7
-1.437, -2.202e-7
-1.436, -3.051e-7
-1.435, -3.347e-7
-1.434, -3.189e-7
-1.433, -3.544e-7
-1.432, -3.810e-7
-1.431, -4.254e-7
-1.430, -5.053e-7
-1.429, -5.409e-7
-1.428, -4.738e-7
-1.427, -5.635e-7
-1.426, -6.060e-7
-1.425, -6.563e-7
-1.424, -6.385e-7
-1.423, -6.237e-7
-1.422, -6.711e-7
-1.421, -7.332e-7
-1.420, -7.875e-7
-1.419, -7.658e-7
-1.418, -7.678e-7
-1.417, -8.072e-7
-1.416, -8.427e-7
-1.415, -8.783e-7
-1.414, -8.871e-7
-1.413, -8.862e-7
-1.412, -9.394e-7
-1.411, -9.759e-7
-1.410, -1.008e-6
-1.409, -1.019e-6
-1.408, -9.888e-7
-1.407, -1.012e-6
-1.406, -1.083e-6
-1.405, -1.158e-6
-1.404, -1.101e-6
-1.403, -1.084e-6
-1.402, -1.115e-6
-1.401, -1.158e-6
-1.400, -1.191e-6
-1.399, -1.198e-6
-1.398, -1.147e-6
-1.397, -1.209e-6
-1.396, -1.251e-6
-1.395, -1.276e-6
-1.394, -1.266e-6
-1.393, -1.261e-6
-1.392, -1.276e-6
-1.391, -1.340e-6
-1.390, -1.382e-6
-1.389, -1.303e-6
-1.388, -1.359e-6
-1.387, -1.342e-6
-1.386, -1.362e-6
-1.385, -1.453e-6
-1.384, -1.383e-6
-1.383, -1.383e-6
-1.382, -1.437e-6
-1.381, -1.462e-6
-1.380, -1.442e-6
-1.379, -1.476e-6
-1.378, -1.455e-6
-1.377, -1.489e-6
-1.376, -1.537e-6
-1.375, -1.537e-6
-1.374, -1.491e-6
-1.373, -1.519e-6
-1.372, -1.489e-6
-1.371, -1.531e-6
-1.370, -1.588e-6
-1.369, -1.588e-6
-1.368, -1.536e-6
-1.367, -1.586e-6
-1.366, -1.591e-6
-1.365, -1.628e-6
-1.364, -1.635e-6
-1.363, -1.586e-6
-1.362, -1.612e-6
-1.361, -1.640e-6
-1.360, -1.652e-6
-1.359, -1.652e-6
-1.358, -1.654e-6
-1.357, -1.672e-6
-1.356, -1.674e-6
-1.355, -1.711e-6
-1.354, -1.711e-6
-1.353, -1.643e-6
-1.352, -1.714e-6
-1.351, -1.728e-6
-1.350, -1.746e-6
-1.349, -1.738e-6
-1.348, -1.698e-6
-1.347, -1.711e-6
-1.346, -1.799e-6
-1.345, -1.755e-6
-1.344, -1.715e-6
-1.343, -1.740e-6
-1.342, -1.753e-6
-1.341, -1.801e-6
-1.340, -1.803e-6
-1.339, -1.777e-6
-1.338, -1.736e-6
-1.337, -1.758e-6
-1.336, -1.796e-6
-1.335, -1.815e-6
-1.334, -1.810e-6
-1.333, -1.746e-6
-1.332, -1.782e-6
-1.331, -1.818e-6
-1.330, -1.805e-6
-1.329, -1.813e-6
-1.328, -1.814e-6
-1.327, -1.807e-6
-1.326, -1.841e-6
-1.325, -1.825e-6
-1.324, -1.846e-6
-1.323, -1.796e-6
-1.322, -1.843e-6
-1.321, -1.843e-6
-1.320, -1.864e-6
-1.319, -1.869e-6
-1.318, -1.784e-6
-1.317, -1.882e-6
-1.316, -1.911e-6
-1.315, -1.875e-6
-1.314, -1.876e-6
-1.313, -1.881e-6
-1.312, -1.852e-6
-1.311, -1.899e-6
-1.310, -1.939e-6
-1.309, -1.853e-6
-1.308, -1.868e-6
-1.307, -1.911e-6
-1.306, -1.908e-6
-1.305, -1.940e-6
-1.304, -1.957e-6
-1.303, -1.899e-6
-1.302, -1.951e-6
-1.301, -1.963e-6
-1.300, -1.921e-6
-1.299, -1.892e-6
-1.298, -1.912e-6
-1.297, -1.934e-6
-1.296, -1.945e-6
-1.295, -1.986e-6
-1.294, -1.951e-6
-1.293, -1.914e-6
-1.292, -1.988e-6
-1.291, -1.972e-6
-1.290, -2.016e-6
-1.289, -1.998e-6
-1.288, -1.955e-6
-1.287, -1.996e-6
-1.286, -2.035e-6
-1.285, -2.002e-6
-1.284, -1.965e-6
-1.283, -2.024e-6
-1.282, -2.003e-6
-1.281, -2.051e-6
-1.280, -2.099e-6
-1.279, -2.032e-6
-1.278, -2.015e-6
-1.277, -2.051e-6
-1.276, -2.091e-6
-1.275, -2.104e-6
-1.274, -2.091e-6
-1.273, -2.076e-6
-1.272, -2.076e-6
-1.271, -2.120e-6
-1.270, -2.055e-6
-1.269, -2.077e-6
-1.268, -2.117e-6
-1.267, -2.091e-6
-1.266, -2.190e-6
-1.265, -2.154e-6
-1.264, -2.118e-6
-1.263, -2.109e-6
-1.262, -2.170e-6
-1.261, -2.143e-6
-1.260, -2.214e-6
-1.259, -2.185e-6
-1.258, -2.154e-6
-1.257, -2.216e-6
-1.256, -2.217e-6
-1.255, -2.202e-6
-1.254, -2.232e-6
-1.253, -2.226e-6
-1.252, -2.190e-6
-1.251, -2.281e-6
-1.250, -2.259e-6
-1.249, -2.267e-6
-1.248, -2.216e-6
-1.247, -2.273e-6
-1.246, -2.292e-6
-1.245, -2.325e-6
-1.244, -2.262e-6
-1.243, -2.241e-6
-1.242, -2.293e-6
-1.241, -2.365e-6
-1.240, -2.345e-6
-1.239, -2.316e-6
-1.238, -2.329e-6
-1.237, -2.296e-6
-1.236, -2.388e-6
-1.235, -2.347e-6
-1.234, -2.332e-6
-1.233, -2.377e-6
-1.232, -2.417e-6
-1.231, -2.369e-6
-1.230, -2.425e-6
-1.229, -2.453e-6
-1.228, -2.432e-6
-1.227, -2.452e-6
-1.226, -2.427e-6
-1.225, -2.404e-6
-1.224, -2.523e-6
-1.223, -2.717e-6
-1.222, -2.717e-6
-1.221, -2.485e-6
-1.220, -2.434e-6
-1.219, -2.377e-6
-1.218, -2.410e-6
-1.217, -2.445e-6
-1.216, -2.480e-6
-1.215, -2.454e-6
-1.214, -2.442e-6
-1.213, -2.405e-6
-1.212, -2.479e-6
-1.211, -2.491e-6
-1.210, -2.514e-6
-1.209, -2.477e-6
-1.208, -2.477e-6
-1.207, -2.479e-6
-1.206, -2.556e-6
-1.205, -2.516e-6
-1.204, -2.529e-6
-1.203, -2.587e-6
-1.202, -2.554e-6
-1.201, -2.582e-6
-1.200, -2.625e-6
-1.199, -2.595e-6
-1.198, -2.526e-6
-1.197, -2.623e-6
-1.196, -2.614e-6
-1.195, -2.593e-6
-1.194, -2.592e-6
-1.193, -2.610e-6
-1.192, -2.612e-6
-1.191, -2.686e-6
-1.190, -2.657e-6
-1.189, -2.595e-6
-1.188, -2.636e-6
-1.187, -2.640e-6
-1.186, -2.652e-6
-1.185, -2.662e-6
-1.184, -2.621e-6
-1.183, -2.612e-6
-1.182, -2.695e-6
-1.181, -2.672e-6
-1.180, -2.699e-6
-1.179, -2.638e-6
-1.178, -2.700e-6
-1.177, -2.703e-6
-1.176, -2.717e-6
-1.175, -2.694e-6
-1.174, -2.628e-6
-1.173, -2.707e-6
-1.172, -2.724e-6
-1.171, -2.736e-6
-1.170, -2.744e-6
-1.169, -2.702e-6
-1.168, -2.686e-6
-1.167, -2.760e-6
-1.166, -2.772e-6
-1.165, -2.701e-6
-1.164, -2.723e-6
-1.163, -2.702e-6
-1.162, -2.726e-6
-1.161, -2.784e-6
-1.160, -2.791e-6
-1.159, -2.703e-6
-1.158, -2.723e-6
-1.157, -2.785e-6
-1.156, -2.778e-6
-1.155, -2.772e-6
-1.154, -2.748e-6
-1.153, -2.736e-6
-1.152, -2.789e-6
-1.151, -2.798e-6
-1.150, -2.759e-6
-1.149, -2.761e-6
-1.148, -2.775e-6
-1.147, -2.767e-6
-1.146, -2.841e-6
-1.145, -2.871e-6
-1.144, -2.800e-6
-1.143, -2.789e-6
-1.142, -2.847e-6
-1.141, -2.850e-6
-1.140, -2.825e-6
-1.139, -2.809e-6
-1.138, -2.811e-6
-1.137, -2.805e-6
-1.136, -2.903e-6
-1.135, -2.816e-6
-1.134, -2.829e-6
-1.133, -2.837e-6
-1.132, -2.837e-6
-1.131, -2.836e-6
-1.130, -2.864e-6
-1.129, -2.824e-6
-1.128, -2.799e-6
-1.127, -2.871e-6
-1.126, -2.877e-6
-1.125, -2.836e-6
-1.124, -2.843e-6
-1.123, -2.821e-6
-1.122, -2.850e-6
-1.121, -2.926e-6
-1.120, -2.861e-6
-1.119, -2.823e-6
-1.118, -2.851e-6
-1.117, -2.851e-6
-1.116, -2.863e-6
-1.115, -2.901e-6
-1.114, -2.866e-6
-1.113, -2.866e-6
-1.112, -2.912e-6
-1.111, -2.883e-6
-1.110, -2.891e-6
-1.109, -2.847e-6
-1.108, -2.850e-6
-1.107, -2.873e-6
-1.106, -2.893e-6
-1.105, -2.839e-6
-1.104, -2.847e-6
-1.103, -2.858e-6
-1.102, -2.877e-6
-1.101, -2.918e-6
-1.100, -2.894e-6
-1.099, -2.842e-6
-1.098, -2.865e-6
-1.097, -2.899e-6
-1.096, -2.882e-6
-1.095, -2.900e-6
-1.094, -2.859e-6
-1.093, -2.839e-6
-1.092, -2.936e-6
-1.091, -2.925e-6
-1.090, -2.901e-6
-1.089, -2.884e-6
-1.088, -2.899e-6
-1.087, -2.912e-6
-1.086, -2.981e-6
-1.085, -2.952e-6
-1.084, -2.900e-6
-1.083, -2.920e-6
-1.082, -2.921e-6
-1.081, -2.922e-6
-1.080, -2.943e-6
-1.079, -2.888e-6
-1.078, -2.907e-6
-1.077, -2.967e-6
-1.076, -2.968e-6
-1.075, -2.995e-6
-1.074, -2.963e-6
-1.073, -2.953e-6
-1.072, -3.021e-6
-1.071, -3.018e-6
-1.070, -2.987e-6
-1.069, -2.961e-6
-1.068, -2.996e-6
-1.067, -3.007e-6
-1.066, -3.028e-6
-1.065, -3.052e-6
-1.064, -2.964e-6
-1.063, -3.007e-6
-1.062, -3.093e-6
-1.061, -3.050e-6
-1.060, -3.084e-6
-1.059, -3.021e-6
-1.058, -3.029e-6
-1.057, -3.067e-6
-1.056, -3.092e-6
-1.055, -3.018e-6
-1.054, -3.077e-6
-1.053, -3.055e-6
-1.052, -3.068e-6
-1.051, -3.112e-6
-1.050, -3.082e-6
-1.049, -3.085e-6
-1.048, -3.119e-6
-1.047, -3.128e-6
-1.046, -3.113e-6
-1.045, -3.140e-6
-1.044, -3.081e-6
-1.043, -3.124e-6
-1.042, -3.149e-6
-1.041, -3.164e-6
-1.040, -3.107e-6
-1.039, -3.120e-6
-1.038, -3.106e-6
-1.037, -3.153e-6
-1.036, -3.206e-6
-1.035, -3.177e-6
-1.034, -3.143e-6
-1.033, -3.179e-6
-1.032, -3.170e-6
-1.031, -3.213e-6
-1.030, -3.195e-6
-1.029, -3.138e-6
-1.028, -3.201e-6
-1.027, -3.237e-6
-1.026, -3.250e-6
-1.025, -3.231e-6
-1.024, -3.226e-6
-1.023, -3.238e-6
-1.022, -3.304e-6
-1.021, -3.324e-6
-1.020, -3.269e-6
-1.019, -3.298e-6
-1.018, -3.279e-6
-1.017, -3.299e-6
-1.016, -3.360e-6
-1.015, -3.278e-6
-1.014, -3.325e-6
-1.013, -3.298e-6
-1.012, -3.326e-6
-1.011, -3.400e-6
-1.010, -3.373e-6
-1.009, -3.312e-6
-1.008, -3.382e-6
-1.007, -3.384e-6
-1.006, -3.408e-6
-1.005, -3.376e-6
-1.004, -3.344e-6
-1.003, -3.393e-6
-1.002, -3.451e-6
-1.001, -3.444e-6
-1.000, -2.924e-6
-1.001, -2.238e-6
-1.002, -1.767e-6
-1.003, -1.458e-6
-1.004, -1.090e-6
-1.005, -7.401e-7
-1.006, -5.053e-7
-1.007, -2.863e-7
-1.008, -5.643e-8
-1.009, 2.841e-8
-1.010, 2.405e-7
-1.011, 4.231e-7
-1.012, 4.892e-7
-1.013, 6.006e-7
-1.014, 7.467e-7
-1.015, 7.950e-7
-1.016, 9.529e-7
-1.017, 1.023e-6
-1.018, 7.190e-7
-1.019, 8.039e-7
-1.020, 1.192e-6
-1.021, 1.337e-6
-1.022, 1.354e-6
-1.023, 1.337e-6
-1.024, 1.367e-6
-1.025, 1.500e-6
-1.026, 1.541e-6
-1.027, 1.554e-6
-1.028, 1.566e-6
-1.029, 1.603e-6
-1.030, 1.671e-6
-1.031, 1.713e-6
-1.032, 1.686e-6
-1.033, 1.738e-6
-1.034, 1.739e-6
-1.035, 1.778e-6
-1.036, 1.851e-6
-1.037, 1.846e-6
-1.038, 1.840e-6
-1.039, 1.906e-6
-1.040, 1.862e-6
-1.041, 1.952e-6
-1.042, 1.957e-6
-1.043, 1.941e-6
-1.044, 1.936e-6
-1.045, 2.001e-6
-1.046, 2.027e-6
-1.047, 2.028e-6
-1.048, 1.992e-6
-1.049, 2.009e-6
-1.050, 2.078e-6
-1.051, 2.066e-6
-1.052, 2.112e-6
-1.053, 2.124e-6
-1.054, 2.100e-6
-1.055, 2.124e-6
-1.056, 2.195e-6
-1.057, 2.155e-6
-1.058, 2.177e-6
-1.059, 2.160e-6
-1.060, 2.212e-6
-1.061, 2.235e-6
-1.062, 2.217e-6
-1.063, 2.258e-6
-1.064, 2.225e-6
-1.065, 2.269e-6
-1.066, 2.306e-6
-1.067, 2.249e-6
-1.068, 2.226e-6
-1.069, 2.286e-6
-1.070, 2.283e-6
-1.071, 2.347e-6
-1.072, 2.356e-6
-1.073, 2.302e-6
-1.074, 2.319e-6
-1.075, 2.317e-6
-1.076, 2.354e-6
-1.077, 2.362e-6
-1.078, 2.319e-6
-1.079, 2.318e-6
-1.080, 2.419e-6
-1.081, 2.415e-6
-1.082, 2.429e-6
-1.083, 2.375e-6
-1.084, 2.376e-6
-1.085, 2.408e-6
-1.086, 2.425e-6
-1.087, 2.425e-6
-1.088, 2.499e-6
-1.089, 2.432e-6
-1.090, 2.455e-6
-1.091, 2.498e-6
-1.092, 2.459e-6
-1.093, 2.448e-6
-1.094, 2.455e-6
-1.095, 2.483e-6
-1.096, 2.524e-6
-1.097, 2.471e-6
-1.098, 2.440e-6
-1.099, 2.471e-6
-1.100, 2.453e-6
-1.101, 2.515e-6
-1.102, 2.536e-6
-1.103, 2.446e-6
-1.104, 2.478e-6
-1.105, 2.503e-6
-1.106, 2.479e-6
-1.107, 2.544e-6
-1.108, 2.479e-6
-1.109, 2.500e-6
-1.110, 2.534e-6
-1.111, 2.511e-6
-1.112, 2.513e-6
-1.113, 2.539e-6
-1.114, 2.506e-6
-1.115, 2.546e-6
-1.116, 2.581e-6
-1.117, 2.542e-6
-1.118, 2.560e-6
-1.119, 2.521e-6
-1.120, 2.541e-6
-1.121, 2.583e-6
-1.122, 2.546e-6
-1.123, 2.562e-6
-1.124, 2.558e-6
-1.125, 2.569e-6
-1.126, 2.600e-6
-1.127, 2.556e-6
-1.128, 2.559e-6
-1.129, 2.576e-6
-1.130, 2.591e-6
-1.131, 2.614e-6
-1.132, 2.595e-6
-1.133, 2.535e-6
-1.134, 2.560e-6
-1.135, 2.629e-6
-1.136, 2.606e-6
-1.137, 2.620e-6
-1.138, 2.593e-6
-1.139, 2.612e-6
-1.140, 2.638e-6
-1.141, 2.644e-6
-1.142, 2.679e-6
-1.143, 2.646e-6
-1.144, 2.623e-6
-1.145, 2.685e-6
-1.146, 2.672e-6
-1.147, 2.650e-6
-1.148, 2.656e-6
-1.149, 2.629e-6
-1.150, 2.680e-6
-1.151, 2.690e-6
-1.152, 2.636e-6
-1.153, 2.660e-6
-1.154, 2.686e-6
-1.155, 2.676e-6
-1.156, 2.703e-6
-1.157, 2.678e-6
-1.158, 2.644e-6
-1.159, 2.741e-6
-1.160, 2.712e-6
-1.161, 2.723e-6
-1.162, 2.710e-6
-1.163, 2.670e-6
-1.164, 2.704e-6
-1.165, 2.738e-6
-1.166, 2.776e-6
-1.167, 2.792e-6
-1.168, 2.727e-6
-1.169, 2.702e-6
-1.170, 2.752e-6
-1.171, 2.746e-6
-1.172, 2.746e-6
-1.173, 2.721e-6
-1.174, 2.748e-6
-1.175, 2.785e-6
-1.176, 2.805e-6
-1.177, 2.754e-6
-1.178, 2.744e-6
-1.179, 2.721e-6
-1.180, 2.802e-6
-1.181, 2.847e-6
-1.182, 2.751e-6
-1.183, 2.772e-6
-1.184, 2.812e-6
-1.185, 2.770e-6
-1.186, 2.826e-6
-1.187, 2.779e-6
-1.188, 2.778e-6
-1.189, 2.823e-6
-1.190, 2.838e-6
-1.191, 2.826e-6
-1.192, 2.839e-6
-1.193, 2.793e-6
-1.194, 2.815e-6
-1.195, 2.843e-6
-1.196, 2.855e-6
-1.197, 2.812e-6
-1.198, 2.843e-6
-1.199, 2.795e-6
-1.200, 2.875e-6
-1.201, 2.938e-6
-1.202, 3.090e-6
-1.203, 3.089e-6
-1.204, 2.890e-6
-1.205, 2.902e-6
-1.206, 2.976e-6
-1.207, 2.873e-6
-1.208, 2.886e-6
-1.209, 2.859e-6
-1.210, 2.898e-6
-1.211, 2.969e-6
-1.212, 2.896e-6
-1.213, 2.900e-6
-1.214, 2.913e-6
-1.215, 2.932e-6
-1.216, 2.955e-6
-1.217, 2.937e-6
-1.218, 2.905e-6
-1.219, 2.960e-6
-1.220, 2.957e-6
-1.221, 2.978e-6
-1.222, 2.986e-6
-1.223, 2.892e-6
-1.224, 2.935e-6
-1.225, 3.014e-6
-1.226, 2.958e-6
-1.227, 2.980e-6
-1.228, 2.962e-6
-1.229, 2.977e-6
-1.230, 3.054e-6
-1.231, 3.036e-6
-1.232, 3.010e-6
-1.233, 3.024e-6
-1.234, 2.981e-6
-1.235, 3.063e-6
-1.236, 3.066e-6
-1.237, 2.983e-6
-1.238, 3.070e-6
-1.239, 3.036e-6
-1.240, 3.097e-6
-1.241, 3.112e-6
-1.242, 3.069e-6
-1.243, 3.093e-6
-1.244, 3.116e-6
-1.245, 3.094e-6
-1.246, 3.123e-6
-1.247, 3.110e-6
-1.248, 3.046e-6
-1.249, 3.142e-6
-1.250, 3.169e-6
-1.251, 3.163e-6
-1.252, 3.208e-6
-1.253, 3.117e-6
-1.254, 3.148e-6
-1.255, 3.174e-6
-1.256, 3.173e-6
-1.257, 3.169e-6
-1.258, 3.169e-6
-1.259, 3.192e-6
-1.260, 3.242e-6
-1.261, 3.208e-6
-1.262, 3.167e-6
-1.263, 3.211e-6
-1.264, 3.132e-6
-1.265, 3.271e-6
-1.266, 3.254e-6
-1.267, 3.193e-6
-1.268, 3.231e-6
-1.269, 3.225e-6
-1.270, 3.252e-6
-1.271, 3.269e-6
-1.272, 3.216e-6
-1.273, 3.234e-6
-1.274, 3.243e-6
-1.275, 3.254e-6
-1.276, 3.278e-6
-1.277, 3.286e-6
-1.278, 3.245e-6
-1.279, 3.279e-6
-1.280, 3.332e-6
-1.281, 3.313e-6
-1.282, 3.332e-6
-1.283, 3.273e-6
-1.284, 3.308e-6
-1.285, 3.327e-6
-1.286, 3.339e-6
-1.287, 3.342e-6
-1.288, 3.324e-6
-1.289, 3.305e-6
-1.290, 3.382e-6
-1.291, 3.348e-6
-1.292, 3.333e-6
-1.293, 3.366e-6
-1.294, 3.337e-6
-1.295, 3.385e-6
-1.296, 3.445e-6
-1.297, 3.359e-6
-1.298, 3.419e-6
-1.299, 3.397e-6
-1.300, 3.412e-6
-1.301, 3.421e-6
-1.302, 3.563e-6
-1.303, 3.781e-6
-1.304, 3.651e-6
-1.305, 3.455e-6
-1.306, 3.432e-6
-1.307, 3.448e-6
-1.308, 3.400e-6
-1.309, 3.424e-6
-1.310, 3.481e-6
-1.311, 3.444e-6
-1.312, 3.444e-6
-1.313, 3.430e-6
-1.314, 3.428e-6
-1.315, 3.499e-6
-1.316, 3.487e-6
-1.317, 3.468e-6
-1.318, 3.492e-6
-1.319, 3.452e-6
-1.320, 3.512e-6
-1.321, 3.520e-6
-1.322, 3.437e-6
-1.323, 3.501e-6
-1.324, 3.521e-6
-1.325, 3.537e-6
-1.326, 3.578e-6
-1.327, 3.533e-6
-1.328, 3.530e-6
-1.329, 3.525e-6
-1.330, 3.589e-6
-1.331, 3.618e-6
-1.332, 3.583e-6
-1.333, 3.542e-6
-1.334, 3.611e-6
-1.335, 3.660e-6
-1.336, 3.612e-6
-1.337, 3.623e-6
-1.338, 3.567e-6
-1.339, 3.616e-6
-1.340, 3.680e-6
-1.341, 3.660e-6
-1.342, 3.640e-6
-1.343, 3.662e-6
-1.344, 3.678e-6
-1.345, 3.762e-6
-1.346, 3.713e-6
-1.347, 3.701e-6
-1.348, 3.724e-6
-1.349, 3.720e-6
-1.350, 3.740e-6
-1.351, 3.759e-6
-1.352, 3.716e-6
-1.353, 3.762e-6
-1.354, 3.738e-6
-1.355, 3.812e-6
-1.356, 3.829e-6
-1.357, 3.734e-6
-1.358, 3.762e-6
-1.359, 3.815e-6
-1.360, 3.823e-6
-1.361, 3.880e-6
-1.362, 3.844e-6
-1.363, 3.832e-6
-1.364, 3.903e-6
-1.365, 3.893e-6
-1.366, 3.922e-6
-1.367, 3.905e-6
-1.368, 3.861e-6
-1.369, 3.987e-6
-1.370, 3.916e-6
-1.371, 3.929e-6
-1.372, 3.960e-6
-1.373, 3.901e-6
-1.374, 4.022e-6
-1.375, 4.049e-6
-1.376, 4.032e-6
-1.377, 4.041e-6
-1.378, 3.984e-6
-1.379, 4.063e-6
-1.380, 4.053e-6
-1.381, 4.039e-6
-1.382, 4.057e-6
-1.383, 4.059e-6
-1.384, 4.082e-6
-1.385, 4.165e-6
-1.386, 4.087e-6
-1.387, 4.140e-6
-1.388, 4.083e-6
-1.389, 4.281e-6
-1.390, 4.659e-6
-1.391, 4.688e-6
-1.392, 4.705e-6
-1.393, 4.744e-6
-1.394, 4.736e-6
-1.395, 4.803e-6
-1.396, 4.838e-6
-1.397, 4.808e-6
-1.398, 4.882e-6
-1.399, 4.872e-6
-1.400, 4.891e-6
-1.401, 4.911e-6
-1.402, 4.814e-6
-1.403, 4.837e-6
-1.404, 4.844e-6
-1.405, 4.895e-6
-1.406, 4.865e-6
-1.407, 4.801e-6
-1.408, 4.817e-6
-1.409, 4.777e-6
-1.410, 4.824e-6
-1.411, 4.847e-6
-1.412, 4.823e-6
-1.413, 4.819e-6
-1.414, 4.869e-6
-1.415, 4.862e-6
-1.416, 4.873e-6
-1.417, 4.809e-6
-1.418, 4.808e-6
-1.419, 4.827e-6
-1.420, 4.844e-6
-1.421, 4.875e-6
-1.422, 4.892e-6
-1.423, 4.842e-6
-1.424, 4.904e-6
-1.425, 4.949e-6
-1.426, 4.919e-6
-1.427, 5.005e-6
-1.428, 4.928e-6
-1.429, 4.969e-6
-1.430, 5.057e-6
-1.431, 5.011e-6
-1.432, 5.046e-6
-1.433, 5.020e-6
-1.434, 5.076e-6
-1.435, 5.169e-6
-1.436, 5.138e-6
-1.437, 5.082e-6
-1.438, 5.125e-6
-1.439, 5.128e-6
-1.440, 5.286e-6
-1.441, 5.266e-6
-1.442, 5.200e-6
-1.443, 5.302e-6
-1.444, 5.291e-6
-1.445, 5.345e-6
-1.446, 5.389e-6
-1.447, 5.361e-6
-1.448, 5.378e-6
-1.449, 5.430e-6
-1.450, 5.462e-6
-1.451, 5.538e-6
-1.452, 5.493e-6
-1.453, 5.580e-6
-1.454, 5.636e-6
-1.455, 5.637e-6
-1.456, 5.697e-6
-1.457, 5.707e-6
-1.458, 5.671e-6
-1.459, 5.742e-6
-1.460, 5.833e-6
-1.461, 5.848e-6
-1.462, 5.834e-6
-1.463, 5.855e-6
-1.464, 5.957e-6
-1.465, 6.024e-6
-1.466, 6.009e-6
-1.467, 6.044e-6
-1.468, 6.039e-6
-1.469, 6.132e-6
-1.470, 6.254e-6
-1.471, 6.249e-6
-1.472, 6.236e-6
-1.473, 6.256e-6
-1.474, 6.312e-6
-1.475, 6.420e-6
-1.476, 6.437e-6
-1.477, 6.450e-6
-1.478, 6.489e-6
-1.479, 6.541e-6
-1.480, 6.653e-6
-1.481, 6.620e-6
-1.482, 6.661e-6
-1.483, 6.737e-6
-1.484, 6.705e-6
-1.485, 6.867e-6
-1.486, 6.869e-6
-1.487, 6.890e-6
-1.488, 6.977e-6
-1.489, 7.018e-6
-1.490, 7.144e-6
-1.491, 7.201e-6
-1.492, 7.146e-6
-1.493, 7.236e-6
-1.494, 7.309e-6
-1.495, 7.364e-6
-1.496, 7.474e-6
-1.497, 7.446e-6
-1.498, 7.529e-6
-1.499, 7.662e-6
-1.500, 7.737e-6
-1.501, 7.825e-6
-1.502, 7.887e-6
-1.503, 7.828e-6
-1.504, 8.011e-6
-1.505, 8.055e-6
-1.506, 8.083e-6
-1.507, 8.132e-6
-1.508, 8.218e-6
-1.509, 8.296e-6
-1.510, 8.371e-6
-1.511, 8.435e-6
-1.512, 8.438e-6
-1.513, 8.477e-6
-1.514, 8.551e-6
-1.515, 8.697e-6
-1.516, 8.728e-6
-1.517, 8.677e-6
-1.518, 8.724e-6
-1.519, 8.786e-6
-1.520, 8.857e-6
-1.521, 8.920e-6
-1.522, 8.903e-6
-1.523, 9.003e-6
-1.524, 9.081e-6
-1.525, 9.120e-6
-1.526, 9.161e-6
-1.527, 9.250e-6
-1.528, 9.177e-6
-1.529, 9.308e-6
-1.530, 9.438e-6
-1.531, 9.583e-6
-1.532, 9.501e-6
-1.533, 9.490e-6
-1.534, 9.583e-6
-1.535, 9.686e-6
-1.536, 9.768e-6
-1.537, 9.767e-6
-1.538, 9.861e-6
-1.539, 1.001e-5
-1.540, 1.008e-5
-1.541, 1.012e-5
-1.542, 1.012e-5
-1.543, 1.021e-5
-1.544, 1.035e-5
-1.545, 1.041e-5
-1.546, 1.053e-5
-1.547, 1.063e-5
-1.548, 1.067e-5
-1.549, 1.080e-5
-1.550, 1.088e-5
-1.551, 1.093e-5
-1.552, 1.100e-5
-1.553, 1.103e-5
-1.554, 1.119e-5
-1.555, 1.133e-5
-1.556, 1.140e-5
-1.557, 1.148e-5
-1.558, 1.160e-5
-1.559, 1.170e-5
-1.560, 1.187e-5
-1.561, 1.193e-5
-1.562, 1.193e-5
-1.563, 1.208e-5
-1.564, 1.216e-5
-1.565, 1.235e-5
-1.566, 1.246e-5
-1.567, 1.249e-5
-1.568, 1.255e-5
-1.569, 1.280e-5
-1.570, 1.287e-5
-1.571, 1.301e-5
-1.572, 1.309e-5
-1.573, 1.314e-5
-1.574, 1.338e-5
-1.575, 1.348e-5
-1.576, 1.365e-5
-1.577, 1.376e-5
-1.578, 1.380e-5
-1.579, 1.393e-5
-1.580, 1.417e-5
-1.581, 1.425e-5
-1.582, 1.432e-5
-1.583, 1.451e-5
-1.584, 1.463e-5
-1.585, 1.487e-5
-1.586, 1.499e-5
-1.587, 1.506e-5
-1.588, 1.523e-5
-1.589, 1.542e-5
-1.590, 1.557e-5
-1.591, 1.577e-5
-1.592, 1.589e-5
-1.593, 1.600e-5
-1.594, 1.621e-5
-1.595, 1.639e-5
-1.596, 1.662e-5
-1.597, 1.668e-5
-1.598, 1.681e-5
-1.599, 1.708e-5
-1.600, 1.732e-5
-1.601, 1.747e-5
-1.602, 1.768e-5
-1.603, 1.785e-5
-1.604, 1.801e-5
-1.605, 1.819e-5
-1.606, 1.829e-5
-1.607, 1.844e-5
-1.608, 1.877e-5
-1.609, 1.892e-5
-1.610, 1.926e-5
-1.611, 1.947e-5
-1.612, 1.963e-5
-1.613, 1.971e-5
-1.614, 1.995e-5
-1.615, 2.024e-5
-1.616, 2.042e-5
-1.617, 2.060e-5
-1.618, 2.088e-5
-1.619, 2.114e-5
-1.620, 2.142e-5
-1.621, 2.171e-5
-1.622, 2.192e-5
-1.623, 2.217e-5
-1.624, 2.247e-5
-1.625, 2.271e-5
-1.626, 2.299e-5
-1.627, 2.321e-5
-1.628, 2.354e-5
-1.629, 2.381e-5
-1.630, 2.417e-5
-1.631, 2.448e-5
-1.632, 2.473e-5
-1.633, 2.501e-5
-1.634, 2.540e-5
-1.635, 2.597e-5
-1.636, 2.596e-5
-1.637, 2.627e-5
-1.638, 2.666e-5
-1.639, 2.709e-5
-1.640, 2.747e-5
-1.641, 2.782e-5
-1.642, 2.810e-5
-1.643, 2.858e-5
-1.644, 2.895e-5
-1.645, 2.926e-5
-1.646, 2.976e-5
-1.647, 3.014e-5
-1.648, 3.037e-5
-1.649, 3.088e-5
-1.650, 3.137e-5
-1.651, 3.180e-5
-1.652, 3.234e-5
-1.653, 3.271e-5
-1.654, 3.338e-5
-1.655, 3.391e-5
-1.656, 3.432e-5
-1.657, 3.468e-5
-1.658, 3.520e-5
-1.659, 3.585e-5
-1.660, 3.644e-5
-1.661, 3.703e-5
-1.662, 3.780e-5
-1.663, 3.806e-5
-1.664, 3.844e-5
-1.665, 3.916e-5
-1.666, 3.990e-5
-1.667, 4.038e-5
-1.668, 4.120e-5
-1.669, 4.198e-5
-1.670, 4.238e-5
-1.671, 4.312e-5
-1.672, 4.374e-5
-1.673, 4.455e-5
-1.674, 4.540e-5
-1.675, 4.619e-5
-1.676, 4.699e-5
-1.677, 4.782e-5
-1.678, 4.865e-5
-1.679, 4.951e-5
-1.680, 5.043e-5
-1.681, 5.134e-5
-1.682, 5.224e-5
-1.683, 5.334e-5
-1.684, 5.443e-5
-1.685, 5.555e-5
-1.686, 5.645e-5
-1.687, 5.748e-5
-1.688, 5.855e-5
-1.689, 5.964e-5
-1.690, 6.071e-5
-1.691, 6.207e-5
-1.692, 6.331e-5
-1.693, 6.441e-5
-1.694, 6.580e-5
-1.695, 6.713e-5
-1.696, 6.841e-5
-1.697, 6.977e-5
-1.698, 7.125e-5
-1.699, 7.285e-5
-1.700, 7.472e-5
-1.701, 7.649e-5
-1.702, 7.781e-5
-1.703, 7.961e-5
-1.704, 8.144e-5
-1.705, 8.318e-5
-1.706, 8.499e-5
-1.707, 8.692e-5
-1.708, 8.889e-5
-1.709, 9.099e-5
-1.710, 9.328e-5
-1.711, 9.584e-5
-1.712, 9.770e-5
-1.713, 1.002e-4
-1.714, 1.028e-4
-1.715, 1.056e-4
-1.716, 1.081e-4
-1.717, 1.106e-4
-1.718, 1.135e-4
-1.719, 1.165e-4
-1.720, 1.195e-4
-1.721, 1.227e-4
-1.722, 1.259e-4
-1.723, 1.290e-4
-1.724, 1.326e-4
-1.725, 1.365e-4
-1.726, 1.401e-4
-1.727, 1.439e-4
-1.728, 1.480e-4
-1.729, 1.522e-4
-1.730, 1.568e-4
-1.731, 1.613e-4
-1.732, 1.658e-4
-1.733, 1.708e-4
-1.734, 1.761e-4
-1.735, 1.813e-4
-1.736, 1.867e-4
-1.737, 1.922e-4
-1.738, 1.979e-4
-1.739, 2.037e-4
-1.740, 2.102e-4
-1.741, 2.170e-4
-1.742, 2.236e-4
-1.743, 2.308e-4
-1.744, 2.382e-4
-1.745, 2.462e-4
-1.746, 2.539e-4
-1.747, 2.620e-4
-1.748, 2.706e-4
-1.749, 2.795e-4
-1.750, 2.887e-4
-1.751, 2.987e-4
-1.752, 3.083e-4
-1.753, 3.184e-4
-1.754, 3.294e-4
-1.755, 3.406e-4
-1.756, 3.523e-4
-1.757, 3.639e-4
-1.758, 3.761e-4
-1.759, 3.891e-4
-1.760, 4.027e-4
-1.761, 4.161e-4
-1.762, 4.310e-4
-1.763, 4.457e-4
-1.764, 4.616e-4
-1.765, 4.777e-4
-1.766, 4.945e-4
-1.767, 5.103e-4
-1.768, 5.279e-4
-1.769, 5.467e-4
-1.770, 5.655e-4
-1.771, 5.864e-4
-1.772, 6.076e-4
-1.773, 6.308e-4
-1.774, 6.530e-4
-1.775, 6.755e-4
-1.776, 6.987e-4
-1.777, 7.230e-4
-1.778, 7.482e-4
-1.779, 7.743e-4
-1.780, 8.018e-4
-1.781, 8.299e-4
-1.782, 8.594e-4
-1.783, 8.891e-4
-1.784, 9.203e-4
-1.785, 9.527e-4
-1.786, 9.851e-4
-1.787, 1.019e-3
-1.788, 1.053e-3
-1.789, 1.088e-3
-1.790, 1.125e-3
-1.791, 1.164e-3
-1.792, 1.204e-3
-1.793, 1.243e-3
-1.794, 1.284e-3
-1.795, 1.327e-3
-1.796, 1.370e-3
-1.797, 1.413e-3
-1.798, 1.458e-3
-1.799, 1.506e-3
-1.800, 1.554e-3
-1.801, 1.602e-3
-1.802, 1.652e-3
-1.803, 1.703e-3
-1.804, 1.755e-3
-1.805, 1.805e-3
-1.806, 1.861e-3
-1.807, 1.916e-3
-1.808, 1.971e-3
-1.809, 2.027e-3
-1.810, 2.088e-3
-1.811, 2.152e-3
-1.812, 2.214e-3
-1.813, 2.273e-3
-1.814, 2.338e-3
-1.815, 2.403e-3
-1.816, 2.467e-3
-1.817, 2.533e-3
-1.818, 2.603e-3
-1.819, 2.673e-3
-1.820, 2.739e-3
-1.821, 2.807e-3
-1.822, 2.882e-3
-1.823, 2.952e-3
-1.824, 3.020e-3
-1.825, 3.095e-3
-1.826, 3.177e-3
-1.827, 3.252e-3
-1.828, 3.326e-3
-1.829, 3.409e-3
-1.830, 3.490e-3
-1.831, 3.565e-3
-1.832, 3.641e-3
-1.833, 3.724e-3
-1.834, 3.801e-3
-1.835, 3.879e-3
-1.836, 3.965e-3
-1.837, 4.062e-3
-1.838, 4.157e-3
-1.839, 4.247e-3
-1.840, 4.337e-3
-1.841, 4.430e-3
-1.842, 4.513e-3
-1.843, 4.603e-3
-1.844, 4.704e-3
-1.845, 4.800e-3
-1.846, 4.885e-3
-1.847, 4.974e-3
-1.848, 5.078e-3
-1.849, 5.178e-3
-1.850, 5.269e-3
-1.851, 5.361e-3
-1.852, 5.467e-3
-1.853, 5.568e-3
-1.854, 5.655e-3
-1.855, 5.754e-3
-1.856, 5.867e-3
-1.857, 5.955e-3
-1.858, 6.043e-3
-1.859, 6.161e-3
-1.860, 6.280e-3
-1.861, 6.369e-3
-1.862, 6.465e-3
-1.863, 6.583e-3
-1.864, 6.701e-3
-1.865, 6.799e-3
-1.866, 6.898e-3
-1.867, 7.020e-3
-1.868, 7.126e-3
-1.869, 7.222e-3
-1.870, 7.334e-3
-1.871, 7.462e-3
-1.872, 7.568e-3
-1.873, 7.661e-3
-1.874, 7.777e-3
-1.875, 7.898e-3
-1.876, 7.985e-3
-1.877, 8.090e-3
-1.878, 8.218e-3
-1.879, 8.331e-3
-1.880, 8.423e-3
-1.881, 8.519e-3
-1.882, 8.652e-3
-1.883, 8.770e-3
-1.884, 8.869e-3
-1.885, 8.960e-3
-1.886, 9.070e-3
-1.887, 9.185e-3
-1.888, 9.276e-3
-1.889, 9.378e-3
-1.890, 9.519e-3
-1.891, 9.600e-3
-1.892, 9.706e-3
-1.893, 9.839e-3
-1.894, 9.954e-3
-1.895, 1.004e-2
-1.896, 1.010e-2
-1.897, 1.011e-2
-1.898, 1.011e-2
-1.899, 1.011e-2
-1.900, 1.011e-2
-1.899, 1.011e-2
-1.898, 1.011e-2
-1.897, 1.003e-2
-1.896, 9.956e-3
-1.895, 9.879e-3
-1.894, 9.770e-3
-1.893, 9.672e-3
-1.892, 9.612e-3
-1.891, 9.544e-3
-1.890, 9.427e-3
-1.889, 9.344e-3
-1.888, 9.307e-3
-1.887, 9.236e-3
-1.886, 9.139e-3
-1.885, 9.067e-3
-1.884, 9.020e-3
-1.883, 8.937e-3
-1.882, 8.874e-3
-1.881, 8.833e-3
-1.880, 8.772e-3
-1.879, 8.680e-3
-1.878, 8.587e-3
-1.877, 8.530e-3
-1.876, 8.458e-3
-1.875, 8.358e-3
-1.874, 8.247e-3
-1.873, 8.224e-3
-1.872, 8.187e-3
-1.871, 8.130e-3
-1.870, 8.071e-3
-1.869, 7.986e-3
-1.868, 7.891e-3
-1.867, 7.838e-3
-1.866, 7.788e-3
-1.865, 7.760e-3
-1.864, 7.734e-3
-1.863, 7.709e-3
-1.862, 7.676e-3
-1.861, 7.637e-3
-1.860, 7.557e-3
-1.859, 7.475e-3
-1.858, 7.415e-3
-1.857, 7.346e-3
-1.856, 7.269e-3
-1.855, 7.204e-3
-1.854, 7.149e-3
-1.853, 7.065e-3
-1.852, 6.972e-3
-1.851, 6.901e-3
-1.850, 6.841e-3
-1.849, 6.779e-3
-1.848, 6.698e-3
-1.847, 6.635e-3
-1.846, 6.568e-3
-1.845, 6.489e-3
-1.844, 6.419e-3
-1.843, 6.367e-3
-1.842, 6.296e-3
-1.841, 6.224e-3
-1.840, 6.168e-3
-1.839, 6.118e-3
-1.838, 6.052e-3
-1.837, 5.981e-3
-1.836, 5.932e-3
-1.835, 5.881e-3
-1.834, 5.806e-3
-1.833, 5.727e-3
-1.832, 5.656e-3
-1.831, 5.601e-3
-1.830, 5.563e-3
-1.829, 5.518e-3
-1.828, 5.448e-3
-1.827, 5.388e-3
-1.826, 5.326e-3
-1.825, 5.270e-3
-1.824, 5.198e-3
-1.823, 5.119e-3
-1.822, 5.062e-3
-1.821, 5.005e-3
-1.820, 4.942e-3
-1.819, 4.881e-3
-1.818, 4.827e-3
-1.817, 4.773e-3
-1.816, 4.717e-3
-1.815, 4.660e-3
-1.814, 4.604e-3
-1.813, 4.542e-3
-1.812, 4.482e-3
-1.811, 4.429e-3
-1.810, 4.381e-3
-1.809, 4.324e-3
-1.808, 4.267e-3
-1.807, 4.214e-3
-1.806, 4.165e-3
-1.805, 4.106e-3
-1.804, 4.050e-3
-1.803, 4.002e-3
-1.802, 3.954e-3
-1.801, 3.903e-3
-1.800, 3.851e-3
-1.799, 3.803e-3
-1.798, 3.748e-3
-1.797, 3.689e-3
-1.796, 3.635e-3
-1.795, 3.589e-3
-1.794, 3.536e-3
-1.793, 3.480e-3
-1.792, 3.432e-3
-1.791, 3.386e-3
-1.790, 3.336e-3
-1.789, 3.282e-3
-1.788, 3.234e-3
-1.787, 3.192e-3
-1.786, 3.141e-3
-1.785, 3.090e-3
-1.784, 3.049e-3
-1.783, 3.004e-3
-1.782, 2.953e-3
-1.781, 2.908e-3
-1.780, 2.868e-3
-1.779, 2.833e-3
-1.778, 2.783e-3
-1.777, 2.730e-3
-1.776, 2.685e-3
-1.775, 2.641e-3
-1.774, 2.595e-3
-1.773, 2.552e-3
-1.772, 2.513e-3
-1.771, 2.474e-3
-1.770, 2.432e-3
-1.769, 2.392e-3
-1.768, 2.355e-3
-1.767, 2.315e-3
-1.766, 2.275e-3
-1.765, 2.237e-3
-1.764, 2.202e-3
-1.763, 2.163e-3
-1.762, 2.124e-3
-1.761, 2.087e-3
-1.760, 2.052e-3
-1.759, 2.015e-3
-1.758, 1.977e-3
-1.757, 1.942e-3
-1.756, 1.908e-3
-1.755, 1.873e-3
-1.754, 1.840e-3
-1.753, 1.809e-3
-1.752, 1.776e-3
-1.751, 1.742e-3
-1.750, 1.710e-3
-1.749, 1.680e-3
-1.748, 1.648e-3
-1.747, 1.615e-3
-1.746, 1.585e-3
-1.745, 1.556e-3
-1.744, 1.526e-3
-1.743, 1.496e-3
-1.742, 1.466e-3
-1.741, 1.439e-3
-1.740, 1.410e-3
-1.739, 1.382e-3
-1.738, 1.354e-3
-1.737, 1.327e-3
-1.736, 1.299e-3
-1.735, 1.274e-3
-1.734, 1.249e-3
-1.733, 1.223e-3
-1.732, 1.197e-3
-1.731, 1.173e-3
-1.730, 1.149e-3
-1.729, 1.126e-3
-1.728, 1.101e-3
-1.727, 1.079e-3
-1.726, 1.056e-3
-1.725, 1.034e-3
-1.724, 1.012e-3
-1.723, 9.905e-4
-1.722, 9.693e-4
-1.721, 9.486e-4
-1.720, 9.291e-4
-1.719, 9.094e-4
-1.718, 8.909e-4
-1.717, 8.698e-4
-1.716, 8.505e-4
-1.715, 8.325e-4
-1.714, 8.146e-4
-1.713, 7.964e-4
-1.712, 7.789e-4
-1.711, 7.629e-4
-1.710, 7.457e-4
-1.709, 7.290e-4
-1.708, 7.125e-4
-1.707, 6.972e-4
-1.706, 6.820e-4
-1.705, 6.678e-4
-1.704, 6.528e-4
-1.703, 6.377e-4
-1.702, 6.236e-4
-1.701, 6.094e-4
-1.700, 5.955e-4
-1.699, 5.820e-4
-1.698, 5.686e-4
-1.697, 5.556e-4
-1.696, 5.430e-4
-1.695, 5.309e-4
-1.694, 5.192e-4
-1.693, 5.072e-4
-1.692, 4.961e-4
-1.691, 4.840e-4
-1.690, 4.724e-4
-1.689, 4.614e-4
-1.688, 4.509e-4
-1.687, 4.406e-4
-1.686, 4.310e-4
-1.685, 4.211e-4
-1.684, 4.111e-4
-1.683, 4.012e-4
-1.682, 3.912e-4
-1.681, 3.821e-4
-1.680, 3.732e-4
-1.679, 3.645e-4
-1.678, 3.561e-4
-1.677, 3.478e-4
-1.676, 3.396e-4
-1.675, 3.321e-4
-1.674, 3.249e-4
-1.673, 3.159e-4
-1.672, 3.081e-4
-1.671, 3.008e-4
-1.670, 2.938e-4
-1.669, 2.868e-4
-1.668, 2.800e-4
-1.667, 2.735e-4
-1.666, 2.673e-4
-1.665, 2.610e-4
-1.664, 2.548e-4
-1.663, 2.484e-4
-1.662, 2.425e-4
-1.661, 2.365e-4
-1.660, 2.305e-4
-1.659, 2.249e-4
-1.658, 2.195e-4
-1.657, 2.141e-4
-1.656, 2.091e-4
-1.655, 2.043e-4
-1.654, 1.997e-4
-1.653, 1.948e-4
-1.652, 1.901e-4
-1.651, 1.854e-4
-1.650, 1.808e-4
-1.649, 1.764e-4
-1.648, 1.721e-4
-1.647, 1.678e-4
-1.646, 1.639e-4
-1.645, 1.602e-4
-1.644, 1.563e-4
-1.643, 1.525e-4
-1.642, 1.487e-4
-1.641, 1.452e-4
-1.640, 1.417e-4
-1.639, 1.382e-4
-1.638, 1.348e-4
-1.637, 1.316e-4
-1.636, 1.284e-4
-1.635, 1.252e-4
-1.634, 1.223e-4
-1.633, 1.193e-4
-1.632, 1.162e-4
-1.631, 1.134e-4
-1.630, 1.107e-4
-1.629, 1.081e-4
-1.628, 1.055e-4
-1.627, 1.030e-4
-1.626, 1.008e-4
-1.625, 9.797e-5
-1.624, 9.548e-5
-1.623, 9.299e-5
-1.622, 9.067e-5
-1.621, 8.853e-5
-1.620, 8.637e-5
-1.619, 8.448e-5
-1.618, 8.247e-5
-1.617, 8.019e-5
-1.616, 7.835e-5
-1.615, 7.646e-5
-1.614, 7.449e-5
-1.613, 7.262e-5
-1.612, 7.085e-5
-1.611, 6.919e-5
-1.610, 6.751e-5
-1.609, 6.574e-5
-1.608, 6.406e-5
-1.607, 6.271e-5
-1.606, 6.104e-5
-1.605, 5.963e-5
-1.604, 5.807e-5
-1.603, 5.646e-5
-1.602, 5.506e-5
-1.601, 5.377e-5
-1.600, 5.245e-5
-1.599, 5.116e-5
-1.598, 4.989e-5
-1.597, 4.866e-5
-1.596, 4.749e-5
-1.595, 4.652e-5
-1.594, 4.541e-5
-1.593, 4.422e-5
-1.592, 4.312e-5
-1.591, 4.199e-5
-1.590, 4.094e-5
-1.589, 3.997e-5
-1.588, 3.885e-5
-1.587, 3.789e-5
-1.586, 3.707e-5
-1.585, 3.608e-5
-1.584, 3.515e-5
-1.583, 3.413e-5
-1.582, 3.325e-5
-1.581, 3.249e-5
-1.580, 3.173e-5
-1.579, 3.090e-5
-1.578, 3.016e-5
-1.577, 2.938e-5
-1.576, 2.872e-5
-1.575, 2.805e-5
-1.574, 2.733e-5
-1.573, 2.660e-5
-1.572, 2.599e-5
-1.571, 2.534e-5
-1.570, 2.472e-5
-1.569, 2.409e-5
-1.568, 2.343e-5
-1.567, 2.283e-5
-1.566, 2.233e-5
-1.565, 2.172e-5
-1.564, 2.120e-5
-1.563, 2.059e-5
-1.562, 2.002e-5
-1.561, 1.957e-5
-1.560, 1.915e-5
-1.559, 1.868e-5
-1.558, 1.817e-5
-1.557, 1.763e-5
-1.556, 1.726e-5
-1.555, 1.683e-5
-1.554, 1.632e-5
-1.553, 1.585e-5
-1.552, 1.551e-5
-1.551, 1.516e-5
-1.550, 1.488e-5
-1.549, 1.451e-5
-1.548, 1.399e-5
-1.547, 1.353e-5
-1.546, 1.327e-5
-1.545, 1.292e-5
-1.544, 1.256e-5
-1.543, 1.220e-5
-1.542, 1.190e-5
-1.541, 1.170e-5
-1.540, 1.144e-5
-1.539, 1.109e-5
-1.538, 1.082e-5
-1.537, 1.051e-5
-1.536, 1.023e-5
-1.535, 9.937e-6
-1.534, 9.650e-6
-1.533, 9.353e-6
-1.532, 9.127e-6
-1.531, 9.006e-6
-1.530, 8.731e-6
-1.529, 8.486e-6
-1.528, 8.223e-6
-1.527, 8.006e-6
-1.526, 7.791e-6
-1.525, 7.623e-6
-1.524, 7.368e-6
-1.523, 7.146e-6
-1.522, 6.914e-6
-1.521, 6.907e-6
-1.520, 6.745e-6
-1.519, 6.569e-6
-1.518, 6.251e-6
-1.517, 6.049e-6
-1.516, 5.922e-6
-1.515, 5.762e-6
-1.514, 5.568e-6
-1.513, 5.334e-6
-1.512, 5.226e-6
-1.511, 5.151e-6
-1.510, 4.980e-6
-1.509, 4.865e-6
-1.508, 4.651e-6
-1.507, 4.492e-6
-1.506, 4.444e-6
-1.505, 4.273e-6
-1.504, 4.153e-6
-1.503, 3.992e-6
-1.502, 3.839e-6
-1.501, 3.768e-6
-1.500, 3.702e-6
-1.499, 3.561e-6
-1.498, 3.403e-6
-1.497, 3.264e-6
-1.496, 3.181e-6
-1.495, 3.119e-6
-1.494, 2.997e-6
-1.493, 2.856e-6
-1.492, 2.740e-6
-1.491, 2.671e-6
-1.490, 2.619e-6
-1.489, 2.490e-6
-1.488, 2.375e-6
-1.487, 2.311e-6
-1.486, 2.214e-6
-1.485, 2.163e-6
-1.484, 1.986e-6
-1.483, 1.969e-6
-1.482, 1.882e-6
-1.481, 1.799e-6
-1.480, 1.759e-6
-1.479, 1.646e-6
-1.478, 1.517e-6
-1.477, 1.437e-6
-1.476, 1.447e-6
-1.475, 1.382e-6
-1.474, 1.341e-6
-1.473, 1.273e-6
-1.472, 1.154e-6
-1.471, 1.162e-6
-1.470, 1.055e-6
-1.469, 9.410e-7
-1.468, 1.011e-6
-1.467, 1.041e-6
-1.466, 1.120e-6
-1.465, 1.062e-6
-1.464, 9.627e-7
-1.463, 8.118e-7
-1.462, 7.407e-7
-1.461, 7.950e-7
-1.460, 7.309e-7
-1.459, 6.934e-7
-1.458, 5.641e-7
-1.457, 5.178e-7
-1.456, 4.941e-7
-1.455, 4.418e-7
-1.454, 3.175e-7
-1.453, 2.741e-7
-1.452, 2.445e-7
-1.451, 2.129e-7
-1.450, 2.425e-7
-1.449, 1.557e-7
-1.448, 7.577e-8
-1.447, 2.545e-8
-1.446, 5.209e-8
-1.445, -4.558e-8
-1.444, -6.235e-8
-1.443, -1.324e-7
-1.442, -1.916e-7
-1.441, -1.689e-7
-1.440, -1.955e-7
-1.439, -2.794e-7
-1.438, -3.287e-7
-1.437, -3.041e-7
-1.436, -3.337e-7
-1.435, -3.850e-7
-1.434, -4.856e-7
-1.433, -5.270e-7
-1.432, -5.251e-7
-1.431, -4.836e-7
-1.430, -5.764e-7
-1.429, -5.024e-7
-1.428, -5.734e-7
-1.427, -5.774e-7
-1.426, -5.793e-7
-1.425, -5.783e-7
-1.424, -6.800e-7
-1.423, -7.273e-7
-1.422, -7.905e-7
-1.421, -8.102e-7
-1.420, -7.362e-7
-1.419, -7.609e-7
-1.418, -8.457e-7
-1.417, -8.536e-7
-1.416, -8.210e-7
-1.415, -8.605e-7
-1.414, -8.970e-7
-1.413, -9.750e-7
-1.412, -1.020e-6
-1.411, -1.038e-6
-1.410, -9.937e-7
-1.409, -1.096e-6
-1.408, -1.067e-6
-1.407, -1.038e-6
-1.406, -1.024e-6
-1.405, -1.052e-6
-1.404, -1.066e-6
-1.403, -1.150e-6
-1.402, -1.136e-6
-1.401, -1.126e-6
-1.400, -1.163e-6
-1.399, -1.148e-6
-1.398, -1.203e-6
-1.397, -1.245e-6
-1.396, -1.213e-6
-1.395, -1.198e-6
-1.394, -1.250e-6
-1.393, -1.261e-6
-1.392, -1.313e-6
-1.391, -1.295e-6
-1.390, -1.281e-6
-1.389, -1.307e-6
-1.388, -1.375e-6
-1.387, -1.353e-6
-1.386, -1.320e-6
-1.385, -1.400e-6
-1.384, -1.436e-6
-1.383, -1.436e-6
-1.382, -1.422e-6
-1.381, -1.356e-6
-1.380, -1.327e-6
-1.379, -1.437e-6
-1.378, -1.439e-6
-1.377, -1.429e-6
-1.376, -1.467e-6
-1.375, -1.399e-6
-1.374, -1.460e-6
-1.373, -1.509e-6
-1.372, -1.492e-6
-1.371, -1.497e-6
-1.370, -1.476e-6
-1.369, -1.489e-6
-1.368, -1.527e-6
-1.367, -1.545e-6
-1.366, -1.514e-6
-1.365, -1.524e-6
-1.364, -1.541e-6
-1.363, -1.563e-6
-1.362, -1.578e-6
-1.361, -1.611e-6
-1.360, -1.537e-6
-1.359, -1.598e-6
-1.358, -1.657e-6
-1.357, -1.599e-6
-1.356, -1.600e-6
-1.355, -1.615e-6
-1.354, -1.593e-6
-1.353, -1.701e-6
-1.352, -1.655e-6
-1.351, -1.630e-6
-1.350, -1.650e-6
-1.349, -1.695e-6
-1.348, -1.678e-6
-1.347, -1.722e-6
-1.346, -1.718e-6
-1.345, -1.701e-6
-1.344, -1.807e-6
-1.343, -1.753e-6
-1.342, -1.748e-6
-1.341, -1.779e-6
-1.340, -1.724e-6
-1.339, -1.712e-6
-1.338, -1.793e-6
-1.337, -1.821e-6
-1.336, -1.748e-6
-1.335, -1.722e-6
-1.334, -1.732e-6
-1.333, -1.748e-6
-1.332, -1.794e-6
-1.331, -1.758e-6
-1.330, -1.695e-6
-1.329, -1.808e-6
-1.328, -1.864e-6
-1.327, -1.858e-6
-1.326, -1.854e-6
-1.325, -1.832e-6
-1.324, -1.821e-6
-1.323, -1.933e-6
-1.322, -1.890e-6
-1.321, -1.814e-6
-1.320, -1.757e-6
-1.319, -1.752e-6
-1.318, -1.819e-6
-1.317, -1.855e-6
-1.316, -1.765e-6
-1.315, -1.813e-6
-1.314, -1.829e-6
-1.313, -1.837e-6
-1.312, -1.951e-6
-1.311, -1.936e-6
-1.310, -1.851e-6
-1.309, -1.925e-6
-1.308, -1.893e-6
-1.307, -1.825e-6
-1.306, -1.918e-6
-1.305, -1.963e-6
-1.304, -1.891e-6
-1.303, -1.934e-6
-1.302, -1.972e-6
-1.301, -1.868e-6
-1.300, -1.880e-6
-1.299, -1.898e-6
-1.298, -1.941e-6
-1.297, -1.992e-6
-1.296, -1.993e-6
-1.295, -1.929e-6
-1.294, -1.951e-6
-1.293, -1.905e-6
-1.292, -1.966e-6
-1.291, -1.964e-6
-1.290, -1.976e-6
-1.289, -2.085e-6
-1.288, -2.076e-6
-1.287, -2.020e-6
-1.286, -1.893e-6
-1.285, -1.933e-6
-1.284, -2.019e-6
-1.283, -2.067e-6
-1.282, -1.954e-6
-1.281, -1.881e-6
-1.280, -1.939e-6
-1.279, -1.982e-6
-1.278, -2.008e-6
-1.277, -2.062e-6
-1.276, -2.079e-6
-1.275, -2.016e-6
-1.274, -2.071e-6
-1.273, -2.098e-6
-1.272, -2.045e-6
-1.271, -2.027e-6
-1.270, -2.047e-6
-1.269, -2.083e-6
-1.268, -2.113e-6
-1.267, -2.109e-6
-1.266, -2.039e-6
-1.265, -2.063e-6
-1.264, -2.147e-6
-1.263, -2.146e-6
-1.262, -2.132e-6
-1.261, -2.116e-6
-1.260, -2.080e-6
-1.259, -2.159e-6
-1.258, -2.171e-6
-1.257, -2.133e-6
-1.256, -2.138e-6
-1.255, -2.133e-6
-1.254, -2.154e-6
-1.253, -2.140e-6
-1.252, -2.124e-6
-1.251, -2.157e-6
-1.250, -2.194e-6
-1.249, -2.177e-6
-1.248, -2.190e-6
-1.247, -2.207e-6
-1.246, -2.186e-6
-1.245, -2.115e-6
-1.244, -2.175e-6
-1.243, -2.214e-6
-1.242, -2.205e-6
-1.241, -2.190e-6
-1.240, -2.247e-6
-1.239, -2.257e-6
-1.238, -2.372e-6
-1.237, -2.351e-6
-1.236, -2.285e-6
-1.235, -2.389e-6
-1.234, -2.375e-6
-1.233, -2.340e-6
-1.232, -2.312e-6
-1.231, -2.282e-6
-1.230, -2.347e-6
-1.229, -2.514e-6
-1.228, -2.363e-6
-1.227, -2.289e-6
-1.226, -2.277e-6
-1.225, -2.323e-6
-1.224, -2.351e-6
-1.223, -2.410e-6
-1.222, -2.458e-6
-1.221, -2.448e-6
-1.220, -2.394e-6
-1.219, -2.388e-6
-1.218, -2.410e-6
-1.217, -2.426e-6
-1.216, -2.409e-6
-1.215, -2.407e-6
-1.214, -2.517e-6
-1.213, -2.509e-6
-1.212, -2.537e-6
-1.211, -2.508e-6
-1.210, -2.459e-6
-1.209, -2.470e-6
-1.208, -2.495e-6
-1.207, -2.559e-6
-1.206, -2.524e-6
-1.205, -2.531e-6
-1.204, -2.527e-6
-1.203, -2.527e-6
-1.202, -2.539e-6
-1.201, -2.489e-6
-1.200, -2.475e-6
-1.199, -2.536e-6
-1.198, -2.539e-6
-1.197, -2.552e-6
-1.196, -2.586e-6
-1.195, -2.587e-6
-1.194, -2.602e-6
-1.193, -2.621e-6
-1.192, -2.604e-6
-1.191, -2.562e-6
-1.190, -2.618e-6
-1.189, -2.626e-6
-1.188, -2.622e-6
-1.187, -2.641e-6
-1.186, -2.598e-6
-1.185, -2.588e-6
-1.184, -2.662e-6
-1.183, -2.701e-6
-1.182, -2.639e-6
-1.181, -2.653e-6
-1.180, -2.683e-6
-1.179, -2.751e-6
-1.178, -2.932e-6
-1.177, -2.742e-6
-1.176, -2.605e-6
-1.175, -2.615e-6
-1.174, -2.682e-6
-1.173, -2.695e-6
-1.172, -2.698e-6
-1.171, -2.729e-6
-1.170, -2.837e-6
-1.169, -2.855e-6
-1.168, -2.765e-6
-1.167, -2.654e-6
-1.166, -2.643e-6
-1.165, -2.695e-6
-1.164, -2.709e-6
-1.163, -2.744e-6
-1.162, -2.726e-6
-1.161, -2.742e-6
-1.160, -2.715e-6
-1.159, -2.733e-6
-1.158, -2.736e-6
-1.157, -2.758e-6
-1.156, -2.732e-6
-1.155, -2.737e-6
-1.154, -2.788e-6
-1.153, -2.806e-6
-1.152, -2.775e-6
-1.151, -2.773e-6
-1.150, -2.777e-6
-1.149, -2.765e-6
-1.148, -2.898e-6
-1.147, -2.874e-6
-1.146, -2.748e-6
-1.145, -2.816e-6
-1.144, -2.807e-6
-1.143, -2.760e-6
-1.142, -2.815e-6
-1.141, -2.769e-6
-1.140, -2.768e-6
-1.139, -2.853e-6
-1.138, -2.858e-6
-1.137, -2.875e-6
-1.136, -2.814e-6
-1.135, -2.815e-6
-1.134, -2.779e-6
-1.133, -2.822e-6
-1.132, -2.826e-6
-1.131, -2.751e-6
-1.130, -2.788e-6
-1.129, -2.796e-6
-1.128, -2.799e-6
-1.127, -2.890e-6
-1.126, -2.892e-6
-1.125, -2.934e-6
-1.124, -2.822e-6
-1.123, -2.838e-6
-1.122, -2.868e-6
-1.121, -2.866e-6
-1.120, -2.842e-6
-1.119, -2.994e-6
-1.118, -2.911e-6
-1.117, -2.763e-6
-1.116, -2.792e-6
-1.115, -2.786e-6
-1.114, -2.795e-6
-1.113, -2.906e-6
-1.112, -2.931e-6
-1.111, -2.831e-6
-1.110, -2.837e-6
-1.109, -2.919e-6
-1.108, -2.923e-6
-1.107, -2.922e-6
-1.106, -2.855e-6
-1.105, -2.878e-6
-1.104, -2.921e-6
-1.103, -2.877e-6
-1.102, -2.880e-6
-1.101, -2.852e-6
-1.100, -2.808e-6
-1.099, -2.894e-6
-1.098, -2.922e-6
-1.097, -2.883e-6
-1.096, -2.928e-6
-1.095, -2.863e-6
-1.094, -2.937e-6
-1.093, -2.951e-6
-1.092, -2.925e-6
-1.091, -2.912e-6
-1.090, -2.906e-6
-1.089, -2.920e-6
-1.088, -2.933e-6
-1.087, -2.974e-6
-1.086, -2.905e-6
-1.085, -2.959e-6
-1.084, -2.946e-6
-1.083, -2.982e-6
-1.082, -3.002e-6
-1.081, -3.002e-6
-1.080, -2.974e-6
-1.079, -3.006e-6
-1.078, -2.966e-6
-1.077, -2.881e-6
-1.076, -2.910e-6
-1.075, -2.940e-6
-1.074, -2.922e-6
-1.073, -2.992e-6
-1.072, -3.007e-6
-1.071, -3.026e-6
-1.070, -3.108e-6
-1.069, -3.061e-6
-1.068, -3.000e-6
-1.067, -3.006e-6
-1.066, -2.952e-6
-1.065, -2.976e-6
-1.064, -3.042e-6
-1.063, -3.028e-6
-1.062, -3.097e-6
-1.061, -3.064e-6
-1.060, -3.030e-6
-1.059, -3.054e-6
-1.058, -3.132e-6
-1.057, -3.091e-6
-1.056, -3.086e-6
-1.055, -3.069e-6
-1.054, -3.122e-6
-1.053, -3.118e-6
-1.052, -3.144e-6
-1.051, -3.074e-6
-1.050, -3.164e-6
-1.049, -3.195e-6
-1.048, -3.265e-6
-1.047, -3.213e-6
-1.046, -3.175e-6
-1.045, -3.084e-6
-1.044, -3.210e-6
-1.043, -3.193e-6
-1.042, -3.192e-6
-1.041, -3.189e-6
-1.040, -3.159e-6
-1.039, -3.142e-6
-1.038, -3.199e-6
-1.037, -3.242e-6
-1.036, -3.187e-6
-1.035, -3.222e-6
-1.034, -3.242e-6
-1.033, -3.244e-6
-1.032, -3.242e-6
-1.031, -3.183e-6
-1.030, -3.212e-6
-1.029, -3.237e-6
-1.028, -3.259e-6
-1.027, -3.331e-6
-1.026, -3.359e-6
-1.025, -3.299e-6
-1.024, -3.367e-6
-1.023, -3.437e-6
-1.022, -3.398e-6
-1.021, -3.407e-6
-1.020, -3.411e-6
-1.019, -3.397e-6
-1.018, -3.414e-6
-1.017, -3.410e-6
-1.016, -3.330e-6
-1.015, -3.388e-6
-1.014, -3.398e-6
-1.013, -3.373e-6
-1.012, -3.444e-6
-1.011, -3.402e-6
-1.010, -3.362e-6
-1.009, -3.420e-6
-1.008, -3.464e-6
-1.007, -3.410e-6
-1.006, -3.434e-6
-1.005, -3.442e-6
-1.004, -3.527e-6
-1.003, -3.565e-6
-1.002, -3.550e-6
-1.001, -3.533e-6
