July 13, 2024   01:09:20
Cyclic Voltammetry
File: c:/users/guazh/data/20240709_batch67/2024-07-10-exp27\exp27-2024-07-13t01_00_36-h2koh\exp27_cv_50mvs_efin_-1600mv.bin
Data Source:  Experiment
Instrument Model:  CHI760E
Header: CV ran at 50 mVs
Note: 

Init E (V) = -1
High E (V) = -1
Low E (V) = -1.6
Final E (V) = -1
Init P/N = N
Scan Rate (V/s) = 0.05
Segment = 7
Sample Interval (V) = 0.001
Quiet Time (sec) = 60
Sensitivity (A/V) = 0.001
Comp R (ohm) = 1.8

Results:

Channel 1:
Segment 1:

Segment 2:

Segment 3:

Segment 4:

Segment 5:
Ep = -1.458V
ip = 2.007e-5A
Ah = 3.712e-5C

Segment 6:
Ep = -1.135V
ip = -2.085e-5A
Ah = -3.093e-5C

Segment 7:

Potential/V, Current/A

-1.000, 8.996e-7
-1.001, 1.002e-6
-1.002, 1.205e-6
-1.003, 1.302e-6
-1.004, 1.418e-6
-1.005, 1.442e-6
-1.006, 1.428e-6
-1.007, 1.542e-6
-1.008, 1.631e-6
-1.009, 1.704e-6
-1.010, 1.682e-6
-1.011, 1.696e-6
-1.012, 1.784e-6
-1.013, 1.824e-6
-1.014, 1.950e-6
-1.015, 1.855e-6
-1.016, 1.874e-6
-1.017, 1.943e-6
-1.018, 1.977e-6
-1.019, 2.051e-6
-1.020, 1.996e-6
-1.021, 2.026e-6
-1.022, 2.043e-6
-1.023, 2.130e-6
-1.024, 2.188e-6
-1.025, 2.105e-6
-1.026, 2.136e-6
-1.027, 2.146e-6
-1.028, 2.218e-6
-1.029, 2.283e-6
-1.030, 2.182e-6
-1.031, 2.252e-6
-1.032, 2.191e-6
-1.033, 2.322e-6
-1.034, 2.302e-6
-1.035, 2.319e-6
-1.036, 2.274e-6
-1.037, 2.323e-6
-1.038, 2.420e-6
-1.039, 2.388e-6
-1.040, 2.348e-6
-1.041, 2.331e-6
-1.042, 2.307e-6
-1.043, 2.451e-6
-1.044, 2.452e-6
-1.045, 2.437e-6
-1.046, 2.386e-6
-1.047, 2.387e-6
-1.048, 2.493e-6
-1.049, 2.458e-6
-1.050, 2.519e-6
-1.051, 2.439e-6
-1.052, 2.449e-6
-1.053, 2.534e-6
-1.054, 2.531e-6
-1.055, 2.547e-6
-1.056, 2.491e-6
-1.057, 2.530e-6
-1.058, 2.582e-6
-1.059, 2.576e-6
-1.060, 2.590e-6
-1.061, 2.484e-6
-1.062, 2.568e-6
-1.063, 2.630e-6
-1.064, 2.618e-6
-1.065, 2.640e-6
-1.066, 2.529e-6
-1.067, 2.636e-6
-1.068, 2.655e-6
-1.069, 2.720e-6
-1.070, 2.687e-6
-1.071, 2.600e-6
-1.072, 2.652e-6
-1.073, 2.660e-6
-1.074, 2.715e-6
-1.075, 2.727e-6
-1.076, 2.633e-6
-1.077, 2.736e-6
-1.078, 2.695e-6
-1.079, 2.776e-6
-1.080, 2.674e-6
-1.081, 2.643e-6
-1.082, 2.717e-6
-1.083, 2.725e-6
-1.084, 2.812e-6
-1.085, 2.759e-6
-1.086, 2.695e-6
-1.087, 2.772e-6
-1.088, 2.765e-6
-1.089, 2.831e-6
-1.090, 2.788e-6
-1.091, 2.769e-6
-1.092, 2.811e-6
-1.093, 2.821e-6
-1.094, 2.909e-6
-1.095, 2.824e-6
-1.096, 2.822e-6
-1.097, 2.827e-6
-1.098, 2.895e-6
-1.099, 2.954e-6
-1.100, 2.841e-6
-1.101, 2.913e-6
-1.102, 2.860e-6
-1.103, 2.923e-6
-1.104, 2.978e-6
-1.105, 2.924e-6
-1.106, 2.922e-6
-1.107, 2.936e-6
-1.108, 2.978e-6
-1.109, 3.041e-6
-1.110, 2.959e-6
-1.111, 2.975e-6
-1.112, 2.968e-6
-1.113, 3.077e-6
-1.114, 3.048e-6
-1.115, 3.049e-6
-1.116, 3.032e-6
-1.117, 3.041e-6
-1.118, 3.120e-6
-1.119, 3.107e-6
-1.120, 3.136e-6
-1.121, 3.057e-6
-1.122, 3.062e-6
-1.123, 3.172e-6
-1.124, 3.182e-6
-1.125, 3.170e-6
-1.126, 3.133e-6
-1.127, 3.135e-6
-1.128, 3.270e-6
-1.129, 3.247e-6
-1.130, 3.285e-6
-1.131, 3.228e-6
-1.132, 3.228e-6
-1.133, 3.321e-6
-1.134, 3.324e-6
-1.135, 3.404e-6
-1.136, 3.305e-6
-1.137, 3.273e-6
-1.138, 3.424e-6
-1.139, 3.379e-6
-1.140, 3.410e-6
-1.141, 3.360e-6
-1.142, 3.408e-6
-1.143, 3.514e-6
-1.144, 3.508e-6
-1.145, 3.512e-6
-1.146, 3.448e-6
-1.147, 3.508e-6
-1.148, 3.583e-6
-1.149, 3.597e-6
-1.150, 3.608e-6
-1.151, 3.555e-6
-1.152, 3.624e-6
-1.153, 3.684e-6
-1.154, 3.717e-6
-1.155, 3.704e-6
-1.156, 3.659e-6
-1.157, 3.672e-6
-1.158, 3.728e-6
-1.159, 3.825e-6
-1.160, 3.832e-6
-1.161, 3.754e-6
-1.162, 3.784e-6
-1.163, 3.860e-6
-1.164, 3.895e-6
-1.165, 3.923e-6
-1.166, 3.878e-6
-1.167, 3.904e-6
-1.168, 3.966e-6
-1.169, 4.030e-6
-1.170, 4.030e-6
-1.171, 3.986e-6
-1.172, 4.077e-6
-1.173, 4.087e-6
-1.174, 4.178e-6
-1.175, 4.191e-6
-1.176, 4.125e-6
-1.177, 4.159e-6
-1.178, 4.196e-6
-1.179, 4.323e-6
-1.180, 4.297e-6
-1.181, 4.273e-6
-1.182, 4.292e-6
-1.183, 4.303e-6
-1.184, 4.440e-6
-1.185, 4.400e-6
-1.186, 4.374e-6
-1.187, 4.454e-6
-1.188, 4.446e-6
-1.189, 4.608e-6
-1.190, 4.551e-6
-1.191, 4.544e-6
-1.192, 4.546e-6
-1.193, 4.588e-6
-1.194, 4.715e-6
-1.195, 4.706e-6
-1.196, 4.693e-6
-1.197, 4.653e-6
-1.198, 4.724e-6
-1.199, 4.864e-6
-1.200, 4.821e-6
-1.201, 4.762e-6
-1.202, 4.814e-6
-1.203, 4.884e-6
-1.204, 4.993e-6
-1.205, 4.962e-6
-1.206, 5.007e-6
-1.207, 4.952e-6
-1.208, 5.070e-6
-1.209, 5.139e-6
-1.210, 5.085e-6
-1.211, 5.091e-6
-1.212, 5.094e-6
-1.213, 5.240e-6
-1.214, 5.320e-6
-1.215, 5.269e-6
-1.216, 5.271e-6
-1.217, 5.228e-6
-1.218, 5.377e-6
-1.219, 5.425e-6
-1.220, 5.429e-6
-1.221, 5.431e-6
-1.222, 5.379e-6
-1.223, 5.516e-6
-1.224, 5.557e-6
-1.225, 5.586e-6
-1.226, 5.556e-6
-1.227, 5.545e-6
-1.228, 5.657e-6
-1.229, 5.731e-6
-1.230, 5.749e-6
-1.231, 5.763e-6
-1.232, 5.716e-6
-1.233, 5.843e-6
-1.234, 5.856e-6
-1.235, 5.866e-6
-1.236, 5.879e-6
-1.237, 5.861e-6
-1.238, 5.992e-6
-1.239, 6.017e-6
-1.240, 6.074e-6
-1.241, 6.028e-6
-1.242, 6.057e-6
-1.243, 6.151e-6
-1.244, 6.185e-6
-1.245, 6.205e-6
-1.246, 6.187e-6
-1.247, 6.245e-6
-1.248, 6.319e-6
-1.249, 6.384e-6
-1.250, 6.423e-6
-1.251, 6.411e-6
-1.252, 6.396e-6
-1.253, 6.521e-6
-1.254, 6.599e-6
-1.255, 6.640e-6
-1.256, 6.625e-6
-1.257, 6.698e-6
-1.258, 6.741e-6
-1.259, 6.836e-6
-1.260, 6.885e-6
-1.261, 6.863e-6
-1.262, 6.904e-6
-1.263, 6.992e-6
-1.264, 7.095e-6
-1.265, 7.131e-6
-1.266, 7.124e-6
-1.267, 7.186e-6
-1.268, 7.268e-6
-1.269, 7.390e-6
-1.270, 7.385e-6
-1.271, 7.376e-6
-1.272, 7.476e-6
-1.273, 7.572e-6
-1.274, 7.702e-6
-1.275, 7.751e-6
-1.276, 7.730e-6
-1.277, 7.814e-6
-1.278, 7.891e-6
-1.279, 8.029e-6
-1.280, 8.096e-6
-1.281, 8.089e-6
-1.282, 8.159e-6
-1.283, 8.277e-6
-1.284, 8.420e-6
-1.285, 8.503e-6
-1.286, 8.460e-6
-1.287, 8.568e-6
-1.288, 8.618e-6
-1.289, 8.749e-6
-1.290, 8.814e-6
-1.291, 8.827e-6
-1.292, 8.892e-6
-1.293, 8.963e-6
-1.294, 9.156e-6
-1.295, 9.189e-6
-1.296, 9.236e-6
-1.297, 9.290e-6
-1.298, 9.297e-6
-1.299, 9.488e-6
-1.300, 9.498e-6
-1.301, 9.549e-6
-1.302, 9.625e-6
-1.303, 9.660e-6
-1.304, 9.860e-6
-1.305, 9.875e-6
-1.306, 9.891e-6
-1.307, 9.964e-6
-1.308, 9.988e-6
-1.309, 1.017e-5
-1.310, 1.020e-5
-1.311, 1.023e-5
-1.312, 1.029e-5
-1.313, 1.038e-5
-1.314, 1.056e-5
-1.315, 1.058e-5
-1.316, 1.058e-5
-1.317, 1.067e-5
-1.318, 1.077e-5
-1.319, 1.093e-5
-1.320, 1.099e-5
-1.321, 1.104e-5
-1.322, 1.115e-5
-1.323, 1.123e-5
-1.324, 1.144e-5
-1.325, 1.152e-5
-1.326, 1.160e-5
-1.327, 1.169e-5
-1.328, 1.183e-5
-1.329, 1.204e-5
-1.330, 1.216e-5
-1.331, 1.226e-5
-1.332, 1.243e-5
-1.333, 1.252e-5
-1.334, 1.280e-5
-1.335, 1.294e-5
-1.336, 1.306e-5
-1.337, 1.325e-5
-1.338, 1.340e-5
-1.339, 1.372e-5
-1.340, 1.384e-5
-1.341, 1.405e-5
-1.342, 1.422e-5
-1.343, 1.445e-5
-1.344, 1.476e-5
-1.345, 1.501e-5
-1.346, 1.519e-5
-1.347, 1.541e-5
-1.348, 1.569e-5
-1.349, 1.608e-5
-1.350, 1.632e-5
-1.351, 1.659e-5
-1.352, 1.683e-5
-1.353, 1.718e-5
-1.354, 1.759e-5
-1.355, 1.789e-5
-1.356, 1.820e-5
-1.357, 1.850e-5
-1.358, 1.890e-5
-1.359, 1.935e-5
-1.360, 1.977e-5
-1.361, 2.011e-5
-1.362, 2.052e-5
-1.363, 2.092e-5
-1.364, 2.145e-5
-1.365, 2.189e-5
-1.366, 2.231e-5
-1.367, 2.278e-5
-1.368, 2.322e-5
-1.369, 2.383e-5
-1.370, 2.432e-5
-1.371, 2.483e-5
-1.372, 2.534e-5
-1.373, 2.588e-5
-1.374, 2.649e-5
-1.375, 2.707e-5
-1.376, 2.761e-5
-1.377, 2.811e-5
-1.378, 2.877e-5
-1.379, 2.943e-5
-1.380, 3.007e-5
-1.381, 3.058e-5
-1.382, 3.116e-5
-1.383, 3.179e-5
-1.384, 3.253e-5
-1.385, 3.315e-5
-1.386, 3.375e-5
-1.387, 3.437e-5
-1.388, 3.502e-5
-1.389, 3.576e-5
-1.390, 3.644e-5
-1.391, 3.704e-5
-1.392, 3.765e-5
-1.393, 3.831e-5
-1.394, 3.910e-5
-1.395, 3.981e-5
-1.396, 4.047e-5
-1.397, 4.112e-5
-1.398, 4.177e-5
-1.399, 4.260e-5
-1.400, 4.333e-5
-1.401, 4.398e-5
-1.402, 4.469e-5
-1.403, 4.537e-5
-1.404, 4.628e-5
-1.405, 4.701e-5
-1.406, 4.774e-5
-1.407, 4.849e-5
-1.408, 4.920e-5
-1.409, 5.014e-5
-1.410, 5.092e-5
-1.411, 5.169e-5
-1.412, 5.248e-5
-1.413, 5.327e-5
-1.414, 5.422e-5
-1.415, 5.513e-5
-1.416, 5.590e-5
-1.417, 5.677e-5
-1.418, 5.755e-5
-1.419, 5.862e-5
-1.420, 5.951e-5
-1.421, 6.039e-5
-1.422, 6.128e-5
-1.423, 6.221e-5
-1.424, 6.331e-5
-1.425, 6.427e-5
-1.426, 6.518e-5
-1.427, 6.609e-5
-1.428, 6.709e-5
-1.429, 6.822e-5
-1.430, 6.927e-5
-1.431, 7.025e-5
-1.432, 7.129e-5
-1.433, 7.230e-5
-1.434, 7.354e-5
-1.435, 7.461e-5
-1.436, 7.565e-5
-1.437, 7.672e-5
-1.438, 7.784e-5
-1.439, 7.909e-5
-1.440, 8.029e-5
-1.441, 8.142e-5
-1.442, 8.250e-5
-1.443, 8.362e-5
-1.444, 8.499e-5
-1.445, 8.617e-5
-1.446, 8.738e-5
-1.447, 8.854e-5
-1.448, 8.970e-5
-1.449, 9.109e-5
-1.450, 9.243e-5
-1.451, 9.369e-5
-1.452, 9.491e-5
-1.453, 9.622e-5
-1.454, 9.772e-5
-1.455, 9.917e-5
-1.456, 1.005e-4
-1.457, 1.019e-4
-1.458, 1.033e-4
-1.459, 1.049e-4
-1.460, 1.064e-4
-1.461, 1.079e-4
-1.462, 1.093e-4
-1.463, 1.109e-4
-1.464, 1.126e-4
-1.465, 1.143e-4
-1.466, 1.159e-4
-1.467, 1.176e-4
-1.468, 1.192e-4
-1.469, 1.209e-4
-1.470, 1.228e-4
-1.471, 1.244e-4
-1.472, 1.261e-4
-1.473, 1.279e-4
-1.474, 1.297e-4
-1.475, 1.317e-4
-1.476, 1.334e-4
-1.477, 1.352e-4
-1.478, 1.370e-4
-1.479, 1.391e-4
-1.480, 1.411e-4
-1.481, 1.431e-4
-1.482, 1.450e-4
-1.483, 1.471e-4
-1.484, 1.493e-4
-1.485, 1.516e-4
-1.486, 1.537e-4
-1.487, 1.557e-4
-1.488, 1.578e-4
-1.489, 1.602e-4
-1.490, 1.624e-4
-1.491, 1.646e-4
-1.492, 1.668e-4
-1.493, 1.690e-4
-1.494, 1.712e-4
-1.495, 1.736e-4
-1.496, 1.759e-4
-1.497, 1.781e-4
-1.498, 1.803e-4
-1.499, 1.827e-4
-1.500, 1.850e-4
-1.501, 1.873e-4
-1.502, 1.894e-4
-1.503, 1.915e-4
-1.504, 1.940e-4
-1.505, 1.963e-4
-1.506, 1.987e-4
-1.507, 2.009e-4
-1.508, 2.033e-4
-1.509, 2.058e-4
-1.510, 2.082e-4
-1.511, 2.104e-4
-1.512, 2.127e-4
-1.513, 2.149e-4
-1.514, 2.174e-4
-1.515, 2.198e-4
-1.516, 2.221e-4
-1.517, 2.242e-4
-1.518, 2.263e-4
-1.519, 2.284e-4
-1.520, 2.305e-4
-1.521, 2.324e-4
-1.522, 2.340e-4
-1.523, 2.357e-4
-1.524, 2.378e-4
-1.525, 2.396e-4
-1.526, 2.414e-4
-1.527, 2.431e-4
-1.528, 2.443e-4
-1.529, 2.461e-4
-1.530, 2.477e-4
-1.531, 2.492e-4
-1.532, 2.504e-4
-1.533, 2.515e-4
-1.534, 2.533e-4
-1.535, 2.546e-4
-1.536, 2.554e-4
-1.537, 2.561e-4
-1.538, 2.570e-4
-1.539, 2.582e-4
-1.540, 2.592e-4
-1.541, 2.600e-4
-1.542, 2.605e-4
-1.543, 2.611e-4
-1.544, 2.622e-4
-1.545, 2.632e-4
-1.546, 2.640e-4
-1.547, 2.645e-4
-1.548, 2.651e-4
-1.549, 2.662e-4
-1.550, 2.670e-4
-1.551, 2.679e-4
-1.552, 2.686e-4
-1.553, 2.696e-4
-1.554, 2.708e-4
-1.555, 2.717e-4
-1.556, 2.726e-4
-1.557, 2.729e-4
-1.558, 2.736e-4
-1.559, 2.747e-4
-1.560, 2.762e-4
-1.561, 2.774e-4
-1.562, 2.782e-4
-1.563, 2.791e-4
-1.564, 2.801e-4
-1.565, 2.812e-4
-1.566, 2.823e-4
-1.567, 2.834e-4
-1.568, 2.843e-4
-1.569, 2.855e-4
-1.570, 2.866e-4
-1.571, 2.875e-4
-1.572, 2.888e-4
-1.573, 2.899e-4
-1.574, 2.914e-4
-1.575, 2.926e-4
-1.576, 2.933e-4
-1.577, 2.950e-4
-1.578, 2.969e-4
-1.579, 2.987e-4
-1.580, 3.002e-4
-1.581, 3.022e-4
-1.582, 3.047e-4
-1.583, 3.063e-4
-1.584, 3.083e-4
-1.585, 3.108e-4
-1.586, 3.137e-4
-1.587, 3.158e-4
-1.588, 3.182e-4
-1.589, 3.210e-4
-1.590, 3.239e-4
-1.591, 3.267e-4
-1.592, 3.298e-4
-1.593, 3.326e-4
-1.594, 3.347e-4
-1.595, 3.378e-4
-1.596, 3.406e-4
-1.597, 3.437e-4
-1.598, 3.466e-4
-1.599, 3.491e-4
-1.600, 3.454e-4
-1.599, 3.394e-4
-1.598, 3.331e-4
-1.597, 3.274e-4
-1.596, 3.224e-4
-1.595, 3.175e-4
-1.594, 3.124e-4
-1.593, 3.073e-4
-1.592, 3.013e-4
-1.591, 2.962e-4
-1.590, 2.920e-4
-1.589, 2.875e-4
-1.588, 2.834e-4
-1.587, 2.791e-4
-1.586, 2.754e-4
-1.585, 2.720e-4
-1.584, 2.683e-4
-1.583, 2.648e-4
-1.582, 2.618e-4
-1.581, 2.587e-4
-1.580, 2.562e-4
-1.579, 2.533e-4
-1.578, 2.500e-4
-1.577, 2.467e-4
-1.576, 2.440e-4
-1.575, 2.412e-4
-1.574, 2.375e-4
-1.573, 2.345e-4
-1.572, 2.314e-4
-1.571, 2.286e-4
-1.570, 2.260e-4
-1.569, 2.231e-4
-1.568, 2.202e-4
-1.567, 2.176e-4
-1.566, 2.152e-4
-1.565, 2.129e-4
-1.564, 2.105e-4
-1.563, 2.079e-4
-1.562, 2.052e-4
-1.561, 2.030e-4
-1.560, 2.009e-4
-1.559, 1.983e-4
-1.558, 1.958e-4
-1.557, 1.934e-4
-1.556, 1.913e-4
-1.555, 1.892e-4
-1.554, 1.869e-4
-1.553, 1.841e-4
-1.552, 1.816e-4
-1.551, 1.794e-4
-1.550, 1.773e-4
-1.549, 1.751e-4
-1.548, 1.726e-4
-1.547, 1.698e-4
-1.546, 1.674e-4
-1.545, 1.650e-4
-1.544, 1.625e-4
-1.543, 1.602e-4
-1.542, 1.578e-4
-1.541, 1.557e-4
-1.540, 1.539e-4
-1.539, 1.517e-4
-1.538, 1.496e-4
-1.537, 1.472e-4
-1.536, 1.451e-4
-1.535, 1.433e-4
-1.534, 1.412e-4
-1.533, 1.394e-4
-1.532, 1.369e-4
-1.531, 1.348e-4
-1.530, 1.331e-4
-1.529, 1.313e-4
-1.528, 1.293e-4
-1.527, 1.272e-4
-1.526, 1.254e-4
-1.525, 1.240e-4
-1.524, 1.221e-4
-1.523, 1.202e-4
-1.522, 1.183e-4
-1.521, 1.166e-4
-1.520, 1.152e-4
-1.519, 1.137e-4
-1.518, 1.118e-4
-1.517, 1.102e-4
-1.516, 1.087e-4
-1.515, 1.075e-4
-1.514, 1.059e-4
-1.513, 1.043e-4
-1.512, 1.025e-4
-1.511, 1.010e-4
-1.510, 9.974e-5
-1.509, 9.816e-5
-1.508, 9.652e-5
-1.507, 9.481e-5
-1.506, 9.350e-5
-1.505, 9.226e-5
-1.504, 9.081e-5
-1.503, 8.913e-5
-1.502, 8.756e-5
-1.501, 8.618e-5
-1.500, 8.499e-5
-1.499, 8.348e-5
-1.498, 8.203e-5
-1.497, 8.040e-5
-1.496, 7.919e-5
-1.495, 7.810e-5
-1.494, 7.671e-5
-1.493, 7.534e-5
-1.492, 7.380e-5
-1.491, 7.275e-5
-1.490, 7.179e-5
-1.489, 7.049e-5
-1.488, 6.914e-5
-1.487, 6.766e-5
-1.486, 6.673e-5
-1.485, 6.579e-5
-1.484, 6.472e-5
-1.483, 6.336e-5
-1.482, 6.206e-5
-1.481, 6.102e-5
-1.480, 6.017e-5
-1.479, 5.908e-5
-1.478, 5.777e-5
-1.477, 5.659e-5
-1.476, 5.564e-5
-1.475, 5.480e-5
-1.474, 5.388e-5
-1.473, 5.265e-5
-1.472, 5.143e-5
-1.471, 5.059e-5
-1.470, 4.974e-5
-1.469, 4.882e-5
-1.468, 4.776e-5
-1.467, 4.658e-5
-1.466, 4.579e-5
-1.465, 4.508e-5
-1.464, 4.426e-5
-1.463, 4.316e-5
-1.462, 4.205e-5
-1.461, 4.139e-5
-1.460, 4.074e-5
-1.459, 3.996e-5
-1.458, 3.893e-5
-1.457, 3.788e-5
-1.456, 3.725e-5
-1.455, 3.670e-5
-1.454, 3.605e-5
-1.453, 3.508e-5
-1.452, 3.416e-5
-1.451, 3.353e-5
-1.450, 3.301e-5
-1.449, 3.232e-5
-1.448, 3.142e-5
-1.447, 3.063e-5
-1.446, 3.004e-5
-1.445, 2.954e-5
-1.444, 2.898e-5
-1.443, 2.804e-5
-1.442, 2.726e-5
-1.441, 2.678e-5
-1.440, 2.646e-5
-1.439, 2.603e-5
-1.438, 2.519e-5
-1.437, 2.452e-5
-1.436, 2.401e-5
-1.435, 2.362e-5
-1.434, 2.320e-5
-1.433, 2.239e-5
-1.432, 2.174e-5
-1.431, 2.128e-5
-1.430, 2.094e-5
-1.429, 2.065e-5
-1.428, 2.002e-5
-1.427, 1.933e-5
-1.426, 1.898e-5
-1.425, 1.868e-5
-1.424, 1.842e-5
-1.423, 1.768e-5
-1.422, 1.708e-5
-1.421, 1.673e-5
-1.420, 1.651e-5
-1.419, 1.632e-5
-1.418, 1.568e-5
-1.417, 1.517e-5
-1.416, 1.483e-5
-1.415, 1.457e-5
-1.414, 1.436e-5
-1.413, 1.372e-5
-1.412, 1.322e-5
-1.411, 1.290e-5
-1.410, 1.282e-5
-1.409, 1.264e-5
-1.408, 1.208e-5
-1.407, 1.163e-5
-1.406, 1.131e-5
-1.405, 1.122e-5
-1.404, 1.101e-5
-1.403, 1.047e-5
-1.402, 1.008e-5
-1.401, 9.792e-6
-1.400, 9.727e-6
-1.399, 9.594e-6
-1.398, 9.131e-6
-1.397, 8.745e-6
-1.396, 8.487e-6
-1.395, 8.468e-6
-1.394, 8.319e-6
-1.393, 7.926e-6
-1.392, 7.464e-6
-1.391, 7.195e-6
-1.390, 7.164e-6
-1.389, 7.032e-6
-1.388, 6.685e-6
-1.387, 6.265e-6
-1.386, 6.097e-6
-1.385, 6.104e-6
-1.384, 5.944e-6
-1.383, 5.599e-6
-1.382, 5.170e-6
-1.381, 4.939e-6
-1.380, 5.024e-6
-1.379, 4.932e-6
-1.378, 4.629e-6
-1.377, 4.217e-6
-1.376, 4.070e-6
-1.375, 4.121e-6
-1.374, 4.059e-6
-1.373, 3.767e-6
-1.372, 3.429e-6
-1.371, 3.252e-6
-1.370, 3.375e-6
-1.369, 3.257e-6
-1.368, 2.973e-6
-1.367, 2.643e-6
-1.366, 2.510e-6
-1.365, 2.601e-6
-1.364, 2.515e-6
-1.363, 2.251e-6
-1.362, 1.962e-6
-1.361, 1.790e-6
-1.360, 1.963e-6
-1.359, 1.912e-6
-1.358, 1.575e-6
-1.357, 1.359e-6
-1.356, 1.212e-6
-1.355, 1.332e-6
-1.354, 1.360e-6
-1.353, 1.099e-6
-1.352, 7.585e-7
-1.351, 6.046e-7
-1.350, 7.358e-7
-1.349, 7.210e-7
-1.348, 5.276e-7
-1.347, 2.129e-7
-1.346, 1.083e-7
-1.345, 2.731e-7
-1.344, 2.504e-7
-1.343, 2.447e-8
-1.342, -2.429e-7
-1.341, -3.268e-7
-1.340, -1.877e-7
-1.339, -2.172e-7
-1.338, -3.573e-7
-1.337, -6.731e-7
-1.336, -7.836e-7
-1.335, -6.129e-7
-1.334, -6.030e-7
-1.333, -7.253e-7
-1.332, -1.069e-6
-1.331, -1.133e-6
-1.330, -9.661e-7
-1.329, -9.700e-7
-1.328, -1.101e-6
-1.327, -1.378e-6
-1.326, -1.424e-6
-1.325, -1.237e-6
-1.324, -1.239e-6
-1.323, -1.415e-6
-1.322, -1.641e-6
-1.321, -1.734e-6
-1.320, -1.570e-6
-1.319, -1.597e-6
-1.318, -1.702e-6
-1.317, -1.937e-6
-1.316, -2.028e-6
-1.315, -1.837e-6
-1.314, -1.803e-6
-1.313, -1.956e-6
-1.312, -2.221e-6
-1.311, -2.333e-6
-1.310, -2.116e-6
-1.309, -2.072e-6
-1.308, -2.174e-6
-1.307, -2.431e-6
-1.306, -2.493e-6
-1.305, -2.345e-6
-1.304, -2.204e-6
-1.303, -2.332e-6
-1.302, -2.628e-6
-1.301, -2.658e-6
-1.300, -2.501e-6
-1.299, -2.442e-6
-1.298, -2.600e-6
-1.297, -2.897e-6
-1.296, -2.887e-6
-1.295, -2.704e-6
-1.294, -2.664e-6
-1.293, -2.692e-6
-1.292, -3.036e-6
-1.291, -3.063e-6
-1.290, -2.915e-6
-1.289, -2.871e-6
-1.288, -2.950e-6
-1.287, -3.212e-6
-1.286, -3.286e-6
-1.285, -3.076e-6
-1.284, -3.031e-6
-1.283, -3.185e-6
-1.282, -3.403e-6
-1.281, -3.446e-6
-1.280, -3.316e-6
-1.279, -3.200e-6
-1.278, -3.328e-6
-1.277, -3.567e-6
-1.276, -3.579e-6
-1.275, -3.472e-6
-1.274, -3.445e-6
-1.273, -3.482e-6
-1.272, -3.729e-6
-1.271, -3.765e-6
-1.270, -3.634e-6
-1.269, -3.505e-6
-1.268, -3.645e-6
-1.267, -3.931e-6
-1.266, -3.959e-6
-1.265, -3.822e-6
-1.264, -3.784e-6
-1.263, -3.775e-6
-1.262, -4.078e-6
-1.261, -4.117e-6
-1.260, -3.959e-6
-1.259, -3.936e-6
-1.258, -3.957e-6
-1.257, -4.288e-6
-1.256, -4.283e-6
-1.255, -4.184e-6
-1.254, -4.118e-6
-1.253, -4.166e-6
-1.252, -4.393e-6
-1.251, -4.468e-6
-1.250, -4.330e-6
-1.249, -4.262e-6
-1.248, -4.382e-6
-1.247, -4.668e-6
-1.246, -4.739e-6
-1.245, -4.610e-6
-1.244, -4.525e-6
-1.243, -4.675e-6
-1.242, -4.948e-6
-1.241, -5.055e-6
-1.240, -4.930e-6
-1.239, -4.867e-6
-1.238, -5.013e-6
-1.237, -5.357e-6
-1.236, -5.541e-6
-1.235, -5.449e-6
-1.234, -5.484e-6
-1.233, -5.598e-6
-1.232, -5.965e-6
-1.231, -6.203e-6
-1.230, -6.136e-6
-1.229, -6.319e-6
-1.228, -6.455e-6
-1.227, -6.874e-6
-1.226, -7.144e-6
-1.225, -7.155e-6
-1.224, -7.286e-6
-1.223, -7.509e-6
-1.222, -8.006e-6
-1.221, -8.294e-6
-1.220, -8.368e-6
-1.219, -8.517e-6
-1.218, -8.736e-6
-1.217, -9.231e-6
-1.216, -9.565e-6
-1.215, -9.556e-6
-1.214, -9.757e-6
-1.213, -9.961e-6
-1.212, -1.043e-5
-1.211, -1.074e-5
-1.210, -1.070e-5
-1.209, -1.083e-5
-1.208, -1.100e-5
-1.207, -1.142e-5
-1.206, -1.170e-5
-1.205, -1.165e-5
-1.204, -1.173e-5
-1.203, -1.189e-5
-1.202, -1.226e-5
-1.201, -1.248e-5
-1.200, -1.244e-5
-1.199, -1.235e-5
-1.198, -1.251e-5
-1.197, -1.276e-5
-1.196, -1.292e-5
-1.195, -1.293e-5
-1.194, -1.278e-5
-1.193, -1.295e-5
-1.192, -1.332e-5
-1.191, -1.348e-5
-1.190, -1.340e-5
-1.189, -1.329e-5
-1.188, -1.339e-5
-1.187, -1.365e-5
-1.186, -1.377e-5
-1.185, -1.371e-5
-1.184, -1.354e-5
-1.183, -1.361e-5
-1.182, -1.390e-5
-1.181, -1.398e-5
-1.180, -1.391e-5
-1.179, -1.374e-5
-1.178, -1.383e-5
-1.177, -1.407e-5
-1.176, -1.414e-5
-1.175, -1.403e-5
-1.174, -1.383e-5
-1.173, -1.390e-5
-1.172, -1.409e-5
-1.171, -1.422e-5
-1.170, -1.412e-5
-1.169, -1.391e-5
-1.168, -1.395e-5
-1.167, -1.413e-5
-1.166, -1.422e-5
-1.165, -1.413e-5
-1.164, -1.395e-5
-1.163, -1.400e-5
-1.162, -1.422e-5
-1.161, -1.427e-5
-1.160, -1.414e-5
-1.159, -1.390e-5
-1.158, -1.399e-5
-1.157, -1.417e-5
-1.156, -1.424e-5
-1.155, -1.413e-5
-1.154, -1.389e-5
-1.153, -1.389e-5
-1.152, -1.408e-5
-1.151, -1.416e-5
-1.150, -1.402e-5
-1.149, -1.380e-5
-1.148, -1.381e-5
-1.147, -1.398e-5
-1.146, -1.400e-5
-1.145, -1.392e-5
-1.144, -1.363e-5
-1.143, -1.361e-5
-1.142, -1.381e-5
-1.141, -1.381e-5
-1.140, -1.369e-5
-1.139, -1.346e-5
-1.138, -1.342e-5
-1.137, -1.360e-5
-1.136, -1.358e-5
-1.135, -1.344e-5
-1.134, -1.322e-5
-1.133, -1.314e-5
-1.132, -1.335e-5
-1.131, -1.333e-5
-1.130, -1.319e-5
-1.129, -1.293e-5
-1.128, -1.282e-5
-1.127, -1.293e-5
-1.126, -1.295e-5
-1.125, -1.276e-5
-1.124, -1.245e-5
-1.123, -1.239e-5
-1.122, -1.249e-5
-1.121, -1.247e-5
-1.120, -1.230e-5
-1.119, -1.199e-5
-1.118, -1.191e-5
-1.117, -1.203e-5
-1.116, -1.201e-5
-1.115, -1.181e-5
-1.114, -1.156e-5
-1.113, -1.141e-5
-1.112, -1.152e-5
-1.111, -1.150e-5
-1.110, -1.129e-5
-1.109, -1.104e-5
-1.108, -1.089e-5
-1.107, -1.107e-5
-1.106, -1.110e-5
-1.105, -1.097e-5
-1.104, -1.066e-5
-1.103, -1.054e-5
-1.102, -1.067e-5
-1.101, -1.062e-5
-1.100, -1.045e-5
-1.099, -1.012e-5
-1.098, -9.989e-6
-1.097, -1.019e-5
-1.096, -1.014e-5
-1.095, -9.981e-6
-1.094, -9.763e-6
-1.093, -9.611e-6
-1.092, -9.788e-6
-1.091, -9.763e-6
-1.090, -9.606e-6
-1.089, -9.321e-6
-1.088, -9.187e-6
-1.087, -9.386e-6
-1.086, -9.358e-6
-1.085, -9.263e-6
-1.084, -8.966e-6
-1.083, -8.943e-6
-1.082, -9.050e-6
-1.081, -9.057e-6
-1.080, -8.927e-6
-1.079, -8.650e-6
-1.078, -8.591e-6
-1.077, -8.697e-6
-1.076, -8.780e-6
-1.075, -8.654e-6
-1.074, -8.359e-6
-1.073, -8.366e-6
-1.072, -8.511e-6
-1.071, -8.518e-6
-1.070, -8.418e-6
-1.069, -8.145e-6
-1.068, -8.078e-6
-1.067, -8.218e-6
-1.066, -8.271e-6
-1.065, -8.148e-6
-1.064, -7.806e-6
-1.063, -7.778e-6
-1.062, -7.929e-6
-1.061, -7.941e-6
-1.060, -7.875e-6
-1.059, -7.526e-6
-1.058, -7.485e-6
-1.057, -7.593e-6
-1.056, -7.666e-6
-1.055, -7.559e-6
-1.054, -7.260e-6
-1.053, -7.181e-6
-1.052, -7.249e-6
-1.051, -7.338e-6
-1.050, -7.224e-6
-1.049, -6.922e-6
-1.048, -6.890e-6
-1.047, -7.014e-6
-1.046, -7.117e-6
-1.045, -6.982e-6
-1.044, -6.696e-6
-1.043, -6.732e-6
-1.042, -6.793e-6
-1.041, -6.933e-6
-1.040, -6.728e-6
-1.039, -6.470e-6
-1.038, -6.473e-6
-1.037, -6.557e-6
-1.036, -6.718e-6
-1.035, -6.567e-6
-1.034, -6.313e-6
-1.033, -6.333e-6
-1.032, -6.391e-6
-1.031, -6.564e-6
-1.030, -6.401e-6
-1.029, -6.119e-6
-1.028, -6.166e-6
-1.027, -6.263e-6
-1.026, -6.389e-6
-1.025, -6.278e-6
-1.024, -6.035e-6
-1.023, -6.035e-6
-1.022, -6.168e-6
-1.021, -6.310e-6
-1.020, -6.141e-6
-1.019, -5.961e-6
-1.018, -5.928e-6
-1.017, -6.042e-6
-1.016, -6.196e-6
-1.015, -6.063e-6
-1.014, -5.873e-6
-1.013, -5.852e-6
-1.012, -5.958e-6
-1.011, -6.211e-6
-1.010, -5.999e-6
-1.009, -5.862e-6
-1.008, -5.768e-6
-1.007, -5.955e-6
-1.006, -6.162e-6
-1.005, -6.025e-6
-1.004, -5.837e-6
-1.003, -5.786e-6
-1.002, -5.963e-6
-1.001, -6.119e-6
-1.000, -3.203e-6
-1.001, -1.920e-6
-1.002, -1.483e-6
-1.003, -1.487e-6
-1.004, -1.325e-6
-1.005, -1.030e-6
-1.006, -6.602e-7
-1.007, -4.471e-7
-1.008, -4.747e-7
-1.009, -4.629e-7
-1.010, -1.748e-7
-1.011, 1.014e-7
-1.012, 2.524e-7
-1.013, 1.892e-7
-1.014, 1.251e-7
-1.015, 3.935e-7
-1.016, 6.145e-7
-1.017, 8.187e-7
-1.018, 7.121e-7
-1.019, 5.858e-7
-1.020, 8.236e-7
-1.021, 1.061e-6
-1.022, 1.158e-6
-1.023, 1.105e-6
-1.024, 9.825e-7
-1.025, 1.197e-6
-1.026, 1.444e-6
-1.027, 1.574e-6
-1.028, 1.425e-6
-1.029, 1.295e-6
-1.030, 1.468e-6
-1.031, 1.738e-6
-1.032, 1.814e-6
-1.033, 1.656e-6
-1.034, 1.555e-6
-1.035, 1.697e-6
-1.036, 1.938e-6
-1.037, 2.054e-6
-1.038, 1.900e-6
-1.039, 1.783e-6
-1.040, 1.893e-6
-1.041, 2.137e-6
-1.042, 2.233e-6
-1.043, 2.046e-6
-1.044, 1.943e-6
-1.045, 2.105e-6
-1.046, 2.274e-6
-1.047, 2.414e-6
-1.048, 2.257e-6
-1.049, 2.063e-6
-1.050, 2.277e-6
-1.051, 2.424e-6
-1.052, 2.550e-6
-1.053, 2.378e-6
-1.054, 2.204e-6
-1.055, 2.382e-6
-1.056, 2.527e-6
-1.057, 2.672e-6
-1.058, 2.541e-6
-1.059, 2.356e-6
-1.060, 2.503e-6
-1.061, 2.690e-6
-1.062, 2.824e-6
-1.063, 2.665e-6
-1.064, 2.504e-6
-1.065, 2.603e-6
-1.066, 2.793e-6
-1.067, 2.916e-6
-1.068, 2.770e-6
-1.069, 2.612e-6
-1.070, 2.749e-6
-1.071, 2.921e-6
-1.072, 3.075e-6
-1.073, 2.899e-6
-1.074, 2.727e-6
-1.075, 2.852e-6
-1.076, 3.020e-6
-1.077, 3.174e-6
-1.078, 2.991e-6
-1.079, 2.864e-6
-1.080, 2.975e-6
-1.081, 3.144e-6
-1.082, 3.298e-6
-1.083, 3.117e-6
-1.084, 2.944e-6
-1.085, 3.069e-6
-1.086, 3.212e-6
-1.087, 3.389e-6
-1.088, 3.224e-6
-1.089, 3.071e-6
-1.090, 3.174e-6
-1.091, 3.331e-6
-1.092, 3.510e-6
-1.093, 3.346e-6
-1.094, 3.182e-6
-1.095, 3.296e-6
-1.096, 3.457e-6
-1.097, 3.602e-6
-1.098, 3.472e-6
-1.099, 3.290e-6
-1.100, 3.383e-6
-1.101, 3.598e-6
-1.102, 3.756e-6
-1.103, 3.613e-6
-1.104, 3.441e-6
-1.105, 3.532e-6
-1.106, 3.709e-6
-1.107, 3.854e-6
-1.108, 3.744e-6
-1.109, 3.576e-6
-1.110, 3.691e-6
-1.111, 3.841e-6
-1.112, 4.039e-6
-1.113, 3.873e-6
-1.114, 3.786e-6
-1.115, 3.838e-6
-1.116, 4.031e-6
-1.117, 4.206e-6
-1.118, 4.014e-6
-1.119, 3.920e-6
-1.120, 3.994e-6
-1.121, 4.193e-6
-1.122, 4.384e-6
-1.123, 4.212e-6
-1.124, 4.098e-6
-1.125, 4.160e-6
-1.126, 4.354e-6
-1.127, 4.544e-6
-1.128, 4.460e-6
-1.129, 4.271e-6
-1.130, 4.397e-6
-1.131, 4.574e-6
-1.132, 4.758e-6
-1.133, 4.591e-6
-1.134, 4.491e-6
-1.135, 4.586e-6
-1.136, 4.762e-6
-1.137, 4.912e-6
-1.138, 4.870e-6
-1.139, 4.695e-6
-1.140, 4.806e-6
-1.141, 5.007e-6
-1.142, 5.182e-6
-1.143, 5.061e-6
-1.144, 4.943e-6
-1.145, 4.985e-6
-1.146, 5.240e-6
-1.147, 5.434e-6
-1.148, 5.349e-6
-1.149, 5.194e-6
-1.150, 5.256e-6
-1.151, 5.455e-6
-1.152, 5.659e-6
-1.153, 5.578e-6
-1.154, 5.443e-6
-1.155, 5.535e-6
-1.156, 5.732e-6
-1.157, 5.932e-6
-1.158, 5.864e-6
-1.159, 5.708e-6
-1.160, 5.756e-6
-1.161, 5.969e-6
-1.162, 6.206e-6
-1.163, 6.119e-6
-1.164, 5.990e-6
-1.165, 6.083e-6
-1.166, 6.259e-6
-1.167, 6.467e-6
-1.168, 6.395e-6
-1.169, 6.256e-6
-1.170, 6.352e-6
-1.171, 6.537e-6
-1.172, 6.724e-6
-1.173, 6.682e-6
-1.174, 6.547e-6
-1.175, 6.633e-6
-1.176, 6.814e-6
-1.177, 7.029e-6
-1.178, 7.018e-6
-1.179, 6.786e-6
-1.180, 6.949e-6
-1.181, 7.092e-6
-1.182, 7.347e-6
-1.183, 7.266e-6
-1.184, 7.113e-6
-1.185, 7.197e-6
-1.186, 7.412e-6
-1.187, 7.639e-6
-1.188, 7.576e-6
-1.189, 7.422e-6
-1.190, 7.524e-6
-1.191, 7.703e-6
-1.192, 7.875e-6
-1.193, 7.858e-6
-1.194, 7.681e-6
-1.195, 7.788e-6
-1.196, 7.955e-6
-1.197, 8.192e-6
-1.198, 8.130e-6
-1.199, 7.976e-6
-1.200, 8.065e-6
-1.201, 8.195e-6
-1.202, 8.433e-6
-1.203, 8.367e-6
-1.204, 8.210e-6
-1.205, 8.296e-6
-1.206, 8.477e-6
-1.207, 8.744e-6
-1.208, 8.651e-6
-1.209, 8.488e-6
-1.210, 8.559e-6
-1.211, 8.728e-6
-1.212, 8.961e-6
-1.213, 8.903e-6
-1.214, 8.766e-6
-1.215, 8.826e-6
-1.216, 9.017e-6
-1.217, 9.213e-6
-1.218, 9.164e-6
-1.219, 8.964e-6
-1.220, 9.034e-6
-1.221, 9.195e-6
-1.222, 9.466e-6
-1.223, 9.401e-6
-1.224, 9.187e-6
-1.225, 9.249e-6
-1.226, 9.413e-6
-1.227, 9.672e-6
-1.228, 9.620e-6
-1.229, 9.498e-6
-1.230, 9.517e-6
-1.231, 9.702e-6
-1.232, 9.886e-6
-1.233, 9.864e-6
-1.234, 9.721e-6
-1.235, 9.732e-6
-1.236, 9.926e-6
-1.237, 1.013e-5
-1.238, 1.006e-5
-1.239, 9.917e-6
-1.240, 9.902e-6
-1.241, 1.011e-5
-1.242, 1.034e-5
-1.243, 1.027e-5
-1.244, 1.017e-5
-1.245, 1.018e-5
-1.246, 1.033e-5
-1.247, 1.058e-5
-1.248, 1.048e-5
-1.249, 1.032e-5
-1.250, 1.035e-5
-1.251, 1.057e-5
-1.252, 1.080e-5
-1.253, 1.071e-5
-1.254, 1.058e-5
-1.255, 1.065e-5
-1.256, 1.077e-5
-1.257, 1.101e-5
-1.258, 1.096e-5
-1.259, 1.082e-5
-1.260, 1.083e-5
-1.261, 1.104e-5
-1.262, 1.125e-5
-1.263, 1.124e-5
-1.264, 1.105e-5
-1.265, 1.105e-5
-1.266, 1.120e-5
-1.267, 1.149e-5
-1.268, 1.145e-5
-1.269, 1.134e-5
-1.270, 1.131e-5
-1.271, 1.152e-5
-1.272, 1.175e-5
-1.273, 1.173e-5
-1.274, 1.158e-5
-1.275, 1.156e-5
-1.276, 1.177e-5
-1.277, 1.201e-5
-1.278, 1.198e-5
-1.279, 1.189e-5
-1.280, 1.189e-5
-1.281, 1.205e-5
-1.282, 1.235e-5
-1.283, 1.231e-5
-1.284, 1.215e-5
-1.285, 1.213e-5
-1.286, 1.235e-5
-1.287, 1.261e-5
-1.288, 1.260e-5
-1.289, 1.251e-5
-1.290, 1.251e-5
-1.291, 1.271e-5
-1.292, 1.295e-5
-1.293, 1.296e-5
-1.294, 1.282e-5
-1.295, 1.286e-5
-1.296, 1.302e-5
-1.297, 1.334e-5
-1.298, 1.336e-5
-1.299, 1.326e-5
-1.300, 1.324e-5
-1.301, 1.345e-5
-1.302, 1.376e-5
-1.303, 1.378e-5
-1.304, 1.367e-5
-1.305, 1.368e-5
-1.306, 1.392e-5
-1.307, 1.421e-5
-1.308, 1.423e-5
-1.309, 1.419e-5
-1.310, 1.417e-5
-1.311, 1.444e-5
-1.312, 1.476e-5
-1.313, 1.475e-5
-1.314, 1.476e-5
-1.315, 1.467e-5
-1.316, 1.502e-5
-1.317, 1.532e-5
-1.318, 1.535e-5
-1.319, 1.537e-5
-1.320, 1.531e-5
-1.321, 1.563e-5
-1.322, 1.595e-5
-1.323, 1.601e-5
-1.324, 1.600e-5
-1.325, 1.599e-5
-1.326, 1.634e-5
-1.327, 1.662e-5
-1.328, 1.676e-5
-1.329, 1.671e-5
-1.330, 1.672e-5
-1.331, 1.706e-5
-1.332, 1.740e-5
-1.333, 1.753e-5
-1.334, 1.749e-5
-1.335, 1.754e-5
-1.336, 1.787e-5
-1.337, 1.816e-5
-1.338, 1.831e-5
-1.339, 1.827e-5
-1.340, 1.830e-5
-1.341, 1.867e-5
-1.342, 1.897e-5
-1.343, 1.914e-5
-1.344, 1.912e-5
-1.345, 1.914e-5
-1.346, 1.948e-5
-1.347, 1.976e-5
-1.348, 1.997e-5
-1.349, 1.988e-5
-1.350, 1.990e-5
-1.351, 2.027e-5
-1.352, 2.056e-5
-1.353, 2.072e-5
-1.354, 2.066e-5
-1.355, 2.063e-5
-1.356, 2.096e-5
-1.357, 2.123e-5
-1.358, 2.140e-5
-1.359, 2.132e-5
-1.360, 2.129e-5
-1.361, 2.161e-5
-1.362, 2.189e-5
-1.363, 2.200e-5
-1.364, 2.193e-5
-1.365, 2.194e-5
-1.366, 2.224e-5
-1.367, 2.244e-5
-1.368, 2.259e-5
-1.369, 2.251e-5
-1.370, 2.246e-5
-1.371, 2.276e-5
-1.372, 2.297e-5
-1.373, 2.309e-5
-1.374, 2.299e-5
-1.375, 2.293e-5
-1.376, 2.323e-5
-1.377, 2.342e-5
-1.378, 2.356e-5
-1.379, 2.340e-5
-1.380, 2.336e-5
-1.381, 2.356e-5
-1.382, 2.379e-5
-1.383, 2.389e-5
-1.384, 2.370e-5
-1.385, 2.363e-5
-1.386, 2.384e-5
-1.387, 2.397e-5
-1.388, 2.405e-5
-1.389, 2.391e-5
-1.390, 2.377e-5
-1.391, 2.393e-5
-1.392, 2.407e-5
-1.393, 2.415e-5
-1.394, 2.395e-5
-1.395, 2.378e-5
-1.396, 2.396e-5
-1.397, 2.414e-5
-1.398, 2.417e-5
-1.399, 2.394e-5
-1.400, 2.382e-5
-1.401, 2.390e-5
-1.402, 2.411e-5
-1.403, 2.411e-5
-1.404, 2.394e-5
-1.405, 2.381e-5
-1.406, 2.396e-5
-1.407, 2.418e-5
-1.408, 2.422e-5
-1.409, 2.400e-5
-1.410, 2.398e-5
-1.411, 2.409e-5
-1.412, 2.438e-5
-1.413, 2.449e-5
-1.414, 2.432e-5
-1.415, 2.431e-5
-1.416, 2.449e-5
-1.417, 2.485e-5
-1.418, 2.504e-5
-1.419, 2.498e-5
-1.420, 2.501e-5
-1.421, 2.533e-5
-1.422, 2.571e-5
-1.423, 2.597e-5
-1.424, 2.601e-5
-1.425, 2.614e-5
-1.426, 2.645e-5
-1.427, 2.692e-5
-1.428, 2.728e-5
-1.429, 2.738e-5
-1.430, 2.758e-5
-1.431, 2.803e-5
-1.432, 2.858e-5
-1.433, 2.904e-5
-1.434, 2.918e-5
-1.435, 2.948e-5
-1.436, 2.997e-5
-1.437, 3.062e-5
-1.438, 3.108e-5
-1.439, 3.138e-5
-1.440, 3.170e-5
-1.441, 3.231e-5
-1.442, 3.298e-5
-1.443, 3.358e-5
-1.444, 3.389e-5
-1.445, 3.431e-5
-1.446, 3.492e-5
-1.447, 3.575e-5
-1.448, 3.636e-5
-1.449, 3.674e-5
-1.450, 3.725e-5
-1.451, 3.797e-5
-1.452, 3.881e-5
-1.453, 3.955e-5
-1.454, 3.998e-5
-1.455, 4.055e-5
-1.456, 4.131e-5
-1.457, 4.218e-5
-1.458, 4.304e-5
-1.459, 4.357e-5
-1.460, 4.422e-5
-1.461, 4.510e-5
-1.462, 4.603e-5
-1.463, 4.697e-5
-1.464, 4.758e-5
-1.465, 4.832e-5
-1.466, 4.922e-5
-1.467, 5.032e-5
-1.468, 5.127e-5
-1.469, 5.192e-5
-1.470, 5.271e-5
-1.471, 5.377e-5
-1.472, 5.491e-5
-1.473, 5.616e-5
-1.474, 5.681e-5
-1.475, 5.761e-5
-1.476, 5.874e-5
-1.477, 5.995e-5
-1.478, 6.104e-5
-1.479, 6.195e-5
-1.480, 6.275e-5
-1.481, 6.388e-5
-1.482, 6.515e-5
-1.483, 6.633e-5
-1.484, 6.727e-5
-1.485, 6.819e-5
-1.486, 6.945e-5
-1.487, 7.078e-5
-1.488, 7.210e-5
-1.489, 7.312e-5
-1.490, 7.417e-5
-1.491, 7.549e-5
-1.492, 7.699e-5
-1.493, 7.838e-5
-1.494, 7.948e-5
-1.495, 8.058e-5
-1.496, 8.202e-5
-1.497, 8.364e-5
-1.498, 8.520e-5
-1.499, 8.643e-5
-1.500, 8.759e-5
-1.501, 8.907e-5
-1.502, 9.075e-5
-1.503, 9.247e-5
-1.504, 9.370e-5
-1.505, 9.511e-5
-1.506, 9.680e-5
-1.507, 9.860e-5
-1.508, 1.003e-4
-1.509, 1.019e-4
-1.510, 1.033e-4
-1.511, 1.051e-4
-1.512, 1.069e-4
-1.513, 1.087e-4
-1.514, 1.104e-4
-1.515, 1.119e-4
-1.516, 1.138e-4
-1.517, 1.158e-4
-1.518, 1.177e-4
-1.519, 1.195e-4
-1.520, 1.211e-4
-1.521, 1.230e-4
-1.522, 1.252e-4
-1.523, 1.274e-4
-1.524, 1.291e-4
-1.525, 1.310e-4
-1.526, 1.332e-4
-1.527, 1.357e-4
-1.528, 1.379e-4
-1.529, 1.402e-4
-1.530, 1.421e-4
-1.531, 1.443e-4
-1.532, 1.469e-4
-1.533, 1.490e-4
-1.534, 1.509e-4
-1.535, 1.531e-4
-1.536, 1.553e-4
-1.537, 1.579e-4
-1.538, 1.605e-4
-1.539, 1.627e-4
-1.540, 1.651e-4
-1.541, 1.675e-4
-1.542, 1.706e-4
-1.543, 1.730e-4
-1.544, 1.754e-4
-1.545, 1.779e-4
-1.546, 1.805e-4
-1.547, 1.832e-4
-1.548, 1.860e-4
-1.549, 1.882e-4
-1.550, 1.908e-4
-1.551, 1.940e-4
-1.552, 1.987e-4
-1.553, 2.001e-4
-1.554, 2.023e-4
-1.555, 2.043e-4
-1.556, 2.073e-4
-1.557, 2.104e-4
-1.558, 2.135e-4
-1.559, 2.164e-4
-1.560, 2.196e-4
-1.561, 2.228e-4
-1.562, 2.263e-4
-1.563, 2.296e-4
-1.564, 2.326e-4
-1.565, 2.355e-4
-1.566, 2.387e-4
-1.567, 2.424e-4
-1.568, 2.463e-4
-1.569, 2.497e-4
-1.570, 2.528e-4
-1.571, 2.560e-4
-1.572, 2.592e-4
-1.573, 2.627e-4
-1.574, 2.653e-4
-1.575, 2.687e-4
-1.576, 2.722e-4
-1.577, 2.761e-4
-1.578, 2.800e-4
-1.579, 2.834e-4
-1.580, 2.863e-4
-1.581, 2.899e-4
-1.582, 2.939e-4
-1.583, 2.980e-4
-1.584, 3.016e-4
-1.585, 3.057e-4
-1.586, 3.092e-4
-1.587, 3.128e-4
-1.588, 3.172e-4
-1.589, 3.210e-4
-1.590, 3.243e-4
-1.591, 3.283e-4
-1.592, 3.327e-4
-1.593, 3.369e-4
-1.594, 3.413e-4
-1.595, 3.451e-4
-1.596, 3.498e-4
-1.597, 3.544e-4
-1.598, 3.590e-4
-1.599, 3.631e-4
-1.600, 3.606e-4
-1.599, 3.562e-4
-1.598, 3.522e-4
-1.597, 3.482e-4
-1.596, 3.445e-4
-1.595, 3.419e-4
-1.594, 3.383e-4
-1.593, 3.348e-4
-1.592, 3.316e-4
-1.591, 3.285e-4
-1.590, 3.252e-4
-1.589, 3.218e-4
-1.588, 3.188e-4
-1.587, 3.162e-4
-1.586, 3.129e-4
-1.585, 3.093e-4
-1.584, 3.063e-4
-1.583, 3.035e-4
-1.582, 3.007e-4
-1.581, 2.975e-4
-1.580, 2.940e-4
-1.579, 2.914e-4
-1.578, 2.887e-4
-1.577, 2.859e-4
-1.576, 2.829e-4
-1.575, 2.797e-4
-1.574, 2.767e-4
-1.573, 2.734e-4
-1.572, 2.706e-4
-1.571, 2.676e-4
-1.570, 2.648e-4
-1.569, 2.608e-4
-1.568, 2.582e-4
-1.567, 2.553e-4
-1.566, 2.522e-4
-1.565, 2.489e-4
-1.564, 2.460e-4
-1.563, 2.436e-4
-1.562, 2.410e-4
-1.561, 2.382e-4
-1.560, 2.354e-4
-1.559, 2.323e-4
-1.558, 2.298e-4
-1.557, 2.273e-4
-1.556, 2.242e-4
-1.555, 2.211e-4
-1.554, 2.180e-4
-1.553, 2.153e-4
-1.552, 2.126e-4
-1.551, 2.098e-4
-1.550, 2.070e-4
-1.549, 2.042e-4
-1.548, 2.017e-4
-1.547, 1.996e-4
-1.546, 1.971e-4
-1.545, 1.944e-4
-1.544, 1.919e-4
-1.543, 1.896e-4
-1.542, 1.876e-4
-1.541, 1.851e-4
-1.540, 1.826e-4
-1.539, 1.800e-4
-1.538, 1.777e-4
-1.537, 1.757e-4
-1.536, 1.733e-4
-1.535, 1.708e-4
-1.534, 1.683e-4
-1.533, 1.663e-4
-1.532, 1.644e-4
-1.531, 1.621e-4
-1.530, 1.595e-4
-1.529, 1.572e-4
-1.528, 1.551e-4
-1.527, 1.532e-4
-1.526, 1.510e-4
-1.525, 1.485e-4
-1.524, 1.462e-4
-1.523, 1.444e-4
-1.522, 1.424e-4
-1.521, 1.403e-4
-1.520, 1.383e-4
-1.519, 1.360e-4
-1.518, 1.341e-4
-1.517, 1.323e-4
-1.516, 1.303e-4
-1.515, 1.280e-4
-1.514, 1.258e-4
-1.513, 1.242e-4
-1.512, 1.225e-4
-1.511, 1.205e-4
-1.510, 1.182e-4
-1.509, 1.162e-4
-1.508, 1.145e-4
-1.507, 1.127e-4
-1.506, 1.110e-4
-1.505, 1.089e-4
-1.504, 1.070e-4
-1.503, 1.055e-4
-1.502, 1.038e-4
-1.501, 1.022e-4
-1.500, 1.002e-4
-1.499, 9.827e-5
-1.498, 9.681e-5
-1.497, 9.517e-5
-1.496, 9.355e-5
-1.495, 9.174e-5
-1.494, 8.994e-5
-1.493, 8.865e-5
-1.492, 8.719e-5
-1.491, 8.561e-5
-1.490, 8.395e-5
-1.489, 8.218e-5
-1.488, 8.092e-5
-1.487, 7.963e-5
-1.486, 7.814e-5
-1.485, 7.649e-5
-1.484, 7.489e-5
-1.483, 7.363e-5
-1.482, 7.248e-5
-1.481, 7.102e-5
-1.480, 6.959e-5
-1.479, 6.802e-5
-1.478, 6.688e-5
-1.477, 6.578e-5
-1.476, 6.446e-5
-1.475, 6.307e-5
-1.474, 6.164e-5
-1.473, 6.064e-5
-1.472, 5.963e-5
-1.471, 5.838e-5
-1.470, 5.696e-5
-1.469, 5.549e-5
-1.468, 5.466e-5
-1.467, 5.379e-5
-1.466, 5.264e-5
-1.465, 5.133e-5
-1.464, 5.014e-5
-1.463, 4.920e-5
-1.462, 4.833e-5
-1.461, 4.732e-5
-1.460, 4.611e-5
-1.459, 4.499e-5
-1.458, 4.409e-5
-1.457, 4.335e-5
-1.456, 4.238e-5
-1.455, 4.124e-5
-1.454, 4.019e-5
-1.453, 3.936e-5
-1.452, 3.875e-5
-1.451, 3.784e-5
-1.450, 3.684e-5
-1.449, 3.580e-5
-1.448, 3.505e-5
-1.447, 3.448e-5
-1.446, 3.370e-5
-1.445, 3.264e-5
-1.444, 3.176e-5
-1.443, 3.106e-5
-1.442, 3.062e-5
-1.441, 2.982e-5
-1.440, 2.889e-5
-1.439, 2.811e-5
-1.438, 2.747e-5
-1.437, 2.700e-5
-1.436, 2.638e-5
-1.435, 2.548e-5
-1.434, 2.475e-5
-1.433, 2.415e-5
-1.432, 2.376e-5
-1.431, 2.320e-5
-1.430, 2.233e-5
-1.429, 2.167e-5
-1.428, 2.122e-5
-1.427, 2.080e-5
-1.426, 2.032e-5
-1.425, 1.954e-5
-1.424, 1.887e-5
-1.423, 1.845e-5
-1.422, 1.813e-5
-1.421, 1.769e-5
-1.420, 1.693e-5
-1.419, 1.629e-5
-1.418, 1.592e-5
-1.417, 1.562e-5
-1.416, 1.525e-5
-1.415, 1.462e-5
-1.414, 1.395e-5
-1.413, 1.368e-5
-1.412, 1.340e-5
-1.411, 1.307e-5
-1.410, 1.252e-5
-1.409, 1.192e-5
-1.408, 1.167e-5
-1.407, 1.144e-5
-1.406, 1.112e-5
-1.405, 1.066e-5
-1.404, 1.001e-5
-1.403, 9.783e-6
-1.402, 9.660e-6
-1.401, 9.290e-6
-1.400, 8.825e-6
-1.399, 8.334e-6
-1.398, 8.113e-6
-1.397, 7.995e-6
-1.396, 7.756e-6
-1.395, 7.268e-6
-1.394, 6.818e-6
-1.393, 6.645e-6
-1.392, 6.562e-6
-1.391, 6.325e-6
-1.390, 5.901e-6
-1.389, 5.446e-6
-1.388, 5.296e-6
-1.387, 5.211e-6
-1.386, 5.031e-6
-1.385, 4.642e-6
-1.384, 4.175e-6
-1.383, 4.057e-6
-1.382, 4.013e-6
-1.381, 3.886e-6
-1.380, 3.558e-6
-1.379, 3.142e-6
-1.378, 3.039e-6
-1.377, 3.020e-6
-1.376, 2.922e-6
-1.375, 2.556e-6
-1.374, 2.164e-6
-1.373, 2.140e-6
-1.372, 2.080e-6
-1.371, 1.980e-6
-1.370, 1.649e-6
-1.369, 1.244e-6
-1.368, 1.159e-6
-1.367, 1.167e-6
-1.366, 1.073e-6
-1.365, 7.911e-7
-1.364, 4.142e-7
-1.363, 3.451e-7
-1.362, 3.974e-7
-1.361, 3.096e-7
-1.360, 4.124e-8
-1.359, -2.962e-7
-1.358, -3.593e-7
-1.357, -2.784e-7
-1.356, -3.652e-7
-1.355, -6.671e-7
-1.354, -9.700e-7
-1.353, -9.562e-7
-1.352, -9.177e-7
-1.351, -9.680e-7
-1.350, -1.240e-6
-1.349, -1.564e-6
-1.348, -1.599e-6
-1.347, -1.480e-6
-1.346, -1.521e-6
-1.345, -1.834e-6
-1.344, -2.074e-6
-1.343, -2.100e-6
-1.342, -2.053e-6
-1.341, -2.024e-6
-1.340, -2.268e-6
-1.339, -2.585e-6
-1.338, -2.571e-6
-1.337, -2.524e-6
-1.336, -2.521e-6
-1.335, -2.697e-6
-1.334, -3.100e-6
-1.333, -3.081e-6
-1.332, -2.959e-6
-1.331, -2.972e-6
-1.330, -3.140e-6
-1.329, -3.459e-6
-1.328, -3.523e-6
-1.327, -3.390e-6
-1.326, -3.365e-6
-1.325, -3.570e-6
-1.324, -3.900e-6
-1.323, -3.915e-6
-1.322, -3.778e-6
-1.321, -3.725e-6
-1.320, -3.939e-6
-1.319, -4.152e-6
-1.318, -4.269e-6
-1.317, -4.074e-6
-1.316, -4.082e-6
-1.315, -4.294e-6
-1.314, -4.516e-6
-1.313, -4.564e-6
-1.312, -4.398e-6
-1.311, -4.376e-6
-1.310, -4.586e-6
-1.309, -4.758e-6
-1.308, -4.825e-6
-1.307, -4.692e-6
-1.306, -4.622e-6
-1.305, -4.854e-6
-1.304, -5.085e-6
-1.303, -5.146e-6
-1.302, -5.006e-6
-1.301, -4.907e-6
-1.300, -5.112e-6
-1.299, -5.337e-6
-1.298, -5.435e-6
-1.297, -5.255e-6
-1.296, -5.182e-6
-1.295, -5.389e-6
-1.294, -5.639e-6
-1.293, -5.684e-6
-1.292, -5.551e-6
-1.291, -5.457e-6
-1.290, -5.627e-6
-1.289, -5.872e-6
-1.288, -5.933e-6
-1.287, -5.815e-6
-1.286, -5.722e-6
-1.285, -5.912e-6
-1.284, -6.156e-6
-1.283, -6.230e-6
-1.282, -6.087e-6
-1.281, -5.997e-6
-1.280, -6.223e-6
-1.279, -6.417e-6
-1.278, -6.501e-6
-1.277, -6.387e-6
-1.276, -6.274e-6
-1.275, -6.462e-6
-1.274, -6.720e-6
-1.273, -6.795e-6
-1.272, -6.681e-6
-1.271, -6.522e-6
-1.270, -6.714e-6
-1.269, -6.966e-6
-1.268, -7.046e-6
-1.267, -6.988e-6
-1.266, -6.878e-6
-1.265, -7.016e-6
-1.264, -7.338e-6
-1.263, -7.415e-6
-1.262, -7.291e-6
-1.261, -7.191e-6
-1.260, -7.348e-6
-1.259, -7.665e-6
-1.258, -7.801e-6
-1.257, -7.685e-6
-1.256, -7.681e-6
-1.255, -7.820e-6
-1.254, -8.183e-6
-1.253, -8.380e-6
-1.252, -8.224e-6
-1.251, -8.295e-6
-1.250, -8.504e-6
-1.249, -8.904e-6
-1.248, -9.155e-6
-1.247, -9.069e-6
-1.246, -9.211e-6
-1.245, -9.463e-6
-1.244, -9.876e-6
-1.243, -1.023e-5
-1.242, -1.032e-5
-1.241, -1.044e-5
-1.240, -1.078e-5
-1.239, -1.132e-5
-1.238, -1.169e-5
-1.237, -1.186e-5
-1.236, -1.201e-5
-1.235, -1.248e-5
-1.234, -1.301e-5
-1.233, -1.340e-5
-1.232, -1.366e-5
-1.231, -1.384e-5
-1.230, -1.435e-5
-1.229, -1.503e-5
-1.228, -1.544e-5
-1.227, -1.574e-5
-1.226, -1.585e-5
-1.225, -1.643e-5
-1.224, -1.703e-5
-1.223, -1.741e-5
-1.222, -1.777e-5
-1.221, -1.792e-5
-1.220, -1.836e-5
-1.219, -1.904e-5
-1.218, -1.937e-5
-1.217, -1.965e-5
-1.216, -1.979e-5
-1.215, -2.019e-5
-1.214, -2.078e-5
-1.213, -2.108e-5
-1.212, -2.126e-5
-1.211, -2.141e-5
-1.210, -2.175e-5
-1.209, -2.223e-5
-1.208, -2.250e-5
-1.207, -2.267e-5
-1.206, -2.276e-5
-1.205, -2.298e-5
-1.204, -2.350e-5
-1.203, -2.378e-5
-1.202, -2.379e-5
-1.201, -2.388e-5
-1.200, -2.408e-5
-1.199, -2.452e-5
-1.198, -2.480e-5
-1.197, -2.476e-5
-1.196, -2.483e-5
-1.195, -2.509e-5
-1.194, -2.539e-5
-1.193, -2.567e-5
-1.192, -2.562e-5
-1.191, -2.569e-5
-1.190, -2.580e-5
-1.189, -2.608e-5
-1.188, -2.638e-5
-1.187, -2.643e-5
-1.186, -2.639e-5
-1.185, -2.653e-5
-1.184, -2.680e-5
-1.183, -2.713e-5
-1.182, -2.705e-5
-1.181, -2.699e-5
-1.180, -2.713e-5
-1.179, -2.743e-5
-1.178, -2.777e-5
-1.177, -2.765e-5
-1.176, -2.759e-5
-1.175, -2.775e-5
-1.174, -2.807e-5
-1.173, -2.828e-5
-1.172, -2.814e-5
-1.171, -2.806e-5
-1.170, -2.817e-5
-1.169, -2.843e-5
-1.168, -2.869e-5
-1.167, -2.869e-5
-1.166, -2.863e-5
-1.165, -2.876e-5
-1.164, -2.905e-5
-1.163, -2.928e-5
-1.162, -2.916e-5
-1.161, -2.915e-5
-1.160, -2.925e-5
-1.159, -2.958e-5
-1.158, -2.984e-5
-1.157, -2.977e-5
-1.156, -2.972e-5
-1.155, -2.984e-5
-1.154, -3.015e-5
-1.153, -3.046e-5
-1.152, -3.040e-5
-1.151, -3.027e-5
-1.150, -3.033e-5
-1.149, -3.060e-5
-1.148, -3.078e-5
-1.147, -3.074e-5
-1.146, -3.056e-5
-1.145, -3.067e-5
-1.144, -3.085e-5
-1.143, -3.097e-5
-1.142, -3.084e-5
-1.141, -3.064e-5
-1.140, -3.064e-5
-1.139, -3.075e-5
-1.138, -3.075e-5
-1.137, -3.058e-5
-1.136, -3.013e-5
-1.135, -3.003e-5
-1.134, -3.002e-5
-1.133, -2.986e-5
-1.132, -2.960e-5
-1.131, -2.918e-5
-1.130, -2.895e-5
-1.129, -2.892e-5
-1.128, -2.861e-5
-1.127, -2.822e-5
-1.126, -2.768e-5
-1.125, -2.728e-5
-1.124, -2.709e-5
-1.123, -2.681e-5
-1.122, -2.635e-5
-1.121, -2.576e-5
-1.120, -2.523e-5
-1.119, -2.500e-5
-1.118, -2.457e-5
-1.117, -2.409e-5
-1.116, -2.352e-5
-1.115, -2.298e-5
-1.114, -2.272e-5
-1.113, -2.241e-5
-1.112, -2.179e-5
-1.111, -2.112e-5
-1.110, -2.063e-5
-1.109, -2.040e-5
-1.108, -2.009e-5
-1.107, -1.963e-5
-1.106, -1.903e-5
-1.105, -1.871e-5
-1.104, -1.853e-5
-1.103, -1.825e-5
-1.102, -1.785e-5
-1.101, -1.733e-5
-1.100, -1.698e-5
-1.099, -1.686e-5
-1.098, -1.670e-5
-1.097, -1.635e-5
-1.096, -1.591e-5
-1.095, -1.563e-5
-1.094, -1.568e-5
-1.093, -1.560e-5
-1.092, -1.532e-5
-1.091, -1.498e-5
-1.090, -1.467e-5
-1.089, -1.471e-5
-1.088, -1.463e-5
-1.087, -1.436e-5
-1.086, -1.406e-5
-1.085, -1.386e-5
-1.084, -1.392e-5
-1.083, -1.399e-5
-1.082, -1.374e-5
-1.081, -1.345e-5
-1.080, -1.325e-5
-1.079, -1.335e-5
-1.078, -1.348e-5
-1.077, -1.326e-5
-1.076, -1.300e-5
-1.075, -1.288e-5
-1.074, -1.290e-5
-1.073, -1.299e-5
-1.072, -1.270e-5
-1.071, -1.242e-5
-1.070, -1.224e-5
-1.069, -1.224e-5
-1.068, -1.237e-5
-1.067, -1.220e-5
-1.066, -1.191e-5
-1.065, -1.182e-5
-1.064, -1.181e-5
-1.063, -1.192e-5
-1.062, -1.176e-5
-1.061, -1.145e-5
-1.060, -1.137e-5
-1.059, -1.152e-5
-1.058, -1.166e-5
-1.057, -1.151e-5
-1.056, -1.115e-5
-1.055, -1.106e-5
-1.054, -1.108e-5
-1.053, -1.121e-5
-1.052, -1.109e-5
-1.051, -1.081e-5
-1.050, -1.074e-5
-1.049, -1.080e-5
-1.048, -1.094e-5
-1.047, -1.082e-5
-1.046, -1.047e-5
-1.045, -1.038e-5
-1.044, -1.043e-5
-1.043, -1.050e-5
-1.042, -1.041e-5
-1.041, -1.009e-5
-1.040, -1.004e-5
-1.039, -1.015e-5
-1.038, -1.020e-5
-1.037, -1.013e-5
-1.036, -9.794e-6
-1.035, -9.682e-6
-1.034, -9.766e-6
-1.033, -9.841e-6
-1.032, -9.742e-6
-1.031, -9.589e-6
-1.030, -9.416e-6
-1.029, -9.536e-6
-1.028, -9.586e-6
-1.027, -9.485e-6
-1.026, -9.181e-6
-1.025, -9.041e-6
-1.024, -9.212e-6
-1.023, -9.273e-6
-1.022, -9.210e-6
-1.021, -9.012e-6
-1.020, -8.792e-6
-1.019, -8.984e-6
-1.018, -9.034e-6
-1.017, -8.904e-6
-1.016, -8.692e-6
-1.015, -8.521e-6
-1.014, -8.701e-6
-1.013, -8.799e-6
-1.012, -8.710e-6
-1.011, -8.536e-6
-1.010, -8.329e-6
-1.009, -8.447e-6
-1.008, -8.573e-6
-1.007, -8.490e-6
-1.006, -8.273e-6
-1.005, -8.126e-6
-1.004, -8.225e-6
-1.003, -8.417e-6
-1.002, -8.274e-6
-1.001, -8.083e-6
-1.000, -4.320e-6
-1.001, -2.272e-6
-1.002, -1.855e-6
-1.003, -1.372e-6
-1.004, -8.033e-7
-1.005, -3.889e-7
-1.006, -2.449e-7
-1.007, -2.271e-7
-1.008, -2.881e-8
-1.009, 3.905e-7
-1.010, 6.243e-7
-1.011, 6.796e-7
-1.012, 6.263e-7
-1.013, 7.950e-7
-1.014, 1.138e-6
-1.015, 1.359e-6
-1.016, 1.370e-6
-1.017, 1.250e-6
-1.018, 1.370e-6
-1.019, 1.682e-6
-1.020, 1.864e-6
-1.021, 1.836e-6
-1.022, 1.724e-6
-1.023, 1.779e-6
-1.024, 2.140e-6
-1.025, 2.259e-6
-1.026, 2.271e-6
-1.027, 2.083e-6
-1.028, 2.196e-6
-1.029, 2.460e-6
-1.030, 2.613e-6
-1.031, 2.540e-6
-1.032, 2.434e-6
-1.033, 2.483e-6
-1.034, 2.756e-6
-1.035, 2.879e-6
-1.036, 2.821e-6
-1.037, 2.695e-6
-1.038, 2.709e-6
-1.039, 3.058e-6
-1.040, 3.112e-6
-1.041, 3.039e-6
-1.042, 2.947e-6
-1.043, 2.939e-6
-1.044, 3.198e-6
-1.045, 3.334e-6
-1.046, 3.288e-6
-1.047, 3.138e-6
-1.048, 3.136e-6
-1.049, 3.399e-6
-1.050, 3.564e-6
-1.051, 3.448e-6
-1.052, 3.377e-6
-1.053, 3.289e-6
-1.054, 3.561e-6
-1.055, 3.735e-6
-1.056, 3.644e-6
-1.057, 3.507e-6
-1.058, 3.473e-6
-1.059, 3.697e-6
-1.060, 3.916e-6
-1.061, 3.791e-6
-1.062, 3.701e-6
-1.063, 3.679e-6
-1.064, 3.871e-6
-1.065, 4.049e-6
-1.066, 3.990e-6
-1.067, 3.849e-6
-1.068, 3.825e-6
-1.069, 4.013e-6
-1.070, 4.208e-6
-1.071, 4.163e-6
-1.072, 3.963e-6
-1.073, 3.948e-6
-1.074, 4.176e-6
-1.075, 4.374e-6
-1.076, 4.257e-6
-1.077, 4.115e-6
-1.078, 4.148e-6
-1.079, 4.291e-6
-1.080, 4.532e-6
-1.081, 4.404e-6
-1.082, 4.304e-6
-1.083, 4.283e-6
-1.084, 4.412e-6
-1.085, 4.641e-6
-1.086, 4.543e-6
-1.087, 4.406e-6
-1.088, 4.413e-6
-1.089, 4.538e-6
-1.090, 4.818e-6
-1.091, 4.747e-6
-1.092, 4.574e-6
-1.093, 4.599e-6
-1.094, 4.668e-6
-1.095, 4.967e-6
-1.096, 4.866e-6
-1.097, 4.703e-6
-1.098, 4.756e-6
-1.099, 4.898e-6
-1.100, 5.132e-6
-1.101, 5.086e-6
-1.102, 4.877e-6
-1.103, 4.873e-6
-1.104, 5.089e-6
-1.105, 5.321e-6
-1.106, 5.296e-6
-1.107, 5.063e-6
-1.108, 5.117e-6
-1.109, 5.264e-6
-1.110, 5.454e-6
-1.111, 5.512e-6
-1.112, 5.269e-6
-1.113, 5.327e-6
-1.114, 5.512e-6
-1.115, 5.681e-6
-1.116, 5.705e-6
-1.117, 5.530e-6
-1.118, 5.553e-6
-1.119, 5.733e-6
-1.120, 5.920e-6
-1.121, 5.968e-6
-1.122, 5.758e-6
-1.123, 5.809e-6
-1.124, 5.993e-6
-1.125, 6.203e-6
-1.126, 6.211e-6
-1.127, 6.063e-6
-1.128, 6.078e-6
-1.129, 6.263e-6
-1.130, 6.513e-6
-1.131, 6.534e-6
-1.132, 6.348e-6
-1.133, 6.368e-6
-1.134, 6.551e-6
-1.135, 6.783e-6
-1.136, 6.823e-6
-1.137, 6.691e-6
-1.138, 6.700e-6
-1.139, 6.891e-6
-1.140, 7.141e-6
-1.141, 7.179e-6
-1.142, 6.999e-6
-1.143, 7.014e-6
-1.144, 7.251e-6
-1.145, 7.463e-6
-1.146, 7.521e-6
-1.147, 7.376e-6
-1.148, 7.345e-6
-1.149, 7.585e-6
-1.150, 7.812e-6
-1.151, 7.921e-6
-1.152, 7.746e-6
-1.153, 7.775e-6
-1.154, 8.004e-6
-1.155, 8.179e-6
-1.156, 8.253e-6
-1.157, 8.094e-6
-1.158, 8.108e-6
-1.159, 8.337e-6
-1.160, 8.551e-6
-1.161, 8.671e-6
-1.162, 8.554e-6
-1.163, 8.469e-6
-1.164, 8.754e-6
-1.165, 8.966e-6
-1.166, 9.063e-6
-1.167, 8.957e-6
-1.168, 8.904e-6
-1.169, 9.117e-6
-1.170, 9.406e-6
-1.171, 9.510e-6
-1.172, 9.413e-6
-1.173, 9.358e-6
-1.174, 9.595e-6
-1.175, 9.810e-6
-1.176, 9.943e-6
-1.177, 9.846e-6
-1.178, 9.848e-6
-1.179, 1.006e-5
-1.180, 1.030e-5
-1.181, 1.046e-5
-1.182, 1.035e-5
-1.183, 1.031e-5
-1.184, 1.049e-5
-1.185, 1.074e-5
-1.186, 1.089e-5
-1.187, 1.077e-5
-1.188, 1.074e-5
-1.189, 1.098e-5
-1.190, 1.117e-5
-1.191, 1.138e-5
-1.192, 1.127e-5
-1.193, 1.120e-5
-1.194, 1.145e-5
-1.195, 1.168e-5
-1.196, 1.179e-5
-1.197, 1.173e-5
-1.198, 1.168e-5
-1.199, 1.190e-5
-1.200, 1.214e-5
-1.201, 1.227e-5
-1.202, 1.220e-5
-1.203, 1.215e-5
-1.204, 1.237e-5
-1.205, 1.256e-5
-1.206, 1.270e-5
-1.207, 1.262e-5
-1.208, 1.257e-5
-1.209, 1.279e-5
-1.210, 1.306e-5
-1.211, 1.316e-5
-1.212, 1.310e-5
-1.213, 1.299e-5
-1.214, 1.323e-5
-1.215, 1.347e-5
-1.216, 1.355e-5
-1.217, 1.355e-5
-1.218, 1.346e-5
-1.219, 1.364e-5
-1.220, 1.390e-5
-1.221, 1.400e-5
-1.222, 1.395e-5
-1.223, 1.389e-5
-1.224, 1.403e-5
-1.225, 1.425e-5
-1.226, 1.443e-5
-1.227, 1.435e-5
-1.228, 1.426e-5
-1.229, 1.449e-5
-1.230, 1.470e-5
-1.231, 1.481e-5
-1.232, 1.476e-5
-1.233, 1.461e-5
-1.234, 1.486e-5
-1.235, 1.506e-5
-1.236, 1.517e-5
-1.237, 1.517e-5
-1.238, 1.503e-5
-1.239, 1.522e-5
-1.240, 1.546e-5
-1.241, 1.555e-5
-1.242, 1.552e-5
-1.243, 1.537e-5
-1.244, 1.564e-5
-1.245, 1.584e-5
-1.246, 1.596e-5
-1.247, 1.594e-5
-1.248, 1.578e-5
-1.249, 1.599e-5
-1.250, 1.625e-5
-1.251, 1.635e-5
-1.252, 1.635e-5
-1.253, 1.624e-5
-1.254, 1.640e-5
-1.255, 1.666e-5
-1.256, 1.678e-5
-1.257, 1.675e-5
-1.258, 1.664e-5
-1.259, 1.678e-5
-1.260, 1.708e-5
-1.261, 1.720e-5
-1.262, 1.716e-5
-1.263, 1.706e-5
-1.264, 1.719e-5
-1.265, 1.748e-5
-1.266, 1.763e-5
-1.267, 1.762e-5
-1.268, 1.752e-5
-1.269, 1.765e-5
-1.270, 1.791e-5
-1.271, 1.811e-5
-1.272, 1.804e-5
-1.273, 1.792e-5
-1.274, 1.814e-5
-1.275, 1.839e-5
-1.276, 1.856e-5
-1.277, 1.857e-5
-1.278, 1.844e-5
-1.279, 1.862e-5
-1.280, 1.893e-5
-1.281, 1.908e-5
-1.282, 1.911e-5
-1.283, 1.895e-5
-1.284, 1.914e-5
-1.285, 1.942e-5
-1.286, 1.963e-5
-1.287, 1.963e-5
-1.288, 1.952e-5
-1.289, 1.973e-5
-1.290, 2.004e-5
-1.291, 2.021e-5
-1.292, 2.023e-5
-1.293, 2.014e-5
-1.294, 2.030e-5
-1.295, 2.065e-5
-1.296, 2.081e-5
-1.297, 2.086e-5
-1.298, 2.075e-5
-1.299, 2.095e-5
-1.300, 2.131e-5
-1.301, 2.151e-5
-1.302, 2.156e-5
-1.303, 2.151e-5
-1.304, 2.170e-5
-1.305, 2.199e-5
-1.306, 2.227e-5
-1.307, 2.236e-5
-1.308, 2.228e-5
-1.309, 2.248e-5
-1.310, 2.279e-5
-1.311, 2.308e-5
-1.312, 2.314e-5
-1.313, 2.310e-5
-1.314, 2.336e-5
-1.315, 2.371e-5
-1.316, 2.395e-5
-1.317, 2.408e-5
-1.318, 2.408e-5
-1.319, 2.430e-5
-1.320, 2.462e-5
-1.321, 2.494e-5
-1.322, 2.505e-5
-1.323, 2.502e-5
-1.324, 2.525e-5
-1.325, 2.567e-5
-1.326, 2.601e-5
-1.327, 2.613e-5
-1.328, 2.608e-5
-1.329, 2.637e-5
-1.330, 2.680e-5
-1.331, 2.712e-5
-1.332, 2.728e-5
-1.333, 2.729e-5
-1.334, 2.757e-5
-1.335, 2.806e-5
-1.336, 2.830e-5
-1.337, 2.846e-5
-1.338, 2.854e-5
-1.339, 2.879e-5
-1.340, 2.924e-5
-1.341, 2.956e-5
-1.342, 2.977e-5
-1.343, 2.983e-5
-1.344, 3.005e-5
-1.345, 3.053e-5
-1.346, 3.093e-5
-1.347, 3.103e-5
-1.348, 3.119e-5
-1.349, 3.140e-5
-1.350, 3.183e-5
-1.351, 3.220e-5
-1.352, 3.235e-5
-1.353, 3.249e-5
-1.354, 3.268e-5
-1.355, 3.313e-5
-1.356, 3.358e-5
-1.357, 3.368e-5
-1.358, 3.376e-5
-1.359, 3.397e-5
-1.360, 3.446e-5
-1.361, 3.479e-5
-1.362, 3.491e-5
-1.363, 3.505e-5
-1.364, 3.521e-5
-1.365, 3.566e-5
-1.366, 3.605e-5
-1.367, 3.616e-5
-1.368, 3.618e-5
-1.369, 3.640e-5
-1.370, 3.683e-5
-1.371, 3.722e-5
-1.372, 3.733e-5
-1.373, 3.738e-5
-1.374, 3.755e-5
-1.375, 3.799e-5
-1.376, 3.836e-5
-1.377, 3.841e-5
-1.378, 3.843e-5
-1.379, 3.858e-5
-1.380, 3.899e-5
-1.381, 3.928e-5
-1.382, 3.940e-5
-1.383, 3.944e-5
-1.384, 3.950e-5
-1.385, 3.985e-5
-1.386, 4.019e-5
-1.387, 4.017e-5
-1.388, 4.018e-5
-1.389, 4.021e-5
-1.390, 4.047e-5
-1.391, 4.083e-5
-1.392, 4.072e-5
-1.393, 4.061e-5
-1.394, 4.062e-5
-1.395, 4.078e-5
-1.396, 4.102e-5
-1.397, 4.091e-5
-1.398, 4.073e-5
-1.399, 4.063e-5
-1.400, 4.076e-5
-1.401, 4.087e-5
-1.402, 4.072e-5
-1.403, 4.040e-5
-1.404, 4.024e-5
-1.405, 4.031e-5
-1.406, 4.037e-5
-1.407, 4.015e-5
-1.408, 3.976e-5
-1.409, 3.953e-5
-1.410, 3.956e-5
-1.411, 3.947e-5
-1.412, 3.923e-5
-1.413, 3.882e-5
-1.414, 3.844e-5
-1.415, 3.844e-5
-1.416, 3.839e-5
-1.417, 3.811e-5
-1.418, 3.774e-5
-1.419, 3.740e-5
-1.420, 3.743e-5
-1.421, 3.736e-5
-1.422, 3.708e-5
-1.423, 3.684e-5
-1.424, 3.649e-5
-1.425, 3.660e-5
-1.426, 3.663e-5
-1.427, 3.648e-5
-1.428, 3.628e-5
-1.429, 3.615e-5
-1.430, 3.639e-5
-1.431, 3.662e-5
-1.432, 3.666e-5
-1.433, 3.655e-5
-1.434, 3.661e-5
-1.435, 3.708e-5
-1.436, 3.742e-5
-1.437, 3.763e-5
-1.438, 3.780e-5
-1.439, 3.800e-5
-1.440, 3.861e-5
-1.441, 3.913e-5
-1.442, 3.966e-5
-1.443, 3.985e-5
-1.444, 4.022e-5
-1.445, 4.100e-5
-1.446, 4.169e-5
-1.447, 4.224e-5
-1.448, 4.261e-5
-1.449, 4.311e-5
-1.450, 4.397e-5
-1.451, 4.481e-5
-1.452, 4.544e-5
-1.453, 4.596e-5
-1.454, 4.649e-5
-1.455, 4.749e-5
-1.456, 4.845e-5
-1.457, 4.914e-5
-1.458, 4.977e-5
-1.459, 5.040e-5
-1.460, 5.149e-5
-1.461, 5.251e-5
-1.462, 5.331e-5
-1.463, 5.408e-5
-1.464, 5.483e-5
-1.465, 5.592e-5
-1.466, 5.715e-5
-1.467, 5.805e-5
-1.468, 5.886e-5
-1.469, 5.974e-5
-1.470, 6.090e-5
-1.471, 6.223e-5
-1.472, 6.323e-5
-1.473, 6.411e-5
-1.474, 6.514e-5
-1.475, 6.642e-5
-1.476, 6.781e-5
-1.477, 6.895e-5
-1.478, 6.990e-5
-1.479, 7.092e-5
-1.480, 7.232e-5
-1.481, 7.383e-5
-1.482, 7.500e-5
-1.483, 7.610e-5
-1.484, 7.727e-5
-1.485, 7.882e-5
-1.486, 8.036e-5
-1.487, 8.172e-5
-1.488, 8.294e-5
-1.489, 8.411e-5
-1.490, 8.572e-5
-1.491, 8.735e-5
-1.492, 8.879e-5
-1.493, 9.006e-5
-1.494, 9.150e-5
-1.495, 9.309e-5
-1.496, 9.485e-5
-1.497, 9.636e-5
-1.498, 9.785e-5
-1.499, 9.929e-5
-1.500, 1.010e-4
-1.501, 1.028e-4
-1.502, 1.044e-4
-1.503, 1.061e-4
-1.504, 1.079e-4
-1.505, 1.094e-4
-1.506, 1.115e-4
-1.507, 1.133e-4
-1.508, 1.149e-4
-1.509, 1.165e-4
-1.510, 1.184e-4
-1.511, 1.205e-4
-1.512, 1.224e-4
-1.513, 1.244e-4
-1.514, 1.260e-4
-1.515, 1.279e-4
-1.516, 1.302e-4
-1.517, 1.320e-4
-1.518, 1.339e-4
-1.519, 1.357e-4
-1.520, 1.380e-4
-1.521, 1.404e-4
-1.522, 1.425e-4
-1.523, 1.446e-4
-1.524, 1.466e-4
-1.525, 1.488e-4
-1.526, 1.512e-4
-1.527, 1.537e-4
-1.528, 1.560e-4
-1.529, 1.580e-4
-1.530, 1.605e-4
-1.531, 1.631e-4
-1.532, 1.655e-4
-1.533, 1.678e-4
-1.534, 1.699e-4
-1.535, 1.726e-4
-1.536, 1.753e-4
-1.537, 1.777e-4
-1.538, 1.800e-4
-1.539, 1.823e-4
-1.540, 1.851e-4
-1.541, 1.881e-4
-1.542, 1.908e-4
-1.543, 1.932e-4
-1.544, 1.957e-4
-1.545, 1.985e-4
-1.546, 2.015e-4
-1.547, 2.042e-4
-1.548, 2.067e-4
-1.549, 2.094e-4
-1.550, 2.124e-4
-1.551, 2.155e-4
-1.552, 2.186e-4
-1.553, 2.214e-4
-1.554, 2.241e-4
-1.555, 2.270e-4
-1.556, 2.304e-4
-1.557, 2.331e-4
-1.558, 2.358e-4
-1.559, 2.390e-4
-1.560, 2.421e-4
-1.561, 2.456e-4
-1.562, 2.487e-4
-1.563, 2.516e-4
-1.564, 2.545e-4
-1.565, 2.579e-4
-1.566, 2.612e-4
-1.567, 2.643e-4
-1.568, 2.676e-4
-1.569, 2.709e-4
-1.570, 2.747e-4
-1.571, 2.784e-4
-1.572, 2.819e-4
-1.573, 2.853e-4
-1.574, 2.887e-4
-1.575, 2.923e-4
-1.576, 2.962e-4
-1.577, 2.998e-4
-1.578, 3.029e-4
-1.579, 3.061e-4
-1.580, 3.100e-4
-1.581, 3.138e-4
-1.582, 3.172e-4
-1.583, 3.205e-4
-1.584, 3.239e-4
-1.585, 3.279e-4
-1.586, 3.319e-4
-1.587, 3.356e-4
-1.588, 3.391e-4
-1.589, 3.424e-4
-1.590, 3.464e-4
-1.591, 3.503e-4
-1.592, 3.540e-4
-1.593, 3.574e-4
-1.594, 3.611e-4
-1.595, 3.649e-4
-1.596, 3.690e-4
-1.597, 3.728e-4
-1.598, 3.766e-4
-1.599, 3.798e-4
-1.600, 3.771e-4
-1.599, 3.722e-4
-1.598, 3.679e-4
-1.597, 3.634e-4
-1.596, 3.590e-4
-1.595, 3.548e-4
-1.594, 3.514e-4
-1.593, 3.473e-4
-1.592, 3.426e-4
-1.591, 3.386e-4
-1.590, 3.353e-4
-1.589, 3.318e-4
-1.588, 3.277e-4
-1.587, 3.237e-4
-1.586, 3.198e-4
-1.585, 3.161e-4
-1.584, 3.126e-4
-1.583, 3.087e-4
-1.582, 3.047e-4
-1.581, 3.011e-4
-1.580, 2.979e-4
-1.579, 2.946e-4
-1.578, 2.913e-4
-1.577, 2.876e-4
-1.576, 2.838e-4
-1.575, 2.805e-4
-1.574, 2.775e-4
-1.573, 2.739e-4
-1.572, 2.703e-4
-1.571, 2.668e-4
-1.570, 2.634e-4
-1.569, 2.604e-4
-1.568, 2.575e-4
-1.567, 2.542e-4
-1.566, 2.507e-4
-1.565, 2.477e-4
-1.564, 2.448e-4
-1.563, 2.418e-4
-1.562, 2.384e-4
-1.561, 2.350e-4
-1.560, 2.320e-4
-1.559, 2.291e-4
-1.558, 2.262e-4
-1.557, 2.230e-4
-1.556, 2.199e-4
-1.555, 2.170e-4
-1.554, 2.145e-4
-1.553, 2.120e-4
-1.552, 2.089e-4
-1.551, 2.060e-4
-1.550, 2.032e-4
-1.549, 2.006e-4
-1.548, 1.981e-4
-1.547, 1.953e-4
-1.546, 1.924e-4
-1.545, 1.898e-4
-1.544, 1.874e-4
-1.543, 1.849e-4
-1.542, 1.821e-4
-1.541, 1.796e-4
-1.540, 1.770e-4
-1.539, 1.748e-4
-1.538, 1.726e-4
-1.537, 1.699e-4
-1.536, 1.672e-4
-1.535, 1.648e-4
-1.534, 1.629e-4
-1.533, 1.606e-4
-1.532, 1.581e-4
-1.531, 1.554e-4
-1.530, 1.531e-4
-1.529, 1.511e-4
-1.528, 1.490e-4
-1.527, 1.465e-4
-1.526, 1.442e-4
-1.525, 1.420e-4
-1.524, 1.400e-4
-1.523, 1.381e-4
-1.522, 1.357e-4
-1.521, 1.332e-4
-1.520, 1.312e-4
-1.519, 1.294e-4
-1.518, 1.274e-4
-1.517, 1.252e-4
-1.516, 1.229e-4
-1.515, 1.209e-4
-1.514, 1.191e-4
-1.513, 1.173e-4
-1.512, 1.152e-4
-1.511, 1.130e-4
-1.510, 1.112e-4
-1.509, 1.096e-4
-1.508, 1.078e-4
-1.507, 1.057e-4
-1.506, 1.038e-4
-1.505, 1.019e-4
-1.504, 1.006e-4
-1.503, 9.884e-5
-1.502, 9.693e-5
-1.501, 9.506e-5
-1.500, 9.343e-5
-1.499, 9.201e-5
-1.498, 9.048e-5
-1.497, 8.867e-5
-1.496, 8.685e-5
-1.495, 8.521e-5
-1.494, 8.381e-5
-1.493, 8.244e-5
-1.492, 8.079e-5
-1.491, 7.899e-5
-1.490, 7.755e-5
-1.489, 7.629e-5
-1.488, 7.499e-5
-1.487, 7.344e-5
-1.486, 7.183e-5
-1.485, 7.034e-5
-1.484, 6.924e-5
-1.483, 6.798e-5
-1.482, 6.661e-5
-1.481, 6.499e-5
-1.480, 6.369e-5
-1.479, 6.267e-5
-1.478, 6.149e-5
-1.477, 6.022e-5
-1.476, 5.861e-5
-1.475, 5.744e-5
-1.474, 5.652e-5
-1.473, 5.540e-5
-1.472, 5.425e-5
-1.471, 5.275e-5
-1.470, 5.163e-5
-1.469, 5.081e-5
-1.468, 4.978e-5
-1.467, 4.863e-5
-1.466, 4.736e-5
-1.465, 4.630e-5
-1.464, 4.557e-5
-1.463, 4.466e-5
-1.462, 4.358e-5
-1.461, 4.237e-5
-1.460, 4.132e-5
-1.459, 4.058e-5
-1.458, 3.970e-5
-1.457, 3.873e-5
-1.456, 3.757e-5
-1.455, 3.667e-5
-1.454, 3.600e-5
-1.453, 3.532e-5
-1.452, 3.436e-5
-1.451, 3.320e-5
-1.450, 3.239e-5
-1.449, 3.178e-5
-1.448, 3.118e-5
-1.447, 3.033e-5
-1.446, 2.925e-5
-1.445, 2.856e-5
-1.444, 2.802e-5
-1.443, 2.745e-5
-1.442, 2.669e-5
-1.441, 2.572e-5
-1.440, 2.500e-5
-1.439, 2.456e-5
-1.438, 2.404e-5
-1.437, 2.333e-5
-1.436, 2.241e-5
-1.435, 2.177e-5
-1.434, 2.136e-5
-1.433, 2.089e-5
-1.432, 2.028e-5
-1.431, 1.939e-5
-1.430, 1.885e-5
-1.429, 1.848e-5
-1.428, 1.808e-5
-1.427, 1.750e-5
-1.426, 1.671e-5
-1.425, 1.613e-5
-1.424, 1.584e-5
-1.423, 1.546e-5
-1.422, 1.494e-5
-1.421, 1.422e-5
-1.420, 1.369e-5
-1.419, 1.338e-5
-1.418, 1.311e-5
-1.417, 1.259e-5
-1.416, 1.193e-5
-1.415, 1.149e-5
-1.414, 1.126e-5
-1.413, 1.099e-5
-1.412, 1.057e-5
-1.411, 9.925e-6
-1.410, 9.496e-6
-1.409, 9.262e-6
-1.408, 9.046e-6
-1.407, 8.666e-6
-1.406, 8.001e-6
-1.405, 7.653e-6
-1.404, 7.485e-6
-1.403, 7.317e-6
-1.402, 6.989e-6
-1.401, 6.399e-6
-1.400, 6.021e-6
-1.399, 5.861e-6
-1.398, 5.711e-6
-1.397, 5.425e-6
-1.396, 4.850e-6
-1.395, 4.537e-6
-1.394, 4.407e-6
-1.393, 4.286e-6
-1.392, 4.033e-6
-1.391, 3.490e-6
-1.390, 3.175e-6
-1.389, 3.138e-6
-1.388, 3.022e-6
-1.387, 2.741e-6
-1.386, 2.281e-6
-1.385, 1.989e-6
-1.384, 1.960e-6
-1.383, 1.857e-6
-1.382, 1.594e-6
-1.381, 1.102e-6
-1.380, 8.384e-7
-1.379, 8.029e-7
-1.378, 7.703e-7
-1.377, 5.355e-7
-1.376, 9.649e-8
-1.375, -1.482e-7
-1.374, -1.502e-7
-1.373, -1.610e-7
-1.372, -3.958e-7
-1.371, -7.875e-7
-1.370, -1.071e-6
-1.369, -1.083e-6
-1.368, -1.033e-6
-1.367, -1.268e-6
-1.366, -1.629e-6
-1.365, -1.861e-6
-1.364, -1.838e-6
-1.363, -1.815e-6
-1.362, -2.021e-6
-1.361, -2.355e-6
-1.360, -2.608e-6
-1.359, -2.565e-6
-1.358, -2.496e-6
-1.357, -2.523e-6
-1.356, -2.943e-6
-1.355, -3.291e-6
-1.354, -3.250e-6
-1.353, -3.184e-6
-1.352, -3.352e-6
-1.351, -3.648e-6
-1.350, -3.883e-6
-1.349, -3.807e-6
-1.348, -3.729e-6
-1.347, -3.905e-6
-1.346, -4.196e-6
-1.345, -4.410e-6
-1.344, -4.358e-6
-1.343, -4.241e-6
-1.342, -4.466e-6
-1.341, -4.692e-6
-1.340, -4.876e-6
-1.339, -4.877e-6
-1.338, -4.731e-6
-1.337, -4.916e-6
-1.336, -5.169e-6
-1.335, -5.359e-6
-1.334, -5.364e-6
-1.333, -5.150e-6
-1.332, -5.332e-6
-1.331, -5.631e-6
-1.330, -5.806e-6
-1.329, -5.719e-6
-1.328, -5.543e-6
-1.327, -5.699e-6
-1.326, -5.995e-6
-1.325, -6.091e-6
-1.324, -6.074e-6
-1.323, -5.948e-6
-1.322, -6.007e-6
-1.321, -6.330e-6
-1.320, -6.438e-6
-1.319, -6.428e-6
-1.318, -6.292e-6
-1.317, -6.333e-6
-1.316, -6.642e-6
-1.315, -6.829e-6
-1.314, -6.715e-6
-1.313, -6.548e-6
-1.312, -6.658e-6
-1.311, -6.980e-6
-1.310, -7.101e-6
-1.309, -7.031e-6
-1.308, -6.900e-6
-1.307, -6.949e-6
-1.306, -7.191e-6
-1.305, -7.385e-6
-1.304, -7.277e-6
-1.303, -7.140e-6
-1.302, -7.216e-6
-1.301, -7.438e-6
-1.300, -7.639e-6
-1.299, -7.581e-6
-1.298, -7.475e-6
-1.297, -7.507e-6
-1.296, -7.734e-6
-1.295, -7.866e-6
-1.294, -7.835e-6
-1.293, -7.661e-6
-1.292, -7.721e-6
-1.291, -7.957e-6
-1.290, -8.154e-6
-1.289, -8.120e-6
-1.288, -7.941e-6
-1.287, -7.980e-6
-1.286, -8.235e-6
-1.285, -8.366e-6
-1.284, -8.311e-6
-1.283, -8.206e-6
-1.282, -8.237e-6
-1.281, -8.571e-6
-1.280, -8.675e-6
-1.279, -8.684e-6
-1.278, -8.508e-6
-1.277, -8.508e-6
-1.276, -8.760e-6
-1.275, -8.991e-6
-1.274, -8.921e-6
-1.273, -8.798e-6
-1.272, -8.804e-6
-1.271, -9.107e-6
-1.270, -9.250e-6
-1.269, -9.220e-6
-1.268, -9.091e-6
-1.267, -9.129e-6
-1.266, -9.407e-6
-1.265, -9.596e-6
-1.264, -9.528e-6
-1.263, -9.443e-6
-1.262, -9.475e-6
-1.261, -9.750e-6
-1.260, -9.944e-6
-1.259, -9.949e-6
-1.258, -9.788e-6
-1.257, -9.895e-6
-1.256, -1.018e-5
-1.255, -1.035e-5
-1.254, -1.042e-5
-1.253, -1.030e-5
-1.252, -1.036e-5
-1.251, -1.072e-5
-1.250, -1.090e-5
-1.249, -1.095e-5
-1.248, -1.092e-5
-1.247, -1.101e-5
-1.246, -1.135e-5
-1.245, -1.164e-5
-1.244, -1.174e-5
-1.243, -1.176e-5
-1.242, -1.188e-5
-1.241, -1.232e-5
-1.240, -1.268e-5
-1.239, -1.283e-5
-1.238, -1.293e-5
-1.237, -1.314e-5
-1.236, -1.365e-5
-1.235, -1.408e-5
-1.234, -1.432e-5
-1.233, -1.450e-5
-1.232, -1.478e-5
-1.231, -1.539e-5
-1.230, -1.587e-5
-1.229, -1.633e-5
-1.228, -1.650e-5
-1.227, -1.685e-5
-1.226, -1.748e-5
-1.225, -1.799e-5
-1.224, -1.836e-5
-1.223, -1.863e-5
-1.222, -1.900e-5
-1.221, -1.965e-5
-1.220, -2.018e-5
-1.219, -2.055e-5
-1.218, -2.074e-5
-1.217, -2.115e-5
-1.216, -2.171e-5
-1.215, -2.220e-5
-1.214, -2.257e-5
-1.213, -2.267e-5
-1.212, -2.309e-5
-1.211, -2.358e-5
-1.210, -2.408e-5
-1.209, -2.440e-5
-1.208, -2.439e-5
-1.207, -2.472e-5
-1.206, -2.524e-5
-1.205, -2.563e-5
-1.204, -2.589e-5
-1.203, -2.601e-5
-1.202, -2.628e-5
-1.201, -2.670e-5
-1.200, -2.709e-5
-1.199, -2.731e-5
-1.198, -2.733e-5
-1.197, -2.755e-5
-1.196, -2.794e-5
-1.195, -2.834e-5
-1.194, -2.853e-5
-1.193, -2.853e-5
-1.192, -2.872e-5
-1.191, -2.904e-5
-1.190, -2.951e-5
-1.189, -2.957e-5
-1.188, -2.953e-5
-1.187, -2.975e-5
-1.186, -3.000e-5
-1.185, -3.044e-5
-1.184, -3.052e-5
-1.183, -3.043e-5
-1.182, -3.062e-5
-1.181, -3.085e-5
-1.180, -3.128e-5
-1.179, -3.130e-5
-1.178, -3.130e-5
-1.177, -3.147e-5
-1.176, -3.170e-5
-1.175, -3.204e-5
-1.174, -3.207e-5
-1.173, -3.206e-5
-1.172, -3.216e-5
-1.171, -3.242e-5
-1.170, -3.282e-5
-1.169, -3.288e-5
-1.168, -3.281e-5
-1.167, -3.296e-5
-1.166, -3.320e-5
-1.165, -3.350e-5
-1.164, -3.362e-5
-1.163, -3.359e-5
-1.162, -3.365e-5
-1.161, -3.395e-5
-1.160, -3.429e-5
-1.159, -3.434e-5
-1.158, -3.431e-5
-1.157, -3.448e-5
-1.156, -3.469e-5
-1.155, -3.509e-5
-1.154, -3.512e-5
-1.153, -3.514e-5
-1.152, -3.521e-5
-1.151, -3.556e-5
-1.150, -3.595e-5
-1.149, -3.595e-5
-1.148, -3.593e-5
-1.147, -3.598e-5
-1.146, -3.627e-5
-1.145, -3.660e-5
-1.144, -3.665e-5
-1.143, -3.658e-5
-1.142, -3.654e-5
-1.141, -3.675e-5
-1.140, -3.695e-5
-1.139, -3.691e-5
-1.138, -3.681e-5
-1.137, -3.673e-5
-1.136, -3.686e-5
-1.135, -3.700e-5
-1.134, -3.686e-5
-1.133, -3.656e-5
-1.132, -3.638e-5
-1.131, -3.639e-5
-1.130, -3.645e-5
-1.129, -3.619e-5
-1.128, -3.578e-5
-1.127, -3.537e-5
-1.126, -3.523e-5
-1.125, -3.512e-5
-1.124, -3.475e-5
-1.123, -3.426e-5
-1.122, -3.369e-5
-1.121, -3.350e-5
-1.120, -3.318e-5
-1.119, -3.275e-5
-1.118, -3.218e-5
-1.117, -3.155e-5
-1.116, -3.113e-5
-1.115, -3.074e-5
-1.114, -3.020e-5
-1.113, -2.948e-5
-1.112, -2.862e-5
-1.111, -2.831e-5
-1.110, -2.783e-5
-1.109, -2.717e-5
-1.108, -2.637e-5
-1.107, -2.566e-5
-1.106, -2.525e-5
-1.105, -2.476e-5
-1.104, -2.425e-5
-1.103, -2.349e-5
-1.102, -2.288e-5
-1.101, -2.252e-5
-1.100, -2.214e-5
-1.099, -2.170e-5
-1.098, -2.108e-5
-1.097, -2.060e-5
-1.096, -2.044e-5
-1.095, -2.015e-5
-1.094, -1.987e-5
-1.093, -1.928e-5
-1.092, -1.884e-5
-1.091, -1.876e-5
-1.090, -1.854e-5
-1.089, -1.830e-5
-1.088, -1.782e-5
-1.087, -1.745e-5
-1.086, -1.740e-5
-1.085, -1.724e-5
-1.084, -1.709e-5
-1.083, -1.675e-5
-1.082, -1.639e-5
-1.081, -1.641e-5
-1.080, -1.627e-5
-1.079, -1.615e-5
-1.078, -1.575e-5
-1.077, -1.548e-5
-1.076, -1.554e-5
-1.075, -1.557e-5
-1.074, -1.555e-5
-1.073, -1.524e-5
-1.072, -1.492e-5
-1.071, -1.494e-5
-1.070, -1.492e-5
-1.069, -1.481e-5
-1.068, -1.452e-5
-1.067, -1.427e-5
-1.066, -1.436e-5
-1.065, -1.443e-5
-1.064, -1.436e-5
-1.063, -1.404e-5
-1.062, -1.375e-5
-1.061, -1.380e-5
-1.060, -1.384e-5
-1.059, -1.377e-5
-1.058, -1.349e-5
-1.057, -1.326e-5
-1.056, -1.327e-5
-1.055, -1.330e-5
-1.054, -1.324e-5
-1.053, -1.287e-5
-1.052, -1.269e-5
-1.051, -1.277e-5
-1.050, -1.283e-5
-1.049, -1.281e-5
-1.048, -1.246e-5
-1.047, -1.225e-5
-1.046, -1.229e-5
-1.045, -1.233e-5
-1.044, -1.229e-5
-1.043, -1.204e-5
-1.042, -1.182e-5
-1.041, -1.192e-5
-1.040, -1.199e-5
-1.039, -1.190e-5
-1.038, -1.169e-5
-1.037, -1.147e-5
-1.036, -1.154e-5
-1.035, -1.164e-5
-1.034, -1.157e-5
-1.033, -1.137e-5
-1.032, -1.108e-5
-1.031, -1.121e-5
-1.030, -1.130e-5
-1.029, -1.132e-5
-1.028, -1.115e-5
-1.027, -1.095e-5
-1.026, -1.100e-5
-1.025, -1.107e-5
-1.024, -1.103e-5
-1.023, -1.076e-5
-1.022, -1.054e-5
-1.021, -1.058e-5
-1.020, -1.067e-5
-1.019, -1.062e-5
-1.018, -1.039e-5
-1.017, -1.016e-5
-1.016, -1.020e-5
-1.015, -1.026e-5
-1.014, -1.024e-5
-1.013, -1.000e-5
-1.012, -9.784e-6
-1.011, -9.933e-6
-1.010, -1.001e-5
-1.009, -1.003e-5
-1.008, -9.792e-6
-1.007, -9.538e-6
-1.006, -9.644e-6
-1.005, -9.753e-6
-1.004, -9.706e-6
-1.003, -9.511e-6
-1.002, -9.304e-6
-1.001, -9.411e-6
