Potential V vs RHE, Current mA cm-2
0.013299999999999867,10.771611837172388
0.012299999999999978,9.06971414343475
0.011299999999999866,7.49938460058456
0.010299999999999976,6.016767158326001
0.009299999999999864,4.534149716067443
0.008299999999999974,3.0515322738088844
0.007299999999999862,1.6113561705462767
0.006299999999999972,0.12863969849672777
0.00529999999999986,-1.3107300193249565
0.0042999999999999705,-2.706342716641815
0.0032999999999998586,-4.014950669016974
0.0022999999999999687,-5.279702571096316
0.0012999999999998568,-6.458157083883892
0.00029999999999996696,-7.5474847847799715
-0.000700000000000145,-8.638227196975913
-0.0017000000000000348,-9.728969609171857
-0.0027000000000001467,-10.775855971071984
-0.0037000000000000366,-11.909039722263879
-0.0047000000000001485,-13.087494235051453
-0.005700000000000038,-14.26028990263957
-0.00670000000000015,-15.3920589425316
-0.00770000000000004,-16.495533756426326
-0.008700000000000152,-17.584861457322408
-0.009700000000000042,-18.53271802823198
-0.010700000000000154,-19.452280373144255
-0.011700000000000044,-20.371842718056527
-0.012700000000000156,-21.2065223849769
-0.013700000000000045,-22.027054938898623
-0.014700000000000157,-22.946617283810895
-0.015700000000000047,-23.86617962872317
-0.01670000000000016,-24.870624651627345
-0.01770000000000005,-25.81848122253692
-0.01870000000000016,-26.822926245441096
-0.01970000000000005,-27.78492992934932
-0.020700000000000163,-28.662050935265643
-0.021700000000000053,-29.482583489187363
-0.022700000000000164,-30.317263156107735
-0.023700000000000054,-31.095354371033505
-0.024700000000000166,-31.84515135996197
-0.025700000000000056,-32.62324257488775
-0.026700000000000168,-33.50036358080407
-0.027700000000000058,-34.377484586720385
-0.02870000000000017,-35.282899818634014
-0.02970000000000006,-36.16002082455034
-0.03070000000000017,-37.07958316946261
-0.03170000000000006,-37.94255706238028
-0.03270000000000017,-38.692354051308754
-0.03370000000000006,-39.38556258824262
-0.034700000000000175,-40.03632978618054
-0.035700000000000065,-40.701244097117105
-0.03670000000000018,-41.352011295055014
-0.03770000000000007,-42.04521983198889
-0.03870000000000018,-42.79501682091736
-0.03970000000000007,-43.57310803584313
-0.04070000000000018,-44.4077877027635
-0.04170000000000007,-45.27076159568118
-0.04270000000000018,-46.062999923605595
-0.04370000000000007,-46.84109113853137
-0.044700000000000184,-47.54844678846388
-0.045700000000000074,-48.24165532539775
-0.046700000000000186,-48.93486386233162
-0.047700000000000076,-49.557336834272235
-0.04870000000000019,-50.2505453712061
-0.04970000000000008,-50.98619524713592
-0.05070000000000019,-51.77843357506035
-0.05170000000000008,-52.55652478998611
-0.05270000000000019,-53.39120445690648
-0.05370000000000008,-54.2117370108282
-0.05470000000000019,-54.961533999756675
-0.05570000000000008,-55.65474253669055
-0.056700000000000195,-56.36209818662306
-0.057700000000000085,-56.97042404556503
-0.058700000000000196,-57.53630856551105
-0.059700000000000086,-58.14463442445301
-0.0607000000000002,-58.75296028339497
-0.06170000000000009,-59.44616882032884
-0.0627000000000002,-60.15352447026136
-0.06370000000000009,-60.84673300719523
-0.0647000000000002,-61.53994154412909
-0.06570000000000009,-62.20485585506566
-0.0667000000000002,-62.855623053003576
-0.0677000000000001,-63.5063902509415
-0.0687000000000002,-64.15715744887942
-0.0697000000000001,-64.77963042082003
-0.07070000000000021,-65.34551494076604
-0.0717000000000001,-66.03872347769992
-0.07270000000000021,-66.73193201463377
-0.0737000000000001,-67.48172900356225
-0.07470000000000021,-68.34470289647993
-0.0757000000000001,-69.26426524139221
-0.07670000000000021,-70.18382758630447
-0.0777000000000001,-71.0043601402262
-0.07870000000000021,-71.8814811461425
-0.0797000000000001,-72.63127813507097
-0.08070000000000022,-73.2820453330089
-0.0817000000000001,-73.89037119195086
-0.08270000000000022,-74.45625571189689
-0.08370000000000011,-75.06458157083884
-0.08470000000000022,-75.6729074297808
-0.08570000000000011,-76.33782174071737
-0.08670000000000022,-76.98858893865528
-0.08770000000000011,-77.59691479759726
-0.08870000000000022,-78.16279931754329
-0.08970000000000011,-78.77112517648524
-0.09070000000000022,-79.2945683574353
-0.09170000000000011,-79.81801153838538
-0.09270000000000023,-80.25657204134353
-0.09370000000000012,-80.7800152222936
-0.09470000000000023,-81.26101706424771
-0.09570000000000012,-81.78446024519776
-0.09670000000000023,-82.35034476514379
-0.09770000000000012,-83.0011119630817
-0.09870000000000023,-83.75090895201016
-0.09970000000000012,-84.52900016693594
-0.10070000000000023,-85.32123849486035
-0.10170000000000012,-86.14177104878208
-0.10270000000000024,-86.89156803771054
-0.10370000000000013,-87.58477657464444
-0.10470000000000024,-88.27798511157829
-0.10570000000000013,-88.94289942251486
-0.10670000000000024,-89.63610795944872
-0.10770000000000013,-90.32931649638259
-0.10870000000000024,-91.12155482430701
-0.10970000000000013,-91.85720470023682
-0.11070000000000024,-92.64944302816124
-0.11170000000000013,-93.42753424308701
-0.11270000000000002,-94.13488989301955
-0.11370000000000013,-94.8280984299534
-0.11470000000000002,-95.35154161090348
-0.11570000000000014,-95.95986746984543
-0.11670000000000003,-96.4833106507955
-0.11770000000000014,-96.96431249274961
-0.11870000000000003,-97.53019701269562
-0.11970000000000014,-98.18096421063355
-0.12070000000000003,-98.88831986056607
-0.12170000000000014,-99.62396973649588
-0.12270000000000003,-100.31717827342976
-0.12370000000000014,-101.10941660135417
-0.12470000000000003,-101.84506647728399
-0.12570000000000014,-102.4958336752219
-0.12670000000000003,-103.16074798615847
-0.12770000000000015,-103.81151518409638
-0.12870000000000004,-104.41984104303836
-0.12970000000000015,-105.07060824097626
-0.13070000000000004,-105.73552255191284
-0.13170000000000015,-106.47117242784265
-0.13270000000000004,-107.20682230377247
-0.13370000000000015,-107.99906063169689
-0.13470000000000004,-108.83374029861727
-0.13570000000000015,-109.56939017454708
-0.13670000000000004,-110.34748138947285
-0.13770000000000016,-110.96995436141347
-0.13870000000000005,-111.57828022035544
-0.13970000000000016,-112.10172340130552
-0.14070000000000005,-112.54028390426367
-0.14170000000000016,-113.00713863321914
-0.14270000000000005,-113.53058181416918
-0.14370000000000016,-114.11061344711386
-0.14470000000000005,-114.76138064505177
-0.14570000000000016,-115.4121478429897
-0.14670000000000005,-116.10535637992358
-0.14770000000000016,-116.72782935186417
-0.14870000000000005,-117.3785965498021
-0.14970000000000017,-117.90203973075215
-0.15070000000000006,-118.46792425069816
-0.15170000000000017,-119.03380877064419
-0.15270000000000006,-119.5996932905902
-0.15370000000000017,-120.25046048852812
-0.15470000000000006,-120.85878634747009
-0.15570000000000017,-121.60858333639854
-0.15670000000000006,-122.34423321232836
-0.15770000000000017,-123.05158886226087
-0.15870000000000006,-123.82968007718667
-0.15970000000000018,-124.57947706611512
-0.16070000000000007,-125.272685603049
-0.16170000000000018,-125.92345280098691
-0.16270000000000007,-126.48933732093293
-0.16370000000000018,-127.05522184087894
-0.16470000000000007,-127.57866502182902
-0.16570000000000018,-128.10210820277908
-0.16670000000000007,-128.62555138372915
-0.16770000000000018,-129.19143590367514
-0.16870000000000007,-129.8563502146117
-0.16970000000000018,-130.50711741254963
-0.17070000000000007,-131.2003259494835
-0.17170000000000019,-131.99256427740792
-0.17270000000000008,-132.6857728143418
-0.1737000000000002,-133.37898135127566
-0.17470000000000008,-133.94486587122168
-0.1757000000000002,-134.42586771317576
-0.17670000000000008,-134.82198687713802
-0.1777000000000002,-135.2181060411002
-0.17870000000000008,-135.78399056104624
-0.1797000000000002,-136.43475775898415
-0.18070000000000008,-137.12796629591801
-0.1817000000000002,-137.92020462384244
-0.18270000000000008,-138.6982958387682
-0.1837000000000002,-139.44809282769666
-0.1847000000000001,-140.01397734764268
-0.1857000000000002,-140.53742052859275
-0.1867000000000001,-141.06086370954282
-0.1877000000000002,-141.61260111649017
-0.1887000000000001,-142.17848563643616
-0.1897000000000002,-142.8858412863687
-0.1907000000000001,-143.5931969363012
-0.1917000000000001,-144.30055258623375
-0.19269999999999998,-144.86643710617977
-0.1937000000000001,-145.43232162612577
-0.19469999999999998,-145.9982061460718
-0.1957000000000001,-146.4226195360313
-0.19669999999999999,-146.8470329259908
-0.1977000000000001,-147.27144631595033
-0.1987,-147.6958597059098
-0.1997000000000001,-148.12027309586935
-0.2007,-148.54468648582886
-0.2017000000000001,-148.96909987578834
-0.2027,-149.53498439573437
-0.2037000000000001,-150.1008689156804
-0.2047,-150.66675343562642
-0.2057000000000001,-151.23263795557244
-0.2067,-151.7985224755184
-0.2077000000000001,-152.50587812545095
-0.2087,-153.07176264539694
-0.2097000000000001,-153.77911829532948
-0.2107,-154.3450028152755
-0.2117000000000001,-154.9108873352215
-0.2127,-155.47677185516753
-0.2137000000000001,-156.18412750510007
-0.2147,-156.89148315503257
-0.2157000000000001,-157.7403099349516
-0.2167,-158.3061944548976
-0.21770000000000012,-158.87207897484362
-0.2187,-159.29649236480313
-0.21970000000000012,-159.57943462477613
-0.2207,-159.86237688474912
-0.22170000000000012,-160.14531914472215
-0.2227,-160.28679027470866
-0.22370000000000012,-160.71120366466818
-0.2247,-161.1356170546277
-0.22570000000000012,-161.70150157457368
-0.2267,-162.2673860945197
-0.22770000000000012,-162.8332706144657
-0.22870000000000001,-163.39915513441173
-0.22970000000000013,-163.96503965435775
-0.23070000000000002,-164.67239530429026
-0.23170000000000013,-165.2382798242363
-0.23270000000000002,-165.8041643441823
-0.23370000000000013,-166.3700488641283
-0.23470000000000002,-166.79446225408785
-0.23570000000000013,-167.36034677403384
-0.23670000000000002,-167.92623129397984
-0.2376999999999999,-168.49211581392586
-0.23870000000000002,-169.19947146385837
-0.2396999999999999,-169.9068271137909
-0.24070000000000003,-170.47271163373694
-0.24169999999999991,-171.18006728366944
-0.24270000000000003,-171.74595180361547
-0.24369999999999992,-172.31183632356147
-0.24470000000000003,-172.73624971352098
-0.24569999999999992,-173.16066310348046
-0.24670000000000003,-173.72654762342648
-0.24769999999999992,-174.2924321433725
-0.24870000000000003,-174.99978779330505
-0.24969999999999992,-175.84861457322407
-0.25070000000000003,-176.6974413531431
-0.2516999999999999,-177.4047970030756
-0.25270000000000004,-178.1121526530081
-0.2536999999999999,-178.81950830294062
-0.25470000000000004,-179.24392169290016
-0.2556999999999999,-179.80980621284618
-0.25670000000000004,-180.23421960280567
-0.25769999999999993,-180.65863299276518
-0.25870000000000004,-181.08304638272472
-0.25969999999999993,-181.64893090267074
-0.26070000000000004,-182.21481542261674
-0.26169999999999993,-182.92217107254925
-0.26270000000000004,-183.48805559249527
-0.26369999999999993,-184.19541124242778
-0.26470000000000005,-184.7612957623738
-0.26569999999999994,-185.3271802823198
-0.26670000000000005,-185.89306480226583
-0.26769999999999994,-186.45894932221185
-0.26870000000000005,-187.02483384215788
-0.26969999999999994,-187.73218949209036
-0.27070000000000005,-188.29807401203638
-0.27169999999999994,-189.1469007919554
-0.27270000000000005,-189.71278531190143
-0.27369999999999994,-190.27866983184742
-0.27470000000000006,-190.84455435179345
-0.27569999999999995,-191.41043887173947
-0.27670000000000006,-191.9763233916855
-0.27769999999999995,-192.40073678164498
-0.27870000000000006,-192.966621301591
-0.27969999999999995,-193.3910346915505
-0.28070000000000006,-193.6739769515235
-0.28169999999999995,-194.09839034148303
-0.28270000000000006,-194.52280373144254
-0.28369999999999995,-195.08868825138856
-0.28470000000000006,-195.65457277133459
-0.28569999999999995,-196.3619284212671
-0.28670000000000007,-197.0692840711996
-0.28769999999999996,-197.63516859114563
-0.28870000000000007,-198.05958198110514
-0.28969999999999996,-198.48399537106465
-0.29070000000000007,-198.62546650105114
-0.29169999999999996,-198.76693763103765
-0.29270000000000007,-198.76693763103765
-0.29369999999999996,-199.04987989101065
-0.2947000000000001,-199.47429328097016
-0.29569999999999996,-199.75723554094319
-0.2967000000000001,-200.3231200608892
-0.29769999999999996,-200.7475334508487
-0.2987000000000001,-201.31341797079472
-0.29969999999999997,-201.87930249074074
-0.3007000000000001,-202.44518701068677
-0.30169999999999997,-203.01107153063276
-0.3027000000000001,-203.71842718056527
-0.30369999999999997,-204.2843117005113
-0.3047000000000001,-204.9916673504438
-0.30569999999999997,-205.69902300037634
-0.3067000000000001,-206.26490752032234
-0.3077,-206.97226317025488
-0.3087000000000001,-207.5381476902009
-0.3097,-208.24550334013338
-0.3107000000000001,-208.95285899006592
-0.3117,-209.51874351001192
-0.3127000000000001,-209.94315689997146
-0.3137,-210.22609915994445
-0.3147000000000001,-210.36757028993094
-0.3157,-210.50904141991748
-0.3167000000000001,-210.65051254990397
-0.3177,-210.79198367989048
-0.3187000000000001,-211.21639706985
-0.3197,-211.499339329823
-0.3207000000000001,-211.9237527197825
-0.3217,-212.48963723972852
-0.3227000000000001,-212.914050629688
-0.3237,-213.33846401964755
-0.3247000000000001,-213.76287740960703
-0.3257,-214.04581966958003
-0.3267000000000001,-214.47023305953954
-0.3277,-214.89464644949908
-0.3287000000000001,-215.31905983945856
-0.3297,-215.88494435940459
-0.3307000000000001,-216.4508288793506
-0.3317,-217.15818452928315
-0.3327000000000001,-217.86554017921566
-0.3337,-218.57289582914817
-0.3347000000000001,-219.28025147908068
-0.3357,-219.8461359990267
-0.3367000000000001,-220.41202051897272
-0.3377,-220.6949627789457
-0.3387000000000001,-220.97790503891872
-0.3397,-221.26084729889175
-0.3407000000000001,-221.54378955886475
-0.3417,-221.96820294882426
-0.3427000000000001,-222.3926163387838
-0.3437,-222.9585008587298
-0.3447000000000001,-223.52438537867582
-0.3457,-224.09026989862178
-0.3467000000000001,-224.5146832885813
-0.3477,-224.79762554855435
-0.3487000000000001,-225.22203893851383
-0.3497,-225.50498119848683
-0.3507000000000001,-225.78792345845983
-0.3517,-226.21233684841937
-0.3527000000000001,-226.63675023837888
-0.3537,-227.2026347583249
-0.3547000000000001,-227.7685192782709
-0.3557,-228.33440379821695
-0.35670000000000013,-228.90028831816295
-0.3577,-229.46617283810895
-0.35870000000000013,-230.03205735805497
-0.3597,-230.45647074801445
-0.36070000000000013,-230.880884137974
-0.3617,-231.163826397947
-0.3626999999999999,-231.44676865792
-0.3637,-231.729710917893
-0.3646999999999999,-232.15412430785253
-0.3657,-232.43706656782552
-0.3666999999999999,-232.86147995778504
-0.3677,-233.28589334774458
-0.3686999999999999,-233.85177786769057
-0.36970000000000003,-234.27619125765005
-0.3706999999999999,-234.7006046476096
-0.37170000000000003,-235.26648916755556
-0.3726999999999999,-235.69090255751513
-0.37370000000000003,-236.1153159474746
-0.3746999999999999,-236.53972933743412
-0.37570000000000003,-236.96414272739366
-0.3766999999999999,-237.53002724733966
-0.37770000000000004,-238.0959117672857
-0.3786999999999999,-238.66179628723168
-0.37970000000000004,-239.2276808071777
-0.3806999999999999,-239.65209419713722
-0.38170000000000004,-240.21797871708318
-0.38269999999999993,-240.50092097705624
-0.38370000000000004,-240.92533436701575
-0.38469999999999993,-241.20827662698875
-0.38570000000000004,-241.49121888696175
-0.38669999999999993,-240.50092097705624
-0.38570000000000004,-237.24708498736666
-0.38469999999999993,-234.27619125765005
-0.38370000000000004,-231.3052975279335
-0.38269999999999993,-228.47587492820347
-0.38170000000000004,-225.78792345845983
-0.3806999999999999,-222.9585008587298
-0.37970000000000004,-220.2705493889862
-0.3786999999999999,-217.72406904922914
-0.37770000000000004,-215.17758870947208
-0.3766999999999999,-212.631108369715
-0.37570000000000003,-209.94315689997146
-0.3746999999999999,-207.3966765602144
-0.37370000000000003,-204.8501962204573
-0.3726999999999999,-202.30371588070025
-0.37170000000000003,-199.89870667092967
-0.3706999999999999,-197.49369746115914
-0.36970000000000003,-195.23015938137505
-0.3686999999999999,-192.966621301591
-0.3677,-190.70308322180696
-0.3666999999999999,-188.4395451420229
-0.3657,-186.03453593225234
-0.3646999999999999,-183.77099785246824
-0.3637,-181.5074597726842
-0.3626999999999999,-179.24392169290016
-0.3617,-177.1218547431026
-0.36070000000000013,-175.28273005327804
-0.3597,-173.302134233467
-0.35870000000000013,-171.32153841365593
-0.3577,-169.3409425938449
-0.35670000000000013,-167.36034677403384
-0.3557,-165.3797509542228
-0.3547000000000001,-163.25768400442522
-0.3537,-161.1356170546277
-0.3527000000000001,-159.01355010483013
-0.3517,-157.17442541500557
-0.3507000000000001,-155.19382959519453
-0.3497,-153.35470490536997
-0.3487000000000001,-151.65705134553193
-0.3477,-149.95939778569388
-0.3467000000000001,-148.26174422585584
-0.3457,-146.5640906660178
-0.3447000000000001,-144.72496597619326
-0.3437,-142.7443701563822
-0.3427000000000001,-140.84865701456303
-0.3417,-138.92464964674662
-0.3407000000000001,-136.95820093993422
-0.3397,-135.09078202411234
-0.3387000000000001,-133.2516573342878
-0.3377,-131.55400377444977
-0.3367000000000001,-129.8563502146117
-0.3357,-128.2294322197669
-0.3347000000000001,-126.57421999892482
-0.3337,-124.87656643908679
-0.3327000000000001,-123.09403020125686
-0.3317,-121.29734685042824
-0.3307000000000001,-119.51481061259831
-0.3297,-117.71812726176971
-0.3287000000000001,-115.97803236293572
-0.3277,-114.3228201420936
-0.3267000000000001,-112.71004926024747
-0.3257,-111.09727837840134
-0.3247000000000001,-109.52694883555114
-0.3237,-108.04150197069285
-0.3227000000000001,-106.47117242784265
-0.3217,-104.90084288499246
-0.3207000000000001,-103.37295468113824
-0.3197,-101.80262513828804
-0.3187000000000001,-100.14741291744595
-0.3177,-98.49220069660386
-0.3167000000000001,-96.92187115375367
-0.3157,-95.30910027190752
-0.3147000000000001,-93.78121206805329
-0.3137,-92.25332386419905
-0.3127000000000001,-90.89520101632861
-0.3117,-89.59366662045278
-0.3107000000000001,-88.19310243358639
-0.3097,-86.89156803771054
-0.3087000000000001,-85.53344518984011
-0.3077,-84.09043966397778
-0.3067000000000001,-82.61913991211814
-0.30569999999999997,-81.09125170826391
-0.3047000000000001,-79.64824618240156
-0.30369999999999997,-78.16279931754329
-0.3027000000000001,-76.7622351306769
-0.30169999999999997,-75.50314207379701
-0.3007000000000001,-74.24404901691713
-0.29969999999999997,-72.92836750804264
-0.2987000000000001,-71.7117157901587
-0.29769999999999996,-70.35359294228827
-0.2967000000000001,-68.96717586842054
-0.29569999999999996,-67.48172900356225
-0.2947000000000001,-65.99628213870396
-0.29369999999999996,-64.55327661284163
-0.29270000000000007,-63.11027108697928
-0.29169999999999996,-61.7662953521075
-0.29070000000000007,-60.49305518222897
-0.28969999999999996,-59.23396212534908
-0.28870000000000007,-58.017310407465146
-0.28769999999999996,-56.786511576582576
-0.28670000000000007,-55.527418519702685
-0.28569999999999995,-54.2117370108282
-0.28470000000000006,-52.86776127595642
-0.28369999999999995,-51.509638428085985
-0.28270000000000006,-50.1656626932142
-0.28169999999999995,-48.89242252333566
-0.28070000000000006,-47.633329466455784
-0.27969999999999995,-46.501560426563756
-0.27870000000000006,-45.36979138667173
-0.27769999999999995,-44.3229050247716
-0.27670000000000006,-43.27601866287147
-0.27569999999999995,-42.229132300971344
-0.27470000000000006,-41.22468727806717
-0.27369999999999994,-40.092918238175145
-0.27270000000000005,-38.94700208528445
-0.27169999999999994,-37.81523304539243
-0.27070000000000005,-36.64102266650445
-0.26969999999999994,-35.50925362661242
-0.26870000000000005,-34.41992592571634
-0.26769999999999994,-33.330598224820264
