Potential V vs RHE, Current mA cm-2
0.013299999999999867,9.898734965155663
0.012299999999999978,8.022827781534623
0.011299999999999866,6.278488748801033
0.010299999999999976,4.534149716067443
0.009299999999999864,2.963820173217252
0.008299999999999974,1.4812027309586933
0.007299999999999862,-0.002205534916489592
0.006299999999999972,-1.3980177065266295
0.00529999999999986,-2.706342716641815
0.0042999999999999705,-4.102662769608606
0.0032999999999998586,-5.411270721983764
0.0022999999999999687,-6.762320013354876
0.0012999999999998568,-8.070927965730034
0.00029999999999996696,-9.423391968401008
-0.000700000000000145,-10.775855971071984
-0.0017000000000000348,-12.084463923447142
-0.0027000000000001467,-13.349215825526485
-0.0037000000000000366,-14.61396772760583
-0.0047000000000001485,-15.830619445489761
-0.005700000000000038,-16.962388485381787
-0.00670000000000015,-18.06586329927652
-0.00770000000000004,-19.112749661176647
-0.008700000000000152,-20.202077362072725
-0.009700000000000042,-21.2065223849769
-0.010700000000000154,-22.253408746877028
-0.011700000000000044,-23.300295108777156
-0.012700000000000156,-24.389622809673234
-0.013700000000000045,-25.39406783257741
-0.014700000000000157,-26.483395533473487
-0.015700000000000047,-27.572723234369565
-0.01670000000000016,-28.619609596269694
-0.01770000000000005,-29.66649595816982
-0.01870000000000016,-30.7558236590659
-0.01970000000000005,-31.717827342974125
-0.020700000000000163,-32.66568391388369
-0.021700000000000053,-33.58524625879597
-0.022700000000000164,-34.462367264712285
-0.023700000000000054,-35.32534115762997
-0.024700000000000166,-36.16002082455034
-0.025700000000000056,-37.07958316946261
-0.026700000000000168,-37.90011572338433
-0.027700000000000058,-38.90456074628851
-0.02870000000000017,-39.78168175220483
-0.02970000000000006,-40.743685436113054
-0.03070000000000017,-41.70568912002128
-0.03170000000000006,-42.653545690930855
-0.03270000000000017,-43.57310803584313
-0.03370000000000006,-44.4926703807554
-0.034700000000000175,-45.32735004767578
-0.035700000000000065,-46.147882601597495
-0.03670000000000018,-46.88353247752732
-0.03770000000000007,-47.67577080545174
-0.03870000000000018,-48.45386202037751
-0.03970000000000007,-49.20365900930597
-0.04070000000000018,-50.024191563227696
-0.04170000000000007,-50.81642989115212
-0.04270000000000018,-51.69355089706845
-0.04370000000000007,-52.55652478998611
-0.044700000000000184,-53.39120445690648
-0.045700000000000074,-54.31076680181876
-0.046700000000000186,-55.17374069473642
-0.047700000000000076,-56.05086170065276
-0.04870000000000019,-56.88554136757313
-0.04970000000000008,-57.66363258249889
-0.05070000000000019,-58.45587091042332
-0.05170000000000008,-59.23396212534908
-0.05270000000000019,-59.92717066228296
-0.05370000000000008,-60.67696765121143
-0.05470000000000019,-61.327734849149344
-0.05570000000000008,-61.97850204708726
-0.056700000000000195,-62.72829903601572
-0.057700000000000085,-63.46394891194555
-0.058700000000000196,-64.25618723986996
-0.059700000000000086,-64.99183711579978
-0.0607000000000002,-65.86895812171612
-0.06170000000000009,-66.73193201463377
-0.0627000000000002,-67.6090530205501
-0.06370000000000009,-68.44373268747047
-0.0647000000000002,-69.26426524139221
-0.06570000000000009,-69.95747377832606
-0.0667000000000002,-70.66482942825859
-0.0677000000000001,-71.35803796519245
-0.0687000000000002,-72.00880516313036
-0.0697000000000001,-72.57468968307639
-0.07070000000000021,-73.2820453330089
-0.0717000000000001,-73.97525386994278
-0.07270000000000021,-74.76749219786718
-0.0737000000000001,-75.50314207379701
-0.07470000000000021,-76.29538040172143
-0.0757000000000001,-77.1583542946391
-0.07670000000000021,-77.95059262256353
-0.0777000000000001,-78.72868383748929
-0.07870000000000021,-79.47848082641775
-0.0797000000000001,-80.21413070234757
-0.08070000000000022,-80.90733923928146
-0.0817000000000001,-81.61469488921396
-0.08270000000000022,-82.26546208715187
-0.08370000000000011,-82.95867062408576
-0.08470000000000022,-83.60943782202366
-0.08570000000000011,-84.35923481095215
-0.08670000000000022,-85.052443347886
-0.08770000000000011,-85.84468167581042
-0.08870000000000022,-86.58033155174023
-0.08970000000000011,-87.37256987966467
-0.09070000000000022,-88.15066109459043
-0.09170000000000011,-88.9853407615108
-0.09270000000000023,-89.76343197643658
-0.09370000000000012,-90.59811164335694
-0.09470000000000023,-91.37620285828272
-0.09570000000000012,-92.12599984721119
-0.09670000000000023,-92.81920838414506
-0.09770000000000012,-93.46997558208298
-0.09870000000000023,-94.13488989301955
-0.09970000000000012,-94.78565709095746
-0.10070000000000023,-95.43642428889537
-0.10170000000000012,-96.0871914868333
-0.10270000000000024,-96.83698847576176
-0.10370000000000013,-97.57263835169158
-0.10470000000000024,-98.364876679616
-0.10570000000000013,-99.18540923353773
-0.10670000000000024,-100.02008890045809
-0.10770000000000013,-100.75573877638791
-0.10870000000000024,-101.54797710431234
-0.10970000000000013,-102.3260683192381
-0.11070000000000024,-102.97683551717601
-0.11170000000000013,-103.64174982811258
-0.11270000000000002,-104.25007568705455
-0.11370000000000013,-104.94328422398843
-0.11470000000000002,-105.59405142192634
-0.11570000000000014,-106.30140707185885
-0.11670000000000003,-106.95217426979677
-0.11770000000000014,-107.73026548472255
-0.11870000000000003,-108.52250381264696
-0.11970000000000014,-109.30059502757274
-0.12070000000000003,-110.09283335549715
-0.12170000000000014,-110.87092457042293
-0.12270000000000003,-111.6207215593514
-0.12370000000000014,-112.44125411327312
-0.12470000000000003,-113.19105110220158
-0.12570000000000014,-113.92670097813141
-0.12670000000000003,-114.67649796705987
-0.12770000000000015,-115.36970650399375
-0.12870000000000004,-116.06291504092759
-0.12970000000000015,-116.72782935186417
-0.13070000000000004,-117.42103788879804
-0.13170000000000015,-118.07180508673595
-0.13270000000000004,-118.76501362366983
-0.13370000000000015,-119.47236927360234
-0.13470000000000004,-120.20801914953216
-0.13570000000000015,-120.9153747994647
-0.13670000000000004,-121.73590735338641
-0.13770000000000016,-122.48570434231489
-0.13870000000000005,-123.2213542182447
-0.13970000000000016,-123.91456275517855
-0.14070000000000005,-124.52288861412055
-0.14170000000000016,-125.18780292505707
-0.14270000000000005,-125.7536874450031
-0.14370000000000016,-126.36201330394509
-0.14470000000000005,-126.9278978238911
-0.14570000000000016,-127.53622368283307
-0.14670000000000005,-128.2294322197669
-0.14770000000000016,-128.9792292086954
-0.14870000000000005,-129.75732042362114
-0.14970000000000017,-130.50711741254963
-0.15070000000000006,-131.32764996647134
-0.15170000000000017,-132.20477097238768
-0.15270000000000006,-132.99700930031207
-0.15370000000000017,-133.73265917624192
-0.15470000000000006,-134.46830905217172
-0.15570000000000017,-135.17566470210423
-0.15670000000000006,-135.86887323903812
-0.15770000000000017,-136.562081775972
-0.15870000000000006,-137.2694374259045
-0.15970000000000018,-137.87776328484648
-0.16070000000000007,-138.57097182178035
-0.16170000000000018,-139.27832747171286
-0.16270000000000007,-139.97153600864672
-0.16370000000000018,-140.70718588457655
-0.16470000000000007,-141.456982873505
-0.16570000000000018,-142.17848563643616
-0.16670000000000007,-143.16878354634173
-0.16770000000000018,-143.87613919627424
-0.16870000000000007,-144.72496597619326
-0.16970000000000018,-145.43232162612577
-0.17070000000000007,-146.1396772760583
-0.17170000000000019,-146.8470329259908
-0.17270000000000008,-147.55438857592333
-0.1737000000000002,-148.12027309586935
-0.17470000000000008,-148.54468648582886
-0.1757000000000002,-149.25204213576137
-0.17670000000000008,-149.8179266557074
-0.1777000000000002,-150.5252823056399
-0.17870000000000008,-151.23263795557244
-0.1797000000000002,-151.93999360550492
-0.18070000000000008,-152.78882038542397
-0.1817000000000002,-153.63764716534297
-0.18270000000000008,-154.3450028152755
-0.1837000000000002,-155.05235846520802
-0.1847000000000001,-155.75971411514055
-0.1857000000000002,-156.46706976507306
-0.1867000000000001,-157.03295428501906
-0.1877000000000002,-157.59883880496508
-0.1887000000000001,-158.1647233249111
-0.1897000000000002,-158.73060784485713
-0.1907000000000001,-159.43796349478964
-0.1917000000000001,-160.14531914472215
-0.19269999999999998,-160.8526747946547
-0.1937000000000001,-161.5600304445872
-0.19469999999999998,-162.40885722450622
-0.1957000000000001,-163.11621287443873
-0.19669999999999999,-163.82356852437124
-0.1977000000000001,-164.53092417430375
-0.1987,-165.09680869424977
-0.1997000000000001,-165.8041643441823
-0.2007,-166.3700488641283
-0.2017000000000001,-166.93593338407433
-0.2027,-167.50181790402033
-0.2037000000000001,-168.06770242396635
-0.2047,-168.63358694391238
-0.2057000000000001,-169.19947146385837
-0.2067,-169.7653559838044
-0.2077000000000001,-170.47271163373694
-0.2087,-171.03859615368293
-0.2097000000000001,-171.74595180361547
-0.2107,-172.45330745354798
-0.2117000000000001,-173.16066310348046
-0.2127,-173.86801875341303
-0.2137000000000001,-174.57537440334553
-0.2147,-175.28273005327804
-0.2157000000000001,-175.99008570321055
-0.2167,-176.6974413531431
-0.21770000000000012,-177.2633258730891
-0.2187,-177.82921039303508
-0.21970000000000012,-178.3950949129811
-0.2207,-178.96097943292713
-0.22170000000000012,-179.66833508285964
-0.2227,-180.5171618627787
-0.22370000000000012,-181.2245175127112
-0.2247,-182.07334429263022
-0.22570000000000012,-182.78069994256273
-0.2267,-183.48805559249527
-0.22770000000000012,-184.19541124242778
-0.22870000000000001,-184.9027668923603
-0.22970000000000013,-185.46865141230631
-0.23070000000000002,-185.89306480226583
-0.23170000000000013,-186.45894932221185
-0.23270000000000002,-187.02483384215788
-0.23370000000000013,-187.59071836210387
-0.23470000000000002,-188.15660288204987
-0.23570000000000013,-188.72248740199586
-0.23670000000000002,-189.2883719219419
-0.2376999999999999,-189.8542564418879
-0.23870000000000002,-190.27866983184742
-0.2396999999999999,-190.84455435179345
-0.24070000000000003,-191.268967741753
-0.24169999999999991,-191.9763233916855
-0.24270000000000003,-192.54220791163152
-0.24369999999999992,-193.249563561564
-0.24470000000000003,-193.9569192114965
-0.24569999999999992,-194.66427486142905
-0.24670000000000003,-195.37163051136156
-0.24769999999999992,-195.93751503130758
-0.24870000000000003,-196.6448706812401
-0.24969999999999992,-197.0692840711996
-0.25070000000000003,-197.77663972113214
-0.2516999999999999,-198.3425242410781
-0.25270000000000004,-199.04987989101065
-0.2536999999999999,-199.75723554094319
-0.25470000000000004,-200.4645911908757
-0.2556999999999999,-201.31341797079472
-0.25670000000000004,-202.30371588070025
-0.25769999999999993,-203.01107153063276
-0.25870000000000004,-203.71842718056527
-0.25969999999999993,-204.42578283049778
-0.26070000000000004,-205.13313848043032
-0.26169999999999993,-205.69902300037634
-0.26270000000000004,-206.26490752032234
-0.26369999999999993,-206.83079204026836
-0.26470000000000005,-207.3966765602144
-0.26569999999999994,-208.1040322101469
-0.26670000000000005,-208.8113878600794
-0.26769999999999994,-209.51874351001192
-0.26870000000000005,-210.22609915994445
-0.26969999999999994,-210.79198367989048
-0.27070000000000005,-211.35786819983647
-0.27169999999999994,-211.9237527197825
-0.27270000000000005,-212.48963723972852
-0.27369999999999994,-212.914050629688
-0.27470000000000006,-213.47993514963403
-0.27569999999999995,-214.04581966958003
-0.27670000000000006,-214.47023305953954
-0.27769999999999995,-214.89464644949908
-0.27870000000000006,-215.4605309694451
-0.27969999999999995,-215.88494435940459
-0.28070000000000006,-216.3093577493641
-0.28169999999999995,-216.73377113932364
-0.28270000000000006,-217.01671339929663
-0.28369999999999995,-217.58259791924263
-0.28470000000000006,-218.14848243918865
-0.28569999999999995,-218.71436695913465
-0.28670000000000007,-219.28025147908068
-0.28769999999999996,-219.8461359990267
-0.28870000000000007,-220.5534916489592
-0.28969999999999996,-221.11937616890526
-0.29070000000000007,-221.54378955886475
-0.29169999999999996,-221.96820294882426
-0.29270000000000007,-222.25114520879725
-0.29369999999999996,-222.81702972874328
-0.2947000000000001,-223.2414431187028
-0.29569999999999996,-223.80732763864881
-0.2967000000000001,-224.37321215859478
-0.29769999999999996,-225.08056780852735
-0.2987000000000001,-225.78792345845983
-0.29969999999999997,-226.35380797840588
-0.3007000000000001,-227.06116362833836
-0.30169999999999997,-227.9099904082574
-0.3027000000000001,-228.47587492820347
-0.30369999999999997,-229.18323057813595
-0.3047000000000001,-229.74911509808197
-0.30569999999999997,-230.31499961802797
-0.3067000000000001,-230.880884137974
-0.3077,-231.5882397879065
-0.3087000000000001,-232.15412430785253
-0.3097,-232.72000882779852
-0.3107000000000001,-233.4273644777311
-0.3117,-233.99324899767706
-0.3127000000000001,-234.7006046476096
-0.3137,-235.26648916755556
-0.3147000000000001,-235.97384481748813
-0.3157,-236.53972933743412
-0.3167000000000001,-237.10561385738015
-0.3177,-237.81296950731266
-0.3187000000000001,-238.37885402725868
-0.3197,-238.94473854720468
-0.3207000000000001,-239.5106230671507
-0.3217,-239.93503645711021
-0.3227000000000001,-240.35944984706975
-0.3237,-240.92533436701575
-0.3247000000000001,-241.20827662698875
-0.3257,-241.6326900169483
-0.3267000000000001,-242.05710340690777
-0.3277,-242.62298792685377
-0.3287000000000001,-243.18887244679982
-0.3297,-243.75475696674582
-0.3307000000000001,-244.32064148669184
-0.3317,-245.02799713662432
-0.3327000000000001,-245.59388165657037
-0.3337,-246.30123730650286
-0.3347000000000001,-246.8671218264489
-0.3357,-247.57447747638145
-0.3367000000000001,-248.14036199632744
-0.3377,-248.84771764625998
-0.3387000000000001,-249.41360216620598
-0.3397,-249.979486686152
-0.3407000000000001,-250.6868423360845
-0.3417,-251.25272685603056
-0.3427000000000001,-251.81861137597656
-0.3437,-252.38449589592256
-0.3447000000000001,-252.95038041586852
-0.3457,-253.65773606580112
-0.3467000000000001,-254.2236205857471
-0.3477,-254.78950510569314
-0.3487000000000001,-255.49686075562562
-0.3497,-256.0627452755717
-0.3507000000000001,-256.62862979551767
-0.3517,-257.0530431854772
-0.3527000000000001,-257.4774565754367
-0.3537,-257.90186996539614
-0.3547000000000001,-258.32628335535566
-0.3557,-258.60922561532874
-0.35670000000000013,-258.8921678753017
-0.3577,-259.3165812652612
-0.35870000000000013,-259.59952352523425
-0.3597,-259.8824657852072
-0.36070000000000013,-260.02393691519376
-0.3617,-260.16540804518024
-0.3626999999999999,-260.16540804518024
-0.3637,-260.3068791751668
-0.3646999999999999,-260.4483503051532
-0.3657,-260.58982143513975
-0.3666999999999999,-260.8727636951128
-0.3677,-261.2971770850723
-0.3686999999999999,-261.7215904750318
-0.36970000000000003,-262.2874749949778
-0.3706999999999999,-262.9948306449103
-0.37170000000000003,-263.56071516485633
-0.3726999999999999,-264.55101307476184
-0.37370000000000003,-265.39983985468086
-0.3746999999999999,-266.3901377645864
-0.37570000000000003,-267.38043567449193
-0.3766999999999999,-268.37073358439744
-0.37770000000000004,-269.361031494303
-0.3786999999999999,-270.35132940420846
-0.37970000000000004,-271.341627314114
-0.3806999999999999,-272.3319252240195
-0.38170000000000004,-273.1807520039386
-0.38269999999999993,-274.0295787838576
-0.38370000000000004,-274.87840556377665
-0.38469999999999993,-275.7272323436957
-0.38570000000000004,-276.5760591236147
-0.38669999999999993,-276.15164573365513
-0.38570000000000004,-273.3222231339251
-0.38469999999999993,-270.49280053419506
-0.38370000000000004,-267.94632019443793
-0.38269999999999993,-265.2583687246944
-0.38170000000000004,-262.7118883849373
-0.3806999999999999,-260.02393691519376
-0.37970000000000004,-257.33598544545015
-0.3786999999999999,-254.78950510569314
-0.37770000000000004,-251.96008250596302
-0.3766999999999999,-249.2721310362195
-0.37570000000000003,-246.4427084364894
-0.3746999999999999,-243.75475696674582
-0.37370000000000003,-240.92533436701575
-0.3726999999999999,-238.2373828972722
-0.37170000000000003,-235.40796029754208
-0.3706999999999999,-232.72000882779852
-0.36970000000000003,-230.03205735805497
-0.3686999999999999,-227.4855770182979
-0.3677,-224.93909667854084
-0.3666999999999999,-222.53408746877028
-0.3657,-220.2705493889862
-0.3646999999999999,-218.14848243918865
-0.3637,-216.1678866193776
-0.3626999999999999,-214.18729079956654
-0.3617,-212.065223849769
-0.36070000000000013,-210.08462802995794
-0.3597,-208.1040322101469
-0.35870000000000013,-205.98196526034934
-0.3577,-204.0013694405383
-0.35670000000000013,-201.87930249074074
-0.3557,-199.89870667092967
-0.3547000000000001,-197.91811085111863
-0.3537,-195.79604390132107
-0.3527000000000001,-193.81544808151003
-0.3517,-191.83485226169896
-0.3507000000000001,-189.71278531190143
-0.3497,-187.59071836210387
-0.3487000000000001,-185.6101225422928
-0.3477,-183.34658446250873
-0.3467000000000001,-181.2245175127112
-0.3457,-179.10245056291362
-0.3447000000000001,-176.98038361311612
-0.3437,-174.85831666331853
-0.3427000000000001,-172.59477858353446
-0.3417,-170.47271163373694
-0.3407000000000001,-168.20917355395284
-0.3397,-166.0871066041553
-0.3387000000000001,-164.10651078434424
-0.3377,-161.9844438345467
-0.3367000000000001,-160.00384801473567
-0.3357,-158.02325219492457
-0.3347000000000001,-156.04265637511355
-0.3337,-154.203531685289
-0.3327000000000001,-152.22293586547795
-0.3317,-150.24234004566688
-0.3307000000000001,-148.40321535584232
-0.3297,-146.28114840604482
-0.3287000000000001,-144.30055258623375
-0.3277,-142.4614278964092
-0.3267000000000001,-140.53742052859275
-0.3257,-138.7548842907628
-0.3247000000000001,-137.00064227893017
-0.3237,-135.3029887190921
-0.3227000000000001,-133.60533515925405
-0.3217,-131.99256427740792
-0.3207000000000001,-130.32320494356716
-0.3197,-128.66799272272507
-0.3187000000000001,-127.012780501883
-0.3177,-125.35756828104091
-0.3167000000000001,-123.65991472120285
-0.3157,-121.96226116136481
-0.3147000000000001,-120.29290182752408
-0.3137,-118.63768960668197
-0.3127000000000001,-116.98247738583989
-0.3117,-115.36970650399375
-0.3107000000000001,-113.84181830013951
-0.3097,-112.18660607929739
-0.3087000000000001,-110.6162765364472
-0.3077,-109.04594699359701
-0.3067000000000001,-107.47561745074682
-0.30569999999999997,-105.90528790789664
-0.3047000000000001,-104.33495836504645
-0.30369999999999997,-102.76462882219626
-0.3027000000000001,-101.15185794035013
-0.30169999999999997,-99.53908705850398
-0.3007000000000001,-97.92631617665783
-0.29969999999999997,-96.31354529481169
-0.2987000000000001,-94.7432157519615
-0.29769999999999996,-93.21532754810727
-0.2967000000000001,-91.72988068324898
-0.29569999999999996,-90.32931649638259
-0.2947000000000001,-88.9004580835189
-0.29369999999999996,-87.58477657464444
-0.29270000000000007,-86.18421238777805
-0.29169999999999996,-84.84023665290624
-0.29070000000000007,-83.48211380503581
-0.28969999999999996,-82.09569673116808
-0.28870000000000007,-80.69513254430169
-0.28769999999999996,-79.25212701843935
-0.28670000000000007,-77.76668015358106
-0.28569999999999995,-76.29538040172143
-0.28470000000000006,-74.8523748758591
-0.28369999999999995,-73.3669280110008
-0.28270000000000006,-71.92392248513846
-0.28169999999999995,-70.48091695927613
-0.28070000000000006,-69.13694122440434
-0.27969999999999995,-67.7788183765339
-0.27870000000000006,-66.47728398065809
-0.27769999999999995,-65.16160247178358
-0.27670000000000006,-63.944950753899654
-0.27569999999999995,-62.64341635802381
-0.27470000000000006,-61.37017618814529
-0.27369999999999994,-60.11108313126541
-0.27270000000000005,-58.75296028339497
-0.27169999999999994,-57.45142588751914
-0.27070000000000005,-56.05086170065276
-0.26969999999999994,-54.69273885278232
-0.26870000000000005,-53.348763117910536
