Jan. 13, 2025   22:11:41
Cyclic Voltammetry
File: c:/users/guazh/data/banditlqround7_x0exp772_r5/2025-01-10-exp837\exp837-2025-01-13t22_04_36-h2koh\exp837_cv_sr_400mvs_efin_-1400mv.bin
Data Source:  Experiment
Instrument Model:  CHI760E
Header: CV ran at 400 mVs
Note: 

Init E (V) = -1
High E (V) = -1
Low E (V) = -1.4
Final E (V) = -1
Init P/N = N
Scan Rate (V/s) = 0.4
Segment = 3
Sample Interval (V) = 0.001
Quiet Time (sec) = 2
Sensitivity (A/V) = 0.01
Comp R (ohm) = 1.5

Results:

Channel 1:
Segment 1:

Segment 2:

Segment 3:

Potential/V, Current/A

-1.000, -8.600e-4
-1.001, -7.244e-4
-1.002, -6.103e-4
-1.003, -5.116e-4
-1.004, -4.222e-4
-1.005, -3.390e-4
-1.006, -2.496e-4
-1.007, -1.540e-4
-1.008, -6.151e-5
-1.009, 2.174e-5
-1.010, 9.265e-5
-1.011, 1.574e-4
-1.012, 2.283e-4
-1.013, 3.023e-4
-1.014, 3.825e-4
-1.015, 4.595e-4
-1.016, 5.243e-4
-1.017, 5.798e-4
-1.018, 6.322e-4
-1.019, 6.908e-4
-1.020, 7.617e-4
-1.021, 8.326e-4
-1.022, 9.004e-4
-1.023, 9.528e-4
-1.024, 9.991e-4
-1.025, 1.045e-3
-1.026, 1.101e-3
-1.027, 1.166e-3
-1.028, 1.224e-3
-1.029, 1.277e-3
-1.030, 1.317e-3
-1.031, 1.351e-3
-1.032, 1.394e-3
-1.033, 1.452e-3
-1.034, 1.514e-3
-1.035, 1.576e-3
-1.036, 1.625e-3
-1.037, 1.662e-3
-1.038, 1.699e-3
-1.039, 1.745e-3
-1.040, 1.798e-3
-1.041, 1.853e-3
-1.042, 1.899e-3
-1.043, 1.936e-3
-1.044, 1.967e-3
-1.045, 2.001e-3
-1.046, 2.050e-3
-1.047, 2.112e-3
-1.048, 2.174e-3
-1.049, 2.223e-3
-1.050, 2.263e-3
-1.051, 2.294e-3
-1.052, 2.334e-3
-1.053, 2.380e-3
-1.054, 2.433e-3
-1.055, 2.485e-3
-1.056, 2.528e-3
-1.057, 2.562e-3
-1.058, 2.596e-3
-1.059, 2.636e-3
-1.060, 2.682e-3
-1.061, 2.732e-3
-1.062, 2.772e-3
-1.063, 2.803e-3
-1.064, 2.827e-3
-1.065, 2.858e-3
-1.066, 2.892e-3
-1.067, 2.941e-3
-1.068, 2.991e-3
-1.069, 3.034e-3
-1.070, 3.068e-3
-1.071, 3.096e-3
-1.072, 3.126e-3
-1.073, 3.170e-3
-1.074, 3.219e-3
-1.075, 3.265e-3
-1.076, 3.296e-3
-1.077, 3.324e-3
-1.078, 3.348e-3
-1.079, 3.385e-3
-1.080, 3.432e-3
-1.081, 3.478e-3
-1.082, 3.521e-3
-1.083, 3.558e-3
-1.084, 3.592e-3
-1.085, 3.626e-3
-1.086, 3.666e-3
-1.087, 3.712e-3
-1.088, 3.768e-3
-1.089, 3.811e-3
-1.090, 3.845e-3
-1.091, 3.866e-3
-1.092, 3.897e-3
-1.093, 3.943e-3
-1.094, 3.999e-3
-1.095, 4.045e-3
-1.096, 4.079e-3
-1.097, 4.110e-3
-1.098, 4.141e-3
-1.099, 4.178e-3
-1.100, 4.218e-3
-1.101, 4.264e-3
-1.102, 4.301e-3
-1.103, 4.332e-3
-1.104, 4.354e-3
-1.105, 4.378e-3
-1.106, 4.412e-3
-1.107, 4.461e-3
-1.108, 4.511e-3
-1.109, 4.557e-3
-1.110, 4.591e-3
-1.111, 4.625e-3
-1.112, 4.659e-3
-1.113, 4.708e-3
-1.114, 4.757e-3
-1.115, 4.807e-3
-1.116, 4.838e-3
-1.117, 4.856e-3
-1.118, 4.878e-3
-1.119, 4.908e-3
-1.120, 4.955e-3
-1.121, 5.001e-3
-1.122, 5.038e-3
-1.123, 5.066e-3
-1.124, 5.093e-3
-1.125, 5.121e-3
-1.126, 5.161e-3
-1.127, 5.208e-3
-1.128, 5.257e-3
-1.129, 5.297e-3
-1.130, 5.328e-3
-1.131, 5.352e-3
-1.132, 5.377e-3
-1.133, 5.414e-3
-1.134, 5.460e-3
-1.135, 5.504e-3
-1.136, 5.537e-3
-1.137, 5.562e-3
-1.138, 5.584e-3
-1.139, 5.621e-3
-1.140, 5.670e-3
-1.141, 5.729e-3
-1.142, 5.772e-3
-1.143, 5.812e-3
-1.144, 5.840e-3
-1.145, 5.870e-3
-1.146, 5.901e-3
-1.147, 5.938e-3
-1.148, 5.972e-3
-1.149, 6.003e-3
-1.150, 6.025e-3
-1.151, 6.043e-3
-1.152, 6.077e-3
-1.153, 6.126e-3
-1.154, 6.182e-3
-1.155, 6.237e-3
-1.156, 6.277e-3
-1.157, 6.305e-3
-1.158, 6.333e-3
-1.159, 6.364e-3
-1.160, 6.407e-3
-1.161, 6.450e-3
-1.162, 6.484e-3
-1.163, 6.506e-3
-1.164, 6.524e-3
-1.165, 6.546e-3
-1.166, 6.580e-3
-1.167, 6.623e-3
-1.168, 6.666e-3
-1.169, 6.703e-3
-1.170, 6.731e-3
-1.171, 6.752e-3
-1.172, 6.780e-3
-1.173, 6.820e-3
-1.174, 6.863e-3
-1.175, 6.903e-3
-1.176, 6.937e-3
-1.177, 6.959e-3
-1.178, 6.980e-3
-1.179, 7.005e-3
-1.180, 7.039e-3
-1.181, 7.076e-3
-1.182, 7.113e-3
-1.183, 7.134e-3
-1.184, 7.153e-3
-1.185, 7.178e-3
-1.186, 7.212e-3
-1.187, 7.264e-3
-1.188, 7.313e-3
-1.189, 7.360e-3
-1.190, 7.403e-3
-1.191, 7.434e-3
-1.192, 7.455e-3
-1.193, 7.483e-3
-1.194, 7.520e-3
-1.195, 7.548e-3
-1.196, 7.551e-3
-1.197, 7.532e-3
-1.198, 7.529e-3
-1.199, 7.551e-3
-1.200, 7.603e-3
-1.201, 7.665e-3
-1.202, 7.723e-3
-1.203, 7.779e-3
-1.204, 7.825e-3
-1.205, 7.862e-3
-1.206, 7.902e-3
-1.207, 7.948e-3
-1.208, 7.995e-3
-1.209, 8.035e-3
-1.210, 8.059e-3
-1.211, 8.078e-3
-1.212, 8.106e-3
-1.213, 8.152e-3
-1.214, 8.204e-3
-1.215, 8.251e-3
-1.216, 8.291e-3
-1.217, 8.328e-3
-1.218, 8.362e-3
-1.219, 8.399e-3
-1.220, 8.439e-3
-1.221, 8.473e-3
-1.222, 8.494e-3
-1.223, 8.494e-3
-1.224, 8.482e-3
-1.225, 8.469e-3
-1.226, 8.463e-3
-1.227, 8.466e-3
-1.228, 8.476e-3
-1.229, 8.488e-3
-1.230, 8.497e-3
-1.231, 8.513e-3
-1.232, 8.540e-3
-1.233, 8.580e-3
-1.234, 8.636e-3
-1.235, 8.695e-3
-1.236, 8.744e-3
-1.237, 8.775e-3
-1.238, 8.799e-3
-1.239, 8.827e-3
-1.240, 8.864e-3
-1.241, 8.907e-3
-1.242, 8.935e-3
-1.243, 8.950e-3
-1.244, 8.954e-3
-1.245, 8.972e-3
-1.246, 9.003e-3
-1.247, 9.046e-3
-1.248, 9.086e-3
-1.249, 9.126e-3
-1.250, 9.154e-3
-1.251, 9.175e-3
-1.252, 9.200e-3
-1.253, 9.225e-3
-1.254, 9.262e-3
-1.255, 9.299e-3
-1.256, 9.327e-3
-1.257, 9.345e-3
-1.258, 9.360e-3
-1.259, 9.388e-3
-1.260, 9.428e-3
-1.261, 9.468e-3
-1.262, 9.505e-3
-1.263, 9.527e-3
-1.264, 9.536e-3
-1.265, 9.552e-3
-1.266, 9.586e-3
-1.267, 9.635e-3
-1.268, 9.681e-3
-1.269, 9.712e-3
-1.270, 9.724e-3
-1.271, 9.737e-3
-1.272, 9.755e-3
-1.273, 9.777e-3
-1.274, 9.811e-3
-1.275, 9.841e-3
-1.276, 9.863e-3
-1.277, 9.885e-3
-1.278, 9.903e-3
-1.279, 9.937e-3
-1.280, 9.980e-3
-1.281, 1.003e-2
-1.282, 1.006e-2
-1.283, 1.008e-2
-1.284, 1.008e-2
-1.285, 1.009e-2
-1.286, 1.010e-2
-1.287, 1.012e-2
-1.288, 1.015e-2
-1.289, 1.017e-2
-1.290, 1.018e-2
-1.291, 1.019e-2
-1.292, 1.021e-2
-1.293, 1.024e-2
-1.294, 1.028e-2
-1.295, 1.031e-2
-1.296, 1.033e-2
-1.297, 1.033e-2
-1.298, 1.033e-2
-1.299, 1.034e-2
-1.300, 1.038e-2
-1.301, 1.042e-2
-1.302, 1.046e-2
-1.303, 1.048e-2
-1.304, 1.051e-2
-1.305, 1.054e-2
-1.306, 1.058e-2
-1.307, 1.062e-2
-1.308, 1.066e-2
-1.309, 1.068e-2
-1.310, 1.068e-2
-1.311, 1.068e-2
-1.312, 1.068e-2
-1.313, 1.069e-2
-1.314, 1.071e-2
-1.315, 1.074e-2
-1.316, 1.077e-2
-1.317, 1.080e-2
-1.318, 1.083e-2
-1.319, 1.086e-2
-1.320, 1.090e-2
-1.321, 1.094e-2
-1.322, 1.097e-2
-1.323, 1.098e-2
-1.324, 1.098e-2
-1.325, 1.098e-2
-1.326, 1.099e-2
-1.327, 1.101e-2
-1.328, 1.104e-2
-1.329, 1.107e-2
-1.330, 1.108e-2
-1.331, 1.109e-2
-1.332, 1.111e-2
-1.333, 1.114e-2
-1.334, 1.118e-2
-1.335, 1.121e-2
-1.336, 1.122e-2
-1.337, 1.122e-2
-1.338, 1.123e-2
-1.339, 1.125e-2
-1.340, 1.128e-2
-1.341, 1.132e-2
-1.342, 1.135e-2
-1.343, 1.138e-2
-1.344, 1.140e-2
-1.345, 1.141e-2
-1.346, 1.142e-2
-1.347, 1.144e-2
-1.348, 1.147e-2
-1.349, 1.148e-2
-1.350, 1.148e-2
-1.351, 1.147e-2
-1.352, 1.148e-2
-1.353, 1.150e-2
-1.354, 1.153e-2
-1.355, 1.156e-2
-1.356, 1.156e-2
-1.357, 1.158e-2
-1.358, 1.160e-2
-1.359, 1.163e-2
-1.360, 1.167e-2
-1.361, 1.171e-2
-1.362, 1.173e-2
-1.363, 1.174e-2
-1.364, 1.175e-2
-1.365, 1.175e-2
-1.366, 1.176e-2
-1.367, 1.177e-2
-1.368, 1.180e-2
-1.369, 1.182e-2
-1.370, 1.183e-2
-1.371, 1.183e-2
-1.372, 1.183e-2
-1.373, 1.184e-2
-1.374, 1.188e-2
-1.375, 1.191e-2
-1.376, 1.192e-2
-1.377, 1.193e-2
-1.378, 1.193e-2
-1.379, 1.195e-2
-1.380, 1.198e-2
-1.381, 1.200e-2
-1.382, 1.201e-2
-1.383, 1.200e-2
-1.384, 1.200e-2
-1.385, 1.200e-2
-1.386, 1.202e-2
-1.387, 1.204e-2
-1.388, 1.206e-2
-1.389, 1.210e-2
-1.390, 1.212e-2
-1.391, 1.213e-2
-1.392, 1.214e-2
-1.393, 1.217e-2
-1.394, 1.221e-2
-1.395, 1.225e-2
-1.396, 1.225e-2
-1.397, 1.223e-2
-1.398, 1.222e-2
-1.399, 1.221e-2
-1.400, 1.213e-2
-1.399, 1.190e-2
-1.398, 1.168e-2
-1.397, 1.146e-2
-1.396, 1.125e-2
-1.395, 1.107e-2
-1.394, 1.089e-2
-1.393, 1.073e-2
-1.392, 1.057e-2
-1.391, 1.041e-2
-1.390, 1.025e-2
-1.389, 1.009e-2
-1.388, 9.928e-3
-1.387, 9.777e-3
-1.386, 9.629e-3
-1.385, 9.487e-3
-1.384, 9.342e-3
-1.383, 9.185e-3
-1.382, 9.028e-3
-1.381, 8.870e-3
-1.380, 8.728e-3
-1.379, 8.596e-3
-1.378, 8.466e-3
-1.377, 8.328e-3
-1.376, 8.183e-3
-1.375, 8.035e-3
-1.374, 7.905e-3
-1.373, 7.791e-3
-1.372, 7.677e-3
-1.371, 7.560e-3
-1.370, 7.440e-3
-1.369, 7.313e-3
-1.368, 7.196e-3
-1.367, 7.085e-3
-1.366, 6.974e-3
-1.365, 6.854e-3
-1.364, 6.731e-3
-1.363, 6.601e-3
-1.362, 6.475e-3
-1.361, 6.354e-3
-1.360, 6.253e-3
-1.359, 6.160e-3
-1.358, 6.065e-3
-1.357, 5.963e-3
-1.356, 5.849e-3
-1.355, 5.735e-3
-1.354, 5.636e-3
-1.353, 5.547e-3
-1.352, 5.454e-3
-1.351, 5.352e-3
-1.350, 5.245e-3
-1.349, 5.137e-3
-1.348, 5.038e-3
-1.347, 4.952e-3
-1.346, 4.868e-3
-1.345, 4.782e-3
-1.344, 4.690e-3
-1.343, 4.591e-3
-1.342, 4.492e-3
-1.341, 4.394e-3
-1.340, 4.295e-3
-1.339, 4.199e-3
-1.338, 4.110e-3
-1.337, 4.021e-3
-1.336, 3.928e-3
-1.335, 3.839e-3
-1.334, 3.762e-3
-1.333, 3.697e-3
-1.332, 3.629e-3
-1.331, 3.555e-3
-1.330, 3.472e-3
-1.329, 3.392e-3
-1.328, 3.318e-3
-1.327, 3.259e-3
-1.326, 3.197e-3
-1.325, 3.136e-3
-1.324, 3.059e-3
-1.323, 2.978e-3
-1.322, 2.901e-3
-1.321, 2.830e-3
-1.320, 2.769e-3
-1.319, 2.704e-3
-1.318, 2.639e-3
-1.317, 2.562e-3
-1.316, 2.473e-3
-1.315, 2.383e-3
-1.314, 2.303e-3
-1.313, 2.238e-3
-1.312, 2.180e-3
-1.311, 2.115e-3
-1.310, 2.041e-3
-1.309, 1.967e-3
-1.308, 1.896e-3
-1.307, 1.838e-3
-1.306, 1.782e-3
-1.305, 1.727e-3
-1.304, 1.662e-3
-1.303, 1.591e-3
-1.302, 1.520e-3
-1.301, 1.455e-3
-1.300, 1.400e-3
-1.299, 1.354e-3
-1.298, 1.295e-3
-1.297, 1.233e-3
-1.296, 1.172e-3
-1.295, 1.107e-3
-1.294, 1.055e-3
-1.293, 1.008e-3
-1.292, 9.652e-4
-1.291, 9.158e-4
-1.290, 8.542e-4
-1.289, 7.863e-4
-1.288, 7.216e-4
-1.287, 6.723e-4
-1.286, 6.229e-4
-1.285, 5.767e-4
-1.284, 5.212e-4
-1.283, 4.595e-4
-1.282, 3.979e-4
-1.281, 3.455e-4
-1.280, 3.054e-4
-1.279, 2.653e-4
-1.278, 2.283e-4
-1.277, 1.759e-4
-1.276, 1.173e-4
-1.275, 6.182e-5
-1.274, 1.557e-5
-1.273, -2.759e-5
-1.272, -6.151e-5
-1.271, -1.078e-4
-1.270, -1.602e-4
-1.269, -2.187e-4
-1.268, -2.712e-4
-1.267, -3.112e-4
-1.266, -3.452e-4
-1.265, -3.791e-4
-1.264, -4.284e-4
-1.263, -4.808e-4
-1.262, -5.363e-4
-1.261, -5.795e-4
-1.260, -6.165e-4
-1.259, -6.473e-4
-1.258, -6.843e-4
-1.257, -7.305e-4
-1.256, -7.860e-4
-1.255, -8.354e-4
-1.254, -8.754e-4
-1.253, -9.032e-4
-1.252, -9.340e-4
-1.251, -9.710e-4
-1.250, -1.020e-3
-1.249, -1.073e-3
-1.248, -1.116e-3
-1.247, -1.153e-3
-1.246, -1.181e-3
-1.245, -1.212e-3
-1.244, -1.252e-3
-1.243, -1.301e-3
-1.242, -1.347e-3
-1.241, -1.390e-3
-1.240, -1.418e-3
-1.239, -1.443e-3
-1.238, -1.477e-3
-1.237, -1.520e-3
-1.236, -1.572e-3
-1.235, -1.618e-3
-1.234, -1.655e-3
-1.233, -1.683e-3
-1.232, -1.708e-3
-1.231, -1.739e-3
-1.230, -1.782e-3
-1.229, -1.831e-3
-1.228, -1.871e-3
-1.227, -1.899e-3
-1.226, -1.927e-3
-1.225, -1.951e-3
-1.224, -1.988e-3
-1.223, -2.035e-3
-1.222, -2.084e-3
-1.221, -2.121e-3
-1.220, -2.149e-3
-1.219, -2.167e-3
-1.218, -2.198e-3
-1.217, -2.235e-3
-1.216, -2.278e-3
-1.215, -2.315e-3
-1.214, -2.346e-3
-1.213, -2.368e-3
-1.212, -2.392e-3
-1.211, -2.420e-3
-1.210, -2.463e-3
-1.209, -2.506e-3
-1.208, -2.546e-3
-1.207, -2.577e-3
-1.206, -2.602e-3
-1.205, -2.624e-3
-1.204, -2.657e-3
-1.203, -2.701e-3
-1.202, -2.744e-3
-1.201, -2.781e-3
-1.200, -2.802e-3
-1.199, -2.818e-3
-1.198, -2.842e-3
-1.197, -2.883e-3
-1.196, -2.929e-3
-1.195, -2.969e-3
-1.194, -2.997e-3
-1.193, -3.018e-3
-1.192, -3.043e-3
-1.191, -3.077e-3
-1.190, -3.120e-3
-1.189, -3.160e-3
-1.188, -3.197e-3
-1.187, -3.222e-3
-1.186, -3.246e-3
-1.185, -3.268e-3
-1.184, -3.302e-3
-1.183, -3.339e-3
-1.182, -3.382e-3
-1.181, -3.416e-3
-1.180, -3.444e-3
-1.179, -3.462e-3
-1.178, -3.490e-3
-1.177, -3.533e-3
-1.176, -3.576e-3
-1.175, -3.619e-3
-1.174, -3.647e-3
-1.173, -3.672e-3
-1.172, -3.693e-3
-1.171, -3.724e-3
-1.170, -3.758e-3
-1.169, -3.798e-3
-1.168, -3.832e-3
-1.167, -3.860e-3
-1.166, -3.878e-3
-1.165, -3.903e-3
-1.164, -3.937e-3
-1.163, -3.983e-3
-1.162, -4.026e-3
-1.161, -4.057e-3
-1.160, -4.076e-3
-1.159, -4.091e-3
-1.158, -4.113e-3
-1.157, -4.147e-3
-1.156, -4.187e-3
-1.155, -4.227e-3
-1.154, -4.258e-3
-1.153, -4.282e-3
-1.152, -4.307e-3
-1.151, -4.341e-3
-1.150, -4.384e-3
-1.149, -4.424e-3
-1.148, -4.458e-3
-1.147, -4.477e-3
-1.146, -4.498e-3
-1.145, -4.523e-3
-1.144, -4.557e-3
-1.143, -4.597e-3
-1.142, -4.640e-3
-1.141, -4.677e-3
-1.140, -4.705e-3
-1.139, -4.720e-3
-1.138, -4.742e-3
-1.137, -4.776e-3
-1.136, -4.816e-3
-1.135, -4.856e-3
-1.134, -4.883e-3
-1.133, -4.905e-3
-1.132, -4.927e-3
-1.131, -4.954e-3
-1.130, -4.991e-3
-1.129, -5.035e-3
-1.128, -5.065e-3
-1.127, -5.093e-3
-1.126, -5.109e-3
-1.125, -5.133e-3
-1.124, -5.170e-3
-1.123, -5.213e-3
-1.122, -5.253e-3
-1.121, -5.287e-3
-1.120, -5.312e-3
-1.119, -5.327e-3
-1.118, -5.349e-3
-1.117, -5.377e-3
-1.116, -5.417e-3
-1.115, -5.454e-3
-1.114, -5.488e-3
-1.113, -5.512e-3
-1.112, -5.540e-3
-1.111, -5.574e-3
-1.110, -5.617e-3
-1.109, -5.657e-3
-1.108, -5.694e-3
-1.107, -5.719e-3
-1.106, -5.734e-3
-1.105, -5.753e-3
-1.104, -5.778e-3
-1.103, -5.815e-3
-1.102, -5.858e-3
-1.101, -5.895e-3
-1.100, -5.922e-3
-1.099, -5.941e-3
-1.098, -5.969e-3
-1.097, -6.006e-3
-1.096, -6.046e-3
-1.095, -6.086e-3
-1.094, -6.111e-3
-1.093, -6.129e-3
-1.092, -6.144e-3
-1.091, -6.169e-3
-1.090, -6.206e-3
-1.089, -6.252e-3
-1.088, -6.292e-3
-1.087, -6.323e-3
-1.086, -6.345e-3
-1.085, -6.360e-3
-1.084, -6.388e-3
-1.083, -6.422e-3
-1.082, -6.456e-3
-1.081, -6.481e-3
-1.080, -6.493e-3
-1.079, -6.502e-3
-1.078, -6.521e-3
-1.077, -6.545e-3
-1.076, -6.585e-3
-1.075, -6.629e-3
-1.074, -6.666e-3
-1.073, -6.693e-3
-1.072, -6.721e-3
-1.071, -6.755e-3
-1.070, -6.798e-3
-1.069, -6.838e-3
-1.068, -6.872e-3
-1.067, -6.888e-3
-1.066, -6.897e-3
-1.065, -6.909e-3
-1.064, -6.934e-3
-1.063, -6.974e-3
-1.062, -7.017e-3
-1.061, -7.048e-3
-1.060, -7.066e-3
-1.059, -7.088e-3
-1.058, -7.122e-3
-1.057, -7.165e-3
-1.056, -7.205e-3
-1.055, -7.239e-3
-1.054, -7.264e-3
-1.053, -7.285e-3
-1.052, -7.310e-3
-1.051, -7.331e-3
-1.050, -7.362e-3
-1.049, -7.396e-3
-1.048, -7.427e-3
-1.047, -7.452e-3
-1.046, -7.464e-3
-1.045, -7.476e-3
-1.044, -7.498e-3
-1.043, -7.535e-3
-1.042, -7.569e-3
-1.041, -7.594e-3
-1.040, -7.609e-3
-1.039, -7.624e-3
-1.038, -7.655e-3
-1.037, -7.695e-3
-1.036, -7.742e-3
-1.035, -7.782e-3
-1.034, -7.816e-3
-1.033, -7.831e-3
-1.032, -7.846e-3
-1.031, -7.865e-3
-1.030, -7.893e-3
-1.029, -7.930e-3
-1.028, -7.960e-3
-1.027, -7.979e-3
-1.026, -7.997e-3
-1.025, -8.025e-3
-1.024, -8.065e-3
-1.023, -8.112e-3
-1.022, -8.152e-3
-1.021, -8.186e-3
-1.020, -8.207e-3
-1.019, -8.222e-3
-1.018, -8.235e-3
-1.017, -8.256e-3
-1.016, -8.278e-3
-1.015, -8.312e-3
-1.014, -8.333e-3
-1.013, -8.358e-3
-1.012, -8.380e-3
-1.011, -8.407e-3
-1.010, -8.444e-3
-1.009, -8.485e-3
-1.008, -8.522e-3
-1.007, -8.549e-3
-1.006, -8.568e-3
-1.005, -8.580e-3
-1.004, -8.602e-3
-1.003, -8.636e-3
-1.002, -8.673e-3
-1.001, -8.707e-3
