Potential V vs RHE, Current mA cm-2
0.013299999999999867,2.7898106833338523
0.012299999999999978,1.0446228238203432
0.011299999999999866,-0.5692798270656908
0.010299999999999976,-2.052746096104168
0.009299999999999864,-3.5353635383627267
0.008299999999999974,-4.887827541033701
0.007299999999999862,-6.196435493408861
0.006299999999999972,-7.461187395488204
0.00529999999999986,-8.68208324727173
0.0042999999999999705,-9.85912304875944
0.0032999999999998586,-11.037577561547016
0.0022999999999999687,-12.12831997374296
0.0012999999999998568,-13.261503724934855
0.00029999999999996696,-14.30273124163552
-0.000700000000000145,-15.307176264539699
-0.0017000000000000348,-16.311621287443874
-0.0027000000000001467,-17.231183632356142
-0.0037000000000000366,-18.15074597726842
-0.0047000000000001485,-19.01371987018609
-0.005700000000000038,-19.848399537106463
-0.00670000000000015,-20.683079204026836
-0.00770000000000004,-21.461170418952605
-0.008700000000000152,-22.253408746877028
-0.009700000000000042,-22.989058622806844
-0.010700000000000154,-23.767149837732617
-0.011700000000000044,-24.516946826661083
-0.012700000000000156,-25.252596702590903
-0.013700000000000045,-25.91751101352747
-0.014700000000000157,-26.65316088945729
-0.015700000000000047,-27.303928087395207
-0.01670000000000016,-27.954695285333123
-0.01770000000000005,-28.619609596269694
-0.01870000000000016,-29.27037679420761
-0.01970000000000005,-29.878702653149578
-0.020700000000000163,-30.487028512091538
-0.021700000000000053,-31.095354371033505
-0.022700000000000164,-31.717827342974125
-0.023700000000000054,-32.283711862920136
-0.024700000000000166,-32.892037721862096
-0.025700000000000056,-33.50036358080407
-0.026700000000000168,-34.06624810075008
-0.027700000000000058,-34.67457395969205
-0.02870000000000017,-35.282899818634014
-0.02970000000000006,-35.848784338580025
-0.03070000000000017,-36.4288159715247
-0.03170000000000006,-36.95225915247476
-0.03270000000000017,-37.51814367242077
-0.03370000000000006,-38.08402819236679
-0.034700000000000175,-38.607471373316855
-0.035700000000000065,-39.173355893262865
-0.03670000000000018,-39.654357735216976
-0.03770000000000007,-40.177800916167044
-0.03870000000000018,-40.743685436113054
-0.03970000000000007,-41.267128617063115
-0.04070000000000018,-41.83301313700913
-0.04170000000000007,-42.3564563179592
-0.04270000000000018,-42.92234083790521
-0.04370000000000007,-43.48822535785123
-0.044700000000000184,-44.054109877797245
-0.045700000000000074,-44.619994397743255
-0.046700000000000186,-45.18587891768927
-0.047700000000000076,-45.75176343763528
-0.04870000000000019,-46.3176479575813
-0.04970000000000008,-46.84109113853137
-0.05070000000000019,-47.40697565847737
-0.05170000000000008,-47.93041883942744
-0.05270000000000019,-48.36897934238561
-0.05370000000000008,-48.93486386233162
-0.05470000000000019,-49.41586570428573
-0.05570000000000008,-49.939308885235796
-0.056700000000000195,-50.50519340518181
-0.057700000000000085,-51.071077925127824
-0.058700000000000196,-51.65110955807249
-0.059700000000000086,-52.2169940780185
-0.0607000000000002,-52.74043725896857
-0.06170000000000009,-53.30632177891458
-0.0627000000000002,-53.872206298860604
-0.06370000000000009,-54.43809081880661
-0.0647000000000002,-55.003975338752625
-0.06570000000000009,-55.56985985869864
-0.0667000000000002,-56.13574437864466
-0.0677000000000001,-56.70162889859067
-0.0687000000000002,-57.30995475753264
-0.0697000000000001,-57.93242772947325
-0.07070000000000021,-58.54075358841522
-0.0717000000000001,-59.14907944735718
-0.07270000000000021,-59.757405306299155
-0.0737000000000001,-60.36573116524111
-0.07470000000000021,-60.974057024183075
-0.0757000000000001,-61.53994154412909
-0.07670000000000021,-62.06338472507916
-0.0777000000000001,-62.64341635802381
-0.07870000000000021,-63.15271242597524
-0.0797000000000001,-63.732744058919906
-0.08070000000000022,-64.25618723986996
-0.0817000000000001,-64.82207175981598
-0.08270000000000022,-65.34551494076604
-0.08370000000000011,-65.91139946071206
-0.08470000000000022,-66.43484264166212
-0.08570000000000011,-67.04316850060408
-0.08670000000000022,-67.65149435954605
-0.08770000000000011,-68.25982021848802
-0.08870000000000022,-68.91058741642594
-0.08970000000000011,-69.57550172736251
-0.09070000000000022,-70.22626892530042
-0.09170000000000011,-70.8345947842424
-0.09270000000000023,-71.48536198218031
-0.09370000000000012,-72.15027629311687
-0.09470000000000023,-72.75860215205884
-0.09570000000000012,-73.32448667200485
-0.09670000000000023,-73.89037119195086
-0.09770000000000012,-74.37137303390499
-0.09870000000000023,-74.8523748758591
-0.09970000000000012,-75.37581805680915
-0.10070000000000023,-75.94170257675518
-0.10170000000000012,-76.55002843569714
-0.10270000000000024,-77.1583542946391
-0.10370000000000013,-77.80912149257702
-0.10470000000000024,-78.47403580351359
-0.10570000000000013,-79.16724434044745
-0.10670000000000024,-79.86045287738132
-0.10770000000000013,-80.56780852731384
-0.10870000000000024,-81.26101706424771
-0.10970000000000013,-81.91178426218562
-0.11070000000000024,-82.6615812511141
-0.11170000000000013,-83.31234844905201
-0.11270000000000002,-84.00555698598588
-0.11370000000000013,-84.61388284492786
-0.11470000000000002,-85.23635581686847
-0.11570000000000014,-85.88712301480638
-0.11670000000000003,-86.49544887374834
-0.11770000000000014,-87.10377473269031
-0.11870000000000003,-87.75454193062824
-0.11970000000000014,-88.37701490256885
-0.12070000000000003,-88.94289942251486
-0.12170000000000014,-89.55122528145681
-0.12270000000000003,-90.15955114039879
-0.12370000000000014,-90.76787699934074
-0.12470000000000003,-91.33376151928677
-0.12570000000000014,-91.94208737822873
-0.12670000000000003,-92.50797189817473
-0.12770000000000015,-93.08800353111941
-0.12870000000000004,-93.73877072905732
-0.12970000000000015,-94.34709658799929
-0.13070000000000004,-94.95542244694126
-0.13170000000000015,-95.60618964487918
-0.13270000000000004,-96.31354529481169
-0.13370000000000015,-96.96431249274961
-0.13470000000000004,-97.6575210296835
-0.13570000000000015,-98.3082882276214
-0.13670000000000004,-99.01564387755391
-0.13770000000000016,-99.70885241448778
-0.13870000000000005,-100.35961961242569
-0.13970000000000016,-101.02453392336226
-0.14070000000000005,-101.6753011213002
-0.14170000000000016,-102.28362698024215
-0.14270000000000005,-102.89195283918411
-0.14370000000000016,-103.45783735913014
-0.14470000000000005,-104.06616321807209
-0.14570000000000016,-104.58960639902216
-0.14670000000000005,-105.21207937096277
-0.14770000000000016,-105.7779638909088
-0.14870000000000005,-106.38628974985076
-0.14970000000000017,-106.99461560879273
-0.15070000000000006,-107.56050012873874
-0.15170000000000017,-108.1688259876807
-0.15270000000000006,-108.77715184662266
-0.15370000000000017,-109.39962481856328
-0.15470000000000006,-110.05039201650122
-0.15570000000000017,-110.70115921443913
-0.15670000000000006,-111.394367751373
-0.15770000000000017,-112.01684072331359
-0.15870000000000006,-112.71004926024747
-0.15970000000000018,-113.40325779718134
-0.16070000000000007,-114.05402499511925
-0.16170000000000018,-114.67649796705987
-0.16270000000000007,-115.32726516499778
-0.16370000000000018,-115.93559102393975
-0.16470000000000007,-116.62879956087362
-0.16570000000000018,-117.25127253281424
-0.16670000000000007,-117.85959839175621
-0.16770000000000018,-118.46792425069816
-0.16870000000000007,-119.07625010964013
-0.16970000000000018,-119.68457596858211
-0.17070000000000007,-120.29290182752408
-0.17170000000000019,-120.85878634747009
-0.17270000000000008,-121.43881798041474
-0.1737000000000002,-122.0471438393567
-0.17470000000000008,-122.74035237629057
-0.1757000000000002,-123.39111957422851
-0.17670000000000008,-124.05603388516508
-0.1777000000000002,-124.74924242209892
-0.17870000000000008,-125.44245095903281
-0.1797000000000002,-126.14980660896532
-0.18070000000000008,-126.84301514589919
-0.1817000000000002,-127.53622368283307
-0.18270000000000008,-128.18699088077096
-0.1837000000000002,-128.752875400717
-0.1847000000000001,-129.27631858166706
-0.1857000000000002,-129.79976176261712
-0.1867000000000001,-130.32320494356716
-0.1877000000000002,-130.84664812451723
-0.1887000000000001,-131.4266797574619
-0.1897000000000002,-131.95012293841197
-0.1907000000000001,-132.60089013634988
-0.1917000000000001,-133.1667746562959
-0.19269999999999998,-133.73265917624192
-0.1937000000000001,-134.34098503518388
-0.19469999999999998,-134.9917522331218
-0.1957000000000001,-135.65666654405837
-0.19669999999999999,-136.2225510640044
-0.1977000000000001,-136.83087692294635
-0.1987,-137.3543201038964
-0.1997000000000001,-137.83532194585052
-0.2007,-138.3163237878046
-0.2017000000000001,-138.7548842907628
-0.2027,-139.22173901971826
-0.2037000000000001,-139.74518220066832
-0.2047,-140.18374270362645
-0.2057000000000001,-140.74962722357247
-0.2067,-141.3155117435185
-0.2077000000000001,-141.89554337646317
-0.2087,-142.4614278964092
-0.2097000000000001,-143.16878354634173
-0.2107,-143.87613919627424
-0.2117000000000001,-144.58349484620675
-0.2127,-145.29085049613926
-0.2137000000000001,-145.9982061460718
-0.2147,-146.7055617960043
-0.2157000000000001,-147.27144631595033
-0.2167,-147.83733083589632
-0.21770000000000012,-148.40321535584232
-0.2187,-148.82762874580186
-0.21970000000000012,-149.39351326574788
-0.2207,-149.95939778569388
-0.22170000000000012,-150.5252823056399
-0.2227,-151.09116682558593
-0.22370000000000012,-151.5155802155454
-0.2247,-152.0814647354914
-0.22570000000000012,-152.64734925543743
-0.2267,-153.21323377538346
-0.22770000000000012,-153.77911829532948
-0.22870000000000001,-154.203531685289
-0.22970000000000013,-154.76941620523502
-0.23070000000000002,-155.19382959519453
-0.23170000000000013,-155.75971411514055
-0.23270000000000002,-156.18412750510007
-0.23370000000000013,-156.60854089505958
-0.23470000000000002,-157.17442541500557
-0.23570000000000013,-157.59883880496508
-0.23670000000000002,-158.1647233249111
-0.2376999999999999,-158.73060784485713
-0.23870000000000002,-159.29649236480313
-0.2396999999999999,-159.72090575476264
-0.24070000000000003,-160.28679027470866
-0.24169999999999991,-160.8526747946547
-0.24270000000000003,-161.41855931460069
-0.24369999999999992,-161.9844438345467
-0.24470000000000003,-162.5503283544927
-0.24569999999999992,-163.11621287443873
-0.24670000000000003,-163.68209739438475
-0.24769999999999992,-164.24798191433075
-0.24870000000000003,-164.81386643427678
-0.24969999999999992,-165.3797509542228
-0.25070000000000003,-165.94563547416882
-0.2516999999999999,-166.51151999411482
-0.25270000000000004,-166.93593338407433
-0.2536999999999999,-167.50181790402033
-0.25470000000000004,-167.92623129397984
-0.2556999999999999,-168.35064468393938
-0.25670000000000004,-168.91652920388537
-0.25769999999999993,-169.48241372383137
-0.25870000000000004,-170.0482982437774
-0.25969999999999993,-170.61418276372342
-0.26070000000000004,-171.18006728366944
-0.26169999999999993,-171.74595180361547
-0.26270000000000004,-172.31183632356147
-0.26369999999999993,-172.87772084350746
-0.26470000000000005,-173.58507649344
-0.26569999999999994,-174.2924321433725
-0.26670000000000005,-174.99978779330505
-0.26769999999999994,-175.56567231325104
-0.26870000000000005,-176.27302796318358
-0.26969999999999994,-176.8389124831296
-0.27070000000000005,-177.54626813306209
-0.27169999999999994,-178.1121526530081
-0.27270000000000005,-178.81950830294062
-0.27369999999999994,-179.38539282288664
-0.27470000000000006,-179.95127734283267
-0.27569999999999995,-180.65863299276518
-0.27670000000000006,-181.2245175127112
-0.27769999999999995,-181.79040203265723
-0.27870000000000006,-182.21481542261674
-0.27969999999999995,-182.78069994256273
-0.28070000000000006,-183.34658446250873
-0.28169999999999995,-183.91246898245475
-0.28270000000000006,-184.47835350240078
-0.28369999999999995,-185.0442380223468
-0.28470000000000006,-185.7515936722793
-0.28569999999999995,-186.31747819222534
-0.28670000000000007,-186.88336271217133
-0.28769999999999996,-187.44924723211736
-0.28870000000000007,-188.01513175206335
-0.28969999999999996,-188.58101627200938
-0.29070000000000007,-189.1469007919554
-0.29169999999999996,-189.71278531190143
-0.29270000000000007,-190.27866983184742
-0.29369999999999996,-190.84455435179345
-0.2947000000000001,-191.41043887173947
-0.29569999999999996,-191.9763233916855
-0.2967000000000001,-192.683679041618
-0.29769999999999996,-193.3910346915505
-0.2987000000000001,-194.09839034148303
-0.29969999999999997,-194.66427486142905
-0.3007000000000001,-195.23015938137505
-0.30169999999999997,-195.79604390132107
-0.3027000000000001,-196.3619284212671
-0.30369999999999997,-196.92781294121312
-0.3047000000000001,-197.35222633117263
-0.30569999999999997,-197.91811085111863
-0.3067000000000001,-198.3425242410781
-0.3077,-198.90840876102413
-0.3087000000000001,-199.33282215098367
-0.3097,-199.75723554094319
-0.3107000000000001,-200.18164893090267
-0.3117,-200.7475334508487
-0.3127000000000001,-201.31341797079472
-0.3137,-201.87930249074074
-0.3147000000000001,-202.58665814067325
-0.3157,-203.15254266061928
-0.3167000000000001,-203.71842718056527
-0.3177,-204.2843117005113
-0.3187000000000001,-204.7087250904708
-0.3197,-205.27460961041683
-0.3207000000000001,-205.98196526034934
-0.3217,-206.54784978029537
-0.3227000000000001,-207.1137343002414
-0.3237,-207.8210899501739
-0.3247000000000001,-208.3869744701199
-0.3257,-208.8113878600794
-0.3267000000000001,-209.37727238002543
-0.3277,-209.94315689997146
-0.3287000000000001,-210.50904141991748
-0.3297,-210.93345480987696
-0.3307000000000001,-211.499339329823
-0.3317,-211.9237527197825
-0.3327000000000001,-212.2066949797555
-0.3337,-212.631108369715
-0.3347000000000001,-212.914050629688
-0.3357,-213.33846401964755
-0.3367000000000001,-213.62140627962054
-0.3377,-214.04581966958003
-0.3387000000000001,-214.47023305953954
-0.3397,-214.75317531951256
-0.3407000000000001,-215.17758870947208
-0.3417,-215.6020020994316
-0.3427000000000001,-216.0264154893911
-0.3437,-216.4508288793506
-0.3447000000000001,-217.01671339929663
-0.3457,-217.44112678925615
-0.3467000000000001,-218.00701130920217
-0.3477,-218.43142469916165
-0.3487000000000001,-218.85583808912116
-0.3497,-219.28025147908068
-0.3507000000000001,-219.7046648690402
-0.3517,-220.1290782589997
-0.3527000000000001,-220.6949627789457
-0.3537,-221.11937616890526
-0.3547000000000001,-221.54378955886475
-0.3557,-221.96820294882426
-0.35670000000000013,-222.3926163387838
-0.3577,-222.6755585987568
-0.35870000000000013,-223.09997198871628
-0.3597,-223.38291424868927
-0.36070000000000013,-223.6658565086623
-0.3617,-223.9487987686353
-0.3626999999999999,-224.2317410286083
-0.3637,-224.37321215859478
-0.3646999999999999,-224.65615441856778
-0.3657,-224.79762554855435
-0.3666999999999999,-224.93909667854084
-0.3677,-225.22203893851383
-0.3686999999999999,-225.50498119848683
-0.36970000000000003,-225.78792345845983
-0.3706999999999999,-226.07086571843288
-0.37170000000000003,-226.49527910839237
-0.3726999999999999,-226.77822136836537
-0.37370000000000003,-227.06116362833836
-0.3746999999999999,-227.4855770182979
-0.37570000000000003,-227.7685192782709
-0.3766999999999999,-228.1929326682304
-0.37770000000000004,-228.47587492820347
-0.3786999999999999,-228.75881718817644
-0.37970000000000004,-228.90028831816295
-0.3806999999999999,-229.04175944814943
-0.38170000000000004,-229.18323057813595
-0.38269999999999993,-229.32470170812243
-0.38370000000000004,-229.32470170812243
-0.38469999999999993,-229.46617283810895
-0.38570000000000004,-229.60764396809546
-0.38669999999999993,-228.33440379821695
-0.38570000000000004,-224.79762554855435
-0.38469999999999993,-221.26084729889175
-0.38370000000000004,-218.00701130920217
-0.38269999999999993,-214.75317531951256
-0.38170000000000004,-211.64081045980947
-0.3806999999999999,-208.6699167300929
-0.37970000000000004,-205.55755187038983
-0.3786999999999999,-202.58665814067325
-0.37770000000000004,-199.75723554094319
-0.3766999999999999,-196.7863418112266
-0.37570000000000003,-193.9569192114965
-0.3746999999999999,-191.12749661176645
-0.37370000000000003,-188.4395451420229
-0.3726999999999999,-185.6101225422928
-0.37170000000000003,-182.92217107254925
-0.3706999999999999,-180.23421960280567
-0.36970000000000003,-177.54626813306209
-0.3686999999999999,-174.85831666331853
-0.3677,-172.31183632356147
-0.3666999999999999,-169.6238848538179
-0.3657,-167.07740451406085
-0.3646999999999999,-164.53092417430375
-0.3637,-161.9844438345467
-0.3626999999999999,-159.43796349478964
-0.3617,-156.89148315503257
-0.36070000000000013,-154.3450028152755
-0.3597,-151.7985224755184
-0.35870000000000013,-149.25204213576137
-0.3577,-146.7055617960043
-0.35670000000000013,-144.30055258623375
-0.3557,-141.89554337646317
-0.3547000000000001,-139.36321014970477
-0.3537,-136.91575960093826
-0.3527000000000001,-134.5107503911677
-0.3517,-132.16232963339172
-0.3507000000000001,-129.8563502146117
-0.3497,-127.57866502182902
-0.3487000000000001,-125.31512694204494
-0.3477,-123.00914752326493
-0.3467000000000001,-120.68902099148629
-0.3457,-118.42548291170223
-0.3447000000000001,-116.14779771891952
-0.3437,-113.92670097813141
-0.3427000000000001,-111.7904869153352
-0.3417,-109.654272852539
-0.3407000000000001,-107.56050012873874
-0.3397,-105.46672740493848
-0.3387000000000001,-103.41539602013418
-0.3377,-101.40650597432582
-0.3367000000000001,-99.41176304151614
-0.3357,-97.4877556736997
-0.3347000000000001,-95.56374830588322
-0.3337,-93.65388805106544
-0.3327000000000001,-91.68743934425302
-0.3317,-89.72099063744062
-0.3307000000000001,-87.75454193062824
-0.3297,-85.84468167581042
-0.3287000000000001,-83.96311564698992
-0.3277,-82.13813807016405
-0.3267000000000001,-80.29901338033947
-0.3257,-78.43159446451764
-0.3247000000000001,-76.55002843569714
-0.3237,-74.62602106788069
-0.3227000000000001,-72.80104349105478
-0.3217,-70.96191880123024
-0.3207000000000001,-69.22182390239624
-0.3197,-67.48172900356225
-0.3187000000000001,-65.7274869917296
-0.3177,-64.0722747708875
-0.3167000000000001,-62.37462121104946
-0.3157,-60.67696765121143
-0.3147000000000001,-59.10663810836124
-0.3137,-57.57874990450699
-0.3127000000000001,-56.13574437864466
-0.3117,-54.69273885278232
-0.3107000000000001,-53.348763117910536
-0.3097,-52.033081609036046
-0.3087000000000001,-50.77398855215617
-0.3077,-49.458307043281685
-0.3067000000000001,-48.1992139864018
-0.30569999999999997,-46.88353247752732
-0.3047000000000001,-45.497115403659585
-0.30369999999999997,-44.054109877797245
-0.3027000000000001,-42.568663012938956
-0.30169999999999997,-41.083216148080666
-0.3007000000000001,-39.56947505722508
-0.29969999999999997,-37.99914551437489
-0.2987000000000001,-36.47125731052064
-0.29769999999999996,-34.98581044566235
-0.2967000000000001,-33.54280491980002
-0.29569999999999996,-32.14224073293363
-0.2947000000000001,-30.79826499806185
-0.29369999999999996,-29.482583489187363
-0.29270000000000007,-28.22349043230748
-0.29169999999999996,-26.9643973754276
-0.29070000000000007,-25.73359854454502
-0.28969999999999996,-24.516946826661083
-0.28870000000000007,-23.2012653177866
-0.28769999999999996,-21.98461359990267
-0.28670000000000007,-20.72552054302279
-0.28569999999999995,-19.452280373144255
-0.28470000000000006,-18.23562865526032
-0.28369999999999995,-17.061418276372343
-0.28270000000000006,-15.91550212348166
-0.28169999999999995,-14.826174422585586
-0.28070000000000006,-13.784946905884919
-0.27969999999999995,-12.73806054398479
-0.27870000000000006,-11.778886282676295
-0.27769999999999995,-10.775855971071984
-0.27670000000000006,-9.772825659467674
-0.27569999999999995,-8.769795347863363
-0.27470000000000006,-7.809206375255003
-0.27369999999999994,-6.762320013354876
-0.27270000000000005,-5.759289701750564
-0.27169999999999994,-4.668547289554621
-0.27070000000000005,-3.5353635383627267
-0.26969999999999994,-2.4446211261667834
-0.26870000000000005,-1.3980177065266295
