Mar. 31, 2025   14:07:42
Cyclic Voltammetry
File: c:/users/guazh/data/banditlqround7_x0exp518_r20/2025-03-28-exp1000\exp1000-2025-03-31t13_57_46-h2koh\exp1000_cv_sr_200mvs_efin_-1500mv.bin
Data Source:  Experiment
Instrument Model:  CHI760E
Header: CV ran at 200 mVs
Note: 

Init E (V) = -1
High E (V) = -1
Low E (V) = -1.5
Final E (V) = -1
Init P/N = N
Scan Rate (V/s) = 0.2
Segment = 3
Sample Interval (V) = 0.001
Quiet Time (sec) = 2
Sensitivity (A/V) = 0.01
Comp R (ohm) = 1.9

Results:

Channel 1:
Segment 1:

Segment 2:

Segment 3:

Potential/V, Current/A

-1.000, 1.018e-5
-1.001, 4.313e-5
-1.002, 5.560e-5
-1.003, 6.734e-5
-1.004, 7.776e-5
-1.005, 8.110e-5
-1.006, 8.549e-5
-1.007, 9.361e-5
-1.008, 9.600e-5
-1.009, 9.793e-5
-1.010, 1.040e-4
-1.011, 1.071e-4
-1.012, 1.074e-4
-1.013, 1.111e-4
-1.014, 1.161e-4
-1.015, 1.157e-4
-1.016, 1.174e-4
-1.017, 1.228e-4
-1.018, 1.235e-4
-1.019, 1.229e-4
-1.020, 1.282e-4
-1.021, 1.303e-4
-1.022, 1.290e-4
-1.023, 1.324e-4
-1.024, 1.370e-4
-1.025, 1.359e-4
-1.026, 1.368e-4
-1.027, 1.417e-4
-1.028, 1.421e-4
-1.029, 1.411e-4
-1.030, 1.455e-4
-1.031, 1.481e-4
-1.032, 1.462e-4
-1.033, 1.499e-4
-1.034, 1.537e-4
-1.035, 1.522e-4
-1.036, 1.531e-4
-1.037, 1.578e-4
-1.038, 1.579e-4
-1.039, 1.574e-4
-1.040, 1.613e-4
-1.041, 1.633e-4
-1.042, 1.616e-4
-1.043, 1.649e-4
-1.044, 1.684e-4
-1.045, 1.664e-4
-1.046, 1.667e-4
-1.047, 1.722e-4
-1.048, 1.714e-4
-1.049, 1.701e-4
-1.050, 1.749e-4
-1.051, 1.759e-4
-1.052, 1.738e-4
-1.053, 1.762e-4
-1.054, 1.801e-4
-1.055, 1.782e-4
-1.056, 1.783e-4
-1.057, 1.826e-4
-1.058, 1.828e-4
-1.059, 1.807e-4
-1.060, 1.841e-4
-1.061, 1.857e-4
-1.062, 1.835e-4
-1.063, 1.857e-4
-1.064, 1.881e-4
-1.065, 1.865e-4
-1.066, 1.864e-4
-1.067, 1.904e-4
-1.068, 1.895e-4
-1.069, 1.874e-4
-1.070, 1.912e-4
-1.071, 1.921e-4
-1.072, 1.886e-4
-1.073, 1.911e-4
-1.074, 1.935e-4
-1.075, 1.912e-4
-1.076, 1.907e-4
-1.077, 1.939e-4
-1.078, 1.926e-4
-1.079, 1.905e-4
-1.080, 1.939e-4
-1.081, 1.939e-4
-1.082, 1.905e-4
-1.083, 1.921e-4
-1.084, 1.949e-4
-1.085, 1.916e-4
-1.086, 1.913e-4
-1.087, 1.946e-4
-1.088, 1.925e-4
-1.089, 1.898e-4
-1.090, 1.929e-4
-1.091, 1.930e-4
-1.092, 1.896e-4
-1.093, 1.908e-4
-1.094, 1.930e-4
-1.095, 1.903e-4
-1.096, 1.887e-4
-1.097, 1.922e-4
-1.098, 1.899e-4
-1.099, 1.869e-4
-1.100, 1.901e-4
-1.101, 1.899e-4
-1.102, 1.858e-4
-1.103, 1.876e-4
-1.104, 1.891e-4
-1.105, 1.861e-4
-1.106, 1.848e-4
-1.107, 1.875e-4
-1.108, 1.854e-4
-1.109, 1.823e-4
-1.110, 1.850e-4
-1.111, 1.850e-4
-1.112, 1.807e-4
-1.113, 1.823e-4
-1.114, 1.839e-4
-1.115, 1.800e-4
-1.116, 1.794e-4
-1.117, 1.821e-4
-1.118, 1.793e-4
-1.119, 1.768e-4
-1.120, 1.790e-4
-1.121, 1.788e-4
-1.122, 1.749e-4
-1.123, 1.751e-4
-1.124, 1.780e-4
-1.125, 1.739e-4
-1.126, 1.728e-4
-1.127, 1.752e-4
-1.128, 1.730e-4
-1.129, 1.702e-4
-1.130, 1.726e-4
-1.131, 1.717e-4
-1.132, 1.684e-4
-1.133, 1.692e-4
-1.134, 1.705e-4
-1.135, 1.669e-4
-1.136, 1.661e-4
-1.137, 1.686e-4
-1.138, 1.663e-4
-1.139, 1.636e-4
-1.140, 1.662e-4
-1.141, 1.653e-4
-1.142, 1.617e-4
-1.143, 1.629e-4
-1.144, 1.640e-4
-1.145, 1.602e-4
-1.146, 1.600e-4
-1.147, 1.626e-4
-1.148, 1.601e-4
-1.149, 1.570e-4
-1.150, 1.597e-4
-1.151, 1.590e-4
-1.152, 1.551e-4
-1.153, 1.568e-4
-1.154, 1.580e-4
-1.155, 1.543e-4
-1.156, 1.534e-4
-1.157, 1.563e-4
-1.158, 1.540e-4
-1.159, 1.516e-4
-1.160, 1.536e-4
-1.161, 1.537e-4
-1.162, 1.498e-4
-1.163, 1.515e-4
-1.164, 1.530e-4
-1.165, 1.492e-4
-1.166, 1.485e-4
-1.167, 1.517e-4
-1.168, 1.491e-4
-1.169, 1.467e-4
-1.170, 1.497e-4
-1.171, 1.490e-4
-1.172, 1.455e-4
-1.173, 1.468e-4
-1.174, 1.487e-4
-1.175, 1.451e-4
-1.176, 1.444e-4
-1.177, 1.481e-4
-1.178, 1.459e-4
-1.179, 1.433e-4
-1.180, 1.463e-4
-1.181, 1.456e-4
-1.182, 1.421e-4
-1.183, 1.446e-4
-1.184, 1.456e-4
-1.185, 1.423e-4
-1.186, 1.421e-4
-1.187, 1.450e-4
-1.188, 1.427e-4
-1.189, 1.404e-4
-1.190, 1.436e-4
-1.191, 1.436e-4
-1.192, 1.403e-4
-1.193, 1.422e-4
-1.194, 1.441e-4
-1.195, 1.408e-4
-1.196, 1.413e-4
-1.197, 1.440e-4
-1.198, 1.419e-4
-1.199, 1.404e-4
-1.200, 1.432e-4
-1.201, 1.432e-4
-1.202, 1.404e-4
-1.203, 1.425e-4
-1.204, 1.443e-4
-1.205, 1.415e-4
-1.206, 1.417e-4
-1.207, 1.450e-4
-1.208, 1.426e-4
-1.209, 1.412e-4
-1.210, 1.447e-4
-1.211, 1.444e-4
-1.212, 1.421e-4
-1.213, 1.447e-4
-1.214, 1.462e-4
-1.215, 1.437e-4
-1.216, 1.444e-4
-1.217, 1.477e-4
-1.218, 1.459e-4
-1.219, 1.446e-4
-1.220, 1.486e-4
-1.221, 1.487e-4
-1.222, 1.462e-4
-1.223, 1.494e-4
-1.224, 1.511e-4
-1.225, 1.487e-4
-1.226, 1.493e-4
-1.227, 1.527e-4
-1.228, 1.520e-4
-1.229, 1.515e-4
-1.230, 1.546e-4
-1.231, 1.550e-4
-1.232, 1.528e-4
-1.233, 1.561e-4
-1.234, 1.579e-4
-1.235, 1.559e-4
-1.236, 1.571e-4
-1.237, 1.609e-4
-1.238, 1.596e-4
-1.239, 1.597e-4
-1.240, 1.630e-4
-1.241, 1.636e-4
-1.242, 1.622e-4
-1.243, 1.653e-4
-1.244, 1.677e-4
-1.245, 1.658e-4
-1.246, 1.676e-4
-1.247, 1.713e-4
-1.248, 1.703e-4
-1.249, 1.706e-4
-1.250, 1.749e-4
-1.251, 1.755e-4
-1.252, 1.743e-4
-1.253, 1.778e-4
-1.254, 1.800e-4
-1.255, 1.794e-4
-1.256, 1.809e-4
-1.257, 1.850e-4
-1.258, 1.846e-4
-1.259, 1.851e-4
-1.260, 1.894e-4
-1.261, 1.903e-4
-1.262, 1.894e-4
-1.263, 1.934e-4
-1.264, 1.961e-4
-1.265, 1.953e-4
-1.266, 1.973e-4
-1.267, 2.015e-4
-1.268, 2.017e-4
-1.269, 2.022e-4
-1.270, 2.069e-4
-1.271, 2.083e-4
-1.272, 2.081e-4
-1.273, 2.122e-4
-1.274, 2.149e-4
-1.275, 2.147e-4
-1.276, 2.173e-4
-1.277, 2.214e-4
-1.278, 2.216e-4
-1.279, 2.231e-4
-1.280, 2.281e-4
-1.281, 2.293e-4
-1.282, 2.295e-4
-1.283, 2.336e-4
-1.284, 2.369e-4
-1.285, 2.366e-4
-1.286, 2.398e-4
-1.287, 2.447e-4
-1.288, 2.450e-4
-1.289, 2.465e-4
-1.290, 2.521e-4
-1.291, 2.533e-4
-1.292, 2.539e-4
-1.293, 2.585e-4
-1.294, 2.619e-4
-1.295, 2.624e-4
-1.296, 2.656e-4
-1.297, 2.709e-4
-1.298, 2.716e-4
-1.299, 2.733e-4
-1.300, 2.788e-4
-1.301, 2.811e-4
-1.302, 2.818e-4
-1.303, 2.869e-4
-1.304, 2.903e-4
-1.305, 2.908e-4
-1.306, 2.946e-4
-1.307, 2.996e-4
-1.308, 3.009e-4
-1.309, 3.027e-4
-1.310, 3.087e-4
-1.311, 3.111e-4
-1.312, 3.114e-4
-1.313, 3.169e-4
-1.314, 3.208e-4
-1.315, 3.214e-4
-1.316, 3.252e-4
-1.317, 3.307e-4
-1.318, 3.315e-4
-1.319, 3.342e-4
-1.320, 3.401e-4
-1.321, 3.425e-4
-1.322, 3.435e-4
-1.323, 3.488e-4
-1.324, 3.531e-4
-1.325, 3.537e-4
-1.326, 3.575e-4
-1.327, 3.632e-4
-1.328, 3.641e-4
-1.329, 3.667e-4
-1.330, 3.723e-4
-1.331, 3.753e-4
-1.332, 3.763e-4
-1.333, 3.821e-4
-1.334, 3.863e-4
-1.335, 3.868e-4
-1.336, 3.899e-4
-1.337, 3.956e-4
-1.338, 3.983e-4
-1.339, 4.000e-4
-1.340, 4.061e-4
-1.341, 4.083e-4
-1.342, 4.100e-4
-1.343, 4.158e-4
-1.344, 4.195e-4
-1.345, 4.208e-4
-1.346, 4.252e-4
-1.347, 4.306e-4
-1.348, 4.318e-4
-1.349, 4.345e-4
-1.350, 4.408e-4
-1.351, 4.432e-4
-1.352, 4.443e-4
-1.353, 4.506e-4
-1.354, 4.548e-4
-1.355, 4.556e-4
-1.356, 4.603e-4
-1.357, 4.658e-4
-1.358, 4.674e-4
-1.359, 4.701e-4
-1.360, 4.764e-4
-1.361, 4.798e-4
-1.362, 4.808e-4
-1.363, 4.865e-4
-1.364, 4.918e-4
-1.365, 4.930e-4
-1.366, 4.971e-4
-1.367, 5.037e-4
-1.368, 5.053e-4
-1.369, 5.088e-4
-1.370, 5.153e-4
-1.371, 5.188e-4
-1.372, 5.206e-4
-1.373, 5.273e-4
-1.374, 5.320e-4
-1.375, 5.338e-4
-1.376, 5.386e-4
-1.377, 5.454e-4
-1.378, 5.480e-4
-1.379, 5.515e-4
-1.380, 5.597e-4
-1.381, 5.640e-4
-1.382, 5.677e-4
-1.383, 5.752e-4
-1.384, 5.811e-4
-1.385, 5.843e-4
-1.386, 5.911e-4
-1.387, 5.993e-4
-1.388, 6.036e-4
-1.389, 6.084e-4
-1.390, 6.192e-4
-1.391, 6.268e-4
-1.392, 6.307e-4
-1.393, 6.406e-4
-1.394, 6.512e-4
-1.395, 6.585e-4
-1.396, 6.687e-4
-1.397, 6.806e-4
-1.398, 6.899e-4
-1.399, 7.012e-4
-1.400, 7.159e-4
-1.401, 7.280e-4
-1.402, 7.398e-4
-1.403, 7.566e-4
-1.404, 7.732e-4
-1.405, 7.861e-4
-1.406, 8.035e-4
-1.407, 8.253e-4
-1.408, 8.416e-4
-1.409, 8.592e-4
-1.410, 8.825e-4
-1.411, 9.040e-4
-1.412, 9.242e-4
-1.413, 9.467e-4
-1.414, 9.715e-4
-1.415, 9.950e-4
-1.416, 1.018e-3
-1.417, 1.045e-3
-1.418, 1.070e-3
-1.419, 1.095e-3
-1.420, 1.123e-3
-1.421, 1.150e-3
-1.422, 1.178e-3
-1.423, 1.207e-3
-1.424, 1.234e-3
-1.425, 1.260e-3
-1.426, 1.290e-3
-1.427, 1.319e-3
-1.428, 1.345e-3
-1.429, 1.373e-3
-1.430, 1.408e-3
-1.431, 1.442e-3
-1.432, 1.463e-3
-1.433, 1.492e-3
-1.434, 1.532e-3
-1.435, 1.565e-3
-1.436, 1.597e-3
-1.437, 1.631e-3
-1.438, 1.666e-3
-1.439, 1.697e-3
-1.440, 1.731e-3
-1.441, 1.764e-3
-1.442, 1.798e-3
-1.443, 1.835e-3
-1.444, 1.872e-3
-1.445, 1.903e-3
-1.446, 1.928e-3
-1.447, 1.972e-3
-1.448, 2.012e-3
-1.449, 2.054e-3
-1.450, 2.077e-3
-1.451, 2.121e-3
-1.452, 2.161e-3
-1.453, 2.195e-3
-1.454, 2.227e-3
-1.455, 2.276e-3
-1.456, 2.296e-3
-1.457, 2.353e-3
-1.458, 2.377e-3
-1.459, 2.412e-3
-1.460, 2.466e-3
-1.461, 2.499e-3
-1.462, 2.524e-3
-1.463, 2.567e-3
-1.464, 2.606e-3
-1.465, 2.636e-3
-1.466, 2.682e-3
-1.467, 2.728e-3
-1.468, 2.769e-3
-1.469, 2.815e-3
-1.470, 2.855e-3
-1.471, 2.878e-3
-1.472, 2.919e-3
-1.473, 2.967e-3
-1.474, 2.999e-3
-1.475, 3.042e-3
-1.476, 3.084e-3
-1.477, 3.132e-3
-1.478, 3.162e-3
-1.479, 3.216e-3
-1.480, 3.247e-3
-1.481, 3.300e-3
-1.482, 3.336e-3
-1.483, 3.392e-3
-1.484, 3.436e-3
-1.485, 3.471e-3
-1.486, 3.525e-3
-1.487, 3.559e-3
-1.488, 3.620e-3
-1.489, 3.662e-3
-1.490, 3.688e-3
-1.491, 3.719e-3
-1.492, 3.763e-3
-1.493, 3.805e-3
-1.494, 3.842e-3
-1.495, 3.882e-3
-1.496, 3.947e-3
-1.497, 4.002e-3
-1.498, 4.023e-3
-1.499, 4.071e-3
-1.500, 4.059e-3
-1.499, 3.997e-3
-1.498, 3.942e-3
-1.497, 3.898e-3
-1.496, 3.835e-3
-1.495, 3.784e-3
-1.494, 3.716e-3
-1.493, 3.672e-3
-1.492, 3.629e-3
-1.491, 3.566e-3
-1.490, 3.514e-3
-1.489, 3.464e-3
-1.488, 3.414e-3
-1.487, 3.357e-3
-1.486, 3.284e-3
-1.485, 3.238e-3
-1.484, 3.177e-3
-1.483, 3.124e-3
-1.482, 3.079e-3
-1.481, 3.039e-3
-1.480, 2.978e-3
-1.479, 2.955e-3
-1.478, 2.898e-3
-1.477, 2.836e-3
-1.476, 2.788e-3
-1.475, 2.738e-3
-1.474, 2.686e-3
-1.473, 2.638e-3
-1.472, 2.596e-3
-1.471, 2.557e-3
-1.470, 2.509e-3
-1.469, 2.471e-3
-1.468, 2.429e-3
-1.467, 2.383e-3
-1.466, 2.345e-3
-1.465, 2.305e-3
-1.464, 2.264e-3
-1.463, 2.230e-3
-1.462, 2.196e-3
-1.461, 2.161e-3
-1.460, 2.123e-3
-1.459, 2.078e-3
-1.458, 2.033e-3
-1.457, 2.000e-3
-1.456, 1.965e-3
-1.455, 1.928e-3
-1.454, 1.906e-3
-1.453, 1.875e-3
-1.452, 1.831e-3
-1.451, 1.795e-3
-1.450, 1.770e-3
-1.449, 1.739e-3
-1.448, 1.708e-3
-1.447, 1.670e-3
-1.446, 1.637e-3
-1.445, 1.603e-3
-1.444, 1.567e-3
-1.443, 1.539e-3
-1.442, 1.514e-3
-1.441, 1.479e-3
-1.440, 1.446e-3
-1.439, 1.422e-3
-1.438, 1.391e-3
-1.437, 1.359e-3
-1.436, 1.332e-3
-1.435, 1.299e-3
-1.434, 1.264e-3
-1.433, 1.238e-3
-1.432, 1.212e-3
-1.431, 1.192e-3
-1.430, 1.167e-3
-1.429, 1.132e-3
-1.428, 1.108e-3
-1.427, 1.090e-3
-1.426, 1.063e-3
-1.425, 1.036e-3
-1.424, 1.017e-3
-1.423, 9.915e-4
-1.422, 9.619e-4
-1.421, 9.398e-4
-1.420, 9.184e-4
-1.419, 8.957e-4
-1.418, 8.728e-4
-1.417, 8.539e-4
-1.416, 8.438e-4
-1.415, 8.256e-4
-1.414, 7.986e-4
-1.413, 7.801e-4
-1.412, 7.581e-4
-1.411, 7.407e-4
-1.410, 7.246e-4
-1.409, 7.040e-4
-1.408, 6.843e-4
-1.407, 6.693e-4
-1.406, 6.500e-4
-1.405, 6.303e-4
-1.404, 6.169e-4
-1.403, 6.024e-4
-1.402, 5.843e-4
-1.401, 5.671e-4
-1.400, 5.539e-4
-1.399, 5.373e-4
-1.398, 5.228e-4
-1.397, 5.099e-4
-1.396, 4.929e-4
-1.395, 4.777e-4
-1.394, 4.673e-4
-1.393, 4.562e-4
-1.392, 4.399e-4
-1.391, 4.262e-4
-1.390, 4.160e-4
-1.389, 4.034e-4
-1.388, 3.887e-4
-1.387, 3.789e-4
-1.386, 3.678e-4
-1.385, 3.536e-4
-1.384, 3.445e-4
-1.383, 3.356e-4
-1.382, 3.239e-4
-1.381, 3.147e-4
-1.380, 3.063e-4
-1.379, 2.950e-4
-1.378, 2.838e-4
-1.377, 2.766e-4
-1.376, 2.675e-4
-1.375, 2.552e-4
-1.374, 2.484e-4
-1.373, 2.420e-4
-1.372, 2.329e-4
-1.371, 2.242e-4
-1.370, 2.199e-4
-1.369, 2.106e-4
-1.368, 2.015e-4
-1.367, 1.972e-4
-1.366, 1.903e-4
-1.365, 1.809e-4
-1.364, 1.756e-4
-1.363, 1.716e-4
-1.362, 1.624e-4
-1.361, 1.557e-4
-1.360, 1.530e-4
-1.359, 1.453e-4
-1.358, 1.372e-4
-1.357, 1.342e-4
-1.356, 1.290e-4
-1.355, 1.215e-4
-1.354, 1.180e-4
-1.353, 1.144e-4
-1.352, 1.075e-4
-1.351, 1.023e-4
-1.350, 1.012e-4
-1.349, 9.635e-5
-1.348, 8.885e-5
-1.347, 8.733e-5
-1.346, 8.394e-5
-1.345, 7.664e-5
-1.344, 7.434e-5
-1.343, 7.214e-5
-1.342, 6.609e-5
-1.341, 6.219e-5
-1.340, 6.152e-5
-1.339, 5.662e-5
-1.338, 5.153e-5
-1.337, 5.056e-5
-1.336, 4.855e-5
-1.335, 4.285e-5
-1.334, 4.101e-5
-1.333, 4.010e-5
-1.332, 3.423e-5
-1.331, 3.130e-5
-1.330, 3.161e-5
-1.329, 2.704e-5
-1.328, 2.266e-5
-1.327, 2.297e-5
-1.326, 2.081e-5
-1.325, 1.577e-5
-1.324, 1.504e-5
-1.323, 1.427e-5
-1.322, 9.923e-6
-1.321, 7.289e-6
-1.320, 8.621e-6
-1.319, 5.237e-6
-1.318, 1.527e-6
-1.317, 2.504e-6
-1.316, 5.998e-7
-1.315, -3.712e-6
-1.314, -3.929e-6
-1.313, -4.077e-6
-1.312, -7.924e-6
-1.311, -9.740e-6
-1.310, -8.645e-6
-1.309, -1.120e-5
-1.308, -1.471e-5
-1.307, -1.341e-5
-1.306, -1.431e-5
-1.305, -1.867e-5
-1.304, -1.818e-5
-1.303, -1.775e-5
-1.302, -2.131e-5
-1.301, -2.278e-5
-1.300, -2.109e-5
-1.299, -2.404e-5
-1.298, -2.656e-5
-1.297, -2.499e-5
-1.296, -2.565e-5
-1.295, -2.914e-5
-1.294, -2.869e-5
-1.293, -2.787e-5
-1.292, -3.146e-5
-1.291, -3.241e-5
-1.290, -3.038e-5
-1.289, -3.317e-5
-1.288, -3.526e-5
-1.287, -3.372e-5
-1.286, -3.440e-5
-1.285, -3.768e-5
-1.284, -3.670e-5
-1.283, -3.609e-5
-1.282, -3.912e-5
-1.281, -4.010e-5
-1.280, -3.794e-5
-1.279, -4.004e-5
-1.278, -4.246e-5
-1.277, -4.005e-5
-1.276, -4.105e-5
-1.275, -4.405e-5
-1.274, -4.278e-5
-1.273, -4.206e-5
-1.272, -4.492e-5
-1.271, -4.558e-5
-1.270, -4.325e-5
-1.269, -4.501e-5
-1.268, -4.765e-5
-1.267, -4.529e-5
-1.266, -4.550e-5
-1.265, -4.878e-5
-1.264, -4.723e-5
-1.263, -4.644e-5
-1.262, -4.932e-5
-1.261, -4.934e-5
-1.260, -4.750e-5
-1.259, -4.923e-5
-1.258, -5.101e-5
-1.257, -4.911e-5
-1.256, -4.948e-5
-1.255, -5.210e-5
-1.254, -5.135e-5
-1.253, -4.990e-5
-1.252, -5.277e-5
-1.251, -5.305e-5
-1.250, -5.066e-5
-1.249, -5.271e-5
-1.248, -5.429e-5
-1.247, -5.191e-5
-1.246, -5.230e-5
-1.245, -5.476e-5
-1.244, -5.300e-5
-1.243, -5.186e-5
-1.242, -5.458e-5
-1.241, -5.492e-5
-1.240, -5.208e-5
-1.239, -5.420e-5
-1.238, -5.585e-5
-1.237, -5.341e-5
-1.236, -5.398e-5
-1.235, -5.660e-5
-1.234, -5.512e-5
-1.233, -5.413e-5
-1.232, -5.671e-5
-1.231, -5.694e-5
-1.230, -5.451e-5
-1.229, -5.699e-5
-1.228, -5.808e-5
-1.227, -5.572e-5
-1.226, -5.627e-5
-1.225, -5.890e-5
-1.224, -5.747e-5
-1.223, -5.631e-5
-1.222, -5.913e-5
-1.221, -5.850e-5
-1.220, -5.650e-5
-1.219, -5.858e-5
-1.218, -5.964e-5
-1.217, -5.783e-5
-1.216, -5.769e-5
-1.215, -6.014e-5
-1.214, -5.887e-5
-1.213, -5.768e-5
-1.212, -6.007e-5
-1.211, -6.019e-5
-1.210, -5.782e-5
-1.209, -5.986e-5
-1.208, -6.132e-5
-1.207, -5.888e-5
-1.206, -5.973e-5
-1.205, -6.165e-5
-1.204, -6.030e-5
-1.203, -5.940e-5
-1.202, -6.187e-5
-1.201, -6.233e-5
-1.200, -5.955e-5
-1.199, -6.172e-5
-1.198, -6.310e-5
-1.197, -6.092e-5
-1.196, -6.095e-5
-1.195, -6.349e-5
-1.194, -6.208e-5
-1.193, -6.118e-5
-1.192, -6.351e-5
-1.191, -6.368e-5
-1.190, -6.177e-5
-1.189, -6.350e-5
-1.188, -6.500e-5
-1.187, -6.272e-5
-1.186, -6.330e-5
-1.185, -6.588e-5
-1.184, -6.416e-5
-1.183, -6.337e-5
-1.182, -6.598e-5
-1.181, -6.568e-5
-1.180, -6.389e-5
-1.179, -6.568e-5
-1.178, -6.751e-5
-1.177, -6.534e-5
-1.176, -6.534e-5
-1.175, -6.798e-5
-1.174, -6.685e-5
-1.173, -6.601e-5
-1.172, -6.836e-5
-1.171, -6.911e-5
-1.170, -6.640e-5
-1.169, -6.870e-5
-1.168, -6.970e-5
-1.167, -6.777e-5
-1.166, -6.847e-5
-1.165, -7.060e-5
-1.164, -6.949e-5
-1.163, -6.876e-5
-1.162, -7.137e-5
-1.161, -7.174e-5
-1.160, -6.935e-5
-1.159, -7.184e-5
-1.158, -7.339e-5
-1.157, -7.101e-5
-1.156, -7.199e-5
-1.155, -7.473e-5
-1.154, -7.329e-5
-1.153, -7.315e-5
-1.152, -7.527e-5
-1.151, -7.570e-5
-1.150, -7.358e-5
-1.149, -7.555e-5
-1.148, -7.726e-5
-1.147, -7.525e-5
-1.146, -7.608e-5
-1.145, -7.891e-5
-1.144, -7.795e-5
-1.143, -7.724e-5
-1.142, -7.989e-5
-1.141, -7.996e-5
-1.140, -7.830e-5
-1.139, -8.072e-5
-1.138, -8.230e-5
-1.137, -8.056e-5
-1.136, -8.103e-5
-1.135, -8.397e-5
-1.134, -8.271e-5
-1.133, -8.206e-5
-1.132, -8.546e-5
-1.131, -8.582e-5
-1.130, -8.342e-5
-1.129, -8.616e-5
-1.128, -8.817e-5
-1.127, -8.609e-5
-1.126, -8.752e-5
-1.125, -9.051e-5
-1.124, -8.957e-5
-1.123, -8.888e-5
-1.122, -9.198e-5
-1.121, -9.249e-5
-1.120, -9.050e-5
-1.119, -9.338e-5
-1.118, -9.563e-5
-1.117, -9.330e-5
-1.116, -9.447e-5
-1.115, -9.794e-5
-1.114, -9.694e-5
-1.113, -9.650e-5
-1.112, -9.963e-5
-1.111, -1.005e-4
-1.110, -9.904e-5
-1.109, -1.013e-4
-1.108, -1.038e-4
-1.107, -1.019e-4
-1.106, -1.029e-4
-1.105, -1.068e-4
-1.104, -1.055e-4
-1.103, -1.055e-4
-1.102, -1.091e-4
-1.101, -1.098e-4
-1.100, -1.082e-4
-1.099, -1.116e-4
-1.098, -1.140e-4
-1.097, -1.125e-4
-1.096, -1.134e-4
-1.095, -1.174e-4
-1.094, -1.167e-4
-1.093, -1.164e-4
-1.092, -1.205e-4
-1.091, -1.215e-4
-1.090, -1.198e-4
-1.089, -1.234e-4
-1.088, -1.260e-4
-1.087, -1.246e-4
-1.086, -1.258e-4
-1.085, -1.296e-4
-1.084, -1.296e-4
-1.083, -1.295e-4
-1.082, -1.332e-4
-1.081, -1.350e-4
-1.080, -1.330e-4
-1.079, -1.365e-4
-1.078, -1.399e-4
-1.077, -1.379e-4
-1.076, -1.400e-4
-1.075, -1.447e-4
-1.074, -1.441e-4
-1.073, -1.441e-4
-1.072, -1.484e-4
-1.071, -1.501e-4
-1.070, -1.486e-4
-1.069, -1.522e-4
-1.068, -1.557e-4
-1.067, -1.545e-4
-1.066, -1.560e-4
-1.065, -1.609e-4
-1.064, -1.610e-4
-1.063, -1.613e-4
-1.062, -1.659e-4
-1.061, -1.675e-4
-1.060, -1.665e-4
-1.059, -1.702e-4
-1.058, -1.737e-4
-1.057, -1.728e-4
-1.056, -1.746e-4
-1.055, -1.795e-4
-1.054, -1.798e-4
-1.053, -1.796e-4
-1.052, -1.846e-4
-1.051, -1.882e-4
-1.050, -1.884e-4
-1.049, -1.922e-4
-1.048, -1.954e-4
-1.047, -1.945e-4
-1.046, -1.968e-4
-1.045, -2.016e-4
-1.044, -2.021e-4
-1.043, -2.024e-4
-1.042, -2.070e-4
-1.041, -2.098e-4
-1.040, -2.075e-4
-1.039, -2.121e-4
-1.038, -2.162e-4
-1.037, -2.158e-4
-1.036, -2.183e-4
-1.035, -2.240e-4
-1.034, -2.240e-4
-1.033, -2.249e-4
-1.032, -2.300e-4
-1.031, -2.331e-4
-1.030, -2.324e-4
-1.029, -2.362e-4
-1.028, -2.399e-4
-1.027, -2.402e-4
-1.026, -2.429e-4
-1.025, -2.502e-4
-1.024, -2.508e-4
-1.023, -2.517e-4
-1.022, -2.577e-4
-1.021, -2.609e-4
-1.020, -2.607e-4
-1.019, -2.653e-4
-1.018, -2.704e-4
-1.017, -2.712e-4
-1.016, -2.734e-4
-1.015, -2.801e-4
-1.014, -2.818e-4
-1.013, -3.097e-4
-1.012, -3.052e-4
-1.011, -3.028e-4
-1.010, -2.990e-4
-1.009, -3.036e-4
-1.008, -3.081e-4
-1.007, -3.084e-4
-1.006, -3.117e-4
-1.005, -3.185e-4
-1.004, -3.207e-4
-1.003, -3.222e-4
-1.002, -3.289e-4
-1.001, -3.338e-4
