Potential V vs RHE, Current mA cm-2
0.05339999999999995,-0.03848014735632899
0.05239999999999995,-0.03978168175220483
0.051399999999999946,-0.040418301837144094
0.050399999999999945,-0.04087100945310092
0.049399999999999944,-0.04129542284306042
0.04839999999999994,-0.04170568912002128
0.04739999999999994,-0.04214424962297945
0.04639999999999994,-0.042582810125937606
0.04539999999999994,-0.04297892928989981
0.04439999999999994,-0.043389195566860675
0.04339999999999994,-0.043771167617824236
0.04239999999999994,-0.0442097281207824
0.04139999999999994,-0.04463414151074191
0.040399999999999936,-0.04505855490070142
0.039399999999999935,-0.04544052695166498
0.038399999999999934,-0.04583664611562719
0.03739999999999993,-0.0462610595055867
0.03639999999999993,-0.046699620008544857
0.03539999999999993,-0.04709573917250707
0.03439999999999993,-0.04749185833646928
0.03339999999999993,-0.04788797750043149
0.03239999999999993,-0.0483406851163883
0.03139999999999993,-0.04877924561934646
0.030399999999999927,-0.049189511896307325
0.029399999999999926,-0.049571483947270886
0.028399999999999925,-0.04996760311123309
0.027399999999999924,-0.05040616361419126
0.026399999999999924,-0.05087301834314672
0.025399999999999923,-0.05126913750710893
0.024399999999999922,-0.051665256671071136
0.02339999999999992,-0.05208967006103065
0.02239999999999992,-0.05254237767698746
0.02139999999999992,-0.05300923240594292
0.020399999999999918,-0.053433645795902436
0.019399999999999917,-0.05382976495986465
0.018399999999999916,-0.054254178349824156
0.017399999999999916,-0.05470688596578097
0.016399999999999915,-0.05515959358173778
0.015399999999999914,-0.05558400697169729
0.014399999999999913,-0.05598012613565951
0.013399999999999912,-0.05641868663861766
0.012399999999999911,-0.056871394254574464
0.01139999999999991,-0.057324101870531295
0.01039999999999991,-0.05776266237348945
0.009399999999999908,-0.05818707576344896
0.008399999999999908,-0.058597342040409825
0.007399999999999907,-0.05906419676936528
0.006399999999999906,-0.05951690438532209
0.005399999999999905,-0.059927170662282946
0.004399999999999904,-0.06035158405224247
0.003399999999999903,-0.060775997442201975
0.002399999999999902,-0.06122870505815879
0.0013999999999999013,-0.0617097069001129
0.00039999999999990044,-0.062134120290072405
-0.0006000000000001005,-0.06257268079303058
-0.0016000000000001013,-0.06302538840898737
-0.0026000000000001022,-0.06349224313794286
-0.003600000000000103,-0.06400153920589426
-0.004600000000000104,-0.06444009970885242
-0.005600000000000105,-0.06486451309881193
-0.006600000000000106,-0.06528892648877145
-0.007600000000000107,-0.06576992833072555
-0.008600000000000108,-0.06625093017267966
-0.009600000000000108,-0.06670363778863649
-0.01060000000000011,-0.06714219829159464
-0.01160000000000011,-0.06756661168155415
-0.012600000000000111,-0.06806176063650692
-0.013600000000000112,-0.06854276247846103
-0.014600000000000113,-0.06896717586842054
-0.015600000000000114,-0.06936329503238275
-0.016600000000000115,-0.06981600264833956
-0.017600000000000116,-0.07029700449029368
-0.018600000000000116,-0.07077800633224779
-0.019600000000000117,-0.0712307139482046
-0.020600000000000118,-0.0716551273381641
-0.02160000000000012,-0.07209368784112226
-0.02260000000000012,-0.07254639545707908
-0.02360000000000012,-0.07301325018603454
-0.024600000000000122,-0.07346595780199136
-0.025600000000000123,-0.07390451830494953
-0.026600000000000124,-0.07431478458191038
-0.027600000000000124,-0.07476749219786719
-0.028600000000000125,-0.07524849403982131
-0.029600000000000126,-0.07568705454277945
-0.030600000000000127,-0.07608317370674167
-0.03160000000000013,-0.07649343998370253
-0.03260000000000013,-0.07694614759965934
-0.03360000000000013,-0.07741300232861481
-0.03460000000000002,-0.07785156283157296
-0.03560000000000002,-0.07826182910853383
-0.03660000000000002,-0.07864380115949739
-0.03760000000000002,-0.07911065588845285
-0.03860000000000002,-0.07960580484340561
-0.039600000000000024,-0.07997362978137053
-0.040600000000000025,-0.08036974894533275
-0.041600000000000026,-0.08075172099629631
-0.04260000000000003,-0.08119028149925445
-0.04360000000000003,-0.08167128334120857
-0.04460000000000003,-0.08206740250517078
-0.04560000000000003,-0.0824352274431357
-0.04660000000000003,-0.08281719949409926
-0.04760000000000003,-0.08321331865806145
-0.04860000000000003,-0.08360943782202368
-0.04960000000000003,-0.08397726275998857
-0.050600000000000034,-0.08433094058495484
-0.051600000000000035,-0.08472705974891705
-0.052600000000000036,-0.08510903179988061
-0.053600000000000037,-0.08551929807684147
-0.05460000000000004,-0.08587297590180773
-0.05560000000000004,-0.08621250661377533
-0.05660000000000004,-0.08658033155174025
-0.05760000000000004,-0.08694815648970515
-0.05860000000000004,-0.08733012854066871
-0.05960000000000004,-0.08765551213963767
-0.06060000000000004,-0.08793845439961068
-0.061600000000000044,-0.08826383799857963
-0.06260000000000004,-0.08860336871054725
-0.06360000000000005,-0.08898534076151081
-0.06460000000000005,-0.08933901858647707
-0.06560000000000005,-0.08962196084645008
-0.06660000000000005,-0.08991905021942173
-0.06760000000000005,-0.09025858093138935
-0.06860000000000005,-0.0905839645303583
-0.06960000000000005,-0.09088105390332996
-0.07060000000000005,-0.09116399616330297
-0.07160000000000005,-0.09143279131027732
-0.07260000000000005,-0.09174402779624763
-0.07360000000000005,-0.09204111716921928
-0.07460000000000006,-0.09233820654219095
-0.07560000000000006,-0.09256456035016934
-0.07660000000000006,-0.09284750261014235
-0.07760000000000006,-0.09310215064411806
-0.07860000000000006,-0.09339924001708971
-0.07960000000000006,-0.09362559382506812
-0.08060000000000006,-0.09386609474604518
-0.08160000000000006,-0.09409244855402359
-0.08260000000000006,-0.09433294947500065
-0.08360000000000006,-0.09461589173497365
-0.08460000000000006,-0.09481395131695476
-0.08560000000000006,-0.09501201089893586
-0.08660000000000007,-0.09521007048091697
-0.08760000000000007,-0.09540813006289808
-0.08860000000000007,-0.09564863098387513
-0.08960000000000007,-0.0958608376788549
-0.09060000000000007,-0.09601645592184005
-0.09160000000000007,-0.09618622127782384
-0.09260000000000007,-0.09635598663380765
-0.09360000000000007,-0.09656819332878741
-0.09460000000000007,-0.09672381157177255
-0.09560000000000007,-0.09687942981475771
-0.09660000000000007,-0.09700675383174556
-0.09760000000000008,-0.09716237207473072
-0.09860000000000008,-0.09733213743071452
-0.09960000000000008,-0.09745946144770237
-0.10060000000000008,-0.09754434412569428
-0.10160000000000008,-0.09768581525568078
-0.10260000000000008,-0.09779899215966999
-0.10360000000000008,-0.09794046328965648
-0.10460000000000008,-0.0980536401936457
-0.10560000000000008,-0.09811022864564029
-0.10660000000000008,-0.09820925843663084
-0.10760000000000008,-0.0983365824536187
-0.10860000000000009,-0.09846390647060656
-0.10960000000000009,-0.0985346420355998
-0.11060000000000009,-0.09857708337459577
-0.11160000000000009,-0.09861952471359171
-0.11260000000000009,-0.09871855450458226
-0.11360000000000009,-0.09880343718257417
-0.11460000000000009,-0.09886002563456876
-0.11560000000000009,-0.09888831986056607
-0.11660000000000009,-0.09888831986056607
-0.1176000000000001,-0.09895905542555931
-0.1186000000000001,-0.09901564387755392
-0.1196000000000001,-0.09902979099055256
-0.1206000000000001,-0.09902979099055256
-0.1216000000000001,-0.09904393810355122
-0.1226000000000001,-0.09908637944254717
-0.1236000000000001,-0.09912882078154311
-0.1246000000000001,-0.09911467366854448
-0.1256000000000001,-0.09910052655554581
-0.1266000000000001,-0.09910052655554581
-0.1276000000000001,-0.09911467366854448
-0.1286000000000001,-0.09912882078154311
-0.1296000000000001,-0.09910052655554581
-0.1306000000000001,-0.09907223232954852
-0.1316000000000001,-0.09904393810355122
-0.1326000000000001,-0.09900149676455527
-0.1336000000000001,-0.09901564387755392
-0.1346000000000001,-0.09898734965155662
-0.1356000000000001,-0.09890246697356471
-0.1366000000000001,-0.09887417274756742
-0.1376000000000001,-0.09883173140857146
-0.1386000000000001,-0.0988175842955728
-0.1396000000000001,-0.09877514295657686
-0.1406000000000001,-0.09869026027858496
-0.14160000000000011,-0.09863367182659036
-0.14260000000000012,-0.09857708337459577
-0.14360000000000012,-0.09854878914859845
-0.14460000000000012,-0.09849220069660385
-0.14560000000000012,-0.098364876679616
-0.14660000000000012,-0.09829414111462276
-0.14760000000000012,-0.09823755266262815
-0.14860000000000012,-0.09818096421063353
-0.14960000000000012,-0.09812437575863896
-0.15060000000000012,-0.09801119885464975
-0.15160000000000012,-0.09792631617665784
-0.15260000000000012,-0.09784143349866595
-0.15360000000000013,-0.09779899215966999
-0.15460000000000013,-0.09771410948167808
-0.15560000000000013,-0.09760093257768888
-0.15660000000000013,-0.09748775567369967
-0.15760000000000013,-0.09738872588270912
-0.15860000000000013,-0.09736043165671183
-0.15960000000000002,-0.09726140186572127
-0.16060000000000002,-0.09713407784873342
-0.16160000000000002,-0.09700675383174556
-0.16260000000000002,-0.096907724040755
-0.16360000000000002,-0.09687942981475771
-0.16460000000000002,-0.09675210579776986
-0.16560000000000002,-0.0966530760067793
-0.16660000000000003,-0.09658234044178605
-0.16760000000000003,-0.09644086931179956
-0.16860000000000003,-0.09637013374680631
-0.16960000000000003,-0.0962569568428171
-0.17060000000000003,-0.09610133859983194
-0.17160000000000003,-0.09597401458284409
-0.17260000000000003,-0.09587498479185352
-0.17360000000000003,-0.09579010211386164
-0.17460000000000003,-0.09566277809687378
-0.17560000000000003,-0.09550715985388863
-0.17660000000000003,-0.09539398294989941
-0.17760000000000004,-0.09529495315890889
-0.17860000000000004,-0.09522421759391562
-0.17960000000000004,-0.0951110406899264
-0.18060000000000004,-0.09494127533394262
-0.18160000000000004,-0.0948280984299534
-0.18260000000000004,-0.09470077441296555
-0.18360000000000004,-0.0946300388479723
-0.18460000000000004,-0.09451686194398311
-0.18560000000000004,-0.09436124370099794
-0.18660000000000004,-0.09423391968401008
-0.18760000000000004,-0.09412074278002087
-0.18860000000000005,-0.094035860102029
-0.18960000000000005,-0.0939226831980398
-0.19060000000000005,-0.09375291784205599
-0.19160000000000005,-0.09365388805106543
-0.19260000000000005,-0.09352656403407757
-0.19360000000000005,-0.09344168135608567
-0.19460000000000005,-0.09331435733909782
-0.19560000000000005,-0.09317288620911131
-0.19660000000000005,-0.09303141507912481
-0.19760000000000005,-0.0929465324011329
-0.19860000000000005,-0.09286164972314101
-0.19960000000000006,-0.09273432570615316
-0.20060000000000006,-0.09259285457616664
-0.20160000000000006,-0.09245138344618015
-0.20260000000000006,-0.09233820654219095
-0.20360000000000006,-0.09225332386419903
-0.20460000000000006,-0.09214014696020983
-0.20560000000000006,-0.09202697005622064
-0.20660000000000006,-0.09188549892623413
-0.20760000000000006,-0.09177232202224493
-0.20860000000000006,-0.09170158645725168
-0.20960000000000006,-0.09158840955326249
-0.21060000000000006,-0.09144693842327598
-0.21160000000000007,-0.09133376151928675
-0.21260000000000007,-0.09123473172829621
-0.21360000000000007,-0.09116399616330297
-0.21460000000000007,-0.09105081925931376
-0.21560000000000007,-0.09088105390332996
-0.21660000000000007,-0.09079617122533806
-0.21760000000000007,-0.09071128854734616
-0.21860000000000007,-0.09061225875635559
-0.21960000000000007,-0.09051322896536505
-0.22060000000000007,-0.09037175783537854
-0.22160000000000007,-0.09025858093138935
-0.22260000000000008,-0.09015955114039878
-0.22360000000000008,-0.09010296268840419
-0.22460000000000008,-0.09000393289741364
-0.22560000000000008,-0.08986246176742714
-0.22660000000000008,-0.08973513775043927
-0.22760000000000008,-0.08965025507244738
-0.22860000000000008,-0.08959366662045277
-0.22960000000000008,-0.08948048971646357
-0.23060000000000008,-0.08936731281247437
-0.23160000000000008,-0.08922584168248787
-0.23260000000000008,-0.08915510611749461
-0.23360000000000009,-0.08908437055250136
-0.2346000000000001,-0.08897119364851215
-0.2356000000000001,-0.08888631097052026
-0.2366000000000001,-0.08877313406653106
-0.2376000000000001,-0.0886741042755405
-0.2386000000000001,-0.08860336871054725
-0.2396000000000001,-0.0885043389195567
-0.2406000000000001,-0.08840530912856613
-0.2416000000000001,-0.08829213222457694
-0.2426000000000001,-0.08822139665958369
-0.2436000000000001,-0.08817895532058774
-0.2446000000000001,-0.08807992552959719
-0.2456000000000001,-0.08796674862560798
-0.2466000000000001,-0.08788186594761609
-0.2476000000000001,-0.08781113038262284
-0.2486000000000001,-0.08776868904362688
-0.2496000000000001,-0.08766965925263633
-0.2506000000000001,-0.08758477657464442
-0.2516000000000001,-0.08748574678365387
-0.2526000000000001,-0.0874150112186606
-0.2536000000000001,-0.08735842276666603
-0.2546000000000001,-0.08728768720167276
-0.2556000000000001,-0.08720280452368086
-0.2566000000000001,-0.08708962761969166
-0.2576000000000001,-0.08703303916769706
-0.2586000000000001,-0.08697645071570247
-0.2596000000000001,-0.0869057151507092
-0.2606000000000001,-0.08679253824672
-0.2616000000000001,-0.0867076555687281
-0.2626000000000001,-0.08666521422973215
-0.2636000000000001,-0.08660862577773754
-0.2646000000000001,-0.08653789021274429
-0.2656000000000001,-0.08643886042175375
-0.2666000000000001,-0.08633983063076318
-0.2676000000000001,-0.0862832421787686
-0.2686000000000001,-0.08625494795277128
-0.2696000000000001,-0.08618421238777803
-0.2706000000000001,-0.08608518259678749
-0.2716000000000001,-0.08600029991879557
-0.2726000000000001,-0.08594371146680099
-0.2736000000000001,-0.08590127012780503
-0.2746000000000001,-0.08584468167581043
-0.2756000000000001,-0.08574565188481988
-0.2766000000000001,-0.08566076920682797
-0.2776000000000001,-0.08557588652883606
-0.2786000000000001,-0.08557588652883606
-0.2796000000000001,-0.08551929807684147
-0.2806000000000001,-0.08544856251184822
-0.28160000000000013,-0.08536367983385632
-0.28260000000000013,-0.08530709138186171
-0.28360000000000013,-0.08529294426886307
-0.2846,-0.08522220870386982
-0.2856,-0.08513732602587791
-0.2866,-0.085052443347886
-0.2876,-0.0849958548958914
-0.2886,-0.08498170778289275
-0.2896,-0.0849109722178995
-0.2906,-0.08481194242690895
-0.2916,-0.0847412068619157
-0.2926,-0.0846846184099211
-0.2936,-0.0846846184099211
-0.29460000000000003,-0.08464217707092515
-0.29560000000000003,-0.08452900016693596
-0.29660000000000003,-0.08447241171494134
-0.29760000000000003,-0.08441582326294673
-0.29860000000000003,-0.08437338192395079
-0.29960000000000003,-0.08434508769795349
-0.30060000000000003,-0.08426020501996159
-0.30160000000000003,-0.08420361656796697
-0.30260000000000004,-0.08414702811597238
-0.30360000000000004,-0.08413288100297373
-0.30460000000000004,-0.08409043966397778
-0.30560000000000004,-0.08401970409898453
-0.30660000000000004,-0.08396311564698994
-0.30760000000000004,-0.08392067430799398
-0.30860000000000004,-0.08389238008199668
-0.30960000000000004,-0.08386408585599937
-0.31060000000000004,-0.08377920317800747
-0.31160000000000004,-0.08370846761301422
-0.31260000000000004,-0.08369432050001557
-0.31360000000000005,-0.08366602627401826
-0.31460000000000005,-0.08363773204802097
-0.31560000000000005,-0.08358114359602638
-0.31660000000000005,-0.08351040803103311
-0.31760000000000005,-0.08345381957903851
-0.31860000000000005,-0.08346796669203715
-0.31960000000000005,-0.08345381957903851
-0.32060000000000005,-0.08336893690104662
-0.32160000000000005,-0.08329820133605337
-0.32260000000000005,-0.0832840542230547
-0.32360000000000005,-0.08326990711005607
-0.32460000000000006,-0.08322746577106012
-0.32560000000000006,-0.08318502443206416
-0.32660000000000006,-0.08312843598006955
-0.32760000000000006,-0.08307184752807495
-0.32860000000000006,-0.08308599464107361
-0.32960000000000006,-0.08301525907608036
-0.33060000000000006,-0.08295867062408575
-0.33160000000000006,-0.08291622928508981
-0.33260000000000006,-0.08287378794609385
-0.33360000000000006,-0.08287378794609385
-0.33460000000000006,-0.08285964083309519
-0.33560000000000006,-0.08278890526810194
-0.33660000000000007,-0.08273231681610735
-0.33760000000000007,-0.08268987547711139
-0.33860000000000007,-0.08270402259011005
-0.33960000000000007,-0.08268987547711139
-0.34060000000000007,-0.08259084568612084
-0.34160000000000007,-0.08254840434712489
-0.34260000000000007,-0.08252011012112759
-0.34360000000000007,-0.08250596300812894
-0.3446000000000001,-0.08249181589513029
-0.3456000000000001,-0.08244937455613434
-0.3466000000000001,-0.08237863899114109
-0.34759999999999996,-0.08235034476514379
-0.3486000000000001,-0.08233619765214513
-0.34959999999999997,-0.08232205053914649
-0.3506000000000001,-0.08225131497415322
-0.35159999999999997,-0.08220887363515728
-0.3526000000000001,-0.08216643229616134
-0.35359999999999997,-0.08218057940915997
-0.3546000000000001,-0.08215228518316267
-0.35559999999999997,-0.08209569673116808
-0.3566000000000001,-0.08205325539217213
-0.3576,-0.08202496116617483
-0.3586000000000001,-0.08203910827917348
-0.3596,-0.08198251982717887
-0.3606000000000001,-0.08196837271418023
-0.3616,-0.08191178426218561
-0.3626000000000001,-0.08186934292318966
-0.3636,-0.08186934292318966
-0.3646000000000001,-0.08186934292318966
-0.3656,-0.08182690158419371
-0.3666000000000001,-0.08179860735819641
-0.3676,-0.08175616601920047
-0.3686000000000001,-0.08175616601920047
-0.3696,-0.08171372468020452
-0.3706000000000001,-0.08168543045420722
-0.3716,-0.08164298911521127
-0.3726000000000001,-0.08160054777621531
-0.3736,-0.08164298911521127
-0.3746000000000001,-0.08160054777621531
-0.3756,-0.08155810643721936
-0.3766000000000001,-0.08151566509822342
-0.3776,-0.08150151798522477
-0.3786000000000001,-0.08150151798522477
-0.3796,-0.08152981221122206
-0.3806000000000001,-0.08144492953323015
-0.3816,-0.0813741939682369
-0.3826000000000001,-0.08136004685523826
-0.3836,-0.08140248819423422
-0.3846000000000001,-0.0813741939682369
-0.3856,-0.0813458997422396
-0.3866000000000001,-0.08130345840324366
-0.3876,-0.08126101706424771
-0.3886000000000001,-0.08126101706424771
-0.3896,-0.08128931129024501
-0.3906000000000001,-0.08127516417724635
-0.3916,-0.08117613438625582
-0.3926000000000001,-0.0811478401602585
-0.3936,-0.08116198727325716
-0.3946000000000001,-0.0811478401602585
-0.3956,-0.0811195459342612
-0.3966000000000001,-0.08109125170826391
-0.3976,-0.08106295748226659
-0.3986000000000001,-0.08107710459526525
-0.3996,-0.08107710459526525
-0.4006000000000001,-0.0810346632562693
-0.4016,-0.0809780748042747
-0.4026000000000001,-0.08096392769127606
-0.4036,-0.0809780748042747
-0.4046000000000001,-0.0809780748042747
-0.4056,-0.0809214863522801
-0.40660000000000013,-0.08090733923928145
-0.4076,-0.0808931921262828
-0.40860000000000013,-0.0808931921262828
-0.4096,-0.0808931921262828
-0.41060000000000013,-0.0808648979002855
-0.4116,-0.08083660367428819
-0.41260000000000013,-0.08080830944829089
-0.4136,-0.08082245656128956
-0.41460000000000014,-0.08083660367428819
-0.4156,-0.08080830944829089
-0.41660000000000014,-0.08076586810929494
-0.4176,-0.08075172099629631
-0.41860000000000014,-0.08075172099629631
-0.41960000000000003,-0.08076586810929494
-0.42060000000000014,-0.08072342677029899
-0.42160000000000003,-0.08073757388329764
-0.42260000000000014,-0.08073757388329764
-0.42360000000000003,-0.08073757388329764
-0.42460000000000014,-0.08076586810929494
-0.42560000000000003,-0.08068098543130305
-0.42660000000000015,-0.08063854409230709
-0.42760000000000004,-0.08063854409230709
-0.42860000000000015,-0.08068098543130305
-0.42960000000000004,-0.08068098543130305
-0.43060000000000015,-0.08063854409230709
-0.43160000000000004,-0.08059610275331114
-0.43260000000000015,-0.08056780852731382
-0.43360000000000004,-0.0806102498663098
-0.43460000000000015,-0.08062439697930844
-0.43560000000000004,-0.08059610275331114
-0.43660000000000015,-0.08055366141431519
