Potential V vs RHE, Current mA cm-2
0.05339999999999995,-0.05203308160903605
0.05239999999999995,-0.05411270721983765
0.051399999999999946,-0.05532935893772159
0.050399999999999945,-0.056178185717640605
0.049399999999999944,-0.056899688480571774
0.04839999999999994,-0.057564602791508344
0.04739999999999994,-0.05820122287644761
0.04639999999999994,-0.058767107396393625
0.04539999999999994,-0.05931884480334099
0.04439999999999994,-0.0599130235492843
0.04339999999999994,-0.060408172504237065
0.04239999999999994,-0.060959909911184426
0.04139999999999994,-0.061511647318131794
0.040399999999999936,-0.06204923761208051
0.039399999999999935,-0.06258682790602922
0.038399999999999934,-0.06315271242597524
0.03739999999999993,-0.06366200849392664
0.03639999999999993,-0.06419959878787536
0.03539999999999993,-0.06472304196882543
0.03439999999999993,-0.0652181909237782
0.03339999999999993,-0.0657557812177269
0.03239999999999993,-0.06627922439867698
0.03139999999999993,-0.0668168146926257
0.030399999999999927,-0.0672978165345798
0.029399999999999926,-0.06782125971552985
0.028399999999999925,-0.06834470289647993
0.027399999999999924,-0.06888229319042864
0.026399999999999924,-0.0694057363713787
0.025399999999999923,-0.06990088532633146
0.024399999999999922,-0.07042432850728152
0.02339999999999992,-0.0709760659142289
0.02239999999999992,-0.07148536198218029
0.02139999999999992,-0.07206539361512497
0.020399999999999918,-0.07258883679607502
0.019399999999999917,-0.0731122799770251
0.018399999999999916,-0.0736215760449765
0.017399999999999916,-0.07414501922592658
0.016399999999999915,-0.07468260951987529
0.015399999999999914,-0.07520605270082535
0.014399999999999913,-0.07571534876877677
0.013399999999999912,-0.07626708617572413
0.012399999999999911,-0.07681882358267149
0.01139999999999991,-0.07737056098961885
0.01039999999999991,-0.07792229839656621
0.009399999999999908,-0.07850233002951089
0.008399999999999908,-0.078983331871465
0.007399999999999907,-0.07950677505241506
0.006399999999999906,-0.08004436534636378
0.005399999999999905,-0.08053951430131655
0.004399999999999904,-0.08106295748226659
0.003399999999999903,-0.08161469488921397
0.002399999999999902,-0.08215228518316267
0.0013999999999999013,-0.08270402259011005
0.00039999999999990044,-0.08318502443206416
-0.0006000000000001005,-0.08373676183901152
-0.0016000000000001013,-0.08426020501996159
-0.0026000000000001022,-0.08478364820091165
-0.003600000000000103,-0.08540612117285226
-0.004600000000000104,-0.08587297590180773
-0.005600000000000105,-0.08645300753475238
-0.006600000000000106,-0.08700474494169977
-0.007600000000000107,-0.08749989389665253
-0.008600000000000108,-0.08802333707760258
-0.009600000000000108,-0.088532633145554
-0.01060000000000011,-0.08907022343950272
-0.01160000000000011,-0.08962196084645008
-0.012600000000000111,-0.09018784536639608
-0.013600000000000112,-0.09071128854734616
-0.014600000000000113,-0.09120643750229893
-0.015600000000000114,-0.09172988068324898
-0.016600000000000115,-0.09225332386419903
-0.017600000000000116,-0.09269188436715721
-0.018600000000000116,-0.09334265156509512
-0.019600000000000117,-0.09388024185904384
-0.020600000000000118,-0.09433294947500065
-0.02160000000000012,-0.09484224554295206
-0.02260000000000012,-0.09536568872390214
-0.02360000000000012,-0.09590327901785084
-0.024600000000000122,-0.09641257508580224
-0.025600000000000123,-0.09695016537975096
-0.026600000000000124,-0.09744531433470371
-0.027600000000000124,-0.09798290462865245
-0.028600000000000125,-0.09856293626159711
-0.029600000000000126,-0.09900149676455527
-0.030600000000000127,-0.09945420438051207
-0.03160000000000013,-0.09993520622246618
-0.03260000000000013,-0.10037376672542435
-0.03360000000000013,-0.10084062145437982
-0.03460000000000002,-0.10137821174832852
-0.03560000000000002,-0.10188750781627993
-0.03660000000000002,-0.10239680388423136
-0.03760000000000002,-0.10286365861318682
-0.03860000000000002,-0.10335880756813957
-0.039600000000000024,-0.10385395652309233
-0.040600000000000025,-0.10433495836504646
-0.041600000000000026,-0.10478766598100327
-0.04260000000000003,-0.10524037359696008
-0.04360000000000003,-0.10570722832591554
-0.04460000000000003,-0.10621652439386696
-0.04560000000000003,-0.10665508489682511
-0.04660000000000003,-0.10707949828678462
-0.04760000000000003,-0.10747561745074685
-0.04860000000000003,-0.10794247217970229
-0.04960000000000003,-0.10839517979565912
-0.050600000000000034,-0.10889032875061187
-0.051600000000000035,-0.1093430363665687
-0.052600000000000036,-0.10975330264352953
-0.053600000000000037,-0.11016356892049041
-0.05460000000000004,-0.11054554097145397
-0.05560000000000004,-0.11092751302241752
-0.05660000000000004,-0.11138022063837434
-0.05760000000000004,-0.11177633980233655
-0.05860000000000004,-0.11218660607929741
-0.05960000000000004,-0.11258272524325963
-0.06060000000000004,-0.11297884440722182
-0.061600000000000044,-0.1133325222321881
-0.06260000000000004,-0.11374278850914893
-0.06360000000000005,-0.1140964663341152
-0.06460000000000005,-0.11449258549807742
-0.06560000000000005,-0.11483211621004503
-0.06660000000000005,-0.11518579403501128
-0.06760000000000005,-0.11556776608597484
-0.06860000000000005,-0.11589314968494381
-0.06960000000000005,-0.116289268848906
-0.07060000000000005,-0.11664294667387226
-0.07160000000000005,-0.11695418315984259
-0.07260000000000005,-0.11726541964581289
-0.07360000000000005,-0.11757665613178321
-0.07460000000000006,-0.11787374550475484
-0.07560000000000006,-0.11814254065172922
-0.07660000000000006,-0.11842548291170223
-0.07760000000000006,-0.11875086651067117
-0.07860000000000006,-0.11907625010964012
-0.07960000000000006,-0.11931675103061717
-0.08060000000000006,-0.1196279875165875
-0.08160000000000006,-0.1199675182285551
-0.08260000000000006,-0.12020801914953216
-0.08360000000000006,-0.12047681429650652
-0.08460000000000006,-0.12067487387848763
-0.08560000000000006,-0.12097196325145929
-0.08660000000000007,-0.12121246417243635
-0.08760000000000007,-0.1213963766414188
-0.08860000000000007,-0.12163687756239586
-0.08960000000000007,-0.1218207900313783
-0.09060000000000007,-0.12203299672635806
-0.09160000000000007,-0.12224520342133782
-0.09260000000000007,-0.12248570434231489
-0.09360000000000007,-0.12266961681129733
-0.09460000000000007,-0.12282523505428247
-0.09560000000000007,-0.12300914752326494
-0.09660000000000007,-0.12323550133124336
-0.09760000000000008,-0.12340526668722714
-0.09860000000000008,-0.12360332626920825
-0.09960000000000008,-0.12373065028619613
-0.10060000000000008,-0.12388626852918126
-0.10160000000000008,-0.12404188677216642
-0.10260000000000008,-0.12418335790215292
-0.10360000000000008,-0.12436727037113537
-0.10460000000000008,-0.12450874150112187
-0.10560000000000008,-0.12466435974410703
-0.10660000000000008,-0.12476338953509758
-0.10760000000000008,-0.12486241932608814
-0.10860000000000009,-0.12503218468207195
-0.10960000000000009,-0.12504633179507058
-0.11060000000000009,-0.12511706736006384
-0.11160000000000009,-0.12520195003805573
-0.11260000000000009,-0.12531512694204497
-0.11360000000000009,-0.1254141567330355
-0.11460000000000009,-0.12554148075002336
-0.11560000000000009,-0.12559806920201796
-0.11660000000000009,-0.1256405105410139
-0.1176000000000001,-0.12579612878399907
-0.1186000000000001,-0.1258668643489923
-0.1196000000000001,-0.12596589413998285
-0.1206000000000001,-0.12603662970497612
-0.1216000000000001,-0.12606492393097343
-0.1226000000000001,-0.1261356594959667
-0.1236000000000001,-0.1262205421739586
-0.1246000000000001,-0.12629127773895182
-0.1256000000000001,-0.12633371907794774
-0.1266000000000001,-0.1263195719649491
-0.1276000000000001,-0.12637616041694374
-0.1286000000000001,-0.1264186017559397
-0.1296000000000001,-0.126404454642941
-0.1306000000000001,-0.12646104309493564
-0.1316000000000001,-0.12653177865992887
-0.1326000000000001,-0.1265600728859262
-0.1336000000000001,-0.1265600728859262
-0.1346000000000001,-0.12654592577292753
-0.1356000000000001,-0.12658836711192348
-0.1366000000000001,-0.12657421999892482
-0.1376000000000001,-0.1265600728859262
-0.1386000000000001,-0.1266166613379208
-0.1396000000000001,-0.12667324978991537
-0.1406000000000001,-0.12665910267691674
-0.14160000000000011,-0.12668739690291403
-0.14260000000000012,-0.1267015440159127
-0.14360000000000012,-0.12668739690291403
-0.14460000000000012,-0.12664495556391808
-0.14560000000000012,-0.12657421999892482
-0.14660000000000012,-0.1266166613379208
-0.14760000000000012,-0.12654592577292753
-0.14860000000000012,-0.12654592577292753
-0.14960000000000012,-0.12651763154693024
-0.15060000000000012,-0.12654592577292753
-0.15160000000000012,-0.12651763154693024
-0.15260000000000012,-0.12650348443393158
-0.15360000000000013,-0.12646104309493564
-0.15460000000000013,-0.12637616041694374
-0.15560000000000013,-0.12634786619094643
-0.15660000000000013,-0.12630542485195048
-0.15760000000000013,-0.12634786619094643
-0.15860000000000013,-0.12637616041694374
-0.15960000000000002,-0.12630542485195048
-0.16060000000000002,-0.1262771306259532
-0.16160000000000002,-0.1262629835129545
-0.16260000000000002,-0.1262629835129545
-0.16360000000000002,-0.12624883639995585
-0.16460000000000002,-0.1262629835129545
-0.16560000000000002,-0.1262771306259532
-0.16660000000000003,-0.1263195719649491
-0.16760000000000003,-0.12633371907794774
-0.16860000000000003,-0.12629127773895182
-0.16960000000000003,-0.12616395372196398
-0.17060000000000003,-0.12619224794796124
-0.17160000000000003,-0.126121512382968
-0.17260000000000003,-0.1260790710439721
-0.17360000000000003,-0.12605077681797475
-0.17460000000000003,-0.1259941883659802
-0.17560000000000003,-0.12605077681797475
-0.17660000000000003,-0.12603662970497612
-0.17760000000000004,-0.1259517470269842
-0.17860000000000004,-0.12590930568798825
-0.17960000000000004,-0.12588101146199096
-0.18060000000000004,-0.1258668643489923
-0.18160000000000004,-0.12585271723599367
-0.18260000000000004,-0.125838570122995
-0.18360000000000004,-0.12579612878399907
-0.18460000000000004,-0.1257253932190058
-0.18560000000000004,-0.1256688047670112
-0.18660000000000004,-0.12554148075002336
-0.18760000000000004,-0.1255839220890193
-0.18860000000000005,-0.12559806920201796
-0.18960000000000005,-0.12556977497602065
-0.19060000000000005,-0.1255273336370247
-0.19160000000000005,-0.125555627863022
-0.19260000000000005,-0.12565465765401257
-0.19360000000000005,-0.1256122163150166
-0.19460000000000005,-0.1255273336370247
-0.19560000000000005,-0.1254707451850301
-0.19660000000000005,-0.12542830384603415
-0.19760000000000005,-0.1254424509590328
-0.19860000000000005,-0.12542830384603415
-0.19960000000000006,-0.12548489229802873
-0.20060000000000006,-0.1255839220890193
-0.20160000000000006,-0.1254707451850301
-0.20260000000000006,-0.12532927405504357
-0.20360000000000006,-0.12537171539403955
-0.20460000000000006,-0.12551318652402607
-0.20560000000000006,-0.1255273336370247
-0.20660000000000006,-0.1254707451850301
-0.20760000000000006,-0.12537171539403955
-0.20860000000000006,-0.12525853849005034
-0.20960000000000006,-0.12525853849005034
-0.21060000000000006,-0.12534342116804223
-0.21160000000000007,-0.125272685603049
-0.21260000000000007,-0.12531512694204497
-0.21360000000000007,-0.12532927405504357
-0.21460000000000007,-0.12535756828104092
-0.21560000000000007,-0.12540000962003686
-0.21660000000000007,-0.12542830384603415
-0.21760000000000007,-0.1253009798290463
-0.21860000000000007,-0.12535756828104092
-0.21960000000000007,-0.12532927405504357
-0.22060000000000007,-0.12534342116804223
-0.22160000000000007,-0.1253858625070382
-0.22260000000000008,-0.1254424509590328
-0.22360000000000008,-0.1255273336370247
-0.22460000000000008,-0.12548489229802873
-0.22560000000000008,-0.12554148075002336
-0.22660000000000008,-0.1255273336370247
-0.22760000000000008,-0.1256405105410139
-0.22860000000000008,-0.12562636342801525
-0.22960000000000008,-0.1257253932190058
-0.23060000000000008,-0.1257253932190058
-0.23160000000000008,-0.12559806920201796
-0.23260000000000008,-0.12556977497602065
-0.23360000000000009,-0.1255839220890193
-0.2346000000000001,-0.1256405105410139
-0.2356000000000001,-0.1258102758969977
-0.2366000000000001,-0.12576783455800175
-0.2376000000000001,-0.1258102758969977
-0.2386000000000001,-0.1259800412529815
-0.2396000000000001,-0.12603662970497612
-0.2406000000000001,-0.126121512382968
-0.2416000000000001,-0.12614980660896533
-0.2426000000000001,-0.12623468928695725
-0.2436000000000001,-0.12619224794796124
-0.2446000000000001,-0.12616395372196398
-0.2456000000000001,-0.1262771306259532
-0.2466000000000001,-0.12629127773895182
-0.2476000000000001,-0.12653177865992887
-0.2486000000000001,-0.1266166613379208
-0.2496000000000001,-0.1263620133039451
-0.2506000000000001,-0.12644689598193698
-0.2516000000000001,-0.12658836711192348
-0.2526000000000001,-0.1267015440159127
-0.2536000000000001,-0.12680057380690324
-0.2546000000000001,-0.12697033916288702
-0.2556000000000001,-0.1270976631798749
-0.2566000000000001,-0.1272108400838641
-0.2576000000000001,-0.12728157564885736
-0.2586000000000001,-0.12738060543984792
-0.2596000000000001,-0.12746548811783978
-0.2606000000000001,-0.1274937823438371
-0.2616000000000001,-0.12747963523083847
-0.2626000000000001,-0.12757866502182902
-0.2636000000000001,-0.1277625774908115
-0.2646000000000001,-0.1278899015077993
-0.2656000000000001,-0.1278899015077993
-0.2666000000000001,-0.1280313726377858
-0.2676000000000001,-0.12810210820277906
-0.2686000000000001,-0.12839919757575072
-0.2696000000000001,-0.12849822736674127
-0.2706000000000001,-0.12851237447973993
-0.2716000000000001,-0.12865384560972642
-0.2726000000000001,-0.12900752343469268
-0.2736000000000001,-0.12919143590367516
-0.2746000000000001,-0.12954511372864141
-0.2756000000000001,-0.12979976176261712
-0.2766000000000001,-0.1297714675366198
-0.2776000000000001,-0.12996952711860094
-0.2786000000000001,-0.13002611557059554
-0.2796000000000001,-0.13015343958758338
-0.2806000000000001,-0.13025246937857393
-0.28160000000000013,-0.13019588092657933
-0.28260000000000013,-0.1303656462825631
-0.28360000000000013,-0.13049297029955098
-0.2846,-0.13059200009054156
-0.2856,-0.13084664812451724
-0.2866,-0.13108714904549432
-0.2876,-0.1311720317234862
-0.2886,-0.13134179707947
-0.2896,-0.13144082687046055
-0.2906,-0.13144082687046055
-0.2916,-0.13149741532245518
-0.2926,-0.13169547490443625
-0.2936,-0.13187938737341873
-0.29460000000000003,-0.13203500561640388
-0.29560000000000003,-0.13223306519838499
-0.29660000000000003,-0.13230380076337822
-0.29760000000000003,-0.1326291843623472
-0.29860000000000003,-0.132798949718331
-0.29960000000000003,-0.1329404208483175
-0.30060000000000003,-0.1333082457862824
-0.30160000000000003,-0.13346386402926755
-0.30260000000000004,-0.1334214226902716
-0.30360000000000004,-0.13343556980327026
-0.30460000000000004,-0.13366192361124865
-0.30560000000000004,-0.13388827741922704
-0.30660000000000004,-0.13405804277521088
-0.30760000000000004,-0.13427024947019062
-0.30860000000000004,-0.13438342637417983
-0.30960000000000004,-0.13475125131214474
-0.31060000000000004,-0.13503419357211774
-0.31160000000000004,-0.1351332233631083
-0.31260000000000004,-0.13528884160609345
-0.31360000000000005,-0.13547275407507592
-0.31460000000000005,-0.13575569633504891
-0.31560000000000005,-0.13598205014302733
-0.31660000000000005,-0.13613766838601246
-0.31760000000000005,-0.13632158085499493
-0.31860000000000005,-0.13651964043697606
-0.31960000000000005,-0.1366752586799612
-0.32060000000000005,-0.1368733182619423
-0.32160000000000005,-0.13705723073092474
-0.32260000000000005,-0.13721284897390992
-0.32360000000000005,-0.13742505566888966
-0.32460000000000006,-0.13760896813787213
-0.32560000000000006,-0.13777873349385591
-0.32660000000000006,-0.13801923441483296
-0.32760000000000006,-0.13823144110981272
-0.32860000000000006,-0.1384153535787952
-0.32960000000000006,-0.1384153535787952
-0.33060000000000006,-0.1385285304827844
-0.33160000000000006,-0.1386700016127709
-0.33260000000000006,-0.13888220830775064
-0.33360000000000006,-0.139151003454725
-0.33460000000000006,-0.1393773572627034
-0.33560000000000006,-0.13961785818368047
-0.33660000000000007,-0.13997153600864676
-0.33760000000000007,-0.14015544847762917
-0.33860000000000007,-0.1403535080596103
-0.33960000000000007,-0.14052327341559406
-0.34060000000000007,-0.14073548011057385
-0.34160000000000007,-0.1409193925795563
-0.34260000000000007,-0.14111745216153743
-0.34360000000000007,-0.14127307040452258
-0.3446000000000001,-0.14141454153450908
-0.3456000000000001,-0.14161260111649018
-0.3466000000000001,-0.14175407224647668
-0.34759999999999996,-0.1420370145064497
-0.3486000000000001,-0.1423199567664227
-0.34959999999999997,-0.1427443701563822
-0.3506000000000001,-0.1428858412863687
-0.35159999999999997,-0.14302731241635522
-0.3526000000000001,-0.1433102546763282
-0.35359999999999997,-0.1435931969363012
-0.3546000000000001,-0.1437346680662877
-0.35559999999999997,-0.14401761032626076
-0.3566000000000001,-0.14415908145624726
-0.3576,-0.14444202371622025
-0.3586000000000001,-0.14458349484620675
-0.3596,-0.14486643710617977
-0.3606000000000001,-0.14514937936615277
-0.3616,-0.14514937936615277
-0.3626000000000001,-0.14543232162612577
-0.3636,-0.14571526388609876
-0.3646000000000001,-0.14599820614607179
-0.3656,-0.14613967727605828
-0.3666000000000001,-0.14628114840604478
-0.3676,-0.1465640906660178
-0.3686000000000001,-0.14684703292599083
-0.3696,-0.14698850405597733
-0.3706000000000001,-0.14727144631595032
-0.3716,-0.14755438857592332
-0.3726000000000001,-0.14783733083589634
-0.3736,-0.14812027309586934
-0.3746000000000001,-0.14826174422585583
-0.3756,-0.14854468648582883
-0.3766000000000001,-0.14882762874580185
-0.3776,-0.14911057100577488
-0.3786000000000001,-0.14939351326574787
-0.3796,-0.1496764555257209
-0.3806000000000001,-0.1499593977856939
-0.3816,-0.1502423400456669
-0.3826000000000001,-0.15052528230563988
-0.3836,-0.1508082245656129
-0.3846000000000001,-0.1510911668255859
-0.3856,-0.15151558021554543
-0.3866000000000001,-0.15179852247551845
-0.3876,-0.15208146473549145
-0.3886000000000001,-0.15236440699546444
-0.3896,-0.15264734925543746
-0.3906000000000001,-0.15293029151541046
-0.3916,-0.15335470490536995
-0.3926000000000001,-0.15363764716534298
-0.3936,-0.15377911829532948
-0.3946000000000001,-0.1540620605553025
-0.3956,-0.1543450028152755
-0.3966000000000001,-0.15448647394526202
-0.3976,-0.15491088733522151
-0.3986000000000001,-0.1551938295951945
-0.3996,-0.15561824298515403
-0.4006000000000001,-0.15590118524512703
-0.4016,-0.15618412750510002
-0.4026000000000001,-0.15660854089505957
-0.4036,-0.15675001202504607
-0.4046000000000001,-0.15703295428501907
-0.4056,-0.1574573676749786
-0.40660000000000013,-0.15788178106493808
-0.4076,-0.15816472332491108
-0.40860000000000013,-0.1585891367148706
-0.4096,-0.15901355010483012
-0.41060000000000013,-0.15943796349478964
-0.4116,-0.15972090575476264
-0.41260000000000013,-0.16014531914472213
-0.4136,-0.16056973253468165
-0.41460000000000014,-0.16085267479465465
-0.4156,-0.16127708818461417
-0.41660000000000014,-0.1617015015745737
-0.4176,-0.16212591496453319
-0.41860000000000014,-0.1625503283544927
-0.41960000000000003,-0.1628332706144657
-0.42060000000000014,-0.16325768400442522
-0.42160000000000003,-0.16368209739438472
-0.42260000000000014,-0.16410651078434427
-0.42360000000000003,-0.16467239530429026
-0.42460000000000014,-0.16509680869424978
-0.42560000000000003,-0.1656626932141958
-0.42660000000000015,-0.16622857773414182
-0.42760000000000004,-0.1666529911241013
-0.42860000000000015,-0.16707740451406086
-0.42960000000000004,-0.16764328903400685
-0.43060000000000015,-0.16806770242396638
-0.43160000000000004,-0.16849211581392587
-0.43260000000000015,-0.16877505807389886
-0.43360000000000004,-0.16919947146385841
-0.43460000000000015,-0.1696238848538179
-0.43560000000000004,-0.17018976937376393
-0.43660000000000015,-0.17075565389370992
-0.43760000000000004,-0.17118006728366944
-0.43860000000000016,-0.17160448067362896
