June 28, 2026   04:24:19
Cyclic Voltammetry
File: c:/users/guazh/data/20260623_doe_duplica2/2026-06-24-exp29\exp29-2026-06-28t04_05_22-arkoh\exp29_cv_sr_400mvs_efin_-1700mv.bin
Data Source:  Experiment
Instrument Model:  CHI760E
Header: CV ran at 400 mVs
Note: 

Init E (V) = -1
High E (V) = -1
Low E (V) = -1.7
Final E (V) = -1
Init P/N = N
Scan Rate (V/s) = 0.4
Segment = 3
Sample Interval (V) = 0.001
Quiet Time (sec) = 2
Sensitivity (A/V) = 0.01
Comp R (ohm) = 1.4

Results:

Channel 1:
Segment 1:

Segment 2:

Segment 3:

Potential/V, Current/A

-1.000, 9.405e-6
-1.001, 2.482e-5
-1.002, 3.099e-5
-1.003, 3.407e-5
-1.004, 3.407e-5
-1.005, 3.715e-5
-1.006, 4.024e-5
-1.007, 4.024e-5
-1.008, 4.332e-5
-1.009, 4.332e-5
-1.010, 4.332e-5
-1.011, 4.640e-5
-1.012, 4.640e-5
-1.013, 4.640e-5
-1.014, 4.640e-5
-1.015, 4.949e-5
-1.016, 4.949e-5
-1.017, 4.949e-5
-1.018, 4.949e-5
-1.019, 4.949e-5
-1.020, 5.257e-5
-1.021, 5.257e-5
-1.022, 5.257e-5
-1.023, 5.257e-5
-1.024, 5.257e-5
-1.025, 5.565e-5
-1.026, 5.565e-5
-1.027, 5.565e-5
-1.028, 5.565e-5
-1.029, 5.565e-5
-1.030, 5.565e-5
-1.031, 5.565e-5
-1.032, 5.873e-5
-1.033, 5.873e-5
-1.034, 5.873e-5
-1.035, 5.873e-5
-1.036, 5.873e-5
-1.037, 5.873e-5
-1.038, 6.182e-5
-1.039, 5.873e-5
-1.040, 5.873e-5
-1.041, 6.182e-5
-1.042, 6.182e-5
-1.043, 6.182e-5
-1.044, 6.182e-5
-1.045, 6.182e-5
-1.046, 6.182e-5
-1.047, 6.182e-5
-1.048, 6.182e-5
-1.049, 6.182e-5
-1.050, 6.490e-5
-1.051, 6.490e-5
-1.052, 6.490e-5
-1.053, 6.490e-5
-1.054, 6.490e-5
-1.055, 6.490e-5
-1.056, 6.490e-5
-1.057, 6.490e-5
-1.058, 6.490e-5
-1.059, 6.490e-5
-1.060, 6.490e-5
-1.061, 6.490e-5
-1.062, 6.798e-5
-1.063, 6.798e-5
-1.064, 6.798e-5
-1.065, 6.798e-5
-1.066, 6.798e-5
-1.067, 6.798e-5
-1.068, 6.798e-5
-1.069, 6.798e-5
-1.070, 6.798e-5
-1.071, 6.798e-5
-1.072, 6.798e-5
-1.073, 6.798e-5
-1.074, 7.107e-5
-1.075, 7.107e-5
-1.076, 7.107e-5
-1.077, 7.107e-5
-1.078, 7.107e-5
-1.079, 7.107e-5
-1.080, 7.107e-5
-1.081, 7.107e-5
-1.082, 7.107e-5
-1.083, 7.107e-5
-1.084, 7.107e-5
-1.085, 7.107e-5
-1.086, 7.415e-5
-1.087, 7.415e-5
-1.088, 7.107e-5
-1.089, 7.415e-5
-1.090, 7.107e-5
-1.091, 7.107e-5
-1.092, 7.415e-5
-1.093, 7.415e-5
-1.094, 7.415e-5
-1.095, 7.415e-5
-1.096, 7.415e-5
-1.097, 7.415e-5
-1.098, 7.415e-5
-1.099, 7.415e-5
-1.100, 7.415e-5
-1.101, 7.415e-5
-1.102, 7.415e-5
-1.103, 7.415e-5
-1.104, 7.415e-5
-1.105, 7.415e-5
-1.106, 7.415e-5
-1.107, 7.723e-5
-1.108, 7.415e-5
-1.109, 7.723e-5
-1.110, 7.415e-5
-1.111, 7.415e-5
-1.112, 7.415e-5
-1.113, 7.723e-5
-1.114, 7.723e-5
-1.115, 7.723e-5
-1.116, 7.723e-5
-1.117, 7.415e-5
-1.118, 7.723e-5
-1.119, 7.723e-5
-1.120, 7.723e-5
-1.121, 7.723e-5
-1.122, 7.723e-5
-1.123, 7.723e-5
-1.124, 7.723e-5
-1.125, 7.723e-5
-1.126, 7.723e-5
-1.127, 7.723e-5
-1.128, 7.723e-5
-1.129, 7.723e-5
-1.130, 7.723e-5
-1.131, 7.723e-5
-1.132, 7.723e-5
-1.133, 7.723e-5
-1.134, 7.723e-5
-1.135, 7.723e-5
-1.136, 7.723e-5
-1.137, 7.723e-5
-1.138, 7.723e-5
-1.139, 7.723e-5
-1.140, 7.723e-5
-1.141, 7.723e-5
-1.142, 7.723e-5
-1.143, 7.723e-5
-1.144, 7.723e-5
-1.145, 7.723e-5
-1.146, 7.723e-5
-1.147, 7.723e-5
-1.148, 7.723e-5
-1.149, 7.723e-5
-1.150, 7.723e-5
-1.151, 7.723e-5
-1.152, 7.723e-5
-1.153, 7.723e-5
-1.154, 7.723e-5
-1.155, 7.723e-5
-1.156, 7.723e-5
-1.157, 7.723e-5
-1.158, 7.723e-5
-1.159, 7.723e-5
-1.160, 7.723e-5
-1.161, 7.415e-5
-1.162, 7.723e-5
-1.163, 7.723e-5
-1.164, 7.723e-5
-1.165, 7.723e-5
-1.166, 7.723e-5
-1.167, 7.723e-5
-1.168, 7.723e-5
-1.169, 7.723e-5
-1.170, 7.723e-5
-1.171, 7.415e-5
-1.172, 7.415e-5
-1.173, 7.415e-5
-1.174, 7.415e-5
-1.175, 7.415e-5
-1.176, 7.415e-5
-1.177, 7.415e-5
-1.178, 7.723e-5
-1.179, 7.415e-5
-1.180, 7.415e-5
-1.181, 7.415e-5
-1.182, 7.415e-5
-1.183, 7.415e-5
-1.184, 7.415e-5
-1.185, 7.415e-5
-1.186, 7.415e-5
-1.187, 7.415e-5
-1.188, 7.415e-5
-1.189, 7.415e-5
-1.190, 7.415e-5
-1.191, 7.415e-5
-1.192, 7.415e-5
-1.193, 7.415e-5
-1.194, 7.415e-5
-1.195, 7.415e-5
-1.196, 7.415e-5
-1.197, 7.415e-5
-1.198, 7.415e-5
-1.199, 7.415e-5
-1.200, 7.107e-5
-1.201, 7.415e-5
-1.202, 7.415e-5
-1.203, 7.107e-5
-1.204, 7.415e-5
-1.205, 7.107e-5
-1.206, 7.107e-5
-1.207, 7.107e-5
-1.208, 7.415e-5
-1.209, 7.107e-5
-1.210, 7.107e-5
-1.211, 7.107e-5
-1.212, 7.107e-5
-1.213, 7.107e-5
-1.214, 7.107e-5
-1.215, 7.107e-5
-1.216, 7.107e-5
-1.217, 7.107e-5
-1.218, 7.107e-5
-1.219, 7.107e-5
-1.220, 7.107e-5
-1.221, 7.107e-5
-1.222, 7.107e-5
-1.223, 7.107e-5
-1.224, 7.107e-5
-1.225, 7.107e-5
-1.226, 7.107e-5
-1.227, 7.107e-5
-1.228, 7.107e-5
-1.229, 7.107e-5
-1.230, 7.107e-5
-1.231, 7.107e-5
-1.232, 7.107e-5
-1.233, 6.798e-5
-1.234, 6.798e-5
-1.235, 7.107e-5
-1.236, 7.107e-5
-1.237, 6.798e-5
-1.238, 7.107e-5
-1.239, 6.798e-5
-1.240, 6.798e-5
-1.241, 7.107e-5
-1.242, 7.107e-5
-1.243, 6.798e-5
-1.244, 6.798e-5
-1.245, 6.798e-5
-1.246, 6.798e-5
-1.247, 6.798e-5
-1.248, 6.798e-5
-1.249, 6.798e-5
-1.250, 6.798e-5
-1.251, 6.798e-5
-1.252, 6.798e-5
-1.253, 6.798e-5
-1.254, 6.798e-5
-1.255, 6.798e-5
-1.256, 6.798e-5
-1.257, 6.798e-5
-1.258, 6.798e-5
-1.259, 6.798e-5
-1.260, 6.798e-5
-1.261, 6.798e-5
-1.262, 6.798e-5
-1.263, 6.798e-5
-1.264, 6.798e-5
-1.265, 6.798e-5
-1.266, 6.798e-5
-1.267, 6.798e-5
-1.268, 6.798e-5
-1.269, 6.798e-5
-1.270, 6.798e-5
-1.271, 6.798e-5
-1.272, 6.798e-5
-1.273, 6.798e-5
-1.274, 6.798e-5
-1.275, 6.798e-5
-1.276, 6.798e-5
-1.277, 6.798e-5
-1.278, 6.798e-5
-1.279, 6.798e-5
-1.280, 6.798e-5
-1.281, 6.798e-5
-1.282, 6.798e-5
-1.283, 6.798e-5
-1.284, 6.798e-5
-1.285, 6.798e-5
-1.286, 6.798e-5
-1.287, 6.798e-5
-1.288, 6.798e-5
-1.289, 6.798e-5
-1.290, 6.798e-5
-1.291, 6.798e-5
-1.292, 6.798e-5
-1.293, 6.798e-5
-1.294, 6.798e-5
-1.295, 6.798e-5
-1.296, 6.798e-5
-1.297, 6.798e-5
-1.298, 7.107e-5
-1.299, 7.107e-5
-1.300, 7.107e-5
-1.301, 7.107e-5
-1.302, 7.107e-5
-1.303, 7.107e-5
-1.304, 7.107e-5
-1.305, 7.107e-5
-1.306, 7.107e-5
-1.307, 7.107e-5
-1.308, 7.107e-5
-1.309, 7.107e-5
-1.310, 7.107e-5
-1.311, 7.107e-5
-1.312, 7.107e-5
-1.313, 7.107e-5
-1.314, 7.107e-5
-1.315, 7.415e-5
-1.316, 7.107e-5
-1.317, 7.415e-5
-1.318, 7.415e-5
-1.319, 7.415e-5
-1.320, 7.415e-5
-1.321, 7.415e-5
-1.322, 7.415e-5
-1.323, 7.415e-5
-1.324, 7.415e-5
-1.325, 7.415e-5
-1.326, 7.415e-5
-1.327, 7.723e-5
-1.328, 7.723e-5
-1.329, 7.723e-5
-1.330, 7.723e-5
-1.331, 7.723e-5
-1.332, 7.723e-5
-1.333, 7.723e-5
-1.334, 7.723e-5
-1.335, 8.032e-5
-1.336, 8.032e-5
-1.337, 8.032e-5
-1.338, 8.032e-5
-1.339, 8.032e-5
-1.340, 8.032e-5
-1.341, 8.340e-5
-1.342, 8.340e-5
-1.343, 8.032e-5
-1.344, 8.340e-5
-1.345, 8.340e-5
-1.346, 8.340e-5
-1.347, 8.648e-5
-1.348, 8.648e-5
-1.349, 8.648e-5
-1.350, 8.648e-5
-1.351, 8.648e-5
-1.352, 8.648e-5
-1.353, 8.957e-5
-1.354, 8.957e-5
-1.355, 8.957e-5
-1.356, 9.265e-5
-1.357, 9.265e-5
-1.358, 9.265e-5
-1.359, 9.573e-5
-1.360, 9.573e-5
-1.361, 9.573e-5
-1.362, 9.573e-5
-1.363, 9.882e-5
-1.364, 9.882e-5
-1.365, 9.882e-5
-1.366, 1.019e-4
-1.367, 1.019e-4
-1.368, 1.019e-4
-1.369, 1.050e-4
-1.370, 1.050e-4
-1.371, 1.081e-4
-1.372, 1.081e-4
-1.373, 1.111e-4
-1.374, 1.111e-4
-1.375, 1.111e-4
-1.376, 1.111e-4
-1.377, 1.142e-4
-1.378, 1.173e-4
-1.379, 1.173e-4
-1.380, 1.173e-4
-1.381, 1.204e-4
-1.382, 1.204e-4
-1.383, 1.235e-4
-1.384, 1.235e-4
-1.385, 1.266e-4
-1.386, 1.296e-4
-1.387, 1.296e-4
-1.388, 1.327e-4
-1.389, 1.358e-4
-1.390, 1.389e-4
-1.391, 1.389e-4
-1.392, 1.420e-4
-1.393, 1.420e-4
-1.394, 1.451e-4
-1.395, 1.481e-4
-1.396, 1.512e-4
-1.397, 1.543e-4
-1.398, 1.574e-4
-1.399, 1.574e-4
-1.400, 1.605e-4
-1.401, 1.636e-4
-1.402, 1.666e-4
-1.403, 1.697e-4
-1.404, 1.728e-4
-1.405, 1.790e-4
-1.406, 1.790e-4
-1.407, 1.851e-4
-1.408, 1.882e-4
-1.409, 1.913e-4
-1.410, 1.975e-4
-1.411, 2.006e-4
-1.412, 2.036e-4
-1.413, 2.067e-4
-1.414, 2.129e-4
-1.415, 2.160e-4
-1.416, 2.221e-4
-1.417, 2.283e-4
-1.418, 2.314e-4
-1.419, 2.376e-4
-1.420, 2.437e-4
-1.421, 2.499e-4
-1.422, 2.561e-4
-1.423, 2.622e-4
-1.424, 2.684e-4
-1.425, 2.746e-4
-1.426, 2.807e-4
-1.427, 2.900e-4
-1.428, 2.961e-4
-1.429, 3.023e-4
-1.430, 3.115e-4
-1.431, 3.208e-4
-1.432, 3.300e-4
-1.433, 3.393e-4
-1.434, 3.485e-4
-1.435, 3.578e-4
-1.436, 3.670e-4
-1.437, 3.763e-4
-1.438, 3.886e-4
-1.439, 3.979e-4
-1.440, 4.102e-4
-1.441, 4.195e-4
-1.442, 4.318e-4
-1.443, 4.441e-4
-1.444, 4.565e-4
-1.445, 4.688e-4
-1.446, 4.811e-4
-1.447, 4.965e-4
-1.448, 5.089e-4
-1.449, 5.212e-4
-1.450, 5.366e-4
-1.451, 5.489e-4
-1.452, 5.644e-4
-1.453, 5.798e-4
-1.454, 5.921e-4
-1.455, 6.075e-4
-1.456, 6.229e-4
-1.457, 6.384e-4
-1.458, 6.538e-4
-1.459, 6.723e-4
-1.460, 6.877e-4
-1.461, 7.031e-4
-1.462, 7.185e-4
-1.463, 7.370e-4
-1.464, 7.524e-4
-1.465, 7.709e-4
-1.466, 7.863e-4
-1.467, 8.048e-4
-1.468, 8.233e-4
-1.469, 8.418e-4
-1.470, 8.573e-4
-1.471, 8.788e-4
-1.472, 8.943e-4
-1.473, 9.128e-4
-1.474, 9.343e-4
-1.475, 9.528e-4
-1.476, 9.744e-4
-1.477, 9.929e-4
-1.478, 1.014e-3
-1.479, 1.030e-3
-1.480, 1.051e-3
-1.481, 1.073e-3
-1.482, 1.095e-3
-1.483, 1.116e-3
-1.484, 1.138e-3
-1.485, 1.162e-3
-1.486, 1.181e-3
-1.487, 1.203e-3
-1.488, 1.224e-3
-1.489, 1.246e-3
-1.490, 1.267e-3
-1.491, 1.292e-3
-1.492, 1.314e-3
-1.493, 1.338e-3
-1.494, 1.363e-3
-1.495, 1.384e-3
-1.496, 1.409e-3
-1.497, 1.431e-3
-1.498, 1.455e-3
-1.499, 1.480e-3
-1.500, 1.505e-3
-1.501, 1.529e-3
-1.502, 1.557e-3
-1.503, 1.582e-3
-1.504, 1.606e-3
-1.505, 1.631e-3
-1.506, 1.656e-3
-1.507, 1.684e-3
-1.508, 1.708e-3
-1.509, 1.736e-3
-1.510, 1.764e-3
-1.511, 1.788e-3
-1.512, 1.816e-3
-1.513, 1.844e-3
-1.514, 1.869e-3
-1.515, 1.896e-3
-1.516, 1.921e-3
-1.517, 1.949e-3
-1.518, 1.976e-3
-1.519, 2.001e-3
-1.520, 2.032e-3
-1.521, 2.060e-3
-1.522, 2.084e-3
-1.523, 2.112e-3
-1.524, 2.143e-3
-1.525, 2.171e-3
-1.526, 2.198e-3
-1.527, 2.226e-3
-1.528, 2.257e-3
-1.529, 2.285e-3
-1.530, 2.319e-3
-1.531, 2.349e-3
-1.532, 2.377e-3
-1.533, 2.405e-3
-1.534, 2.436e-3
-1.535, 2.467e-3
-1.536, 2.494e-3
-1.537, 2.522e-3
-1.538, 2.553e-3
-1.539, 2.581e-3
-1.540, 2.612e-3
-1.541, 2.639e-3
-1.542, 2.667e-3
-1.543, 2.701e-3
-1.544, 2.729e-3
-1.545, 2.760e-3
-1.546, 2.787e-3
-1.547, 2.818e-3
-1.548, 2.852e-3
-1.549, 2.883e-3
-1.550, 2.920e-3
-1.551, 2.951e-3
-1.552, 2.988e-3
-1.553, 3.019e-3
-1.554, 3.056e-3
-1.555, 3.086e-3
-1.556, 3.117e-3
-1.557, 3.148e-3
-1.558, 3.179e-3
-1.559, 3.219e-3
-1.560, 3.250e-3
-1.561, 3.290e-3
-1.562, 3.327e-3
-1.563, 3.367e-3
-1.564, 3.398e-3
-1.565, 3.429e-3
-1.566, 3.462e-3
-1.567, 3.496e-3
-1.568, 3.530e-3
-1.569, 3.567e-3
-1.570, 3.598e-3
-1.571, 3.629e-3
-1.572, 3.660e-3
-1.573, 3.703e-3
-1.574, 3.737e-3
-1.575, 3.768e-3
-1.576, 3.802e-3
-1.577, 3.836e-3
-1.578, 3.866e-3
-1.579, 3.903e-3
-1.580, 3.940e-3
-1.581, 3.974e-3
-1.582, 4.017e-3
-1.583, 4.051e-3
-1.584, 4.091e-3
-1.585, 4.128e-3
-1.586, 4.165e-3
-1.587, 4.209e-3
-1.588, 4.243e-3
-1.589, 4.286e-3
-1.590, 4.326e-3
-1.591, 4.360e-3
-1.592, 4.403e-3
-1.593, 4.446e-3
-1.594, 4.483e-3
-1.595, 4.517e-3
-1.596, 4.548e-3
-1.597, 4.585e-3
-1.598, 4.625e-3
-1.599, 4.659e-3
-1.600, 4.696e-3
-1.601, 4.723e-3
-1.602, 4.760e-3
-1.603, 4.791e-3
-1.604, 4.819e-3
-1.605, 4.856e-3
-1.606, 4.890e-3
-1.607, 4.933e-3
-1.608, 4.964e-3
-1.609, 4.995e-3
-1.610, 5.029e-3
-1.611, 5.072e-3
-1.612, 5.118e-3
-1.613, 5.167e-3
-1.614, 5.208e-3
-1.615, 5.251e-3
-1.616, 5.288e-3
-1.617, 5.325e-3
-1.618, 5.365e-3
-1.619, 5.411e-3
-1.620, 5.460e-3
-1.621, 5.507e-3
-1.622, 5.547e-3
-1.623, 5.599e-3
-1.624, 5.642e-3
-1.625, 5.676e-3
-1.626, 5.716e-3
-1.627, 5.756e-3
-1.628, 5.790e-3
-1.629, 5.827e-3
-1.630, 5.877e-3
-1.631, 5.926e-3
-1.632, 5.972e-3
-1.633, 6.012e-3
-1.634, 6.062e-3
-1.635, 6.117e-3
-1.636, 6.151e-3
-1.637, 6.203e-3
-1.638, 6.253e-3
-1.639, 6.302e-3
-1.640, 6.351e-3
-1.641, 6.398e-3
-1.642, 6.438e-3
-1.643, 6.475e-3
-1.644, 6.524e-3
-1.645, 6.576e-3
-1.646, 6.617e-3
-1.647, 6.669e-3
-1.648, 6.721e-3
-1.649, 6.755e-3
-1.650, 6.801e-3
-1.651, 6.854e-3
-1.652, 6.897e-3
-1.653, 6.928e-3
-1.654, 6.965e-3
-1.655, 7.017e-3
-1.656, 7.054e-3
-1.657, 7.094e-3
-1.658, 7.144e-3
-1.659, 7.190e-3
-1.660, 7.230e-3
-1.661, 7.301e-3
-1.662, 7.347e-3
-1.663, 7.390e-3
-1.664, 7.427e-3
-1.665, 7.480e-3
-1.666, 7.532e-3
-1.667, 7.582e-3
-1.668, 7.628e-3
-1.669, 7.708e-3
-1.670, 7.760e-3
-1.671, 7.816e-3
-1.672, 7.853e-3
-1.673, 7.911e-3
-1.674, 7.958e-3
-1.675, 8.013e-3
-1.676, 8.099e-3
-1.677, 8.167e-3
-1.678, 8.210e-3
-1.679, 8.251e-3
-1.680, 8.312e-3
-1.681, 8.365e-3
-1.682, 8.429e-3
-1.683, 8.476e-3
-1.684, 8.537e-3
-1.685, 8.596e-3
-1.686, 8.648e-3
-1.687, 8.707e-3
-1.688, 8.769e-3
-1.689, 8.812e-3
-1.690, 8.867e-3
-1.691, 9.006e-3
-1.692, 9.083e-3
-1.693, 9.120e-3
-1.694, 9.157e-3
-1.695, 9.222e-3
-1.696, 9.290e-3
-1.697, 9.354e-3
-1.698, 9.410e-3
-1.699, 9.475e-3
-1.700, 9.481e-3
-1.699, 9.422e-3
-1.698, 9.342e-3
-1.697, 9.274e-3
-1.696, 9.206e-3
-1.695, 9.132e-3
-1.694, 9.068e-3
-1.693, 8.984e-3
-1.692, 8.929e-3
-1.691, 8.843e-3
-1.690, 8.772e-3
-1.689, 8.716e-3
-1.688, 8.648e-3
-1.687, 8.593e-3
-1.686, 8.519e-3
-1.685, 8.476e-3
-1.684, 8.432e-3
-1.683, 8.386e-3
-1.682, 8.312e-3
-1.681, 8.238e-3
-1.680, 8.149e-3
-1.679, 8.081e-3
-1.678, 8.025e-3
-1.677, 8.013e-3
-1.676, 7.961e-3
-1.675, 7.908e-3
-1.674, 7.828e-3
-1.673, 7.767e-3
-1.672, 7.702e-3
-1.671, 7.683e-3
-1.670, 7.612e-3
-1.669, 7.541e-3
-1.668, 7.517e-3
-1.667, 7.446e-3
-1.666, 7.369e-3
-1.665, 7.313e-3
-1.664, 7.286e-3
-1.663, 7.215e-3
-1.662, 7.147e-3
-1.661, 7.073e-3
-1.660, 6.996e-3
-1.659, 6.937e-3
-1.658, 6.882e-3
-1.657, 6.808e-3
-1.656, 6.740e-3
-1.655, 6.697e-3
-1.654, 6.678e-3
-1.653, 6.635e-3
-1.652, 6.564e-3
-1.651, 6.490e-3
-1.650, 6.432e-3
-1.649, 6.364e-3
-1.648, 6.305e-3
-1.647, 6.250e-3
-1.646, 6.200e-3
-1.645, 6.145e-3
-1.644, 6.089e-3
-1.643, 6.031e-3
-1.642, 6.006e-3
-1.641, 5.947e-3
-1.640, 5.898e-3
-1.639, 5.840e-3
-1.638, 5.793e-3
-1.637, 5.735e-3
-1.636, 5.682e-3
-1.635, 5.679e-3
-1.634, 5.670e-3
-1.633, 5.614e-3
-1.632, 5.547e-3
-1.631, 5.485e-3
-1.630, 5.433e-3
-1.629, 5.380e-3
-1.628, 5.334e-3
-1.627, 5.306e-3
-1.626, 5.260e-3
-1.625, 5.204e-3
-1.624, 5.155e-3
-1.623, 5.103e-3
-1.622, 5.053e-3
-1.621, 5.001e-3
-1.620, 4.945e-3
-1.619, 4.899e-3
-1.618, 4.859e-3
-1.617, 4.816e-3
-1.616, 4.788e-3
-1.615, 4.730e-3
-1.614, 4.686e-3
-1.613, 4.628e-3
-1.612, 4.588e-3
-1.611, 4.545e-3
-1.610, 4.489e-3
-1.609, 4.440e-3
-1.608, 4.397e-3
-1.607, 4.354e-3
-1.606, 4.320e-3
-1.605, 4.280e-3
-1.604, 4.273e-3
-1.603, 4.224e-3
-1.602, 4.169e-3
-1.601, 4.116e-3
-1.600, 4.070e-3
-1.599, 4.045e-3
-1.598, 4.005e-3
-1.597, 3.965e-3
-1.596, 3.922e-3
-1.595, 3.891e-3
-1.594, 3.842e-3
-1.593, 3.811e-3
-1.592, 3.777e-3
-1.591, 3.737e-3
-1.590, 3.697e-3
-1.589, 3.654e-3
-1.588, 3.607e-3
-1.587, 3.564e-3
-1.586, 3.527e-3
-1.585, 3.490e-3
-1.584, 3.450e-3
-1.583, 3.410e-3
-1.582, 3.376e-3
-1.581, 3.342e-3
-1.580, 3.299e-3
-1.579, 3.265e-3
-1.578, 3.228e-3
-1.577, 3.188e-3
-1.576, 3.148e-3
-1.575, 3.117e-3
-1.574, 3.102e-3
-1.573, 3.083e-3
-1.572, 3.040e-3
-1.571, 3.003e-3
-1.570, 2.963e-3
-1.569, 2.926e-3
-1.568, 2.886e-3
-1.567, 2.849e-3
-1.566, 2.815e-3
-1.565, 2.784e-3
-1.564, 2.766e-3
-1.563, 2.726e-3
-1.562, 2.686e-3
-1.561, 2.652e-3
-1.560, 2.621e-3
-1.559, 2.587e-3
-1.558, 2.556e-3
-1.557, 2.522e-3
-1.556, 2.488e-3
-1.555, 2.451e-3
-1.554, 2.417e-3
-1.553, 2.386e-3
-1.552, 2.356e-3
-1.551, 2.325e-3
-1.550, 2.294e-3
-1.549, 2.263e-3
-1.548, 2.229e-3
-1.547, 2.198e-3
-1.546, 2.168e-3
-1.545, 2.137e-3
-1.544, 2.103e-3
-1.543, 2.075e-3
-1.542, 2.054e-3
-1.541, 2.026e-3
-1.540, 1.998e-3
-1.539, 1.967e-3
-1.538, 1.936e-3
-1.537, 1.909e-3
-1.536, 1.881e-3
-1.535, 1.853e-3
-1.534, 1.832e-3
-1.533, 1.801e-3
-1.532, 1.773e-3
-1.531, 1.745e-3
-1.530, 1.721e-3
-1.529, 1.693e-3
-1.528, 1.671e-3
-1.527, 1.647e-3
-1.526, 1.619e-3
-1.525, 1.594e-3
-1.524, 1.569e-3
-1.523, 1.542e-3
-1.522, 1.520e-3
-1.521, 1.492e-3
-1.520, 1.471e-3
-1.519, 1.446e-3
-1.518, 1.425e-3
-1.517, 1.403e-3
-1.516, 1.378e-3
-1.515, 1.357e-3
-1.514, 1.332e-3
-1.513, 1.310e-3
-1.512, 1.310e-3
-1.511, 1.283e-3
-1.510, 1.258e-3
-1.509, 1.233e-3
-1.508, 1.212e-3
-1.507, 1.193e-3
-1.506, 1.172e-3
-1.505, 1.150e-3
-1.504, 1.129e-3
-1.503, 1.110e-3
-1.502, 1.088e-3
-1.501, 1.070e-3
-1.500, 1.051e-3
-1.499, 1.033e-3
-1.498, 1.011e-3
-1.497, 9.960e-4
-1.496, 9.775e-4
-1.495, 9.590e-4
-1.494, 9.405e-4
-1.493, 9.220e-4
-1.492, 9.035e-4
-1.491, 8.912e-4
-1.490, 8.727e-4
-1.489, 8.603e-4
-1.488, 8.418e-4
-1.487, 8.233e-4
-1.486, 8.079e-4
-1.485, 7.925e-4
-1.484, 7.771e-4
-1.483, 7.648e-4
-1.482, 7.494e-4
-1.481, 7.339e-4
-1.480, 7.216e-4
-1.479, 7.062e-4
-1.478, 6.908e-4
-1.477, 6.754e-4
-1.476, 6.630e-4
-1.475, 6.507e-4
-1.474, 6.384e-4
-1.473, 6.229e-4
-1.472, 6.137e-4
-1.471, 5.983e-4
-1.470, 5.859e-4
-1.469, 5.736e-4
-1.468, 5.613e-4
-1.467, 5.489e-4
-1.466, 5.397e-4
-1.465, 5.274e-4
-1.464, 5.150e-4
-1.463, 5.027e-4
-1.462, 4.935e-4
-1.461, 4.842e-4
-1.460, 4.719e-4
-1.459, 4.626e-4
-1.458, 4.503e-4
-1.457, 4.410e-4
-1.456, 4.318e-4
-1.455, 4.225e-4
-1.454, 4.133e-4
-1.453, 4.040e-4
-1.452, 3.948e-4
-1.451, 3.855e-4
-1.450, 3.763e-4
-1.449, 3.701e-4
-1.448, 3.609e-4
-1.447, 3.516e-4
-1.446, 3.455e-4
-1.445, 3.362e-4
-1.444, 3.300e-4
-1.443, 3.208e-4
-1.442, 3.146e-4
-1.441, 3.054e-4
-1.440, 2.992e-4
-1.439, 2.931e-4
-1.438, 2.838e-4
-1.437, 2.776e-4
-1.436, 2.715e-4
-1.435, 2.653e-4
-1.434, 2.561e-4
-1.433, 2.530e-4
-1.432, 2.468e-4
-1.431, 2.406e-4
-1.430, 2.314e-4
-1.429, 2.283e-4
-1.428, 2.221e-4
-1.427, 2.160e-4
-1.426, 2.129e-4
-1.425, 2.067e-4
-1.424, 2.006e-4
-1.423, 1.975e-4
-1.422, 1.913e-4
-1.421, 1.882e-4
-1.420, 1.821e-4
-1.419, 1.759e-4
-1.418, 1.728e-4
-1.417, 1.666e-4
-1.416, 1.636e-4
-1.415, 1.605e-4
-1.414, 1.543e-4
-1.413, 1.512e-4
-1.412, 1.481e-4
-1.411, 1.420e-4
-1.410, 1.389e-4
-1.409, 1.358e-4
-1.408, 1.296e-4
-1.407, 1.266e-4
-1.406, 1.235e-4
-1.405, 1.204e-4
-1.404, 1.173e-4
-1.403, 1.142e-4
-1.402, 1.111e-4
-1.401, 1.081e-4
-1.400, 1.050e-4
-1.399, 1.019e-4
-1.398, 9.882e-5
-1.397, 9.573e-5
-1.396, 9.265e-5
-1.395, 8.957e-5
-1.394, 8.648e-5
-1.393, 8.340e-5
-1.392, 8.340e-5
-1.391, 8.032e-5
-1.390, 7.723e-5
-1.389, 7.415e-5
-1.388, 7.107e-5
-1.387, 7.107e-5
-1.386, 6.798e-5
-1.385, 6.490e-5
-1.384, 6.182e-5
-1.383, 6.182e-5
-1.382, 5.873e-5
-1.381, 5.873e-5
-1.380, 5.565e-5
-1.379, 5.257e-5
-1.378, 5.257e-5
-1.377, 4.949e-5
-1.376, 4.640e-5
-1.375, 4.640e-5
-1.374, 4.332e-5
-1.373, 4.332e-5
-1.372, 4.024e-5
-1.371, 3.715e-5
-1.370, 3.715e-5
-1.369, 3.407e-5
-1.368, 3.407e-5
-1.367, 3.099e-5
-1.366, 3.099e-5
-1.365, 3.099e-5
-1.364, 2.790e-5
-1.363, 2.790e-5
-1.362, 2.482e-5
-1.361, 2.482e-5
-1.360, 2.174e-5
-1.359, 2.174e-5
-1.358, 2.174e-5
-1.357, 1.865e-5
-1.356, 1.557e-5
-1.355, 1.557e-5
-1.354, 1.557e-5
-1.353, 1.557e-5
-1.352, 1.249e-5
-1.351, 1.249e-5
-1.350, 1.249e-5
-1.349, 9.405e-6
-1.348, 9.405e-6
-1.347, 9.405e-6
-1.346, 9.405e-6
-1.345, 6.322e-6
-1.344, 6.322e-6
-1.343, 3.239e-6
-1.342, 3.239e-6
-1.341, 3.239e-6
-1.340, 3.239e-6
-1.339, 1.559e-7
-1.338, 1.559e-7
-1.337, 1.559e-7
-1.336, 1.559e-7
-1.335, -2.927e-6
-1.334, -2.927e-6
-1.333, -2.927e-6
-1.332, -2.927e-6
-1.331, -6.010e-6
-1.330, -6.010e-6
-1.329, -6.010e-6
-1.328, -6.010e-6
-1.327, -6.010e-6
-1.326, -6.010e-6
-1.325, -9.093e-6
-1.324, -9.093e-6
-1.323, -9.093e-6
-1.322, -9.093e-6
-1.321, -9.093e-6
-1.320, -1.218e-5
-1.319, -1.218e-5
-1.318, -1.218e-5
-1.317, -1.218e-5
-1.316, -1.218e-5
-1.315, -1.218e-5
-1.314, -1.526e-5
-1.313, -1.526e-5
-1.312, -1.526e-5
-1.311, -1.526e-5
-1.310, -1.526e-5
-1.309, -1.526e-5
-1.308, -1.834e-5
-1.307, -1.834e-5
-1.306, -1.834e-5
-1.305, -1.834e-5
-1.304, -1.834e-5
-1.303, -1.834e-5
-1.302, -1.834e-5
-1.301, -1.834e-5
-1.300, -1.834e-5
-1.299, -2.143e-5
-1.298, -1.834e-5
-1.297, -2.143e-5
-1.296, -2.143e-5
-1.295, -2.143e-5
-1.294, -2.143e-5
-1.293, -2.143e-5
-1.292, -2.143e-5
-1.291, -2.143e-5
-1.290, -2.143e-5
-1.289, -2.143e-5
-1.288, -2.451e-5
-1.287, -2.451e-5
-1.286, -2.451e-5
-1.285, -2.451e-5
-1.284, -2.451e-5
-1.283, -2.451e-5
-1.282, -2.451e-5
-1.281, -2.451e-5
-1.280, -2.759e-5
-1.279, -2.759e-5
-1.278, -2.759e-5
-1.277, -2.759e-5
-1.276, -2.759e-5
-1.275, -2.759e-5
-1.274, -2.759e-5
-1.273, -2.759e-5
-1.272, -2.759e-5
-1.271, -2.759e-5
-1.270, -2.759e-5
-1.269, -2.759e-5
-1.268, -3.068e-5
-1.267, -3.068e-5
-1.266, -3.068e-5
-1.265, -3.068e-5
-1.264, -2.759e-5
-1.263, -3.068e-5
-1.262, -3.068e-5
-1.261, -3.068e-5
-1.260, -3.068e-5
-1.259, -3.068e-5
-1.258, -3.068e-5
-1.257, -3.068e-5
-1.256, -3.068e-5
-1.255, -3.068e-5
-1.254, -3.376e-5
-1.253, -3.068e-5
-1.252, -3.068e-5
-1.251, -3.376e-5
-1.250, -3.376e-5
-1.249, -3.376e-5
-1.248, -3.376e-5
-1.247, -3.376e-5
-1.246, -3.376e-5
-1.245, -3.376e-5
-1.244, -3.376e-5
-1.243, -3.376e-5
-1.242, -3.376e-5
-1.241, -3.376e-5
-1.240, -3.376e-5
-1.239, -3.376e-5
-1.238, -3.684e-5
-1.237, -3.376e-5
-1.236, -3.376e-5
-1.235, -3.684e-5
-1.234, -3.376e-5
-1.233, -3.684e-5
-1.232, -3.684e-5
-1.231, -3.684e-5
-1.230, -3.684e-5
-1.229, -3.684e-5
-1.228, -3.684e-5
-1.227, -3.684e-5
-1.226, -3.684e-5
-1.225, -3.684e-5
-1.224, -3.684e-5
-1.223, -3.684e-5
-1.222, -3.684e-5
-1.221, -3.684e-5
-1.220, -3.992e-5
-1.219, -3.992e-5
-1.218, -3.684e-5
-1.217, -3.992e-5
-1.216, -3.992e-5
-1.215, -3.992e-5
-1.214, -3.992e-5
-1.213, -3.992e-5
-1.212, -3.992e-5
-1.211, -3.992e-5
-1.210, -3.992e-5
-1.209, -3.992e-5
-1.208, -4.301e-5
-1.207, -3.992e-5
-1.206, -3.992e-5
-1.205, -3.992e-5
-1.204, -4.301e-5
-1.203, -4.301e-5
-1.202, -3.992e-5
-1.201, -4.301e-5
-1.200, -4.301e-5
-1.199, -4.301e-5
-1.198, -4.301e-5
-1.197, -4.301e-5
-1.196, -4.301e-5
-1.195, -4.301e-5
-1.194, -4.301e-5
-1.193, -4.301e-5
-1.192, -4.301e-5
-1.191, -4.301e-5
-1.190, -4.301e-5
-1.189, -4.301e-5
-1.188, -4.609e-5
-1.187, -4.609e-5
-1.186, -4.609e-5
-1.185, -4.609e-5
-1.184, -4.609e-5
-1.183, -4.609e-5
-1.182, -4.609e-5
-1.181, -4.609e-5
-1.180, -4.609e-5
-1.179, -4.609e-5
-1.178, -4.609e-5
-1.177, -4.917e-5
-1.176, -4.609e-5
-1.175, -4.609e-5
-1.174, -4.917e-5
-1.173, -4.917e-5
-1.172, -4.917e-5
-1.171, -4.917e-5
-1.170, -4.917e-5
-1.169, -4.917e-5
-1.168, -4.917e-5
-1.167, -4.917e-5
-1.166, -4.917e-5
-1.165, -4.917e-5
-1.164, -4.917e-5
-1.163, -4.917e-5
-1.162, -4.917e-5
-1.161, -4.917e-5
-1.160, -4.917e-5
-1.159, -5.226e-5
-1.158, -5.226e-5
-1.157, -5.226e-5
-1.156, -5.226e-5
-1.155, -5.226e-5
-1.154, -5.226e-5
-1.153, -5.226e-5
-1.152, -5.226e-5
-1.151, -5.226e-5
-1.150, -5.226e-5
-1.149, -5.226e-5
-1.148, -5.226e-5
-1.147, -5.534e-5
-1.146, -5.226e-5
-1.145, -5.534e-5
-1.144, -5.534e-5
-1.143, -5.534e-5
-1.142, -5.534e-5
-1.141, -5.534e-5
-1.140, -5.842e-5
-1.139, -5.534e-5
-1.138, -5.534e-5
-1.137, -5.534e-5
-1.136, -5.534e-5
-1.135, -5.842e-5
-1.134, -5.842e-5
-1.133, -5.842e-5
-1.132, -5.842e-5
-1.131, -5.842e-5
-1.130, -5.842e-5
-1.129, -5.842e-5
-1.128, -5.842e-5
-1.127, -6.151e-5
-1.126, -6.151e-5
-1.125, -5.842e-5
-1.124, -6.151e-5
-1.123, -6.151e-5
-1.122, -6.151e-5
-1.121, -6.151e-5
-1.120, -6.151e-5
-1.119, -6.151e-5
-1.118, -6.151e-5
-1.117, -6.151e-5
-1.116, -6.459e-5
-1.115, -6.459e-5
-1.114, -6.459e-5
-1.113, -6.459e-5
-1.112, -6.459e-5
-1.111, -6.459e-5
-1.110, -6.459e-5
-1.109, -6.459e-5
-1.108, -6.459e-5
-1.107, -6.767e-5
-1.106, -6.767e-5
-1.105, -6.767e-5
-1.104, -6.767e-5
-1.103, -6.767e-5
-1.102, -6.767e-5
-1.101, -6.767e-5
-1.100, -7.076e-5
-1.099, -7.076e-5
-1.098, -7.076e-5
-1.097, -7.076e-5
-1.096, -7.076e-5
-1.095, -7.076e-5
-1.094, -7.076e-5
-1.093, -7.076e-5
-1.092, -7.384e-5
-1.091, -7.384e-5
-1.090, -7.384e-5
-1.089, -7.384e-5
-1.088, -7.384e-5
-1.087, -7.692e-5
-1.086, -7.692e-5
-1.085, -7.384e-5
-1.084, -7.692e-5
-1.083, -7.692e-5
-1.082, -7.692e-5
-1.081, -7.692e-5
-1.080, -8.000e-5
-1.079, -8.000e-5
-1.078, -8.000e-5
-1.077, -8.000e-5
-1.076, -8.000e-5
-1.075, -8.309e-5
-1.074, -8.309e-5
-1.073, -8.309e-5
-1.072, -8.309e-5
-1.071, -8.309e-5
-1.070, -8.617e-5
-1.069, -8.309e-5
-1.068, -8.617e-5
-1.067, -8.617e-5
-1.066, -8.617e-5
-1.065, -8.925e-5
-1.064, -8.925e-5
-1.063, -8.925e-5
-1.062, -8.925e-5
-1.061, -8.925e-5
-1.060, -8.925e-5
-1.059, -9.234e-5
-1.058, -9.234e-5
-1.057, -9.234e-5
-1.056, -9.234e-5
-1.055, -9.542e-5
-1.054, -9.542e-5
-1.053, -9.542e-5
-1.052, -9.850e-5
-1.051, -9.850e-5
-1.050, -9.850e-5
-1.049, -9.850e-5
-1.048, -1.016e-4
-1.047, -1.016e-4
-1.046, -1.016e-4
-1.045, -1.016e-4
-1.044, -1.047e-4
-1.043, -1.047e-4
-1.042, -1.047e-4
-1.041, -1.078e-4
-1.040, -1.078e-4
-1.039, -1.078e-4
-1.038, -1.078e-4
-1.037, -1.108e-4
-1.036, -1.108e-4
-1.035, -1.108e-4
-1.034, -1.139e-4
-1.033, -1.139e-4
-1.032, -1.139e-4
-1.031, -1.139e-4
-1.030, -1.170e-4
-1.029, -1.170e-4
-1.028, -1.201e-4
-1.027, -1.201e-4
-1.026, -1.201e-4
-1.025, -1.232e-4
-1.024, -1.232e-4
-1.023, -1.232e-4
-1.022, -1.263e-4
-1.021, -1.263e-4
-1.020, -1.263e-4
-1.019, -1.293e-4
-1.018, -1.293e-4
-1.017, -1.293e-4
-1.016, -1.324e-4
-1.015, -1.324e-4
-1.014, -1.355e-4
-1.013, -1.355e-4
-1.012, -1.355e-4
-1.011, -1.386e-4
-1.010, -1.386e-4
-1.009, -1.417e-4
-1.008, -1.417e-4
-1.007, -1.417e-4
-1.006, -1.448e-4
-1.005, -1.448e-4
-1.004, -1.478e-4
-1.003, -1.478e-4
-1.002, -1.478e-4
-1.001, -1.509e-4
