Potential V vs RHE, Current mA cm-2
0.013299999999999867,-3.6655169779503103
0.012299999999999978,-6.93774421453814
0.011299999999999866,-9.59740145828441
0.010299999999999976,-11.909039722263879
0.009299999999999864,-13.916515056772363
0.008299999999999974,-15.70329542850191
0.007299999999999862,-17.316066310348052
0.006299999999999972,-18.80151317520634
0.00529999999999986,-20.10304757108217
0.0042999999999999705,-21.461170418952605
0.0032999999999998586,-22.63538079784059
0.0022999999999999687,-23.823738289727217
0.0012999999999998568,-24.870624651627345
0.00029999999999996696,-25.77603988354097
-0.000700000000000145,-26.69560222845324
-0.0017000000000000348,-27.487840556377662
-0.0027000000000001467,-28.22349043230748
-0.0037000000000000366,-28.8742576302454
-0.0047000000000001485,-29.581613280177915
-0.005700000000000038,-30.274821817111786
-0.00670000000000015,-30.925589015049702
-0.00770000000000004,-31.57635621298762
-0.008700000000000152,-32.32615320191609
-0.009700000000000042,-32.93447906085806
-0.010700000000000154,-33.627687597791926
-0.011700000000000044,-34.278454795729836
-0.012700000000000156,-34.85848642867451
-0.013700000000000045,-35.38192960962457
-0.014700000000000157,-35.90537279057463
-0.015700000000000047,-36.28734484153819
-0.01670000000000016,-36.725905344496354
-0.01770000000000005,-37.037141830466666
-0.01870000000000016,-37.47570233342482
-0.01970000000000005,-37.90011572338433
-0.020700000000000163,-38.33867622634249
-0.021700000000000053,-38.86211940729255
-0.022700000000000164,-39.30067991025072
-0.023700000000000054,-39.78168175220483
-0.024700000000000166,-40.220242255162994
-0.025700000000000056,-40.65880275812115
-0.026700000000000168,-41.04077480908471
-0.027700000000000058,-41.352011295055014
-0.02870000000000017,-41.56421799003478
-0.02970000000000006,-41.87545447600508
-0.03070000000000017,-42.130102509980794
-0.03170000000000006,-42.39889765695515
-0.03270000000000017,-42.653545690930855
-0.03370000000000006,-42.92234083790521
-0.034700000000000175,-43.31846000186743
-0.035700000000000065,-43.61554937483908
-0.03670000000000018,-43.92678586080939
-0.03770000000000007,-44.3229050247716
-0.03870000000000018,-44.577553058747306
-0.03970000000000007,-44.80390686672572
-0.04070000000000018,-45.01611356170547
-0.04170000000000007,-45.22832025668522
-0.04270000000000018,-45.412232725667685
-0.04370000000000007,-45.53955674265553
-0.044700000000000184,-45.70932209863933
-0.045700000000000074,-45.89323456762179
-0.046700000000000186,-46.062999923605595
-0.047700000000000076,-46.3176479575813
-0.04870000000000019,-46.544001765559706
-0.04970000000000008,-46.79864979953541
-0.05070000000000019,-47.067444946509774
-0.05170000000000008,-47.32209298048547
-0.05270000000000019,-47.506005449467935
-0.05370000000000008,-47.71821214444768
-0.05470000000000019,-47.8879775004315
-0.05570000000000008,-47.987007291422046
-0.056700000000000195,-48.071889969413945
-0.057700000000000085,-48.156772647405845
-0.058700000000000196,-48.32653800338966
-0.059700000000000086,-48.51045047237211
-0.0607000000000002,-48.72265716735186
-0.06170000000000009,-48.93486386233162
-0.0627000000000002,-49.20365900930597
-0.06370000000000009,-49.41586570428573
-0.0647000000000002,-49.72710219025603
-0.06570000000000009,-49.81198486824794
-0.0667000000000002,-50.0807800152223
-0.0677000000000001,-50.1656626932142
-0.0687000000000002,-50.29298671020206
-0.0697000000000001,-50.335428049198
-0.07070000000000021,-50.42031072718991
-0.0717000000000001,-50.46275206618586
-0.07270000000000021,-50.68910587416426
-0.0737000000000001,-50.77398855215617
-0.07470000000000021,-50.98619524713592
-0.0757000000000001,-51.21254905511432
-0.07670000000000021,-51.424755750094086
-0.0777000000000001,-51.69355089706845
-0.07870000000000021,-51.86331625305225
-0.0797000000000001,-52.033081609036046
-0.08070000000000022,-52.17455273902255
-0.0817000000000001,-52.30187675601041
-0.08270000000000022,-52.34431809500636
-0.08370000000000011,-52.471642111994214
-0.08470000000000022,-52.514083450990164
-0.08570000000000011,-52.64140746797801
-0.08670000000000022,-52.78287859796452
-0.08770000000000011,-52.995085292944275
-0.08870000000000022,-53.22143910092268
-0.08970000000000011,-53.39120445690648
-0.09070000000000022,-53.603411151886235
-0.09170000000000011,-53.872206298860604
-0.09270000000000023,-54.0419716548444
-0.09370000000000012,-54.2117370108282
-0.09470000000000023,-54.35320814081471
-0.09570000000000012,-54.39564947981066
-0.09670000000000023,-54.52297349679851
-0.09770000000000012,-54.60785617479041
-0.09870000000000023,-54.69273885278232
-0.09970000000000012,-54.919092660760725
-0.10070000000000023,-55.046416677748574
-0.10170000000000012,-55.25862337272834
-0.10270000000000024,-55.484977180706736
-0.10370000000000013,-55.65474253669055
-0.10470000000000024,-55.9235376836649
-0.10570000000000013,-56.093303039648696
-0.10670000000000024,-56.26306839563251
-0.10770000000000013,-56.404539525619015
-0.10870000000000024,-56.489422203610914
-0.10970000000000013,-56.57430488160282
-0.11070000000000024,-56.65918755959472
-0.11170000000000013,-56.74407023758662
-0.11270000000000002,-56.927982706569075
-0.11370000000000013,-57.097748062552874
-0.11470000000000002,-57.30995475753264
-0.11570000000000014,-57.53630856551105
-0.11670000000000003,-57.79095659948675
-0.11770000000000014,-58.05975174646111
-0.11870000000000003,-58.27195844144086
-0.11970000000000014,-58.54075358841522
-0.12070000000000003,-58.71051894439902
-0.12170000000000014,-58.83784296138688
-0.12270000000000003,-58.97931409137338
-0.12370000000000014,-59.10663810836124
-0.12470000000000003,-59.27640346434504
-0.12570000000000014,-59.502757272323436
-0.12670000000000003,-59.67252262830725
-0.12770000000000015,-59.92717066228296
-0.12870000000000004,-60.28084848724921
-0.12970000000000015,-60.54964363422357
-0.13070000000000004,-60.889174346191176
-0.13170000000000015,-61.15796949316553
-0.13270000000000004,-61.412617527141244
-0.13370000000000015,-61.5965299961237
-0.13470000000000004,-61.80873669110345
-0.13570000000000015,-61.97850204708726
-0.13670000000000004,-62.20485585506566
-0.13770000000000016,-62.33217987205352
-0.13870000000000005,-62.544386567033264
-0.13970000000000016,-62.81318171400764
-0.14070000000000005,-63.06782974798333
-0.14170000000000016,-63.37906623395363
-0.14270000000000005,-63.732744058919906
-0.14370000000000016,-64.02983343189156
-0.14470000000000005,-64.38351125685783
-0.14570000000000016,-64.68060062982947
-0.14670000000000005,-64.94939577680383
-0.14770000000000016,-65.20404381077954
-0.14870000000000005,-65.43039761875795
-0.14970000000000017,-65.68504565273366
-0.15070000000000006,-65.91139946071206
-0.15170000000000017,-66.16604749468777
-0.15270000000000006,-66.47728398065809
-0.15370000000000017,-66.77437335362974
-0.15470000000000006,-67.128051178596
-0.15570000000000017,-67.52417034255821
-0.15670000000000006,-67.82125971552985
-0.15770000000000017,-68.25982021848802
-0.15870000000000006,-68.65593938245023
-0.15970000000000018,-69.0096172074165
-0.16070000000000007,-69.30670658038814
-0.16170000000000018,-69.61794306635846
-0.16270000000000007,-69.91503243933012
-0.16370000000000018,-70.22626892530042
-0.16470000000000007,-70.48091695927613
-0.16570000000000018,-70.8345947842424
-0.16670000000000007,-71.1458312702127
-0.16770000000000018,-71.58439177317086
-0.16870000000000007,-72.00880516313036
-0.16970000000000018,-72.44736566608852
-0.17070000000000007,-72.8859261690467
-0.17170000000000019,-73.40936934999675
-0.17270000000000008,-73.80548851395896
-0.1737000000000002,-74.24404901691713
-0.17470000000000008,-74.58357972888473
-0.1757000000000002,-74.89481621485504
-0.17670000000000008,-75.19190558782671
-0.1777000000000002,-75.54558341279296
-0.17870000000000008,-75.8992612377592
-0.1797000000000002,-76.29538040172143
-0.18070000000000008,-76.71979379168094
-0.1817000000000002,-77.20079563363505
-0.18270000000000008,-77.68179747558916
-0.1837000000000002,-78.16279931754329
-0.1847000000000001,-78.72868383748929
-0.1857000000000002,-79.16724434044745
-0.1867000000000001,-79.60580484340561
-0.1877000000000002,-80.04436534636378
-0.1887000000000001,-80.42633739732734
-0.1897000000000002,-80.86489790028548
-0.1907000000000001,-81.21857572525175
-0.1917000000000001,-81.61469488921396
-0.19269999999999998,-82.03910827917348
-0.1937000000000001,-82.47766878213164
-0.19469999999999998,-83.0011119630817
-0.1957000000000001,-83.52455514403178
-0.19669999999999999,-84.00555698598588
-0.1977000000000001,-84.61388284492786
-0.1987,-85.09488468688197
-0.1997000000000001,-85.57588652883607
-0.2007,-86.09932970978613
-0.2017000000000001,-86.5378902127443
-0.2027,-86.97645071570246
-0.2037000000000001,-87.41501121866061
-0.2047,-87.79698326962418
-0.2057000000000001,-88.23554377258235
-0.2067,-88.6741042755405
-0.2077000000000001,-89.19754745649055
-0.2087,-89.72099063744062
-0.2097000000000001,-90.28687515738663
-0.2107,-90.81031833833671
-0.2117000000000001,-91.37620285828272
-0.2127,-91.89964603923279
-0.2137000000000001,-92.42308922018285
-0.2147,-92.86164972314101
-0.2157000000000001,-93.46997558208298
-0.2167,-93.86609474604518
-0.21770000000000012,-94.30465524900335
-0.2187,-94.7432157519615
-0.21970000000000012,-95.30910027190752
-0.2207,-95.83254345285758
-0.22170000000000012,-96.3984279728036
-0.2227,-96.96431249274961
-0.22370000000000012,-97.57263835169158
-0.2247,-98.2234055496295
-0.22570000000000012,-98.7892900695755
-0.2267,-99.35517458952152
-0.22770000000000012,-99.83617643147564
-0.22870000000000001,-100.35961961242569
-0.22970000000000013,-100.88306279337576
-0.23070000000000002,-101.40650597432582
-0.23170000000000013,-101.88750781627995
-0.23270000000000002,-102.45339233622596
-0.23370000000000013,-102.97683551717601
-0.23470000000000002,-103.54272003712204
-0.23570000000000013,-104.16519300906265
-0.23670000000000002,-104.73107752900866
-0.2376999999999999,-105.38184472694657
-0.23870000000000002,-105.99017058588855
-0.2396999999999999,-106.55605510583456
-0.24070000000000003,-107.12193962578058
-0.24169999999999991,-107.6029414677347
-0.24270000000000003,-108.1688259876807
-0.24369999999999992,-108.73471050762672
-0.24470000000000003,-109.21571234958083
-0.24569999999999992,-109.78159686952685
-0.24670000000000003,-110.3050400504769
-0.24769999999999992,-110.92751302241753
-0.24870000000000003,-111.57828022035544
-0.24969999999999992,-112.18660607929739
-0.25070000000000003,-112.83737327723534
-0.2516999999999999,-113.48814047517324
-0.25270000000000004,-114.11061344711386
-0.2536999999999999,-114.71893930605583
-0.25470000000000004,-115.28482382600184
-0.2556999999999999,-115.76582566795594
-0.25670000000000004,-116.28926884890602
-0.25769999999999993,-116.77027069086012
-0.25870000000000004,-117.33615521080614
-0.25969999999999993,-117.85959839175621
-0.26070000000000004,-118.51036558969413
-0.26169999999999993,-119.1186914486361
-0.26270000000000004,-119.81189998556997
-0.26369999999999993,-120.43437295751058
-0.26470000000000005,-121.21246417243634
-0.26569999999999994,-121.82079003137831
-0.26670000000000005,-122.48570434231489
-0.26769999999999994,-123.09403020125686
-0.26870000000000005,-123.6174733822069
-0.26969999999999994,-124.18335790215292
-0.27070000000000005,-124.70680108310299
-0.27169999999999994,-125.23024426405304
-0.27270000000000005,-125.79612878399907
-0.27369999999999994,-126.44689598193698
-0.27470000000000006,-127.05522184087894
-0.27569999999999995,-127.80501882980741
-0.27670000000000006,-128.45578602774532
-0.27769999999999995,-129.1489945646792
-0.27870000000000006,-129.8563502146117
-0.27969999999999995,-130.5495587515456
-0.28070000000000006,-131.2003259494835
-0.28169999999999995,-131.76621046942952
-0.28270000000000006,-132.2896536503796
-0.28369999999999995,-132.89797950932152
-0.28470000000000006,-133.4214226902716
-0.28569999999999995,-134.04389566221224
-0.28670000000000007,-134.6522215211542
-0.28769999999999996,-135.3029887190921
-0.28870000000000007,-135.95375591703004
-0.28969999999999996,-136.66111156696255
-0.29070000000000007,-137.3543201038964
-0.29169999999999996,-138.08996997982624
-0.29270000000000007,-138.6982958387682
-0.29369999999999996,-139.36321014970477
-0.2947000000000001,-140.01397734764268
-0.29569999999999996,-140.53742052859275
-0.2967000000000001,-141.14574638753473
-0.29769999999999996,-141.75407224647665
-0.2987000000000001,-142.31995676642268
-0.29969999999999997,-142.8858412863687
-0.3007000000000001,-143.5931969363012
-0.30169999999999997,-144.30055258623375
-0.3027000000000001,-145.00790823616626
-0.30369999999999997,-145.7152638860988
-0.3047000000000001,-146.4226195360313
-0.30569999999999997,-147.1299751859638
-0.3067000000000001,-147.83733083589632
-0.3077,-148.40321535584232
-0.3087000000000001,-148.96909987578834
-0.3097,-149.6764555257209
-0.3107000000000001,-150.24234004566688
-0.3117,-150.8082245656129
-0.3127000000000001,-151.5155802155454
-0.3137,-152.0814647354914
-0.3147000000000001,-152.78882038542397
-0.3157,-153.63764716534297
-0.3167000000000001,-154.3450028152755
-0.3177,-155.05235846520802
-0.3187000000000001,-155.75971411514055
-0.3197,-156.46706976507306
-0.3207000000000001,-157.17442541500557
-0.3217,-157.7403099349516
-0.3227000000000001,-158.4476655848841
-0.3237,-159.15502123481662
-0.3247000000000001,-159.72090575476264
-0.3257,-160.42826140469515
-0.3267000000000001,-161.1356170546277
-0.3277,-161.84297270456022
-0.3287000000000001,-162.5503283544927
-0.3297,-163.39915513441173
-0.3307000000000001,-164.10651078434424
-0.3317,-164.81386643427678
-0.3327000000000001,-165.5212220842093
-0.3337,-166.3700488641283
-0.3347000000000001,-167.07740451406085
-0.3357,-167.6432890340068
-0.3367000000000001,-168.35064468393938
-0.3377,-169.0580003338719
-0.3387000000000001,-169.7653559838044
-0.3397,-170.47271163373694
-0.3407000000000001,-171.18006728366944
-0.3417,-172.0288940635885
-0.3427000000000001,-172.87772084350746
-0.3437,-173.58507649344
-0.3447000000000001,-174.43390327335902
-0.3457,-175.28273005327804
-0.3467000000000001,-175.99008570321055
-0.3477,-176.6974413531431
-0.3487000000000001,-177.4047970030756
-0.3497,-178.25362378299462
-0.3507000000000001,-178.96097943292713
-0.3517,-179.66833508285964
-0.3527000000000001,-180.37569073279218
-0.3537,-181.2245175127112
-0.3547000000000001,-182.07334429263022
-0.3557,-182.92217107254925
-0.35670000000000013,-183.91246898245475
-0.3577,-184.7612957623738
-0.35870000000000013,-185.6101225422928
-0.3597,-186.45894932221185
-0.36070000000000013,-187.30777610213087
-0.3617,-188.01513175206335
-0.3626999999999999,-188.8639585319824
-0.3637,-189.71278531190143
-0.3646999999999999,-190.42014096183394
-0.3657,-191.268967741753
-0.3666999999999999,-192.11779452167198
-0.3677,-192.966621301591
-0.3686999999999999,-193.9569192114965
-0.36970000000000003,-194.94721712140205
-0.3706999999999999,-195.93751503130758
-0.37170000000000003,-196.92781294121312
-0.3726999999999999,-197.91811085111863
-0.37370000000000003,-198.90840876102413
-0.3746999999999999,-199.75723554094319
-0.37570000000000003,-200.6060623208622
-0.3766999999999999,-201.4548891007812
-0.37770000000000004,-202.44518701068677
-0.3786999999999999,-203.29401379060576
-0.37970000000000004,-204.2843117005113
-0.3806999999999999,-205.27460961041683
-0.38170000000000004,-206.26490752032234
-0.38269999999999993,-207.3966765602144
-0.38370000000000004,-208.3869744701199
-0.38469999999999993,-209.51874351001192
-0.38570000000000004,-210.65051254990397
-0.38669999999999993,-209.0943301200524
-0.38570000000000004,-203.29401379060576
-0.38469999999999993,-198.3425242410781
-0.38370000000000004,-193.9569192114965
-0.38269999999999993,-189.99572757187443
-0.38170000000000004,-186.17600706223882
-0.3806999999999999,-182.63922881257625
-0.37970000000000004,-179.38539282288664
-0.3786999999999999,-176.27302796318358
-0.37770000000000004,-173.302134233467
-0.3766999999999999,-170.47271163373694
-0.37570000000000003,-167.6432890340068
-0.3746999999999999,-164.9553375642633
-0.37370000000000003,-162.2673860945197
-0.3726999999999999,-159.72090575476264
-0.37170000000000003,-157.17442541500557
-0.3706999999999999,-154.6279450752485
-0.36970000000000003,-152.0814647354914
-0.3686999999999999,-149.53498439573437
-0.3677,-147.27144631595033
-0.3666999999999999,-144.72496597619326
-0.3657,-142.4614278964092
-0.3646999999999999,-140.2686253816184
-0.3637,-138.08996997982624
-0.3626999999999999,-135.95375591703004
-0.3617,-133.77510051523788
-0.36070000000000013,-131.68132779143764
-0.3597,-129.6299964066333
-0.35870000000000013,-127.45134100484115
-0.3577,-125.35756828104091
-0.35670000000000013,-123.2213542182447
-0.3557,-121.12758149444444
-0.3547000000000001,-119.1186914486361
-0.3537,-117.15224274182368
-0.3527000000000001,-115.19994114800993
-0.3517,-113.27593378019348
-0.3507000000000001,-111.35192641237703
-0.3497,-109.52694883555114
-0.3487000000000001,-107.68782414572658
-0.3477,-105.90528790789664
-0.3467000000000001,-104.12275167006669
-0.3457,-102.28362698024215
-0.3447000000000001,-100.45864940341626
-0.3437,-98.66196605258766
-0.3427000000000001,-96.92187115375367
-0.3417,-95.18177625491967
-0.3407000000000001,-93.46997558208298
-0.3397,-91.81476336124088
-0.3387000000000001,-90.20199247939475
-0.3377,-88.5892215975486
-0.3367000000000001,-86.97645071570246
-0.3357,-85.40612117285227
-0.3347000000000001,-83.87823296899803
-0.3337,-82.26546208715187
-0.3327000000000001,-80.65269120530574
-0.3317,-79.0399203234596
-0.3307000000000001,-77.42714944161345
-0.3297,-75.85681989876326
-0.3287000000000001,-74.20160767792116
-0.3277,-72.75860215205884
-0.3267000000000001,-71.2307139482046
-0.3257,-69.8301497613382
-0.3247000000000001,-68.52861536546239
-0.3237,-67.08560983960004
-0.3227000000000001,-65.76992833072556
-0.3217,-64.42595259585376
-0.3207000000000001,-63.06782974798333
-0.3197,-61.7662953521075
-0.3187000000000001,-60.32328982624517
-0.3177,-58.92272563937878
-0.3167000000000001,-57.493867226515086
-0.3157,-56.008420361656796
-0.3147000000000001,-54.65029751378637
-0.3137,-53.26388043991864
-0.3127000000000001,-51.948198931044146
-0.3117,-50.68910587416426
-0.3107000000000001,-49.458307043281685
-0.3097,-48.2840966643937
-0.3087000000000001,-47.10988628550572
-0.3077,-45.89323456762179
-0.3067000000000001,-44.66243573673921
-0.30569999999999997,-43.36090134086337
-0.3047000000000001,-42.087661170984845
-0.30369999999999997,-40.87100945310091
-0.3027000000000001,-39.61191639622103
-0.30169999999999997,-38.33867622634249
-0.3007000000000001,-37.164465847454515
-0.29969999999999997,-35.99025546856653
-0.2987000000000001,-34.85848642867451
-0.29769999999999996,-33.755011614779775
-0.2967000000000001,-32.764713704874254
-0.29569999999999996,-31.717827342974125
-0.2947000000000001,-30.614352529079397
-0.29369999999999996,-29.581613280177915
-0.29270000000000007,-28.478138466283188
-0.29169999999999996,-27.34636942639116
-0.29070000000000007,-26.257041725495082
-0.28969999999999996,-25.167714024599
-0.28870000000000007,-23.993503645711023
-0.28769999999999996,-22.946617283810895
-0.28670000000000007,-21.899730921910766
-0.28569999999999995,-20.89528589900659
-0.28470000000000006,-19.93328221509837
-0.28369999999999995,-18.97127853119014
-0.28270000000000006,-18.06586329927652
-0.28169999999999995,-17.146300954364243
-0.28070000000000006,-16.184297270456018
-0.27969999999999995,-15.222293586547794
-0.27870000000000006,-14.217848563643619
-0.27769999999999995,-13.175206335643086
-0.27670000000000006,-12.170761312738911
-0.27569999999999995,-11.123874950838783
-0.27470000000000006,-10.164700689530287
-0.27369999999999994,-9.205526428221793
-0.27270000000000005,-8.288793505909249
-0.27169999999999994,-7.4173313451923875
-0.27070000000000005,-6.54445447317566
-0.26969999999999994,-5.715433651454749
-0.26870000000000005,-4.887827541033701
-0.26769999999999994,-4.014950669016974
-0.26670000000000005,-3.1420737970002466
-0.26569999999999994,-2.1828995356917518
