Potential V vs RHE, Current mA cm-2
0.013299999999999867,-1.2291011773227438
0.012299999999999978,-1.3076176544652534
0.011299999999999866,-1.3722699608690856
0.010299999999999976,-1.4288584128636872
0.009299999999999864,-1.4840321535584236
0.008299999999999974,-1.5349617603535646
0.007299999999999862,-1.584476655848841
0.006299999999999972,-1.6339915513441174
0.00529999999999986,-1.6806770242396636
0.0042999999999999705,-1.7231183632356148
0.0032999999999998586,-1.766974413531431
0.0022999999999999687,-1.8094157525273817
0.0012999999999998568,-1.8518570915233332
0.00029999999999996696,-1.892883719219419
-0.000700000000000145,-1.9367397695152353
-0.0017000000000000348,-1.9777663972113213
-0.0027000000000001467,-2.020207736207272
-0.0037000000000000366,-2.0626490752032236
-0.0047000000000001485,-2.1065051254990395
-0.005700000000000038,-2.1475317531951257
-0.00670000000000015,-2.1885583808912115
-0.00770000000000004,-2.229585008587298
-0.008700000000000152,-2.2691969249835187
-0.009700000000000042,-2.3116382639794697
-0.010700000000000154,-2.358323736875016
-0.011700000000000044,-2.3979356532712375
-0.012700000000000156,-2.438962280967323
-0.013700000000000045,-2.4814036199632743
-0.014700000000000157,-2.5266743815589554
-0.015700000000000047,-2.5691157205549064
-0.01670000000000016,-2.6143864821505876
-0.01770000000000005,-2.655413109846674
-0.01870000000000016,-2.697854448842625
-0.01970000000000005,-2.740295787838576
-0.020700000000000163,-2.7813224155346625
-0.021700000000000053,-2.8280078884302084
-0.022700000000000164,-2.8690345161262942
-0.023700000000000054,-2.91571998902184
-0.024700000000000166,-2.965234884517117
-0.025700000000000056,-3.0119203574126634
-0.026700000000000168,-3.0600205416080746
-0.027700000000000058,-3.110950148403216
-0.02870000000000017,-3.1576356212987617
-0.02970000000000006,-3.207150516794038
-0.03070000000000017,-3.253835989689584
-0.03170000000000006,-3.3061803077845906
-0.03270000000000017,-3.361354048479327
-0.03370000000000006,-3.412283655274469
-0.034700000000000175,-3.4632132620696097
-0.035700000000000065,-3.5169722914644814
-0.03670000000000018,-3.573560743459083
-0.03770000000000007,-3.630149195453684
-0.03870000000000018,-3.688152358748151
-0.03970000000000007,-3.748984944642347
-0.04070000000000018,-3.801329262737354
-0.04170000000000007,-3.855088292132225
-0.04270000000000018,-3.9173355893262864
-0.04370000000000007,-3.973924041320888
-0.044700000000000184,-4.033341915915219
-0.045700000000000074,-4.091345079209686
-0.046700000000000186,-4.159251221603208
-0.047700000000000076,-4.220083807497405
-0.04870000000000019,-4.276672259492005
-0.04970000000000008,-4.345993113185393
-0.05070000000000019,-4.415313966878779
-0.05170000000000008,-4.481805397972437
-0.05270000000000019,-4.5497115403659585
-0.05370000000000008,-4.61761768275948
-0.05470000000000019,-4.689767959052596
-0.05570000000000008,-4.756259390146253
-0.056700000000000195,-4.826994955139505
-0.057700000000000085,-4.903389365332218
-0.058700000000000196,-4.978369064225063
-0.059700000000000086,-5.051934051818047
-0.0607000000000002,-5.131157884610488
-0.06170000000000009,-5.201893449603739
-0.0627000000000002,-5.283946704995913
-0.06370000000000009,-5.3631705377883545
-0.0647000000000002,-5.431076680181876
-0.06570000000000009,-5.5145446468739125
-0.0667000000000002,-5.60367145876541
-0.0677000000000001,-5.697042404556503
-0.0687000000000002,-5.779095659948675
-0.0697000000000001,-5.858319492741117
-0.07070000000000021,-5.944616882032884
-0.0717000000000001,-6.0323289826245166
-0.07270000000000021,-6.124285217115744
-0.0737000000000001,-6.217656162906836
-0.07470000000000021,-6.305368263498468
-0.0757000000000001,-6.407227477088751
-0.07670000000000021,-6.510501401978899
-0.0777000000000001,-6.605287059069856
-0.07870000000000021,-6.711390406559734
-0.0797000000000001,-6.820323176649342
-0.08070000000000022,-6.922182390239625
-0.0817000000000001,-7.032529871629097
-0.08270000000000022,-7.131559662619649
-0.08370000000000011,-7.246151277908718
-0.08470000000000022,-7.35366933669846
-0.08570000000000011,-7.456943261588608
-0.08670000000000022,-7.5814378559767315
-0.08770000000000011,-7.6960294712658
-0.08870000000000022,-7.819109354354057
-0.08970000000000011,-7.93228625834326
-0.09070000000000022,-8.0440484510326
-0.09170000000000011,-8.184104869719237
-0.09270000000000023,-8.301525907608035
-0.09370000000000012,-8.424605790696294
-0.09470000000000023,-8.567491631982662
-0.09570000000000012,-8.690571515070921
-0.09670000000000023,-8.822139665958368
-0.09770000000000012,-8.955122528145683
-0.09870000000000023,-9.085275967733265
-0.09970000000000012,-9.24089421071842
-0.10070000000000023,-9.385194763304654
-0.10170000000000012,-9.530910027190751
-0.10270000000000024,-9.679454713676583
-0.10370000000000013,-9.826584688862544
-0.10470000000000024,-9.979373509247969
-0.10570000000000013,-10.130747618333528
-0.10670000000000024,-10.290609995218277
-0.10770000000000013,-10.456131217302488
-0.10870000000000024,-10.60043176988872
-0.10970000000000013,-10.7631235693732
-0.11070000000000024,-10.930059502757274
-0.11170000000000013,-11.081433611842833
-0.11270000000000002,-11.271004926024748
-0.11370000000000013,-11.433696725509227
-0.11470000000000002,-11.596388524993706
-0.11570000000000014,-11.778886282676295
-0.11670000000000003,-11.937333948261179
-0.11770000000000014,-12.118416994643903
-0.11870000000000003,-12.282523505428248
-0.11970000000000014,-12.476338953509758
-0.12070000000000003,-12.623468928695722
-0.12170000000000014,-12.790404862079797
-0.12270000000000003,-12.97431733106225
-0.12370000000000014,-13.148326820945652
-0.12470000000000003,-13.29404208483175
-0.12570000000000014,-13.476539842514338
-0.12670000000000003,-13.647719909798008
-0.12770000000000015,-13.823144110981273
-0.12870000000000004,-14.00139773476427
-0.12970000000000015,-14.175407224647667
-0.13070000000000004,-14.373466806628771
-0.13170000000000015,-14.529085049613924
-0.13270000000000004,-14.69885040559773
-0.13370000000000015,-14.868615761581536
-0.13470000000000004,-15.06667534356264
-0.13570000000000015,-15.250587812545096
-0.13670000000000004,-15.406206055530248
-0.13770000000000016,-15.561824298515406
-0.13870000000000005,-15.759883880496508
-0.13970000000000016,-15.91550212348166
-0.14070000000000005,-16.085267479465468
-0.14170000000000016,-16.269179948447924
-0.14270000000000005,-16.438945304431726
-0.14370000000000016,-16.60871066041553
-0.14470000000000005,-16.778476016399335
-0.14570000000000016,-16.93409425938449
-0.14670000000000005,-17.103859615368293
-0.14770000000000016,-17.2736249713521
-0.14870000000000005,-17.4150961013386
-0.14970000000000017,-17.556567231325104
-0.15070000000000006,-17.698038361311607
-0.15170000000000017,-17.839509491298113
-0.15270000000000006,-18.009274847281915
-0.15370000000000017,-18.17904020326572
-0.15470000000000006,-18.320511333252224
-0.15570000000000017,-18.461982463238726
-0.15670000000000006,-18.631747819222536
-0.15770000000000017,-18.78736606220769
-0.15870000000000006,-18.91469007919554
-0.15970000000000018,-19.070308322180697
-0.16070000000000007,-19.197632339168546
-0.16170000000000018,-19.339103469155052
-0.16270000000000007,-19.452280373144255
-0.16370000000000018,-19.565457277133458
-0.16470000000000007,-19.69278129412131
-0.16570000000000018,-19.834252424107817
-0.16670000000000007,-20.00401778009162
-0.16770000000000018,-20.14548891007812
-0.16870000000000007,-20.25866581406732
-0.16970000000000018,-20.414284057052477
-0.17070000000000007,-20.48501962204573
-0.17170000000000019,-20.612343639033586
-0.17270000000000008,-20.73966765602144
-0.1737000000000002,-20.79625610801604
-0.17470000000000008,-20.881138786007945
-0.1757000000000002,-21.050904141991744
-0.17670000000000008,-21.149933932982297
-0.1777000000000002,-21.277257949970153
-0.17870000000000008,-21.418729079956652
-0.1797000000000002,-21.503611757948562
-0.18070000000000008,-21.574347322941808
-0.1817000000000002,-21.67337711393236
-0.18270000000000008,-21.772406904922917
-0.1837000000000002,-21.871436695913467
-0.1847000000000001,-21.95631937390537
-0.1857000000000002,-22.04120205189727
-0.1867000000000001,-22.168526068885125
-0.1877000000000002,-22.225114520879725
-0.1887000000000001,-22.33829142486893
-0.1897000000000002,-22.352438537867577
-0.1907000000000001,-22.437321215859484
-0.1917000000000001,-22.522203893851387
-0.19269999999999998,-22.649527910839236
-0.1937000000000001,-22.748557701829792
-0.19469999999999998,-22.80514615382439
-0.1957000000000001,-22.87588171881764
-0.19669999999999999,-22.904175944814945
-0.1977000000000001,-23.003205735805498
-0.1987,-23.073941300798747
-0.1997000000000001,-23.1163826397947
-0.2007,-23.2012653177866
-0.2017000000000001,-23.257853769781203
-0.2027,-23.257853769781203
-0.2037000000000001,-23.314442221775803
-0.2047,-23.342736447773106
-0.2057000000000001,-23.356883560771752
-0.2067,-23.385177786769056
-0.2077000000000001,-23.49835469075826
-0.2087,-23.58323736875016
-0.2097000000000001,-23.62567870774611
-0.2107,-23.62567870774611
-0.2117000000000001,-23.724708498736668
-0.2127,-23.767149837732617
-0.2137000000000001,-23.86617962872317
-0.2147,-23.908620967719123
-0.2157000000000001,-23.951062306715073
-0.2167,-24.00765075870967
-0.21770000000000012,-24.021797871708326
-0.2187,-24.064239210704276
-0.21970000000000012,-24.149121888696175
-0.2207,-24.17741611469348
-0.22170000000000012,-24.16326900169483
-0.2227,-24.21985745368943
-0.22370000000000012,-24.31888724467998
-0.2247,-24.31888724467998
-0.22570000000000012,-24.44621126166783
-0.2267,-24.460358374666487
-0.22770000000000012,-24.40376992267188
-0.22870000000000001,-24.460358374666487
-0.22970000000000013,-24.488652600663784
-0.23070000000000002,-24.460358374666487
-0.23170000000000013,-24.559388165657033
-0.23270000000000002,-24.587682391654337
-0.23370000000000013,-24.57353527865569
-0.23470000000000002,-24.65841795664759
-0.23570000000000013,-24.757447747638142
-0.23670000000000002,-24.757447747638142
-0.2376999999999999,-24.842330425630045
-0.23870000000000002,-24.799889086634096
-0.2396999999999999,-24.799889086634096
-0.24070000000000003,-24.757447747638142
-0.24169999999999991,-24.686712182644893
-0.24270000000000003,-24.64427084364894
-0.24369999999999992,-24.70085929564354
-0.24470000000000003,-24.771594860636792
-0.24569999999999992,-24.799889086634096
-0.24670000000000003,-24.856477538628695
-0.24769999999999992,-24.856477538628695
-0.24870000000000003,-24.927213103621945
-0.24969999999999992,-24.9130659906233
-0.25070000000000003,-24.884771764625995
-0.2516999999999999,-24.95550732961925
-0.25270000000000004,-24.983801555616548
-0.2536999999999999,-24.927213103621945
-0.25470000000000004,-24.983801555616548
-0.2556999999999999,-24.997948668615198
-0.25670000000000004,-25.026242894612498
-0.25769999999999993,-25.012095781613848
-0.25870000000000004,-25.026242894612498
-0.25969999999999993,-25.012095781613848
-0.26070000000000004,-24.95550732961925
-0.26169999999999993,-24.969654442617898
-0.26270000000000004,-25.04039000761115
-0.26369999999999993,-24.997948668615198
-0.26470000000000005,-24.870624651627345
-0.26569999999999994,-24.983801555616548
-0.26670000000000005,-25.012095781613848
-0.26769999999999994,-24.983801555616548
-0.26870000000000005,-25.026242894612498
-0.26969999999999994,-24.997948668615198
-0.27070000000000005,-24.997948668615198
-0.27169999999999994,-25.012095781613848
-0.27270000000000005,-25.06868423360845
-0.27369999999999994,-25.06868423360845
-0.27470000000000006,-25.111125572604404
-0.27569999999999995,-25.1394197986017
-0.27670000000000006,-25.167714024599
-0.27769999999999995,-25.09697845960575
-0.27870000000000006,-25.012095781613848
-0.27969999999999995,-25.026242894612498
-0.28070000000000006,-25.111125572604404
-0.28169999999999995,-25.04039000761115
-0.28270000000000006,-24.969654442617898
-0.28369999999999995,-24.941360216620595
-0.28470000000000006,-24.969654442617898
-0.28569999999999995,-25.012095781613848
-0.28670000000000007,-25.026242894612498
-0.28769999999999996,-25.0828313466071
-0.28870000000000007,-24.95550732961925
-0.28969999999999996,-24.95550732961925
-0.29070000000000007,-24.927213103621945
-0.29169999999999996,-24.941360216620595
-0.29270000000000007,-24.997948668615198
-0.29369999999999996,-25.026242894612498
-0.2947000000000001,-25.026242894612498
-0.29569999999999996,-25.06868423360845
-0.2967000000000001,-25.012095781613848
-0.29769999999999996,-25.04039000761115
-0.2987000000000001,-25.111125572604404
-0.29969999999999997,-25.06868423360845
-0.3007000000000001,-24.969654442617898
-0.30169999999999997,-24.828183312631392
-0.3027000000000001,-24.969654442617898
-0.30369999999999997,-25.04039000761115
-0.3047000000000001,-24.927213103621945
-0.30569999999999997,-24.969654442617898
-0.3067000000000001,-25.054537120609798
-0.3077,-25.026242894612498
-0.3087000000000001,-25.04039000761115
-0.3097,-24.969654442617898
-0.3107000000000001,-24.95550732961925
-0.3117,-24.983801555616548
-0.3127000000000001,-24.870624651627345
-0.3137,-24.828183312631392
-0.3147000000000001,-24.941360216620595
-0.3157,-24.898918877624645
-0.3167000000000001,-24.842330425630045
-0.3177,-24.9130659906233
-0.3187000000000001,-24.828183312631392
-0.3197,-24.842330425630045
-0.3207000000000001,-24.997948668615198
-0.3217,-24.870624651627345
-0.3227000000000001,-24.828183312631392
-0.3237,-24.757447747638142
-0.3247000000000001,-24.686712182644893
-0.3257,-24.70085929564354
-0.3267000000000001,-24.601829504652986
-0.3277,-24.67256506964624
-0.3287000000000001,-24.828183312631392
-0.3297,-24.729153521640843
-0.3307000000000001,-24.64427084364894
-0.3317,-24.67256506964624
-0.3327000000000001,-24.61597661765164
-0.3337,-24.559388165657033
-0.3347000000000001,-24.545241052658387
-0.3357,-24.516946826661083
-0.3367000000000001,-24.44621126166783
-0.3377,-24.460358374666487
-0.3387000000000001,-24.34718147067728
-0.3397,-24.31888724467998
-0.3407000000000001,-24.44621126166783
-0.3417,-24.432064148669184
-0.3427000000000001,-24.34718147067728
-0.3437,-24.304740131681328
-0.3447000000000001,-24.21985745368943
-0.3457,-24.27644590568403
-0.3467000000000001,-24.191563227692125
-0.3477,-24.304740131681328
-0.3487000000000001,-24.37547569667458
-0.3497,-24.389622809673234
-0.3507000000000001,-24.389622809673234
-0.3517,-24.262298792685378
-0.3527000000000001,-24.120827662698876
-0.3537,-24.20571034069078
-0.3547000000000001,-24.20571034069078
-0.3557,-24.149121888696175
-0.35670000000000013,-24.21985745368943
-0.3577,-24.17741611469348
-0.35870000000000013,-24.37547569667458
-0.3597,-24.417917035670534
-0.36070000000000013,-24.36132858367593
-0.3617,-24.40376992267188
-0.3626999999999999,-24.417917035670534
-0.3637,-24.31888724467998
-0.3646999999999999,-24.417917035670534
-0.3657,-24.34718147067728
-0.3666999999999999,-24.516946826661083
-0.3677,-24.389622809673234
-0.3686999999999999,-24.474505487665134
-0.36970000000000003,-24.21985745368943
-0.3706999999999999,-24.191563227692125
-0.37170000000000003,-24.304740131681328
-0.3726999999999999,-24.33303435767863
-0.37370000000000003,-24.290593018682678
-0.3746999999999999,-24.24815167968673
-0.37570000000000003,-24.290593018682678
-0.3766999999999999,-24.16326900169483
-0.37770000000000004,-24.035944984706973
-0.3786999999999999,-23.93691519371642
-0.37970000000000004,-23.823738289727217
-0.3806999999999999,-24.050092097705623
-0.38170000000000004,-24.106680549700226
-0.38269999999999993,-23.993503645711023
-0.38370000000000004,-23.908620967719123
-0.38469999999999993,-24.021797871708326
-0.38570000000000004,-23.88032674172182
-0.38669999999999993,-23.696414272739364
-0.38570000000000004,-23.300295108777156
-0.38469999999999993,-22.989058622806844
-0.38370000000000004,-22.649527910839236
-0.38269999999999993,-22.592939458844636
-0.38170000000000004,-22.352438537867577
-0.3806999999999999,-21.92802514790807
-0.37970000000000004,-21.63093577493641
-0.3786999999999999,-21.503611757948562
-0.37770000000000004,-21.149933932982297
-0.3766999999999999,-20.95187435100119
-0.37570000000000003,-20.75381476902009
-0.3746999999999999,-20.414284057052477
-0.37370000000000003,-20.202077362072725
-0.3726999999999999,-20.00401778009162
-0.37170000000000003,-19.904987989101066
-0.3706999999999999,-19.523015938137508
-0.36970000000000003,-19.2683679041618
-0.3686999999999999,-19.098602548177997
-0.3677,-18.91469007919554
-0.3666999999999999,-18.815660288204988
-0.3657,-18.645894932221182
-0.3646999999999999,-18.49027668923603
-0.3637,-18.13659886426977
-0.3626999999999999,-17.910245056291366
-0.3617,-17.514125892329155
-0.36070000000000013,-17.259477858353446
-0.3597,-17.160448067362896
-0.35870000000000013,-16.90580003338719
-0.3577,-16.736034677403385
-0.35670000000000013,-16.56626932141958
-0.3557,-16.28332706144657
-0.3547000000000001,-16.127708818461418
-0.3537,-16.000384801473565
-0.3527000000000001,-15.844766558488407
-0.3517,-15.78817810649381
-0.3507000000000001,-15.660854089505953
-0.3497,-15.293029151541045
-0.3487000000000001,-15.06667534356264
-0.3477,-14.882762874580186
-0.3467000000000001,-14.65640906660178
-0.3457,-14.472496597619326
-0.3447000000000001,-14.458349484620674
-0.3437,-14.288584128636872
-0.3427000000000001,-14.10891579355401
-0.3417,-14.004227157363998
-0.3407000000000001,-13.813241131882217
-0.3397,-13.726943742590452
-0.3387000000000001,-13.459563306915959
-0.3377,-13.219062385938905
-0.3367000000000001,-13.032320494356718
-0.3357,-12.998367423159957
-0.3347000000000001,-12.74654881178398
-0.3337,-12.528683271604763
-0.3327000000000001,-12.443800593612863
-0.3317,-12.235838032532703
-0.3307000000000001,-12.109928726844714
-0.3297,-11.978360575957266
-0.3287000000000001,-11.92318683526253
-0.3277,-11.831230600771303
-0.3267000000000001,-11.457746817606932
-0.3257,-11.297884440722184
-0.3247000000000001,-11.246954833927042
-0.3237,-11.064457076244452
-0.3227000000000001,-10.931474214057138
-0.3217,-10.806979619669015
-0.3207000000000001,-10.690973293080082
-0.3197,-10.596187635989125
-0.3187000000000001,-10.463204773801811
-0.3177,-10.277877593519491
-0.3167000000000001,-10.151968287831503
-0.3157,-10.119429927934608
-0.3147000000000001,-10.098209258436631
-0.3137,-10.02464427084365
-0.3127000000000001,-9.82799940016241
-0.3117,-9.771410948167809
-0.3107000000000001,-9.628525106881439
-0.3097,-9.528080604591022
-0.3087000000000001,-9.40924485540236
-0.3077,-9.371047650306002
-0.3067000000000001,-9.222502963820174
-0.30569999999999997,-9.160255666626112
-0.3047000000000001,-9.109326059830972
-0.30369999999999997,-9.030102227038528
-0.3027000000000001,-8.960781373345142
-0.30169999999999997,-8.789601306061472
-0.3007000000000001,-8.733012854066871
-0.29969999999999997,-8.580224033681448
-0.2987000000000001,-8.469876552291973
-0.29769999999999996,-8.338308401404527
-0.2967000000000001,-8.276061104210465
-0.29569999999999996,-8.12044286122531
-0.2947000000000001,-8.005851245936244
-0.29369999999999996,-7.939359814842586
-0.29270000000000007,-7.889844919347309
-0.29169999999999996,-7.799303396155947
-0.29070000000000007,-7.731397253762426
-0.28969999999999996,-7.557387763879025
-0.28870000000000007,-7.52484940398213
-0.28769999999999996,-7.408843077393197
-0.28670000000000007,-7.32254568810143
-0.28569999999999995,-7.271616081306289
-0.28470000000000006,-7.188148114614252
-0.28369999999999995,-7.1457067756183
-0.28270000000000006,-7.033944582928963
-0.28169999999999995,-6.980185553534091
-0.28070000000000006,-6.947647193637194
-0.27969999999999995,-6.827396733148667
-0.27870000000000006,-6.76373472465474
-0.27769999999999995,-6.6562166658649975
-0.27670000000000006,-6.592554657371071
-0.27569999999999995,-6.506257268079304
-0.27470000000000006,-6.444009970885243
-0.27369999999999994,-6.3534684476938805
-0.27270000000000005,-6.233217987205351
-0.27169999999999994,-6.1766295352107505
-0.27070000000000005,-6.137017618814529
-0.26969999999999994,-6.043646673023436
-0.26870000000000005,-5.977155241929781
