Dec. 14, 2024   05:06:01
Cyclic Voltammetry
File: c:/users/guazh/data/banditlqround7_x0exp59_r20/2024-12-09-exp655\exp655-2024-12-14t04_52_55-h2koh\exp655_cv_sr_50mvs_efin_-1600mv.bin
Data Source:  Experiment
Instrument Model:  CHI760E
Header: CV ran at 50 mVs
Note: 

Init E (V) = -1
High E (V) = -1
Low E (V) = -1.6
Final E (V) = -1
Init P/N = N
Scan Rate (V/s) = 0.05
Segment = 3
Sample Interval (V) = 0.001
Quiet Time (sec) = 2
Sensitivity (A/V) = 0.01
Comp R (ohm) = 1.4

Results:

Channel 1:
Segment 1:

Segment 2:

Segment 3:

Potential/V, Current/A

-1.000, -8.011e-7
-1.001, -4.854e-7
-1.002, -4.755e-7
-1.003, -5.150e-7
-1.004, -4.163e-7
-1.005, -3.571e-7
-1.006, -1.697e-7
-1.007, -1.894e-7
-1.008, -3.374e-7
-1.009, -1.796e-7
-1.010, -1.105e-7
-1.011, 7.893e-9
-1.012, -6.117e-8
-1.013, 4.736e-8
-1.014, 2.762e-8
-1.015, 7.893e-9
-1.016, 1.756e-7
-1.017, 1.756e-7
-1.018, 1.559e-7
-1.019, 1.263e-7
-1.020, 2.348e-7
-1.021, 2.743e-7
-1.022, 3.039e-7
-1.023, 1.855e-7
-1.024, 3.927e-7
-1.025, 4.223e-7
-1.026, 4.617e-7
-1.027, 5.012e-7
-1.028, 5.012e-7
-1.029, 4.716e-7
-1.030, 5.111e-7
-1.031, 6.590e-7
-1.032, 5.801e-7
-1.033, 5.209e-7
-1.034, 6.196e-7
-1.035, 5.407e-7
-1.036, 5.998e-7
-1.037, 5.998e-7
-1.038, 6.689e-7
-1.039, 6.788e-7
-1.040, 6.196e-7
-1.041, 7.676e-7
-1.042, 8.465e-7
-1.043, 7.478e-7
-1.044, 7.380e-7
-1.045, 7.380e-7
-1.046, 8.366e-7
-1.047, 8.169e-7
-1.048, 7.676e-7
-1.049, 7.972e-7
-1.050, 8.070e-7
-1.051, 8.860e-7
-1.052, 9.452e-7
-1.053, 9.156e-7
-1.054, 9.057e-7
-1.055, 8.465e-7
-1.056, 9.945e-7
-1.057, 9.945e-7
-1.058, 9.156e-7
-1.059, 9.748e-7
-1.060, 1.004e-6
-1.061, 1.014e-6
-1.062, 9.649e-7
-1.063, 1.044e-6
-1.064, 1.083e-6
-1.065, 9.846e-7
-1.066, 1.123e-6
-1.067, 1.152e-6
-1.068, 1.064e-6
-1.069, 1.123e-6
-1.070, 1.142e-6
-1.071, 1.172e-6
-1.072, 1.103e-6
-1.073, 1.152e-6
-1.074, 1.103e-6
-1.075, 1.271e-6
-1.076, 1.221e-6
-1.077, 1.241e-6
-1.078, 1.202e-6
-1.079, 1.281e-6
-1.080, 1.172e-6
-1.081, 1.212e-6
-1.082, 1.192e-6
-1.083, 1.231e-6
-1.084, 1.290e-6
-1.085, 1.241e-6
-1.086, 1.330e-6
-1.087, 1.261e-6
-1.088, 1.389e-6
-1.089, 1.290e-6
-1.090, 1.310e-6
-1.091, 1.468e-6
-1.092, 1.468e-6
-1.093, 1.389e-6
-1.094, 1.389e-6
-1.095, 1.340e-6
-1.096, 1.438e-6
-1.097, 1.399e-6
-1.098, 1.419e-6
-1.099, 1.429e-6
-1.100, 1.419e-6
-1.101, 1.547e-6
-1.102, 1.508e-6
-1.103, 1.389e-6
-1.104, 1.448e-6
-1.105, 1.478e-6
-1.106, 1.508e-6
-1.107, 1.596e-6
-1.108, 1.547e-6
-1.109, 1.596e-6
-1.110, 1.468e-6
-1.111, 1.577e-6
-1.112, 1.537e-6
-1.113, 1.488e-6
-1.114, 1.606e-6
-1.115, 1.616e-6
-1.116, 1.616e-6
-1.117, 1.656e-6
-1.118, 1.675e-6
-1.119, 1.567e-6
-1.120, 1.626e-6
-1.121, 1.685e-6
-1.122, 1.695e-6
-1.123, 1.715e-6
-1.124, 1.646e-6
-1.125, 1.675e-6
-1.126, 1.705e-6
-1.127, 1.774e-6
-1.128, 1.646e-6
-1.129, 1.695e-6
-1.130, 1.695e-6
-1.131, 1.764e-6
-1.132, 1.734e-6
-1.133, 1.803e-6
-1.134, 1.685e-6
-1.135, 1.715e-6
-1.136, 1.725e-6
-1.137, 1.715e-6
-1.138, 1.586e-6
-1.139, 1.774e-6
-1.140, 1.744e-6
-1.141, 1.774e-6
-1.142, 1.754e-6
-1.143, 1.685e-6
-1.144, 1.754e-6
-1.145, 1.715e-6
-1.146, 1.823e-6
-1.147, 1.843e-6
-1.148, 1.754e-6
-1.149, 1.813e-6
-1.150, 1.754e-6
-1.151, 1.734e-6
-1.152, 1.873e-6
-1.153, 1.774e-6
-1.154, 1.784e-6
-1.155, 1.705e-6
-1.156, 1.803e-6
-1.157, 1.863e-6
-1.158, 1.823e-6
-1.159, 1.774e-6
-1.160, 1.833e-6
-1.161, 1.813e-6
-1.162, 1.912e-6
-1.163, 1.882e-6
-1.164, 1.794e-6
-1.165, 1.823e-6
-1.166, 1.863e-6
-1.167, 1.912e-6
-1.168, 1.784e-6
-1.169, 1.873e-6
-1.170, 1.843e-6
-1.171, 1.902e-6
-1.172, 1.912e-6
-1.173, 1.734e-6
-1.174, 1.853e-6
-1.175, 1.794e-6
-1.176, 1.902e-6
-1.177, 1.892e-6
-1.178, 1.932e-6
-1.179, 1.961e-6
-1.180, 1.794e-6
-1.181, 1.922e-6
-1.182, 1.961e-6
-1.183, 1.902e-6
-1.184, 1.853e-6
-1.185, 1.912e-6
-1.186, 1.932e-6
-1.187, 1.942e-6
-1.188, 1.882e-6
-1.189, 1.961e-6
-1.190, 1.961e-6
-1.191, 1.942e-6
-1.192, 1.971e-6
-1.193, 1.981e-6
-1.194, 2.001e-6
-1.195, 1.873e-6
-1.196, 2.011e-6
-1.197, 2.021e-6
-1.198, 1.961e-6
-1.199, 2.011e-6
-1.200, 2.040e-6
-1.201, 1.971e-6
-1.202, 1.991e-6
-1.203, 2.011e-6
-1.204, 2.099e-6
-1.205, 2.030e-6
-1.206, 2.149e-6
-1.207, 2.040e-6
-1.208, 2.050e-6
-1.209, 2.011e-6
-1.210, 2.050e-6
-1.211, 2.030e-6
-1.212, 2.178e-6
-1.213, 2.080e-6
-1.214, 2.030e-6
-1.215, 2.030e-6
-1.216, 2.040e-6
-1.217, 2.080e-6
-1.218, 2.080e-6
-1.219, 2.090e-6
-1.220, 2.129e-6
-1.221, 2.050e-6
-1.222, 2.149e-6
-1.223, 2.129e-6
-1.224, 2.139e-6
-1.225, 2.080e-6
-1.226, 2.198e-6
-1.227, 2.257e-6
-1.228, 2.129e-6
-1.229, 2.307e-6
-1.230, 2.267e-6
-1.231, 2.238e-6
-1.232, 2.326e-6
-1.233, 2.228e-6
-1.234, 2.277e-6
-1.235, 2.218e-6
-1.236, 2.366e-6
-1.237, 2.386e-6
-1.238, 2.228e-6
-1.239, 2.356e-6
-1.240, 2.346e-6
-1.241, 2.336e-6
-1.242, 2.484e-6
-1.243, 2.435e-6
-1.244, 2.425e-6
-1.245, 2.415e-6
-1.246, 2.474e-6
-1.247, 2.425e-6
-1.248, 2.514e-6
-1.249, 2.603e-6
-1.250, 2.504e-6
-1.251, 2.543e-6
-1.252, 2.662e-6
-1.253, 2.553e-6
-1.254, 2.603e-6
-1.255, 2.593e-6
-1.256, 2.672e-6
-1.257, 2.701e-6
-1.258, 2.691e-6
-1.259, 2.741e-6
-1.260, 2.760e-6
-1.261, 2.780e-6
-1.262, 2.839e-6
-1.263, 2.780e-6
-1.264, 2.899e-6
-1.265, 2.830e-6
-1.266, 2.869e-6
-1.267, 3.076e-6
-1.268, 2.987e-6
-1.269, 2.948e-6
-1.270, 3.106e-6
-1.271, 3.047e-6
-1.272, 3.165e-6
-1.273, 3.155e-6
-1.274, 3.254e-6
-1.275, 3.175e-6
-1.276, 3.254e-6
-1.277, 3.382e-6
-1.278, 3.362e-6
-1.279, 3.431e-6
-1.280, 3.441e-6
-1.281, 3.491e-6
-1.282, 3.717e-6
-1.283, 3.698e-6
-1.284, 3.648e-6
-1.285, 3.717e-6
-1.286, 3.885e-6
-1.287, 3.994e-6
-1.288, 3.974e-6
-1.289, 4.033e-6
-1.290, 4.102e-6
-1.291, 4.122e-6
-1.292, 4.369e-6
-1.293, 4.359e-6
-1.294, 4.448e-6
-1.295, 4.457e-6
-1.296, 4.615e-6
-1.297, 4.813e-6
-1.298, 4.753e-6
-1.299, 4.921e-6
-1.300, 5.040e-6
-1.301, 5.138e-6
-1.302, 5.257e-6
-1.303, 5.276e-6
-1.304, 5.572e-6
-1.305, 5.474e-6
-1.306, 5.681e-6
-1.307, 5.839e-6
-1.308, 5.987e-6
-1.309, 6.194e-6
-1.310, 6.204e-6
-1.311, 6.500e-6
-1.312, 6.677e-6
-1.313, 6.736e-6
-1.314, 6.954e-6
-1.315, 7.092e-6
-1.316, 7.279e-6
-1.317, 7.545e-6
-1.318, 7.703e-6
-1.319, 7.970e-6
-1.320, 8.128e-6
-1.321, 8.404e-6
-1.322, 8.650e-6
-1.323, 8.759e-6
-1.324, 8.996e-6
-1.325, 9.223e-6
-1.326, 9.519e-6
-1.327, 9.765e-6
-1.328, 1.010e-5
-1.329, 1.024e-5
-1.330, 1.058e-5
-1.331, 1.106e-5
-1.332, 1.131e-5
-1.333, 1.166e-5
-1.334, 1.196e-5
-1.335, 1.229e-5
-1.336, 1.266e-5
-1.337, 1.315e-5
-1.338, 1.349e-5
-1.339, 1.384e-5
-1.340, 1.425e-5
-1.341, 1.467e-5
-1.342, 1.526e-5
-1.343, 1.552e-5
-1.344, 1.601e-5
-1.345, 1.656e-5
-1.346, 1.697e-5
-1.347, 1.763e-5
-1.348, 1.808e-5
-1.349, 1.865e-5
-1.350, 1.920e-5
-1.351, 1.970e-5
-1.352, 2.046e-5
-1.353, 2.106e-5
-1.354, 2.173e-5
-1.355, 2.237e-5
-1.356, 2.304e-5
-1.357, 2.403e-5
-1.358, 2.469e-5
-1.359, 2.549e-5
-1.360, 2.624e-5
-1.361, 2.703e-5
-1.362, 2.789e-5
-1.363, 2.878e-5
-1.364, 2.984e-5
-1.365, 3.071e-5
-1.366, 3.165e-5
-1.367, 3.267e-5
-1.368, 3.369e-5
-1.369, 3.478e-5
-1.370, 3.588e-5
-1.371, 3.702e-5
-1.372, 3.835e-5
-1.373, 3.955e-5
-1.374, 4.059e-5
-1.375, 4.197e-5
-1.376, 4.327e-5
-1.377, 4.473e-5
-1.378, 4.609e-5
-1.379, 4.753e-5
-1.380, 4.902e-5
-1.381, 5.056e-5
-1.382, 5.219e-5
-1.383, 5.396e-5
-1.384, 5.556e-5
-1.385, 5.734e-5
-1.386, 5.910e-5
-1.387, 6.105e-5
-1.388, 6.292e-5
-1.389, 6.482e-5
-1.390, 6.691e-5
-1.391, 6.897e-5
-1.392, 7.116e-5
-1.393, 7.345e-5
-1.394, 7.571e-5
-1.395, 7.818e-5
-1.396, 8.067e-5
-1.397, 8.326e-5
-1.398, 8.584e-5
-1.399, 8.852e-5
-1.400, 9.136e-5
-1.401, 9.426e-5
-1.402, 9.730e-5
-1.403, 1.001e-4
-1.404, 1.032e-4
-1.405, 1.064e-4
-1.406, 1.097e-4
-1.407, 1.132e-4
-1.408, 1.168e-4
-1.409, 1.204e-4
-1.410, 1.239e-4
-1.411, 1.279e-4
-1.412, 1.319e-4
-1.413, 1.360e-4
-1.414, 1.401e-4
-1.415, 1.441e-4
-1.416, 1.485e-4
-1.417, 1.532e-4
-1.418, 1.578e-4
-1.419, 1.627e-4
-1.420, 1.677e-4
-1.421, 1.727e-4
-1.422, 1.781e-4
-1.423, 1.835e-4
-1.424, 1.891e-4
-1.425, 1.948e-4
-1.426, 2.005e-4
-1.427, 2.068e-4
-1.428, 2.130e-4
-1.429, 2.192e-4
-1.430, 2.255e-4
-1.431, 2.322e-4
-1.432, 2.389e-4
-1.433, 2.462e-4
-1.434, 2.536e-4
-1.435, 2.608e-4
-1.436, 2.684e-4
-1.437, 2.763e-4
-1.438, 2.845e-4
-1.439, 2.928e-4
-1.440, 3.013e-4
-1.441, 3.100e-4
-1.442, 3.189e-4
-1.443, 3.280e-4
-1.444, 3.375e-4
-1.445, 3.470e-4
-1.446, 3.569e-4
-1.447, 3.672e-4
-1.448, 3.777e-4
-1.449, 3.883e-4
-1.450, 3.989e-4
-1.451, 4.097e-4
-1.452, 4.212e-4
-1.453, 4.328e-4
-1.454, 4.447e-4
-1.455, 4.568e-4
-1.456, 4.692e-4
-1.457, 4.821e-4
-1.458, 4.952e-4
-1.459, 5.085e-4
-1.460, 5.222e-4
-1.461, 5.358e-4
-1.462, 5.502e-4
-1.463, 5.650e-4
-1.464, 5.796e-4
-1.465, 5.944e-4
-1.466, 6.097e-4
-1.467, 6.254e-4
-1.468, 6.417e-4
-1.469, 6.580e-4
-1.470, 6.748e-4
-1.471, 6.919e-4
-1.472, 7.095e-4
-1.473, 7.274e-4
-1.474, 7.456e-4
-1.475, 7.638e-4
-1.476, 7.826e-4
-1.477, 8.017e-4
-1.478, 8.217e-4
-1.479, 8.419e-4
-1.480, 8.617e-4
-1.481, 8.815e-4
-1.482, 9.025e-4
-1.483, 9.247e-4
-1.484, 9.479e-4
-1.485, 9.703e-4
-1.486, 9.927e-4
-1.487, 1.015e-3
-1.488, 1.038e-3
-1.489, 1.061e-3
-1.490, 1.084e-3
-1.491, 1.108e-3
-1.492, 1.133e-3
-1.493, 1.158e-3
-1.494, 1.184e-3
-1.495, 1.209e-3
-1.496, 1.234e-3
-1.497, 1.261e-3
-1.498, 1.288e-3
-1.499, 1.316e-3
-1.500, 1.343e-3
-1.501, 1.370e-3
-1.502, 1.398e-3
-1.503, 1.427e-3
-1.504, 1.456e-3
-1.505, 1.486e-3
-1.506, 1.516e-3
-1.507, 1.547e-3
-1.508, 1.578e-3
-1.509, 1.611e-3
-1.510, 1.641e-3
-1.511, 1.671e-3
-1.512, 1.704e-3
-1.513, 1.737e-3
-1.514, 1.771e-3
-1.515, 1.803e-3
-1.516, 1.837e-3
-1.517, 1.871e-3
-1.518, 1.906e-3
-1.519, 1.941e-3
-1.520, 1.976e-3
-1.521, 2.011e-3
-1.522, 2.047e-3
-1.523, 2.084e-3
-1.524, 2.122e-3
-1.525, 2.158e-3
-1.526, 2.194e-3
-1.527, 2.231e-3
-1.528, 2.268e-3
-1.529, 2.306e-3
-1.530, 2.344e-3
-1.531, 2.383e-3
-1.532, 2.422e-3
-1.533, 2.458e-3
-1.534, 2.496e-3
-1.535, 2.539e-3
-1.536, 2.581e-3
-1.537, 2.622e-3
-1.538, 2.665e-3
-1.539, 2.707e-3
-1.540, 2.749e-3
-1.541, 2.789e-3
-1.542, 2.830e-3
-1.543, 2.873e-3
-1.544, 2.916e-3
-1.545, 2.960e-3
-1.546, 3.003e-3
-1.547, 3.048e-3
-1.548, 3.092e-3
-1.549, 3.138e-3
-1.550, 3.184e-3
-1.551, 3.228e-3
-1.552, 3.272e-3
-1.553, 3.319e-3
-1.554, 3.367e-3
-1.555, 3.416e-3
-1.556, 3.465e-3
-1.557, 3.512e-3
-1.558, 3.560e-3
-1.559, 3.608e-3
-1.560, 3.657e-3
-1.561, 3.707e-3
-1.562, 3.756e-3
-1.563, 3.804e-3
-1.564, 3.859e-3
-1.565, 3.912e-3
-1.566, 3.959e-3
-1.567, 4.007e-3
-1.568, 4.056e-3
-1.569, 4.105e-3
-1.570, 4.154e-3
-1.571, 4.205e-3
-1.572, 4.255e-3
-1.573, 4.308e-3
-1.574, 4.358e-3
-1.575, 4.409e-3
-1.576, 4.461e-3
-1.577, 4.514e-3
-1.578, 4.566e-3
-1.579, 4.621e-3
-1.580, 4.675e-3
-1.581, 4.726e-3
-1.582, 4.780e-3
-1.583, 4.833e-3
-1.584, 4.885e-3
-1.585, 4.937e-3
-1.586, 4.991e-3
-1.587, 5.045e-3
-1.588, 5.105e-3
-1.589, 5.155e-3
-1.590, 5.204e-3
-1.591, 5.256e-3
-1.592, 5.310e-3
-1.593, 5.366e-3
-1.594, 5.422e-3
-1.595, 5.479e-3
-1.596, 5.535e-3
-1.597, 5.593e-3
-1.598, 5.649e-3
-1.599, 5.716e-3
-1.600, 5.725e-3
-1.599, 5.655e-3
-1.598, 5.581e-3
-1.597, 5.518e-3
-1.596, 5.453e-3
-1.595, 5.389e-3
-1.594, 5.326e-3
-1.593, 5.261e-3
-1.592, 5.198e-3
-1.591, 5.138e-3
-1.590, 5.079e-3
-1.589, 5.014e-3
-1.588, 4.950e-3
-1.587, 4.887e-3
-1.586, 4.824e-3
-1.585, 4.756e-3
-1.584, 4.694e-3
-1.583, 4.628e-3
-1.582, 4.564e-3
-1.581, 4.504e-3
-1.580, 4.441e-3
-1.579, 4.383e-3
-1.578, 4.327e-3
-1.577, 4.265e-3
-1.576, 4.206e-3
-1.575, 4.146e-3
-1.574, 4.086e-3
-1.573, 4.029e-3
-1.572, 3.970e-3
-1.571, 3.911e-3
-1.570, 3.852e-3
-1.569, 3.793e-3
-1.568, 3.739e-3
-1.567, 3.685e-3
-1.566, 3.633e-3
-1.565, 3.582e-3
-1.564, 3.531e-3
-1.563, 3.480e-3
-1.562, 3.430e-3
-1.561, 3.381e-3
-1.560, 3.331e-3
-1.559, 3.280e-3
-1.558, 3.231e-3
-1.557, 3.186e-3
-1.556, 3.137e-3
-1.555, 3.090e-3
-1.554, 3.043e-3
-1.553, 2.997e-3
-1.552, 2.952e-3
-1.551, 2.906e-3
-1.550, 2.862e-3
-1.549, 2.816e-3
-1.548, 2.773e-3
-1.547, 2.730e-3
-1.546, 2.686e-3
-1.545, 2.643e-3
-1.544, 2.599e-3
-1.543, 2.557e-3
-1.542, 2.517e-3
-1.541, 2.479e-3
-1.540, 2.438e-3
-1.539, 2.396e-3
-1.538, 2.357e-3
-1.537, 2.316e-3
-1.536, 2.278e-3
-1.535, 2.240e-3
-1.534, 2.201e-3
-1.533, 2.164e-3
-1.532, 2.129e-3
-1.531, 2.092e-3
-1.530, 2.056e-3
-1.529, 2.018e-3
-1.528, 1.982e-3
-1.527, 1.947e-3
-1.526, 1.913e-3
-1.525, 1.880e-3
-1.524, 1.845e-3
-1.523, 1.812e-3
-1.522, 1.780e-3
-1.521, 1.748e-3
-1.520, 1.715e-3
-1.519, 1.682e-3
-1.518, 1.651e-3
-1.517, 1.620e-3
-1.516, 1.589e-3
-1.515, 1.559e-3
-1.514, 1.529e-3
-1.513, 1.500e-3
-1.512, 1.472e-3
-1.511, 1.444e-3
-1.510, 1.415e-3
-1.509, 1.387e-3
-1.508, 1.360e-3
-1.507, 1.334e-3
-1.506, 1.308e-3
-1.505, 1.282e-3
-1.504, 1.257e-3
-1.503, 1.231e-3
-1.502, 1.208e-3
-1.501, 1.185e-3
-1.500, 1.160e-3
-1.499, 1.136e-3
-1.498, 1.113e-3
-1.497, 1.090e-3
-1.496, 1.068e-3
-1.495, 1.045e-3
-1.494, 1.023e-3
-1.493, 1.002e-3
-1.492, 9.815e-4
-1.491, 9.610e-4
-1.490, 9.401e-4
-1.489, 9.196e-4
-1.488, 9.008e-4
-1.487, 8.822e-4
-1.486, 8.634e-4
-1.485, 8.441e-4
-1.484, 8.253e-4
-1.483, 8.069e-4
-1.482, 7.893e-4
-1.481, 7.718e-4
-1.480, 7.547e-4
-1.479, 7.376e-4
-1.478, 7.210e-4
-1.477, 7.050e-4
-1.476, 6.897e-4
-1.475, 6.741e-4
-1.474, 6.586e-4
-1.473, 6.440e-4
-1.472, 6.295e-4
-1.471, 6.159e-4
-1.470, 6.020e-4
-1.469, 5.887e-4
-1.468, 5.756e-4
-1.467, 5.629e-4
-1.466, 5.501e-4
-1.465, 5.373e-4
-1.464, 5.248e-4
-1.463, 5.133e-4
-1.462, 5.021e-4
-1.461, 4.909e-4
-1.460, 4.795e-4
-1.459, 4.683e-4
-1.458, 4.575e-4
-1.457, 4.467e-4
-1.456, 4.367e-4
-1.455, 4.265e-4
-1.454, 4.166e-4
-1.453, 4.070e-4
-1.452, 3.974e-4
-1.451, 3.882e-4
-1.450, 3.788e-4
-1.449, 3.695e-4
-1.448, 3.604e-4
-1.447, 3.521e-4
-1.446, 3.435e-4
-1.445, 3.353e-4
-1.444, 3.270e-4
-1.443, 3.190e-4
-1.442, 3.114e-4
-1.441, 3.037e-4
-1.440, 2.966e-4
-1.439, 2.893e-4
-1.438, 2.822e-4
-1.437, 2.753e-4
-1.436, 2.685e-4
-1.435, 2.619e-4
-1.434, 2.553e-4
-1.433, 2.488e-4
-1.432, 2.427e-4
-1.431, 2.368e-4
-1.430, 2.310e-4
-1.429, 2.253e-4
-1.428, 2.197e-4
-1.427, 2.144e-4
-1.426, 2.092e-4
-1.425, 2.040e-4
-1.424, 1.988e-4
-1.423, 1.937e-4
-1.422, 1.891e-4
-1.421, 1.844e-4
-1.420, 1.797e-4
-1.419, 1.750e-4
-1.418, 1.709e-4
-1.417, 1.667e-4
-1.416, 1.625e-4
-1.415, 1.585e-4
-1.414, 1.543e-4
-1.413, 1.504e-4
-1.412, 1.468e-4
-1.411, 1.430e-4
-1.410, 1.394e-4
-1.409, 1.357e-4
-1.408, 1.321e-4
-1.407, 1.288e-4
-1.406, 1.255e-4
-1.405, 1.223e-4
-1.404, 1.191e-4
-1.403, 1.161e-4
-1.402, 1.133e-4
-1.401, 1.103e-4
-1.400, 1.075e-4
-1.399, 1.049e-4
-1.398, 1.022e-4
-1.397, 9.969e-5
-1.396, 9.707e-5
-1.395, 9.443e-5
-1.394, 9.222e-5
-1.393, 8.973e-5
-1.392, 8.766e-5
-1.391, 8.538e-5
-1.390, 8.324e-5
-1.389, 8.114e-5
-1.388, 7.872e-5
-1.387, 7.708e-5
-1.386, 7.508e-5
-1.385, 7.311e-5
-1.384, 7.125e-5
-1.383, 6.932e-5
-1.382, 6.759e-5
-1.381, 6.594e-5
-1.380, 6.425e-5
-1.379, 6.246e-5
-1.378, 6.083e-5
-1.377, 5.943e-5
-1.376, 5.771e-5
-1.375, 5.625e-5
-1.374, 5.484e-5
-1.373, 5.332e-5
-1.372, 5.205e-5
-1.371, 5.066e-5
-1.370, 4.934e-5
-1.369, 4.814e-5
-1.368, 4.686e-5
-1.367, 4.576e-5
-1.366, 4.442e-5
-1.365, 4.326e-5
-1.364, 4.217e-5
-1.363, 4.103e-5
-1.362, 4.009e-5
-1.361, 3.888e-5
-1.360, 3.785e-5
-1.359, 3.701e-5
-1.358, 3.606e-5
-1.357, 3.507e-5
-1.356, 3.396e-5
-1.355, 3.308e-5
-1.354, 3.228e-5
-1.353, 3.134e-5
-1.352, 3.060e-5
-1.351, 2.959e-5
-1.350, 2.886e-5
-1.349, 2.808e-5
-1.348, 2.741e-5
-1.347, 2.666e-5
-1.346, 2.591e-5
-1.345, 2.524e-5
-1.344, 2.461e-5
-1.343, 2.378e-5
-1.342, 2.320e-5
-1.341, 2.252e-5
-1.340, 2.195e-5
-1.339, 2.146e-5
-1.338, 2.069e-5
-1.337, 2.025e-5
-1.336, 1.975e-5
-1.335, 1.912e-5
-1.334, 1.868e-5
-1.333, 1.803e-5
-1.332, 1.777e-5
-1.331, 1.711e-5
-1.330, 1.655e-5
-1.329, 1.619e-5
-1.328, 1.560e-5
-1.327, 1.543e-5
-1.326, 1.496e-5
-1.325, 1.434e-5
-1.324, 1.409e-5
-1.323, 1.367e-5
-1.322, 1.336e-5
-1.321, 1.287e-5
-1.320, 1.261e-5
-1.319, 1.219e-5
-1.318, 1.185e-5
-1.317, 1.156e-5
-1.316, 1.121e-5
-1.315, 1.075e-5
-1.314, 1.053e-5
-1.313, 1.032e-5
-1.312, 1.006e-5
-1.311, 9.686e-6
-1.310, 9.410e-6
-1.309, 9.213e-6
-1.308, 8.946e-6
-1.307, 8.631e-6
-1.306, 8.394e-6
-1.305, 8.059e-6
-1.304, 7.901e-6
-1.303, 7.693e-6
-1.302, 7.536e-6
-1.301, 7.240e-6
-1.300, 6.944e-6
-1.299, 6.796e-6
-1.298, 6.529e-6
-1.297, 6.470e-6
-1.296, 6.154e-6
-1.295, 6.056e-6
-1.294, 5.908e-6
-1.293, 5.631e-6
-1.292, 5.553e-6
-1.291, 5.326e-6
-1.290, 5.197e-6
-1.289, 4.951e-6
-1.288, 4.882e-6
-1.287, 4.832e-6
-1.286, 4.576e-6
-1.285, 4.428e-6
-1.284, 4.280e-6
-1.283, 4.142e-6
-1.282, 4.083e-6
-1.281, 3.964e-6
-1.280, 3.688e-6
-1.279, 3.678e-6
-1.278, 3.629e-6
-1.277, 3.431e-6
-1.276, 3.293e-6
-1.275, 3.165e-6
-1.274, 3.056e-6
-1.273, 2.879e-6
-1.272, 2.987e-6
-1.271, 2.820e-6
-1.270, 2.682e-6
-1.269, 2.682e-6
-1.268, 2.395e-6
-1.267, 2.465e-6
-1.266, 2.346e-6
-1.265, 2.198e-6
-1.264, 2.070e-6
-1.263, 2.090e-6
-1.262, 1.991e-6
-1.261, 1.961e-6
-1.260, 1.774e-6
-1.259, 1.794e-6
-1.258, 1.725e-6
-1.257, 1.734e-6
-1.256, 1.646e-6
-1.255, 1.419e-6
-1.254, 1.399e-6
-1.253, 1.340e-6
-1.252, 1.369e-6
-1.251, 1.261e-6
-1.250, 1.162e-6
-1.249, 1.152e-6
-1.248, 1.014e-6
-1.247, 1.034e-6
-1.246, 1.014e-6
-1.245, 9.156e-7
-1.244, 8.366e-7
-1.243, 7.972e-7
-1.242, 8.564e-7
-1.241, 7.676e-7
-1.240, 6.196e-7
-1.239, 6.590e-7
-1.238, 5.801e-7
-1.237, 5.703e-7
-1.236, 6.492e-7
-1.235, 4.617e-7
-1.234, 4.025e-7
-1.233, 3.039e-7
-1.232, 5.209e-7
-1.231, 3.137e-7
-1.230, 2.644e-7
-1.229, 1.855e-7
-1.228, 7.893e-9
-1.227, 1.855e-7
-1.226, 1.263e-7
-1.225, 1.460e-7
-1.224, 1.164e-7
-1.223, -1.184e-8
-1.222, 7.893e-9
-1.221, -3.157e-8
-1.220, -4.144e-8
-1.219, -1.302e-7
-1.218, -8.090e-8
-1.217, -2.171e-8
-1.216, -1.697e-7
-1.215, -1.993e-7
-1.214, -1.796e-7
-1.213, -2.092e-7
-1.212, -1.993e-7
-1.211, -2.190e-7
-1.210, -2.585e-7
-1.209, -3.078e-7
-1.208, -3.177e-7
-1.207, -2.684e-7
-1.206, -2.486e-7
-1.205, -3.769e-7
-1.204, -2.684e-7
-1.203, -4.558e-7
-1.202, -3.473e-7
-1.201, -3.867e-7
-1.200, -4.361e-7
-1.199, -3.670e-7
-1.198, -4.262e-7
-1.197, -4.854e-7
-1.196, -4.459e-7
-1.195, -4.163e-7
-1.194, -4.854e-7
-1.193, -4.953e-7
-1.192, -4.657e-7
-1.191, -4.163e-7
-1.190, -5.841e-7
-1.189, -5.347e-7
-1.188, -5.545e-7
-1.187, -5.939e-7
-1.186, -5.150e-7
-1.185, -5.347e-7
-1.184, -6.334e-7
-1.183, -6.827e-7
-1.182, -6.137e-7
-1.181, -5.939e-7
-1.180, -5.643e-7
-1.179, -6.235e-7
-1.178, -6.827e-7
-1.177, -6.630e-7
-1.176, -6.137e-7
-1.175, -7.419e-7
-1.174, -7.518e-7
-1.173, -7.025e-7
-1.172, -6.137e-7
-1.171, -6.235e-7
-1.170, -7.222e-7
-1.169, -7.912e-7
-1.168, -7.123e-7
-1.167, -7.222e-7
-1.166, -6.334e-7
-1.165, -7.025e-7
-1.164, -8.208e-7
-1.163, -8.110e-7
-1.162, -7.518e-7
-1.161, -7.617e-7
-1.160, -7.715e-7
-1.159, -7.617e-7
-1.158, -7.715e-7
-1.157, -8.011e-7
-1.156, -7.617e-7
-1.155, -8.011e-7
-1.154, -8.011e-7
-1.153, -8.504e-7
-1.152, -8.800e-7
-1.151, -8.011e-7
-1.150, -9.491e-7
-1.149, -8.307e-7
-1.148, -9.590e-7
-1.147, -8.110e-7
-1.146, -8.603e-7
-1.145, -9.096e-7
-1.144, -9.787e-7
-1.143, -9.096e-7
-1.142, -8.702e-7
-1.141, -8.899e-7
-1.140, -1.008e-6
-1.139, -9.392e-7
-1.138, -1.077e-6
-1.137, -9.392e-7
-1.136, -9.787e-7
-1.135, -9.294e-7
-1.134, -9.096e-7
-1.133, -1.048e-6
-1.132, -1.028e-6
-1.131, -8.603e-7
-1.130, -9.984e-7
-1.129, -1.058e-6
-1.128, -1.038e-6
-1.127, -1.048e-6
-1.126, -1.028e-6
-1.125, -9.984e-7
-1.124, -1.048e-6
-1.123, -1.097e-6
-1.122, -1.176e-6
-1.121, -1.058e-6
-1.120, -1.117e-6
-1.119, -1.137e-6
-1.118, -1.176e-6
-1.117, -1.156e-6
-1.116, -1.048e-6
-1.115, -1.107e-6
-1.114, -1.225e-6
-1.113, -1.156e-6
-1.112, -1.087e-6
-1.111, -1.097e-6
-1.110, -1.235e-6
-1.109, -1.137e-6
-1.108, -1.294e-6
-1.107, -1.215e-6
-1.106, -1.166e-6
-1.105, -1.196e-6
-1.104, -1.235e-6
-1.103, -1.294e-6
-1.102, -1.245e-6
-1.101, -1.186e-6
-1.100, -1.235e-6
-1.099, -1.334e-6
-1.098, -1.363e-6
-1.097, -1.196e-6
-1.096, -1.206e-6
-1.095, -1.275e-6
-1.094, -1.373e-6
-1.093, -1.314e-6
-1.092, -1.294e-6
-1.091, -1.324e-6
-1.090, -1.413e-6
-1.089, -1.334e-6
-1.088, -1.452e-6
-1.087, -1.403e-6
-1.086, -1.334e-6
-1.085, -1.383e-6
-1.084, -1.314e-6
-1.083, -1.561e-6
-1.082, -1.462e-6
-1.081, -1.433e-6
-1.080, -1.502e-6
-1.079, -1.462e-6
-1.078, -1.482e-6
-1.077, -1.511e-6
-1.076, -1.482e-6
-1.075, -1.630e-6
-1.074, -1.502e-6
-1.073, -1.689e-6
-1.072, -1.600e-6
-1.071, -1.492e-6
-1.070, -1.571e-6
-1.069, -1.699e-6
-1.068, -1.640e-6
-1.067, -1.689e-6
-1.066, -1.669e-6
-1.065, -1.798e-6
-1.064, -1.650e-6
-1.063, -1.778e-6
-1.062, -1.699e-6
-1.061, -1.817e-6
-1.060, -1.768e-6
-1.059, -1.729e-6
-1.058, -1.798e-6
-1.057, -1.768e-6
-1.056, -1.758e-6
-1.055, -1.886e-6
-1.054, -1.886e-6
-1.053, -1.886e-6
-1.052, -1.916e-6
-1.051, -1.827e-6
-1.050, -1.985e-6
-1.049, -2.034e-6
-1.048, -2.074e-6
-1.047, -2.044e-6
-1.046, -1.975e-6
-1.045, -2.034e-6
-1.044, -2.054e-6
-1.043, -2.153e-6
-1.042, -2.084e-6
-1.041, -2.084e-6
-1.040, -2.153e-6
-1.039, -2.172e-6
-1.038, -2.182e-6
-1.037, -2.251e-6
-1.036, -2.172e-6
-1.035, -2.261e-6
-1.034, -2.172e-6
-1.033, -2.311e-6
-1.032, -2.301e-6
-1.031, -2.271e-6
-1.030, -2.261e-6
-1.029, -2.281e-6
-1.028, -2.518e-6
-1.027, -2.390e-6
-1.026, -2.380e-6
-1.025, -2.449e-6
-1.024, -2.577e-6
-1.023, -2.498e-6
-1.022, -2.597e-6
-1.021, -2.636e-6
-1.020, -2.646e-6
-1.019, -2.616e-6
-1.018, -2.755e-6
-1.017, -2.725e-6
-1.016, -2.656e-6
-1.015, -2.745e-6
-1.014, -2.774e-6
-1.013, -2.784e-6
-1.012, -2.794e-6
-1.011, -2.893e-6
-1.010, -2.922e-6
-1.009, -3.051e-6
-1.008, -2.952e-6
-1.007, -2.932e-6
-1.006, -2.962e-6
-1.005, -2.991e-6
-1.004, -3.041e-6
-1.003, -3.110e-6
-1.002, -3.021e-6
-1.001, -3.011e-6
