Dec. 20, 2024   22:10:26
Cyclic Voltammetry
File: c:/users/guazh/data/banditlqround7_x0exp667_r5/2024-12-16-exp715\exp715-2024-12-20t22_04_02-arkoh\exp715_cv_sr_200mvs_efin_-1400mv.bin
Data Source:  Experiment
Instrument Model:  CHI760E
Header: CV ran at 200 mVs
Note: 

Init E (V) = -1
High E (V) = -1
Low E (V) = -1.4
Final E (V) = -1
Init P/N = N
Scan Rate (V/s) = 0.2
Segment = 3
Sample Interval (V) = 0.001
Quiet Time (sec) = 2
Sensitivity (A/V) = 0.01
Comp R (ohm) = 1.3

Results:

Channel 1:
Segment 1:

Segment 2:

Segment 3:

Potential/V, Current/A

-1.000, -2.951e-3
-1.001, -2.846e-3
-1.002, -2.726e-3
-1.003, -2.610e-3
-1.004, -2.515e-3
-1.005, -2.415e-3
-1.006, -2.303e-3
-1.007, -2.210e-3
-1.008, -2.121e-3
-1.009, -2.015e-3
-1.010, -1.923e-3
-1.011, -1.842e-3
-1.012, -1.745e-3
-1.013, -1.648e-3
-1.014, -1.570e-3
-1.015, -1.484e-3
-1.016, -1.386e-3
-1.017, -1.307e-3
-1.018, -1.231e-3
-1.019, -1.137e-3
-1.020, -1.053e-3
-1.021, -9.836e-4
-1.022, -8.969e-4
-1.023, -8.082e-4
-1.024, -7.377e-4
-1.025, -6.605e-4
-1.026, -5.710e-4
-1.027, -5.001e-4
-1.028, -4.317e-4
-1.029, -3.480e-4
-1.030, -2.717e-4
-1.031, -2.089e-4
-1.032, -1.306e-4
-1.033, -4.980e-5
-1.034, 1.230e-5
-1.035, 8.266e-5
-1.036, 1.656e-4
-1.037, 2.303e-4
-1.038, 2.917e-4
-1.039, 3.721e-4
-1.040, 4.414e-4
-1.041, 4.980e-4
-1.042, 5.713e-4
-1.043, 6.463e-4
-1.044, 7.033e-4
-1.045, 7.671e-4
-1.046, 8.456e-4
-1.047, 9.051e-4
-1.048, 9.622e-4
-1.049, 1.037e-3
-1.050, 1.102e-3
-1.051, 1.153e-3
-1.052, 1.221e-3
-1.053, 1.291e-3
-1.054, 1.343e-3
-1.055, 1.403e-3
-1.056, 1.476e-3
-1.057, 1.531e-3
-1.058, 1.583e-3
-1.059, 1.654e-3
-1.060, 1.715e-3
-1.061, 1.762e-3
-1.062, 1.826e-3
-1.063, 1.892e-3
-1.064, 1.939e-3
-1.065, 1.995e-3
-1.066, 2.064e-3
-1.067, 2.115e-3
-1.068, 2.164e-3
-1.069, 2.231e-3
-1.070, 2.290e-3
-1.071, 2.334e-3
-1.072, 2.396e-3
-1.073, 2.460e-3
-1.074, 2.505e-3
-1.075, 2.559e-3
-1.076, 2.626e-3
-1.077, 2.674e-3
-1.078, 2.722e-3
-1.079, 2.787e-3
-1.080, 2.842e-3
-1.081, 2.883e-3
-1.082, 2.941e-3
-1.083, 3.003e-3
-1.084, 3.045e-3
-1.085, 3.099e-3
-1.086, 3.163e-3
-1.087, 3.209e-3
-1.088, 3.253e-3
-1.089, 3.315e-3
-1.090, 3.369e-3
-1.091, 3.408e-3
-1.092, 3.465e-3
-1.093, 3.523e-3
-1.094, 3.563e-3
-1.095, 3.613e-3
-1.096, 3.674e-3
-1.097, 3.718e-3
-1.098, 3.760e-3
-1.099, 3.821e-3
-1.100, 3.874e-3
-1.101, 3.910e-3
-1.102, 3.966e-3
-1.103, 4.021e-3
-1.104, 4.058e-3
-1.105, 4.105e-3
-1.106, 4.166e-3
-1.107, 4.211e-3
-1.108, 4.254e-3
-1.109, 4.313e-3
-1.110, 4.363e-3
-1.111, 4.398e-3
-1.112, 4.454e-3
-1.113, 4.510e-3
-1.114, 4.548e-3
-1.115, 4.596e-3
-1.116, 4.655e-3
-1.117, 4.696e-3
-1.118, 4.736e-3
-1.119, 4.796e-3
-1.120, 4.846e-3
-1.121, 4.882e-3
-1.122, 4.936e-3
-1.123, 4.991e-3
-1.124, 5.028e-3
-1.125, 5.073e-3
-1.126, 5.132e-3
-1.127, 5.173e-3
-1.128, 5.213e-3
-1.129, 5.272e-3
-1.130, 5.318e-3
-1.131, 5.356e-3
-1.132, 5.409e-3
-1.133, 5.462e-3
-1.134, 5.497e-3
-1.135, 5.541e-3
-1.136, 5.601e-3
-1.137, 5.643e-3
-1.138, 5.684e-3
-1.139, 5.743e-3
-1.140, 5.795e-3
-1.141, 5.831e-3
-1.142, 5.883e-3
-1.143, 5.936e-3
-1.144, 5.967e-3
-1.145, 6.010e-3
-1.146, 6.067e-3
-1.147, 6.109e-3
-1.148, 6.148e-3
-1.149, 6.204e-3
-1.150, 6.254e-3
-1.151, 6.288e-3
-1.152, 6.338e-3
-1.153, 6.391e-3
-1.154, 6.426e-3
-1.155, 6.471e-3
-1.156, 6.530e-3
-1.157, 6.569e-3
-1.158, 6.605e-3
-1.159, 6.662e-3
-1.160, 6.711e-3
-1.161, 6.745e-3
-1.162, 6.797e-3
-1.163, 6.851e-3
-1.164, 6.887e-3
-1.165, 6.930e-3
-1.166, 6.987e-3
-1.167, 7.026e-3
-1.168, 7.061e-3
-1.169, 7.117e-3
-1.170, 7.165e-3
-1.171, 7.200e-3
-1.172, 7.251e-3
-1.173, 7.305e-3
-1.174, 7.342e-3
-1.175, 7.388e-3
-1.176, 7.448e-3
-1.177, 7.490e-3
-1.178, 7.530e-3
-1.179, 7.585e-3
-1.180, 7.631e-3
-1.181, 7.666e-3
-1.182, 7.721e-3
-1.183, 7.778e-3
-1.184, 7.814e-3
-1.185, 7.859e-3
-1.186, 7.918e-3
-1.187, 7.960e-3
-1.188, 7.999e-3
-1.189, 8.054e-3
-1.190, 8.100e-3
-1.191, 8.137e-3
-1.192, 8.192e-3
-1.193, 8.250e-3
-1.194, 8.287e-3
-1.195, 8.333e-3
-1.196, 8.390e-3
-1.197, 8.430e-3
-1.198, 8.470e-3
-1.199, 8.530e-3
-1.200, 8.580e-3
-1.201, 8.614e-3
-1.202, 8.667e-3
-1.203, 8.721e-3
-1.204, 8.757e-3
-1.205, 8.803e-3
-1.206, 8.863e-3
-1.207, 8.907e-3
-1.208, 8.936e-3
-1.209, 8.997e-3
-1.210, 9.047e-3
-1.211, 9.090e-3
-1.212, 9.145e-3
-1.213, 9.203e-3
-1.214, 9.240e-3
-1.215, 9.291e-3
-1.216, 9.348e-3
-1.217, 9.384e-3
-1.218, 9.421e-3
-1.219, 9.475e-3
-1.220, 9.522e-3
-1.221, 9.558e-3
-1.222, 9.611e-3
-1.223, 9.667e-3
-1.224, 9.702e-3
-1.225, 9.750e-3
-1.226, 9.814e-3
-1.227, 9.858e-3
-1.228, 9.902e-3
-1.229, 9.965e-3
-1.230, 1.002e-2
-1.231, 1.005e-2
-1.232, 1.010e-2
-1.233, 1.017e-2
-1.234, 1.021e-2
-1.235, 1.025e-2
-1.236, 1.031e-2
-1.237, 1.035e-2
-1.238, 1.040e-2
-1.239, 1.045e-2
-1.240, 1.050e-2
-1.241, 1.053e-2
-1.242, 1.059e-2
-1.243, 1.064e-2
-1.244, 1.067e-2
-1.245, 1.072e-2
-1.246, 1.078e-2
-1.247, 1.082e-2
-1.248, 1.086e-2
-1.249, 1.092e-2
-1.250, 1.096e-2
-1.251, 1.099e-2
-1.252, 1.105e-2
-1.253, 1.110e-2
-1.254, 1.114e-2
-1.255, 1.119e-2
-1.256, 1.125e-2
-1.257, 1.129e-2
-1.258, 1.134e-2
-1.259, 1.139e-2
-1.260, 1.145e-2
-1.261, 1.150e-2
-1.262, 1.156e-2
-1.263, 1.161e-2
-1.264, 1.165e-2
-1.265, 1.169e-2
-1.266, 1.175e-2
-1.267, 1.178e-2
-1.268, 1.182e-2
-1.269, 1.187e-2
-1.270, 1.192e-2
-1.271, 1.195e-2
-1.272, 1.201e-2
-1.273, 1.206e-2
-1.274, 1.210e-2
-1.275, 1.215e-2
-1.276, 1.221e-2
-1.277, 1.225e-2
-1.278, 1.230e-2
-1.279, 1.237e-2
-1.280, 1.242e-2
-1.281, 1.246e-2
-1.282, 1.252e-2
-1.283, 1.258e-2
-1.284, 1.262e-2
-1.285, 1.267e-2
-1.286, 1.273e-2
-1.287, 1.278e-2
-1.288, 1.282e-2
-1.289, 1.288e-2
-1.290, 1.293e-2
-1.291, 1.297e-2
-1.292, 1.303e-2
-1.293, 1.309e-2
-1.294, 1.313e-2
-1.295, 1.317e-2
-1.296, 1.324e-2
-1.297, 1.328e-2
-1.298, 1.332e-2
-1.299, 1.338e-2
-1.300, 1.342e-2
-1.301, 1.346e-2
-1.302, 1.352e-2
-1.303, 1.358e-2
-1.304, 1.362e-2
-1.305, 1.367e-2
-1.306, 1.373e-2
-1.307, 1.377e-2
-1.308, 1.382e-2
-1.309, 1.388e-2
-1.310, 1.393e-2
-1.311, 1.398e-2
-1.312, 1.404e-2
-1.313, 1.409e-2
-1.314, 1.413e-2
-1.315, 1.418e-2
-1.316, 1.424e-2
-1.317, 1.429e-2
-1.318, 1.433e-2
-1.319, 1.440e-2
-1.320, 1.446e-2
-1.321, 1.452e-2
-1.322, 1.459e-2
-1.323, 1.465e-2
-1.324, 1.470e-2
-1.325, 1.475e-2
-1.326, 1.481e-2
-1.327, 1.485e-2
-1.328, 1.488e-2
-1.329, 1.494e-2
-1.330, 1.499e-2
-1.331, 1.503e-2
-1.332, 1.508e-2
-1.333, 1.514e-2
-1.334, 1.519e-2
-1.335, 1.525e-2
-1.336, 1.532e-2
-1.337, 1.536e-2
-1.338, 1.541e-2
-1.339, 1.547e-2
-1.340, 1.553e-2
-1.341, 1.556e-2
-1.342, 1.563e-2
-1.343, 1.570e-2
-1.344, 1.575e-2
-1.345, 1.580e-2
-1.346, 1.587e-2
-1.347, 1.591e-2
-1.348, 1.596e-2
-1.349, 1.602e-2
-1.350, 1.608e-2
-1.351, 1.613e-2
-1.352, 1.620e-2
-1.353, 1.626e-2
-1.354, 1.631e-2
-1.355, 1.637e-2
-1.356, 1.643e-2
-1.357, 1.648e-2
-1.358, 1.653e-2
-1.359, 1.660e-2
-1.360, 1.665e-2
-1.361, 1.670e-2
-1.362, 1.677e-2
-1.363, 1.683e-2
-1.364, 1.687e-2
-1.365, 1.693e-2
-1.366, 1.699e-2
-1.367, 1.705e-2
-1.368, 1.712e-2
-1.369, 1.721e-2
-1.370, 1.727e-2
-1.371, 1.731e-2
-1.372, 1.738e-2
-1.373, 1.745e-2
-1.374, 1.749e-2
-1.375, 1.754e-2
-1.376, 1.761e-2
-1.377, 1.765e-2
-1.378, 1.769e-2
-1.379, 1.774e-2
-1.380, 1.779e-2
-1.381, 1.782e-2
-1.382, 1.788e-2
-1.383, 1.793e-2
-1.384, 1.797e-2
-1.385, 1.802e-2
-1.386, 1.809e-2
-1.387, 1.815e-2
-1.388, 1.821e-2
-1.389, 1.828e-2
-1.390, 1.834e-2
-1.391, 1.839e-2
-1.392, 1.845e-2
-1.393, 1.852e-2
-1.394, 1.856e-2
-1.395, 1.862e-2
-1.396, 1.869e-2
-1.397, 1.873e-2
-1.398, 1.878e-2
-1.399, 1.885e-2
-1.400, 1.879e-2
-1.399, 1.860e-2
-1.398, 1.843e-2
-1.397, 1.826e-2
-1.396, 1.806e-2
-1.395, 1.788e-2
-1.394, 1.773e-2
-1.393, 1.757e-2
-1.392, 1.741e-2
-1.391, 1.726e-2
-1.390, 1.711e-2
-1.389, 1.695e-2
-1.388, 1.679e-2
-1.387, 1.663e-2
-1.386, 1.646e-2
-1.385, 1.629e-2
-1.384, 1.614e-2
-1.383, 1.598e-2
-1.382, 1.582e-2
-1.381, 1.568e-2
-1.380, 1.553e-2
-1.379, 1.537e-2
-1.378, 1.522e-2
-1.377, 1.509e-2
-1.376, 1.494e-2
-1.375, 1.479e-2
-1.374, 1.466e-2
-1.373, 1.451e-2
-1.372, 1.436e-2
-1.371, 1.423e-2
-1.370, 1.409e-2
-1.369, 1.393e-2
-1.368, 1.379e-2
-1.367, 1.365e-2
-1.366, 1.348e-2
-1.365, 1.333e-2
-1.364, 1.320e-2
-1.363, 1.304e-2
-1.362, 1.289e-2
-1.361, 1.276e-2
-1.360, 1.262e-2
-1.359, 1.247e-2
-1.358, 1.234e-2
-1.357, 1.221e-2
-1.356, 1.206e-2
-1.355, 1.192e-2
-1.354, 1.180e-2
-1.353, 1.166e-2
-1.352, 1.153e-2
-1.351, 1.141e-2
-1.350, 1.127e-2
-1.349, 1.113e-2
-1.348, 1.100e-2
-1.347, 1.087e-2
-1.346, 1.072e-2
-1.345, 1.059e-2
-1.344, 1.047e-2
-1.343, 1.034e-2
-1.342, 1.019e-2
-1.341, 1.008e-2
-1.340, 9.949e-3
-1.339, 9.803e-3
-1.338, 9.685e-3
-1.337, 9.566e-3
-1.336, 9.428e-3
-1.335, 9.303e-3
-1.334, 9.192e-3
-1.333, 9.065e-3
-1.332, 8.930e-3
-1.331, 8.818e-3
-1.330, 8.694e-3
-1.329, 8.560e-3
-1.328, 8.440e-3
-1.327, 8.328e-3
-1.326, 8.192e-3
-1.325, 8.071e-3
-1.324, 7.959e-3
-1.323, 7.831e-3
-1.322, 7.705e-3
-1.321, 7.599e-3
-1.320, 7.481e-3
-1.319, 7.349e-3
-1.318, 7.238e-3
-1.317, 7.127e-3
-1.316, 6.996e-3
-1.315, 6.882e-3
-1.314, 6.780e-3
-1.313, 6.663e-3
-1.312, 6.543e-3
-1.311, 6.440e-3
-1.310, 6.330e-3
-1.309, 6.206e-3
-1.308, 6.103e-3
-1.307, 5.998e-3
-1.306, 5.878e-3
-1.305, 5.767e-3
-1.304, 5.670e-3
-1.303, 5.552e-3
-1.302, 5.435e-3
-1.301, 5.340e-3
-1.300, 5.232e-3
-1.299, 5.113e-3
-1.298, 5.011e-3
-1.297, 4.912e-3
-1.296, 4.792e-3
-1.295, 4.684e-3
-1.294, 4.591e-3
-1.293, 4.480e-3
-1.292, 4.367e-3
-1.291, 4.276e-3
-1.290, 4.176e-3
-1.289, 4.061e-3
-1.288, 3.965e-3
-1.287, 3.870e-3
-1.286, 3.756e-3
-1.285, 3.654e-3
-1.284, 3.565e-3
-1.283, 3.457e-3
-1.282, 3.352e-3
-1.281, 3.268e-3
-1.280, 3.169e-3
-1.279, 3.057e-3
-1.278, 2.966e-3
-1.277, 2.877e-3
-1.276, 2.770e-3
-1.275, 2.673e-3
-1.274, 2.589e-3
-1.273, 2.487e-3
-1.272, 2.385e-3
-1.271, 2.300e-3
-1.270, 2.206e-3
-1.269, 2.100e-3
-1.268, 2.014e-3
-1.267, 1.930e-3
-1.266, 1.826e-3
-1.265, 1.734e-3
-1.264, 1.657e-3
-1.263, 1.557e-3
-1.262, 1.459e-3
-1.261, 1.382e-3
-1.260, 1.293e-3
-1.259, 1.193e-3
-1.258, 1.112e-3
-1.257, 1.030e-3
-1.256, 9.308e-4
-1.255, 8.418e-4
-1.254, 7.659e-4
-1.253, 6.731e-4
-1.252, 5.783e-4
-1.251, 5.037e-4
-1.250, 4.199e-4
-1.249, 3.222e-4
-1.248, 2.454e-4
-1.247, 1.698e-4
-1.246, 7.404e-5
-1.245, -9.513e-6
-1.244, -8.100e-5
-1.243, -1.696e-4
-1.242, -2.597e-4
-1.241, -3.311e-4
-1.240, -4.104e-4
-1.239, -5.039e-4
-1.238, -5.780e-4
-1.237, -6.498e-4
-1.236, -7.421e-4
-1.235, -8.227e-4
-1.234, -8.892e-4
-1.233, -9.750e-4
-1.232, -1.061e-3
-1.231, -1.128e-3
-1.230, -1.205e-3
-1.229, -1.298e-3
-1.228, -1.370e-3
-1.227, -1.439e-3
-1.226, -1.529e-3
-1.225, -1.606e-3
-1.224, -1.670e-3
-1.223, -1.752e-3
-1.222, -1.835e-3
-1.221, -1.897e-3
-1.220, -1.971e-3
-1.219, -2.056e-3
-1.218, -2.123e-3
-1.217, -2.188e-3
-1.216, -2.274e-3
-1.215, -2.349e-3
-1.214, -2.410e-3
-1.213, -2.489e-3
-1.212, -2.568e-3
-1.211, -2.627e-3
-1.210, -2.699e-3
-1.209, -2.782e-3
-1.208, -2.846e-3
-1.207, -2.909e-3
-1.206, -2.988e-3
-1.205, -3.056e-3
-1.204, -3.112e-3
-1.203, -3.188e-3
-1.202, -3.267e-3
-1.201, -3.326e-3
-1.200, -3.393e-3
-1.199, -3.474e-3
-1.198, -3.535e-3
-1.197, -3.593e-3
-1.196, -3.670e-3
-1.195, -3.734e-3
-1.194, -3.788e-3
-1.193, -3.860e-3
-1.192, -3.932e-3
-1.191, -3.986e-3
-1.190, -4.052e-3
-1.189, -4.130e-3
-1.188, -4.189e-3
-1.187, -4.248e-3
-1.186, -4.325e-3
-1.185, -4.391e-3
-1.184, -4.443e-3
-1.183, -4.517e-3
-1.182, -4.591e-3
-1.181, -4.643e-3
-1.180, -4.707e-3
-1.179, -4.784e-3
-1.178, -4.841e-3
-1.177, -4.897e-3
-1.176, -4.970e-3
-1.175, -5.034e-3
-1.174, -5.086e-3
-1.173, -5.153e-3
-1.172, -5.222e-3
-1.171, -5.270e-3
-1.170, -5.328e-3
-1.169, -5.400e-3
-1.168, -5.455e-3
-1.167, -5.507e-3
-1.166, -5.576e-3
-1.165, -5.636e-3
-1.164, -5.684e-3
-1.163, -5.751e-3
-1.162, -5.819e-3
-1.161, -5.868e-3
-1.160, -5.926e-3
-1.159, -6.001e-3
-1.158, -6.053e-3
-1.157, -6.106e-3
-1.156, -6.178e-3
-1.155, -6.238e-3
-1.154, -6.287e-3
-1.153, -6.354e-3
-1.152, -6.421e-3
-1.151, -6.469e-3
-1.150, -6.526e-3
-1.149, -6.597e-3
-1.148, -6.647e-3
-1.147, -6.695e-3
-1.146, -6.766e-3
-1.145, -6.824e-3
-1.144, -6.867e-3
-1.143, -6.933e-3
-1.142, -6.999e-3
-1.141, -7.044e-3
-1.140, -7.102e-3
-1.139, -7.171e-3
-1.138, -7.221e-3
-1.137, -7.271e-3
-1.136, -7.338e-3
-1.135, -7.394e-3
-1.134, -7.439e-3
-1.133, -7.501e-3
-1.132, -7.566e-3
-1.131, -7.610e-3
-1.130, -7.665e-3
-1.129, -7.733e-3
-1.128, -7.781e-3
-1.127, -7.830e-3
-1.126, -7.899e-3
-1.125, -7.957e-3
-1.124, -8.002e-3
-1.123, -8.065e-3
-1.122, -8.128e-3
-1.121, -8.170e-3
-1.120, -8.223e-3
-1.119, -8.287e-3
-1.118, -8.334e-3
-1.117, -8.380e-3
-1.116, -8.446e-3
-1.115, -8.500e-3
-1.114, -8.543e-3
-1.113, -8.607e-3
-1.112, -8.671e-3
-1.111, -8.718e-3
-1.110, -8.772e-3
-1.109, -8.835e-3
-1.108, -8.881e-3
-1.107, -8.925e-3
-1.106, -8.989e-3
-1.105, -9.044e-3
-1.104, -9.083e-3
-1.103, -9.139e-3
-1.102, -9.199e-3
-1.101, -9.240e-3
-1.100, -9.292e-3
-1.099, -9.360e-3
-1.098, -9.409e-3
-1.097, -9.461e-3
-1.096, -9.525e-3
-1.095, -9.579e-3
-1.094, -9.623e-3
-1.093, -9.687e-3
-1.092, -9.746e-3
-1.091, -9.779e-3
-1.090, -9.826e-3
-1.089, -9.885e-3
-1.088, -9.923e-3
-1.087, -9.966e-3
-1.086, -1.002e-2
-1.085, -1.007e-2
-1.084, -1.010e-2
-1.083, -1.016e-2
-1.082, -1.021e-2
-1.081, -1.025e-2
-1.080, -1.029e-2
-1.079, -1.036e-2
-1.078, -1.039e-2
-1.077, -1.043e-2
-1.076, -1.049e-2
-1.075, -1.054e-2
-1.074, -1.058e-2
-1.073, -1.064e-2
-1.072, -1.070e-2
-1.071, -1.074e-2
-1.070, -1.079e-2
-1.069, -1.085e-2
-1.068, -1.089e-2
-1.067, -1.092e-2
-1.066, -1.098e-2
-1.065, -1.103e-2
-1.064, -1.106e-2
-1.063, -1.112e-2
-1.062, -1.117e-2
-1.061, -1.121e-2
-1.060, -1.126e-2
-1.059, -1.132e-2
-1.058, -1.136e-2
-1.057, -1.139e-2
-1.056, -1.145e-2
-1.055, -1.149e-2
-1.054, -1.152e-2
-1.053, -1.157e-2
-1.052, -1.162e-2
-1.051, -1.166e-2
-1.050, -1.171e-2
-1.049, -1.176e-2
-1.048, -1.180e-2
-1.047, -1.184e-2
-1.046, -1.190e-2
-1.045, -1.195e-2
-1.044, -1.199e-2
-1.043, -1.204e-2
-1.042, -1.208e-2
-1.041, -1.211e-2
-1.040, -1.215e-2
-1.039, -1.220e-2
-1.038, -1.223e-2
-1.037, -1.227e-2
-1.036, -1.232e-2
-1.035, -1.236e-2
-1.034, -1.238e-2
-1.033, -1.243e-2
-1.032, -1.247e-2
-1.031, -1.250e-2
-1.030, -1.254e-2
-1.029, -1.259e-2
-1.028, -1.262e-2
-1.027, -1.266e-2
-1.026, -1.271e-2
-1.025, -1.275e-2
-1.024, -1.278e-2
-1.023, -1.282e-2
-1.022, -1.287e-2
-1.021, -1.289e-2
-1.020, -1.294e-2
-1.019, -1.299e-2
-1.018, -1.303e-2
-1.017, -1.305e-2
-1.016, -1.311e-2
-1.015, -1.316e-2
-1.014, -1.319e-2
-1.013, -1.323e-2
-1.012, -1.327e-2
-1.011, -1.330e-2
-1.010, -1.334e-2
-1.009, -1.339e-2
-1.008, -1.342e-2
-1.007, -1.344e-2
-1.006, -1.349e-2
-1.005, -1.352e-2
-1.004, -1.354e-2
-1.003, -1.358e-2
-1.002, -1.364e-2
-1.001, -1.367e-2
