Potential V vs RHE, Current mA cm-2
0.013299999999999867,36.329786180534136
0.012299999999999978,34.58969128170015
0.011299999999999866,32.8354492698675
0.010299999999999976,31.22267838802136
0.009299999999999864,29.652348845171172
0.008299999999999974,28.22349043230748
0.007299999999999862,26.86536758443705
0.006299999999999972,25.37992071957876
0.00529999999999986,23.894473854720466
0.0042999999999999705,22.324144311870278
0.0032999999999998586,20.85284456001064
0.0022999999999999687,19.49472171214021
0.0012999999999998568,18.23562865526032
0.00029999999999996696,16.919947146385837
-0.000700000000000145,15.575971411514052
-0.0017000000000000348,14.130136463051985
-0.0027000000000001467,12.68996035978938
-0.0037000000000000366,11.33891106841827
-0.0047000000000001485,10.116600505334876
-0.005700000000000038,8.939560703847167
-0.00670000000000015,7.7186648520636405
-0.00770000000000004,6.366200849392665
-0.008700000000000152,5.057592897017507
-0.009700000000000042,3.7051288943465317
-0.010700000000000154,2.4403769922671885
-0.011700000000000044,1.3063444142953748
-0.012700000000000156,0.17231183632356148
-0.013700000000000045,-1.0490084288499246
-0.014700000000000157,-2.3144676865791998
-0.015700000000000047,-3.623075638954359
-0.01670000000000016,-4.843971490737885
-0.01770000000000005,-5.977155241929781
-0.01870000000000016,-7.067897654125724
-0.01970000000000005,-8.158640066321666
-0.020700000000000163,-9.335679867809377
-0.021700000000000053,-10.557990430892769
-0.022700000000000164,-11.82274233297211
-0.023700000000000054,-12.955926084164007
-0.024700000000000166,-14.046668496359947
-0.025700000000000056,-15.05252823056399
-0.026700000000000168,-16.099414592464115
-0.027700000000000058,-17.2736249713521
-0.02870000000000017,-18.44783535024008
-0.02970000000000006,-19.579604390132108
-0.03070000000000017,-20.683079204026836
-0.03170000000000006,-21.67337711393236
-0.03270000000000017,-22.67782213683654
-0.03370000000000006,-23.724708498736668
-0.034700000000000175,-24.870624651627345
-0.035700000000000065,-26.044835030515326
-0.03670000000000018,-27.134162731411404
-0.03770000000000007,-28.13860775431558
-0.03870000000000018,-29.100611438223805
-0.03970000000000007,-30.04846800913338
-0.04070000000000018,-31.095354371033505
-0.04170000000000007,-32.24127052392419
-0.04270000000000018,-33.330598224820264
-0.04370000000000007,-34.41992592571634
-0.044700000000000184,-35.38192960962457
-0.045700000000000074,-36.28734484153819
-0.046700000000000186,-37.249348525446415
-0.047700000000000076,-38.29623488734655
-0.04870000000000019,-39.38556258824262
-0.04970000000000008,-40.43244895014274
-0.05070000000000019,-41.39445263405098
-0.05170000000000008,-42.31401497896325
-0.05270000000000019,-43.23357732387552
-0.05370000000000008,-44.181433894785094
-0.05470000000000019,-45.22832025668522
-0.05570000000000008,-46.27520661858535
-0.056700000000000195,-47.32209298048547
-0.057700000000000085,-48.1992139864018
-0.058700000000000196,-49.076334992318124
-0.059700000000000086,-49.98175022423175
-0.0607000000000002,-50.943753908139975
-0.06170000000000009,-51.948198931044146
-0.0627000000000002,-52.995085292944275
-0.06370000000000009,-53.9570889768525
-0.0647000000000002,-54.834209982768826
-0.06570000000000009,-55.612301197694585
-0.0667000000000002,-56.489422203610914
-0.0677000000000001,-57.45142588751914
-0.0687000000000002,-58.45587091042332
-0.0697000000000001,-59.44616882032884
-0.07070000000000021,-60.36573116524111
-0.0717000000000001,-61.15796949316553
-0.07270000000000021,-61.97850204708726
-0.0737000000000001,-62.855623053003576
-0.07470000000000021,-63.81762673691181
-0.0757000000000001,-64.82207175981598
-0.07670000000000021,-65.76992833072556
-0.0777000000000001,-66.64704933664189
-0.07870000000000021,-67.43928766456631
-0.0797000000000001,-68.25982021848802
-0.08070000000000022,-69.1793825634003
-0.0817000000000001,-70.18382758630447
-0.08270000000000022,-71.1458312702127
-0.08370000000000011,-72.00880516313036
-0.08470000000000022,-72.84348483005074
-0.08570000000000011,-73.57913470598055
-0.08670000000000022,-74.37137303390499
-0.08770000000000011,-75.33337671781321
-0.08870000000000022,-76.29538040172143
-0.08970000000000011,-77.243236972631
-0.09070000000000022,-78.07791663955136
-0.09170000000000011,-78.85600785447714
-0.09270000000000023,-79.60580484340561
-0.09370000000000012,-80.52536718831789
-0.09470000000000023,-81.43078242023151
-0.09570000000000012,-82.35034476514379
-0.09670000000000023,-83.22746577106011
-0.09770000000000012,-84.00555698598588
-0.09870000000000023,-84.7129126359184
-0.09970000000000012,-85.53344518984011
-0.10070000000000023,-86.41056619575643
-0.10170000000000012,-87.37256987966467
-0.10270000000000024,-88.32042645057423
-0.10370000000000013,-89.23998879548651
-0.10470000000000024,-90.03222712341093
-0.10570000000000013,-90.81031833833671
-0.10670000000000024,-91.60255666626112
-0.10770000000000013,-92.56456035016936
-0.10870000000000024,-93.51241692107894
-0.10970000000000013,-94.47442060498715
-0.11070000000000024,-95.26665893291157
-0.11170000000000013,-96.00230880884139
-0.11270000000000002,-96.73795868477121
-0.11370000000000013,-97.57263835169158
-0.11470000000000002,-98.49220069660386
-0.11570000000000014,-99.45420438051207
-0.11670000000000003,-100.31717827342976
-0.11770000000000014,-101.15185794035013
-0.11870000000000003,-101.84506647728399
-0.11970000000000014,-102.59486346621246
-0.12070000000000003,-103.45783735913014
-0.12170000000000014,-104.3773997040424
-0.12270000000000003,-105.25452070995874
-0.12370000000000014,-106.11749460287639
-0.12470000000000003,-106.82485025280893
-0.12570000000000014,-107.51805878974278
-0.12670000000000003,-108.2537086656726
-0.12770000000000015,-109.13082967158894
-0.12870000000000004,-110.09283335549715
-0.12970000000000015,-111.01239570040943
-0.13070000000000004,-111.7904869153352
-0.13170000000000015,-112.44125411327312
-0.13270000000000004,-113.14860976320564
-0.13370000000000015,-113.88425963913545
-0.13470000000000004,-114.71893930605583
-0.13570000000000015,-115.5819131989735
-0.13670000000000004,-116.41659286589388
-0.13770000000000016,-117.15224274182368
-0.13870000000000005,-117.81715705276027
-0.13970000000000016,-118.46792425069816
-0.14070000000000005,-119.2884568046199
-0.14170000000000016,-120.16557781053622
-0.14270000000000005,-121.04269881645253
-0.14370000000000016,-121.82079003137831
-0.14470000000000005,-122.61302835930273
-0.14570000000000016,-123.26379555724066
-0.14670000000000005,-124.05603388516508
-0.14770000000000016,-124.91900777808273
-0.14870000000000005,-125.83857012299501
-0.14970000000000017,-126.71569112891132
-0.15070000000000006,-127.53622368283307
-0.15170000000000017,-128.2294322197669
-0.15270000000000006,-128.89434653070347
-0.15370000000000017,-129.6299964066333
-0.15470000000000006,-130.50711741254963
-0.15570000000000017,-131.46912109645783
-0.15670000000000006,-132.2896536503796
-0.15770000000000017,-133.03945063930803
-0.15870000000000006,-133.77510051523788
-0.15970000000000018,-134.5107503911677
-0.16070000000000007,-135.387871397084
-0.16170000000000018,-136.30743374199628
-0.16270000000000007,-137.22699608690854
-0.16370000000000018,-138.08996997982624
-0.16470000000000007,-138.88220830775063
-0.16570000000000018,-139.61785818368048
-0.16670000000000007,-140.41009651160488
-0.16770000000000018,-141.27307040452254
-0.16870000000000007,-142.17848563643616
-0.16970000000000018,-143.16878354634173
-0.17070000000000007,-143.87613919627424
-0.17170000000000019,-144.58349484620675
-0.17270000000000008,-145.43232162612577
-0.1737000000000002,-146.28114840604482
-0.17470000000000008,-147.1299751859638
-0.1757000000000002,-147.97880196588284
-0.17670000000000008,-148.96909987578834
-0.1777000000000002,-149.6764555257209
-0.17870000000000008,-150.38381117565342
-0.1797000000000002,-151.23263795557244
-0.18070000000000008,-151.93999360550492
-0.1817000000000002,-152.93029151541046
-0.18270000000000008,-153.77911829532948
-0.1837000000000002,-154.486473945262
-0.1847000000000001,-155.19382959519453
-0.1857000000000002,-155.90118524512707
-0.1867000000000001,-156.60854089505958
-0.1877000000000002,-157.45736767497857
-0.1887000000000001,-158.3061944548976
-0.1897000000000002,-159.15502123481662
-0.1907000000000001,-159.86237688474912
-0.1917000000000001,-160.5697325346817
-0.19269999999999998,-161.2770881846142
-0.1937000000000001,-161.9844438345467
-0.19469999999999998,-162.8332706144657
-0.1957000000000001,-163.82356852437124
-0.19669999999999999,-164.67239530429026
-0.1977000000000001,-165.3797509542228
-0.1987,-166.0871066041553
-0.1997000000000001,-166.79446225408785
-0.2007,-167.6432890340068
-0.2017000000000001,-168.63358694391238
-0.2027,-169.48241372383137
-0.2037000000000001,-170.33124050375042
-0.2047,-171.03859615368293
-0.2057000000000001,-171.74595180361547
-0.2067,-172.45330745354798
-0.2077000000000001,-173.44360536345349
-0.2087,-174.2924321433725
-0.2097000000000001,-175.28273005327804
-0.2107,-175.99008570321055
-0.2117000000000001,-176.6974413531431
-0.2127,-177.54626813306209
-0.2137000000000001,-178.25362378299462
-0.2147,-179.24392169290016
-0.2157000000000001,-180.37569073279218
-0.2167,-181.2245175127112
-0.21770000000000012,-181.79040203265723
-0.2187,-182.49775768258974
-0.21970000000000012,-183.20511333252225
-0.2207,-184.05394011244127
-0.22170000000000012,-184.9027668923603
-0.2227,-185.89306480226583
-0.22370000000000012,-186.74189158218485
-0.2247,-187.44924723211736
-0.22570000000000012,-188.29807401203638
-0.2267,-189.0054296619689
-0.22770000000000012,-189.8542564418879
-0.22870000000000001,-190.84455435179345
-0.22970000000000013,-191.551910001726
-0.23070000000000002,-192.40073678164498
-0.23170000000000013,-193.249563561564
-0.23270000000000002,-193.9569192114965
-0.23370000000000013,-194.66427486142905
-0.23470000000000002,-195.51310164134807
-0.23570000000000013,-196.50339955125358
-0.23670000000000002,-197.35222633117263
-0.2376999999999999,-198.05958198110514
-0.23870000000000002,-198.76693763103765
-0.2396999999999999,-199.61576441095667
-0.24070000000000003,-200.4645911908757
-0.24169999999999991,-201.31341797079472
-0.24270000000000003,-202.30371588070025
-0.24369999999999992,-203.01107153063276
-0.24470000000000003,-203.71842718056527
-0.24569999999999992,-204.42578283049778
-0.24670000000000003,-205.13313848043032
-0.24769999999999992,-205.98196526034934
-0.24870000000000003,-206.97226317025488
-0.24969999999999992,-207.8210899501739
-0.25070000000000003,-208.52844560010638
-0.2516999999999999,-209.37727238002543
-0.25270000000000004,-210.08462802995794
-0.2536999999999999,-211.07492593986345
-0.25470000000000004,-211.9237527197825
-0.2556999999999999,-212.914050629688
-0.25670000000000004,-213.62140627962054
-0.25769999999999993,-214.47023305953954
-0.25870000000000004,-215.03611757948556
-0.25969999999999993,-215.7434732294181
-0.26070000000000004,-216.4508288793506
-0.26169999999999993,-217.15818452928315
-0.26270000000000004,-218.14848243918865
-0.26369999999999993,-218.85583808912116
-0.26470000000000005,-219.5631937390537
-0.26569999999999994,-220.2705493889862
-0.26670000000000005,-220.97790503891872
-0.26769999999999994,-221.96820294882426
-0.26870000000000005,-222.81702972874328
-0.26969999999999994,-223.6658565086623
-0.27070000000000005,-224.5146832885813
-0.27169999999999994,-225.22203893851383
-0.27270000000000005,-225.92939458844637
-0.27369999999999994,-226.63675023837888
-0.27470000000000006,-227.4855770182979
-0.27569999999999995,-228.47587492820347
-0.27670000000000006,-229.18323057813595
-0.27769999999999995,-230.03205735805497
-0.27870000000000006,-230.880884137974
-0.27969999999999995,-231.5882397879065
-0.28070000000000006,-232.43706656782552
-0.28169999999999995,-233.4273644777311
-0.28270000000000006,-234.4176623876366
-0.28369999999999995,-235.26648916755556
-0.28470000000000006,-235.97384481748813
-0.28569999999999995,-236.82267159740715
-0.28670000000000007,-237.53002724733966
-0.28769999999999996,-238.5203251572452
-0.28870000000000007,-239.36915193716422
-0.28969999999999996,-240.21797871708318
-0.29070000000000007,-241.06680549700224
-0.29169999999999996,-241.77416114693477
-0.29270000000000007,-242.62298792685377
-0.29369999999999996,-243.3303435767863
-0.2947000000000001,-244.32064148669184
-0.29569999999999996,-245.16946826661086
-0.2967000000000001,-246.15976617651637
-0.29769999999999996,-247.0085929564354
-0.2987000000000001,-247.71594860636796
-0.29969999999999997,-248.56477538628693
-0.3007000000000001,-249.41360216620598
-0.30169999999999997,-250.262428946125
-0.3027000000000001,-251.39419798601702
-0.30369999999999997,-252.10155363594956
-0.3047000000000001,-252.80890928588207
-0.30569999999999997,-253.51626493581452
-0.3067000000000001,-254.2236205857471
-0.3077,-255.21391849565262
-0.3087000000000001,-256.34568753554464
-0.3097,-257.33598544545015
-0.3107000000000001,-258.18481222536917
-0.3117,-258.8921678753017
-0.3127000000000001,-259.59952352523425
-0.3137,-260.3068791751668
-0.3147000000000001,-261.2971770850723
-0.3157,-262.2874749949778
-0.3167000000000001,-263.13630177489676
-0.3177,-263.98512855481584
-0.3187000000000001,-264.6924842047484
-0.3197,-265.5413109846674
-0.3207000000000001,-266.3901377645864
-0.3217,-267.38043567449193
-0.3227000000000001,-268.37073358439744
-0.3237,-269.2195603643164
-0.3247000000000001,-269.926916014249
-0.3257,-270.63427166418154
-0.3267000000000001,-271.341627314114
-0.3277,-272.1904540940331
-0.3287000000000001,-273.1807520039386
-0.3297,-274.0295787838576
-0.3307000000000001,-274.87840556377665
-0.3317,-275.58576121370913
-0.3327000000000001,-276.29311686364167
-0.3337,-277.1419436435607
-0.3347000000000001,-277.9907704234797
-0.3357,-278.8395972033987
-0.3367000000000001,-279.82989511330425
-0.3377,-280.5372507632368
-0.3387000000000001,-281.24460641316927
-0.3397,-282.09343319308834
-0.3407000000000001,-283.08373110299385
-0.3417,-284.07402901289936
-0.3427000000000001,-284.9228557928184
-0.3437,-285.7716825727374
-0.3447000000000001,-286.47903822266994
-0.3457,-287.1863938726024
-0.3467000000000001,-288.03522065252145
-0.3477,-288.8840474324405
-0.3487000000000001,-289.87434534234603
-0.3497,-290.86464325225154
-0.3507000000000001,-291.71347003217056
-0.3517,-292.56229681208964
-0.3527000000000001,-293.26965246202207
-0.3537,-294.2599503719276
-0.3547000000000001,-295.25024828183314
-0.3557,-296.3820173217252
-0.35670000000000013,-297.23084410164427
-0.3577,-298.2211420115498
-0.35870000000000013,-298.9284976614822
-0.3597,-299.7773244414013
-0.36070000000000013,-300.76762235130684
-0.3617,-301.7579202612123
-0.3626999999999999,-302.74821817111786
-0.3637,-303.5970449510368
-0.3646999999999999,-304.3044006009694
-0.3657,-305.1532273808884
-0.3666999999999999,-306.00205416080746
-0.3677,-306.8508809407265
-0.3686999999999999,-307.841178850632
-0.36970000000000003,-308.8314767605375
-0.3706999999999999,-309.6803035404565
-0.37170000000000003,-310.52913032037554
-0.3726999999999999,-311.2364859703081
-0.37370000000000003,-312.2267838802136
-0.3746999999999999,-313.21708179011915
-0.37570000000000003,-314.0659085700381
-0.3766999999999999,-314.91473534995714
-0.37770000000000004,-315.76356212987616
-0.3786999999999999,-316.47091777980876
-0.37970000000000004,-317.1782734297412
-0.3806999999999999,-318.02710020966026
-0.38170000000000004,-319.01739811956577
-0.38269999999999993,-320.00769602947133
-0.38370000000000004,-320.8565228093903
-0.38469999999999993,-321.7053495893094
-0.38570000000000004,-322.5541763692284
-0.38669999999999993,-322.12976297926883
-0.38570000000000004,-319.58328263951176
-0.38469999999999993,-317.1782734297412
-0.38370000000000004,-314.91473534995714
-0.38269999999999993,-312.50972614018656
-0.38170000000000004,-310.10471693041603
-0.3806999999999999,-307.69970772064545
-0.37970000000000004,-305.43616964086146
-0.3786999999999999,-303.17263156107737
-0.37770000000000004,-301.0505646112798
-0.3766999999999999,-298.78702653149577
-0.37570000000000003,-296.52348845171167
-0.3746999999999999,-294.11847924194115
-0.37370000000000003,-291.85494116215705
-0.3726999999999999,-289.59140308237295
-0.37170000000000003,-287.327865002589
-0.3706999999999999,-285.4887403127644
-0.36970000000000003,-283.3666733629668
-0.3686999999999999,-281.1031352831828
-0.3677,-278.8395972033987
-0.3666999999999999,-276.5760591236147
-0.3657,-274.4539921738171
-0.3646999999999999,-272.3319252240195
-0.3637,-270.35132940420846
-0.3626999999999999,-268.22926245441096
-0.3617,-266.1071955046134
-0.36070000000000013,-263.84365742482936
-0.3597,-261.8630616050183
-0.35870000000000013,-259.8824657852072
-0.3577,-257.90186996539614
-0.35670000000000013,-255.77980301559862
-0.3557,-253.65773606580112
-0.3547000000000001,-251.39419798601702
-0.3537,-249.2721310362195
-0.3527000000000001,-247.2915352164084
-0.3517,-245.16946826661086
-0.3507000000000001,-243.18887244679982
-0.3497,-241.20827662698875
-0.3487000000000001,-239.0862096771912
-0.3477,-236.96414272739366
-0.3467000000000001,-234.9835469075826
-0.3457,-233.00295108777152
-0.3447000000000001,-231.163826397947
-0.3437,-229.32470170812243
-0.3427000000000001,-227.34410588831142
-0.3417,-225.36351006850035
-0.3407000000000001,-223.2414431187028
-0.3397,-221.26084729889175
-0.3387000000000001,-219.42172260906716
-0.3377,-217.72406904922914
-0.3367000000000001,-215.88494435940459
-0.3357,-213.76287740960703
-0.3347000000000001,-211.782281589796
-0.3337,-209.8016857699849
-0.3327000000000001,-207.96256108016038
-0.3317,-206.12343639033585
-0.3307000000000001,-204.2843117005113
-0.3297,-202.44518701068677
-0.3287000000000001,-200.4645911908757
-0.3277,-198.48399537106465
-0.3267000000000001,-196.50339955125358
-0.3257,-194.80574599141553
-0.3247000000000001,-192.966621301591
-0.3237,-191.268967741753
-0.3227000000000001,-189.2883719219419
-0.3217,-187.30777610213087
-0.3207000000000001,-185.46865141230631
-0.3197,-183.62952672248176
-0.3187000000000001,-181.93187316264374
-0.3177,-180.23421960280567
-0.3167000000000001,-178.3950949129811
-0.3157,-176.4144990931701
-0.3147000000000001,-174.57537440334553
-0.3137,-172.73624971352098
-0.3127000000000001,-170.89712502369645
-0.3117,-169.3409425938449
-0.3107000000000001,-167.50181790402033
-0.3097,-165.8041643441823
-0.3087000000000001,-163.96503965435775
-0.3077,-162.12591496453322
-0.3067000000000001,-160.28679027470866
-0.30569999999999997,-158.5891367148706
-0.3047000000000001,-157.03295428501906
-0.30369999999999997,-155.33530072518104
-0.3027000000000001,-153.63764716534297
-0.30169999999999997,-151.7985224755184
-0.3007000000000001,-149.95939778569388
-0.29969999999999997,-148.26174422585584
-0.2987000000000001,-146.5640906660178
-0.29769999999999996,-145.00790823616626
-0.2967000000000001,-143.3102546763282
-0.29569999999999996,-141.61260111649017
-0.2947000000000001,-139.84421199165885
-0.29369999999999996,-138.00508730183432
-0.29270000000000007,-136.30743374199628
-0.29169999999999996,-134.69466286015015
-0.29070000000000007,-133.08189197830401
-0.28969999999999996,-131.32764996647134
-0.28870000000000007,-129.5451137286414
-0.28769999999999996,-127.76257749081147
-0.28670000000000007,-126.00833547897882
-0.28569999999999995,-124.35312325813672
-0.28470000000000006,-122.74035237629057
-0.28369999999999995,-121.17002283344038
-0.28270000000000006,-119.51481061259831
-0.28169999999999995,-117.77471571376431
-0.28070000000000006,-116.02047370193165
-0.27969999999999995,-114.23793746410173
-0.27870000000000006,-112.66760792125153
-0.27769999999999995,-111.3094850733811
-0.27670000000000006,-109.92306799951335
-0.27569999999999995,-108.2537086656726
-0.27470000000000006,-106.59849644483052
-0.27369999999999994,-104.90084288499246
-0.27270000000000005,-103.28807200314633
-0.27169999999999994,-101.76018379929208
-0.27070000000000005,-100.18985425644189
-0.26969999999999994,-98.6195247135917
-0.26870000000000005,-96.92187115375367
-0.26769999999999994,-95.12518780292505
