Potential V vs RHE, Current mA cm-2
0.05339999999999995,-0.02953917194118197
0.05239999999999995,-0.030458734286094236
0.051399999999999946,-0.03099632458004295
0.050399999999999945,-0.03137829663100652
0.049399999999999944,-0.031731974455972776
0.04839999999999994,-0.032085652280939035
0.04739999999999994,-0.03248177144490124
0.04639999999999994,-0.03284959638286615
0.04539999999999994,-0.033174979981835113
0.04439999999999994,-0.033542804919800016
0.04339999999999994,-0.03386818851876898
0.04239999999999994,-0.03423601345673389
0.04139999999999994,-0.03458969128170015
0.040399999999999936,-0.03490092776767045
0.039399999999999935,-0.03524045847963807
0.038399999999999934,-0.035565842078607024
0.03739999999999993,-0.035947814129570585
0.03639999999999993,-0.03632978618053414
0.03539999999999993,-0.0366551697795031
0.03439999999999993,-0.03699470049147071
0.03339999999999993,-0.03733423120343832
0.03239999999999993,-0.03773035036740053
0.03139999999999993,-0.03809817530536544
0.030399999999999927,-0.038409411791335744
0.029399999999999926,-0.038763089616302
0.028399999999999925,-0.03911676744126827
0.027399999999999924,-0.03951288660523048
0.026399999999999924,-0.03992315288219133
0.025399999999999923,-0.04024853648116029
0.024399999999999922,-0.0406163614191252
0.02339999999999992,-0.04097003924409146
0.02239999999999992,-0.041380305521052325
0.02139999999999992,-0.04177642468501453
0.020399999999999918,-0.042130102509980796
0.019399999999999917,-0.04248378033494705
0.018399999999999916,-0.04286575238591061
0.017399999999999916,-0.04327601866287147
0.016399999999999915,-0.04368628493983233
0.015399999999999914,-0.04406825699079589
0.014399999999999913,-0.044464376154758095
0.013399999999999912,-0.044860495318720314
0.012399999999999911,-0.04528490870867982
0.01139999999999991,-0.045681027872642034
0.01039999999999991,-0.046062999923605595
0.009399999999999908,-0.0464591190875678
0.008399999999999908,-0.04685523825153001
0.007399999999999907,-0.04729379875448818
0.006399999999999906,-0.04776065348344364
0.005399999999999905,-0.048156772647405845
0.004399999999999904,-0.04856703892436671
0.003399999999999903,-0.04896315808832892
0.002399999999999902,-0.04943001281728438
0.0013999999999999013,-0.0498827204332412
0.00039999999999990044,-0.05027883959720341
-0.0006000000000001005,-0.05071740010016157
-0.0016000000000001013,-0.051127666377122426
-0.0026000000000001022,-0.05160866821907654
-0.003600000000000103,-0.05208967006103065
-0.004600000000000104,-0.05249993633799151
-0.005600000000000105,-0.052938496840949666
-0.006600000000000106,-0.05337705734390783
-0.007600000000000107,-0.0538439120728633
-0.008600000000000108,-0.05435320814081471
-0.009600000000000108,-0.05480591575677152
-0.01060000000000011,-0.05524447625972968
-0.01160000000000011,-0.05569718387568649
-0.012600000000000111,-0.05620647994363791
-0.013600000000000112,-0.05670162889859067
-0.014600000000000113,-0.05714018940154882
-0.015600000000000114,-0.05759289701750564
-0.016600000000000115,-0.058073898859459745
-0.017600000000000116,-0.058569047814412516
-0.018600000000000116,-0.05906419676936528
-0.019600000000000117,-0.05953105149832075
-0.020600000000000118,-0.05996961200127891
-0.02160000000000012,-0.06045061384323301
-0.02260000000000012,-0.060959909911184426
-0.02360000000000012,-0.061483353092134506
-0.024600000000000122,-0.06196435493408861
-0.025600000000000123,-0.06244535677604271
-0.026600000000000124,-0.06295465284399412
-0.027600000000000124,-0.0634780960249442
-0.028600000000000125,-0.0640156863188929
-0.029600000000000126,-0.06453912949984296
-0.030600000000000127,-0.06503427845479573
-0.03160000000000013,-0.06554357452274716
-0.03260000000000013,-0.06609531192969452
-0.03360000000000013,-0.06661875511064458
-0.03460000000000002,-0.06714219829159464
-0.03560000000000002,-0.0676373472465474
-0.03660000000000002,-0.06814664331449882
-0.03760000000000002,-0.06872667494744349
-0.03860000000000002,-0.0692642652413922
-0.039600000000000024,-0.06975941419634496
-0.040600000000000025,-0.07029700449029368
-0.041600000000000026,-0.07082044767124374
-0.04260000000000003,-0.07138633219118974
-0.04360000000000003,-0.07196636382413442
-0.04460000000000003,-0.07248980700508448
-0.04560000000000003,-0.07301325018603454
-0.04660000000000003,-0.07355084047998325
-0.04760000000000003,-0.07411672499992927
-0.04860000000000003,-0.07469675663287394
-0.04960000000000003,-0.07520605270082535
-0.050600000000000034,-0.07575779010777271
-0.051600000000000035,-0.07629538040172142
-0.052600000000000036,-0.07686126492166745
-0.053600000000000037,-0.0774412965546121
-0.05460000000000004,-0.07800718107455813
-0.05560000000000004,-0.07853062425550819
-0.05660000000000004,-0.07911065588845285
-0.05760000000000004,-0.07967654040839886
-0.05860000000000004,-0.08024242492834488
-0.05960000000000004,-0.0807800152222936
-0.06060000000000004,-0.08133175262924096
-0.061600000000000044,-0.08191178426218561
-0.06260000000000004,-0.08250596300812894
-0.06360000000000005,-0.08308599464107361
-0.06460000000000005,-0.08360943782202368
-0.06560000000000005,-0.08411873388997508
-0.06660000000000005,-0.08465632418392378
-0.06760000000000005,-0.08525050292986712
-0.06860000000000005,-0.08581638744981313
-0.06960000000000005,-0.08641056619575643
-0.07060000000000005,-0.0869340093767065
-0.07160000000000005,-0.0874433054446579
-0.07260000000000005,-0.08799504285160528
-0.07360000000000005,-0.08857507448454995
-0.07460000000000006,-0.08911266477849866
-0.07560000000000006,-0.08966440218544602
-0.07660000000000006,-0.09023028670539203
-0.07760000000000006,-0.09079617122533806
-0.07860000000000006,-0.09137620285828273
-0.07960000000000006,-0.09191379315223143
-0.08060000000000006,-0.0924372363331815
-0.08160000000000006,-0.09298897374012885
-0.08260000000000006,-0.09355485826007487
-0.08360000000000006,-0.09413488989301955
-0.08460000000000006,-0.0946583330739696
-0.08560000000000006,-0.09518177625491966
-0.08660000000000007,-0.0957193665488684
-0.08760000000000007,-0.09627110395581574
-0.08860000000000007,-0.09685113558876042
-0.08960000000000007,-0.09736043165671183
-0.09060000000000007,-0.09786972772466324
-0.09160000000000007,-0.09837902379261465
-0.09260000000000007,-0.09893076119956201
-0.09360000000000007,-0.09946835149351073
-0.09460000000000007,-0.09997764756146214
-0.09560000000000007,-0.1005010907424122
-0.09660000000000007,-0.10101038681036362
-0.09760000000000008,-0.10151968287831505
-0.09860000000000008,-0.1020714202852624
-0.09960000000000008,-0.10255242212721652
-0.10060000000000008,-0.10300512974317333
-0.10160000000000008,-0.10351442581112473
-0.10260000000000008,-0.10402372187907614
-0.10360000000000008,-0.10451887083402892
-0.10460000000000008,-0.10499987267598301
-0.10560000000000008,-0.10546672740493848
-0.10660000000000008,-0.1059477292468926
-0.10760000000000008,-0.10644287820184536
-0.10860000000000009,-0.10695217426979677
-0.10960000000000009,-0.10741902899875223
-0.11060000000000009,-0.10784344238871174
-0.11160000000000009,-0.10829615000466856
-0.11260000000000009,-0.10877715184662266
-0.11360000000000009,-0.10925815368857679
-0.11460000000000009,-0.10972500841753224
-0.11560000000000009,-0.11016356892049041
-0.11660000000000009,-0.11057383519745125
-0.1176000000000001,-0.11104068992640674
-0.1186000000000001,-0.11149339754236354
-0.1196000000000001,-0.11190366381932441
-0.1206000000000001,-0.11229978298328659
-0.1216000000000001,-0.11272419637324613
-0.1226000000000001,-0.11314860976320563
-0.1236000000000001,-0.11357302315316514
-0.1246000000000001,-0.1139549952041287
-0.1256000000000001,-0.11433696725509226
-0.1266000000000001,-0.11471893930605583
-0.1276000000000001,-0.11511505847001803
-0.1286000000000001,-0.1155253247469789
-0.1296000000000001,-0.1159214439109411
-0.1306000000000001,-0.11627512173590737
-0.1316000000000001,-0.11664294667387226
-0.1326000000000001,-0.11702491872483582
-0.1336000000000001,-0.11742103788879804
-0.1346000000000001,-0.11776056860076566
-0.1356000000000001,-0.11808595219973461
-0.1366000000000001,-0.11839718868570492
-0.1376000000000001,-0.11872257228467388
-0.1386000000000001,-0.11909039722263878
-0.1396000000000001,-0.11941578082160774
-0.1406000000000001,-0.11972701730757807
-0.14160000000000011,-0.12002410668054972
-0.14260000000000012,-0.12033534316652002
-0.14360000000000012,-0.12066072676548899
-0.14460000000000012,-0.12095781613846063
-0.14560000000000012,-0.12121246417243635
-0.14660000000000012,-0.12148125931941069
-0.14760000000000012,-0.12175005446638507
-0.14860000000000012,-0.12201884961335942
-0.14960000000000012,-0.12228764476033378
-0.15060000000000012,-0.12252814568131082
-0.15160000000000012,-0.1227686466022879
-0.15260000000000012,-0.12302329463626359
-0.15360000000000013,-0.12332038400923526
-0.15460000000000013,-0.12354673781721365
-0.15560000000000013,-0.12375894451219341
-0.15660000000000013,-0.12397115120717317
-0.15760000000000013,-0.12421165212815022
-0.15860000000000013,-0.12446630016212593
-0.15960000000000002,-0.12466435974410703
-0.16060000000000002,-0.12486241932608814
-0.16160000000000002,-0.12503218468207195
-0.16260000000000002,-0.12523024426405305
-0.16360000000000002,-0.1254424509590328
-0.16460000000000002,-0.12559806920201796
-0.16560000000000002,-0.1258102758969977
-0.16660000000000003,-0.1259800412529815
-0.16760000000000003,-0.12616395372196398
-0.16860000000000003,-0.1263620133039451
-0.16960000000000003,-0.12650348443393158
-0.17060000000000003,-0.12663080845091942
-0.17160000000000003,-0.12678642669390458
-0.17260000000000003,-0.12694204493688974
-0.17360000000000003,-0.1271259574058722
-0.17460000000000003,-0.1272391343098614
-0.17560000000000003,-0.1273523112138506
-0.17660000000000003,-0.12747963523083847
-0.17760000000000004,-0.1276069592478263
-0.17860000000000004,-0.1277625774908115
-0.17960000000000004,-0.1278899015077993
-0.18060000000000004,-0.12797478418579122
-0.18160000000000004,-0.12807381397678178
-0.18260000000000004,-0.12817284376777233
-0.18360000000000004,-0.1283001677847602
-0.18460000000000004,-0.12839919757575072
-0.18560000000000004,-0.12849822736674127
-0.18660000000000004,-0.12856896293173453
-0.18760000000000004,-0.12865384560972642
-0.18860000000000005,-0.128752875400717
-0.18960000000000005,-0.1288377580787089
-0.19060000000000005,-0.12888019941770484
-0.19160000000000005,-0.12895093498269808
-0.19260000000000005,-0.12903581766069
-0.19360000000000005,-0.1291207003386819
-0.19460000000000005,-0.1291772887906765
-0.19560000000000005,-0.12920558301667381
-0.19660000000000005,-0.12924802435566976
-0.19760000000000005,-0.12930461280766434
-0.19860000000000005,-0.12940364259865492
-0.19960000000000006,-0.12944608393765086
-0.20060000000000006,-0.12947437816364815
-0.20160000000000006,-0.1294885252766468
-0.20260000000000006,-0.12953096661564276
-0.20360000000000006,-0.12961584929363465
-0.20460000000000006,-0.12965829063263062
-0.20560000000000006,-0.12965829063263062
-0.20660000000000006,-0.1296865848586279
-0.20760000000000006,-0.12972902619762386
-0.20860000000000006,-0.12978561464961846
-0.20960000000000006,-0.12981390887561578
-0.21060000000000006,-0.12981390887561578
-0.21160000000000007,-0.12984220310161304
-0.21260000000000007,-0.12987049732761038
-0.21360000000000007,-0.12992708577960496
-0.21460000000000007,-0.12992708577960496
-0.21560000000000007,-0.12992708577960496
-0.21660000000000007,-0.12994123289260362
-0.21760000000000007,-0.12996952711860094
-0.21860000000000007,-0.13001196845759688
-0.21960000000000007,-0.13004026268359417
-0.22060000000000007,-0.13001196845759688
-0.22160000000000007,-0.13002611557059554
-0.22260000000000008,-0.13004026268359417
-0.22360000000000008,-0.13008270402259012
-0.22460000000000008,-0.13009685113558878
-0.22560000000000008,-0.13006855690959146
-0.22660000000000008,-0.13006855690959146
-0.22760000000000008,-0.13006855690959146
-0.22860000000000008,-0.13009685113558878
-0.22960000000000008,-0.1301392924745847
-0.23060000000000008,-0.13009685113558878
-0.23160000000000008,-0.13011099824858743
-0.23260000000000008,-0.13011099824858743
-0.23360000000000009,-0.13015343958758338
-0.2346000000000001,-0.13015343958758338
-0.2356000000000001,-0.1301392924745847
-0.2366000000000001,-0.1301251453615861
-0.2376000000000001,-0.1301392924745847
-0.2386000000000001,-0.13016758670058204
-0.2396000000000001,-0.13016758670058204
-0.2406000000000001,-0.13016758670058204
-0.2416000000000001,-0.1301392924745847
-0.2426000000000001,-0.13016758670058204
-0.2436000000000001,-0.13021002803957799
-0.2446000000000001,-0.13021002803957799
-0.2456000000000001,-0.13019588092657933
-0.2466000000000001,-0.13018173381358067
-0.2476000000000001,-0.13019588092657933
-0.2486000000000001,-0.13023832226557527
-0.2496000000000001,-0.1302666164915726
-0.2506000000000001,-0.13025246937857393
-0.2516000000000001,-0.13023832226557527
-0.2526000000000001,-0.13022417515257662
-0.2536000000000001,-0.13029491071756988
-0.2546000000000001,-0.13028076360457122
-0.2556000000000001,-0.13029491071756988
-0.2566000000000001,-0.13029491071756988
-0.2576000000000001,-0.13029491071756988
-0.2586000000000001,-0.13033735205656583
-0.2596000000000001,-0.13035149916956448
-0.2606000000000001,-0.13033735205656583
-0.2616000000000001,-0.13035149916956448
-0.2626000000000001,-0.1303656462825631
-0.2636000000000001,-0.13042223473455772
-0.2646000000000001,-0.13045052896055503
-0.2656000000000001,-0.1304363818475564
-0.2666000000000001,-0.1304363818475564
-0.2676000000000001,-0.1304646760735537
-0.2686000000000001,-0.13050711741254964
-0.2696000000000001,-0.13054955875154559
-0.2706000000000001,-0.13053541163854693
-0.2716000000000001,-0.13056370586454422
-0.2726000000000001,-0.13056370586454422
-0.2736000000000001,-0.13062029431653882
-0.2746000000000001,-0.13063444142953748
-0.2756000000000001,-0.1306627356555348
-0.2766000000000001,-0.1306627356555348
-0.2776000000000001,-0.13067688276853343
-0.2786000000000001,-0.13073347122052806
-0.2796000000000001,-0.13077591255952398
-0.2806000000000001,-0.13077591255952398
-0.28160000000000013,-0.13079005967252266
-0.28260000000000013,-0.13081835389851995
-0.28360000000000013,-0.13088908946351321
-0.2846,-0.13090323657651182
-0.2856,-0.13093153080250916
-0.2866,-0.13093153080250916
-0.2876,-0.1309739721415051
-0.2886,-0.13104470770649834
-0.2896,-0.13108714904549432
-0.2906,-0.1311437374974889
-0.2916,-0.13115788461048755
-0.2926,-0.13118617883648487
-0.2936,-0.13127106151447676
-0.29460000000000003,-0.1313135028534727
-0.29560000000000003,-0.13132764996647137
-0.29660000000000003,-0.1313700913054673
-0.29760000000000003,-0.13138423841846594
-0.29860000000000003,-0.13146912109645786
-0.29960000000000003,-0.13152570954845244
-0.30060000000000003,-0.1315398566614511
-0.30160000000000003,-0.13158229800044707
-0.30260000000000004,-0.13161059222644436
-0.30360000000000004,-0.13169547490443625
-0.30460000000000004,-0.13175206335643086
-0.30560000000000004,-0.13175206335643086
-0.30660000000000004,-0.13179450469542683
-0.30760000000000004,-0.13185109314742144
-0.30860000000000004,-0.131950122938412
-0.30960000000000004,-0.1320491527294025
-0.31060000000000004,-0.13207744695539983
-0.31160000000000004,-0.1320915940683985
-0.31260000000000004,-0.13213403540739443
-0.31360000000000005,-0.13221891808538633
-0.31460000000000005,-0.1322896536503796
-0.31560000000000005,-0.13231794787637688
-0.31660000000000005,-0.13236038921537283
-0.31760000000000005,-0.13241697766736746
-0.31860000000000005,-0.13251600745835798
-0.31960000000000005,-0.13257259591035261
-0.32060000000000005,-0.13261503724934853
-0.32160000000000005,-0.13265747858834448
-0.32260000000000005,-0.1327140670403391
-0.32360000000000005,-0.13281309683132964
-0.32460000000000006,-0.1328555381703256
-0.32560000000000006,-0.13289797950932153
-0.32660000000000006,-0.1329404208483175
-0.32760000000000006,-0.13301115641331077
-0.32860000000000006,-0.13312433331729995
-0.32960000000000006,-0.1331667746562959
-0.33060000000000006,-0.13320921599529184
-0.33160000000000006,-0.1332799515602851
-0.33260000000000006,-0.13333654001227974
-0.33360000000000006,-0.13343556980327026
-0.33460000000000006,-0.1335063053682635
-0.33560000000000006,-0.13356289382025813
-0.33660000000000007,-0.1336336293852514
-0.33760000000000007,-0.13369021783724597
-0.33860000000000007,-0.13380339474123515
-0.33960000000000007,-0.13388827741922704
-0.34060000000000007,-0.13393071875822302
-0.34160000000000007,-0.13400145432321628
-0.34260000000000007,-0.13408633700120817
-0.34360000000000007,-0.13418536679219872
-0.3446000000000001,-0.13428439658318927
-0.3456000000000001,-0.13434098503518388
-0.3466000000000001,-0.13441172060017711
-0.34759999999999996,-0.13449660327816904
-0.3486000000000001,-0.13460978018215825
-0.34959999999999997,-0.1347088099731488
-0.3506000000000001,-0.13475125131214474
-0.35159999999999997,-0.13487857532913258
-0.3526000000000001,-0.13494931089412582
-0.35359999999999997,-0.13506248779811506
-0.3546000000000001,-0.1351615175891056
-0.35559999999999997,-0.13523225315409887
-0.3566000000000001,-0.1353029887190921
-0.3576,-0.13538787139708403
-0.3586000000000001,-0.1355010483010732
-0.3596,-0.13561422520506242
-0.3606000000000001,-0.13567081365705702
-0.3616,-0.13575569633504891
-0.3626000000000001,-0.13584057901304084
-0.3636,-0.13598205014302733
-0.3646000000000001,-0.13608107993401788
-0.3656,-0.1361659626120098
-0.3666000000000001,-0.13623669817700304
-0.3676,-0.13633572796799356
-0.3686000000000001,-0.13647719909798006
-0.3696,-0.1366186702279666
-0.3706000000000001,-0.13697234805293285
-0.3716,-0.137127966295918
-0.3726000000000001,-0.13719870186091124
-0.3736,-0.13735432010389642
-0.3746000000000001,-0.1374674970078856
-0.3756,-0.13753823257287887
-0.3766000000000001,-0.13760896813787213
-0.3776,-0.13772214504186134
-0.3786000000000001,-0.13787776328484647
-0.3796,-0.13800508730183433
-0.3806000000000001,-0.13810411709282489
-0.3816,-0.13818899977081678
-0.3826000000000001,-0.13828802956180736
-0.3836,-0.1384436478047925
-0.3846000000000001,-0.138585118934779
-0.3856,-0.1386982958387682
-0.3866000000000001,-0.13876903140376146
-0.3876,-0.138868061194752
-0.3886000000000001,-0.1390095323247385
-0.3896,-0.139151003454725
-0.3906000000000001,-0.13927832747171287
-0.3916,-0.13936321014970476
-0.3926000000000001,-0.13951882839268992
-0.3936,-0.13967444663567508
-0.3946000000000001,-0.13978762353966429
-0.3956,-0.13991494755665213
-0.3966000000000001,-0.14001397734764268
-0.3976,-0.14015544847762917
-0.3986000000000001,-0.14031106672061433
-0.3996,-0.14045253785060083
-0.4006000000000001,-0.14056571475459004
-0.4016,-0.14070718588457654
-0.4026000000000001,-0.14084865701456303
-0.4036,-0.14099012814454956
-0.4046000000000001,-0.14111745216153743
-0.4056,-0.14124477617852527
-0.40660000000000013,-0.14135795308251448
-0.4076,-0.14147112998650369
-0.40860000000000013,-0.14161260111649018
-0.4096,-0.14175407224647668
-0.41060000000000013,-0.14189554337646318
-0.4116,-0.1420370145064497
-0.41260000000000013,-0.1421784856364362
-0.4136,-0.1423199567664227
-0.41460000000000014,-0.1424614278964092
-0.4156,-0.1426028990263957
-0.41660000000000014,-0.1427443701563822
-0.4176,-0.1428858412863687
-0.41860000000000014,-0.14302731241635522
-0.41960000000000003,-0.14316878354634172
-0.42060000000000014,-0.1433102546763282
-0.42160000000000003,-0.1434517258063147
-0.42260000000000014,-0.1435931969363012
-0.42360000000000003,-0.1437346680662877
-0.42460000000000014,-0.14387613919627423
-0.42560000000000003,-0.14401761032626076
-0.42660000000000015,-0.14415908145624726
-0.42760000000000004,-0.14430055258623375
-0.42860000000000015,-0.14444202371622025
-0.42960000000000004,-0.14472496597619325
-0.43060000000000015,-0.14486643710617977
-0.43160000000000004,-0.14500790823616627
-0.43260000000000015,-0.14514937936615277
-0.43360000000000004,-0.14529085049613927
-0.43460000000000015,-0.14543232162612577
-0.43560000000000004,-0.14557379275611226
-0.43660000000000015,-0.14571526388609876
-0.43760000000000004,-0.14599820614607179
