Potential V vs RHE, Current mA cm-2
0.4132999999999999,0.0033472069354806766
0.4122999999999999,0.0015165705134553193
0.4112999999999999,0.001077727068237185
0.4102999999999999,0.0008321331865806145
0.4092999999999999,0.0005851245936241792
0.4082999999999999,0.00033811600066774376
0.4072999999999999,0.00016085267479465468
0.4062999999999999,6.448254104784838e-05
0.4052999999999999,-6.950476616236926e-05
0.4042999999999999,-0.00022720263475832487
0.4032999999999999,-0.00039894858656194034
0.4022999999999999,-0.0005105693081212917
0.4012999999999999,-0.0006083258589419658
0.4002999999999999,-0.0006864179226945158
0.3992999999999999,-0.0008594371146680097
0.3982999999999999,-0.0010297683551717602
0.3972999999999999,-0.0011121045528239052
0.3962999999999999,-0.0011568094298996404
0.3952999999999999,-0.0012391456275517858
0.3942999999999999,-0.001353595771710867
0.39329999999999987,-0.0015208146473549144
0.39229999999999987,-0.0016127708818461418
0.39129999999999987,-0.0016410651078434427
0.39029999999999987,-0.0017160448067362897
0.38929999999999987,-0.001853271802823198
0.38829999999999987,-0.0019975723554094315
0.38729999999999987,-0.0020584049413036286
0.38629999999999987,-0.0021121639706984997
0.38529999999999986,-0.0021744112678925617
0.38429999999999986,-0.0022706116362833837
0.38329999999999986,-0.0024262298792685376
0.38229999999999986,-0.0024842330425630045
0.38129999999999986,-0.002506868423360845
0.38029999999999986,-0.002581848122253692
0.37929999999999986,-0.002679463201944379
0.37829999999999986,-0.0028265931771303435
0.37729999999999986,-0.002883181629124945
0.37629999999999986,-0.002894499319523865
0.37529999999999986,-0.002969479018416712
0.37429999999999986,-0.0030755823659065896
0.37329999999999985,-0.003242518299290664
0.37229999999999985,-0.003340133378981352
0.37129999999999985,-0.003327400977282566
0.37029999999999985,-0.003388233563176763
0.36929999999999985,-0.003470286818568935
0.36829999999999985,-0.003606099103355978
0.36729999999999985,-0.003661272844050715
0.36629999999999985,-0.00367966409094896
0.36529999999999985,-0.0037249348525446413
0.36429999999999985,-0.0038183057983357336
0.36329999999999985,-0.003941385681423992
0.36229999999999984,-0.004005047689917919
0.36129999999999984,-0.003988071154319538
0.36029999999999984,-0.004063050853212385
0.35929999999999984,-0.004155007087703612
0.35829999999999984,-0.004282331104691466
0.35729999999999984,-0.0043233577323875515
0.35629999999999984,-0.004362969648783773
0.35529999999999984,-0.004377116761782424
0.35429999999999984,-0.004488878954471762
0.35329999999999984,-0.004590738168062044
0.35229999999999984,-0.004633179507057995
0.35129999999999983,-0.004667132578254756
0.35029999999999983,-0.004699670938151652
0.34929999999999983,-0.004795871306542475
0.34829999999999983,-0.004937342436528979
0.34729999999999983,-0.004976954352925199
0.34629999999999983,-0.004962807239926549
0.34529999999999983,-0.00502505453712061
0.34429999999999983,-0.005084472411714942
0.3432999999999998,-0.005217455273902255
0.3422999999999998,-0.005254237767698746
0.3412999999999998,-0.005249993633799151
0.3402999999999998,-0.005306582085793753
0.3392999999999998,-0.00537590293948714
0.3382999999999998,-0.005518788780773508
0.3372999999999998,-0.005552741851970269
0.3362999999999998,-0.005545668295470945
0.3352999999999998,-0.0055994273248658145
0.3342999999999998,-0.005663089333359742
0.3332999999999998,-0.005786169216448001
0.3322999999999998,-0.005828610555443951
0.3312999999999998,-0.005803145752046381
0.3302999999999998,-0.0058399282458428715
0.3292999999999998,-0.005941787459433154
0.3282999999999998,-0.006039402539123841
0.3272999999999998,-0.006108723392817228
0.3262999999999998,-0.006094576279818579
0.3252999999999999,-0.006122870505815879
0.3242999999999999,-0.006213412029007242
0.3232999999999999,-0.0063067829747983336
0.3222999999999999,-0.00635912729289334
0.3212999999999999,-0.006371859694592126
0.3202999999999999,-0.006377518539791585
0.3192999999999999,-0.006472304196882543
0.3182999999999999,-0.006578407544372421
0.3172999999999999,-0.006592554657371071
0.3162999999999999,-0.006618019460768641
0.3152999999999999,-0.006634995996367021
0.3142999999999999,-0.006707146272660138
0.3132999999999999,-0.006838714423547587
0.3122999999999999,-0.006865593938245024
0.3112999999999999,-0.006865593938245024
0.3102999999999999,-0.006861349804345428
0.3092999999999999,-0.00695472075013652
0.3082999999999999,-0.00710043601402262
0.3072999999999999,-0.007101850725322484
0.3062999999999999,-0.0071032654366223495
0.3052999999999999,-0.00714004793041884
0.3042999999999999,-0.0072022952276129025
0.3032999999999999,-0.00733103395590062
0.3022999999999999,-0.007346595780199136
0.3012999999999999,-0.007363572315797517
0.3002999999999999,-0.00738762240789522
0.2992999999999999,-0.0074541138389888776
0.2982999999999999,-0.00754748478477997
0.2972999999999999,-0.007594170257675516
0.2962999999999999,-0.007580023144676867
0.2952999999999999,-0.0076125615045737624
0.2942999999999999,-0.007687541203466609
0.2932999999999999,-0.007813450509154597
0.2922999999999999,-0.007831841756052843
0.2912999999999999,-0.007813450509154597
0.2902999999999999,-0.007851647714250953
0.2892999999999999,-0.00792945683574353
0.2882999999999999,-0.008007265957236108
0.2872999999999999,-0.008056780852731385
0.2862999999999999,-0.008046877873632327
0.2852999999999999,-0.008058195564031248
0.2842999999999999,-0.008138834108123556
0.2832999999999999,-0.008247766878213164
0.2822999999999999,-0.008267572836411274
0.2812999999999999,-0.00827181697031087
0.2802999999999999,-0.008273231681610736
0.2792999999999999,-0.00837084676130142
0.2782999999999999,-0.00845148530539373
0.2772999999999999,-0.008501000200889005
0.2762999999999999,-0.008506659046088464
0.2752999999999999,-0.00850807375738833
0.2742999999999999,-0.00859720056927983
0.2732999999999999,-0.00869623036027038
0.2722999999999999,-0.008725939297567546
0.2712999999999999,-0.008731598142767007
0.2702999999999999,-0.00874715996706552
0.2692999999999999,-0.008823554377258232
0.26829999999999987,-0.00892682830214838
0.26729999999999987,-0.008942390126446896
0.26629999999999987,-0.008942390126446896
0.26529999999999987,-0.008966440218544603
0.26429999999999987,-0.009040005206137586
0.26329999999999987,-0.009136205574528407
0.26229999999999987,-0.009180061624824223
0.26129999999999987,-0.009163085089225842
0.26029999999999986,-0.009192794026523008
0.25929999999999986,-0.009259285457616666
0.25829999999999986,-0.009371047650306004
0.25729999999999986,-0.0094035860102029
0.25629999999999986,-0.009388024185904384
0.25529999999999986,-0.009427636102300603
0.25429999999999986,-0.009481395131695474
0.25329999999999986,-0.009579010211386164
0.25229999999999986,-0.009644086931179954
0.25129999999999986,-0.009620036839082248
0.25029999999999986,-0.009649745776379415
0.24929999999999986,-0.009714822496173206
0.24829999999999985,-0.009801119885464974
0.24729999999999985,-0.00984780535836052
0.24629999999999985,-0.009823755266262814
0.24529999999999985,-0.00986761131655863
0.24429999999999985,-0.009949664571950801
0.24329999999999985,-0.010020400136944056
0.24229999999999985,-0.010062841475940006
0.24129999999999985,-0.010048694362941356
0.24029999999999985,-0.010064256187239872
0.23929999999999985,-0.010153382999131369
0.23829999999999985,-0.010259486346621246
0.23729999999999984,-0.01028919528391841
0.23629999999999984,-0.010275048170919761
0.23529999999999984,-0.01028919528391841
0.23429999999999984,-0.010361345560211527
0.23329999999999984,-0.010475937175500598
0.23229999999999984,-0.010497157844998571
0.23129999999999984,-0.010490084288499247
0.23029999999999984,-0.010497157844998571
0.22929999999999984,-0.010569308121291688
0.22829999999999984,-0.010672582046181836
0.22729999999999984,-0.010693802715679813
0.22629999999999983,-0.010734829343375898
0.22529999999999983,-0.010727755786876573
0.22429999999999983,-0.010771611837172389
0.22329999999999983,-0.010906009410659567
0.22229999999999983,-0.010908838833259297
0.22129999999999983,-0.010898935854160243
0.22029999999999983,-0.01092864479145741
0.21929999999999983,-0.011006453912949984
0.21829999999999983,-0.011102654281340808
0.21729999999999983,-0.011156413310735679
0.21629999999999983,-0.01113377792993784
0.21529999999999982,-0.011157828022035543
0.21429999999999982,-0.011215831185330009
0.21329999999999982,-0.011348814047517324
0.21229999999999982,-0.011368620005715436
0.21129999999999982,-0.011365790583115706
0.21029999999999982,-0.011377108273514625
0.20929999999999982,-0.01144642912720801
0.20829999999999982,-0.011548288340798294
0.20729999999999982,-0.011586485545894651
0.20629999999999982,-0.011589314968494382
0.20529999999999982,-0.011589314968494382
0.20429999999999982,-0.011682685914285472
0.20329999999999981,-0.01177181272617697
0.2022999999999998,-0.011822742332972112
0.2012999999999998,-0.011811424642573193
0.20029999999999992,-0.011815668776472785
0.19929999999999992,-0.011900551454464687
0.19829999999999992,-0.01200241066805497
0.19729999999999992,-0.012032119605352137
0.19629999999999992,-0.012033534316652
0.19529999999999992,-0.01203636373925173
0.19429999999999992,-0.012190567270937022
0.19329999999999992,-0.012293841195827169
0.19229999999999992,-0.012275449948928922
0.19129999999999991,-0.012279694082828519
0.1902999999999999,-0.012300914752326494
0.1892999999999999,-0.012360332626920826
0.1882999999999999,-0.012462191840511108
0.1872999999999999,-0.012493315489108139
0.1862999999999999,-0.012487656643908678
0.1852999999999999,-0.01250746260210679
0.1842999999999999,-0.012585271723599366
0.1832999999999999,-0.01267015440159127
0.1822999999999999,-0.012702692761488166
0.1812999999999999,-0.012706936895387759
0.1802999999999999,-0.012759281213482765
0.1792999999999999,-0.012803137263778583
0.1782999999999999,-0.01291489945646792
0.1772999999999999,-0.0129601702180636
0.1762999999999999,-0.012944608393765086
0.1752999999999999,-0.012975732042362116
0.1742999999999999,-0.013042223473455775
0.1732999999999999,-0.013135594419246865
0.1722999999999999,-0.013180865180842547
0.1712999999999999,-0.013169547490443625
0.1702999999999999,-0.013204915272940251
0.1692999999999999,-0.013269991992734043
0.1682999999999999,-0.01338175418542338
0.1672999999999999,-0.013424195524419334
0.1662999999999999,-0.013388827741922706
0.1652999999999999,-0.013412877834020412
0.1642999999999999,-0.013500589934612043
0.1632999999999999,-0.013598205014302733
0.1622999999999999,-0.013644890487198278
0.1612999999999999,-0.013632158085499493
0.1602999999999999,-0.013660452311496792
0.1592999999999999,-0.013735432010389643
0.15829999999999989,-0.013837291223979923
0.15729999999999988,-0.013868414872576954
0.15629999999999988,-0.013871244295176685
0.15529999999999988,-0.013892464964674662
0.15429999999999988,-0.013970274086167238
0.15329999999999988,-0.014062230320658464
0.15229999999999988,-0.014125892329152392
0.15129999999999988,-0.014101842237054685
0.15029999999999988,-0.014123062906552662
0.14929999999999988,-0.014203701450644968
0.14829999999999988,-0.014316878354634173
0.14729999999999988,-0.014359319693630123
0.14629999999999987,-0.014345172580631472
0.14529999999999987,-0.014387613919627423
0.14429999999999987,-0.014458349484620674
0.14329999999999987,-0.014571526388609878
0.14229999999999987,-0.014628114840604478
0.14129999999999987,-0.014599820614607179
0.14029999999999987,-0.014628114840604478
0.13929999999999987,-0.01469885040559773
0.13829999999999987,-0.014812027309586936
0.13729999999999987,-0.014868615761581536
0.13629999999999987,-0.014854468648582884
0.13529999999999986,-0.014868615761581536
0.13429999999999986,-0.014967645552572089
0.13329999999999986,-0.01505252823056399
0.13229999999999986,-0.015109116682558592
0.13129999999999986,-0.015080822456561293
0.13029999999999986,-0.015137410908555892
0.12929999999999986,-0.015208146473549147
0.12829999999999986,-0.015293029151541045
0.12729999999999986,-0.015349617603535646
0.12629999999999986,-0.015335470490536997
0.12529999999999986,-0.0153637647165343
0.12429999999999986,-0.01546279450752485
0.12329999999999985,-0.015547677185516754
0.12229999999999985,-0.015604265637511355
0.12129999999999985,-0.015604265637511355
0.12029999999999985,-0.015604265637511355
0.11929999999999985,-0.015703295428501907
0.11829999999999985,-0.01580232521949246
0.11729999999999985,-0.01584476655848841
0.11629999999999985,-0.01585891367148706
0.11529999999999985,-0.01588720789748436
0.11429999999999985,-0.015957943462477614
0.11329999999999985,-0.016071120366466816
0.11229999999999984,-0.016071120366466816
0.11129999999999984,-0.016099414592464115
0.11029999999999984,-0.016127708818461418
0.10929999999999984,-0.016212591496453318
0.10829999999999984,-0.016311621287443873
0.10729999999999984,-0.016339915513441175
0.10629999999999984,-0.016354062626439823
0.10529999999999984,-0.01638235685243712
0.10429999999999984,-0.016453092417430374
0.10329999999999984,-0.01658041643441823
0.10229999999999984,-0.01660871066041553
0.10129999999999983,-0.01660871066041553
0.10029999999999983,-0.01665115199941148
0.09929999999999983,-0.016721887564404736
0.09829999999999983,-0.01683506446839394
0.09729999999999983,-0.01687750580738989
0.09629999999999983,-0.016849211581392583
0.09529999999999983,-0.01690580003338719
0.09429999999999983,-0.01697653559838044
0.09329999999999983,-0.017103859615368294
0.09229999999999983,-0.017146300954364244
0.09129999999999983,-0.017146300954364244
0.09029999999999982,-0.017174595180361543
0.08929999999999982,-0.017259477858353446
0.08829999999999982,-0.017358507649344
0.08729999999999982,-0.017400948988339954
0.08629999999999982,-0.0174150961013386
0.08529999999999982,-0.017457537440334552
0.08429999999999982,-0.017542420118326456
0.08329999999999982,-0.017627302796318356
0.08229999999999982,-0.01768389124831296
0.08129999999999982,-0.01768389124831296
0.08029999999999982,-0.01769803836131161
0.07929999999999982,-0.017797068152302163
0.07829999999999981,-0.017910245056291362
0.07729999999999981,-0.017924392169290013
0.07629999999999981,-0.017966833508285963
0.07529999999999992,-0.017966833508285963
0.07429999999999992,-0.018065863299276518
0.07329999999999992,-0.01817904020326572
0.07229999999999992,-0.018221481542261674
0.07129999999999992,-0.018221481542261674
0.07029999999999992,-0.018235628655260322
0.06929999999999992,-0.018348805559249524
0.06829999999999992,-0.018461982463238727
0.06729999999999992,-0.01849027668923603
0.06629999999999991,-0.01851857091523333
0.06529999999999991,-0.018546865141230634
0.06429999999999991,-0.018631747819222534
0.06329999999999991,-0.018773218949209036
0.06229999999999991,-0.018801513175206338
0.06129999999999991,-0.018787366062207687
0.06029999999999991,-0.018843954514202284
0.05929999999999991,-0.01891469007919554
0.05829999999999991,-0.019042014096183394
0.05729999999999991,-0.019084455435179344
0.056299999999999906,-0.019084455435179344
0.055299999999999905,-0.019126896774175294
0.054299999999999904,-0.019211779452167198
0.0532999999999999,-0.019353250582153703
0.0522999999999999,-0.0194098390341483
0.0512999999999999,-0.019395691921149656
0.0502999999999999,-0.019452280373144254
0.0492999999999999,-0.019523015938137503
0.0482999999999999,-0.01963619284212671
0.0472999999999999,-0.01970692840711996
0.0462999999999999,-0.019721075520118612
0.045299999999999896,-0.019749369746115915
0.044299999999999895,-0.019848399537106463
0.043299999999999894,-0.019933282215098366
0.04229999999999989,-0.019989870667092968
0.04129999999999989,-0.019989870667092968
0.04029999999999989,-0.02004645911908757
0.03929999999999989,-0.020131341797079472
0.03829999999999989,-0.020258665814067326
0.03729999999999989,-0.020301107153063276
0.03629999999999989,-0.02032940137906058
0.03529999999999989,-0.020371842718056525
0.034299999999999886,-0.020470872509047083
0.033299999999999885,-0.020569902300037635
0.032299999999999884,-0.020612343639033585
0.031299999999999883,-0.020640637865030884
0.030299999999999883,-0.020654784978029535
0.02929999999999988,-0.02075381476902009
0.02829999999999988,-0.020909433012005242
0.02729999999999988,-0.020937727238002544
0.02629999999999988,-0.020966021463999843
0.025299999999999878,-0.021008462802995797
0.024299999999999877,-0.021093345480987697
0.023299999999999876,-0.0212348166109742
0.022299999999999875,-0.021277257949970152
0.021299999999999875,-0.021291405062968803
0.020299999999999874,-0.021347993514963404
0.019299999999999873,-0.021432876192955305
0.018299999999999872,-0.021560200209943158
0.01729999999999987,-0.02163093577493641
0.01629999999999987,-0.021645082887935062
0.01529999999999987,-0.021701671339929663
0.014299999999999868,-0.021800701130920214
0.013299999999999867,-0.021928025147908068
0.012299999999999978,-0.02197046648690402
0.011299999999999866,-0.022012907825899968
0.010299999999999976,-0.022027054938898623
0.009299999999999864,-0.022140231842887825
0.008299999999999974,-0.022281702972874327
0.007299999999999862,-0.022338291424868928
0.006299999999999972,-0.022338291424868928
0.00529999999999986,-0.02239487987686353
0.0042999999999999705,-0.022493909667854084
0.0032999999999998586,-0.022607086571843286
0.0022999999999999687,-0.022691969249835187
0.0012999999999998568,-0.02272026347583249
0.00029999999999996696,-0.02274855770182979
-0.000700000000000145,-0.022861734605818994
-0.0017000000000000348,-0.022960764396809545
-0.0027000000000001467,-0.023031499961802798
-0.0037000000000000366,-0.0230880884137974
-0.0047000000000001485,-0.02310223552679605
-0.005700000000000038,-0.0232295595437839
-0.00670000000000015,-0.023356883560771757
-0.00770000000000004,-0.02341347201276636
-0.008700000000000152,-0.023427619125765006
-0.009700000000000042,-0.02347006046476096
-0.010700000000000154,-0.023611531594747465
-0.011700000000000044,-0.023753002724733966
-0.012700000000000156,-0.02378129695073127
-0.013700000000000045,-0.023823738289727222
-0.014700000000000157,-0.023866179628723165
-0.015700000000000047,-0.02395106230671507
-0.01670000000000016,-0.024120827662698876
-0.01770000000000005,-0.024163269001694826
-0.01870000000000016,-0.02417741611469348
-0.01970000000000005,-0.02424815167968673
-0.020700000000000163,-0.02434718147067728
-0.021700000000000053,-0.02447450548766513
-0.022700000000000164,-0.024545241052658383
-0.023700000000000054,-0.024559388165657038
-0.024700000000000166,-0.024630123730650287
-0.025700000000000056,-0.02475744774763814
-0.026700000000000168,-0.024884771764625994
-0.027700000000000058,-0.024927213103621948
-0.02870000000000017,-0.024955507329619247
-0.02970000000000006,-0.025012095781613848
-0.03070000000000017,-0.0251111255726044
-0.03170000000000006,-0.025238449589592253
-0.03270000000000017,-0.025309185154585506
-0.03370000000000006,-0.025309185154585506
-0.034700000000000175,-0.025365773606580107
-0.035700000000000065,-0.025493097623567964
-0.03670000000000018,-0.02562042164055581
-0.03770000000000007,-0.025705304318547718
-0.03870000000000018,-0.025719451431546365
-0.03970000000000007,-0.02573359854454502
-0.04070000000000018,-0.025860922561532867
-0.04170000000000007,-0.025988246578520724
-0.04270000000000018,-0.026073129256512624
-0.04370000000000007,-0.026115570595508578
-0.044700000000000184,-0.02612971770850723
-0.045700000000000074,-0.026257041725495082
-0.046700000000000186,-0.026398512855481584
-0.047700000000000076,-0.02645510130747619
-0.04870000000000019,-0.02649754264647214
-0.04970000000000008,-0.02655413109846674
-0.05070000000000019,-0.026639013776458643
-0.05170000000000008,-0.026780484906445145
-0.05270000000000019,-0.026837073358439746
-0.05370000000000008,-0.026851220471438397
-0.05470000000000019,-0.026936103149430297
-0.05570000000000008,-0.0270209858274222
-0.056700000000000195,-0.027162456957408702
-0.057700000000000085,-0.027219045409403307
-0.058700000000000196,-0.027247339635400606
-0.059700000000000086,-0.02730392808739521
-0.0607000000000002,-0.02738881076538711
-0.06170000000000009,-0.027544429008372267
-0.0627000000000002,-0.02762931168636417
