Potential V vs RHE, Current mA cm-2
0.4132999999999999,-0.004528490870867982
0.4122999999999999,-0.006192191359509265
0.4112999999999999,-0.006793443661951905
0.4102999999999999,-0.0071032654366223495
0.4092999999999999,-0.007309813286402644
0.4082999999999999,-0.007465431529387799
0.4072999999999999,-0.007622464483672818
0.4062999999999999,-0.007751203211960535
0.4052999999999999,-0.00790965087754542
0.4042999999999999,-0.007980386442538673
0.4032999999999999,-0.008051122007531924
0.4022999999999999,-0.008138834108123556
0.4012999999999999,-0.008229375631314918
0.4002999999999999,-0.00832840542230547
0.3992999999999999,-0.008397726275998857
0.3982999999999999,-0.008467047129692245
0.3972999999999999,-0.00851373260258779
0.3962999999999999,-0.008577394611081717
0.3952999999999999,-0.00867076555687281
0.3942999999999999,-0.0087075480506693
0.39329999999999987,-0.008740086410566197
0.39229999999999987,-0.008803748419060124
0.39129999999999987,-0.008865995716254184
0.39029999999999987,-0.00892682830214838
0.38929999999999987,-0.008950878394246088
0.38829999999999987,-0.009004637423640958
0.38729999999999987,-0.009015955114039879
0.38629999999999987,-0.009095178946832322
0.38529999999999986,-0.009167329223125438
0.38429999999999986,-0.009191379315223142
0.38329999999999986,-0.00925504132371707
0.38229999999999986,-0.009298897374012887
0.38129999999999986,-0.009368218227706273
0.38029999999999986,-0.00944036850399939
0.37929999999999986,-0.009472906863896286
0.37829999999999986,-0.009481395131695474
0.37729999999999986,-0.009498371667293856
0.37629999999999986,-0.009550715985388864
0.37529999999999986,-0.009605889726083599
0.37429999999999986,-0.009615792705182655
0.37329999999999985,-0.009659648755478471
0.37229999999999985,-0.009703504805774286
0.37129999999999985,-0.009741702010870643
0.37029999999999985,-0.009808193441964298
0.36929999999999985,-0.009820925843663083
0.36829999999999985,-0.00984214651316106
0.36729999999999985,-0.009860537760059306
0.36629999999999985,-0.009897320253855797
0.36529999999999985,-0.009972299952748644
0.36429999999999985,-0.009999179467446079
0.36329999999999985,-0.010009082446545133
0.36229999999999984,-0.010035961961242571
0.36129999999999984,-0.010075573877638792
0.36029999999999984,-0.010143480020032312
0.35929999999999984,-0.010160456555630692
0.35829999999999984,-0.010159041844330828
0.35729999999999984,-0.010194409626827456
0.35629999999999984,-0.010241095099723001
0.35529999999999984,-0.010299098263017467
0.35429999999999984,-0.010327392489014767
0.35329999999999984,-0.010338710179413688
0.35229999999999984,-0.010345783735913012
0.35129999999999983,-0.010412275167006671
0.35029999999999983,-0.010458960639902216
0.34929999999999983,-0.010475937175500598
0.34829999999999983,-0.010514134380596953
0.34729999999999983,-0.010569308121291688
0.34629999999999983,-0.010601846481188585
0.34529999999999983,-0.010662679067082782
0.34429999999999983,-0.010664093778382646
0.3432999999999998,-0.010666923200982377
0.3422999999999998,-0.010669752623582105
0.3412999999999998,-0.010723511652976978
0.3402999999999998,-0.0107914177953705
0.3392999999999998,-0.010797076640569959
0.3382999999999998,-0.010815467887468205
0.3372999999999998,-0.010842347402165642
0.3362999999999998,-0.010863568071663617
0.3352999999999998,-0.01094562132705579
0.3342999999999998,-0.010956939017454708
0.3332999999999998,-0.010964012573954034
0.3322999999999998,-0.010986647954751875
0.3312999999999998,-0.011026259871148096
0.3302999999999998,-0.011085677745742428
0.3292999999999998,-0.011084263034442562
0.3282999999999998,-0.011108313126540268
0.3272999999999998,-0.011126704373438514
0.3262999999999998,-0.01118470753673298
0.3252999999999999,-0.011231393009628526
0.3242999999999999,-0.011262516658225558
0.3232999999999999,-0.011266760792125153
0.3222999999999999,-0.011286566750323261
0.3212999999999999,-0.011337496357118403
0.3202999999999999,-0.01138135240741422
0.3192999999999999,-0.011409646633411522
0.3182999999999999,-0.011432282014209361
0.3172999999999999,-0.011440770282008551
0.3162999999999999,-0.011488870466203964
0.3152999999999999,-0.011528482382600184
0.3142999999999999,-0.011538385361699238
0.3132999999999999,-0.011572338432896002
0.3122999999999999,-0.011576582566795595
0.3112999999999999,-0.011628926884890601
0.3102999999999999,-0.011688344759484933
0.3092999999999999,-0.011705321295083315
0.3082999999999999,-0.011725127253281424
0.3072999999999999,-0.011718053696782098
0.3062999999999999,-0.01177747157137643
0.3052999999999999,-0.011849621847669549
0.3042999999999999,-0.011845377713769952
0.3032999999999999,-0.011880745496266578
0.3022999999999999,-0.011884989630166173
0.3012999999999999,-0.011914698567463338
0.3002999999999999,-0.011972701730757805
0.2992999999999999,-0.011971287019457941
0.2982999999999999,-0.011996751822855511
0.2972999999999999,-0.012008069513254432
0.2962999999999999,-0.012056169697449843
0.2952999999999999,-0.01210851401554485
0.2942999999999999,-0.012107099304244983
0.2932999999999999,-0.012122661128543499
0.2922999999999999,-0.012143881798041475
0.2912999999999999,-0.01218207900313783
0.2902999999999999,-0.012238667455132432
0.2892999999999999,-0.012255643990730812
0.2882999999999999,-0.012262717547230139
0.2872999999999999,-0.012282523505428248
0.2862999999999999,-0.012313647154025277
0.2852999999999999,-0.01236174733822069
0.2842999999999999,-0.012382968007718667
0.2832999999999999,-0.012408432811116237
0.2822999999999999,-0.012419750501515156
0.2812999999999999,-0.012465021263110838
0.2802999999999999,-0.012500389045607465
0.2792999999999999,-0.01252160971510544
0.2782999999999999,-0.012542830384603416
0.2772999999999999,-0.012551318652402605
0.2762999999999999,-0.012609321815697072
0.2752999999999999,-0.012640445464294103
0.2742999999999999,-0.012665910267691673
0.2732999999999999,-0.012677227958090592
0.2722999999999999,-0.012699863338888435
0.2712999999999999,-0.012763525347382362
0.2702999999999999,-0.012818699088077097
0.2692999999999999,-0.012817284376777233
0.26829999999999987,-0.012835675623675479
0.26729999999999987,-0.012815869665477366
0.26629999999999987,-0.012883775807870888
0.26529999999999987,-0.01295168195026441
0.26429999999999987,-0.012950267238964546
0.26329999999999987,-0.012974317331062251
0.26229999999999987,-0.012970073197162656
0.26129999999999987,-0.013011099824858742
0.26029999999999986,-0.01307193241075294
0.25929999999999986,-0.013056370586454424
0.25829999999999986,-0.013086079523751591
0.25729999999999986,-0.01310305605934997
0.25629999999999986,-0.01313983855314646
0.25529999999999986,-0.013199256427740792
0.25429999999999986,-0.013203500561640389
0.25329999999999986,-0.013206329984240118
0.25229999999999986,-0.013245941900636339
0.25129999999999986,-0.013271406704033909
0.25029999999999986,-0.013329409867328374
0.24929999999999986,-0.013342142269027161
0.24829999999999985,-0.013342142269027161
0.24729999999999985,-0.013366192361124867
0.24629999999999985,-0.013410048411420683
0.24529999999999985,-0.01351615175891056
0.24429999999999985,-0.013534543005808808
0.24329999999999985,-0.01351332233631083
0.24229999999999985,-0.013533128294508942
0.24129999999999985,-0.013575569633504894
0.24029999999999985,-0.013606693282101923
0.23929999999999985,-0.013612352127301384
0.23829999999999985,-0.013633572796799357
0.23729999999999984,-0.013640646353298685
0.23629999999999984,-0.013705723073092474
0.23529999999999984,-0.013735432010389643
0.23429999999999984,-0.013750993834688155
0.23329999999999984,-0.013773629215486
0.23229999999999984,-0.013779288060685456
0.23129999999999984,-0.013855682470878171
0.23029999999999984,-0.01389529438727439
0.22929999999999984,-0.01387831785167601
0.22829999999999984,-0.013917929768072232
0.22729999999999984,-0.013910856211572904
0.22629999999999983,-0.013970274086167238
0.22529999999999983,-0.014019788981662512
0.22429999999999983,-0.014028277249461702
0.22329999999999983,-0.01406647445455806
0.22229999999999983,-0.014067889165857925
0.22129999999999983,-0.014121648195252797
0.22029999999999983,-0.014161260111649017
0.21929999999999983,-0.014175407224647668
0.21829999999999983,-0.014175407224647668
0.21729999999999983,-0.014189554337646317
0.21629999999999983,-0.01424614278964092
0.21529999999999982,-0.014316878354634173
0.21429999999999982,-0.014316878354634173
0.21329999999999982,-0.014316878354634173
0.21229999999999982,-0.014345172580631472
0.21129999999999982,-0.014373466806628774
0.21029999999999982,-0.014430055258623373
0.20929999999999982,-0.014444202371622025
0.20829999999999982,-0.014444202371622025
0.20729999999999982,-0.014486643710617976
0.20629999999999982,-0.014529085049613928
0.20529999999999982,-0.014585673501608528
0.20429999999999982,-0.01461396772760583
0.20329999999999981,-0.014599820614607179
0.2022999999999998,-0.014628114840604478
0.2012999999999998,-0.014684703292599082
0.20029999999999992,-0.014741291744593682
0.19929999999999992,-0.014755438857592333
0.19829999999999992,-0.014769585970590984
0.19729999999999992,-0.014769585970590984
0.19629999999999992,-0.014840321535584235
0.19529999999999992,-0.014882762874580187
0.19429999999999992,-0.014953498439573438
0.19329999999999992,-0.014981792665570736
0.19229999999999992,-0.014939351326574786
0.19129999999999991,-0.01501008689156804
0.1902999999999999,-0.01503838111756534
0.1892999999999999,-0.015066675343562642
0.1882999999999999,-0.015066675343562642
0.1872999999999999,-0.01509496956955994
0.1862999999999999,-0.015137410908555892
0.1852999999999999,-0.015179852247551842
0.1842999999999999,-0.015193999360550494
0.1832999999999999,-0.015208146473549147
0.1822999999999999,-0.015236440699546445
0.1812999999999999,-0.015293029151541045
0.1802999999999999,-0.0153637647165343
0.1792999999999999,-0.015349617603535646
0.1782999999999999,-0.015377911829532949
0.1772999999999999,-0.015392058942531598
0.1762999999999999,-0.01543450028152755
0.1752999999999999,-0.015491088733522153
0.1742999999999999,-0.015505235846520802
0.1732999999999999,-0.015505235846520802
0.1722999999999999,-0.015547677185516754
0.1712999999999999,-0.015590118524512706
0.1702999999999999,-0.015660854089505957
0.1692999999999999,-0.015660854089505957
0.1682999999999999,-0.015660854089505957
0.1672999999999999,-0.015703295428501907
0.1662999999999999,-0.01575988388049651
0.1652999999999999,-0.01583061944548976
0.1642999999999999,-0.015873060784485714
0.1632999999999999,-0.015901355010483013
0.1622999999999999,-0.01591550212348166
0.1612999999999999,-0.01597209057547626
0.1602999999999999,-0.015986237688474913
0.1592999999999999,-0.016000384801473564
0.15829999999999989,-0.016014531914472215
0.15729999999999988,-0.016028679027470863
0.15629999999999988,-0.016099414592464115
0.15529999999999988,-0.01614185593146007
0.15429999999999988,-0.016170150157457368
0.15329999999999988,-0.01618429727045602
0.15229999999999988,-0.01618429727045602
0.15129999999999988,-0.016269179948447923
0.15029999999999988,-0.01629747417444522
0.14929999999999988,-0.016311621287443873
0.14829999999999988,-0.016354062626439823
0.14729999999999988,-0.016339915513441175
0.14629999999999987,-0.016410651078434424
0.14529999999999987,-0.01646723953042903
0.14429999999999987,-0.01648138664342768
0.14329999999999987,-0.01650968086942498
0.14229999999999987,-0.01656626932141958
0.14129999999999987,-0.01659456354741688
0.14029999999999987,-0.01666529911241013
0.13929999999999987,-0.016679446225408782
0.13829999999999987,-0.016693593338407434
0.13729999999999987,-0.01670774045140608
0.13629999999999987,-0.016778476016399334
0.13529999999999986,-0.01683506446839394
0.13429999999999986,-0.016849211581392583
0.13329999999999986,-0.01687750580738989
0.13229999999999986,-0.01691994714638584
0.13129999999999986,-0.016962388485381792
0.13029999999999986,-0.017018976937376393
0.12929999999999986,-0.01706141827637234
0.12829999999999986,-0.01706141827637234
0.12729999999999986,-0.017118006728366945
0.12629999999999986,-0.017146300954364244
0.12529999999999986,-0.017202889406358845
0.12429999999999986,-0.017217036519357496
0.12329999999999985,-0.0172453307453548
0.12229999999999985,-0.017273624971352097
0.12129999999999985,-0.01734436053634535
0.12029999999999985,-0.0173868018753413
0.11929999999999985,-0.0174150961013386
0.11829999999999985,-0.017429243214337253
0.11729999999999985,-0.017471684553333203
0.11629999999999985,-0.017556567231325104
0.11529999999999985,-0.017584861457322406
0.11429999999999985,-0.017613155683319705
0.11329999999999985,-0.017627302796318356
0.11229999999999984,-0.01766974413531431
0.11129999999999984,-0.01774047970030756
0.11029999999999984,-0.017797068152302163
0.10929999999999984,-0.017797068152302163
0.10829999999999984,-0.017839509491298113
0.10729999999999984,-0.01785365660429676
0.10629999999999984,-0.017924392169290013
0.10529999999999984,-0.017980980621284618
0.10429999999999984,-0.017995127734283266
0.10329999999999984,-0.018051716186277867
0.10229999999999984,-0.018065863299276518
0.10129999999999983,-0.01813659886426977
0.10029999999999983,-0.018193187316264375
0.09929999999999983,-0.018221481542261674
0.09829999999999983,-0.018263922881257624
0.09729999999999983,-0.018292217107254923
0.09629999999999983,-0.018362952672248176
0.09529999999999983,-0.018447835350240076
0.09429999999999983,-0.018461982463238727
0.09329999999999983,-0.01851857091523333
0.09229999999999983,-0.01856101225422928
0.09129999999999983,-0.018645894932221182
0.09029999999999982,-0.018702483384215783
0.08929999999999982,-0.018716630497214438
0.08829999999999982,-0.018744924723211737
0.08729999999999982,-0.018759071836210388
0.08629999999999982,-0.01882980740120364
0.08529999999999982,-0.018900542966196893
0.08429999999999982,-0.01892883719219419
0.08329999999999982,-0.018942984305192843
0.08229999999999982,-0.018999572757187444
0.08129999999999982,-0.019056161209182042
0.08029999999999982,-0.019098602548177995
0.07929999999999982,-0.019141043887173945
0.07829999999999981,-0.0191834852261699
0.07729999999999981,-0.01922592656516585
0.07629999999999981,-0.019310809243157753
0.07529999999999992,-0.019353250582153703
0.07429999999999992,-0.019395691921149656
0.07329999999999992,-0.019438133260145606
0.07229999999999992,-0.019452280373144254
0.07129999999999992,-0.019537163051136158
0.07029999999999992,-0.01959375150313076
0.06929999999999992,-0.019622045729128058
0.06829999999999992,-0.019664487068124008
0.06729999999999992,-0.01969278129412131
0.06629999999999991,-0.019791811085111865
0.06529999999999991,-0.019848399537106463
0.06429999999999991,-0.019862546650105117
0.06329999999999991,-0.019904987989101064
0.06229999999999991,-0.019947429328097017
0.06129999999999991,-0.02000401778009162
0.06029999999999991,-0.02008890045808352
0.05929999999999991,-0.020103047571082173
0.05829999999999991,-0.020145488910078124
0.05729999999999991,-0.020187930249074077
0.056299999999999906,-0.020244518701068675
0.055299999999999905,-0.02032940137906058
0.054299999999999904,-0.020357695605057877
0.0532999999999999,-0.020400136944053827
0.0522999999999999,-0.02045672539604843
0.0512999999999999,-0.02052746096104168
0.0502999999999999,-0.020598196526034934
0.0492999999999999,-0.020626490752032236
0.0482999999999999,-0.020668932091028186
0.0472999999999999,-0.020725520543022787
0.0462999999999999,-0.02078210899501739
0.045299999999999896,-0.02085284456001064
0.044299999999999895,-0.020909433012005242
0.043299999999999894,-0.020937727238002544
0.04229999999999989,-0.020980168576998495
0.04129999999999989,-0.021065051254990398
0.04029999999999989,-0.0211782281589796
0.03929999999999989,-0.02119237527197825
0.03829999999999989,-0.02119237527197825
0.03729999999999989,-0.0212631108369715
0.03629999999999989,-0.021333846401964753
0.03529999999999989,-0.021404581966958002
0.034299999999999886,-0.021461170418952607
0.033299999999999885,-0.021517758870947205
0.032299999999999884,-0.021546053096944507
0.031299999999999883,-0.02163093577493641
0.030299999999999883,-0.021687524226931015
0.02929999999999988,-0.021729965565926962
0.02829999999999988,-0.021772406904922915
0.02729999999999988,-0.021828995356917517
0.02629999999999988,-0.021928025147908068
0.025299999999999878,-0.022012907825899968
0.024299999999999877,-0.02204120205189727
0.023299999999999876,-0.02208364339089322
0.022299999999999875,-0.022140231842887825
0.021299999999999875,-0.022225114520879725
0.020299999999999874,-0.02230999719887163
0.019299999999999873,-0.022338291424868928
0.018299999999999872,-0.02238073276386488
0.01729999999999987,-0.02245146832885813
0.01629999999999987,-0.022536351006850038
0.01529999999999987,-0.022621233684841938
0.014299999999999868,-0.02264952791083924
0.013299999999999867,-0.022691969249835187
0.012299999999999978,-0.02274855770182979
0.011299999999999866,-0.022833440379821688
0.010299999999999976,-0.022904175944814944
0.009299999999999864,-0.022960764396809545
0.008299999999999974,-0.0230032057358055
0.007299999999999862,-0.023045647074801445
0.006299999999999972,-0.023144676865792004
0.00529999999999986,-0.023215412430785252
0.0042999999999999705,-0.023257853769781203
0.0032999999999998586,-0.023300295108777156
0.0022999999999999687,-0.023371030673770405
0.0012999999999998568,-0.02345591335176231
0.00029999999999996696,-0.023512501803756906
-0.000700000000000145,-0.02356909025575151
-0.0017000000000000348,-0.023611531594747465
-0.0027000000000001467,-0.023668120046742062
-0.0037000000000000366,-0.023767149837732617
-0.0047000000000001485,-0.023823738289727222
-0.005700000000000038,-0.02389447385472047
-0.00670000000000015,-0.02392276808071777
-0.00770000000000004,-0.023965209419713723
-0.008700000000000152,-0.024078386323702922
-0.009700000000000042,-0.02417741611469348
-0.010700000000000154,-0.02427644590568403
-0.011700000000000044,-0.02434718147067728
-0.012700000000000156,-0.02436132858367593
-0.013700000000000045,-0.024432064148669184
-0.014700000000000157,-0.024502799713662437
-0.015700000000000047,-0.02453109393965974
-0.01670000000000016,-0.02457353527865569
-0.01770000000000005,-0.02461597661765164
-0.01870000000000016,-0.02471500640864219
-0.01970000000000005,-0.02479988908663409
-0.020700000000000163,-0.024842330425630044
-0.021700000000000053,-0.024884771764625994
-0.022700000000000164,-0.024927213103621948
-0.023700000000000054,-0.025040390007611147
-0.024700000000000166,-0.0251111255726044
-0.025700000000000056,-0.02515356691160035
-0.026700000000000168,-0.025196008250596303
-0.027700000000000058,-0.025266743815589552
-0.02870000000000017,-0.025337479380582808
-0.02970000000000006,-0.025422362058574708
-0.03070000000000017,-0.02547895051056931
-0.03170000000000006,-0.025521391849565263
-0.03270000000000017,-0.02562042164055581
-0.03370000000000006,-0.025677010092550415
-0.034700000000000175,-0.02576189277054232
-0.035700000000000065,-0.02580433410953827
-0.03670000000000018,-0.025846775448534223
-0.03770000000000007,-0.025889216787530173
-0.03870000000000018,-0.025988246578520724
-0.03970000000000007,-0.026058982143513973
-0.04070000000000018,-0.026115570595508578
-0.04170000000000007,-0.02614386482150588
-0.04270000000000018,-0.02620045327350048
-0.04370000000000007,-0.02629948306449103
-0.044700000000000184,-0.026356071516485634
-0.045700000000000074,-0.026412659968480235
-0.046700000000000186,-0.026469248420474833
-0.047700000000000076,-0.02649754264647214
-0.04870000000000019,-0.02658242532446404
-0.04970000000000008,-0.026667308002455942
-0.05070000000000019,-0.026709749341451892
-0.05170000000000008,-0.026766337793446494
-0.05270000000000019,-0.026808779132442447
-0.05370000000000008,-0.026907808923433
-0.05470000000000019,-0.0269643973754276
-0.05570000000000008,-0.027006838714423546
-0.056700000000000195,-0.027063427166418155
-0.057700000000000085,-0.02709172139241545
-0.058700000000000196,-0.027204898296404656
-0.059700000000000086,-0.027261486748399254
-0.0607000000000002,-0.02730392808739521
-0.06170000000000009,-0.02738881076538711
-0.0627000000000002,-0.027445399217381712
-0.06370000000000009,-0.027516134782374965
