June 27, 2026   11:53:12
Cyclic Voltammetry
File: c:/users/guazh/data/20260623_doe_duplica2/2026-06-24-exp23\exp23-2026-06-27t11_40_11-h2koh\exp23_cv_sr_50mvs_efin_-1600mv.bin
Data Source:  Experiment
Instrument Model:  CHI760E
Header: CV ran at 50 mVs
Note: 

Init E (V) = -1
High E (V) = -1
Low E (V) = -1.6
Final E (V) = -1
Init P/N = N
Scan Rate (V/s) = 0.05
Segment = 3
Sample Interval (V) = 0.001
Quiet Time (sec) = 2
Sensitivity (A/V) = 0.01
Comp R (ohm) = 1.7

Results:

Channel 1:
Segment 1:
Ep = -1.277V
ip = 5.482e-4A
Ah = 7.379e-4C

Segment 2:

Segment 3:

Potential/V, Current/A

-1.000, -2.327e-4
-1.001, -1.989e-4
-1.002, -1.789e-4
-1.003, -1.670e-4
-1.004, -1.579e-4
-1.005, -1.488e-4
-1.006, -1.412e-4
-1.007, -1.316e-4
-1.008, -1.250e-4
-1.009, -1.164e-4
-1.010, -1.099e-4
-1.011, -1.027e-4
-1.012, -9.676e-5
-1.013, -9.060e-5
-1.014, -8.451e-5
-1.015, -7.893e-5
-1.016, -7.317e-5
-1.017, -6.778e-5
-1.018, -6.227e-5
-1.019, -5.745e-5
-1.020, -5.227e-5
-1.021, -4.764e-5
-1.022, -4.269e-5
-1.023, -3.792e-5
-1.024, -3.308e-5
-1.025, -2.925e-5
-1.026, -2.516e-5
-1.027, -2.148e-5
-1.028, -2.042e-5
-1.029, -1.523e-5
-1.030, -1.038e-5
-1.031, -6.277e-6
-1.032, -3.001e-6
-1.033, 8.860e-7
-1.034, 4.122e-6
-1.035, 7.358e-6
-1.036, 1.071e-5
-1.037, 1.360e-5
-1.038, 1.674e-5
-1.039, 1.990e-5
-1.040, 2.272e-5
-1.041, 2.591e-5
-1.042, 2.879e-5
-1.043, 3.125e-5
-1.044, 3.467e-5
-1.045, 3.667e-5
-1.046, 3.925e-5
-1.047, 4.230e-5
-1.048, 4.459e-5
-1.049, 4.713e-5
-1.050, 4.933e-5
-1.051, 5.183e-5
-1.052, 5.429e-5
-1.053, 5.666e-5
-1.054, 5.845e-5
-1.055, 6.110e-5
-1.056, 6.343e-5
-1.057, 6.532e-5
-1.058, 6.776e-5
-1.059, 6.898e-5
-1.060, 7.157e-5
-1.061, 7.299e-5
-1.062, 7.541e-5
-1.063, 7.720e-5
-1.064, 7.998e-5
-1.065, 8.184e-5
-1.066, 8.399e-5
-1.067, 8.521e-5
-1.068, 8.639e-5
-1.069, 8.869e-5
-1.070, 9.083e-5
-1.071, 9.358e-5
-1.072, 9.495e-5
-1.073, 9.725e-5
-1.074, 9.833e-5
-1.075, 1.006e-4
-1.076, 1.026e-4
-1.077, 1.043e-4
-1.078, 1.062e-4
-1.079, 1.074e-4
-1.080, 1.097e-4
-1.081, 1.115e-4
-1.082, 1.136e-4
-1.083, 1.139e-4
-1.084, 1.166e-4
-1.085, 1.177e-4
-1.086, 1.194e-4
-1.087, 1.209e-4
-1.088, 1.235e-4
-1.089, 1.259e-4
-1.090, 1.283e-4
-1.091, 1.298e-4
-1.092, 1.316e-4
-1.093, 1.324e-4
-1.094, 1.343e-4
-1.095, 1.366e-4
-1.096, 1.394e-4
-1.097, 1.414e-4
-1.098, 1.423e-4
-1.099, 1.440e-4
-1.100, 1.467e-4
-1.101, 1.485e-4
-1.102, 1.514e-4
-1.103, 1.531e-4
-1.104, 1.551e-4
-1.105, 1.564e-4
-1.106, 1.573e-4
-1.107, 1.593e-4
-1.108, 1.634e-4
-1.109, 1.657e-4
-1.110, 1.689e-4
-1.111, 1.696e-4
-1.112, 1.715e-4
-1.113, 1.740e-4
-1.114, 1.759e-4
-1.115, 1.788e-4
-1.116, 1.805e-4
-1.117, 1.826e-4
-1.118, 1.852e-4
-1.119, 1.879e-4
-1.120, 1.892e-4
-1.121, 1.923e-4
-1.122, 1.937e-4
-1.123, 1.974e-4
-1.124, 2.003e-4
-1.125, 2.030e-4
-1.126, 2.064e-4
-1.127, 2.087e-4
-1.128, 2.099e-4
-1.129, 2.128e-4
-1.130, 2.154e-4
-1.131, 2.177e-4
-1.132, 2.205e-4
-1.133, 2.252e-4
-1.134, 2.279e-4
-1.135, 2.295e-4
-1.136, 2.322e-4
-1.137, 2.367e-4
-1.138, 2.395e-4
-1.139, 2.416e-4
-1.140, 2.455e-4
-1.141, 2.476e-4
-1.142, 2.514e-4
-1.143, 2.540e-4
-1.144, 2.582e-4
-1.145, 2.623e-4
-1.146, 2.647e-4
-1.147, 2.680e-4
-1.148, 2.708e-4
-1.149, 2.752e-4
-1.150, 2.818e-4
-1.151, 2.853e-4
-1.152, 2.875e-4
-1.153, 2.892e-4
-1.154, 2.928e-4
-1.155, 2.951e-4
-1.156, 3.031e-4
-1.157, 3.061e-4
-1.158, 3.126e-4
-1.159, 3.139e-4
-1.160, 3.194e-4
-1.161, 3.193e-4
-1.162, 3.263e-4
-1.163, 3.285e-4
-1.164, 3.337e-4
-1.165, 3.381e-4
-1.166, 3.447e-4
-1.167, 3.481e-4
-1.168, 3.537e-4
-1.169, 3.566e-4
-1.170, 3.612e-4
-1.171, 3.641e-4
-1.172, 3.716e-4
-1.173, 3.755e-4
-1.174, 3.798e-4
-1.175, 3.852e-4
-1.176, 3.879e-4
-1.177, 3.961e-4
-1.178, 3.996e-4
-1.179, 4.065e-4
-1.180, 4.076e-4
-1.181, 4.134e-4
-1.182, 4.164e-4
-1.183, 4.296e-4
-1.184, 4.311e-4
-1.185, 4.390e-4
-1.186, 4.367e-4
-1.187, 4.449e-4
-1.188, 4.487e-4
-1.189, 4.583e-4
-1.190, 4.659e-4
-1.191, 4.725e-4
-1.192, 4.753e-4
-1.193, 4.788e-4
-1.194, 4.851e-4
-1.195, 4.927e-4
-1.196, 5.005e-4
-1.197, 5.046e-4
-1.198, 5.119e-4
-1.199, 5.162e-4
-1.200, 5.243e-4
-1.201, 5.312e-4
-1.202, 5.402e-4
-1.203, 5.423e-4
-1.204, 5.464e-4
-1.205, 5.519e-4
-1.206, 5.634e-4
-1.207, 5.725e-4
-1.208, 5.797e-4
-1.209, 5.834e-4
-1.210, 5.922e-4
-1.211, 5.963e-4
-1.212, 6.044e-4
-1.213, 6.122e-4
-1.214, 6.172e-4
-1.215, 6.262e-4
-1.216, 6.322e-4
-1.217, 6.464e-4
-1.218, 6.466e-4
-1.219, 6.564e-4
-1.220, 6.596e-4
-1.221, 6.695e-4
-1.222, 6.766e-4
-1.223, 6.865e-4
-1.224, 6.951e-4
-1.225, 7.030e-4
-1.226, 7.112e-4
-1.227, 7.158e-4
-1.228, 7.252e-4
-1.229, 7.321e-4
-1.230, 7.413e-4
-1.231, 7.496e-4
-1.232, 7.585e-4
-1.233, 7.636e-4
-1.234, 7.705e-4
-1.235, 7.788e-4
-1.236, 7.887e-4
-1.237, 7.993e-4
-1.238, 8.034e-4
-1.239, 8.158e-4
-1.240, 8.217e-4
-1.241, 8.366e-4
-1.242, 8.367e-4
-1.243, 8.401e-4
-1.244, 8.450e-4
-1.245, 8.576e-4
-1.246, 8.666e-4
-1.247, 8.818e-4
-1.248, 8.878e-4
-1.249, 8.915e-4
-1.250, 8.988e-4
-1.251, 9.032e-4
-1.252, 9.148e-4
-1.253, 9.190e-4
-1.254, 9.278e-4
-1.255, 9.329e-4
-1.256, 9.414e-4
-1.257, 9.425e-4
-1.258, 9.525e-4
-1.259, 9.598e-4
-1.260, 9.728e-4
-1.261, 9.697e-4
-1.262, 9.755e-4
-1.263, 9.794e-4
-1.264, 9.871e-4
-1.265, 9.904e-4
-1.266, 9.917e-4
-1.267, 9.979e-4
-1.268, 1.002e-3
-1.269, 1.011e-3
-1.270, 1.007e-3
-1.271, 1.013e-3
-1.272, 1.010e-3
-1.273, 1.015e-3
-1.274, 1.013e-3
-1.275, 1.020e-3
-1.276, 1.016e-3
-1.277, 1.020e-3
-1.278, 1.019e-3
-1.279, 1.017e-3
-1.280, 1.015e-3
-1.281, 1.010e-3
-1.282, 1.014e-3
-1.283, 1.006e-3
-1.284, 1.010e-3
-1.285, 9.997e-4
-1.286, 1.005e-3
-1.287, 9.984e-4
-1.288, 9.924e-4
-1.289, 9.844e-4
-1.290, 9.701e-4
-1.291, 9.694e-4
-1.292, 9.623e-4
-1.293, 9.669e-4
-1.294, 9.568e-4
-1.295, 9.497e-4
-1.296, 9.368e-4
-1.297, 9.292e-4
-1.298, 9.222e-4
-1.299, 9.110e-4
-1.300, 9.064e-4
-1.301, 8.955e-4
-1.302, 8.929e-4
-1.303, 8.794e-4
-1.304, 8.670e-4
-1.305, 8.569e-4
-1.306, 8.518e-4
-1.307, 8.386e-4
-1.308, 8.324e-4
-1.309, 8.250e-4
-1.310, 8.118e-4
-1.311, 8.047e-4
-1.312, 7.912e-4
-1.313, 7.782e-4
-1.314, 7.727e-4
-1.315, 7.651e-4
-1.316, 7.569e-4
-1.317, 7.504e-4
-1.318, 7.388e-4
-1.319, 7.318e-4
-1.320, 7.207e-4
-1.321, 7.171e-4
-1.322, 7.062e-4
-1.323, 7.025e-4
-1.324, 6.926e-4
-1.325, 6.864e-4
-1.326, 6.772e-4
-1.327, 6.754e-4
-1.328, 6.703e-4
-1.329, 6.664e-4
-1.330, 6.592e-4
-1.331, 6.522e-4
-1.332, 6.519e-4
-1.333, 6.435e-4
-1.334, 6.451e-4
-1.335, 6.383e-4
-1.336, 6.392e-4
-1.337, 6.300e-4
-1.338, 6.272e-4
-1.339, 6.283e-4
-1.340, 6.298e-4
-1.341, 6.328e-4
-1.342, 6.256e-4
-1.343, 6.261e-4
-1.344, 6.224e-4
-1.345, 6.250e-4
-1.346, 6.240e-4
-1.347, 6.283e-4
-1.348, 6.290e-4
-1.349, 6.286e-4
-1.350, 6.297e-4
-1.351, 6.314e-4
-1.352, 6.336e-4
-1.353, 6.364e-4
-1.354, 6.389e-4
-1.355, 6.400e-4
-1.356, 6.495e-4
-1.357, 6.467e-4
-1.358, 6.529e-4
-1.359, 6.550e-4
-1.360, 6.611e-4
-1.361, 6.641e-4
-1.362, 6.688e-4
-1.363, 6.775e-4
-1.364, 6.808e-4
-1.365, 6.884e-4
-1.366, 6.850e-4
-1.367, 6.924e-4
-1.368, 6.977e-4
-1.369, 7.070e-4
-1.370, 7.157e-4
-1.371, 7.228e-4
-1.372, 7.317e-4
-1.373, 7.343e-4
-1.374, 7.421e-4
-1.375, 7.452e-4
-1.376, 7.579e-4
-1.377, 7.632e-4
-1.378, 7.739e-4
-1.379, 7.778e-4
-1.380, 7.908e-4
-1.381, 7.948e-4
-1.382, 8.092e-4
-1.383, 8.142e-4
-1.384, 8.236e-4
-1.385, 8.362e-4
-1.386, 8.422e-4
-1.387, 8.575e-4
-1.388, 8.591e-4
-1.389, 8.728e-4
-1.390, 8.852e-4
-1.391, 8.943e-4
-1.392, 9.031e-4
-1.393, 9.114e-4
-1.394, 9.207e-4
-1.395, 9.329e-4
-1.396, 9.510e-4
-1.397, 9.616e-4
-1.398, 9.714e-4
-1.399, 9.796e-4
-1.400, 9.912e-4
-1.401, 1.002e-3
-1.402, 1.015e-3
-1.403, 1.029e-3
-1.404, 1.043e-3
-1.405, 1.057e-3
-1.406, 1.068e-3
-1.407, 1.076e-3
-1.408, 1.089e-3
-1.409, 1.107e-3
-1.410, 1.113e-3
-1.411, 1.139e-3
-1.412, 1.145e-3
-1.413, 1.165e-3
-1.414, 1.170e-3
-1.415, 1.194e-3
-1.416, 1.196e-3
-1.417, 1.209e-3
-1.418, 1.228e-3
-1.419, 1.238e-3
-1.420, 1.264e-3
-1.421, 1.269e-3
-1.422, 1.295e-3
-1.423, 1.302e-3
-1.424, 1.319e-3
-1.425, 1.327e-3
-1.426, 1.343e-3
-1.427, 1.359e-3
-1.428, 1.376e-3
-1.429, 1.400e-3
-1.430, 1.413e-3
-1.431, 1.435e-3
-1.432, 1.442e-3
-1.433, 1.460e-3
-1.434, 1.466e-3
-1.435, 1.493e-3
-1.436, 1.508e-3
-1.437, 1.530e-3
-1.438, 1.549e-3
-1.439, 1.565e-3
-1.440, 1.582e-3
-1.441, 1.597e-3
-1.442, 1.616e-3
-1.443, 1.632e-3
-1.444, 1.658e-3
-1.445, 1.670e-3
-1.446, 1.694e-3
-1.447, 1.709e-3
-1.448, 1.732e-3
-1.449, 1.740e-3
-1.450, 1.751e-3
-1.451, 1.773e-3
-1.452, 1.805e-3
-1.453, 1.826e-3
-1.454, 1.843e-3
-1.455, 1.862e-3
-1.456, 1.873e-3
-1.457, 1.900e-3
-1.458, 1.911e-3
-1.459, 1.938e-3
-1.460, 1.955e-3
-1.461, 1.982e-3
-1.462, 1.999e-3
-1.463, 2.024e-3
-1.464, 2.035e-3
-1.465, 2.067e-3
-1.466, 2.076e-3
-1.467, 2.102e-3
-1.468, 2.120e-3
-1.469, 2.141e-3
-1.470, 2.171e-3
-1.471, 2.187e-3
-1.472, 2.214e-3
-1.473, 2.224e-3
-1.474, 2.262e-3
-1.475, 2.277e-3
-1.476, 2.297e-3
-1.477, 2.306e-3
-1.478, 2.335e-3
-1.479, 2.365e-3
-1.480, 2.398e-3
-1.481, 2.428e-3
-1.482, 2.449e-3
-1.483, 2.432e-3
-1.484, 2.456e-3
-1.485, 2.500e-3
-1.486, 2.529e-3
-1.487, 2.577e-3
-1.488, 2.579e-3
-1.489, 2.607e-3
-1.490, 2.613e-3
-1.491, 2.646e-3
-1.492, 2.662e-3
-1.493, 2.690e-3
-1.494, 2.724e-3
-1.495, 2.756e-3
-1.496, 2.780e-3
-1.497, 2.804e-3
-1.498, 2.831e-3
-1.499, 2.837e-3
-1.500, 2.864e-3
-1.501, 2.892e-3
-1.502, 2.930e-3
-1.503, 2.963e-3
-1.504, 2.981e-3
-1.505, 3.014e-3
-1.506, 3.033e-3
-1.507, 3.061e-3
-1.508, 3.082e-3
-1.509, 3.122e-3
-1.510, 3.139e-3
-1.511, 3.175e-3
-1.512, 3.209e-3
-1.513, 3.240e-3
-1.514, 3.268e-3
-1.515, 3.274e-3
-1.516, 3.282e-3
-1.517, 3.318e-3
-1.518, 3.361e-3
-1.519, 3.399e-3
-1.520, 3.435e-3
-1.521, 3.466e-3
-1.522, 3.483e-3
-1.523, 3.496e-3
-1.524, 3.528e-3
-1.525, 3.557e-3
-1.526, 3.583e-3
-1.527, 3.610e-3
-1.528, 3.655e-3
-1.529, 3.697e-3
-1.530, 3.722e-3
-1.531, 3.744e-3
-1.532, 3.767e-3
-1.533, 3.800e-3
-1.534, 3.807e-3
-1.535, 3.866e-3
-1.536, 3.885e-3
-1.537, 3.951e-3
-1.538, 3.963e-3
-1.539, 4.011e-3
-1.540, 4.008e-3
-1.541, 4.037e-3
-1.542, 4.067e-3
-1.543, 4.108e-3
-1.544, 4.150e-3
-1.545, 4.194e-3
-1.546, 4.225e-3
-1.547, 4.250e-3
-1.548, 4.267e-3
-1.549, 4.282e-3
-1.550, 4.336e-3
-1.551, 4.364e-3
-1.552, 4.413e-3
-1.553, 4.439e-3
-1.554, 4.463e-3
-1.555, 4.500e-3
-1.556, 4.517e-3
-1.557, 4.575e-3
-1.558, 4.612e-3
-1.559, 4.649e-3
-1.560, 4.680e-3
-1.561, 4.683e-3
-1.562, 4.711e-3
-1.563, 4.766e-3
-1.564, 4.795e-3
-1.565, 4.870e-3
-1.566, 4.935e-3
-1.567, 4.946e-3
-1.568, 4.942e-3
-1.569, 4.938e-3
-1.570, 4.965e-3
-1.571, 5.028e-3
-1.572, 5.128e-3
-1.573, 5.177e-3
-1.574, 5.204e-3
-1.575, 5.202e-3
-1.576, 5.188e-3
-1.577, 5.211e-3
-1.578, 5.291e-3
-1.579, 5.328e-3
-1.580, 5.372e-3
-1.581, 5.399e-3
-1.582, 5.443e-3
-1.583, 5.490e-3
-1.584, 5.516e-3
-1.585, 5.523e-3
-1.586, 5.575e-3
-1.587, 5.618e-3
-1.588, 5.640e-3
-1.589, 5.700e-3
-1.590, 5.730e-3
-1.591, 5.786e-3
-1.592, 5.788e-3
-1.593, 5.842e-3
-1.594, 5.877e-3
-1.595, 5.935e-3
-1.596, 5.925e-3
-1.597, 5.910e-3
-1.598, 5.960e-3
-1.599, 6.007e-3
-1.600, 6.061e-3
-1.599, 5.994e-3
-1.598, 5.962e-3
-1.597, 5.850e-3
-1.596, 5.815e-3
-1.595, 5.689e-3
-1.594, 5.651e-3
-1.593, 5.566e-3
-1.592, 5.549e-3
-1.591, 5.501e-3
-1.590, 5.433e-3
-1.589, 5.355e-3
-1.588, 5.285e-3
-1.587, 5.227e-3
-1.586, 5.172e-3
-1.585, 5.151e-3
-1.584, 5.080e-3
-1.583, 5.062e-3
-1.582, 5.007e-3
-1.581, 4.936e-3
-1.580, 4.893e-3
-1.579, 4.792e-3
-1.578, 4.754e-3
-1.577, 4.711e-3
-1.576, 4.690e-3
-1.575, 4.657e-3
-1.574, 4.613e-3
-1.573, 4.544e-3
-1.572, 4.492e-3
-1.571, 4.446e-3
-1.570, 4.399e-3
-1.569, 4.356e-3
-1.568, 4.314e-3
-1.567, 4.277e-3
-1.566, 4.216e-3
-1.565, 4.171e-3
-1.564, 4.139e-3
-1.563, 4.095e-3
-1.562, 4.037e-3
-1.561, 4.031e-3
-1.560, 3.973e-3
-1.559, 3.948e-3
-1.558, 3.857e-3
-1.557, 3.828e-3
-1.556, 3.781e-3
-1.555, 3.813e-3
-1.554, 3.799e-3
-1.553, 3.742e-3
-1.552, 3.699e-3
-1.551, 3.628e-3
-1.550, 3.599e-3
-1.549, 3.546e-3
-1.548, 3.535e-3
-1.547, 3.482e-3
-1.546, 3.458e-3
-1.545, 3.411e-3
-1.544, 3.385e-3
-1.543, 3.338e-3
-1.542, 3.297e-3
-1.541, 3.268e-3
-1.540, 3.236e-3
-1.539, 3.205e-3
-1.538, 3.161e-3
-1.537, 3.136e-3
-1.536, 3.088e-3
-1.535, 3.083e-3
-1.534, 3.039e-3
-1.533, 3.014e-3
-1.532, 2.969e-3
-1.531, 2.933e-3
-1.530, 2.887e-3
-1.529, 2.869e-3
-1.528, 2.824e-3
-1.527, 2.813e-3
-1.526, 2.793e-3
-1.525, 2.762e-3
-1.524, 2.727e-3
-1.523, 2.689e-3
-1.522, 2.665e-3
-1.521, 2.617e-3
-1.520, 2.603e-3
-1.519, 2.579e-3
-1.518, 2.545e-3
-1.517, 2.541e-3
-1.516, 2.493e-3
-1.515, 2.483e-3
-1.514, 2.424e-3
-1.513, 2.435e-3
-1.512, 2.388e-3
-1.511, 2.372e-3
-1.510, 2.339e-3
-1.509, 2.314e-3
-1.508, 2.271e-3
-1.507, 2.250e-3
-1.506, 2.245e-3
-1.505, 2.228e-3
-1.504, 2.207e-3
-1.503, 2.184e-3
-1.502, 2.158e-3
-1.501, 2.124e-3
-1.500, 2.105e-3
-1.499, 2.086e-3
-1.498, 2.070e-3
-1.497, 2.039e-3
-1.496, 2.018e-3
-1.495, 1.992e-3
-1.494, 1.977e-3
-1.493, 1.959e-3
-1.492, 1.940e-3
-1.491, 1.911e-3
-1.490, 1.908e-3
-1.489, 1.877e-3
-1.488, 1.856e-3
-1.487, 1.857e-3
-1.486, 1.818e-3
-1.485, 1.813e-3
-1.484, 1.770e-3
-1.483, 1.747e-3
-1.482, 1.727e-3
-1.481, 1.721e-3
-1.480, 1.730e-3
-1.479, 1.708e-3
-1.478, 1.682e-3
-1.477, 1.656e-3
-1.476, 1.637e-3
-1.475, 1.613e-3
-1.474, 1.606e-3
-1.473, 1.582e-3
-1.472, 1.566e-3
-1.471, 1.547e-3
-1.470, 1.540e-3
-1.469, 1.517e-3
-1.468, 1.502e-3
-1.467, 1.479e-3
-1.466, 1.465e-3
-1.465, 1.447e-3
-1.464, 1.427e-3
-1.463, 1.414e-3
-1.462, 1.402e-3
-1.461, 1.394e-3
-1.460, 1.383e-3
-1.459, 1.362e-3
-1.458, 1.338e-3
-1.457, 1.313e-3
-1.456, 1.304e-3
-1.455, 1.301e-3
-1.454, 1.291e-3
-1.453, 1.274e-3
-1.452, 1.258e-3
-1.451, 1.234e-3
-1.450, 1.232e-3
-1.449, 1.214e-3
-1.448, 1.200e-3
-1.447, 1.190e-3
-1.446, 1.178e-3
-1.445, 1.165e-3
-1.444, 1.149e-3
-1.443, 1.132e-3
-1.442, 1.123e-3
-1.441, 1.114e-3
-1.440, 1.100e-3
-1.439, 1.089e-3
-1.438, 1.076e-3
-1.437, 1.054e-3
-1.436, 1.033e-3
-1.435, 1.035e-3
-1.434, 1.025e-3
-1.433, 1.031e-3
-1.432, 1.008e-3
-1.431, 9.896e-4
-1.430, 9.779e-4
-1.429, 9.601e-4
-1.428, 9.551e-4
-1.427, 9.398e-4
-1.426, 9.418e-4
-1.425, 9.240e-4
-1.424, 9.175e-4
-1.423, 9.003e-4
-1.422, 8.889e-4
-1.421, 8.819e-4
-1.420, 8.655e-4
-1.419, 8.622e-4
-1.418, 8.469e-4
-1.417, 8.412e-4
-1.416, 8.281e-4
-1.415, 8.167e-4
-1.414, 8.096e-4
-1.413, 7.952e-4
-1.412, 7.903e-4
-1.411, 7.742e-4
-1.410, 7.730e-4
-1.409, 7.551e-4
-1.408, 7.571e-4
-1.407, 7.383e-4
-1.406, 7.314e-4
-1.405, 7.166e-4
-1.404, 7.140e-4
-1.403, 7.070e-4
-1.402, 6.955e-4
-1.401, 6.934e-4
-1.400, 6.821e-4
-1.399, 6.742e-4
-1.398, 6.602e-4
-1.397, 6.504e-4
-1.396, 6.401e-4
-1.395, 6.358e-4
-1.394, 6.268e-4
-1.393, 6.197e-4
-1.392, 6.138e-4
-1.391, 6.047e-4
-1.390, 5.953e-4
-1.389, 5.858e-4
-1.388, 5.793e-4
-1.387, 5.710e-4
-1.386, 5.648e-4
-1.385, 5.543e-4
-1.384, 5.582e-4
-1.383, 5.392e-4
-1.382, 5.335e-4
-1.381, 5.167e-4
-1.380, 5.170e-4
-1.379, 5.094e-4
-1.378, 5.095e-4
-1.377, 5.045e-4
-1.376, 4.907e-4
-1.375, 4.859e-4
-1.374, 4.682e-4
-1.373, 4.683e-4
-1.372, 4.598e-4
-1.371, 4.614e-4
-1.370, 4.539e-4
-1.369, 4.463e-4
-1.368, 4.378e-4
-1.367, 4.279e-4
-1.366, 4.237e-4
-1.365, 4.170e-4
-1.364, 4.118e-4
-1.363, 4.048e-4
-1.362, 4.010e-4
-1.361, 3.928e-4
-1.360, 3.917e-4
-1.359, 3.817e-4
-1.358, 3.746e-4
-1.357, 3.690e-4
-1.356, 3.626e-4
-1.355, 3.600e-4
-1.354, 3.626e-4
-1.353, 3.490e-4
-1.352, 3.429e-4
-1.351, 3.368e-4
-1.350, 3.298e-4
-1.349, 3.283e-4
-1.348, 3.188e-4
-1.347, 3.162e-4
-1.346, 3.080e-4
-1.345, 3.016e-4
-1.344, 2.976e-4
-1.343, 2.957e-4
-1.342, 2.909e-4
-1.341, 2.836e-4
-1.340, 2.793e-4
-1.339, 2.738e-4
-1.338, 2.692e-4
-1.337, 2.621e-4
-1.336, 2.580e-4
-1.335, 2.530e-4
-1.334, 2.496e-4
-1.333, 2.453e-4
-1.332, 2.405e-4
-1.331, 2.371e-4
-1.330, 2.303e-4
-1.329, 2.269e-4
-1.328, 2.216e-4
-1.327, 2.187e-4
-1.326, 2.129e-4
-1.325, 2.101e-4
-1.324, 2.056e-4
-1.323, 2.012e-4
-1.322, 1.974e-4
-1.321, 1.928e-4
-1.320, 1.895e-4
-1.319, 1.841e-4
-1.318, 1.809e-4
-1.317, 1.772e-4
-1.316, 1.739e-4
-1.315, 1.694e-4
-1.314, 1.652e-4
-1.313, 1.616e-4
-1.312, 1.588e-4
-1.311, 1.552e-4
-1.310, 1.515e-4
-1.309, 1.477e-4
-1.308, 1.427e-4
-1.307, 1.392e-4
-1.306, 1.370e-4
-1.305, 1.351e-4
-1.304, 1.315e-4
-1.303, 1.284e-4
-1.302, 1.225e-4
-1.301, 1.200e-4
-1.300, 1.164e-4
-1.299, 1.137e-4
-1.298, 1.114e-4
-1.297, 1.079e-4
-1.296, 1.050e-4
-1.295, 1.017e-4
-1.294, 9.852e-5
-1.293, 9.505e-5
-1.292, 9.303e-5
-1.291, 8.903e-5
-1.290, 8.767e-5
-1.289, 8.306e-5
-1.288, 8.126e-5
-1.287, 7.889e-5
-1.286, 7.539e-5
-1.285, 7.328e-5
-1.284, 6.995e-5
-1.283, 6.869e-5
-1.282, 6.510e-5
-1.281, 6.282e-5
-1.280, 5.997e-5
-1.279, 5.768e-5
-1.278, 5.492e-5
-1.277, 5.249e-5
-1.276, 5.014e-5
-1.275, 4.811e-5
-1.274, 4.577e-5
-1.273, 4.322e-5
-1.272, 4.147e-5
-1.271, 3.840e-5
-1.270, 3.640e-5
-1.269, 3.407e-5
-1.268, 3.178e-5
-1.267, 2.940e-5
-1.266, 2.740e-5
-1.265, 2.500e-5
-1.264, 2.319e-5
-1.263, 2.116e-5
-1.262, 1.876e-5
-1.261, 1.687e-5
-1.260, 1.464e-5
-1.259, 1.264e-5
-1.258, 1.059e-5
-1.257, 8.700e-6
-1.256, 6.865e-6
-1.255, 4.763e-6
-1.254, 2.652e-6
-1.253, 1.162e-6
-1.252, -8.702e-7
-1.251, -2.755e-6
-1.250, -4.550e-6
-1.249, -6.573e-6
-1.248, -8.220e-6
-1.247, -9.898e-6
-1.246, -1.177e-5
-1.245, -1.349e-5
-1.244, -1.542e-5
-1.243, -1.702e-5
-1.242, -1.885e-5
-1.241, -2.067e-5
-1.240, -2.238e-5
-1.239, -2.380e-5
-1.238, -2.569e-5
-1.237, -2.704e-5
-1.236, -2.995e-5
-1.235, -3.190e-5
-1.234, -3.271e-5
-1.233, -3.464e-5
-1.232, -3.583e-5
-1.231, -3.751e-5
-1.230, -3.945e-5
-1.229, -4.120e-5
-1.228, -4.208e-5
-1.227, -4.424e-5
-1.226, -4.586e-5
-1.225, -4.791e-5
-1.224, -4.922e-5
-1.223, -5.059e-5
-1.222, -5.233e-5
-1.221, -5.358e-5
-1.220, -5.569e-5
-1.219, -5.730e-5
-1.218, -5.914e-5
-1.217, -6.069e-5
-1.216, -6.222e-5
-1.215, -6.394e-5
-1.214, -6.622e-5
-1.213, -6.700e-5
-1.212, -6.939e-5
-1.211, -7.090e-5
-1.210, -7.237e-5
-1.209, -7.449e-5
-1.208, -7.563e-5
-1.207, -7.771e-5
-1.206, -7.896e-5
-1.205, -8.164e-5
-1.204, -8.332e-5
-1.203, -8.474e-5
-1.202, -8.609e-5
-1.201, -8.879e-5
-1.200, -9.007e-5
-1.199, -9.175e-5
-1.198, -9.385e-5
-1.197, -9.613e-5
-1.196, -9.767e-5
-1.195, -9.976e-5
-1.194, -1.019e-4
-1.193, -1.022e-4
-1.192, -1.039e-4
-1.191, -1.069e-4
-1.190, -1.101e-4
-1.189, -1.117e-4
-1.188, -1.140e-4
-1.187, -1.153e-4
-1.186, -1.167e-4
-1.185, -1.190e-4
-1.184, -1.210e-4
-1.183, -1.234e-4
-1.182, -1.262e-4
-1.181, -1.276e-4
-1.180, -1.294e-4
-1.179, -1.321e-4
-1.178, -1.344e-4
-1.177, -1.372e-4
-1.176, -1.387e-4
-1.175, -1.409e-4
-1.174, -1.433e-4
-1.173, -1.456e-4
-1.172, -1.479e-4
-1.171, -1.508e-4
-1.170, -1.522e-4
-1.169, -1.556e-4
-1.168, -1.587e-4
-1.167, -1.600e-4
-1.166, -1.636e-4
-1.165, -1.640e-4
-1.164, -1.685e-4
-1.163, -1.699e-4
-1.162, -1.728e-4
-1.161, -1.760e-4
-1.160, -1.788e-4
-1.159, -1.814e-4
-1.158, -1.841e-4
-1.157, -1.870e-4
-1.156, -1.892e-4
-1.155, -1.913e-4
-1.154, -1.953e-4
-1.153, -1.981e-4
-1.152, -2.028e-4
-1.151, -2.064e-4
-1.150, -2.086e-4
-1.149, -2.117e-4
-1.148, -2.127e-4
-1.147, -2.180e-4
-1.146, -2.198e-4
-1.145, -2.270e-4
-1.144, -2.306e-4
-1.143, -2.293e-4
-1.142, -2.333e-4
-1.141, -2.377e-4
-1.140, -2.437e-4
-1.139, -2.460e-4
-1.138, -2.509e-4
-1.137, -2.544e-4
-1.136, -2.575e-4
-1.135, -2.608e-4
-1.134, -2.652e-4
-1.133, -2.696e-4
-1.132, -2.731e-4
-1.131, -2.792e-4
-1.130, -2.841e-4
-1.129, -2.876e-4
-1.128, -2.916e-4
-1.127, -2.913e-4
-1.126, -2.956e-4
-1.125, -3.052e-4
-1.124, -3.111e-4
-1.123, -3.166e-4
-1.122, -3.206e-4
-1.121, -3.252e-4
-1.120, -3.289e-4
-1.119, -3.308e-4
-1.118, -3.375e-4
-1.117, -3.431e-4
-1.116, -3.523e-4
-1.115, -3.542e-4
-1.114, -3.604e-4
-1.113, -3.634e-4
-1.112, -3.719e-4
-1.111, -3.758e-4
-1.110, -3.795e-4
-1.109, -3.859e-4
-1.108, -3.936e-4
-1.107, -3.955e-4
-1.106, -4.021e-4
-1.105, -4.095e-4
-1.104, -4.137e-4
-1.103, -4.262e-4
-1.102, -4.290e-4
-1.101, -4.345e-4
-1.100, -4.401e-4
-1.099, -4.451e-4
-1.098, -4.453e-4
-1.097, -4.563e-4
-1.096, -4.671e-4
-1.095, -4.757e-4
-1.094, -4.827e-4
-1.093, -4.830e-4
-1.092, -4.925e-4
-1.091, -4.955e-4
-1.090, -5.070e-4
-1.089, -5.091e-4
-1.088, -5.203e-4
-1.087, -5.251e-4
-1.086, -5.333e-4
-1.085, -5.400e-4
-1.084, -5.451e-4
-1.083, -5.542e-4
-1.082, -5.596e-4
-1.081, -5.661e-4
-1.080, -5.725e-4
-1.079, -5.831e-4
-1.078, -5.897e-4
-1.077, -5.956e-4
-1.076, -6.037e-4
-1.075, -6.123e-4
-1.074, -6.131e-4
-1.073, -6.288e-4
-1.072, -6.353e-4
-1.071, -6.405e-4
-1.070, -6.470e-4
-1.069, -6.502e-4
-1.068, -6.550e-4
-1.067, -6.622e-4
-1.066, -6.824e-4
-1.065, -6.867e-4
-1.064, -6.940e-4
-1.063, -6.991e-4
-1.062, -7.056e-4
-1.061, -7.050e-4
-1.060, -7.159e-4
-1.059, -7.283e-4
-1.058, -7.354e-4
-1.057, -7.453e-4
-1.056, -7.476e-4
-1.055, -7.535e-4
-1.054, -7.625e-4
-1.053, -7.668e-4
-1.052, -7.777e-4
-1.051, -7.876e-4
-1.050, -7.959e-4
-1.049, -7.996e-4
-1.048, -8.070e-4
-1.047, -8.130e-4
-1.046, -8.281e-4
-1.045, -8.205e-4
-1.044, -8.254e-4
-1.043, -8.384e-4
-1.042, -8.459e-4
-1.041, -8.540e-4
-1.040, -8.682e-4
-1.039, -8.702e-4
-1.038, -8.806e-4
-1.037, -8.738e-4
-1.036, -8.850e-4
-1.035, -8.889e-4
-1.034, -9.026e-4
-1.033, -9.095e-4
-1.032, -9.149e-4
-1.031, -9.191e-4
-1.030, -9.256e-4
-1.029, -9.276e-4
-1.028, -9.322e-4
-1.027, -9.448e-4
-1.026, -9.419e-4
-1.025, -9.580e-4
-1.024, -9.640e-4
-1.023, -9.676e-4
-1.022, -9.732e-4
-1.021, -9.809e-4
-1.020, -9.774e-4
-1.019, -9.901e-4
-1.018, -9.894e-4
-1.017, -9.985e-4
-1.016, -1.004e-3
-1.015, -1.009e-3
-1.014, -1.016e-3
-1.013, -1.018e-3
-1.012, -1.027e-3
-1.011, -1.025e-3
-1.010, -1.039e-3
-1.009, -1.033e-3
-1.008, -1.047e-3
-1.007, -1.054e-3
-1.006, -1.054e-3
-1.005, -1.055e-3
-1.004, -1.060e-3
-1.003, -1.068e-3
-1.002, -1.069e-3
-1.001, -1.076e-3
