Potential V vs RHE, Current mA cm-2
0.05339999999999995,-0.02945428926319007
0.05239999999999995,-0.04675620846053946
0.051399999999999946,-0.05245749499899556
0.050399999999999945,-0.05549912429370539
0.049399999999999944,-0.05781925082548405
0.04839999999999994,-0.05961593417631265
0.04739999999999994,-0.06112967526716823
0.04639999999999994,-0.062332179872053514
0.04539999999999994,-0.06371859694592126
0.04439999999999994,-0.06528892648877145
0.04339999999999994,-0.06646313686765942
0.04239999999999994,-0.0675241703425582
0.04139999999999994,-0.06840129134847453
0.040399999999999936,-0.069434030597376
0.039399999999999935,-0.07083459478424238
0.038399999999999934,-0.07188148114614251
0.03739999999999993,-0.07267371947406694
0.03639999999999993,-0.07338107512399945
0.03539999999999993,-0.07424404901691713
0.03439999999999993,-0.07546070073480106
0.03339999999999993,-0.07638026307971334
0.03239999999999993,-0.0771017658426445
0.03139999999999993,-0.07786570994457162
0.030399999999999927,-0.07858721270750278
0.029399999999999926,-0.07967654040839886
0.028399999999999925,-0.08068098543130305
0.027399999999999924,-0.08133175262924096
0.026399999999999924,-0.08203910827917348
0.025399999999999923,-0.08281719949409926
0.024399999999999922,-0.08377920317800747
0.02339999999999992,-0.08472705974891705
0.02239999999999992,-0.08527879715586441
0.02139999999999992,-0.08592956435380232
0.020399999999999918,-0.08679253824672
0.019399999999999917,-0.08766965925263633
0.018399999999999916,-0.08860336871054725
0.017399999999999916,-0.08919754745649056
0.016399999999999915,-0.08976343197643659
0.015399999999999914,-0.09068299432134884
0.014399999999999913,-0.09158840955326249
0.013399999999999912,-0.0925221190111734
0.012399999999999911,-0.09322947466110591
0.01139999999999991,-0.09369632939006138
0.01039999999999991,-0.094601744621975
0.009399999999999908,-0.09562033675787783
0.008399999999999908,-0.09638428085980494
0.007399999999999907,-0.09713407784873342
0.006399999999999906,-0.09765752102968349
0.005399999999999905,-0.09849220069660385
0.004399999999999904,-0.09958152839749992
0.003399999999999903,-0.10030303116043109
0.002399999999999902,-0.10103868103636092
0.0013999999999999013,-0.10164700689530289
0.00039999999999990044,-0.1023826567712327
-0.0006000000000001005,-0.10355686715012069
-0.0016000000000001013,-0.10426422280005321
-0.0026000000000001022,-0.10507060824097628
-0.003600000000000103,-0.10566478698691958
-0.004600000000000104,-0.10644287820184536
-0.005600000000000105,-0.10764538280673064
-0.006600000000000106,-0.10849420958664967
-0.007600000000000107,-0.10904594699359701
-0.008600000000000108,-0.10983818532152145
-0.009600000000000108,-0.11058798231044992
-0.01060000000000011,-0.11177633980233655
-0.01160000000000011,-0.11272419637324613
-0.012600000000000111,-0.1135871702661638
-0.013600000000000112,-0.11418134901210711
-0.014600000000000113,-0.11501602867902748
-0.015600000000000114,-0.11606291504092761
-0.016600000000000115,-0.11710980140282773
-0.017600000000000116,-0.11768983303577239
-0.018600000000000116,-0.11846792425069817
-0.019600000000000117,-0.11947236927360234
-0.020600000000000118,-0.12042022584451192
-0.02160000000000012,-0.12146711220641206
-0.02260000000000012,-0.12218861496934323
-0.02360000000000012,-0.12296670618426901
-0.024600000000000122,-0.12391456275517856
-0.025600000000000123,-0.12497559623007734
-0.026600000000000124,-0.1259800412529815
-0.027600000000000124,-0.12677227958090595
-0.028600000000000125,-0.12742304677884386
-0.029600000000000126,-0.12854066870573724
-0.030600000000000127,-0.12974317331062254
-0.03160000000000013,-0.13069102988153208
-0.03260000000000013,-0.1315964451134457
-0.03360000000000013,-0.1322896536503796
-0.03460000000000002,-0.13337898135127566
-0.03560000000000002,-0.13452489750416632
-0.03660000000000002,-0.13548690118807455
-0.03760000000000002,-0.1364489048719828
-0.03860000000000002,-0.13722699608690858
-0.039600000000000024,-0.13828802956180736
-0.040600000000000025,-0.13961785818368047
-0.041600000000000026,-0.14056571475459004
-0.04260000000000003,-0.14145698287350503
-0.04360000000000003,-0.1423199567664227
-0.04460000000000003,-0.1433102546763282
-0.04560000000000003,-0.14472496597619325
-0.04660000000000003,-0.14571526388609876
-0.04760000000000003,-0.1465640906660178
-0.04860000000000003,-0.14755438857592332
-0.04960000000000003,-0.14868615761581536
-0.050600000000000034,-0.1499593977856939
-0.051600000000000035,-0.1512326379555724
-0.052600000000000036,-0.15208146473549145
-0.053600000000000037,-0.15307176264539696
-0.05460000000000004,-0.154203531685289
-0.05560000000000004,-0.15561824298515403
-0.05660000000000004,-0.15675001202504607
-0.05760000000000004,-0.15774030993495158
-0.05860000000000004,-0.1587306078448571
-0.05960000000000004,-0.16000384801473563
-0.06060000000000004,-0.16127708818461417
-0.061600000000000044,-0.1626917994844792
-0.06260000000000004,-0.16368209739438472
-0.06360000000000005,-0.16467239530429026
-0.06460000000000005,-0.1659456354741688
-0.06560000000000005,-0.16736034677403386
-0.06660000000000005,-0.16863358694391237
-0.06760000000000005,-0.1696238848538179
-0.06860000000000005,-0.17061418276372342
-0.06960000000000005,-0.17188742293360199
-0.07060000000000005,-0.173302134233467
-0.07160000000000005,-0.17457537440334553
-0.07260000000000005,-0.17570714344323757
-0.07360000000000005,-0.1768389124831296
-0.07460000000000006,-0.1782536237829946
-0.07560000000000006,-0.17980980621284617
-0.07660000000000006,-0.18108304638272468
-0.07760000000000006,-0.18235628655260325
-0.07860000000000006,-0.18334658446250876
-0.07960000000000006,-0.1849027668923603
-0.08060000000000006,-0.18660042045219835
-0.08160000000000006,-0.18787366062207686
-0.08260000000000006,-0.18914690079195542
-0.08360000000000006,-0.19042014096183393
-0.08460000000000006,-0.19169338113171247
-0.08560000000000006,-0.193532505821537
-0.08660000000000007,-0.19494721712140206
-0.08760000000000007,-0.19607898616129407
-0.08860000000000007,-0.1974936974611591
-0.08960000000000007,-0.19890840876102414
-0.09060000000000007,-0.2007475334508487
-0.09160000000000007,-0.20216224475071373
-0.09260000000000007,-0.20343548492059227
-0.09360000000000007,-0.20485019622045733
-0.09460000000000007,-0.20640637865030886
-0.09560000000000007,-0.2081040322101469
-0.09660000000000007,-0.20980168576998495
-0.09760000000000008,-0.21107492593986346
-0.09860000000000008,-0.21248963723972852
-0.09960000000000008,-0.21418729079956658
-0.10060000000000008,-0.21588494435940458
-0.10160000000000008,-0.21772406904922914
-0.10260000000000008,-0.2189973092191077
-0.10360000000000008,-0.2204120205189727
-0.10460000000000008,-0.22225114520879727
-0.10560000000000008,-0.22409026989862182
-0.10660000000000008,-0.22578792345845985
-0.10760000000000008,-0.2273441058883114
-0.10860000000000009,-0.22875881718817642
-0.10960000000000009,-0.23059794187800098
-0.11060000000000009,-0.232578537697812
-0.11160000000000009,-0.23427619125765006
-0.11260000000000009,-0.2359738448174881
-0.11360000000000009,-0.23753002724733965
-0.11460000000000009,-0.2395106230671507
-0.11560000000000009,-0.24163269001694826
-0.11660000000000009,-0.24333034357678635
-0.1176000000000001,-0.24488652600663782
-0.1186000000000001,-0.24658417956647588
-0.1196000000000001,-0.24842330425630044
-0.1206000000000001,-0.250545371206098
-0.1216000000000001,-0.2523844958959225
-0.1226000000000001,-0.2540821494557606
-0.1236000000000001,-0.25592127414558513
-0.1246000000000001,-0.25761892770542316
-0.1256000000000001,-0.25988246578520724
-0.1266000000000001,-0.2618630616050183
-0.1276000000000001,-0.26356071516485635
-0.1286000000000001,-0.2653998398546809
-0.1296000000000001,-0.26752190680447846
-0.1306000000000001,-0.269643973754276
-0.1316000000000001,-0.27176604070407356
-0.1326000000000001,-0.2734636942639116
-0.1336000000000001,-0.2754442900837227
-0.1346000000000001,-0.2775663570335202
-0.1356000000000001,-0.27982989511330425
-0.1366000000000001,-0.2819519620631018
-0.1376000000000001,-0.28364961562293983
-0.1386000000000001,-0.2857716825727374
-0.1396000000000001,-0.2880352206525215
-0.1406000000000001,-0.29029875873230554
-0.14160000000000011,-0.29256229681208956
-0.14260000000000012,-0.29454289263190064
-0.14360000000000012,-0.29652348845171167
-0.14460000000000012,-0.2989284976614822
-0.14560000000000012,-0.3011920357412663
-0.14660000000000012,-0.3034555738210504
-0.14760000000000012,-0.3055776407708479
-0.14860000000000012,-0.3076997077206455
-0.14960000000000012,-0.310104716930416
-0.15060000000000012,-0.3125097261401866
-0.15160000000000012,-0.3149147353499572
-0.15260000000000012,-0.3170368022997547
-0.15360000000000013,-0.31930034037953875
-0.15460000000000013,-0.3217053495893093
-0.15560000000000013,-0.3243933010590529
-0.15660000000000013,-0.326656839138837
-0.15760000000000013,-0.3290618483486075
-0.15860000000000013,-0.3313253864283916
-0.15960000000000002,-0.3340133378981352
-0.16060000000000002,-0.33670128936787874
-0.16160000000000002,-0.3391062985776493
-0.16260000000000002,-0.3416527789174064
-0.16360000000000002,-0.34391631699719044
-0.16460000000000002,-0.346604268466934
-0.16560000000000002,-0.3498581044566236
-0.16660000000000003,-0.3528289981863401
-0.16760000000000003,-0.35495106513613767
-0.16860000000000003,-0.3574975454758948
-0.16960000000000003,-0.3600440258156518
-0.17060000000000003,-0.36301491954536846
-0.17160000000000003,-0.3655613998851255
-0.17260000000000003,-0.36810788022488256
-0.17360000000000003,-0.37079583169462615
-0.17460000000000003,-0.37362525429435617
-0.17560000000000003,-0.37659614802407276
-0.17660000000000003,-0.3795670417537893
-0.17760000000000004,-0.38197205096355985
-0.17860000000000004,-0.38494294469327645
-0.17960000000000004,-0.38791383842299304
-0.18060000000000004,-0.39088473215270964
-0.18160000000000004,-0.39385562588242623
-0.18260000000000004,-0.3965435773521698
-0.18360000000000004,-0.39937299995189984
-0.18460000000000004,-0.40262683594158943
-0.18560000000000004,-0.40573920080129255
-0.18660000000000004,-0.4088515656609956
-0.18760000000000004,-0.4118224593907122
-0.18860000000000005,-0.41465188199044223
-0.18960000000000005,-0.41804718911011834
-0.19060000000000005,-0.42144249622979446
-0.19160000000000005,-0.4245548610894975
-0.19260000000000005,-0.4276672259492006
-0.19360000000000005,-0.4306381196789172
-0.19460000000000005,-0.4343163690585663
-0.19560000000000005,-0.4378531473082289
-0.19660000000000005,-0.4411069832979185
-0.19760000000000005,-0.444360819287608
-0.19860000000000005,-0.44761465527729766
-0.19960000000000006,-0.4514343757869332
-0.20060000000000006,-0.45511262516658224
-0.20160000000000006,-0.4585079322862584
-0.20260000000000006,-0.4619032394059345
-0.20360000000000006,-0.46544001765559706
-0.20460000000000006,-0.4692597381652327
-0.20560000000000006,-0.47322092980485475
-0.20660000000000006,-0.47675770805451734
-0.20760000000000006,-0.48029448630418
-0.20860000000000006,-0.4841142068138156
-0.20960000000000006,-0.48793392732345114
-0.21060000000000006,-0.4921780612230462
-0.21160000000000007,-0.49613925286266836
-0.21260000000000007,-0.49981750224231747
-0.21360000000000007,-0.5037786938819395
-0.21460000000000007,-0.5078813566515481
-0.21560000000000007,-0.5122669616811297
-0.21660000000000007,-0.5165110955807248
-0.21760000000000007,-0.52075522948032
-0.21860000000000007,-0.5248578922499286
-0.21960000000000007,-0.5292434972795103
-0.22060000000000007,-0.5336291023090919
-0.22160000000000007,-0.53815617846866
-0.22260000000000008,-0.5422588412382686
-0.22360000000000008,-0.5466444462678502
-0.22460000000000008,-0.5514544646873913
-0.22560000000000008,-0.5561230119769459
-0.22660000000000008,-0.5609330303964871
-0.22760000000000008,-0.5654601065560552
-0.22860000000000008,-0.5701286538456097
-0.22960000000000008,-0.5752216145251239
-0.23060000000000008,-0.580314575204638
-0.23160000000000008,-0.5852660647541656
-0.23260000000000008,-0.5900760831737067
-0.23360000000000009,-0.594886101593248
-0.2346000000000001,-0.6004034756627216
-0.2356000000000001,-0.6057793786022087
-0.2366000000000001,-0.6108723392817229
-0.2376000000000001,-0.6161067710912235
-0.2386000000000001,-0.6211997317707375
-0.2396000000000001,-0.6267171058402112
-0.2406000000000001,-0.6326588932996443
-0.2416000000000001,-0.6380347962391315
-0.2426000000000001,-0.6436936414385916
-0.2436000000000001,-0.6493524866380518
-0.2446000000000001,-0.6552942740974849
-0.2456000000000001,-0.6613775326869047
-0.2466000000000001,-0.6671778490163512
-0.2476000000000001,-0.6731196364757845
-0.2486000000000001,-0.6792028950652041
-0.2496000000000001,-0.6854276247846103
-0.2506000000000001,-0.6919352967639895
-0.2516000000000001,-0.6981600264833956
-0.2526000000000001,-0.7042432850728153
-0.2536000000000001,-0.7107509570521945
-0.2546000000000001,-0.7174001001615601
-0.2556000000000001,-0.7243321855308987
-0.2566000000000001,-0.7309813286402644
-0.2576000000000001,-0.7373475294896572
-0.2586000000000001,-0.7441381437290092
-0.2596000000000001,-0.7512117002283345
-0.2606000000000001,-0.7582852567276597
-0.2616000000000001,-0.7655002843569714
-0.2626000000000001,-0.7722908985963235
-0.2636000000000001,-0.7795059262256352
-0.2646000000000001,-0.7871453672449065
-0.2656000000000001,-0.7945018660042045
-0.2666000000000001,-0.8019998358934892
-0.2676000000000001,-0.8092148635228009
-0.2686000000000001,-0.8167128334120857
-0.2696000000000001,-0.8244937455613434
-0.2706000000000001,-0.8324161288405876
-0.2716000000000001,-0.8399140987298723
-0.2726000000000001,-0.84769501087913
-0.2736000000000001,-0.8554759230283877
-0.2746000000000001,-0.863681248567605
-0.2756000000000001,-0.8720280452368087
-0.2766000000000001,-0.8800918996460394
-0.2776000000000001,-0.8881557540552701
-0.2786000000000001,-0.8965025507244737
-0.2796000000000001,-0.9051322896536503
-0.2806000000000001,-0.9137620285828272
-0.28160000000000013,-0.9222502963820175
-0.28260000000000013,-0.9307385641812077
-0.28360000000000013,-0.9393683031103843
-0.2846,-0.948280984299534
-0.2856,-0.9573351366186703
-0.2866,-0.9662478178078201
-0.2876,-0.9750190278669832
-0.2886,-0.9842146513161061
-0.2896,-0.9935517458952152
-0.2906,-1.0028888404743244
-0.2916,-1.0123674061834202
-0.2926,-1.021563029632543
-0.2936,-1.0311830664716253
-0.29460000000000003,-1.040944574440694
-0.29560000000000003,-1.0507060824097627
-0.29660000000000003,-1.0604675903788316
-0.29760000000000003,-1.0698046849579408
-0.29860000000000003,-1.079707664056996
-0.29960000000000003,-1.0898935854160243
-0.30060000000000003,-1.1000795067750526
-0.30160000000000003,-1.1102654281340807
-0.30260000000000004,-1.1204513494931092
-0.30360000000000004,-1.1307787419821238
-0.30460000000000004,-1.1413890767311115
-0.30560000000000004,-1.1519994114800993
-0.30660000000000004,-1.1624682750991004
-0.30760000000000004,-1.1729371387181018
-0.30860000000000004,-1.1835474734670897
-0.30960000000000004,-1.1945822216060369
-0.31060000000000004,-1.205475498614998
-0.31160000000000004,-1.2163687756239585
-0.31260000000000004,-1.2272620526329192
-0.31360000000000005,-1.2382968007718667
-0.31460000000000005,-1.2497559623007732
-0.31560000000000005,-1.2610736526996937
-0.31660000000000005,-1.272108400838641
-0.31760000000000005,-1.2834260912375612
-0.31860000000000005,-1.294602310506495
-0.31960000000000005,-1.3064858854253614
-0.32060000000000005,-1.3183694603442275
-0.32160000000000005,-1.3295456796131615
-0.32260000000000005,-1.3412877834020411
-0.32360000000000005,-1.3528884160609347
-0.32460000000000006,-1.3647719909798008
-0.32560000000000006,-1.3767970370286537
-0.32660000000000006,-1.3885391408175334
-0.32760000000000006,-1.4001397734764267
-0.32860000000000006,-1.4120233483952929
-0.32960000000000006,-1.4246142789640919
-0.33060000000000006,-1.4359319693630124
-0.33160000000000006,-1.4486643710617975
-0.33260000000000006,-1.459982061460718
-0.33360000000000006,-1.472714463159503
-0.33460000000000006,-1.4840321535584236
-0.33560000000000006,-1.4967645552572086
-0.33660000000000007,-1.5080822456561291
-0.33760000000000007,-1.5208146473549145
-0.33860000000000007,-1.5321323377538347
-0.33960000000000007,-1.54486473945262
-0.34060000000000007,-1.5575971411514054
-0.34160000000000007,-1.5703295428501907
-0.34260000000000007,-1.5816472332491107
-0.34360000000000007,-1.5943796349478963
-0.3446000000000001,-1.6056973253468165
-0.3456000000000001,-1.6184297270456018
-0.3466000000000001,-1.6311621287443874
-0.34759999999999996,-1.6424798191433077
-0.3486000000000001,-1.655212220842093
-0.34959999999999997,-1.6665299112410132
-0.3506000000000001,-1.6792623129397986
-0.35159999999999997,-1.690580003338719
-0.3526000000000001,-1.7033124050375041
-0.35359999999999997,-1.7146300954364246
-0.3546000000000001,-1.72736249713521
-0.35559999999999997,-1.7386801875341302
-0.3566000000000001,-1.7499978779330503
-0.3576,-1.7627302796318356
-0.3586000000000001,-1.774047970030756
-0.3596,-1.7853656604296764
-0.3606000000000001,-1.7966833508285964
-0.3616,-1.8080010412275167
-0.3626000000000001,-1.8193187316264372
-0.3636,-1.8306364220253575
-0.3646000000000001,-1.8419541124242775
-0.3656,-1.8532718028231983
-0.3666000000000001,-1.8645894932221183
-0.3676,-1.8759071836210386
-0.3686000000000001,-1.8858101627200938
-0.3696,-1.897127853119014
-0.3706000000000001,-1.9084455435179344
-0.3716,-1.9183485226169896
-0.3726000000000001,-1.9282515017160449
-0.3736,-1.9395691921149654
-0.3746000000000001,-1.9494721712140204
-0.3756,-1.959375150313076
-0.3766000000000001,-1.9692781294121309
-0.3776,-1.9777663972113213
-0.3786000000000001,-1.9876693763103765
-0.3796,-1.9975723554094316
-0.3806000000000001,-2.0060606232086218
-0.3816,-2.014548891007812
-0.3826000000000001,-2.023037158807002
-0.3836,-2.0329401379060577
-0.3846000000000001,-2.0414284057052483
-0.3856,-2.048501962204573
-0.3866000000000001,-2.0569902300037635
-0.3876,-2.0654784978029537
-0.3886000000000001,-2.072552054302279
-0.3896,-2.079625610801604
-0.3906000000000001,-2.0881138786007942
-0.3916,-2.0937727238002544
-0.3926000000000001,-2.1008462802995793
-0.3936,-2.1079198367989047
-0.3946000000000001,-2.113578681998365
-0.3956,-2.1206522384976902
-0.3966000000000001,-2.12631108369715
-0.3976,-2.13196992889661
-0.3986000000000001,-2.13762877409607
-0.3996,-2.1432876192955304
-0.4006000000000001,-2.148946464494991
-0.4016,-2.1531905983945863
-0.4026000000000001,-2.1574347322941807
-0.4036,-2.161678866193776
-0.4046000000000001,-2.1659230000933714
-0.4056,-2.1701671339929662
-0.40660000000000013,-2.174411267892561
-0.4076,-2.177240690492291
-0.40860000000000013,-2.1800701130920217
-0.4096,-2.184314246991617
-0.41060000000000013,-2.1871436695913467
-0.4116,-2.1899730921910767
-0.41260000000000013,-2.1913878034909415
-0.4136,-2.194217226090672
-0.41460000000000014,-2.1956319373905373
-0.4156,-2.1984613599902674
-0.41660000000000014,-2.199876071290132
-0.4176,-2.201290782589997
-0.41860000000000014,-2.202705493889862
-0.41960000000000003,-2.204120205189727
-0.42060000000000014,-2.205534916489592
-0.42160000000000003,-2.206949627789457
-0.42260000000000014,-2.206949627789457
-0.42360000000000003,-2.208364339089322
-0.42460000000000014,-2.208364339089322
-0.42560000000000003,-2.2097790503891876
-0.42660000000000015,-2.2097790503891876
-0.42760000000000004,-2.2097790503891876
-0.42860000000000015,-2.2097790503891876
-0.42960000000000004,-2.2097790503891876
-0.43060000000000015,-2.2097790503891876
-0.43160000000000004,-2.2097790503891876
-0.43260000000000015,-2.2097790503891876
-0.43360000000000004,-2.208364339089322
-0.43460000000000015,-2.208364339089322
-0.43560000000000004,-2.208364339089322
-0.43660000000000015,-2.208364339089322
-0.43760000000000004,-2.208364339089322
-0.43860000000000016,-2.206949627789457
-0.43960000000000005,-2.206949627789457
-0.44060000000000016,-2.206949627789457
-0.44160000000000005,-2.206949627789457
-0.44260000000000016,-2.205534916489592
-0.44360000000000005,-2.205534916489592
-0.44460000000000016,-2.205534916489592
