Jan. 8, 2025   04:22:53
Cyclic Voltammetry
File: c:/users/guazh/data/banditlqround7_x0exp772_r5/2025-01-07-exp794\exp794-2025-01-08t04_12_48-arkoh\exp794_cv_sr_200mvs_efin_-1500mv.bin
Data Source:  Experiment
Instrument Model:  CHI760E
Header: CV ran at 200 mVs
Note: 

Init E (V) = -1
High E (V) = -1
Low E (V) = -1.5
Final E (V) = -1
Init P/N = N
Scan Rate (V/s) = 0.2
Segment = 3
Sample Interval (V) = 0.001
Quiet Time (sec) = 2
Sensitivity (A/V) = 0.01
Comp R (ohm) = 1.6

Results:

Channel 1:
Segment 1:

Segment 2:

Segment 3:

Potential/V, Current/A

-1.000, -2.545e-4
-1.001, -1.115e-4
-1.002, -2.219e-5
-1.003, 2.968e-6
-1.004, 9.048e-5
-1.005, 1.747e-4
-1.006, 1.820e-4
-1.007, 2.209e-4
-1.008, 3.060e-4
-1.009, 3.190e-4
-1.010, 3.230e-4
-1.011, 3.956e-4
-1.012, 4.293e-4
-1.013, 4.092e-4
-1.014, 4.565e-4
-1.015, 5.092e-4
-1.016, 4.878e-4
-1.017, 5.037e-4
-1.018, 5.685e-4
-1.019, 5.628e-4
-1.020, 5.496e-4
-1.021, 6.073e-4
-1.022, 6.267e-4
-1.023, 5.967e-4
-1.024, 6.351e-4
-1.025, 6.801e-4
-1.026, 6.503e-4
-1.027, 6.571e-4
-1.028, 7.138e-4
-1.029, 7.004e-4
-1.030, 6.817e-4
-1.031, 7.348e-4
-1.032, 7.478e-4
-1.033, 7.093e-4
-1.034, 7.427e-4
-1.035, 7.824e-4
-1.036, 7.487e-4
-1.037, 7.508e-4
-1.038, 8.064e-4
-1.039, 7.895e-4
-1.040, 7.653e-4
-1.041, 8.147e-4
-1.042, 8.268e-4
-1.043, 7.881e-4
-1.044, 8.207e-4
-1.045, 8.569e-4
-1.046, 8.195e-4
-1.047, 8.221e-4
-1.048, 8.726e-4
-1.049, 8.551e-4
-1.050, 8.302e-4
-1.051, 8.786e-4
-1.052, 8.874e-4
-1.053, 8.454e-4
-1.054, 8.738e-4
-1.055, 9.087e-4
-1.056, 8.694e-4
-1.057, 8.697e-4
-1.058, 9.198e-4
-1.059, 8.995e-4
-1.060, 8.750e-4
-1.061, 9.206e-4
-1.062, 9.302e-4
-1.063, 8.887e-4
-1.064, 9.172e-4
-1.065, 9.499e-4
-1.066, 9.140e-4
-1.067, 9.131e-4
-1.068, 9.626e-4
-1.069, 9.399e-4
-1.070, 9.137e-4
-1.071, 9.591e-4
-1.072, 9.671e-4
-1.073, 9.221e-4
-1.074, 9.507e-4
-1.075, 9.871e-4
-1.076, 9.469e-4
-1.077, 9.449e-4
-1.078, 9.934e-4
-1.079, 9.720e-4
-1.080, 9.450e-4
-1.081, 9.914e-4
-1.082, 9.967e-4
-1.083, 9.542e-4
-1.084, 9.830e-4
-1.085, 1.015e-3
-1.086, 9.747e-4
-1.087, 9.736e-4
-1.088, 1.024e-3
-1.089, 1.001e-3
-1.090, 9.727e-4
-1.091, 1.017e-3
-1.092, 1.023e-3
-1.093, 9.778e-4
-1.094, 1.006e-3
-1.095, 1.037e-3
-1.096, 9.956e-4
-1.097, 9.945e-4
-1.098, 1.044e-3
-1.099, 1.022e-3
-1.100, 9.967e-4
-1.101, 1.039e-3
-1.102, 1.046e-3
-1.103, 1.004e-3
-1.104, 1.032e-3
-1.105, 1.066e-3
-1.106, 1.022e-3
-1.107, 1.019e-3
-1.108, 1.067e-3
-1.109, 1.045e-3
-1.110, 1.022e-3
-1.111, 1.066e-3
-1.112, 1.070e-3
-1.113, 1.028e-3
-1.114, 1.054e-3
-1.115, 1.087e-3
-1.116, 1.048e-3
-1.117, 1.047e-3
-1.118, 1.096e-3
-1.119, 1.072e-3
-1.120, 1.047e-3
-1.121, 1.095e-3
-1.122, 1.100e-3
-1.123, 1.056e-3
-1.124, 1.085e-3
-1.125, 1.117e-3
-1.126, 1.078e-3
-1.127, 1.074e-3
-1.128, 1.122e-3
-1.129, 1.099e-3
-1.130, 1.073e-3
-1.131, 1.119e-3
-1.132, 1.123e-3
-1.133, 1.080e-3
-1.134, 1.108e-3
-1.135, 1.138e-3
-1.136, 1.095e-3
-1.137, 1.095e-3
-1.138, 1.144e-3
-1.139, 1.122e-3
-1.140, 1.095e-3
-1.141, 1.142e-3
-1.142, 1.149e-3
-1.143, 1.106e-3
-1.144, 1.134e-3
-1.145, 1.169e-3
-1.146, 1.131e-3
-1.147, 1.132e-3
-1.148, 1.179e-3
-1.149, 1.156e-3
-1.150, 1.131e-3
-1.151, 1.174e-3
-1.152, 1.180e-3
-1.153, 1.138e-3
-1.154, 1.169e-3
-1.155, 1.201e-3
-1.156, 1.160e-3
-1.157, 1.161e-3
-1.158, 1.212e-3
-1.159, 1.189e-3
-1.160, 1.160e-3
-1.161, 1.203e-3
-1.162, 1.208e-3
-1.163, 1.169e-3
-1.164, 1.198e-3
-1.165, 1.226e-3
-1.166, 1.187e-3
-1.167, 1.192e-3
-1.168, 1.242e-3
-1.169, 1.216e-3
-1.170, 1.189e-3
-1.171, 1.235e-3
-1.172, 1.240e-3
-1.173, 1.200e-3
-1.174, 1.228e-3
-1.175, 1.263e-3
-1.176, 1.225e-3
-1.177, 1.226e-3
-1.178, 1.276e-3
-1.179, 1.254e-3
-1.180, 1.230e-3
-1.181, 1.273e-3
-1.182, 1.275e-3
-1.183, 1.233e-3
-1.184, 1.265e-3
-1.185, 1.295e-3
-1.186, 1.256e-3
-1.187, 1.260e-3
-1.188, 1.310e-3
-1.189, 1.288e-3
-1.190, 1.263e-3
-1.191, 1.311e-3
-1.192, 1.313e-3
-1.193, 1.271e-3
-1.194, 1.302e-3
-1.195, 1.333e-3
-1.196, 1.296e-3
-1.197, 1.299e-3
-1.198, 1.347e-3
-1.199, 1.323e-3
-1.200, 1.297e-3
-1.201, 1.348e-3
-1.202, 1.355e-3
-1.203, 1.314e-3
-1.204, 1.349e-3
-1.205, 1.381e-3
-1.206, 1.342e-3
-1.207, 1.342e-3
-1.208, 1.388e-3
-1.209, 1.362e-3
-1.210, 1.338e-3
-1.211, 1.385e-3
-1.212, 1.393e-3
-1.213, 1.353e-3
-1.214, 1.381e-3
-1.215, 1.411e-3
-1.216, 1.370e-3
-1.217, 1.375e-3
-1.218, 1.425e-3
-1.219, 1.401e-3
-1.220, 1.377e-3
-1.221, 1.428e-3
-1.222, 1.436e-3
-1.223, 1.396e-3
-1.224, 1.423e-3
-1.225, 1.456e-3
-1.226, 1.419e-3
-1.227, 1.423e-3
-1.228, 1.473e-3
-1.229, 1.454e-3
-1.230, 1.430e-3
-1.231, 1.476e-3
-1.232, 1.477e-3
-1.233, 1.436e-3
-1.234, 1.471e-3
-1.235, 1.503e-3
-1.236, 1.464e-3
-1.237, 1.468e-3
-1.238, 1.518e-3
-1.239, 1.495e-3
-1.240, 1.471e-3
-1.241, 1.517e-3
-1.242, 1.524e-3
-1.243, 1.483e-3
-1.244, 1.516e-3
-1.245, 1.548e-3
-1.246, 1.509e-3
-1.247, 1.514e-3
-1.248, 1.565e-3
-1.249, 1.545e-3
-1.250, 1.523e-3
-1.251, 1.570e-3
-1.252, 1.577e-3
-1.253, 1.537e-3
-1.254, 1.568e-3
-1.255, 1.602e-3
-1.256, 1.562e-3
-1.257, 1.567e-3
-1.258, 1.617e-3
-1.259, 1.595e-3
-1.260, 1.575e-3
-1.261, 1.626e-3
-1.262, 1.633e-3
-1.263, 1.591e-3
-1.264, 1.622e-3
-1.265, 1.656e-3
-1.266, 1.620e-3
-1.267, 1.625e-3
-1.268, 1.675e-3
-1.269, 1.652e-3
-1.270, 1.634e-3
-1.271, 1.686e-3
-1.272, 1.701e-3
-1.273, 1.664e-3
-1.274, 1.697e-3
-1.275, 1.728e-3
-1.276, 1.685e-3
-1.277, 1.689e-3
-1.278, 1.742e-3
-1.279, 1.724e-3
-1.280, 1.703e-3
-1.281, 1.756e-3
-1.282, 1.766e-3
-1.283, 1.733e-3
-1.284, 1.770e-3
-1.285, 1.804e-3
-1.286, 1.771e-3
-1.287, 1.780e-3
-1.288, 1.833e-3
-1.289, 1.809e-3
-1.290, 1.789e-3
-1.291, 1.842e-3
-1.292, 1.853e-3
-1.293, 1.820e-3
-1.294, 1.858e-3
-1.295, 1.894e-3
-1.296, 1.862e-3
-1.297, 1.872e-3
-1.298, 1.927e-3
-1.299, 1.909e-3
-1.300, 1.890e-3
-1.301, 1.943e-3
-1.302, 1.954e-3
-1.303, 1.924e-3
-1.304, 1.962e-3
-1.305, 2.000e-3
-1.306, 1.966e-3
-1.307, 1.977e-3
-1.308, 2.034e-3
-1.309, 2.020e-3
-1.310, 2.008e-3
-1.311, 2.069e-3
-1.312, 2.081e-3
-1.313, 2.050e-3
-1.314, 2.093e-3
-1.315, 2.136e-3
-1.316, 2.108e-3
-1.317, 2.122e-3
-1.318, 2.183e-3
-1.319, 2.174e-3
-1.320, 2.163e-3
-1.321, 2.222e-3
-1.322, 2.240e-3
-1.323, 2.213e-3
-1.324, 2.258e-3
-1.325, 2.305e-3
-1.326, 2.278e-3
-1.327, 2.299e-3
-1.328, 2.367e-3
-1.329, 2.358e-3
-1.330, 2.347e-3
-1.331, 2.406e-3
-1.332, 2.427e-3
-1.333, 2.403e-3
-1.334, 2.453e-3
-1.335, 2.496e-3
-1.336, 2.465e-3
-1.337, 2.482e-3
-1.338, 2.554e-3
-1.339, 2.552e-3
-1.340, 2.549e-3
-1.341, 2.618e-3
-1.342, 2.642e-3
-1.343, 2.625e-3
-1.344, 2.677e-3
-1.345, 2.729e-3
-1.346, 2.712e-3
-1.347, 2.738e-3
-1.348, 2.824e-3
-1.349, 2.825e-3
-1.350, 2.828e-3
-1.351, 2.898e-3
-1.352, 2.924e-3
-1.353, 2.906e-3
-1.354, 2.961e-3
-1.355, 3.016e-3
-1.356, 3.002e-3
-1.357, 3.035e-3
-1.358, 3.114e-3
-1.359, 3.117e-3
-1.360, 3.103e-3
-1.361, 3.183e-3
-1.362, 3.219e-3
-1.363, 3.205e-3
-1.364, 3.256e-3
-1.365, 3.306e-3
-1.366, 3.299e-3
-1.367, 3.339e-3
-1.368, 3.417e-3
-1.369, 3.422e-3
-1.370, 3.434e-3
-1.371, 3.521e-3
-1.372, 3.547e-3
-1.373, 3.542e-3
-1.374, 3.615e-3
-1.375, 3.689e-3
-1.376, 3.683e-3
-1.377, 3.717e-3
-1.378, 3.787e-3
-1.379, 3.787e-3
-1.380, 3.805e-3
-1.381, 3.892e-3
-1.382, 3.932e-3
-1.383, 3.930e-3
-1.384, 4.003e-3
-1.385, 4.066e-3
-1.386, 4.062e-3
-1.387, 4.100e-3
-1.388, 4.178e-3
-1.389, 4.188e-3
-1.390, 4.200e-3
-1.391, 4.287e-3
-1.392, 4.331e-3
-1.393, 4.334e-3
-1.394, 4.410e-3
-1.395, 4.486e-3
-1.396, 4.493e-3
-1.397, 4.540e-3
-1.398, 4.624e-3
-1.399, 4.643e-3
-1.400, 4.656e-3
-1.401, 4.745e-3
-1.402, 4.793e-3
-1.403, 4.799e-3
-1.404, 4.875e-3
-1.405, 4.954e-3
-1.406, 4.963e-3
-1.407, 5.018e-3
-1.408, 5.108e-3
-1.409, 5.131e-3
-1.410, 5.148e-3
-1.411, 5.234e-3
-1.412, 5.280e-3
-1.413, 5.279e-3
-1.414, 5.360e-3
-1.415, 5.442e-3
-1.416, 5.439e-3
-1.417, 5.483e-3
-1.418, 5.577e-3
-1.419, 5.605e-3
-1.420, 5.638e-3
-1.421, 5.737e-3
-1.422, 5.789e-3
-1.423, 5.807e-3
-1.424, 5.897e-3
-1.425, 5.976e-3
-1.426, 5.979e-3
-1.427, 6.038e-3
-1.428, 6.138e-3
-1.429, 6.169e-3
-1.430, 6.203e-3
-1.431, 6.286e-3
-1.432, 6.339e-3
-1.433, 6.354e-3
-1.434, 6.425e-3
-1.435, 6.473e-3
-1.436, 6.472e-3
-1.437, 6.546e-3
-1.438, 6.676e-3
-1.439, 6.716e-3
-1.440, 6.731e-3
-1.441, 6.828e-3
-1.442, 6.893e-3
-1.443, 6.922e-3
-1.444, 7.029e-3
-1.445, 7.121e-3
-1.446, 7.133e-3
-1.447, 7.206e-3
-1.448, 7.294e-3
-1.449, 7.312e-3
-1.450, 7.350e-3
-1.451, 7.460e-3
-1.452, 7.514e-3
-1.453, 7.516e-3
-1.454, 7.603e-3
-1.455, 7.697e-3
-1.456, 7.711e-3
-1.457, 7.775e-3
-1.458, 7.884e-3
-1.459, 7.923e-3
-1.460, 7.956e-3
-1.461, 8.065e-3
-1.462, 8.128e-3
-1.463, 8.144e-3
-1.464, 8.234e-3
-1.465, 8.326e-3
-1.466, 8.338e-3
-1.467, 8.411e-3
-1.468, 8.528e-3
-1.469, 8.565e-3
-1.470, 8.605e-3
-1.471, 8.706e-3
-1.472, 8.765e-3
-1.473, 8.789e-3
-1.474, 8.878e-3
-1.475, 9.002e-3
-1.476, 9.011e-3
-1.477, 9.066e-3
-1.478, 9.181e-3
-1.479, 9.222e-3
-1.480, 9.276e-3
-1.481, 9.379e-3
-1.482, 9.434e-3
-1.483, 9.468e-3
-1.484, 9.576e-3
-1.485, 9.666e-3
-1.486, 9.676e-3
-1.487, 9.731e-3
-1.488, 9.839e-3
-1.489, 9.890e-3
-1.490, 9.924e-3
-1.491, 1.001e-2
-1.492, 1.007e-2
-1.493, 1.008e-2
-1.494, 1.015e-2
-1.495, 1.024e-2
-1.496, 1.026e-2
-1.497, 1.034e-2
-1.498, 1.046e-2
-1.499, 1.051e-2
-1.500, 1.048e-2
-1.499, 1.040e-2
-1.498, 1.027e-2
-1.497, 1.010e-2
-1.496, 1.002e-2
-1.495, 9.979e-3
-1.494, 9.861e-3
-1.493, 9.767e-3
-1.492, 9.728e-3
-1.491, 9.626e-3
-1.490, 9.520e-3
-1.489, 9.454e-3
-1.488, 9.376e-3
-1.487, 9.276e-3
-1.486, 9.245e-3
-1.485, 9.210e-3
-1.484, 9.085e-3
-1.483, 8.984e-3
-1.482, 8.940e-3
-1.481, 8.802e-3
-1.480, 8.691e-3
-1.479, 8.649e-3
-1.478, 8.562e-3
-1.477, 8.459e-3
-1.476, 8.435e-3
-1.475, 8.408e-3
-1.474, 8.302e-3
-1.473, 8.213e-3
-1.472, 8.167e-3
-1.471, 8.057e-3
-1.470, 7.968e-3
-1.469, 7.942e-3
-1.468, 7.850e-3
-1.467, 7.716e-3
-1.466, 7.657e-3
-1.465, 7.643e-3
-1.464, 7.554e-3
-1.463, 7.506e-3
-1.462, 7.482e-3
-1.461, 7.394e-3
-1.460, 7.294e-3
-1.459, 7.249e-3
-1.458, 7.179e-3
-1.457, 7.078e-3
-1.456, 7.031e-3
-1.455, 6.974e-3
-1.454, 6.857e-3
-1.453, 6.801e-3
-1.452, 6.789e-3
-1.451, 6.702e-3
-1.450, 6.608e-3
-1.449, 6.589e-3
-1.448, 6.526e-3
-1.447, 6.427e-3
-1.446, 6.381e-3
-1.445, 6.337e-3
-1.444, 6.229e-3
-1.443, 6.174e-3
-1.442, 6.155e-3
-1.441, 6.056e-3
-1.440, 5.965e-3
-1.439, 5.946e-3
-1.438, 5.871e-3
-1.437, 5.782e-3
-1.436, 5.758e-3
-1.435, 5.713e-3
-1.434, 5.611e-3
-1.433, 5.555e-3
-1.432, 5.543e-3
-1.431, 5.449e-3
-1.430, 5.364e-3
-1.429, 5.341e-3
-1.428, 5.281e-3
-1.427, 5.196e-3
-1.426, 5.165e-3
-1.425, 5.124e-3
-1.424, 5.020e-3
-1.423, 4.974e-3
-1.422, 4.958e-3
-1.421, 4.887e-3
-1.420, 4.802e-3
-1.419, 4.782e-3
-1.418, 4.717e-3
-1.417, 4.620e-3
-1.416, 4.605e-3
-1.415, 4.572e-3
-1.414, 4.474e-3
-1.413, 4.432e-3
-1.412, 4.416e-3
-1.411, 4.343e-3
-1.410, 4.262e-3
-1.409, 4.244e-3
-1.408, 4.192e-3
-1.407, 4.096e-3
-1.406, 4.077e-3
-1.405, 4.040e-3
-1.404, 3.936e-3
-1.403, 3.885e-3
-1.402, 3.874e-3
-1.401, 3.799e-3
-1.400, 3.727e-3
-1.399, 3.714e-3
-1.398, 3.654e-3
-1.397, 3.565e-3
-1.396, 3.545e-3
-1.395, 3.523e-3
-1.394, 3.442e-3
-1.393, 3.399e-3
-1.392, 3.394e-3
-1.391, 3.320e-3
-1.390, 3.246e-3
-1.389, 3.233e-3
-1.388, 3.171e-3
-1.387, 3.091e-3
-1.386, 3.079e-3
-1.385, 3.057e-3
-1.384, 2.970e-3
-1.383, 2.921e-3
-1.382, 2.907e-3
-1.381, 2.831e-3
-1.380, 2.767e-3
-1.379, 2.764e-3
-1.378, 2.712e-3
-1.377, 2.623e-3
-1.376, 2.607e-3
-1.375, 2.592e-3
-1.374, 2.507e-3
-1.373, 2.466e-3
-1.372, 2.462e-3
-1.371, 2.395e-3
-1.370, 2.336e-3
-1.369, 2.336e-3
-1.368, 2.285e-3
-1.367, 2.207e-3
-1.366, 2.197e-3
-1.365, 2.189e-3
-1.364, 2.121e-3
-1.363, 2.069e-3
-1.362, 2.062e-3
-1.361, 1.993e-3
-1.360, 1.935e-3
-1.359, 1.937e-3
-1.358, 1.888e-3
-1.357, 1.811e-3
-1.356, 1.807e-3
-1.355, 1.793e-3
-1.354, 1.713e-3
-1.353, 1.683e-3
-1.352, 1.685e-3
-1.351, 1.620e-3
-1.350, 1.561e-3
-1.349, 1.563e-3
-1.348, 1.518e-3
-1.347, 1.446e-3
-1.346, 1.443e-3
-1.345, 1.429e-3
-1.344, 1.346e-3
-1.343, 1.314e-3
-1.342, 1.318e-3
-1.341, 1.258e-3
-1.340, 1.206e-3
-1.339, 1.217e-3
-1.338, 1.175e-3
-1.337, 1.107e-3
-1.336, 1.107e-3
-1.335, 1.098e-3
-1.334, 1.025e-3
-1.333, 9.966e-4
-1.332, 1.001e-3
-1.331, 9.365e-4
-1.330, 8.840e-4
-1.329, 8.933e-4
-1.328, 8.591e-4
-1.327, 7.883e-4
-1.326, 7.869e-4
-1.325, 7.799e-4
-1.324, 7.109e-4
-1.323, 6.916e-4
-1.322, 7.028e-4
-1.321, 6.458e-4
-1.320, 6.000e-4
-1.319, 6.159e-4
-1.318, 5.819e-4
-1.317, 5.162e-4
-1.316, 5.187e-4
-1.315, 5.144e-4
-1.314, 4.444e-4
-1.313, 4.245e-4
-1.312, 4.373e-4
-1.311, 3.840e-4
-1.310, 3.384e-4
-1.309, 3.565e-4
-1.308, 3.243e-4
-1.307, 2.628e-4
-1.306, 2.690e-4
-1.305, 2.663e-4
-1.304, 2.015e-4
-1.303, 1.852e-4
-1.302, 2.013e-4
-1.301, 1.491e-4
-1.300, 1.072e-4
-1.299, 1.270e-4
-1.298, 9.988e-5
-1.297, 4.099e-5
-1.296, 5.082e-5
-1.295, 4.929e-5
-1.294, -1.290e-5
-1.293, -2.556e-5
-1.292, -7.273e-6
-1.291, -5.670e-5
-1.290, -9.524e-5
-1.289, -7.205e-5
-1.288, -9.698e-5
-1.287, -1.522e-4
-1.286, -1.410e-4
-1.285, -1.380e-4
-1.284, -1.980e-4
-1.283, -2.076e-4
-1.282, -1.875e-4
-1.281, -2.343e-4
-1.280, -2.719e-4
-1.279, -2.446e-4
-1.278, -2.687e-4
-1.277, -3.210e-4
-1.276, -3.056e-4
-1.275, -3.008e-4
-1.274, -3.584e-4
-1.273, -3.659e-4
-1.272, -3.408e-4
-1.271, -3.847e-4
-1.270, -4.163e-4
-1.269, -3.883e-4
-1.268, -4.101e-4
-1.267, -4.607e-4
-1.266, -4.420e-4
-1.265, -4.366e-4
-1.264, -4.932e-4
-1.263, -4.990e-4
-1.262, -4.717e-4
-1.261, -5.146e-4
-1.260, -5.443e-4
-1.259, -5.104e-4
-1.258, -5.291e-4
-1.257, -5.758e-4
-1.256, -5.550e-4
-1.255, -5.470e-4
-1.254, -6.012e-4
-1.253, -6.021e-4
-1.252, -5.758e-4
-1.251, -6.152e-4
-1.250, -6.424e-4
-1.249, -6.089e-4
-1.248, -6.286e-4
-1.247, -6.768e-4
-1.246, -6.541e-4
-1.245, -6.437e-4
-1.244, -6.936e-4
-1.243, -6.920e-4
-1.242, -6.602e-4
-1.241, -7.008e-4
-1.240, -7.271e-4
-1.239, -6.918e-4
-1.238, -7.072e-4
-1.237, -7.542e-4
-1.236, -7.291e-4
-1.235, -7.162e-4
-1.234, -7.665e-4
-1.233, -7.643e-4
-1.232, -7.293e-4
-1.231, -7.676e-4
-1.230, -7.925e-4
-1.229, -7.569e-4
-1.228, -7.725e-4
-1.227, -8.164e-4
-1.226, -7.918e-4
-1.225, -7.792e-4
-1.224, -8.281e-4
-1.223, -8.241e-4
-1.222, -7.905e-4
-1.221, -8.252e-4
-1.220, -8.497e-4
-1.219, -8.099e-4
-1.218, -8.230e-4
-1.217, -8.671e-4
-1.216, -8.409e-4
-1.215, -8.260e-4
-1.214, -8.736e-4
-1.213, -8.687e-4
-1.212, -8.332e-4
-1.211, -8.670e-4
-1.210, -8.892e-4
-1.209, -8.502e-4
-1.208, -8.628e-4
-1.207, -9.043e-4
-1.206, -8.744e-4
-1.205, -8.589e-4
-1.204, -9.045e-4
-1.203, -8.981e-4
-1.202, -8.635e-4
-1.201, -8.983e-4
-1.200, -9.167e-4
-1.199, -8.756e-4
-1.198, -8.925e-4
-1.197, -9.426e-4
-1.196, -9.055e-4
-1.195, -8.867e-4
-1.194, -9.357e-4
-1.193, -9.332e-4
-1.192, -8.965e-4
-1.191, -9.263e-4
-1.190, -9.437e-4
-1.189, -9.013e-4
-1.188, -9.157e-4
-1.187, -9.562e-4
-1.186, -9.260e-4
-1.185, -9.103e-4
-1.184, -9.540e-4
-1.183, -9.466e-4
-1.182, -9.087e-4
-1.181, -9.441e-4
-1.180, -9.643e-4
-1.179, -9.224e-4
-1.178, -9.355e-4
-1.177, -9.753e-4
-1.176, -9.431e-4
-1.175, -9.267e-4
-1.174, -9.701e-4
-1.173, -9.608e-4
-1.172, -9.256e-4
-1.171, -9.601e-4
-1.170, -9.802e-4
-1.169, -9.372e-4
-1.168, -9.481e-4
-1.167, -9.853e-4
-1.166, -9.532e-4
-1.165, -9.357e-4
-1.164, -9.812e-4
-1.163, -9.722e-4
-1.162, -9.369e-4
-1.161, -9.690e-4
-1.160, -9.879e-4
-1.159, -9.451e-4
-1.158, -9.584e-4
-1.157, -9.985e-4
-1.156, -9.640e-4
-1.155, -9.516e-4
-1.154, -9.984e-4
-1.153, -9.892e-4
-1.152, -9.522e-4
-1.151, -9.815e-4
-1.150, -9.960e-4
-1.149, -9.535e-4
-1.148, -9.662e-4
-1.147, -1.007e-3
-1.146, -9.746e-4
-1.145, -9.632e-4
-1.144, -1.009e-3
-1.143, -9.977e-4
-1.142, -9.639e-4
-1.141, -9.974e-4
-1.140, -1.016e-3
-1.139, -9.721e-4
-1.138, -9.839e-4
-1.137, -1.023e-3
-1.136, -9.916e-4
-1.135, -9.767e-4
-1.134, -1.023e-3
-1.133, -1.013e-3
-1.132, -9.787e-4
-1.131, -1.016e-3
-1.130, -1.034e-3
-1.129, -9.891e-4
-1.128, -9.988e-4
-1.127, -1.041e-3
-1.126, -1.008e-3
-1.125, -9.920e-4
-1.124, -1.040e-3
-1.123, -1.030e-3
-1.122, -9.970e-4
-1.121, -1.035e-3
-1.120, -1.051e-3
-1.119, -1.007e-3
-1.118, -1.018e-3
-1.117, -1.056e-3
-1.116, -1.026e-3
-1.115, -1.013e-3
-1.114, -1.061e-3
-1.113, -1.052e-3
-1.112, -1.018e-3
-1.111, -1.053e-3
-1.110, -1.071e-3
-1.109, -1.029e-3
-1.108, -1.043e-3
-1.107, -1.080e-3
-1.106, -1.050e-3
-1.105, -1.040e-3
-1.104, -1.088e-3
-1.103, -1.079e-3
-1.102, -1.046e-3
-1.101, -1.082e-3
-1.100, -1.101e-3
-1.099, -1.062e-3
-1.098, -1.076e-3
-1.097, -1.117e-3
-1.096, -1.087e-3
-1.095, -1.073e-3
-1.094, -1.120e-3
-1.093, -1.113e-3
-1.092, -1.081e-3
-1.091, -1.120e-3
-1.090, -1.140e-3
-1.089, -1.101e-3
-1.088, -1.118e-3
-1.087, -1.159e-3
-1.086, -1.132e-3
-1.085, -1.118e-3
-1.084, -1.166e-3
-1.083, -1.160e-3
-1.082, -1.131e-3
-1.081, -1.171e-3
-1.080, -1.191e-3
-1.079, -1.154e-3
-1.078, -1.173e-3
-1.077, -1.214e-3
-1.076, -1.184e-3
-1.075, -1.174e-3
-1.074, -1.224e-3
-1.073, -1.220e-3
-1.072, -1.189e-3
-1.071, -1.230e-3
-1.070, -1.260e-3
-1.069, -1.221e-3
-1.068, -1.237e-3
-1.067, -1.283e-3
-1.066, -1.256e-3
-1.065, -1.242e-3
-1.064, -1.294e-3
-1.063, -1.292e-3
-1.062, -1.263e-3
-1.061, -1.303e-3
-1.060, -1.323e-3
-1.059, -1.290e-3
-1.058, -1.313e-3
-1.057, -1.356e-3
-1.056, -1.333e-3
-1.055, -1.328e-3
-1.054, -1.380e-3
-1.053, -1.375e-3
-1.052, -1.350e-3
-1.051, -1.393e-3
-1.050, -1.417e-3
-1.049, -1.380e-3
-1.048, -1.400e-3
-1.047, -1.446e-3
-1.046, -1.420e-3
-1.045, -1.415e-3
-1.044, -1.469e-3
-1.043, -1.469e-3
-1.042, -1.444e-3
-1.041, -1.488e-3
-1.040, -1.511e-3
-1.039, -1.475e-3
-1.038, -1.497e-3
-1.037, -1.541e-3
-1.036, -1.517e-3
-1.035, -1.514e-3
-1.034, -1.572e-3
-1.033, -1.575e-3
-1.032, -1.549e-3
-1.031, -1.592e-3
-1.030, -1.621e-3
-1.029, -1.587e-3
-1.028, -1.609e-3
-1.027, -1.653e-3
-1.026, -1.630e-3
-1.025, -1.628e-3
-1.024, -1.685e-3
-1.023, -1.685e-3
-1.022, -1.669e-3
-1.021, -1.716e-3
-1.020, -1.743e-3
-1.019, -1.708e-3
-1.018, -1.729e-3
-1.017, -1.776e-3
-1.016, -1.752e-3
-1.015, -1.753e-3
-1.014, -1.810e-3
-1.013, -1.811e-3
-1.012, -1.791e-3
-1.011, -1.839e-3
-1.010, -1.867e-3
-1.009, -1.836e-3
-1.008, -1.861e-3
-1.007, -1.910e-3
-1.006, -1.891e-3
-1.005, -1.893e-3
-1.004, -1.954e-3
-1.003, -1.954e-3
-1.002, -1.931e-3
-1.001, -1.975e-3
