Potential V vs RHE, Current mA cm-2
0.013299999999999867,-0.5255652478998613
0.012299999999999978,-1.3543031273607997
0.011299999999999866,-1.8773218949209036
0.010299999999999976,-2.2706116362833835
0.009299999999999864,-2.618630616050183
0.008299999999999974,-2.8803522065252145
0.007299999999999862,-3.0996324580042955
0.006299999999999972,-3.317497998183511
0.00529999999999986,-3.623075638954359
0.0042999999999999705,-3.840941179133574
0.0032999999999998586,-3.971094618721158
0.0022999999999999687,-4.3205283097878215
0.0012999999999998568,-4.450681749375406
0.00029999999999996696,-4.668547289554621
-0.000700000000000145,-4.887827541033701
-0.0017000000000000348,-5.017980980621284
-0.0027000000000001467,-5.235846520800501
-0.0037000000000000366,-5.411270721983764
-0.0047000000000001485,-5.585280211867165
-0.005700000000000038,-5.715433651454749
-0.00670000000000015,-5.9347139029338285
-0.00770000000000004,-6.064867342521412
-0.008700000000000152,-6.238876832404812
-0.009700000000000042,-6.458157083883892
-0.010700000000000154,-6.588310523471475
-0.011700000000000044,-6.719878674358924
-0.012700000000000156,-6.981600264833956
-0.013700000000000045,-7.067897654125724
-0.014700000000000157,-7.243321855308987
-0.015700000000000047,-7.37347529489657
-0.01670000000000016,-7.461187395488204
-0.01770000000000005,-7.635196885371603
-0.01870000000000016,-7.722908985963235
-0.01970000000000005,-7.7653503249591855
-0.020700000000000163,-7.853062425550818
-0.021700000000000053,-7.984630576438266
-0.022700000000000164,-7.984630576438266
-0.023700000000000054,-8.027071915434218
-0.024700000000000166,-8.158640066321666
-0.025700000000000056,-8.158640066321666
-0.026700000000000168,-8.202496116617484
-0.027700000000000058,-8.332649556205066
-0.02870000000000017,-8.332649556205066
-0.02970000000000006,-8.4203616567967
-0.03070000000000017,-8.464217707092514
-0.03170000000000006,-8.508073757388331
-0.03270000000000017,-8.594371146680096
-0.03370000000000006,-8.594371146680096
-0.034700000000000175,-8.638227196975913
-0.035700000000000065,-8.638227196975913
-0.03670000000000018,-8.725939297567548
-0.03770000000000007,-8.68208324727173
-0.03870000000000018,-8.68208324727173
-0.03970000000000007,-8.725939297567548
-0.04070000000000018,-8.769795347863363
-0.04170000000000007,-8.769795347863363
-0.04270000000000018,-8.85609273715513
-0.04370000000000007,-8.899948787450944
-0.044700000000000184,-8.943804837746763
-0.045700000000000074,-8.943804837746763
-0.046700000000000186,-8.987660888042578
-0.047700000000000076,-9.031516938338395
-0.04870000000000019,-9.031516938338395
-0.04970000000000008,-9.031516938338395
-0.05070000000000019,-9.073958277334345
-0.05170000000000008,-9.073958277334345
-0.05270000000000019,-9.11781432763016
-0.05370000000000008,-9.073958277334345
-0.05470000000000019,-9.161670377925978
-0.05570000000000008,-9.11781432763016
-0.056700000000000195,-9.11781432763016
-0.057700000000000085,-9.205526428221793
-0.058700000000000196,-9.205526428221793
-0.059700000000000086,-9.293238528813426
-0.0607000000000002,-9.293238528813426
-0.06170000000000009,-9.335679867809377
-0.0627000000000002,-9.423391968401008
-0.06370000000000009,-9.423391968401008
-0.0647000000000002,-9.467248018696827
-0.06570000000000009,-9.467248018696827
-0.0667000000000002,-9.511104068992642
-0.0677000000000001,-9.511104068992642
-0.0687000000000002,-9.511104068992642
-0.0697000000000001,-9.55496011928846
-0.07070000000000021,-9.59740145828441
-0.0717000000000001,-9.59740145828441
-0.07270000000000021,-9.641257508580225
-0.0737000000000001,-9.728969609171857
-0.07470000000000021,-9.772825659467674
-0.0757000000000001,-9.772825659467674
-0.07670000000000021,-9.81668170976349
-0.0777000000000001,-9.85912304875944
-0.07870000000000021,-9.85912304875944
-0.0797000000000001,-9.85912304875944
-0.08070000000000022,-9.85912304875944
-0.0817000000000001,-9.85912304875944
-0.08270000000000022,-9.81668170976349
-0.08370000000000011,-9.81668170976349
-0.08470000000000022,-9.81668170976349
-0.08570000000000011,-9.85912304875944
-0.08670000000000022,-9.81668170976349
-0.08770000000000011,-9.902979099055257
-0.08870000000000022,-9.946835149351072
-0.08970000000000011,-9.946835149351072
-0.09070000000000022,-9.946835149351072
-0.09170000000000011,-9.946835149351072
-0.09270000000000023,-9.99069119964689
-0.09370000000000012,-9.99069119964689
-0.09470000000000023,-9.99069119964689
-0.09570000000000012,-9.99069119964689
-0.09670000000000023,-10.034547249942705
-0.09770000000000012,-9.99069119964689
-0.09870000000000023,-9.99069119964689
-0.09970000000000012,-9.99069119964689
-0.10070000000000023,-10.034547249942705
-0.10170000000000012,-9.99069119964689
-0.10270000000000024,-10.078403300238522
-0.10370000000000013,-10.120844639234473
-0.10470000000000024,-10.164700689530287
-0.10570000000000013,-10.164700689530287
-0.10670000000000024,-10.164700689530287
-0.10770000000000013,-10.208556739826104
-0.10870000000000024,-10.25241279012192
-0.10970000000000013,-10.208556739826104
-0.11070000000000024,-10.25241279012192
-0.11170000000000013,-10.296268840417738
-0.11270000000000002,-10.208556739826104
-0.11370000000000013,-10.25241279012192
-0.11470000000000002,-10.25241279012192
-0.11570000000000014,-10.296268840417738
-0.11670000000000003,-10.25241279012192
-0.11770000000000014,-10.340124890713554
-0.11870000000000003,-10.340124890713554
-0.11970000000000014,-10.382566229709504
-0.12070000000000003,-10.42642228000532
-0.12170000000000014,-10.470278330301136
-0.12270000000000003,-10.470278330301136
-0.12370000000000014,-10.514134380596953
-0.12470000000000003,-10.514134380596953
-0.12570000000000014,-10.514134380596953
-0.12670000000000003,-10.601846481188586
-0.12770000000000015,-10.557990430892769
-0.12870000000000004,-10.601846481188586
-0.12970000000000015,-10.601846481188586
-0.13070000000000004,-10.644287820184536
-0.13170000000000015,-10.644287820184536
-0.13270000000000004,-10.731999920776168
-0.13370000000000015,-10.775855971071984
-0.13470000000000004,-10.819712021367803
-0.13570000000000015,-10.819712021367803
-0.13670000000000004,-10.863568071663616
-0.13770000000000016,-10.863568071663616
-0.13870000000000005,-10.906009410659568
-0.13970000000000016,-10.949865460955383
-0.14070000000000005,-10.993721511251199
-0.14170000000000016,-11.037577561547016
-0.14270000000000005,-10.993721511251199
-0.14370000000000016,-11.037577561547016
-0.14470000000000005,-11.037577561547016
-0.14570000000000016,-11.081433611842833
-0.14670000000000005,-11.037577561547016
-0.14770000000000016,-11.123874950838783
-0.14870000000000005,-11.1677310011346
-0.14970000000000017,-11.255443101726232
-0.15070000000000006,-11.211587051430415
-0.15170000000000017,-11.299299152022046
-0.15270000000000006,-11.299299152022046
-0.15370000000000017,-11.343155202317865
-0.15470000000000006,-11.385596541313816
-0.15570000000000017,-11.42945259160963
-0.15670000000000006,-11.42945259160963
-0.15770000000000017,-11.42945259160963
-0.15870000000000006,-11.473308641905447
-0.15970000000000018,-11.473308641905447
-0.16070000000000007,-11.56102074249708
-0.16170000000000018,-11.517164692201263
-0.16270000000000007,-11.604876792792895
-0.16370000000000018,-11.647318131788847
-0.16470000000000007,-11.73503023238048
-0.16570000000000018,-11.778886282676295
-0.16670000000000007,-11.82274233297211
-0.16770000000000018,-11.82274233297211
-0.16870000000000007,-11.86659838326793
-0.16970000000000018,-11.909039722263879
-0.17070000000000007,-11.952895772559694
-0.17170000000000019,-11.996751822855511
-0.17270000000000008,-12.040607873151327
-0.1737000000000002,-12.040607873151327
-0.17470000000000008,-12.084463923447142
-0.1757000000000002,-12.170761312738911
-0.17670000000000008,-12.170761312738911
-0.1777000000000002,-12.258473413330542
-0.17870000000000008,-12.302329463626359
-0.1797000000000002,-12.390041564217992
-0.18070000000000008,-12.432482903213943
-0.1817000000000002,-12.476338953509758
-0.18270000000000008,-12.56405105410139
-0.1837000000000002,-12.607907104397206
-0.1847000000000001,-12.694204493688973
-0.1857000000000002,-12.73806054398479
-0.1867000000000001,-12.781916594280606
-0.1877000000000002,-12.825772644576423
-0.1887000000000001,-12.869628694872238
-0.1897000000000002,-12.913484745168056
-0.1907000000000001,-12.99978213445982
-0.1917000000000001,-13.043638184755638
-0.19269999999999998,-13.175206335643086
-0.1937000000000001,-13.261503724934855
-0.19469999999999998,-13.30535977523067
-0.1957000000000001,-13.3930718758223
-0.19669999999999999,-13.523225315409885
-0.1977000000000001,-13.567081365705702
-0.1987,-13.654793466297335
-0.1997000000000001,-13.741090855589102
-0.2007,-13.784946905884919
-0.2017000000000001,-13.916515056772363
-0.2027,-13.960371107068182
-0.2037000000000001,-14.046668496359947
-0.2047,-14.13438059695158
-0.2057000000000001,-14.217848563643619
-0.2067,-14.26028990263957
-0.2077000000000001,-14.486643710617974
-0.2087,-14.57152638860988
-0.2097000000000001,-14.69885040559773
-0.2107,-14.783733083589633
-0.2117000000000001,-14.925204213576137
-0.2127,-15.05252823056399
-0.2137000000000001,-15.179852247551842
-0.2147,-15.307176264539699
-0.2157000000000001,-15.491088733522153
-0.2167,-15.618412750510005
-0.21770000000000012,-15.660854089505953
-0.2187,-15.78817810649381
-0.21970000000000012,-15.972090575476265
-0.2207,-16.099414592464115
-0.22170000000000012,-16.22673860945197
-0.2227,-16.438945304431726
-0.22370000000000012,-16.622857773414182
-0.2247,-16.792623129397985
-0.22570000000000012,-17.018976937376394
-0.2267,-17.188742293360193
-0.22770000000000012,-17.40094898833995
-0.22870000000000001,-17.627302796318357
-0.22970000000000013,-17.881950830294063
-0.23070000000000002,-18.15074597726842
-0.23170000000000013,-18.40539401124413
-0.23270000000000002,-18.589306480226583
-0.23370000000000013,-18.80151317520634
-0.23470000000000002,-19.056161209182044
-0.23570000000000013,-19.2400736781645
-0.23670000000000002,-19.409839034148305
-0.2376999999999999,-19.678634181122664
-0.23870000000000002,-19.848399537106463
-0.2396999999999999,-20.159636023076775
-0.24070000000000003,-20.329401379060574
-0.24169999999999991,-20.541608074040333
-0.24270000000000003,-20.76796188201874
-0.24369999999999992,-21.065051254990397
-0.24470000000000003,-21.333846401964752
-0.24569999999999992,-21.63093577493641
-0.24670000000000003,-21.857289582914817
-0.24769999999999992,-22.15437895588647
-0.24870000000000003,-22.42317410286083
-0.24969999999999992,-22.776851927827092
-0.25070000000000003,-23.073941300798747
-0.2516999999999999,-23.385177786769056
-0.25270000000000004,-23.767149837732617
-0.2536999999999999,-24.16326900169483
-0.25470000000000004,-24.601829504652986
-0.2556999999999999,-24.997948668615198
-0.25670000000000004,-25.39406783257741
-0.25769999999999993,-25.77603988354097
-0.25870000000000004,-26.21460038649913
-0.25969999999999993,-26.69560222845324
-0.26070000000000004,-27.176604070407354
-0.26169999999999993,-27.615164573365515
-0.26270000000000004,-28.13860775431558
-0.26369999999999993,-28.577168257273744
-0.26470000000000005,-29.14305277721976
-0.26569999999999994,-29.66649595816982
-0.26670000000000005,-30.147497800123933
-0.26769999999999994,-30.79826499806185
-0.26870000000000005,-31.36414951800786
-0.26969999999999994,-32.01491671594578
-0.27070000000000005,-32.58080123589179
-0.27169999999999994,-33.231568433829715
-0.27270000000000005,-33.89648274476628
-0.27369999999999994,-34.58969128170015
-0.27470000000000006,-35.282899818634014
-0.27569999999999995,-35.99025546856653
-0.27670000000000006,-36.725905344496354
-0.27769999999999995,-37.41911388143023
-0.27870000000000006,-38.16891087035869
-0.27969999999999995,-38.98944342428042
-0.28070000000000006,-39.739240413208876
-0.28169999999999995,-40.4748902891387
-0.28270000000000006,-41.39445263405098
-0.28369999999999995,-42.2715736399673
-0.28470000000000006,-43.09210619388902
-0.28569999999999995,-43.96922719980534
-0.28670000000000007,-44.88878954471762
-0.28769999999999996,-45.79420477663124
-0.28870000000000007,-46.75620846053947
-0.28969999999999996,-47.71821214444768
-0.29070000000000007,-48.59533315036401
-0.29169999999999996,-49.557336834272235
-0.29270000000000007,-50.42031072718991
-0.29369999999999996,-51.29743173310623
-0.2947000000000001,-52.30187675601041
-0.29569999999999996,-53.22143910092268
-0.2967000000000001,-54.1268543328363
-0.29769999999999996,-55.25862337272834
-0.2987000000000001,-56.26306839563251
-0.29969999999999997,-57.30995475753264
-0.3007000000000001,-58.31439978043681
-0.30169999999999997,-59.36128614233694
-0.3027000000000001,-60.40817250423707
-0.30369999999999997,-61.412617527141244
-0.3047000000000001,-62.459503889041365
-0.30569999999999997,-63.421507572949594
-0.3067000000000001,-64.51083527384567
-0.3077,-65.4728389577539
-0.3087000000000001,-66.43484264166212
-0.3097,-67.48172900356225
-0.3107000000000001,-68.44373268747047
-0.3117,-69.3491479193841
-0.3127000000000001,-70.48091695927613
-0.3137,-71.48536198218031
-0.3147000000000001,-72.48980700508447
-0.3157,-73.49425202798865
-0.3167000000000001,-74.49869705089283
-0.3177,-75.50314207379701
-0.3187000000000001,-76.50758709670117
-0.3197,-77.46959078060941
-0.3207000000000001,-78.47403580351359
-0.3217,-79.47848082641775
-0.3227000000000001,-80.38389605833139
-0.3237,-81.3458997422396
-0.3247000000000001,-82.39278610413973
-0.3257,-83.26990711005605
-0.3267000000000001,-84.23191079396429
-0.3277,-85.23635581686847
-0.3287000000000001,-86.18421238777805
-0.3297,-87.18865741068221
-0.3307000000000001,-88.10821975559449
-0.3317,-89.07022343950271
-0.3327000000000001,-90.03222712341093
-0.3337,-90.93764235532454
-0.3347000000000001,-91.94208737822873
-0.3357,-92.86164972314101
-0.3367000000000001,-93.82365340704924
-0.3377,-94.7432157519615
-0.3387000000000001,-95.74766077486568
-0.3397,-96.79454713676581
-0.3407000000000001,-97.74240370767538
-0.3417,-98.7892900695755
-0.3427000000000001,-99.93520622246619
-0.3437,-101.02453392336226
-0.3447000000000001,-102.1563029632543
-0.3457,-103.28807200314633
-0.3467000000000001,-104.41984104303836
-0.3477,-105.59405142192634
-0.3487000000000001,-106.68337912282242
-0.3497,-107.87173661470905
-0.3507000000000001,-109.04594699359701
-0.3517,-110.22015737248502
-0.3527000000000001,-111.394367751373
-0.3537,-112.66760792125153
-0.3547000000000001,-114.0115836561233
-0.3557,-115.15749980901398
-0.35670000000000013,-116.28926884890602
-0.3577,-117.54836190578591
-0.35870000000000013,-118.76501362366983
-0.3597,-120.03825379354835
-0.36070000000000013,-121.17002283344038
-0.3617,-122.42911589032028
-0.3626999999999999,-123.74479739919475
-0.3637,-124.91900777808273
-0.3646999999999999,-126.27713062595316
-0.3657,-127.53622368283307
-0.3666999999999999,-128.752875400717
-0.3677,-129.89879155360765
-0.3686999999999999,-131.03056059349967
-0.36970000000000003,-132.16232963339172
-0.3706999999999999,-133.2516573342878
-0.37170000000000003,-134.34098503518388
-0.3726999999999999,-135.51519541407185
-0.37370000000000003,-136.70355290595847
-0.3746999999999999,-137.79288060685457
-0.37570000000000003,-138.8397669687547
-0.3766999999999999,-139.8866533306548
-0.37770000000000004,-140.9759810315509
-0.3786999999999999,-142.03701450644968
-0.37970000000000004,-143.16878354634173
-0.3806999999999999,-144.15908145624724
-0.38170000000000004,-145.43232162612577
-0.38269999999999993,-147.27144631595033
-0.38370000000000004,-149.1105710057749
-0.38469999999999993,-150.1008689156804
-0.38570000000000004,-150.94969569559944
-0.38669999999999993,-150.8082245656129
-0.38570000000000004,-148.82762874580186
-0.38469999999999993,-147.27144631595033
-0.38370000000000004,-145.7152638860988
-0.38269999999999993,-144.44202371622026
-0.38170000000000004,-143.0273124163552
-0.3806999999999999,-141.75407224647665
-0.37970000000000004,-140.41009651160488
-0.3786999999999999,-139.09441500273041
-0.37770000000000004,-137.75043926785864
-0.3766999999999999,-136.43475775898415
-0.37570000000000003,-135.1332233631083
-0.3746999999999999,-133.73265917624192
-0.37370000000000003,-132.47356611936203
-0.3726999999999999,-131.15788461048754
-0.37170000000000003,-129.7148790846252
-0.3706999999999999,-128.5831100447332
-0.36970000000000003,-127.28157564885734
-0.3686999999999999,-126.00833547897882
-0.3677,-124.74924242209892
-0.3666999999999999,-123.43356091322445
-0.3657,-122.25935053433648
-0.3646999999999999,-121.00025747745659
-0.3637,-119.769458646574
-0.3626999999999999,-118.51036558969413
-0.3617,-117.33615521080614
-0.36070000000000013,-116.02047370193165
-0.3597,-114.76138064505177
-0.35870000000000013,-113.58717026616378
-0.3577,-112.27148875728932
-0.35670000000000013,-111.09727837840134
-0.3557,-109.9655093385093
-0.3547000000000001,-108.77715184662266
-0.3537,-107.6029414677347
-0.3527000000000001,-106.47117242784265
-0.3517,-105.33940338795064
-0.3507000000000001,-104.25007568705455
-0.3497,-103.07586530816658
-0.3487000000000001,-101.92994915527588
-0.3477,-100.88306279337576
-0.3467000000000001,-99.83617643147564
-0.3457,-98.66196605258766
-0.3447000000000001,-97.57263835169158
-0.3437,-96.5681933287874
-0.3427000000000001,-95.43642428889537
-0.3417,-94.38953792699526
-0.3407000000000001,-93.46997558208298
-0.3397,-92.4655305591788
-0.3387000000000001,-91.46108553627462
-0.3377,-90.47078762636909
-0.3367000000000001,-89.42390126446898
-0.3357,-88.46189758056073
-0.3347000000000001,-87.41501121866061
-0.3337,-86.45300753475239
-0.3327000000000001,-85.49100385084417
-0.3317,-84.48655882793999
-0.3307000000000001,-83.48211380503581
-0.3297,-82.47766878213164
-0.3287000000000001,-81.57225355021802
-0.3277,-80.61024986630979
-0.3267000000000001,-79.64824618240156
-0.3257,-78.8135665154812
-0.3247000000000001,-77.90815128356756
-0.3237,-76.98858893865528
-0.3227000000000001,-76.11146793273898
-0.3217,-75.29093537881725
-0.3207000000000001,-74.41381437290093
-0.3197,-73.49425202798865
-0.3187000000000001,-72.67371947406694
-0.3177,-71.7965984681506
-0.3167000000000001,-71.0043601402262
-0.3157,-70.18382758630447
-0.3147000000000001,-69.39158925838004
-0.3137,-68.65593938245023
-0.3127000000000001,-67.9202895065204
-0.3117,-67.08560983960004
-0.3107000000000001,-66.39240130266617
-0.3097,-65.64260431373769
-0.3087000000000001,-64.94939577680383
-0.3077,-64.25618723986996
-0.3067000000000001,-63.59127292893339
-0.30569999999999997,-62.98294706999144
-0.3047000000000001,-62.28973853305756
-0.30369999999999997,-61.63897133511965
-0.3027000000000001,-60.93161568518713
-0.30169999999999997,-60.32328982624517
-0.3007000000000001,-59.67252262830725
-0.29969999999999997,-58.92272563937878
-0.2987000000000001,-58.31439978043681
-0.29769999999999996,-57.62119124350295
-0.2967000000000001,-56.82895291557852
-0.29569999999999996,-56.22062705663656
-0.2947000000000001,-55.527418519702685
-0.29369999999999996,-54.791768643772876
-0.29270000000000007,-54.08441299384035
-0.29169999999999996,-53.348763117910536
-0.29070000000000007,-52.59896612898206
-0.28969999999999996,-51.86331625305225
-0.28870000000000007,-51.21254905511432
-0.28769999999999996,-50.46275206618586
-0.28670000000000007,-49.76954352925199
-0.28569999999999995,-48.97730520132757
-0.28470000000000006,-48.1992139864018
-0.28369999999999995,-47.506005449467935
-0.28270000000000006,-46.75620846053947
-0.28169999999999995,-46.062999923605595
-0.28070000000000006,-45.497115403659585
-0.27969999999999995,-44.80390686672572
-0.27870000000000006,-44.096551216793195
-0.27769999999999995,-43.44578401885527
-0.27670000000000006,-42.752575481921404
-0.27569999999999995,-42.087661170984845
-0.27470000000000006,-41.39445263405098
-0.27369999999999994,-40.743685436113054
-0.27270000000000005,-40.03632978618054
-0.27169999999999994,-39.42800392723857
-0.27070000000000005,-38.734795390304704
-0.26969999999999994,-38.08402819236679
-0.26870000000000005,-37.47570233342482
-0.26769999999999994,-36.8532293614842
-0.26670000000000005,-36.20246216354629
-0.26569999999999994,-35.721460321592176
