Potential V vs RHE, Current mA cm-2
0.4132999999999999,-0.010516963803196683
0.4122999999999999,-0.012351844359121636
0.4112999999999999,-0.012769184192581821
0.4102999999999999,-0.012967243774562928
0.4092999999999999,-0.013138423841846596
0.4082999999999999,-0.01326291843623472
0.4072999999999999,-0.013405804277521088
0.4062999999999999,-0.013496345800712453
0.4052999999999999,-0.013592546169103272
0.4042999999999999,-0.013687331826194232
0.4032999999999999,-0.013766555658986672
0.4022999999999999,-0.013848608914378845
0.4012999999999999,-0.013944809282769666
0.4002999999999999,-0.01400705657996373
0.3992999999999999,-0.014124477617852528
0.3982999999999999,-0.014203701450644968
0.3972999999999999,-0.01426028990263957
0.3962999999999999,-0.014345172580631472
0.3952999999999999,-0.014401761032626074
0.3942999999999999,-0.014472496597619325
0.39329999999999987,-0.014514937936615275
0.39229999999999987,-0.014585673501608528
0.39129999999999987,-0.01465640906660178
0.39029999999999987,-0.01469885040559773
0.38929999999999987,-0.014755438857592333
0.38829999999999987,-0.014826174422585584
0.38729999999999987,-0.014896909987578835
0.38629999999999987,-0.014953498439573438
0.38529999999999986,-0.015024234004566688
0.38429999999999986,-0.015066675343562642
0.38329999999999986,-0.015137410908555892
0.38229999999999986,-0.015193999360550494
0.38129999999999986,-0.015236440699546445
0.38029999999999986,-0.015293029151541045
0.37929999999999986,-0.015335470490536997
0.37829999999999986,-0.0153637647165343
0.37729999999999986,-0.015448647394526203
0.37629999999999986,-0.01546279450752485
0.37529999999999986,-0.015505235846520802
0.37429999999999986,-0.015561824298515404
0.37329999999999985,-0.015604265637511355
0.37229999999999985,-0.015703295428501907
0.37129999999999985,-0.015717442541500558
0.37029999999999985,-0.015745736767497857
0.36929999999999985,-0.01581647233249111
0.36829999999999985,-0.01585891367148706
0.36729999999999985,-0.015929649236480315
0.36629999999999985,-0.015943796349478963
0.36529999999999985,-0.01597209057547626
0.36429999999999985,-0.016028679027470863
0.36329999999999985,-0.016056973253468165
0.36229999999999984,-0.01614185593146007
0.36129999999999984,-0.016170150157457368
0.36029999999999984,-0.016212591496453318
0.35929999999999984,-0.016269179948447923
0.35829999999999984,-0.01629747417444522
0.35729999999999984,-0.016368209739438477
0.35629999999999984,-0.016424798191433075
0.35529999999999984,-0.016424798191433075
0.35429999999999984,-0.01648138664342768
0.35329999999999984,-0.01652382798242363
0.35229999999999984,-0.01659456354741688
0.35129999999999983,-0.01660871066041553
0.35029999999999983,-0.01666529911241013
0.34929999999999983,-0.016679446225408782
0.34829999999999983,-0.016750181790402035
0.34729999999999983,-0.01683506446839394
0.34629999999999983,-0.016863358694391237
0.34529999999999983,-0.01687750580738989
0.34429999999999983,-0.01691994714638584
0.3432999999999998,-0.01697653559838044
0.3422999999999998,-0.01703312405037504
0.3412999999999998,-0.01706141827637234
0.3402999999999998,-0.017089712502369642
0.3392999999999998,-0.017132153841365592
0.3382999999999998,-0.017174595180361543
0.3372999999999998,-0.0172453307453548
0.3362999999999998,-0.01728777208435075
0.3352999999999998,-0.01734436053634535
0.3342999999999998,-0.0173868018753413
0.3332999999999998,-0.017400948988339954
0.3322999999999998,-0.017471684553333203
0.3312999999999998,-0.01748583166633185
0.3302999999999998,-0.017556567231325104
0.3292999999999998,-0.017570714344323755
0.3282999999999998,-0.017584861457322406
0.3272999999999998,-0.01765559702231566
0.3262999999999998,-0.01768389124831296
0.3252999999999999,-0.01772633258730891
0.3242999999999999,-0.01776877392630486
0.3232999999999999,-0.017797068152302163
0.3222999999999999,-0.017881950830294063
0.3212999999999999,-0.017910245056291362
0.3202999999999999,-0.017938539282288665
0.3192999999999999,-0.017980980621284618
0.3182999999999999,-0.017980980621284618
0.3172999999999999,-0.018051716186277867
0.3162999999999999,-0.018108304638272472
0.3152999999999999,-0.018108304638272472
0.3142999999999999,-0.01816489309026707
0.3132999999999999,-0.01820733442926302
0.3122999999999999,-0.018249775768258973
0.3112999999999999,-0.018278069994256275
0.3102999999999999,-0.018306364220253574
0.3092999999999999,-0.018362952672248176
0.3082999999999999,-0.018405394011244126
0.3072999999999999,-0.018433688237241428
0.3062999999999999,-0.018461982463238727
0.3052999999999999,-0.01851857091523333
0.3042999999999999,-0.01851857091523333
0.3032999999999999,-0.018603453593225232
0.3022999999999999,-0.018631747819222534
0.3012999999999999,-0.018674189158218484
0.3002999999999999,-0.018702483384215783
0.2992999999999999,-0.018730777610213082
0.2982999999999999,-0.018787366062207687
0.2972999999999999,-0.018843954514202284
0.2962999999999999,-0.01887224874019959
0.2952999999999999,-0.01891469007919554
0.2942999999999999,-0.01891469007919554
0.2932999999999999,-0.018957131418191494
0.2922999999999999,-0.019027866983184743
0.2912999999999999,-0.019056161209182042
0.2902999999999999,-0.019098602548177995
0.2892999999999999,-0.019141043887173945
0.2882999999999999,-0.0191551910001726
0.2872999999999999,-0.01922592656516585
0.2862999999999999,-0.019240073678164497
0.2852999999999999,-0.0192683679041618
0.2842999999999999,-0.019310809243157753
0.2832999999999999,-0.019353250582153703
0.2822999999999999,-0.0194098390341483
0.2812999999999999,-0.019452280373144254
0.2802999999999999,-0.019480574599141553
0.2792999999999999,-0.019523015938137503
0.2782999999999999,-0.019537163051136158
0.2772999999999999,-0.019579604390132108
0.2762999999999999,-0.01963619284212671
0.2752999999999999,-0.01963619284212671
0.2742999999999999,-0.01967863418112266
0.2732999999999999,-0.019721075520118612
0.2722999999999999,-0.019763516859114563
0.2712999999999999,-0.019820105311109164
0.2702999999999999,-0.019848399537106463
0.2692999999999999,-0.019876693763103765
0.26829999999999987,-0.019933282215098366
0.26729999999999987,-0.019989870667092968
0.26629999999999987,-0.02003231200608892
0.26529999999999987,-0.02004645911908757
0.26429999999999987,-0.02007475334508487
0.26329999999999987,-0.020131341797079472
0.26229999999999987,-0.02015963602307677
0.26129999999999987,-0.020216224475071376
0.26029999999999986,-0.020244518701068675
0.25929999999999986,-0.020272812927065977
0.25829999999999986,-0.02032940137906058
0.25729999999999986,-0.020400136944053827
0.25629999999999986,-0.02041428405705248
0.25529999999999986,-0.020470872509047083
0.25429999999999986,-0.020470872509047083
0.25329999999999986,-0.020513313848043033
0.25229999999999986,-0.020598196526034934
0.25129999999999986,-0.020598196526034934
0.25029999999999986,-0.020612343639033585
0.24929999999999986,-0.020640637865030884
0.24829999999999985,-0.020683079204026837
0.24729999999999985,-0.02075381476902009
0.24629999999999985,-0.02075381476902009
0.24529999999999985,-0.020838697447011986
0.24429999999999985,-0.02086699167300929
0.24329999999999985,-0.02088113878600794
0.24229999999999985,-0.020923580125003893
0.24129999999999985,-0.020966021463999843
0.24029999999999985,-0.020994315689997142
0.23929999999999985,-0.021022609915994445
0.23829999999999985,-0.021079198367989046
0.23729999999999984,-0.021107492593986348
0.23629999999999984,-0.021149933932982302
0.23529999999999984,-0.02119237527197825
0.23429999999999984,-0.02122066949797555
0.23329999999999984,-0.02124896372397285
0.23229999999999984,-0.021305552175967454
0.23129999999999984,-0.021347993514963404
0.23029999999999984,-0.021376287740960703
0.22929999999999984,-0.021418729079956657
0.22829999999999984,-0.021475317531951258
0.22729999999999984,-0.02153190598394586
0.22629999999999983,-0.021546053096944507
0.22529999999999983,-0.02157434732294181
0.22429999999999983,-0.02157434732294181
0.22329999999999983,-0.021645082887935062
0.22229999999999983,-0.021687524226931015
0.22129999999999983,-0.021729965565926962
0.22029999999999983,-0.021772406904922915
0.21929999999999983,-0.021800701130920214
0.21829999999999983,-0.021843142469916164
0.21729999999999983,-0.021913878034909417
0.21629999999999983,-0.02194217226090672
0.21529999999999982,-0.022012907825899968
0.21429999999999982,-0.022027054938898623
0.21329999999999982,-0.022069496277894573
0.21229999999999982,-0.022126084729889174
0.21129999999999982,-0.022126084729889174
0.21029999999999982,-0.022168526068885124
0.20929999999999982,-0.022196820294882423
0.20829999999999982,-0.022239261633878377
0.20729999999999982,-0.02232414431187028
0.20629999999999982,-0.02235243853786758
0.20529999999999982,-0.02239487987686353
0.20429999999999982,-0.022437321215859483
0.20329999999999981,-0.022437321215859483
0.2022999999999998,-0.022508056780852735
0.2012999999999998,-0.022536351006850038
0.20029999999999992,-0.022564645232847336
0.19929999999999992,-0.022607086571843286
0.19829999999999992,-0.02264952791083924
0.19729999999999992,-0.02270611636283384
0.19629999999999992,-0.02273441058883114
0.19529999999999992,-0.02277685192782709
0.19429999999999992,-0.02287588171881764
0.19329999999999992,-0.022932470170812246
0.19229999999999992,-0.022946617283810897
0.19129999999999991,-0.022989058622806844
0.1902999999999999,-0.023017352848804146
0.1892999999999999,-0.023045647074801445
0.1882999999999999,-0.02310223552679605
0.1872999999999999,-0.023144676865792004
0.1862999999999999,-0.023172971091789302
0.1852999999999999,-0.023215412430785252
0.1842999999999999,-0.02324370665678255
0.1832999999999999,-0.023300295108777156
0.1822999999999999,-0.023328589334774455
0.1812999999999999,-0.02338517778676906
0.1802999999999999,-0.023427619125765006
0.1792999999999999,-0.023441766238763657
0.1782999999999999,-0.023512501803756906
0.1772999999999999,-0.02354079602975421
0.1762999999999999,-0.023583237368750162
0.1752999999999999,-0.023625678707746112
0.1742999999999999,-0.02365397293374341
0.1732999999999999,-0.023696414272739365
0.1722999999999999,-0.02378129695073127
0.1712999999999999,-0.02378129695073127
0.1702999999999999,-0.023823738289727222
0.1692999999999999,-0.02388032674172182
0.1682999999999999,-0.02393691519371642
0.1672999999999999,-0.02400765075870967
0.1662999999999999,-0.02400765075870967
0.1652999999999999,-0.024064239210704275
0.1642999999999999,-0.024078386323702922
0.1632999999999999,-0.024106680549700225
0.1622999999999999,-0.024191563227692125
0.1612999999999999,-0.024219857453689427
0.1602999999999999,-0.02426229879268538
0.1592999999999999,-0.024318887244679982
0.15829999999999989,-0.02434718147067728
0.15729999999999988,-0.024432064148669184
0.15629999999999988,-0.024488652600663786
0.15529999999999988,-0.024488652600663786
0.15429999999999988,-0.024545241052658383
0.15329999999999988,-0.024601829504652988
0.15229999999999988,-0.024630123730650287
0.15129999999999988,-0.02467256506964624
0.15029999999999988,-0.02471500640864219
0.14929999999999988,-0.024729153521640842
0.14829999999999988,-0.024785741973635443
0.14729999999999988,-0.024856477538628696
0.14629999999999987,-0.024884771764625994
0.14529999999999987,-0.024913065990623297
0.14429999999999987,-0.024927213103621948
0.14329999999999987,-0.025012095781613848
0.14229999999999987,-0.0250828313466071
0.14129999999999987,-0.0251111255726044
0.14029999999999987,-0.02515356691160035
0.13929999999999987,-0.025181861137597652
0.13829999999999987,-0.025238449589592253
0.13729999999999987,-0.025266743815589552
0.13629999999999987,-0.025309185154585506
0.13529999999999986,-0.025365773606580107
0.13429999999999986,-0.025365773606580107
0.13329999999999986,-0.025422362058574708
0.13229999999999986,-0.025507244736566608
0.13129999999999986,-0.025507244736566608
0.13029999999999986,-0.025577980301559864
0.12929999999999986,-0.02562042164055581
0.12829999999999986,-0.025677010092550415
0.12729999999999986,-0.02573359854454502
0.12629999999999986,-0.02576189277054232
0.12529999999999986,-0.02580433410953827
0.12429999999999986,-0.025860922561532867
0.12329999999999985,-0.02587506967453152
0.12229999999999985,-0.025959952352523425
0.12129999999999985,-0.025988246578520724
0.12029999999999985,-0.026016540804518026
0.11929999999999985,-0.026073129256512624
0.11829999999999985,-0.026101423482509926
0.11729999999999985,-0.02620045327350048
0.11629999999999985,-0.02624289461249643
0.11529999999999985,-0.02629948306449103
0.11429999999999985,-0.026341924403486983
0.11329999999999985,-0.026398512855481584
0.11229999999999984,-0.026469248420474833
0.11129999999999984,-0.02649754264647214
0.11029999999999984,-0.02652583687246944
0.10929999999999984,-0.02655413109846674
0.10829999999999984,-0.02661071955046134
0.10729999999999984,-0.02665316088945729
0.10629999999999984,-0.026709749341451892
0.10529999999999984,-0.026752190680447843
0.10429999999999984,-0.026794632019443793
0.10329999999999984,-0.026865367584437045
0.10229999999999984,-0.02692195603643165
0.10129999999999983,-0.02695025026242895
0.10029999999999983,-0.0270209858274222
0.09929999999999983,-0.0270209858274222
0.09829999999999983,-0.02709172139241545
0.09729999999999983,-0.027148309844410055
0.09629999999999983,-0.027176604070407354
0.09529999999999983,-0.02723319252240196
0.09429999999999983,-0.027261486748399254
0.09329999999999983,-0.027332222313392506
0.09229999999999983,-0.02738881076538711
0.09129999999999983,-0.027445399217381712
0.09029999999999982,-0.027487840556377662
0.08929999999999982,-0.027530281895373616
0.08829999999999982,-0.027586870347368214
0.08729999999999982,-0.02762931168636417
0.08629999999999982,-0.02768590013835877
0.08529999999999982,-0.02772834147735472
0.08429999999999982,-0.027784929929349323
0.08329999999999982,-0.027841518381343924
0.08229999999999982,-0.027912253946337173
0.08129999999999982,-0.02796884239833177
0.08029999999999982,-0.027997136624329073
0.07929999999999982,-0.02806787218932233
0.07829999999999981,-0.02813860775431558
0.07729999999999981,-0.028181049093311532
0.07629999999999981,-0.028237637545306133
0.07529999999999992,-0.028265931771303435
0.07429999999999992,-0.028322520223298033
0.07329999999999992,-0.028393255788291286
0.07229999999999992,-0.028449844240285887
0.07129999999999992,-0.02849228557928184
0.07029999999999992,-0.028534726918277787
0.06929999999999992,-0.028591315370272388
0.06829999999999992,-0.028662050935265648
0.06729999999999992,-0.028704492274261594
0.06629999999999991,-0.028775227839254847
0.06529999999999991,-0.028845963404248096
0.06429999999999991,-0.028874257630245398
0.06329999999999991,-0.028973287421235953
0.06229999999999991,-0.029015728760231903
0.06129999999999991,-0.029044022986229205
0.06029999999999991,-0.02912890566422111
0.05929999999999991,-0.029171347003217055
0.05829999999999991,-0.029242082568210308
0.05729999999999991,-0.02931281813320356
0.056299999999999906,-0.02935525947219951
0.055299999999999905,-0.02941184792419411
0.054299999999999904,-0.029440142150191414
0.0532999999999999,-0.029525024828183317
0.0522999999999999,-0.029638201732172516
0.0512999999999999,-0.029652348845171168
0.0502999999999999,-0.02973723152316307
0.0492999999999999,-0.029779672862159025
0.0482999999999999,-0.029836261314153626
0.0472999999999999,-0.029949438218142825
0.0462999999999999,-0.029977732444140127
0.045299999999999896,-0.030034320896134725
0.044299999999999895,-0.03010505646112798
0.043299999999999894,-0.030204086252118532
0.04229999999999989,-0.030303116043109087
0.04129999999999989,-0.030373851608102336
0.04029999999999989,-0.030458734286094236
0.03929999999999989,-0.030487028512091542
0.03829999999999989,-0.030529469851087492
0.03729999999999989,-0.03058605830308209
0.03629999999999989,-0.03065679386807535
0.03529999999999989,-0.030713382320069947
0.034299999999999886,-0.030755823659065897
0.033299999999999885,-0.030840706337057794
0.032299999999999884,-0.030897294789052406
0.031299999999999883,-0.030968030354045658
0.030299999999999883,-0.031010471693041605
0.02929999999999988,-0.031067060145036202
0.02829999999999988,-0.031151942823028106
0.02729999999999988,-0.031222678388021355
0.02629999999999988,-0.03129341395301461
0.025299999999999878,-0.031350002405009215
0.024299999999999877,-0.03137829663100652
0.023299999999999876,-0.03149147353499571
0.022299999999999875,-0.03154806198699031
0.021299999999999875,-0.03160465043898492
0.020299999999999874,-0.03168953311697682
0.019299999999999873,-0.031731974455972776
0.018299999999999872,-0.03181685713396468
0.01729999999999987,-0.031887592698957926
0.01629999999999987,-0.03194418115095252
0.01529999999999987,-0.03204321094194308
0.014299999999999868,-0.032085652280939035
0.013299999999999867,-0.03217053495893094
0.012299999999999978,-0.032255417636922835
0.011299999999999866,-0.03228371186292014
0.010299999999999976,-0.03236859454091204
0.009299999999999864,-0.03243933010590529
0.008299999999999974,-0.032538359896895845
0.007299999999999862,-0.032623242574887745
0.006299999999999972,-0.0326656839138837
0.00529999999999986,-0.03276471370487424
0.0042999999999999705,-0.03279300793087155
0.0032999999999998586,-0.03290618483486075
0.0022999999999999687,-0.032991067512852655
0.0012999999999998568,-0.03304765596484726
0.00029999999999996696,-0.033104244416841865
-0.000700000000000145,-0.03316083286883646
-0.0017000000000000348,-0.03324571554682836
-0.0027000000000001467,-0.033344745337818914
-0.0037000000000000366,-0.03340133378981351
-0.0047000000000001485,-0.03347206935480676
-0.005700000000000038,-0.033542804919800016
-0.00670000000000015,-0.033627687597791917
-0.00770000000000004,-0.033712570275783824
-0.008700000000000152,-0.03376915872777843
-0.009700000000000042,-0.033825747179773026
-0.010700000000000154,-0.03393892408376223
-0.011700000000000044,-0.03402380676175413
-0.012700000000000156,-0.034094542326747385
-0.013700000000000045,-0.03416527789174064
-0.014700000000000157,-0.03422186634373524
-0.015700000000000047,-0.034264307682731185
-0.01670000000000016,-0.03436333747372174
-0.01770000000000005,-0.03443407303871499
-0.01870000000000016,-0.034476514377710946
-0.01970000000000005,-0.034547249942704195
-0.020700000000000163,-0.034617985507697444
-0.021700000000000053,-0.034717015298688
-0.022700000000000164,-0.0347736037506826
-0.023700000000000054,-0.0348301922026772
-0.024700000000000166,-0.034915074880669104
-0.025700000000000056,-0.03495751621966506
-0.026700000000000168,-0.03504239889765696
-0.027700000000000058,-0.03514142868864751
-0.02870000000000017,-0.03515557580164616
-0.02970000000000006,-0.03522631136663941
-0.03070000000000017,-0.035297046931632665
-0.03170000000000006,-0.03536778249662592
-0.03270000000000017,-0.03548095940061512
-0.03370000000000006,-0.035509253626612426
-0.034700000000000175,-0.035579989191605675
-0.035700000000000065,-0.03563657764360027
-0.03670000000000018,-0.03573560743459083
-0.03770000000000007,-0.03580634299958408
-0.03870000000000018,-0.03584878433858003
-0.03970000000000007,-0.03593366701657193
-0.04070000000000018,-0.03600440258156519
-0.04170000000000007,-0.03608928525955708
-0.04270000000000018,-0.03614587371155169
-0.04370000000000007,-0.036230756389543595
-0.044700000000000184,-0.03627319772853954
-0.045700000000000074,-0.03635808040653144
-0.046700000000000186,-0.036457110197522
-0.047700000000000076,-0.036499551536517946
-0.04870000000000019,-0.03655613998851255
-0.04970000000000008,-0.0366268755535058
-0.05070000000000019,-0.0366834640055004
-0.05170000000000008,-0.03675419957049365
-0.05270000000000019,-0.036839082248485554
-0.05370000000000008,-0.036867376474482856
-0.05470000000000019,-0.03693811203947611
-0.05570000000000008,-0.03699470049147071
-0.056700000000000195,-0.03709373028246127
-0.057700000000000085,-0.037150318734455866
-0.058700000000000196,-0.03719276007345181
-0.059700000000000086,-0.03727764275144372
-0.0607000000000002,-0.03733423120343832
-0.06170000000000009,-0.037461555220426164
-0.0627000000000002,-0.037518143672420776
-0.06370000000000009,-0.03753229078541943
-0.0647000000000002,-0.03763132057640997
-0.06570000000000009,-0.03768790902840457
