Potential V vs RHE, Current mA cm-2
0.4132999999999999,-0.005186331625305225
0.4122999999999999,-0.007074971210625048
0.4112999999999999,-0.007527678826581859
0.4102999999999999,-0.007741300232861481
0.4092999999999999,-0.007872868383748928
0.4082999999999999,-0.008014339513735431
0.4072999999999999,-0.008151566509822341
0.4062999999999999,-0.008239278610413974
0.4052999999999999,-0.008348211380503581
0.4042999999999999,-0.008455729439293324
0.4032999999999999,-0.008522220870386982
0.4022999999999999,-0.008638227196975915
0.4012999999999999,-0.00871037747326903
0.4002999999999999,-0.008788186594761608
0.3992999999999999,-0.008868825138853915
0.3982999999999999,-0.008963610795944873
0.3972999999999999,-0.009040005206137586
0.3962999999999999,-0.00911498490503043
0.3952999999999999,-0.009192794026523008
0.3942999999999999,-0.00923523536551896
0.39329999999999987,-0.009325776888710322
0.39229999999999987,-0.009390853608504115
0.39129999999999987,-0.009443197926599119
0.39029999999999987,-0.009491298110794532
0.38929999999999987,-0.009553545407988593
0.38829999999999987,-0.009624280972981845
0.38729999999999987,-0.00968228413627631
0.38629999999999987,-0.009728969609171858
0.38529999999999986,-0.00981385228716376
0.38429999999999986,-0.00984497593576079
0.38329999999999986,-0.009902979099055256
0.38229999999999986,-0.00998503235444743
0.38129999999999986,-0.010014741291744594
0.38029999999999986,-0.010072744455039062
0.37929999999999986,-0.010095379835836903
0.37829999999999986,-0.010177433091229074
0.37729999999999986,-0.010255242212721652
0.37629999999999986,-0.010284951150018817
0.37529999999999986,-0.01034436902461315
0.37429999999999986,-0.010375492673210179
0.37329999999999985,-0.01045754592860235
0.37229999999999985,-0.010501401978898168
0.37129999999999985,-0.010524037359696007
0.37029999999999985,-0.010582040522990473
0.36929999999999985,-0.010648531954084132
0.36829999999999985,-0.010705120406078732
0.36729999999999985,-0.010756050012873873
0.36629999999999985,-0.010780100104971579
0.36529999999999985,-0.010835273845666316
0.36429999999999985,-0.010869226916863078
0.36329999999999985,-0.010908838833259297
0.36229999999999984,-0.010972500841753226
0.36129999999999984,-0.01100220977905039
0.36029999999999984,-0.011065871787544316
0.35929999999999984,-0.011106898415240403
0.35829999999999984,-0.011181878114133249
0.35729999999999984,-0.011208757628830687
0.35629999999999984,-0.011244125411327311
0.35529999999999984,-0.011280907905123802
0.35429999999999984,-0.01133325222321881
0.35329999999999984,-0.011408231922111656
0.35229999999999984,-0.011419549612510575
0.35129999999999983,-0.011488870466203964
0.35029999999999983,-0.01151292055830167
0.34929999999999983,-0.011553947185997754
0.34829999999999983,-0.011647318131788847
0.34729999999999983,-0.011682685914285472
0.34629999999999983,-0.011702491872483584
0.34529999999999983,-0.011752006767978862
0.34429999999999983,-0.011778886282676296
0.3432999999999998,-0.011858110115468737
0.3422999999999998,-0.011894892609265227
0.3412999999999998,-0.011917527990063069
0.3402999999999998,-0.011981189998556995
0.3392999999999998,-0.012000995956755106
0.3382999999999998,-0.012051925563550248
0.3372999999999998,-0.012090122768646605
0.3362999999999998,-0.012124075839843365
0.3352999999999998,-0.01219905553873621
0.3342999999999998,-0.012207543806535402
0.3332999999999998,-0.012281108794128383
0.3322999999999998,-0.012351844359121636
0.3312999999999998,-0.012368820894720016
0.3302999999999998,-0.012433897614513807
0.3292999999999998,-0.012484827221308949
0.3282999999999998,-0.012528683271604767
0.3272999999999998,-0.012573954033200446
0.3262999999999998,-0.012590930568798826
0.3252999999999999,-0.012620639506095991
0.3242999999999999,-0.012672983824190999
0.3232999999999999,-0.012708351606687625
0.3222999999999999,-0.012760695924782631
0.3212999999999999,-0.012796063707279256
0.3202999999999999,-0.012814454954177502
0.3192999999999999,-0.012865384560972644
0.3182999999999999,-0.012897922920869538
0.3172999999999999,-0.012940364259865491
0.3162999999999999,-0.012989879155360765
0.3152999999999999,-0.013001196845759686
0.3142999999999999,-0.013029491071756986
0.3132999999999999,-0.0131058854819497
0.3122999999999999,-0.013132764996647135
0.3112999999999999,-0.01315115624354538
0.3102999999999999,-0.013196427005141061
0.3092999999999999,-0.013238868344137013
0.3082999999999999,-0.0133081891978304
0.3072999999999999,-0.013320921599529186
0.3062999999999999,-0.013369021783724596
0.3052999999999999,-0.013421366101819604
0.3042999999999999,-0.013451075039116769
0.3032999999999999,-0.01351615175891056
0.3022999999999999,-0.01354161656230813
0.3012999999999999,-0.013551519541407186
0.3002999999999999,-0.01360810799340179
0.2992999999999999,-0.01361376683860125
0.2982999999999999,-0.013687331826194232
0.2972999999999999,-0.013729773165190182
0.2962999999999999,-0.013755237968587752
0.2952999999999999,-0.013794849884983973
0.2942999999999999,-0.01383304709008033
0.2932999999999999,-0.013891050253374797
0.2922999999999999,-0.013920759190671962
0.2912999999999999,-0.013913685634172635
0.2902999999999999,-0.013981591776566157
0.2892999999999999,-0.014022618404262242
0.2882999999999999,-0.014063645031958328
0.2872999999999999,-0.014124477617852528
0.2862999999999999,-0.014161260111649017
0.2852999999999999,-0.014217848563643616
0.2842999999999999,-0.01427443701563822
0.2832999999999999,-0.014316878354634173
0.2822999999999999,-0.014331025467632824
0.2812999999999999,-0.014359319693630123
0.2802999999999999,-0.014373466806628774
0.2792999999999999,-0.014430055258623373
0.2782999999999999,-0.014458349484620674
0.2772999999999999,-0.014486643710617976
0.2762999999999999,-0.014514937936615275
0.2752999999999999,-0.014557379275611227
0.2742999999999999,-0.014628114840604478
0.2732999999999999,-0.014670556179600431
0.2722999999999999,-0.01469885040559773
0.2712999999999999,-0.014741291744593682
0.2702999999999999,-0.014755438857592333
0.2692999999999999,-0.014769585970590984
0.26829999999999987,-0.014854468648582884
0.26729999999999987,-0.014868615761581536
0.26629999999999987,-0.014896909987578835
0.26529999999999987,-0.014939351326574786
0.26429999999999987,-0.014967645552572089
0.26329999999999987,-0.01503838111756534
0.26229999999999987,-0.015024234004566688
0.26129999999999987,-0.015066675343562642
0.26029999999999986,-0.015109116682558592
0.25929999999999986,-0.015123263795557243
0.25829999999999986,-0.015179852247551842
0.25729999999999986,-0.015250587812545097
0.25629999999999986,-0.015250587812545097
0.25529999999999986,-0.015293029151541045
0.25429999999999986,-0.015321323377538347
0.25329999999999986,-0.015377911829532949
0.25229999999999986,-0.015420353168528897
0.25129999999999986,-0.01543450028152755
0.25029999999999986,-0.015476941620523503
0.24929999999999986,-0.015491088733522153
0.24829999999999985,-0.015533530072518101
0.24729999999999985,-0.015575971411514053
0.24629999999999985,-0.015590118524512706
0.24529999999999985,-0.015660854089505957
0.24429999999999985,-0.015703295428501907
0.24329999999999985,-0.01573158965449921
0.24229999999999985,-0.015774030993495156
0.24129999999999985,-0.01581647233249111
0.24029999999999985,-0.01581647233249111
0.23929999999999985,-0.015873060784485714
0.23829999999999985,-0.01591550212348166
0.23729999999999984,-0.015929649236480315
0.23629999999999984,-0.015957943462477614
0.23529999999999984,-0.01597209057547626
0.23429999999999984,-0.016028679027470863
0.23329999999999984,-0.016071120366466816
0.23229999999999984,-0.01611356170546277
0.23129999999999984,-0.016127708818461418
0.23029999999999984,-0.01615600304445872
0.22929999999999984,-0.01619844438345467
0.22829999999999984,-0.016283327061446574
0.22729999999999984,-0.016311621287443873
0.22629999999999983,-0.016354062626439823
0.22529999999999983,-0.01638235685243712
0.22429999999999983,-0.016396503965435776
0.22329999999999983,-0.016453092417430374
0.22229999999999983,-0.016453092417430374
0.22129999999999983,-0.016495533756426328
0.22029999999999983,-0.01652382798242363
0.21929999999999983,-0.01656626932141958
0.21829999999999983,-0.01662285777341418
0.21729999999999983,-0.01666529911241013
0.21629999999999983,-0.016679446225408782
0.21529999999999982,-0.01673603467740338
0.21429999999999982,-0.016764328903400686
0.21329999999999982,-0.016820917355395284
0.21229999999999982,-0.01683506446839394
0.21129999999999982,-0.016863358694391237
0.21029999999999982,-0.016891652920388536
0.20929999999999982,-0.016948241372383138
0.20829999999999982,-0.01697653559838044
0.20729999999999982,-0.01703312405037504
0.20629999999999982,-0.01706141827637234
0.20529999999999982,-0.017075565389370995
0.20429999999999982,-0.017132153841365592
0.20329999999999981,-0.017160448067362895
0.2022999999999998,-0.017202889406358845
0.2012999999999998,-0.0172453307453548
0.20029999999999992,-0.01728777208435075
0.19929999999999992,-0.01731606631034805
0.19829999999999992,-0.017372654762342652
0.19729999999999992,-0.0173868018753413
0.19629999999999992,-0.017429243214337253
0.19529999999999992,-0.017457537440334552
0.19429999999999992,-0.017556567231325104
0.19329999999999992,-0.017627302796318356
0.19229999999999992,-0.017584861457322406
0.19129999999999991,-0.01765559702231566
0.1902999999999999,-0.01766974413531431
0.1892999999999999,-0.01769803836131161
0.1882999999999999,-0.01776877392630486
0.1872999999999999,-0.017782921039303512
0.1862999999999999,-0.017797068152302163
0.1852999999999999,-0.017839509491298113
0.1842999999999999,-0.017867803717295416
0.1832999999999999,-0.017938539282288665
0.1822999999999999,-0.017938539282288665
0.1812999999999999,-0.017995127734283266
0.1802999999999999,-0.018023421960280565
0.1792999999999999,-0.018065863299276518
0.1782999999999999,-0.01812245175127112
0.1772999999999999,-0.01816489309026707
0.1762999999999999,-0.01820733442926302
0.1752999999999999,-0.018263922881257624
0.1742999999999999,-0.018292217107254923
0.1732999999999999,-0.018334658446250877
0.1722999999999999,-0.018348805559249524
0.1712999999999999,-0.018377099785246823
0.1702999999999999,-0.018405394011244126
0.1692999999999999,-0.018433688237241428
0.1682999999999999,-0.01851857091523333
0.1672999999999999,-0.01853271802823198
0.1662999999999999,-0.018575159367227933
0.1652999999999999,-0.01858930648022658
0.1642999999999999,-0.018631747819222534
0.1632999999999999,-0.018674189158218484
0.1622999999999999,-0.018744924723211737
0.1612999999999999,-0.018773218949209036
0.1602999999999999,-0.018787366062207687
0.1592999999999999,-0.018843954514202284
0.15829999999999989,-0.018900542966196893
0.15729999999999988,-0.018886395853198238
0.15629999999999988,-0.018957131418191494
0.15529999999999988,-0.01897127853119014
0.15429999999999988,-0.019027866983184743
0.15329999999999988,-0.019098602548177995
0.15229999999999988,-0.019098602548177995
0.15129999999999988,-0.0191551910001726
0.15029999999999988,-0.0191834852261699
0.14929999999999988,-0.019240073678164497
0.14829999999999988,-0.0192966621301591
0.14729999999999988,-0.01933910346915505
0.14629999999999987,-0.019367397695152354
0.14529999999999987,-0.0194098390341483
0.14429999999999987,-0.019466427486142905
0.14329999999999987,-0.019551310164134805
0.14229999999999987,-0.01959375150313076
0.14129999999999987,-0.01959375150313076
0.14029999999999987,-0.01967863418112266
0.13929999999999987,-0.01970692840711996
0.13829999999999987,-0.019791811085111865
0.13729999999999987,-0.019848399537106463
0.13629999999999987,-0.019890840876102416
0.13529999999999986,-0.019947429328097017
0.13429999999999986,-0.02000401778009162
0.13329999999999986,-0.02008890045808352
0.13229999999999986,-0.020131341797079472
0.13129999999999986,-0.020187930249074077
0.13029999999999986,-0.020272812927065977
0.12929999999999986,-0.020357695605057877
0.12829999999999986,-0.02041428405705248
0.12729999999999986,-0.020513313848043033
0.12629999999999986,-0.020569902300037635
0.12529999999999986,-0.020654784978029535
0.12429999999999986,-0.020767961882018737
0.12329999999999985,-0.020838697447011986
0.12229999999999985,-0.020909433012005242
0.12129999999999985,-0.020994315689997142
0.12029999999999985,-0.021079198367989046
0.11929999999999985,-0.021164081045980946
0.11829999999999985,-0.02124896372397285
0.11729999999999985,-0.021347993514963404
0.11629999999999985,-0.021432876192955305
0.11529999999999985,-0.02150361175794856
0.11429999999999985,-0.021602641548939108
0.11329999999999985,-0.021729965565926962
0.11229999999999984,-0.021772406904922915
0.11129999999999984,-0.021885583808912118
0.11029999999999984,-0.021956319373905367
0.10929999999999984,-0.022069496277894573
0.10829999999999984,-0.022168526068885124
0.10729999999999984,-0.022225114520879725
0.10629999999999984,-0.022338291424868928
0.10529999999999984,-0.02240902698986218
0.10429999999999984,-0.022522203893851383
0.10329999999999984,-0.022607086571843286
0.10229999999999984,-0.02267782213683654
0.10129999999999983,-0.02276270481482844
0.10029999999999983,-0.022833440379821688
0.09929999999999983,-0.022918323057813595
0.09829999999999983,-0.023017352848804146
0.09729999999999983,-0.0230880884137974
0.09629999999999983,-0.023158823978790648
0.09529999999999983,-0.02324370665678255
0.09429999999999983,-0.023314442221775804
0.09329999999999983,-0.02338517778676906
0.09229999999999983,-0.02347006046476096
0.09129999999999983,-0.02354079602975421
0.09029999999999982,-0.023611531594747465
0.08929999999999982,-0.023682267159740714
0.08829999999999982,-0.02378129695073127
0.08729999999999982,-0.023837885402725866
0.08629999999999982,-0.02392276808071777
0.08529999999999982,-0.023965209419713723
0.08429999999999982,-0.024064239210704275
0.08329999999999982,-0.024134974775697527
0.08229999999999982,-0.02420571034069078
0.08129999999999982,-0.02426229879268538
0.08029999999999982,-0.02427644590568403
0.07929999999999982,-0.02436132858367593
0.07829999999999981,-0.024432064148669184
0.07729999999999981,-0.024488652600663786
0.07629999999999981,-0.02457353527865569
0.07529999999999992,-0.024601829504652988
0.07429999999999992,-0.02468671218264489
0.07329999999999992,-0.024729153521640842
0.07229999999999992,-0.024771594860636792
0.07129999999999992,-0.024842330425630044
0.07029999999999992,-0.024884771764625994
0.06929999999999992,-0.024955507329619247
0.06829999999999992,-0.025012095781613848
0.06729999999999992,-0.0250545371206098
0.06629999999999991,-0.02512527268560305
0.06529999999999991,-0.025167714024599004
0.06429999999999991,-0.025224302476593602
0.06329999999999991,-0.025295038041586858
0.06229999999999991,-0.025309185154585506
0.06129999999999991,-0.02537992071957876
0.06029999999999991,-0.025422362058574708
0.05929999999999991,-0.02547895051056931
0.05829999999999991,-0.02554968607556256
0.05729999999999991,-0.025577980301559864
0.056299999999999906,-0.02562042164055581
0.055299999999999905,-0.025677010092550415
0.054299999999999904,-0.025719451431546365
0.0532999999999999,-0.025790186996539618
0.0522999999999999,-0.025860922561532867
0.0512999999999999,-0.02587506967453152
0.0502999999999999,-0.02591751101352747
0.0492999999999999,-0.02600239369151937
0.0482999999999999,-0.026030687917516674
0.0472999999999999,-0.026087276369511275
0.0462999999999999,-0.02614386482150588
0.045299999999999896,-0.026186306160501827
0.044299999999999895,-0.026257041725495082
0.043299999999999894,-0.02629948306449103
0.04229999999999989,-0.02632777729048833
0.04129999999999989,-0.026384365742482933
0.04029999999999989,-0.02645510130747619
0.03929999999999989,-0.02649754264647214
0.03829999999999989,-0.026539983985468085
0.03729999999999989,-0.02658242532446404
0.03629999999999989,-0.02662486666345999
0.03529999999999989,-0.026667308002455942
0.034299999999999886,-0.026752190680447843
0.033299999999999885,-0.026794632019443793
0.032299999999999884,-0.026837073358439746
0.031299999999999883,-0.026893661810434347
0.030299999999999883,-0.02692195603643165
0.02929999999999988,-0.026978544488426247
0.02829999999999988,-0.027063427166418155
0.02729999999999988,-0.0270775742794168
0.02629999999999988,-0.027120015618412752
0.025299999999999878,-0.027176604070407354
0.024299999999999877,-0.02723319252240196
0.023299999999999876,-0.027289780974396556
0.022299999999999875,-0.02730392808739521
0.021299999999999875,-0.02736051653938981
0.020299999999999874,-0.02743125210438306
0.019299999999999873,-0.027473693443379014
0.018299999999999872,-0.027516134782374965
0.01729999999999987,-0.027572723234369562
0.01629999999999987,-0.027601017460366868
0.01529999999999987,-0.027657605912361466
0.014299999999999868,-0.02772834147735472
0.013299999999999867,-0.02775663570335202
0.012299999999999978,-0.02782737126834527
0.011299999999999866,-0.027855665494342572
0.010299999999999976,-0.027954695285333123
0.009299999999999864,-0.02806787218932233
0.008299999999999974,-0.02811031352831828
0.007299999999999862,-0.028166901980312884
0.006299999999999972,-0.028181049093311532
0.00529999999999986,-0.028237637545306133
0.0042999999999999705,-0.028280078884302083
0.0032999999999998586,-0.028308373110299385
0.0022999999999999687,-0.028350814449295336
0.0012999999999998568,-0.028407402901289937
0.00029999999999996696,-0.028435697127287232
-0.000700000000000145,-0.028534726918277787
-0.0017000000000000348,-0.028563021144275093
-0.0027000000000001467,-0.02860546248327104
-0.0037000000000000366,-0.028647903822266993
-0.0047000000000001485,-0.028676198048264292
-0.005700000000000038,-0.028761080726256192
-0.00670000000000015,-0.02880352206525215
-0.00770000000000004,-0.028845963404248096
-0.008700000000000152,-0.0289025518562427
-0.009700000000000042,-0.02893084608224
-0.010700000000000154,-0.02902987587323055
-0.011700000000000044,-0.0290723172122265
-0.012700000000000156,-0.029114758551222454
-0.013700000000000045,-0.029157199890218404
-0.014700000000000157,-0.029199641229214358
-0.015700000000000047,-0.029256229681208955
-0.01670000000000016,-0.02931281813320356
-0.01770000000000005,-0.029341112359200863
-0.01870000000000016,-0.02941184792419411
-0.01970000000000005,-0.02946843637618871
-0.020700000000000163,-0.029510877715184666
-0.021700000000000053,-0.029567466167179264
-0.022700000000000164,-0.02959576039317657
-0.023700000000000054,-0.029652348845171168
-0.024700000000000166,-0.02972308441016442
-0.025700000000000056,-0.029765525749160374
-0.026700000000000168,-0.029807967088156324
-0.027700000000000058,-0.029850408427152274
-0.02870000000000017,-0.029878702653149573
-0.02970000000000006,-0.029935291105144177
-0.03070000000000017,-0.03000602667013743
-0.03170000000000006,-0.030048468009133376
-0.03270000000000017,-0.03010505646112798
-0.03370000000000006,-0.03014749780012393
-0.034700000000000175,-0.03018993913911988
-0.035700000000000065,-0.030246527591114486
-0.03670000000000018,-0.030288968930110433
-0.03770000000000007,-0.03033141026910639
-0.03870000000000018,-0.030387998721100987
-0.03970000000000007,-0.030416292947098293
-0.04070000000000018,-0.030487028512091542
-0.04170000000000007,-0.030529469851087492
-0.04270000000000018,-0.030571911190083446
-0.04370000000000007,-0.030628499642078044
-0.044700000000000184,-0.03065679386807535
-0.045700000000000074,-0.0307275294330686
-0.046700000000000186,-0.030769970772064545
-0.047700000000000076,-0.03082655922405915
-0.04870000000000019,-0.030883147676053754
-0.04970000000000008,-0.030939736128048352
-0.05070000000000019,-0.030982177467044306
-0.05170000000000008,-0.031010471693041605
-0.05270000000000019,-0.031052913032037555
-0.05370000000000008,-0.03110950148403216
-0.05470000000000019,-0.031151942823028106
-0.05570000000000008,-0.03123682550102001
-0.056700000000000195,-0.03130756106601326
-0.057700000000000085,-0.03133585529201056
-0.058700000000000196,-0.03136414951800787
-0.059700000000000086,-0.031434885083001116
-0.0607000000000002,-0.03149147353499571
-0.06170000000000009,-0.03154806198699031
-0.0627000000000002,-0.03159050332598627
-0.06370000000000009,-0.03160465043898492
-0.0647000000000002,-0.03168953311697682
