Potential V vs RHE, Current mA cm-2
0.013299999999999867,0.21588494435940458
0.012299999999999978,-2.3144676865791998
0.011299999999999866,-4.538393849967037
0.010299999999999976,-6.632166573767292
0.009299999999999864,-8.55051509638428
0.008299999999999974,-10.296268840417738
0.007299999999999862,-11.996751822855511
0.006299999999999972,-13.610937416001518
0.00529999999999986,-15.05252823056399
0.0042999999999999705,-16.53797509542228
0.0032999999999998586,-17.924392169290012
0.0022999999999999687,-19.2400736781645
0.0012999999999998568,-20.584049413036283
0.00029999999999996696,-21.857289582914817
-0.000700000000000145,-23.073941300798747
-0.0017000000000000348,-24.290593018682678
-0.0027000000000001467,-25.39406783257741
-0.0037000000000000366,-26.483395533473487
-0.0047000000000001485,-27.530281895373616
-0.005700000000000038,-28.393255788291288
-0.00670000000000015,-29.31281813320356
-0.00770000000000004,-30.10505646112798
-0.008700000000000152,-30.88314767605375
-0.009700000000000042,-31.618797551983565
-0.010700000000000154,-32.41103587990799
-0.011700000000000044,-33.10424441684186
-0.012700000000000156,-33.81160006677438
-0.013700000000000045,-34.5472499427042
-0.014700000000000157,-35.198017140642115
-0.015700000000000047,-35.90537279057463
-0.01670000000000016,-36.5985813275085
-0.01770000000000005,-37.206907186450465
-0.01870000000000016,-37.77279170639648
-0.01970000000000005,-38.42355890433439
-0.020700000000000163,-38.86211940729255
-0.021700000000000053,-39.34312124924667
-0.022700000000000164,-39.739240413208876
-0.023700000000000054,-40.177800916167044
-0.024700000000000166,-40.51733162813464
-0.025700000000000056,-40.91345079209687
-0.026700000000000168,-41.30956995605907
-0.027700000000000058,-41.74813045901723
-0.02870000000000017,-42.130102509980794
-0.02970000000000006,-42.568663012938956
-0.03070000000000017,-43.007223515897124
-0.03170000000000006,-43.40334267985933
-0.03270000000000017,-43.79946184382153
-0.03370000000000006,-44.181433894785094
-0.034700000000000175,-44.535111719751356
-0.035700000000000065,-44.80390686672572
-0.03670000000000018,-45.05855490070142
-0.03770000000000007,-45.32735004767578
-0.03870000000000018,-45.53955674265553
-0.03970000000000007,-45.70932209863933
-0.04070000000000018,-45.97811724561369
-0.04170000000000007,-46.147882601597495
-0.04270000000000018,-46.41667774857186
-0.04370000000000007,-46.67132578254756
-0.044700000000000184,-46.94012092952192
-0.045700000000000074,-47.23721030249357
-0.046700000000000186,-47.506005449467935
-0.047700000000000076,-47.76065348344364
-0.04870000000000019,-47.987007291422046
-0.04970000000000008,-48.24165532539775
-0.05070000000000019,-48.41142068138156
-0.05170000000000008,-48.55289181136806
-0.05270000000000019,-48.68021582835591
-0.05370000000000008,-48.80753984534376
-0.05470000000000019,-48.84998118433972
-0.05570000000000008,-49.03389365332217
-0.056700000000000195,-49.20365900930597
-0.057700000000000085,-49.33098302629383
-0.058700000000000196,-49.50074838227763
-0.059700000000000086,-49.72710219025603
-0.0607000000000002,-49.939308885235796
-0.06170000000000009,-50.1656626932142
-0.0627000000000002,-50.37786938819396
-0.06370000000000009,-50.50519340518181
-0.0647000000000002,-50.73154721316022
-0.06570000000000009,-50.81642989115212
-0.0667000000000002,-50.90131256914402
-0.0677000000000001,-50.98619524713592
-0.0687000000000002,-51.071077925127824
-0.0697000000000001,-51.127666377122424
-0.07070000000000021,-51.21254905511432
-0.0717000000000001,-51.33987307210218
-0.07270000000000021,-51.46719708909004
-0.0737000000000001,-51.594521106077885
-0.07470000000000021,-51.73599223606439
-0.0757000000000001,-51.90575759204819
-0.07670000000000021,-52.075522948032
-0.0777000000000001,-52.25943541701445
-0.07870000000000021,-52.386759434002315
-0.0797000000000001,-52.514083450990164
-0.08070000000000022,-52.59896612898206
-0.0817000000000001,-52.69799591997262
-0.08270000000000022,-52.74043725896857
-0.08370000000000011,-52.82531993696047
-0.08470000000000022,-52.78287859796452
-0.08570000000000011,-52.91020261495237
-0.08670000000000022,-52.95264395394832
-0.08770000000000011,-53.079967970936174
-0.08870000000000022,-53.22143910092268
-0.08970000000000011,-53.348763117910536
-0.09070000000000022,-53.518528473894335
-0.09170000000000011,-53.68829382987814
-0.09270000000000023,-53.82976495986464
-0.09370000000000012,-53.91464763785655
-0.09470000000000023,-54.08441299384035
-0.09570000000000012,-54.1268543328363
-0.09670000000000023,-54.16929567183226
-0.09770000000000012,-54.2117370108282
-0.09870000000000023,-54.26832546282281
-0.09970000000000012,-54.26832546282281
-0.10070000000000023,-54.35320814081471
-0.10170000000000012,-54.43809081880661
-0.10270000000000024,-54.52297349679851
-0.10370000000000013,-54.60785617479041
-0.10470000000000024,-54.791768643772876
-0.10570000000000013,-54.919092660760725
-0.10670000000000024,-55.088858016744524
-0.10770000000000013,-55.21618203373238
-0.10870000000000024,-55.31521182472294
-0.10970000000000013,-55.484977180706736
-0.11070000000000024,-55.527418519702685
-0.11170000000000013,-55.56985985869864
-0.11270000000000002,-55.612301197694585
-0.11370000000000013,-55.6971838756865
-0.11470000000000002,-55.65474253669055
-0.11570000000000014,-55.7820665536784
-0.11670000000000003,-55.7820665536784
-0.11770000000000014,-55.9235376836649
-0.11870000000000003,-56.05086170065276
-0.11970000000000014,-56.1781857176406
-0.12070000000000003,-56.36209818662306
-0.12170000000000014,-56.489422203610914
-0.12270000000000003,-56.65918755959472
-0.12370000000000014,-56.74407023758662
-0.12470000000000003,-56.88554136757313
-0.12570000000000014,-56.97042404556503
-0.12670000000000003,-57.012865384560975
-0.12770000000000015,-57.097748062552874
-0.12870000000000004,-57.14018940154883
-0.12970000000000015,-57.097748062552874
-0.13070000000000004,-57.182630740544774
-0.13170000000000015,-57.30995475753264
-0.13270000000000004,-57.352396096528594
-0.13370000000000015,-57.493867226515086
-0.13470000000000004,-57.66363258249889
-0.13570000000000015,-57.79095659948675
-0.13670000000000004,-57.974869068469204
-0.13770000000000016,-58.14463442445301
-0.13870000000000005,-58.22951710244491
-0.13970000000000016,-58.39928245842871
-0.14070000000000005,-58.498312249419264
-0.14170000000000016,-58.54075358841522
-0.14270000000000005,-58.62563626640712
-0.14370000000000016,-58.66807760540307
-0.14470000000000005,-58.66807760540307
-0.14570000000000016,-58.75296028339497
-0.14670000000000005,-58.79540162239092
-0.14770000000000016,-58.92272563937878
-0.14870000000000005,-59.06419676936528
-0.14970000000000017,-59.19152078635314
-0.15070000000000006,-59.36128614233694
-0.15170000000000017,-59.54519861131939
-0.15270000000000006,-59.7149639673032
-0.15370000000000017,-59.842287984291055
-0.15470000000000006,-59.9696120012789
-0.15570000000000017,-60.06864179226946
-0.15670000000000006,-60.11108313126541
-0.15770000000000017,-60.19596580925731
-0.15870000000000006,-60.23840714825326
-0.15970000000000018,-60.28084848724921
-0.16070000000000007,-60.32328982624517
-0.16170000000000018,-60.40817250423707
-0.16270000000000007,-60.54964363422357
-0.16370000000000018,-60.71940899020737
-0.16470000000000007,-60.84673300719523
-0.16570000000000018,-61.01649836317903
-0.16670000000000007,-61.20041083216149
-0.16770000000000018,-61.327734849149344
-0.16870000000000007,-61.49750020513315
-0.16970000000000018,-61.63897133511965
-0.17070000000000007,-61.6814126741156
-0.17170000000000019,-61.7662953521075
-0.17270000000000008,-61.851178030099405
-0.1737000000000002,-61.89361936909536
-0.17470000000000008,-61.89361936909536
-0.1757000000000002,-61.97850204708726
-0.17670000000000008,-62.06338472507916
-0.1777000000000002,-62.20485585506566
-0.17870000000000008,-62.37462121104946
-0.1797000000000002,-62.501945228037314
-0.18070000000000008,-62.68585769701977
-0.1817000000000002,-62.89806439199953
-0.18270000000000008,-63.06782974798333
-0.1837000000000002,-63.20930087796983
-0.1847000000000001,-63.37906623395363
-0.1857000000000002,-63.46394891194555
-0.1867000000000001,-63.5063902509415
-0.1877000000000002,-63.59127292893339
-0.1887000000000001,-63.6761556069253
-0.1897000000000002,-63.6761556069253
-0.1907000000000001,-63.81762673691181
-0.1917000000000001,-63.902509414903705
-0.19269999999999998,-64.02983343189156
-0.1937000000000001,-64.15715744887942
-0.19469999999999998,-64.34106991786187
-0.1957000000000001,-64.51083527384567
-0.19669999999999999,-64.72304196882543
-0.1977000000000001,-64.90695443780788
-0.1987,-65.0767197937917
-0.1997000000000001,-65.2464851497755
-0.2007,-65.34551494076604
-0.2017000000000001,-65.43039761875795
-0.2027,-65.51528029674984
-0.2037000000000001,-65.60016297474175
-0.2047,-65.64260431373769
-0.2057000000000001,-65.76992833072556
-0.2067,-65.86895812171612
-0.2077000000000001,-66.03872347769992
-0.2087,-66.16604749468777
-0.2097000000000001,-66.34995996367022
-0.2107,-66.56216665864997
-0.2117000000000001,-66.77437335362974
-0.2127,-66.9582858226122
-0.2137000000000001,-67.128051178596
-0.2147,-67.2978165345798
-0.2157000000000001,-67.52417034255821
-0.2167,-67.6090530205501
-0.21770000000000012,-67.73637703753796
-0.2187,-67.82125971552985
-0.21970000000000012,-67.86370105452582
-0.2207,-67.96273084551636
-0.22170000000000012,-68.0900548625042
-0.2227,-68.25982021848802
-0.22370000000000012,-68.38714423547587
-0.2247,-68.61349804345427
-0.22570000000000012,-68.78326339943808
-0.2267,-68.96717586842054
-0.22770000000000012,-69.22182390239624
-0.22870000000000001,-69.39158925838004
-0.22970000000000013,-69.57550172736251
-0.23070000000000002,-69.70282574435035
-0.23170000000000013,-69.78770842234226
-0.23270000000000002,-69.91503243933012
-0.23370000000000013,-70.05650356931662
-0.23470000000000002,-70.09894490831257
-0.23570000000000013,-70.22626892530042
-0.23670000000000002,-70.35359294228827
-0.2376999999999999,-70.48091695927613
-0.23870000000000002,-70.70727076725453
-0.2396999999999999,-70.87703612323833
-0.24070000000000003,-71.10338993121674
-0.24169999999999991,-71.35803796519245
-0.24270000000000003,-71.52780332117625
-0.24369999999999992,-71.75415712915466
-0.24470000000000003,-71.96636382413442
-0.24569999999999992,-72.10783495412092
-0.24670000000000003,-72.19271763211282
-0.24769999999999992,-72.32004164910067
-0.24870000000000003,-72.44736566608852
-0.24969999999999992,-72.48980700508447
-0.25070000000000003,-72.63127813507097
-0.2516999999999999,-72.80104349105478
-0.25270000000000004,-72.92836750804264
-0.2536999999999999,-73.09813286402644
-0.25470000000000004,-73.3669280110008
-0.2556999999999999,-73.57913470598055
-0.25670000000000004,-73.80548851395896
-0.25769999999999993,-74.0176952089387
-0.25870000000000004,-74.20160767792116
-0.25969999999999993,-74.45625571189689
-0.26070000000000004,-74.54113838988879
-0.26169999999999993,-74.66846240687663
-0.26270000000000004,-74.80993353686314
-0.26369999999999993,-74.93725755385098
-0.26470000000000005,-75.02214023184291
-0.26569999999999994,-75.19190558782671
-0.26670000000000005,-75.33337671781321
-0.26769999999999994,-75.54558341279296
-0.26870000000000005,-75.71534876877676
-0.26969999999999994,-75.94170257675518
-0.27070000000000005,-76.15390927173492
-0.27169999999999994,-76.42270441870929
-0.27270000000000005,-76.63491111368903
-0.27369999999999994,-76.81882358267148
-0.27470000000000006,-77.03103027765125
-0.27569999999999995,-77.20079563363505
-0.27670000000000006,-77.28567831162695
-0.27769999999999995,-77.42714944161345
-0.27870000000000006,-77.55447345860131
-0.27969999999999995,-77.63935613659322
-0.28070000000000006,-77.80912149257702
-0.28169999999999995,-77.95059262256353
-0.28270000000000006,-78.12035797854733
-0.28369999999999995,-78.33256467352709
-0.28470000000000006,-78.55891848150549
-0.28569999999999995,-78.8135665154812
-0.28670000000000007,-79.08236166245555
-0.28769999999999996,-79.2945683574353
-0.28870000000000007,-79.52092216541372
-0.28969999999999996,-79.73312886039348
-0.29070000000000007,-79.90289421637728
-0.29169999999999996,-80.04436534636378
-0.29270000000000007,-80.21413070234757
-0.29369999999999996,-80.34145471933543
-0.2947000000000001,-80.46877873632329
-0.29569999999999996,-80.65269120530574
-0.2967000000000001,-80.82245656128954
-0.29769999999999996,-80.99222191727335
-0.2987000000000001,-81.21857572525175
-0.29969999999999997,-81.47322375922747
-0.3007000000000001,-81.69957756720586
-0.30169999999999997,-81.95422560118158
-0.3027000000000001,-82.26546208715187
-0.30369999999999997,-82.47766878213164
-0.3047000000000001,-82.746463929106
-0.30569999999999997,-82.87378794609386
-0.3067000000000001,-83.04355330207765
-0.3077,-83.22746577106011
-0.3087000000000001,-83.39723112704392
-0.3097,-83.48211380503581
-0.3107000000000001,-83.70846761301424
-0.3117,-83.92067430799398
-0.3127000000000001,-84.09043966397778
-0.3137,-84.35923481095215
-0.3147000000000001,-84.57144150593189
-0.3157,-84.84023665290624
-0.3167000000000001,-85.13732602587791
-0.3177,-85.44856251184822
-0.3187000000000001,-85.70321054582392
-0.3197,-85.97200569279828
-0.3207000000000001,-86.18421238777805
-0.3217,-86.36812485676049
-0.3227000000000001,-86.58033155174023
-0.3237,-86.80668535971866
-0.3247000000000001,-86.97645071570246
-0.3257,-87.23109874967815
-0.3267000000000001,-87.49989389665252
-0.3277,-87.71210059163228
-0.3287000000000001,-88.06577841659853
-0.3297,-88.32042645057423
-0.3307000000000001,-88.6741042755405
-0.3317,-89.07022343950271
-0.3327000000000001,-89.42390126446898
-0.3337,-89.72099063744062
-0.3347000000000001,-90.03222712341093
-0.3357,-90.24443381839069
-0.3367000000000001,-90.55567030436099
-0.3377,-90.81031833833671
-0.3387000000000001,-91.07911348531105
-0.3397,-91.33376151928677
-0.3407000000000001,-91.64499800525708
-0.3417,-91.94208737822873
-0.3427000000000001,-92.33820654219093
-0.3437,-92.6918843671572
-0.3447000000000001,-93.03141507912481
-0.3457,-93.55485826007487
-0.3467000000000001,-93.99341876303303
-0.3477,-94.4319792659912
-0.3487000000000001,-94.8280984299534
-0.3497,-95.30910027190752
-0.3507000000000001,-95.64863098387512
-0.3517,-96.04475014783733
-0.3527000000000001,-96.3984279728036
-0.3537,-96.79454713676581
-0.3547000000000001,-97.13407784873341
-0.3557,-97.61507969068752
-0.35670000000000013,-98.01119885464975
-0.3577,-98.49220069660386
-0.35870000000000013,-99.01564387755391
-0.3597,-99.53908705850398
-0.36070000000000013,-100.10497157844999
-0.3617,-100.670856098396
-0.3626999999999999,-101.23674061834203
-0.3637,-101.80262513828804
-0.3646999999999999,-102.41095099723
-0.3657,-102.93439417818009
-0.3666999999999999,-103.50027869812607
-0.3677,-104.02372187907615
-0.3686999999999999,-104.58960639902216
-0.36970000000000003,-105.16963803196683
-0.3706999999999999,-105.7779638909088
-0.37170000000000003,-106.4287310888467
-0.3726999999999999,-107.07949828678463
-0.37370000000000003,-107.8292952757131
-0.3746999999999999,-108.56494515164292
-0.37570000000000003,-109.25815368857677
-0.3766999999999999,-110.09283335549715
-0.37770000000000004,-110.92751302241753
-0.3786999999999999,-111.66316289834735
-0.37970000000000004,-112.58272524325962
-0.3806999999999999,-113.36081645818538
-0.38170000000000004,-114.1530547861098
-0.38269999999999993,-115.01602867902749
-0.38370000000000004,-115.80826700695191
-0.38469999999999993,-116.67124089986959
-0.38570000000000004,-117.59080324478184
-0.38669999999999993,-116.58635822187767
-0.38570000000000004,-112.71004926024747
-0.38469999999999993,-109.25815368857677
-0.38370000000000004,-106.21652439386696
-0.38269999999999993,-103.41539602013418
-0.38170000000000004,-100.79818011538387
-0.3806999999999999,-98.40731801861195
-0.37970000000000004,-96.04475014783733
-0.3786999999999999,-93.90853608504113
-0.37770000000000004,-91.72988068324898
-0.3766999999999999,-89.67854929844468
-0.37570000000000003,-87.71210059163228
-0.3746999999999999,-85.80224033681448
-0.37370000000000003,-83.87823296899803
-0.3726999999999999,-82.18057940915998
-0.37170000000000003,-80.42633739732734
-0.3706999999999999,-78.8135665154812
-0.36970000000000003,-77.20079563363505
-0.3686999999999999,-75.6729074297808
-0.3677,-74.24404901691713
-0.3666999999999999,-72.84348483005074
-0.3657,-71.4004793041884
-0.3646999999999999,-70.05650356931662
-0.3637,-68.69838072144618
-0.3626999999999999,-67.2978165345798
-0.3617,-65.95384079970802
-0.36070000000000013,-64.59571795183757
-0.3597,-63.20930087796983
-0.35870000000000013,-61.851178030099405
-0.3577,-60.59208497321952
-0.35670000000000013,-59.31884480334099
-0.3557,-58.10219308545706
-0.3547000000000001,-56.927982706569075
-0.3537,-55.6971838756865
-0.3527000000000001,-54.60785617479041
-0.3517,-53.518528473894335
-0.3507000000000001,-52.42920077299826
-0.3497,-51.29743173310623
-0.3487000000000001,-50.20810403221015
-0.3477,-49.076334992318124
-0.3467000000000001,-47.8879775004315
-0.3457,-46.75620846053947
-0.3447000000000001,-45.624439420647434
-0.3437,-44.45022904175945
-0.3427000000000001,-43.31846000186743
-0.3417,-42.2715736399673
-0.3407000000000001,-41.182245939071215
-0.3397,-40.177800916167044
-0.3387000000000001,-39.173355893262865
-0.3377,-38.211352209354644
-0.3367000000000001,-37.249348525446415
-0.3357,-36.329786180534136
-0.3347000000000001,-35.282899818634014
-0.3337,-34.377484586720385
-0.3327000000000001,-33.330598224820264
-0.3317,-32.283711862920136
-0.3307000000000001,-31.27926684001596
-0.3297,-30.232380478115836
-0.3287000000000001,-29.18549411621571
-0.3277,-28.22349043230748
-0.3267000000000001,-27.219045409403304
-0.3257,-26.257041725495082
-0.3247000000000001,-25.39406783257741
-0.3237,-24.474505487665134
-0.3227000000000001,-23.597384481748815
-0.3217,-22.72026347583249
-0.3207000000000001,-21.899730921910766
-0.3197,-21.022609915994444
-0.3187000000000001,-20.159636023076775
-0.3177,-19.2400736781645
-0.3167000000000001,-18.320511333252224
-0.3157,-17.358507649344002
-0.3147000000000001,-16.438945304431726
-0.3137,-15.491088733522153
-0.3127000000000001,-14.61396772760583
-0.3117,-13.741090855589102
-0.3107000000000001,-12.913484745168056
-0.3097,-12.084463923447142
-0.3087000000000001,-11.299299152022046
-0.3077,-10.514134380596953
-0.3067000000000001,-9.772825659467674
-0.30569999999999997,-8.987660888042578
-0.3047000000000001,-8.202496116617484
-0.30369999999999997,-7.461187395488204
-0.3027000000000001,-6.632166573767292
-0.30169999999999997,-5.80314575204638
-0.3007000000000001,-4.974124930325469
-0.29969999999999997,-4.146518819904423
-0.2987000000000001,-3.273641947887695
-0.29769999999999996,-2.532333226758415
-0.2967000000000001,-1.7471684553333202
-0.29569999999999996,-1.0054353208140816
-0.2947000000000001,-0.26384365742482935
-0.29369999999999996,0.43403342679859325
-0.29270000000000007,1.0881959318561862
-0.29169999999999996,1.7867803717295414
-0.29070000000000007,2.396520941971372
-0.28969999999999996,3.0939736128048354
-0.28870000000000007,3.748984944642347
-0.28769999999999996,4.490293665771627
-0.28670000000000007,5.231602386900906
-0.28569999999999995,5.929055057734368
-0.28470000000000006,6.627922439867697
-0.28369999999999995,7.413087211292793
-0.28270000000000006,8.066683831830439
-0.28169999999999995,8.80799255295972
-0.28070000000000006,9.419147834501414
-0.27969999999999995,10.03030311604311
-0.27870000000000006,10.64004368628494
-0.27769999999999995,11.20734291753082
-0.27670000000000006,11.774642148776701
-0.27569999999999995,12.341941380022579
-0.27470000000000006,12.907825899968595
-0.27369999999999994,13.475125131214474
-0.27270000000000005,14.08628041275617
-0.27169999999999994,14.69885040559773
-0.27070000000000005,15.349617603535648
-0.26969999999999994,15.91550212348166
-0.26870000000000005,16.56626932141958
-0.26769999999999994,17.188742293360193
-0.26670000000000005,17.75462681330621
-0.26569999999999994,18.320511333252224
-0.26470000000000005,18.843954514202288
-0.26369999999999993,19.28251501716045
-0.26270000000000004,19.749369746115914
