Potential V vs RHE, Current mA cm-2
0.013299999999999867,0.43403342679859325
0.012299999999999978,-2.052746096104168
0.011299999999999866,-4.146518819904423
0.010299999999999976,-6.196435493408861
0.009299999999999864,-8.158640066321666
0.008299999999999974,-9.946835149351072
0.007299999999999862,-11.691174182084664
0.006299999999999972,-13.3930718758223
0.00529999999999986,-14.868615761581536
0.0042999999999999705,-16.311621287443874
0.0032999999999998586,-17.627302796318357
0.0022999999999999687,-18.843954514202288
0.0012999999999998568,-19.97572355409432
0.00029999999999996696,-21.022609915994444
-0.000700000000000145,-22.111937616890522
-0.0017000000000000348,-23.15882397879065
-0.0027000000000001467,-24.120827662698876
-0.0037000000000000366,-25.12527268560305
-0.0047000000000001485,-26.087276369511276
-0.005700000000000038,-27.00683871442355
-0.00670000000000015,-27.954695285333123
-0.00770000000000004,-28.746933613257543
-0.008700000000000152,-29.525024828183312
-0.009700000000000042,-30.232380478115836
-0.010700000000000154,-30.925589015049702
-0.011700000000000044,-31.49147353499572
-0.012700000000000156,-32.05735805494172
-0.013700000000000045,-32.62324257488775
-0.014700000000000157,-33.18912709483376
-0.015700000000000047,-33.712570275783825
-0.01670000000000016,-34.33504324772444
-0.01770000000000005,-34.90092776767045
-0.01870000000000016,-35.42437094862052
-0.01970000000000005,-36.03269680756248
-0.020700000000000163,-36.47125731052064
-0.021700000000000053,-36.95225915247476
-0.022700000000000164,-37.376672542434264
-0.023700000000000054,-37.77279170639648
-0.024700000000000166,-38.12646953136274
-0.025700000000000056,-38.42355890433439
-0.026700000000000168,-38.692354051308754
-0.027700000000000058,-39.046031876275016
-0.02870000000000017,-39.30067991025072
-0.02970000000000006,-39.654357735216976
-0.03070000000000017,-39.99388844718459
-0.03170000000000006,-40.34756627215084
-0.03270000000000017,-40.701244097117105
-0.03370000000000006,-40.99833347008877
-0.034700000000000175,-41.30956995605907
-0.035700000000000065,-41.606659329030734
-0.03670000000000018,-41.87545447600508
-0.03770000000000007,-42.00277849299294
-0.03870000000000018,-42.186690961975394
-0.03970000000000007,-42.31401497896325
-0.04070000000000018,-42.483780334947056
-0.04170000000000007,-42.653545690930855
-0.04270000000000018,-42.87989949890926
-0.04370000000000007,-43.09210619388902
-0.044700000000000184,-43.36090134086337
-0.045700000000000074,-43.57310803584313
-0.046700000000000186,-43.88434452181344
-0.047700000000000076,-44.096551216793195
-0.04870000000000019,-44.3229050247716
-0.04970000000000008,-44.45022904175945
-0.05070000000000019,-44.535111719751356
-0.05170000000000008,-44.66243573673921
-0.05270000000000019,-44.74731841473111
-0.05370000000000008,-44.84634820572166
-0.05470000000000019,-44.97367222270952
-0.05570000000000008,-45.01611356170547
-0.056700000000000195,-45.22832025668522
-0.057700000000000085,-45.412232725667685
-0.058700000000000196,-45.624439420647434
-0.059700000000000086,-45.85079322862584
-0.0607000000000002,-46.02055858460964
-0.06170000000000009,-46.19032394059345
-0.0627000000000002,-46.3176479575813
-0.06370000000000009,-46.37423640957591
-0.0647000000000002,-46.45911908756781
-0.06570000000000009,-46.544001765559706
-0.0667000000000002,-46.544001765559706
-0.0677000000000001,-46.628884443551605
-0.0687000000000002,-46.67132578254756
-0.0697000000000001,-46.79864979953541
-0.07070000000000021,-46.982562268517874
-0.0717000000000001,-47.15232762450167
-0.07270000000000021,-47.27965164148953
-0.0737000000000001,-47.46356411047198
-0.07470000000000021,-47.633329466455784
-0.0757000000000001,-47.71821214444768
-0.07670000000000021,-47.80309482243959
-0.0777000000000001,-47.80309482243959
-0.07870000000000021,-47.8879775004315
-0.0797000000000001,-47.84553616143554
-0.08070000000000022,-47.93041883942744
-0.0817000000000001,-47.987007291422046
-0.08270000000000022,-48.071889969413945
-0.08370000000000011,-48.1992139864018
-0.08470000000000022,-48.36897934238561
-0.08570000000000011,-48.51045047237211
-0.08670000000000022,-48.68021582835591
-0.08770000000000011,-48.80753984534376
-0.08870000000000022,-48.93486386233162
-0.08970000000000011,-48.97730520132757
-0.09070000000000022,-49.03389365332217
-0.09170000000000011,-49.118776331314066
-0.09270000000000023,-49.076334992318124
-0.09370000000000012,-49.076334992318124
-0.09470000000000023,-49.16121767031002
-0.09570000000000012,-49.20365900930597
-0.09670000000000023,-49.33098302629383
-0.09770000000000012,-49.458307043281685
-0.09870000000000023,-49.642219512264134
-0.09970000000000012,-49.81198486824794
-0.10070000000000023,-49.89686754623985
-0.10170000000000012,-50.024191563227696
-0.10270000000000024,-50.0807800152223
-0.10370000000000013,-50.12322135421825
-0.10470000000000024,-50.1656626932142
-0.10570000000000013,-50.20810403221015
-0.10670000000000024,-50.1656626932142
-0.10770000000000013,-50.2505453712061
-0.10870000000000024,-50.29298671020206
-0.10970000000000013,-50.42031072718991
-0.11070000000000024,-50.547634744177756
-0.11170000000000013,-50.68910587416426
-0.11270000000000002,-50.85887123014807
-0.11370000000000013,-50.98619524713592
-0.11470000000000002,-51.127666377122424
-0.11570000000000014,-51.25499039411028
-0.11670000000000003,-51.25499039411028
-0.11770000000000014,-51.29743173310623
-0.11870000000000003,-51.33987307210218
-0.11970000000000014,-51.29743173310623
-0.12070000000000003,-51.33987307210218
-0.12170000000000014,-51.424755750094086
-0.12270000000000003,-51.509638428085985
-0.12370000000000014,-51.65110955807249
-0.12470000000000003,-51.73599223606439
-0.12570000000000014,-51.90575759204819
-0.12670000000000003,-52.075522948032
-0.12770000000000015,-52.2169940780185
-0.12870000000000004,-52.34431809500636
-0.12970000000000015,-52.386759434002315
-0.13070000000000004,-52.42920077299826
-0.13170000000000015,-52.471642111994214
-0.13270000000000004,-52.471642111994214
-0.13370000000000015,-52.471642111994214
-0.13470000000000004,-52.55652478998611
-0.13570000000000015,-52.59896612898206
-0.13670000000000004,-52.74043725896857
-0.13770000000000016,-52.86776127595642
-0.13870000000000005,-53.03752663194023
-0.13970000000000016,-53.22143910092268
-0.14070000000000005,-53.348763117910536
-0.14170000000000016,-53.433645795902436
-0.14270000000000005,-53.56096981289029
-0.14370000000000016,-53.56096981289029
-0.14470000000000005,-53.64585249088219
-0.14570000000000016,-53.64585249088219
-0.14670000000000005,-53.64585249088219
-0.14770000000000016,-53.74488228187274
-0.14870000000000005,-53.7873236208687
-0.14970000000000017,-53.91464763785655
-0.15070000000000006,-54.08441299384035
-0.15170000000000017,-54.2117370108282
-0.15270000000000006,-54.39564947981066
-0.15370000000000017,-54.56541483579447
-0.15470000000000006,-54.65029751378637
-0.15570000000000017,-54.791768643772876
-0.15670000000000006,-54.876651321764776
-0.15770000000000017,-54.876651321764776
-0.15870000000000006,-54.961533999756675
-0.15970000000000018,-54.919092660760725
-0.16070000000000007,-55.003975338752625
-0.16170000000000018,-55.088858016744524
-0.16270000000000007,-55.17374069473642
-0.16370000000000018,-55.357653163718886
-0.16470000000000007,-55.527418519702685
-0.16570000000000018,-55.65474253669055
-0.16670000000000007,-55.881096344668954
-0.16770000000000018,-55.9235376836649
-0.16870000000000007,-56.093303039648696
-0.16970000000000018,-56.13574437864466
-0.17070000000000007,-56.22062705663656
-0.17170000000000019,-56.26306839563251
-0.17270000000000008,-56.30550973462846
-0.1737000000000002,-56.30550973462846
-0.17470000000000008,-56.44698086461496
-0.1757000000000002,-56.489422203610914
-0.17670000000000008,-56.61674622059877
-0.1777000000000002,-56.74407023758662
-0.17870000000000008,-56.927982706569075
-0.1797000000000002,-57.097748062552874
-0.18070000000000008,-57.22507207954074
-0.1817000000000002,-57.352396096528594
-0.18270000000000008,-57.493867226515086
-0.1837000000000002,-57.57874990450699
-0.1847000000000001,-57.62119124350295
-0.1857000000000002,-57.70607392149485
-0.1867000000000001,-57.70607392149485
-0.1877000000000002,-57.8333979384827
-0.1887000000000001,-57.87583927747865
-0.1897000000000002,-58.017310407465146
-0.1907000000000001,-58.22951710244491
-0.1917000000000001,-58.39928245842871
-0.19269999999999998,-58.62563626640712
-0.1937000000000001,-58.75296028339497
-0.19469999999999998,-58.880284300382826
-0.1957000000000001,-59.02175543036933
-0.19669999999999999,-59.10663810836124
-0.1977000000000001,-59.19152078635314
-0.1987,-59.23396212534908
-0.1997000000000001,-59.27640346434504
-0.2007,-59.36128614233694
-0.2017000000000001,-59.44616882032884
-0.2027,-59.54519861131939
-0.2037000000000001,-59.757405306299155
-0.2047,-59.92717066228296
-0.2057000000000001,-60.11108313126541
-0.2067,-60.32328982624517
-0.2077000000000001,-60.45061384323302
-0.2087,-60.63452631221547
-0.2097000000000001,-60.761850329203334
-0.2107,-60.80429166819927
-0.2117000000000001,-60.889174346191176
-0.2127,-60.974057024183075
-0.2137000000000001,-61.01649836317903
-0.2147,-61.15796949316553
-0.2157000000000001,-61.28529351015339
-0.2167,-61.49750020513315
-0.21770000000000012,-61.6814126741156
-0.2187,-61.80873669110345
-0.21970000000000012,-62.02094338608321
-0.2207,-62.20485585506566
-0.22170000000000012,-62.33217987205352
-0.2227,-62.501945228037314
-0.22370000000000012,-62.64341635802381
-0.2247,-62.72829903601572
-0.22570000000000012,-62.77074037501168
-0.2267,-62.81318171400764
-0.22770000000000012,-62.89806439199953
-0.22870000000000001,-62.98294706999144
-0.22970000000000013,-63.15271242597524
-0.23070000000000002,-63.37906623395363
-0.23170000000000013,-63.54883158993744
-0.23270000000000002,-63.77518539791585
-0.23370000000000013,-63.944950753899654
-0.23470000000000002,-64.11471610988345
-0.23570000000000013,-64.29862857886593
-0.23670000000000002,-64.38351125685783
-0.2376999999999999,-64.46839393484973
-0.23870000000000002,-64.55327661284163
-0.2396999999999999,-64.59571795183757
-0.24070000000000003,-64.72304196882543
-0.24169999999999991,-64.86451309881193
-0.24270000000000003,-64.94939577680383
-0.24369999999999992,-65.16160247178358
-0.24470000000000003,-65.34551494076604
-0.24569999999999992,-65.5577216357458
-0.24670000000000003,-65.82651678272015
-0.24769999999999992,-65.99628213870396
-0.24870000000000003,-66.20848883368372
-0.24969999999999992,-66.34995996367022
-0.25070000000000003,-66.43484264166212
-0.2516999999999999,-66.51972531965401
-0.25270000000000004,-66.60460799764593
-0.2536999999999999,-66.68949067563783
-0.25470000000000004,-66.87340314462028
-0.2556999999999999,-66.9582858226122
-0.25670000000000004,-67.17049251759194
-0.25769999999999993,-67.34025787357575
-0.25870000000000004,-67.56661168155415
-0.25969999999999993,-67.82125971552985
-0.26070000000000004,-68.04761352350828
-0.26169999999999993,-68.25982021848802
-0.26270000000000004,-68.38714423547587
-0.26369999999999993,-68.52861536546239
-0.26470000000000005,-68.65593938245023
-0.26569999999999994,-68.74082206044213
-0.26670000000000005,-68.82570473843404
-0.26769999999999994,-68.96717586842054
-0.26870000000000005,-69.0944998854084
-0.26969999999999994,-69.26426524139221
-0.27070000000000005,-69.4906190493706
-0.27169999999999994,-69.6603844053544
-0.27270000000000005,-69.91503243933012
-0.27369999999999994,-70.14138624730852
-0.27470000000000006,-70.35359294228827
-0.27569999999999995,-70.53750541127073
-0.27670000000000006,-70.70727076725453
-0.27769999999999995,-70.8345947842424
-0.27870000000000006,-70.96191880123024
-0.27969999999999995,-71.06094859222078
-0.28070000000000006,-71.18827260920865
-0.28169999999999995,-71.35803796519245
-0.28270000000000006,-71.52780332117625
-0.28369999999999995,-71.75415712915466
-0.28470000000000006,-71.96636382413442
-0.28569999999999995,-72.23515897110877
-0.28670000000000007,-72.53224834408043
-0.28769999999999996,-72.75860215205884
-0.28870000000000007,-72.92836750804264
-0.28969999999999996,-73.09813286402644
-0.29070000000000007,-73.2820453330089
-0.29169999999999996,-73.40936934999675
-0.29270000000000007,-73.45181068899271
-0.29369999999999996,-73.57913470598055
-0.2947000000000001,-73.72060583596706
-0.29569999999999996,-73.89037119195086
-0.2967000000000001,-74.06013654793468
-0.29769999999999996,-74.28649035591307
-0.2987000000000001,-74.54113838988879
-0.29969999999999997,-74.80993353686314
-0.3007000000000001,-75.06458157083884
-0.30169999999999997,-75.29093537881725
-0.3027000000000001,-75.50314207379701
-0.30369999999999997,-75.6729074297808
-0.3047000000000001,-75.81437855976732
-0.30569999999999997,-75.94170257675518
-0.3067000000000001,-76.02658525474708
-0.3077,-76.23879194972683
-0.3087000000000001,-76.38026307971333
-0.3097,-76.63491111368903
-0.3107000000000001,-76.9037062606634
-0.3117,-77.1583542946391
-0.3127000000000001,-77.42714944161345
-0.3137,-77.7242388145851
-0.3147000000000001,-77.99303396155948
-0.3157,-78.24768199553519
-0.3167000000000001,-78.51647714250953
-0.3177,-78.68624249849334
-0.3187000000000001,-78.85600785447714
-0.3197,-79.0399203234596
-0.3207000000000001,-79.25212701843935
-0.3217,-79.42189237442317
-0.3227000000000001,-79.69068752139752
-0.3237,-80.00192400736783
-0.3247000000000001,-80.29901338033947
-0.3257,-80.61024986630979
-0.3267000000000001,-80.99222191727335
-0.3277,-81.26101706424771
-0.3287000000000001,-81.57225355021802
-0.3297,-81.86934292318966
-0.3307000000000001,-82.13813807016405
-0.3317,-82.35034476514379
-0.3327000000000001,-82.61913991211814
-0.3337,-82.8313466070979
-0.3347000000000001,-83.14258309306821
-0.3357,-83.39723112704392
-0.3367000000000001,-83.75090895201016
-0.3377,-84.13288100297372
-0.3387000000000001,-84.57144150593189
-0.3397,-85.01000200889004
-0.3407000000000001,-85.44856251184822
-0.3417,-85.84468167581042
-0.3427000000000001,-86.28324217876859
-0.3437,-86.6227728907362
-0.3447000000000001,-86.97645071570246
-0.3457,-87.33012854066871
-0.3467000000000001,-87.66965925263632
-0.3477,-88.15066109459043
-0.3487000000000001,-88.54678025855264
-0.3497,-89.02778210050676
-0.3507000000000001,-89.59366662045278
-0.3517,-90.07466846240689
-0.3527000000000001,-90.6405529823529
-0.3537,-91.20643750229891
-0.3547000000000001,-91.77232202224494
-0.3557,-92.33820654219093
-0.35670000000000013,-92.86164972314101
-0.3577,-93.38509290409107
-0.35870000000000013,-93.90853608504113
-0.3597,-94.38953792699526
-0.36070000000000013,-94.99786378593721
-0.3617,-95.56374830588322
-0.3626999999999999,-96.21451550382113
-0.3637,-96.92187115375367
-0.3646999999999999,-97.6575210296835
-0.3657,-98.40731801861195
-0.3666999999999999,-99.22785057253368
-0.3677,-99.93520622246619
-0.3686999999999999,-100.75573877638791
-0.36970000000000003,-101.54797710431234
-0.3706999999999999,-102.24118564124619
-0.37170000000000003,-103.01927685617197
-0.3726999999999999,-103.76907384510045
-0.37370000000000003,-104.5471650600262
-0.3746999999999999,-105.38184472694657
-0.37570000000000003,-106.21652439386696
-0.3766999999999999,-107.16438096477653
-0.37770000000000004,-108.1688259876807
-0.3786999999999999,-109.21571234958083
-0.37970000000000004,-110.3050400504769
-0.3806999999999999,-111.3094850733811
-0.38170000000000004,-112.39881277427718
-0.38269999999999993,-113.53058181416918
-0.38370000000000004,-114.57746817606933
-0.38469999999999993,-115.68094298996405
-0.38570000000000004,-116.81271202985609
-0.38669999999999993,-115.97803236293572
-0.38570000000000004,-112.31393009628526
-0.38469999999999993,-109.13082967158894
-0.38370000000000004,-106.38628974985076
-0.38269999999999993,-103.89639786208829
-0.38170000000000004,-101.59041844330828
-0.3806999999999999,-99.45420438051207
-0.37970000000000004,-97.4877556736997
-0.3786999999999999,-95.64863098387512
-0.37770000000000004,-93.82365340704924
-0.3766999999999999,-92.08355850821525
-0.37570000000000003,-90.37175783537855
-0.3746999999999999,-88.6741042755405
-0.37370000000000003,-87.06133339369435
-0.3726999999999999,-85.53344518984011
-0.37170000000000003,-84.04799832498183
-0.3706999999999999,-82.6615812511141
-0.36970000000000003,-81.3458997422396
-0.3686999999999999,-80.04436534636378
-0.3677,-78.77112517648524
-0.3666999999999999,-77.59691479759726
-0.3657,-76.38026307971333
-0.3646999999999999,-75.19190558782671
-0.3637,-73.93281253094682
-0.3626999999999999,-72.71616081306288
-0.3617,-71.44292064318435
-0.36070000000000013,-70.22626892530042
-0.3597,-69.05205854641244
-0.35870000000000013,-67.82125971552985
-0.3577,-66.68949067563783
-0.35670000000000013,-65.60016297474175
-0.3557,-64.55327661284163
-0.3547000000000001,-63.5063902509415
-0.3537,-62.501945228037314
-0.3527000000000001,-61.49750020513315
-0.3517,-60.45061384323302
-0.3507000000000001,-59.403727481332886
-0.3497,-58.27195844144086
-0.3487000000000001,-57.182630740544774
-0.3477,-56.05086170065276
-0.3467000000000001,-54.919092660760725
-0.3457,-53.872206298860604
-0.3447000000000001,-52.78287859796452
-0.3437,-51.82087491405629
-0.3427000000000001,-50.77398855215617
-0.3417,-49.85442620724389
-0.3407000000000001,-48.93486386233162
-0.3397,-47.987007291422046
-0.3387000000000001,-47.02500360751382
-0.3377,-46.02055858460964
-0.3367000000000001,-45.01611356170547
-0.3357,-43.96922719980534
-0.3347000000000001,-42.87989949890926
-0.3337,-41.83301313700913
-0.3327000000000001,-40.828568114104954
-0.3317,-39.82412309120078
-0.3307000000000001,-38.86211940729255
-0.3297,-37.90011572338433
-0.3287000000000001,-37.037141830466666
-0.3277,-36.11757948555439
-0.3267000000000001,-35.282899818634014
-0.3257,-34.33504324772444
-0.3247000000000001,-33.41548090281216
-0.3237,-32.45347721890394
-0.3227000000000001,-31.449032195999767
-0.3217,-30.487028512091538
-0.3207000000000001,-29.482583489187363
-0.3197,-28.478138466283188
-0.3187000000000001,-27.572723234369565
-0.3177,-26.61071955046134
-0.3167000000000001,-25.73359854454502
-0.3157,-24.870624651627345
-0.3147000000000001,-24.035944984706973
-0.3137,-23.2012653177866
-0.3127000000000001,-22.33829142486893
-0.3117,-21.503611757948562
-0.3107000000000001,-20.626490752032236
-0.3097,-19.721075520118614
-0.3087000000000001,-18.80151317520634
-0.3077,-17.924392169290012
-0.3067000000000001,-16.962388485381787
-0.30569999999999997,-16.099414592464115
-0.3047000000000001,-15.222293586547794
-0.30369999999999997,-14.401761032626075
-0.3027000000000001,-13.610937416001518
-0.30169999999999997,-12.825772644576423
-0.3007000000000001,-12.084463923447142
-0.29969999999999997,-11.299299152022046
-0.2987000000000001,-10.557990430892769
-0.29769999999999996,-9.772825659467674
-0.2967000000000001,-8.987660888042578
-0.29569999999999996,-8.11478401602585
-0.2947000000000001,-7.28576319430494
-0.29369999999999996,-6.458157083883892
-0.29270000000000007,-5.629136262162981
-0.29169999999999996,-4.800115440442069
-0.29070000000000007,-4.102662769608606
-0.28969999999999996,-3.361354048479327
-0.28870000000000007,-2.662486666345999
-0.28769999999999996,-2.008890045808352
-0.28670000000000007,-1.3543031273607997
-0.28569999999999995,-0.7001406223032067
-0.28470000000000006,-0.002205534916489592
-0.28369999999999995,0.7393281253094681
-0.28270000000000006,1.4812027309586933
-0.28169999999999995,2.2225114520879723
-0.28070000000000006,2.919964122921436
-0.27969999999999995,3.7051288943465317
-0.27870000000000006,4.402581565179994
-0.27769999999999995,5.101448947313322
-0.27670000000000006,5.75504556785097
-0.27569999999999995,6.322344799096849
-0.27470000000000006,6.889644030342729
-0.27369999999999994,7.456943261588608
-0.27270000000000005,8.022827781534623
-0.27169999999999994,8.63398306307632
-0.27070000000000005,9.245138344618015
-0.26969999999999994,9.898734965155663
-0.26870000000000005,10.509890246697358
-0.26769999999999994,11.20734291753082
-0.26670000000000005,11.904795588364284
-0.26569999999999994,12.515950869905978
-0.26470000000000005,13.127106151447675
-0.26369999999999993,13.65054933239774
