Potential V vs RHE, Current mA cm-2
0.013299999999999867,-0.34066248100750085
0.012299999999999978,-1.3264333147534584
0.011299999999999866,-1.9112749661176645
0.010299999999999976,-2.3257853769781205
0.009299999999999864,-2.655413109846674
0.008299999999999974,-2.9114758551222453
0.007299999999999862,-3.135000240500921
0.006299999999999972,-3.3316451111821612
0.00529999999999986,-3.5169722914644814
0.0042999999999999705,-3.690981781347881
0.0032999999999998586,-3.84235589043344
0.0022999999999999687,-3.973924041320888
0.0012999999999998568,-4.118224593907121
0.00029999999999996696,-4.2526221673943
-0.000700000000000145,-4.3926785860809385
-0.0017000000000000348,-4.515758469169198
-0.0027000000000001467,-4.623276527958939
-0.0037000000000000366,-4.747771122347063
-0.0047000000000001485,-4.876509850634781
-0.005700000000000038,-4.995345599823445
-0.00670000000000015,-5.114181349012108
-0.00770000000000004,-5.21321114000266
-0.008700000000000152,-5.3306321778914585
-0.009700000000000042,-5.457956194879311
-0.010700000000000154,-5.5838655005673
-0.011700000000000044,-5.697042404556503
-0.012700000000000156,-5.80314575204638
-0.013700000000000045,-5.916322656035583
-0.014700000000000157,-6.047890806923031
-0.015700000000000047,-6.16814126741156
-0.01670000000000016,-6.2883917279000885
-0.01770000000000005,-6.398739209289561
-0.01870000000000016,-6.520404381077953
-0.01970000000000005,-6.653387243265268
-0.020700000000000163,-6.786370105452581
-0.021700000000000053,-6.908035277240974
-0.022700000000000164,-7.033944582928963
-0.023700000000000054,-7.159853888616951
-0.024700000000000166,-7.302739729903319
-0.025700000000000056,-7.447040282489553
-0.026700000000000168,-7.571534876877676
-0.027700000000000058,-7.708761872964584
-0.02870000000000017,-7.845988869051494
-0.02970000000000006,-7.995948266837187
-0.03070000000000017,-8.150151798522476
-0.03170000000000006,-8.288793505909249
-0.03270000000000017,-8.431679347195619
-0.03370000000000006,-8.581638744981312
-0.034700000000000175,-8.735842276666602
-0.035700000000000065,-8.898534076151082
-0.03670000000000018,-9.048493473936775
-0.03770000000000007,-9.192794026523009
-0.03870000000000018,-9.356900537307352
-0.03970000000000007,-9.519592336791833
-0.04070000000000018,-9.690772404075501
-0.04170000000000007,-9.854878914859846
-0.04270000000000018,-10.004838312645537
-0.04370000000000007,-10.170359534729748
-0.044700000000000184,-10.351442581112472
-0.045700000000000074,-10.522622648396142
-0.046700000000000186,-10.690973293080082
-0.047700000000000076,-10.846591536065237
-0.04870000000000019,-11.027674582447961
-0.04970000000000008,-11.213001762730281
-0.05070000000000019,-11.394084809113005
-0.05170000000000008,-11.559606031197214
-0.05270000000000019,-11.72654196458129
-0.05370000000000008,-11.907625010964015
-0.05470000000000019,-12.098611036445792
-0.05570000000000008,-12.281108794128384
-0.056700000000000195,-12.466435974410702
-0.057700000000000085,-12.63903075299424
-0.058700000000000196,-12.815869665477367
-0.059700000000000086,-13.013929247458472
-0.0607000000000002,-13.199256427740792
-0.06170000000000009,-13.390242453222573
-0.0627000000000002,-13.568496077005566
-0.06370000000000009,-13.752408545988024
-0.0647000000000002,-13.947638705369396
-0.06570000000000009,-14.142868864750772
-0.0667000000000002,-14.316878354634172
-0.0677000000000001,-14.500790823616628
-0.0687000000000002,-14.684703292599082
-0.0697000000000001,-14.868615761581536
-0.07070000000000021,-15.06667534356264
-0.0717000000000001,-15.250587812545096
-0.07270000000000021,-15.43450028152755
-0.0737000000000001,-15.618412750510005
-0.07470000000000021,-15.816472332491113
-0.0757000000000001,-16.000384801473565
-0.07670000000000021,-16.184297270456018
-0.0777000000000001,-16.368209739438473
-0.07870000000000021,-16.55212220842093
-0.0797000000000001,-16.750181790402035
-0.08070000000000022,-16.93409425938449
-0.0817000000000001,-17.118006728366943
-0.08270000000000022,-17.28777208435075
-0.08370000000000011,-17.471684553333205
-0.08470000000000022,-17.655597022315657
-0.08570000000000011,-17.853656604296763
-0.08670000000000022,-18.02342196028057
-0.08770000000000011,-18.19318731626437
-0.08870000000000022,-18.377099785246827
-0.08970000000000011,-18.57515936722793
-0.09070000000000022,-18.744924723211735
-0.09170000000000011,-18.91469007919554
-0.09270000000000023,-19.084455435179343
-0.09370000000000012,-19.25422079116315
-0.09470000000000023,-19.452280373144255
-0.09570000000000012,-19.622045729128057
-0.09670000000000023,-19.77766397211321
-0.09770000000000012,-19.947429328097016
-0.09870000000000023,-20.117194684080822
-0.09970000000000012,-20.301107153063278
-0.10070000000000023,-20.47087250904708
-0.10170000000000012,-20.612343639033586
-0.10270000000000024,-20.78210899501739
-0.10370000000000013,-20.93772723800254
-0.10470000000000024,-21.107492593986347
-0.10570000000000013,-21.277257949970153
-0.10670000000000024,-21.418729079956652
-0.10770000000000013,-21.574347322941808
-0.10870000000000024,-21.744112678925614
-0.10970000000000013,-21.899730921910766
-0.11070000000000024,-22.055349164895922
-0.11170000000000013,-22.182673181883775
-0.11270000000000002,-22.33829142486893
-0.11370000000000013,-22.493909667854084
-0.11470000000000002,-22.63538079784059
-0.11570000000000014,-22.790999040825742
-0.11670000000000003,-22.91832305781359
-0.11770000000000014,-23.059794187800097
-0.11870000000000003,-23.2012653177866
-0.11970000000000014,-23.342736447773106
-0.12070000000000003,-23.48420757775961
-0.12170000000000014,-23.61153159474746
-0.12270000000000003,-23.724708498736668
-0.12370000000000014,-23.86617962872317
-0.12470000000000003,-23.993503645711023
-0.12570000000000014,-24.120827662698876
-0.12670000000000003,-24.24815167968673
-0.12770000000000015,-24.34718147067728
-0.12870000000000004,-24.474505487665134
-0.12970000000000015,-24.601829504652986
-0.13070000000000004,-24.71500640864219
-0.13170000000000015,-24.828183312631392
-0.13270000000000004,-24.927213103621945
-0.13370000000000015,-25.04039000761115
-0.13470000000000004,-25.167714024599
-0.13570000000000015,-25.266743815589557
-0.13670000000000004,-25.36577360658011
-0.13770000000000016,-25.45065628457201
-0.13870000000000005,-25.549686075562565
-0.13970000000000016,-25.662862979551768
-0.14070000000000005,-25.761892770542314
-0.14170000000000016,-25.846775448534224
-0.14270000000000005,-25.94580523952477
-0.14370000000000016,-26.016540804518023
-0.14470000000000005,-26.129717708507226
-0.14570000000000016,-26.21460038649913
-0.14670000000000005,-26.28533595149238
-0.14770000000000016,-26.356071516485635
-0.14870000000000005,-26.426807081478888
-0.14970000000000017,-26.511689759470787
-0.15070000000000006,-26.59657243746269
-0.15170000000000017,-26.667308002455943
-0.15270000000000006,-26.723896454450543
-0.15370000000000017,-26.808779132442442
-0.15470000000000006,-26.86536758443705
-0.15570000000000017,-26.936103149430302
-0.15670000000000006,-26.992691601424898
-0.15770000000000017,-27.035132940420848
-0.15870000000000006,-27.1058685054141
-0.15970000000000018,-27.176604070407354
-0.16070000000000007,-27.233192522401957
-0.16170000000000018,-27.275633861397907
-0.16270000000000007,-27.31807520039386
-0.16370000000000018,-27.37466365238846
-0.16470000000000007,-27.43125210438306
-0.16570000000000018,-27.473693443379013
-0.16670000000000007,-27.501987669376312
-0.16770000000000018,-27.544429008372262
-0.16870000000000007,-27.572723234369565
-0.16970000000000018,-27.615164573365515
-0.17070000000000007,-27.64345879936282
-0.17170000000000019,-27.671753025360115
-0.17270000000000008,-27.700047251357418
-0.1737000000000002,-27.728341477354718
-0.17470000000000008,-27.770782816350668
-0.1757000000000002,-27.78492992934932
-0.17670000000000008,-27.799077042347974
-0.1777000000000002,-27.813224155346617
-0.17870000000000008,-27.827371268345274
-0.1797000000000002,-27.855665494342567
-0.18070000000000008,-27.869812607341224
-0.1817000000000002,-27.869812607341224
-0.18270000000000008,-27.883959720339874
-0.1837000000000002,-27.898106833338524
-0.1847000000000001,-27.912253946337174
-0.1857000000000002,-27.926401059335824
-0.1867000000000001,-27.898106833338524
-0.1877000000000002,-27.912253946337174
-0.1887000000000001,-27.912253946337174
-0.1897000000000002,-27.926401059335824
-0.1907000000000001,-27.926401059335824
-0.1917000000000001,-27.898106833338524
-0.19269999999999998,-27.898106833338524
-0.1937000000000001,-27.898106833338524
-0.19469999999999998,-27.898106833338524
-0.1957000000000001,-27.883959720339874
-0.19669999999999999,-27.869812607341224
-0.1977000000000001,-27.855665494342567
-0.1987,-27.855665494342567
-0.1997000000000001,-27.827371268345274
-0.2007,-27.827371268345274
-0.2017000000000001,-27.799077042347974
-0.2027,-27.78492992934932
-0.2037000000000001,-27.770782816350668
-0.2047,-27.770782816350668
-0.2057000000000001,-27.756635703352025
-0.2067,-27.728341477354718
-0.2077000000000001,-27.685900138358768
-0.2087,-27.671753025360115
-0.2097000000000001,-27.65760591236147
-0.2107,-27.64345879936282
-0.2117000000000001,-27.615164573365515
-0.2127,-27.572723234369565
-0.2137000000000001,-27.58687034736821
-0.2147,-27.572723234369565
-0.2157000000000001,-27.58687034736821
-0.2167,-27.530281895373616
-0.21770000000000012,-27.501987669376312
-0.2187,-27.487840556377662
-0.21970000000000012,-27.487840556377662
-0.2207,-27.445399217381713
-0.22170000000000012,-27.43125210438306
-0.2227,-27.417104991384413
-0.22370000000000012,-27.38881076538711
-0.2247,-27.38881076538711
-0.22570000000000012,-27.36051653938981
-0.2267,-27.34636942639116
-0.22770000000000012,-27.332222313392506
-0.22870000000000001,-27.332222313392506
-0.22970000000000013,-27.332222313392506
-0.23070000000000002,-27.303928087395207
-0.23170000000000013,-27.289780974396557
-0.23270000000000002,-27.275633861397907
-0.23370000000000013,-27.275633861397907
-0.23470000000000002,-27.275633861397907
-0.23570000000000013,-27.275633861397907
-0.23670000000000002,-27.261486748399253
-0.2376999999999999,-27.261486748399253
-0.23870000000000002,-27.275633861397907
-0.2396999999999999,-27.289780974396557
-0.24070000000000003,-27.303928087395207
-0.24169999999999991,-27.289780974396557
-0.24270000000000003,-27.303928087395207
-0.24369999999999992,-27.31807520039386
-0.24470000000000003,-27.332222313392506
-0.24569999999999992,-27.36051653938981
-0.24670000000000003,-27.36051653938981
-0.24769999999999992,-27.37466365238846
-0.24870000000000003,-27.417104991384413
-0.24969999999999992,-27.459546330380363
-0.25070000000000003,-27.487840556377662
-0.2516999999999999,-27.501987669376312
-0.25270000000000004,-27.530281895373616
-0.2536999999999999,-27.572723234369565
-0.25470000000000004,-27.62931168636417
-0.2556999999999999,-27.65760591236147
-0.25670000000000004,-27.714194364356068
-0.25769999999999993,-27.756635703352025
-0.25870000000000004,-27.813224155346617
-0.25969999999999993,-27.883959720339874
-0.26070000000000004,-27.940548172334477
-0.26169999999999993,-27.98298951133043
-0.26270000000000004,-28.05372507632368
-0.26369999999999993,-28.11031352831828
-0.26470000000000005,-28.19519620631018
-0.26569999999999994,-28.280078884302082
-0.26670000000000005,-28.350814449295335
-0.26769999999999994,-28.435697127287238
-0.26870000000000005,-28.506432692280487
-0.26969999999999994,-28.60546248327104
-0.27070000000000005,-28.690345161262943
-0.27169999999999994,-28.775227839254843
-0.27270000000000005,-28.8459634042481
-0.27369999999999994,-28.959140308237306
-0.27470000000000006,-29.072317212226505
-0.27569999999999995,-29.199641229214354
-0.27670000000000006,-29.284523907206257
-0.27769999999999995,-29.38355369819681
-0.27870000000000006,-29.510877715184666
-0.27969999999999995,-29.63820173217252
-0.28070000000000006,-29.751378636161718
-0.28169999999999995,-29.878702653149578
-0.28270000000000006,-29.991879557138777
-0.28369999999999995,-30.147497800123933
-0.28470000000000006,-30.274821817111786
-0.28569999999999995,-30.416292947098288
-0.28670000000000007,-30.55776407708479
-0.28769999999999996,-30.685088094072643
-0.28870000000000007,-30.8407063370578
-0.28969999999999996,-30.99632458004295
-0.29070000000000007,-31.151942823028104
-0.29169999999999996,-31.30756106601326
-0.29270000000000007,-31.46317930899841
-0.29369999999999996,-31.632944664982226
-0.2947000000000001,-31.802710020966025
-0.29569999999999996,-31.972475376949827
-0.2967000000000001,-32.12809361993498
-0.29769999999999996,-32.31200608891744
-0.2987000000000001,-32.48177144490124
-0.29969999999999997,-32.67983102688235
-0.3007000000000001,-32.8637434958648
-0.30169999999999997,-33.04765596484726
-0.3027000000000001,-33.231568433829715
-0.30369999999999997,-33.42962801581082
-0.3047000000000001,-33.655981823789226
-0.30569999999999997,-33.85404140577033
-0.3067000000000001,-34.06624810075008
-0.3077,-34.25016056973254
-0.3087000000000001,-34.462367264712285
-0.3097,-34.6887210726907
-0.3107000000000001,-34.9150748806691
-0.3117,-35.11313446265021
-0.3127000000000001,-35.353635383627264
-0.3137,-35.594136304604326
-0.3147000000000001,-35.82049011258273
-0.3157,-36.03269680756248
-0.3167000000000001,-36.25905061554089
-0.3177,-36.49955153651795
-0.3187000000000001,-36.768346683492304
-0.3197,-37.02299471746801
-0.3207000000000001,-37.249348525446415
-0.3217,-37.50399655942213
-0.3227000000000001,-37.744497480399176
-0.3237,-38.01329262737354
-0.3247000000000001,-38.28208777434789
-0.3257,-38.522588695324956
-0.3267000000000001,-38.777236729300654
-0.3277,-39.060178989273666
-0.3287000000000001,-39.34312124924667
-0.3297,-39.61191639622103
-0.3307000000000001,-39.88071154319538
-0.3317,-40.135359577171094
-0.3327000000000001,-40.4465960631414
-0.3337,-40.715391210115754
-0.3347000000000001,-41.02662769608606
-0.3357,-41.29542284306042
-0.3367000000000001,-41.56421799003478
-0.3377,-41.87545447600508
-0.3387000000000001,-42.158396735978094
-0.3397,-42.4696332219484
-0.3407000000000001,-42.766722594920054
-0.3417,-43.09210619388902
-0.3427000000000001,-43.40334267985933
-0.3437,-43.72872627882828
-0.3447000000000001,-44.03996276479859
-0.3457,-44.3511992507689
-0.3467000000000001,-44.66243573673921
-0.3477,-45.00196644870681
-0.3487000000000001,-45.34149716067443
-0.3497,-45.69517498564068
-0.3507000000000001,-46.062999923605595
-0.3517,-46.38838352257455
-0.3527000000000001,-46.75620846053947
-0.3537,-47.13818051150302
-0.3547000000000001,-47.520152562466585
-0.3557,-47.902124613430146
-0.35670000000000013,-48.29824377739235
-0.3577,-48.69436294135456
-0.35870000000000013,-49.13292344431272
-0.3597,-49.571483947270885
-0.36070000000000013,-49.995897337230396
-0.3617,-50.448604953187214
-0.3626999999999999,-50.92960679514132
-0.3637,-51.424755750094086
-0.3646999999999999,-51.948198931044146
-0.3657,-52.471642111994214
-0.3666999999999999,-53.009232405942925
-0.3677,-53.57511692588894
-0.3686999999999999,-54.19758989782956
-0.36970000000000003,-54.82006286977017
-0.3706999999999999,-55.442535841710786
-0.37170000000000003,-56.10745015264736
-0.3726999999999999,-56.81480580257987
-0.37370000000000003,-57.550455678509685
-0.3746999999999999,-58.32854689343546
-0.37570000000000003,-59.12078522135989
-0.3766999999999999,-59.95546488828025
-0.37770000000000004,-60.84673300719523
-0.3786999999999999,-61.7662953521075
-0.37970000000000004,-62.74244614901438
-0.3806999999999999,-63.76103828491719
-0.38170000000000004,-64.82207175981598
-0.38269999999999993,-65.96798791270665
-0.38370000000000004,-67.128051178596
-0.38469999999999993,-68.37299712247722
-0.38570000000000004,-69.6320901793571
-0.38669999999999993,-70.96191880123024
-0.38770000000000004,-72.33418876209933
-0.38869999999999993,-73.76304717496302
-0.38970000000000005,-75.23434692682265
-0.39069999999999994,-76.67735245268499
-0.39170000000000005,-78.13450509154598
-0.39269999999999994,-79.59165773040696
-0.39370000000000005,-81.06295748226661
-0.39469999999999994,-82.54840434712489
-0.39570000000000005,-84.01970409898453
-0.39669999999999994,-85.46270962484687
-0.39770000000000005,-86.9057151507092
-0.39869999999999994,-88.37701490256885
-0.39970000000000006,-89.84831465442848
-0.40069999999999995,-91.24887884129487
-0.40170000000000006,-92.6352959151626
-0.40269999999999995,-94.03586010202899
-0.40370000000000006,-95.43642428889537
-0.40469999999999995,-96.87942981475771
-0.40570000000000006,-98.2234055496295
-0.40669999999999995,-99.56738128450128
-0.40770000000000006,-100.91135701937307
-0.40869999999999995,-102.24118564124619
-0.40970000000000006,-103.54272003712204
-0.41069999999999995,-104.81596020700057
-0.41170000000000007,-106.11749460287639
-0.41269999999999996,-107.41902899875224
-0.41370000000000007,-108.74885762062537
-0.41469999999999996,-110.02209779050389
-0.41570000000000007,-111.38022063837434
-0.41669999999999996,-112.65346080825286
-0.41770000000000007,-113.92670097813141
-0.41869999999999996,-115.18579403501128
-0.4197000000000001,-116.30341596190465
-0.42069999999999996,-117.53421479278724
-0.4217000000000001,-118.77916073666849
-0.42269999999999996,-120.03825379354835
-0.4237000000000001,-121.31149396342688
-0.42469999999999997,-122.58473413330543
-0.4257000000000001,-123.85797430318398
-0.42669999999999997,-124.90486066508409
-0.4277000000000001,-126.13565949596666
-0.42869999999999997,-127.3523112138506
-0.4297000000000001,-128.55481581873588
-0.43069999999999997,-129.79976176261712
-0.4317000000000001,-131.04470770649834
-0.4327,-132.2896536503796
-0.4337000000000001,-133.5770409332568
-0.4347,-134.77954553814206
-0.4357000000000001,-136.0103443690246
-0.4367,-137.19870186091126
-0.4377000000000001,-138.585118934779
-0.4387,-139.77347642666564
-0.4397000000000001,-140.83450990156442
-0.4407,-142.03701450644968
-0.4417000000000001,-142.8858412863687
-0.4427,-143.0273124163552
-0.4437000000000001,-143.0273124163552
-0.4447,-143.0273124163552
-0.4457000000000001,-143.0273124163552
-0.4467,-143.0273124163552
-0.4477000000000001,-143.0273124163552
-0.4487,-143.0273124163552
-0.4497000000000001,-143.0273124163552
-0.4507,-143.0273124163552
-0.4517000000000001,-143.0273124163552
-0.4527,-143.0273124163552
-0.4537000000000001,-143.0273124163552
-0.4547,-143.0273124163552
-0.4557000000000001,-143.0273124163552
-0.4567,-143.0273124163552
-0.4577000000000001,-143.0273124163552
-0.4587,-143.0273124163552
-0.4597000000000001,-143.0273124163552
-0.4607,-143.0273124163552
-0.4617000000000001,-143.0273124163552
-0.4627,-143.0273124163552
-0.4637000000000001,-143.0273124163552
-0.4647,-143.0273124163552
-0.4657000000000001,-143.0273124163552
-0.4667,-143.0273124163552
-0.4677000000000001,-143.0273124163552
-0.4687,-143.0273124163552
-0.4697000000000001,-143.0273124163552
-0.4707,-143.0273124163552
-0.4717000000000001,-143.0273124163552
-0.4727,-143.0273124163552
-0.4737000000000001,-143.0273124163552
-0.4747,-143.0273124163552
-0.4757000000000001,-143.0273124163552
-0.4767,-143.0273124163552
-0.4777000000000001,-143.0273124163552
-0.4787,-143.0273124163552
-0.4797000000000001,-143.0273124163552
-0.4807,-143.0273124163552
-0.48170000000000013,-143.0273124163552
-0.4827,-143.0273124163552
-0.48370000000000013,-143.0273124163552
-0.4847,-143.0273124163552
-0.48570000000000013,-143.0273124163552
-0.4867,-143.0273124163552
-0.48570000000000013,-143.0273124163552
-0.4847,-143.0273124163552
-0.48370000000000013,-143.0273124163552
-0.4827,-143.0273124163552
-0.48170000000000013,-143.0273124163552
-0.4807,-143.0273124163552
-0.4797000000000001,-143.0273124163552
-0.4787,-143.0273124163552
-0.4777000000000001,-143.0273124163552
-0.4767,-143.0273124163552
-0.4757000000000001,-143.0273124163552
-0.4747,-143.0273124163552
-0.4737000000000001,-143.0273124163552
-0.4727,-143.0273124163552
-0.4717000000000001,-143.0273124163552
-0.4707,-143.0273124163552
-0.4697000000000001,-143.0273124163552
-0.4687,-143.0273124163552
-0.4677000000000001,-143.0273124163552
-0.4667,-143.0273124163552
-0.4657000000000001,-143.0273124163552
-0.4647,-143.0273124163552
