Potential V vs RHE, Current mA cm-2
0.013299999999999867,5.558400697169729
0.012299999999999978,4.04183018371441
0.011299999999999866,2.734636942639116
0.010299999999999976,1.54486473945262
0.009299999999999864,0.5422588412382686
0.008299999999999974,-0.34787750863681255
0.007299999999999862,-1.2605077681797476
0.006299999999999972,-2.0343548492059225
0.00529999999999986,-2.706342716641815
0.0042999999999999705,-3.434919036072309
0.0032999999999998586,-4.118224593907121
0.0022999999999999687,-4.668547289554621
0.0012999999999998568,-5.221699407801851
0.00029999999999996696,-5.7974869068469195
-0.000700000000000145,-6.31385653129766
-0.0017000000000000348,-6.820323176649342
-0.0027000000000001467,-7.340936934999675
-0.0037000000000000366,-7.7978886848560816
-0.0047000000000001485,-8.179860735819641
-0.005700000000000038,-8.63681248567605
-0.00670000000000015,-9.099423080731917
-0.00770000000000004,-9.434709658799928
-0.008700000000000152,-9.830828822762141
-0.009700000000000042,-10.273633459619896
-0.010700000000000154,-10.62023772808683
-0.011700000000000044,-10.939962481856329
-0.012700000000000156,-11.357302315316513
-0.013700000000000045,-11.753421479278725
-0.014700000000000157,-12.084463923447142
-0.015700000000000047,-12.46785068571057
-0.01670000000000016,-12.830016778476018
-0.01770000000000005,-13.08325010115186
-0.01870000000000016,-13.40014543232163
-0.01970000000000005,-13.825973533581003
-0.020700000000000163,-14.132965885651718
-0.021700000000000053,-14.373466806628771
-0.022700000000000164,-14.67055617960043
-0.023700000000000054,-14.953498439573437
-0.024700000000000166,-15.193999360550496
-0.025700000000000056,-15.561824298515406
-0.026700000000000168,-15.929649236480316
-0.027700000000000058,-16.19844438345467
-0.02870000000000017,-16.46723953042903
-0.02970000000000006,-16.792623129397985
-0.03070000000000017,-17.061418276372343
-0.03170000000000006,-17.386801875341302
-0.03270000000000017,-17.797068152302163
-0.03370000000000006,-18.06586329927652
-0.034700000000000175,-18.23562865526032
-0.035700000000000065,-18.49027668923603
-0.03670000000000018,-18.815660288204988
-0.03770000000000007,-19.098602548177997
-0.03870000000000018,-19.423986147146955
-0.03970000000000007,-19.69278129412131
-0.04070000000000018,-19.862546650105116
-0.04170000000000007,-20.06060623208622
-0.04270000000000018,-20.44257828304978
-0.04370000000000007,-20.838697447011988
-0.044700000000000184,-21.121639706984997
-0.045700000000000074,-21.418729079956652
-0.046700000000000186,-21.701671339929664
-0.047700000000000076,-21.92802514790807
-0.04870000000000019,-22.239261633878378
-0.04970000000000008,-22.536351006850033
-0.05070000000000019,-22.748557701829792
-0.05170000000000008,-22.974911509808198
-0.05270000000000019,-23.314442221775803
-0.05370000000000008,-23.55494314275286
-0.05470000000000019,-23.767149837732617
-0.05570000000000008,-24.035944984706973
-0.056700000000000195,-24.37547569667458
-0.057700000000000085,-24.686712182644893
-0.058700000000000196,-25.026242894612498
-0.059700000000000086,-25.36577360658011
-0.0607000000000002,-25.634568753554465
-0.06170000000000009,-25.91751101352747
-0.0627000000000002,-26.22874749949778
-0.06370000000000009,-26.440954194477534
-0.0647000000000002,-26.62486666345999
-0.06570000000000009,-26.907808923433
-0.0667000000000002,-27.14830984441005
-0.0677000000000001,-27.261486748399253
-0.0687000000000002,-27.445399217381713
-0.0697000000000001,-27.700047251357418
-0.07070000000000021,-27.954695285333123
-0.0717000000000001,-28.265931771303435
-0.07270000000000021,-28.647903822266994
-0.0737000000000001,-28.959140308237306
-0.07470000000000021,-29.199641229214354
-0.0757000000000001,-29.55331905418062
-0.07670000000000021,-29.850408427152274
-0.0777000000000001,-30.02017378313608
-0.07870000000000021,-30.260674704113132
-0.0797000000000001,-30.529469851087494
-0.08070000000000022,-30.670940981073993
-0.0817000000000001,-30.79826499806185
-0.08270000000000022,-30.982177467044306
-0.08370000000000011,-31.19438416202406
-0.08470000000000022,-31.37829663100651
-0.08570000000000011,-31.703680229975475
-0.08670000000000022,-31.972475376949827
-0.08770000000000011,-32.14224073293363
-0.08870000000000022,-32.41103587990799
-0.08970000000000011,-32.807155043870196
-0.09070000000000022,-33.160832868836465
-0.09170000000000011,-33.41548090281216
-0.09270000000000023,-33.670128936787876
-0.09370000000000012,-33.85404140577033
-0.09470000000000023,-33.99551253575683
-0.09570000000000012,-34.25016056973254
-0.09670000000000023,-34.51895571670689
-0.09770000000000012,-34.6604268466934
-0.09870000000000023,-34.717015298688004
-0.09970000000000012,-34.81604508967855
-0.10070000000000023,-34.9150748806691
-0.10170000000000012,-35.21216425364076
-0.10270000000000024,-35.650724756598926
-0.10370000000000013,-35.87707856457733
-0.10470000000000024,-35.97610835556789
-0.10570000000000013,-36.16002082455034
-0.10670000000000024,-36.41466885852605
-0.10770000000000013,-36.768346683492304
-0.10870000000000024,-37.107877395459916
-0.10970000000000013,-37.34837831643697
-0.11070000000000024,-37.43326099442887
-0.11170000000000013,-37.57473212441538
-0.11270000000000002,-37.84352727138973
-0.11370000000000013,-37.98499840137623
-0.11470000000000002,-38.02743974037218
-0.11570000000000014,-38.18305798335734
-0.11670000000000003,-38.3669704523398
-0.11770000000000014,-38.43770601733305
-0.11870000000000003,-38.607471373316855
-0.11970000000000014,-38.86211940729255
-0.12070000000000003,-39.173355893262865
-0.12170000000000014,-39.49873949223183
-0.12270000000000003,-39.75338752620753
-0.12370000000000014,-39.85241731719808
-0.12470000000000003,-39.90900576919269
-0.12570000000000014,-40.31927204615355
-0.12670000000000003,-40.729538323114404
-0.12770000000000015,-40.814421001106304
-0.12870000000000004,-40.814421001106304
-0.12970000000000015,-40.88515656609956
-0.13070000000000004,-40.91345079209687
-0.13170000000000015,-41.097363261079316
-0.13270000000000004,-41.352011295055014
-0.13370000000000015,-41.43689397304693
-0.13470000000000004,-41.43689397304693
-0.13570000000000015,-41.620806442029384
-0.13670000000000004,-41.87545447600508
-0.13770000000000016,-41.97448426699564
-0.13870000000000005,-42.158396735978094
-0.13970000000000016,-42.4413389959511
-0.14070000000000005,-42.625251464933555
-0.14170000000000016,-42.72428125592411
-0.14270000000000005,-42.93648795090387
-0.14370000000000016,-43.077959080890366
-0.14470000000000005,-43.23357732387552
-0.14570000000000016,-43.44578401885527
-0.14670000000000005,-43.643843600836384
-0.14770000000000016,-43.629696487837734
-0.14870000000000005,-43.629696487837734
-0.14970000000000017,-43.77116761782423
-0.15070000000000006,-43.99752142580264
-0.15170000000000017,-44.195581007783744
-0.15270000000000006,-44.36534636376755
-0.15370000000000017,-44.3511992507689
-0.15470000000000006,-44.3229050247716
-0.15570000000000017,-44.648288623740555
-0.15670000000000006,-45.044407787702774
-0.15770000000000017,-45.12929046569467
-0.15870000000000006,-45.10099623969737
-0.15970000000000018,-45.07270201370007
-0.16070000000000007,-45.07270201370007
-0.16170000000000018,-45.35564427367308
-0.16270000000000007,-45.666880759643384
-0.16370000000000018,-45.73761632463664
-0.16470000000000007,-45.76591055063393
-0.16570000000000018,-45.963970132615046
-0.16670000000000007,-46.2610595055867
-0.16770000000000018,-46.30350084458265
-0.16870000000000007,-46.37423640957591
-0.16970000000000018,-46.501560426563756
-0.17070000000000007,-46.529854652561056
-0.17170000000000019,-46.4874133135651
-0.17270000000000008,-46.501560426563756
-0.1737000000000002,-46.586443104555656
-0.17470000000000008,-46.79864979953541
-0.1757000000000002,-47.10988628550572
-0.17670000000000008,-47.23721030249357
-0.1777000000000002,-47.20891607649628
-0.17870000000000008,-47.180621850498966
-0.1797000000000002,-47.435269884474685
-0.18070000000000008,-47.71821214444768
-0.1817000000000002,-47.81724193543825
-0.18270000000000008,-47.84553616143554
-0.1837000000000002,-47.87383038743284
-0.1847000000000001,-47.95871306542474
-0.1857000000000002,-48.100184195411245
-0.1867000000000001,-48.057742856415295
-0.1877000000000002,-47.94456595242609
-0.1887000000000001,-47.93041883942744
-0.1897000000000002,-47.987007291422046
-0.1907000000000001,-47.91627172642879
-0.1917000000000001,-47.94456595242609
-0.19269999999999998,-48.156772647405845
-0.1937000000000001,-48.36897934238561
-0.19469999999999998,-48.62362737636131
-0.1957000000000001,-48.84998118433972
-0.19669999999999999,-48.89242252333566
-0.1977000000000001,-48.80753984534376
-0.1987,-48.991452314326224
-0.1997000000000001,-49.35927725229113
-0.2007,-49.40171859128708
-0.2017000000000001,-49.26024746130057
-0.2027,-49.14707055731138
-0.2037000000000001,-49.062187879319474
-0.2047,-49.13292344431272
-0.2057000000000001,-49.24610034830193
-0.2067,-49.21780612230463
-0.2077000000000001,-48.93486386233162
-0.2087,-48.76509850634781
-0.2097000000000001,-48.991452314326224
-0.2107,-49.28854168729788
-0.2117000000000001,-49.48660126927898
-0.2127,-49.543189721273585
-0.2137000000000001,-49.543189721273585
-0.2147,-49.444159930283035
-0.2157000000000001,-49.78369064225064
-0.2167,-50.0807800152223
-0.21770000000000012,-50.0807800152223
-0.2187,-49.967603111233096
-0.21970000000000012,-49.967603111233096
-0.2207,-49.95345599823444
-0.22170000000000012,-49.86857332024254
-0.2227,-49.75539641625335
-0.22370000000000012,-49.52904260827494
-0.2247,-49.34513013929248
-0.22570000000000012,-49.34513013929248
-0.2267,-49.373424365289786
-0.22770000000000012,-49.373424365289786
-0.22870000000000001,-49.444159930283035
-0.22970000000000013,-50.29298671020206
-0.23070000000000002,-51.26913750710893
-0.23170000000000013,-51.14181349012107
-0.23270000000000002,-51.410608637095436
-0.23370000000000013,-51.43890286309273
-0.23470000000000002,-51.65110955807249
-0.23570000000000013,-51.63696244507384
-0.23670000000000002,-51.38231441109813
-0.2376999999999999,-51.35402018510083
-0.23870000000000002,-51.580373993079235
-0.2396999999999999,-51.52378554108463
-0.24070000000000003,-51.18425482911703
-0.24169999999999991,-51.000342360134574
-0.24270000000000003,-51.000342360134574
-0.24369999999999992,-50.957901021138625
-0.24470000000000003,-50.73154721316022
-0.24569999999999992,-50.67495876116561
-0.24670000000000003,-50.43445784018856
-0.24769999999999992,-50.06663290222365
-0.24870000000000003,-49.98175022423175
-0.24969999999999992,-50.179809806212845
-0.25070000000000003,-50.12322135421825
-0.2516999999999999,-50.010044450229046
-0.25270000000000004,-50.06663290222365
-0.2536999999999999,-50.06663290222365
-0.25470000000000004,-49.967603111233096
-0.2556999999999999,-50.094927128220945
-0.25670000000000004,-50.26469248420475
-0.25769999999999993,-50.1939569192115
-0.25870000000000004,-49.939308885235796
-0.25969999999999993,-49.9110146592385
-0.26070000000000004,-49.925161772237146
-0.26169999999999993,-50.0807800152223
-0.26270000000000004,-50.20810403221015
-0.26369999999999993,-50.109074241219595
-0.26470000000000005,-49.85442620724389
-0.26569999999999994,-49.72710219025603
-0.26670000000000005,-49.86857332024254
-0.26769999999999994,-49.995897337230396
-0.26870000000000005,-50.010044450229046
-0.26969999999999994,-49.79783775524929
-0.27070000000000005,-49.458307043281685
-0.27169999999999994,-49.33098302629383
-0.27270000000000005,-49.59977817326819
-0.27369999999999994,-49.72710219025603
-0.27470000000000006,-49.59977817326819
-0.27569999999999995,-49.557336834272235
-0.27670000000000006,-49.58563106026953
-0.27769999999999995,-49.628072399265484
-0.27870000000000006,-49.68466085126009
-0.27969999999999995,-49.67051373826144
-0.28070000000000006,-49.59977817326819
-0.28169999999999995,-49.571483947270885
-0.28270000000000006,-49.58563106026953
-0.28369999999999995,-49.50074838227763
-0.28470000000000006,-49.34513013929248
-0.28569999999999995,-49.41586570428573
-0.28670000000000007,-49.571483947270885
-0.28769999999999996,-49.571483947270885
-0.28870000000000007,-49.557336834272235
-0.28969999999999996,-49.543189721273585
-0.29070000000000007,-49.48660126927898
-0.29169999999999996,-49.628072399265484
-0.29270000000000007,-49.89686754623985
-0.29369999999999996,-49.95345599823444
-0.2947000000000001,-49.78369064225064
-0.29569999999999996,-49.69880796425874
-0.2967000000000001,-49.628072399265484
-0.29769999999999996,-49.71295507725739
-0.2987000000000001,-49.925161772237146
-0.29969999999999997,-49.98175022423175
-0.3007000000000001,-49.925161772237146
-0.30169999999999997,-49.84027909424525
-0.3027000000000001,-50.052485789224995
-0.30369999999999997,-50.15151558021555
-0.3047000000000001,-50.094927128220945
-0.30569999999999997,-50.20810403221015
-0.3067000000000001,-50.30713382320071
-0.3077,-50.335428049198
-0.3087000000000001,-50.39201650119261
-0.3097,-50.46275206618586
-0.3107000000000001,-50.51934051818046
-0.3117,-50.66081164816696
-0.3127000000000001,-50.915459682142675
-0.3137,-50.97204813413727
-0.3147000000000001,-50.915459682142675
-0.3157,-50.943753908139975
-0.3167000000000001,-51.113519264123774
-0.3177,-51.33987307210218
-0.3187000000000001,-51.52378554108463
-0.3197,-51.63696244507384
-0.3207000000000001,-51.509638428085985
-0.3217,-51.43890286309273
-0.3227000000000001,-51.80672780105764
-0.3237,-52.14625851302525
-0.3247000000000001,-52.17455273902255
-0.3257,-52.047228722034696
-0.3267000000000001,-52.132111400026595
-0.3277,-52.30187675601041
-0.3287000000000001,-52.57067190298476
-0.3297,-53.051673744938874
-0.3307000000000001,-53.23558621392132
-0.3317,-53.30632177891458
-0.3327000000000001,-53.405351569905136
-0.3337,-53.56096981289029
-0.3347000000000001,-53.91464763785655
-0.3357,-54.324913914817415
-0.3367000000000001,-54.409796592809315
-0.3377,-54.25417834982416
-0.3387000000000001,-54.2117370108282
-0.3397,-54.480532157802564
-0.3407000000000001,-54.904945547762075
-0.3417,-55.07471090374588
-0.3427000000000001,-55.11715224274183
-0.3437,-55.17374069473642
-0.3447000000000001,-55.31521182472294
-0.3457,-55.626448310693235
-0.3467000000000001,-55.980126135659496
-0.3477,-56.29136262162981
-0.3487000000000001,-56.58845199460147
-0.3497,-56.786511576582576
-0.3507000000000001,-56.89968848057178
-0.3517,-57.22507207954074
-0.3527000000000001,-57.8333979384827
-0.3537,-58.18707576344896
-0.3547000000000001,-58.15878153745166
-0.3557,-58.25781132844221
-0.35670000000000013,-58.35684111943277
-0.3577,-58.61148915340847
-0.35870000000000013,-59.050049656366625
-0.3597,-59.36128614233694
-0.36070000000000013,-59.53105149832074
-0.3617,-59.81399375829375
-0.3626999999999999,-60.15352447026136
-0.3637,-60.521349408226264
-0.3646999999999999,-60.67696765121143
-0.3657,-60.93161568518713
-0.3666999999999999,-61.313587736150694
-0.3677,-61.5682357701264
-0.3686999999999999,-61.851178030099405
-0.36970000000000003,-62.20485585506566
-0.3706999999999999,-62.501945228037314
-0.37170000000000003,-62.86977016600223
-0.3726999999999999,-63.13856531297658
-0.37370000000000003,-63.350772007956344
-0.3746999999999999,-63.732744058919906
-0.37570000000000003,-64.213745900874
-0.3766999999999999,-64.53912949984297
-0.37770000000000004,-64.65230640383218
-0.3786999999999999,-64.94939577680383
-0.37970000000000004,-65.45869184475525
-0.3806999999999999,-65.95384079970802
-0.38170000000000004,-66.33581285067157
-0.38269999999999993,-66.60460799764593
-0.38370000000000004,-66.81681469262568
-0.38469999999999993,-67.35440498657438
-0.38570000000000004,-67.99102507151366
-0.38669999999999993,-68.41543846147317
-0.38770000000000004,-68.50032113946509
-0.38869999999999993,-68.76911628643943
-0.38970000000000005,-69.06620565941108
-0.39069999999999994,-69.57550172736251
-0.39170000000000005,-70.12723913430986
-0.39269999999999994,-70.67897654125723
-0.39370000000000005,-70.91947746223428
-0.39469999999999994,-71.13168415721405
-0.39570000000000005,-71.47121486918165
-0.39669999999999994,-72.05124650212633
-0.39770000000000005,-72.80104349105478
-0.39869999999999994,-73.2820453330089
-0.39970000000000006,-73.60742893197786
-0.40069999999999995,-73.81963562695762
-0.40170000000000006,-74.04598943493602
-0.40269999999999995,-74.58357972888473
-0.40370000000000006,-75.36167094381051
-0.40469999999999995,-75.85681989876326
-0.40570000000000006,-76.21049772372953
-0.40669999999999995,-76.47929287070389
-0.40770000000000006,-76.7339409046796
-0.40869999999999995,-77.1017658426445
-0.40970000000000006,-78.03547530055542
-0.41069999999999995,-78.54477136850683
-0.41170000000000007,-78.9550376454677
-0.41269999999999996,-79.36530392242857
-0.41370000000000007,-79.78971731238806
-0.41469999999999996,-80.36974894533273
-0.41570000000000007,-81.26101706424771
-0.41669999999999996,-81.95422560118158
-0.41770000000000007,-82.32205053914649
-0.41869999999999996,-82.67572836411274
-0.4197000000000001,-83.029406189079
-0.42069999999999996,-83.53870225703042
-0.4217000000000001,-84.58558861893054
-0.42269999999999996,-85.36367983385631
-0.4237000000000001,-85.83053456281178
-0.42469999999999997,-86.24080083977263
-0.4257000000000001,-86.86327381171324
-0.42669999999999997,-87.71210059163228
-0.4277000000000001,-88.61751582354589
-0.42869999999999997,-89.40975415147031
-0.4297000000000001,-89.97563867141633
-0.43069999999999997,-90.31516938338393
-0.4317000000000001,-90.93764235532454
-0.4327,-92.05526428221793
-0.4337000000000001,-93.08800353111941
-0.4347,-93.75291784205598
-0.4357000000000001,-94.27636102300605
-0.4367,-94.6300388479723
-0.4377000000000001,-95.08274646392913
-0.4387,-96.65307600677932
-0.4397000000000001,-97.88387483766188
-0.4407,-98.57708337459576
-0.4417000000000001,-99.35517458952152
-0.4427,-100.51523785541086
-0.4437000000000001,-101.76018379929208
-0.4447,-102.53827501421786
-0.4457000000000001,-103.34466045514093
-0.4467,-104.44813526903565
-0.4477000000000001,-105.62234564792364
-0.4487,-106.72582046181837
-0.4497000000000001,-107.75855971071984
-0.4507,-108.90447586361051
-0.4517000000000001,-110.40406984146746
-0.4527,-112.10172340130552
-0.4537000000000001,-113.70034717015301
-0.4547,-115.08676424402073
-0.4557000000000001,-116.40244575289522
-0.4567,-117.77471571376431
-0.4577000000000001,-119.4299279346064
-0.4587,-121.35393530242285
-0.4597000000000001,-123.12232442725416
-0.4607,-124.45215304912726
-0.4617000000000001,-125.6122163150166
-0.4627,-126.61666133792076
-0.4637000000000001,-128.6396984967278
-0.4647,-130.93153080250914
-0.4657000000000001,-132.798949718331
-0.4667,-134.39757348717848
-0.4677000000000001,-136.09522704701655
-0.4687,-138.28802956180735
-0.4697000000000001,-140.5515676415914
-0.4707,-142.17848563643616
-0.4717000000000001,-143.87613919627424
-0.4727,-146.1396772760583
-0.4737000000000001,-148.40321535584232
-0.4747,-150.38381117565342
-0.4757000000000001,-152.36440699546444
-0.4767,-154.3450028152755
-0.4777000000000001,-156.60854089505958
-0.4787,-159.29649236480313
-0.4797000000000001,-161.84297270456022
-0.4807,-163.96503965435775
-0.48170000000000013,-165.94563547416882
-0.4827,-168.06770242396635
-0.48370000000000013,-170.47271163373694
-0.4847,-173.01919197349397
-0.48570000000000013,-175.28273005327804
-0.4867,-175.42420118326456
-0.48570000000000013,-173.86801875341303
-0.4847,-172.73624971352098
-0.48370000000000013,-172.17036519357498
-0.4827,-171.46300954364247
-0.48170000000000013,-170.47271163373694
-0.4807,-169.19947146385837
-0.4797000000000001,-167.50181790402033
-0.4787,-166.51151999411482
-0.4777000000000001,-166.22857773414182
-0.4767,-165.6626932141958
-0.4757000000000001,-164.38945304431726
-0.4747,-162.97474174445222
-0.4737000000000001,-161.9844438345467
-0.4727,-161.1356170546277
-0.4717000000000001,-160.00384801473567
-0.4707,-158.4476655848841
-0.4697000000000001,-157.17442541500557
-0.4687,-155.90118524512707
-0.4677000000000001,-154.486473945262
-0.4667,-153.07176264539694
-0.4657000000000001,-151.7985224755184
-0.4647,-150.5252823056399
-0.4637000000000001,-149.8179266557074
