Potential V vs RHE, Current mA cm-2
0.013299999999999867,-0.08943804837746762
0.012299999999999978,-1.0490084288499246
0.011299999999999866,-1.7910245056291363
0.010299999999999976,-2.4446211261667834
0.009299999999999864,-2.968064307116847
0.008299999999999974,-3.403795387475278
0.007299999999999862,-3.840941179133574
0.006299999999999972,-4.1889601589003735
0.00529999999999986,-4.450681749375406
0.0042999999999999705,-4.712403339850438
0.0032999999999998586,-4.9302688800296535
0.0022999999999999687,-5.149549131508733
0.0012999999999998568,-5.367414671687949
0.00029999999999996696,-5.5414241615713475
-0.000700000000000145,-5.672992312458796
-0.0017000000000000348,-5.847001802342197
-0.0027000000000001467,-5.9347139029338285
-0.0037000000000000366,-6.064867342521412
-0.0047000000000001485,-6.152579443113044
-0.005700000000000038,-6.282732882700628
-0.00670000000000015,-6.37044498329226
-0.00770000000000004,-6.458157083883892
-0.008700000000000152,-6.54445447317566
-0.009700000000000042,-6.632166573767292
-0.010700000000000154,-6.719878674358924
-0.011700000000000044,-6.806176063650692
-0.012700000000000156,-6.893888164242324
-0.013700000000000045,-6.981600264833956
-0.014700000000000157,-7.024041603829907
-0.015700000000000047,-7.067897654125724
-0.01670000000000016,-7.111753704421539
-0.01770000000000005,-7.155609754717355
-0.01870000000000016,-7.199465805013171
-0.01970000000000005,-7.243321855308987
-0.020700000000000163,-7.28576319430494
-0.021700000000000053,-7.28576319430494
-0.022700000000000164,-7.329619244600755
-0.023700000000000054,-7.37347529489657
-0.024700000000000166,-7.4173313451923875
-0.025700000000000056,-7.50504344578402
-0.026700000000000168,-7.50504344578402
-0.027700000000000058,-7.5474847847799715
-0.02870000000000017,-7.591340835075788
-0.02970000000000006,-7.591340835075788
-0.03070000000000017,-7.635196885371603
-0.03170000000000006,-7.635196885371603
-0.03270000000000017,-7.679052935667419
-0.03370000000000006,-7.679052935667419
-0.034700000000000175,-7.722908985963235
-0.035700000000000065,-7.722908985963235
-0.03670000000000018,-7.722908985963235
-0.03770000000000007,-7.7653503249591855
-0.03870000000000018,-7.809206375255003
-0.03970000000000007,-7.809206375255003
-0.04070000000000018,-7.809206375255003
-0.04170000000000007,-7.853062425550818
-0.04270000000000018,-7.853062425550818
-0.04370000000000007,-7.853062425550818
-0.044700000000000184,-7.853062425550818
-0.045700000000000074,-7.896918475846635
-0.046700000000000186,-7.896918475846635
-0.047700000000000076,-7.940774526142452
-0.04870000000000019,-7.940774526142452
-0.04970000000000008,-7.940774526142452
-0.05070000000000019,-7.984630576438266
-0.05170000000000008,-7.984630576438266
-0.05270000000000019,-7.984630576438266
-0.05370000000000008,-7.984630576438266
-0.05470000000000019,-7.984630576438266
-0.05570000000000008,-7.984630576438266
-0.056700000000000195,-7.984630576438266
-0.057700000000000085,-8.027071915434218
-0.058700000000000196,-8.027071915434218
-0.059700000000000086,-8.070927965730034
-0.0607000000000002,-8.070927965730034
-0.06170000000000009,-8.070927965730034
-0.0627000000000002,-8.070927965730034
-0.06370000000000009,-8.11478401602585
-0.0647000000000002,-8.070927965730034
-0.06570000000000009,-8.11478401602585
-0.0667000000000002,-8.070927965730034
-0.0677000000000001,-8.070927965730034
-0.0687000000000002,-8.11478401602585
-0.0697000000000001,-8.11478401602585
-0.07070000000000021,-8.11478401602585
-0.0717000000000001,-8.158640066321666
-0.07270000000000021,-8.158640066321666
-0.0737000000000001,-8.158640066321666
-0.07470000000000021,-8.158640066321666
-0.0757000000000001,-8.158640066321666
-0.07670000000000021,-8.158640066321666
-0.0777000000000001,-8.158640066321666
-0.07870000000000021,-8.158640066321666
-0.0797000000000001,-8.158640066321666
-0.08070000000000022,-8.158640066321666
-0.0817000000000001,-8.202496116617484
-0.08270000000000022,-8.202496116617484
-0.08370000000000011,-8.246352166913299
-0.08470000000000022,-8.246352166913299
-0.08570000000000011,-8.246352166913299
-0.08670000000000022,-8.246352166913299
-0.08770000000000011,-8.288793505909249
-0.08870000000000022,-8.288793505909249
-0.08970000000000011,-8.246352166913299
-0.09070000000000022,-8.288793505909249
-0.09170000000000011,-8.288793505909249
-0.09270000000000023,-8.246352166913299
-0.09370000000000012,-8.246352166913299
-0.09470000000000023,-8.288793505909249
-0.09570000000000012,-8.288793505909249
-0.09670000000000023,-8.288793505909249
-0.09770000000000012,-8.288793505909249
-0.09870000000000023,-8.288793505909249
-0.09970000000000012,-8.288793505909249
-0.10070000000000023,-8.288793505909249
-0.10170000000000012,-8.288793505909249
-0.10270000000000024,-8.288793505909249
-0.10370000000000013,-8.288793505909249
-0.10470000000000024,-8.288793505909249
-0.10570000000000013,-8.288793505909249
-0.10670000000000024,-8.288793505909249
-0.10770000000000013,-8.332649556205066
-0.10870000000000024,-8.332649556205066
-0.10970000000000013,-8.332649556205066
-0.11070000000000024,-8.332649556205066
-0.11170000000000013,-8.332649556205066
-0.11270000000000002,-8.332649556205066
-0.11370000000000013,-8.332649556205066
-0.11470000000000002,-8.332649556205066
-0.11570000000000014,-8.332649556205066
-0.11670000000000003,-8.332649556205066
-0.11770000000000014,-8.332649556205066
-0.11870000000000003,-8.376505606500881
-0.11970000000000014,-8.376505606500881
-0.12070000000000003,-8.376505606500881
-0.12170000000000014,-8.376505606500881
-0.12270000000000003,-8.332649556205066
-0.12370000000000014,-8.332649556205066
-0.12470000000000003,-8.332649556205066
-0.12570000000000014,-8.332649556205066
-0.12670000000000003,-8.376505606500881
-0.12770000000000015,-8.332649556205066
-0.12870000000000004,-8.376505606500881
-0.12970000000000015,-8.376505606500881
-0.13070000000000004,-8.376505606500881
-0.13170000000000015,-8.376505606500881
-0.13270000000000004,-8.4203616567967
-0.13370000000000015,-8.4203616567967
-0.13470000000000004,-8.4203616567967
-0.13570000000000015,-8.376505606500881
-0.13670000000000004,-8.376505606500881
-0.13770000000000016,-8.376505606500881
-0.13870000000000005,-8.332649556205066
-0.13970000000000016,-8.376505606500881
-0.14070000000000005,-8.376505606500881
-0.14170000000000016,-8.376505606500881
-0.14270000000000005,-8.376505606500881
-0.14370000000000016,-8.4203616567967
-0.14470000000000005,-8.4203616567967
-0.14570000000000016,-8.4203616567967
-0.14670000000000005,-8.464217707092514
-0.14770000000000016,-8.4203616567967
-0.14870000000000005,-8.4203616567967
-0.14970000000000017,-8.4203616567967
-0.15070000000000006,-8.4203616567967
-0.15170000000000017,-8.4203616567967
-0.15270000000000006,-8.4203616567967
-0.15370000000000017,-8.464217707092514
-0.15470000000000006,-8.464217707092514
-0.15570000000000017,-8.464217707092514
-0.15670000000000006,-8.464217707092514
-0.15770000000000017,-8.464217707092514
-0.15870000000000006,-8.464217707092514
-0.15970000000000018,-8.508073757388331
-0.16070000000000007,-8.508073757388331
-0.16170000000000018,-8.508073757388331
-0.16270000000000007,-8.464217707092514
-0.16370000000000018,-8.508073757388331
-0.16470000000000007,-8.464217707092514
-0.16570000000000018,-8.508073757388331
-0.16670000000000007,-8.508073757388331
-0.16770000000000018,-8.508073757388331
-0.16870000000000007,-8.508073757388331
-0.16970000000000018,-8.508073757388331
-0.17070000000000007,-8.508073757388331
-0.17170000000000019,-8.508073757388331
-0.17270000000000008,-8.55051509638428
-0.1737000000000002,-8.508073757388331
-0.17470000000000008,-8.55051509638428
-0.1757000000000002,-8.55051509638428
-0.17670000000000008,-8.55051509638428
-0.1777000000000002,-8.594371146680096
-0.17870000000000008,-8.55051509638428
-0.1797000000000002,-8.594371146680096
-0.18070000000000008,-8.55051509638428
-0.1817000000000002,-8.55051509638428
-0.18270000000000008,-8.55051509638428
-0.1837000000000002,-8.55051509638428
-0.1847000000000001,-8.55051509638428
-0.1857000000000002,-8.55051509638428
-0.1867000000000001,-8.594371146680096
-0.1877000000000002,-8.594371146680096
-0.1887000000000001,-8.638227196975913
-0.1897000000000002,-8.638227196975913
-0.1907000000000001,-8.638227196975913
-0.1917000000000001,-8.638227196975913
-0.19269999999999998,-8.68208324727173
-0.1937000000000001,-8.638227196975913
-0.19469999999999998,-8.638227196975913
-0.1957000000000001,-8.68208324727173
-0.19669999999999999,-8.68208324727173
-0.1977000000000001,-8.68208324727173
-0.1987,-8.68208324727173
-0.1997000000000001,-8.725939297567548
-0.2007,-8.725939297567548
-0.2017000000000001,-8.725939297567548
-0.2027,-8.725939297567548
-0.2037000000000001,-8.769795347863363
-0.2047,-8.769795347863363
-0.2057000000000001,-8.769795347863363
-0.2067,-8.725939297567548
-0.2077000000000001,-8.725939297567548
-0.2087,-8.769795347863363
-0.2097000000000001,-8.769795347863363
-0.2107,-8.812236686859313
-0.2117000000000001,-8.85609273715513
-0.2127,-8.85609273715513
-0.2137000000000001,-8.85609273715513
-0.2147,-8.899948787450944
-0.2157000000000001,-8.899948787450944
-0.2167,-8.899948787450944
-0.21770000000000012,-8.899948787450944
-0.2187,-8.899948787450944
-0.21970000000000012,-8.899948787450944
-0.2207,-8.899948787450944
-0.22170000000000012,-8.943804837746763
-0.2227,-8.943804837746763
-0.22370000000000012,-8.987660888042578
-0.2247,-9.031516938338395
-0.22570000000000012,-9.031516938338395
-0.2267,-9.031516938338395
-0.22770000000000012,-8.987660888042578
-0.22870000000000001,-9.031516938338395
-0.22970000000000013,-9.031516938338395
-0.23070000000000002,-9.073958277334345
-0.23170000000000013,-9.073958277334345
-0.23270000000000002,-9.073958277334345
-0.23370000000000013,-9.11781432763016
-0.23470000000000002,-9.11781432763016
-0.23570000000000013,-9.161670377925978
-0.23670000000000002,-9.205526428221793
-0.2376999999999999,-9.205526428221793
-0.23870000000000002,-9.24938247851761
-0.2396999999999999,-9.24938247851761
-0.24070000000000003,-9.24938247851761
-0.24169999999999991,-9.24938247851761
-0.24270000000000003,-9.293238528813426
-0.24369999999999992,-9.293238528813426
-0.24470000000000003,-9.335679867809377
-0.24569999999999992,-9.335679867809377
-0.24670000000000003,-9.423391968401008
-0.24769999999999992,-9.423391968401008
-0.24870000000000003,-9.467248018696827
-0.24969999999999992,-9.467248018696827
-0.25070000000000003,-9.467248018696827
-0.2516999999999999,-9.511104068992642
-0.25270000000000004,-9.511104068992642
-0.2536999999999999,-9.55496011928846
-0.25470000000000004,-9.59740145828441
-0.2556999999999999,-9.641257508580225
-0.25670000000000004,-9.685113558876042
-0.25769999999999993,-9.685113558876042
-0.25870000000000004,-9.728969609171857
-0.25969999999999993,-9.772825659467674
-0.26070000000000004,-9.81668170976349
-0.26169999999999993,-9.85912304875944
-0.26270000000000004,-9.902979099055257
-0.26369999999999993,-9.902979099055257
-0.26470000000000005,-9.946835149351072
-0.26569999999999994,-9.946835149351072
-0.26670000000000005,-9.99069119964689
-0.26769999999999994,-10.034547249942705
-0.26870000000000005,-10.078403300238522
-0.26969999999999994,-10.078403300238522
-0.27070000000000005,-10.120844639234473
-0.27169999999999994,-10.164700689530287
-0.27270000000000005,-10.208556739826104
-0.27369999999999994,-10.25241279012192
-0.27470000000000006,-10.296268840417738
-0.27569999999999995,-10.340124890713554
-0.27670000000000006,-10.382566229709504
-0.27769999999999995,-10.42642228000532
-0.27870000000000006,-10.514134380596953
-0.27969999999999995,-10.557990430892769
-0.28070000000000006,-10.644287820184536
-0.28169999999999995,-10.688143870480351
-0.28270000000000006,-10.731999920776168
-0.28369999999999995,-10.731999920776168
-0.28470000000000006,-10.775855971071984
-0.28569999999999995,-10.819712021367803
-0.28670000000000007,-10.906009410659568
-0.28769999999999996,-10.906009410659568
-0.28870000000000007,-10.993721511251199
-0.28969999999999996,-11.037577561547016
-0.29070000000000007,-11.123874950838783
-0.29169999999999996,-11.211587051430415
-0.29270000000000007,-11.255443101726232
-0.29369999999999996,-11.343155202317865
-0.2947000000000001,-11.42945259160963
-0.29569999999999996,-11.473308641905447
-0.2967000000000001,-11.56102074249708
-0.29769999999999996,-11.647318131788847
-0.2987000000000001,-11.73503023238048
-0.29969999999999997,-11.778886282676295
-0.3007000000000001,-11.82274233297211
-0.30169999999999997,-11.909039722263879
-0.3027000000000001,-11.952895772559694
-0.30369999999999997,-12.040607873151327
-0.3047000000000001,-12.12831997374296
-0.30569999999999997,-12.258473413330542
-0.3067000000000001,-12.346185513922174
-0.3077,-12.476338953509758
-0.3087000000000001,-12.56405105410139
-0.3097,-12.651763154693022
-0.3107000000000001,-12.73806054398479
-0.3117,-12.825772644576423
-0.3127000000000001,-12.869628694872238
-0.3137,-12.99978213445982
-0.3147000000000001,-13.087494235051453
-0.3157,-13.175206335643086
-0.3167000000000001,-13.30535977523067
-0.3177,-13.3930718758223
-0.3187000000000001,-13.523225315409885
-0.3197,-13.610937416001518
-0.3207000000000001,-13.698649516593148
-0.3217,-13.828802956180734
-0.3227000000000001,-13.916515056772363
-0.3237,-14.046668496359947
-0.3247000000000001,-14.175407224647667
-0.3257,-14.26028990263957
-0.3267000000000001,-14.401761032626075
-0.3277,-14.529085049613924
-0.3287000000000001,-14.65640906660178
-0.3297,-14.783733083589633
-0.3307000000000001,-14.925204213576137
-0.3317,-15.05252823056399
-0.3327000000000001,-15.179852247551842
-0.3337,-15.307176264539699
-0.3347000000000001,-15.3920589425316
-0.3357,-15.575971411514052
-0.3367000000000001,-15.70329542850191
-0.3377,-15.87306078448571
-0.3387000000000001,-16.014531914472215
-0.3397,-16.184297270456018
-0.3407000000000001,-16.354062626439823
-0.3417,-16.495533756426326
-0.3427000000000001,-16.622857773414182
-0.3437,-16.792623129397985
-0.3447000000000001,-16.919947146385837
-0.3457,-17.103859615368293
-0.3467000000000001,-17.188742293360193
-0.3477,-17.358507649344002
-0.3487000000000001,-17.542420118326454
-0.3497,-17.75462681330621
-0.3507000000000001,-17.924392169290012
-0.3517,-18.10830463827247
-0.3527000000000001,-18.27806999425627
-0.3537,-18.49027668923603
-0.3547000000000001,-18.674189158218486
-0.3557,-18.843954514202288
-0.35670000000000013,-19.01371987018609
-0.3577,-19.155191000172596
-0.35870000000000013,-19.3249563561564
-0.3597,-19.537163051136158
-0.36070000000000013,-19.721075520118614
-0.3617,-19.93328221509837
-0.3626999999999999,-20.202077362072725
-0.3637,-20.414284057052477
-0.3646999999999999,-20.626490752032236
-0.3657,-20.85284456001064
-0.3666999999999999,-21.107492593986347
-0.3677,-21.333846401964752
-0.3686999999999999,-21.54605309694451
-0.36970000000000003,-21.772406904922917
-0.3706999999999999,-21.98461359990267
-0.37170000000000003,-22.15437895588647
-0.3726999999999999,-22.38073276386488
-0.37370000000000003,-22.592939458844636
-0.3746999999999999,-22.819293266823045
-0.37570000000000003,-23.073941300798747
-0.3766999999999999,-23.300295108777156
-0.37770000000000004,-23.55494314275286
-0.3786999999999999,-23.823738289727217
-0.37970000000000004,-24.078386323702922
-0.3806999999999999,-24.34718147067728
-0.38170000000000004,-24.601829504652986
-0.38269999999999993,-24.9130659906233
-0.38370000000000004,-25.167714024599
-0.38469999999999993,-25.43650917157336
-0.38570000000000004,-25.648715866553115
-0.38669999999999993,-25.86092256153287
-0.38770000000000004,-26.129717708507226
-0.38869999999999993,-26.38436574248293
-0.38970000000000005,-26.65316088945729
-0.39069999999999994,-26.907808923433
-0.39170000000000005,-27.176604070407354
-0.39269999999999994,-27.487840556377662
-0.39370000000000005,-27.78492992934932
-0.39469999999999994,-28.05372507632368
-0.39570000000000005,-28.350814449295335
-0.39669999999999994,-28.662050935265643
-0.39770000000000005,-28.91669896924135
-0.39869999999999994,-29.18549411621571
-0.39970000000000006,-29.440142150191413
-0.40069999999999995,-29.751378636161718
-0.40170000000000006,-30.04846800913338
-0.40269999999999995,-30.317263156107735
-0.40370000000000006,-30.571911190083444
-0.40469999999999995,-30.88314767605375
-0.40570000000000006,-31.19438416202406
-0.40669999999999995,-31.49147353499572
-0.40770000000000006,-31.802710020966025
-0.40869999999999995,-32.14224073293363
-0.40970000000000006,-32.45347721890394
-0.41069999999999995,-32.807155043870196
-0.41170000000000007,-33.14668575583781
-0.41269999999999996,-33.50036358080407
-0.41370000000000007,-33.81160006677438
-0.41469999999999996,-34.10868943974604
-0.41570000000000007,-34.41992592571634
-0.41669999999999996,-34.717015298688004
-0.41770000000000007,-35.02825178465831
-0.41869999999999996,-35.38192960962457
-0.4197000000000001,-35.763901660588125
-0.42069999999999996,-36.16002082455034
-0.4217000000000001,-36.5136986495166
-0.42269999999999996,-36.8532293614842
-0.4237000000000001,-37.206907186450465
-0.42469999999999997,-37.60302635041268
-0.4257000000000001,-37.94255706238028
-0.42669999999999997,-38.29623488734655
-0.4277000000000001,-38.692354051308754
-0.42869999999999997,-39.046031876275016
-0.4297000000000001,-39.42800392723857
-0.43069999999999997,-39.78168175220483
-0.4317000000000001,-40.135359577171094
-0.4327,-40.51733162813464
-0.4337000000000001,-40.91345079209687
-0.4347,-41.30956995605907
-0.4357000000000001,-41.74813045901723
-0.4367,-42.087661170984845
-0.4377000000000001,-42.483780334947056
-0.4387,-42.87989949890926
-0.4397000000000001,-43.27601866287147
-0.4407,-43.657990713835034
-0.4417000000000001,-44.054109877797245
-0.4427,-44.45022904175945
-0.4437000000000001,-44.88878954471762
-0.4447,-45.32735004767578
-0.4457000000000001,-45.79420477663124
-0.4467,-46.27520661858535
-0.4477000000000001,-46.67132578254756
-0.4487,-47.10988628550572
-0.4497000000000001,-47.506005449467935
-0.4507,-47.8879775004315
-0.4517000000000001,-48.32653800338966
-0.4527,-48.72265716735186
-0.4537000000000001,-49.16121767031002
-0.4547,-49.59977817326819
-0.4557000000000001,-50.0807800152223
-0.4567,-50.50519340518181
-0.4577000000000001,-50.943753908139975
-0.4587,-51.38231441109813
-0.4597000000000001,-51.82087491405629
-0.4607,-52.2169940780185
-0.4617000000000001,-52.64140746797801
-0.4627,-53.079967970936174
-0.4637000000000001,-53.56096981289029
-0.4647,-54.08441299384035
-0.4657000000000001,-54.52297349679851
-0.4667,-55.003975338752625
-0.4677000000000001,-55.484977180706736
-0.4687,-56.008420361656796
-0.4697000000000001,-56.489422203610914
-0.4707,-56.927982706569075
-0.4717000000000001,-57.408984548523186
-0.4727,-57.8333979384827
-0.4737000000000001,-58.35684111943277
-0.4747,-58.92272563937878
-0.4757000000000001,-59.44616882032884
-0.4767,-59.92717066228296
-0.4777000000000001,-60.32328982624517
-0.4787,-60.67696765121143
-0.4797000000000001,-61.07308681517363
-0.4807,-61.53994154412909
-0.48170000000000013,-61.97850204708726
-0.4827,-62.544386567033264
-0.48370000000000013,-63.11027108697928
-0.4847,-63.59127292893339
-0.48570000000000013,-64.11471610988345
-0.4867,-63.81762673691181
-0.48570000000000013,-62.37462121104946
-0.4847,-61.15796949316553
-0.48370000000000013,-60.11108313126541
-0.4827,-59.14907944735718
-0.48170000000000013,-58.22951710244491
-0.4807,-57.352396096528594
-0.4797000000000001,-56.489422203610914
-0.4787,-55.65474253669055
-0.4777000000000001,-54.834209982768826
-0.4767,-54.1268543328363
-0.4757000000000001,-53.433645795902436
-0.4747,-52.74043725896857
-0.4737000000000001,-52.075522948032
-0.4727,-51.38231441109813
-0.4717000000000001,-50.64666453516831
-0.4707,-49.89686754623985
-0.4697000000000001,-49.16121767031002
-0.4687,-48.51045047237211
-0.4677000000000001,-47.8879775004315
-0.4667,-47.36453431948143
-0.4657000000000001,-46.75620846053947
-0.4647,-46.10544126260155
-0.4637000000000001,-45.497115403659585
-0.4627,-44.93123088371356
-0.4617000000000001,-44.36534636376755
-0.4607,-43.75702050482558
-0.4597000000000001,-43.134547532884966
