Sept. 19, 2024   02:26:51
Cyclic Voltammetry
File: c:/users/guazh/data/20240903_batch_252_500/2024-09-03-exp393\exp393-2024-09-19t02_21_59-h2koh\exp393_cv_50mvs_efin_-1400mv.bin
Data Source:  Experiment
Instrument Model:  CHI760E
Header: CV ran at 50 mVs
Note: 

Init E (V) = -1
High E (V) = -1
Low E (V) = -1.4
Final E (V) = -1
Init P/N = N
Scan Rate (V/s) = 0.05
Segment = 7
Sample Interval (V) = 0.001
Quiet Time (sec) = 60
Sensitivity (A/V) = 0.001
Comp R (ohm) = 2.4

Results:

Channel 1:
Segment 1:

Segment 2:

Segment 3:

Segment 4:

Segment 5:

Segment 6:

Segment 7:

Potential/V, Current/A

-1.000, 1.779e-5
-1.001, 3.302e-5
-1.002, 3.790e-5
-1.003, 4.075e-5
-1.004, 4.325e-5
-1.005, 4.457e-5
-1.006, 4.559e-5
-1.007, 4.715e-5
-1.008, 4.824e-5
-1.009, 4.930e-5
-1.010, 5.012e-5
-1.011, 5.043e-5
-1.012, 5.139e-5
-1.013, 5.202e-5
-1.014, 5.250e-5
-1.015, 5.317e-5
-1.016, 5.313e-5
-1.017, 5.380e-5
-1.018, 5.431e-5
-1.019, 5.460e-5
-1.020, 5.502e-5
-1.021, 5.501e-5
-1.022, 5.532e-5
-1.023, 5.610e-5
-1.024, 5.673e-5
-1.025, 5.671e-5
-1.026, 5.668e-5
-1.027, 5.682e-5
-1.028, 5.731e-5
-1.029, 5.738e-5
-1.030, 5.761e-5
-1.031, 5.768e-5
-1.032, 5.763e-5
-1.033, 5.797e-5
-1.034, 5.849e-5
-1.035, 5.852e-5
-1.036, 5.860e-5
-1.037, 5.873e-5
-1.038, 5.909e-5
-1.039, 5.950e-5
-1.040, 5.934e-5
-1.041, 5.912e-5
-1.042, 5.935e-5
-1.043, 5.975e-5
-1.044, 6.005e-5
-1.045, 6.008e-5
-1.046, 5.982e-5
-1.047, 6.039e-5
-1.048, 6.055e-5
-1.049, 6.093e-5
-1.050, 6.092e-5
-1.051, 6.070e-5
-1.052, 6.089e-5
-1.053, 6.108e-5
-1.054, 6.167e-5
-1.055, 6.155e-5
-1.056, 6.127e-5
-1.057, 6.155e-5
-1.058, 6.188e-5
-1.059, 6.218e-5
-1.060, 6.246e-5
-1.061, 6.221e-5
-1.062, 6.236e-5
-1.063, 6.290e-5
-1.064, 6.294e-5
-1.065, 6.286e-5
-1.066, 6.302e-5
-1.067, 6.314e-5
-1.068, 6.370e-5
-1.069, 6.371e-5
-1.070, 6.378e-5
-1.071, 6.406e-5
-1.072, 6.391e-5
-1.073, 6.454e-5
-1.074, 6.484e-5
-1.075, 6.498e-5
-1.076, 6.496e-5
-1.077, 6.472e-5
-1.078, 6.531e-5
-1.079, 6.562e-5
-1.080, 6.564e-5
-1.081, 6.559e-5
-1.082, 6.595e-5
-1.083, 6.629e-5
-1.084, 6.674e-5
-1.085, 6.654e-5
-1.086, 6.666e-5
-1.087, 6.717e-5
-1.088, 6.738e-5
-1.089, 6.764e-5
-1.090, 6.777e-5
-1.091, 6.763e-5
-1.092, 6.826e-5
-1.093, 6.861e-5
-1.094, 6.867e-5
-1.095, 6.901e-5
-1.096, 6.883e-5
-1.097, 6.925e-5
-1.098, 6.976e-5
-1.099, 7.007e-5
-1.100, 7.024e-5
-1.101, 7.041e-5
-1.102, 7.064e-5
-1.103, 7.155e-5
-1.104, 7.157e-5
-1.105, 7.177e-5
-1.106, 7.188e-5
-1.107, 7.199e-5
-1.108, 7.278e-5
-1.109, 7.308e-5
-1.110, 7.321e-5
-1.111, 7.349e-5
-1.112, 7.382e-5
-1.113, 7.464e-5
-1.114, 7.520e-5
-1.115, 7.502e-5
-1.116, 7.531e-5
-1.117, 7.571e-5
-1.118, 7.630e-5
-1.119, 7.683e-5
-1.120, 7.696e-5
-1.121, 7.724e-5
-1.122, 7.769e-5
-1.123, 7.821e-5
-1.124, 7.893e-5
-1.125, 7.906e-5
-1.126, 7.950e-5
-1.127, 8.036e-5
-1.128, 8.087e-5
-1.129, 8.127e-5
-1.130, 8.145e-5
-1.131, 8.162e-5
-1.132, 8.280e-5
-1.133, 8.335e-5
-1.134, 8.372e-5
-1.135, 8.436e-5
-1.136, 8.441e-5
-1.137, 8.552e-5
-1.138, 8.668e-5
-1.139, 8.730e-5
-1.140, 8.727e-5
-1.141, 8.744e-5
-1.142, 8.835e-5
-1.143, 8.932e-5
-1.144, 8.966e-5
-1.145, 9.062e-5
-1.146, 9.106e-5
-1.147, 9.176e-5
-1.148, 9.309e-5
-1.149, 9.415e-5
-1.150, 9.468e-5
-1.151, 9.515e-5
-1.152, 9.595e-5
-1.153, 9.681e-5
-1.154, 9.786e-5
-1.155, 9.827e-5
-1.156, 9.924e-5
-1.157, 1.001e-4
-1.158, 1.012e-4
-1.159, 1.026e-4
-1.160, 1.032e-4
-1.161, 1.043e-4
-1.162, 1.059e-4
-1.163, 1.068e-4
-1.164, 1.077e-4
-1.165, 1.084e-4
-1.166, 1.093e-4
-1.167, 1.108e-4
-1.168, 1.121e-4
-1.169, 1.132e-4
-1.170, 1.141e-4
-1.171, 1.153e-4
-1.172, 1.168e-4
-1.173, 1.183e-4
-1.174, 1.198e-4
-1.175, 1.209e-4
-1.176, 1.221e-4
-1.177, 1.240e-4
-1.178, 1.255e-4
-1.179, 1.267e-4
-1.180, 1.282e-4
-1.181, 1.294e-4
-1.182, 1.312e-4
-1.183, 1.332e-4
-1.184, 1.347e-4
-1.185, 1.364e-4
-1.186, 1.381e-4
-1.187, 1.398e-4
-1.188, 1.418e-4
-1.189, 1.434e-4
-1.190, 1.454e-4
-1.191, 1.471e-4
-1.192, 1.491e-4
-1.193, 1.511e-4
-1.194, 1.534e-4
-1.195, 1.554e-4
-1.196, 1.576e-4
-1.197, 1.602e-4
-1.198, 1.627e-4
-1.199, 1.651e-4
-1.200, 1.672e-4
-1.201, 1.690e-4
-1.202, 1.716e-4
-1.203, 1.747e-4
-1.204, 1.772e-4
-1.205, 1.792e-4
-1.206, 1.816e-4
-1.207, 1.851e-4
-1.208, 1.884e-4
-1.209, 1.912e-4
-1.210, 1.941e-4
-1.211, 1.969e-4
-1.212, 2.002e-4
-1.213, 2.035e-4
-1.214, 2.062e-4
-1.215, 2.091e-4
-1.216, 2.129e-4
-1.217, 2.159e-4
-1.218, 2.197e-4
-1.219, 2.230e-4
-1.220, 2.272e-4
-1.221, 2.313e-4
-1.222, 2.346e-4
-1.223, 2.386e-4
-1.224, 2.428e-4
-1.225, 2.463e-4
-1.226, 2.502e-4
-1.227, 2.544e-4
-1.228, 2.593e-4
-1.229, 2.637e-4
-1.230, 2.672e-4
-1.231, 2.718e-4
-1.232, 2.767e-4
-1.233, 2.815e-4
-1.234, 2.865e-4
-1.235, 2.910e-4
-1.236, 2.958e-4
-1.237, 3.004e-4
-1.238, 3.059e-4
-1.239, 3.111e-4
-1.240, 3.158e-4
-1.241, 3.214e-4
-1.242, 3.274e-4
-1.243, 3.327e-4
-1.244, 3.390e-4
-1.245, 3.435e-4
-1.246, 3.493e-4
-1.247, 3.556e-4
-1.248, 3.616e-4
-1.249, 3.676e-4
-1.250, 3.735e-4
-1.251, 3.791e-4
-1.252, 3.861e-4
-1.253, 3.931e-4
-1.254, 4.003e-4
-1.255, 4.076e-4
-1.256, 4.137e-4
-1.257, 4.214e-4
-1.258, 4.284e-4
-1.259, 4.354e-4
-1.260, 4.421e-4
-1.261, 4.495e-4
-1.262, 4.571e-4
-1.263, 4.641e-4
-1.264, 4.714e-4
-1.265, 4.798e-4
-1.266, 4.883e-4
-1.267, 4.977e-4
-1.268, 5.066e-4
-1.269, 5.141e-4
-1.270, 5.226e-4
-1.271, 5.315e-4
-1.272, 5.394e-4
-1.273, 5.476e-4
-1.274, 5.570e-4
-1.275, 5.652e-4
-1.276, 5.743e-4
-1.277, 5.837e-4
-1.278, 5.938e-4
-1.279, 6.050e-4
-1.280, 6.148e-4
-1.281, 6.239e-4
-1.282, 6.340e-4
-1.283, 6.439e-4
-1.284, 6.531e-4
-1.285, 6.626e-4
-1.286, 6.737e-4
-1.287, 6.832e-4
-1.288, 6.942e-4
-1.289, 7.046e-4
-1.290, 7.155e-4
-1.291, 7.255e-4
-1.292, 7.359e-4
-1.293, 7.462e-4
-1.294, 7.567e-4
-1.295, 7.670e-4
-1.296, 7.761e-4
-1.297, 7.877e-4
-1.298, 7.988e-4
-1.299, 8.087e-4
-1.300, 8.189e-4
-1.301, 8.299e-4
-1.302, 8.415e-4
-1.303, 8.515e-4
-1.304, 8.611e-4
-1.305, 8.711e-4
-1.306, 8.799e-4
-1.307, 8.903e-4
-1.308, 9.006e-4
-1.309, 9.083e-4
-1.310, 9.178e-4
-1.311, 9.295e-4
-1.312, 9.408e-4
-1.313, 9.506e-4
-1.314, 9.595e-4
-1.315, 9.691e-4
-1.316, 9.773e-4
-1.317, 9.874e-4
-1.318, 9.973e-4
-1.319, 1.005e-3
-1.320, 1.012e-3
-1.321, 1.021e-3
-1.322, 1.030e-3
-1.323, 1.040e-3
-1.324, 1.051e-3
-1.325, 1.060e-3
-1.326, 1.069e-3
-1.327, 1.078e-3
-1.328, 1.086e-3
-1.329, 1.096e-3
-1.330, 1.104e-3
-1.331, 1.113e-3
-1.332, 1.122e-3
-1.333, 1.129e-3
-1.334, 1.138e-3
-1.335, 1.149e-3
-1.336, 1.160e-3
-1.337, 1.168e-3
-1.338, 1.177e-3
-1.339, 1.187e-3
-1.340, 1.197e-3
-1.341, 1.205e-3
-1.342, 1.216e-3
-1.343, 1.224e-3
-1.344, 1.235e-3
-1.345, 1.247e-3
-1.346, 1.260e-3
-1.347, 1.273e-3
-1.348, 1.285e-3
-1.349, 1.297e-3
-1.350, 1.308e-3
-1.351, 1.320e-3
-1.352, 1.333e-3
-1.353, 1.347e-3
-1.354, 1.360e-3
-1.355, 1.372e-3
-1.356, 1.385e-3
-1.357, 1.400e-3
-1.358, 1.414e-3
-1.359, 1.431e-3
-1.360, 1.442e-3
-1.361, 1.458e-3
-1.362, 1.473e-3
-1.363, 1.488e-3
-1.364, 1.504e-3
-1.365, 1.519e-3
-1.366, 1.535e-3
-1.367, 1.551e-3
-1.368, 1.569e-3
-1.369, 1.586e-3
-1.370, 1.602e-3
-1.371, 1.620e-3
-1.372, 1.636e-3
-1.373, 1.654e-3
-1.374, 1.669e-3
-1.375, 1.686e-3
-1.376, 1.701e-3
-1.377, 1.720e-3
-1.378, 1.740e-3
-1.379, 1.762e-3
-1.380, 1.784e-3
-1.381, 1.805e-3
-1.382, 1.825e-3
-1.383, 1.847e-3
-1.384, 1.867e-3
-1.385, 1.889e-3
-1.386, 1.910e-3
-1.387, 1.932e-3
-1.388, 1.954e-3
-1.389, 1.978e-3
-1.390, 1.998e-3
-1.391, 2.021e-3
-1.392, 2.044e-3
-1.393, 2.071e-3
-1.394, 2.093e-3
-1.395, 2.120e-3
-1.396, 2.145e-3
-1.397, 2.164e-3
-1.398, 2.192e-3
-1.399, 2.215e-3
-1.400, 2.192e-3
-1.399, 2.137e-3
-1.398, 2.086e-3
-1.397, 2.037e-3
-1.396, 2.000e-3
-1.395, 1.964e-3
-1.394, 1.930e-3
-1.393, 1.895e-3
-1.392, 1.861e-3
-1.391, 1.826e-3
-1.390, 1.791e-3
-1.389, 1.760e-3
-1.388, 1.725e-3
-1.387, 1.691e-3
-1.386, 1.660e-3
-1.385, 1.626e-3
-1.384, 1.595e-3
-1.383, 1.564e-3
-1.382, 1.537e-3
-1.381, 1.509e-3
-1.380, 1.480e-3
-1.379, 1.452e-3
-1.378, 1.425e-3
-1.377, 1.398e-3
-1.376, 1.369e-3
-1.375, 1.343e-3
-1.374, 1.318e-3
-1.373, 1.292e-3
-1.372, 1.268e-3
-1.371, 1.243e-3
-1.370, 1.219e-3
-1.369, 1.195e-3
-1.368, 1.172e-3
-1.367, 1.149e-3
-1.366, 1.126e-3
-1.365, 1.103e-3
-1.364, 1.082e-3
-1.363, 1.060e-3
-1.362, 1.040e-3
-1.361, 1.018e-3
-1.360, 9.986e-4
-1.359, 9.771e-4
-1.358, 9.570e-4
-1.357, 9.391e-4
-1.356, 9.187e-4
-1.355, 8.995e-4
-1.354, 8.805e-4
-1.353, 8.603e-4
-1.352, 8.429e-4
-1.351, 8.253e-4
-1.350, 8.090e-4
-1.349, 7.927e-4
-1.348, 7.767e-4
-1.347, 7.602e-4
-1.346, 7.439e-4
-1.345, 7.266e-4
-1.344, 7.105e-4
-1.343, 6.967e-4
-1.342, 6.806e-4
-1.341, 6.649e-4
-1.340, 6.493e-4
-1.339, 6.346e-4
-1.338, 6.215e-4
-1.337, 6.088e-4
-1.336, 5.960e-4
-1.335, 5.815e-4
-1.334, 5.681e-4
-1.333, 5.557e-4
-1.332, 5.423e-4
-1.331, 5.286e-4
-1.330, 5.160e-4
-1.329, 5.043e-4
-1.328, 4.933e-4
-1.327, 4.811e-4
-1.326, 4.696e-4
-1.325, 4.587e-4
-1.324, 4.478e-4
-1.323, 4.373e-4
-1.322, 4.264e-4
-1.321, 4.151e-4
-1.320, 4.042e-4
-1.319, 3.944e-4
-1.318, 3.846e-4
-1.317, 3.748e-4
-1.316, 3.655e-4
-1.315, 3.564e-4
-1.314, 3.473e-4
-1.313, 3.385e-4
-1.312, 3.296e-4
-1.311, 3.202e-4
-1.310, 3.117e-4
-1.309, 3.035e-4
-1.308, 2.949e-4
-1.307, 2.870e-4
-1.306, 2.790e-4
-1.305, 2.712e-4
-1.304, 2.643e-4
-1.303, 2.571e-4
-1.302, 2.498e-4
-1.301, 2.427e-4
-1.300, 2.351e-4
-1.299, 2.283e-4
-1.298, 2.212e-4
-1.297, 2.146e-4
-1.296, 2.083e-4
-1.295, 2.017e-4
-1.294, 1.954e-4
-1.293, 1.897e-4
-1.292, 1.838e-4
-1.291, 1.781e-4
-1.290, 1.721e-4
-1.289, 1.663e-4
-1.288, 1.614e-4
-1.287, 1.558e-4
-1.286, 1.501e-4
-1.285, 1.450e-4
-1.284, 1.398e-4
-1.283, 1.349e-4
-1.282, 1.304e-4
-1.281, 1.252e-4
-1.280, 1.204e-4
-1.279, 1.161e-4
-1.278, 1.114e-4
-1.277, 1.072e-4
-1.276, 1.024e-4
-1.275, 9.811e-5
-1.274, 9.441e-5
-1.273, 9.047e-5
-1.272, 8.667e-5
-1.271, 8.260e-5
-1.270, 7.892e-5
-1.269, 7.557e-5
-1.268, 7.213e-5
-1.267, 6.856e-5
-1.266, 6.508e-5
-1.265, 6.151e-5
-1.264, 5.835e-5
-1.263, 5.526e-5
-1.262, 5.179e-5
-1.261, 4.844e-5
-1.260, 4.492e-5
-1.259, 4.222e-5
-1.258, 3.989e-5
-1.257, 3.711e-5
-1.256, 3.455e-5
-1.255, 3.177e-5
-1.254, 2.900e-5
-1.253, 2.665e-5
-1.252, 2.390e-5
-1.251, 2.094e-5
-1.250, 1.832e-5
-1.249, 1.600e-5
-1.248, 1.408e-5
-1.247, 1.195e-5
-1.246, 9.725e-6
-1.245, 7.860e-6
-1.244, 5.701e-6
-1.243, 3.784e-6
-1.242, 1.933e-6
-1.241, -6.247e-7
-1.240, -2.685e-6
-1.239, -4.510e-6
-1.238, -6.392e-6
-1.237, -7.857e-6
-1.236, -9.901e-6
-1.235, -1.168e-5
-1.234, -1.303e-5
-1.233, -1.471e-5
-1.232, -1.614e-5
-1.231, -1.805e-5
-1.230, -2.016e-5
-1.229, -2.238e-5
-1.228, -2.328e-5
-1.227, -2.481e-5
-1.226, -2.599e-5
-1.225, -2.769e-5
-1.224, -2.836e-5
-1.223, -2.959e-5
-1.222, -3.103e-5
-1.221, -3.245e-5
-1.220, -3.367e-5
-1.219, -3.478e-5
-1.218, -3.554e-5
-1.217, -3.682e-5
-1.216, -3.814e-5
-1.215, -3.948e-5
-1.214, -4.080e-5
-1.213, -4.146e-5
-1.212, -4.236e-5
-1.211, -4.377e-5
-1.210, -4.476e-5
-1.209, -4.574e-5
-1.208, -4.610e-5
-1.207, -4.673e-5
-1.206, -4.780e-5
-1.205, -4.881e-5
-1.204, -4.955e-5
-1.203, -5.057e-5
-1.202, -5.162e-5
-1.201, -5.310e-5
-1.200, -5.373e-5
-1.199, -5.392e-5
-1.198, -5.470e-5
-1.197, -5.475e-5
-1.196, -5.540e-5
-1.195, -5.655e-5
-1.194, -5.699e-5
-1.193, -5.754e-5
-1.192, -5.813e-5
-1.191, -5.906e-5
-1.190, -6.019e-5
-1.189, -6.056e-5
-1.188, -6.126e-5
-1.187, -6.192e-5
-1.186, -6.246e-5
-1.185, -6.313e-5
-1.184, -6.316e-5
-1.183, -6.345e-5
-1.182, -6.394e-5
-1.181, -6.463e-5
-1.180, -6.545e-5
-1.179, -6.609e-5
-1.178, -6.698e-5
-1.177, -6.745e-5
-1.176, -6.775e-5
-1.175, -6.809e-5
-1.174, -6.837e-5
-1.173, -6.813e-5
-1.172, -6.872e-5
-1.171, -6.956e-5
-1.170, -6.998e-5
-1.169, -7.030e-5
-1.168, -7.033e-5
-1.167, -7.066e-5
-1.166, -7.150e-5
-1.165, -7.216e-5
-1.164, -7.255e-5
-1.163, -7.273e-5
-1.162, -7.266e-5
-1.161, -7.321e-5
-1.160, -7.377e-5
-1.159, -7.390e-5
-1.158, -7.391e-5
-1.157, -7.407e-5
-1.156, -7.470e-5
-1.155, -7.539e-5
-1.154, -7.541e-5
-1.153, -7.600e-5
-1.152, -7.595e-5
-1.151, -7.618e-5
-1.150, -7.669e-5
-1.149, -7.625e-5
-1.148, -7.681e-5
-1.147, -7.728e-5
-1.146, -7.800e-5
-1.145, -7.900e-5
-1.144, -7.851e-5
-1.143, -7.843e-5
-1.142, -7.866e-5
-1.141, -7.885e-5
-1.140, -7.936e-5
-1.139, -7.955e-5
-1.138, -7.956e-5
-1.137, -8.004e-5
-1.136, -8.014e-5
-1.135, -8.029e-5
-1.134, -8.043e-5
-1.133, -8.042e-5
-1.132, -8.081e-5
-1.131, -8.160e-5
-1.130, -8.206e-5
-1.129, -8.222e-5
-1.128, -8.194e-5
-1.127, -8.200e-5
-1.126, -8.280e-5
-1.125, -8.323e-5
-1.124, -8.322e-5
-1.123, -8.345e-5
-1.122, -8.362e-5
-1.121, -8.450e-5
-1.120, -8.460e-5
-1.119, -8.493e-5
-1.118, -8.515e-5
-1.117, -8.523e-5
-1.116, -8.578e-5
-1.115, -8.629e-5
-1.114, -8.630e-5
-1.113, -8.667e-5
-1.112, -8.678e-5
-1.111, -8.733e-5
-1.110, -8.781e-5
-1.109, -8.776e-5
-1.108, -8.797e-5
-1.107, -8.822e-5
-1.106, -8.853e-5
-1.105, -8.929e-5
-1.104, -8.924e-5
-1.103, -8.957e-5
-1.102, -9.032e-5
-1.101, -9.070e-5
-1.100, -9.102e-5
-1.099, -9.114e-5
-1.098, -9.104e-5
-1.097, -9.127e-5
-1.096, -9.185e-5
-1.095, -9.265e-5
-1.094, -9.319e-5
-1.093, -9.309e-5
-1.092, -9.376e-5
-1.091, -9.422e-5
-1.090, -9.471e-5
-1.089, -9.503e-5
-1.088, -9.511e-5
-1.087, -9.547e-5
-1.086, -9.626e-5
-1.085, -9.644e-5
-1.084, -9.711e-5
-1.083, -9.749e-5
-1.082, -9.771e-5
-1.081, -9.877e-5
-1.080, -9.927e-5
-1.079, -9.970e-5
-1.078, -1.001e-4
-1.077, -1.004e-4
-1.076, -1.016e-4
-1.075, -1.025e-4
-1.074, -1.025e-4
-1.073, -1.030e-4
-1.072, -1.035e-4
-1.071, -1.045e-4
-1.070, -1.054e-4
-1.069, -1.055e-4
-1.068, -1.063e-4
-1.067, -1.068e-4
-1.066, -1.076e-4
-1.065, -1.086e-4
-1.064, -1.086e-4
-1.063, -1.092e-4
-1.062, -1.104e-4
-1.061, -1.116e-4
-1.060, -1.122e-4
-1.059, -1.128e-4
-1.058, -1.135e-4
-1.057, -1.144e-4
-1.056, -1.156e-4
-1.055, -1.165e-4
-1.054, -1.172e-4
-1.053, -1.176e-4
-1.052, -1.182e-4
-1.051, -1.194e-4
-1.050, -1.210e-4
-1.049, -1.221e-4
-1.048, -1.229e-4
-1.047, -1.238e-4
-1.046, -1.252e-4
-1.045, -1.263e-4
-1.044, -1.270e-4
-1.043, -1.278e-4
-1.042, -1.290e-4
-1.041, -1.304e-4
-1.040, -1.311e-4
-1.039, -1.327e-4
-1.038, -1.338e-4
-1.037, -1.349e-4
-1.036, -1.366e-4
-1.035, -1.380e-4
-1.034, -1.391e-4
-1.033, -1.408e-4
-1.032, -1.420e-4
-1.031, -1.436e-4
-1.030, -1.452e-4
-1.029, -1.462e-4
-1.028, -1.475e-4
-1.027, -1.492e-4
-1.026, -1.509e-4
-1.025, -1.525e-4
-1.024, -1.540e-4
-1.023, -1.558e-4
-1.022, -1.575e-4
-1.021, -1.593e-4
-1.020, -1.613e-4
-1.019, -1.627e-4
-1.018, -1.645e-4
-1.017, -1.664e-4
-1.016, -1.683e-4
-1.015, -1.704e-4
-1.014, -1.720e-4
-1.013, -1.737e-4
-1.012, -1.757e-4
-1.011, -1.783e-4
-1.010, -1.803e-4
-1.009, -1.830e-4
-1.008, -1.850e-4
-1.007, -1.872e-4
-1.006, -1.899e-4
-1.005, -1.921e-4
-1.004, -1.943e-4
-1.003, -1.969e-4
-1.002, -1.990e-4
-1.001, -2.017e-4
-1.000, -1.582e-4
-1.001, -1.149e-4
-1.002, -9.450e-5
-1.003, -8.028e-5
-1.004, -6.825e-5
-1.005, -5.812e-5
-1.006, -4.891e-5
-1.007, -4.058e-5
-1.008, -3.327e-5
-1.009, -2.675e-5
-1.010, -2.054e-5
-1.011, -1.474e-5
-1.012, -8.928e-6
-1.013, -4.561e-6
-1.014, -4.402e-7
-1.015, 3.962e-6
-1.016, 7.710e-6
-1.017, 1.147e-5
-1.018, 1.469e-5
-1.019, 1.761e-5
-1.020, 2.050e-5
-1.021, 2.342e-5
-1.022, 2.636e-5
-1.023, 2.873e-5
-1.024, 3.069e-5
-1.025, 3.271e-5
-1.026, 3.492e-5
-1.027, 3.679e-5
-1.028, 3.855e-5
-1.029, 3.981e-5
-1.030, 4.128e-5
-1.031, 4.318e-5
-1.032, 4.456e-5
-1.033, 4.570e-5
-1.034, 4.678e-5
-1.035, 4.758e-5
-1.036, 4.918e-5
-1.037, 5.016e-5
-1.038, 5.101e-5
-1.039, 5.181e-5
-1.040, 5.267e-5
-1.041, 5.352e-5
-1.042, 5.447e-5
-1.043, 5.478e-5
-1.044, 5.542e-5
-1.045, 5.593e-5
-1.046, 5.669e-5
-1.047, 5.762e-5
-1.048, 5.768e-5
-1.049, 5.818e-5
-1.050, 5.853e-5
-1.051, 5.908e-5
-1.052, 5.974e-5
-1.053, 5.988e-5
-1.054, 5.999e-5
-1.055, 6.056e-5
-1.056, 6.085e-5
-1.057, 6.127e-5
-1.058, 6.153e-5
-1.059, 6.143e-5
-1.060, 6.206e-5
-1.061, 6.221e-5
-1.062, 6.265e-5
-1.063, 6.295e-5
-1.064, 6.268e-5
-1.065, 6.290e-5
-1.066, 6.334e-5
-1.067, 6.355e-5
-1.068, 6.370e-5
-1.069, 6.357e-5
-1.070, 6.374e-5
-1.071, 6.409e-5
-1.072, 6.433e-5
-1.073, 6.454e-5
-1.074, 6.444e-5
-1.075, 6.496e-5
-1.076, 6.508e-5
-1.077, 6.513e-5
-1.078, 6.494e-5
-1.079, 6.507e-5
-1.080, 6.484e-5
-1.081, 6.524e-5
-1.082, 6.563e-5
-1.083, 6.551e-5
-1.084, 6.564e-5
-1.085, 6.558e-5
-1.086, 6.623e-5
-1.087, 6.654e-5
-1.088, 6.597e-5
-1.089, 6.591e-5
-1.090, 6.599e-5
-1.091, 6.605e-5
-1.092, 6.658e-5
-1.093, 6.643e-5
-1.094, 6.603e-5
-1.095, 6.648e-5
-1.096, 6.639e-5
-1.097, 6.680e-5
-1.098, 6.686e-5
-1.099, 6.639e-5
-1.100, 6.679e-5
-1.101, 6.690e-5
-1.102, 6.710e-5
-1.103, 6.727e-5
-1.104, 6.687e-5
-1.105, 6.708e-5
-1.106, 6.753e-5
-1.107, 6.783e-5
-1.108, 6.776e-5
-1.109, 6.728e-5
-1.110, 6.755e-5
-1.111, 6.793e-5
-1.112, 6.783e-5
-1.113, 6.767e-5
-1.114, 6.782e-5
-1.115, 6.790e-5
-1.116, 6.834e-5
-1.117, 6.832e-5
-1.118, 6.830e-5
-1.119, 6.837e-5
-1.120, 6.827e-5
-1.121, 6.888e-5
-1.122, 6.921e-5
-1.123, 6.873e-5
-1.124, 6.865e-5
-1.125, 6.876e-5
-1.126, 6.915e-5
-1.127, 6.946e-5
-1.128, 6.915e-5
-1.129, 6.929e-5
-1.130, 6.986e-5
-1.131, 7.017e-5
-1.132, 7.024e-5
-1.133, 6.961e-5
-1.134, 6.973e-5
-1.135, 7.001e-5
-1.136, 7.025e-5
-1.137, 7.065e-5
-1.138, 7.068e-5
-1.139, 7.066e-5
-1.140, 7.082e-5
-1.141, 7.092e-5
-1.142, 7.145e-5
-1.143, 7.142e-5
-1.144, 7.121e-5
-1.145, 7.133e-5
-1.146, 7.190e-5
-1.147, 7.204e-5
-1.148, 7.198e-5
-1.149, 7.194e-5
-1.150, 7.218e-5
-1.151, 7.274e-5
-1.152, 7.290e-5
-1.153, 7.287e-5
-1.154, 7.315e-5
-1.155, 7.318e-5
-1.156, 7.392e-5
-1.157, 7.396e-5
-1.158, 7.378e-5
-1.159, 7.393e-5
-1.160, 7.392e-5
-1.161, 7.459e-5
-1.162, 7.497e-5
-1.163, 7.486e-5
-1.164, 7.512e-5
-1.165, 7.536e-5
-1.166, 7.583e-5
-1.167, 7.645e-5
-1.168, 7.611e-5
-1.169, 7.611e-5
-1.170, 7.640e-5
-1.171, 7.690e-5
-1.172, 7.741e-5
-1.173, 7.747e-5
-1.174, 7.749e-5
-1.175, 7.797e-5
-1.176, 7.837e-5
-1.177, 7.914e-5
-1.178, 7.933e-5
-1.179, 7.900e-5
-1.180, 7.966e-5
-1.181, 8.031e-5
-1.182, 8.040e-5
-1.183, 8.049e-5
-1.184, 8.073e-5
-1.185, 8.099e-5
-1.186, 8.183e-5
-1.187, 8.203e-5
-1.188, 8.245e-5
-1.189, 8.244e-5
-1.190, 8.275e-5
-1.191, 8.391e-5
-1.192, 8.406e-5
-1.193, 8.413e-5
-1.194, 8.463e-5
-1.195, 8.497e-5
-1.196, 8.594e-5
-1.197, 8.614e-5
-1.198, 8.644e-5
-1.199, 8.703e-5
-1.200, 8.756e-5
-1.201, 8.820e-5
-1.202, 8.868e-5
-1.203, 8.892e-5
-1.204, 8.938e-5
-1.205, 8.997e-5
-1.206, 9.081e-5
-1.207, 9.155e-5
-1.208, 9.163e-5
-1.209, 9.236e-5
-1.210, 9.317e-5
-1.211, 9.383e-5
-1.212, 9.488e-5
-1.213, 9.515e-5
-1.214, 9.557e-5
-1.215, 9.654e-5
-1.216, 9.721e-5
-1.217, 9.793e-5
-1.218, 9.862e-5
-1.219, 9.908e-5
-1.220, 1.003e-4
-1.221, 1.013e-4
-1.222, 1.023e-4
-1.223, 1.032e-4
-1.224, 1.035e-4
-1.225, 1.047e-4
-1.226, 1.057e-4
-1.227, 1.067e-4
-1.228, 1.076e-4
-1.229, 1.089e-4
-1.230, 1.094e-4
-1.231, 1.109e-4
-1.232, 1.119e-4
-1.233, 1.127e-4
-1.234, 1.140e-4
-1.235, 1.149e-4
-1.236, 1.166e-4
-1.237, 1.176e-4
-1.238, 1.188e-4
-1.239, 1.201e-4
-1.240, 1.213e-4
-1.241, 1.229e-4
-1.242, 1.246e-4
-1.243, 1.255e-4
-1.244, 1.268e-4
-1.245, 1.283e-4
-1.246, 1.302e-4
-1.247, 1.320e-4
-1.248, 1.333e-4
-1.249, 1.349e-4
-1.250, 1.370e-4
-1.251, 1.386e-4
-1.252, 1.407e-4
-1.253, 1.422e-4
-1.254, 1.438e-4
-1.255, 1.460e-4
-1.256, 1.481e-4
-1.257, 1.501e-4
-1.258, 1.523e-4
-1.259, 1.540e-4
-1.260, 1.565e-4
-1.261, 1.589e-4
-1.262, 1.614e-4
-1.263, 1.637e-4
-1.264, 1.655e-4
-1.265, 1.689e-4
-1.266, 1.709e-4
-1.267, 1.737e-4
-1.268, 1.767e-4
-1.269, 1.790e-4
-1.270, 1.820e-4
-1.271, 1.852e-4
-1.272, 1.880e-4
-1.273, 1.909e-4
-1.274, 1.940e-4
-1.275, 1.970e-4
-1.276, 2.007e-4
-1.277, 2.036e-4
-1.278, 2.070e-4
-1.279, 2.104e-4
-1.280, 2.148e-4
-1.281, 2.186e-4
-1.282, 2.226e-4
-1.283, 2.261e-4
-1.284, 2.299e-4
-1.285, 2.341e-4
-1.286, 2.380e-4
-1.287, 2.422e-4
-1.288, 2.467e-4
-1.289, 2.505e-4
-1.290, 2.554e-4
-1.291, 2.598e-4
-1.292, 2.650e-4
-1.293, 2.698e-4
-1.294, 2.751e-4
-1.295, 2.808e-4
-1.296, 2.858e-4
-1.297, 2.905e-4
-1.298, 2.960e-4
-1.299, 3.012e-4
-1.300, 3.068e-4
-1.301, 3.128e-4
-1.302, 3.184e-4
-1.303, 3.244e-4
-1.304, 3.304e-4
-1.305, 3.373e-4
-1.306, 3.444e-4
-1.307, 3.507e-4
-1.308, 3.572e-4
-1.309, 3.635e-4
-1.310, 3.701e-4
-1.311, 3.779e-4
-1.312, 3.847e-4
-1.313, 3.922e-4
-1.314, 3.989e-4
-1.315, 4.066e-4
-1.316, 4.150e-4
-1.317, 4.237e-4
-1.318, 4.320e-4
-1.319, 4.397e-4
-1.320, 4.478e-4
-1.321, 4.573e-4
-1.322, 4.662e-4
-1.323, 4.734e-4
-1.324, 4.808e-4
-1.325, 4.909e-4
-1.326, 5.025e-4
-1.327, 5.111e-4
-1.328, 5.201e-4
-1.329, 5.316e-4
-1.330, 5.420e-4
-1.331, 5.514e-4
-1.332, 5.626e-4
-1.333, 5.724e-4
-1.334, 5.835e-4
-1.335, 5.944e-4
-1.336, 6.059e-4
-1.337, 6.167e-4
-1.338, 6.293e-4
-1.339, 6.400e-4
-1.340, 6.525e-4
-1.341, 6.650e-4
-1.342, 6.770e-4
-1.343, 6.884e-4
-1.344, 7.020e-4
-1.345, 7.150e-4
-1.346, 7.280e-4
-1.347, 7.412e-4
-1.348, 7.553e-4
-1.349, 7.684e-4
-1.350, 7.833e-4
-1.351, 7.972e-4
-1.352, 8.116e-4
-1.353, 8.265e-4
-1.354, 8.403e-4
-1.355, 8.553e-4
-1.356, 8.713e-4
-1.357, 8.871e-4
-1.358, 9.019e-4
-1.359, 9.187e-4
-1.360, 9.348e-4
-1.361, 9.500e-4
-1.362, 9.679e-4
-1.363, 9.838e-4
-1.364, 1.001e-3
-1.365, 1.018e-3
-1.366, 1.033e-3
-1.367, 1.051e-3
-1.368, 1.067e-3
-1.369, 1.086e-3
-1.370, 1.107e-3
-1.371, 1.127e-3
-1.372, 1.146e-3
-1.373, 1.164e-3
-1.374, 1.184e-3
-1.375, 1.204e-3
-1.376, 1.224e-3
-1.377, 1.244e-3
-1.378, 1.263e-3
-1.379, 1.284e-3
-1.380, 1.308e-3
-1.381, 1.326e-3
-1.382, 1.346e-3
-1.383, 1.367e-3
-1.384, 1.390e-3
-1.385, 1.416e-3
-1.386, 1.437e-3
-1.387, 1.452e-3
-1.388, 1.475e-3
-1.389, 1.497e-3
-1.390, 1.523e-3
-1.391, 1.548e-3
-1.392, 1.572e-3
-1.393, 1.594e-3
-1.394, 1.620e-3
-1.395, 1.644e-3
-1.396, 1.669e-3
-1.397, 1.695e-3
-1.398, 1.718e-3
-1.399, 1.743e-3
-1.400, 1.719e-3
-1.399, 1.675e-3
-1.398, 1.642e-3
-1.397, 1.610e-3
-1.396, 1.582e-3
-1.395, 1.550e-3
-1.394, 1.519e-3
-1.393, 1.492e-3
-1.392, 1.464e-3
-1.391, 1.435e-3
-1.390, 1.403e-3
-1.389, 1.377e-3
-1.388, 1.348e-3
-1.387, 1.324e-3
-1.386, 1.300e-3
-1.385, 1.278e-3
-1.384, 1.258e-3
-1.383, 1.233e-3
-1.382, 1.209e-3
-1.381, 1.187e-3
-1.380, 1.163e-3
-1.379, 1.138e-3
-1.378, 1.116e-3
-1.377, 1.095e-3
-1.376, 1.074e-3
-1.375, 1.054e-3
-1.374, 1.034e-3
-1.373, 1.014e-3
-1.372, 9.946e-4
-1.371, 9.753e-4
-1.370, 9.550e-4
-1.369, 9.370e-4
-1.368, 9.181e-4
-1.367, 8.974e-4
-1.366, 8.788e-4
-1.365, 8.618e-4
-1.364, 8.443e-4
-1.363, 8.285e-4
-1.362, 8.125e-4
-1.361, 7.951e-4
-1.360, 7.795e-4
-1.359, 7.638e-4
-1.358, 7.470e-4
-1.357, 7.303e-4
-1.356, 7.145e-4
-1.355, 6.999e-4
-1.354, 6.856e-4
-1.353, 6.701e-4
-1.352, 6.561e-4
-1.351, 6.434e-4
-1.350, 6.296e-4
-1.349, 6.161e-4
-1.348, 6.024e-4
-1.347, 5.889e-4
-1.346, 5.751e-4
-1.345, 5.622e-4
-1.344, 5.507e-4
-1.343, 5.376e-4
-1.342, 5.258e-4
-1.341, 5.141e-4
-1.340, 5.030e-4
-1.339, 4.925e-4
-1.338, 4.806e-4
-1.337, 4.691e-4
-1.336, 4.586e-4
-1.335, 4.480e-4
-1.334, 4.376e-4
-1.333, 4.273e-4
-1.332, 4.165e-4
-1.331, 4.067e-4
-1.330, 3.972e-4
-1.329, 3.879e-4
-1.328, 3.783e-4
-1.327, 3.693e-4
-1.326, 3.597e-4
-1.325, 3.512e-4
-1.324, 3.425e-4
-1.323, 3.338e-4
-1.322, 3.251e-4
-1.321, 3.166e-4
-1.320, 3.085e-4
-1.319, 3.009e-4
-1.318, 2.930e-4
-1.317, 2.857e-4
-1.316, 2.784e-4
-1.315, 2.710e-4
-1.314, 2.643e-4
-1.313, 2.567e-4
-1.312, 2.495e-4
-1.311, 2.425e-4
-1.310, 2.363e-4
-1.309, 2.300e-4
-1.308, 2.229e-4
-1.307, 2.165e-4
-1.306, 2.105e-4
-1.305, 2.045e-4
-1.304, 1.991e-4
-1.303, 1.932e-4
-1.302, 1.868e-4
-1.301, 1.816e-4
-1.300, 1.761e-4
-1.299, 1.708e-4
-1.298, 1.655e-4
-1.297, 1.601e-4
-1.296, 1.554e-4
-1.295, 1.509e-4
-1.294, 1.457e-4
-1.293, 1.409e-4
-1.292, 1.360e-4
-1.291, 1.312e-4
-1.290, 1.272e-4
-1.289, 1.226e-4
-1.288, 1.188e-4
-1.287, 1.144e-4
-1.286, 1.101e-4
-1.285, 1.063e-4
-1.284, 1.024e-4
-1.283, 9.860e-5
-1.282, 9.496e-5
-1.281, 9.128e-5
-1.280, 8.742e-5
-1.279, 8.443e-5
-1.278, 8.060e-5
-1.277, 7.737e-5
-1.276, 7.401e-5
-1.275, 7.076e-5
-1.274, 6.791e-5
-1.273, 6.425e-5
-1.272, 6.136e-5
-1.271, 5.854e-5
-1.270, 5.580e-5
-1.269, 5.354e-5
-1.268, 5.020e-5
-1.267, 4.734e-5
-1.266, 4.476e-5
-1.265, 4.232e-5
-1.264, 3.992e-5
-1.263, 3.705e-5
-1.262, 3.439e-5
-1.261, 3.231e-5
-1.260, 3.024e-5
-1.259, 2.810e-5
-1.258, 2.602e-5
-1.257, 2.340e-5
-1.256, 2.151e-5
-1.255, 1.954e-5
-1.254, 1.746e-5
-1.253, 1.583e-5
-1.252, 1.337e-5
-1.251, 1.140e-5
-1.250, 1.000e-5
-1.249, 8.184e-6
-1.248, 6.387e-6
-1.247, 4.444e-6
-1.246, 2.929e-6
-1.245, 1.733e-6
-1.244, 1.448e-7
-1.243, -1.600e-6
-1.242, -3.135e-6
-1.241, -4.928e-6
-1.240, -5.874e-6
-1.239, -7.117e-6
-1.238, -8.941e-6
-1.237, -1.012e-5
-1.236, -1.154e-5
-1.235, -1.257e-5
-1.234, -1.342e-5
-1.233, -1.507e-5
-1.232, -1.640e-5
-1.231, -1.705e-5
-1.230, -1.821e-5
-1.229, -2.000e-5
-1.228, -2.079e-5
-1.227, -2.201e-5
-1.226, -2.290e-5
-1.225, -2.377e-5
-1.224, -2.463e-5
-1.223, -2.567e-5
-1.222, -2.695e-5
-1.221, -2.759e-5
-1.220, -2.806e-5
-1.219, -2.870e-5
-1.218, -2.973e-5
-1.217, -3.106e-5
-1.216, -3.164e-5
-1.215, -3.207e-5
-1.214, -3.319e-5
-1.213, -3.397e-5
-1.212, -3.504e-5
-1.211, -3.564e-5
-1.210, -3.573e-5
-1.209, -3.665e-5
-1.208, -3.719e-5
-1.207, -3.802e-5
-1.206, -3.867e-5
-1.205, -3.890e-5
-1.204, -3.955e-5
-1.203, -4.054e-5
-1.202, -4.108e-5
-1.201, -4.203e-5
-1.200, -4.180e-5
-1.199, -4.239e-5
-1.198, -4.321e-5
-1.197, -4.378e-5
-1.196, -4.448e-5
-1.195, -4.487e-5
-1.194, -4.497e-5
-1.193, -4.587e-5
-1.192, -4.627e-5
-1.191, -4.687e-5
-1.190, -4.708e-5
-1.189, -4.732e-5
-1.188, -4.823e-5
-1.187, -4.863e-5
-1.186, -4.891e-5
-1.185, -4.937e-5
-1.184, -4.954e-5
-1.183, -5.025e-5
-1.182, -5.099e-5
-1.181, -5.104e-5
-1.180, -5.119e-5
-1.179, -5.161e-5
-1.178, -5.241e-5
-1.177, -5.291e-5
-1.176, -5.292e-5
-1.175, -5.289e-5
-1.174, -5.343e-5
-1.173, -5.387e-5
-1.172, -5.440e-5
-1.171, -5.487e-5
-1.170, -5.485e-5
-1.169, -5.545e-5
-1.168, -5.548e-5
-1.167, -5.615e-5
-1.166, -5.626e-5
-1.165, -5.620e-5
-1.164, -5.700e-5
-1.163, -5.760e-5
-1.162, -5.786e-5
-1.161, -5.833e-5
-1.160, -5.807e-5
-1.159, -5.834e-5
-1.158, -5.901e-5
-1.157, -5.935e-5
-1.156, -5.947e-5
-1.155, -5.952e-5
-1.154, -5.984e-5
-1.153, -6.078e-5
-1.152, -6.101e-5
-1.151, -6.112e-5
-1.150, -6.163e-5
-1.149, -6.168e-5
-1.148, -6.242e-5
-1.147, -6.289e-5
-1.146, -6.277e-5
-1.145, -6.307e-5
-1.144, -6.309e-5
-1.143, -6.385e-5
-1.142, -6.434e-5
-1.141, -6.438e-5
-1.140, -6.467e-5
-1.139, -6.500e-5
-1.138, -6.548e-5
-1.137, -6.624e-5
-1.136, -6.634e-5
-1.135, -6.658e-5
-1.134, -6.718e-5
-1.133, -6.720e-5
-1.132, -6.797e-5
-1.131, -6.823e-5
-1.130, -6.818e-5
-1.129, -6.875e-5
-1.128, -6.931e-5
-1.127, -6.999e-5
-1.126, -7.032e-5
-1.125, -7.019e-5
-1.124, -7.058e-5
-1.123, -7.109e-5
-1.122, -7.172e-5
-1.121, -7.211e-5
-1.120, -7.217e-5
-1.119, -7.252e-5
-1.118, -7.342e-5
-1.117, -7.374e-5
-1.116, -7.405e-5
-1.115, -7.426e-5
-1.114, -7.440e-5
-1.113, -7.556e-5
-1.112, -7.596e-5
-1.111, -7.627e-5
-1.110, -7.668e-5
-1.109, -7.671e-5
-1.108, -7.734e-5
-1.107, -7.811e-5
-1.106, -7.846e-5
-1.105, -7.881e-5
-1.104, -7.907e-5
-1.103, -7.977e-5
-1.102, -8.076e-5
-1.101, -8.084e-5
-1.100, -8.120e-5
-1.099, -8.177e-5
-1.098, -8.222e-5
-1.097, -8.312e-5
-1.096, -8.316e-5
-1.095, -8.380e-5
-1.094, -8.448e-5
-1.093, -8.495e-5
-1.092, -8.583e-5
-1.091, -8.624e-5
-1.090, -8.644e-5
-1.089, -8.727e-5
-1.088, -8.786e-5
-1.087, -8.851e-5
-1.086, -8.883e-5
-1.085, -8.934e-5
-1.084, -9.000e-5
-1.083, -9.087e-5
-1.082, -9.161e-5
-1.081, -9.226e-5
-1.080, -9.253e-5
-1.079, -9.315e-5
-1.078, -9.429e-5
-1.077, -9.493e-5
-1.076, -9.576e-5
-1.075, -9.632e-5
-1.074, -9.684e-5
-1.073, -9.759e-5
-1.072, -9.819e-5
-1.071, -9.898e-5
-1.070, -9.983e-5
-1.069, -1.006e-4
-1.068, -1.015e-4
-1.067, -1.028e-4
-1.066, -1.030e-4
-1.065, -1.039e-4
-1.064, -1.047e-4
-1.063, -1.057e-4
-1.062, -1.070e-4
-1.061, -1.075e-4
-1.060, -1.083e-4
-1.059, -1.093e-4
-1.058, -1.101e-4
-1.057, -1.117e-4
-1.056, -1.122e-4
-1.055, -1.130e-4
-1.054, -1.143e-4
-1.053, -1.154e-4
-1.052, -1.168e-4
-1.051, -1.177e-4
-1.050, -1.187e-4
-1.049, -1.201e-4
-1.048, -1.214e-4
-1.047, -1.225e-4
-1.046, -1.237e-4
-1.045, -1.246e-4
-1.044, -1.258e-4
-1.043, -1.276e-4
-1.042, -1.287e-4
-1.041, -1.302e-4
-1.040, -1.309e-4
-1.039, -1.324e-4
-1.038, -1.343e-4
-1.037, -1.357e-4
-1.036, -1.373e-4
-1.035, -1.388e-4
-1.034, -1.401e-4
-1.033, -1.423e-4
-1.032, -1.438e-4
-1.031, -1.453e-4
-1.030, -1.468e-4
-1.029, -1.481e-4
-1.028, -1.502e-4
-1.027, -1.523e-4
-1.026, -1.536e-4
-1.025, -1.555e-4
-1.024, -1.574e-4
-1.023, -1.597e-4
-1.022, -1.619e-4
-1.021, -1.637e-4
-1.020, -1.656e-4
-1.019, -1.675e-4
-1.018, -1.699e-4
-1.017, -1.721e-4
-1.016, -1.736e-4
-1.015, -1.758e-4
-1.014, -1.781e-4
-1.013, -1.806e-4
-1.012, -1.834e-4
-1.011, -1.861e-4
-1.010, -1.883e-4
-1.009, -1.909e-4
-1.008, -1.934e-4
-1.007, -1.965e-4
-1.006, -1.989e-4
-1.005, -2.010e-4
-1.004, -2.040e-4
-1.003, -2.070e-4
-1.002, -2.100e-4
-1.001, -2.127e-4
-1.000, -1.690e-4
-1.001, -1.238e-4
-1.002, -1.020e-4
-1.003, -8.616e-5
-1.004, -7.262e-5
-1.005, -6.156e-5
-1.006, -5.147e-5
-1.007, -4.254e-5
-1.008, -3.505e-5
-1.009, -2.742e-5
-1.010, -2.052e-5
-1.011, -1.463e-5
-1.012, -9.014e-6
-1.013, -4.044e-6
-1.014, 9.894e-7
-1.015, 5.891e-6
-1.016, 1.020e-5
-1.017, 1.356e-5
-1.018, 1.690e-5
-1.019, 2.029e-5
-1.020, 2.363e-5
-1.021, 2.642e-5
-1.022, 2.890e-5
-1.023, 3.148e-5
-1.024, 3.417e-5
-1.025, 3.648e-5
-1.026, 3.864e-5
-1.027, 4.024e-5
-1.028, 4.208e-5
-1.029, 4.387e-5
-1.030, 4.558e-5
-1.031, 4.734e-5
-1.032, 4.827e-5
-1.033, 4.946e-5
-1.034, 5.115e-5
-1.035, 5.233e-5
-1.036, 5.365e-5
-1.037, 5.415e-5
-1.038, 5.510e-5
-1.039, 5.630e-5
-1.040, 5.707e-5
-1.041, 5.815e-5
-1.042, 5.855e-5
-1.043, 5.889e-5
-1.044, 6.009e-5
-1.045, 6.067e-5
-1.046, 6.132e-5
-1.047, 6.186e-5
-1.048, 6.224e-5
-1.049, 6.299e-5
-1.050, 6.374e-5
-1.051, 6.381e-5
-1.052, 6.396e-5
-1.053, 6.415e-5
-1.054, 6.477e-5
-1.055, 6.554e-5
-1.056, 6.546e-5
-1.057, 6.555e-5
-1.058, 6.599e-5
-1.059, 6.676e-5
-1.060, 6.724e-5
-1.061, 6.691e-5
-1.062, 6.669e-5
-1.063, 6.699e-5
-1.064, 6.697e-5
-1.065, 6.744e-5
-1.066, 6.794e-5
-1.067, 6.796e-5
-1.068, 6.818e-5
-1.069, 6.799e-5
-1.070, 6.849e-5
-1.071, 6.860e-5
-1.072, 6.829e-5
-1.073, 6.833e-5
-1.074, 6.882e-5
-1.075, 6.919e-5
-1.076, 6.906e-5
-1.077, 6.876e-5
-1.078, 6.870e-5
-1.079, 6.934e-5
-1.080, 6.913e-5
-1.081, 6.933e-5
-1.082, 6.909e-5
-1.083, 6.901e-5
-1.084, 6.942e-5
-1.085, 6.955e-5
-1.086, 6.946e-5
-1.087, 6.951e-5
-1.088, 6.923e-5
-1.089, 6.963e-5
-1.090, 6.988e-5
-1.091, 6.974e-5
-1.092, 6.965e-5
-1.093, 6.944e-5
-1.094, 6.973e-5
-1.095, 6.996e-5
-1.096, 6.984e-5
-1.097, 6.954e-5
-1.098, 6.956e-5
-1.099, 6.970e-5
-1.100, 7.013e-5
-1.101, 7.036e-5
-1.102, 6.979e-5
-1.103, 6.988e-5
-1.104, 6.992e-5
-1.105, 6.998e-5
-1.106, 7.010e-5
-1.107, 6.945e-5
-1.108, 6.966e-5
-1.109, 7.003e-5
-1.110, 6.998e-5
-1.111, 7.007e-5
-1.112, 6.968e-5
-1.113, 6.989e-5
-1.114, 7.016e-5
-1.115, 6.985e-5
-1.116, 7.010e-5
-1.117, 6.954e-5
-1.118, 6.970e-5
-1.119, 7.004e-5
-1.120, 7.016e-5
-1.121, 7.021e-5
-1.122, 6.999e-5
-1.123, 6.982e-5
-1.124, 7.030e-5
-1.125, 7.039e-5
-1.126, 7.024e-5
-1.127, 6.983e-5
-1.128, 6.964e-5
-1.129, 6.979e-5
-1.130, 7.073e-5
-1.131, 7.023e-5
-1.132, 7.027e-5
-1.133, 7.001e-5
-1.134, 7.033e-5
-1.135, 7.053e-5
-1.136, 7.023e-5
-1.137, 7.016e-5
-1.138, 7.015e-5
-1.139, 7.028e-5
-1.140, 7.063e-5
-1.141, 7.036e-5
-1.142, 7.022e-5
-1.143, 7.024e-5
-1.144, 7.034e-5
-1.145, 7.068e-5
-1.146, 7.079e-5
-1.147, 7.049e-5
-1.148, 7.064e-5
-1.149, 7.073e-5
-1.150, 7.081e-5
-1.151, 7.095e-5
-1.152, 7.071e-5
-1.153, 7.074e-5
-1.154, 7.102e-5
-1.155, 7.079e-5
-1.156, 7.111e-5
-1.157, 7.093e-5
-1.158, 7.102e-5
-1.159, 7.169e-5
-1.160, 7.142e-5
-1.161, 7.125e-5
-1.162, 7.115e-5
-1.163, 7.119e-5
-1.164, 7.171e-5
-1.165, 7.176e-5
-1.166, 7.188e-5
-1.167, 7.201e-5
-1.168, 7.155e-5
-1.169, 7.216e-5
-1.170, 7.252e-5
-1.171, 7.193e-5
-1.172, 7.223e-5
-1.173, 7.225e-5
-1.174, 7.246e-5
-1.175, 7.292e-5
-1.176, 7.257e-5
-1.177, 7.283e-5
-1.178, 7.288e-5
-1.179, 7.322e-5
-1.180, 7.369e-5
-1.181, 7.348e-5
-1.182, 7.348e-5
-1.183, 7.355e-5
-1.184, 7.375e-5
-1.185, 7.434e-5
-1.186, 7.426e-5
-1.187, 7.421e-5
-1.188, 7.453e-5
-1.189, 7.474e-5
-1.190, 7.526e-5
-1.191, 7.550e-5
-1.192, 7.535e-5
-1.193, 7.552e-5
-1.194, 7.609e-5
-1.195, 7.643e-5
-1.196, 7.642e-5
-1.197, 7.657e-5
-1.198, 7.690e-5
-1.199, 7.746e-5
-1.200, 7.757e-5
-1.201, 7.799e-5
-1.202, 7.828e-5
-1.203, 7.839e-5
-1.204, 7.905e-5
-1.205, 7.913e-5
-1.206, 7.961e-5
-1.207, 7.999e-5
-1.208, 8.010e-5
-1.209, 8.065e-5
-1.210, 8.127e-5
-1.211, 8.151e-5
-1.212, 8.204e-5
-1.213, 8.222e-5
-1.214, 8.289e-5
-1.215, 8.394e-5
-1.216, 8.394e-5
-1.217, 8.416e-5
-1.218, 8.482e-5
-1.219, 8.545e-5
-1.220, 8.625e-5
-1.221, 8.651e-5
-1.222, 8.699e-5
-1.223, 8.780e-5
-1.224, 8.828e-5
-1.225, 8.944e-5
-1.226, 8.989e-5
-1.227, 9.038e-5
-1.228, 9.134e-5
-1.229, 9.270e-5
-1.230, 9.307e-5
-1.231, 9.378e-5
-1.232, 9.411e-5
-1.233, 9.523e-5
-1.234, 9.624e-5
-1.235, 9.719e-5
-1.236, 9.813e-5
-1.237, 9.879e-5
-1.238, 9.975e-5
-1.239, 1.011e-4
-1.240, 1.021e-4
-1.241, 1.031e-4
-1.242, 1.041e-4
-1.243, 1.050e-4
-1.244, 1.065e-4
-1.245, 1.075e-4
-1.246, 1.089e-4
-1.247, 1.100e-4
-1.248, 1.113e-4
-1.249, 1.130e-4
-1.250, 1.147e-4
-1.251, 1.158e-4
-1.252, 1.173e-4
-1.253, 1.185e-4
-1.254, 1.203e-4
-1.255, 1.219e-4
-1.256, 1.234e-4
-1.257, 1.250e-4
-1.258, 1.267e-4
-1.259, 1.287e-4
-1.260, 1.309e-4
-1.261, 1.327e-4
-1.262, 1.344e-4
-1.263, 1.365e-4
-1.264, 1.384e-4
-1.265, 1.407e-4
-1.266, 1.427e-4
-1.267, 1.444e-4
-1.268, 1.472e-4
-1.269, 1.494e-4
-1.270, 1.520e-4
-1.271, 1.544e-4
-1.272, 1.567e-4
-1.273, 1.596e-4
-1.274, 1.626e-4
-1.275, 1.651e-4
-1.276, 1.679e-4
-1.277, 1.703e-4
-1.278, 1.731e-4
-1.279, 1.766e-4
-1.280, 1.800e-4
-1.281, 1.823e-4
-1.282, 1.860e-4
-1.283, 1.890e-4
-1.284, 1.929e-4
-1.285, 1.967e-4
-1.286, 2.002e-4
-1.287, 2.035e-4
-1.288, 2.071e-4
-1.289, 2.114e-4
-1.290, 2.154e-4
-1.291, 2.188e-4
-1.292, 2.233e-4
-1.293, 2.275e-4
-1.294, 2.318e-4
-1.295, 2.364e-4
-1.296, 2.405e-4
-1.297, 2.452e-4
-1.298, 2.500e-4
-1.299, 2.548e-4
-1.300, 2.599e-4
-1.301, 2.647e-4
-1.302, 2.699e-4
-1.303, 2.753e-4
-1.304, 2.804e-4
-1.305, 2.865e-4
-1.306, 2.919e-4
-1.307, 2.970e-4
-1.308, 3.037e-4
-1.309, 3.091e-4
-1.310, 3.154e-4
-1.311, 3.214e-4
-1.312, 3.273e-4
-1.313, 3.339e-4
-1.314, 3.410e-4
-1.315, 3.481e-4
-1.316, 3.552e-4
-1.317, 3.620e-4
-1.318, 3.693e-4
-1.319, 3.769e-4
-1.320, 3.841e-4
-1.321, 3.906e-4
-1.322, 3.993e-4
-1.323, 4.067e-4
-1.324, 4.151e-4
-1.325, 4.225e-4
-1.326, 4.314e-4
-1.327, 4.405e-4
-1.328, 4.491e-4
-1.329, 4.573e-4
-1.330, 4.670e-4
-1.331, 4.757e-4
-1.332, 4.851e-4
-1.333, 4.944e-4
-1.334, 5.041e-4
-1.335, 5.144e-4
-1.336, 5.239e-4
-1.337, 5.342e-4
-1.338, 5.445e-4
-1.339, 5.554e-4
-1.340, 5.670e-4
-1.341, 5.765e-4
-1.342, 5.865e-4
-1.343, 5.986e-4
-1.344, 6.090e-4
-1.345, 6.214e-4
-1.346, 6.340e-4
-1.347, 6.461e-4
-1.348, 6.583e-4
-1.349, 6.711e-4
-1.350, 6.830e-4
-1.351, 6.951e-4
-1.352, 7.085e-4
-1.353, 7.218e-4
-1.354, 7.342e-4
-1.355, 7.476e-4
-1.356, 7.610e-4
-1.357, 7.754e-4
-1.358, 7.909e-4
-1.359, 8.058e-4
-1.360, 8.203e-4
-1.361, 8.360e-4
-1.362, 8.510e-4
-1.363, 8.636e-4
-1.364, 8.780e-4
-1.365, 8.952e-4
-1.366, 9.110e-4
-1.367, 9.262e-4
-1.368, 9.424e-4
-1.369, 9.620e-4
-1.370, 9.784e-4
-1.371, 9.952e-4
-1.372, 1.014e-3
-1.373, 1.033e-3
-1.374, 1.049e-3
-1.375, 1.065e-3
-1.376, 1.084e-3
-1.377, 1.103e-3
-1.378, 1.121e-3
-1.379, 1.138e-3
-1.380, 1.158e-3
-1.381, 1.178e-3
-1.382, 1.198e-3
-1.383, 1.217e-3
-1.384, 1.236e-3
-1.385, 1.257e-3
-1.386, 1.277e-3
-1.387, 1.297e-3
-1.388, 1.319e-3
-1.389, 1.340e-3
-1.390, 1.364e-3
-1.391, 1.384e-3
-1.392, 1.405e-3
-1.393, 1.429e-3
-1.394, 1.449e-3
-1.395, 1.469e-3
-1.396, 1.491e-3
-1.397, 1.514e-3
-1.398, 1.536e-3
-1.399, 1.561e-3
-1.400, 1.539e-3
-1.399, 1.500e-3
-1.398, 1.470e-3
-1.397, 1.440e-3
-1.396, 1.411e-3
-1.395, 1.383e-3
-1.394, 1.355e-3
-1.393, 1.329e-3
-1.392, 1.304e-3
-1.391, 1.277e-3
-1.390, 1.251e-3
-1.389, 1.227e-3
-1.388, 1.205e-3
-1.387, 1.184e-3
-1.386, 1.163e-3
-1.385, 1.140e-3
-1.384, 1.118e-3
-1.383, 1.095e-3
-1.382, 1.073e-3
-1.381, 1.054e-3
-1.380, 1.033e-3
-1.379, 1.012e-3
-1.378, 9.914e-4
-1.377, 9.715e-4
-1.376, 9.528e-4
-1.375, 9.352e-4
-1.374, 9.158e-4
-1.373, 8.976e-4
-1.372, 8.789e-4
-1.371, 8.618e-4
-1.370, 8.451e-4
-1.369, 8.267e-4
-1.368, 8.090e-4
-1.367, 7.921e-4
-1.366, 7.765e-4
-1.365, 7.620e-4
-1.364, 7.469e-4
-1.363, 7.309e-4
-1.362, 7.163e-4
-1.361, 7.012e-4
-1.360, 6.859e-4
-1.359, 6.706e-4
-1.358, 6.563e-4
-1.357, 6.426e-4
-1.356, 6.289e-4
-1.355, 6.151e-4
-1.354, 6.023e-4
-1.353, 5.899e-4
-1.352, 5.775e-4
-1.351, 5.651e-4
-1.350, 5.524e-4
-1.349, 5.405e-4
-1.348, 5.275e-4
-1.347, 5.158e-4
-1.346, 5.042e-4
-1.345, 4.929e-4
-1.344, 4.813e-4
-1.343, 4.700e-4
-1.342, 4.595e-4
-1.341, 4.508e-4
-1.340, 4.400e-4
-1.339, 4.293e-4
-1.338, 4.193e-4
-1.337, 4.084e-4
-1.336, 3.996e-4
-1.335, 3.901e-4
-1.334, 3.803e-4
-1.333, 3.721e-4
-1.332, 3.621e-4
-1.331, 3.537e-4
-1.330, 3.453e-4
-1.329, 3.367e-4
-1.328, 3.285e-4
-1.327, 3.203e-4
-1.326, 3.119e-4
-1.325, 3.043e-4
-1.324, 2.965e-4
-1.323, 2.890e-4
-1.322, 2.814e-4
-1.321, 2.742e-4
-1.320, 2.672e-4
-1.319, 2.601e-4
-1.318, 2.529e-4
-1.317, 2.462e-4
-1.316, 2.400e-4
-1.315, 2.334e-4
-1.314, 2.267e-4
-1.313, 2.204e-4
-1.312, 2.143e-4
-1.311, 2.081e-4
-1.310, 2.023e-4
-1.309, 1.971e-4
-1.308, 1.906e-4
-1.307, 1.853e-4
-1.306, 1.804e-4
-1.305, 1.756e-4
-1.304, 1.700e-4
-1.303, 1.647e-4
-1.302, 1.594e-4
-1.301, 1.547e-4
-1.300, 1.500e-4
-1.299, 1.451e-4
-1.298, 1.404e-4
-1.297, 1.357e-4
-1.296, 1.321e-4
-1.295, 1.273e-4
-1.294, 1.229e-4
-1.293, 1.188e-4
-1.292, 1.147e-4
-1.291, 1.108e-4
-1.290, 1.071e-4
-1.289, 1.027e-4
-1.288, 9.915e-5
-1.287, 9.561e-5
-1.286, 9.241e-5
-1.285, 8.899e-5
-1.284, 8.551e-5
-1.283, 8.193e-5
-1.282, 7.875e-5
-1.281, 7.545e-5
-1.280, 7.214e-5
-1.279, 6.917e-5
-1.278, 6.576e-5
-1.277, 6.300e-5
-1.276, 6.041e-5
-1.275, 5.768e-5
-1.274, 5.513e-5
-1.273, 5.257e-5
-1.272, 4.984e-5
-1.271, 4.730e-5
-1.270, 4.443e-5
-1.269, 4.221e-5
-1.268, 3.937e-5
-1.267, 3.719e-5
-1.266, 3.525e-5
-1.265, 3.289e-5
-1.264, 3.062e-5
-1.263, 2.852e-5
-1.262, 2.632e-5
-1.261, 2.489e-5
-1.260, 2.267e-5
-1.259, 2.059e-5
-1.258, 1.860e-5
-1.257, 1.654e-5
-1.256, 1.555e-5
-1.255, 1.343e-5
-1.254, 1.111e-5
-1.253, 9.583e-6
-1.252, 7.996e-6
-1.251, 6.754e-6
-1.250, 5.232e-6
-1.249, 3.221e-6
-1.248, 1.916e-6
-1.247, 3.293e-7
-1.246, -9.513e-7
-1.245, -1.712e-6
-1.244, -3.656e-6
-1.243, -5.164e-6
-1.242, -6.373e-6
-1.241, -7.546e-6
-1.240, -8.574e-6
-1.239, -1.009e-5
-1.238, -1.130e-5
-1.237, -1.223e-5
-1.236, -1.302e-5
-1.235, -1.425e-5
-1.234, -1.535e-5
-1.233, -1.676e-5
-1.232, -1.739e-5
-1.231, -1.845e-5
-1.230, -1.951e-5
-1.229, -2.112e-5
-1.228, -2.174e-5
-1.227, -2.237e-5
-1.226, -2.283e-5
-1.225, -2.385e-5
-1.224, -2.461e-5
-1.223, -2.591e-5
-1.222, -2.682e-5
-1.221, -2.706e-5
-1.220, -2.803e-5
-1.219, -2.887e-5
-1.218, -2.957e-5
-1.217, -3.053e-5
-1.216, -3.055e-5
-1.215, -3.129e-5
-1.214, -3.242e-5
-1.213, -3.291e-5
-1.212, -3.356e-5
-1.211, -3.387e-5
-1.210, -3.447e-5
-1.209, -3.543e-5
-1.208, -3.599e-5
-1.207, -3.649e-5
-1.206, -3.703e-5
-1.205, -3.724e-5
-1.204, -3.804e-5
-1.203, -3.876e-5
-1.202, -3.903e-5
-1.201, -3.918e-5
-1.200, -3.986e-5
-1.199, -4.062e-5
-1.198, -4.125e-5
-1.197, -4.110e-5
-1.196, -4.171e-5
-1.195, -4.225e-5
-1.194, -4.280e-5
-1.193, -4.358e-5
-1.192, -4.344e-5
-1.191, -4.392e-5
-1.190, -4.446e-5
-1.189, -4.487e-5
-1.188, -4.542e-5
-1.187, -4.577e-5
-1.186, -4.587e-5
-1.185, -4.633e-5
-1.184, -4.669e-5
-1.183, -4.750e-5
-1.182, -4.787e-5
-1.181, -4.769e-5
-1.180, -4.817e-5
-1.179, -4.869e-5
-1.178, -4.941e-5
-1.177, -4.977e-5
-1.176, -4.980e-5
-1.175, -4.989e-5
-1.174, -5.066e-5
-1.173, -5.112e-5
-1.172, -5.119e-5
-1.171, -5.163e-5
-1.170, -5.173e-5
-1.169, -5.256e-5
-1.168, -5.273e-5
-1.167, -5.280e-5
-1.166, -5.298e-5
-1.165, -5.326e-5
-1.164, -5.395e-5
-1.163, -5.461e-5
-1.162, -5.456e-5
-1.161, -5.508e-5
-1.160, -5.513e-5
-1.159, -5.575e-5
-1.158, -5.647e-5
-1.157, -5.640e-5
-1.156, -5.672e-5
-1.155, -5.701e-5
-1.154, -5.761e-5
-1.153, -5.820e-5
-1.152, -5.827e-5
-1.151, -5.841e-5
-1.150, -5.897e-5
-1.149, -5.910e-5
-1.148, -6.005e-5
-1.147, -6.029e-5
-1.146, -6.039e-5
-1.145, -6.062e-5
-1.144, -6.100e-5
-1.143, -6.168e-5
-1.142, -6.196e-5
-1.141, -6.203e-5
-1.140, -6.257e-5
-1.139, -6.308e-5
-1.138, -6.346e-5
-1.137, -6.383e-5
-1.136, -6.371e-5
-1.135, -6.418e-5
-1.134, -6.509e-5
-1.133, -6.533e-5
-1.132, -6.567e-5
-1.131, -6.607e-5
-1.130, -6.588e-5
-1.129, -6.728e-5
-1.128, -6.735e-5
-1.127, -6.765e-5
-1.126, -6.824e-5
-1.125, -6.824e-5
-1.124, -6.880e-5
-1.123, -6.949e-5
-1.122, -6.966e-5
-1.121, -6.997e-5
-1.120, -7.025e-5
-1.119, -7.071e-5
-1.118, -7.155e-5
-1.117, -7.157e-5
-1.116, -7.213e-5
-1.115, -7.252e-5
-1.114, -7.302e-5
-1.113, -7.386e-5
-1.112, -7.382e-5
-1.111, -7.416e-5
-1.110, -7.474e-5
-1.109, -7.542e-5
-1.108, -7.582e-5
-1.107, -7.609e-5
-1.106, -7.629e-5
-1.105, -7.712e-5
-1.104, -7.737e-5
-1.103, -7.822e-5
-1.102, -7.864e-5
-1.101, -7.910e-5
-1.100, -7.987e-5
-1.099, -8.007e-5
-1.098, -8.055e-5
-1.097, -8.128e-5
-1.096, -8.137e-5
-1.095, -8.215e-5
-1.094, -8.291e-5
-1.093, -8.355e-5
-1.092, -8.392e-5
-1.091, -8.451e-5
-1.090, -8.497e-5
-1.089, -8.592e-5
-1.088, -8.636e-5
-1.087, -8.683e-5
-1.086, -8.744e-5
-1.085, -8.789e-5
-1.084, -8.866e-5
-1.083, -8.953e-5
-1.082, -8.953e-5
-1.081, -9.068e-5
-1.080, -9.112e-5
-1.079, -9.185e-5
-1.078, -9.306e-5
-1.077, -9.321e-5
-1.076, -9.395e-5
-1.075, -9.507e-5
-1.074, -9.568e-5
-1.073, -9.680e-5
-1.072, -9.691e-5
-1.071, -9.781e-5
-1.070, -9.882e-5
-1.069, -9.944e-5
-1.068, -1.006e-4
-1.067, -1.013e-4
-1.066, -1.019e-4
-1.065, -1.029e-4
-1.064, -1.037e-4
-1.063, -1.048e-4
-1.062, -1.060e-4
-1.061, -1.065e-4
-1.060, -1.074e-4
-1.059, -1.087e-4
-1.058, -1.098e-4
-1.057, -1.107e-4
-1.056, -1.114e-4
-1.055, -1.126e-4
-1.054, -1.141e-4
-1.053, -1.151e-4
-1.052, -1.160e-4
-1.051, -1.168e-4
-1.050, -1.179e-4
-1.049, -1.195e-4
-1.048, -1.209e-4
-1.047, -1.221e-4
-1.046, -1.234e-4
-1.045, -1.244e-4
-1.044, -1.260e-4
-1.043, -1.272e-4
-1.042, -1.287e-4
-1.041, -1.303e-4
-1.040, -1.311e-4
-1.039, -1.329e-4
-1.038, -1.347e-4
-1.037, -1.358e-4
-1.036, -1.374e-4
-1.035, -1.390e-4
-1.034, -1.408e-4
-1.033, -1.428e-4
-1.032, -1.440e-4
-1.031, -1.456e-4
-1.030, -1.473e-4
-1.029, -1.491e-4
-1.028, -1.510e-4
-1.027, -1.526e-4
-1.026, -1.542e-4
-1.025, -1.564e-4
-1.024, -1.587e-4
-1.023, -1.611e-4
-1.022, -1.629e-4
-1.021, -1.645e-4
-1.020, -1.668e-4
-1.019, -1.693e-4
-1.018, -1.713e-4
-1.017, -1.737e-4
-1.016, -1.756e-4
-1.015, -1.777e-4
-1.014, -1.801e-4
-1.013, -1.830e-4
-1.012, -1.854e-4
-1.011, -1.879e-4
-1.010, -1.906e-4
-1.009, -1.938e-4
-1.008, -1.961e-4
-1.007, -1.985e-4
-1.006, -2.015e-4
-1.005, -2.038e-4
-1.004, -2.068e-4
-1.003, -2.095e-4
-1.002, -2.124e-4
-1.001, -2.161e-4
