Dec. 22, 2024   04:01:13
Linear Sweep Voltammetry
File: c:/users/guazh/data/banditlqround7_x0exp667_r5/2024-12-16-exp727\1acid_2ac-2024-12-22t03_57_59-lsvinphos\1acid_2ac_lsv_50mvs_efin_-2300mv.bin
Data Source:  Experiment
Instrument Model:  CHI760E
Header: LSV ran at 50 mVs with Efin at -2300mV
Note: 

Init E (V) = -0.6
Final E (V) = -2.3
Scan Rate (V/s) = 0.05
Sample Interval (V) = 0.001
Quiet Time (sec) = 2
Sensitivity (A/V) = 1e-4
Comp R (ohm) = 8.7

Results:

Channel 1:
Ep = -2.012V
ip = 8.607e-4A
Ah = 1.343e-3C

Potential/V, Current/A

-0.600, 2.428e-6
-0.601, 2.526e-6
-0.602, 2.569e-6
-0.603, 2.603e-6
-0.604, 2.632e-6
-0.605, 2.659e-6
-0.606, 2.685e-6
-0.607, 2.713e-6
-0.608, 2.743e-6
-0.609, 2.771e-6
-0.610, 2.795e-6
-0.611, 2.822e-6
-0.612, 2.850e-6
-0.613, 2.879e-6
-0.614, 2.907e-6
-0.615, 2.935e-6
-0.616, 2.960e-6
-0.617, 2.988e-6
-0.618, 3.020e-6
-0.619, 3.047e-6
-0.620, 3.072e-6
-0.621, 3.100e-6
-0.622, 3.128e-6
-0.623, 3.159e-6
-0.624, 3.189e-6
-0.625, 3.214e-6
-0.626, 3.241e-6
-0.627, 3.271e-6
-0.628, 3.303e-6
-0.629, 3.330e-6
-0.630, 3.359e-6
-0.631, 3.388e-6
-0.632, 3.418e-6
-0.633, 3.452e-6
-0.634, 3.481e-6
-0.635, 3.509e-6
-0.636, 3.537e-6
-0.637, 3.568e-6
-0.638, 3.601e-6
-0.639, 3.630e-6
-0.640, 3.660e-6
-0.641, 3.691e-6
-0.642, 3.722e-6
-0.643, 3.756e-6
-0.644, 3.787e-6
-0.645, 3.814e-6
-0.646, 3.846e-6
-0.647, 3.878e-6
-0.648, 3.912e-6
-0.649, 3.943e-6
-0.650, 3.973e-6
-0.651, 4.004e-6
-0.652, 4.036e-6
-0.653, 4.070e-6
-0.654, 4.103e-6
-0.655, 4.133e-6
-0.656, 4.162e-6
-0.657, 4.195e-6
-0.658, 4.229e-6
-0.659, 4.260e-6
-0.660, 4.292e-6
-0.661, 4.321e-6
-0.662, 4.355e-6
-0.663, 4.390e-6
-0.664, 4.424e-6
-0.665, 4.457e-6
-0.666, 4.489e-6
-0.667, 4.524e-6
-0.668, 4.561e-6
-0.669, 4.593e-6
-0.670, 4.624e-6
-0.671, 4.655e-6
-0.672, 4.691e-6
-0.673, 4.727e-6
-0.674, 4.760e-6
-0.675, 4.791e-6
-0.676, 4.824e-6
-0.677, 4.858e-6
-0.678, 4.894e-6
-0.679, 4.926e-6
-0.680, 4.958e-6
-0.681, 4.992e-6
-0.682, 5.027e-6
-0.683, 5.063e-6
-0.684, 5.097e-6
-0.685, 5.128e-6
-0.686, 5.160e-6
-0.687, 5.195e-6
-0.688, 5.231e-6
-0.689, 5.265e-6
-0.690, 5.295e-6
-0.691, 5.328e-6
-0.692, 5.363e-6
-0.693, 5.398e-6
-0.694, 5.432e-6
-0.695, 5.462e-6
-0.696, 5.495e-6
-0.697, 5.528e-6
-0.698, 5.564e-6
-0.699, 5.598e-6
-0.700, 5.629e-6
-0.701, 5.659e-6
-0.702, 5.690e-6
-0.703, 5.725e-6
-0.704, 5.758e-6
-0.705, 5.789e-6
-0.706, 5.820e-6
-0.707, 5.854e-6
-0.708, 5.886e-6
-0.709, 5.915e-6
-0.710, 5.943e-6
-0.711, 5.973e-6
-0.712, 6.004e-6
-0.713, 6.039e-6
-0.714, 6.069e-6
-0.715, 6.098e-6
-0.716, 6.126e-6
-0.717, 6.157e-6
-0.718, 6.187e-6
-0.719, 6.216e-6
-0.720, 6.240e-6
-0.721, 6.268e-6
-0.722, 6.297e-6
-0.723, 6.329e-6
-0.724, 6.357e-6
-0.725, 6.382e-6
-0.726, 6.410e-6
-0.727, 6.438e-6
-0.728, 6.467e-6
-0.729, 6.494e-6
-0.730, 6.519e-6
-0.731, 6.545e-6
-0.732, 6.572e-6
-0.733, 6.599e-6
-0.734, 6.625e-6
-0.735, 6.648e-6
-0.736, 6.672e-6
-0.737, 6.696e-6
-0.738, 6.722e-6
-0.739, 6.746e-6
-0.740, 6.768e-6
-0.741, 6.789e-6
-0.742, 6.813e-6
-0.743, 6.838e-6
-0.744, 6.861e-6
-0.745, 6.879e-6
-0.746, 6.898e-6
-0.747, 6.919e-6
-0.748, 6.943e-6
-0.749, 6.963e-6
-0.750, 6.981e-6
-0.751, 6.998e-6
-0.752, 7.017e-6
-0.753, 7.038e-6
-0.754, 7.055e-6
-0.755, 7.073e-6
-0.756, 7.090e-6
-0.757, 7.105e-6
-0.758, 7.125e-6
-0.759, 7.142e-6
-0.760, 7.155e-6
-0.761, 7.170e-6
-0.762, 7.185e-6
-0.763, 7.202e-6
-0.764, 7.216e-6
-0.765, 7.227e-6
-0.766, 7.241e-6
-0.767, 7.252e-6
-0.768, 7.269e-6
-0.769, 7.282e-6
-0.770, 7.290e-6
-0.771, 7.301e-6
-0.772, 7.311e-6
-0.773, 7.325e-6
-0.774, 7.335e-6
-0.775, 7.343e-6
-0.776, 7.351e-6
-0.777, 7.359e-6
-0.778, 7.371e-6
-0.779, 7.380e-6
-0.780, 7.384e-6
-0.781, 7.391e-6
-0.782, 7.400e-6
-0.783, 7.409e-6
-0.784, 7.414e-6
-0.785, 7.418e-6
-0.786, 7.423e-6
-0.787, 7.428e-6
-0.788, 7.435e-6
-0.789, 7.439e-6
-0.790, 7.443e-6
-0.791, 7.444e-6
-0.792, 7.449e-6
-0.793, 7.455e-6
-0.794, 7.460e-6
-0.795, 7.459e-6
-0.796, 7.462e-6
-0.797, 7.462e-6
-0.798, 7.467e-6
-0.799, 7.468e-6
-0.800, 7.468e-6
-0.801, 7.467e-6
-0.802, 7.466e-6
-0.803, 7.469e-6
-0.804, 7.469e-6
-0.805, 7.465e-6
-0.806, 7.464e-6
-0.807, 7.463e-6
-0.808, 7.463e-6
-0.809, 7.461e-6
-0.810, 7.458e-6
-0.811, 7.455e-6
-0.812, 7.452e-6
-0.813, 7.451e-6
-0.814, 7.449e-6
-0.815, 7.442e-6
-0.816, 7.438e-6
-0.817, 7.434e-6
-0.818, 7.433e-6
-0.819, 7.433e-6
-0.820, 7.428e-6
-0.821, 7.419e-6
-0.822, 7.415e-6
-0.823, 7.411e-6
-0.824, 7.406e-6
-0.825, 7.398e-6
-0.826, 7.392e-6
-0.827, 7.386e-6
-0.828, 7.382e-6
-0.829, 7.376e-6
-0.830, 7.369e-6
-0.831, 7.360e-6
-0.832, 7.354e-6
-0.833, 7.351e-6
-0.834, 7.343e-6
-0.835, 7.334e-6
-0.836, 7.326e-6
-0.837, 7.317e-6
-0.838, 7.314e-6
-0.839, 7.306e-6
-0.840, 7.295e-6
-0.841, 7.288e-6
-0.842, 7.278e-6
-0.843, 7.271e-6
-0.844, 7.263e-6
-0.845, 7.254e-6
-0.846, 7.246e-6
-0.847, 7.236e-6
-0.848, 7.230e-6
-0.849, 7.223e-6
-0.850, 7.210e-6
-0.851, 7.201e-6
-0.852, 7.192e-6
-0.853, 7.185e-6
-0.854, 7.178e-6
-0.855, 7.165e-6
-0.856, 7.155e-6
-0.857, 7.146e-6
-0.858, 7.139e-6
-0.859, 7.130e-6
-0.860, 7.120e-6
-0.861, 7.106e-6
-0.862, 7.097e-6
-0.863, 7.090e-6
-0.864, 7.081e-6
-0.865, 7.070e-6
-0.866, 7.058e-6
-0.867, 7.047e-6
-0.868, 7.041e-6
-0.869, 7.031e-6
-0.870, 7.019e-6
-0.871, 7.010e-6
-0.872, 6.999e-6
-0.873, 6.993e-6
-0.874, 6.983e-6
-0.875, 6.970e-6
-0.876, 6.959e-6
-0.877, 6.950e-6
-0.878, 6.941e-6
-0.879, 6.932e-6
-0.880, 6.920e-6
-0.881, 6.909e-6
-0.882, 6.899e-6
-0.883, 6.892e-6
-0.884, 6.883e-6
-0.885, 6.870e-6
-0.886, 6.860e-6
-0.887, 6.850e-6
-0.888, 6.842e-6
-0.889, 6.834e-6
-0.890, 6.821e-6
-0.891, 6.810e-6
-0.892, 6.800e-6
-0.893, 6.792e-6
-0.894, 6.783e-6
-0.895, 6.771e-6
-0.896, 6.760e-6
-0.897, 6.751e-6
-0.898, 6.742e-6
-0.899, 6.735e-6
-0.900, 6.723e-6
-0.901, 6.712e-6
-0.902, 6.702e-6
-0.903, 6.696e-6
-0.904, 6.685e-6
-0.905, 6.676e-6
-0.906, 6.664e-6
-0.907, 6.655e-6
-0.908, 6.649e-6
-0.909, 6.641e-6
-0.910, 6.629e-6
-0.911, 6.618e-6
-0.912, 6.609e-6
-0.913, 6.603e-6
-0.914, 6.593e-6
-0.915, 6.583e-6
-0.916, 6.572e-6
-0.917, 6.563e-6
-0.918, 6.558e-6
-0.919, 6.548e-6
-0.920, 6.539e-6
-0.921, 6.528e-6
-0.922, 6.519e-6
-0.923, 6.513e-6
-0.924, 6.505e-6
-0.925, 6.495e-6
-0.926, 6.484e-6
-0.927, 6.475e-6
-0.928, 6.470e-6
-0.929, 6.462e-6
-0.930, 6.452e-6
-0.931, 6.442e-6
-0.932, 6.433e-6
-0.933, 6.427e-6
-0.934, 6.421e-6
-0.935, 6.412e-6
-0.936, 6.401e-6
-0.937, 6.394e-6
-0.938, 6.388e-6
-0.939, 6.382e-6
-0.940, 6.371e-6
-0.941, 6.362e-6
-0.942, 6.352e-6
-0.943, 6.347e-6
-0.944, 6.341e-6
-0.945, 6.333e-6
-0.946, 6.323e-6
-0.947, 6.314e-6
-0.948, 6.310e-6
-0.949, 6.303e-6
-0.950, 6.294e-6
-0.951, 6.285e-6
-0.952, 6.277e-6
-0.953, 6.273e-6
-0.954, 6.265e-6
-0.955, 6.257e-6
-0.956, 6.247e-6
-0.957, 6.240e-6
-0.958, 6.238e-6
-0.959, 6.230e-6
-0.960, 6.223e-6
-0.961, 6.216e-6
-0.962, 6.208e-6
-0.963, 6.204e-6
-0.964, 6.199e-6
-0.965, 6.191e-6
-0.966, 6.184e-6
-0.967, 6.177e-6
-0.968, 6.174e-6
-0.969, 6.169e-6
-0.970, 6.160e-6
-0.971, 6.152e-6
-0.972, 6.145e-6
-0.973, 6.143e-6
-0.974, 6.138e-6
-0.975, 6.129e-6
-0.976, 6.121e-6
-0.977, 6.115e-6
-0.978, 6.111e-6
-0.979, 6.106e-6
-0.980, 6.100e-6
-0.981, 6.091e-6
-0.982, 6.083e-6
-0.983, 6.080e-6
-0.984, 6.076e-6
-0.985, 6.067e-6
-0.986, 6.061e-6
-0.987, 6.056e-6
-0.988, 6.052e-6
-0.989, 6.047e-6
-0.990, 6.040e-6
-0.991, 6.033e-6
-0.992, 6.025e-6
-0.993, 6.024e-6
-0.994, 6.019e-6
-0.995, 6.011e-6
-0.996, 6.004e-6
-0.997, 5.998e-6
-0.998, 5.995e-6
-0.999, 5.991e-6
-1.000, 5.983e-6
-1.001, 5.977e-6
-1.002, 5.971e-6
-1.003, 5.968e-6
-1.004, 5.963e-6
-1.005, 5.957e-6
-1.006, 5.952e-6
-1.007, 5.945e-6
-1.008, 5.942e-6
-1.009, 5.939e-6
-1.010, 5.932e-6
-1.011, 5.927e-6
-1.012, 5.922e-6
-1.013, 5.919e-6
-1.014, 5.916e-6
-1.015, 5.909e-6
-1.016, 5.904e-6
-1.017, 5.899e-6
-1.018, 5.897e-6
-1.019, 5.894e-6
-1.020, 5.888e-6
-1.021, 5.883e-6
-1.022, 5.877e-6
-1.023, 5.874e-6
-1.024, 5.873e-6
-1.025, 5.868e-6
-1.026, 5.862e-6
-1.027, 5.856e-6
-1.028, 5.854e-6
-1.029, 5.850e-6
-1.030, 5.844e-6
-1.031, 5.838e-6
-1.032, 5.834e-6
-1.033, 5.831e-6
-1.034, 5.828e-6
-1.035, 5.821e-6
-1.036, 5.815e-6
-1.037, 5.812e-6
-1.038, 5.810e-6
-1.039, 5.807e-6
-1.040, 5.801e-6
-1.041, 5.796e-6
-1.042, 5.790e-6
-1.043, 5.789e-6
-1.044, 5.786e-6
-1.045, 5.779e-6
-1.046, 5.775e-6
-1.047, 5.770e-6
-1.048, 5.768e-6
-1.049, 5.766e-6
-1.050, 5.761e-6
-1.051, 5.754e-6
-1.052, 5.752e-6
-1.053, 5.748e-6
-1.054, 5.746e-6
-1.055, 5.740e-6
-1.056, 5.736e-6
-1.057, 5.732e-6
-1.058, 5.729e-6
-1.059, 5.728e-6
-1.060, 5.722e-6
-1.061, 5.717e-6
-1.062, 5.713e-6
-1.063, 5.712e-6
-1.064, 5.709e-6
-1.065, 5.704e-6
-1.066, 5.700e-6
-1.067, 5.696e-6
-1.068, 5.694e-6
-1.069, 5.692e-6
-1.070, 5.687e-6
-1.071, 5.683e-6
-1.072, 5.678e-6
-1.073, 5.678e-6
-1.074, 5.676e-6
-1.075, 5.672e-6
-1.076, 5.667e-6
-1.077, 5.662e-6
-1.078, 5.662e-6
-1.079, 5.660e-6
-1.080, 5.655e-6
-1.081, 5.651e-6
-1.082, 5.648e-6
-1.083, 5.646e-6
-1.084, 5.645e-6
-1.085, 5.641e-6
-1.086, 5.636e-6
-1.087, 5.633e-6
-1.088, 5.632e-6
-1.089, 5.632e-6
-1.090, 5.627e-6
-1.091, 5.622e-6
-1.092, 5.620e-6
-1.093, 5.618e-6
-1.094, 5.618e-6
-1.095, 5.613e-6
-1.096, 5.609e-6
-1.097, 5.604e-6
-1.098, 5.604e-6
-1.099, 5.604e-6
-1.100, 5.599e-6
-1.101, 5.595e-6
-1.102, 5.592e-6
-1.103, 5.591e-6
-1.104, 5.591e-6
-1.105, 5.586e-6
-1.106, 5.581e-6
-1.107, 5.579e-6
-1.108, 5.579e-6
-1.109, 5.577e-6
-1.110, 5.573e-6
-1.111, 5.568e-6
-1.112, 5.566e-6
-1.113, 5.566e-6
-1.114, 5.566e-6
-1.115, 5.562e-6
-1.116, 5.557e-6
-1.117, 5.554e-6
-1.118, 5.555e-6
-1.119, 5.554e-6
-1.120, 5.550e-6
-1.121, 5.547e-6
-1.122, 5.543e-6
-1.123, 5.544e-6
-1.124, 5.543e-6
-1.125, 5.538e-6
-1.126, 5.536e-6
-1.127, 5.533e-6
-1.128, 5.532e-6
-1.129, 5.533e-6
-1.130, 5.529e-6
-1.131, 5.525e-6
-1.132, 5.522e-6
-1.133, 5.522e-6
-1.134, 5.521e-6
-1.135, 5.519e-6
-1.136, 5.516e-6
-1.137, 5.514e-6
-1.138, 5.513e-6
-1.139, 5.513e-6
-1.140, 5.510e-6
-1.141, 5.507e-6
-1.142, 5.504e-6
-1.143, 5.503e-6
-1.144, 5.504e-6
-1.145, 5.501e-6
-1.146, 5.497e-6
-1.147, 5.495e-6
-1.148, 5.495e-6
-1.149, 5.494e-6
-1.150, 5.492e-6
-1.151, 5.489e-6
-1.152, 5.488e-6
-1.153, 5.488e-6
-1.154, 5.487e-6
-1.155, 5.485e-6
-1.156, 5.482e-6
-1.157, 5.478e-6
-1.158, 5.480e-6
-1.159, 5.480e-6
-1.160, 5.477e-6
-1.161, 5.475e-6
-1.162, 5.471e-6
-1.163, 5.472e-6
-1.164, 5.473e-6
-1.165, 5.470e-6
-1.166, 5.468e-6
-1.167, 5.465e-6
-1.168, 5.466e-6
-1.169, 5.466e-6
-1.170, 5.463e-6
-1.171, 5.461e-6
-1.172, 5.458e-6
-1.173, 5.460e-6
-1.174, 5.461e-6
-1.175, 5.459e-6
-1.176, 5.455e-6
-1.177, 5.453e-6
-1.178, 5.455e-6
-1.179, 5.456e-6
-1.180, 5.453e-6
-1.181, 5.450e-6
-1.182, 5.449e-6
-1.183, 5.449e-6
-1.184, 5.450e-6
-1.185, 5.448e-6
-1.186, 5.445e-6
-1.187, 5.442e-6
-1.188, 5.443e-6
-1.189, 5.444e-6
-1.190, 5.443e-6
-1.191, 5.440e-6
-1.192, 5.439e-6
-1.193, 5.440e-6
-1.194, 5.439e-6
-1.195, 5.439e-6
-1.196, 5.435e-6
-1.197, 5.433e-6
-1.198, 5.435e-6
-1.199, 5.436e-6
-1.200, 5.434e-6
-1.201, 5.432e-6
-1.202, 5.430e-6
-1.203, 5.431e-6
-1.204, 5.433e-6
-1.205, 5.431e-6
-1.206, 5.430e-6
-1.207, 5.428e-6
-1.208, 5.427e-6
-1.209, 5.430e-6
-1.210, 5.428e-6
-1.211, 5.425e-6
-1.212, 5.424e-6
-1.213, 5.425e-6
-1.214, 5.427e-6
-1.215, 5.424e-6
-1.216, 5.423e-6
-1.217, 5.422e-6
-1.218, 5.422e-6
-1.219, 5.423e-6
-1.220, 5.423e-6
-1.221, 5.420e-6
-1.222, 5.419e-6
-1.223, 5.420e-6
-1.224, 5.422e-6
-1.225, 5.420e-6
-1.226, 5.418e-6
-1.227, 5.417e-6
-1.228, 5.418e-6
-1.229, 5.424e-6
-1.230, 5.421e-6
-1.231, 5.419e-6
-1.232, 5.417e-6
-1.233, 5.418e-6
-1.234, 5.419e-6
-1.235, 5.417e-6
-1.236, 5.416e-6
-1.237, 5.414e-6
-1.238, 5.415e-6
-1.239, 5.417e-6
-1.240, 5.416e-6
-1.241, 5.414e-6
-1.242, 5.414e-6
-1.243, 5.415e-6
-1.244, 5.417e-6
-1.245, 5.416e-6
-1.246, 5.415e-6
-1.247, 5.412e-6
-1.248, 5.414e-6
-1.249, 5.416e-6
-1.250, 5.415e-6
-1.251, 5.413e-6
-1.252, 5.412e-6
-1.253, 5.412e-6
-1.254, 5.417e-6
-1.255, 5.416e-6
-1.256, 5.413e-6
-1.257, 5.413e-6
-1.258, 5.413e-6
-1.259, 5.415e-6
-1.260, 5.414e-6
-1.261, 5.413e-6
-1.262, 5.412e-6
-1.263, 5.414e-6
-1.264, 5.416e-6
-1.265, 5.415e-6
-1.266, 5.413e-6
-1.267, 5.413e-6
-1.268, 5.415e-6
-1.269, 5.416e-6
-1.270, 5.415e-6
-1.271, 5.413e-6
-1.272, 5.412e-6
-1.273, 5.415e-6
-1.274, 5.416e-6
-1.275, 5.416e-6
-1.276, 5.415e-6
-1.277, 5.413e-6
-1.278, 5.416e-6
-1.279, 5.418e-6
-1.280, 5.418e-6
-1.281, 5.417e-6
-1.282, 5.415e-6
-1.283, 5.417e-6
-1.284, 5.419e-6
-1.285, 5.419e-6
-1.286, 5.417e-6
-1.287, 5.416e-6
-1.288, 5.418e-6
-1.289, 5.421e-6
-1.290, 5.420e-6
-1.291, 5.418e-6
-1.292, 5.418e-6
-1.293, 5.421e-6
-1.294, 5.423e-6
-1.295, 5.422e-6
-1.296, 5.421e-6
-1.297, 5.420e-6
-1.298, 5.421e-6
-1.299, 5.425e-6
-1.300, 5.424e-6
-1.301, 5.422e-6
-1.302, 5.422e-6
-1.303, 5.424e-6
-1.304, 5.427e-6
-1.305, 5.427e-6
-1.306, 5.426e-6
-1.307, 5.426e-6
-1.308, 5.426e-6
-1.309, 5.430e-6
-1.310, 5.429e-6
-1.311, 5.428e-6
-1.312, 5.428e-6
-1.313, 5.430e-6
-1.314, 5.432e-6
-1.315, 5.433e-6
-1.316, 5.431e-6
-1.317, 5.430e-6
-1.318, 5.433e-6
-1.319, 5.437e-6
-1.320, 5.437e-6
-1.321, 5.435e-6
-1.322, 5.434e-6
-1.323, 5.437e-6
-1.324, 5.440e-6
-1.325, 5.440e-6
-1.326, 5.439e-6
-1.327, 5.438e-6
-1.328, 5.441e-6
-1.329, 5.445e-6
-1.330, 5.444e-6
-1.331, 5.444e-6
-1.332, 5.444e-6
-1.333, 5.445e-6
-1.334, 5.449e-6
-1.335, 5.450e-6
-1.336, 5.447e-6
-1.337, 5.448e-6
-1.338, 5.450e-6
-1.339, 5.453e-6
-1.340, 5.454e-6
-1.341, 5.452e-6
-1.342, 5.453e-6
-1.343, 5.454e-6
-1.344, 5.459e-6
-1.345, 5.460e-6
-1.346, 5.458e-6
-1.347, 5.457e-6
-1.348, 5.460e-6
-1.349, 5.464e-6
-1.350, 5.465e-6
-1.351, 5.464e-6
-1.352, 5.464e-6
-1.353, 5.465e-6
-1.354, 5.469e-6
-1.355, 5.471e-6
-1.356, 5.470e-6
-1.357, 5.470e-6
-1.358, 5.472e-6
-1.359, 5.477e-6
-1.360, 5.477e-6
-1.361, 5.476e-6
-1.362, 5.475e-6
-1.363, 5.478e-6
-1.364, 5.482e-6
-1.365, 5.483e-6
-1.366, 5.483e-6
-1.367, 5.482e-6
-1.368, 5.485e-6
-1.369, 5.490e-6
-1.370, 5.490e-6
-1.371, 5.490e-6
-1.372, 5.490e-6
-1.373, 5.494e-6
-1.374, 5.498e-6
-1.375, 5.498e-6
-1.376, 5.497e-6
-1.377, 5.499e-6
-1.378, 5.499e-6
-1.379, 5.505e-6
-1.380, 5.507e-6
-1.381, 5.505e-6
-1.382, 5.507e-6
-1.383, 5.511e-6
-1.384, 5.515e-6
-1.385, 5.517e-6
-1.386, 5.514e-6
-1.387, 5.515e-6
-1.388, 5.518e-6
-1.389, 5.523e-6
-1.390, 5.524e-6
-1.391, 5.523e-6
-1.392, 5.523e-6
-1.393, 5.527e-6
-1.394, 5.531e-6
-1.395, 5.534e-6
-1.396, 5.532e-6
-1.397, 5.532e-6
-1.398, 5.537e-6
-1.399, 5.541e-6
-1.400, 5.541e-6
-1.401, 5.543e-6
-1.402, 5.542e-6
-1.403, 5.547e-6
-1.404, 5.552e-6
-1.405, 5.552e-6
-1.406, 5.554e-6
-1.407, 5.554e-6
-1.408, 5.558e-6
-1.409, 5.564e-6
-1.410, 5.565e-6
-1.411, 5.566e-6
-1.412, 5.566e-6
-1.413, 5.570e-6
-1.414, 5.575e-6
-1.415, 5.576e-6
-1.416, 5.578e-6
-1.417, 5.578e-6
-1.418, 5.581e-6
-1.419, 5.588e-6
-1.420, 5.590e-6
-1.421, 5.589e-6
-1.422, 5.592e-6
-1.423, 5.594e-6
-1.424, 5.601e-6
-1.425, 5.603e-6
-1.426, 5.603e-6
-1.427, 5.605e-6
-1.428, 5.608e-6
-1.429, 5.615e-6
-1.430, 5.618e-6
-1.431, 5.618e-6
-1.432, 5.619e-6
-1.433, 5.624e-6
-1.434, 5.631e-6
-1.435, 5.632e-6
-1.436, 5.633e-6
-1.437, 5.636e-6
-1.438, 5.640e-6
-1.439, 5.645e-6
-1.440, 5.648e-6
-1.441, 5.650e-6
-1.442, 5.651e-6
-1.443, 5.654e-6
-1.444, 5.661e-6
-1.445, 5.664e-6
-1.446, 5.665e-6
-1.447, 5.667e-6
-1.448, 5.672e-6
-1.449, 5.679e-6
-1.450, 5.681e-6
-1.451, 5.682e-6
-1.452, 5.685e-6
-1.453, 5.689e-6
-1.454, 5.697e-6
-1.455, 5.699e-6
-1.456, 5.700e-6
-1.457, 5.704e-6
-1.458, 5.707e-6
-1.459, 5.716e-6
-1.460, 5.721e-6
-1.461, 5.720e-6
-1.462, 5.724e-6
-1.463, 5.730e-6
-1.464, 5.738e-6
-1.465, 5.742e-6
-1.466, 5.742e-6
-1.467, 5.746e-6
-1.468, 5.751e-6
-1.469, 5.758e-6
-1.470, 5.764e-6
-1.471, 5.765e-6
-1.472, 5.767e-6
-1.473, 5.772e-6
-1.474, 5.781e-6
-1.475, 5.787e-6
-1.476, 5.789e-6
-1.477, 5.790e-6
-1.478, 5.798e-6
-1.479, 5.805e-6
-1.480, 5.810e-6
-1.481, 5.813e-6
-1.482, 5.815e-6
-1.483, 5.822e-6
-1.484, 5.830e-6
-1.485, 5.837e-6
-1.486, 5.839e-6
-1.487, 5.841e-6
-1.488, 5.849e-6
-1.489, 5.855e-6
-1.490, 5.860e-6
-1.491, 5.864e-6
-1.492, 5.868e-6
-1.493, 5.873e-6
-1.494, 5.881e-6
-1.495, 5.887e-6
-1.496, 5.890e-6
-1.497, 5.893e-6
-1.498, 5.898e-6
-1.499, 5.908e-6
-1.500, 5.913e-6
-1.501, 5.915e-6
-1.502, 5.919e-6
-1.503, 5.925e-6
-1.504, 5.932e-6
-1.505, 5.939e-6
-1.506, 5.942e-6
-1.507, 5.945e-6
-1.508, 5.953e-6
-1.509, 5.962e-6
-1.510, 5.969e-6
-1.511, 5.971e-6
-1.512, 5.976e-6
-1.513, 5.983e-6
-1.514, 5.991e-6
-1.515, 5.999e-6
-1.516, 6.003e-6
-1.517, 6.007e-6
-1.518, 6.014e-6
-1.519, 6.023e-6
-1.520, 6.032e-6
-1.521, 6.036e-6
-1.522, 6.038e-6
-1.523, 6.048e-6
-1.524, 6.058e-6
-1.525, 6.066e-6
-1.526, 6.071e-6
-1.527, 6.075e-6
-1.528, 6.082e-6
-1.529, 6.093e-6
-1.530, 6.101e-6
-1.531, 6.107e-6
-1.532, 6.112e-6
-1.533, 6.120e-6
-1.534, 6.133e-6
-1.535, 6.140e-6
-1.536, 6.145e-6
-1.537, 6.151e-6
-1.538, 6.159e-6
-1.539, 6.170e-6
-1.540, 6.180e-6
-1.541, 6.184e-6
-1.542, 6.191e-6
-1.543, 6.200e-6
-1.544, 6.212e-6
-1.545, 6.220e-6
-1.546, 6.226e-6
-1.547, 6.233e-6
-1.548, 6.241e-6
-1.549, 6.255e-6
-1.550, 6.265e-6
-1.551, 6.271e-6
-1.552, 6.279e-6
-1.553, 6.290e-6
-1.554, 6.304e-6
-1.555, 6.316e-6
-1.556, 6.322e-6
-1.557, 6.331e-6
-1.558, 6.341e-6
-1.559, 6.355e-6
-1.560, 6.366e-6
-1.561, 6.376e-6
-1.562, 6.381e-6
-1.563, 6.394e-6
-1.564, 6.408e-6
-1.565, 6.422e-6
-1.566, 6.431e-6
-1.567, 6.437e-6
-1.568, 6.450e-6
-1.569, 6.466e-6
-1.570, 6.477e-6
-1.571, 6.487e-6
-1.572, 6.496e-6
-1.573, 6.508e-6
-1.574, 6.525e-6
-1.575, 6.539e-6
-1.576, 6.548e-6
-1.577, 6.559e-6
-1.578, 6.569e-6
-1.579, 6.586e-6
-1.580, 6.602e-6
-1.581, 6.611e-6
-1.582, 6.622e-6
-1.583, 6.635e-6
-1.584, 6.651e-6
-1.585, 6.667e-6
-1.586, 6.676e-6
-1.587, 6.689e-6
-1.588, 6.703e-6
-1.589, 6.719e-6
-1.590, 6.736e-6
-1.591, 6.746e-6
-1.592, 6.757e-6
-1.593, 6.771e-6
-1.594, 6.790e-6
-1.595, 6.807e-6
-1.596, 6.817e-6
-1.597, 6.829e-6
-1.598, 6.845e-6
-1.599, 6.863e-6
-1.600, 6.881e-6
-1.601, 6.892e-6
-1.602, 6.902e-6
-1.603, 6.919e-6
-1.604, 6.938e-6
-1.605, 6.955e-6
-1.606, 6.970e-6
-1.607, 6.981e-6
-1.608, 6.997e-6
-1.609, 7.018e-6
-1.610, 7.035e-6
-1.611, 7.050e-6
-1.612, 7.064e-6
-1.613, 7.081e-6
-1.614, 7.103e-6
-1.615, 7.120e-6
-1.616, 7.135e-6
-1.617, 7.150e-6
-1.618, 7.166e-6
-1.619, 7.188e-6
-1.620, 7.210e-6
-1.621, 7.223e-6
-1.622, 7.238e-6
-1.623, 7.255e-6
-1.624, 7.278e-6
-1.625, 7.299e-6
-1.626, 7.313e-6
-1.627, 7.331e-6
-1.628, 7.348e-6
-1.629, 7.371e-6
-1.630, 7.394e-6
-1.631, 7.409e-6
-1.632, 7.427e-6
-1.633, 7.447e-6
-1.634, 7.471e-6
-1.635, 7.497e-6
-1.636, 7.514e-6
-1.637, 7.531e-6
-1.638, 7.556e-6
-1.639, 7.588e-6
-1.640, 7.607e-6
-1.641, 7.626e-6
-1.642, 7.645e-6
-1.643, 7.666e-6
-1.644, 7.693e-6
-1.645, 7.718e-6
-1.646, 7.740e-6
-1.647, 7.758e-6
-1.648, 7.781e-6
-1.649, 7.811e-6
-1.650, 7.836e-6
-1.651, 7.861e-6
-1.652, 7.881e-6
-1.653, 7.906e-6
-1.654, 7.937e-6
-1.655, 7.965e-6
-1.656, 7.988e-6
-1.657, 8.012e-6
-1.658, 8.038e-6
-1.659, 8.070e-6
-1.660, 8.099e-6
-1.661, 8.124e-6
-1.662, 8.149e-6
-1.663, 8.177e-6
-1.664, 8.213e-6
-1.665, 8.249e-6
-1.666, 8.277e-6
-1.667, 8.304e-6
-1.668, 8.333e-6
-1.669, 8.367e-6
-1.670, 8.403e-6
-1.671, 8.431e-6
-1.672, 8.461e-6
-1.673, 8.494e-6
-1.674, 8.533e-6
-1.675, 8.569e-6
-1.676, 8.598e-6
-1.677, 8.629e-6
-1.678, 8.666e-6
-1.679, 8.707e-6
-1.680, 8.749e-6
-1.681, 8.784e-6
-1.682, 8.817e-6
-1.683, 8.853e-6
-1.684, 8.896e-6
-1.685, 8.942e-6
-1.686, 8.979e-6
-1.687, 9.017e-6
-1.688, 9.061e-6
-1.689, 9.111e-6
-1.690, 9.160e-6
-1.691, 9.203e-6
-1.692, 9.245e-6
-1.693, 9.290e-6
-1.694, 9.343e-6
-1.695, 9.394e-6
-1.696, 9.441e-6
-1.697, 9.489e-6
-1.698, 9.538e-6
-1.699, 9.596e-6
-1.700, 9.655e-6
-1.701, 9.706e-6
-1.702, 9.762e-6
-1.703, 9.818e-6
-1.704, 9.882e-6
-1.705, 9.948e-6
-1.706, 1.001e-5
-1.707, 1.006e-5
-1.708, 1.012e-5
-1.709, 1.020e-5
-1.710, 1.027e-5
-1.711, 1.033e-5
-1.712, 1.040e-5
-1.713, 1.047e-5
-1.714, 1.055e-5
-1.715, 1.063e-5
-1.716, 1.071e-5
-1.717, 1.078e-5
-1.718, 1.086e-5
-1.719, 1.095e-5
-1.720, 1.104e-5
-1.721, 1.113e-5
-1.722, 1.121e-5
-1.723, 1.131e-5
-1.724, 1.141e-5
-1.725, 1.151e-5
-1.726, 1.161e-5
-1.727, 1.171e-5
-1.728, 1.181e-5
-1.729, 1.193e-5
-1.730, 1.204e-5
-1.731, 1.214e-5
-1.732, 1.226e-5
-1.733, 1.238e-5
-1.734, 1.252e-5
-1.735, 1.265e-5
-1.736, 1.278e-5
-1.737, 1.291e-5
-1.738, 1.305e-5
-1.739, 1.320e-5
-1.740, 1.335e-5
-1.741, 1.350e-5
-1.742, 1.366e-5
-1.743, 1.382e-5
-1.744, 1.399e-5
-1.745, 1.417e-5
-1.746, 1.433e-5
-1.747, 1.451e-5
-1.748, 1.470e-5
-1.749, 1.489e-5
-1.750, 1.509e-5
-1.751, 1.530e-5
-1.752, 1.550e-5
-1.753, 1.571e-5
-1.754, 1.593e-5
-1.755, 1.617e-5
-1.756, 1.641e-5
-1.757, 1.665e-5
-1.758, 1.690e-5
-1.759, 1.717e-5
-1.760, 1.744e-5
-1.761, 1.772e-5
-1.762, 1.800e-5
-1.763, 1.830e-5
-1.764, 1.861e-5
-1.765, 1.893e-5
-1.766, 1.926e-5
-1.767, 1.959e-5
-1.768, 1.993e-5
-1.769, 2.029e-5
-1.770, 2.066e-5
-1.771, 2.104e-5
-1.772, 2.143e-5
-1.773, 2.183e-5
-1.774, 2.225e-5
-1.775, 2.268e-5
-1.776, 2.312e-5
-1.777, 2.357e-5
-1.778, 2.404e-5
-1.779, 2.454e-5
-1.780, 2.504e-5
-1.781, 2.555e-5
-1.782, 2.608e-5
-1.783, 2.661e-5
-1.784, 2.718e-5
-1.785, 2.777e-5
-1.786, 2.835e-5
-1.787, 2.896e-5
-1.788, 2.959e-5
-1.789, 3.024e-5
-1.790, 3.092e-5
-1.791, 3.161e-5
-1.792, 3.234e-5
-1.793, 3.308e-5
-1.794, 3.384e-5
-1.795, 3.462e-5
-1.796, 3.543e-5
-1.797, 3.625e-5
-1.798, 3.711e-5
-1.799, 3.799e-5
-1.800, 3.890e-5
-1.801, 3.984e-5
-1.802, 4.079e-5
-1.803, 4.177e-5
-1.804, 4.279e-5
-1.805, 4.384e-5
-1.806, 4.493e-5
-1.807, 4.603e-5
-1.808, 4.716e-5
-1.809, 4.835e-5
-1.810, 4.957e-5
-1.811, 5.079e-5
-1.812, 5.207e-5
-1.813, 5.336e-5
-1.814, 5.471e-5
-1.815, 5.611e-5
-1.816, 5.752e-5
-1.817, 5.896e-5
-1.818, 6.047e-5
-1.819, 6.202e-5
-1.820, 6.362e-5
-1.821, 6.524e-5
-1.822, 6.689e-5
-1.823, 6.860e-5
-1.824, 7.037e-5
-1.825, 7.220e-5
-1.826, 7.405e-5
-1.827, 7.591e-5
-1.828, 7.784e-5
-1.829, 7.983e-5
-1.830, 8.189e-5
-1.831, 8.398e-5
-1.832, 8.612e-5
-1.833, 8.830e-5
-1.834, 9.054e-5
-1.835, 9.285e-5
-1.836, 9.521e-5
-1.837, 9.761e-5
-1.838, 1.001e-4
-1.839, 1.026e-4
-1.840, 1.052e-4
-1.841, 1.078e-4
-1.842, 1.105e-4
-1.843, 1.133e-4
-1.844, 1.161e-4
-1.845, 1.190e-4
-1.846, 1.220e-4
-1.847, 1.250e-4
-1.848, 1.281e-4
-1.849, 1.312e-4
-1.850, 1.344e-4
-1.851, 1.376e-4
-1.852, 1.409e-4
-1.853, 1.443e-4
-1.854, 1.478e-4
-1.855, 1.513e-4
-1.856, 1.549e-4
-1.857, 1.586e-4
-1.858, 1.623e-4
-1.859, 1.660e-4
-1.860, 1.699e-4
-1.861, 1.738e-4
-1.862, 1.777e-4
-1.863, 1.817e-4
-1.864, 1.858e-4
-1.865, 1.899e-4
-1.866, 1.941e-4
-1.867, 1.983e-4
-1.868, 2.025e-4
-1.869, 2.068e-4
-1.870, 2.111e-4
-1.871, 2.154e-4
-1.872, 2.197e-4
-1.873, 2.240e-4
-1.874, 2.283e-4
-1.875, 2.327e-4
-1.876, 2.369e-4
-1.877, 2.412e-4
-1.878, 2.454e-4
-1.879, 2.495e-4
-1.880, 2.536e-4
-1.881, 2.576e-4
-1.882, 2.615e-4
-1.883, 2.654e-4
-1.884, 2.692e-4
-1.885, 2.730e-4
-1.886, 2.767e-4
-1.887, 2.805e-4
-1.888, 2.842e-4
-1.889, 2.880e-4
-1.890, 2.917e-4
-1.891, 2.955e-4
-1.892, 2.991e-4
-1.893, 3.028e-4
-1.894, 3.065e-4
-1.895, 3.102e-4
-1.896, 3.139e-4
-1.897, 3.177e-4
-1.898, 3.216e-4
-1.899, 3.255e-4
-1.900, 3.295e-4
-1.901, 3.335e-4
-1.902, 3.375e-4
-1.903, 3.415e-4
-1.904, 3.456e-4
-1.905, 3.498e-4
-1.906, 3.540e-4
-1.907, 3.582e-4
-1.908, 3.625e-4
-1.909, 3.669e-4
-1.910, 3.711e-4
-1.911, 3.755e-4
-1.912, 3.799e-4
-1.913, 3.843e-4
-1.914, 3.888e-4
-1.915, 3.933e-4
-1.916, 3.980e-4
-1.917, 4.026e-4
-1.918, 4.072e-4
-1.919, 4.120e-4
-1.920, 4.167e-4
-1.921, 4.214e-4
-1.922, 4.262e-4
-1.923, 4.310e-4
-1.924, 4.359e-4
-1.925, 4.409e-4
-1.926, 4.459e-4
-1.927, 4.509e-4
-1.928, 4.560e-4
-1.929, 4.612e-4
-1.930, 4.663e-4
-1.931, 4.715e-4
-1.932, 4.767e-4
-1.933, 4.819e-4
-1.934, 4.872e-4
-1.935, 4.925e-4
-1.936, 4.979e-4
-1.937, 5.033e-4
-1.938, 5.088e-4
-1.939, 5.143e-4
-1.940, 5.199e-4
-1.941, 5.255e-4
-1.942, 5.311e-4
-1.943, 5.367e-4
-1.944, 5.424e-4
-1.945, 5.482e-4
-1.946, 5.539e-4
-1.947, 5.597e-4
-1.948, 5.656e-4
-1.949, 5.715e-4
-1.950, 5.774e-4
-1.951, 5.834e-4
-1.952, 5.893e-4
-1.953, 5.953e-4
-1.954, 6.013e-4
-1.955, 6.075e-4
-1.956, 6.137e-4
-1.957, 6.199e-4
-1.958, 6.261e-4
-1.959, 6.323e-4
-1.960, 6.386e-4
-1.961, 6.449e-4
-1.962, 6.513e-4
-1.963, 6.576e-4
-1.964, 6.640e-4
-1.965, 6.705e-4
-1.966, 6.770e-4
-1.967, 6.836e-4
-1.968, 6.902e-4
-1.969, 6.969e-4
-1.970, 7.036e-4
-1.971, 7.103e-4
-1.972, 7.171e-4
-1.973, 7.239e-4
-1.974, 7.308e-4
-1.975, 7.377e-4
-1.976, 7.447e-4
-1.977, 7.517e-4
-1.978, 7.587e-4
-1.979, 7.658e-4
-1.980, 7.729e-4
-1.981, 7.801e-4
-1.982, 7.873e-4
-1.983, 7.945e-4
-1.984, 8.017e-4
-1.985, 8.089e-4
-1.986, 8.162e-4
-1.987, 8.236e-4
-1.988, 8.310e-4
-1.989, 8.385e-4
-1.990, 8.460e-4
-1.991, 8.536e-4
-1.992, 8.611e-4
-1.993, 8.687e-4
-1.994, 8.762e-4
-1.995, 8.838e-4
-1.996, 8.915e-4
-1.997, 8.992e-4
-1.998, 9.070e-4
-1.999, 9.148e-4
-2.000, 9.227e-4
-2.001, 9.304e-4
-2.002, 9.383e-4
-2.003, 9.462e-4
-2.004, 9.542e-4
-2.005, 9.621e-4
-2.006, 9.701e-4
-2.007, 9.782e-4
-2.008, 9.864e-4
-2.009, 9.945e-4
-2.010, 1.003e-3
-2.011, 1.010e-3
-2.012, 1.011e-3
-2.013, 1.011e-3
-2.014, 1.011e-3
-2.015, 1.011e-3
-2.016, 1.011e-3
-2.017, 1.011e-3
-2.018, 1.011e-3
-2.019, 1.011e-3
-2.020, 1.011e-3
-2.021, 1.011e-3
-2.022, 1.011e-3
-2.023, 1.011e-3
-2.024, 1.011e-3
-2.025, 1.011e-3
-2.026, 1.011e-3
-2.027, 1.011e-3
-2.028, 1.011e-3
-2.029, 1.011e-3
-2.030, 1.011e-3
-2.031, 1.011e-3
-2.032, 1.011e-3
-2.033, 1.011e-3
-2.034, 1.011e-3
-2.035, 1.011e-3
-2.036, 1.011e-3
-2.037, 1.011e-3
-2.038, 1.011e-3
-2.039, 1.011e-3
-2.040, 1.011e-3
-2.041, 1.011e-3
-2.042, 1.011e-3
-2.043, 1.011e-3
-2.044, 1.011e-3
-2.045, 1.011e-3
-2.046, 1.011e-3
-2.047, 1.011e-3
-2.048, 1.011e-3
-2.049, 1.011e-3
-2.050, 1.011e-3
-2.051, 1.011e-3
-2.052, 1.011e-3
-2.053, 1.011e-3
-2.054, 1.011e-3
-2.055, 1.011e-3
-2.056, 1.011e-3
-2.057, 1.011e-3
-2.058, 1.011e-3
-2.059, 1.011e-3
-2.060, 1.011e-3
-2.061, 1.011e-3
-2.062, 1.011e-3
-2.063, 1.011e-3
-2.064, 1.011e-3
-2.065, 1.011e-3
-2.066, 1.011e-3
-2.067, 1.011e-3
-2.068, 1.011e-3
-2.069, 1.011e-3
-2.070, 1.011e-3
-2.071, 1.011e-3
-2.072, 1.011e-3
-2.073, 1.011e-3
-2.074, 1.011e-3
-2.075, 1.011e-3
-2.076, 1.011e-3
-2.077, 1.011e-3
-2.078, 1.011e-3
-2.079, 1.011e-3
-2.080, 1.011e-3
-2.081, 1.011e-3
-2.082, 1.011e-3
-2.083, 1.011e-3
-2.084, 1.011e-3
-2.085, 1.011e-3
-2.086, 1.011e-3
-2.087, 1.011e-3
-2.088, 1.011e-3
-2.089, 1.011e-3
-2.090, 1.011e-3
-2.091, 1.011e-3
-2.092, 1.011e-3
-2.093, 1.011e-3
-2.094, 1.011e-3
-2.095, 1.011e-3
-2.096, 1.011e-3
-2.097, 1.011e-3
-2.098, 1.011e-3
-2.099, 1.011e-3
-2.100, 1.011e-3
-2.101, 1.011e-3
-2.102, 1.011e-3
-2.103, 1.011e-3
-2.104, 1.011e-3
-2.105, 1.011e-3
-2.106, 1.011e-3
-2.107, 1.011e-3
-2.108, 1.011e-3
-2.109, 1.011e-3
-2.110, 1.011e-3
-2.111, 1.011e-3
-2.112, 1.011e-3
-2.113, 1.011e-3
-2.114, 1.011e-3
-2.115, 1.011e-3
-2.116, 1.011e-3
-2.117, 1.011e-3
-2.118, 1.011e-3
-2.119, 1.011e-3
-2.120, 1.011e-3
-2.121, 1.011e-3
-2.122, 1.011e-3
-2.123, 1.011e-3
-2.124, 1.011e-3
-2.125, 1.011e-3
-2.126, 1.011e-3
-2.127, 1.011e-3
-2.128, 1.011e-3
-2.129, 1.011e-3
-2.130, 1.011e-3
-2.131, 1.011e-3
-2.132, 1.011e-3
-2.133, 1.011e-3
-2.134, 1.011e-3
-2.135, 1.011e-3
-2.136, 1.011e-3
-2.137, 1.011e-3
-2.138, 1.011e-3
-2.139, 1.011e-3
-2.140, 1.011e-3
-2.141, 1.011e-3
-2.142, 1.011e-3
-2.143, 1.011e-3
-2.144, 1.011e-3
-2.145, 1.011e-3
-2.146, 1.011e-3
-2.147, 1.011e-3
-2.148, 1.011e-3
-2.149, 1.011e-3
-2.150, 1.011e-3
-2.151, 1.011e-3
-2.152, 1.011e-3
-2.153, 1.011e-3
-2.154, 1.011e-3
-2.155, 1.011e-3
-2.156, 1.011e-3
-2.157, 1.011e-3
-2.158, 1.011e-3
-2.159, 1.011e-3
-2.160, 1.011e-3
-2.161, 1.011e-3
-2.162, 1.011e-3
-2.163, 1.011e-3
-2.164, 1.011e-3
-2.165, 1.011e-3
-2.166, 1.011e-3
-2.167, 1.011e-3
-2.168, 1.011e-3
-2.169, 1.011e-3
-2.170, 1.011e-3
-2.171, 1.011e-3
-2.172, 1.011e-3
-2.173, 1.011e-3
-2.174, 1.011e-3
-2.175, 1.011e-3
-2.176, 1.011e-3
-2.177, 1.011e-3
-2.178, 1.011e-3
-2.179, 1.011e-3
-2.180, 1.011e-3
-2.181, 1.011e-3
-2.182, 1.011e-3
-2.183, 1.011e-3
-2.184, 1.011e-3
-2.185, 1.011e-3
-2.186, 1.011e-3
-2.187, 1.011e-3
-2.188, 1.011e-3
-2.189, 1.011e-3
-2.190, 1.011e-3
-2.191, 1.011e-3
-2.192, 1.011e-3
-2.193, 1.011e-3
-2.194, 1.011e-3
-2.195, 1.011e-3
-2.196, 1.011e-3
-2.197, 1.011e-3
-2.198, 1.011e-3
-2.199, 1.011e-3
-2.200, 1.011e-3
-2.201, 1.011e-3
-2.202, 1.011e-3
-2.203, 1.011e-3
-2.204, 1.011e-3
-2.205, 1.011e-3
-2.206, 1.011e-3
-2.207, 1.011e-3
-2.208, 1.011e-3
-2.209, 1.011e-3
-2.210, 1.011e-3
-2.211, 1.011e-3
-2.212, 1.011e-3
-2.213, 1.011e-3
-2.214, 1.011e-3
-2.215, 1.011e-3
-2.216, 1.011e-3
-2.217, 1.011e-3
-2.218, 1.011e-3
-2.219, 1.011e-3
-2.220, 1.011e-3
-2.221, 1.011e-3
-2.222, 1.011e-3
-2.223, 1.011e-3
-2.224, 1.011e-3
-2.225, 1.011e-3
-2.226, 1.011e-3
-2.227, 1.011e-3
-2.228, 1.011e-3
-2.229, 1.011e-3
-2.230, 1.011e-3
-2.231, 1.011e-3
-2.232, 1.011e-3
-2.233, 1.011e-3
-2.234, 1.011e-3
-2.235, 1.011e-3
-2.236, 1.011e-3
-2.237, 1.011e-3
-2.238, 1.011e-3
-2.239, 1.011e-3
-2.240, 1.011e-3
-2.241, 1.011e-3
-2.242, 1.011e-3
-2.243, 1.011e-3
-2.244, 1.011e-3
-2.245, 1.011e-3
-2.246, 1.011e-3
-2.247, 1.011e-3
-2.248, 1.011e-3
-2.249, 1.011e-3
-2.250, 1.011e-3
-2.251, 1.011e-3
-2.252, 1.011e-3
-2.253, 1.011e-3
-2.254, 1.011e-3
-2.255, 1.011e-3
-2.256, 1.011e-3
-2.257, 1.011e-3
-2.258, 1.011e-3
-2.259, 1.011e-3
-2.260, 1.011e-3
-2.261, 1.011e-3
-2.262, 1.011e-3
-2.263, 1.011e-3
-2.264, 1.011e-3
-2.265, 1.011e-3
-2.266, 1.011e-3
-2.267, 1.011e-3
-2.268, 1.011e-3
-2.269, 1.011e-3
-2.270, 1.011e-3
-2.271, 1.011e-3
-2.272, 1.011e-3
-2.273, 1.011e-3
-2.274, 1.011e-3
-2.275, 1.011e-3
-2.276, 1.011e-3
-2.277, 1.011e-3
-2.278, 1.011e-3
-2.279, 1.011e-3
-2.280, 1.011e-3
-2.281, 1.011e-3
-2.282, 1.011e-3
-2.283, 1.011e-3
-2.284, 1.011e-3
-2.285, 1.011e-3
-2.286, 1.011e-3
-2.287, 1.011e-3
-2.288, 1.011e-3
-2.289, 1.011e-3
-2.290, 1.011e-3
-2.291, 1.011e-3
-2.292, 1.011e-3
-2.293, 1.011e-3
-2.294, 1.011e-3
-2.295, 1.011e-3
-2.296, 1.011e-3
-2.297, 1.011e-3
-2.298, 1.011e-3
-2.299, 1.011e-3
