Potential V vs RHE, Current mA cm-2
0.013299999999999867,-9.946835149351072
0.012299999999999978,-12.214617363034726
0.011299999999999866,-13.610937416001518
0.010299999999999976,-14.529085049613924
0.009299999999999864,-15.222293586547794
0.008299999999999974,-15.78817810649381
0.007299999999999862,-16.269179948447924
0.006299999999999972,-16.70774045140608
0.00529999999999986,-17.061418276372343
0.0042999999999999705,-17.40094898833995
0.0032999999999998586,-17.71218547431026
0.0022999999999999687,-17.924392169290012
0.0012999999999998568,-18.15074597726842
0.00029999999999996696,-18.23562865526032
-0.000700000000000145,-18.40539401124413
-0.0017000000000000348,-18.53271802823198
-0.0027000000000001467,-18.631747819222536
-0.0037000000000000366,-18.80151317520634
-0.0047000000000001485,-18.97127853119014
-0.005700000000000038,-19.155191000172596
-0.00670000000000015,-19.28251501716045
-0.00770000000000004,-19.452280373144255
-0.008700000000000152,-19.579604390132108
-0.009700000000000042,-19.721075520118614
-0.010700000000000154,-19.805958198110513
-0.011700000000000044,-19.848399537106463
-0.012700000000000156,-19.890840876102416
-0.013700000000000045,-19.93328221509837
-0.014700000000000157,-20.01816489309027
-0.015700000000000047,-20.06060623208622
-0.01670000000000016,-20.202077362072725
-0.01770000000000005,-20.329401379060574
-0.01870000000000016,-20.499166735044383
-0.01970000000000005,-20.683079204026836
-0.020700000000000163,-20.72552054302279
-0.021700000000000053,-20.810403221014692
-0.022700000000000164,-20.89528589900659
-0.023700000000000054,-20.93772723800254
-0.024700000000000166,-20.980168576998494
-0.025700000000000056,-21.022609915994444
-0.026700000000000168,-21.107492593986347
-0.027700000000000058,-21.2065223849769
-0.02870000000000017,-21.376287740960702
-0.02970000000000006,-21.503611757948562
-0.03070000000000017,-21.63093577493641
-0.03170000000000006,-21.772406904922917
-0.03270000000000017,-21.857289582914817
-0.03370000000000006,-21.94217226090672
-0.034700000000000175,-21.94217226090672
-0.035700000000000065,-22.027054938898623
-0.03670000000000018,-22.069496277894572
-0.03770000000000007,-22.111937616890522
-0.03870000000000018,-22.196820294882425
-0.03970000000000007,-22.33829142486893
-0.04070000000000018,-22.46561544185678
-0.04170000000000007,-22.63538079784059
-0.04270000000000018,-22.776851927827092
-0.04370000000000007,-22.946617283810895
-0.044700000000000184,-23.031499961802798
-0.045700000000000074,-23.1163826397947
-0.046700000000000186,-23.2012653177866
-0.047700000000000076,-23.2012653177866
-0.04870000000000019,-23.300295108777156
-0.04970000000000008,-23.427619125765005
-0.05070000000000019,-23.55494314275286
-0.05170000000000008,-23.682267159740714
-0.05270000000000019,-23.86617962872317
-0.05370000000000008,-24.035944984706973
-0.05470000000000019,-24.20571034069078
-0.05570000000000008,-24.34718147067728
-0.056700000000000195,-24.432064148669184
-0.057700000000000085,-24.516946826661083
-0.058700000000000196,-24.601829504652986
-0.059700000000000086,-24.686712182644893
-0.0607000000000002,-24.729153521640843
-0.06170000000000009,-24.9130659906233
-0.0627000000000002,-25.04039000761115
-0.06370000000000009,-25.210155363594954
-0.0647000000000002,-25.337479380582806
-0.06570000000000009,-25.521391849565262
-0.0667000000000002,-25.73359854454502
-0.0677000000000001,-25.86092256153287
-0.0687000000000002,-26.002393691519377
-0.0697000000000001,-26.129717708507226
-0.07070000000000021,-26.21460038649913
-0.0717000000000001,-26.29948306449103
-0.07270000000000021,-26.483395533473487
-0.0737000000000001,-26.61071955046134
-0.07470000000000021,-26.780484906445146
-0.0757000000000001,-27.049280053419505
-0.07670000000000021,-27.219045409403304
-0.0777000000000001,-27.43125210438306
-0.07870000000000021,-27.65760591236147
-0.0797000000000001,-27.78492992934932
-0.08070000000000022,-27.954695285333123
-0.0817000000000001,-28.09616641531963
-0.08270000000000022,-28.22349043230748
-0.08370000000000011,-28.350814449295335
-0.08470000000000022,-28.478138466283188
-0.08570000000000011,-28.662050935265643
-0.08670000000000022,-28.8742576302454
-0.08770000000000011,-29.100611438223805
-0.08870000000000022,-29.31281813320356
-0.08970000000000011,-29.581613280177915
-0.09070000000000022,-29.751378636161718
-0.09170000000000011,-29.96358533114148
-0.09270000000000023,-30.147497800123933
-0.09370000000000012,-30.317263156107735
-0.09470000000000023,-30.444587173095588
-0.09570000000000012,-30.614352529079397
-0.09670000000000023,-30.8407063370578
-0.09770000000000012,-31.052913032037555
-0.09870000000000023,-31.321708179011907
-0.09970000000000012,-31.57635621298762
-0.10070000000000023,-31.84515135996197
-0.10170000000000012,-32.09979939393769
-0.10270000000000024,-32.368594540912035
-0.10370000000000013,-32.58080123589179
-0.10470000000000024,-32.764713704874254
-0.10570000000000013,-32.97692039985401
-0.10670000000000024,-33.14668575583781
-0.10770000000000013,-33.41548090281216
-0.10870000000000024,-33.58524625879597
-0.10970000000000013,-33.89648274476628
-0.11070000000000024,-34.193572117737936
-0.11170000000000013,-34.50480860370825
-0.11270000000000002,-34.8018979766799
-0.11370000000000013,-35.07069312365426
-0.11470000000000002,-35.38192960962457
-0.11570000000000014,-35.594136304604326
-0.11670000000000003,-35.806342999584075
-0.11770000000000014,-36.03269680756248
-0.11870000000000003,-36.244903502542236
-0.11970000000000014,-36.55613998851254
-0.12070000000000003,-36.81078802248826
-0.12170000000000014,-37.164465847454515
-0.12270000000000003,-37.51814367242077
-0.12370000000000014,-37.85767438438838
-0.12470000000000003,-38.211352209354644
-0.12570000000000014,-38.5650300343209
-0.12670000000000003,-38.90456074628851
-0.12770000000000015,-39.173355893262865
-0.12870000000000004,-39.42800392723857
-0.12970000000000015,-39.739240413208876
-0.13070000000000004,-39.99388844718459
-0.13170000000000015,-40.3900076111468
-0.13270000000000004,-40.701244097117105
-0.13370000000000015,-41.04077480908471
-0.13470000000000004,-41.47933531204288
-0.13570000000000015,-41.79057179801318
-0.13670000000000004,-42.229132300971344
-0.13770000000000016,-42.526221673943
-0.13870000000000005,-42.87989949890926
-0.13970000000000016,-43.17698887188092
-0.14070000000000005,-43.53066669684718
-0.14170000000000016,-43.84190318281749
-0.14270000000000005,-44.181433894785094
-0.14370000000000016,-44.535111719751356
-0.14470000000000005,-44.93123088371356
-0.14570000000000016,-45.36979138667173
-0.14670000000000005,-45.79420477663124
-0.14770000000000016,-46.2327652795894
-0.14870000000000005,-46.628884443551605
-0.14970000000000017,-47.02500360751382
-0.15070000000000006,-47.46356411047198
-0.15170000000000017,-47.76065348344364
-0.15270000000000006,-48.156772647405845
-0.15370000000000017,-48.51045047237211
-0.15470000000000006,-48.89242252333566
-0.15570000000000017,-49.28854168729788
-0.15670000000000006,-49.72710219025603
-0.15770000000000017,-50.1656626932142
-0.15870000000000006,-50.64666453516831
-0.15970000000000018,-51.127666377122424
-0.16070000000000007,-51.509638428085985
-0.16170000000000018,-51.948198931044146
-0.16270000000000007,-52.30187675601041
-0.16370000000000018,-52.74043725896857
-0.16470000000000007,-53.12240930993213
-0.16570000000000018,-53.476087134898386
-0.16670000000000007,-53.91464763785655
-0.16770000000000018,-54.35320814081471
-0.16870000000000007,-54.834209982768826
-0.16970000000000018,-55.31521182472294
-0.17070000000000007,-55.7820665536784
-0.17170000000000019,-56.30550973462846
-0.17270000000000008,-56.74407023758662
-0.1737000000000002,-57.22507207954074
-0.17470000000000008,-57.70607392149485
-0.1757000000000002,-58.10219308545706
-0.17670000000000008,-58.583194927411164
-0.1777000000000002,-59.02175543036933
-0.17870000000000008,-59.502757272323436
-0.1797000000000002,-60.02620045327351
-0.18070000000000008,-60.54964363422357
-0.1817000000000002,-61.07308681517363
-0.18270000000000008,-61.5965299961237
-0.1837000000000002,-62.06338472507916
-0.1847000000000001,-62.544386567033264
-0.1857000000000002,-63.02538840898739
-0.1867000000000001,-63.421507572949594
-0.1877000000000002,-63.860068075907755
-0.1887000000000001,-64.25618723986996
-0.1897000000000002,-64.77963042082003
-0.1907000000000001,-65.20404381077954
-0.1917000000000001,-65.7274869917296
-0.19269999999999998,-66.29337151167562
-0.1937000000000001,-66.87340314462028
-0.19469999999999998,-67.39684632557035
-0.1957000000000001,-67.96273084551636
-0.19669999999999999,-68.44373268747047
-0.1977000000000001,-68.86814607742998
-0.1987,-69.39158925838004
-0.1997000000000001,-69.8301497613382
-0.2007,-70.31115160329232
-0.2017000000000001,-70.79215344524643
-0.2027,-71.31559662619651
-0.2037000000000001,-71.8814811461425
-0.2047,-72.48980700508447
-0.2057000000000001,-73.0556915250305
-0.2067,-73.6781644969711
-0.2077000000000001,-74.24404901691713
-0.2087,-74.76749219786718
-0.2097000000000001,-75.29093537881725
-0.2107,-75.77193722077136
-0.2117000000000001,-76.23879194972683
-0.2127,-76.71979379168094
-0.2137000000000001,-77.243236972631
-0.2147,-77.76668015358106
-0.2157000000000001,-78.38915312552167
-0.2167,-78.85600785447714
-0.21770000000000012,-79.37945103542721
-0.2187,-79.90289421637728
-0.21970000000000012,-80.42633739732734
-0.2207,-80.86489790028548
-0.22170000000000012,-81.30345840324367
-0.2227,-81.78446024519776
-0.22370000000000012,-82.18057940915998
-0.2247,-82.6615812511141
-0.22570000000000012,-83.14258309306821
-0.2267,-83.60943782202366
-0.22770000000000012,-84.13288100297372
-0.22870000000000001,-84.61388284492786
-0.22970000000000013,-85.17976736487385
-0.23070000000000002,-85.66076920682796
-0.23170000000000013,-86.14177104878208
-0.23270000000000002,-86.58033155174023
-0.23370000000000013,-87.01889205469841
-0.23470000000000002,-87.45745255765657
-0.23570000000000013,-87.89601306061473
-0.23670000000000002,-88.37701490256885
-0.2376999999999999,-88.8438696315243
-0.23870000000000002,-89.36731281247435
-0.2396999999999999,-89.89075599342443
-0.24070000000000003,-90.41419917437449
-0.24169999999999991,-90.93764235532454
-0.24270000000000003,-91.41864419727867
-0.24369999999999992,-91.85720470023682
-0.24470000000000003,-92.29576520319499
-0.24569999999999992,-92.73432570615316
-0.24670000000000003,-93.17288620911131
-0.24769999999999992,-93.65388805106544
-0.24870000000000003,-94.13488989301955
-0.24969999999999992,-94.601744621975
-0.25070000000000003,-95.12518780292505
-0.2516999999999999,-95.64863098387512
-0.25270000000000004,-96.17207416482519
-0.2536999999999999,-96.65307600677932
-0.25470000000000004,-97.13407784873341
-0.2556999999999999,-97.61507969068752
-0.25670000000000004,-98.05364019364569
-0.25769999999999993,-98.49220069660386
-0.25870000000000004,-98.88831986056607
-0.25969999999999993,-99.31273325052557
-0.26070000000000004,-99.75129375348374
-0.26169999999999993,-100.14741291744595
-0.26270000000000004,-100.62841475940007
-0.26369999999999993,-101.02453392336226
-0.26470000000000005,-101.50553576531638
-0.26569999999999994,-101.88750781627995
-0.26670000000000005,-102.28362698024215
-0.26769999999999994,-102.67974614420436
-0.26870000000000005,-102.93439417818009
-0.26969999999999994,-103.28807200314633
-0.27070000000000005,-103.59930848911664
-0.27169999999999994,-103.89639786208829
-0.27270000000000005,-104.25007568705455
-0.27369999999999994,-104.58960639902216
-0.27470000000000006,-104.94328422398843
-0.27569999999999995,-105.29696204895468
-0.27670000000000006,-105.63649276092228
-0.27769999999999995,-105.90528790789664
-0.27870000000000006,-106.21652439386696
-0.27969999999999995,-106.38628974985076
-0.28070000000000006,-106.64093778382647
-0.28169999999999995,-106.86729159180487
-0.28270000000000006,-107.07949828678463
-0.28369999999999995,-107.34829343375898
-0.28470000000000006,-107.6029414677347
-0.28569999999999995,-107.87173661470905
-0.28670000000000007,-108.1688259876807
-0.28769999999999996,-108.43762113465506
-0.28870000000000007,-108.69226916863077
-0.28969999999999996,-108.91862297660917
-0.29070000000000007,-109.08838833259297
-0.29169999999999996,-109.25815368857677
-0.29270000000000007,-109.39962481856328
-0.29369999999999996,-109.4845074965552
-0.2947000000000001,-109.654272852539
-0.29569999999999996,-109.78159686952685
-0.2967000000000001,-109.9655093385093
-0.29769999999999996,-110.17771603348905
-0.2987000000000001,-110.34748138947285
-0.29969999999999997,-110.57383519745127
-0.3007000000000001,-110.70115921443913
-0.30169999999999997,-110.87092457042293
-0.3027000000000001,-110.96995436141347
-0.30369999999999997,-111.01239570040943
-0.3047000000000001,-111.09727837840134
-0.30569999999999997,-111.13971971739728
-0.3067000000000001,-111.26704373438514
-0.3077,-111.35192641237703
-0.3087000000000001,-111.49339754236355
-0.3097,-111.7056042373433
-0.3107000000000001,-111.83292825433115
-0.3117,-111.96025227131899
-0.3127000000000001,-112.10172340130552
-0.3137,-112.18660607929739
-0.3147000000000001,-112.22904741829338
-0.3157,-112.31393009628526
-0.3167000000000001,-112.3563714352812
-0.3177,-112.39881277427718
-0.3187000000000001,-112.58272524325962
-0.3197,-112.62516658225556
-0.3207000000000001,-112.79493193823936
-0.3217,-112.96469729422319
-0.3227000000000001,-113.19105110220158
-0.3237,-113.36081645818538
-0.3247000000000001,-113.53058181416918
-0.3257,-113.71449428315165
-0.3267000000000001,-113.84181830013951
-0.3277,-113.96914231712736
-0.3287000000000001,-114.05402499511925
-0.3297,-114.19549612510575
-0.3307000000000001,-114.3228201420936
-0.3317,-114.4925854980774
-0.3327000000000001,-114.71893930605583
-0.3337,-114.88870466203963
-0.3347000000000001,-115.15749980901398
-0.3357,-115.32726516499778
-0.3367000000000001,-115.53947185997755
-0.3377,-115.68094298996405
-0.3387000000000001,-115.80826700695191
-0.3397,-115.93559102393975
-0.3407000000000001,-116.06291504092759
-0.3417,-116.24682750991008
-0.3427000000000001,-116.41659286589388
-0.3437,-116.67124089986959
-0.3447000000000001,-116.89759470784797
-0.3457,-117.15224274182368
-0.3467000000000001,-117.42103788879804
-0.3477,-117.63324458377778
-0.3487000000000001,-117.85959839175621
-0.3497,-118.07180508673595
-0.3507000000000001,-118.3406002337103
-0.3517,-118.55280692869007
-0.3527000000000001,-118.82160207566443
-0.3537,-119.1186914486361
-0.3547000000000001,-119.4299279346064
-0.3557,-119.769458646574
-0.35670000000000013,-120.12313647154028
-0.3577,-120.47681429650652
-0.35870000000000013,-120.85878634747009
-0.3597,-121.17002283344038
-0.36070000000000013,-121.52370065840667
-0.3617,-121.82079003137831
-0.3626999999999999,-122.1320265173486
-0.3637,-122.38667455132433
-0.3646999999999999,-122.74035237629057
-0.3657,-123.1364715402528
-0.3666999999999999,-123.532590704215
-0.3677,-123.95700409417452
-0.3686999999999999,-124.39556459713268
-0.36970000000000003,-124.83412510009084
-0.3706999999999999,-125.23024426405304
-0.37170000000000003,-125.62636342801528
-0.3726999999999999,-125.96589413998288
-0.37370000000000003,-126.3195719649491
-0.3746999999999999,-126.6732497899154
-0.37570000000000003,-127.012780501883
-0.3766999999999999,-127.4088996658452
-0.37770000000000004,-127.80501882980741
-0.3786999999999999,-128.28602067176152
-0.37970000000000004,-128.752875400717
-0.3806999999999999,-129.2338772426711
-0.38170000000000004,-129.7148790846252
-0.38269999999999993,-130.19588092657932
-0.38370000000000004,-130.59200009054155
-0.38469999999999993,-131.03056059349967
-0.38570000000000004,-131.46912109645783
-0.38669999999999993,-131.8510931474214
-0.38770000000000004,-132.24721231138363
-0.38869999999999993,-132.72821415333775
-0.38970000000000005,-133.20921599529186
-0.39069999999999994,-133.77510051523788
-0.39170000000000005,-134.256102357192
-0.39269999999999994,-134.77954553814206
-0.39370000000000005,-135.34543005808808
-0.39469999999999994,-135.86887323903812
-0.39570000000000005,-136.43475775898415
-0.39669999999999994,-136.91575960093826
-0.39770000000000005,-137.3543201038964
-0.39869999999999994,-137.83532194585052
-0.39970000000000006,-138.3587651268006
-0.40069999999999995,-138.88220830775063
-0.40170000000000006,-139.49053416669264
-0.40269999999999995,-140.0988600256346
-0.40370000000000006,-140.66474454558062
-0.40469999999999995,-141.3721001955131
-0.40570000000000006,-141.89554337646317
-0.40669999999999995,-142.6028990263957
-0.40770000000000006,-143.16878354634173
-0.40869999999999995,-143.73466806628772
-0.40970000000000006,-144.30055258623375
-0.41069999999999995,-144.72496597619326
-0.41170000000000007,-145.43232162612577
-0.41269999999999996,-145.9982061460718
-0.41370000000000007,-146.5640906660178
-0.41469999999999996,-147.27144631595033
-0.41570000000000007,-147.97880196588284
-0.41669999999999996,-148.68615761581535
-0.41770000000000007,-149.39351326574788
-0.41869999999999996,-149.95939778569388
-0.4197000000000001,-150.66675343562642
-0.42069999999999996,-151.37410908555893
-0.4217000000000001,-152.0814647354914
-0.42269999999999996,-152.78882038542397
-0.4237000000000001,-153.63764716534297
-0.42469999999999997,-154.3450028152755
-0.4257000000000001,-155.19382959519453
-0.42669999999999997,-156.04265637511355
-0.4277000000000001,-156.89148315503257
-0.42869999999999997,-157.7403099349516
-0.4297000000000001,-158.4476655848841
-0.43069999999999997,-159.29649236480313
-0.4317000000000001,-160.14531914472215
-0.4327,-160.8526747946547
-0.4337000000000001,-161.70150157457368
-0.4347,-162.5503283544927
-0.4357000000000001,-163.39915513441173
-0.4367,-164.24798191433075
-0.4377000000000001,-165.09680869424977
-0.4387,-166.0871066041553
-0.4397000000000001,-166.93593338407433
-0.4407,-167.78476016399335
-0.4417000000000001,-168.77505807389886
-0.4427,-169.6238848538179
-0.4437000000000001,-170.47271163373694
-0.4447,-171.32153841365593
-0.4457000000000001,-172.31183632356147
-0.4467,-173.302134233467
-0.4477000000000001,-174.2924321433725
-0.4487,-175.28273005327804
-0.4497000000000001,-176.4144990931701
-0.4507,-177.4047970030756
-0.4517000000000001,-178.53656604296762
-0.4527,-179.52686395287316
-0.4537000000000001,-180.65863299276518
-0.4547,-181.64893090267074
-0.4557000000000001,-182.78069994256273
-0.4567,-183.77099785246824
-0.4577000000000001,-184.7612957623738
-0.4587,-185.89306480226583
-0.4597000000000001,-186.88336271217133
-0.4607,-188.01513175206335
-0.4617000000000001,-189.1469007919554
-0.4627,-190.27866983184742
-0.4637000000000001,-191.41043887173947
-0.4647,-192.54220791163152
-0.4657000000000001,-193.532505821537
-0.4667,-194.52280373144254
-0.4677000000000001,-195.65457277133459
-0.4687,-196.6448706812401
-0.4697000000000001,-197.91811085111863
-0.4707,-199.04987989101065
-0.4717000000000001,-200.18164893090267
-0.4727,-201.4548891007812
-0.4737000000000001,-202.7281292706598
-0.4747,-204.0013694405383
-0.4757000000000001,-205.13313848043032
-0.4767,-206.40637865030885
-0.4777000000000001,-207.67961882018741
-0.4787,-208.8113878600794
-0.4797000000000001,-209.94315689997146
-0.4807,-211.21639706985
-0.48170000000000013,-212.34816610974204
-0.4827,-213.62140627962054
-0.48370000000000013,-214.89464644949908
-0.4847,-216.1678866193776
-0.48570000000000013,-217.44112678925615
-0.4867,-216.3093577493641
-0.48570000000000013,-212.065223849769
-0.4847,-208.8113878600794
-0.48370000000000013,-205.98196526034934
-0.4827,-203.29401379060576
-0.48170000000000013,-200.7475334508487
-0.4807,-198.3425242410781
-0.4797000000000001,-196.0789861612941
-0.4787,-193.81544808151003
-0.4777000000000001,-191.69338113171247
-0.4767,-189.71278531190143
-0.4757000000000001,-187.59071836210387
-0.4747,-185.6101225422928
-0.4737000000000001,-183.62952672248176
-0.4727,-181.64893090267074
-0.4717000000000001,-179.66833508285964
-0.4707,-177.6877392630486
-0.4697000000000001,-175.70714344323756
-0.4687,-173.72654762342648
-0.4677000000000001,-171.88742293360195
-0.4667,-170.0482982437774
-0.4657000000000001,-168.20917355395284
