May 5, 2025   03:21:24
Cyclic Voltammetry
File: c:/users/guazh/data/banditlqround7_x0exp1108_r5/2025-04-30-exp1244\exp1244-2025-05-05t03_10_07-arkoh\exp1244_cv_sr_600mvs_efin_-1500mv.bin
Data Source:  Experiment
Instrument Model:  CHI760E
Header: CV ran at 600 mVs
Note: 

Init E (V) = -1
High E (V) = -1
Low E (V) = -1.5
Final E (V) = -1
Init P/N = N
Scan Rate (V/s) = 0.6
Segment = 3
Sample Interval (V) = 0.001
Quiet Time (sec) = 2
Sensitivity (A/V) = 0.01
Comp R (ohm) = 1.1

Results:

Channel 1:
Segment 1:

Segment 2:

Segment 3:

Potential/V, Current/A

-1.000, 6.784e-4
-1.001, 8.357e-4
-1.002, 9.343e-4
-1.003, 1.002e-3
-1.004, 1.051e-3
-1.005, 1.088e-3
-1.006, 1.113e-3
-1.007, 1.135e-3
-1.008, 1.150e-3
-1.009, 1.162e-3
-1.010, 1.178e-3
-1.011, 1.193e-3
-1.012, 1.212e-3
-1.013, 1.221e-3
-1.014, 1.240e-3
-1.015, 1.249e-3
-1.016, 1.252e-3
-1.017, 1.258e-3
-1.018, 1.258e-3
-1.019, 1.264e-3
-1.020, 1.270e-3
-1.021, 1.277e-3
-1.022, 1.292e-3
-1.023, 1.301e-3
-1.024, 1.314e-3
-1.025, 1.320e-3
-1.026, 1.323e-3
-1.027, 1.323e-3
-1.028, 1.329e-3
-1.029, 1.329e-3
-1.030, 1.335e-3
-1.031, 1.341e-3
-1.032, 1.351e-3
-1.033, 1.360e-3
-1.034, 1.369e-3
-1.035, 1.375e-3
-1.036, 1.378e-3
-1.037, 1.378e-3
-1.038, 1.381e-3
-1.039, 1.381e-3
-1.040, 1.388e-3
-1.041, 1.397e-3
-1.042, 1.409e-3
-1.043, 1.418e-3
-1.044, 1.431e-3
-1.045, 1.434e-3
-1.046, 1.440e-3
-1.047, 1.440e-3
-1.048, 1.443e-3
-1.049, 1.446e-3
-1.050, 1.455e-3
-1.051, 1.462e-3
-1.052, 1.471e-3
-1.053, 1.483e-3
-1.054, 1.495e-3
-1.055, 1.502e-3
-1.056, 1.508e-3
-1.057, 1.511e-3
-1.058, 1.517e-3
-1.059, 1.520e-3
-1.060, 1.526e-3
-1.061, 1.536e-3
-1.062, 1.548e-3
-1.063, 1.557e-3
-1.064, 1.569e-3
-1.065, 1.579e-3
-1.066, 1.585e-3
-1.067, 1.591e-3
-1.068, 1.594e-3
-1.069, 1.600e-3
-1.070, 1.606e-3
-1.071, 1.619e-3
-1.072, 1.628e-3
-1.073, 1.643e-3
-1.074, 1.653e-3
-1.075, 1.665e-3
-1.076, 1.674e-3
-1.077, 1.674e-3
-1.078, 1.680e-3
-1.079, 1.687e-3
-1.080, 1.696e-3
-1.081, 1.705e-3
-1.082, 1.721e-3
-1.083, 1.733e-3
-1.084, 1.748e-3
-1.085, 1.758e-3
-1.086, 1.767e-3
-1.087, 1.773e-3
-1.088, 1.782e-3
-1.089, 1.788e-3
-1.090, 1.801e-3
-1.091, 1.810e-3
-1.092, 1.825e-3
-1.093, 1.841e-3
-1.094, 1.856e-3
-1.095, 1.872e-3
-1.096, 1.881e-3
-1.097, 1.890e-3
-1.098, 1.896e-3
-1.099, 1.906e-3
-1.100, 1.918e-3
-1.101, 1.930e-3
-1.102, 1.949e-3
-1.103, 1.961e-3
-1.104, 1.976e-3
-1.105, 1.992e-3
-1.106, 2.001e-3
-1.107, 2.010e-3
-1.108, 2.023e-3
-1.109, 2.029e-3
-1.110, 2.044e-3
-1.111, 2.060e-3
-1.112, 2.078e-3
-1.113, 2.097e-3
-1.114, 2.112e-3
-1.115, 2.128e-3
-1.116, 2.143e-3
-1.117, 2.152e-3
-1.118, 2.164e-3
-1.119, 2.177e-3
-1.120, 2.192e-3
-1.121, 2.211e-3
-1.122, 2.229e-3
-1.123, 2.251e-3
-1.124, 2.272e-3
-1.125, 2.288e-3
-1.126, 2.306e-3
-1.127, 2.322e-3
-1.128, 2.337e-3
-1.129, 2.353e-3
-1.130, 2.371e-3
-1.131, 2.390e-3
-1.132, 2.414e-3
-1.133, 2.436e-3
-1.134, 2.460e-3
-1.135, 2.479e-3
-1.136, 2.497e-3
-1.137, 2.513e-3
-1.138, 2.528e-3
-1.139, 2.544e-3
-1.140, 2.565e-3
-1.141, 2.584e-3
-1.142, 2.608e-3
-1.143, 2.636e-3
-1.144, 2.661e-3
-1.145, 2.682e-3
-1.146, 2.704e-3
-1.147, 2.723e-3
-1.148, 2.741e-3
-1.149, 2.760e-3
-1.150, 2.784e-3
-1.151, 2.809e-3
-1.152, 2.834e-3
-1.153, 2.861e-3
-1.154, 2.889e-3
-1.155, 2.914e-3
-1.156, 2.935e-3
-1.157, 2.957e-3
-1.158, 2.978e-3
-1.159, 3.000e-3
-1.160, 3.025e-3
-1.161, 3.052e-3
-1.162, 3.080e-3
-1.163, 3.111e-3
-1.164, 3.142e-3
-1.165, 3.167e-3
-1.166, 3.194e-3
-1.167, 3.216e-3
-1.168, 3.241e-3
-1.169, 3.265e-3
-1.170, 3.290e-3
-1.171, 3.318e-3
-1.172, 3.351e-3
-1.173, 3.382e-3
-1.174, 3.416e-3
-1.175, 3.441e-3
-1.176, 3.469e-3
-1.177, 3.496e-3
-1.178, 3.521e-3
-1.179, 3.543e-3
-1.180, 3.570e-3
-1.181, 3.595e-3
-1.182, 3.629e-3
-1.183, 3.660e-3
-1.184, 3.694e-3
-1.185, 3.721e-3
-1.186, 3.752e-3
-1.187, 3.777e-3
-1.188, 3.805e-3
-1.189, 3.829e-3
-1.190, 3.857e-3
-1.191, 3.891e-3
-1.192, 3.922e-3
-1.193, 3.956e-3
-1.194, 3.993e-3
-1.195, 4.021e-3
-1.196, 4.051e-3
-1.197, 4.076e-3
-1.198, 4.104e-3
-1.199, 4.132e-3
-1.200, 4.159e-3
-1.201, 4.190e-3
-1.202, 4.227e-3
-1.203, 4.261e-3
-1.204, 4.298e-3
-1.205, 4.329e-3
-1.206, 4.363e-3
-1.207, 4.391e-3
-1.208, 4.418e-3
-1.209, 4.443e-3
-1.210, 4.477e-3
-1.211, 4.508e-3
-1.212, 4.545e-3
-1.213, 4.579e-3
-1.214, 4.616e-3
-1.215, 4.649e-3
-1.216, 4.677e-3
-1.217, 4.705e-3
-1.218, 4.733e-3
-1.219, 4.760e-3
-1.220, 4.791e-3
-1.221, 4.822e-3
-1.222, 4.859e-3
-1.223, 4.893e-3
-1.224, 4.930e-3
-1.225, 4.964e-3
-1.226, 4.995e-3
-1.227, 5.023e-3
-1.228, 5.050e-3
-1.229, 5.084e-3
-1.230, 5.112e-3
-1.231, 5.146e-3
-1.232, 5.177e-3
-1.233, 5.214e-3
-1.234, 5.248e-3
-1.235, 5.282e-3
-1.236, 5.309e-3
-1.237, 5.334e-3
-1.238, 5.362e-3
-1.239, 5.386e-3
-1.240, 5.414e-3
-1.241, 5.445e-3
-1.242, 5.476e-3
-1.243, 5.510e-3
-1.244, 5.550e-3
-1.245, 5.581e-3
-1.246, 5.608e-3
-1.247, 5.636e-3
-1.248, 5.661e-3
-1.249, 5.688e-3
-1.250, 5.713e-3
-1.251, 5.744e-3
-1.252, 5.781e-3
-1.253, 5.812e-3
-1.254, 5.849e-3
-1.255, 5.877e-3
-1.256, 5.901e-3
-1.257, 5.926e-3
-1.258, 5.947e-3
-1.259, 5.969e-3
-1.260, 5.997e-3
-1.261, 6.028e-3
-1.262, 6.058e-3
-1.263, 6.089e-3
-1.264, 6.120e-3
-1.265, 6.148e-3
-1.266, 6.169e-3
-1.267, 6.194e-3
-1.268, 6.216e-3
-1.269, 6.237e-3
-1.270, 6.262e-3
-1.271, 6.284e-3
-1.272, 6.311e-3
-1.273, 6.339e-3
-1.274, 6.367e-3
-1.275, 6.388e-3
-1.276, 6.413e-3
-1.277, 6.428e-3
-1.278, 6.447e-3
-1.279, 6.462e-3
-1.280, 6.484e-3
-1.281, 6.502e-3
-1.282, 6.524e-3
-1.283, 6.543e-3
-1.284, 6.564e-3
-1.285, 6.586e-3
-1.286, 6.604e-3
-1.287, 6.620e-3
-1.288, 6.635e-3
-1.289, 6.647e-3
-1.290, 6.663e-3
-1.291, 6.678e-3
-1.292, 6.700e-3
-1.293, 6.718e-3
-1.294, 6.740e-3
-1.295, 6.752e-3
-1.296, 6.768e-3
-1.297, 6.777e-3
-1.298, 6.786e-3
-1.299, 6.795e-3
-1.300, 6.808e-3
-1.301, 6.820e-3
-1.302, 6.838e-3
-1.303, 6.854e-3
-1.304, 6.869e-3
-1.305, 6.879e-3
-1.306, 6.888e-3
-1.307, 6.897e-3
-1.308, 6.909e-3
-1.309, 6.912e-3
-1.310, 6.925e-3
-1.311, 6.937e-3
-1.312, 6.949e-3
-1.313, 6.965e-3
-1.314, 6.977e-3
-1.315, 6.986e-3
-1.316, 6.996e-3
-1.317, 7.002e-3
-1.318, 7.005e-3
-1.319, 7.011e-3
-1.320, 7.020e-3
-1.321, 7.033e-3
-1.322, 7.045e-3
-1.323, 7.057e-3
-1.324, 7.073e-3
-1.325, 7.085e-3
-1.326, 7.094e-3
-1.327, 7.097e-3
-1.328, 7.107e-3
-1.329, 7.116e-3
-1.330, 7.128e-3
-1.331, 7.141e-3
-1.332, 7.159e-3
-1.333, 7.175e-3
-1.334, 7.193e-3
-1.335, 7.202e-3
-1.336, 7.215e-3
-1.337, 7.224e-3
-1.338, 7.230e-3
-1.339, 7.239e-3
-1.340, 7.249e-3
-1.341, 7.261e-3
-1.342, 7.279e-3
-1.343, 7.298e-3
-1.344, 7.316e-3
-1.345, 7.329e-3
-1.346, 7.344e-3
-1.347, 7.356e-3
-1.348, 7.366e-3
-1.349, 7.378e-3
-1.350, 7.397e-3
-1.351, 7.415e-3
-1.352, 7.434e-3
-1.353, 7.458e-3
-1.354, 7.477e-3
-1.355, 7.495e-3
-1.356, 7.514e-3
-1.357, 7.523e-3
-1.358, 7.538e-3
-1.359, 7.551e-3
-1.360, 7.566e-3
-1.361, 7.588e-3
-1.362, 7.609e-3
-1.363, 7.628e-3
-1.364, 7.656e-3
-1.365, 7.674e-3
-1.366, 7.693e-3
-1.367, 7.708e-3
-1.368, 7.723e-3
-1.369, 7.742e-3
-1.370, 7.760e-3
-1.371, 7.785e-3
-1.372, 7.813e-3
-1.373, 7.837e-3
-1.374, 7.868e-3
-1.375, 7.890e-3
-1.376, 7.911e-3
-1.377, 7.933e-3
-1.378, 7.951e-3
-1.379, 7.970e-3
-1.380, 7.995e-3
-1.381, 8.019e-3
-1.382, 8.050e-3
-1.383, 8.078e-3
-1.384, 8.109e-3
-1.385, 8.136e-3
-1.386, 8.158e-3
-1.387, 8.183e-3
-1.388, 8.204e-3
-1.389, 8.226e-3
-1.390, 8.257e-3
-1.391, 8.284e-3
-1.392, 8.312e-3
-1.393, 8.349e-3
-1.394, 8.383e-3
-1.395, 8.414e-3
-1.396, 8.445e-3
-1.397, 8.473e-3
-1.398, 8.503e-3
-1.399, 8.531e-3
-1.400, 8.562e-3
-1.401, 8.596e-3
-1.402, 8.633e-3
-1.403, 8.670e-3
-1.404, 8.710e-3
-1.405, 8.744e-3
-1.406, 8.781e-3
-1.407, 8.812e-3
-1.408, 8.846e-3
-1.409, 8.876e-3
-1.410, 8.913e-3
-1.411, 8.950e-3
-1.412, 8.994e-3
-1.413, 9.040e-3
-1.414, 9.086e-3
-1.415, 9.129e-3
-1.416, 9.172e-3
-1.417, 9.212e-3
-1.418, 9.256e-3
-1.419, 9.293e-3
-1.420, 9.339e-3
-1.421, 9.382e-3
-1.422, 9.431e-3
-1.423, 9.481e-3
-1.424, 9.533e-3
-1.425, 9.582e-3
-1.426, 9.632e-3
-1.427, 9.678e-3
-1.428, 9.724e-3
-1.429, 9.771e-3
-1.430, 9.823e-3
-1.431, 9.875e-3
-1.432, 9.931e-3
-1.433, 9.989e-3
-1.434, 1.004e-2
-1.435, 1.010e-2
-1.436, 1.015e-2
-1.437, 1.020e-2
-1.438, 1.025e-2
-1.439, 1.030e-2
-1.440, 1.036e-2
-1.441, 1.042e-2
-1.442, 1.048e-2
-1.443, 1.054e-2
-1.444, 1.061e-2
-1.445, 1.067e-2
-1.446, 1.073e-2
-1.447, 1.078e-2
-1.448, 1.084e-2
-1.449, 1.090e-2
-1.450, 1.096e-2
-1.451, 1.102e-2
-1.452, 1.109e-2
-1.453, 1.116e-2
-1.454, 1.123e-2
-1.455, 1.130e-2
-1.456, 1.136e-2
-1.457, 1.143e-2
-1.458, 1.150e-2
-1.459, 1.156e-2
-1.460, 1.163e-2
-1.461, 1.170e-2
-1.462, 1.177e-2
-1.463, 1.185e-2
-1.464, 1.192e-2
-1.465, 1.199e-2
-1.466, 1.206e-2
-1.467, 1.214e-2
-1.468, 1.221e-2
-1.469, 1.227e-2
-1.470, 1.235e-2
-1.471, 1.243e-2
-1.472, 1.251e-2
-1.473, 1.260e-2
-1.474, 1.268e-2
-1.475, 1.276e-2
-1.476, 1.284e-2
-1.477, 1.292e-2
-1.478, 1.299e-2
-1.479, 1.306e-2
-1.480, 1.314e-2
-1.481, 1.322e-2
-1.482, 1.330e-2
-1.483, 1.339e-2
-1.484, 1.348e-2
-1.485, 1.357e-2
-1.486, 1.365e-2
-1.487, 1.373e-2
-1.488, 1.381e-2
-1.489, 1.390e-2
-1.490, 1.398e-2
-1.491, 1.407e-2
-1.492, 1.416e-2
-1.493, 1.425e-2
-1.494, 1.435e-2
-1.495, 1.444e-2
-1.496, 1.453e-2
-1.497, 1.462e-2
-1.498, 1.471e-2
-1.499, 1.481e-2
-1.500, 1.473e-2
-1.499, 1.445e-2
-1.498, 1.424e-2
-1.497, 1.406e-2
-1.496, 1.389e-2
-1.495, 1.372e-2
-1.494, 1.357e-2
-1.493, 1.340e-2
-1.492, 1.325e-2
-1.491, 1.309e-2
-1.490, 1.295e-2
-1.489, 1.280e-2
-1.488, 1.267e-2
-1.487, 1.253e-2
-1.486, 1.240e-2
-1.485, 1.227e-2
-1.484, 1.214e-2
-1.483, 1.201e-2
-1.482, 1.187e-2
-1.481, 1.173e-2
-1.480, 1.160e-2
-1.479, 1.147e-2
-1.478, 1.134e-2
-1.477, 1.122e-2
-1.476, 1.109e-2
-1.475, 1.097e-2
-1.474, 1.085e-2
-1.473, 1.073e-2
-1.472, 1.061e-2
-1.471, 1.049e-2
-1.470, 1.037e-2
-1.469, 1.025e-2
-1.468, 1.014e-2
-1.467, 1.004e-2
-1.466, 9.928e-3
-1.465, 9.820e-3
-1.464, 9.712e-3
-1.463, 9.604e-3
-1.462, 9.496e-3
-1.461, 9.388e-3
-1.460, 9.280e-3
-1.459, 9.182e-3
-1.458, 9.089e-3
-1.457, 8.994e-3
-1.456, 8.901e-3
-1.455, 8.806e-3
-1.454, 8.707e-3
-1.453, 8.605e-3
-1.452, 8.500e-3
-1.451, 8.402e-3
-1.450, 8.309e-3
-1.449, 8.217e-3
-1.448, 8.133e-3
-1.447, 8.044e-3
-1.446, 7.961e-3
-1.445, 7.881e-3
-1.444, 7.788e-3
-1.443, 7.705e-3
-1.442, 7.615e-3
-1.441, 7.523e-3
-1.440, 7.437e-3
-1.439, 7.350e-3
-1.438, 7.267e-3
-1.437, 7.187e-3
-1.436, 7.107e-3
-1.435, 7.023e-3
-1.434, 6.937e-3
-1.433, 6.851e-3
-1.432, 6.768e-3
-1.431, 6.681e-3
-1.430, 6.601e-3
-1.429, 6.524e-3
-1.428, 6.450e-3
-1.427, 6.379e-3
-1.426, 6.311e-3
-1.425, 6.237e-3
-1.424, 6.163e-3
-1.423, 6.086e-3
-1.422, 6.009e-3
-1.421, 5.941e-3
-1.420, 5.873e-3
-1.419, 5.809e-3
-1.418, 5.744e-3
-1.417, 5.679e-3
-1.416, 5.621e-3
-1.415, 5.553e-3
-1.414, 5.485e-3
-1.413, 5.417e-3
-1.412, 5.346e-3
-1.411, 5.275e-3
-1.410, 5.214e-3
-1.409, 5.149e-3
-1.408, 5.090e-3
-1.407, 5.029e-3
-1.406, 4.973e-3
-1.405, 4.915e-3
-1.404, 4.853e-3
-1.403, 4.791e-3
-1.402, 4.733e-3
-1.401, 4.671e-3
-1.400, 4.616e-3
-1.399, 4.557e-3
-1.398, 4.508e-3
-1.397, 4.455e-3
-1.396, 4.403e-3
-1.395, 4.347e-3
-1.394, 4.295e-3
-1.393, 4.236e-3
-1.392, 4.181e-3
-1.391, 4.125e-3
-1.390, 4.076e-3
-1.389, 4.027e-3
-1.388, 3.977e-3
-1.387, 3.931e-3
-1.386, 3.888e-3
-1.385, 3.839e-3
-1.384, 3.789e-3
-1.383, 3.737e-3
-1.382, 3.688e-3
-1.381, 3.638e-3
-1.380, 3.589e-3
-1.379, 3.549e-3
-1.378, 3.509e-3
-1.377, 3.469e-3
-1.376, 3.435e-3
-1.375, 3.388e-3
-1.374, 3.345e-3
-1.373, 3.299e-3
-1.372, 3.253e-3
-1.371, 3.210e-3
-1.370, 3.167e-3
-1.369, 3.126e-3
-1.368, 3.093e-3
-1.367, 3.052e-3
-1.366, 3.022e-3
-1.365, 2.982e-3
-1.364, 2.941e-3
-1.363, 2.898e-3
-1.362, 2.858e-3
-1.361, 2.818e-3
-1.360, 2.784e-3
-1.359, 2.750e-3
-1.358, 2.719e-3
-1.357, 2.689e-3
-1.356, 2.658e-3
-1.355, 2.624e-3
-1.354, 2.590e-3
-1.353, 2.550e-3
-1.352, 2.513e-3
-1.351, 2.473e-3
-1.350, 2.442e-3
-1.349, 2.411e-3
-1.348, 2.380e-3
-1.347, 2.353e-3
-1.346, 2.325e-3
-1.345, 2.294e-3
-1.344, 2.263e-3
-1.343, 2.226e-3
-1.342, 2.195e-3
-1.341, 2.164e-3
-1.340, 2.131e-3
-1.339, 2.103e-3
-1.338, 2.081e-3
-1.337, 2.057e-3
-1.336, 2.035e-3
-1.335, 2.010e-3
-1.334, 1.983e-3
-1.333, 1.955e-3
-1.332, 1.921e-3
-1.331, 1.893e-3
-1.330, 1.869e-3
-1.329, 1.841e-3
-1.328, 1.822e-3
-1.327, 1.801e-3
-1.326, 1.779e-3
-1.325, 1.758e-3
-1.324, 1.730e-3
-1.323, 1.702e-3
-1.322, 1.677e-3
-1.321, 1.647e-3
-1.320, 1.625e-3
-1.319, 1.600e-3
-1.318, 1.585e-3
-1.317, 1.566e-3
-1.316, 1.551e-3
-1.315, 1.529e-3
-1.314, 1.508e-3
-1.313, 1.483e-3
-1.312, 1.458e-3
-1.311, 1.434e-3
-1.310, 1.412e-3
-1.309, 1.394e-3
-1.308, 1.375e-3
-1.307, 1.360e-3
-1.306, 1.344e-3
-1.305, 1.326e-3
-1.304, 1.304e-3
-1.303, 1.283e-3
-1.302, 1.261e-3
-1.301, 1.236e-3
-1.300, 1.218e-3
-1.299, 1.206e-3
-1.298, 1.193e-3
-1.297, 1.175e-3
-1.296, 1.162e-3
-1.295, 1.147e-3
-1.294, 1.129e-3
-1.293, 1.107e-3
-1.292, 1.088e-3
-1.291, 1.070e-3
-1.290, 1.055e-3
-1.289, 1.039e-3
-1.288, 1.030e-3
-1.287, 1.014e-3
-1.286, 1.005e-3
-1.285, 9.898e-4
-1.284, 9.744e-4
-1.283, 9.528e-4
-1.282, 9.343e-4
-1.281, 9.158e-4
-1.280, 9.004e-4
-1.279, 8.850e-4
-1.278, 8.727e-4
-1.277, 8.634e-4
-1.276, 8.542e-4
-1.275, 8.418e-4
-1.274, 8.264e-4
-1.273, 8.110e-4
-1.272, 7.956e-4
-1.271, 7.771e-4
-1.270, 7.648e-4
-1.269, 7.524e-4
-1.268, 7.432e-4
-1.267, 7.339e-4
-1.266, 7.247e-4
-1.265, 7.124e-4
-1.264, 6.969e-4
-1.263, 6.815e-4
-1.262, 6.630e-4
-1.261, 6.476e-4
-1.260, 6.322e-4
-1.259, 6.260e-4
-1.258, 6.168e-4
-1.257, 6.075e-4
-1.256, 6.014e-4
-1.255, 5.890e-4
-1.254, 5.736e-4
-1.253, 5.582e-4
-1.252, 5.428e-4
-1.251, 5.274e-4
-1.250, 5.181e-4
-1.249, 5.089e-4
-1.248, 5.027e-4
-1.247, 4.935e-4
-1.246, 4.873e-4
-1.245, 4.780e-4
-1.244, 4.657e-4
-1.243, 4.503e-4
-1.242, 4.380e-4
-1.241, 4.195e-4
-1.240, 4.102e-4
-1.239, 4.010e-4
-1.238, 3.917e-4
-1.237, 3.855e-4
-1.236, 3.763e-4
-1.235, 3.670e-4
-1.234, 3.547e-4
-1.233, 3.393e-4
-1.232, 3.270e-4
-1.231, 3.115e-4
-1.230, 3.023e-4
-1.229, 2.869e-4
-1.228, 2.807e-4
-1.227, 2.776e-4
-1.226, 2.715e-4
-1.225, 2.622e-4
-1.224, 2.499e-4
-1.223, 2.345e-4
-1.222, 2.221e-4
-1.221, 2.067e-4
-1.220, 1.944e-4
-1.219, 1.851e-4
-1.218, 1.790e-4
-1.217, 1.697e-4
-1.216, 1.666e-4
-1.215, 1.543e-4
-1.214, 1.420e-4
-1.213, 1.266e-4
-1.212, 1.111e-4
-1.211, 9.882e-5
-1.210, 8.648e-5
-1.209, 7.723e-5
-1.208, 7.415e-5
-1.207, 6.490e-5
-1.206, 6.182e-5
-1.205, 4.949e-5
-1.204, 3.715e-5
-1.203, 2.174e-5
-1.202, 6.322e-6
-1.201, -9.093e-6
-1.200, -1.834e-5
-1.199, -3.068e-5
-1.198, -3.684e-5
-1.197, -4.609e-5
-1.196, -5.226e-5
-1.195, -6.459e-5
-1.194, -7.692e-5
-1.193, -9.234e-5
-1.192, -1.078e-4
-1.191, -1.263e-4
-1.190, -1.386e-4
-1.189, -1.448e-4
-1.188, -1.540e-4
-1.187, -1.602e-4
-1.186, -1.663e-4
-1.185, -1.787e-4
-1.184, -1.910e-4
-1.183, -2.095e-4
-1.182, -2.249e-4
-1.181, -2.403e-4
-1.180, -2.557e-4
-1.179, -2.681e-4
-1.178, -2.773e-4
-1.177, -2.866e-4
-1.176, -2.927e-4
-1.175, -3.082e-4
-1.174, -3.205e-4
-1.173, -3.359e-4
-1.172, -3.544e-4
-1.171, -3.729e-4
-1.170, -3.821e-4
-1.169, -3.976e-4
-1.168, -4.068e-4
-1.167, -4.161e-4
-1.166, -4.253e-4
-1.165, -4.346e-4
-1.164, -4.500e-4
-1.163, -4.685e-4
-1.162, -4.839e-4
-1.161, -5.024e-4
-1.160, -5.178e-4
-1.159, -5.301e-4
-1.158, -5.394e-4
-1.157, -5.517e-4
-1.156, -5.610e-4
-1.155, -5.764e-4
-1.154, -5.918e-4
-1.153, -6.103e-4
-1.152, -6.288e-4
-1.151, -6.504e-4
-1.150, -6.658e-4
-1.149, -6.812e-4
-1.148, -6.935e-4
-1.147, -7.059e-4
-1.146, -7.182e-4
-1.145, -7.336e-4
-1.144, -7.490e-4
-1.143, -7.706e-4
-1.142, -7.922e-4
-1.141, -8.107e-4
-1.140, -8.261e-4
-1.139, -8.385e-4
-1.138, -8.477e-4
-1.137, -8.600e-4
-1.136, -8.693e-4
-1.135, -8.878e-4
-1.134, -9.063e-4
-1.133, -9.217e-4
-1.132, -9.464e-4
-1.131, -9.649e-4
-1.130, -9.834e-4
-1.129, -9.988e-4
-1.128, -1.011e-3
-1.127, -1.027e-3
-1.126, -1.036e-3
-1.125, -1.054e-3
-1.124, -1.073e-3
-1.123, -1.094e-3
-1.122, -1.113e-3
-1.121, -1.138e-3
-1.120, -1.153e-3
-1.119, -1.171e-3
-1.118, -1.184e-3
-1.117, -1.199e-3
-1.116, -1.212e-3
-1.115, -1.230e-3
-1.114, -1.249e-3
-1.113, -1.273e-3
-1.112, -1.295e-3
-1.111, -1.319e-3
-1.110, -1.338e-3
-1.109, -1.356e-3
-1.108, -1.372e-3
-1.107, -1.384e-3
-1.106, -1.396e-3
-1.105, -1.418e-3
-1.104, -1.437e-3
-1.103, -1.458e-3
-1.102, -1.483e-3
-1.101, -1.504e-3
-1.100, -1.526e-3
-1.099, -1.541e-3
-1.098, -1.560e-3
-1.097, -1.575e-3
-1.096, -1.588e-3
-1.095, -1.603e-3
-1.094, -1.622e-3
-1.093, -1.643e-3
-1.092, -1.665e-3
-1.091, -1.683e-3
-1.090, -1.702e-3
-1.089, -1.717e-3
-1.088, -1.733e-3
-1.087, -1.745e-3
-1.086, -1.757e-3
-1.085, -1.773e-3
-1.084, -1.791e-3
-1.083, -1.810e-3
-1.082, -1.828e-3
-1.081, -1.847e-3
-1.080, -1.862e-3
-1.079, -1.874e-3
-1.078, -1.887e-3
-1.077, -1.896e-3
-1.076, -1.905e-3
-1.075, -1.921e-3
-1.074, -1.936e-3
-1.073, -1.955e-3
-1.072, -1.970e-3
-1.071, -1.988e-3
-1.070, -2.004e-3
-1.069, -2.016e-3
-1.068, -2.025e-3
-1.067, -2.035e-3
-1.066, -2.044e-3
-1.065, -2.056e-3
-1.064, -2.066e-3
-1.063, -2.084e-3
-1.062, -2.099e-3
-1.061, -2.115e-3
-1.060, -2.127e-3
-1.059, -2.136e-3
-1.058, -2.143e-3
-1.057, -2.152e-3
-1.056, -2.158e-3
-1.055, -2.167e-3
-1.054, -2.177e-3
-1.053, -2.192e-3
-1.052, -2.207e-3
-1.051, -2.220e-3
-1.050, -2.229e-3
-1.049, -2.238e-3
-1.048, -2.244e-3
-1.047, -2.254e-3
-1.046, -2.257e-3
-1.045, -2.263e-3
-1.044, -2.275e-3
-1.043, -2.288e-3
-1.042, -2.297e-3
-1.041, -2.309e-3
-1.040, -2.315e-3
-1.039, -2.321e-3
-1.038, -2.321e-3
-1.037, -2.325e-3
-1.036, -2.325e-3
-1.035, -2.325e-3
-1.034, -2.334e-3
-1.033, -2.340e-3
-1.032, -2.346e-3
-1.031, -2.355e-3
-1.030, -2.355e-3
-1.029, -2.358e-3
-1.028, -2.355e-3
-1.027, -2.355e-3
-1.026, -2.349e-3
-1.025, -2.355e-3
-1.024, -2.355e-3
-1.023, -2.362e-3
-1.022, -2.365e-3
-1.021, -2.368e-3
-1.020, -2.365e-3
-1.019, -2.362e-3
-1.018, -2.355e-3
-1.017, -2.349e-3
-1.016, -2.340e-3
-1.015, -2.337e-3
-1.014, -2.334e-3
-1.013, -2.334e-3
-1.012, -2.334e-3
-1.011, -2.331e-3
-1.010, -2.328e-3
-1.009, -2.321e-3
-1.008, -2.309e-3
-1.007, -2.300e-3
-1.006, -2.288e-3
-1.005, -2.281e-3
-1.004, -2.275e-3
-1.003, -2.266e-3
-1.002, -2.263e-3
-1.001, -2.257e-3
