Potential V vs RHE, Current mA cm-2
0.4132999999999999,-0.0004924610034830192
0.4122999999999999,-0.0031449032195999763
0.4112999999999999,-0.004050318451513601
0.4102999999999999,-0.004467658284973786
0.4092999999999999,-0.004814262553440719
0.4082999999999999,-0.0050731547213160215
0.4072999999999999,-0.005307996797093618
0.4062999999999999,-0.005494738688675803
0.4052999999999999,-0.005714018940154883
0.4042999999999999,-0.0058738813170396325
0.4032999999999999,-0.00599696120012789
0.4022999999999999,-0.006125699928415609
0.4012999999999999,-0.0062459503889041364
0.4002999999999999,-0.006347809602494419
0.3992999999999999,-0.006465230640383217
0.3982999999999999,-0.006605287059069856
0.3972999999999999,-0.006707146272660138
0.3962999999999999,-0.006796273084551636
0.3952999999999999,-0.0068712527834444825
0.3942999999999999,-0.006947647193637195
0.39329999999999987,-0.007041018139428288
0.39229999999999987,-0.007135803796519245
0.39129999999999987,-0.007236248298809663
0.39029999999999987,-0.007323960399401295
0.38929999999999987,-0.007384792985295492
0.38829999999999987,-0.007480993353686315
0.38729999999999987,-0.007533337671781321
0.38629999999999987,-0.0075998291028749766
0.38529999999999986,-0.007657832266169444
0.38429999999999986,-0.007711591295564315
0.38329999999999986,-0.007776668015358107
0.38229999999999986,-0.00783608588995244
0.38129999999999986,-0.007916724434044745
0.38029999999999986,-0.007997362978137053
0.37929999999999986,-0.008031316049333813
0.37829999999999986,-0.008082245656128955
0.37729999999999986,-0.008130345840324366
0.37629999999999986,-0.008168543045420721
0.37529999999999986,-0.00826049927991195
0.37429999999999986,-0.00828030523811006
0.37329999999999985,-0.008312843598006955
0.37229999999999985,-0.008377920317800748
0.37129999999999985,-0.008410458677697642
0.37029999999999985,-0.008464217707092514
0.36929999999999985,-0.008501000200889005
0.36829999999999985,-0.008520806159087117
0.36729999999999985,-0.008570321054582393
0.36629999999999985,-0.008618421238777804
0.36529999999999985,-0.008663692000373483
0.36429999999999985,-0.008701889205469842
0.36329999999999985,-0.008734427565366736
0.36229999999999984,-0.008815066109459044
0.36129999999999984,-0.008874483984053376
0.36029999999999984,-0.008950878394246088
0.35929999999999984,-0.00899331973324204
0.35829999999999984,-0.00901878453663961
0.35729999999999984,-0.009041419917437449
0.35629999999999984,-0.009066884720835021
0.35529999999999984,-0.00908669067903313
0.35429999999999984,-0.009116399616330297
0.35329999999999984,-0.009158840955326247
0.35229999999999984,-0.009204111716921927
0.35129999999999983,-0.00924372363331815
0.35029999999999983,-0.009287579683613966
0.34929999999999983,-0.009307385641812075
0.34829999999999983,-0.009352656403407758
0.34729999999999983,-0.009416318411901685
0.34629999999999983,-0.0094601744621975
0.34529999999999983,-0.009506859935093048
0.34429999999999983,-0.009521007048091697
0.3432999999999998,-0.009560618964487917
0.3422999999999998,-0.009571936654886837
0.3412999999999998,-0.009612963282582924
0.3402999999999998,-0.00964833106507955
0.3392999999999998,-0.009651160487679281
0.3382999999999998,-0.00970209009447442
0.3372999999999998,-0.009743116722170509
0.3362999999999998,-0.009762922680368618
0.3352999999999998,-0.009832243534062004
0.3342999999999998,-0.009829414111462275
0.3332999999999998,-0.009843561224460924
0.3322999999999998,-0.009905808521654985
0.3312999999999998,-0.009935517458952152
0.3302999999999998,-0.009994935333546484
0.3292999999999998,-0.01005859734204041
0.3282999999999998,-0.01005576791944068
0.3272999999999998,-0.010127918195733797
0.3262999999999998,-0.010150553576531638
0.3252999999999999,-0.010177433091229074
0.3242999999999999,-0.010180262513828803
0.3232999999999999,-0.010170359534729749
0.3222999999999999,-0.010228362698024214
0.3212999999999999,-0.010275048170919761
0.3202999999999999,-0.010293439417818007
0.3192999999999999,-0.010351442581112473
0.3182999999999999,-0.01035285729241234
0.3172999999999999,-0.010402372187907615
0.3162999999999999,-0.01044056939300397
0.3152999999999999,-0.010468863619001272
0.3142999999999999,-0.010497157844998571
0.3132999999999999,-0.010514134380596953
0.3122999999999999,-0.010541013895294387
0.3112999999999999,-0.01057213754389142
0.3102999999999999,-0.010590528790789665
0.3092999999999999,-0.010634384841085481
0.3082999999999999,-0.010669752623582105
0.3072999999999999,-0.010690973293080082
0.3062999999999999,-0.010747561745074683
0.3052999999999999,-0.010756050012873873
0.3042999999999999,-0.010761708858073333
0.3032999999999999,-0.010809809042268746
0.3022999999999999,-0.010833859134366451
0.3012999999999999,-0.010863568071663617
0.3002999999999999,-0.010939962481856328
0.2992999999999999,-0.010969671419153495
0.2982999999999999,-0.011023430448548366
0.2972999999999999,-0.011077189477943237
0.2962999999999999,-0.011109727837840132
0.2952999999999999,-0.011140851486437163
0.2942999999999999,-0.011149339754236355
0.2932999999999999,-0.01117621926893379
0.2922999999999999,-0.011218660607929741
0.2912999999999999,-0.011211587051430416
0.2902999999999999,-0.011263931369525422
0.2892999999999999,-0.011293640306822589
0.2882999999999999,-0.011300713863321913
0.2872999999999999,-0.01136720529441557
0.2862999999999999,-0.011379937696114355
0.2852999999999999,-0.011429452591609632
0.2842999999999999,-0.011459161528906798
0.2832999999999999,-0.011481796909704637
0.2822999999999999,-0.011545458918198566
0.2812999999999999,-0.011585070834594785
0.2802999999999999,-0.011638829863989656
0.2792999999999999,-0.011688344759484933
0.2782999999999999,-0.011696833027284121
0.2772999999999999,-0.011739274366280073
0.2762999999999999,-0.01178030099397616
0.2752999999999999,-0.011781715705276027
0.2742999999999999,-0.011793033395674947
0.2732999999999999,-0.011836889445970762
0.2722999999999999,-0.011873671939767252
0.2712999999999999,-0.011924601546562394
0.2702999999999999,-0.011938748659561044
0.2692999999999999,-0.011964213462958615
0.26829999999999987,-0.012005240090654701
0.26729999999999987,-0.012029290182752408
0.26629999999999987,-0.012071731521748359
0.26529999999999987,-0.012124075839843365
0.26429999999999987,-0.012170761312738912
0.26329999999999987,-0.012211787940434995
0.26229999999999987,-0.012254229279430947
0.26129999999999987,-0.012279694082828519
0.26029999999999986,-0.012310817731425549
0.25929999999999986,-0.012315061865325144
0.25829999999999986,-0.012349014936521905
0.25729999999999986,-0.012374479739919475
0.25629999999999986,-0.012398529832017181
0.25529999999999986,-0.0124706801083103
0.25429999999999986,-0.012484827221308949
0.25329999999999986,-0.0125272685603049
0.25229999999999986,-0.012582442300999636
0.25129999999999986,-0.012599418836598018
0.25029999999999986,-0.012672983824190999
0.24929999999999986,-0.012677227958090592
0.24829999999999985,-0.012728157564885736
0.24729999999999985,-0.01275220765698344
0.24629999999999985,-0.012767769481281955
0.24529999999999985,-0.012848408025374264
0.24429999999999985,-0.012872458117471968
0.24329999999999985,-0.012886605230470619
0.24229999999999985,-0.01294602310506495
0.24129999999999985,-0.01297148790846252
0.24029999999999985,-0.012991293866660631
0.23929999999999985,-0.013022417515257663
0.23829999999999985,-0.013052126452554828
0.23729999999999984,-0.013091738368951049
0.23629999999999984,-0.013156815088744842
0.23529999999999984,-0.013192182871241466
0.23429999999999984,-0.013243112478036608
0.23329999999999984,-0.01326008901363499
0.23229999999999984,-0.01329970093003121
0.23129999999999984,-0.013343556980327026
0.23029999999999984,-0.013347801114226622
0.22929999999999984,-0.01335628938202581
0.22829999999999984,-0.013376095340223921
0.22729999999999984,-0.013376095340223921
0.22629999999999983,-0.013421366101819604
0.22529999999999983,-0.01346522215211542
0.22429999999999983,-0.013493516378112722
0.22329999999999983,-0.013520395892810155
0.22229999999999983,-0.013545860696207725
0.22129999999999983,-0.013603863859502192
0.22029999999999983,-0.01367035529059585
0.21929999999999983,-0.01370147893919288
0.21829999999999983,-0.0137410908555891
0.21729999999999983,-0.01374957912338829
0.21629999999999983,-0.013743920278188831
0.21529999999999982,-0.013769385081586403
0.21429999999999982,-0.013753823257287886
0.21329999999999982,-0.013789191039784512
0.21229999999999982,-0.01385002362567871
0.21129999999999982,-0.013851438336978574
0.21029999999999982,-0.01390095323247385
0.20929999999999982,-0.013933491592370747
0.20829999999999982,-0.013925003324571555
0.20729999999999982,-0.013983006487866021
0.20629999999999982,-0.014021203692962378
0.20529999999999982,-0.014082036278856576
0.20429999999999982,-0.01410608637095428
0.20329999999999981,-0.014130136463051987
0.2022999999999998,-0.014161260111649017
0.2012999999999998,-0.014175407224647668
0.20029999999999992,-0.014189554337646317
0.19929999999999992,-0.014231995676642267
0.19829999999999992,-0.01424614278964092
0.19729999999999992,-0.014288584128636872
0.19629999999999992,-0.014316878354634173
0.19529999999999992,-0.014345172580631472
0.19429999999999992,-0.014430055258623373
0.19329999999999992,-0.014486643710617976
0.19229999999999992,-0.014472496597619325
0.19129999999999991,-0.014500790823616624
0.1902999999999999,-0.014543232162612576
0.1892999999999999,-0.014599820614607179
0.1882999999999999,-0.014670556179600431
0.1872999999999999,-0.014712997518596381
0.1862999999999999,-0.014727144631595034
0.1852999999999999,-0.014769585970590984
0.1842999999999999,-0.014783733083589632
0.1832999999999999,-0.014797880196588285
0.1822999999999999,-0.014812027309586936
0.1812999999999999,-0.014868615761581536
0.1802999999999999,-0.014925204213576137
0.1792999999999999,-0.014939351326574786
0.1782999999999999,-0.014981792665570736
0.1772999999999999,-0.01501008689156804
0.1762999999999999,-0.01501008689156804
0.1752999999999999,-0.015066675343562642
0.1742999999999999,-0.015109116682558592
0.1732999999999999,-0.015165705134553195
0.1722999999999999,-0.015236440699546445
0.1712999999999999,-0.015264734925543746
0.1702999999999999,-0.015293029151541045
0.1692999999999999,-0.015335470490536997
0.1682999999999999,-0.0153637647165343
0.1672999999999999,-0.015406206055530251
0.1662999999999999,-0.015406206055530251
0.1652999999999999,-0.01543450028152755
0.1642999999999999,-0.015476941620523503
0.1632999999999999,-0.015505235846520802
0.1622999999999999,-0.015547677185516754
0.1612999999999999,-0.015604265637511355
0.1602999999999999,-0.015646706976507305
0.1592999999999999,-0.01568914831550326
0.15829999999999989,-0.01568914831550326
0.15729999999999988,-0.015745736767497857
0.15629999999999988,-0.01578817810649381
0.15529999999999988,-0.01583061944548976
0.15429999999999988,-0.01585891367148706
0.15329999999999988,-0.015873060784485714
0.15229999999999988,-0.015873060784485714
0.15129999999999988,-0.01591550212348166
0.15029999999999988,-0.015957943462477614
0.14929999999999988,-0.016000384801473564
0.14829999999999988,-0.016014531914472215
0.14729999999999988,-0.016028679027470863
0.14629999999999987,-0.01608526747946547
0.14529999999999987,-0.016127708818461418
0.14429999999999987,-0.016170150157457368
0.14329999999999987,-0.016269179948447923
0.14229999999999987,-0.016368209739438477
0.14129999999999987,-0.016410651078434424
0.14029999999999987,-0.016438945304431726
0.13929999999999987,-0.016453092417430374
0.13829999999999987,-0.016495533756426328
0.13729999999999987,-0.01650968086942498
0.13629999999999987,-0.01650968086942498
0.13529999999999986,-0.016537975095422278
0.13429999999999986,-0.016537975095422278
0.13329999999999986,-0.01658041643441823
0.13229999999999986,-0.01665115199941148
0.13129999999999986,-0.01666529911241013
0.13029999999999986,-0.01670774045140608
0.12929999999999986,-0.016750181790402035
0.12829999999999986,-0.016778476016399334
0.12729999999999986,-0.016820917355395284
0.12629999999999986,-0.016849211581392583
0.12529999999999986,-0.01687750580738989
0.12429999999999986,-0.01691994714638584
0.12329999999999985,-0.01691994714638584
0.12229999999999985,-0.016962388485381792
0.12129999999999985,-0.01699068271137909
0.12029999999999985,-0.017018976937376393
0.11929999999999985,-0.017075565389370995
0.11829999999999985,-0.01706141827637234
0.11729999999999985,-0.017103859615368294
0.11629999999999985,-0.017160448067362895
0.11529999999999985,-0.017160448067362895
0.11429999999999985,-0.017231183632356147
0.11329999999999985,-0.017259477858353446
0.11229999999999984,-0.01734436053634535
0.11129999999999984,-0.017429243214337253
0.11029999999999984,-0.017457537440334552
0.10929999999999984,-0.01748583166633185
0.10829999999999984,-0.0175282730053278
0.10729999999999984,-0.0175282730053278
0.10629999999999984,-0.017542420118326456
0.10529999999999984,-0.017584861457322406
0.10429999999999984,-0.017599008570321057
0.10329999999999984,-0.017627302796318356
0.10229999999999984,-0.01766974413531431
0.10129999999999983,-0.01772633258730891
0.10029999999999983,-0.01774047970030756
0.09929999999999983,-0.01776877392630486
0.09829999999999983,-0.017825362378299462
0.09729999999999983,-0.017867803717295416
0.09629999999999983,-0.017881950830294063
0.09529999999999983,-0.017952686395287316
0.09429999999999983,-0.017966833508285963
0.09329999999999983,-0.017980980621284618
0.09229999999999983,-0.018023421960280565
0.09129999999999983,-0.01803756907327922
0.09029999999999982,-0.018080010412275173
0.08929999999999982,-0.01812245175127112
0.08829999999999982,-0.018150745977268422
0.08729999999999982,-0.01817904020326572
0.08629999999999982,-0.01820733442926302
0.08529999999999982,-0.018249775768258973
0.08429999999999982,-0.018292217107254923
0.08329999999999982,-0.018334658446250877
0.08229999999999982,-0.018433688237241428
0.08129999999999982,-0.01847612957623738
0.08029999999999982,-0.01851857091523333
0.07929999999999982,-0.018575159367227933
0.07829999999999981,-0.018603453593225232
0.07729999999999981,-0.018631747819222534
0.07629999999999981,-0.018674189158218484
0.07529999999999992,-0.018688336271217135
0.07429999999999992,-0.018730777610213082
0.07329999999999992,-0.018787366062207687
0.07229999999999992,-0.018815660288204986
0.07129999999999992,-0.01887224874019959
0.07029999999999992,-0.018900542966196893
0.06929999999999992,-0.01892883719219419
0.06829999999999992,-0.018999572757187444
0.06729999999999992,-0.019027866983184743
0.06629999999999991,-0.019126896774175294
0.06529999999999991,-0.019197632339168547
0.06429999999999991,-0.019211779452167198
0.06329999999999991,-0.01928251501716045
0.06229999999999991,-0.0192966621301591
0.06129999999999991,-0.019395691921149656
0.06029999999999991,-0.019579604390132108
0.05929999999999991,-0.01959375150313076
0.05829999999999991,-0.019607898616129407
0.05729999999999991,-0.01963619284212671
0.056299999999999906,-0.019607898616129407
0.055299999999999905,-0.01963619284212671
0.054299999999999904,-0.01965033995512536
0.0532999999999999,-0.01967863418112266
0.0522999999999999,-0.019763516859114563
0.0512999999999999,-0.019763516859114563
0.0502999999999999,-0.019862546650105117
0.0492999999999999,-0.019933282215098366
0.0482999999999999,-0.02000401778009162
0.0472999999999999,-0.02006060623208622
0.0462999999999999,-0.020103047571082173
0.045299999999999896,-0.020173783136075422
0.044299999999999895,-0.02020207736207272
0.043299999999999894,-0.020187930249074077
0.04229999999999989,-0.020258665814067326
0.04129999999999989,-0.020286960040064625
0.04029999999999989,-0.020357695605057877
0.03929999999999989,-0.020400136944053827
0.03829999999999989,-0.02042843117005113
0.03729999999999989,-0.02048501962204573
0.03629999999999989,-0.020513313848043033
0.03529999999999989,-0.02055575518703898
0.034299999999999886,-0.020626490752032236
0.033299999999999885,-0.020683079204026837
0.032299999999999884,-0.020725520543022787
0.031299999999999883,-0.02079625610801604
0.030299999999999883,-0.020838697447011986
0.02929999999999988,-0.02085284456001064
0.02829999999999988,-0.020909433012005242
0.02729999999999988,-0.020937727238002544
0.02629999999999988,-0.020994315689997142
0.025299999999999878,-0.021036757028993096
0.024299999999999877,-0.021079198367989046
0.023299999999999876,-0.021135786819983647
0.022299999999999875,-0.0211782281589796
0.021299999999999875,-0.0212348166109742
0.020299999999999874,-0.021305552175967454
0.019299999999999873,-0.021347993514963404
0.018299999999999872,-0.021418729079956657
0.01729999999999987,-0.02150361175794856
0.01629999999999987,-0.021560200209943158
0.01529999999999987,-0.02165923000093371
0.014299999999999868,-0.021687524226931015
0.013299999999999867,-0.021715818452928314
0.012299999999999978,-0.021786554017921567
0.011299999999999866,-0.021772406904922915
0.010299999999999976,-0.021843142469916164
0.009299999999999864,-0.021871436695913467
0.008299999999999974,-0.021928025147908068
0.007299999999999862,-0.022012907825899968
0.006299999999999972,-0.02204120205189727
0.00529999999999986,-0.022126084729889174
0.0042999999999999705,-0.022196820294882423
0.0032999999999998586,-0.022225114520879725
0.0022999999999999687,-0.022366585650866227
0.0012999999999998568,-0.02240902698986218
0.00029999999999996696,-0.022437321215859483
-0.000700000000000145,-0.022479762554855433
-0.0017000000000000348,-0.022493909667854084
-0.0027000000000001467,-0.022536351006850038
-0.0037000000000000366,-0.022592939458844635
-0.0047000000000001485,-0.02264952791083924
-0.005700000000000038,-0.02270611636283384
-0.00670000000000015,-0.02274855770182979
-0.00770000000000004,-0.02280514615382439
-0.008700000000000152,-0.022847587492820343
-0.009700000000000042,-0.022932470170812246
-0.010700000000000154,-0.023031499961802798
-0.011700000000000044,-0.0230880884137974
-0.012700000000000156,-0.023144676865792004
-0.013700000000000045,-0.0232012653177866
-0.014700000000000157,-0.02324370665678255
-0.015700000000000047,-0.02327200088277985
-0.01670000000000016,-0.023314442221775804
-0.01770000000000005,-0.023328589334774455
-0.01870000000000016,-0.02338517778676906
-0.01970000000000005,-0.023441766238763657
-0.020700000000000163,-0.023484207577759608
-0.021700000000000053,-0.02354079602975421
-0.022700000000000164,-0.023583237368750162
-0.023700000000000054,-0.023625678707746112
-0.024700000000000166,-0.023724708498736664
-0.025700000000000056,-0.02373885561173532
-0.026700000000000168,-0.023809591176728567
-0.027700000000000058,-0.02389447385472047
-0.02870000000000017,-0.02395106230671507
-0.02970000000000006,-0.024035944984706972
-0.03070000000000017,-0.024120827662698876
-0.03170000000000006,-0.024120827662698876
-0.03270000000000017,-0.024163269001694826
-0.03370000000000006,-0.02417741611469348
-0.034700000000000175,-0.02426229879268538
-0.035700000000000065,-0.02429059301868268
-0.03670000000000018,-0.024318887244679982
-0.03770000000000007,-0.02438962280967323
-0.03870000000000018,-0.024446211261667832
-0.03970000000000007,-0.024488652600663786
-0.04070000000000018,-0.024559388165657038
-0.04170000000000007,-0.024587682391654337
-0.04270000000000018,-0.02467256506964624
-0.04370000000000007,-0.02474330063463949
-0.044700000000000184,-0.024785741973635443
-0.045700000000000074,-0.024856477538628696
-0.046700000000000186,-0.024884771764625994
-0.047700000000000076,-0.024913065990623297
-0.04870000000000019,-0.024969654442617898
-0.04970000000000008,-0.0250262428946125
-0.05070000000000019,-0.0250545371206098
-0.05170000000000008,-0.02506868423360845
-0.05270000000000019,-0.02515356691160035
-0.05370000000000008,-0.025224302476593602
-0.05470000000000019,-0.025280890928588207
-0.05570000000000008,-0.025323332267584157
-0.056700000000000195,-0.025365773606580107
-0.057700000000000085,-0.02543650917157336
-0.058700000000000196,-0.02547895051056931
-0.059700000000000086,-0.025592127414558512
-0.0607000000000002,-0.025648715866553113
-0.06170000000000009,-0.025747745657543668
-0.0627000000000002,-0.025832628335535568
-0.06370000000000009,-0.02587506967453152
