July 11, 2024   05:56:25
Cyclic Voltammetry
File: c:/users/guazh/data/20240709_batch67/2024-07-10-exp8\exp8-2024-07-11t05_32_20-arkoh\exp8_cv_sr_400mvs_efin_-1900mv.bin
Data Source:  Experiment
Instrument Model:  CHI760E
Header: CV ran at 400 mVs
Note: 

Init E (V) = -1
High E (V) = -1
Low E (V) = -1.9
Final E (V) = -1
Init P/N = N
Scan Rate (V/s) = 0.4
Segment = 3
Sample Interval (V) = 0.001
Quiet Time (sec) = 2
Sensitivity (A/V) = 0.01
Comp R (ohm) = 1.7

Results:

Channel 1:
Segment 1:

Segment 2:

Segment 3:

Potential/V, Current/A

-1.000, 1.559e-7
-1.001, 3.239e-6
-1.002, 3.239e-6
-1.003, 3.239e-6
-1.004, 3.239e-6
-1.005, 3.239e-6
-1.006, 3.239e-6
-1.007, 3.239e-6
-1.008, 3.239e-6
-1.009, 3.239e-6
-1.010, 3.239e-6
-1.011, 3.239e-6
-1.012, 3.239e-6
-1.013, 3.239e-6
-1.014, 3.239e-6
-1.015, 3.239e-6
-1.016, 3.239e-6
-1.017, 3.239e-6
-1.018, 3.239e-6
-1.019, 3.239e-6
-1.020, 3.239e-6
-1.021, 3.239e-6
-1.022, 3.239e-6
-1.023, 3.239e-6
-1.024, 3.239e-6
-1.025, 3.239e-6
-1.026, 6.322e-6
-1.027, 3.239e-6
-1.028, 3.239e-6
-1.029, 3.239e-6
-1.030, 3.239e-6
-1.031, 3.239e-6
-1.032, 3.239e-6
-1.033, 3.239e-6
-1.034, 3.239e-6
-1.035, 6.322e-6
-1.036, 3.239e-6
-1.037, 3.239e-6
-1.038, 3.239e-6
-1.039, 3.239e-6
-1.040, 3.239e-6
-1.041, 3.239e-6
-1.042, 3.239e-6
-1.043, 3.239e-6
-1.044, 3.239e-6
-1.045, 3.239e-6
-1.046, 3.239e-6
-1.047, 3.239e-6
-1.048, 3.239e-6
-1.049, 3.239e-6
-1.050, 3.239e-6
-1.051, 3.239e-6
-1.052, 3.239e-6
-1.053, 3.239e-6
-1.054, 3.239e-6
-1.055, 3.239e-6
-1.056, 3.239e-6
-1.057, 3.239e-6
-1.058, 6.322e-6
-1.059, 3.239e-6
-1.060, 3.239e-6
-1.061, 3.239e-6
-1.062, 6.322e-6
-1.063, 3.239e-6
-1.064, 3.239e-6
-1.065, 3.239e-6
-1.066, 3.239e-6
-1.067, 6.322e-6
-1.068, 3.239e-6
-1.069, 6.322e-6
-1.070, 3.239e-6
-1.071, 3.239e-6
-1.072, 3.239e-6
-1.073, 3.239e-6
-1.074, 6.322e-6
-1.075, 3.239e-6
-1.076, 6.322e-6
-1.077, 3.239e-6
-1.078, 6.322e-6
-1.079, 3.239e-6
-1.080, 3.239e-6
-1.081, 6.322e-6
-1.082, 3.239e-6
-1.083, 6.322e-6
-1.084, 3.239e-6
-1.085, 6.322e-6
-1.086, 3.239e-6
-1.087, 6.322e-6
-1.088, 3.239e-6
-1.089, 3.239e-6
-1.090, 6.322e-6
-1.091, 3.239e-6
-1.092, 6.322e-6
-1.093, 3.239e-6
-1.094, 6.322e-6
-1.095, 3.239e-6
-1.096, 6.322e-6
-1.097, 6.322e-6
-1.098, 3.239e-6
-1.099, 6.322e-6
-1.100, 3.239e-6
-1.101, 6.322e-6
-1.102, 3.239e-6
-1.103, 6.322e-6
-1.104, 6.322e-6
-1.105, 6.322e-6
-1.106, 6.322e-6
-1.107, 3.239e-6
-1.108, 6.322e-6
-1.109, 3.239e-6
-1.110, 6.322e-6
-1.111, 3.239e-6
-1.112, 6.322e-6
-1.113, 6.322e-6
-1.114, 3.239e-6
-1.115, 6.322e-6
-1.116, 3.239e-6
-1.117, 6.322e-6
-1.118, 3.239e-6
-1.119, 6.322e-6
-1.120, 6.322e-6
-1.121, 6.322e-6
-1.122, 6.322e-6
-1.123, 6.322e-6
-1.124, 6.322e-6
-1.125, 3.239e-6
-1.126, 6.322e-6
-1.127, 3.239e-6
-1.128, 6.322e-6
-1.129, 3.239e-6
-1.130, 6.322e-6
-1.131, 6.322e-6
-1.132, 3.239e-6
-1.133, 6.322e-6
-1.134, 3.239e-6
-1.135, 6.322e-6
-1.136, 3.239e-6
-1.137, 6.322e-6
-1.138, 6.322e-6
-1.139, 3.239e-6
-1.140, 6.322e-6
-1.141, 6.322e-6
-1.142, 6.322e-6
-1.143, 3.239e-6
-1.144, 6.322e-6
-1.145, 6.322e-6
-1.146, 6.322e-6
-1.147, 6.322e-6
-1.148, 3.239e-6
-1.149, 6.322e-6
-1.150, 3.239e-6
-1.151, 6.322e-6
-1.152, 6.322e-6
-1.153, 6.322e-6
-1.154, 6.322e-6
-1.155, 6.322e-6
-1.156, 6.322e-6
-1.157, 3.239e-6
-1.158, 6.322e-6
-1.159, 3.239e-6
-1.160, 6.322e-6
-1.161, 6.322e-6
-1.162, 6.322e-6
-1.163, 6.322e-6
-1.164, 6.322e-6
-1.165, 6.322e-6
-1.166, 3.239e-6
-1.167, 6.322e-6
-1.168, 6.322e-6
-1.169, 6.322e-6
-1.170, 6.322e-6
-1.171, 6.322e-6
-1.172, 6.322e-6
-1.173, 6.322e-6
-1.174, 6.322e-6
-1.175, 6.322e-6
-1.176, 6.322e-6
-1.177, 6.322e-6
-1.178, 6.322e-6
-1.179, 6.322e-6
-1.180, 6.322e-6
-1.181, 6.322e-6
-1.182, 6.322e-6
-1.183, 6.322e-6
-1.184, 6.322e-6
-1.185, 6.322e-6
-1.186, 6.322e-6
-1.187, 6.322e-6
-1.188, 6.322e-6
-1.189, 6.322e-6
-1.190, 6.322e-6
-1.191, 6.322e-6
-1.192, 6.322e-6
-1.193, 6.322e-6
-1.194, 6.322e-6
-1.195, 6.322e-6
-1.196, 6.322e-6
-1.197, 6.322e-6
-1.198, 6.322e-6
-1.199, 6.322e-6
-1.200, 6.322e-6
-1.201, 6.322e-6
-1.202, 6.322e-6
-1.203, 6.322e-6
-1.204, 6.322e-6
-1.205, 6.322e-6
-1.206, 6.322e-6
-1.207, 6.322e-6
-1.208, 6.322e-6
-1.209, 6.322e-6
-1.210, 6.322e-6
-1.211, 6.322e-6
-1.212, 6.322e-6
-1.213, 6.322e-6
-1.214, 6.322e-6
-1.215, 6.322e-6
-1.216, 6.322e-6
-1.217, 9.405e-6
-1.218, 6.322e-6
-1.219, 6.322e-6
-1.220, 6.322e-6
-1.221, 6.322e-6
-1.222, 9.405e-6
-1.223, 6.322e-6
-1.224, 6.322e-6
-1.225, 6.322e-6
-1.226, 6.322e-6
-1.227, 6.322e-6
-1.228, 6.322e-6
-1.229, 6.322e-6
-1.230, 6.322e-6
-1.231, 9.405e-6
-1.232, 6.322e-6
-1.233, 6.322e-6
-1.234, 6.322e-6
-1.235, 9.405e-6
-1.236, 6.322e-6
-1.237, 6.322e-6
-1.238, 6.322e-6
-1.239, 6.322e-6
-1.240, 9.405e-6
-1.241, 6.322e-6
-1.242, 9.405e-6
-1.243, 6.322e-6
-1.244, 6.322e-6
-1.245, 9.405e-6
-1.246, 6.322e-6
-1.247, 6.322e-6
-1.248, 6.322e-6
-1.249, 9.405e-6
-1.250, 6.322e-6
-1.251, 6.322e-6
-1.252, 6.322e-6
-1.253, 6.322e-6
-1.254, 9.405e-6
-1.255, 6.322e-6
-1.256, 9.405e-6
-1.257, 6.322e-6
-1.258, 6.322e-6
-1.259, 6.322e-6
-1.260, 6.322e-6
-1.261, 6.322e-6
-1.262, 9.405e-6
-1.263, 9.405e-6
-1.264, 6.322e-6
-1.265, 9.405e-6
-1.266, 6.322e-6
-1.267, 6.322e-6
-1.268, 9.405e-6
-1.269, 9.405e-6
-1.270, 9.405e-6
-1.271, 6.322e-6
-1.272, 6.322e-6
-1.273, 6.322e-6
-1.274, 9.405e-6
-1.275, 9.405e-6
-1.276, 6.322e-6
-1.277, 9.405e-6
-1.278, 9.405e-6
-1.279, 9.405e-6
-1.280, 6.322e-6
-1.281, 9.405e-6
-1.282, 6.322e-6
-1.283, 9.405e-6
-1.284, 6.322e-6
-1.285, 9.405e-6
-1.286, 9.405e-6
-1.287, 6.322e-6
-1.288, 9.405e-6
-1.289, 9.405e-6
-1.290, 9.405e-6
-1.291, 6.322e-6
-1.292, 9.405e-6
-1.293, 9.405e-6
-1.294, 9.405e-6
-1.295, 9.405e-6
-1.296, 9.405e-6
-1.297, 9.405e-6
-1.298, 6.322e-6
-1.299, 9.405e-6
-1.300, 9.405e-6
-1.301, 9.405e-6
-1.302, 9.405e-6
-1.303, 9.405e-6
-1.304, 9.405e-6
-1.305, 9.405e-6
-1.306, 9.405e-6
-1.307, 6.322e-6
-1.308, 9.405e-6
-1.309, 9.405e-6
-1.310, 9.405e-6
-1.311, 9.405e-6
-1.312, 9.405e-6
-1.313, 9.405e-6
-1.314, 9.405e-6
-1.315, 9.405e-6
-1.316, 9.405e-6
-1.317, 9.405e-6
-1.318, 9.405e-6
-1.319, 9.405e-6
-1.320, 9.405e-6
-1.321, 9.405e-6
-1.322, 9.405e-6
-1.323, 9.405e-6
-1.324, 9.405e-6
-1.325, 9.405e-6
-1.326, 9.405e-6
-1.327, 9.405e-6
-1.328, 9.405e-6
-1.329, 9.405e-6
-1.330, 9.405e-6
-1.331, 9.405e-6
-1.332, 9.405e-6
-1.333, 9.405e-6
-1.334, 9.405e-6
-1.335, 9.405e-6
-1.336, 9.405e-6
-1.337, 9.405e-6
-1.338, 9.405e-6
-1.339, 9.405e-6
-1.340, 1.249e-5
-1.341, 9.405e-6
-1.342, 9.405e-6
-1.343, 9.405e-6
-1.344, 9.405e-6
-1.345, 9.405e-6
-1.346, 9.405e-6
-1.347, 1.249e-5
-1.348, 9.405e-6
-1.349, 1.249e-5
-1.350, 9.405e-6
-1.351, 9.405e-6
-1.352, 9.405e-6
-1.353, 9.405e-6
-1.354, 1.249e-5
-1.355, 9.405e-6
-1.356, 1.249e-5
-1.357, 9.405e-6
-1.358, 9.405e-6
-1.359, 9.405e-6
-1.360, 9.405e-6
-1.361, 1.249e-5
-1.362, 9.405e-6
-1.363, 1.249e-5
-1.364, 9.405e-6
-1.365, 1.249e-5
-1.366, 9.405e-6
-1.367, 9.405e-6
-1.368, 1.249e-5
-1.369, 1.249e-5
-1.370, 1.249e-5
-1.371, 9.405e-6
-1.372, 1.249e-5
-1.373, 9.405e-6
-1.374, 1.249e-5
-1.375, 1.249e-5
-1.376, 9.405e-6
-1.377, 1.249e-5
-1.378, 9.405e-6
-1.379, 1.249e-5
-1.380, 9.405e-6
-1.381, 1.249e-5
-1.382, 1.249e-5
-1.383, 1.249e-5
-1.384, 1.249e-5
-1.385, 1.249e-5
-1.386, 1.249e-5
-1.387, 1.249e-5
-1.388, 1.249e-5
-1.389, 1.249e-5
-1.390, 1.249e-5
-1.391, 1.249e-5
-1.392, 1.249e-5
-1.393, 1.249e-5
-1.394, 1.249e-5
-1.395, 1.249e-5
-1.396, 1.249e-5
-1.397, 1.249e-5
-1.398, 1.249e-5
-1.399, 1.249e-5
-1.400, 1.249e-5
-1.401, 1.249e-5
-1.402, 1.557e-5
-1.403, 1.249e-5
-1.404, 1.249e-5
-1.405, 1.249e-5
-1.406, 1.557e-5
-1.407, 1.249e-5
-1.408, 1.557e-5
-1.409, 1.249e-5
-1.410, 1.249e-5
-1.411, 1.557e-5
-1.412, 1.249e-5
-1.413, 1.557e-5
-1.414, 1.557e-5
-1.415, 1.557e-5
-1.416, 1.249e-5
-1.417, 1.557e-5
-1.418, 1.557e-5
-1.419, 1.557e-5
-1.420, 1.557e-5
-1.421, 1.249e-5
-1.422, 1.557e-5
-1.423, 1.557e-5
-1.424, 1.557e-5
-1.425, 1.557e-5
-1.426, 1.557e-5
-1.427, 1.557e-5
-1.428, 1.557e-5
-1.429, 1.865e-5
-1.430, 1.557e-5
-1.431, 1.865e-5
-1.432, 1.557e-5
-1.433, 1.865e-5
-1.434, 1.557e-5
-1.435, 1.865e-5
-1.436, 1.865e-5
-1.437, 1.557e-5
-1.438, 1.865e-5
-1.439, 1.557e-5
-1.440, 1.865e-5
-1.441, 1.557e-5
-1.442, 1.865e-5
-1.443, 1.865e-5
-1.444, 1.865e-5
-1.445, 1.865e-5
-1.446, 1.557e-5
-1.447, 1.865e-5
-1.448, 1.865e-5
-1.449, 1.865e-5
-1.450, 1.865e-5
-1.451, 1.865e-5
-1.452, 1.865e-5
-1.453, 1.865e-5
-1.454, 2.174e-5
-1.455, 1.865e-5
-1.456, 2.174e-5
-1.457, 1.865e-5
-1.458, 1.865e-5
-1.459, 2.174e-5
-1.460, 1.865e-5
-1.461, 2.174e-5
-1.462, 1.865e-5
-1.463, 2.174e-5
-1.464, 2.174e-5
-1.465, 2.174e-5
-1.466, 2.174e-5
-1.467, 2.174e-5
-1.468, 2.174e-5
-1.469, 2.174e-5
-1.470, 2.174e-5
-1.471, 2.174e-5
-1.472, 2.482e-5
-1.473, 2.174e-5
-1.474, 2.482e-5
-1.475, 2.482e-5
-1.476, 2.174e-5
-1.477, 2.482e-5
-1.478, 2.174e-5
-1.479, 2.482e-5
-1.480, 2.482e-5
-1.481, 2.482e-5
-1.482, 2.482e-5
-1.483, 2.482e-5
-1.484, 2.482e-5
-1.485, 2.482e-5
-1.486, 2.482e-5
-1.487, 2.482e-5
-1.488, 2.482e-5
-1.489, 2.482e-5
-1.490, 2.482e-5
-1.491, 2.790e-5
-1.492, 2.482e-5
-1.493, 2.790e-5
-1.494, 2.482e-5
-1.495, 3.099e-5
-1.496, 2.790e-5
-1.497, 2.790e-5
-1.498, 2.790e-5
-1.499, 2.790e-5
-1.500, 2.790e-5
-1.501, 2.790e-5
-1.502, 3.099e-5
-1.503, 2.790e-5
-1.504, 3.099e-5
-1.505, 2.790e-5
-1.506, 3.099e-5
-1.507, 3.099e-5
-1.508, 3.099e-5
-1.509, 3.099e-5
-1.510, 3.099e-5
-1.511, 3.407e-5
-1.512, 3.099e-5
-1.513, 3.407e-5
-1.514, 3.407e-5
-1.515, 3.407e-5
-1.516, 3.407e-5
-1.517, 3.407e-5
-1.518, 3.407e-5
-1.519, 3.407e-5
-1.520, 3.407e-5
-1.521, 3.407e-5
-1.522, 3.407e-5
-1.523, 3.715e-5
-1.524, 3.715e-5
-1.525, 3.715e-5
-1.526, 3.715e-5
-1.527, 3.715e-5
-1.528, 3.715e-5
-1.529, 3.715e-5
-1.530, 3.715e-5
-1.531, 3.715e-5
-1.532, 3.715e-5
-1.533, 3.715e-5
-1.534, 4.024e-5
-1.535, 4.024e-5
-1.536, 4.332e-5
-1.537, 4.024e-5
-1.538, 4.024e-5
-1.539, 4.024e-5
-1.540, 4.024e-5
-1.541, 4.332e-5
-1.542, 4.332e-5
-1.543, 4.332e-5
-1.544, 4.332e-5
-1.545, 4.332e-5
-1.546, 4.332e-5
-1.547, 4.332e-5
-1.548, 4.640e-5
-1.549, 4.640e-5
-1.550, 4.640e-5
-1.551, 4.640e-5
-1.552, 4.640e-5
-1.553, 4.640e-5
-1.554, 4.949e-5
-1.555, 4.949e-5
-1.556, 4.949e-5
-1.557, 4.949e-5
-1.558, 4.949e-5
-1.559, 4.949e-5
-1.560, 4.949e-5
-1.561, 5.257e-5
-1.562, 5.257e-5
-1.563, 5.257e-5
-1.564, 5.257e-5
-1.565, 5.257e-5
-1.566, 5.565e-5
-1.567, 5.257e-5
-1.568, 5.565e-5
-1.569, 5.565e-5
-1.570, 5.873e-5
-1.571, 5.873e-5
-1.572, 5.565e-5
-1.573, 5.873e-5
-1.574, 5.565e-5
-1.575, 6.182e-5
-1.576, 5.873e-5
-1.577, 6.182e-5
-1.578, 5.873e-5
-1.579, 6.182e-5
-1.580, 6.182e-5
-1.581, 6.490e-5
-1.582, 6.490e-5
-1.583, 6.490e-5
-1.584, 6.490e-5
-1.585, 6.490e-5
-1.586, 6.798e-5
-1.587, 6.798e-5
-1.588, 6.798e-5
-1.589, 6.798e-5
-1.590, 7.107e-5
-1.591, 7.107e-5
-1.592, 7.107e-5
-1.593, 7.415e-5
-1.594, 7.415e-5
-1.595, 7.415e-5
-1.596, 7.415e-5
-1.597, 7.723e-5
-1.598, 7.723e-5
-1.599, 7.723e-5
-1.600, 8.032e-5
-1.601, 8.032e-5
-1.602, 8.340e-5
-1.603, 8.032e-5
-1.604, 8.340e-5
-1.605, 8.340e-5
-1.606, 8.340e-5
-1.607, 8.648e-5
-1.608, 8.648e-5
-1.609, 8.957e-5
-1.610, 8.957e-5
-1.611, 9.265e-5
-1.612, 8.957e-5
-1.613, 9.265e-5
-1.614, 9.265e-5
-1.615, 9.573e-5
-1.616, 9.573e-5
-1.617, 9.573e-5
-1.618, 9.882e-5
-1.619, 9.882e-5
-1.620, 1.019e-4
-1.621, 1.019e-4
-1.622, 1.050e-4
-1.623, 1.050e-4
-1.624, 1.081e-4
-1.625, 1.081e-4
-1.626, 1.081e-4
-1.627, 1.111e-4
-1.628, 1.111e-4
-1.629, 1.142e-4
-1.630, 1.142e-4
-1.631, 1.173e-4
-1.632, 1.173e-4
-1.633, 1.204e-4
-1.634, 1.235e-4
-1.635, 1.235e-4
-1.636, 1.266e-4
-1.637, 1.266e-4
-1.638, 1.296e-4
-1.639, 1.296e-4
-1.640, 1.327e-4
-1.641, 1.358e-4
-1.642, 1.389e-4
-1.643, 1.389e-4
-1.644, 1.420e-4
-1.645, 1.420e-4
-1.646, 1.451e-4
-1.647, 1.481e-4
-1.648, 1.512e-4
-1.649, 1.512e-4
-1.650, 1.543e-4
-1.651, 1.543e-4
-1.652, 1.605e-4
-1.653, 1.605e-4
-1.654, 1.636e-4
-1.655, 1.666e-4
-1.656, 1.697e-4
-1.657, 1.728e-4
-1.658, 1.759e-4
-1.659, 1.759e-4
-1.660, 1.790e-4
-1.661, 1.821e-4
-1.662, 1.851e-4
-1.663, 1.882e-4
-1.664, 1.913e-4
-1.665, 1.944e-4
-1.666, 1.975e-4
-1.667, 2.006e-4
-1.668, 2.067e-4
-1.669, 2.067e-4
-1.670, 2.129e-4
-1.671, 2.129e-4
-1.672, 2.191e-4
-1.673, 2.221e-4
-1.674, 2.252e-4
-1.675, 2.314e-4
-1.676, 2.345e-4
-1.677, 2.376e-4
-1.678, 2.406e-4
-1.679, 2.437e-4
-1.680, 2.499e-4
-1.681, 2.530e-4
-1.682, 2.591e-4
-1.683, 2.622e-4
-1.684, 2.684e-4
-1.685, 2.715e-4
-1.686, 2.776e-4
-1.687, 2.807e-4
-1.688, 2.869e-4
-1.689, 2.931e-4
-1.690, 2.961e-4
-1.691, 3.023e-4
-1.692, 3.054e-4
-1.693, 3.115e-4
-1.694, 3.177e-4
-1.695, 3.239e-4
-1.696, 3.300e-4
-1.697, 3.362e-4
-1.698, 3.393e-4
-1.699, 3.455e-4
-1.700, 3.547e-4
-1.701, 3.609e-4
-1.702, 3.701e-4
-1.703, 3.732e-4
-1.704, 3.825e-4
-1.705, 3.855e-4
-1.706, 3.917e-4
-1.707, 4.010e-4
-1.708, 4.071e-4
-1.709, 4.195e-4
-1.710, 4.256e-4
-1.711, 4.318e-4
-1.712, 4.410e-4
-1.713, 4.472e-4
-1.714, 4.534e-4
-1.715, 4.657e-4
-1.716, 4.750e-4
-1.717, 4.811e-4
-1.718, 4.935e-4
-1.719, 5.027e-4
-1.720, 5.089e-4
-1.721, 5.181e-4
-1.722, 5.305e-4
-1.723, 5.397e-4
-1.724, 5.489e-4
-1.725, 5.582e-4
-1.726, 5.674e-4
-1.727, 5.798e-4
-1.728, 5.921e-4
-1.729, 6.044e-4
-1.730, 6.137e-4
-1.731, 6.229e-4
-1.732, 6.353e-4
-1.733, 6.476e-4
-1.734, 6.599e-4
-1.735, 6.723e-4
-1.736, 6.877e-4
-1.737, 7.000e-4
-1.738, 7.124e-4
-1.739, 7.247e-4
-1.740, 7.339e-4
-1.741, 7.524e-4
-1.742, 7.648e-4
-1.743, 7.833e-4
-1.744, 7.925e-4
-1.745, 8.079e-4
-1.746, 8.233e-4
-1.747, 8.388e-4
-1.748, 8.542e-4
-1.749, 8.696e-4
-1.750, 8.881e-4
-1.751, 9.004e-4
-1.752, 9.158e-4
-1.753, 9.343e-4
-1.754, 9.498e-4
-1.755, 9.683e-4
-1.756, 9.868e-4
-1.757, 1.005e-3
-1.758, 1.021e-3
-1.759, 1.039e-3
-1.760, 1.055e-3
-1.761, 1.076e-3
-1.762, 1.095e-3
-1.763, 1.116e-3
-1.764, 1.138e-3
-1.765, 1.153e-3
-1.766, 1.175e-3
-1.767, 1.193e-3
-1.768, 1.215e-3
-1.769, 1.236e-3
-1.770, 1.261e-3
-1.771, 1.283e-3
-1.772, 1.301e-3
-1.773, 1.323e-3
-1.774, 1.344e-3
-1.775, 1.372e-3
-1.776, 1.397e-3
-1.777, 1.418e-3
-1.778, 1.443e-3
-1.779, 1.465e-3
-1.780, 1.489e-3
-1.781, 1.514e-3
-1.782, 1.542e-3
-1.783, 1.569e-3
-1.784, 1.594e-3
-1.785, 1.619e-3
-1.786, 1.643e-3
-1.787, 1.671e-3
-1.788, 1.702e-3
-1.789, 1.730e-3
-1.790, 1.758e-3
-1.791, 1.785e-3
-1.792, 1.810e-3
-1.793, 1.841e-3
-1.794, 1.869e-3
-1.795, 1.899e-3
-1.796, 1.933e-3
-1.797, 1.961e-3
-1.798, 1.992e-3
-1.799, 2.020e-3
-1.800, 2.050e-3
-1.801, 2.084e-3
-1.802, 2.121e-3
-1.803, 2.152e-3
-1.804, 2.186e-3
-1.805, 2.217e-3
-1.806, 2.245e-3
-1.807, 2.282e-3
-1.808, 2.316e-3
-1.809, 2.353e-3
-1.810, 2.390e-3
-1.811, 2.423e-3
-1.812, 2.454e-3
-1.813, 2.488e-3
-1.814, 2.528e-3
-1.815, 2.565e-3
-1.816, 2.608e-3
-1.817, 2.642e-3
-1.818, 2.679e-3
-1.819, 2.713e-3
-1.820, 2.750e-3
-1.821, 2.790e-3
-1.822, 2.834e-3
-1.823, 2.877e-3
-1.824, 2.914e-3
-1.825, 2.954e-3
-1.826, 2.991e-3
-1.827, 3.031e-3
-1.828, 3.074e-3
-1.829, 3.120e-3
-1.830, 3.163e-3
-1.831, 3.204e-3
-1.832, 3.247e-3
-1.833, 3.287e-3
-1.834, 3.330e-3
-1.835, 3.376e-3
-1.836, 3.422e-3
-1.837, 3.469e-3
-1.838, 3.512e-3
-1.839, 3.552e-3
-1.840, 3.595e-3
-1.841, 3.644e-3
-1.842, 3.694e-3
-1.843, 3.746e-3
-1.844, 3.789e-3
-1.845, 3.836e-3
-1.846, 3.882e-3
-1.847, 3.928e-3
-1.848, 3.977e-3
-1.849, 4.033e-3
-1.850, 4.085e-3
-1.851, 4.132e-3
-1.852, 4.175e-3
-1.853, 4.221e-3
-1.854, 4.273e-3
-1.855, 4.329e-3
-1.856, 4.381e-3
-1.857, 4.437e-3
-1.858, 4.486e-3
-1.859, 4.532e-3
-1.860, 4.582e-3
-1.861, 4.637e-3
-1.862, 4.696e-3
-1.863, 4.751e-3
-1.864, 4.807e-3
-1.865, 4.859e-3
-1.866, 4.908e-3
-1.867, 4.961e-3
-1.868, 5.019e-3
-1.869, 5.081e-3
-1.870, 5.140e-3
-1.871, 5.192e-3
-1.872, 5.245e-3
-1.873, 5.297e-3
-1.874, 5.356e-3
-1.875, 5.420e-3
-1.876, 5.479e-3
-1.877, 5.541e-3
-1.878, 5.596e-3
-1.879, 5.651e-3
-1.880, 5.707e-3
-1.881, 5.769e-3
-1.882, 5.836e-3
-1.883, 5.898e-3
-1.884, 5.960e-3
-1.885, 6.012e-3
-1.886, 6.071e-3
-1.887, 6.132e-3
-1.888, 6.197e-3
-1.889, 6.268e-3
-1.890, 6.333e-3
-1.891, 6.391e-3
-1.892, 6.450e-3
-1.893, 6.509e-3
-1.894, 6.573e-3
-1.895, 6.644e-3
-1.896, 6.712e-3
-1.897, 6.780e-3
-1.898, 6.842e-3
-1.899, 6.897e-3
-1.900, 6.928e-3
-1.899, 6.900e-3
-1.898, 6.875e-3
-1.897, 6.848e-3
-1.896, 6.814e-3
-1.895, 6.774e-3
-1.894, 6.734e-3
-1.893, 6.700e-3
-1.892, 6.666e-3
-1.891, 6.638e-3
-1.890, 6.604e-3
-1.889, 6.564e-3
-1.888, 6.521e-3
-1.887, 6.481e-3
-1.886, 6.444e-3
-1.885, 6.410e-3
-1.884, 6.376e-3
-1.883, 6.336e-3
-1.882, 6.293e-3
-1.881, 6.250e-3
-1.880, 6.206e-3
-1.879, 6.173e-3
-1.878, 6.136e-3
-1.877, 6.102e-3
-1.876, 6.058e-3
-1.875, 6.015e-3
-1.874, 5.972e-3
-1.873, 5.932e-3
-1.872, 5.898e-3
-1.871, 5.861e-3
-1.870, 5.824e-3
-1.869, 5.781e-3
-1.868, 5.735e-3
-1.867, 5.695e-3
-1.866, 5.655e-3
-1.865, 5.621e-3
-1.864, 5.584e-3
-1.863, 5.544e-3
-1.862, 5.500e-3
-1.861, 5.457e-3
-1.860, 5.414e-3
-1.859, 5.380e-3
-1.858, 5.343e-3
-1.857, 5.309e-3
-1.856, 5.266e-3
-1.855, 5.223e-3
-1.854, 5.180e-3
-1.853, 5.140e-3
-1.852, 5.106e-3
-1.851, 5.072e-3
-1.850, 5.035e-3
-1.849, 4.992e-3
-1.848, 4.952e-3
-1.847, 4.908e-3
-1.846, 4.871e-3
-1.845, 4.838e-3
-1.844, 4.804e-3
-1.843, 4.764e-3
-1.842, 4.723e-3
-1.841, 4.680e-3
-1.840, 4.643e-3
-1.839, 4.609e-3
-1.838, 4.575e-3
-1.837, 4.542e-3
-1.836, 4.501e-3
-1.835, 4.461e-3
-1.834, 4.424e-3
-1.833, 4.387e-3
-1.832, 4.357e-3
-1.831, 4.320e-3
-1.830, 4.286e-3
-1.829, 4.249e-3
-1.828, 4.209e-3
-1.827, 4.172e-3
-1.826, 4.138e-3
-1.825, 4.104e-3
-1.824, 4.073e-3
-1.823, 4.039e-3
-1.822, 4.002e-3
-1.821, 3.962e-3
-1.820, 3.925e-3
-1.819, 3.891e-3
-1.818, 3.866e-3
-1.817, 3.832e-3
-1.816, 3.799e-3
-1.815, 3.758e-3
-1.814, 3.725e-3
-1.813, 3.691e-3
-1.812, 3.660e-3
-1.811, 3.632e-3
-1.810, 3.601e-3
-1.809, 3.567e-3
-1.808, 3.530e-3
-1.807, 3.496e-3
-1.806, 3.466e-3
-1.805, 3.438e-3
-1.804, 3.407e-3
-1.803, 3.376e-3
-1.802, 3.342e-3
-1.801, 3.308e-3
-1.800, 3.278e-3
-1.799, 3.250e-3
-1.798, 3.222e-3
-1.797, 3.194e-3
-1.796, 3.160e-3
-1.795, 3.130e-3
-1.794, 3.093e-3
-1.793, 3.065e-3
-1.792, 3.040e-3
-1.791, 3.015e-3
-1.790, 2.988e-3
-1.789, 2.954e-3
-1.788, 2.923e-3
-1.787, 2.892e-3
-1.786, 2.867e-3
-1.785, 2.840e-3
-1.784, 2.815e-3
-1.783, 2.787e-3
-1.782, 2.756e-3
-1.781, 2.726e-3
-1.780, 2.698e-3
-1.779, 2.676e-3
-1.778, 2.652e-3
-1.777, 2.627e-3
-1.776, 2.599e-3
-1.775, 2.568e-3
-1.774, 2.544e-3
-1.773, 2.516e-3
-1.772, 2.494e-3
-1.771, 2.470e-3
-1.770, 2.445e-3
-1.769, 2.417e-3
-1.768, 2.390e-3
-1.767, 2.362e-3
-1.766, 2.337e-3
-1.765, 2.316e-3
-1.764, 2.294e-3
-1.763, 2.272e-3
-1.762, 2.245e-3
-1.761, 2.220e-3
-1.760, 2.192e-3
-1.759, 2.174e-3
-1.758, 2.152e-3
-1.757, 2.131e-3
-1.756, 2.106e-3
-1.755, 2.081e-3
-1.754, 2.057e-3
-1.753, 2.035e-3
-1.752, 2.017e-3
-1.751, 1.995e-3
-1.750, 1.973e-3
-1.749, 1.952e-3
-1.748, 1.924e-3
-1.747, 1.906e-3
-1.746, 1.884e-3
-1.745, 1.865e-3
-1.744, 1.847e-3
-1.743, 1.825e-3
-1.742, 1.801e-3
-1.741, 1.779e-3
-1.740, 1.761e-3
-1.739, 1.739e-3
-1.738, 1.724e-3
-1.737, 1.705e-3
-1.736, 1.684e-3
-1.735, 1.662e-3
-1.734, 1.643e-3
-1.733, 1.622e-3
-1.732, 1.606e-3
-1.731, 1.588e-3
-1.730, 1.569e-3
-1.729, 1.551e-3
-1.728, 1.529e-3
-1.727, 1.511e-3
-1.726, 1.495e-3
-1.725, 1.477e-3
-1.724, 1.462e-3
-1.723, 1.443e-3
-1.722, 1.425e-3
-1.721, 1.406e-3
-1.720, 1.391e-3
-1.719, 1.372e-3
-1.718, 1.357e-3
-1.717, 1.341e-3
-1.716, 1.326e-3
-1.715, 1.307e-3
-1.714, 1.289e-3
-1.713, 1.273e-3
-1.712, 1.261e-3
-1.711, 1.246e-3
-1.710, 1.230e-3
-1.709, 1.215e-3
-1.708, 1.199e-3
-1.707, 1.181e-3
-1.706, 1.169e-3
-1.705, 1.156e-3
-1.704, 1.144e-3
-1.703, 1.125e-3
-1.702, 1.113e-3
-1.701, 1.095e-3
-1.700, 1.079e-3
-1.699, 1.067e-3
-1.698, 1.055e-3
-1.697, 1.042e-3
-1.696, 1.027e-3
-1.695, 1.014e-3
-1.694, 9.991e-4
-1.693, 9.868e-4
-1.692, 9.775e-4
-1.691, 9.621e-4
-1.690, 9.528e-4
-1.689, 9.374e-4
-1.688, 9.251e-4
-1.687, 9.097e-4
-1.686, 9.004e-4
-1.685, 8.881e-4
-1.684, 8.788e-4
-1.683, 8.665e-4
-1.682, 8.542e-4
-1.681, 8.418e-4
-1.680, 8.264e-4
-1.679, 8.172e-4
-1.678, 8.048e-4
-1.677, 7.956e-4
-1.676, 7.833e-4
-1.675, 7.740e-4
-1.674, 7.617e-4
-1.673, 7.494e-4
-1.672, 7.401e-4
-1.671, 7.309e-4
-1.670, 7.216e-4
-1.669, 7.093e-4
-1.668, 7.000e-4
-1.667, 6.877e-4
-1.666, 6.784e-4
-1.665, 6.723e-4
-1.664, 6.599e-4
-1.663, 6.507e-4
-1.662, 6.414e-4
-1.661, 6.322e-4
-1.660, 6.229e-4
-1.659, 6.137e-4
-1.658, 6.044e-4
-1.657, 5.952e-4
-1.656, 5.890e-4
-1.655, 5.767e-4
-1.654, 5.674e-4
-1.653, 5.613e-4
-1.652, 5.520e-4
-1.651, 5.459e-4
-1.650, 5.366e-4
-1.649, 5.305e-4
-1.648, 5.181e-4
-1.647, 5.120e-4
-1.646, 5.027e-4
-1.645, 4.965e-4
-1.644, 4.904e-4
-1.643, 4.811e-4
-1.642, 4.750e-4
-1.641, 4.657e-4
-1.640, 4.595e-4
-1.639, 4.503e-4
-1.638, 4.441e-4
-1.637, 4.380e-4
-1.636, 4.318e-4
-1.635, 4.225e-4
-1.634, 4.164e-4
-1.633, 4.102e-4
-1.632, 4.040e-4
-1.631, 3.979e-4
-1.630, 3.917e-4
-1.629, 3.855e-4
-1.628, 3.763e-4
-1.627, 3.701e-4
-1.626, 3.670e-4
-1.625, 3.578e-4
-1.624, 3.547e-4
-1.623, 3.485e-4
-1.622, 3.424e-4
-1.621, 3.362e-4
-1.620, 3.300e-4
-1.619, 3.239e-4
-1.618, 3.208e-4
-1.617, 3.146e-4
-1.616, 3.085e-4
-1.615, 3.054e-4
-1.614, 2.961e-4
-1.613, 2.931e-4
-1.612, 2.869e-4
-1.611, 2.838e-4
-1.610, 2.776e-4
-1.609, 2.746e-4
-1.608, 2.684e-4
-1.607, 2.622e-4
-1.606, 2.591e-4
-1.605, 2.561e-4
-1.604, 2.499e-4
-1.603, 2.468e-4
-1.602, 2.406e-4
-1.601, 2.376e-4
-1.600, 2.314e-4
-1.599, 2.283e-4
-1.598, 2.252e-4
-1.597, 2.191e-4
-1.596, 2.160e-4
-1.595, 2.129e-4
-1.594, 2.067e-4
-1.593, 2.036e-4
-1.592, 2.036e-4
-1.591, 1.975e-4
-1.590, 1.944e-4
-1.589, 1.882e-4
-1.588, 1.851e-4
-1.587, 1.821e-4
-1.586, 1.790e-4
-1.585, 1.759e-4
-1.584, 1.728e-4
-1.583, 1.697e-4
-1.582, 1.666e-4
-1.581, 1.636e-4
-1.580, 1.605e-4
-1.579, 1.543e-4
-1.578, 1.543e-4
-1.577, 1.512e-4
-1.576, 1.481e-4
-1.575, 1.420e-4
-1.574, 1.420e-4
-1.573, 1.389e-4
-1.572, 1.358e-4
-1.571, 1.327e-4
-1.570, 1.296e-4
-1.569, 1.296e-4
-1.568, 1.235e-4
-1.567, 1.235e-4
-1.566, 1.204e-4
-1.565, 1.204e-4
-1.564, 1.142e-4
-1.563, 1.142e-4
-1.562, 1.111e-4
-1.561, 1.081e-4
-1.560, 1.081e-4
-1.559, 1.050e-4
-1.558, 1.050e-4
-1.557, 9.882e-5
-1.556, 9.882e-5
-1.555, 9.573e-5
-1.554, 9.265e-5
-1.553, 9.265e-5
-1.552, 9.265e-5
-1.551, 8.957e-5
-1.550, 8.648e-5
-1.549, 8.648e-5
-1.548, 8.340e-5
-1.547, 8.032e-5
-1.546, 8.032e-5
-1.545, 7.723e-5
-1.544, 7.723e-5
-1.543, 7.415e-5
-1.542, 7.415e-5
-1.541, 7.107e-5
-1.540, 6.798e-5
-1.539, 6.798e-5
-1.538, 6.798e-5
-1.537, 6.490e-5
-1.536, 6.182e-5
-1.535, 6.182e-5
-1.534, 6.182e-5
-1.533, 5.873e-5
-1.532, 5.873e-5
-1.531, 5.873e-5
-1.530, 5.565e-5
-1.529, 5.257e-5
-1.528, 5.257e-5
-1.527, 4.949e-5
-1.526, 4.949e-5
-1.525, 4.949e-5
-1.524, 4.949e-5
-1.523, 4.640e-5
-1.522, 4.640e-5
-1.521, 4.332e-5
-1.520, 4.332e-5
-1.519, 4.332e-5
-1.518, 4.024e-5
-1.517, 4.024e-5
-1.516, 4.024e-5
-1.515, 4.024e-5
-1.514, 3.715e-5
-1.513, 3.715e-5
-1.512, 3.715e-5
-1.511, 3.407e-5
-1.510, 3.407e-5
-1.509, 3.407e-5
-1.508, 3.407e-5
-1.507, 3.099e-5
-1.506, 3.099e-5
-1.505, 3.099e-5
-1.504, 2.790e-5
-1.503, 2.790e-5
-1.502, 2.790e-5
-1.501, 2.790e-5
-1.500, 2.790e-5
-1.499, 2.482e-5
-1.498, 2.482e-5
-1.497, 2.482e-5
-1.496, 2.482e-5
-1.495, 2.482e-5
-1.494, 2.482e-5
-1.493, 2.174e-5
-1.492, 2.482e-5
-1.491, 2.174e-5
-1.490, 2.174e-5
-1.489, 2.174e-5
-1.488, 1.865e-5
-1.487, 1.865e-5
-1.486, 1.865e-5
-1.485, 2.174e-5
-1.484, 1.865e-5
-1.483, 1.865e-5
-1.482, 1.865e-5
-1.481, 1.557e-5
-1.480, 1.557e-5
-1.479, 1.557e-5
-1.478, 1.557e-5
-1.477, 1.557e-5
-1.476, 1.557e-5
-1.475, 1.249e-5
-1.474, 1.249e-5
-1.473, 1.249e-5
-1.472, 1.249e-5
-1.471, 1.557e-5
-1.470, 1.249e-5
-1.469, 1.249e-5
-1.468, 1.249e-5
-1.467, 1.249e-5
-1.466, 1.249e-5
-1.465, 1.249e-5
-1.464, 9.405e-6
-1.463, 9.405e-6
-1.462, 1.249e-5
-1.461, 9.405e-6
-1.460, 9.405e-6
-1.459, 9.405e-6
-1.458, 9.405e-6
-1.457, 9.405e-6
-1.456, 6.322e-6
-1.455, 9.405e-6
-1.454, 6.322e-6
-1.453, 9.405e-6
-1.452, 6.322e-6
-1.451, 6.322e-6
-1.450, 6.322e-6
-1.449, 6.322e-6
-1.448, 6.322e-6
-1.447, 3.239e-6
-1.446, 6.322e-6
-1.445, 3.239e-6
-1.444, 6.322e-6
-1.443, 6.322e-6
-1.442, 6.322e-6
-1.441, 3.239e-6
-1.440, 3.239e-6
-1.439, 6.322e-6
-1.438, 3.239e-6
-1.437, 6.322e-6
-1.436, 3.239e-6
-1.435, 3.239e-6
-1.434, 3.239e-6
-1.433, 3.239e-6
-1.432, 3.239e-6
-1.431, 3.239e-6
-1.430, 3.239e-6
-1.429, 3.239e-6
-1.428, 3.239e-6
-1.427, 3.239e-6
-1.426, 3.239e-6
-1.425, 3.239e-6
-1.424, 1.559e-7
-1.423, 3.239e-6
-1.422, 1.559e-7
-1.421, 3.239e-6
-1.420, 1.559e-7
-1.419, 3.239e-6
-1.418, 3.239e-6
-1.417, 1.559e-7
-1.416, 3.239e-6
-1.415, 1.559e-7
-1.414, 1.559e-7
-1.413, 1.559e-7
-1.412, 3.239e-6
-1.411, 1.559e-7
-1.410, 1.559e-7
-1.409, 1.559e-7
-1.408, 1.559e-7
-1.407, 1.559e-7
-1.406, 1.559e-7
-1.405, 3.239e-6
-1.404, 1.559e-7
-1.403, 1.559e-7
-1.402, 1.559e-7
-1.401, 1.559e-7
-1.400, 1.559e-7
-1.399, 1.559e-7
-1.398, 1.559e-7
-1.397, 1.559e-7
-1.396, 1.559e-7
-1.395, -2.927e-6
-1.394, 1.559e-7
-1.393, 1.559e-7
-1.392, 1.559e-7
-1.391, 1.559e-7
-1.390, -2.927e-6
-1.389, 1.559e-7
-1.388, -2.927e-6
-1.387, 1.559e-7
-1.386, -2.927e-6
-1.385, 1.559e-7
-1.384, -2.927e-6
-1.383, 1.559e-7
-1.382, 1.559e-7
-1.381, -2.927e-6
-1.380, 1.559e-7
-1.379, 1.559e-7
-1.378, -2.927e-6
-1.377, -2.927e-6
-1.376, -2.927e-6
-1.375, -2.927e-6
-1.374, -2.927e-6
-1.373, 1.559e-7
-1.372, -2.927e-6
-1.371, -2.927e-6
-1.370, -2.927e-6
-1.369, 1.559e-7
-1.368, -2.927e-6
-1.367, -2.927e-6
-1.366, -2.927e-6
-1.365, -2.927e-6
-1.364, 1.559e-7
-1.363, -2.927e-6
-1.362, -2.927e-6
-1.361, -2.927e-6
-1.360, -2.927e-6
-1.359, 1.559e-7
-1.358, -2.927e-6
-1.357, -2.927e-6
-1.356, -2.927e-6
-1.355, -2.927e-6
-1.354, -2.927e-6
-1.353, -2.927e-6
-1.352, 1.559e-7
-1.351, -2.927e-6
-1.350, -2.927e-6
-1.349, -2.927e-6
-1.348, -2.927e-6
-1.347, -2.927e-6
-1.346, -2.927e-6
-1.345, -2.927e-6
-1.344, -2.927e-6
-1.343, -2.927e-6
-1.342, -2.927e-6
-1.341, -2.927e-6
-1.340, -2.927e-6
-1.339, 1.559e-7
-1.338, -2.927e-6
-1.337, -2.927e-6
-1.336, -2.927e-6
-1.335, -2.927e-6
-1.334, -2.927e-6
-1.333, -2.927e-6
-1.332, -2.927e-6
-1.331, -2.927e-6
-1.330, -2.927e-6
-1.329, -2.927e-6
-1.328, -2.927e-6
-1.327, -2.927e-6
-1.326, -2.927e-6
-1.325, -2.927e-6
-1.324, -2.927e-6
-1.323, -2.927e-6
-1.322, -2.927e-6
-1.321, -2.927e-6
-1.320, -2.927e-6
-1.319, -2.927e-6
-1.318, -2.927e-6
-1.317, -2.927e-6
-1.316, -2.927e-6
-1.315, -2.927e-6
-1.314, -2.927e-6
-1.313, -2.927e-6
-1.312, -2.927e-6
-1.311, -2.927e-6
-1.310, -2.927e-6
-1.309, -2.927e-6
-1.308, -2.927e-6
-1.307, -2.927e-6
-1.306, -2.927e-6
-1.305, -2.927e-6
-1.304, -2.927e-6
-1.303, -2.927e-6
-1.302, -2.927e-6
-1.301, -2.927e-6
-1.300, -2.927e-6
-1.299, -2.927e-6
-1.298, -2.927e-6
-1.297, -2.927e-6
-1.296, -2.927e-6
-1.295, -2.927e-6
-1.294, -2.927e-6
-1.293, -2.927e-6
-1.292, -2.927e-6
-1.291, -2.927e-6
-1.290, -2.927e-6
-1.289, 1.559e-7
-1.288, -2.927e-6
-1.287, -2.927e-6
-1.286, -2.927e-6
-1.285, -2.927e-6
-1.284, -2.927e-6
-1.283, -6.010e-6
-1.282, -2.927e-6
-1.281, -2.927e-6
-1.280, -2.927e-6
-1.279, -2.927e-6
-1.278, -2.927e-6
-1.277, -2.927e-6
-1.276, -2.927e-6
-1.275, -2.927e-6
-1.274, -2.927e-6
-1.273, -2.927e-6
-1.272, -2.927e-6
-1.271, -2.927e-6
-1.270, -2.927e-6
-1.269, -2.927e-6
-1.268, -2.927e-6
-1.267, -2.927e-6
-1.266, -2.927e-6
-1.265, -2.927e-6
-1.264, -2.927e-6
-1.263, -2.927e-6
-1.262, -2.927e-6
-1.261, -2.927e-6
-1.260, -2.927e-6
-1.259, -2.927e-6
-1.258, -2.927e-6
-1.257, -2.927e-6
-1.256, -6.010e-6
-1.255, -2.927e-6
-1.254, -2.927e-6
-1.253, -2.927e-6
-1.252, -2.927e-6
-1.251, -2.927e-6
-1.250, -2.927e-6
-1.249, -2.927e-6
-1.248, -2.927e-6
-1.247, -2.927e-6
-1.246, -2.927e-6
-1.245, -2.927e-6
-1.244, -2.927e-6
-1.243, -2.927e-6
-1.242, -6.010e-6
-1.241, -2.927e-6
-1.240, -2.927e-6
-1.239, -2.927e-6
-1.238, -2.927e-6
-1.237, -2.927e-6
-1.236, -2.927e-6
-1.235, -2.927e-6
-1.234, -2.927e-6
-1.233, -2.927e-6
-1.232, -2.927e-6
-1.231, -2.927e-6
-1.230, -2.927e-6
-1.229, -2.927e-6
-1.228, -2.927e-6
-1.227, -2.927e-6
-1.226, -2.927e-6
-1.225, -2.927e-6
-1.224, -2.927e-6
-1.223, -2.927e-6
-1.222, -2.927e-6
-1.221, -2.927e-6
-1.220, -2.927e-6
-1.219, -2.927e-6
-1.218, -2.927e-6
-1.217, -2.927e-6
-1.216, -2.927e-6
-1.215, -6.010e-6
-1.214, -2.927e-6
-1.213, -2.927e-6
-1.212, -2.927e-6
-1.211, -2.927e-6
-1.210, -6.010e-6
-1.209, -2.927e-6
-1.208, -2.927e-6
-1.207, -2.927e-6
-1.206, -2.927e-6
-1.205, -2.927e-6
-1.204, -2.927e-6
-1.203, -2.927e-6
-1.202, -2.927e-6
-1.201, -2.927e-6
-1.200, -2.927e-6
-1.199, -2.927e-6
-1.198, -2.927e-6
-1.197, -2.927e-6
-1.196, -2.927e-6
-1.195, -2.927e-6
-1.194, -2.927e-6
-1.193, -2.927e-6
-1.192, -6.010e-6
-1.191, -2.927e-6
-1.190, -2.927e-6
-1.189, -2.927e-6
-1.188, -2.927e-6
-1.187, -2.927e-6
-1.186, -2.927e-6
-1.185, -2.927e-6
-1.184, -2.927e-6
-1.183, -2.927e-6
-1.182, -2.927e-6
-1.181, -2.927e-6
-1.180, -2.927e-6
-1.179, -2.927e-6
-1.178, -2.927e-6
-1.177, -2.927e-6
-1.176, -2.927e-6
-1.175, -2.927e-6
-1.174, -2.927e-6
-1.173, -2.927e-6
-1.172, -2.927e-6
-1.171, -2.927e-6
-1.170, -2.927e-6
-1.169, -2.927e-6
-1.168, -2.927e-6
-1.167, -2.927e-6
-1.166, -2.927e-6
-1.165, -2.927e-6
-1.164, -2.927e-6
-1.163, -2.927e-6
-1.162, -2.927e-6
-1.161, -2.927e-6
-1.160, -2.927e-6
-1.159, -2.927e-6
-1.158, -6.010e-6
-1.157, -2.927e-6
-1.156, -2.927e-6
-1.155, -2.927e-6
-1.154, -2.927e-6
-1.153, -2.927e-6
-1.152, -2.927e-6
-1.151, -2.927e-6
-1.150, -2.927e-6
-1.149, -6.010e-6
-1.148, -2.927e-6
-1.147, -2.927e-6
-1.146, -2.927e-6
-1.145, -2.927e-6
-1.144, -2.927e-6
-1.143, -2.927e-6
-1.142, -6.010e-6
-1.141, -2.927e-6
-1.140, -2.927e-6
-1.139, -2.927e-6
-1.138, -2.927e-6
-1.137, -2.927e-6
-1.136, -2.927e-6
-1.135, -2.927e-6
-1.134, -2.927e-6
-1.133, -2.927e-6
-1.132, -2.927e-6
-1.131, -2.927e-6
-1.130, -2.927e-6
-1.129, -2.927e-6
-1.128, -2.927e-6
-1.127, -2.927e-6
-1.126, -2.927e-6
-1.125, -2.927e-6
-1.124, -2.927e-6
-1.123, -2.927e-6
-1.122, -2.927e-6
-1.121, -2.927e-6
-1.120, -2.927e-6
-1.119, -2.927e-6
-1.118, -2.927e-6
-1.117, -6.010e-6
-1.116, -2.927e-6
-1.115, -6.010e-6
-1.114, -2.927e-6
-1.113, -2.927e-6
-1.112, -2.927e-6
-1.111, -2.927e-6
-1.110, -6.010e-6
-1.109, -2.927e-6
-1.108, -6.010e-6
-1.107, -2.927e-6
-1.106, -2.927e-6
-1.105, -2.927e-6
-1.104, -2.927e-6
-1.103, -2.927e-6
-1.102, -2.927e-6
-1.101, -2.927e-6
-1.100, -2.927e-6
-1.099, -2.927e-6
-1.098, -2.927e-6
-1.097, -2.927e-6
-1.096, -2.927e-6
-1.095, -2.927e-6
-1.094, -2.927e-6
-1.093, -2.927e-6
-1.092, -2.927e-6
-1.091, -2.927e-6
-1.090, -2.927e-6
-1.089, -2.927e-6
-1.088, -2.927e-6
-1.087, -2.927e-6
-1.086, -2.927e-6
-1.085, -2.927e-6
-1.084, -2.927e-6
-1.083, -6.010e-6
-1.082, -2.927e-6
-1.081, -6.010e-6
-1.080, -2.927e-6
-1.079, -2.927e-6
-1.078, -2.927e-6
-1.077, -2.927e-6
-1.076, -2.927e-6
-1.075, -2.927e-6
-1.074, -2.927e-6
-1.073, -2.927e-6
-1.072, -2.927e-6
-1.071, -2.927e-6
-1.070, -2.927e-6
-1.069, -2.927e-6
-1.068, -2.927e-6
-1.067, -2.927e-6
-1.066, -2.927e-6
-1.065, -2.927e-6
-1.064, -2.927e-6
-1.063, -2.927e-6
-1.062, -2.927e-6
-1.061, -2.927e-6
-1.060, -6.010e-6
-1.059, -2.927e-6
-1.058, -6.010e-6
-1.057, -2.927e-6
-1.056, -2.927e-6
-1.055, -2.927e-6
-1.054, -2.927e-6
-1.053, -2.927e-6
-1.052, -2.927e-6
-1.051, -2.927e-6
-1.050, -2.927e-6
-1.049, -2.927e-6
-1.048, -2.927e-6
-1.047, -2.927e-6
-1.046, -2.927e-6
-1.045, -2.927e-6
-1.044, -2.927e-6
-1.043, -2.927e-6
-1.042, -2.927e-6
-1.041, -2.927e-6
-1.040, -2.927e-6
-1.039, -2.927e-6
-1.038, -2.927e-6
-1.037, -2.927e-6
-1.036, -2.927e-6
-1.035, -6.010e-6
-1.034, -2.927e-6
-1.033, -2.927e-6
-1.032, -2.927e-6
-1.031, -2.927e-6
-1.030, -2.927e-6
-1.029, -2.927e-6
-1.028, -6.010e-6
-1.027, -2.927e-6
-1.026, -2.927e-6
-1.025, -2.927e-6
-1.024, -2.927e-6
-1.023, -2.927e-6
-1.022, -2.927e-6
-1.021, -2.927e-6
-1.020, -2.927e-6
-1.019, -6.010e-6
-1.018, -2.927e-6
-1.017, -2.927e-6
-1.016, -2.927e-6
-1.015, -2.927e-6
-1.014, -2.927e-6
-1.013, -2.927e-6
-1.012, -2.927e-6
-1.011, -2.927e-6
-1.010, -6.010e-6
-1.009, -2.927e-6
-1.008, -2.927e-6
-1.007, -2.927e-6
-1.006, -2.927e-6
-1.005, -2.927e-6
-1.004, -2.927e-6
-1.003, -2.927e-6
-1.002, -2.927e-6
-1.001, -2.927e-6
