July 13, 2024   11:51:46
Chronoamperometry
File: c:/users/guazh/data/20240709_batch67/2024-07-10-exp31\1acid_1ac-2024-07-13t11_44_48-lsvinphos\ca_2024-07-13t11_48_39.bin
Data Source:  Experiment
Instrument Model:  CHI760E
Header: CA
Note: 

Init E (V) = 1
High E (V) = 1
Low E (V) = -1.5
Init P/N = N
Step = 181
Pulse Width (sec) = 1
Sample Interval (s) = 0.1
Quiet Time (sec) = 2
Sensitivity (A/V) = 0.001

Results:

Channel 1:
Forward:
Slp = 6.610e-4
Int = -4.032e-4
Cor = 0.98934

Reverse:
Slp = -2.243e-4
Int = -1.214e-6
Cor = -0.98931

Time/sec, Current/A

1.000e-1, 1.874e-3
2.000e-1, 1.252e-3
3.000e-1, 8.420e-4
4.000e-1, 6.291e-4
5.000e-1, 4.977e-4
6.000e-1, 4.209e-4
7.000e-1, 3.716e-4
8.000e-1, 3.368e-4
9.000e-1, 3.113e-4
1.000e+0, 2.914e-4
1.100e+0, -3.244e-3
1.200e+0, -4.652e-4
1.300e+0, -2.253e-4
1.400e+0, -1.589e-4
1.500e+0, -1.262e-4
1.600e+0, -1.073e-4
1.700e+0, -9.516e-5
1.800e+0, -8.637e-5
1.900e+0, -7.968e-5
2.000e+0, -7.430e-5
2.100e+0, 1.509e-3
2.200e+0, 9.710e-4
2.300e+0, 5.714e-4
2.400e+0, 4.245e-4
2.500e+0, 3.501e-4
2.600e+0, 3.060e-4
2.700e+0, 2.770e-4
2.800e+0, 2.561e-4
2.900e+0, 2.397e-4
3.000e+0, 2.265e-4
3.100e+0, -1.900e-3
3.200e+0, -2.466e-4
3.300e+0, -1.515e-4
3.400e+0, -1.177e-4
3.500e+0, -9.957e-5
3.600e+0, -8.543e-5
3.700e+0, -7.576e-5
3.800e+0, -6.880e-5
3.900e+0, -6.376e-5
4.000e+0, -5.998e-5
4.100e+0, 1.205e-3
4.200e+0, 6.343e-4
4.300e+0, 4.208e-4
4.400e+0, 3.295e-4
4.500e+0, 2.805e-4
4.600e+0, 2.489e-4
4.700e+0, 2.264e-4
4.800e+0, 2.105e-4
4.900e+0, 1.981e-4
5.000e+0, 1.883e-4
5.100e+0, -1.526e-3
5.200e+0, -1.896e-4
5.300e+0, -1.201e-4
5.400e+0, -9.169e-5
5.500e+0, -7.552e-5
5.600e+0, -6.527e-5
5.700e+0, -5.810e-5
5.800e+0, -5.311e-5
5.900e+0, -4.912e-5
6.000e+0, -4.610e-5
6.100e+0, 1.024e-3
6.200e+0, 5.380e-4
6.300e+0, 3.659e-4
6.400e+0, 2.861e-4
6.500e+0, 2.424e-4
6.600e+0, 2.155e-4
6.700e+0, 1.972e-4
6.800e+0, 1.840e-4
6.900e+0, 1.738e-4
7.000e+0, 1.660e-4
7.100e+0, -1.392e-3
7.200e+0, -1.738e-4
7.300e+0, -1.172e-4
7.400e+0, -9.267e-5
7.500e+0, -7.837e-5
7.600e+0, -6.856e-5
7.700e+0, -6.166e-5
7.800e+0, -5.665e-5
7.900e+0, -5.305e-5
8.000e+0, -4.952e-5
8.100e+0, 1.021e-3
8.200e+0, 5.132e-4
8.300e+0, 3.364e-4
8.400e+0, 2.618e-4
8.500e+0, 2.214e-4
8.600e+0, 1.966e-4
8.700e+0, 1.801e-4
8.800e+0, 1.683e-4
8.900e+0, 1.593e-4
9.000e+0, 1.524e-4
9.100e+0, -1.299e-3
9.200e+0, -1.619e-4
9.300e+0, -1.107e-4
9.400e+0, -8.768e-5
9.500e+0, -7.404e-5
9.600e+0, -6.455e-5
9.700e+0, -5.720e-5
9.800e+0, -5.229e-5
9.900e+0, -4.893e-5
1.000e+1, -4.650e-5
1.010e+1, 9.759e-4
1.020e+1, 4.711e-4
1.030e+1, 3.130e-4
1.040e+1, 2.452e-4
1.050e+1, 2.078e-4
1.060e+1, 1.843e-4
1.070e+1, 1.685e-4
1.080e+1, 1.572e-4
1.090e+1, 1.489e-4
1.100e+1, 1.425e-4
1.110e+1, -1.257e-3
1.120e+1, -1.543e-4
1.130e+1, -1.067e-4
1.140e+1, -8.422e-5
1.150e+1, -7.140e-5
1.160e+1, -6.297e-5
1.170e+1, -5.670e-5
1.180e+1, -5.286e-5
1.190e+1, -4.920e-5
1.200e+1, -4.553e-5
1.210e+1, 9.460e-4
1.220e+1, 4.518e-4
1.230e+1, 2.978e-4
1.240e+1, 2.325e-4
1.250e+1, 1.959e-4
1.260e+1, 1.733e-4
1.270e+1, 1.582e-4
1.280e+1, 1.477e-4
1.290e+1, 1.400e-4
1.300e+1, 1.342e-4
1.310e+1, -1.194e-3
1.320e+1, -1.384e-4
1.330e+1, -9.263e-5
1.340e+1, -7.165e-5
1.350e+1, -5.944e-5
1.360e+1, -5.173e-5
1.370e+1, -4.655e-5
1.380e+1, -4.283e-5
1.390e+1, -4.012e-5
1.400e+1, -3.784e-5
1.410e+1, 8.575e-4
1.420e+1, 4.098e-4
1.430e+1, 2.847e-4
1.440e+1, 2.243e-4
1.450e+1, 1.877e-4
1.460e+1, 1.654e-4
1.470e+1, 1.506e-4
1.480e+1, 1.405e-4
1.490e+1, 1.333e-4
1.500e+1, 1.279e-4
1.510e+1, -1.198e-3
1.520e+1, -1.501e-4
1.530e+1, -1.052e-4
1.540e+1, -8.632e-5
1.550e+1, -7.498e-5
1.560e+1, -6.630e-5
1.570e+1, -5.846e-5
1.580e+1, -5.252e-5
1.590e+1, -4.800e-5
1.600e+1, -4.412e-5
1.610e+1, 8.825e-4
1.620e+1, 4.444e-4
1.630e+1, 2.825e-4
1.640e+1, 2.151e-4
1.650e+1, 1.797e-4
1.660e+1, 1.587e-4
1.670e+1, 1.448e-4
1.680e+1, 1.353e-4
1.690e+1, 1.282e-4
1.700e+1, 1.227e-4
1.710e+1, -1.112e-3
1.720e+1, -1.318e-4
1.730e+1, -8.775e-5
1.740e+1, -6.746e-5
1.750e+1, -5.494e-5
1.760e+1, -4.721e-5
1.770e+1, -4.212e-5
1.780e+1, -3.871e-5
1.790e+1, -3.588e-5
1.800e+1, -3.361e-5
1.810e+1, 7.868e-4
1.820e+1, 3.878e-4
1.830e+1, 2.628e-4
1.840e+1, 2.061e-4
1.850e+1, 1.722e-4
1.860e+1, 1.512e-4
1.870e+1, 1.377e-4
1.880e+1, 1.291e-4
1.890e+1, 1.223e-4
1.900e+1, 1.173e-4
1.910e+1, -1.120e-3
1.920e+1, -1.310e-4
1.930e+1, -8.824e-5
1.940e+1, -6.860e-5
1.950e+1, -5.842e-5
1.960e+1, -5.218e-5
1.970e+1, -4.784e-5
1.980e+1, -4.457e-5
1.990e+1, -4.175e-5
2.000e+1, -3.940e-5
2.010e+1, 7.914e-4
2.020e+1, 3.986e-4
2.030e+1, 2.602e-4
2.040e+1, 2.019e-4
2.050e+1, 1.683e-4
2.060e+1, 1.474e-4
2.070e+1, 1.337e-4
2.080e+1, 1.245e-4
2.090e+1, 1.180e-4
2.100e+1, 1.132e-4
2.110e+1, -1.078e-3
2.120e+1, -1.234e-4
2.130e+1, -8.086e-5
2.140e+1, -6.453e-5
2.150e+1, -5.350e-5
2.160e+1, -4.733e-5
2.170e+1, -4.268e-5
2.180e+1, -3.899e-5
2.190e+1, -3.686e-5
2.200e+1, -3.485e-5
2.210e+1, 7.464e-4
2.220e+1, 3.746e-4
2.230e+1, 2.547e-4
2.240e+1, 1.996e-4
2.250e+1, 1.645e-4
2.260e+1, 1.432e-4
2.270e+1, 1.297e-4
2.280e+1, 1.204e-4
2.290e+1, 1.140e-4
2.300e+1, 1.092e-4
2.310e+1, -1.103e-3
2.320e+1, -1.285e-4
2.330e+1, -8.654e-5
2.340e+1, -6.976e-5
2.350e+1, -6.087e-5
2.360e+1, -5.456e-5
2.370e+1, -4.963e-5
2.380e+1, -4.576e-5
2.390e+1, -4.279e-5
2.400e+1, -3.987e-5
2.410e+1, 7.718e-4
2.420e+1, 3.795e-4
2.430e+1, 2.526e-4
2.440e+1, 1.945e-4
2.450e+1, 1.609e-4
2.460e+1, 1.402e-4
2.470e+1, 1.269e-4
2.480e+1, 1.179e-4
2.490e+1, 1.111e-4
2.500e+1, 1.061e-4
2.510e+1, -1.028e-3
2.520e+1, -1.151e-4
2.530e+1, -7.483e-5
2.540e+1, -5.731e-5
2.550e+1, -4.689e-5
2.560e+1, -4.169e-5
2.570e+1, -3.636e-5
2.580e+1, -3.340e-5
2.590e+1, -3.136e-5
2.600e+1, -2.962e-5
2.610e+1, 6.732e-4
2.620e+1, 3.611e-4
2.630e+1, 2.411e-4
2.640e+1, 1.900e-4
2.650e+1, 1.550e-4
2.660e+1, 1.341e-4
2.670e+1, 1.218e-4
2.680e+1, 1.134e-4
2.690e+1, 1.071e-4
2.700e+1, 1.028e-4
2.710e+1, -1.079e-3
2.720e+1, -1.242e-4
2.730e+1, -8.756e-5
2.740e+1, -7.219e-5
2.750e+1, -6.256e-5
2.760e+1, -5.544e-5
2.770e+1, -4.929e-5
2.780e+1, -4.413e-5
2.790e+1, -3.953e-5
2.800e+1, -3.518e-5
2.810e+1, 7.406e-4
2.820e+1, 3.736e-4
2.830e+1, 2.434e-4
2.840e+1, 1.867e-4
2.850e+1, 1.534e-4
2.860e+1, 1.335e-4
2.870e+1, 1.205e-4
2.880e+1, 1.117e-4
2.890e+1, 1.054e-4
2.900e+1, 1.009e-4
2.910e+1, -9.888e-4
2.920e+1, -1.108e-4
2.930e+1, -7.240e-5
2.940e+1, -5.656e-5
2.950e+1, -4.628e-5
2.960e+1, -3.959e-5
2.970e+1, -3.489e-5
2.980e+1, -3.191e-5
2.990e+1, -2.890e-5
3.000e+1, -2.719e-5
3.010e+1, 6.401e-4
3.020e+1, 3.500e-4
3.030e+1, 2.304e-4
3.040e+1, 1.804e-4
3.050e+1, 1.471e-4
3.060e+1, 1.273e-4
3.070e+1, 1.156e-4
3.080e+1, 1.075e-4
3.090e+1, 1.016e-4
3.100e+1, 9.729e-5
3.110e+1, -1.035e-3
3.120e+1, -1.188e-4
3.130e+1, -8.162e-5
3.140e+1, -6.609e-5
3.150e+1, -5.682e-5
3.160e+1, -5.113e-5
3.170e+1, -4.629e-5
3.180e+1, -4.214e-5
3.190e+1, -3.885e-5
3.200e+1, -3.526e-5
3.210e+1, 7.109e-4
3.220e+1, 3.584e-4
3.230e+1, 2.331e-4
3.240e+1, 1.792e-4
3.250e+1, 1.470e-4
3.260e+1, 1.278e-4
3.270e+1, 1.152e-4
3.280e+1, 1.066e-4
3.290e+1, 1.006e-4
3.300e+1, 9.617e-5
3.310e+1, -9.745e-4
3.320e+1, -1.076e-4
3.330e+1, -6.712e-5
3.340e+1, -5.160e-5
3.350e+1, -4.285e-5
3.360e+1, -3.681e-5
3.370e+1, -3.255e-5
3.380e+1, -2.984e-5
3.390e+1, -2.781e-5
3.400e+1, -2.558e-5
3.410e+1, 6.104e-4
3.420e+1, 3.442e-4
3.430e+1, 2.252e-4
3.440e+1, 1.767e-4
3.450e+1, 1.419e-4
3.460e+1, 1.218e-4
3.470e+1, 1.102e-4
3.480e+1, 1.022e-4
3.490e+1, 9.667e-5
3.500e+1, 9.264e-5
3.510e+1, -1.021e-3
3.520e+1, -1.242e-4
3.530e+1, -8.767e-5
3.540e+1, -7.087e-5
3.550e+1, -6.117e-5
3.560e+1, -5.419e-5
3.570e+1, -4.662e-5
3.580e+1, -3.989e-5
3.590e+1, -3.496e-5
3.600e+1, -3.155e-5
3.610e+1, 6.943e-4
3.620e+1, 3.594e-4
3.630e+1, 2.309e-4
3.640e+1, 1.744e-4
3.650e+1, 1.418e-4
3.660e+1, 1.229e-4
3.670e+1, 1.107e-4
3.680e+1, 1.024e-4
3.690e+1, 9.654e-5
3.700e+1, 9.198e-5
3.710e+1, -9.352e-4
3.720e+1, -1.027e-4
3.730e+1, -6.409e-5
3.740e+1, -4.873e-5
3.750e+1, -4.018e-5
3.760e+1, -3.420e-5
3.770e+1, -3.004e-5
3.780e+1, -2.722e-5
3.790e+1, -2.515e-5
3.800e+1, -2.337e-5
3.810e+1, 5.668e-4
3.820e+1, 3.404e-4
3.830e+1, 2.196e-4
3.840e+1, 1.701e-4
3.850e+1, 1.366e-4
3.860e+1, 1.175e-4
3.870e+1, 1.061e-4
3.880e+1, 9.858e-5
3.890e+1, 9.332e-5
3.900e+1, 8.938e-5
3.910e+1, -9.835e-4
3.920e+1, -1.165e-4
3.930e+1, -8.065e-5
3.940e+1, -6.581e-5
3.950e+1, -5.575e-5
3.960e+1, -4.983e-5
3.970e+1, -4.557e-5
3.980e+1, -4.118e-5
3.990e+1, -3.612e-5
4.000e+1, -3.191e-5
4.010e+1, 6.739e-4
4.020e+1, 3.424e-4
4.030e+1, 2.248e-4
4.040e+1, 1.704e-4
4.050e+1, 1.383e-4
4.060e+1, 1.190e-4
4.070e+1, 1.064e-4
4.080e+1, 9.814e-5
4.090e+1, 9.248e-5
4.100e+1, 8.846e-5
4.110e+1, -9.454e-4
4.120e+1, -1.017e-4
4.130e+1, -6.386e-5
4.140e+1, -4.861e-5
4.150e+1, -4.032e-5
4.160e+1, -3.498e-5
4.170e+1, -3.126e-5
4.180e+1, -2.937e-5
4.190e+1, -2.761e-5
4.200e+1, -2.563e-5
4.210e+1, 5.640e-4
4.220e+1, 3.453e-4
4.230e+1, 2.208e-4
4.240e+1, 1.705e-4
4.250e+1, 1.340e-4
4.260e+1, 1.145e-4
4.270e+1, 1.032e-4
4.280e+1, 9.596e-5
4.290e+1, 9.091e-5
4.300e+1, 8.731e-5
4.310e+1, -9.850e-4
4.320e+1, -1.205e-4
4.330e+1, -8.367e-5
4.340e+1, -6.860e-5
4.350e+1, -5.930e-5
4.360e+1, -5.231e-5
4.370e+1, -4.499e-5
4.380e+1, -3.910e-5
4.390e+1, -3.477e-5
4.400e+1, -3.202e-5
4.410e+1, 6.916e-4
4.420e+1, 3.330e-4
4.430e+1, 2.157e-4
4.440e+1, 1.637e-4
4.450e+1, 1.328e-4
4.460e+1, 1.149e-4
4.470e+1, 1.030e-4
4.480e+1, 9.506e-5
4.490e+1, 8.952e-5
4.500e+1, 8.543e-5
4.510e+1, -9.070e-4
4.520e+1, -9.780e-5
4.530e+1, -5.964e-5
4.540e+1, -4.575e-5
4.550e+1, -3.814e-5
4.560e+1, -3.360e-5
4.570e+1, -3.047e-5
4.580e+1, -2.772e-5
4.590e+1, -2.593e-5
4.600e+1, -2.444e-5
4.610e+1, 5.572e-4
4.620e+1, 3.290e-4
4.630e+1, 2.100e-4
4.640e+1, 1.608e-4
4.650e+1, 1.280e-4
4.660e+1, 1.097e-4
4.670e+1, 9.877e-5
4.680e+1, 9.161e-5
4.690e+1, 8.685e-5
4.700e+1, 8.315e-5
4.710e+1, -9.587e-4
4.720e+1, -1.130e-4
4.730e+1, -7.746e-5
4.740e+1, -6.400e-5
4.750e+1, -5.616e-5
4.760e+1, -4.934e-5
4.770e+1, -4.423e-5
4.780e+1, -4.002e-5
4.790e+1, -3.392e-5
4.800e+1, -3.035e-5
4.810e+1, 6.643e-4
4.820e+1, 3.329e-4
4.830e+1, 2.150e-4
4.840e+1, 1.631e-4
4.850e+1, 1.320e-4
4.860e+1, 1.129e-4
4.870e+1, 1.010e-4
4.880e+1, 9.280e-5
4.890e+1, 8.711e-5
4.900e+1, 8.317e-5
4.910e+1, -9.156e-4
4.920e+1, -9.651e-5
4.930e+1, -6.037e-5
4.940e+1, -4.659e-5
4.950e+1, -3.910e-5
4.960e+1, -3.488e-5
4.970e+1, -3.172e-5
4.980e+1, -2.953e-5
4.990e+1, -2.799e-5
5.000e+1, -2.681e-5
5.010e+1, 5.468e-4
5.020e+1, 3.414e-4
5.030e+1, 2.129e-4
5.040e+1, 1.613e-4
5.050e+1, 1.266e-4
5.060e+1, 1.077e-4
5.070e+1, 9.661e-5
5.080e+1, 8.925e-5
5.090e+1, 8.446e-5
5.100e+1, 8.082e-5
5.110e+1, -9.650e-4
5.120e+1, -1.155e-4
5.130e+1, -8.206e-5
5.140e+1, -6.992e-5
5.150e+1, -6.084e-5
5.160e+1, -5.030e-5
5.170e+1, -4.284e-5
5.180e+1, -3.771e-5
5.190e+1, -3.300e-5
5.200e+1, -2.996e-5
5.210e+1, 6.755e-4
5.220e+1, 3.240e-4
5.230e+1, 2.061e-4
5.240e+1, 1.567e-4
5.250e+1, 1.273e-4
5.260e+1, 1.094e-4
5.270e+1, 9.787e-5
5.280e+1, 9.008e-5
5.290e+1, 8.466e-5
5.300e+1, 8.083e-5
5.310e+1, -8.757e-4
5.320e+1, -9.629e-5
5.330e+1, -6.013e-5
5.340e+1, -4.638e-5
5.350e+1, -3.881e-5
5.360e+1, -3.433e-5
5.370e+1, -3.055e-5
5.380e+1, -2.814e-5
5.390e+1, -2.612e-5
5.400e+1, -2.487e-5
5.410e+1, 5.807e-4
5.420e+1, 3.042e-4
5.430e+1, 1.991e-4
5.440e+1, 1.508e-4
5.450e+1, 1.209e-4
5.460e+1, 1.037e-4
5.470e+1, 9.316e-5
5.480e+1, 8.639e-5
5.490e+1, 8.157e-5
5.500e+1, 7.808e-5
5.510e+1, -9.408e-4
5.520e+1, -1.123e-4
5.530e+1, -7.762e-5
5.540e+1, -6.409e-5
5.550e+1, -5.484e-5
5.560e+1, -5.010e-5
5.570e+1, -4.455e-5
5.580e+1, -3.942e-5
5.590e+1, -3.389e-5
5.600e+1, -3.062e-5
5.610e+1, 6.410e-4
5.620e+1, 3.257e-4
5.630e+1, 2.095e-4
5.640e+1, 1.582e-4
5.650e+1, 1.270e-4
5.660e+1, 1.084e-4
5.670e+1, 9.635e-5
5.680e+1, 8.842e-5
5.690e+1, 8.275e-5
5.700e+1, 7.878e-5
5.710e+1, -8.909e-4
5.720e+1, -9.753e-5
5.730e+1, -6.077e-5
5.740e+1, -4.631e-5
5.750e+1, -3.836e-5
5.760e+1, -3.403e-5
5.770e+1, -3.090e-5
5.780e+1, -2.828e-5
5.790e+1, -2.672e-5
5.800e+1, -2.530e-5
5.810e+1, 5.412e-4
5.820e+1, 3.289e-4
5.830e+1, 2.055e-4
5.840e+1, 1.564e-4
5.850e+1, 1.225e-4
5.860e+1, 1.035e-4
5.870e+1, 9.231e-5
5.880e+1, 8.512e-5
5.890e+1, 8.016e-5
5.900e+1, 7.658e-5
5.910e+1, -9.401e-4
5.920e+1, -1.154e-4
5.930e+1, -8.206e-5
5.940e+1, -6.988e-5
5.950e+1, -6.215e-5
5.960e+1, -5.356e-5
5.970e+1, -4.505e-5
5.980e+1, -3.833e-5
5.990e+1, -3.355e-5
6.000e+1, -3.004e-5
6.010e+1, 6.573e-4
6.020e+1, 3.161e-4
6.030e+1, 2.021e-4
6.040e+1, 1.522e-4
6.050e+1, 1.230e-4
6.060e+1, 1.057e-4
6.070e+1, 9.468e-5
6.080e+1, 8.703e-5
6.090e+1, 8.181e-5
6.100e+1, 7.797e-5
6.110e+1, -8.559e-4
6.120e+1, -9.792e-5
6.130e+1, -6.143e-5
6.140e+1, -4.693e-5
6.150e+1, -3.909e-5
6.160e+1, -3.405e-5
6.170e+1, -3.075e-5
6.180e+1, -2.829e-5
6.190e+1, -2.604e-5
6.200e+1, -2.477e-5
6.210e+1, 5.479e-4
6.220e+1, 3.124e-4
6.230e+1, 1.952e-4
6.240e+1, 1.483e-4
6.250e+1, 1.190e-4
6.260e+1, 1.015e-4
6.270e+1, 9.098e-5
6.280e+1, 8.410e-5
6.290e+1, 7.923e-5
6.300e+1, 7.576e-5
6.310e+1, -9.138e-4
6.320e+1, -1.119e-4
6.330e+1, -7.525e-5
6.340e+1, -6.002e-5
6.350e+1, -5.250e-5
6.360e+1, -4.729e-5
6.370e+1, -4.296e-5
6.380e+1, -3.886e-5
6.390e+1, -3.534e-5
6.400e+1, -3.172e-5
6.410e+1, 6.297e-4
6.420e+1, 3.099e-4
6.430e+1, 2.023e-4
6.440e+1, 1.544e-4
6.450e+1, 1.235e-4
6.460e+1, 1.051e-4
6.470e+1, 9.330e-5
6.480e+1, 8.537e-5
6.490e+1, 7.993e-5
6.500e+1, 7.612e-5
6.510e+1, -8.717e-4
6.520e+1, -1.022e-4
6.530e+1, -6.451e-5
6.540e+1, -4.860e-5
6.550e+1, -4.026e-5
6.560e+1, -3.535e-5
6.570e+1, -3.245e-5
6.580e+1, -3.039e-5
6.590e+1, -2.878e-5
6.600e+1, -2.743e-5
6.610e+1, 5.602e-4
6.620e+1, 3.095e-4
6.630e+1, 1.993e-4
6.640e+1, 1.520e-4
6.650e+1, 1.195e-4
6.660e+1, 1.009e-4
6.670e+1, 8.985e-5
6.680e+1, 8.271e-5
6.690e+1, 7.767e-5
6.700e+1, 7.418e-5
6.710e+1, -9.101e-4
6.720e+1, -1.130e-4
6.730e+1, -7.894e-5
6.740e+1, -6.499e-5
6.750e+1, -5.654e-5
6.760e+1, -5.087e-5
6.770e+1, -4.485e-5
6.780e+1, -3.952e-5
6.790e+1, -3.602e-5
6.800e+1, -3.158e-5
6.810e+1, 6.303e-4
6.820e+1, 3.084e-4
6.830e+1, 1.965e-4
6.840e+1, 1.491e-4
6.850e+1, 1.197e-4
6.860e+1, 1.021e-4
6.870e+1, 9.096e-5
6.880e+1, 8.360e-5
6.890e+1, 7.829e-5
6.900e+1, 7.442e-5
6.910e+1, -8.396e-4
6.920e+1, -9.618e-5
6.930e+1, -5.992e-5
6.940e+1, -4.643e-5
6.950e+1, -3.914e-5
6.960e+1, -3.436e-5
6.970e+1, -3.132e-5
6.980e+1, -2.936e-5
6.990e+1, -2.746e-5
7.000e+1, -2.608e-5
7.010e+1, 5.416e-4
7.020e+1, 3.060e-4
7.030e+1, 1.913e-4
7.040e+1, 1.435e-4
7.050e+1, 1.153e-4
7.060e+1, 9.847e-5
7.070e+1, 8.770e-5
7.080e+1, 8.068e-5
7.090e+1, 7.611e-5
7.100e+1, 7.270e-5
7.110e+1, -8.921e-4
7.120e+1, -1.094e-4
7.130e+1, -7.406e-5
7.140e+1, -5.985e-5
7.150e+1, -5.221e-5
7.160e+1, -4.584e-5
7.170e+1, -4.162e-5
7.180e+1, -3.821e-5
7.190e+1, -3.343e-5
7.200e+1, -2.847e-5
7.210e+1, 5.947e-4
7.220e+1, 3.063e-4
7.230e+1, 1.988e-4
7.240e+1, 1.511e-4
7.250e+1, 1.201e-4
7.260e+1, 1.020e-4
7.270e+1, 9.078e-5
7.280e+1, 8.311e-5
7.290e+1, 7.749e-5
7.300e+1, 7.373e-5
7.310e+1, -8.548e-4
7.320e+1, -1.008e-4
7.330e+1, -6.376e-5
7.340e+1, -4.931e-5
7.350e+1, -4.097e-5
7.360e+1, -3.640e-5
7.370e+1, -3.313e-5
7.380e+1, -3.165e-5
7.390e+1, -3.012e-5
7.400e+1, -2.845e-5
7.410e+1, 5.486e-4
7.420e+1, 3.116e-4
7.430e+1, 1.954e-4
7.440e+1, 1.485e-4
7.450e+1, 1.174e-4
7.460e+1, 9.902e-5
7.470e+1, 8.777e-5
7.480e+1, 8.044e-5
7.490e+1, 7.539e-5
7.500e+1, 7.201e-5
7.510e+1, -8.936e-4
7.520e+1, -1.128e-4
7.530e+1, -7.955e-5
7.540e+1, -6.660e-5
7.550e+1, -5.713e-5
7.560e+1, -5.084e-5
7.570e+1, -4.509e-5
7.580e+1, -3.997e-5
7.590e+1, -3.529e-5
7.600e+1, -3.168e-5
7.610e+1, 6.210e-4
7.620e+1, 3.037e-4
7.630e+1, 1.920e-4
7.640e+1, 1.440e-4
7.650e+1, 1.153e-4
7.660e+1, 9.886e-5
7.670e+1, 8.831e-5
7.680e+1, 8.156e-5
7.690e+1, 7.692e-5
7.700e+1, 7.344e-5
7.710e+1, -8.215e-4
7.720e+1, -1.005e-4
7.730e+1, -6.411e-5
7.740e+1, -5.036e-5
7.750e+1, -4.297e-5
7.760e+1, -3.838e-5
7.770e+1, -3.541e-5
7.780e+1, -3.337e-5
7.790e+1, -3.165e-5
7.800e+1, -3.065e-5
7.810e+1, 5.643e-4
7.820e+1, 2.928e-4
7.830e+1, 1.865e-4
7.840e+1, 1.410e-4
7.850e+1, 1.139e-4
7.860e+1, 9.785e-5
7.870e+1, 8.752e-5
7.880e+1, 8.047e-5
7.890e+1, 7.573e-5
7.900e+1, 7.231e-5
7.910e+1, -8.646e-4
7.920e+1, -1.053e-4
7.930e+1, -6.885e-5
7.940e+1, -5.398e-5
7.950e+1, -4.485e-5
7.960e+1, -3.915e-5
7.970e+1, -3.550e-5
7.980e+1, -3.302e-5
7.990e+1, -3.093e-5
8.000e+1, -2.914e-5
8.010e+1, 5.575e-4
8.020e+1, 3.022e-4
8.030e+1, 1.926e-4
8.040e+1, 1.492e-4
8.050e+1, 1.194e-4
8.060e+1, 1.007e-4
8.070e+1, 8.895e-5
8.080e+1, 8.122e-5
8.090e+1, 7.613e-5
8.100e+1, 7.237e-5
8.110e+1, -8.473e-4
8.120e+1, -1.010e-4
8.130e+1, -6.516e-5
8.140e+1, -5.106e-5
8.150e+1, -4.259e-5
8.160e+1, -3.794e-5
8.170e+1, -3.495e-5
8.180e+1, -3.256e-5
8.190e+1, -3.048e-5
8.200e+1, -2.878e-5
8.210e+1, 5.408e-4
8.220e+1, 3.116e-4
8.230e+1, 1.933e-4
8.240e+1, 1.475e-4
8.250e+1, 1.165e-4
8.260e+1, 9.815e-5
8.270e+1, 8.693e-5
8.280e+1, 7.957e-5
8.290e+1, 7.462e-5
8.300e+1, 7.107e-5
8.310e+1, -8.853e-4
8.320e+1, -1.178e-4
8.330e+1, -8.412e-5
8.340e+1, -7.055e-5
8.350e+1, -6.100e-5
8.360e+1, -5.253e-5
8.370e+1, -4.413e-5
8.380e+1, -3.804e-5
8.390e+1, -3.301e-5
8.400e+1, -2.907e-5
8.410e+1, 5.913e-4
8.420e+1, 2.993e-4
8.430e+1, 1.906e-4
8.440e+1, 1.454e-4
8.450e+1, 1.168e-4
8.460e+1, 9.947e-5
8.470e+1, 8.881e-5
8.480e+1, 8.109e-5
8.490e+1, 7.589e-5
8.500e+1, 7.203e-5
8.510e+1, -8.038e-4
8.520e+1, -1.046e-4
8.530e+1, -6.464e-5
8.540e+1, -4.790e-5
8.550e+1, -3.910e-5
8.560e+1, -3.343e-5
8.570e+1, -2.985e-5
8.580e+1, -2.732e-5
8.590e+1, -2.537e-5
8.600e+1, -2.338e-5
8.610e+1, 5.187e-4
8.620e+1, 2.853e-4
8.630e+1, 1.796e-4
8.640e+1, 1.392e-4
8.650e+1, 1.133e-4
8.660e+1, 9.715e-5
8.670e+1, 8.642e-5
8.680e+1, 7.908e-5
8.690e+1, 7.434e-5
8.700e+1, 7.083e-5
8.710e+1, -8.338e-4
8.720e+1, -1.025e-4
8.730e+1, -6.623e-5
8.740e+1, -5.117e-5
8.750e+1, -4.226e-5
8.760e+1, -3.650e-5
8.770e+1, -3.299e-5
8.780e+1, -3.067e-5
8.790e+1, -2.862e-5
8.800e+1, -2.658e-5
8.810e+1, 5.319e-4
8.820e+1, 2.994e-4
8.830e+1, 1.866e-4
8.840e+1, 1.447e-4
8.850e+1, 1.166e-4
8.860e+1, 9.816e-5
8.870e+1, 8.677e-5
8.880e+1, 7.900e-5
8.890e+1, 7.394e-5
8.900e+1, 7.026e-5
8.910e+1, -8.429e-4
8.920e+1, -1.042e-4
8.930e+1, -6.860e-5
8.940e+1, -5.359e-5
8.950e+1, -4.494e-5
8.960e+1, -3.937e-5
8.970e+1, -3.503e-5
8.980e+1, -3.250e-5
8.990e+1, -2.988e-5
9.000e+1, -2.795e-5
9.010e+1, 5.411e-4
9.020e+1, 3.008e-4
9.030e+1, 1.897e-4
9.040e+1, 1.452e-4
9.050e+1, 1.170e-4
9.060e+1, 9.856e-5
9.070e+1, 8.663e-5
9.080e+1, 7.874e-5
9.090e+1, 7.375e-5
9.100e+1, 7.015e-5
9.110e+1, -8.423e-4
9.120e+1, -1.089e-4
9.130e+1, -7.277e-5
9.140e+1, -5.710e-5
9.150e+1, -4.888e-5
9.160e+1, -4.366e-5
9.170e+1, -3.972e-5
9.180e+1, -3.683e-5
9.190e+1, -3.422e-5
9.200e+1, -3.201e-5
9.210e+1, 5.614e-4
9.220e+1, 2.964e-4
9.230e+1, 1.885e-4
9.240e+1, 1.454e-4
9.250e+1, 1.176e-4
9.260e+1, 9.921e-5
9.270e+1, 8.758e-5
9.280e+1, 8.002e-5
9.290e+1, 7.497e-5
9.300e+1, 7.109e-5
9.310e+1, -8.228e-4
9.320e+1, -1.022e-4
9.330e+1, -6.538e-5
9.340e+1, -5.098e-5
9.350e+1, -4.285e-5
9.360e+1, -3.777e-5
9.370e+1, -3.435e-5
9.380e+1, -3.150e-5
9.390e+1, -2.995e-5
9.400e+1, -2.836e-5
9.410e+1, 5.350e-4
9.420e+1, 2.915e-4
9.430e+1, 1.862e-4
9.440e+1, 1.427e-4
9.450e+1, 1.152e-4
9.460e+1, 9.761e-5
9.470e+1, 8.635e-5
9.480e+1, 7.893e-5
9.490e+1, 7.391e-5
9.500e+1, 7.046e-5
9.510e+1, -8.503e-4
9.520e+1, -1.103e-4
9.530e+1, -7.793e-5
9.540e+1, -6.519e-5
9.550e+1, -5.671e-5
9.560e+1, -4.916e-5
9.570e+1, -4.251e-5
9.580e+1, -3.656e-5
9.590e+1, -3.189e-5
9.600e+1, -2.846e-5
9.610e+1, 5.771e-4
9.620e+1, 2.933e-4
9.630e+1, 1.860e-4
9.640e+1, 1.439e-4
9.650e+1, 1.169e-4
9.660e+1, 9.908e-5
9.670e+1, 8.759e-5
9.680e+1, 7.995e-5
9.690e+1, 7.465e-5
9.700e+1, 7.189e-5
9.710e+1, -7.904e-4
9.720e+1, -9.597e-5
9.730e+1, -6.108e-5
9.740e+1, -4.652e-5
9.750e+1, -3.819e-5
9.760e+1, -3.261e-5
9.770e+1, -2.913e-5
9.780e+1, -2.691e-5
9.790e+1, -2.466e-5
9.800e+1, -2.278e-5
9.810e+1, 5.527e-4
9.820e+1, 2.541e-4
9.830e+1, 1.706e-4
9.840e+1, 1.327e-4
9.850e+1, 1.092e-4
9.860e+1, 9.403e-5
9.870e+1, 8.463e-5
9.880e+1, 7.805e-5
9.890e+1, 7.315e-5
9.900e+1, 6.997e-5
9.910e+1, -8.494e-4
9.920e+1, -1.206e-4
9.930e+1, -8.827e-5
9.940e+1, -7.530e-5
9.950e+1, -6.624e-5
9.960e+1, -5.812e-5
9.970e+1, -5.012e-5
9.980e+1, -4.277e-5
9.990e+1, -3.768e-5
1.000e+2, -3.383e-5
1.001e+2, 6.404e-4
1.002e+2, 2.846e-4
1.003e+2, 1.736e-4
1.004e+2, 1.324e-4
1.005e+2, 1.101e-4
1.006e+2, 9.562e-5
1.007e+2, 8.553e-5
1.008e+2, 7.867e-5
1.009e+2, 7.381e-5
1.010e+2, 7.059e-5
1.011e+2, -7.844e-4
1.012e+2, -1.111e-4
1.013e+2, -7.218e-5
1.014e+2, -5.468e-5
1.015e+2, -4.546e-5
1.016e+2, -3.996e-5
1.017e+2, -3.658e-5
1.018e+2, -3.388e-5
1.019e+2, -3.137e-5
1.020e+2, -2.976e-5
1.021e+2, 6.045e-4
1.022e+2, 2.464e-4
1.023e+2, 1.631e-4
1.024e+2, 1.289e-4
1.025e+2, 1.085e-4
1.026e+2, 9.465e-5
1.027e+2, 8.495e-5
1.028e+2, 7.787e-5
1.029e+2, 7.285e-5
1.030e+2, 6.930e-5
1.031e+2, -7.907e-4
1.032e+2, -1.023e-4
1.033e+2, -6.765e-5
1.034e+2, -5.446e-5
1.035e+2, -4.717e-5
1.036e+2, -4.304e-5
1.037e+2, -4.008e-5
1.038e+2, -3.842e-5
1.039e+2, -3.656e-5
1.040e+2, -3.431e-5
1.041e+2, 6.126e-4
1.042e+2, 2.620e-4
1.043e+2, 1.690e-4
1.044e+2, 1.299e-4
1.045e+2, 1.077e-4
1.046e+2, 9.351e-5
1.047e+2, 8.381e-5
1.048e+2, 7.722e-5
1.049e+2, 7.275e-5
1.050e+2, 6.916e-5
1.051e+2, -7.998e-4
1.052e+2, -1.030e-4
1.053e+2, -6.906e-5
1.054e+2, -5.576e-5
1.055e+2, -4.779e-5
1.056e+2, -4.262e-5
1.057e+2, -3.900e-5
1.058e+2, -3.636e-5
1.059e+2, -3.413e-5
1.060e+2, -3.241e-5
1.061e+2, 5.980e-4
1.062e+2, 2.629e-4
1.063e+2, 1.696e-4
1.064e+2, 1.318e-4
1.065e+2, 1.095e-4
1.066e+2, 9.506e-5
1.067e+2, 8.479e-5
1.068e+2, 7.759e-5
1.069e+2, 7.275e-5
1.070e+2, 6.894e-5
1.071e+2, -7.993e-4
1.072e+2, -1.028e-4
1.073e+2, -7.173e-5
1.074e+2, -5.764e-5
1.075e+2, -4.961e-5
1.076e+2, -4.472e-5
1.077e+2, -4.184e-5
1.078e+2, -3.943e-5
1.079e+2, -3.647e-5
1.080e+2, -3.222e-5
1.081e+2, 5.963e-4
1.082e+2, 2.723e-4
1.083e+2, 1.730e-4
1.084e+2, 1.322e-4
1.085e+2, 1.088e-4
1.086e+2, 9.404e-5
1.087e+2, 8.409e-5
1.088e+2, 7.706e-5
1.089e+2, 7.210e-5
1.090e+2, 6.875e-5
1.091e+2, -7.913e-4
1.092e+2, -9.989e-5
1.093e+2, -6.652e-5
1.094e+2, -5.366e-5
1.095e+2, -4.734e-5
1.096e+2, -4.308e-5
1.097e+2, -3.986e-5
1.098e+2, -3.741e-5
1.099e+2, -3.528e-5
1.100e+2, -3.210e-5
1.101e+2, 5.868e-4
1.102e+2, 2.667e-4
1.103e+2, 1.699e-4
1.104e+2, 1.319e-4
1.105e+2, 1.094e-4
1.106e+2, 9.482e-5
1.107e+2, 8.500e-5
1.108e+2, 7.770e-5
1.109e+2, 7.224e-5
1.110e+2, 6.852e-5
1.111e+2, -8.056e-4
1.112e+2, -1.025e-4
1.113e+2, -7.059e-5
1.114e+2, -5.704e-5
1.115e+2, -4.979e-5
1.116e+2, -4.643e-5
1.117e+2, -4.404e-5
1.118e+2, -4.099e-5
1.119e+2, -3.629e-5
1.120e+2, -3.189e-5
1.121e+2, 5.937e-4
1.122e+2, 2.745e-4
1.123e+2, 1.722e-4
1.124e+2, 1.311e-4
1.125e+2, 1.083e-4
1.126e+2, 9.340e-5
1.127e+2, 8.368e-5
1.128e+2, 7.685e-5
1.129e+2, 7.210e-5
1.130e+2, 6.880e-5
1.131e+2, -7.900e-4
1.132e+2, -1.014e-4
1.133e+2, -6.836e-5
1.134e+2, -5.559e-5
1.135e+2, -4.863e-5
1.136e+2, -4.462e-5
1.137e+2, -4.167e-5
1.138e+2, -3.931e-5
1.139e+2, -3.624e-5
1.140e+2, -3.286e-5
1.141e+2, 5.871e-4
1.142e+2, 2.661e-4
1.143e+2, 1.681e-4
1.144e+2, 1.302e-4
1.145e+2, 1.082e-4
1.146e+2, 9.369e-5
1.147e+2, 8.369e-5
1.148e+2, 7.720e-5
1.149e+2, 7.256e-5
1.150e+2, 6.908e-5
1.151e+2, -7.969e-4
1.152e+2, -1.030e-4
1.153e+2, -7.190e-5
1.154e+2, -5.843e-5
1.155e+2, -5.133e-5
1.156e+2, -4.728e-5
1.157e+2, -4.366e-5
1.158e+2, -3.922e-5
1.159e+2, -3.421e-5
1.160e+2, -3.022e-5
1.161e+2, 5.856e-4
1.162e+2, 2.708e-4
1.163e+2, 1.721e-4
1.164e+2, 1.323e-4
1.165e+2, 1.094e-4
1.166e+2, 9.445e-5
1.167e+2, 8.432e-5
1.168e+2, 7.727e-5
1.169e+2, 7.251e-5
1.170e+2, 6.907e-5
1.171e+2, -7.761e-4
1.172e+2, -1.016e-4
1.173e+2, -6.772e-5
1.174e+2, -5.487e-5
1.175e+2, -4.658e-5
1.176e+2, -4.206e-5
1.177e+2, -3.857e-5
1.178e+2, -3.603e-5
1.179e+2, -3.399e-5
1.180e+2, -3.172e-5
1.181e+2, 5.681e-4
1.182e+2, 2.616e-4
1.183e+2, 1.692e-4
1.184e+2, 1.317e-4
1.185e+2, 1.092e-4
1.186e+2, 9.459e-5
1.187e+2, 8.423e-5
1.188e+2, 7.721e-5
1.189e+2, 7.237e-5
1.190e+2, 6.896e-5
1.191e+2, -7.875e-4
1.192e+2, -1.022e-4
1.193e+2, -7.114e-5
1.194e+2, -5.827e-5
1.195e+2, -5.106e-5
1.196e+2, -4.621e-5
1.197e+2, -4.259e-5
1.198e+2, -3.953e-5
1.199e+2, -3.596e-5
1.200e+2, -3.175e-5
1.201e+2, 5.638e-4
1.202e+2, 2.753e-4
1.203e+2, 1.750e-4
1.204e+2, 1.334e-4
1.205e+2, 1.103e-4
1.206e+2, 9.592e-5
1.207e+2, 8.660e-5
1.208e+2, 7.986e-5
1.209e+2, 7.523e-5
1.210e+2, 7.190e-5
1.211e+2, -7.618e-4
1.212e+2, -1.111e-4
1.213e+2, -7.433e-5
1.214e+2, -5.788e-5
1.215e+2, -4.904e-5
1.216e+2, -4.253e-5
1.217e+2, -3.836e-5
1.218e+2, -3.473e-5
1.219e+2, -3.144e-5
1.220e+2, -2.837e-5
1.221e+2, 5.617e-4
1.222e+2, 2.550e-4
1.223e+2, 1.621e-4
1.224e+2, 1.279e-4
1.225e+2, 1.077e-4
1.226e+2, 9.493e-5
1.227e+2, 8.607e-5
1.228e+2, 7.959e-5
1.229e+2, 7.498e-5
1.230e+2, 7.168e-5
1.231e+2, -7.822e-4
1.232e+2, -1.168e-4
1.233e+2, -8.061e-5
1.234e+2, -6.519e-5
1.235e+2, -5.429e-5
1.236e+2, -4.805e-5
1.237e+2, -4.310e-5
1.238e+2, -3.949e-5
1.239e+2, -3.566e-5
1.240e+2, -3.325e-5
1.241e+2, 6.074e-4
1.242e+2, 2.577e-4
1.243e+2, 1.673e-4
1.244e+2, 1.306e-4
1.245e+2, 1.098e-4
1.246e+2, 9.658e-5
1.247e+2, 8.717e-5
1.248e+2, 8.064e-5
1.249e+2, 7.616e-5
1.250e+2, 7.282e-5
1.251e+2, -7.509e-4
1.252e+2, -1.120e-4
1.253e+2, -7.746e-5
1.254e+2, -6.108e-5
1.255e+2, -5.158e-5
1.256e+2, -4.561e-5
1.257e+2, -4.065e-5
1.258e+2, -3.758e-5
1.259e+2, -3.485e-5
1.260e+2, -3.242e-5
1.261e+2, 5.864e-4
1.262e+2, 2.515e-4
1.263e+2, 1.651e-4
1.264e+2, 1.288e-4
1.265e+2, 1.092e-4
1.266e+2, 9.615e-5
1.267e+2, 8.715e-5
1.268e+2, 8.086e-5
1.269e+2, 7.655e-5
1.270e+2, 7.327e-5
1.271e+2, -7.444e-4
1.272e+2, -1.087e-4
1.273e+2, -7.553e-5
1.274e+2, -6.178e-5
1.275e+2, -5.470e-5
1.276e+2, -4.948e-5
1.277e+2, -4.204e-5
1.278e+2, -3.776e-5
1.279e+2, -3.474e-5
1.280e+2, -3.166e-5
1.281e+2, 5.926e-4
1.282e+2, 2.473e-4
1.283e+2, 1.628e-4
1.284e+2, 1.283e-4
1.285e+2, 1.090e-4
1.286e+2, 9.645e-5
1.287e+2, 8.779e-5
1.288e+2, 8.154e-5
1.289e+2, 7.699e-5
1.290e+2, 7.384e-5
1.291e+2, -7.182e-4
1.292e+2, -9.837e-5
1.293e+2, -6.550e-5
1.294e+2, -5.185e-5
1.295e+2, -4.541e-5
1.296e+2, -4.145e-5
1.297e+2, -3.822e-5
1.298e+2, -3.554e-5
1.299e+2, -3.311e-5
1.300e+2, -3.103e-5
1.301e+2, 5.578e-4
1.302e+2, 2.372e-4
1.303e+2, 1.607e-4
1.304e+2, 1.268e-4
1.305e+2, 1.080e-4
1.306e+2, 9.591e-5
1.307e+2, 8.751e-5
1.308e+2, 8.192e-5
1.309e+2, 7.790e-5
1.310e+2, 7.457e-5
1.311e+2, -7.326e-4
1.312e+2, -1.017e-4
1.313e+2, -7.101e-5
1.314e+2, -5.777e-5
1.315e+2, -5.041e-5
1.316e+2, -4.519e-5
1.317e+2, -4.119e-5
1.318e+2, -3.759e-5
1.319e+2, -3.448e-5
1.320e+2, -3.120e-5
1.321e+2, 5.681e-4
1.322e+2, 2.430e-4
1.323e+2, 1.618e-4
1.324e+2, 1.271e-4
1.325e+2, 1.084e-4
1.326e+2, 9.614e-5
1.327e+2, 8.758e-5
1.328e+2, 8.172e-5
1.329e+2, 7.735e-5
1.330e+2, 7.410e-5
1.331e+2, -7.019e-4
1.332e+2, -9.250e-5
1.333e+2, -6.261e-5
1.334e+2, -5.046e-5
1.335e+2, -4.369e-5
1.336e+2, -3.848e-5
1.337e+2, -3.539e-5
1.338e+2, -3.262e-5
1.339e+2, -3.051e-5
1.340e+2, -2.833e-5
1.341e+2, 5.342e-4
1.342e+2, 2.314e-4
1.343e+2, 1.576e-4
1.344e+2, 1.245e-4
1.345e+2, 1.062e-4
1.346e+2, 9.435e-5
1.347e+2, 8.620e-5
1.348e+2, 8.060e-5
1.349e+2, 7.648e-5
1.350e+2, 7.340e-5
1.351e+2, -7.205e-4
1.352e+2, -9.931e-5
1.353e+2, -6.989e-5
1.354e+2, -5.745e-5
1.355e+2, -4.982e-5
1.356e+2, -4.407e-5
1.357e+2, -3.893e-5
1.358e+2, -3.521e-5
1.359e+2, -3.216e-5
1.360e+2, -2.966e-5
1.361e+2, 5.596e-4
1.362e+2, 2.384e-4
1.363e+2, 1.602e-4
1.364e+2, 1.257e-4
1.365e+2, 1.077e-4
1.366e+2, 9.574e-5
1.367e+2, 8.728e-5
1.368e+2, 8.137e-5
1.369e+2, 7.690e-5
1.370e+2, 7.369e-5
1.371e+2, -6.876e-4
1.372e+2, -8.857e-5
1.373e+2, -6.037e-5
1.374e+2, -4.862e-5
1.375e+2, -4.165e-5
1.376e+2, -3.780e-5
1.377e+2, -3.491e-5
1.378e+2, -3.177e-5
1.379e+2, -2.869e-5
1.380e+2, -2.579e-5
1.381e+2, 5.087e-4
1.382e+2, 2.326e-4
1.383e+2, 1.591e-4
1.384e+2, 1.249e-4
1.385e+2, 1.064e-4
1.386e+2, 9.481e-5
1.387e+2, 8.689e-5
1.388e+2, 8.082e-5
1.389e+2, 7.633e-5
1.390e+2, 7.326e-5
1.391e+2, -7.162e-4
1.392e+2, -9.581e-5
1.393e+2, -6.795e-5
1.394e+2, -5.521e-5
1.395e+2, -4.614e-5
1.396e+2, -4.045e-5
1.397e+2, -3.556e-5
1.398e+2, -3.179e-5
1.399e+2, -2.868e-5
1.400e+2, -2.638e-5
1.401e+2, 5.298e-4
1.402e+2, 2.395e-4
1.403e+2, 1.614e-4
1.404e+2, 1.270e-4
1.405e+2, 1.079e-4
1.406e+2, 9.587e-5
1.407e+2, 8.730e-5
1.408e+2, 8.134e-5
1.409e+2, 7.714e-5
1.410e+2, 7.438e-5
1.411e+2, -7.021e-4
1.412e+2, -9.193e-5
1.413e+2, -6.196e-5
1.414e+2, -4.890e-5
1.415e+2, -4.119e-5
1.416e+2, -3.586e-5
1.417e+2, -3.271e-5
1.418e+2, -2.981e-5
1.419e+2, -2.659e-5
1.420e+2, -2.361e-5
1.421e+2, 4.930e-4
1.422e+2, 2.417e-4
1.423e+2, 1.611e-4
1.424e+2, 1.261e-4
1.425e+2, 1.074e-4
1.426e+2, 9.561e-5
1.427e+2, 8.735e-5
1.428e+2, 8.127e-5
1.429e+2, 7.674e-5
1.430e+2, 7.360e-5
1.431e+2, -7.241e-4
1.432e+2, -1.025e-4
1.433e+2, -7.349e-5
1.434e+2, -6.086e-5
1.435e+2, -5.248e-5
1.436e+2, -4.589e-5
1.437e+2, -4.015e-5
1.438e+2, -3.599e-5
1.439e+2, -3.234e-5
1.440e+2, -2.921e-5
1.441e+2, 5.517e-4
1.442e+2, 2.391e-4
1.443e+2, 1.584e-4
1.444e+2, 1.245e-4
1.445e+2, 1.065e-4
1.446e+2, 9.508e-5
1.447e+2, 8.716e-5
1.448e+2, 8.106e-5
1.449e+2, 7.662e-5
1.450e+2, 7.332e-5
1.451e+2, -6.848e-4
1.452e+2, -9.098e-5
1.453e+2, -6.196e-5
1.454e+2, -4.877e-5
1.455e+2, -4.074e-5
1.456e+2, -3.623e-5
1.457e+2, -3.279e-5
1.458e+2, -2.969e-5
1.459e+2, -2.666e-5
1.460e+2, -2.359e-5
1.461e+2, 4.975e-4
1.462e+2, 2.265e-4
1.463e+2, 1.539e-4
1.464e+2, 1.232e-4
1.465e+2, 1.056e-4
1.466e+2, 9.416e-5
1.467e+2, 8.590e-5
1.468e+2, 8.011e-5
1.469e+2, 7.585e-5
1.470e+2, 7.298e-5
1.471e+2, -7.049e-4
1.472e+2, -9.462e-5
1.473e+2, -6.602e-5
1.474e+2, -5.297e-5
1.475e+2, -4.414e-5
1.476e+2, -3.858e-5
1.477e+2, -3.409e-5
1.478e+2, -3.063e-5
1.479e+2, -2.817e-5
1.480e+2, -2.596e-5
1.481e+2, 5.219e-4
1.482e+2, 2.306e-4
1.483e+2, 1.575e-4
1.484e+2, 1.249e-4
1.485e+2, 1.069e-4
1.486e+2, 9.483e-5
1.487e+2, 8.643e-5
1.488e+2, 8.029e-5
1.489e+2, 7.595e-5
1.490e+2, 7.277e-5
1.491e+2, -6.906e-4
1.492e+2, -8.819e-5
1.493e+2, -5.902e-5
1.494e+2, -4.646e-5
1.495e+2, -3.934e-5
1.496e+2, -3.471e-5
1.497e+2, -3.163e-5
1.498e+2, -2.835e-5
1.499e+2, -2.468e-5
1.500e+2, -2.218e-5
1.501e+2, 4.884e-4
1.502e+2, 2.329e-4
1.503e+2, 1.574e-4
1.504e+2, 1.239e-4
1.505e+2, 1.053e-4
1.506e+2, 9.328e-5
1.507e+2, 8.530e-5
1.508e+2, 7.922e-5
1.509e+2, 7.485e-5
1.510e+2, 7.173e-5
1.511e+2, -7.147e-4
1.512e+2, -9.970e-5
1.513e+2, -6.997e-5
1.514e+2, -5.756e-5
1.515e+2, -4.936e-5
1.516e+2, -4.414e-5
1.517e+2, -3.955e-5
1.518e+2, -3.517e-5
1.519e+2, -3.153e-5
1.520e+2, -2.863e-5
1.521e+2, 5.403e-4
1.522e+2, 2.371e-4
1.523e+2, 1.576e-4
1.524e+2, 1.239e-4
1.525e+2, 1.058e-4
1.526e+2, 9.407e-5
1.527e+2, 8.578e-5
1.528e+2, 7.973e-5
1.529e+2, 7.559e-5
1.530e+2, 7.234e-5
1.531e+2, -6.819e-4
1.532e+2, -8.972e-5
1.533e+2, -6.025e-5
1.534e+2, -4.769e-5
1.535e+2, -4.073e-5
1.536e+2, -3.692e-5
1.537e+2, -3.355e-5
1.538e+2, -3.039e-5
1.539e+2, -2.757e-5
1.540e+2, -2.469e-5
1.541e+2, 4.977e-4
1.542e+2, 2.268e-4
1.543e+2, 1.546e-4
1.544e+2, 1.225e-4
1.545e+2, 1.044e-4
1.546e+2, 9.315e-5
1.547e+2, 8.499e-5
1.548e+2, 7.904e-5
1.549e+2, 7.461e-5
1.550e+2, 7.132e-5
1.551e+2, -7.008e-4
1.552e+2, -9.345e-5
1.553e+2, -6.507e-5
1.554e+2, -5.259e-5
1.555e+2, -4.518e-5
1.556e+2, -3.947e-5
1.557e+2, -3.490e-5
1.558e+2, -3.181e-5
1.559e+2, -2.916e-5
1.560e+2, -2.681e-5
1.561e+2, 5.260e-4
1.562e+2, 2.268e-4
1.563e+2, 1.568e-4
1.564e+2, 1.239e-4
1.565e+2, 1.056e-4
1.566e+2, 9.359e-5
1.567e+2, 8.511e-5
1.568e+2, 7.903e-5
1.569e+2, 7.470e-5
1.570e+2, 7.155e-5
1.571e+2, -6.829e-4
1.572e+2, -8.922e-5
1.573e+2, -6.039e-5
1.574e+2, -4.772e-5
1.575e+2, -4.064e-5
1.576e+2, -3.614e-5
1.577e+2, -3.181e-5
1.578e+2, -2.851e-5
1.579e+2, -2.558e-5
1.580e+2, -2.270e-5
1.581e+2, 4.941e-4
1.582e+2, 2.253e-4
1.583e+2, 1.553e-4
1.584e+2, 1.226e-4
1.585e+2, 1.038e-4
1.586e+2, 9.198e-5
1.587e+2, 8.380e-5
1.588e+2, 7.808e-5
1.589e+2, 7.402e-5
1.590e+2, 7.108e-5
1.591e+2, -7.012e-4
1.592e+2, -9.586e-5
1.593e+2, -6.817e-5
1.594e+2, -5.550e-5
1.595e+2, -4.677e-5
1.596e+2, -4.118e-5
1.597e+2, -3.713e-5
1.598e+2, -3.261e-5
1.599e+2, -2.901e-5
1.600e+2, -2.686e-5
1.601e+2, 5.339e-4
1.602e+2, 2.311e-4
1.603e+2, 1.551e-4
1.604e+2, 1.221e-4
1.605e+2, 1.039e-4
1.606e+2, 9.230e-5
1.607e+2, 8.412e-5
1.608e+2, 7.823e-5
1.609e+2, 7.389e-5
1.610e+2, 7.068e-5
1.611e+2, -6.737e-4
1.612e+2, -8.872e-5
1.613e+2, -5.884e-5
1.614e+2, -4.692e-5
1.615e+2, -4.059e-5
1.616e+2, -3.617e-5
1.617e+2, -3.231e-5
1.618e+2, -2.911e-5
1.619e+2, -2.583e-5
1.620e+2, -2.341e-5
1.621e+2, 4.930e-4
1.622e+2, 2.251e-4
1.623e+2, 1.532e-4
1.624e+2, 1.215e-4
1.625e+2, 1.034e-4
1.626e+2, 9.182e-5
1.627e+2, 8.376e-5
1.628e+2, 7.793e-5
1.629e+2, 7.390e-5
1.630e+2, 7.089e-5
1.631e+2, -6.934e-4
1.632e+2, -9.528e-5
1.633e+2, -6.518e-5
1.634e+2, -5.118e-5
1.635e+2, -4.194e-5
1.636e+2, -3.475e-5
1.637e+2, -3.013e-5
1.638e+2, -2.645e-5
1.639e+2, -2.340e-5
1.640e+2, -2.099e-5
1.641e+2, 4.996e-4
1.642e+2, 2.283e-4
1.643e+2, 1.542e-4
1.644e+2, 1.220e-4
1.645e+2, 1.038e-4
1.646e+2, 9.237e-5
1.647e+2, 8.459e-5
1.648e+2, 7.844e-5
1.649e+2, 7.428e-5
1.650e+2, 7.140e-5
1.651e+2, -6.931e-4
1.652e+2, -9.737e-5
1.653e+2, -6.852e-5
1.654e+2, -5.424e-5
1.655e+2, -4.438e-5
1.656e+2, -3.769e-5
1.657e+2, -3.279e-5
1.658e+2, -2.909e-5
1.659e+2, -2.608e-5
1.660e+2, -2.390e-5
1.661e+2, 5.129e-4
1.662e+2, 2.295e-4
1.663e+2, 1.552e-4
1.664e+2, 1.229e-4
1.665e+2, 1.041e-4
1.666e+2, 9.231e-5
1.667e+2, 8.409e-5
1.668e+2, 7.787e-5
1.669e+2, 7.364e-5
1.670e+2, 7.055e-5
1.671e+2, -6.782e-4
1.672e+2, -8.801e-5
1.673e+2, -5.742e-5
1.674e+2, -4.421e-5
1.675e+2, -3.607e-5
1.676e+2, -3.114e-5
1.677e+2, -2.804e-5
1.678e+2, -2.563e-5
1.679e+2, -2.382e-5
1.680e+2, -2.254e-5
1.681e+2, 4.860e-4
1.682e+2, 2.189e-4
1.683e+2, 1.503e-4
1.684e+2, 1.197e-4
1.685e+2, 1.023e-4
1.686e+2, 9.107e-5
1.687e+2, 8.312e-5
1.688e+2, 7.761e-5
1.689e+2, 7.349e-5
1.690e+2, 7.043e-5
1.691e+2, -6.915e-4
1.692e+2, -9.110e-5
1.693e+2, -6.077e-5
1.694e+2, -4.759e-5
1.695e+2, -4.011e-5
1.696e+2, -3.443e-5
1.697e+2, -3.019e-5
1.698e+2, -2.671e-5
1.699e+2, -2.373e-5
1.700e+2, -2.123e-5
1.701e+2, 4.889e-4
1.702e+2, 2.279e-4
1.703e+2, 1.556e-4
1.704e+2, 1.226e-4
1.705e+2, 1.037e-4
1.706e+2, 9.180e-5
1.707e+2, 8.359e-5
1.708e+2, 7.791e-5
1.709e+2, 7.358e-5
1.710e+2, 7.050e-5
1.711e+2, -6.979e-4
1.712e+2, -9.289e-5
1.713e+2, -6.252e-5
1.714e+2, -5.013e-5
1.715e+2, -4.217e-5
1.716e+2, -3.649e-5
1.717e+2, -3.226e-5
1.718e+2, -2.803e-5
1.719e+2, -2.420e-5
1.720e+2, -2.140e-5
1.721e+2, 5.002e-4
1.722e+2, 2.273e-4
1.723e+2, 1.542e-4
1.724e+2, 1.223e-4
1.725e+2, 1.039e-4
1.726e+2, 9.195e-5
1.727e+2, 8.403e-5
1.728e+2, 7.824e-5
1.729e+2, 7.402e-5
1.730e+2, 7.075e-5
1.731e+2, -6.945e-4
1.732e+2, -9.258e-5
1.733e+2, -6.212e-5
1.734e+2, -4.865e-5
1.735e+2, -4.057e-5
1.736e+2, -3.502e-5
1.737e+2, -3.077e-5
1.738e+2, -2.733e-5
1.739e+2, -2.466e-5
1.740e+2, -2.259e-5
1.741e+2, 5.005e-4
1.742e+2, 2.273e-4
1.743e+2, 1.544e-4
1.744e+2, 1.224e-4
1.745e+2, 1.036e-4
1.746e+2, 9.150e-5
1.747e+2, 8.354e-5
1.748e+2, 7.793e-5
1.749e+2, 7.369e-5
1.750e+2, 7.055e-5
1.751e+2, -6.984e-4
1.752e+2, -9.425e-5
1.753e+2, -6.388e-5
1.754e+2, -5.079e-5
1.755e+2, -4.231e-5
1.756e+2, -3.678e-5
1.757e+2, -3.296e-5
1.758e+2, -2.945e-5
1.759e+2, -2.689e-5
1.760e+2, -2.492e-5
1.761e+2, 5.133e-4
1.762e+2, 2.268e-4
1.763e+2, 1.537e-4
1.764e+2, 1.218e-4
1.765e+2, 1.035e-4
1.766e+2, 9.184e-5
1.767e+2, 8.383e-5
1.768e+2, 7.824e-5
1.769e+2, 7.400e-5
1.770e+2, 7.076e-5
1.771e+2, -6.965e-4
1.772e+2, -9.534e-5
1.773e+2, -6.398e-5
1.774e+2, -5.051e-5
1.775e+2, -4.250e-5
1.776e+2, -3.731e-5
1.777e+2, -3.384e-5
1.778e+2, -3.094e-5
1.779e+2, -2.863e-5
1.780e+2, -2.646e-5
1.781e+2, 5.244e-4
1.782e+2, 2.264e-4
1.783e+2, 1.539e-4
1.784e+2, 1.226e-4
1.785e+2, 1.041e-4
1.786e+2, 9.219e-5
1.787e+2, 8.387e-5
1.788e+2, 7.792e-5
1.789e+2, 7.348e-5
1.790e+2, 7.025e-5
1.791e+2, -6.876e-4
1.792e+2, -9.387e-5
1.793e+2, -6.224e-5
1.794e+2, -4.888e-5
1.795e+2, -4.075e-5
1.796e+2, -3.599e-5
1.797e+2, -3.260e-5
1.798e+2, -2.982e-5
1.799e+2, -2.715e-5
1.800e+2, -2.462e-5
1.801e+2, 5.162e-4
1.802e+2, 2.163e-4
1.803e+2, 1.516e-4
1.804e+2, 1.207e-4
1.805e+2, 1.024e-4
1.806e+2, 9.059e-5
1.807e+2, 8.273e-5
1.808e+2, 7.708e-5
1.809e+2, 7.322e-5
1.810e+2, 7.020e-5
