July 1, 2026   11:01:12
Cyclic Voltammetry
File: c:/users/guazh/data/20260623_doe_duplica2/2026-06-24-exp58\exp58-2026-07-01t10_35_07-arkoh\exp58_cv_sr_900mvs_efin_-1900mv.bin
Data Source:  Experiment
Instrument Model:  CHI760E
Header: CV ran at 900 mVs
Note: 

Init E (V) = -1
High E (V) = -1
Low E (V) = -1.9
Final E (V) = -1
Init P/N = N
Scan Rate (V/s) = 0.9
Segment = 3
Sample Interval (V) = 0.001
Quiet Time (sec) = 2
Sensitivity (A/V) = 0.01
Comp R (ohm) = 1.6

Results:

Channel 1:
Segment 1:

Segment 2:

Segment 3:

Potential/V, Current/A

-1.000, 3.239e-6
-1.001, 6.322e-6
-1.002, 6.322e-6
-1.003, 6.322e-6
-1.004, 6.322e-6
-1.005, 6.322e-6
-1.006, 6.322e-6
-1.007, 6.322e-6
-1.008, 6.322e-6
-1.009, 6.322e-6
-1.010, 9.405e-6
-1.011, 9.405e-6
-1.012, 9.405e-6
-1.013, 9.405e-6
-1.014, 9.405e-6
-1.015, 9.405e-6
-1.016, 9.405e-6
-1.017, 9.405e-6
-1.018, 9.405e-6
-1.019, 9.405e-6
-1.020, 9.405e-6
-1.021, 9.405e-6
-1.022, 9.405e-6
-1.023, 9.405e-6
-1.024, 9.405e-6
-1.025, 9.405e-6
-1.026, 9.405e-6
-1.027, 9.405e-6
-1.028, 1.249e-5
-1.029, 1.249e-5
-1.030, 9.405e-6
-1.031, 9.405e-6
-1.032, 9.405e-6
-1.033, 1.249e-5
-1.034, 9.405e-6
-1.035, 1.249e-5
-1.036, 9.405e-6
-1.037, 1.249e-5
-1.038, 9.405e-6
-1.039, 1.249e-5
-1.040, 9.405e-6
-1.041, 9.405e-6
-1.042, 1.249e-5
-1.043, 9.405e-6
-1.044, 1.249e-5
-1.045, 1.249e-5
-1.046, 9.405e-6
-1.047, 1.249e-5
-1.048, 1.249e-5
-1.049, 1.249e-5
-1.050, 1.249e-5
-1.051, 1.249e-5
-1.052, 1.249e-5
-1.053, 1.249e-5
-1.054, 1.249e-5
-1.055, 1.249e-5
-1.056, 1.249e-5
-1.057, 1.249e-5
-1.058, 1.249e-5
-1.059, 1.249e-5
-1.060, 1.249e-5
-1.061, 1.249e-5
-1.062, 1.249e-5
-1.063, 1.249e-5
-1.064, 1.249e-5
-1.065, 1.249e-5
-1.066, 1.249e-5
-1.067, 1.249e-5
-1.068, 1.249e-5
-1.069, 1.249e-5
-1.070, 1.557e-5
-1.071, 1.249e-5
-1.072, 1.249e-5
-1.073, 1.249e-5
-1.074, 1.249e-5
-1.075, 1.557e-5
-1.076, 1.249e-5
-1.077, 1.557e-5
-1.078, 1.249e-5
-1.079, 1.557e-5
-1.080, 1.249e-5
-1.081, 1.557e-5
-1.082, 1.249e-5
-1.083, 1.557e-5
-1.084, 1.557e-5
-1.085, 1.557e-5
-1.086, 1.557e-5
-1.087, 1.557e-5
-1.088, 1.557e-5
-1.089, 1.557e-5
-1.090, 1.557e-5
-1.091, 1.557e-5
-1.092, 1.557e-5
-1.093, 1.557e-5
-1.094, 1.557e-5
-1.095, 1.557e-5
-1.096, 1.557e-5
-1.097, 1.557e-5
-1.098, 1.557e-5
-1.099, 1.557e-5
-1.100, 1.557e-5
-1.101, 1.557e-5
-1.102, 1.557e-5
-1.103, 1.557e-5
-1.104, 1.557e-5
-1.105, 1.557e-5
-1.106, 1.557e-5
-1.107, 1.557e-5
-1.108, 1.557e-5
-1.109, 1.865e-5
-1.110, 1.557e-5
-1.111, 1.865e-5
-1.112, 1.557e-5
-1.113, 1.557e-5
-1.114, 1.865e-5
-1.115, 1.557e-5
-1.116, 1.865e-5
-1.117, 1.865e-5
-1.118, 1.865e-5
-1.119, 1.557e-5
-1.120, 1.865e-5
-1.121, 1.865e-5
-1.122, 1.865e-5
-1.123, 1.865e-5
-1.124, 1.865e-5
-1.125, 1.865e-5
-1.126, 1.865e-5
-1.127, 1.865e-5
-1.128, 1.865e-5
-1.129, 1.865e-5
-1.130, 1.865e-5
-1.131, 1.865e-5
-1.132, 1.865e-5
-1.133, 1.865e-5
-1.134, 1.865e-5
-1.135, 1.865e-5
-1.136, 1.865e-5
-1.137, 1.865e-5
-1.138, 1.865e-5
-1.139, 1.865e-5
-1.140, 1.865e-5
-1.141, 1.865e-5
-1.142, 1.865e-5
-1.143, 1.865e-5
-1.144, 1.865e-5
-1.145, 1.865e-5
-1.146, 1.865e-5
-1.147, 1.865e-5
-1.148, 2.174e-5
-1.149, 1.865e-5
-1.150, 1.865e-5
-1.151, 1.865e-5
-1.152, 1.865e-5
-1.153, 1.865e-5
-1.154, 1.865e-5
-1.155, 2.174e-5
-1.156, 2.174e-5
-1.157, 1.865e-5
-1.158, 2.174e-5
-1.159, 1.865e-5
-1.160, 1.865e-5
-1.161, 1.865e-5
-1.162, 2.174e-5
-1.163, 2.174e-5
-1.164, 2.174e-5
-1.165, 1.865e-5
-1.166, 1.865e-5
-1.167, 1.865e-5
-1.168, 1.865e-5
-1.169, 2.174e-5
-1.170, 2.174e-5
-1.171, 2.174e-5
-1.172, 2.174e-5
-1.173, 2.174e-5
-1.174, 2.174e-5
-1.175, 2.174e-5
-1.176, 2.174e-5
-1.177, 2.174e-5
-1.178, 2.174e-5
-1.179, 2.174e-5
-1.180, 2.174e-5
-1.181, 2.174e-5
-1.182, 2.174e-5
-1.183, 2.174e-5
-1.184, 2.174e-5
-1.185, 2.174e-5
-1.186, 2.174e-5
-1.187, 2.174e-5
-1.188, 2.174e-5
-1.189, 2.174e-5
-1.190, 2.174e-5
-1.191, 2.174e-5
-1.192, 2.174e-5
-1.193, 2.174e-5
-1.194, 2.174e-5
-1.195, 2.174e-5
-1.196, 2.174e-5
-1.197, 2.174e-5
-1.198, 2.174e-5
-1.199, 2.174e-5
-1.200, 2.174e-5
-1.201, 2.482e-5
-1.202, 2.174e-5
-1.203, 2.174e-5
-1.204, 2.174e-5
-1.205, 2.174e-5
-1.206, 2.174e-5
-1.207, 2.174e-5
-1.208, 2.482e-5
-1.209, 2.174e-5
-1.210, 2.174e-5
-1.211, 2.174e-5
-1.212, 2.174e-5
-1.213, 2.174e-5
-1.214, 2.174e-5
-1.215, 2.174e-5
-1.216, 2.482e-5
-1.217, 2.482e-5
-1.218, 2.174e-5
-1.219, 2.174e-5
-1.220, 2.482e-5
-1.221, 2.174e-5
-1.222, 2.174e-5
-1.223, 2.174e-5
-1.224, 2.482e-5
-1.225, 2.482e-5
-1.226, 2.482e-5
-1.227, 2.482e-5
-1.228, 2.174e-5
-1.229, 2.482e-5
-1.230, 2.482e-5
-1.231, 2.482e-5
-1.232, 2.482e-5
-1.233, 2.482e-5
-1.234, 2.482e-5
-1.235, 2.482e-5
-1.236, 2.482e-5
-1.237, 2.482e-5
-1.238, 2.482e-5
-1.239, 2.482e-5
-1.240, 2.482e-5
-1.241, 2.482e-5
-1.242, 2.482e-5
-1.243, 2.482e-5
-1.244, 2.482e-5
-1.245, 2.482e-5
-1.246, 2.482e-5
-1.247, 2.482e-5
-1.248, 2.482e-5
-1.249, 2.482e-5
-1.250, 2.482e-5
-1.251, 2.482e-5
-1.252, 2.482e-5
-1.253, 2.482e-5
-1.254, 2.482e-5
-1.255, 2.482e-5
-1.256, 2.482e-5
-1.257, 2.482e-5
-1.258, 2.482e-5
-1.259, 2.482e-5
-1.260, 2.482e-5
-1.261, 2.790e-5
-1.262, 2.790e-5
-1.263, 2.482e-5
-1.264, 2.482e-5
-1.265, 2.482e-5
-1.266, 2.482e-5
-1.267, 2.482e-5
-1.268, 2.790e-5
-1.269, 2.482e-5
-1.270, 2.790e-5
-1.271, 2.790e-5
-1.272, 2.482e-5
-1.273, 2.790e-5
-1.274, 2.790e-5
-1.275, 2.790e-5
-1.276, 2.790e-5
-1.277, 2.482e-5
-1.278, 2.790e-5
-1.279, 2.790e-5
-1.280, 2.790e-5
-1.281, 2.790e-5
-1.282, 2.790e-5
-1.283, 2.790e-5
-1.284, 2.790e-5
-1.285, 2.790e-5
-1.286, 2.790e-5
-1.287, 2.790e-5
-1.288, 2.790e-5
-1.289, 2.790e-5
-1.290, 2.790e-5
-1.291, 2.790e-5
-1.292, 2.790e-5
-1.293, 2.790e-5
-1.294, 2.790e-5
-1.295, 2.790e-5
-1.296, 2.790e-5
-1.297, 2.790e-5
-1.298, 2.790e-5
-1.299, 2.790e-5
-1.300, 2.790e-5
-1.301, 2.790e-5
-1.302, 2.790e-5
-1.303, 2.790e-5
-1.304, 2.790e-5
-1.305, 3.099e-5
-1.306, 3.099e-5
-1.307, 3.099e-5
-1.308, 3.099e-5
-1.309, 3.099e-5
-1.310, 3.099e-5
-1.311, 3.099e-5
-1.312, 3.099e-5
-1.313, 3.099e-5
-1.314, 3.099e-5
-1.315, 3.099e-5
-1.316, 3.099e-5
-1.317, 3.099e-5
-1.318, 3.099e-5
-1.319, 3.099e-5
-1.320, 3.099e-5
-1.321, 3.099e-5
-1.322, 3.099e-5
-1.323, 3.099e-5
-1.324, 3.099e-5
-1.325, 3.099e-5
-1.326, 3.407e-5
-1.327, 3.407e-5
-1.328, 3.407e-5
-1.329, 3.407e-5
-1.330, 3.715e-5
-1.331, 3.715e-5
-1.332, 4.024e-5
-1.333, 4.024e-5
-1.334, 4.024e-5
-1.335, 4.024e-5
-1.336, 4.024e-5
-1.337, 4.024e-5
-1.338, 4.024e-5
-1.339, 4.024e-5
-1.340, 4.024e-5
-1.341, 3.715e-5
-1.342, 3.715e-5
-1.343, 3.715e-5
-1.344, 3.715e-5
-1.345, 3.715e-5
-1.346, 3.715e-5
-1.347, 3.715e-5
-1.348, 3.715e-5
-1.349, 3.715e-5
-1.350, 3.715e-5
-1.351, 3.715e-5
-1.352, 3.715e-5
-1.353, 3.715e-5
-1.354, 3.715e-5
-1.355, 3.715e-5
-1.356, 3.715e-5
-1.357, 3.715e-5
-1.358, 4.024e-5
-1.359, 3.715e-5
-1.360, 4.024e-5
-1.361, 3.715e-5
-1.362, 4.024e-5
-1.363, 3.715e-5
-1.364, 3.715e-5
-1.365, 4.024e-5
-1.366, 4.024e-5
-1.367, 4.024e-5
-1.368, 4.024e-5
-1.369, 4.024e-5
-1.370, 4.024e-5
-1.371, 4.024e-5
-1.372, 4.024e-5
-1.373, 4.024e-5
-1.374, 4.024e-5
-1.375, 4.024e-5
-1.376, 4.332e-5
-1.377, 4.024e-5
-1.378, 4.024e-5
-1.379, 4.332e-5
-1.380, 4.332e-5
-1.381, 4.332e-5
-1.382, 4.332e-5
-1.383, 4.332e-5
-1.384, 4.332e-5
-1.385, 4.332e-5
-1.386, 4.332e-5
-1.387, 4.332e-5
-1.388, 4.332e-5
-1.389, 4.332e-5
-1.390, 4.640e-5
-1.391, 4.332e-5
-1.392, 4.332e-5
-1.393, 4.332e-5
-1.394, 4.332e-5
-1.395, 4.640e-5
-1.396, 4.332e-5
-1.397, 4.332e-5
-1.398, 4.640e-5
-1.399, 4.640e-5
-1.400, 4.640e-5
-1.401, 4.640e-5
-1.402, 4.640e-5
-1.403, 4.640e-5
-1.404, 4.640e-5
-1.405, 4.640e-5
-1.406, 4.640e-5
-1.407, 4.640e-5
-1.408, 4.640e-5
-1.409, 4.640e-5
-1.410, 4.640e-5
-1.411, 4.949e-5
-1.412, 4.640e-5
-1.413, 4.640e-5
-1.414, 4.640e-5
-1.415, 4.640e-5
-1.416, 4.640e-5
-1.417, 4.640e-5
-1.418, 4.949e-5
-1.419, 4.949e-5
-1.420, 4.949e-5
-1.421, 4.949e-5
-1.422, 4.949e-5
-1.423, 4.640e-5
-1.424, 4.949e-5
-1.425, 4.949e-5
-1.426, 4.949e-5
-1.427, 4.949e-5
-1.428, 4.949e-5
-1.429, 5.257e-5
-1.430, 4.949e-5
-1.431, 4.949e-5
-1.432, 5.257e-5
-1.433, 5.257e-5
-1.434, 5.257e-5
-1.435, 5.257e-5
-1.436, 5.257e-5
-1.437, 5.257e-5
-1.438, 5.257e-5
-1.439, 5.257e-5
-1.440, 5.257e-5
-1.441, 5.565e-5
-1.442, 5.257e-5
-1.443, 5.257e-5
-1.444, 5.257e-5
-1.445, 5.257e-5
-1.446, 5.257e-5
-1.447, 5.257e-5
-1.448, 5.565e-5
-1.449, 5.565e-5
-1.450, 5.565e-5
-1.451, 5.565e-5
-1.452, 5.565e-5
-1.453, 5.565e-5
-1.454, 5.565e-5
-1.455, 5.565e-5
-1.456, 5.873e-5
-1.457, 5.873e-5
-1.458, 5.873e-5
-1.459, 5.873e-5
-1.460, 5.873e-5
-1.461, 5.873e-5
-1.462, 5.873e-5
-1.463, 5.873e-5
-1.464, 6.182e-5
-1.465, 5.873e-5
-1.466, 6.182e-5
-1.467, 6.182e-5
-1.468, 6.182e-5
-1.469, 6.182e-5
-1.470, 6.182e-5
-1.471, 6.182e-5
-1.472, 6.182e-5
-1.473, 6.182e-5
-1.474, 6.182e-5
-1.475, 6.490e-5
-1.476, 6.490e-5
-1.477, 6.490e-5
-1.478, 6.490e-5
-1.479, 6.490e-5
-1.480, 6.490e-5
-1.481, 6.798e-5
-1.482, 6.798e-5
-1.483, 6.798e-5
-1.484, 6.798e-5
-1.485, 6.798e-5
-1.486, 6.798e-5
-1.487, 7.107e-5
-1.488, 7.107e-5
-1.489, 7.107e-5
-1.490, 7.107e-5
-1.491, 7.107e-5
-1.492, 7.107e-5
-1.493, 7.107e-5
-1.494, 7.415e-5
-1.495, 7.107e-5
-1.496, 7.415e-5
-1.497, 7.415e-5
-1.498, 7.415e-5
-1.499, 7.415e-5
-1.500, 7.415e-5
-1.501, 7.723e-5
-1.502, 7.415e-5
-1.503, 7.723e-5
-1.504, 7.723e-5
-1.505, 7.723e-5
-1.506, 7.723e-5
-1.507, 7.723e-5
-1.508, 8.032e-5
-1.509, 8.032e-5
-1.510, 8.032e-5
-1.511, 8.032e-5
-1.512, 8.340e-5
-1.513, 8.340e-5
-1.514, 8.340e-5
-1.515, 8.340e-5
-1.516, 8.340e-5
-1.517, 8.340e-5
-1.518, 8.340e-5
-1.519, 8.648e-5
-1.520, 8.648e-5
-1.521, 8.957e-5
-1.522, 8.957e-5
-1.523, 8.957e-5
-1.524, 9.265e-5
-1.525, 9.265e-5
-1.526, 9.265e-5
-1.527, 9.265e-5
-1.528, 9.265e-5
-1.529, 9.265e-5
-1.530, 9.265e-5
-1.531, 9.265e-5
-1.532, 9.265e-5
-1.533, 9.265e-5
-1.534, 9.573e-5
-1.535, 9.573e-5
-1.536, 9.573e-5
-1.537, 9.882e-5
-1.538, 9.882e-5
-1.539, 9.882e-5
-1.540, 9.882e-5
-1.541, 9.882e-5
-1.542, 1.019e-4
-1.543, 1.019e-4
-1.544, 1.050e-4
-1.545, 1.081e-4
-1.546, 1.050e-4
-1.547, 1.050e-4
-1.548, 1.081e-4
-1.549, 1.081e-4
-1.550, 1.081e-4
-1.551, 1.081e-4
-1.552, 1.081e-4
-1.553, 1.111e-4
-1.554, 1.111e-4
-1.555, 1.111e-4
-1.556, 1.142e-4
-1.557, 1.142e-4
-1.558, 1.142e-4
-1.559, 1.142e-4
-1.560, 1.173e-4
-1.561, 1.173e-4
-1.562, 1.173e-4
-1.563, 1.204e-4
-1.564, 1.204e-4
-1.565, 1.204e-4
-1.566, 1.235e-4
-1.567, 1.235e-4
-1.568, 1.266e-4
-1.569, 1.235e-4
-1.570, 1.266e-4
-1.571, 1.266e-4
-1.572, 1.266e-4
-1.573, 1.296e-4
-1.574, 1.296e-4
-1.575, 1.296e-4
-1.576, 1.327e-4
-1.577, 1.327e-4
-1.578, 1.327e-4
-1.579, 1.358e-4
-1.580, 1.358e-4
-1.581, 1.389e-4
-1.582, 1.389e-4
-1.583, 1.389e-4
-1.584, 1.420e-4
-1.585, 1.389e-4
-1.586, 1.420e-4
-1.587, 1.451e-4
-1.588, 1.451e-4
-1.589, 1.451e-4
-1.590, 1.451e-4
-1.591, 1.481e-4
-1.592, 1.481e-4
-1.593, 1.481e-4
-1.594, 1.512e-4
-1.595, 1.512e-4
-1.596, 1.512e-4
-1.597, 1.512e-4
-1.598, 1.543e-4
-1.599, 1.543e-4
-1.600, 1.574e-4
-1.601, 1.605e-4
-1.602, 1.605e-4
-1.603, 1.636e-4
-1.604, 1.636e-4
-1.605, 1.636e-4
-1.606, 1.666e-4
-1.607, 1.666e-4
-1.608, 1.697e-4
-1.609, 1.728e-4
-1.610, 1.697e-4
-1.611, 1.697e-4
-1.612, 1.759e-4
-1.613, 1.759e-4
-1.614, 1.790e-4
-1.615, 1.759e-4
-1.616, 1.821e-4
-1.617, 1.821e-4
-1.618, 1.851e-4
-1.619, 1.851e-4
-1.620, 1.882e-4
-1.621, 1.882e-4
-1.622, 1.882e-4
-1.623, 1.944e-4
-1.624, 1.913e-4
-1.625, 1.975e-4
-1.626, 1.975e-4
-1.627, 1.975e-4
-1.628, 1.975e-4
-1.629, 2.006e-4
-1.630, 2.036e-4
-1.631, 2.036e-4
-1.632, 2.067e-4
-1.633, 2.067e-4
-1.634, 2.098e-4
-1.635, 2.129e-4
-1.636, 2.129e-4
-1.637, 2.129e-4
-1.638, 2.191e-4
-1.639, 2.221e-4
-1.640, 2.221e-4
-1.641, 2.252e-4
-1.642, 2.252e-4
-1.643, 2.283e-4
-1.644, 2.283e-4
-1.645, 2.314e-4
-1.646, 2.314e-4
-1.647, 2.345e-4
-1.648, 2.376e-4
-1.649, 2.406e-4
-1.650, 2.437e-4
-1.651, 2.437e-4
-1.652, 2.437e-4
-1.653, 2.468e-4
-1.654, 2.499e-4
-1.655, 2.530e-4
-1.656, 2.530e-4
-1.657, 2.561e-4
-1.658, 2.622e-4
-1.659, 2.591e-4
-1.660, 2.622e-4
-1.661, 2.653e-4
-1.662, 2.684e-4
-1.663, 2.684e-4
-1.664, 2.715e-4
-1.665, 2.746e-4
-1.666, 2.776e-4
-1.667, 2.776e-4
-1.668, 2.807e-4
-1.669, 2.807e-4
-1.670, 2.838e-4
-1.671, 2.900e-4
-1.672, 2.931e-4
-1.673, 2.961e-4
-1.674, 2.961e-4
-1.675, 2.961e-4
-1.676, 2.992e-4
-1.677, 3.023e-4
-1.678, 3.054e-4
-1.679, 3.115e-4
-1.680, 3.115e-4
-1.681, 3.208e-4
-1.682, 3.270e-4
-1.683, 3.270e-4
-1.684, 3.331e-4
-1.685, 3.393e-4
-1.686, 3.362e-4
-1.687, 3.424e-4
-1.688, 3.455e-4
-1.689, 3.516e-4
-1.690, 3.547e-4
-1.691, 3.547e-4
-1.692, 3.609e-4
-1.693, 3.609e-4
-1.694, 3.670e-4
-1.695, 3.670e-4
-1.696, 3.701e-4
-1.697, 3.763e-4
-1.698, 3.794e-4
-1.699, 3.794e-4
-1.700, 3.825e-4
-1.701, 3.855e-4
-1.702, 3.917e-4
-1.703, 3.917e-4
-1.704, 3.979e-4
-1.705, 4.040e-4
-1.706, 4.102e-4
-1.707, 4.102e-4
-1.708, 4.164e-4
-1.709, 4.195e-4
-1.710, 4.225e-4
-1.711, 4.256e-4
-1.712, 4.256e-4
-1.713, 4.318e-4
-1.714, 4.349e-4
-1.715, 4.410e-4
-1.716, 4.441e-4
-1.717, 4.503e-4
-1.718, 4.503e-4
-1.719, 4.565e-4
-1.720, 4.626e-4
-1.721, 4.657e-4
-1.722, 4.688e-4
-1.723, 4.750e-4
-1.724, 4.780e-4
-1.725, 4.842e-4
-1.726, 4.842e-4
-1.727, 4.904e-4
-1.728, 4.965e-4
-1.729, 5.027e-4
-1.730, 5.120e-4
-1.731, 5.181e-4
-1.732, 5.181e-4
-1.733, 5.274e-4
-1.734, 5.335e-4
-1.735, 5.274e-4
-1.736, 5.335e-4
-1.737, 5.428e-4
-1.738, 5.489e-4
-1.739, 5.551e-4
-1.740, 5.551e-4
-1.741, 5.674e-4
-1.742, 5.705e-4
-1.743, 5.736e-4
-1.744, 5.829e-4
-1.745, 5.859e-4
-1.746, 5.890e-4
-1.747, 5.952e-4
-1.748, 6.044e-4
-1.749, 6.044e-4
-1.750, 6.106e-4
-1.751, 6.199e-4
-1.752, 6.260e-4
-1.753, 6.291e-4
-1.754, 6.353e-4
-1.755, 6.414e-4
-1.756, 6.476e-4
-1.757, 6.569e-4
-1.758, 6.569e-4
-1.759, 6.692e-4
-1.760, 6.784e-4
-1.761, 6.815e-4
-1.762, 6.846e-4
-1.763, 6.969e-4
-1.764, 7.000e-4
-1.765, 7.062e-4
-1.766, 7.124e-4
-1.767, 7.124e-4
-1.768, 7.216e-4
-1.769, 7.309e-4
-1.770, 7.370e-4
-1.771, 7.432e-4
-1.772, 7.494e-4
-1.773, 7.524e-4
-1.774, 7.648e-4
-1.775, 7.709e-4
-1.776, 7.771e-4
-1.777, 7.894e-4
-1.778, 7.956e-4
-1.779, 8.079e-4
-1.780, 8.172e-4
-1.781, 8.203e-4
-1.782, 8.233e-4
-1.783, 8.295e-4
-1.784, 8.264e-4
-1.785, 8.480e-4
-1.786, 8.573e-4
-1.787, 8.603e-4
-1.788, 8.696e-4
-1.789, 8.819e-4
-1.790, 8.850e-4
-1.791, 8.912e-4
-1.792, 9.004e-4
-1.793, 9.097e-4
-1.794, 9.158e-4
-1.795, 9.251e-4
-1.796, 9.343e-4
-1.797, 9.498e-4
-1.798, 9.652e-4
-1.799, 9.744e-4
-1.800, 9.806e-4
-1.801, 9.898e-4
-1.802, 9.960e-4
-1.803, 1.005e-3
-1.804, 1.024e-3
-1.805, 1.036e-3
-1.806, 1.048e-3
-1.807, 1.061e-3
-1.808, 1.067e-3
-1.809, 1.085e-3
-1.810, 1.095e-3
-1.811, 1.098e-3
-1.812, 1.110e-3
-1.813, 1.125e-3
-1.814, 1.138e-3
-1.815, 1.138e-3
-1.816, 1.144e-3
-1.817, 1.150e-3
-1.818, 1.175e-3
-1.819, 1.187e-3
-1.820, 1.193e-3
-1.821, 1.206e-3
-1.822, 1.221e-3
-1.823, 1.221e-3
-1.824, 1.246e-3
-1.825, 1.264e-3
-1.826, 1.283e-3
-1.827, 1.289e-3
-1.828, 1.304e-3
-1.829, 1.310e-3
-1.830, 1.326e-3
-1.831, 1.344e-3
-1.832, 1.354e-3
-1.833, 1.369e-3
-1.834, 1.394e-3
-1.835, 1.440e-3
-1.836, 1.437e-3
-1.837, 1.465e-3
-1.838, 1.474e-3
-1.839, 1.502e-3
-1.840, 1.532e-3
-1.841, 1.551e-3
-1.842, 1.591e-3
-1.843, 1.585e-3
-1.844, 1.606e-3
-1.845, 1.606e-3
-1.846, 1.619e-3
-1.847, 1.628e-3
-1.848, 1.659e-3
-1.849, 1.690e-3
-1.850, 1.693e-3
-1.851, 1.705e-3
-1.852, 1.724e-3
-1.853, 1.745e-3
-1.854, 1.770e-3
-1.855, 1.791e-3
-1.856, 1.819e-3
-1.857, 1.850e-3
-1.858, 1.872e-3
-1.859, 1.887e-3
-1.860, 1.912e-3
-1.861, 1.939e-3
-1.862, 1.964e-3
-1.863, 1.986e-3
-1.864, 2.004e-3
-1.865, 2.029e-3
-1.866, 2.060e-3
-1.867, 2.084e-3
-1.868, 2.106e-3
-1.869, 2.134e-3
-1.870, 2.149e-3
-1.871, 2.177e-3
-1.872, 2.211e-3
-1.873, 2.248e-3
-1.874, 2.248e-3
-1.875, 2.291e-3
-1.876, 2.328e-3
-1.877, 2.362e-3
-1.878, 2.396e-3
-1.879, 2.436e-3
-1.880, 2.470e-3
-1.881, 2.491e-3
-1.882, 2.516e-3
-1.883, 2.553e-3
-1.884, 2.584e-3
-1.885, 2.618e-3
-1.886, 2.649e-3
-1.887, 2.686e-3
-1.888, 2.735e-3
-1.889, 2.760e-3
-1.890, 2.812e-3
-1.891, 2.840e-3
-1.892, 2.883e-3
-1.893, 2.904e-3
-1.894, 2.929e-3
-1.895, 2.985e-3
-1.896, 3.022e-3
-1.897, 3.059e-3
-1.898, 3.093e-3
-1.899, 3.148e-3
-1.900, 3.167e-3
-1.899, 3.148e-3
-1.898, 3.126e-3
-1.897, 3.114e-3
-1.896, 3.102e-3
-1.895, 3.086e-3
-1.894, 3.068e-3
-1.893, 3.052e-3
-1.892, 3.034e-3
-1.891, 3.009e-3
-1.890, 2.991e-3
-1.889, 2.978e-3
-1.888, 2.945e-3
-1.887, 2.951e-3
-1.886, 2.911e-3
-1.885, 2.895e-3
-1.884, 2.880e-3
-1.883, 2.849e-3
-1.882, 2.812e-3
-1.881, 2.806e-3
-1.880, 2.775e-3
-1.879, 2.760e-3
-1.878, 2.741e-3
-1.877, 2.729e-3
-1.876, 2.692e-3
-1.875, 2.676e-3
-1.874, 2.636e-3
-1.873, 2.621e-3
-1.872, 2.590e-3
-1.871, 2.578e-3
-1.870, 2.565e-3
-1.869, 2.544e-3
-1.868, 2.519e-3
-1.867, 2.494e-3
-1.866, 2.482e-3
-1.865, 2.445e-3
-1.864, 2.433e-3
-1.863, 2.396e-3
-1.862, 2.383e-3
-1.861, 2.356e-3
-1.860, 2.343e-3
-1.859, 2.328e-3
-1.858, 2.297e-3
-1.857, 2.297e-3
-1.856, 2.263e-3
-1.855, 2.242e-3
-1.854, 2.211e-3
-1.853, 2.195e-3
-1.852, 2.174e-3
-1.851, 2.152e-3
-1.850, 2.124e-3
-1.849, 2.118e-3
-1.848, 2.097e-3
-1.847, 2.072e-3
-1.846, 2.060e-3
-1.845, 2.047e-3
-1.844, 2.023e-3
-1.843, 1.998e-3
-1.842, 1.976e-3
-1.841, 1.961e-3
-1.840, 1.939e-3
-1.839, 1.924e-3
-1.838, 1.893e-3
-1.837, 1.872e-3
-1.836, 1.872e-3
-1.835, 1.859e-3
-1.834, 1.832e-3
-1.833, 1.819e-3
-1.832, 1.801e-3
-1.831, 1.779e-3
-1.830, 1.767e-3
-1.829, 1.745e-3
-1.828, 1.739e-3
-1.827, 1.727e-3
-1.826, 1.699e-3
-1.825, 1.680e-3
-1.824, 1.659e-3
-1.823, 1.653e-3
-1.822, 1.634e-3
-1.821, 1.634e-3
-1.820, 1.613e-3
-1.819, 1.591e-3
-1.818, 1.579e-3
-1.817, 1.560e-3
-1.816, 1.545e-3
-1.815, 1.536e-3
-1.814, 1.508e-3
-1.813, 1.505e-3
-1.812, 1.483e-3
-1.811, 1.474e-3
-1.810, 1.465e-3
-1.809, 1.449e-3
-1.808, 1.440e-3
-1.807, 1.431e-3
-1.806, 1.400e-3
-1.805, 1.388e-3
-1.804, 1.378e-3
-1.803, 1.366e-3
-1.802, 1.351e-3
-1.801, 1.338e-3
-1.800, 1.320e-3
-1.799, 1.310e-3
-1.798, 1.295e-3
-1.797, 1.289e-3
-1.796, 1.280e-3
-1.795, 1.273e-3
-1.794, 1.255e-3
-1.793, 1.246e-3
-1.792, 1.227e-3
-1.791, 1.212e-3
-1.790, 1.206e-3
-1.789, 1.184e-3
-1.788, 1.184e-3
-1.787, 1.166e-3
-1.786, 1.159e-3
-1.785, 1.147e-3
-1.784, 1.141e-3
-1.783, 1.129e-3
-1.782, 1.119e-3
-1.781, 1.107e-3
-1.780, 1.101e-3
-1.779, 1.085e-3
-1.778, 1.076e-3
-1.777, 1.073e-3
-1.776, 1.058e-3
-1.775, 1.045e-3
-1.774, 1.039e-3
-1.773, 1.033e-3
-1.772, 1.024e-3
-1.771, 1.011e-3
-1.770, 1.005e-3
-1.769, 9.929e-4
-1.768, 9.837e-4
-1.767, 9.775e-4
-1.766, 9.652e-4
-1.765, 9.467e-4
-1.764, 9.436e-4
-1.763, 9.343e-4
-1.762, 9.220e-4
-1.761, 9.128e-4
-1.760, 9.066e-4
-1.759, 9.097e-4
-1.758, 8.973e-4
-1.757, 8.943e-4
-1.756, 8.850e-4
-1.755, 8.727e-4
-1.754, 8.603e-4
-1.753, 8.511e-4
-1.752, 8.511e-4
-1.751, 8.388e-4
-1.750, 8.233e-4
-1.749, 8.110e-4
-1.748, 8.141e-4
-1.747, 8.018e-4
-1.746, 7.956e-4
-1.745, 7.833e-4
-1.744, 7.833e-4
-1.743, 7.802e-4
-1.742, 7.709e-4
-1.741, 7.555e-4
-1.740, 7.524e-4
-1.739, 7.555e-4
-1.738, 7.401e-4
-1.737, 7.309e-4
-1.736, 7.278e-4
-1.735, 7.216e-4
-1.734, 7.185e-4
-1.733, 7.093e-4
-1.732, 6.969e-4
-1.731, 6.846e-4
-1.730, 6.846e-4
-1.729, 6.815e-4
-1.728, 6.692e-4
-1.727, 6.630e-4
-1.726, 6.569e-4
-1.725, 6.507e-4
-1.724, 6.476e-4
-1.723, 6.384e-4
-1.722, 6.291e-4
-1.721, 6.260e-4
-1.720, 6.260e-4
-1.719, 6.199e-4
-1.718, 6.168e-4
-1.717, 6.137e-4
-1.716, 6.075e-4
-1.715, 5.983e-4
-1.714, 5.952e-4
-1.713, 5.890e-4
-1.712, 5.859e-4
-1.711, 5.767e-4
-1.710, 5.705e-4
-1.709, 5.644e-4
-1.708, 5.613e-4
-1.707, 5.582e-4
-1.706, 5.520e-4
-1.705, 5.428e-4
-1.704, 5.397e-4
-1.703, 5.305e-4
-1.702, 5.243e-4
-1.701, 5.181e-4
-1.700, 5.181e-4
-1.699, 5.120e-4
-1.698, 5.058e-4
-1.697, 5.027e-4
-1.696, 4.965e-4
-1.695, 4.935e-4
-1.694, 4.873e-4
-1.693, 4.811e-4
-1.692, 4.750e-4
-1.691, 4.719e-4
-1.690, 4.688e-4
-1.689, 4.657e-4
-1.688, 4.565e-4
-1.687, 4.534e-4
-1.686, 4.503e-4
-1.685, 4.472e-4
-1.684, 4.380e-4
-1.683, 4.349e-4
-1.682, 4.318e-4
-1.681, 4.287e-4
-1.680, 4.256e-4
-1.679, 4.164e-4
-1.678, 4.133e-4
-1.677, 4.071e-4
-1.676, 4.040e-4
-1.675, 4.040e-4
-1.674, 3.979e-4
-1.673, 3.917e-4
-1.672, 3.886e-4
-1.671, 3.825e-4
-1.670, 3.825e-4
-1.669, 3.763e-4
-1.668, 3.732e-4
-1.667, 3.670e-4
-1.666, 3.670e-4
-1.665, 3.640e-4
-1.664, 3.609e-4
-1.663, 3.578e-4
-1.662, 3.516e-4
-1.661, 3.485e-4
-1.660, 3.455e-4
-1.659, 3.424e-4
-1.658, 3.393e-4
-1.657, 3.331e-4
-1.656, 3.300e-4
-1.655, 3.270e-4
-1.654, 3.300e-4
-1.653, 3.239e-4
-1.652, 3.208e-4
-1.651, 3.177e-4
-1.650, 3.146e-4
-1.649, 3.085e-4
-1.648, 3.054e-4
-1.647, 2.992e-4
-1.646, 2.961e-4
-1.645, 2.931e-4
-1.644, 2.900e-4
-1.643, 2.869e-4
-1.642, 2.869e-4
-1.641, 2.807e-4
-1.640, 2.776e-4
-1.639, 2.746e-4
-1.638, 2.684e-4
-1.637, 2.684e-4
-1.636, 2.653e-4
-1.635, 2.653e-4
-1.634, 2.591e-4
-1.633, 2.591e-4
-1.632, 2.530e-4
-1.631, 2.530e-4
-1.630, 2.499e-4
-1.629, 2.468e-4
-1.628, 2.437e-4
-1.627, 2.406e-4
-1.626, 2.376e-4
-1.625, 2.345e-4
-1.624, 2.314e-4
-1.623, 2.283e-4
-1.622, 2.252e-4
-1.621, 2.221e-4
-1.620, 2.221e-4
-1.619, 2.221e-4
-1.618, 2.160e-4
-1.617, 2.191e-4
-1.616, 2.129e-4
-1.615, 2.098e-4
-1.614, 2.098e-4
-1.613, 2.036e-4
-1.612, 2.036e-4
-1.611, 2.006e-4
-1.610, 2.006e-4
-1.609, 1.944e-4
-1.608, 1.944e-4
-1.607, 1.882e-4
-1.606, 1.882e-4
-1.605, 1.851e-4
-1.604, 1.851e-4
-1.603, 1.851e-4
-1.602, 1.821e-4
-1.601, 1.790e-4
-1.600, 1.759e-4
-1.599, 1.728e-4
-1.598, 1.728e-4
-1.597, 1.666e-4
-1.596, 1.666e-4
-1.595, 1.636e-4
-1.594, 1.636e-4
-1.593, 1.605e-4
-1.592, 1.605e-4
-1.591, 1.574e-4
-1.590, 1.543e-4
-1.589, 1.543e-4
-1.588, 1.512e-4
-1.587, 1.512e-4
-1.586, 1.451e-4
-1.585, 1.451e-4
-1.584, 1.420e-4
-1.583, 1.420e-4
-1.582, 1.389e-4
-1.581, 1.389e-4
-1.580, 1.358e-4
-1.579, 1.358e-4
-1.578, 1.327e-4
-1.577, 1.296e-4
-1.576, 1.296e-4
-1.575, 1.296e-4
-1.574, 1.266e-4
-1.573, 1.235e-4
-1.572, 1.235e-4
-1.571, 1.204e-4
-1.570, 1.173e-4
-1.569, 1.173e-4
-1.568, 1.142e-4
-1.567, 1.142e-4
-1.566, 1.111e-4
-1.565, 1.111e-4
-1.564, 1.111e-4
-1.563, 1.111e-4
-1.562, 1.081e-4
-1.561, 1.050e-4
-1.560, 1.050e-4
-1.559, 1.050e-4
-1.558, 1.019e-4
-1.557, 1.019e-4
-1.556, 9.882e-5
-1.555, 9.882e-5
-1.554, 9.882e-5
-1.553, 9.573e-5
-1.552, 9.882e-5
-1.551, 9.573e-5
-1.550, 9.573e-5
-1.549, 9.265e-5
-1.548, 8.957e-5
-1.547, 8.957e-5
-1.546, 8.957e-5
-1.545, 8.648e-5
-1.544, 8.340e-5
-1.543, 8.648e-5
-1.542, 8.340e-5
-1.541, 8.340e-5
-1.540, 7.723e-5
-1.539, 8.032e-5
-1.538, 7.723e-5
-1.537, 7.415e-5
-1.536, 7.415e-5
-1.535, 7.415e-5
-1.534, 7.415e-5
-1.533, 7.107e-5
-1.532, 7.107e-5
-1.531, 6.798e-5
-1.530, 6.798e-5
-1.529, 6.490e-5
-1.528, 6.490e-5
-1.527, 6.490e-5
-1.526, 6.182e-5
-1.525, 6.182e-5
-1.524, 6.182e-5
-1.523, 5.873e-5
-1.522, 5.873e-5
-1.521, 5.873e-5
-1.520, 5.873e-5
-1.519, 5.565e-5
-1.518, 5.565e-5
-1.517, 5.565e-5
-1.516, 5.565e-5
-1.515, 5.873e-5
-1.514, 5.873e-5
-1.513, 5.565e-5
-1.512, 5.257e-5
-1.511, 5.257e-5
-1.510, 4.949e-5
-1.509, 4.949e-5
-1.508, 4.949e-5
-1.507, 4.640e-5
-1.506, 4.640e-5
-1.505, 4.640e-5
-1.504, 4.640e-5
-1.503, 4.332e-5
-1.502, 4.332e-5
-1.501, 4.024e-5
-1.500, 4.024e-5
-1.499, 4.024e-5
-1.498, 4.024e-5
-1.497, 3.715e-5
-1.496, 3.715e-5
-1.495, 3.715e-5
-1.494, 3.715e-5
-1.493, 3.715e-5
-1.492, 3.407e-5
-1.491, 3.407e-5
-1.490, 3.407e-5
-1.489, 3.407e-5
-1.488, 3.099e-5
-1.487, 3.099e-5
-1.486, 3.099e-5
-1.485, 3.099e-5
-1.484, 3.099e-5
-1.483, 2.790e-5
-1.482, 2.790e-5
-1.481, 2.790e-5
-1.480, 2.790e-5
-1.479, 2.790e-5
-1.478, 2.790e-5
-1.477, 2.482e-5
-1.476, 2.482e-5
-1.475, 2.482e-5
-1.474, 2.482e-5
-1.473, 2.174e-5
-1.472, 2.482e-5
-1.471, 2.174e-5
-1.470, 2.482e-5
-1.469, 2.174e-5
-1.468, 2.174e-5
-1.467, 2.174e-5
-1.466, 1.865e-5
-1.465, 2.174e-5
-1.464, 1.865e-5
-1.463, 1.865e-5
-1.462, 1.865e-5
-1.461, 1.865e-5
-1.460, 1.865e-5
-1.459, 1.557e-5
-1.458, 1.557e-5
-1.457, 1.557e-5
-1.456, 1.557e-5
-1.455, 1.557e-5
-1.454, 1.557e-5
-1.453, 1.557e-5
-1.452, 1.557e-5
-1.451, 1.557e-5
-1.450, 1.249e-5
-1.449, 1.557e-5
-1.448, 1.249e-5
-1.447, 1.249e-5
-1.446, 1.249e-5
-1.445, 1.249e-5
-1.444, 1.249e-5
-1.443, 9.405e-6
-1.442, 9.405e-6
-1.441, 9.405e-6
-1.440, 9.405e-6
-1.439, 9.405e-6
-1.438, 9.405e-6
-1.437, 9.405e-6
-1.436, 9.405e-6
-1.435, 9.405e-6
-1.434, 9.405e-6
-1.433, 9.405e-6
-1.432, 6.322e-6
-1.431, 9.405e-6
-1.430, 6.322e-6
-1.429, 6.322e-6
-1.428, 6.322e-6
-1.427, 6.322e-6
-1.426, 6.322e-6
-1.425, 3.239e-6
-1.424, 6.322e-6
-1.423, 3.239e-6
-1.422, 6.322e-6
-1.421, 3.239e-6
-1.420, 3.239e-6
-1.419, 3.239e-6
-1.418, 3.239e-6
-1.417, 3.239e-6
-1.416, 3.239e-6
-1.415, 3.239e-6
-1.414, 3.239e-6
-1.413, 3.239e-6
-1.412, 3.239e-6
-1.411, 3.239e-6
-1.410, 3.239e-6
-1.409, 3.239e-6
-1.408, 1.559e-7
-1.407, 3.239e-6
-1.406, 1.559e-7
-1.405, 1.559e-7
-1.404, 1.559e-7
-1.403, 1.559e-7
-1.402, 1.559e-7
-1.401, 1.559e-7
-1.400, 1.559e-7
-1.399, 1.559e-7
-1.398, 1.559e-7
-1.397, 1.559e-7
-1.396, 1.559e-7
-1.395, 1.559e-7
-1.394, 1.559e-7
-1.393, 1.559e-7
-1.392, 1.559e-7
-1.391, -2.927e-6
-1.390, -2.927e-6
-1.389, -2.927e-6
-1.388, -2.927e-6
-1.387, -2.927e-6
-1.386, -2.927e-6
-1.385, 1.559e-7
-1.384, -2.927e-6
-1.383, -2.927e-6
-1.382, -2.927e-6
-1.381, -2.927e-6
-1.380, -2.927e-6
-1.379, -2.927e-6
-1.378, -2.927e-6
-1.377, -2.927e-6
-1.376, -2.927e-6
-1.375, -2.927e-6
-1.374, -2.927e-6
-1.373, -2.927e-6
-1.372, -2.927e-6
-1.371, -2.927e-6
-1.370, -2.927e-6
-1.369, -2.927e-6
-1.368, -2.927e-6
-1.367, -2.927e-6
-1.366, -2.927e-6
-1.365, -2.927e-6
-1.364, -2.927e-6
-1.363, -6.010e-6
-1.362, -2.927e-6
-1.361, -2.927e-6
-1.360, -2.927e-6
-1.359, -2.927e-6
-1.358, -6.010e-6
-1.357, -2.927e-6
-1.356, -6.010e-6
-1.355, -2.927e-6
-1.354, -6.010e-6
-1.353, -6.010e-6
-1.352, -6.010e-6
-1.351, -6.010e-6
-1.350, -6.010e-6
-1.349, -6.010e-6
-1.348, -6.010e-6
-1.347, -6.010e-6
-1.346, -6.010e-6
-1.345, -6.010e-6
-1.344, -6.010e-6
-1.343, -6.010e-6
-1.342, -6.010e-6
-1.341, -6.010e-6
-1.340, -6.010e-6
-1.339, -6.010e-6
-1.338, -6.010e-6
-1.337, -6.010e-6
-1.336, -6.010e-6
-1.335, -6.010e-6
-1.334, -6.010e-6
-1.333, -6.010e-6
-1.332, -6.010e-6
-1.331, -6.010e-6
-1.330, -6.010e-6
-1.329, -6.010e-6
-1.328, -6.010e-6
-1.327, -6.010e-6
-1.326, -6.010e-6
-1.325, -6.010e-6
-1.324, -6.010e-6
-1.323, -6.010e-6
-1.322, -6.010e-6
-1.321, -6.010e-6
-1.320, -6.010e-6
-1.319, -6.010e-6
-1.318, -6.010e-6
-1.317, -6.010e-6
-1.316, -6.010e-6
-1.315, -6.010e-6
-1.314, -6.010e-6
-1.313, -9.093e-6
-1.312, -6.010e-6
-1.311, -6.010e-6
-1.310, -6.010e-6
-1.309, -6.010e-6
-1.308, -6.010e-6
-1.307, -6.010e-6
-1.306, -6.010e-6
-1.305, -9.093e-6
-1.304, -6.010e-6
-1.303, -6.010e-6
-1.302, -6.010e-6
-1.301, -9.093e-6
-1.300, -9.093e-6
-1.299, -6.010e-6
-1.298, -6.010e-6
-1.297, -6.010e-6
-1.296, -9.093e-6
-1.295, -6.010e-6
-1.294, -6.010e-6
-1.293, -6.010e-6
-1.292, -6.010e-6
-1.291, -6.010e-6
-1.290, -6.010e-6
-1.289, -6.010e-6
-1.288, -6.010e-6
-1.287, -9.093e-6
-1.286, -6.010e-6
-1.285, -9.093e-6
-1.284, -9.093e-6
-1.283, -9.093e-6
-1.282, -6.010e-6
-1.281, -9.093e-6
-1.280, -6.010e-6
-1.279, -6.010e-6
-1.278, -9.093e-6
-1.277, -6.010e-6
-1.276, -9.093e-6
-1.275, -9.093e-6
-1.274, -9.093e-6
-1.273, -9.093e-6
-1.272, -6.010e-6
-1.271, -9.093e-6
-1.270, -9.093e-6
-1.269, -6.010e-6
-1.268, -9.093e-6
-1.267, -9.093e-6
-1.266, -9.093e-6
-1.265, -6.010e-6
-1.264, -9.093e-6
-1.263, -9.093e-6
-1.262, -9.093e-6
-1.261, -9.093e-6
-1.260, -9.093e-6
-1.259, -9.093e-6
-1.258, -9.093e-6
-1.257, -9.093e-6
-1.256, -9.093e-6
-1.255, -9.093e-6
-1.254, -9.093e-6
-1.253, -9.093e-6
-1.252, -9.093e-6
-1.251, -6.010e-6
-1.250, -9.093e-6
-1.249, -6.010e-6
-1.248, -9.093e-6
-1.247, -9.093e-6
-1.246, -9.093e-6
-1.245, -9.093e-6
-1.244, -9.093e-6
-1.243, -9.093e-6
-1.242, -9.093e-6
-1.241, -9.093e-6
-1.240, -9.093e-6
-1.239, -9.093e-6
-1.238, -9.093e-6
-1.237, -9.093e-6
-1.236, -9.093e-6
-1.235, -9.093e-6
-1.234, -9.093e-6
-1.233, -9.093e-6
-1.232, -9.093e-6
-1.231, -9.093e-6
-1.230, -9.093e-6
-1.229, -9.093e-6
-1.228, -9.093e-6
-1.227, -9.093e-6
-1.226, -9.093e-6
-1.225, -9.093e-6
-1.224, -9.093e-6
-1.223, -9.093e-6
-1.222, -9.093e-6
-1.221, -9.093e-6
-1.220, -9.093e-6
-1.219, -9.093e-6
-1.218, -9.093e-6
-1.217, -9.093e-6
-1.216, -9.093e-6
-1.215, -9.093e-6
-1.214, -9.093e-6
-1.213, -9.093e-6
-1.212, -9.093e-6
-1.211, -9.093e-6
-1.210, -9.093e-6
-1.209, -9.093e-6
-1.208, -9.093e-6
-1.207, -9.093e-6
-1.206, -9.093e-6
-1.205, -9.093e-6
-1.204, -9.093e-6
-1.203, -9.093e-6
-1.202, -9.093e-6
-1.201, -9.093e-6
-1.200, -9.093e-6
-1.199, -1.218e-5
-1.198, -9.093e-6
-1.197, -9.093e-6
-1.196, -9.093e-6
-1.195, -9.093e-6
-1.194, -9.093e-6
-1.193, -9.093e-6
-1.192, -9.093e-6
-1.191, -9.093e-6
-1.190, -9.093e-6
-1.189, -9.093e-6
-1.188, -9.093e-6
-1.187, -9.093e-6
-1.186, -9.093e-6
-1.185, -9.093e-6
-1.184, -9.093e-6
-1.183, -9.093e-6
-1.182, -9.093e-6
-1.181, -9.093e-6
-1.180, -9.093e-6
-1.179, -9.093e-6
-1.178, -9.093e-6
-1.177, -9.093e-6
-1.176, -9.093e-6
-1.175, -9.093e-6
-1.174, -9.093e-6
-1.173, -9.093e-6
-1.172, -9.093e-6
-1.171, -9.093e-6
-1.170, -9.093e-6
-1.169, -9.093e-6
-1.168, -9.093e-6
-1.167, -9.093e-6
-1.166, -9.093e-6
-1.165, -9.093e-6
-1.164, -9.093e-6
-1.163, -1.218e-5
-1.162, -9.093e-6
-1.161, -1.218e-5
-1.160, -1.218e-5
-1.159, -9.093e-6
-1.158, -9.093e-6
-1.157, -9.093e-6
-1.156, -1.218e-5
-1.155, -1.218e-5
-1.154, -1.218e-5
-1.153, -1.218e-5
-1.152, -9.093e-6
-1.151, -1.218e-5
-1.150, -1.218e-5
-1.149, -1.218e-5
-1.148, -1.218e-5
-1.147, -1.218e-5
-1.146, -1.218e-5
-1.145, -1.218e-5
-1.144, -1.218e-5
-1.143, -1.218e-5
-1.142, -1.218e-5
-1.141, -1.218e-5
-1.140, -1.218e-5
-1.139, -1.218e-5
-1.138, -1.218e-5
-1.137, -1.218e-5
-1.136, -1.218e-5
-1.135, -1.218e-5
-1.134, -1.218e-5
-1.133, -1.218e-5
-1.132, -1.218e-5
-1.131, -1.218e-5
-1.130, -1.218e-5
-1.129, -1.218e-5
-1.128, -1.218e-5
-1.127, -1.218e-5
-1.126, -1.218e-5
-1.125, -1.218e-5
-1.124, -1.218e-5
-1.123, -1.218e-5
-1.122, -1.218e-5
-1.121, -1.218e-5
-1.120, -1.218e-5
-1.119, -1.218e-5
-1.118, -1.218e-5
-1.117, -1.218e-5
-1.116, -1.218e-5
-1.115, -1.218e-5
-1.114, -1.218e-5
-1.113, -1.218e-5
-1.112, -1.218e-5
-1.111, -1.218e-5
-1.110, -1.218e-5
-1.109, -1.218e-5
-1.108, -1.218e-5
-1.107, -1.218e-5
-1.106, -1.218e-5
-1.105, -1.526e-5
-1.104, -1.218e-5
-1.103, -1.218e-5
-1.102, -1.218e-5
-1.101, -1.218e-5
-1.100, -1.218e-5
-1.099, -1.218e-5
-1.098, -1.218e-5
-1.097, -1.526e-5
-1.096, -1.526e-5
-1.095, -1.218e-5
-1.094, -1.526e-5
-1.093, -1.218e-5
-1.092, -1.218e-5
-1.091, -1.218e-5
-1.090, -1.218e-5
-1.089, -1.526e-5
-1.088, -1.218e-5
-1.087, -1.526e-5
-1.086, -1.526e-5
-1.085, -1.218e-5
-1.084, -1.526e-5
-1.083, -1.526e-5
-1.082, -1.526e-5
-1.081, -1.526e-5
-1.080, -1.526e-5
-1.079, -1.526e-5
-1.078, -1.526e-5
-1.077, -1.526e-5
-1.076, -1.526e-5
-1.075, -1.526e-5
-1.074, -1.526e-5
-1.073, -1.526e-5
-1.072, -1.526e-5
-1.071, -1.526e-5
-1.070, -1.218e-5
-1.069, -1.526e-5
-1.068, -1.526e-5
-1.067, -1.526e-5
-1.066, -1.526e-5
-1.065, -1.526e-5
-1.064, -1.526e-5
-1.063, -1.526e-5
-1.062, -1.526e-5
-1.061, -1.526e-5
-1.060, -1.526e-5
-1.059, -1.834e-5
-1.058, -1.526e-5
-1.057, -1.526e-5
-1.056, -1.526e-5
-1.055, -1.526e-5
-1.054, -1.526e-5
-1.053, -1.526e-5
-1.052, -1.526e-5
-1.051, -1.526e-5
-1.050, -1.526e-5
-1.049, -1.526e-5
-1.048, -1.526e-5
-1.047, -1.526e-5
-1.046, -1.526e-5
-1.045, -1.526e-5
-1.044, -1.526e-5
-1.043, -1.526e-5
-1.042, -1.526e-5
-1.041, -1.526e-5
-1.040, -1.526e-5
-1.039, -1.526e-5
-1.038, -1.526e-5
-1.037, -1.526e-5
-1.036, -1.526e-5
-1.035, -1.526e-5
-1.034, -1.834e-5
-1.033, -1.526e-5
-1.032, -1.834e-5
-1.031, -1.526e-5
-1.030, -1.526e-5
-1.029, -1.526e-5
-1.028, -1.526e-5
-1.027, -1.526e-5
-1.026, -1.526e-5
-1.025, -1.526e-5
-1.024, -1.526e-5
-1.023, -1.526e-5
-1.022, -1.834e-5
-1.021, -1.526e-5
-1.020, -1.834e-5
-1.019, -1.834e-5
-1.018, -1.834e-5
-1.017, -1.526e-5
-1.016, -1.834e-5
-1.015, -1.834e-5
-1.014, -1.834e-5
-1.013, -1.834e-5
-1.012, -1.526e-5
-1.011, -1.834e-5
-1.010, -1.526e-5
-1.009, -1.834e-5
-1.008, -1.834e-5
-1.007, -1.834e-5
-1.006, -1.834e-5
-1.005, -1.834e-5
-1.004, -1.834e-5
-1.003, -1.834e-5
-1.002, -1.834e-5
-1.001, -1.834e-5
