Potential V vs RHE, Current mA cm-2
0.013299999999999867,0.10289195283918412
0.012299999999999978,0.0678637010545258
0.011299999999999866,0.05237261232100365
0.010299999999999976,0.040503184515136
0.009299999999999864,0.029624054619173872
0.008299999999999974,0.02208364339089322
0.007299999999999862,0.013567081365705703
0.006299999999999972,0.006588310523471475
0.00529999999999986,-0.0015080822456561291
0.0042999999999999705,-0.007090533034923564
0.0032999999999998586,-0.013929247458471152
0.0022999999999999687,-0.01812245175127112
0.0012999999999998568,-0.025238449589592253
0.00029999999999996696,-0.03151976776099302
-0.000700000000000145,-0.03416527789174064
-0.0017000000000000348,-0.03891870785928716
-0.0027000000000001467,-0.04505855490070142
-0.0037000000000000366,-0.04910462921831542
-0.0047000000000001485,-0.05467859173978367
-0.005700000000000038,-0.057479720113516444
-0.00670000000000015,-0.06124285217115744
-0.00770000000000004,-0.06502013134179709
-0.008700000000000152,-0.06933500080638545
-0.009700000000000042,-0.07422990190391847
-0.010700000000000154,-0.08008680668535972
-0.011700000000000044,-0.08232205053914649
-0.012700000000000156,-0.0866510671167335
-0.013700000000000045,-0.08929657724748112
-0.014700000000000157,-0.09711993073573477
-0.015700000000000047,-0.09795461040265514
-0.01670000000000016,-0.10018985425644189
-0.01770000000000005,-0.10492913711098976
-0.01870000000000016,-0.1096825670785363
-0.01970000000000005,-0.11246954833927042
-0.020700000000000163,-0.11694003604684394
-0.021700000000000053,-0.11805765797373731
-0.022700000000000164,-0.12433897614513807
-0.023700000000000054,-0.1275503707958317
-0.024700000000000166,-0.1313135028534727
-0.025700000000000056,-0.13424195524419333
-0.026700000000000168,-0.1369016124879396
-0.027700000000000058,-0.1406647445455806
-0.02870000000000017,-0.14529085049613927
-0.02970000000000006,-0.14868615761581536
-0.03070000000000017,-0.1502423400456669
-0.03170000000000006,-0.154203531685289
-0.03270000000000017,-0.15717442541500556
-0.03370000000000006,-0.16000384801473563
-0.034700000000000175,-0.16453092417430376
-0.035700000000000065,-0.16835064468393937
-0.03670000000000018,-0.17103859615368294
-0.03770000000000007,-0.17443390327335903
-0.03870000000000018,-0.17754626813306212
-0.03970000000000007,-0.18235628655260325
-0.04070000000000018,-0.18405394011244128
-0.04170000000000007,-0.18730777610213087
-0.04270000000000018,-0.19070308322180693
-0.04370000000000007,-0.19523015938137506
-0.044700000000000184,-0.1970692840711996
-0.045700000000000074,-0.19933282215098366
-0.046700000000000186,-0.20216224475071373
-0.047700000000000076,-0.2065478497802954
-0.04870000000000019,-0.21022609915994445
-0.04970000000000008,-0.21390434853959353
-0.05070000000000019,-0.2151775887094721
-0.05170000000000008,-0.21857289582914816
-0.05270000000000019,-0.2229585008587298
-0.05370000000000008,-0.22621233684841938
-0.05470000000000019,-0.22649527910839237
-0.05570000000000008,-0.23272000882779853
-0.056700000000000195,-0.2345591335176231
-0.057700000000000085,-0.2393691519371642
-0.058700000000000196,-0.24106680549700227
-0.059700000000000086,-0.24403769922671883
-0.0607000000000002,-0.2477159486063679
-0.06170000000000009,-0.2515356691160035
-0.0627000000000002,-0.25507244736566614
-0.06370000000000009,-0.25733598544545017
-0.0647000000000002,-0.26002393691519377
-0.06570000000000009,-0.2637021862948429
-0.0667000000000002,-0.26384365742482935
-0.0677000000000001,-0.2689366181043435
-0.0687000000000002,-0.27219045409403303
-0.0697000000000001,-0.27530281895373615
-0.07070000000000021,-0.27855665494342574
-0.0717000000000001,-0.2811031352831828
-0.07270000000000021,-0.28364961562293983
-0.0737000000000001,-0.28775227839254847
-0.07470000000000021,-0.29086464325225153
-0.0757000000000001,-0.2934111235920086
-0.07670000000000021,-0.2966649595816982
-0.0777000000000001,-0.29949438218142826
-0.07870000000000021,-0.3031726315610774
-0.0797000000000001,-0.3064264675507669
-0.08070000000000022,-0.308407063370578
-0.0817000000000001,-0.31151942823028106
-0.08270000000000022,-0.3149147353499572
-0.08370000000000011,-0.3177441579496872
-0.08470000000000022,-0.3231200608891744
-0.08570000000000011,-0.32411035879907985
-0.08670000000000022,-0.32693978139880997
-0.08770000000000011,-0.33259862659827016
-0.08870000000000022,-0.33641834710790575
-0.08970000000000011,-0.3395307119676088
-0.09070000000000022,-0.34066248100750085
-0.09170000000000011,-0.34476514377710943
-0.09270000000000023,-0.3495751621966506
-0.09370000000000012,-0.35183870027643466
-0.09470000000000023,-0.3567901898259622
-0.09570000000000012,-0.35933667016571935
-0.09670000000000023,-0.36188315050547637
-0.09770000000000012,-0.36683464005500405
-0.09870000000000023,-0.36994700491470706
-0.09970000000000012,-0.37419113881430216
-0.10070000000000023,-0.37914262836382984
-0.10170000000000012,-0.38112322418364086
-0.10270000000000024,-0.38805530955297957
-0.10370000000000013,-0.39088473215270964
-0.10470000000000024,-0.3959776928322238
-0.10570000000000013,-0.3992315288219133
-0.10670000000000024,-0.4037586049814815
-0.10770000000000013,-0.40856862340102257
-0.10870000000000024,-0.4130956995605908
-0.10970000000000013,-0.41691542007022636
-0.11070000000000024,-0.42271573639967297
-0.11170000000000013,-0.4254036878694165
-0.11270000000000002,-0.4309210619388902
-0.11370000000000013,-0.4384190318281749
-0.11470000000000002,-0.44393640589764854
-0.11570000000000014,-0.4470487707573516
-0.11670000000000003,-0.45341497160674427
-0.11770000000000014,-0.45751763437635284
-0.11870000000000003,-0.4641667774857185
-0.11970000000000014,-0.47053297833511115
-0.12070000000000003,-0.4757674101446118
-0.12170000000000014,-0.4815677264740585
-0.12270000000000003,-0.4873680428035051
-0.12370000000000014,-0.49302688800296524
-0.12470000000000003,-0.5006663290222364
-0.12570000000000014,-0.5066081164816696
-0.12670000000000003,-0.5133987307210217
-0.12770000000000015,-0.519906402700401
-0.12870000000000004,-0.5269799591997262
-0.12970000000000015,-0.5360341115188624
-0.13070000000000004,-0.5421173701082821
-0.13170000000000015,-0.5489079843476343
-0.13270000000000004,-0.5565474253669055
-0.13370000000000015,-0.5644698086461497
-0.13470000000000004,-0.5721092496654209
-0.13570000000000015,-0.5796072195547056
-0.13670000000000004,-0.5868222471840172
-0.13770000000000016,-0.596300812893113
-0.13870000000000005,-0.6062037919921682
-0.13970000000000016,-0.6155408865712775
-0.14070000000000005,-0.6231803275905486
-0.14170000000000016,-0.6315271242597523
-0.14270000000000005,-0.6415715744887941
-0.14370000000000016,-0.652747793757728
-0.14470000000000005,-0.6615190038168911
-0.14570000000000016,-0.672129338565879
-0.14670000000000005,-0.6810420197550288
-0.14770000000000016,-0.691227941114057
-0.14870000000000005,-0.7036774005528693
-0.14970000000000017,-0.713155966261965
-0.15070000000000006,-0.7237663010109527
-0.15170000000000017,-0.7367816449697111
-0.15270000000000006,-0.7471090374587258
-0.15370000000000017,-0.7608317370674167
-0.15470000000000006,-0.7727153119862831
-0.15570000000000017,-0.7823353488253653
-0.15670000000000006,-0.7963409906940291
-0.15770000000000017,-0.8085075078728684
-0.15870000000000006,-0.8225131497415324
-0.15970000000000018,-0.8359529070902502
-0.16070000000000007,-0.8498170778289276
-0.16170000000000018,-0.863681248567605
-0.16270000000000007,-0.8776868904362687
-0.16370000000000018,-0.8938145992547302
-0.16470000000000007,-0.909800836943205
-0.16570000000000018,-0.9232405942919228
-0.16670000000000007,-0.9399341876303302
-0.16770000000000018,-0.9550715985388862
-0.16870000000000007,-0.9714822496173208
-0.16970000000000018,-0.9877514295657687
-0.17070000000000007,-1.0043035517741894
-0.17170000000000019,-1.0207142028526242
-0.17270000000000008,-1.0391054497508694
-0.1737000000000002,-1.0550916874393443
-0.17470000000000008,-1.074897645637455
-0.1757000000000002,-1.0924400657557813
-0.17670000000000008,-1.112104552823905
-0.1777000000000002,-1.1316275687620427
-0.17870000000000008,-1.1511505847001804
-0.1797000000000002,-1.1705321295083313
-0.18070000000000008,-1.191469856746334
-0.1817000000000002,-1.2098611036445792
-0.18270000000000008,-1.2327794267023928
-0.1837000000000002,-1.2545659807203144
-0.1847000000000001,-1.2759281213482767
-0.1857000000000002,-1.2977146753661983
-0.1867000000000001,-1.3209159406839848
-0.1877000000000002,-1.344824561651704
-0.1887000000000001,-1.3674599424495446
-0.1897000000000002,-1.3932076881070883
-0.1907000000000001,-1.4175407224647667
-0.1917000000000001,-1.4415908145624723
-0.19269999999999998,-1.4670556179600431
-0.1937000000000001,-1.4939351326574788
-0.19469999999999998,-1.5193999360550492
-0.1957000000000001,-1.546279450752485
-0.19669999999999999,-1.5731589654499207
-0.1977000000000001,-1.6000384801473564
-0.1987,-1.6283327061446573
-0.1997000000000001,-1.660871066041553
-0.2007,-1.6919947146385839
-0.2017000000000001,-1.7188742293360195
-0.2027,-1.7499978779330503
-0.2037000000000001,-1.779706815230216
-0.2047,-1.8122451751271118
-0.2057000000000001,-1.8419541124242775
-0.2067,-1.8744924723211736
-0.2077000000000001,-1.9070308322180693
-0.2087,-1.9409839034148304
-0.2097000000000001,-1.9763516859114565
-0.2107,-2.008890045808352
-0.2117000000000001,-2.047087250904708
-0.2127,-2.081040322101469
-0.2137000000000001,-2.11782281589796
-0.2147,-2.156020020994316
-0.2157000000000001,-2.197046648690402
-0.2167,-2.235243853786758
-0.21770000000000012,-2.272026347583249
-0.2187,-2.3116382639794697
-0.21970000000000012,-2.351250180375691
-0.2207,-2.392276808071777
-0.22170000000000012,-2.433303435767863
-0.2227,-2.475744774763814
-0.22370000000000012,-2.518186113759765
-0.2247,-2.5606274527557162
-0.22570000000000012,-2.6044835030515325
-0.2267,-2.648339553347349
-0.22770000000000012,-2.69361031494303
-0.22870000000000001,-2.740295787838576
-0.22970000000000013,-2.7869812607341222
-0.23070000000000002,-2.8322520223298033
-0.23170000000000013,-2.8817669178250793
-0.23270000000000002,-2.9284523907206257
-0.23370000000000013,-2.977967286215902
-0.23470000000000002,-3.0274821817111786
-0.23570000000000013,-3.074167654606725
-0.23670000000000002,-3.1279266840015962
-0.2376999999999999,-3.1760268681970074
-0.23870000000000002,-3.2312006088917435
-0.2396999999999999,-3.279300793087155
-0.24070000000000003,-3.3330598224820265
-0.24169999999999991,-3.389648274476628
-0.24270000000000003,-3.440577881271769
-0.24369999999999992,-3.4999957558661006
-0.24470000000000003,-3.556584207860702
-0.24569999999999992,-3.6103432372555737
-0.24670000000000003,-3.6711758231497704
-0.24769999999999992,-3.727764275144372
-0.24870000000000003,-3.788596861038568
-0.24969999999999992,-3.85084415823263
-0.25070000000000003,-3.9074326102272314
-0.2516999999999999,-3.971094618721158
-0.25270000000000004,-4.0319272046153545
-0.2536999999999999,-4.098418635709011
-0.25470000000000004,-4.164910066802668
-0.2556999999999999,-4.2285720752965945
-0.25670000000000004,-4.302137062889576
-0.25769999999999993,-4.367213782683368
-0.25870000000000004,-4.433705213777024
-0.25969999999999993,-4.501611356170546
-0.26070000000000004,-4.569517498564068
-0.26169999999999993,-4.640253063557321
-0.26270000000000004,-4.709573917250707
-0.26369999999999993,-4.781724193543823
-0.26470000000000005,-4.855289181136806
-0.26569999999999994,-4.926024746130058
-0.26670000000000005,-5.002419156322769
-0.26769999999999994,-5.077398855215616
-0.26870000000000005,-5.150963842808599
-0.26969999999999994,-5.23018767560104
-0.27070000000000005,-5.306582085793753
-0.27169999999999994,-5.3815617846866
-0.27270000000000005,-5.459370906179177
-0.27369999999999994,-5.538594738971618
-0.27470000000000006,-5.617818571764061
-0.27569999999999995,-5.719677785354343
-0.27670000000000006,-5.791828061647459
-0.27769999999999995,-5.8682224718401725
-0.27870000000000006,-5.950275727232344
-0.27969999999999995,-6.036573116524112
-0.28070000000000006,-6.115796949316553
-0.28169999999999995,-6.2035090499081855
-0.28270000000000006,-6.286977016600223
-0.28369999999999995,-6.374689117191855
-0.28470000000000006,-6.463815929083352
-0.28569999999999995,-6.55011331837512
-0.28670000000000007,-6.642069552866347
-0.28769999999999996,-6.7283669421581145
-0.28870000000000007,-6.818908465349477
-0.28969999999999996,-6.915108833740299
-0.29070000000000007,-7.002820934331931
-0.29169999999999996,-7.099021302722755
-0.29270000000000007,-7.189562825914116
-0.29369999999999996,-7.28576319430494
-0.2947000000000001,-7.386207696595355
-0.29569999999999996,-7.4767492197867185
-0.2967000000000001,-7.578608433377001
-0.29769999999999996,-7.6733940904679585
-0.2987000000000001,-7.773838592758376
-0.29969999999999997,-7.879941940248254
-0.3007000000000001,-7.9747275973392115
-0.30169999999999997,-8.080830944829088
-0.3027000000000001,-8.186934292318968
-0.30369999999999997,-8.304355330207764
-0.3047000000000001,-8.40904396639778
-0.30569999999999997,-8.51090317998806
-0.3067000000000001,-8.618421238777803
-0.3077,-8.720280452368087
-0.3087000000000001,-8.829213222457696
-0.3097,-8.948048971646358
-0.3107000000000001,-9.061225875635559
-0.3117,-9.178646913524359
-0.3127000000000001,-9.293238528813426
-0.3137,-9.414903700601819
-0.3147000000000001,-9.537983583690076
-0.3157,-9.65681933287874
-0.3167000000000001,-9.781313927266863
-0.3177,-9.904393810355122
-0.3187000000000001,-10.03313253864284
-0.3197,-10.166115400830154
-0.3207000000000001,-10.28919528391841
-0.3217,-10.425007568705455
-0.3227000000000001,-10.557990430892769
-0.3237,-10.692388004379948
-0.3247000000000001,-10.842347402165641
-0.3257,-10.983818532152144
-0.3267000000000001,-11.126704373438514
-0.3277,-11.265346080825287
-0.3287000000000001,-11.41247605601125
-0.3297,-11.570923721596136
-0.3307000000000001,-11.713809562882503
-0.3317,-11.872257228467388
-0.3327000000000001,-12.022216626253082
-0.3337,-12.17359073533864
-0.3347000000000001,-12.33911195742285
-0.3357,-12.484827221308949
-0.3367000000000001,-12.653177865992886
-0.3377,-12.808796108978042
-0.3387000000000001,-12.97431733106225
-0.3397,-13.146912109645786
-0.3407000000000001,-13.309603909130265
-0.3417,-13.47936926511407
-0.3427000000000001,-13.642061064598547
-0.3437,-13.810411709282489
-0.3447000000000001,-13.990080044365348
-0.3457,-14.147112998650368
-0.3467000000000001,-14.331025467632822
-0.3477,-14.500790823616628
-0.3487000000000001,-14.67055617960043
-0.3497,-14.854468648582884
-0.3507000000000001,-15.02423400456669
-0.3517,-15.208146473549144
-0.3527000000000001,-15.37791182953295
-0.3537,-15.561824298515406
-0.3547000000000001,-15.759883880496508
-0.3557,-15.929649236480316
-0.35670000000000013,-16.127708818461418
-0.3577,-16.29747417444522
-0.35870000000000013,-16.495533756426326
-0.3597,-16.693593338407435
-0.36070000000000013,-16.863358694391238
-0.3617,-17.047271163373694
-0.3626999999999999,-17.231183632356142
-0.3637,-17.4150961013386
-0.3646999999999999,-17.627302796318357
-0.3657,-17.81121526530081
-0.3666999999999999,-18.009274847281915
-0.3677,-18.207334429263025
-0.3686999999999999,-18.40539401124413
-0.36970000000000003,-18.631747819222536
-0.3706999999999999,-18.815660288204988
-0.37170000000000003,-19.027866983184744
-0.3726999999999999,-19.2400736781645
-0.37370000000000003,-19.4381332601456
-0.3746999999999999,-19.664487068124007
-0.37570000000000003,-19.862546650105116
-0.3766999999999999,-20.088900458083522
-0.37770000000000004,-20.301107153063278
-0.3786999999999999,-20.51331384804303
-0.37970000000000004,-20.75381476902009
-0.3806999999999999,-20.966021463999844
-0.38170000000000004,-21.19237527197825
-0.38269999999999993,-21.43287619295531
-0.38370000000000004,-21.645082887935057
-0.38469999999999993,-21.899730921910766
-0.38570000000000004,-22.111937616890522
-0.38669999999999993,-22.352438537867577
-0.38770000000000004,-22.592939458844636
-0.38869999999999993,-22.833440379821692
-0.38970000000000005,-23.102235526796047
-0.39069999999999994,-23.328589334774456
-0.39170000000000005,-23.58323736875016
-0.39269999999999994,-23.823738289727217
-0.39370000000000005,-24.078386323702922
-0.39469999999999994,-24.34718147067728
-0.39570000000000005,-24.587682391654337
-0.39669999999999994,-24.856477538628695
-0.39770000000000005,-25.12527268560305
-0.39869999999999994,-25.37992071957876
-0.39970000000000006,-25.662862979551768
-0.40069999999999995,-25.90336390052882
-0.40170000000000006,-26.18630616050183
-0.40269999999999995,-26.455101307476184
-0.40370000000000006,-26.723896454450543
-0.40469999999999995,-27.035132940420848
-0.40570000000000006,-27.289780974396557
-0.40669999999999995,-27.58687034736821
-0.40770000000000006,-27.869812607341224
-0.40869999999999995,-28.15275486731423
-0.40970000000000006,-28.463991353284538
-0.41069999999999995,-28.732786500258893
-0.41170000000000007,-29.029875873230555
-0.41269999999999996,-29.32696524620221
-0.41370000000000007,-29.62405461917387
-0.41469999999999996,-29.949438218142824
-0.41570000000000007,-30.232380478115836
-0.41669999999999996,-30.54361696408614
-0.41770000000000007,-30.854853450056453
-0.41869999999999996,-31.16608993602676
-0.4197000000000001,-31.519767760993016
-0.42069999999999996,-31.816857133964678
-0.4217000000000001,-32.14224073293363
-0.42269999999999996,-32.48177144490124
-0.4237000000000001,-32.79300793087155
-0.42469999999999997,-33.14668575583781
-0.4257000000000001,-33.44377512880947
-0.42669999999999997,-33.79745295377573
-0.4277000000000001,-34.13698366574334
-0.42869999999999997,-34.462367264712285
-0.4297000000000001,-34.87263354167316
-0.43069999999999997,-35.169722914644815
-0.4317000000000001,-35.50925362661242
-0.4327,-35.862931451578675
-0.4337000000000001,-36.20246216354629
-0.4347,-36.584434214509855
-0.4357000000000001,-36.90981781347881
-0.4367,-37.27764275144372
-0.4377000000000001,-37.645467689408626
-0.4387,-37.99914551437489
-0.4397000000000001,-38.39526467833709
-0.4407,-38.734795390304704
-0.4417000000000001,-39.116767441268266
-0.4427,-39.48459237923317
-0.4437000000000001,-39.83827020419943
-0.4447,-40.24853648116029
-0.4457000000000001,-40.602214306126555
-0.4467,-40.99833347008877
-0.4477000000000001,-41.39445263405098
-0.4487,-41.76227757201589
-0.4497000000000001,-42.186690961975394
-0.4507,-42.540368786941656
-0.4517000000000001,-42.95063506390252
-0.4527,-43.36090134086337
-0.4537000000000001,-43.75702050482558
-0.4547,-44.2097281207824
-0.4557000000000001,-44.577553058747306
-0.4567,-44.98781933570817
-0.4577000000000001,-45.44052695166498
-0.4587,-45.82249900262854
-0.4597000000000001,-46.27520661858535
-0.4607,-46.67132578254756
-0.4617000000000001,-47.095739172507066
-0.4627,-47.54844678846388
-0.4637000000000001,-47.94456595242609
-0.4647,-48.41142068138156
-0.4657000000000001,-48.82168695834242
-0.4667,-49.26024746130057
-0.4677000000000001,-49.72710219025603
-0.4687,-50.1373684672169
-0.4697000000000001,-50.61837030917101
-0.4707,-51.05693081212917
-0.4717000000000001,-51.495491315087335
-0.4727,-51.990640270040096
-0.4737000000000001,-52.41505365999961
-0.4747,-52.91020261495237
-0.4757000000000001,-53.37705734390783
-0.4767,-53.82976495986464
-0.4777000000000001,-54.35320814081471
-0.4787,-54.77762153077422
-0.4797000000000001,-55.28691759872564
-0.4807,-55.73962521468245
-0.48170000000000013,-56.22062705663656
-0.4827,-56.74407023758662
-0.48370000000000013,-57.19677785354343
-0.4847,-57.7202210344935
-0.48570000000000013,-58.20122287644761
-0.4867,-58.017310407465146
-0.48570000000000013,-57.394837435524536
-0.4847,-56.72992312458797
-0.48370000000000013,-56.14989149164331
-0.4827,-55.527418519702685
-0.48170000000000013,-54.933239773759375
-0.4807,-54.39564947981066
-0.4797000000000001,-53.77317650787004
-0.4787,-53.24973332691998
-0.4777000000000001,-52.68384880697396
-0.4767,-52.132111400026595
-0.4757000000000001,-51.63696244507384
-0.4747,-51.071077925127824
-0.4737000000000001,-50.57592897017506
-0.4727,-50.038338676226346
-0.4717000000000001,-49.543189721273585
-0.4707,-49.062187879319474
