Aug. 16, 2024   21:26:32
Cyclic Voltammetry
File: c:/users/guazh/data/20240813_batch_94_500/2024-08-15-exp107\exp107-2024-08-16t21_14_15-arkoh\exp107_cv_sr_900mvs_efin_-1500mv.bin
Data Source:  Experiment
Instrument Model:  CHI760E
Header: CV ran at 900 mVs
Note: 

Init E (V) = -1
High E (V) = -1
Low E (V) = -1.5
Final E (V) = -1
Init P/N = N
Scan Rate (V/s) = 0.9
Segment = 3
Sample Interval (V) = 0.001
Quiet Time (sec) = 2
Sensitivity (A/V) = 0.01
Comp R (ohm) = 1.6

Results:

Channel 1:
Segment 1:

Segment 2:

Segment 3:

Potential/V, Current/A

-1.000, 1.865e-5
-1.001, 5.873e-5
-1.002, 7.723e-5
-1.003, 8.648e-5
-1.004, 9.573e-5
-1.005, 1.019e-4
-1.006, 1.050e-4
-1.007, 1.081e-4
-1.008, 1.142e-4
-1.009, 1.173e-4
-1.010, 1.173e-4
-1.011, 1.235e-4
-1.012, 1.235e-4
-1.013, 1.266e-4
-1.014, 1.296e-4
-1.015, 1.327e-4
-1.016, 1.358e-4
-1.017, 1.389e-4
-1.018, 1.389e-4
-1.019, 1.420e-4
-1.020, 1.451e-4
-1.021, 1.481e-4
-1.022, 1.481e-4
-1.023, 1.512e-4
-1.024, 1.543e-4
-1.025, 1.543e-4
-1.026, 1.574e-4
-1.027, 1.605e-4
-1.028, 1.605e-4
-1.029, 1.636e-4
-1.030, 1.636e-4
-1.031, 1.666e-4
-1.032, 1.697e-4
-1.033, 1.728e-4
-1.034, 1.728e-4
-1.035, 1.759e-4
-1.036, 1.759e-4
-1.037, 1.790e-4
-1.038, 1.821e-4
-1.039, 1.851e-4
-1.040, 1.851e-4
-1.041, 1.851e-4
-1.042, 1.882e-4
-1.043, 1.913e-4
-1.044, 1.944e-4
-1.045, 1.944e-4
-1.046, 1.975e-4
-1.047, 2.006e-4
-1.048, 2.036e-4
-1.049, 2.036e-4
-1.050, 2.067e-4
-1.051, 2.098e-4
-1.052, 2.129e-4
-1.053, 2.160e-4
-1.054, 2.191e-4
-1.055, 2.191e-4
-1.056, 2.252e-4
-1.057, 2.283e-4
-1.058, 2.314e-4
-1.059, 2.314e-4
-1.060, 2.345e-4
-1.061, 2.376e-4
-1.062, 2.406e-4
-1.063, 2.437e-4
-1.064, 2.468e-4
-1.065, 2.499e-4
-1.066, 2.530e-4
-1.067, 2.530e-4
-1.068, 2.591e-4
-1.069, 2.591e-4
-1.070, 2.622e-4
-1.071, 2.653e-4
-1.072, 2.684e-4
-1.073, 2.715e-4
-1.074, 2.715e-4
-1.075, 2.776e-4
-1.076, 2.776e-4
-1.077, 2.807e-4
-1.078, 2.807e-4
-1.079, 2.869e-4
-1.080, 2.869e-4
-1.081, 2.900e-4
-1.082, 2.900e-4
-1.083, 2.931e-4
-1.084, 2.961e-4
-1.085, 2.961e-4
-1.086, 2.992e-4
-1.087, 2.992e-4
-1.088, 3.023e-4
-1.089, 3.054e-4
-1.090, 3.054e-4
-1.091, 3.085e-4
-1.092, 3.085e-4
-1.093, 3.115e-4
-1.094, 3.115e-4
-1.095, 3.146e-4
-1.096, 3.146e-4
-1.097, 3.146e-4
-1.098, 3.177e-4
-1.099, 3.177e-4
-1.100, 3.177e-4
-1.101, 3.208e-4
-1.102, 3.208e-4
-1.103, 3.239e-4
-1.104, 3.239e-4
-1.105, 3.239e-4
-1.106, 3.239e-4
-1.107, 3.270e-4
-1.108, 3.270e-4
-1.109, 3.300e-4
-1.110, 3.300e-4
-1.111, 3.300e-4
-1.112, 3.331e-4
-1.113, 3.331e-4
-1.114, 3.362e-4
-1.115, 3.362e-4
-1.116, 3.362e-4
-1.117, 3.362e-4
-1.118, 3.393e-4
-1.119, 3.393e-4
-1.120, 3.393e-4
-1.121, 3.424e-4
-1.122, 3.424e-4
-1.123, 3.424e-4
-1.124, 3.455e-4
-1.125, 3.455e-4
-1.126, 3.455e-4
-1.127, 3.455e-4
-1.128, 3.485e-4
-1.129, 3.485e-4
-1.130, 3.485e-4
-1.131, 3.516e-4
-1.132, 3.516e-4
-1.133, 3.516e-4
-1.134, 3.547e-4
-1.135, 3.547e-4
-1.136, 3.547e-4
-1.137, 3.578e-4
-1.138, 3.578e-4
-1.139, 3.578e-4
-1.140, 3.609e-4
-1.141, 3.609e-4
-1.142, 3.609e-4
-1.143, 3.640e-4
-1.144, 3.640e-4
-1.145, 3.640e-4
-1.146, 3.640e-4
-1.147, 3.670e-4
-1.148, 3.670e-4
-1.149, 3.670e-4
-1.150, 3.670e-4
-1.151, 3.701e-4
-1.152, 3.701e-4
-1.153, 3.701e-4
-1.154, 3.732e-4
-1.155, 3.732e-4
-1.156, 3.763e-4
-1.157, 3.763e-4
-1.158, 3.763e-4
-1.159, 3.763e-4
-1.160, 3.794e-4
-1.161, 3.794e-4
-1.162, 3.825e-4
-1.163, 3.825e-4
-1.164, 3.825e-4
-1.165, 3.825e-4
-1.166, 3.855e-4
-1.167, 3.855e-4
-1.168, 3.855e-4
-1.169, 3.886e-4
-1.170, 3.886e-4
-1.171, 3.886e-4
-1.172, 3.917e-4
-1.173, 3.917e-4
-1.174, 3.948e-4
-1.175, 3.917e-4
-1.176, 3.948e-4
-1.177, 3.948e-4
-1.178, 3.979e-4
-1.179, 3.979e-4
-1.180, 4.010e-4
-1.181, 4.010e-4
-1.182, 4.010e-4
-1.183, 4.040e-4
-1.184, 4.040e-4
-1.185, 4.071e-4
-1.186, 4.071e-4
-1.187, 4.071e-4
-1.188, 4.102e-4
-1.189, 4.102e-4
-1.190, 4.133e-4
-1.191, 4.133e-4
-1.192, 4.133e-4
-1.193, 4.164e-4
-1.194, 4.164e-4
-1.195, 4.164e-4
-1.196, 4.195e-4
-1.197, 4.225e-4
-1.198, 4.225e-4
-1.199, 4.256e-4
-1.200, 4.256e-4
-1.201, 4.256e-4
-1.202, 4.287e-4
-1.203, 4.318e-4
-1.204, 4.318e-4
-1.205, 4.318e-4
-1.206, 4.349e-4
-1.207, 4.349e-4
-1.208, 4.380e-4
-1.209, 4.380e-4
-1.210, 4.410e-4
-1.211, 4.441e-4
-1.212, 4.441e-4
-1.213, 4.472e-4
-1.214, 4.472e-4
-1.215, 4.534e-4
-1.216, 4.534e-4
-1.217, 4.565e-4
-1.218, 4.565e-4
-1.219, 4.595e-4
-1.220, 4.595e-4
-1.221, 4.626e-4
-1.222, 4.657e-4
-1.223, 4.657e-4
-1.224, 4.688e-4
-1.225, 4.719e-4
-1.226, 4.750e-4
-1.227, 4.780e-4
-1.228, 4.811e-4
-1.229, 4.811e-4
-1.230, 4.873e-4
-1.231, 4.904e-4
-1.232, 4.904e-4
-1.233, 4.935e-4
-1.234, 4.965e-4
-1.235, 4.996e-4
-1.236, 5.027e-4
-1.237, 5.058e-4
-1.238, 5.058e-4
-1.239, 5.089e-4
-1.240, 5.120e-4
-1.241, 5.150e-4
-1.242, 5.181e-4
-1.243, 5.212e-4
-1.244, 5.243e-4
-1.245, 5.305e-4
-1.246, 5.305e-4
-1.247, 5.366e-4
-1.248, 5.397e-4
-1.249, 5.428e-4
-1.250, 5.459e-4
-1.251, 5.489e-4
-1.252, 5.551e-4
-1.253, 5.582e-4
-1.254, 5.613e-4
-1.255, 5.644e-4
-1.256, 5.674e-4
-1.257, 5.736e-4
-1.258, 5.798e-4
-1.259, 5.798e-4
-1.260, 5.859e-4
-1.261, 5.921e-4
-1.262, 5.952e-4
-1.263, 5.983e-4
-1.264, 6.044e-4
-1.265, 6.075e-4
-1.266, 6.137e-4
-1.267, 6.168e-4
-1.268, 6.229e-4
-1.269, 6.260e-4
-1.270, 6.322e-4
-1.271, 6.384e-4
-1.272, 6.414e-4
-1.273, 6.476e-4
-1.274, 6.538e-4
-1.275, 6.599e-4
-1.276, 6.661e-4
-1.277, 6.723e-4
-1.278, 6.784e-4
-1.279, 6.846e-4
-1.280, 6.877e-4
-1.281, 6.939e-4
-1.282, 7.000e-4
-1.283, 7.062e-4
-1.284, 7.124e-4
-1.285, 7.185e-4
-1.286, 7.247e-4
-1.287, 7.309e-4
-1.288, 7.370e-4
-1.289, 7.432e-4
-1.290, 7.494e-4
-1.291, 7.586e-4
-1.292, 7.648e-4
-1.293, 7.709e-4
-1.294, 7.802e-4
-1.295, 7.863e-4
-1.296, 7.925e-4
-1.297, 7.987e-4
-1.298, 8.079e-4
-1.299, 8.141e-4
-1.300, 8.233e-4
-1.301, 8.295e-4
-1.302, 8.388e-4
-1.303, 8.480e-4
-1.304, 8.542e-4
-1.305, 8.634e-4
-1.306, 8.696e-4
-1.307, 8.788e-4
-1.308, 8.881e-4
-1.309, 8.973e-4
-1.310, 9.035e-4
-1.311, 9.128e-4
-1.312, 9.220e-4
-1.313, 9.313e-4
-1.314, 9.405e-4
-1.315, 9.498e-4
-1.316, 9.590e-4
-1.317, 9.683e-4
-1.318, 9.806e-4
-1.319, 9.868e-4
-1.320, 9.991e-4
-1.321, 1.008e-3
-1.322, 1.018e-3
-1.323, 1.027e-3
-1.324, 1.039e-3
-1.325, 1.045e-3
-1.326, 1.058e-3
-1.327, 1.067e-3
-1.328, 1.079e-3
-1.329, 1.088e-3
-1.330, 1.098e-3
-1.331, 1.107e-3
-1.332, 1.119e-3
-1.333, 1.132e-3
-1.334, 1.141e-3
-1.335, 1.153e-3
-1.336, 1.166e-3
-1.337, 1.175e-3
-1.338, 1.187e-3
-1.339, 1.199e-3
-1.340, 1.209e-3
-1.341, 1.218e-3
-1.342, 1.233e-3
-1.343, 1.243e-3
-1.344, 1.255e-3
-1.345, 1.267e-3
-1.346, 1.280e-3
-1.347, 1.292e-3
-1.348, 1.307e-3
-1.349, 1.317e-3
-1.350, 1.332e-3
-1.351, 1.344e-3
-1.352, 1.357e-3
-1.353, 1.369e-3
-1.354, 1.384e-3
-1.355, 1.397e-3
-1.356, 1.409e-3
-1.357, 1.425e-3
-1.358, 1.437e-3
-1.359, 1.449e-3
-1.360, 1.465e-3
-1.361, 1.480e-3
-1.362, 1.492e-3
-1.363, 1.508e-3
-1.364, 1.520e-3
-1.365, 1.536e-3
-1.366, 1.551e-3
-1.367, 1.563e-3
-1.368, 1.579e-3
-1.369, 1.597e-3
-1.370, 1.610e-3
-1.371, 1.622e-3
-1.372, 1.637e-3
-1.373, 1.653e-3
-1.374, 1.668e-3
-1.375, 1.684e-3
-1.376, 1.699e-3
-1.377, 1.711e-3
-1.378, 1.730e-3
-1.379, 1.742e-3
-1.380, 1.761e-3
-1.381, 1.776e-3
-1.382, 1.791e-3
-1.383, 1.807e-3
-1.384, 1.822e-3
-1.385, 1.838e-3
-1.386, 1.856e-3
-1.387, 1.872e-3
-1.388, 1.887e-3
-1.389, 1.906e-3
-1.390, 1.921e-3
-1.391, 1.936e-3
-1.392, 1.955e-3
-1.393, 1.970e-3
-1.394, 1.986e-3
-1.395, 2.004e-3
-1.396, 2.023e-3
-1.397, 2.038e-3
-1.398, 2.057e-3
-1.399, 2.078e-3
-1.400, 2.091e-3
-1.401, 2.112e-3
-1.402, 2.131e-3
-1.403, 2.146e-3
-1.404, 2.168e-3
-1.405, 2.186e-3
-1.406, 2.205e-3
-1.407, 2.223e-3
-1.408, 2.242e-3
-1.409, 2.260e-3
-1.410, 2.279e-3
-1.411, 2.297e-3
-1.412, 2.316e-3
-1.413, 2.334e-3
-1.414, 2.353e-3
-1.415, 2.374e-3
-1.416, 2.390e-3
-1.417, 2.411e-3
-1.418, 2.430e-3
-1.419, 2.448e-3
-1.420, 2.470e-3
-1.421, 2.488e-3
-1.422, 2.510e-3
-1.423, 2.528e-3
-1.424, 2.550e-3
-1.425, 2.571e-3
-1.426, 2.593e-3
-1.427, 2.612e-3
-1.428, 2.633e-3
-1.429, 2.655e-3
-1.430, 2.673e-3
-1.431, 2.695e-3
-1.432, 2.716e-3
-1.433, 2.738e-3
-1.434, 2.760e-3
-1.435, 2.784e-3
-1.436, 2.806e-3
-1.437, 2.824e-3
-1.438, 2.846e-3
-1.439, 2.871e-3
-1.440, 2.892e-3
-1.441, 2.917e-3
-1.442, 2.938e-3
-1.443, 2.963e-3
-1.444, 2.988e-3
-1.445, 3.012e-3
-1.446, 3.037e-3
-1.447, 3.062e-3
-1.448, 3.086e-3
-1.449, 3.111e-3
-1.450, 3.139e-3
-1.451, 3.163e-3
-1.452, 3.188e-3
-1.453, 3.216e-3
-1.454, 3.241e-3
-1.455, 3.268e-3
-1.456, 3.293e-3
-1.457, 3.321e-3
-1.458, 3.345e-3
-1.459, 3.373e-3
-1.460, 3.398e-3
-1.461, 3.425e-3
-1.462, 3.453e-3
-1.463, 3.478e-3
-1.464, 3.506e-3
-1.465, 3.533e-3
-1.466, 3.561e-3
-1.467, 3.589e-3
-1.468, 3.617e-3
-1.469, 3.647e-3
-1.470, 3.675e-3
-1.471, 3.706e-3
-1.472, 3.734e-3
-1.473, 3.765e-3
-1.474, 3.795e-3
-1.475, 3.823e-3
-1.476, 3.854e-3
-1.477, 3.885e-3
-1.478, 3.916e-3
-1.479, 3.947e-3
-1.480, 3.977e-3
-1.481, 4.008e-3
-1.482, 4.039e-3
-1.483, 4.070e-3
-1.484, 4.104e-3
-1.485, 4.135e-3
-1.486, 4.172e-3
-1.487, 4.202e-3
-1.488, 4.236e-3
-1.489, 4.273e-3
-1.490, 4.304e-3
-1.491, 4.338e-3
-1.492, 4.369e-3
-1.493, 4.403e-3
-1.494, 4.440e-3
-1.495, 4.474e-3
-1.496, 4.508e-3
-1.497, 4.545e-3
-1.498, 4.579e-3
-1.499, 4.612e-3
-1.500, 4.591e-3
-1.499, 4.486e-3
-1.498, 4.400e-3
-1.497, 4.326e-3
-1.496, 4.261e-3
-1.495, 4.196e-3
-1.494, 4.138e-3
-1.493, 4.082e-3
-1.492, 4.030e-3
-1.491, 3.977e-3
-1.490, 3.925e-3
-1.489, 3.876e-3
-1.488, 3.829e-3
-1.487, 3.780e-3
-1.486, 3.734e-3
-1.485, 3.688e-3
-1.484, 3.644e-3
-1.483, 3.598e-3
-1.482, 3.552e-3
-1.481, 3.509e-3
-1.480, 3.466e-3
-1.479, 3.422e-3
-1.478, 3.382e-3
-1.477, 3.339e-3
-1.476, 3.299e-3
-1.475, 3.256e-3
-1.474, 3.216e-3
-1.473, 3.173e-3
-1.472, 3.136e-3
-1.471, 3.096e-3
-1.470, 3.059e-3
-1.469, 3.022e-3
-1.468, 2.982e-3
-1.467, 2.948e-3
-1.466, 2.908e-3
-1.465, 2.874e-3
-1.464, 2.837e-3
-1.463, 2.800e-3
-1.462, 2.766e-3
-1.461, 2.732e-3
-1.460, 2.695e-3
-1.459, 2.661e-3
-1.458, 2.624e-3
-1.457, 2.590e-3
-1.456, 2.559e-3
-1.455, 2.522e-3
-1.454, 2.491e-3
-1.453, 2.457e-3
-1.452, 2.423e-3
-1.451, 2.393e-3
-1.450, 2.359e-3
-1.449, 2.325e-3
-1.448, 2.294e-3
-1.447, 2.263e-3
-1.446, 2.229e-3
-1.445, 2.201e-3
-1.444, 2.171e-3
-1.443, 2.140e-3
-1.442, 2.109e-3
-1.441, 2.078e-3
-1.440, 2.050e-3
-1.439, 2.023e-3
-1.438, 1.995e-3
-1.437, 1.967e-3
-1.436, 1.936e-3
-1.435, 1.912e-3
-1.434, 1.881e-3
-1.433, 1.856e-3
-1.432, 1.828e-3
-1.431, 1.801e-3
-1.430, 1.773e-3
-1.429, 1.748e-3
-1.428, 1.724e-3
-1.427, 1.699e-3
-1.426, 1.674e-3
-1.425, 1.650e-3
-1.424, 1.625e-3
-1.423, 1.600e-3
-1.422, 1.576e-3
-1.421, 1.554e-3
-1.420, 1.529e-3
-1.419, 1.505e-3
-1.418, 1.483e-3
-1.417, 1.462e-3
-1.416, 1.437e-3
-1.415, 1.415e-3
-1.414, 1.394e-3
-1.413, 1.372e-3
-1.412, 1.351e-3
-1.411, 1.329e-3
-1.410, 1.307e-3
-1.409, 1.289e-3
-1.408, 1.267e-3
-1.407, 1.246e-3
-1.406, 1.227e-3
-1.405, 1.209e-3
-1.404, 1.187e-3
-1.403, 1.169e-3
-1.402, 1.150e-3
-1.401, 1.132e-3
-1.400, 1.113e-3
-1.399, 1.095e-3
-1.398, 1.073e-3
-1.397, 1.058e-3
-1.396, 1.039e-3
-1.395, 1.024e-3
-1.394, 1.005e-3
-1.393, 9.898e-4
-1.392, 9.713e-4
-1.391, 9.559e-4
-1.390, 9.405e-4
-1.389, 9.251e-4
-1.388, 9.066e-4
-1.387, 8.912e-4
-1.386, 8.758e-4
-1.385, 8.603e-4
-1.384, 8.480e-4
-1.383, 8.295e-4
-1.382, 8.172e-4
-1.381, 8.018e-4
-1.380, 7.894e-4
-1.379, 7.740e-4
-1.378, 7.617e-4
-1.377, 7.463e-4
-1.376, 7.339e-4
-1.375, 7.216e-4
-1.374, 7.062e-4
-1.373, 6.939e-4
-1.372, 6.815e-4
-1.371, 6.692e-4
-1.370, 6.569e-4
-1.369, 6.445e-4
-1.368, 6.322e-4
-1.367, 6.199e-4
-1.366, 6.106e-4
-1.365, 5.983e-4
-1.364, 5.859e-4
-1.363, 5.767e-4
-1.362, 5.674e-4
-1.361, 5.551e-4
-1.360, 5.428e-4
-1.359, 5.335e-4
-1.358, 5.212e-4
-1.357, 5.120e-4
-1.356, 5.027e-4
-1.355, 4.935e-4
-1.354, 4.842e-4
-1.353, 4.719e-4
-1.352, 4.626e-4
-1.351, 4.534e-4
-1.350, 4.441e-4
-1.349, 4.349e-4
-1.348, 4.256e-4
-1.347, 4.164e-4
-1.346, 4.102e-4
-1.345, 4.010e-4
-1.344, 3.917e-4
-1.343, 3.825e-4
-1.342, 3.763e-4
-1.341, 3.670e-4
-1.340, 3.578e-4
-1.339, 3.516e-4
-1.338, 3.455e-4
-1.337, 3.362e-4
-1.336, 3.270e-4
-1.335, 3.208e-4
-1.334, 3.146e-4
-1.333, 3.085e-4
-1.332, 2.992e-4
-1.331, 2.931e-4
-1.330, 2.869e-4
-1.329, 2.776e-4
-1.328, 2.715e-4
-1.327, 2.653e-4
-1.326, 2.591e-4
-1.325, 2.530e-4
-1.324, 2.468e-4
-1.323, 2.406e-4
-1.322, 2.345e-4
-1.321, 2.283e-4
-1.320, 2.221e-4
-1.319, 2.160e-4
-1.318, 2.129e-4
-1.317, 2.067e-4
-1.316, 2.006e-4
-1.315, 1.944e-4
-1.314, 1.882e-4
-1.313, 1.821e-4
-1.312, 1.790e-4
-1.311, 1.728e-4
-1.310, 1.666e-4
-1.309, 1.636e-4
-1.308, 1.574e-4
-1.307, 1.512e-4
-1.306, 1.481e-4
-1.305, 1.420e-4
-1.304, 1.389e-4
-1.303, 1.358e-4
-1.302, 1.296e-4
-1.301, 1.235e-4
-1.300, 1.173e-4
-1.299, 1.142e-4
-1.298, 1.081e-4
-1.297, 1.050e-4
-1.296, 1.019e-4
-1.295, 9.573e-5
-1.294, 9.265e-5
-1.293, 8.957e-5
-1.292, 8.340e-5
-1.291, 8.032e-5
-1.290, 7.723e-5
-1.289, 7.107e-5
-1.288, 6.798e-5
-1.287, 6.490e-5
-1.286, 5.873e-5
-1.285, 5.565e-5
-1.284, 4.949e-5
-1.283, 4.640e-5
-1.282, 4.332e-5
-1.281, 4.024e-5
-1.280, 3.407e-5
-1.279, 3.099e-5
-1.278, 2.790e-5
-1.277, 2.174e-5
-1.276, 1.865e-5
-1.275, 1.557e-5
-1.274, 1.557e-5
-1.273, 9.405e-6
-1.272, 6.322e-6
-1.271, 3.239e-6
-1.270, -2.927e-6
-1.269, -2.927e-6
-1.268, -9.093e-6
-1.267, -9.093e-6
-1.266, -1.526e-5
-1.265, -1.834e-5
-1.264, -2.143e-5
-1.263, -2.451e-5
-1.262, -2.759e-5
-1.261, -3.068e-5
-1.260, -3.376e-5
-1.259, -3.684e-5
-1.258, -3.992e-5
-1.257, -4.301e-5
-1.256, -4.609e-5
-1.255, -4.917e-5
-1.254, -5.226e-5
-1.253, -5.842e-5
-1.252, -6.151e-5
-1.251, -6.151e-5
-1.250, -6.459e-5
-1.249, -6.767e-5
-1.248, -7.076e-5
-1.247, -7.384e-5
-1.246, -8.000e-5
-1.245, -8.000e-5
-1.244, -8.617e-5
-1.243, -8.925e-5
-1.242, -8.925e-5
-1.241, -9.234e-5
-1.240, -9.850e-5
-1.239, -1.016e-4
-1.238, -1.047e-4
-1.237, -1.047e-4
-1.236, -1.108e-4
-1.235, -1.139e-4
-1.234, -1.170e-4
-1.233, -1.201e-4
-1.232, -1.232e-4
-1.231, -1.263e-4
-1.230, -1.293e-4
-1.229, -1.324e-4
-1.228, -1.386e-4
-1.227, -1.386e-4
-1.226, -1.417e-4
-1.225, -1.478e-4
-1.224, -1.509e-4
-1.223, -1.540e-4
-1.222, -1.571e-4
-1.221, -1.602e-4
-1.220, -1.632e-4
-1.219, -1.663e-4
-1.218, -1.725e-4
-1.217, -1.756e-4
-1.216, -1.787e-4
-1.215, -1.817e-4
-1.214, -1.848e-4
-1.213, -1.910e-4
-1.212, -1.941e-4
-1.211, -1.972e-4
-1.210, -2.002e-4
-1.209, -2.064e-4
-1.208, -2.095e-4
-1.207, -2.126e-4
-1.206, -2.187e-4
-1.205, -2.218e-4
-1.204, -2.280e-4
-1.203, -2.280e-4
-1.202, -2.342e-4
-1.201, -2.403e-4
-1.200, -2.403e-4
-1.199, -2.465e-4
-1.198, -2.496e-4
-1.197, -2.557e-4
-1.196, -2.588e-4
-1.195, -2.619e-4
-1.194, -2.650e-4
-1.193, -2.712e-4
-1.192, -2.742e-4
-1.191, -2.773e-4
-1.190, -2.804e-4
-1.189, -2.866e-4
-1.188, -2.897e-4
-1.187, -2.927e-4
-1.186, -2.958e-4
-1.185, -2.989e-4
-1.184, -3.020e-4
-1.183, -3.082e-4
-1.182, -3.112e-4
-1.181, -3.143e-4
-1.180, -3.205e-4
-1.179, -3.205e-4
-1.178, -3.236e-4
-1.177, -3.297e-4
-1.176, -3.328e-4
-1.175, -3.328e-4
-1.174, -3.359e-4
-1.173, -3.390e-4
-1.172, -3.452e-4
-1.171, -3.452e-4
-1.170, -3.482e-4
-1.169, -3.513e-4
-1.168, -3.544e-4
-1.167, -3.575e-4
-1.166, -3.575e-4
-1.165, -3.637e-4
-1.164, -3.637e-4
-1.163, -3.667e-4
-1.162, -3.667e-4
-1.161, -3.698e-4
-1.160, -3.729e-4
-1.159, -3.760e-4
-1.158, -3.760e-4
-1.157, -3.791e-4
-1.156, -3.821e-4
-1.155, -3.821e-4
-1.154, -3.852e-4
-1.153, -3.852e-4
-1.152, -3.883e-4
-1.151, -3.883e-4
-1.150, -3.914e-4
-1.149, -3.914e-4
-1.148, -3.945e-4
-1.147, -3.945e-4
-1.146, -3.945e-4
-1.145, -3.976e-4
-1.144, -3.976e-4
-1.143, -4.006e-4
-1.142, -4.006e-4
-1.141, -4.006e-4
-1.140, -4.006e-4
-1.139, -4.037e-4
-1.138, -4.037e-4
-1.137, -4.068e-4
-1.136, -4.037e-4
-1.135, -4.068e-4
-1.134, -4.068e-4
-1.133, -4.068e-4
-1.132, -4.099e-4
-1.131, -4.099e-4
-1.130, -4.099e-4
-1.129, -4.099e-4
-1.128, -4.130e-4
-1.127, -4.130e-4
-1.126, -4.130e-4
-1.125, -4.130e-4
-1.124, -4.130e-4
-1.123, -4.130e-4
-1.122, -4.161e-4
-1.121, -4.130e-4
-1.120, -4.161e-4
-1.119, -4.161e-4
-1.118, -4.161e-4
-1.117, -4.161e-4
-1.116, -4.191e-4
-1.115, -4.191e-4
-1.114, -4.191e-4
-1.113, -4.191e-4
-1.112, -4.191e-4
-1.111, -4.191e-4
-1.110, -4.191e-4
-1.109, -4.191e-4
-1.108, -4.191e-4
-1.107, -4.191e-4
-1.106, -4.191e-4
-1.105, -4.222e-4
-1.104, -4.191e-4
-1.103, -4.222e-4
-1.102, -4.222e-4
-1.101, -4.222e-4
-1.100, -4.222e-4
-1.099, -4.222e-4
-1.098, -4.222e-4
-1.097, -4.222e-4
-1.096, -4.222e-4
-1.095, -4.222e-4
-1.094, -4.222e-4
-1.093, -4.222e-4
-1.092, -4.222e-4
-1.091, -4.222e-4
-1.090, -4.222e-4
-1.089, -4.222e-4
-1.088, -4.222e-4
-1.087, -4.253e-4
-1.086, -4.253e-4
-1.085, -4.253e-4
-1.084, -4.253e-4
-1.083, -4.253e-4
-1.082, -4.253e-4
-1.081, -4.253e-4
-1.080, -4.253e-4
-1.079, -4.253e-4
-1.078, -4.253e-4
-1.077, -4.253e-4
-1.076, -4.253e-4
-1.075, -4.284e-4
-1.074, -4.284e-4
-1.073, -4.284e-4
-1.072, -4.284e-4
-1.071, -4.284e-4
-1.070, -4.315e-4
-1.069, -4.315e-4
-1.068, -4.315e-4
-1.067, -4.315e-4
-1.066, -4.346e-4
-1.065, -4.315e-4
-1.064, -4.346e-4
-1.063, -4.346e-4
-1.062, -4.346e-4
-1.061, -4.346e-4
-1.060, -4.376e-4
-1.059, -4.376e-4
-1.058, -4.407e-4
-1.057, -4.407e-4
-1.056, -4.438e-4
-1.055, -4.438e-4
-1.054, -4.469e-4
-1.053, -4.469e-4
-1.052, -4.500e-4
-1.051, -4.500e-4
-1.050, -4.531e-4
-1.049, -4.531e-4
-1.048, -4.561e-4
-1.047, -4.592e-4
-1.046, -4.592e-4
-1.045, -4.623e-4
-1.044, -4.654e-4
-1.043, -4.685e-4
-1.042, -4.716e-4
-1.041, -4.746e-4
-1.040, -4.746e-4
-1.039, -4.777e-4
-1.038, -4.808e-4
-1.037, -4.839e-4
-1.036, -4.870e-4
-1.035, -4.901e-4
-1.034, -4.931e-4
-1.033, -4.962e-4
-1.032, -4.993e-4
-1.031, -4.993e-4
-1.030, -5.055e-4
-1.029, -5.086e-4
-1.028, -5.116e-4
-1.027, -5.116e-4
-1.026, -5.147e-4
-1.025, -5.178e-4
-1.024, -5.240e-4
-1.023, -5.240e-4
-1.022, -5.271e-4
-1.021, -5.301e-4
-1.020, -5.332e-4
-1.019, -5.332e-4
-1.018, -5.363e-4
-1.017, -5.394e-4
-1.016, -5.394e-4
-1.015, -5.425e-4
-1.014, -5.456e-4
-1.013, -5.486e-4
-1.012, -5.486e-4
-1.011, -5.517e-4
-1.010, -5.517e-4
-1.009, -5.548e-4
-1.008, -5.548e-4
-1.007, -5.579e-4
-1.006, -5.610e-4
-1.005, -5.610e-4
-1.004, -5.641e-4
-1.003, -5.641e-4
-1.002, -5.641e-4
-1.001, -5.671e-4
