Potential V vs RHE, Current mA cm-2
0.013299999999999867,-0.09212599984721119
0.012299999999999978,-0.12797478418579122
0.011299999999999866,-0.14415908145624726
0.010299999999999976,-0.15392058942531597
0.009299999999999864,-0.16481386643427676
0.008299999999999974,-0.172736249713521
0.007299999999999862,-0.18207334429263022
0.006299999999999972,-0.18985425644188791
0.00529999999999986,-0.19622045729128057
0.0042999999999999705,-0.20230371588070023
0.0032999999999998586,-0.21008462802995795
0.0022999999999999687,-0.21475317531951257
0.0012999999999998568,-0.22267555859875673
0.00029999999999996696,-0.22748557701829786
-0.000700000000000145,-0.23272000882779853
-0.0017000000000000348,-0.2388032674172182
-0.0027000000000001467,-0.24333034357678635
-0.0037000000000000366,-0.24898918877624646
-0.0047000000000001485,-0.2547895051056931
-0.005700000000000038,-0.25790186996539616
-0.00670000000000015,-0.2618630616050183
-0.00770000000000004,-0.2663901377645864
-0.008700000000000152,-0.27134162731411404
-0.009700000000000042,-0.2751613478237496
-0.010700000000000154,-0.27784929929349317
-0.011700000000000044,-0.2799713662432907
-0.012700000000000156,-0.28534726918277786
-0.013700000000000045,-0.28775227839254847
-0.014700000000000157,-0.29029875873230554
-0.015700000000000047,-0.29284523907206256
-0.01670000000000016,-0.29482583489187364
-0.01770000000000005,-0.29822114201154976
-0.01870000000000016,-0.3007676223513068
-0.01970000000000005,-0.3027482181711178
-0.020700000000000163,-0.30430440060096936
-0.021700000000000053,-0.30600205416080745
-0.022700000000000164,-0.3091144190205105
-0.023700000000000054,-0.3113779571002946
-0.024700000000000166,-0.31180237049025405
-0.025700000000000056,-0.31477326421997065
-0.026700000000000168,-0.31548061986990317
-0.027700000000000058,-0.3176026868197007
-0.02870000000000017,-0.32071505167940384
-0.02970000000000006,-0.3211394650693633
-0.03070000000000017,-0.32269564749921487
-0.03170000000000006,-0.32297858975918786
-0.03270000000000017,-0.3256665412289314
-0.03370000000000006,-0.32807155043870195
-0.034700000000000175,-0.328637434958648
-0.035700000000000065,-0.3293447906085805
-0.03670000000000018,-0.3316083286883646
-0.03770000000000007,-0.33259862659827016
-0.03870000000000018,-0.3350036358080407
-0.03970000000000007,-0.33585246258795975
-0.04070000000000018,-0.33641834710790575
-0.04170000000000007,-0.3389648274476628
-0.04270000000000018,-0.33981365422758186
-0.04370000000000007,-0.34108689439746037
-0.044700000000000184,-0.3433504324772444
-0.045700000000000074,-0.3429260190872849
-0.046700000000000186,-0.3456139705570285
-0.047700000000000076,-0.346038383946988
-0.04870000000000019,-0.34858486428674507
-0.04970000000000008,-0.3498581044566236
-0.05070000000000019,-0.3497166333266371
-0.05170000000000008,-0.35169722914644813
-0.05270000000000019,-0.3535363538362727
-0.05370000000000008,-0.3552340073961107
-0.05470000000000019,-0.35693166095594875
-0.05570000000000008,-0.3570731320859353
-0.056700000000000195,-0.3584878433858003
-0.057700000000000085,-0.3617416793754899
-0.058700000000000196,-0.3616002082455034
-0.059700000000000086,-0.36343933293532793
-0.0607000000000002,-0.3658443421450985
-0.06170000000000009,-0.36711758231497704
-0.0627000000000002,-0.3686737647448286
-0.06370000000000009,-0.37022994717468005
-0.0647000000000002,-0.37164465847454514
-0.06570000000000009,-0.3730593697744102
-0.0667000000000002,-0.37390819655432916
-0.0677000000000001,-0.3767376191540593
-0.0687000000000002,-0.37914262836382984
-0.0697000000000001,-0.37970851288377583
-0.07070000000000021,-0.3818305798335734
-0.0717000000000001,-0.3826794066134924
-0.07270000000000021,-0.38480147356329
-0.0737000000000001,-0.38763089616302
-0.07470000000000021,-0.3890456074628851
-0.0757000000000001,-0.3900359053727906
-0.07670000000000021,-0.39286532797252066
-0.0777000000000001,-0.3942800392723857
-0.07870000000000021,-0.3976753463920618
-0.0797000000000001,-0.3990900576919268
-0.08070000000000022,-0.40036329786180536
-0.0817000000000001,-0.40361713385149495
-0.08270000000000022,-0.4051733162813465
-0.08370000000000011,-0.4077197966211036
-0.08470000000000022,-0.4104077480908471
-0.08570000000000011,-0.4111151037407797
-0.08670000000000022,-0.41422746860048276
-0.08770000000000011,-0.41748130459017235
-0.08870000000000022,-0.4194619004099834
-0.08970000000000011,-0.4228572075296595
-0.09070000000000022,-0.423281620919619
-0.09170000000000011,-0.4266769280392951
-0.09270000000000023,-0.43007223515897114
-0.09370000000000012,-0.4321943021087687
-0.09470000000000023,-0.43672137826833685
-0.09570000000000012,-0.4379946184382154
-0.09670000000000023,-0.4405410987779724
-0.09770000000000012,-0.44506817493754053
-0.09870000000000023,-0.4470487707573516
-0.09970000000000012,-0.45044407787702767
-0.10070000000000023,-0.4536979138667173
-0.10170000000000012,-0.45596145194650134
-0.10270000000000024,-0.46105441262601543
-0.10370000000000013,-0.4636008929657725
-0.10470000000000024,-0.4678450268653676
-0.10570000000000013,-0.4715232762450167
-0.10670000000000024,-0.4744941699747333
-0.10770000000000013,-0.4784553616143554
-0.10870000000000024,-0.4832653800338965
-0.10970000000000013,-0.4868021582835591
-0.11070000000000024,-0.49033893653322164
-0.11170000000000013,-0.49401718591287075
-0.11270000000000002,-0.4995345599823444
-0.11370000000000013,-0.5043445784018855
-0.11470000000000002,-0.5078813566515481
-0.11570000000000014,-0.5115596060311972
-0.11670000000000003,-0.5170769801006708
-0.11770000000000014,-0.5224528830401581
-0.11870000000000003,-0.5266970169397532
-0.11970000000000014,-0.5322143910092269
-0.12070000000000003,-0.5360341115188624
-0.12170000000000014,-0.5428247257582146
-0.12270000000000003,-0.5482006286977017
-0.12370000000000014,-0.5527277048572699
-0.12470000000000003,-0.559801261356595
-0.12570000000000014,-0.5636209818662306
-0.12670000000000003,-0.5705530672355693
-0.12770000000000015,-0.576919268084962
-0.12870000000000004,-0.5825781132844221
-0.12970000000000015,-0.5903590254336798
-0.13070000000000004,-0.5943202170733018
-0.13170000000000015,-0.6016767158326001
-0.13270000000000004,-0.6093161568518712
-0.13370000000000015,-0.6163897133511964
-0.13470000000000004,-0.6236047409805081
-0.13570000000000015,-0.6292635861799682
-0.13670000000000004,-0.6374689117191855
-0.13770000000000016,-0.6462401217783488
-0.13870000000000005,-0.6543039761875794
-0.13970000000000016,-0.6618019460768642
-0.14070000000000005,-0.6697243293561084
-0.14170000000000016,-0.6775052415053661
-0.14270000000000005,-0.6872667494744349
-0.14370000000000016,-0.6958964884036116
-0.14470000000000005,-0.7045262273327882
-0.14570000000000016,-0.7135803796519244
-0.14670000000000005,-0.7230589453610202
-0.14770000000000016,-0.7323960399401295
-0.14870000000000005,-0.7441381437290092
-0.14970000000000017,-0.7527678826581861
-0.15070000000000006,-0.7623879194972683
-0.15170000000000017,-0.774130023286148
-0.15270000000000006,-0.7848818291651223
-0.15370000000000017,-0.7973312886039347
-0.15470000000000006,-0.8070927965730035
-0.15570000000000017,-0.8185519581019103
-0.15670000000000006,-0.8314258309306821
-0.15770000000000017,-0.8428849924595889
-0.15870000000000006,-0.8559003364183472
-0.15970000000000018,-0.8682083247271731
-0.16070000000000007,-0.8795260151260933
-0.16170000000000018,-0.8949463682946223
-0.16270000000000007,-0.9073958277334346
-0.16370000000000018,-0.92295765203195
-0.16470000000000007,-0.9369632939006136
-0.16570000000000018,-0.9499786378593722
-0.16670000000000007,-0.965964875547847
-0.16770000000000018,-0.9806778730664433
-0.16870000000000007,-0.9960982262349724
-0.16970000000000018,-1.0129332907033664
-0.17070000000000007,-1.0265145191820706
-0.17170000000000019,-1.0437739970404243
-0.17270000000000008,-1.06174083054871
-0.1737000000000002,-1.0775855971071984
-0.17470000000000008,-1.0955524306154845
-0.1757000000000002,-1.1123874950838784
-0.17670000000000008,-1.1314860976320564
-0.1777000000000002,-1.151857940350113
-0.17870000000000008,-1.1689759470784797
-0.1797000000000002,-1.1884989630166172
-0.18070000000000008,-1.2080219789547548
-0.1817000000000002,-1.2283938216728114
-0.18270000000000008,-1.2497559623007732
-0.1837000000000002,-1.2702692761488166
-0.1847000000000001,-1.2910655322568325
-0.1857000000000002,-1.3134179707947
-0.1867000000000001,-1.3350630536826351
-0.1877000000000002,-1.3586887323903811
-0.1887000000000001,-1.3834461801380193
-0.1897000000000002,-1.4048083207659814
-0.1907000000000001,-1.4288584128636872
-0.1917000000000001,-1.4543232162612578
-0.19269999999999998,-1.4797880196588282
-0.1937000000000001,-1.505252823056399
-0.19469999999999998,-1.5307176264539697
-0.1957000000000001,-1.5561824298515403
-0.19669999999999999,-1.584476655848841
-0.1977000000000001,-1.6113561705462767
-0.1987,-1.6410651078434426
-0.1997000000000001,-1.6679446225408785
-0.2007,-1.696238848538179
-0.2017000000000001,-1.7287772084350748
-0.2027,-1.7556567231325106
-0.2037000000000001,-1.7881950830294064
-0.2047,-1.8193187316264372
-0.2057000000000001,-1.849027668923603
-0.2067,-1.882980740120364
-0.2077000000000001,-1.9155191000172598
-0.2087,-1.9494721712140204
-0.2097000000000001,-1.9848399537106465
-0.2107,-2.017378313607542
-0.2117000000000001,-2.052746096104168
-0.2127,-2.0895285899006595
-0.2137000000000001,-2.12631108369715
-0.2147,-2.1659230000933714
-0.2157000000000001,-2.205534916489592
-0.2167,-2.2423174102860832
-0.21770000000000012,-2.2819293266823037
-0.2187,-2.321541243078525
-0.21970000000000012,-2.361153159474746
-0.2207,-2.4021797871708324
-0.22170000000000012,-2.4446211261667834
-0.2227,-2.4884771764625997
-0.22370000000000012,-2.5309185154585507
-0.2247,-2.5747745657543666
-0.22570000000000012,-2.6200453273500477
-0.2267,-2.6653160889457292
-0.22770000000000012,-2.712001561841275
-0.22870000000000001,-2.7601017460366863
-0.22970000000000013,-2.8067872189322327
-0.23070000000000002,-2.856302114427509
-0.23170000000000013,-2.9058170099227856
-0.23270000000000002,-2.9553319054180616
-0.23370000000000013,-3.0076762235130676
-0.23470000000000002,-3.0571911190083445
-0.23570000000000013,-3.1095354371033506
-0.23670000000000002,-3.164709177798087
-0.2376999999999999,-3.217053495893093
-0.23870000000000002,-3.273641947887695
-0.2396999999999999,-3.3274009772825663
-0.24070000000000003,-3.3839894292771677
-0.24169999999999991,-3.4434073038714996
-0.24270000000000003,-3.4999957558661006
-0.24369999999999992,-3.5608283417602973
-0.24470000000000003,-3.6188315050547635
-0.24569999999999992,-3.67683466834923
-0.24670000000000003,-3.7419113881430217
-0.24769999999999992,-3.8027439740372184
-0.24870000000000003,-3.86782069383101
-0.24969999999999992,-3.931482702324937
-0.25070000000000003,-3.995144710818863
-0.2516999999999999,-4.063050853212385
-0.25270000000000004,-4.128127573006177
-0.2536999999999999,-4.197448426699564
-0.25470000000000004,-4.266769280392952
-0.2556999999999999,-4.334675422786473
-0.25670000000000004,-4.408240410379454
-0.25769999999999993,-4.480390686672571
-0.25870000000000004,-4.553955674265553
-0.25969999999999993,-4.630350084458265
-0.26070000000000004,-4.703915072051247
-0.26169999999999993,-4.7803094822439585
-0.26270000000000004,-4.8595333150364
-0.26369999999999993,-4.938757147828842
-0.26470000000000005,-5.01939569192115
-0.26569999999999994,-5.098619524713592
-0.26670000000000005,-5.18491691400536
-0.26769999999999994,-5.266970169397532
-0.26870000000000005,-5.353267558689299
-0.26969999999999994,-5.436735525381336
-0.27070000000000005,-5.524447625972968
-0.27169999999999994,-5.613574437864465
-0.27270000000000005,-5.699871827156233
-0.27369999999999994,-5.79465748424719
-0.27470000000000006,-5.883784296138688
-0.27569999999999995,-5.97432581933005
-0.27670000000000006,-6.070526187720873
-0.27769999999999995,-6.161067710912235
-0.27870000000000006,-6.261512213202653
-0.27969999999999995,-6.35629787029361
-0.28070000000000006,-6.452498238684432
-0.28169999999999995,-6.554357452274714
-0.28270000000000006,-6.651972531965402
-0.28369999999999995,-6.756661168155415
-0.28470000000000006,-6.859935093045563
-0.28569999999999995,-6.961794306635846
-0.28670000000000007,-7.070727076725453
-0.28769999999999996,-7.172586290315736
-0.28870000000000007,-7.28293377170521
-0.28969999999999996,-7.391866541794816
-0.29070000000000007,-7.49655517798483
-0.29169999999999996,-7.612561504573763
-0.29270000000000007,-7.720079563363504
-0.29369999999999996,-7.833256467352707
-0.2947000000000001,-7.947848082641776
-0.29569999999999996,-8.055366141431518
-0.2967000000000001,-8.199666694017752
-0.29769999999999996,-8.304355330207764
-0.2987000000000001,-8.418946945496833
-0.29969999999999997,-8.534953272085767
-0.3007000000000001,-8.649544887374834
-0.30169999999999997,-8.771210059163227
-0.3027000000000001,-8.888631097052025
-0.30369999999999997,-9.01029626884042
-0.3047000000000001,-9.133376151928676
-0.30569999999999997,-9.252211901117338
-0.3067000000000001,-9.378121206805329
-0.3077,-9.498371667293856
-0.3087000000000001,-9.627110395581575
-0.3097,-9.750190278669832
-0.3107000000000001,-9.874684873057957
-0.3117,-10.006253023945405
-0.3127000000000001,-10.12933290703366
-0.3137,-10.260901057921112
-0.3147000000000001,-10.389639786208829
-0.3157,-10.516963803196681
-0.3167000000000001,-10.652776087983725
-0.3177,-10.780100104971579
-0.3187000000000001,-10.917327101058488
-0.3197,-11.048895251945936
-0.3207000000000001,-11.17904869153352
-0.3217,-11.320519821520024
-0.3227000000000001,-11.447843838507877
-0.3237,-11.583656123294919
-0.3247000000000001,-11.722297830681693
-0.3257,-11.862354249368334
-0.3267000000000001,-12.009484224554296
-0.3277,-12.14246708674161
-0.3287000000000001,-12.292426484527304
-0.3297,-12.436727037113537
-0.3307000000000001,-12.576783455800177
-0.3317,-12.73240169878533
-0.3327000000000001,-12.873872828771834
-0.3337,-13.026661649157258
-0.3347000000000001,-13.179450469542681
-0.3357,-13.326580444728645
-0.3367000000000001,-13.49068695551299
-0.3377,-13.642061064598547
-0.3387000000000001,-13.804752864083028
-0.3397,-13.964615240967778
-0.3407000000000001,-14.121648195252797
-0.3417,-14.288584128636872
-0.3427000000000001,-14.458349484620674
-0.3437,-14.62811484060448
-0.3447000000000001,-14.797880196588284
-0.3457,-14.98179266557074
-0.3467000000000001,-15.151558021554543
-0.3477,-15.321323377538347
-0.3487000000000001,-15.505235846520803
-0.3497,-15.689148315503255
-0.3507000000000001,-15.87306078448571
-0.3517,-16.071120366466815
-0.3527000000000001,-16.25503283544927
-0.3537,-16.453092417430376
-0.3547000000000001,-16.651151999411482
-0.3557,-16.835064468393938
-0.35670000000000013,-17.047271163373694
-0.3577,-17.2453307453548
-0.35870000000000013,-17.45753744033455
-0.3597,-17.655597022315657
-0.36070000000000013,-17.896097943292716
-0.3617,-18.10830463827247
-0.3626999999999999,-18.306364220253574
-0.3637,-18.53271802823198
-0.3646999999999999,-18.744924723211735
-0.3657,-18.95713141819149
-0.3666999999999999,-19.1834852261699
-0.3677,-19.395691921149652
-0.3686999999999999,-19.622045729128057
-0.36970000000000003,-19.848399537106463
-0.3706999999999999,-20.06060623208622
-0.37170000000000003,-20.301107153063278
-0.3726999999999999,-20.52746096104168
-0.37370000000000003,-20.76796188201874
-0.3746999999999999,-20.994315689997144
-0.37570000000000003,-21.22066949797555
-0.3766999999999999,-21.461170418952605
-0.37770000000000004,-21.701671339929664
-0.3786999999999999,-21.94217226090672
-0.37970000000000004,-22.182673181883775
-0.3806999999999999,-22.42317410286083
-0.38170000000000004,-22.67782213683654
-0.38269999999999993,-22.91832305781359
-0.38370000000000004,-23.15882397879065
-0.38469999999999993,-23.427619125765005
-0.38570000000000004,-23.66812004674206
-0.38669999999999993,-23.93691519371642
-0.38770000000000004,-24.191563227692125
-0.38869999999999993,-24.460358374666487
-0.38970000000000005,-24.729153521640843
-0.39069999999999994,-24.997948668615198
-0.39170000000000005,-25.295038041586857
-0.39269999999999994,-25.563833188561212
-0.39370000000000005,-25.832628335535567
-0.39469999999999994,-26.11557059550858
-0.39570000000000005,-26.398512855481584
-0.39669999999999994,-26.709749341451893
-0.39770000000000005,-26.97854448842625
-0.39869999999999994,-27.275633861397907
-0.39970000000000006,-27.572723234369565
-0.40069999999999995,-27.855665494342567
-0.40170000000000006,-28.18104909331153
-0.40269999999999995,-28.463991353284538
-0.40370000000000006,-28.775227839254843
-0.40469999999999995,-29.086464325225155
-0.40570000000000006,-29.38355369819681
-0.40669999999999995,-29.72308441016442
-0.40770000000000006,-30.02017378313608
-0.40869999999999995,-30.345557382105042
-0.40970000000000006,-30.685088094072643
-0.41069999999999995,-30.982177467044306
-0.41170000000000007,-31.335855292010564
-0.41269999999999996,-31.64709177798087
-0.41370000000000007,-31.986622489948477
-0.41469999999999996,-32.340300314914735
-0.41570000000000007,-32.66568391388369
-0.41669999999999996,-33.0335088518486
-0.41770000000000007,-33.358892450817564
-0.41869999999999996,-33.712570275783825
-0.4197000000000001,-34.08039521374873
-0.42069999999999996,-34.4057788127177
-0.4217000000000001,-34.787750863681254
-0.42269999999999996,-35.15557580164616
-0.4237000000000001,-35.52340073961108
-0.42469999999999997,-35.90537279057463
-0.4257000000000001,-36.25905061554089
-0.42669999999999997,-36.655169779503105
-0.4277000000000001,-37.00884760446935
-0.42869999999999997,-37.39081965543292
-0.4297000000000001,-37.77279170639648
-0.43069999999999997,-38.140616644361394
-0.4317000000000001,-38.55088292132225
-0.4327,-38.91870785928716
-0.4337000000000001,-39.328974136248014
-0.4347,-39.72509330021023
-0.4357000000000001,-40.092918238175145
-0.4367,-40.531478741133306
-0.4377000000000001,-40.91345079209687
-0.4387,-41.32371706905772
-0.4397000000000001,-41.74813045901723
-0.4407,-42.130102509980794
-0.4417000000000001,-42.568663012938956
-0.4427,-42.95063506390252
-0.4437000000000001,-43.38919556686068
-0.4447,-43.81360895682018
-0.4457000000000001,-44.2097281207824
-0.4467,-44.67658284973786
-0.4477000000000001,-45.086849126698716
-0.4487,-45.52540962965688
-0.4497000000000001,-45.99226435861234
-0.4507,-46.38838352257455
-0.4517000000000001,-46.86938536452866
-0.4527,-47.27965164148953
-0.4537000000000001,-47.73235925744634
-0.4547,-48.1992139864018
-0.4557000000000001,-48.609480263362656
-0.4567,-49.104629218315424
-0.4577000000000001,-49.543189721273585
-0.4587,-50.038338676226346
-0.4597000000000001,-50.51934051818046
-0.4607,-50.957901021138625
-0.4617000000000001,-51.46719708909004
-0.4627,-51.90575759204819
-0.4637000000000001,-52.386759434002315
-0.4647,-52.88190838895507
-0.4657000000000001,-53.33461600491189
-0.4667,-53.85805918586195
-0.4677000000000001,-54.31076680181876
-0.4687,-54.80591575677152
-0.4697000000000001,-55.32935893772159
-0.4707,-55.7820665536784
-0.4717000000000001,-56.333803960625765
-0.4727,-56.800658689581226
-0.4737000000000001,-57.32410187053129
-0.4747,-57.84754505148135
-0.4757000000000001,-58.32854689343546
-0.4767,-58.880284300382826
-0.4777000000000001,-59.36128614233694
-0.4787,-59.884729323287
-0.4797000000000001,-60.42231961723571
-0.4807,-60.93161568518713
-0.48170000000000013,-61.5116473181318
-0.4827,-62.006796273084554
-0.48370000000000013,-62.55853368003192
-0.4847,-63.19515376497119
-0.48570000000000013,-63.64786138092801
-0.4867,-63.5346844769388
-0.48570000000000013,-62.77074037501168
-0.4847,-62.09167895107646
-0.48370000000000013,-61.440911753138536
-0.4827,-60.73355610320602
-0.48170000000000013,-60.13937735726271
-0.4807,-59.47446304632614
-0.4797000000000001,-58.83784296138688
-0.4787,-58.24366421544356
-0.4777000000000001,-57.59289701750564
-0.4767,-57.04115961055828
-0.4757000000000001,-56.44698086461496
-0.4747,-55.85280211867165
-0.4737000000000001,-55.27277048572698
-0.4727,-54.66444462678501
-0.4717000000000001,-54.1268543328363
-0.4707,-53.546822699891635
-0.4697000000000001,-53.009232405942925
-0.4687,-52.528230563988814
