Jan. 15, 2025   06:02:28
Cyclic Voltammetry
File: c:/users/guazh/data/banditlqround7_x0exp772_r5/2025-01-10-exp850\exp850-2025-01-15t05_49_51-arkoh\exp850_cv_sr_900mvs_efin_-1500mv.bin
Data Source:  Experiment
Instrument Model:  CHI760E
Header: CV ran at 900 mVs
Note: 

Init E (V) = -1
High E (V) = -1
Low E (V) = -1.5
Final E (V) = -1
Init P/N = N
Scan Rate (V/s) = 0.9
Segment = 3
Sample Interval (V) = 0.001
Quiet Time (sec) = 2
Sensitivity (A/V) = 0.01
Comp R (ohm) = 1.4

Results:

Channel 1:
Segment 1:

Segment 2:

Segment 3:

Potential/V, Current/A

-1.000, -1.663e-4
-1.001, -7.692e-5
-1.002, 1.559e-7
-1.003, 6.182e-5
-1.004, 1.204e-4
-1.005, 1.728e-4
-1.006, 2.221e-4
-1.007, 2.653e-4
-1.008, 3.054e-4
-1.009, 3.424e-4
-1.010, 3.763e-4
-1.011, 4.071e-4
-1.012, 4.380e-4
-1.013, 4.657e-4
-1.014, 4.935e-4
-1.015, 5.212e-4
-1.016, 5.489e-4
-1.017, 5.798e-4
-1.018, 6.044e-4
-1.019, 6.322e-4
-1.020, 6.599e-4
-1.021, 6.877e-4
-1.022, 7.154e-4
-1.023, 7.401e-4
-1.024, 7.648e-4
-1.025, 7.863e-4
-1.026, 8.079e-4
-1.027, 8.264e-4
-1.028, 8.480e-4
-1.029, 8.665e-4
-1.030, 8.881e-4
-1.031, 9.097e-4
-1.032, 9.313e-4
-1.033, 9.559e-4
-1.034, 9.775e-4
-1.035, 1.005e-3
-1.036, 1.030e-3
-1.037, 1.051e-3
-1.038, 1.073e-3
-1.039, 1.098e-3
-1.040, 1.116e-3
-1.041, 1.138e-3
-1.042, 1.156e-3
-1.043, 1.178e-3
-1.044, 1.193e-3
-1.045, 1.215e-3
-1.046, 1.240e-3
-1.047, 1.264e-3
-1.048, 1.286e-3
-1.049, 1.310e-3
-1.050, 1.338e-3
-1.051, 1.363e-3
-1.052, 1.384e-3
-1.053, 1.409e-3
-1.054, 1.431e-3
-1.055, 1.449e-3
-1.056, 1.468e-3
-1.057, 1.489e-3
-1.058, 1.508e-3
-1.059, 1.526e-3
-1.060, 1.548e-3
-1.061, 1.569e-3
-1.062, 1.594e-3
-1.063, 1.619e-3
-1.064, 1.643e-3
-1.065, 1.671e-3
-1.066, 1.699e-3
-1.067, 1.724e-3
-1.068, 1.748e-3
-1.069, 1.773e-3
-1.070, 1.795e-3
-1.071, 1.816e-3
-1.072, 1.838e-3
-1.073, 1.859e-3
-1.074, 1.881e-3
-1.075, 1.906e-3
-1.076, 1.930e-3
-1.077, 1.958e-3
-1.078, 1.986e-3
-1.079, 2.010e-3
-1.080, 2.038e-3
-1.081, 2.069e-3
-1.082, 2.094e-3
-1.083, 2.124e-3
-1.084, 2.152e-3
-1.085, 2.177e-3
-1.086, 2.205e-3
-1.087, 2.229e-3
-1.088, 2.254e-3
-1.089, 2.279e-3
-1.090, 2.303e-3
-1.091, 2.331e-3
-1.092, 2.362e-3
-1.093, 2.390e-3
-1.094, 2.417e-3
-1.095, 2.448e-3
-1.096, 2.479e-3
-1.097, 2.507e-3
-1.098, 2.534e-3
-1.099, 2.562e-3
-1.100, 2.584e-3
-1.101, 2.605e-3
-1.102, 2.630e-3
-1.103, 2.652e-3
-1.104, 2.673e-3
-1.105, 2.698e-3
-1.106, 2.723e-3
-1.107, 2.747e-3
-1.108, 2.772e-3
-1.109, 2.797e-3
-1.110, 2.827e-3
-1.111, 2.858e-3
-1.112, 2.886e-3
-1.113, 2.914e-3
-1.114, 2.941e-3
-1.115, 2.969e-3
-1.116, 2.994e-3
-1.117, 3.015e-3
-1.118, 3.040e-3
-1.119, 3.065e-3
-1.120, 3.093e-3
-1.121, 3.117e-3
-1.122, 3.145e-3
-1.123, 3.170e-3
-1.124, 3.197e-3
-1.125, 3.225e-3
-1.126, 3.253e-3
-1.127, 3.278e-3
-1.128, 3.305e-3
-1.129, 3.336e-3
-1.130, 3.358e-3
-1.131, 3.385e-3
-1.132, 3.410e-3
-1.133, 3.435e-3
-1.134, 3.459e-3
-1.135, 3.487e-3
-1.136, 3.512e-3
-1.137, 3.543e-3
-1.138, 3.570e-3
-1.139, 3.601e-3
-1.140, 3.632e-3
-1.141, 3.666e-3
-1.142, 3.697e-3
-1.143, 3.725e-3
-1.144, 3.758e-3
-1.145, 3.789e-3
-1.146, 3.817e-3
-1.147, 3.842e-3
-1.148, 3.873e-3
-1.149, 3.894e-3
-1.150, 3.919e-3
-1.151, 3.940e-3
-1.152, 3.968e-3
-1.153, 3.996e-3
-1.154, 4.024e-3
-1.155, 4.048e-3
-1.156, 4.076e-3
-1.157, 4.104e-3
-1.158, 4.132e-3
-1.159, 4.159e-3
-1.160, 4.181e-3
-1.161, 4.202e-3
-1.162, 4.224e-3
-1.163, 4.249e-3
-1.164, 4.267e-3
-1.165, 4.292e-3
-1.166, 4.317e-3
-1.167, 4.341e-3
-1.168, 4.363e-3
-1.169, 4.391e-3
-1.170, 4.418e-3
-1.171, 4.446e-3
-1.172, 4.474e-3
-1.173, 4.498e-3
-1.174, 4.526e-3
-1.175, 4.551e-3
-1.176, 4.575e-3
-1.177, 4.600e-3
-1.178, 4.628e-3
-1.179, 4.649e-3
-1.180, 4.674e-3
-1.181, 4.696e-3
-1.182, 4.720e-3
-1.183, 4.745e-3
-1.184, 4.773e-3
-1.185, 4.801e-3
-1.186, 4.828e-3
-1.187, 4.856e-3
-1.188, 4.881e-3
-1.189, 4.902e-3
-1.190, 4.924e-3
-1.191, 4.942e-3
-1.192, 4.955e-3
-1.193, 4.964e-3
-1.194, 4.976e-3
-1.195, 4.989e-3
-1.196, 5.001e-3
-1.197, 5.016e-3
-1.198, 5.032e-3
-1.199, 5.053e-3
-1.200, 5.075e-3
-1.201, 5.103e-3
-1.202, 5.124e-3
-1.203, 5.152e-3
-1.204, 5.183e-3
-1.205, 5.208e-3
-1.206, 5.229e-3
-1.207, 5.254e-3
-1.208, 5.278e-3
-1.209, 5.300e-3
-1.210, 5.325e-3
-1.211, 5.349e-3
-1.212, 5.377e-3
-1.213, 5.402e-3
-1.214, 5.430e-3
-1.215, 5.457e-3
-1.216, 5.485e-3
-1.217, 5.516e-3
-1.218, 5.537e-3
-1.219, 5.565e-3
-1.220, 5.587e-3
-1.221, 5.602e-3
-1.222, 5.621e-3
-1.223, 5.636e-3
-1.224, 5.651e-3
-1.225, 5.673e-3
-1.226, 5.692e-3
-1.227, 5.710e-3
-1.228, 5.732e-3
-1.229, 5.756e-3
-1.230, 5.781e-3
-1.231, 5.799e-3
-1.232, 5.821e-3
-1.233, 5.843e-3
-1.234, 5.864e-3
-1.235, 5.883e-3
-1.236, 5.898e-3
-1.237, 5.910e-3
-1.238, 5.926e-3
-1.239, 5.935e-3
-1.240, 5.944e-3
-1.241, 5.957e-3
-1.242, 5.969e-3
-1.243, 5.984e-3
-1.244, 6.003e-3
-1.245, 6.018e-3
-1.246, 6.037e-3
-1.247, 6.046e-3
-1.248, 6.055e-3
-1.249, 6.068e-3
-1.250, 6.071e-3
-1.251, 6.080e-3
-1.252, 6.089e-3
-1.253, 6.102e-3
-1.254, 6.117e-3
-1.255, 6.136e-3
-1.256, 6.154e-3
-1.257, 6.179e-3
-1.258, 6.203e-3
-1.259, 6.231e-3
-1.260, 6.259e-3
-1.261, 6.280e-3
-1.262, 6.302e-3
-1.263, 6.324e-3
-1.264, 6.339e-3
-1.265, 6.354e-3
-1.266, 6.364e-3
-1.267, 6.373e-3
-1.268, 6.385e-3
-1.269, 6.391e-3
-1.270, 6.404e-3
-1.271, 6.416e-3
-1.272, 6.432e-3
-1.273, 6.450e-3
-1.274, 6.469e-3
-1.275, 6.487e-3
-1.276, 6.506e-3
-1.277, 6.518e-3
-1.278, 6.530e-3
-1.279, 6.543e-3
-1.280, 6.555e-3
-1.281, 6.567e-3
-1.282, 6.580e-3
-1.283, 6.592e-3
-1.284, 6.607e-3
-1.285, 6.620e-3
-1.286, 6.632e-3
-1.287, 6.650e-3
-1.288, 6.663e-3
-1.289, 6.678e-3
-1.290, 6.691e-3
-1.291, 6.703e-3
-1.292, 6.709e-3
-1.293, 6.718e-3
-1.294, 6.724e-3
-1.295, 6.728e-3
-1.296, 6.728e-3
-1.297, 6.731e-3
-1.298, 6.731e-3
-1.299, 6.731e-3
-1.300, 6.737e-3
-1.301, 6.737e-3
-1.302, 6.740e-3
-1.303, 6.743e-3
-1.304, 6.752e-3
-1.305, 6.761e-3
-1.306, 6.774e-3
-1.307, 6.789e-3
-1.308, 6.801e-3
-1.309, 6.820e-3
-1.310, 6.835e-3
-1.311, 6.851e-3
-1.312, 6.869e-3
-1.313, 6.888e-3
-1.314, 6.906e-3
-1.315, 6.922e-3
-1.316, 6.937e-3
-1.317, 6.949e-3
-1.318, 6.959e-3
-1.319, 6.965e-3
-1.320, 6.968e-3
-1.321, 6.971e-3
-1.322, 6.971e-3
-1.323, 6.971e-3
-1.324, 6.971e-3
-1.325, 6.968e-3
-1.326, 6.965e-3
-1.327, 6.962e-3
-1.328, 6.953e-3
-1.329, 6.946e-3
-1.330, 6.946e-3
-1.331, 6.943e-3
-1.332, 6.943e-3
-1.333, 6.943e-3
-1.334, 6.953e-3
-1.335, 6.962e-3
-1.336, 6.974e-3
-1.337, 6.990e-3
-1.338, 7.008e-3
-1.339, 7.030e-3
-1.340, 7.051e-3
-1.341, 7.073e-3
-1.342, 7.088e-3
-1.343, 7.104e-3
-1.344, 7.110e-3
-1.345, 7.119e-3
-1.346, 7.125e-3
-1.347, 7.128e-3
-1.348, 7.134e-3
-1.349, 7.141e-3
-1.350, 7.150e-3
-1.351, 7.153e-3
-1.352, 7.159e-3
-1.353, 7.165e-3
-1.354, 7.171e-3
-1.355, 7.168e-3
-1.356, 7.162e-3
-1.357, 7.159e-3
-1.358, 7.156e-3
-1.359, 7.147e-3
-1.360, 7.144e-3
-1.361, 7.144e-3
-1.362, 7.150e-3
-1.363, 7.159e-3
-1.364, 7.171e-3
-1.365, 7.181e-3
-1.366, 7.190e-3
-1.367, 7.199e-3
-1.368, 7.208e-3
-1.369, 7.218e-3
-1.370, 7.224e-3
-1.371, 7.233e-3
-1.372, 7.242e-3
-1.373, 7.252e-3
-1.374, 7.252e-3
-1.375, 7.255e-3
-1.376, 7.255e-3
-1.377, 7.258e-3
-1.378, 7.264e-3
-1.379, 7.273e-3
-1.380, 7.286e-3
-1.381, 7.304e-3
-1.382, 7.323e-3
-1.383, 7.341e-3
-1.384, 7.363e-3
-1.385, 7.378e-3
-1.386, 7.393e-3
-1.387, 7.409e-3
-1.388, 7.424e-3
-1.389, 7.437e-3
-1.390, 7.449e-3
-1.391, 7.458e-3
-1.392, 7.467e-3
-1.393, 7.477e-3
-1.394, 7.486e-3
-1.395, 7.492e-3
-1.396, 7.495e-3
-1.397, 7.498e-3
-1.398, 7.498e-3
-1.399, 7.498e-3
-1.400, 7.498e-3
-1.401, 7.495e-3
-1.402, 7.489e-3
-1.403, 7.486e-3
-1.404, 7.480e-3
-1.405, 7.471e-3
-1.406, 7.467e-3
-1.407, 7.467e-3
-1.408, 7.471e-3
-1.409, 7.480e-3
-1.410, 7.495e-3
-1.411, 7.517e-3
-1.412, 7.541e-3
-1.413, 7.566e-3
-1.414, 7.591e-3
-1.415, 7.625e-3
-1.416, 7.656e-3
-1.417, 7.686e-3
-1.418, 7.708e-3
-1.419, 7.723e-3
-1.420, 7.736e-3
-1.421, 7.739e-3
-1.422, 7.748e-3
-1.423, 7.754e-3
-1.424, 7.763e-3
-1.425, 7.782e-3
-1.426, 7.804e-3
-1.427, 7.819e-3
-1.428, 7.834e-3
-1.429, 7.853e-3
-1.430, 7.862e-3
-1.431, 7.871e-3
-1.432, 7.878e-3
-1.433, 7.890e-3
-1.434, 7.902e-3
-1.435, 7.921e-3
-1.436, 7.942e-3
-1.437, 7.964e-3
-1.438, 7.985e-3
-1.439, 8.007e-3
-1.440, 8.025e-3
-1.441, 8.047e-3
-1.442, 8.066e-3
-1.443, 8.087e-3
-1.444, 8.106e-3
-1.445, 8.124e-3
-1.446, 8.143e-3
-1.447, 8.158e-3
-1.448, 8.173e-3
-1.449, 8.186e-3
-1.450, 8.201e-3
-1.451, 8.214e-3
-1.452, 8.226e-3
-1.453, 8.238e-3
-1.454, 8.257e-3
-1.455, 8.275e-3
-1.456, 8.297e-3
-1.457, 8.312e-3
-1.458, 8.334e-3
-1.459, 8.352e-3
-1.460, 8.368e-3
-1.461, 8.380e-3
-1.462, 8.399e-3
-1.463, 8.417e-3
-1.464, 8.436e-3
-1.465, 8.466e-3
-1.466, 8.488e-3
-1.467, 8.519e-3
-1.468, 8.547e-3
-1.469, 8.571e-3
-1.470, 8.599e-3
-1.471, 8.627e-3
-1.472, 8.654e-3
-1.473, 8.688e-3
-1.474, 8.719e-3
-1.475, 8.747e-3
-1.476, 8.772e-3
-1.477, 8.793e-3
-1.478, 8.821e-3
-1.479, 8.843e-3
-1.480, 8.873e-3
-1.481, 8.898e-3
-1.482, 8.923e-3
-1.483, 8.947e-3
-1.484, 8.975e-3
-1.485, 9.009e-3
-1.486, 9.046e-3
-1.487, 9.077e-3
-1.488, 9.105e-3
-1.489, 9.132e-3
-1.490, 9.166e-3
-1.491, 9.194e-3
-1.492, 9.228e-3
-1.493, 9.259e-3
-1.494, 9.296e-3
-1.495, 9.348e-3
-1.496, 9.413e-3
-1.497, 9.487e-3
-1.498, 9.555e-3
-1.499, 9.623e-3
-1.500, 9.601e-3
-1.499, 9.459e-3
-1.498, 9.336e-3
-1.497, 9.225e-3
-1.496, 9.120e-3
-1.495, 9.021e-3
-1.494, 8.932e-3
-1.493, 8.843e-3
-1.492, 8.744e-3
-1.491, 8.642e-3
-1.490, 8.543e-3
-1.489, 8.445e-3
-1.488, 8.352e-3
-1.487, 8.257e-3
-1.486, 8.161e-3
-1.485, 8.072e-3
-1.484, 7.976e-3
-1.483, 7.881e-3
-1.482, 7.782e-3
-1.481, 7.686e-3
-1.480, 7.588e-3
-1.479, 7.489e-3
-1.478, 7.397e-3
-1.477, 7.304e-3
-1.476, 7.212e-3
-1.475, 7.122e-3
-1.474, 7.030e-3
-1.473, 6.940e-3
-1.472, 6.851e-3
-1.471, 6.768e-3
-1.470, 6.681e-3
-1.469, 6.589e-3
-1.468, 6.493e-3
-1.467, 6.401e-3
-1.466, 6.317e-3
-1.465, 6.231e-3
-1.464, 6.145e-3
-1.463, 6.055e-3
-1.462, 5.969e-3
-1.461, 5.889e-3
-1.460, 5.812e-3
-1.459, 5.741e-3
-1.458, 5.676e-3
-1.457, 5.621e-3
-1.456, 5.568e-3
-1.455, 5.519e-3
-1.454, 5.473e-3
-1.453, 5.417e-3
-1.452, 5.362e-3
-1.451, 5.303e-3
-1.450, 5.235e-3
-1.449, 5.167e-3
-1.448, 5.100e-3
-1.447, 5.032e-3
-1.446, 4.961e-3
-1.445, 4.893e-3
-1.444, 4.822e-3
-1.443, 4.751e-3
-1.442, 4.680e-3
-1.441, 4.606e-3
-1.440, 4.535e-3
-1.439, 4.464e-3
-1.438, 4.394e-3
-1.437, 4.329e-3
-1.436, 4.264e-3
-1.435, 4.202e-3
-1.434, 4.141e-3
-1.433, 4.076e-3
-1.432, 4.014e-3
-1.431, 3.947e-3
-1.430, 3.885e-3
-1.429, 3.823e-3
-1.428, 3.762e-3
-1.427, 3.700e-3
-1.426, 3.641e-3
-1.425, 3.586e-3
-1.424, 3.527e-3
-1.423, 3.469e-3
-1.422, 3.407e-3
-1.421, 3.351e-3
-1.420, 3.293e-3
-1.419, 3.234e-3
-1.418, 3.179e-3
-1.417, 3.126e-3
-1.416, 3.068e-3
-1.415, 3.019e-3
-1.414, 2.966e-3
-1.413, 2.917e-3
-1.412, 2.867e-3
-1.411, 2.821e-3
-1.410, 2.778e-3
-1.409, 2.735e-3
-1.408, 2.689e-3
-1.407, 2.642e-3
-1.406, 2.596e-3
-1.405, 2.547e-3
-1.404, 2.497e-3
-1.403, 2.448e-3
-1.402, 2.399e-3
-1.401, 2.343e-3
-1.400, 2.291e-3
-1.399, 2.238e-3
-1.398, 2.189e-3
-1.397, 2.140e-3
-1.396, 2.094e-3
-1.395, 2.047e-3
-1.394, 2.007e-3
-1.393, 1.964e-3
-1.392, 1.921e-3
-1.391, 1.881e-3
-1.390, 1.841e-3
-1.389, 1.798e-3
-1.388, 1.758e-3
-1.387, 1.717e-3
-1.386, 1.674e-3
-1.385, 1.634e-3
-1.384, 1.597e-3
-1.383, 1.560e-3
-1.382, 1.523e-3
-1.381, 1.489e-3
-1.380, 1.455e-3
-1.379, 1.425e-3
-1.378, 1.391e-3
-1.377, 1.357e-3
-1.376, 1.320e-3
-1.375, 1.283e-3
-1.374, 1.246e-3
-1.373, 1.209e-3
-1.372, 1.175e-3
-1.371, 1.135e-3
-1.370, 1.098e-3
-1.369, 1.061e-3
-1.368, 1.030e-3
-1.367, 9.960e-4
-1.366, 9.652e-4
-1.365, 9.374e-4
-1.364, 9.066e-4
-1.363, 8.758e-4
-1.362, 8.418e-4
-1.361, 8.079e-4
-1.360, 7.771e-4
-1.359, 7.401e-4
-1.358, 7.062e-4
-1.357, 6.723e-4
-1.356, 6.353e-4
-1.355, 6.044e-4
-1.354, 5.736e-4
-1.353, 5.428e-4
-1.352, 5.150e-4
-1.351, 4.842e-4
-1.350, 4.595e-4
-1.349, 4.349e-4
-1.348, 4.071e-4
-1.347, 3.825e-4
-1.346, 3.578e-4
-1.345, 3.300e-4
-1.344, 3.023e-4
-1.343, 2.746e-4
-1.342, 2.468e-4
-1.341, 2.160e-4
-1.340, 1.882e-4
-1.339, 1.605e-4
-1.338, 1.358e-4
-1.337, 1.081e-4
-1.336, 8.648e-5
-1.335, 6.182e-5
-1.334, 4.024e-5
-1.333, 1.557e-5
-1.332, -9.093e-6
-1.331, -3.376e-5
-1.330, -6.151e-5
-1.329, -8.925e-5
-1.328, -1.201e-4
-1.327, -1.448e-4
-1.326, -1.756e-4
-1.325, -2.002e-4
-1.324, -2.249e-4
-1.323, -2.434e-4
-1.322, -2.681e-4
-1.321, -2.897e-4
-1.320, -3.082e-4
-1.319, -3.297e-4
-1.318, -3.482e-4
-1.317, -3.698e-4
-1.316, -3.914e-4
-1.315, -4.130e-4
-1.314, -4.407e-4
-1.313, -4.654e-4
-1.312, -4.901e-4
-1.311, -5.147e-4
-1.310, -5.394e-4
-1.309, -5.610e-4
-1.308, -5.795e-4
-1.307, -6.011e-4
-1.306, -6.195e-4
-1.305, -6.380e-4
-1.304, -6.535e-4
-1.303, -6.750e-4
-1.302, -6.935e-4
-1.301, -7.120e-4
-1.300, -7.367e-4
-1.299, -7.583e-4
-1.298, -7.799e-4
-1.297, -8.045e-4
-1.296, -8.261e-4
-1.295, -8.477e-4
-1.294, -8.693e-4
-1.293, -8.878e-4
-1.292, -9.063e-4
-1.291, -9.248e-4
-1.290, -9.402e-4
-1.289, -9.556e-4
-1.288, -9.741e-4
-1.287, -9.926e-4
-1.286, -1.011e-3
-1.285, -1.030e-3
-1.284, -1.054e-3
-1.283, -1.073e-3
-1.282, -1.097e-3
-1.281, -1.119e-3
-1.280, -1.141e-3
-1.279, -1.159e-3
-1.278, -1.178e-3
-1.277, -1.196e-3
-1.276, -1.212e-3
-1.275, -1.227e-3
-1.274, -1.245e-3
-1.273, -1.261e-3
-1.272, -1.279e-3
-1.271, -1.298e-3
-1.270, -1.316e-3
-1.269, -1.338e-3
-1.268, -1.356e-3
-1.267, -1.375e-3
-1.266, -1.403e-3
-1.265, -1.421e-3
-1.264, -1.440e-3
-1.263, -1.458e-3
-1.262, -1.477e-3
-1.261, -1.492e-3
-1.260, -1.504e-3
-1.259, -1.520e-3
-1.258, -1.532e-3
-1.257, -1.551e-3
-1.256, -1.563e-3
-1.255, -1.581e-3
-1.254, -1.603e-3
-1.253, -1.618e-3
-1.252, -1.640e-3
-1.251, -1.662e-3
-1.250, -1.680e-3
-1.249, -1.696e-3
-1.248, -1.711e-3
-1.247, -1.726e-3
-1.246, -1.742e-3
-1.245, -1.754e-3
-1.244, -1.766e-3
-1.243, -1.782e-3
-1.242, -1.797e-3
-1.241, -1.813e-3
-1.240, -1.831e-3
-1.239, -1.853e-3
-1.238, -1.871e-3
-1.237, -1.893e-3
-1.236, -1.914e-3
-1.235, -1.933e-3
-1.234, -1.948e-3
-1.233, -1.964e-3
-1.232, -1.979e-3
-1.231, -1.995e-3
-1.230, -2.010e-3
-1.229, -2.025e-3
-1.228, -2.041e-3
-1.227, -2.056e-3
-1.226, -2.069e-3
-1.225, -2.087e-3
-1.224, -2.106e-3
-1.223, -2.124e-3
-1.222, -2.140e-3
-1.221, -2.161e-3
-1.220, -2.177e-3
-1.219, -2.198e-3
-1.218, -2.210e-3
-1.217, -2.229e-3
-1.216, -2.244e-3
-1.215, -2.260e-3
-1.214, -2.275e-3
-1.213, -2.291e-3
-1.212, -2.309e-3
-1.211, -2.325e-3
-1.210, -2.346e-3
-1.209, -2.368e-3
-1.208, -2.386e-3
-1.207, -2.408e-3
-1.206, -2.432e-3
-1.205, -2.454e-3
-1.204, -2.472e-3
-1.203, -2.491e-3
-1.202, -2.509e-3
-1.201, -2.525e-3
-1.200, -2.537e-3
-1.199, -2.550e-3
-1.198, -2.562e-3
-1.197, -2.577e-3
-1.196, -2.590e-3
-1.195, -2.605e-3
-1.194, -2.620e-3
-1.193, -2.639e-3
-1.192, -2.654e-3
-1.191, -2.673e-3
-1.190, -2.688e-3
-1.189, -2.704e-3
-1.188, -2.719e-3
-1.187, -2.731e-3
-1.186, -2.747e-3
-1.185, -2.759e-3
-1.184, -2.772e-3
-1.183, -2.784e-3
-1.182, -2.799e-3
-1.181, -2.815e-3
-1.180, -2.833e-3
-1.179, -2.852e-3
-1.178, -2.873e-3
-1.177, -2.895e-3
-1.176, -2.920e-3
-1.175, -2.941e-3
-1.174, -2.963e-3
-1.173, -2.981e-3
-1.172, -3.003e-3
-1.171, -3.024e-3
-1.170, -3.040e-3
-1.169, -3.055e-3
-1.168, -3.074e-3
-1.167, -3.089e-3
-1.166, -3.105e-3
-1.165, -3.120e-3
-1.164, -3.138e-3
-1.163, -3.154e-3
-1.162, -3.169e-3
-1.161, -3.188e-3
-1.160, -3.200e-3
-1.159, -3.219e-3
-1.158, -3.234e-3
-1.157, -3.249e-3
-1.156, -3.265e-3
-1.155, -3.277e-3
-1.154, -3.293e-3
-1.153, -3.305e-3
-1.152, -3.320e-3
-1.151, -3.336e-3
-1.150, -3.357e-3
-1.149, -3.376e-3
-1.148, -3.397e-3
-1.147, -3.419e-3
-1.146, -3.444e-3
-1.145, -3.465e-3
-1.144, -3.484e-3
-1.143, -3.502e-3
-1.142, -3.521e-3
-1.141, -3.539e-3
-1.140, -3.555e-3
-1.139, -3.570e-3
-1.138, -3.589e-3
-1.137, -3.607e-3
-1.136, -3.626e-3
-1.135, -3.650e-3
-1.134, -3.672e-3
-1.133, -3.700e-3
-1.132, -3.724e-3
-1.131, -3.749e-3
-1.130, -3.770e-3
-1.129, -3.792e-3
-1.128, -3.811e-3
-1.127, -3.829e-3
-1.126, -3.844e-3
-1.125, -3.860e-3
-1.124, -3.872e-3
-1.123, -3.888e-3
-1.122, -3.903e-3
-1.121, -3.918e-3
-1.120, -3.937e-3
-1.119, -3.955e-3
-1.118, -3.974e-3
-1.117, -3.986e-3
-1.116, -4.008e-3
-1.115, -4.023e-3
-1.114, -4.042e-3
-1.113, -4.054e-3
-1.112, -4.070e-3
-1.111, -4.082e-3
-1.110, -4.094e-3
-1.109, -4.110e-3
-1.108, -4.122e-3
-1.107, -4.134e-3
-1.106, -4.150e-3
-1.105, -4.168e-3
-1.104, -4.187e-3
-1.103, -4.208e-3
-1.102, -4.230e-3
-1.101, -4.255e-3
-1.100, -4.276e-3
-1.099, -4.295e-3
-1.098, -4.310e-3
-1.097, -4.325e-3
-1.096, -4.338e-3
-1.095, -4.350e-3
-1.094, -4.362e-3
-1.093, -4.372e-3
-1.092, -4.390e-3
-1.091, -4.403e-3
-1.090, -4.427e-3
-1.089, -4.452e-3
-1.088, -4.473e-3
-1.087, -4.495e-3
-1.086, -4.520e-3
-1.085, -4.538e-3
-1.084, -4.557e-3
-1.083, -4.572e-3
-1.082, -4.588e-3
-1.081, -4.606e-3
-1.080, -4.618e-3
-1.079, -4.634e-3
-1.078, -4.652e-3
-1.077, -4.668e-3
-1.076, -4.686e-3
-1.075, -4.705e-3
-1.074, -4.726e-3
-1.073, -4.748e-3
-1.072, -4.769e-3
-1.071, -4.797e-3
-1.070, -4.813e-3
-1.069, -4.834e-3
-1.068, -4.850e-3
-1.067, -4.865e-3
-1.066, -4.880e-3
-1.065, -4.893e-3
-1.064, -4.905e-3
-1.063, -4.920e-3
-1.062, -4.930e-3
-1.061, -4.942e-3
-1.060, -4.951e-3
-1.059, -4.970e-3
-1.058, -4.982e-3
-1.057, -4.998e-3
-1.056, -5.016e-3
-1.055, -5.028e-3
-1.054, -5.041e-3
-1.053, -5.053e-3
-1.052, -5.068e-3
-1.051, -5.078e-3
-1.050, -5.090e-3
-1.049, -5.099e-3
-1.048, -5.109e-3
-1.047, -5.121e-3
-1.046, -5.139e-3
-1.045, -5.158e-3
-1.044, -5.179e-3
-1.043, -5.201e-3
-1.042, -5.226e-3
-1.041, -5.247e-3
-1.040, -5.269e-3
-1.039, -5.287e-3
-1.038, -5.306e-3
-1.037, -5.321e-3
-1.036, -5.337e-3
-1.035, -5.349e-3
-1.034, -5.361e-3
-1.033, -5.377e-3
-1.032, -5.389e-3
-1.031, -5.405e-3
-1.030, -5.420e-3
-1.029, -5.432e-3
-1.028, -5.451e-3
-1.027, -5.463e-3
-1.026, -5.475e-3
-1.025, -5.491e-3
-1.024, -5.503e-3
-1.023, -5.512e-3
-1.022, -5.522e-3
-1.021, -5.531e-3
-1.020, -5.537e-3
-1.019, -5.546e-3
-1.018, -5.553e-3
-1.017, -5.562e-3
-1.016, -5.571e-3
-1.015, -5.590e-3
-1.014, -5.605e-3
-1.013, -5.623e-3
-1.012, -5.642e-3
-1.011, -5.664e-3
-1.010, -5.679e-3
-1.009, -5.697e-3
-1.008, -5.710e-3
-1.007, -5.719e-3
-1.006, -5.731e-3
-1.005, -5.738e-3
-1.004, -5.747e-3
-1.003, -5.756e-3
-1.002, -5.768e-3
-1.001, -5.778e-3
