Potential V vs RHE, Current mA cm-2
0.013299999999999867,2.5280890928588207
0.012299999999999978,1.349917522331218
0.011299999999999866,0.43403342679859325
0.010299999999999976,-0.3511313446265021
0.009299999999999864,-1.0925815368857679
0.008299999999999974,-1.7033124050375041
0.007299999999999862,-2.2706116362833835
0.006299999999999972,-2.7501987669376318
0.00529999999999986,-3.1420737970002466
0.0042999999999999705,-3.579219588658543
0.0032999999999998586,-3.884797229429391
0.0022999999999999687,-4.276672259492005
0.0012999999999998568,-4.668547289554621
0.00029999999999996696,-5.0618370309171015
-0.000700000000000145,-5.453712060979717
-0.0017000000000000348,-5.847001802342197
-0.0027000000000001467,-6.196435493408861
-0.0037000000000000366,-6.500598422879844
-0.0047000000000001485,-6.762320013354876
-0.005700000000000038,-7.024041603829907
-0.00670000000000015,-7.28576319430494
-0.00770000000000004,-7.50504344578402
-0.008700000000000152,-7.809206375255003
-0.009700000000000042,-8.158640066321666
-0.010700000000000154,-8.464217707092514
-0.011700000000000044,-8.769795347863363
-0.012700000000000156,-9.073958277334345
-0.013700000000000045,-9.335679867809377
-0.014700000000000157,-9.55496011928846
-0.015700000000000047,-9.772825659467674
-0.01670000000000016,-9.99069119964689
-0.01770000000000005,-10.208556739826104
-0.01870000000000016,-10.514134380596953
-0.01970000000000005,-10.775855971071984
-0.020700000000000163,-11.081433611842833
-0.021700000000000053,-11.385596541313816
-0.022700000000000164,-11.647318131788847
-0.023700000000000054,-11.909039722263879
-0.024700000000000166,-12.12831997374296
-0.025700000000000056,-12.346185513922174
-0.026700000000000168,-12.56405105410139
-0.027700000000000058,-12.825772644576423
-0.02870000000000017,-13.043638184755638
-0.02970000000000006,-13.349215825526485
-0.03070000000000017,-13.698649516593148
-0.03170000000000006,-14.002812446064135
-0.03270000000000017,-14.30273124163552
-0.03370000000000006,-14.57152638860988
-0.034700000000000175,-14.783733083589633
-0.035700000000000065,-15.01008689156804
-0.03670000000000018,-15.264734925543747
-0.03770000000000007,-15.491088733522153
-0.03870000000000018,-15.74573676749786
-0.03970000000000007,-16.014531914472215
-0.04070000000000018,-16.311621287443874
-0.04170000000000007,-16.622857773414182
-0.04270000000000018,-16.919947146385837
-0.04370000000000007,-17.146300954364243
-0.044700000000000184,-17.358507649344002
-0.045700000000000074,-17.584861457322408
-0.046700000000000186,-17.797068152302163
-0.047700000000000076,-18.009274847281915
-0.04870000000000019,-18.27806999425627
-0.04970000000000008,-18.631747819222536
-0.05070000000000019,-18.97127853119014
-0.05170000000000008,-19.3249563561564
-0.05270000000000019,-19.678634181122664
-0.05370000000000008,-19.97572355409432
-0.05470000000000019,-20.244518701068674
-0.05570000000000008,-20.499166735044383
-0.056700000000000195,-20.72552054302279
-0.057700000000000085,-21.022609915994444
-0.058700000000000196,-21.333846401964752
-0.059700000000000086,-21.67337711393236
-0.0607000000000002,-22.027054938898623
-0.06170000000000009,-22.38073276386488
-0.0627000000000002,-22.72026347583249
-0.06370000000000009,-22.989058622806844
-0.0647000000000002,-23.2012653177866
-0.06570000000000009,-23.47006046476096
-0.0667000000000002,-23.682267159740714
-0.0677000000000001,-23.908620967719123
-0.0687000000000002,-24.24815167968673
-0.0697000000000001,-24.601829504652986
-0.07070000000000021,-24.9130659906233
-0.0717000000000001,-25.295038041586857
-0.07270000000000021,-25.648715866553115
-0.0737000000000001,-25.959952352523427
-0.07470000000000021,-26.21460038649913
-0.0757000000000001,-26.440954194477534
-0.07670000000000021,-26.65316088945729
-0.0777000000000001,-26.907808923433
-0.07870000000000021,-27.219045409403304
-0.0797000000000001,-27.530281895373616
-0.08070000000000022,-27.869812607341224
-0.0817000000000001,-28.308373110299385
-0.08270000000000022,-28.619609596269694
-0.08370000000000011,-28.959140308237306
-0.08470000000000022,-29.22793545521166
-0.08570000000000011,-29.525024828183312
-0.08670000000000022,-29.793819975157668
-0.08770000000000011,-30.147497800123933
-0.08870000000000022,-30.487028512091538
-0.08970000000000011,-30.8407063370578
-0.09070000000000022,-31.23682550102001
-0.09170000000000011,-31.618797551983565
-0.09270000000000023,-32.01491671594578
-0.09370000000000012,-32.32615320191609
-0.09470000000000023,-32.58080123589179
-0.09570000000000012,-32.892037721862096
-0.09670000000000023,-33.10424441684186
-0.09770000000000012,-33.41548090281216
-0.09870000000000023,-33.712570275783825
-0.09970000000000012,-34.06624810075008
-0.10070000000000023,-34.462367264712285
-0.10170000000000012,-34.8018979766799
-0.10270000000000024,-35.15557580164616
-0.10370000000000013,-35.42437094862052
-0.10470000000000024,-35.721460321592176
-0.10570000000000013,-35.99025546856653
-0.10670000000000024,-36.20246216354629
-0.10770000000000013,-36.47125731052064
-0.10870000000000024,-36.725905344496354
-0.10970000000000013,-37.037141830466666
-0.11070000000000024,-37.334231203438314
-0.11170000000000013,-37.73035036740053
-0.11270000000000002,-38.08402819236679
-0.11370000000000013,-38.33867622634249
-0.11470000000000002,-38.6499127123128
-0.11570000000000014,-38.90456074628851
-0.11670000000000003,-39.173355893262865
-0.11770000000000014,-39.42800392723857
-0.11870000000000003,-39.739240413208876
-0.11970000000000014,-40.135359577171094
-0.12070000000000003,-40.4748902891387
-0.12170000000000014,-40.828568114104954
-0.12270000000000003,-41.182245939071215
-0.12370000000000014,-41.47933531204288
-0.12470000000000003,-41.79057179801318
-0.12570000000000014,-42.04521983198889
-0.12670000000000003,-42.31401497896325
-0.12770000000000015,-42.526221673943
-0.12870000000000004,-42.79501682091736
-0.12970000000000015,-43.134547532884966
-0.13070000000000004,-43.53066669684718
-0.13170000000000015,-43.92678586080939
-0.13270000000000004,-44.28046368577565
-0.13370000000000015,-44.535111719751356
-0.13470000000000004,-44.74731841473111
-0.13570000000000015,-44.97367222270952
-0.13670000000000004,-45.18587891768927
-0.13770000000000016,-45.45467406466363
-0.13870000000000005,-45.70932209863933
-0.13970000000000016,-46.10544126260155
-0.14070000000000005,-46.41667774857186
-0.14170000000000016,-46.84109113853137
-0.14270000000000005,-47.23721030249357
-0.14370000000000016,-47.54844678846388
-0.14470000000000005,-47.8879775004315
-0.14570000000000016,-48.1992139864018
-0.14670000000000005,-48.41142068138156
-0.14770000000000016,-48.68021582835591
-0.14870000000000005,-48.93486386233162
-0.14970000000000017,-49.24610034830193
-0.15070000000000006,-49.557336834272235
-0.15170000000000017,-49.85442620724389
-0.15270000000000006,-50.12322135421825
-0.15370000000000017,-50.335428049198
-0.15470000000000006,-50.50519340518181
-0.15570000000000017,-50.68910587416426
-0.15670000000000006,-50.81642989115212
-0.15770000000000017,-51.028636586131874
-0.15870000000000006,-51.29743173310623
-0.15970000000000018,-51.594521106077885
-0.16070000000000007,-52.033081609036046
-0.16170000000000018,-52.42920077299826
-0.16270000000000007,-52.74043725896857
-0.16370000000000018,-52.995085292944275
-0.16470000000000007,-53.22143910092268
-0.16570000000000018,-53.348763117910536
-0.16670000000000007,-53.518528473894335
-0.16770000000000018,-53.64585249088219
-0.16870000000000007,-53.82976495986464
-0.16970000000000018,-54.08441299384035
-0.17070000000000007,-54.31076680181876
-0.17170000000000019,-54.56541483579447
-0.17270000000000008,-54.834209982768826
-0.1737000000000002,-55.046416677748574
-0.17470000000000008,-55.25862337272834
-0.1757000000000002,-55.484977180706736
-0.17670000000000008,-55.7820665536784
-0.1777000000000002,-56.093303039648696
-0.17870000000000008,-56.489422203610914
-0.1797000000000002,-56.927982706569075
-0.18070000000000008,-57.408984548523186
-0.1817000000000002,-57.8333979384827
-0.18270000000000008,-58.22951710244491
-0.1837000000000002,-58.498312249419264
-0.1847000000000001,-58.71051894439902
-0.1857000000000002,-58.880284300382826
-0.1867000000000001,-59.02175543036933
-0.1877000000000002,-59.10663810836124
-0.1887000000000001,-59.23396212534908
-0.1897000000000002,-59.502757272323436
-0.1907000000000001,-59.757405306299155
-0.1917000000000001,-60.02620045327351
-0.19269999999999998,-60.23840714825326
-0.1937000000000001,-60.45061384323302
-0.19469999999999998,-60.67696765121143
-0.1957000000000001,-60.84673300719523
-0.19669999999999999,-61.07308681517363
-0.1977000000000001,-61.327734849149344
-0.1987,-61.63897133511965
-0.1997000000000001,-61.936060708091304
-0.2007,-62.16241451606972
-0.2017000000000001,-62.33217987205352
-0.2027,-62.459503889041365
-0.2037000000000001,-62.544386567033264
-0.2047,-62.544386567033264
-0.2057000000000001,-62.64341635802381
-0.2067,-62.68585769701977
-0.2077000000000001,-62.77074037501168
-0.2087,-62.94050573099548
-0.2097000000000001,-63.11027108697928
-0.2107,-63.3366248949577
-0.2117000000000001,-63.633714267929356
-0.2127,-63.944950753899654
-0.2137000000000001,-64.25618723986996
-0.2147,-64.51083527384567
-0.2157000000000001,-64.77963042082003
-0.2167,-64.94939577680383
-0.21770000000000012,-65.11916113278764
-0.2187,-65.38795627976201
-0.21970000000000012,-65.64260431373769
-0.2207,-65.86895812171612
-0.22170000000000012,-66.08116481669586
-0.2227,-66.20848883368372
-0.22370000000000012,-66.34995996367022
-0.2247,-66.51972531965401
-0.22570000000000012,-66.68949067563783
-0.2267,-66.91584448361623
-0.22770000000000012,-67.128051178596
-0.22870000000000001,-67.34025787357575
-0.22970000000000013,-67.56661168155415
-0.23070000000000002,-67.7788183765339
-0.23170000000000013,-68.04761352350828
-0.23270000000000002,-68.25982021848802
-0.23370000000000013,-68.44373268747047
-0.23470000000000002,-68.57105670445833
-0.23570000000000013,-68.69838072144618
-0.23670000000000002,-68.74082206044213
-0.2376999999999999,-68.82570473843404
-0.23870000000000002,-68.86814607742998
-0.2396999999999999,-68.96717586842054
-0.24070000000000003,-69.0944998854084
-0.24169999999999991,-69.22182390239624
-0.24270000000000003,-69.30670658038814
-0.24369999999999992,-69.43403059737601
-0.24470000000000003,-69.61794306635846
-0.24569999999999992,-69.74526708334632
-0.24670000000000003,-69.91503243933012
-0.24769999999999992,-70.05650356931662
-0.24870000000000003,-70.22626892530042
-0.24969999999999992,-70.43847562028017
-0.25070000000000003,-70.62238808926263
-0.2516999999999999,-70.8345947842424
-0.25270000000000004,-70.96191880123024
-0.2536999999999999,-71.10338993121674
-0.25470000000000004,-71.18827260920865
-0.2556999999999999,-71.27315528720055
-0.25670000000000004,-71.31559662619651
-0.25769999999999993,-71.4004793041884
-0.25870000000000004,-71.48536198218031
-0.25969999999999993,-71.66927445116276
-0.26070000000000004,-71.83903980714656
-0.26169999999999993,-72.00880516313036
-0.26270000000000004,-72.15027629311687
-0.26369999999999993,-72.19271763211282
-0.26470000000000005,-72.19271763211282
-0.26569999999999994,-72.19271763211282
-0.26670000000000005,-72.10783495412092
-0.26769999999999994,-72.05124650212633
-0.26870000000000005,-72.00880516313036
-0.26969999999999994,-72.05124650212633
-0.27070000000000005,-72.15027629311687
-0.27169999999999994,-72.36248298809663
-0.27270000000000005,-72.63127813507097
-0.27369999999999994,-72.92836750804264
-0.27470000000000006,-73.197162655017
-0.27569999999999995,-73.49425202798865
-0.27670000000000006,-73.6781644969711
-0.27769999999999995,-73.8479298529549
-0.27870000000000006,-74.06013654793468
-0.27969999999999995,-74.20160767792116
-0.28070000000000006,-74.32893169490903
-0.28169999999999995,-74.45625571189689
-0.28270000000000006,-74.54113838988879
-0.28369999999999995,-74.49869705089283
-0.28470000000000006,-74.41381437290093
-0.28569999999999995,-74.28649035591307
-0.28670000000000007,-74.10257788693062
-0.28769999999999996,-74.0176952089387
-0.28870000000000007,-73.97525386994278
-0.28969999999999996,-74.06013654793468
-0.29070000000000007,-74.24404901691713
-0.29169999999999996,-74.49869705089283
-0.29270000000000007,-74.66846240687663
-0.29369999999999996,-74.8523748758591
-0.2947000000000001,-75.02214023184291
-0.29569999999999996,-75.14946424883075
-0.2967000000000001,-75.19190558782671
-0.29769999999999996,-75.2484940398213
-0.2987000000000001,-75.33337671781321
-0.29969999999999997,-75.37581805680915
-0.3007000000000001,-75.4182593958051
-0.30169999999999997,-75.50314207379701
-0.3027000000000001,-75.50314207379701
-0.30369999999999997,-75.46070073480107
-0.3047000000000001,-75.33337671781321
-0.30569999999999997,-75.14946424883075
-0.3067000000000001,-75.02214023184291
-0.3077,-75.02214023184291
-0.3087000000000001,-75.14946424883075
-0.3097,-75.33337671781321
-0.3107000000000001,-75.54558341279296
-0.3117,-75.81437855976732
-0.3127000000000001,-75.98414391575112
-0.3137,-76.15390927173492
-0.3147000000000001,-76.29538040172143
-0.3157,-76.38026307971333
-0.3167000000000001,-76.38026307971333
-0.3177,-76.42270441870929
-0.3187000000000001,-76.42270441870929
-0.3197,-76.46514575770523
-0.3207000000000001,-76.50758709670117
-0.3217,-76.55002843569714
-0.3227000000000001,-76.46514575770523
-0.3237,-76.42270441870929
-0.3247000000000001,-76.33782174071737
-0.3257,-76.29538040172143
-0.3267000000000001,-76.29538040172143
-0.3277,-76.42270441870929
-0.3287000000000001,-76.5924697746931
-0.3297,-76.7622351306769
-0.3307000000000001,-76.98858893865528
-0.3317,-77.11591295564315
-0.3327000000000001,-77.243236972631
-0.3337,-77.34226676362155
-0.3347000000000001,-77.38470810261751
-0.3357,-77.38470810261751
-0.3367000000000001,-77.28567831162695
-0.3377,-77.243236972631
-0.3387000000000001,-77.28567831162695
-0.3397,-77.38470810261751
-0.3407000000000001,-77.51203211960537
-0.3417,-77.63935613659322
-0.3427000000000001,-77.76668015358106
-0.3437,-77.86570994457162
-0.3447000000000001,-77.90815128356756
-0.3457,-77.95059262256353
-0.3467000000000001,-77.99303396155948
-0.3477,-78.07791663955136
-0.3487000000000001,-78.24768199553519
-0.3497,-78.38915312552167
-0.3507000000000001,-78.55891848150549
-0.3517,-78.68624249849334
-0.3527000000000001,-78.72868383748929
-0.3537,-78.72868383748929
-0.3547000000000001,-78.77112517648524
-0.3557,-78.91259630647174
-0.35670000000000013,-78.9550376454677
-0.3577,-78.99747898446365
-0.35870000000000013,-79.08236166245555
-0.3597,-79.20968567944341
-0.36070000000000013,-79.47848082641775
-0.3617,-79.73312886039348
-0.3626999999999999,-79.90289421637728
-0.3637,-80.00192400736783
-0.3646999999999999,-79.94533555537322
-0.3657,-79.81801153838538
-0.3666999999999999,-79.73312886039348
-0.3677,-79.86045287738132
-0.3686999999999999,-79.94533555537322
-0.36970000000000003,-80.00192400736783
-0.3706999999999999,-79.94533555537322
-0.37170000000000003,-79.90289421637728
-0.3726999999999999,-79.73312886039348
-0.37370000000000003,-79.69068752139752
-0.3746999999999999,-79.73312886039348
-0.37570000000000003,-79.86045287738132
-0.3766999999999999,-80.12924802435568
-0.37770000000000004,-80.56780852731384
-0.3786999999999999,-81.04881036926795
-0.37970000000000004,-81.57225355021802
-0.3806999999999999,-82.03910827917348
-0.38170000000000004,-82.47766878213164
-0.38269999999999993,-82.8313466070979
-0.38370000000000004,-82.87378794609386
-0.38469999999999993,-82.9162292850898
-0.38570000000000004,-82.87378794609386
-0.38669999999999993,-82.87378794609386
-0.38770000000000004,-82.95867062408576
-0.38869999999999993,-83.04355330207765
-0.38970000000000005,-83.14258309306821
-0.39069999999999994,-83.14258309306821
-0.39170000000000005,-83.18502443206415
-0.39269999999999994,-83.22746577106011
-0.39370000000000005,-83.31234844905201
-0.39469999999999994,-83.39723112704392
-0.39570000000000005,-83.52455514403178
-0.39669999999999994,-83.66602627401826
-0.39770000000000005,-83.79335029100612
-0.39869999999999994,-83.92067430799398
-0.39970000000000006,-84.09043966397778
-0.40069999999999995,-84.35923481095215
-0.40170000000000006,-84.6563241839238
-0.40269999999999995,-84.96756066989411
-0.40370000000000006,-85.23635581686847
-0.40469999999999995,-85.49100385084417
-0.40570000000000006,-85.70321054582392
-0.40669999999999995,-85.97200569279828
-0.40770000000000006,-86.28324217876859
-0.40869999999999995,-86.5378902127443
-0.40970000000000006,-86.7076555687281
-0.41069999999999995,-86.80668535971866
-0.41170000000000007,-86.89156803771054
-0.41269999999999996,-87.06133339369435
-0.41370000000000007,-87.27354008867411
-0.41469999999999996,-87.49989389665252
-0.41570000000000007,-87.71210059163228
-0.41669999999999996,-87.93845439961068
-0.41770000000000007,-88.06577841659853
-0.41869999999999996,-88.19310243358639
-0.4197000000000001,-88.32042645057423
-0.42069999999999996,-88.54678025855264
-0.4217000000000001,-88.8438696315243
-0.42269999999999996,-89.15510611749461
-0.4237000000000001,-89.36731281247435
-0.42469999999999997,-89.59366662045278
-0.4257000000000001,-89.80587331543254
-0.42669999999999997,-90.03222712341093
-0.4277000000000001,-90.20199247939475
-0.42869999999999997,-90.51322896536506
-0.4297000000000001,-90.85275967733266
-0.43069999999999997,-91.16399616330297
-0.4317000000000001,-91.51767398826922
-0.4327,-91.72988068324898
-0.4337000000000001,-91.89964603923279
-0.4347,-92.29576520319499
-0.4357000000000001,-92.56456035016936
-0.4367,-92.81920838414506
-0.4377000000000001,-93.17288620911131
-0.4387,-93.51241692107894
-0.4397000000000001,-93.86609474604518
-0.4407,-94.34709658799929
-0.4417000000000001,-94.87053976894937
-0.4427,-95.47886562789132
-0.4437000000000001,-95.95986746984543
-0.4447,-96.3984279728036
-0.4457000000000001,-96.79454713676581
-0.4467,-97.13407784873341
-0.4477000000000001,-97.44531433470372
-0.4487,-97.78484504667132
-0.4497000000000001,-98.13852287163759
-0.4507,-98.4497593576079
-0.4517000000000001,-98.7892900695755
-0.4527,-99.10052655554581
-0.4537000000000001,-99.41176304151614
-0.4547,-99.7937350924797
-0.4557000000000001,-100.23229559543785
-0.4567,-100.71329743739196
-0.4577000000000001,-101.23674061834203
-0.4587,-101.71774246029614
-0.4597000000000001,-102.3260683192381
-0.4607,-102.97683551717601
-0.4617000000000001,-103.76907384510045
-0.4627,-104.58960639902216
-0.4637000000000001,-105.33940338795064
-0.4647,-106.11749460287639
-0.4657000000000001,-106.86729159180487
-0.4667,-107.68782414572658
-0.4677000000000001,-108.60738649063886
-0.4687,-109.61183151354304
-0.4697000000000001,-110.65871787544317
-0.4707,-111.66316289834735
-0.4717000000000001,-112.58272524325962
-0.4727,-113.36081645818538
-0.4737000000000001,-114.11061344711386
-0.4747,-114.76138064505177
-0.4757000000000001,-115.36970650399375
-0.4767,-115.8931496849438
-0.4777000000000001,-116.45903420488982
-0.4787,-117.10980140282774
-0.4797000000000001,-117.90203973075215
-0.4807,-118.82160207566443
-0.48170000000000013,-119.86848843756455
-0.4827,-120.85878634747009
-0.48370000000000013,-121.77834869238235
-0.4847,-122.65546969829869
-0.48570000000000013,-123.532590704215
-0.4867,-123.26379555724066
-0.48570000000000013,-121.38222952842017
-0.4847,-120.03825379354835
-0.48370000000000013,-118.55280692869007
-0.4827,-117.19468408081964
-0.48170000000000013,-115.76582566795594
-0.4807,-114.28037880309766
-0.4797000000000001,-112.87981461623129
-0.4787,-111.49339754236355
-0.4777000000000001,-110.3050400504769
-0.4767,-109.17327101058488
-0.4757000000000001,-108.1688259876807
-0.4747,-107.30585209476303
-0.4737000000000001,-106.51361376683862
-0.4727,-105.7779638909088
-0.4717000000000001,-105.07060824097626
-0.4707,-104.25007568705455
-0.4697000000000001,-103.28807200314633
-0.4687,-102.19874430225026
-0.4677000000000001,-101.02453392336226
-0.4667,-99.7937350924797
-0.4657000000000001,-98.6195247135917
-0.4647,-97.57263835169158
-0.4637000000000001,-96.5681933287874
-0.4627,-95.52130696688728
-0.4617000000000001,-94.5168619439831
-0.4607,-93.38509290409107
