Jan. 15, 2025   06:01:24
Cyclic Voltammetry
File: c:/users/guazh/data/banditlqround7_x0exp772_r5/2025-01-10-exp850\exp850-2025-01-15t05_49_51-arkoh\exp850_cv_sr_600mvs_efin_-1500mv.bin
Data Source:  Experiment
Instrument Model:  CHI760E
Header: CV ran at 600 mVs
Note: 

Init E (V) = -1
High E (V) = -1
Low E (V) = -1.5
Final E (V) = -1
Init P/N = N
Scan Rate (V/s) = 0.6
Segment = 3
Sample Interval (V) = 0.001
Quiet Time (sec) = 2
Sensitivity (A/V) = 0.01
Comp R (ohm) = 1.4

Results:

Channel 1:
Segment 1:

Segment 2:

Segment 3:

Potential/V, Current/A

-1.000, -1.787e-4
-1.001, -9.542e-5
-1.002, -3.068e-5
-1.003, 2.482e-5
-1.004, 7.723e-5
-1.005, 1.204e-4
-1.006, 1.605e-4
-1.007, 1.944e-4
-1.008, 2.221e-4
-1.009, 2.530e-4
-1.010, 2.746e-4
-1.011, 3.023e-4
-1.012, 3.300e-4
-1.013, 3.578e-4
-1.014, 3.855e-4
-1.015, 4.133e-4
-1.016, 4.380e-4
-1.017, 4.595e-4
-1.018, 4.780e-4
-1.019, 4.965e-4
-1.020, 5.150e-4
-1.021, 5.305e-4
-1.022, 5.520e-4
-1.023, 5.767e-4
-1.024, 5.983e-4
-1.025, 6.199e-4
-1.026, 6.414e-4
-1.027, 6.599e-4
-1.028, 6.754e-4
-1.029, 6.908e-4
-1.030, 7.062e-4
-1.031, 7.216e-4
-1.032, 7.432e-4
-1.033, 7.617e-4
-1.034, 7.833e-4
-1.035, 8.048e-4
-1.036, 8.233e-4
-1.037, 8.418e-4
-1.038, 8.573e-4
-1.039, 8.727e-4
-1.040, 8.881e-4
-1.041, 9.066e-4
-1.042, 9.220e-4
-1.043, 9.436e-4
-1.044, 9.683e-4
-1.045, 9.898e-4
-1.046, 1.011e-3
-1.047, 1.030e-3
-1.048, 1.045e-3
-1.049, 1.061e-3
-1.050, 1.079e-3
-1.051, 1.095e-3
-1.052, 1.113e-3
-1.053, 1.132e-3
-1.054, 1.153e-3
-1.055, 1.175e-3
-1.056, 1.196e-3
-1.057, 1.212e-3
-1.058, 1.227e-3
-1.059, 1.243e-3
-1.060, 1.258e-3
-1.061, 1.273e-3
-1.062, 1.292e-3
-1.063, 1.317e-3
-1.064, 1.341e-3
-1.065, 1.366e-3
-1.066, 1.391e-3
-1.067, 1.412e-3
-1.068, 1.431e-3
-1.069, 1.449e-3
-1.070, 1.465e-3
-1.071, 1.486e-3
-1.072, 1.508e-3
-1.073, 1.532e-3
-1.074, 1.557e-3
-1.075, 1.582e-3
-1.076, 1.606e-3
-1.077, 1.625e-3
-1.078, 1.640e-3
-1.079, 1.659e-3
-1.080, 1.674e-3
-1.081, 1.690e-3
-1.082, 1.714e-3
-1.083, 1.739e-3
-1.084, 1.761e-3
-1.085, 1.788e-3
-1.086, 1.813e-3
-1.087, 1.835e-3
-1.088, 1.853e-3
-1.089, 1.869e-3
-1.090, 1.884e-3
-1.091, 1.902e-3
-1.092, 1.924e-3
-1.093, 1.946e-3
-1.094, 1.970e-3
-1.095, 2.001e-3
-1.096, 2.023e-3
-1.097, 2.047e-3
-1.098, 2.066e-3
-1.099, 2.087e-3
-1.100, 2.106e-3
-1.101, 2.131e-3
-1.102, 2.155e-3
-1.103, 2.180e-3
-1.104, 2.208e-3
-1.105, 2.235e-3
-1.106, 2.263e-3
-1.107, 2.285e-3
-1.108, 2.303e-3
-1.109, 2.325e-3
-1.110, 2.340e-3
-1.111, 2.362e-3
-1.112, 2.383e-3
-1.113, 2.408e-3
-1.114, 2.436e-3
-1.115, 2.460e-3
-1.116, 2.485e-3
-1.117, 2.504e-3
-1.118, 2.525e-3
-1.119, 2.544e-3
-1.120, 2.559e-3
-1.121, 2.578e-3
-1.122, 2.596e-3
-1.123, 2.618e-3
-1.124, 2.639e-3
-1.125, 2.667e-3
-1.126, 2.692e-3
-1.127, 2.710e-3
-1.128, 2.732e-3
-1.129, 2.750e-3
-1.130, 2.769e-3
-1.131, 2.787e-3
-1.132, 2.809e-3
-1.133, 2.837e-3
-1.134, 2.861e-3
-1.135, 2.886e-3
-1.136, 2.911e-3
-1.137, 2.932e-3
-1.138, 2.954e-3
-1.139, 2.972e-3
-1.140, 2.991e-3
-1.141, 3.006e-3
-1.142, 3.025e-3
-1.143, 3.049e-3
-1.144, 3.077e-3
-1.145, 3.105e-3
-1.146, 3.130e-3
-1.147, 3.148e-3
-1.148, 3.163e-3
-1.149, 3.179e-3
-1.150, 3.194e-3
-1.151, 3.213e-3
-1.152, 3.231e-3
-1.153, 3.259e-3
-1.154, 3.281e-3
-1.155, 3.311e-3
-1.156, 3.339e-3
-1.157, 3.361e-3
-1.158, 3.385e-3
-1.159, 3.407e-3
-1.160, 3.422e-3
-1.161, 3.441e-3
-1.162, 3.459e-3
-1.163, 3.481e-3
-1.164, 3.503e-3
-1.165, 3.524e-3
-1.166, 3.543e-3
-1.167, 3.558e-3
-1.168, 3.570e-3
-1.169, 3.583e-3
-1.170, 3.592e-3
-1.171, 3.607e-3
-1.172, 3.626e-3
-1.173, 3.647e-3
-1.174, 3.678e-3
-1.175, 3.706e-3
-1.176, 3.728e-3
-1.177, 3.746e-3
-1.178, 3.762e-3
-1.179, 3.771e-3
-1.180, 3.783e-3
-1.181, 3.792e-3
-1.182, 3.805e-3
-1.183, 3.823e-3
-1.184, 3.839e-3
-1.185, 3.857e-3
-1.186, 3.876e-3
-1.187, 3.891e-3
-1.188, 3.906e-3
-1.189, 3.922e-3
-1.190, 3.943e-3
-1.191, 3.965e-3
-1.192, 3.993e-3
-1.193, 4.024e-3
-1.194, 4.058e-3
-1.195, 4.088e-3
-1.196, 4.116e-3
-1.197, 4.135e-3
-1.198, 4.150e-3
-1.199, 4.162e-3
-1.200, 4.172e-3
-1.201, 4.178e-3
-1.202, 4.187e-3
-1.203, 4.206e-3
-1.204, 4.224e-3
-1.205, 4.243e-3
-1.206, 4.258e-3
-1.207, 4.273e-3
-1.208, 4.289e-3
-1.209, 4.301e-3
-1.210, 4.317e-3
-1.211, 4.335e-3
-1.212, 4.357e-3
-1.213, 4.378e-3
-1.214, 4.394e-3
-1.215, 4.406e-3
-1.216, 4.415e-3
-1.217, 4.421e-3
-1.218, 4.421e-3
-1.219, 4.428e-3
-1.220, 4.431e-3
-1.221, 4.437e-3
-1.222, 4.449e-3
-1.223, 4.461e-3
-1.224, 4.477e-3
-1.225, 4.498e-3
-1.226, 4.520e-3
-1.227, 4.542e-3
-1.228, 4.560e-3
-1.229, 4.579e-3
-1.230, 4.591e-3
-1.231, 4.603e-3
-1.232, 4.622e-3
-1.233, 4.640e-3
-1.234, 4.656e-3
-1.235, 4.671e-3
-1.236, 4.680e-3
-1.237, 4.690e-3
-1.238, 4.702e-3
-1.239, 4.714e-3
-1.240, 4.730e-3
-1.241, 4.745e-3
-1.242, 4.760e-3
-1.243, 4.776e-3
-1.244, 4.791e-3
-1.245, 4.810e-3
-1.246, 4.825e-3
-1.247, 4.838e-3
-1.248, 4.847e-3
-1.249, 4.856e-3
-1.250, 4.859e-3
-1.251, 4.865e-3
-1.252, 4.868e-3
-1.253, 4.875e-3
-1.254, 4.884e-3
-1.255, 4.893e-3
-1.256, 4.899e-3
-1.257, 4.908e-3
-1.258, 4.921e-3
-1.259, 4.930e-3
-1.260, 4.942e-3
-1.261, 4.952e-3
-1.262, 4.964e-3
-1.263, 4.979e-3
-1.264, 4.992e-3
-1.265, 5.007e-3
-1.266, 5.016e-3
-1.267, 5.026e-3
-1.268, 5.032e-3
-1.269, 5.038e-3
-1.270, 5.041e-3
-1.271, 5.047e-3
-1.272, 5.053e-3
-1.273, 5.066e-3
-1.274, 5.078e-3
-1.275, 5.090e-3
-1.276, 5.100e-3
-1.277, 5.103e-3
-1.278, 5.103e-3
-1.279, 5.103e-3
-1.280, 5.097e-3
-1.281, 5.093e-3
-1.282, 5.090e-3
-1.283, 5.093e-3
-1.284, 5.100e-3
-1.285, 5.115e-3
-1.286, 5.134e-3
-1.287, 5.155e-3
-1.288, 5.174e-3
-1.289, 5.195e-3
-1.290, 5.208e-3
-1.291, 5.220e-3
-1.292, 5.235e-3
-1.293, 5.245e-3
-1.294, 5.254e-3
-1.295, 5.263e-3
-1.296, 5.269e-3
-1.297, 5.266e-3
-1.298, 5.260e-3
-1.299, 5.251e-3
-1.300, 5.238e-3
-1.301, 5.232e-3
-1.302, 5.229e-3
-1.303, 5.235e-3
-1.304, 5.248e-3
-1.305, 5.266e-3
-1.306, 5.278e-3
-1.307, 5.291e-3
-1.308, 5.303e-3
-1.309, 5.312e-3
-1.310, 5.315e-3
-1.311, 5.319e-3
-1.312, 5.325e-3
-1.313, 5.328e-3
-1.314, 5.331e-3
-1.315, 5.337e-3
-1.316, 5.337e-3
-1.317, 5.334e-3
-1.318, 5.325e-3
-1.319, 5.312e-3
-1.320, 5.303e-3
-1.321, 5.303e-3
-1.322, 5.312e-3
-1.323, 5.325e-3
-1.324, 5.340e-3
-1.325, 5.359e-3
-1.326, 5.371e-3
-1.327, 5.383e-3
-1.328, 5.393e-3
-1.329, 5.399e-3
-1.330, 5.399e-3
-1.331, 5.402e-3
-1.332, 5.402e-3
-1.333, 5.405e-3
-1.334, 5.408e-3
-1.335, 5.411e-3
-1.336, 5.405e-3
-1.337, 5.402e-3
-1.338, 5.396e-3
-1.339, 5.393e-3
-1.340, 5.393e-3
-1.341, 5.402e-3
-1.342, 5.414e-3
-1.343, 5.426e-3
-1.344, 5.442e-3
-1.345, 5.451e-3
-1.346, 5.460e-3
-1.347, 5.467e-3
-1.348, 5.470e-3
-1.349, 5.470e-3
-1.350, 5.463e-3
-1.351, 5.460e-3
-1.352, 5.463e-3
-1.353, 5.470e-3
-1.354, 5.479e-3
-1.355, 5.488e-3
-1.356, 5.497e-3
-1.357, 5.504e-3
-1.358, 5.507e-3
-1.359, 5.510e-3
-1.360, 5.513e-3
-1.361, 5.519e-3
-1.362, 5.531e-3
-1.363, 5.541e-3
-1.364, 5.553e-3
-1.365, 5.562e-3
-1.366, 5.565e-3
-1.367, 5.565e-3
-1.368, 5.568e-3
-1.369, 5.578e-3
-1.370, 5.581e-3
-1.371, 5.584e-3
-1.372, 5.590e-3
-1.373, 5.599e-3
-1.374, 5.618e-3
-1.375, 5.636e-3
-1.376, 5.648e-3
-1.377, 5.655e-3
-1.378, 5.651e-3
-1.379, 5.642e-3
-1.380, 5.636e-3
-1.381, 5.645e-3
-1.382, 5.651e-3
-1.383, 5.655e-3
-1.384, 5.651e-3
-1.385, 5.648e-3
-1.386, 5.636e-3
-1.387, 5.633e-3
-1.388, 5.636e-3
-1.389, 5.645e-3
-1.390, 5.664e-3
-1.391, 5.695e-3
-1.392, 5.729e-3
-1.393, 5.766e-3
-1.394, 5.799e-3
-1.395, 5.830e-3
-1.396, 5.855e-3
-1.397, 5.858e-3
-1.398, 5.861e-3
-1.399, 5.858e-3
-1.400, 5.858e-3
-1.401, 5.864e-3
-1.402, 5.870e-3
-1.403, 5.877e-3
-1.404, 5.877e-3
-1.405, 5.880e-3
-1.406, 5.883e-3
-1.407, 5.889e-3
-1.408, 5.895e-3
-1.409, 5.904e-3
-1.410, 5.914e-3
-1.411, 5.923e-3
-1.412, 5.932e-3
-1.413, 5.944e-3
-1.414, 5.963e-3
-1.415, 5.984e-3
-1.416, 6.006e-3
-1.417, 6.025e-3
-1.418, 6.043e-3
-1.419, 6.058e-3
-1.420, 6.077e-3
-1.421, 6.099e-3
-1.422, 6.117e-3
-1.423, 6.129e-3
-1.424, 6.136e-3
-1.425, 6.142e-3
-1.426, 6.154e-3
-1.427, 6.169e-3
-1.428, 6.185e-3
-1.429, 6.200e-3
-1.430, 6.216e-3
-1.431, 6.225e-3
-1.432, 6.234e-3
-1.433, 6.243e-3
-1.434, 6.259e-3
-1.435, 6.280e-3
-1.436, 6.302e-3
-1.437, 6.317e-3
-1.438, 6.333e-3
-1.439, 6.348e-3
-1.440, 6.364e-3
-1.441, 6.376e-3
-1.442, 6.398e-3
-1.443, 6.422e-3
-1.444, 6.444e-3
-1.445, 6.469e-3
-1.446, 6.484e-3
-1.447, 6.496e-3
-1.448, 6.524e-3
-1.449, 6.543e-3
-1.450, 6.561e-3
-1.451, 6.586e-3
-1.452, 6.610e-3
-1.453, 6.635e-3
-1.454, 6.669e-3
-1.455, 6.706e-3
-1.456, 6.749e-3
-1.457, 6.783e-3
-1.458, 6.814e-3
-1.459, 6.842e-3
-1.460, 6.866e-3
-1.461, 6.888e-3
-1.462, 6.912e-3
-1.463, 6.937e-3
-1.464, 6.959e-3
-1.465, 6.983e-3
-1.466, 7.005e-3
-1.467, 7.027e-3
-1.468, 7.054e-3
-1.469, 7.085e-3
-1.470, 7.119e-3
-1.471, 7.156e-3
-1.472, 7.190e-3
-1.473, 7.233e-3
-1.474, 7.279e-3
-1.475, 7.335e-3
-1.476, 7.393e-3
-1.477, 7.446e-3
-1.478, 7.501e-3
-1.479, 7.554e-3
-1.480, 7.612e-3
-1.481, 7.677e-3
-1.482, 7.748e-3
-1.483, 7.822e-3
-1.484, 7.893e-3
-1.485, 7.958e-3
-1.486, 8.013e-3
-1.487, 8.066e-3
-1.488, 8.112e-3
-1.489, 8.155e-3
-1.490, 8.192e-3
-1.491, 8.232e-3
-1.492, 8.278e-3
-1.493, 8.334e-3
-1.494, 8.399e-3
-1.495, 8.473e-3
-1.496, 8.543e-3
-1.497, 8.608e-3
-1.498, 8.670e-3
-1.499, 8.732e-3
-1.500, 8.713e-3
-1.499, 8.580e-3
-1.498, 8.485e-3
-1.497, 8.380e-3
-1.496, 8.284e-3
-1.495, 8.183e-3
-1.494, 8.078e-3
-1.493, 7.979e-3
-1.492, 7.881e-3
-1.491, 7.797e-3
-1.490, 7.717e-3
-1.489, 7.646e-3
-1.488, 7.585e-3
-1.487, 7.529e-3
-1.486, 7.477e-3
-1.485, 7.427e-3
-1.484, 7.369e-3
-1.483, 7.301e-3
-1.482, 7.224e-3
-1.481, 7.141e-3
-1.480, 7.054e-3
-1.479, 6.971e-3
-1.478, 6.897e-3
-1.477, 6.826e-3
-1.476, 6.752e-3
-1.475, 6.681e-3
-1.474, 6.601e-3
-1.473, 6.518e-3
-1.472, 6.438e-3
-1.471, 6.358e-3
-1.470, 6.277e-3
-1.469, 6.203e-3
-1.468, 6.129e-3
-1.467, 6.058e-3
-1.466, 5.994e-3
-1.465, 5.935e-3
-1.464, 5.877e-3
-1.463, 5.818e-3
-1.462, 5.756e-3
-1.461, 5.692e-3
-1.460, 5.624e-3
-1.459, 5.559e-3
-1.458, 5.500e-3
-1.457, 5.442e-3
-1.456, 5.380e-3
-1.455, 5.315e-3
-1.454, 5.241e-3
-1.453, 5.164e-3
-1.452, 5.084e-3
-1.451, 5.004e-3
-1.450, 4.933e-3
-1.449, 4.865e-3
-1.448, 4.801e-3
-1.447, 4.739e-3
-1.446, 4.680e-3
-1.445, 4.625e-3
-1.444, 4.572e-3
-1.443, 4.523e-3
-1.442, 4.464e-3
-1.441, 4.400e-3
-1.440, 4.335e-3
-1.439, 4.264e-3
-1.438, 4.196e-3
-1.437, 4.135e-3
-1.436, 4.079e-3
-1.435, 4.024e-3
-1.434, 3.962e-3
-1.433, 3.894e-3
-1.432, 3.823e-3
-1.431, 3.755e-3
-1.430, 3.691e-3
-1.429, 3.632e-3
-1.428, 3.577e-3
-1.427, 3.524e-3
-1.426, 3.472e-3
-1.425, 3.419e-3
-1.424, 3.370e-3
-1.423, 3.318e-3
-1.422, 3.262e-3
-1.421, 3.210e-3
-1.420, 3.154e-3
-1.419, 3.102e-3
-1.418, 3.059e-3
-1.417, 3.015e-3
-1.416, 2.972e-3
-1.415, 2.926e-3
-1.414, 2.877e-3
-1.413, 2.821e-3
-1.412, 2.766e-3
-1.411, 2.710e-3
-1.410, 2.652e-3
-1.409, 2.599e-3
-1.408, 2.556e-3
-1.407, 2.513e-3
-1.406, 2.470e-3
-1.405, 2.433e-3
-1.404, 2.386e-3
-1.403, 2.340e-3
-1.402, 2.285e-3
-1.401, 2.229e-3
-1.400, 2.174e-3
-1.399, 2.124e-3
-1.398, 2.081e-3
-1.397, 2.038e-3
-1.396, 1.995e-3
-1.395, 1.952e-3
-1.394, 1.909e-3
-1.393, 1.862e-3
-1.392, 1.816e-3
-1.391, 1.773e-3
-1.390, 1.730e-3
-1.389, 1.687e-3
-1.388, 1.650e-3
-1.387, 1.616e-3
-1.386, 1.585e-3
-1.385, 1.551e-3
-1.384, 1.520e-3
-1.383, 1.480e-3
-1.382, 1.440e-3
-1.381, 1.397e-3
-1.380, 1.357e-3
-1.379, 1.317e-3
-1.378, 1.283e-3
-1.377, 1.252e-3
-1.376, 1.218e-3
-1.375, 1.187e-3
-1.374, 1.150e-3
-1.373, 1.113e-3
-1.372, 1.073e-3
-1.371, 1.033e-3
-1.370, 9.960e-4
-1.369, 9.590e-4
-1.368, 9.282e-4
-1.367, 9.004e-4
-1.366, 8.758e-4
-1.365, 8.480e-4
-1.364, 8.233e-4
-1.363, 7.956e-4
-1.362, 7.648e-4
-1.361, 7.339e-4
-1.360, 7.062e-4
-1.359, 6.723e-4
-1.358, 6.476e-4
-1.357, 6.199e-4
-1.356, 5.952e-4
-1.355, 5.674e-4
-1.354, 5.397e-4
-1.353, 5.089e-4
-1.352, 4.780e-4
-1.351, 4.472e-4
-1.350, 4.164e-4
-1.349, 3.886e-4
-1.348, 3.670e-4
-1.347, 3.455e-4
-1.346, 3.270e-4
-1.345, 3.085e-4
-1.344, 2.869e-4
-1.343, 2.622e-4
-1.342, 2.345e-4
-1.341, 2.098e-4
-1.340, 1.821e-4
-1.339, 1.574e-4
-1.338, 1.358e-4
-1.337, 1.142e-4
-1.336, 9.573e-5
-1.335, 7.723e-5
-1.334, 5.565e-5
-1.333, 2.790e-5
-1.332, 3.239e-6
-1.331, -2.143e-5
-1.330, -4.609e-5
-1.329, -7.076e-5
-1.328, -8.925e-5
-1.327, -1.078e-4
-1.326, -1.232e-4
-1.325, -1.417e-4
-1.324, -1.602e-4
-1.323, -1.817e-4
-1.322, -2.033e-4
-1.321, -2.280e-4
-1.320, -2.496e-4
-1.319, -2.712e-4
-1.318, -2.897e-4
-1.317, -3.051e-4
-1.316, -3.236e-4
-1.315, -3.359e-4
-1.314, -3.544e-4
-1.313, -3.729e-4
-1.312, -3.945e-4
-1.311, -4.161e-4
-1.310, -4.376e-4
-1.309, -4.561e-4
-1.308, -4.746e-4
-1.307, -4.870e-4
-1.306, -5.024e-4
-1.305, -5.178e-4
-1.304, -5.301e-4
-1.303, -5.517e-4
-1.302, -5.702e-4
-1.301, -5.918e-4
-1.300, -6.134e-4
-1.299, -6.319e-4
-1.298, -6.504e-4
-1.297, -6.627e-4
-1.296, -6.750e-4
-1.295, -6.905e-4
-1.294, -7.028e-4
-1.293, -7.182e-4
-1.292, -7.398e-4
-1.291, -7.583e-4
-1.290, -7.830e-4
-1.289, -8.015e-4
-1.288, -8.138e-4
-1.287, -8.261e-4
-1.286, -8.385e-4
-1.285, -8.477e-4
-1.284, -8.631e-4
-1.283, -8.785e-4
-1.282, -8.970e-4
-1.281, -9.155e-4
-1.280, -9.340e-4
-1.279, -9.525e-4
-1.278, -9.649e-4
-1.277, -9.741e-4
-1.276, -9.864e-4
-1.275, -9.926e-4
-1.274, -1.005e-3
-1.273, -1.020e-3
-1.272, -1.039e-3
-1.271, -1.054e-3
-1.270, -1.076e-3
-1.269, -1.091e-3
-1.268, -1.107e-3
-1.267, -1.116e-3
-1.266, -1.128e-3
-1.265, -1.138e-3
-1.264, -1.150e-3
-1.263, -1.168e-3
-1.262, -1.184e-3
-1.261, -1.205e-3
-1.260, -1.224e-3
-1.259, -1.242e-3
-1.258, -1.255e-3
-1.257, -1.267e-3
-1.256, -1.276e-3
-1.255, -1.289e-3
-1.254, -1.301e-3
-1.253, -1.316e-3
-1.252, -1.335e-3
-1.251, -1.350e-3
-1.250, -1.369e-3
-1.249, -1.384e-3
-1.248, -1.396e-3
-1.247, -1.406e-3
-1.246, -1.415e-3
-1.245, -1.424e-3
-1.244, -1.440e-3
-1.243, -1.455e-3
-1.242, -1.477e-3
-1.241, -1.495e-3
-1.240, -1.514e-3
-1.239, -1.529e-3
-1.238, -1.541e-3
-1.237, -1.554e-3
-1.236, -1.566e-3
-1.235, -1.575e-3
-1.234, -1.585e-3
-1.233, -1.597e-3
-1.232, -1.612e-3
-1.231, -1.628e-3
-1.230, -1.646e-3
-1.229, -1.665e-3
-1.228, -1.680e-3
-1.227, -1.692e-3
-1.226, -1.699e-3
-1.225, -1.711e-3
-1.224, -1.720e-3
-1.223, -1.733e-3
-1.222, -1.751e-3
-1.221, -1.766e-3
-1.220, -1.785e-3
-1.219, -1.800e-3
-1.218, -1.810e-3
-1.217, -1.822e-3
-1.216, -1.831e-3
-1.215, -1.844e-3
-1.214, -1.856e-3
-1.213, -1.868e-3
-1.212, -1.887e-3
-1.211, -1.902e-3
-1.210, -1.921e-3
-1.209, -1.936e-3
-1.208, -1.951e-3
-1.207, -1.961e-3
-1.206, -1.970e-3
-1.205, -1.976e-3
-1.204, -1.982e-3
-1.203, -1.995e-3
-1.202, -2.010e-3
-1.201, -2.025e-3
-1.200, -2.047e-3
-1.199, -2.062e-3
-1.198, -2.078e-3
-1.197, -2.090e-3
-1.196, -2.103e-3
-1.195, -2.115e-3
-1.194, -2.127e-3
-1.193, -2.146e-3
-1.192, -2.164e-3
-1.191, -2.186e-3
-1.190, -2.207e-3
-1.189, -2.223e-3
-1.188, -2.235e-3
-1.187, -2.244e-3
-1.186, -2.251e-3
-1.185, -2.257e-3
-1.184, -2.266e-3
-1.183, -2.281e-3
-1.182, -2.297e-3
-1.181, -2.312e-3
-1.180, -2.331e-3
-1.179, -2.346e-3
-1.178, -2.358e-3
-1.177, -2.371e-3
-1.176, -2.383e-3
-1.175, -2.399e-3
-1.174, -2.417e-3
-1.173, -2.436e-3
-1.172, -2.457e-3
-1.171, -2.482e-3
-1.170, -2.503e-3
-1.169, -2.522e-3
-1.168, -2.534e-3
-1.167, -2.540e-3
-1.166, -2.546e-3
-1.165, -2.553e-3
-1.164, -2.565e-3
-1.163, -2.577e-3
-1.162, -2.590e-3
-1.161, -2.602e-3
-1.160, -2.617e-3
-1.159, -2.630e-3
-1.158, -2.639e-3
-1.157, -2.651e-3
-1.156, -2.667e-3
-1.155, -2.679e-3
-1.154, -2.694e-3
-1.153, -2.713e-3
-1.152, -2.731e-3
-1.151, -2.750e-3
-1.150, -2.768e-3
-1.149, -2.787e-3
-1.148, -2.802e-3
-1.147, -2.815e-3
-1.146, -2.827e-3
-1.145, -2.839e-3
-1.144, -2.852e-3
-1.143, -2.870e-3
-1.142, -2.889e-3
-1.141, -2.907e-3
-1.140, -2.926e-3
-1.139, -2.941e-3
-1.138, -2.953e-3
-1.137, -2.963e-3
-1.136, -2.975e-3
-1.135, -2.984e-3
-1.134, -2.994e-3
-1.133, -3.009e-3
-1.132, -3.024e-3
-1.131, -3.043e-3
-1.130, -3.064e-3
-1.129, -3.083e-3
-1.128, -3.101e-3
-1.127, -3.117e-3
-1.126, -3.129e-3
-1.125, -3.138e-3
-1.124, -3.151e-3
-1.123, -3.169e-3
-1.122, -3.191e-3
-1.121, -3.209e-3
-1.120, -3.231e-3
-1.119, -3.243e-3
-1.118, -3.253e-3
-1.117, -3.259e-3
-1.116, -3.268e-3
-1.115, -3.277e-3
-1.114, -3.290e-3
-1.113, -3.308e-3
-1.112, -3.323e-3
-1.111, -3.342e-3
-1.110, -3.364e-3
-1.109, -3.382e-3
-1.108, -3.404e-3
-1.107, -3.419e-3
-1.106, -3.431e-3
-1.105, -3.441e-3
-1.104, -3.456e-3
-1.103, -3.478e-3
-1.102, -3.496e-3
-1.101, -3.512e-3
-1.100, -3.527e-3
-1.099, -3.536e-3
-1.098, -3.545e-3
-1.097, -3.555e-3
-1.096, -3.564e-3
-1.095, -3.573e-3
-1.094, -3.586e-3
-1.093, -3.598e-3
-1.092, -3.613e-3
-1.091, -3.629e-3
-1.090, -3.644e-3
-1.089, -3.659e-3
-1.088, -3.672e-3
-1.087, -3.684e-3
-1.086, -3.696e-3
-1.085, -3.709e-3
-1.084, -3.721e-3
-1.083, -3.737e-3
-1.082, -3.752e-3
-1.081, -3.767e-3
-1.080, -3.783e-3
-1.079, -3.798e-3
-1.078, -3.807e-3
-1.077, -3.823e-3
-1.076, -3.838e-3
-1.075, -3.854e-3
-1.074, -3.866e-3
-1.073, -3.881e-3
-1.072, -3.900e-3
-1.071, -3.915e-3
-1.070, -3.931e-3
-1.069, -3.946e-3
-1.068, -3.955e-3
-1.067, -3.962e-3
-1.066, -3.968e-3
-1.065, -3.977e-3
-1.064, -3.986e-3
-1.063, -4.002e-3
-1.062, -4.020e-3
-1.061, -4.042e-3
-1.060, -4.060e-3
-1.059, -4.073e-3
-1.058, -4.082e-3
-1.057, -4.085e-3
-1.056, -4.091e-3
-1.055, -4.097e-3
-1.054, -4.107e-3
-1.053, -4.119e-3
-1.052, -4.134e-3
-1.051, -4.150e-3
-1.050, -4.171e-3
-1.049, -4.187e-3
-1.048, -4.199e-3
-1.047, -4.211e-3
-1.046, -4.221e-3
-1.045, -4.230e-3
-1.044, -4.242e-3
-1.043, -4.255e-3
-1.042, -4.270e-3
-1.041, -4.282e-3
-1.040, -4.292e-3
-1.039, -4.295e-3
-1.038, -4.298e-3
-1.037, -4.301e-3
-1.036, -4.307e-3
-1.035, -4.313e-3
-1.034, -4.325e-3
-1.033, -4.335e-3
-1.032, -4.350e-3
-1.031, -4.362e-3
-1.030, -4.378e-3
-1.029, -4.393e-3
-1.028, -4.406e-3
-1.027, -4.415e-3
-1.026, -4.421e-3
-1.025, -4.430e-3
-1.024, -4.443e-3
-1.023, -4.461e-3
-1.022, -4.483e-3
-1.021, -4.504e-3
-1.020, -4.523e-3
-1.019, -4.541e-3
-1.018, -4.554e-3
-1.017, -4.563e-3
-1.016, -4.569e-3
-1.015, -4.575e-3
-1.014, -4.578e-3
-1.013, -4.584e-3
-1.012, -4.594e-3
-1.011, -4.603e-3
-1.010, -4.612e-3
-1.009, -4.625e-3
-1.008, -4.631e-3
-1.007, -4.637e-3
-1.006, -4.640e-3
-1.005, -4.643e-3
-1.004, -4.649e-3
-1.003, -4.655e-3
-1.002, -4.668e-3
-1.001, -4.680e-3
