Oct. 20, 2024   02:02:00
Cyclic Voltammetry
File: c:/users/guazh/data/banditlqround2/2024-10-18-exp580\exp580-2024-10-20t01_48_30-h2koh\exp580_cv_sr_100mvs_efin_-1600mv.bin
Data Source:  Experiment
Instrument Model:  CHI760E
Header: CV ran at 100 mVs
Note: 

Init E (V) = -1
High E (V) = -1
Low E (V) = -1.6
Final E (V) = -1
Init P/N = N
Scan Rate (V/s) = 0.1
Segment = 3
Sample Interval (V) = 0.001
Quiet Time (sec) = 2
Sensitivity (A/V) = 0.01
Comp R (ohm) = 0.9

Results:

Channel 1:
Segment 1:

Segment 2:

Segment 3:

Potential/V, Current/A

-1.000, 8.443e-6
-1.001, 1.542e-5
-1.002, 1.707e-5
-1.003, 1.524e-5
-1.004, 1.830e-5
-1.005, 1.592e-5
-1.006, 1.713e-5
-1.007, 1.808e-5
-1.008, 1.576e-5
-1.009, 1.870e-5
-1.010, 1.652e-5
-1.011, 1.768e-5
-1.012, 1.829e-5
-1.013, 1.623e-5
-1.014, 1.915e-5
-1.015, 1.676e-5
-1.016, 1.781e-5
-1.017, 1.843e-5
-1.018, 1.657e-5
-1.019, 1.930e-5
-1.020, 1.685e-5
-1.021, 1.809e-5
-1.022, 1.840e-5
-1.023, 1.666e-5
-1.024, 1.988e-5
-1.025, 1.714e-5
-1.026, 1.822e-5
-1.027, 1.882e-5
-1.028, 1.692e-5
-1.029, 1.952e-5
-1.030, 1.721e-5
-1.031, 1.858e-5
-1.032, 1.882e-5
-1.033, 1.710e-5
-1.034, 1.978e-5
-1.035, 1.713e-5
-1.036, 1.862e-5
-1.037, 1.911e-5
-1.038, 1.702e-5
-1.039, 1.983e-5
-1.040, 1.741e-5
-1.041, 1.859e-5
-1.042, 1.902e-5
-1.043, 1.697e-5
-1.044, 2.010e-5
-1.045, 1.729e-5
-1.046, 1.868e-5
-1.047, 1.935e-5
-1.048, 1.727e-5
-1.049, 2.001e-5
-1.050, 1.755e-5
-1.051, 1.880e-5
-1.052, 1.927e-5
-1.053, 1.723e-5
-1.054, 1.996e-5
-1.055, 1.753e-5
-1.056, 1.895e-5
-1.057, 1.911e-5
-1.058, 1.708e-5
-1.059, 2.017e-5
-1.060, 1.762e-5
-1.061, 1.898e-5
-1.062, 1.923e-5
-1.063, 1.745e-5
-1.064, 2.007e-5
-1.065, 1.762e-5
-1.066, 1.907e-5
-1.067, 1.937e-5
-1.068, 1.729e-5
-1.069, 2.019e-5
-1.070, 1.758e-5
-1.071, 1.920e-5
-1.072, 1.919e-5
-1.073, 1.735e-5
-1.074, 2.035e-5
-1.075, 1.792e-5
-1.076, 1.917e-5
-1.077, 1.944e-5
-1.078, 1.752e-5
-1.079, 2.041e-5
-1.080, 1.773e-5
-1.081, 1.925e-5
-1.082, 1.942e-5
-1.083, 1.771e-5
-1.084, 2.050e-5
-1.085, 1.779e-5
-1.086, 1.929e-5
-1.087, 1.936e-5
-1.088, 1.770e-5
-1.089, 2.057e-5
-1.090, 1.787e-5
-1.091, 1.930e-5
-1.092, 1.971e-5
-1.093, 1.770e-5
-1.094, 2.034e-5
-1.095, 1.790e-5
-1.096, 1.948e-5
-1.097, 1.942e-5
-1.098, 1.794e-5
-1.099, 2.035e-5
-1.100, 1.775e-5
-1.101, 1.957e-5
-1.102, 1.959e-5
-1.103, 1.774e-5
-1.104, 2.079e-5
-1.105, 1.791e-5
-1.106, 1.955e-5
-1.107, 1.969e-5
-1.108, 1.794e-5
-1.109, 2.052e-5
-1.110, 1.793e-5
-1.111, 1.988e-5
-1.112, 1.964e-5
-1.113, 1.787e-5
-1.114, 2.083e-5
-1.115, 1.807e-5
-1.116, 2.011e-5
-1.117, 1.980e-5
-1.118, 1.815e-5
-1.119, 2.080e-5
-1.120, 1.823e-5
-1.121, 1.977e-5
-1.122, 1.970e-5
-1.123, 1.835e-5
-1.124, 2.094e-5
-1.125, 1.823e-5
-1.126, 1.995e-5
-1.127, 2.012e-5
-1.128, 1.860e-5
-1.129, 2.096e-5
-1.130, 1.850e-5
-1.131, 2.011e-5
-1.132, 2.044e-5
-1.133, 1.839e-5
-1.134, 2.120e-5
-1.135, 1.874e-5
-1.136, 2.024e-5
-1.137, 2.021e-5
-1.138, 1.879e-5
-1.139, 2.130e-5
-1.140, 1.884e-5
-1.141, 2.052e-5
-1.142, 2.034e-5
-1.143, 1.902e-5
-1.144, 2.154e-5
-1.145, 1.884e-5
-1.146, 2.067e-5
-1.147, 2.051e-5
-1.148, 1.916e-5
-1.149, 2.158e-5
-1.150, 1.891e-5
-1.151, 2.095e-5
-1.152, 2.089e-5
-1.153, 1.948e-5
-1.154, 2.197e-5
-1.155, 1.951e-5
-1.156, 2.136e-5
-1.157, 2.101e-5
-1.158, 1.948e-5
-1.159, 2.232e-5
-1.160, 1.958e-5
-1.161, 2.151e-5
-1.162, 2.146e-5
-1.163, 1.995e-5
-1.164, 2.269e-5
-1.165, 2.008e-5
-1.166, 2.171e-5
-1.167, 2.187e-5
-1.168, 2.037e-5
-1.169, 2.302e-5
-1.170, 2.048e-5
-1.171, 2.212e-5
-1.172, 2.206e-5
-1.173, 2.094e-5
-1.174, 2.335e-5
-1.175, 2.095e-5
-1.176, 2.265e-5
-1.177, 2.273e-5
-1.178, 2.122e-5
-1.179, 2.397e-5
-1.180, 2.150e-5
-1.181, 2.339e-5
-1.182, 2.349e-5
-1.183, 2.223e-5
-1.184, 2.460e-5
-1.185, 2.225e-5
-1.186, 2.413e-5
-1.187, 2.374e-5
-1.188, 2.266e-5
-1.189, 2.537e-5
-1.190, 2.292e-5
-1.191, 2.501e-5
-1.192, 2.472e-5
-1.193, 2.351e-5
-1.194, 2.620e-5
-1.195, 2.342e-5
-1.196, 2.556e-5
-1.197, 2.538e-5
-1.198, 2.444e-5
-1.199, 2.717e-5
-1.200, 2.464e-5
-1.201, 2.680e-5
-1.202, 2.678e-5
-1.203, 2.555e-5
-1.204, 2.833e-5
-1.205, 2.592e-5
-1.206, 2.796e-5
-1.207, 2.801e-5
-1.208, 2.688e-5
-1.209, 2.957e-5
-1.210, 2.746e-5
-1.211, 2.960e-5
-1.212, 2.915e-5
-1.213, 2.831e-5
-1.214, 3.115e-5
-1.215, 2.888e-5
-1.216, 3.106e-5
-1.217, 3.094e-5
-1.218, 3.022e-5
-1.219, 3.285e-5
-1.220, 3.066e-5
-1.221, 3.305e-5
-1.222, 3.305e-5
-1.223, 3.238e-5
-1.224, 3.490e-5
-1.225, 3.286e-5
-1.226, 3.549e-5
-1.227, 3.514e-5
-1.228, 3.493e-5
-1.229, 3.784e-5
-1.230, 3.540e-5
-1.231, 3.812e-5
-1.232, 3.810e-5
-1.233, 3.740e-5
-1.234, 4.049e-5
-1.235, 3.832e-5
-1.236, 4.120e-5
-1.237, 4.097e-5
-1.238, 4.055e-5
-1.239, 4.364e-5
-1.240, 4.169e-5
-1.241, 4.442e-5
-1.242, 4.458e-5
-1.243, 4.400e-5
-1.244, 4.727e-5
-1.245, 4.534e-5
-1.246, 4.817e-5
-1.247, 4.856e-5
-1.248, 4.912e-5
-1.249, 5.167e-5
-1.250, 4.993e-5
-1.251, 5.257e-5
-1.252, 5.336e-5
-1.253, 5.319e-5
-1.254, 5.650e-5
-1.255, 5.501e-5
-1.256, 5.814e-5
-1.257, 5.851e-5
-1.258, 5.864e-5
-1.259, 6.170e-5
-1.260, 6.038e-5
-1.261, 6.426e-5
-1.262, 6.436e-5
-1.263, 6.519e-5
-1.264, 6.852e-5
-1.265, 6.756e-5
-1.266, 7.066e-5
-1.267, 7.123e-5
-1.268, 7.224e-5
-1.269, 7.588e-5
-1.270, 7.484e-5
-1.271, 7.852e-5
-1.272, 7.907e-5
-1.273, 8.052e-5
-1.274, 8.409e-5
-1.275, 8.331e-5
-1.276, 8.692e-5
-1.277, 8.879e-5
-1.278, 8.912e-5
-1.279, 9.332e-5
-1.280, 9.341e-5
-1.281, 9.808e-5
-1.282, 9.897e-5
-1.283, 1.007e-4
-1.284, 1.043e-4
-1.285, 1.046e-4
-1.286, 1.086e-4
-1.287, 1.104e-4
-1.288, 1.118e-4
-1.289, 1.170e-4
-1.290, 1.180e-4
-1.291, 1.222e-4
-1.292, 1.248e-4
-1.293, 1.269e-4
-1.294, 1.314e-4
-1.295, 1.324e-4
-1.296, 1.376e-4
-1.297, 1.393e-4
-1.298, 1.423e-4
-1.299, 1.473e-4
-1.300, 1.483e-4
-1.301, 1.541e-4
-1.302, 1.575e-4
-1.303, 1.610e-4
-1.304, 1.669e-4
-1.305, 1.681e-4
-1.306, 1.754e-4
-1.307, 1.776e-4
-1.308, 1.817e-4
-1.309, 1.875e-4
-1.310, 1.906e-4
-1.311, 1.953e-4
-1.312, 1.991e-4
-1.313, 2.031e-4
-1.314, 2.121e-4
-1.315, 2.147e-4
-1.316, 2.215e-4
-1.317, 2.252e-4
-1.318, 2.316e-4
-1.319, 2.370e-4
-1.320, 2.396e-4
-1.321, 2.490e-4
-1.322, 2.548e-4
-1.323, 2.597e-4
-1.324, 2.678e-4
-1.325, 2.706e-4
-1.326, 2.797e-4
-1.327, 2.856e-4
-1.328, 2.913e-4
-1.329, 2.994e-4
-1.330, 3.060e-4
-1.331, 3.151e-4
-1.332, 3.200e-4
-1.333, 3.281e-4
-1.334, 3.376e-4
-1.335, 3.427e-4
-1.336, 3.513e-4
-1.337, 3.594e-4
-1.338, 3.678e-4
-1.339, 3.772e-4
-1.340, 3.839e-4
-1.341, 3.932e-4
-1.342, 4.031e-4
-1.343, 4.097e-4
-1.344, 4.197e-4
-1.345, 4.258e-4
-1.346, 4.440e-4
-1.347, 4.481e-4
-1.348, 4.581e-4
-1.349, 4.695e-4
-1.350, 4.792e-4
-1.351, 4.897e-4
-1.352, 5.002e-4
-1.353, 5.102e-4
-1.354, 5.234e-4
-1.355, 5.286e-4
-1.356, 5.431e-4
-1.357, 5.522e-4
-1.358, 5.648e-4
-1.359, 5.786e-4
-1.360, 5.883e-4
-1.361, 6.041e-4
-1.362, 6.127e-4
-1.363, 6.244e-4
-1.364, 6.415e-4
-1.365, 6.503e-4
-1.366, 6.631e-4
-1.367, 6.753e-4
-1.368, 6.851e-4
-1.369, 6.987e-4
-1.370, 7.113e-4
-1.371, 7.293e-4
-1.372, 7.387e-4
-1.373, 7.509e-4
-1.374, 7.713e-4
-1.375, 7.813e-4
-1.376, 7.981e-4
-1.377, 8.073e-4
-1.378, 8.230e-4
-1.379, 8.371e-4
-1.380, 8.489e-4
-1.381, 8.661e-4
-1.382, 8.823e-4
-1.383, 8.928e-4
-1.384, 9.086e-4
-1.385, 9.201e-4
-1.386, 9.461e-4
-1.387, 9.514e-4
-1.388, 9.667e-4
-1.389, 9.844e-4
-1.390, 1.002e-3
-1.391, 1.020e-3
-1.392, 1.034e-3
-1.393, 1.045e-3
-1.394, 1.066e-3
-1.395, 1.072e-3
-1.396, 1.092e-3
-1.397, 1.102e-3
-1.398, 1.129e-3
-1.399, 1.146e-3
-1.400, 1.160e-3
-1.401, 1.174e-3
-1.402, 1.190e-3
-1.403, 1.205e-3
-1.404, 1.223e-3
-1.405, 1.236e-3
-1.406, 1.260e-3
-1.407, 1.274e-3
-1.408, 1.293e-3
-1.409, 1.308e-3
-1.410, 1.325e-3
-1.411, 1.347e-3
-1.412, 1.367e-3
-1.413, 1.383e-3
-1.414, 1.406e-3
-1.415, 1.423e-3
-1.416, 1.438e-3
-1.417, 1.445e-3
-1.418, 1.468e-3
-1.419, 1.492e-3
-1.420, 1.505e-3
-1.421, 1.529e-3
-1.422, 1.534e-3
-1.423, 1.556e-3
-1.424, 1.577e-3
-1.425, 1.593e-3
-1.426, 1.606e-3
-1.427, 1.627e-3
-1.428, 1.640e-3
-1.429, 1.663e-3
-1.430, 1.666e-3
-1.431, 1.692e-3
-1.432, 1.712e-3
-1.433, 1.715e-3
-1.434, 1.747e-3
-1.435, 1.771e-3
-1.436, 1.787e-3
-1.437, 1.782e-3
-1.438, 1.797e-3
-1.439, 1.819e-3
-1.440, 1.848e-3
-1.441, 1.859e-3
-1.442, 1.889e-3
-1.443, 1.908e-3
-1.444, 1.929e-3
-1.445, 1.953e-3
-1.446, 1.974e-3
-1.447, 1.990e-3
-1.448, 2.001e-3
-1.449, 2.028e-3
-1.450, 2.048e-3
-1.451, 2.062e-3
-1.452, 2.081e-3
-1.453, 2.091e-3
-1.454, 2.112e-3
-1.455, 2.136e-3
-1.456, 2.168e-3
-1.457, 2.170e-3
-1.458, 2.169e-3
-1.459, 2.211e-3
-1.460, 2.237e-3
-1.461, 2.288e-3
-1.462, 2.303e-3
-1.463, 2.320e-3
-1.464, 2.315e-3
-1.465, 2.312e-3
-1.466, 2.339e-3
-1.467, 2.370e-3
-1.468, 2.411e-3
-1.469, 2.410e-3
-1.470, 2.431e-3
-1.471, 2.470e-3
-1.472, 2.484e-3
-1.473, 2.496e-3
-1.474, 2.529e-3
-1.475, 2.527e-3
-1.476, 2.558e-3
-1.477, 2.579e-3
-1.478, 2.601e-3
-1.479, 2.649e-3
-1.480, 2.687e-3
-1.481, 2.694e-3
-1.482, 2.701e-3
-1.483, 2.744e-3
-1.484, 2.759e-3
-1.485, 2.763e-3
-1.486, 2.778e-3
-1.487, 2.789e-3
-1.488, 2.823e-3
-1.489, 2.857e-3
-1.490, 2.892e-3
-1.491, 2.929e-3
-1.492, 2.952e-3
-1.493, 2.965e-3
-1.494, 2.959e-3
-1.495, 2.986e-3
-1.496, 3.025e-3
-1.497, 3.047e-3
-1.498, 3.045e-3
-1.499, 3.082e-3
-1.500, 3.100e-3
-1.501, 3.094e-3
-1.502, 3.112e-3
-1.503, 3.155e-3
-1.504, 3.215e-3
-1.505, 3.210e-3
-1.506, 3.234e-3
-1.507, 3.245e-3
-1.508, 3.274e-3
-1.509, 3.277e-3
-1.510, 3.317e-3
-1.511, 3.361e-3
-1.512, 3.399e-3
-1.513, 3.417e-3
-1.514, 3.406e-3
-1.515, 3.413e-3
-1.516, 3.465e-3
-1.517, 3.486e-3
-1.518, 3.495e-3
-1.519, 3.527e-3
-1.520, 3.535e-3
-1.521, 3.570e-3
-1.522, 3.577e-3
-1.523, 3.601e-3
-1.524, 3.656e-3
-1.525, 3.675e-3
-1.526, 3.734e-3
-1.527, 3.985e-3
-1.528, 3.941e-3
-1.529, 3.964e-3
-1.530, 3.942e-3
-1.531, 3.956e-3
-1.532, 3.962e-3
-1.533, 4.013e-3
-1.534, 4.046e-3
-1.535, 4.074e-3
-1.536, 4.116e-3
-1.537, 4.134e-3
-1.538, 4.136e-3
-1.539, 4.149e-3
-1.540, 4.195e-3
-1.541, 4.266e-3
-1.542, 4.278e-3
-1.543, 4.317e-3
-1.544, 4.302e-3
-1.545, 4.344e-3
-1.546, 4.352e-3
-1.547, 4.386e-3
-1.548, 4.413e-3
-1.549, 4.487e-3
-1.550, 4.477e-3
-1.551, 4.484e-3
-1.552, 4.538e-3
-1.553, 4.625e-3
-1.554, 4.641e-3
-1.555, 4.722e-3
-1.556, 4.753e-3
-1.557, 4.778e-3
-1.558, 4.758e-3
-1.559, 4.797e-3
-1.560, 4.847e-3
-1.561, 4.900e-3
-1.562, 4.951e-3
-1.563, 4.940e-3
-1.564, 4.709e-3
-1.565, 4.777e-3
-1.566, 4.762e-3
-1.567, 4.746e-3
-1.568, 4.820e-3
-1.569, 4.867e-3
-1.570, 4.866e-3
-1.571, 4.855e-3
-1.572, 4.940e-3
-1.573, 4.982e-3
-1.574, 4.945e-3
-1.575, 4.962e-3
-1.576, 5.033e-3
-1.577, 5.042e-3
-1.578, 5.055e-3
-1.579, 5.093e-3
-1.580, 5.124e-3
-1.581, 5.175e-3
-1.582, 5.153e-3
-1.583, 5.139e-3
-1.584, 5.247e-3
-1.585, 5.232e-3
-1.586, 5.299e-3
-1.587, 5.304e-3
-1.588, 5.379e-3
-1.589, 5.386e-3
-1.590, 5.384e-3
-1.591, 5.429e-3
-1.592, 5.443e-3
-1.593, 5.539e-3
-1.594, 5.517e-3
-1.595, 5.537e-3
-1.596, 5.576e-3
-1.597, 5.613e-3
-1.598, 5.752e-3
-1.599, 5.803e-3
-1.600, 5.758e-3
-1.599, 5.712e-3
-1.598, 5.655e-3
-1.597, 5.548e-3
-1.596, 5.513e-3
-1.595, 5.544e-3
-1.594, 5.551e-3
-1.593, 5.461e-3
-1.592, 5.415e-3
-1.591, 5.393e-3
-1.590, 5.372e-3
-1.589, 5.325e-3
-1.588, 5.268e-3
-1.587, 5.258e-3
-1.586, 5.187e-3
-1.585, 5.134e-3
-1.584, 5.144e-3
-1.583, 5.146e-3
-1.582, 5.120e-3
-1.581, 5.024e-3
-1.580, 5.004e-3
-1.579, 4.941e-3
-1.578, 4.897e-3
-1.577, 4.885e-3
-1.576, 4.952e-3
-1.575, 4.921e-3
-1.574, 4.806e-3
-1.573, 4.766e-3
-1.572, 4.751e-3
-1.571, 4.700e-3
-1.570, 4.686e-3
-1.569, 4.633e-3
-1.568, 4.642e-3
-1.567, 4.616e-3
-1.566, 4.570e-3
-1.565, 4.535e-3
-1.564, 4.528e-3
-1.563, 4.545e-3
-1.562, 4.495e-3
-1.561, 4.421e-3
-1.560, 4.389e-3
-1.559, 4.366e-3
-1.558, 4.341e-3
-1.557, 4.329e-3
-1.556, 4.304e-3
-1.555, 4.312e-3
-1.554, 4.292e-3
-1.553, 4.206e-3
-1.552, 4.163e-3
-1.551, 4.138e-3
-1.550, 4.146e-3
-1.549, 4.074e-3
-1.548, 4.029e-3
-1.547, 4.028e-3
-1.546, 4.050e-3
-1.545, 3.958e-3
-1.544, 3.936e-3
-1.543, 3.873e-3
-1.542, 3.868e-3
-1.541, 3.845e-3
-1.540, 3.796e-3
-1.539, 3.788e-3
-1.538, 3.793e-3
-1.537, 3.716e-3
-1.536, 3.677e-3
-1.535, 3.625e-3
-1.534, 3.601e-3
-1.533, 3.597e-3
-1.532, 3.549e-3
-1.531, 3.542e-3
-1.530, 3.494e-3
-1.529, 3.484e-3
-1.528, 3.462e-3
-1.527, 3.434e-3
-1.526, 3.396e-3
-1.525, 3.374e-3
-1.524, 3.378e-3
-1.523, 3.345e-3
-1.522, 3.325e-3
-1.521, 3.298e-3
-1.520, 3.273e-3
-1.519, 3.365e-3
-1.518, 3.304e-3
-1.517, 3.237e-3
-1.516, 3.247e-3
-1.515, 3.222e-3
-1.514, 3.174e-3
-1.513, 3.184e-3
-1.512, 3.157e-3
-1.511, 3.105e-3
-1.510, 3.080e-3
-1.509, 3.069e-3
-1.508, 3.037e-3
-1.507, 2.995e-3
-1.506, 2.957e-3
-1.505, 2.973e-3
-1.504, 2.898e-3
-1.503, 2.926e-3
-1.502, 2.934e-3
-1.501, 2.923e-3
-1.500, 2.876e-3
-1.499, 2.849e-3
-1.498, 2.836e-3
-1.497, 2.854e-3
-1.496, 2.792e-3
-1.495, 2.765e-3
-1.494, 2.775e-3
-1.493, 2.782e-3
-1.492, 2.728e-3
-1.491, 2.705e-3
-1.490, 2.673e-3
-1.489, 2.636e-3
-1.488, 2.594e-3
-1.487, 2.578e-3
-1.486, 2.524e-3
-1.485, 2.508e-3
-1.484, 2.395e-3
-1.483, 2.364e-3
-1.482, 2.344e-3
-1.481, 2.316e-3
-1.480, 2.284e-3
-1.479, 2.251e-3
-1.478, 2.234e-3
-1.477, 2.203e-3
-1.476, 2.181e-3
-1.475, 2.151e-3
-1.474, 2.132e-3
-1.473, 2.107e-3
-1.472, 2.088e-3
-1.471, 2.080e-3
-1.470, 2.046e-3
-1.469, 2.025e-3
-1.468, 1.995e-3
-1.467, 1.993e-3
-1.466, 1.966e-3
-1.465, 1.950e-3
-1.464, 1.918e-3
-1.463, 1.918e-3
-1.462, 1.879e-3
-1.461, 1.852e-3
-1.460, 1.835e-3
-1.459, 1.825e-3
-1.458, 1.800e-3
-1.457, 1.793e-3
-1.456, 1.768e-3
-1.455, 1.753e-3
-1.454, 1.732e-3
-1.453, 1.710e-3
-1.452, 1.679e-3
-1.451, 1.664e-3
-1.450, 1.652e-3
-1.449, 1.631e-3
-1.448, 1.610e-3
-1.447, 1.592e-3
-1.446, 1.579e-3
-1.445, 1.552e-3
-1.444, 1.529e-3
-1.443, 1.505e-3
-1.442, 1.505e-3
-1.441, 1.488e-3
-1.440, 1.464e-3
-1.439, 1.442e-3
-1.438, 1.431e-3
-1.437, 1.401e-3
-1.436, 1.394e-3
-1.435, 1.380e-3
-1.434, 1.358e-3
-1.433, 1.335e-3
-1.432, 1.323e-3
-1.431, 1.300e-3
-1.430, 1.279e-3
-1.429, 1.269e-3
-1.428, 1.227e-3
-1.427, 1.231e-3
-1.426, 1.219e-3
-1.425, 1.208e-3
-1.424, 1.187e-3
-1.423, 1.180e-3
-1.422, 1.158e-3
-1.421, 1.139e-3
-1.420, 1.127e-3
-1.419, 1.113e-3
-1.418, 1.091e-3
-1.417, 1.088e-3
-1.416, 1.062e-3
-1.415, 1.054e-3
-1.414, 1.033e-3
-1.413, 1.019e-3
-1.412, 1.001e-3
-1.411, 9.894e-4
-1.410, 9.825e-4
-1.409, 9.685e-4
-1.408, 9.539e-4
-1.407, 9.384e-4
-1.406, 9.219e-4
-1.405, 9.112e-4
-1.404, 9.015e-4
-1.403, 8.920e-4
-1.402, 8.767e-4
-1.401, 8.556e-4
-1.400, 8.452e-4
-1.399, 8.376e-4
-1.398, 8.171e-4
-1.397, 8.050e-4
-1.396, 7.885e-4
-1.395, 7.854e-4
-1.394, 7.725e-4
-1.393, 7.569e-4
-1.392, 7.494e-4
-1.391, 7.391e-4
-1.390, 7.201e-4
-1.389, 7.035e-4
-1.388, 6.943e-4
-1.387, 6.800e-4
-1.386, 6.658e-4
-1.385, 6.514e-4
-1.384, 6.368e-4
-1.383, 6.309e-4
-1.382, 6.252e-4
-1.381, 6.088e-4
-1.380, 6.017e-4
-1.379, 5.921e-4
-1.378, 5.858e-4
-1.377, 5.745e-4
-1.376, 5.621e-4
-1.375, 5.554e-4
-1.374, 5.478e-4
-1.373, 5.296e-4
-1.372, 5.243e-4
-1.371, 5.143e-4
-1.370, 5.060e-4
-1.369, 4.915e-4
-1.368, 4.816e-4
-1.367, 4.715e-4
-1.366, 4.652e-4
-1.365, 4.555e-4
-1.364, 4.481e-4
-1.363, 4.466e-4
-1.362, 4.410e-4
-1.361, 4.282e-4
-1.360, 4.156e-4
-1.359, 4.116e-4
-1.358, 4.024e-4
-1.357, 3.919e-4
-1.356, 3.848e-4
-1.355, 3.764e-4
-1.354, 3.760e-4
-1.353, 3.613e-4
-1.352, 3.561e-4
-1.351, 3.518e-4
-1.350, 3.415e-4
-1.349, 3.349e-4
-1.348, 3.248e-4
-1.347, 3.186e-4
-1.346, 3.154e-4
-1.345, 3.041e-4
-1.344, 2.983e-4
-1.343, 2.922e-4
-1.342, 2.892e-4
-1.341, 2.820e-4
-1.340, 2.734e-4
-1.339, 2.711e-4
-1.338, 2.635e-4
-1.337, 2.576e-4
-1.336, 2.505e-4
-1.335, 2.433e-4
-1.334, 2.431e-4
-1.333, 2.342e-4
-1.332, 2.522e-4
-1.331, 2.338e-4
-1.330, 2.186e-4
-1.329, 2.151e-4
-1.328, 2.076e-4
-1.327, 2.049e-4
-1.326, 2.008e-4
-1.325, 1.945e-4
-1.324, 1.907e-4
-1.323, 1.841e-4
-1.322, 1.839e-4
-1.321, 1.771e-4
-1.320, 1.707e-4
-1.319, 1.678e-4
-1.318, 1.640e-4
-1.317, 1.617e-4
-1.316, 1.549e-4
-1.315, 1.507e-4
-1.314, 1.496e-4
-1.313, 1.439e-4
-1.312, 1.392e-4
-1.311, 1.363e-4
-1.310, 1.350e-4
-1.309, 1.321e-4
-1.308, 1.258e-4
-1.307, 1.244e-4
-1.306, 1.217e-4
-1.305, 1.169e-4
-1.304, 1.147e-4
-1.303, 1.096e-4
-1.302, 1.091e-4
-1.301, 1.055e-4
-1.300, 1.012e-4
-1.299, 9.945e-5
-1.298, 9.543e-5
-1.297, 9.402e-5
-1.296, 9.015e-5
-1.295, 8.879e-5
-1.294, 8.730e-5
-1.293, 8.178e-5
-1.292, 8.125e-5
-1.291, 7.771e-5
-1.290, 7.511e-5
-1.289, 7.436e-5
-1.288, 6.973e-5
-1.287, 6.983e-5
-1.286, 6.747e-5
-1.285, 6.432e-5
-1.284, 6.416e-5
-1.283, 5.969e-5
-1.282, 5.905e-5
-1.281, 5.721e-5
-1.280, 5.365e-5
-1.279, 5.340e-5
-1.278, 4.912e-5
-1.277, 5.033e-5
-1.276, 4.731e-5
-1.275, 4.533e-5
-1.274, 4.586e-5
-1.273, 4.155e-5
-1.272, 4.129e-5
-1.271, 3.888e-5
-1.270, 3.663e-5
-1.269, 3.730e-5
-1.268, 3.340e-5
-1.267, 3.383e-5
-1.266, 3.160e-5
-1.265, 3.067e-5
-1.264, 3.040e-5
-1.263, 2.683e-5
-1.262, 2.775e-5
-1.261, 2.535e-5
-1.260, 2.325e-5
-1.259, 2.388e-5
-1.258, 2.014e-5
-1.257, 2.185e-5
-1.256, 1.925e-5
-1.255, 1.762e-5
-1.254, 1.876e-5
-1.253, 1.530e-5
-1.252, 1.598e-5
-1.251, 1.412e-5
-1.250, 1.253e-5
-1.249, 1.361e-5
-1.248, 1.023e-5
-1.247, 1.131e-5
-1.246, 9.854e-6
-1.245, 8.789e-6
-1.244, 9.302e-6
-1.243, 6.223e-6
-1.242, 7.506e-6
-1.241, 5.918e-6
-1.240, 4.536e-6
-1.239, 5.691e-6
-1.238, 2.435e-6
-1.237, 3.915e-6
-1.236, 2.366e-6
-1.235, 1.073e-6
-1.234, 2.376e-6
-1.233, -4.558e-7
-1.232, 8.860e-7
-1.231, -6.038e-7
-1.230, -1.857e-6
-1.229, -9.195e-7
-1.228, -3.514e-6
-1.227, -1.936e-6
-1.226, -3.258e-6
-1.225, -4.619e-6
-1.224, -3.090e-6
-1.223, -5.941e-6
-1.222, -4.422e-6
-1.221, -5.961e-6
-1.220, -6.770e-6
-1.219, -5.280e-6
-1.218, -8.023e-6
-1.217, -6.454e-6
-1.216, -7.757e-6
-1.215, -8.645e-6
-1.214, -7.046e-6
-1.213, -1.018e-5
-1.212, -8.151e-6
-1.211, -9.454e-6
-1.210, -1.041e-5
-1.209, -9.059e-6
-1.208, -1.150e-5
-1.207, -9.759e-6
-1.206, -1.125e-5
-1.205, -1.198e-5
-1.204, -1.029e-5
-1.203, -1.300e-5
-1.202, -1.102e-5
-1.201, -1.275e-5
-1.200, -1.313e-5
-1.199, -1.156e-5
-1.198, -1.450e-5
-1.197, -1.236e-5
-1.196, -1.353e-5
-1.195, -1.415e-5
-1.194, -1.281e-5
-1.193, -1.549e-5
-1.192, -1.322e-5
-1.191, -1.453e-5
-1.190, -1.535e-5
-1.189, -1.390e-5
-1.188, -1.630e-5
-1.187, -1.420e-5
-1.186, -1.545e-5
-1.185, -1.639e-5
-1.184, -1.450e-5
-1.183, -1.680e-5
-1.182, -1.513e-5
-1.181, -1.641e-5
-1.180, -1.697e-5
-1.179, -1.502e-5
-1.178, -1.765e-5
-1.177, -1.601e-5
-1.176, -1.709e-5
-1.175, -1.742e-5
-1.174, -1.561e-5
-1.173, -1.853e-5
-1.172, -1.626e-5
-1.171, -1.746e-5
-1.170, -1.786e-5
-1.169, -1.653e-5
-1.168, -1.869e-5
-1.167, -1.686e-5
-1.166, -1.799e-5
-1.165, -1.836e-5
-1.164, -1.686e-5
-1.163, -1.943e-5
-1.162, -1.690e-5
-1.161, -1.843e-5
-1.160, -1.908e-5
-1.159, -1.726e-5
-1.158, -1.968e-5
-1.157, -1.751e-5
-1.156, -1.900e-5
-1.155, -1.909e-5
-1.154, -1.773e-5
-1.153, -1.994e-5
-1.152, -1.783e-5
-1.151, -1.918e-5
-1.150, -1.970e-5
-1.149, -1.770e-5
-1.148, -2.046e-5
-1.147, -1.832e-5
-1.146, -1.966e-5
-1.145, -1.996e-5
-1.144, -1.813e-5
-1.143, -2.088e-5
-1.142, -1.846e-5
-1.141, -1.968e-5
-1.140, -2.022e-5
-1.139, -1.854e-5
-1.138, -2.103e-5
-1.137, -1.886e-5
-1.136, -1.992e-5
-1.135, -2.033e-5
-1.134, -1.862e-5
-1.133, -2.136e-5
-1.132, -1.896e-5
-1.131, -2.031e-5
-1.130, -2.083e-5
-1.129, -1.910e-5
-1.128, -2.129e-5
-1.127, -1.915e-5
-1.126, -2.049e-5
-1.125, -2.065e-5
-1.124, -1.910e-5
-1.123, -2.167e-5
-1.122, -1.913e-5
-1.121, -2.088e-5
-1.120, -2.071e-5
-1.119, -1.935e-5
-1.118, -2.185e-5
-1.117, -1.936e-5
-1.116, -2.109e-5
-1.115, -2.103e-5
-1.114, -1.940e-5
-1.113, -2.306e-5
-1.112, -2.012e-5
-1.111, -2.111e-5
-1.110, -2.116e-5
-1.109, -1.973e-5
-1.108, -2.231e-5
-1.107, -1.966e-5
-1.106, -2.117e-5
-1.105, -2.130e-5
-1.104, -2.011e-5
-1.103, -2.215e-5
-1.102, -1.986e-5
-1.101, -2.170e-5
-1.100, -2.169e-5
-1.099, -1.991e-5
-1.098, -2.233e-5
-1.097, -2.024e-5
-1.096, -2.170e-5
-1.095, -2.154e-5
-1.094, -2.010e-5
-1.093, -2.256e-5
-1.092, -2.039e-5
-1.091, -2.154e-5
-1.090, -2.167e-5
-1.089, -2.037e-5
-1.088, -2.298e-5
-1.087, -2.012e-5
-1.086, -2.190e-5
-1.085, -2.201e-5
-1.084, -2.052e-5
-1.083, -2.266e-5
-1.082, -2.026e-5
-1.081, -2.197e-5
-1.080, -2.188e-5
-1.079, -2.064e-5
-1.078, -2.287e-5
-1.077, -2.015e-5
-1.076, -2.233e-5
-1.075, -2.237e-5
-1.074, -2.064e-5
-1.073, -2.298e-5
-1.072, -2.063e-5
-1.071, -2.234e-5
-1.070, -2.215e-5
-1.069, -2.063e-5
-1.068, -2.333e-5
-1.067, -2.092e-5
-1.066, -2.244e-5
-1.065, -2.223e-5
-1.064, -2.087e-5
-1.063, -2.332e-5
-1.062, -2.089e-5
-1.061, -2.251e-5
-1.060, -2.262e-5
-1.059, -2.112e-5
-1.058, -2.331e-5
-1.057, -2.103e-5
-1.056, -2.284e-5
-1.055, -2.246e-5
-1.054, -2.120e-5
-1.053, -2.370e-5
-1.052, -2.112e-5
-1.051, -2.312e-5
-1.050, -2.257e-5
-1.049, -2.139e-5
-1.048, -2.386e-5
-1.047, -2.130e-5
-1.046, -2.287e-5
-1.045, -2.269e-5
-1.044, -2.136e-5
-1.043, -2.428e-5
-1.042, -2.120e-5
-1.041, -2.314e-5
-1.040, -2.295e-5
-1.039, -2.185e-5
-1.038, -2.398e-5
-1.037, -2.141e-5
-1.036, -2.345e-5
-1.035, -2.307e-5
-1.034, -2.186e-5
-1.033, -2.421e-5
-1.032, -2.160e-5
-1.031, -2.369e-5
-1.030, -2.316e-5
-1.029, -2.192e-5
-1.028, -2.453e-5
-1.027, -2.184e-5
-1.026, -2.352e-5
-1.025, -2.310e-5
-1.024, -2.260e-5
-1.023, -2.494e-5
-1.022, -2.215e-5
-1.021, -2.384e-5
-1.020, -2.366e-5
-1.019, -2.266e-5
-1.018, -2.473e-5
-1.017, -2.229e-5
-1.016, -2.412e-5
-1.015, -2.390e-5
-1.014, -2.281e-5
-1.013, -2.476e-5
-1.012, -2.243e-5
-1.011, -2.453e-5
-1.010, -2.398e-5
-1.009, -2.276e-5
-1.008, -2.516e-5
-1.007, -2.294e-5
-1.006, -2.450e-5
-1.005, -2.424e-5
-1.004, -2.326e-5
-1.003, -2.542e-5
-1.002, -2.264e-5
-1.001, -2.475e-5
