Apr. 9, 2025   10:41:44
Linear Sweep Voltammetry
File: c:/users/guazh/data/banditlqround7_x0exp994_r5/2025-03-28-exp1027\1acid_2ac-2025-04-09t10_38_30-lsvinphos\1acid_2ac_lsv_50mvs_efin_-2300mv.bin
Data Source:  Experiment
Instrument Model:  CHI760E
Header: LSV ran at 50 mVs with Efin at -2300mV
Note: 

Init E (V) = -0.6
Final E (V) = -2.3
Scan Rate (V/s) = 0.05
Sample Interval (V) = 0.001
Quiet Time (sec) = 2
Sensitivity (A/V) = 1e-4
Comp R (ohm) = 8.7

Results:

Channel 1:
Ep = -2.060V
ip = 7.845e-4A
Ah = 1.197e-3C

Potential/V, Current/A

-0.600, 2.372e-6
-0.601, 2.469e-6
-0.602, 2.509e-6
-0.603, 2.540e-6
-0.604, 2.569e-6
-0.605, 2.597e-6
-0.606, 2.627e-6
-0.607, 2.655e-6
-0.608, 2.682e-6
-0.609, 2.709e-6
-0.610, 2.734e-6
-0.611, 2.764e-6
-0.612, 2.791e-6
-0.613, 2.816e-6
-0.614, 2.845e-6
-0.615, 2.872e-6
-0.616, 2.900e-6
-0.617, 2.929e-6
-0.618, 2.955e-6
-0.619, 2.983e-6
-0.620, 3.011e-6
-0.621, 3.038e-6
-0.622, 3.067e-6
-0.623, 3.095e-6
-0.624, 3.123e-6
-0.625, 3.152e-6
-0.626, 3.181e-6
-0.627, 3.211e-6
-0.628, 3.238e-6
-0.629, 3.266e-6
-0.630, 3.295e-6
-0.631, 3.325e-6
-0.632, 3.356e-6
-0.633, 3.385e-6
-0.634, 3.414e-6
-0.635, 3.445e-6
-0.636, 3.473e-6
-0.637, 3.504e-6
-0.638, 3.535e-6
-0.639, 3.562e-6
-0.640, 3.594e-6
-0.641, 3.626e-6
-0.642, 3.657e-6
-0.643, 3.688e-6
-0.644, 3.718e-6
-0.645, 3.748e-6
-0.646, 3.780e-6
-0.647, 3.813e-6
-0.648, 3.844e-6
-0.649, 3.876e-6
-0.650, 3.906e-6
-0.651, 3.937e-6
-0.652, 3.970e-6
-0.653, 4.002e-6
-0.654, 4.033e-6
-0.655, 4.065e-6
-0.656, 4.097e-6
-0.657, 4.131e-6
-0.658, 4.161e-6
-0.659, 4.192e-6
-0.660, 4.223e-6
-0.661, 4.255e-6
-0.662, 4.290e-6
-0.663, 4.321e-6
-0.664, 4.354e-6
-0.665, 4.385e-6
-0.666, 4.421e-6
-0.667, 4.454e-6
-0.668, 4.488e-6
-0.669, 4.521e-6
-0.670, 4.555e-6
-0.671, 4.589e-6
-0.672, 4.623e-6
-0.673, 4.655e-6
-0.674, 4.687e-6
-0.675, 4.720e-6
-0.676, 4.754e-6
-0.677, 4.789e-6
-0.678, 4.823e-6
-0.679, 4.856e-6
-0.680, 4.887e-6
-0.681, 4.922e-6
-0.682, 4.956e-6
-0.683, 4.989e-6
-0.684, 5.023e-6
-0.685, 5.056e-6
-0.686, 5.091e-6
-0.687, 5.125e-6
-0.688, 5.156e-6
-0.689, 5.190e-6
-0.690, 5.222e-6
-0.691, 5.258e-6
-0.692, 5.293e-6
-0.693, 5.324e-6
-0.694, 5.357e-6
-0.695, 5.389e-6
-0.696, 5.422e-6
-0.697, 5.456e-6
-0.698, 5.488e-6
-0.699, 5.521e-6
-0.700, 5.553e-6
-0.701, 5.586e-6
-0.702, 5.620e-6
-0.703, 5.650e-6
-0.704, 5.682e-6
-0.705, 5.714e-6
-0.706, 5.746e-6
-0.707, 5.780e-6
-0.708, 5.811e-6
-0.709, 5.843e-6
-0.710, 5.873e-6
-0.711, 5.902e-6
-0.712, 5.932e-6
-0.713, 5.960e-6
-0.714, 5.990e-6
-0.715, 6.020e-6
-0.716, 6.051e-6
-0.717, 6.083e-6
-0.718, 6.112e-6
-0.719, 6.140e-6
-0.720, 6.167e-6
-0.721, 6.195e-6
-0.722, 6.223e-6
-0.723, 6.249e-6
-0.724, 6.276e-6
-0.725, 6.303e-6
-0.726, 6.333e-6
-0.727, 6.361e-6
-0.728, 6.387e-6
-0.729, 6.413e-6
-0.730, 6.439e-6
-0.731, 6.466e-6
-0.732, 6.491e-6
-0.733, 6.516e-6
-0.734, 6.541e-6
-0.735, 6.565e-6
-0.736, 6.589e-6
-0.737, 6.616e-6
-0.738, 6.638e-6
-0.739, 6.661e-6
-0.740, 6.683e-6
-0.741, 6.706e-6
-0.742, 6.730e-6
-0.743, 6.751e-6
-0.744, 6.774e-6
-0.745, 6.793e-6
-0.746, 6.815e-6
-0.747, 6.835e-6
-0.748, 6.855e-6
-0.749, 6.873e-6
-0.750, 6.892e-6
-0.751, 6.910e-6
-0.752, 6.929e-6
-0.753, 6.947e-6
-0.754, 6.964e-6
-0.755, 6.980e-6
-0.756, 6.998e-6
-0.757, 7.015e-6
-0.758, 7.030e-6
-0.759, 7.045e-6
-0.760, 7.060e-6
-0.761, 7.076e-6
-0.762, 7.091e-6
-0.763, 7.106e-6
-0.764, 7.118e-6
-0.765, 7.129e-6
-0.766, 7.143e-6
-0.767, 7.155e-6
-0.768, 7.169e-6
-0.769, 7.180e-6
-0.770, 7.190e-6
-0.771, 7.202e-6
-0.772, 7.213e-6
-0.773, 7.222e-6
-0.774, 7.231e-6
-0.775, 7.239e-6
-0.776, 7.249e-6
-0.777, 7.257e-6
-0.778, 7.263e-6
-0.779, 7.271e-6
-0.780, 7.277e-6
-0.781, 7.285e-6
-0.782, 7.292e-6
-0.783, 7.297e-6
-0.784, 7.302e-6
-0.785, 7.306e-6
-0.786, 7.311e-6
-0.787, 7.317e-6
-0.788, 7.320e-6
-0.789, 7.323e-6
-0.790, 7.326e-6
-0.791, 7.330e-6
-0.792, 7.335e-6
-0.793, 7.336e-6
-0.794, 7.338e-6
-0.795, 7.338e-6
-0.796, 7.340e-6
-0.797, 7.342e-6
-0.798, 7.343e-6
-0.799, 7.342e-6
-0.800, 7.342e-6
-0.801, 7.341e-6
-0.802, 7.342e-6
-0.803, 7.340e-6
-0.804, 7.338e-6
-0.805, 7.335e-6
-0.806, 7.336e-6
-0.807, 7.334e-6
-0.808, 7.330e-6
-0.809, 7.327e-6
-0.810, 7.323e-6
-0.811, 7.322e-6
-0.812, 7.319e-6
-0.813, 7.313e-6
-0.814, 7.310e-6
-0.815, 7.306e-6
-0.816, 7.301e-6
-0.817, 7.297e-6
-0.818, 7.292e-6
-0.819, 7.290e-6
-0.820, 7.287e-6
-0.821, 7.280e-6
-0.822, 7.275e-6
-0.823, 7.268e-6
-0.824, 7.262e-6
-0.825, 7.256e-6
-0.826, 7.249e-6
-0.827, 7.244e-6
-0.828, 7.235e-6
-0.829, 7.229e-6
-0.830, 7.221e-6
-0.831, 7.215e-6
-0.832, 7.207e-6
-0.833, 7.200e-6
-0.834, 7.190e-6
-0.835, 7.182e-6
-0.836, 7.176e-6
-0.837, 7.167e-6
-0.838, 7.158e-6
-0.839, 7.150e-6
-0.840, 7.140e-6
-0.841, 7.134e-6
-0.842, 7.124e-6
-0.843, 7.114e-6
-0.844, 7.106e-6
-0.845, 7.097e-6
-0.846, 7.089e-6
-0.847, 7.080e-6
-0.848, 7.069e-6
-0.849, 7.060e-6
-0.850, 7.049e-6
-0.851, 7.041e-6
-0.852, 7.032e-6
-0.853, 7.020e-6
-0.854, 7.011e-6
-0.855, 7.001e-6
-0.856, 6.992e-6
-0.857, 6.982e-6
-0.858, 6.972e-6
-0.859, 6.962e-6
-0.860, 6.952e-6
-0.861, 6.942e-6
-0.862, 6.931e-6
-0.863, 6.921e-6
-0.864, 6.911e-6
-0.865, 6.900e-6
-0.866, 6.892e-6
-0.867, 6.882e-6
-0.868, 6.871e-6
-0.869, 6.860e-6
-0.870, 6.851e-6
-0.871, 6.843e-6
-0.872, 6.832e-6
-0.873, 6.820e-6
-0.874, 6.809e-6
-0.875, 6.799e-6
-0.876, 6.789e-6
-0.877, 6.779e-6
-0.878, 6.769e-6
-0.879, 6.757e-6
-0.880, 6.747e-6
-0.881, 6.737e-6
-0.882, 6.727e-6
-0.883, 6.716e-6
-0.884, 6.707e-6
-0.885, 6.695e-6
-0.886, 6.687e-6
-0.887, 6.676e-6
-0.888, 6.665e-6
-0.889, 6.656e-6
-0.890, 6.645e-6
-0.891, 6.635e-6
-0.892, 6.625e-6
-0.893, 6.614e-6
-0.894, 6.605e-6
-0.895, 6.594e-6
-0.896, 6.585e-6
-0.897, 6.577e-6
-0.898, 6.565e-6
-0.899, 6.556e-6
-0.900, 6.545e-6
-0.901, 6.535e-6
-0.902, 6.526e-6
-0.903, 6.515e-6
-0.904, 6.506e-6
-0.905, 6.496e-6
-0.906, 6.488e-6
-0.907, 6.478e-6
-0.908, 6.467e-6
-0.909, 6.459e-6
-0.910, 6.450e-6
-0.911, 6.440e-6
-0.912, 6.431e-6
-0.913, 6.421e-6
-0.914, 6.413e-6
-0.915, 6.404e-6
-0.916, 6.395e-6
-0.917, 6.386e-6
-0.918, 6.377e-6
-0.919, 6.367e-6
-0.920, 6.359e-6
-0.921, 6.350e-6
-0.922, 6.342e-6
-0.923, 6.332e-6
-0.924, 6.323e-6
-0.925, 6.314e-6
-0.926, 6.306e-6
-0.927, 6.298e-6
-0.928, 6.289e-6
-0.929, 6.281e-6
-0.930, 6.271e-6
-0.931, 6.265e-6
-0.932, 6.257e-6
-0.933, 6.247e-6
-0.934, 6.241e-6
-0.935, 6.233e-6
-0.936, 6.227e-6
-0.937, 6.219e-6
-0.938, 6.209e-6
-0.939, 6.201e-6
-0.940, 6.195e-6
-0.941, 6.187e-6
-0.942, 6.181e-6
-0.943, 6.172e-6
-0.944, 6.165e-6
-0.945, 6.158e-6
-0.946, 6.151e-6
-0.947, 6.145e-6
-0.948, 6.138e-6
-0.949, 6.130e-6
-0.950, 6.122e-6
-0.951, 6.116e-6
-0.952, 6.108e-6
-0.953, 6.099e-6
-0.954, 6.091e-6
-0.955, 6.086e-6
-0.956, 6.080e-6
-0.957, 6.072e-6
-0.958, 6.065e-6
-0.959, 6.057e-6
-0.960, 6.052e-6
-0.961, 6.046e-6
-0.962, 6.038e-6
-0.963, 6.030e-6
-0.964, 6.024e-6
-0.965, 6.016e-6
-0.966, 6.011e-6
-0.967, 6.004e-6
-0.968, 5.996e-6
-0.969, 5.991e-6
-0.970, 5.984e-6
-0.971, 5.979e-6
-0.972, 5.972e-6
-0.973, 5.966e-6
-0.974, 5.961e-6
-0.975, 5.954e-6
-0.976, 5.949e-6
-0.977, 5.943e-6
-0.978, 5.936e-6
-0.979, 5.931e-6
-0.980, 5.925e-6
-0.981, 5.920e-6
-0.982, 5.914e-6
-0.983, 5.908e-6
-0.984, 5.903e-6
-0.985, 5.897e-6
-0.986, 5.893e-6
-0.987, 5.888e-6
-0.988, 5.882e-6
-0.989, 5.876e-6
-0.990, 5.870e-6
-0.991, 5.866e-6
-0.992, 5.861e-6
-0.993, 5.855e-6
-0.994, 5.849e-6
-0.995, 5.844e-6
-0.996, 5.840e-6
-0.997, 5.833e-6
-0.998, 5.828e-6
-0.999, 5.822e-6
-1.000, 5.818e-6
-1.001, 5.814e-6
-1.002, 5.808e-6
-1.003, 5.802e-6
-1.004, 5.797e-6
-1.005, 5.792e-6
-1.006, 5.788e-6
-1.007, 5.783e-6
-1.008, 5.776e-6
-1.009, 5.772e-6
-1.010, 5.765e-6
-1.011, 5.763e-6
-1.012, 5.758e-6
-1.013, 5.753e-6
-1.014, 5.749e-6
-1.015, 5.743e-6
-1.016, 5.739e-6
-1.017, 5.735e-6
-1.018, 5.730e-6
-1.019, 5.725e-6
-1.020, 5.720e-6
-1.021, 5.716e-6
-1.022, 5.711e-6
-1.023, 5.706e-6
-1.024, 5.703e-6
-1.025, 5.698e-6
-1.026, 5.695e-6
-1.027, 5.690e-6
-1.028, 5.685e-6
-1.029, 5.680e-6
-1.030, 5.677e-6
-1.031, 5.675e-6
-1.032, 5.669e-6
-1.033, 5.664e-6
-1.034, 5.660e-6
-1.035, 5.657e-6
-1.036, 5.654e-6
-1.037, 5.650e-6
-1.038, 5.646e-6
-1.039, 5.640e-6
-1.040, 5.638e-6
-1.041, 5.635e-6
-1.042, 5.630e-6
-1.043, 5.626e-6
-1.044, 5.623e-6
-1.045, 5.618e-6
-1.046, 5.617e-6
-1.047, 5.611e-6
-1.048, 5.607e-6
-1.049, 5.605e-6
-1.050, 5.600e-6
-1.051, 5.597e-6
-1.052, 5.593e-6
-1.053, 5.589e-6
-1.054, 5.587e-6
-1.055, 5.582e-6
-1.056, 5.580e-6
-1.057, 5.576e-6
-1.058, 5.572e-6
-1.059, 5.569e-6
-1.060, 5.565e-6
-1.061, 5.563e-6
-1.062, 5.560e-6
-1.063, 5.556e-6
-1.064, 5.551e-6
-1.065, 5.548e-6
-1.066, 5.546e-6
-1.067, 5.541e-6
-1.068, 5.539e-6
-1.069, 5.535e-6
-1.070, 5.532e-6
-1.071, 5.530e-6
-1.072, 5.526e-6
-1.073, 5.523e-6
-1.074, 5.519e-6
-1.075, 5.517e-6
-1.076, 5.517e-6
-1.077, 5.512e-6
-1.078, 5.509e-6
-1.079, 5.506e-6
-1.080, 5.502e-6
-1.081, 5.501e-6
-1.082, 5.497e-6
-1.083, 5.494e-6
-1.084, 5.491e-6
-1.085, 5.487e-6
-1.086, 5.486e-6
-1.087, 5.483e-6
-1.088, 5.480e-6
-1.089, 5.478e-6
-1.090, 5.475e-6
-1.091, 5.473e-6
-1.092, 5.471e-6
-1.093, 5.467e-6
-1.094, 5.465e-6
-1.095, 5.462e-6
-1.096, 5.460e-6
-1.097, 5.458e-6
-1.098, 5.455e-6
-1.099, 5.451e-6
-1.100, 5.449e-6
-1.101, 5.448e-6
-1.102, 5.445e-6
-1.103, 5.443e-6
-1.104, 5.441e-6
-1.105, 5.439e-6
-1.106, 5.437e-6
-1.107, 5.434e-6
-1.108, 5.432e-6
-1.109, 5.429e-6
-1.110, 5.428e-6
-1.111, 5.426e-6
-1.112, 5.424e-6
-1.113, 5.422e-6
-1.114, 5.420e-6
-1.115, 5.418e-6
-1.116, 5.417e-6
-1.117, 5.415e-6
-1.118, 5.412e-6
-1.119, 5.410e-6
-1.120, 5.408e-6
-1.121, 5.408e-6
-1.122, 5.406e-6
-1.123, 5.404e-6
-1.124, 5.401e-6
-1.125, 5.399e-6
-1.126, 5.400e-6
-1.127, 5.397e-6
-1.128, 5.396e-6
-1.129, 5.394e-6
-1.130, 5.391e-6
-1.131, 5.392e-6
-1.132, 5.389e-6
-1.133, 5.387e-6
-1.134, 5.386e-6
-1.135, 5.384e-6
-1.136, 5.383e-6
-1.137, 5.381e-6
-1.138, 5.379e-6
-1.139, 5.378e-6
-1.140, 5.377e-6
-1.141, 5.377e-6
-1.142, 5.375e-6
-1.143, 5.371e-6
-1.144, 5.371e-6
-1.145, 5.371e-6
-1.146, 5.370e-6
-1.147, 5.368e-6
-1.148, 5.367e-6
-1.149, 5.364e-6
-1.150, 5.364e-6
-1.151, 5.364e-6
-1.152, 5.362e-6
-1.153, 5.362e-6
-1.154, 5.358e-6
-1.155, 5.359e-6
-1.156, 5.359e-6
-1.157, 5.356e-6
-1.158, 5.356e-6
-1.159, 5.353e-6
-1.160, 5.353e-6
-1.161, 5.353e-6
-1.162, 5.350e-6
-1.163, 5.350e-6
-1.164, 5.348e-6
-1.165, 5.348e-6
-1.166, 5.349e-6
-1.167, 5.346e-6
-1.168, 5.345e-6
-1.169, 5.344e-6
-1.170, 5.344e-6
-1.171, 5.345e-6
-1.172, 5.344e-6
-1.173, 5.342e-6
-1.174, 5.342e-6
-1.175, 5.341e-6
-1.176, 5.342e-6
-1.177, 5.339e-6
-1.178, 5.340e-6
-1.179, 5.338e-6
-1.180, 5.338e-6
-1.181, 5.338e-6
-1.182, 5.338e-6
-1.183, 5.336e-6
-1.184, 5.335e-6
-1.185, 5.336e-6
-1.186, 5.335e-6
-1.187, 5.334e-6
-1.188, 5.334e-6
-1.189, 5.332e-6
-1.190, 5.333e-6
-1.191, 5.334e-6
-1.192, 5.332e-6
-1.193, 5.332e-6
-1.194, 5.330e-6
-1.195, 5.331e-6
-1.196, 5.332e-6
-1.197, 5.331e-6
-1.198, 5.331e-6
-1.199, 5.330e-6
-1.200, 5.330e-6
-1.201, 5.332e-6
-1.202, 5.330e-6
-1.203, 5.329e-6
-1.204, 5.330e-6
-1.205, 5.330e-6
-1.206, 5.331e-6
-1.207, 5.329e-6
-1.208, 5.329e-6
-1.209, 5.330e-6
-1.210, 5.330e-6
-1.211, 5.331e-6
-1.212, 5.329e-6
-1.213, 5.329e-6
-1.214, 5.329e-6
-1.215, 5.329e-6
-1.216, 5.331e-6
-1.217, 5.330e-6
-1.218, 5.328e-6
-1.219, 5.330e-6
-1.220, 5.330e-6
-1.221, 5.331e-6
-1.222, 5.330e-6
-1.223, 5.329e-6
-1.224, 5.330e-6
-1.225, 5.331e-6
-1.226, 5.331e-6
-1.227, 5.332e-6
-1.228, 5.332e-6
-1.229, 5.336e-6
-1.230, 5.335e-6
-1.231, 5.334e-6
-1.232, 5.334e-6
-1.233, 5.335e-6
-1.234, 5.334e-6
-1.235, 5.335e-6
-1.236, 5.338e-6
-1.237, 5.336e-6
-1.238, 5.337e-6
-1.239, 5.336e-6
-1.240, 5.338e-6
-1.241, 5.340e-6
-1.242, 5.338e-6
-1.243, 5.339e-6
-1.244, 5.338e-6
-1.245, 5.341e-6
-1.246, 5.342e-6
-1.247, 5.341e-6
-1.248, 5.343e-6
-1.249, 5.342e-6
-1.250, 5.342e-6
-1.251, 5.346e-6
-1.252, 5.345e-6
-1.253, 5.345e-6
-1.254, 5.347e-6
-1.255, 5.349e-6
-1.256, 5.350e-6
-1.257, 5.350e-6
-1.258, 5.350e-6
-1.259, 5.351e-6
-1.260, 5.352e-6
-1.261, 5.354e-6
-1.262, 5.354e-6
-1.263, 5.353e-6
-1.264, 5.355e-6
-1.265, 5.356e-6
-1.266, 5.357e-6
-1.267, 5.358e-6
-1.268, 5.361e-6
-1.269, 5.358e-6
-1.270, 5.362e-6
-1.271, 5.363e-6
-1.272, 5.362e-6
-1.273, 5.364e-6
-1.274, 5.364e-6
-1.275, 5.366e-6
-1.276, 5.368e-6
-1.277, 5.368e-6
-1.278, 5.369e-6
-1.279, 5.369e-6
-1.280, 5.373e-6
-1.281, 5.376e-6
-1.282, 5.375e-6
-1.283, 5.376e-6
-1.284, 5.376e-6
-1.285, 5.378e-6
-1.286, 5.381e-6
-1.287, 5.381e-6
-1.288, 5.382e-6
-1.289, 5.383e-6
-1.290, 5.384e-6
-1.291, 5.387e-6
-1.292, 5.387e-6
-1.293, 5.389e-6
-1.294, 5.390e-6
-1.295, 5.392e-6
-1.296, 5.394e-6
-1.297, 5.395e-6
-1.298, 5.396e-6
-1.299, 5.397e-6
-1.300, 5.399e-6
-1.301, 5.401e-6
-1.302, 5.402e-6
-1.303, 5.403e-6
-1.304, 5.404e-6
-1.305, 5.407e-6
-1.306, 5.409e-6
-1.307, 5.411e-6
-1.308, 5.412e-6
-1.309, 5.411e-6
-1.310, 5.415e-6
-1.311, 5.418e-6
-1.312, 5.418e-6
-1.313, 5.421e-6
-1.314, 5.422e-6
-1.315, 5.424e-6
-1.316, 5.426e-6
-1.317, 5.427e-6
-1.318, 5.429e-6
-1.319, 5.431e-6
-1.320, 5.432e-6
-1.321, 5.436e-6
-1.322, 5.436e-6
-1.323, 5.439e-6
-1.324, 5.440e-6
-1.325, 5.443e-6
-1.326, 5.447e-6
-1.327, 5.447e-6
-1.328, 5.449e-6
-1.329, 5.451e-6
-1.330, 5.453e-6
-1.331, 5.457e-6
-1.332, 5.459e-6
-1.333, 5.460e-6
-1.334, 5.463e-6
-1.335, 5.465e-6
-1.336, 5.469e-6
-1.337, 5.469e-6
-1.338, 5.471e-6
-1.339, 5.474e-6
-1.340, 5.477e-6
-1.341, 5.480e-6
-1.342, 5.481e-6
-1.343, 5.483e-6
-1.344, 5.486e-6
-1.345, 5.490e-6
-1.346, 5.492e-6
-1.347, 5.496e-6
-1.348, 5.497e-6
-1.349, 5.498e-6
-1.350, 5.503e-6
-1.351, 5.506e-6
-1.352, 5.506e-6
-1.353, 5.510e-6
-1.354, 5.511e-6
-1.355, 5.516e-6
-1.356, 5.519e-6
-1.357, 5.522e-6
-1.358, 5.524e-6
-1.359, 5.526e-6
-1.360, 5.529e-6
-1.361, 5.535e-6
-1.362, 5.535e-6
-1.363, 5.538e-6
-1.364, 5.540e-6
-1.365, 5.544e-6
-1.366, 5.548e-6
-1.367, 5.551e-6
-1.368, 5.553e-6
-1.369, 5.555e-6
-1.370, 5.561e-6
-1.371, 5.564e-6
-1.372, 5.566e-6
-1.373, 5.569e-6
-1.374, 5.572e-6
-1.375, 5.575e-6
-1.376, 5.579e-6
-1.377, 5.583e-6
-1.378, 5.585e-6
-1.379, 5.588e-6
-1.380, 5.592e-6
-1.381, 5.597e-6
-1.382, 5.599e-6
-1.383, 5.604e-6
-1.384, 5.606e-6
-1.385, 5.611e-6
-1.386, 5.613e-6
-1.387, 5.617e-6
-1.388, 5.620e-6
-1.389, 5.624e-6
-1.390, 5.629e-6
-1.391, 5.632e-6
-1.392, 5.635e-6
-1.393, 5.639e-6
-1.394, 5.642e-6
-1.395, 5.647e-6
-1.396, 5.652e-6
-1.397, 5.655e-6
-1.398, 5.658e-6
-1.399, 5.659e-6
-1.400, 5.666e-6
-1.401, 5.670e-6
-1.402, 5.672e-6
-1.403, 5.677e-6
-1.404, 5.682e-6
-1.405, 5.685e-6
-1.406, 5.691e-6
-1.407, 5.694e-6
-1.408, 5.698e-6
-1.409, 5.703e-6
-1.410, 5.706e-6
-1.411, 5.713e-6
-1.412, 5.717e-6
-1.413, 5.720e-6
-1.414, 5.725e-6
-1.415, 5.731e-6
-1.416, 5.736e-6
-1.417, 5.740e-6
-1.418, 5.743e-6
-1.419, 5.749e-6
-1.420, 5.755e-6
-1.421, 5.759e-6
-1.422, 5.764e-6
-1.423, 5.769e-6
-1.424, 5.773e-6
-1.425, 5.778e-6
-1.426, 5.783e-6
-1.427, 5.789e-6
-1.428, 5.794e-6
-1.429, 5.798e-6
-1.430, 5.804e-6
-1.431, 5.810e-6
-1.432, 5.813e-6
-1.433, 5.820e-6
-1.434, 5.826e-6
-1.435, 5.833e-6
-1.436, 5.839e-6
-1.437, 5.842e-6
-1.438, 5.849e-6
-1.439, 5.853e-6
-1.440, 5.859e-6
-1.441, 5.866e-6
-1.442, 5.870e-6
-1.443, 5.875e-6
-1.444, 5.880e-6
-1.445, 5.885e-6
-1.446, 5.893e-6
-1.447, 5.897e-6
-1.448, 5.902e-6
-1.449, 5.908e-6
-1.450, 5.913e-6
-1.451, 5.920e-6
-1.452, 5.926e-6
-1.453, 5.930e-6
-1.454, 5.936e-6
-1.455, 5.943e-6
-1.456, 5.949e-6
-1.457, 5.955e-6
-1.458, 5.960e-6
-1.459, 5.967e-6
-1.460, 5.974e-6
-1.461, 5.981e-6
-1.462, 5.988e-6
-1.463, 5.994e-6
-1.464, 5.998e-6
-1.465, 6.008e-6
-1.466, 6.015e-6
-1.467, 6.020e-6
-1.468, 6.027e-6
-1.469, 6.034e-6
-1.470, 6.042e-6
-1.471, 6.049e-6
-1.472, 6.057e-6
-1.473, 6.064e-6
-1.474, 6.068e-6
-1.475, 6.078e-6
-1.476, 6.086e-6
-1.477, 6.093e-6
-1.478, 6.101e-6
-1.479, 6.105e-6
-1.480, 6.115e-6
-1.481, 6.123e-6
-1.482, 6.128e-6
-1.483, 6.137e-6
-1.484, 6.143e-6
-1.485, 6.155e-6
-1.486, 6.163e-6
-1.487, 6.168e-6
-1.488, 6.175e-6
-1.489, 6.183e-6
-1.490, 6.191e-6
-1.491, 6.200e-6
-1.492, 6.206e-6
-1.493, 6.213e-6
-1.494, 6.220e-6
-1.495, 6.231e-6
-1.496, 6.239e-6
-1.497, 6.246e-6
-1.498, 6.254e-6
-1.499, 6.262e-6
-1.500, 6.271e-6
-1.501, 6.280e-6
-1.502, 6.288e-6
-1.503, 6.295e-6
-1.504, 6.304e-6
-1.505, 6.315e-6
-1.506, 6.325e-6
-1.507, 6.332e-6
-1.508, 6.340e-6
-1.509, 6.349e-6
-1.510, 6.360e-6
-1.511, 6.369e-6
-1.512, 6.378e-6
-1.513, 6.387e-6
-1.514, 6.394e-6
-1.515, 6.406e-6
-1.516, 6.416e-6
-1.517, 6.425e-6
-1.518, 6.434e-6
-1.519, 6.442e-6
-1.520, 6.453e-6
-1.521, 6.464e-6
-1.522, 6.472e-6
-1.523, 6.481e-6
-1.524, 6.491e-6
-1.525, 6.501e-6
-1.526, 6.513e-6
-1.527, 6.521e-6
-1.528, 6.532e-6
-1.529, 6.542e-6
-1.530, 6.554e-6
-1.531, 6.565e-6
-1.532, 6.574e-6
-1.533, 6.584e-6
-1.534, 6.595e-6
-1.535, 6.607e-6
-1.536, 6.619e-6
-1.537, 6.630e-6
-1.538, 6.638e-6
-1.539, 6.649e-6
-1.540, 6.664e-6
-1.541, 6.674e-6
-1.542, 6.685e-6
-1.543, 6.696e-6
-1.544, 6.706e-6
-1.545, 6.721e-6
-1.546, 6.731e-6
-1.547, 6.742e-6
-1.548, 6.754e-6
-1.549, 6.766e-6
-1.550, 6.780e-6
-1.551, 6.793e-6
-1.552, 6.806e-6
-1.553, 6.816e-6
-1.554, 6.829e-6
-1.555, 6.843e-6
-1.556, 6.856e-6
-1.557, 6.868e-6
-1.558, 6.881e-6
-1.559, 6.892e-6
-1.560, 6.907e-6
-1.561, 6.921e-6
-1.562, 6.935e-6
-1.563, 6.946e-6
-1.564, 6.960e-6
-1.565, 6.976e-6
-1.566, 6.990e-6
-1.567, 7.003e-6
-1.568, 7.016e-6
-1.569, 7.030e-6
-1.570, 7.045e-6
-1.571, 7.061e-6
-1.572, 7.074e-6
-1.573, 7.088e-6
-1.574, 7.105e-6
-1.575, 7.121e-6
-1.576, 7.136e-6
-1.577, 7.152e-6
-1.578, 7.164e-6
-1.579, 7.181e-6
-1.580, 7.197e-6
-1.581, 7.214e-6
-1.582, 7.229e-6
-1.583, 7.243e-6
-1.584, 7.258e-6
-1.585, 7.276e-6
-1.586, 7.292e-6
-1.587, 7.309e-6
-1.588, 7.327e-6
-1.589, 7.342e-6
-1.590, 7.360e-6
-1.591, 7.376e-6
-1.592, 7.391e-6
-1.593, 7.410e-6
-1.594, 7.426e-6
-1.595, 7.446e-6
-1.596, 7.463e-6
-1.597, 7.480e-6
-1.598, 7.500e-6
-1.599, 7.517e-6
-1.600, 7.537e-6
-1.601, 7.557e-6
-1.602, 7.574e-6
-1.603, 7.593e-6
-1.604, 7.611e-6
-1.605, 7.632e-6
-1.606, 7.654e-6
-1.607, 7.671e-6
-1.608, 7.691e-6
-1.609, 7.711e-6
-1.610, 7.733e-6
-1.611, 7.755e-6
-1.612, 7.774e-6
-1.613, 7.793e-6
-1.614, 7.815e-6
-1.615, 7.836e-6
-1.616, 7.858e-6
-1.617, 7.879e-6
-1.618, 7.898e-6
-1.619, 7.921e-6
-1.620, 7.945e-6
-1.621, 7.967e-6
-1.622, 7.990e-6
-1.623, 8.010e-6
-1.624, 8.031e-6
-1.625, 8.056e-6
-1.626, 8.078e-6
-1.627, 8.099e-6
-1.628, 8.121e-6
-1.629, 8.144e-6
-1.630, 8.171e-6
-1.631, 8.197e-6
-1.632, 8.221e-6
-1.633, 8.244e-6
-1.634, 8.267e-6
-1.635, 8.296e-6
-1.636, 8.320e-6
-1.637, 8.343e-6
-1.638, 8.370e-6
-1.639, 8.401e-6
-1.640, 8.424e-6
-1.641, 8.449e-6
-1.642, 8.474e-6
-1.643, 8.499e-6
-1.644, 8.524e-6
-1.645, 8.552e-6
-1.646, 8.579e-6
-1.647, 8.604e-6
-1.648, 8.629e-6
-1.649, 8.657e-6
-1.650, 8.684e-6
-1.651, 8.716e-6
-1.652, 8.744e-6
-1.653, 8.770e-6
-1.654, 8.799e-6
-1.655, 8.830e-6
-1.656, 8.858e-6
-1.657, 8.886e-6
-1.658, 8.913e-6
-1.659, 8.943e-6
-1.660, 8.978e-6
-1.661, 9.009e-6
-1.662, 9.040e-6
-1.663, 9.071e-6
-1.664, 9.105e-6
-1.665, 9.139e-6
-1.666, 9.171e-6
-1.667, 9.205e-6
-1.668, 9.237e-6
-1.669, 9.271e-6
-1.670, 9.308e-6
-1.671, 9.343e-6
-1.672, 9.378e-6
-1.673, 9.411e-6
-1.674, 9.446e-6
-1.675, 9.487e-6
-1.676, 9.525e-6
-1.677, 9.559e-6
-1.678, 9.597e-6
-1.679, 9.634e-6
-1.680, 9.677e-6
-1.681, 9.717e-6
-1.682, 9.755e-6
-1.683, 9.796e-6
-1.684, 9.837e-6
-1.685, 9.880e-6
-1.686, 9.925e-6
-1.687, 9.965e-6
-1.688, 1.001e-5
-1.689, 1.005e-5
-1.690, 1.010e-5
-1.691, 1.015e-5
-1.692, 1.019e-5
-1.693, 1.023e-5
-1.694, 1.028e-5
-1.695, 1.033e-5
-1.696, 1.038e-5
-1.697, 1.043e-5
-1.698, 1.048e-5
-1.699, 1.053e-5
-1.700, 1.058e-5
-1.701, 1.064e-5
-1.702, 1.070e-5
-1.703, 1.075e-5
-1.704, 1.081e-5
-1.705, 1.087e-5
-1.706, 1.092e-5
-1.707, 1.098e-5
-1.708, 1.104e-5
-1.709, 1.110e-5
-1.710, 1.117e-5
-1.711, 1.123e-5
-1.712, 1.129e-5
-1.713, 1.136e-5
-1.714, 1.142e-5
-1.715, 1.150e-5
-1.716, 1.157e-5
-1.717, 1.164e-5
-1.718, 1.171e-5
-1.719, 1.179e-5
-1.720, 1.186e-5
-1.721, 1.194e-5
-1.722, 1.201e-5
-1.723, 1.208e-5
-1.724, 1.216e-5
-1.725, 1.224e-5
-1.726, 1.233e-5
-1.727, 1.241e-5
-1.728, 1.250e-5
-1.729, 1.259e-5
-1.730, 1.268e-5
-1.731, 1.278e-5
-1.732, 1.287e-5
-1.733, 1.297e-5
-1.734, 1.307e-5
-1.735, 1.318e-5
-1.736, 1.328e-5
-1.737, 1.339e-5
-1.738, 1.349e-5
-1.739, 1.361e-5
-1.740, 1.372e-5
-1.741, 1.384e-5
-1.742, 1.396e-5
-1.743, 1.407e-5
-1.744, 1.419e-5
-1.745, 1.432e-5
-1.746, 1.445e-5
-1.747, 1.458e-5
-1.748, 1.471e-5
-1.749, 1.485e-5
-1.750, 1.499e-5
-1.751, 1.513e-5
-1.752, 1.527e-5
-1.753, 1.541e-5
-1.754, 1.557e-5
-1.755, 1.572e-5
-1.756, 1.588e-5
-1.757, 1.604e-5
-1.758, 1.620e-5
-1.759, 1.637e-5
-1.760, 1.654e-5
-1.761, 1.672e-5
-1.762, 1.688e-5
-1.763, 1.706e-5
-1.764, 1.724e-5
-1.765, 1.743e-5
-1.766, 1.763e-5
-1.767, 1.782e-5
-1.768, 1.802e-5
-1.769, 1.822e-5
-1.770, 1.843e-5
-1.771, 1.864e-5
-1.772, 1.886e-5
-1.773, 1.908e-5
-1.774, 1.930e-5
-1.775, 1.953e-5
-1.776, 1.977e-5
-1.777, 2.001e-5
-1.778, 2.024e-5
-1.779, 2.050e-5
-1.780, 2.075e-5
-1.781, 2.101e-5
-1.782, 2.128e-5
-1.783, 2.155e-5
-1.784, 2.182e-5
-1.785, 2.211e-5
-1.786, 2.240e-5
-1.787, 2.270e-5
-1.788, 2.300e-5
-1.789, 2.331e-5
-1.790, 2.363e-5
-1.791, 2.396e-5
-1.792, 2.430e-5
-1.793, 2.464e-5
-1.794, 2.498e-5
-1.795, 2.534e-5
-1.796, 2.570e-5
-1.797, 2.607e-5
-1.798, 2.645e-5
-1.799, 2.685e-5
-1.800, 2.725e-5
-1.801, 2.766e-5
-1.802, 2.806e-5
-1.803, 2.849e-5
-1.804, 2.893e-5
-1.805, 2.937e-5
-1.806, 2.983e-5
-1.807, 3.030e-5
-1.808, 3.077e-5
-1.809, 3.127e-5
-1.810, 3.177e-5
-1.811, 3.229e-5
-1.812, 3.281e-5
-1.813, 3.335e-5
-1.814, 3.390e-5
-1.815, 3.446e-5
-1.816, 3.504e-5
-1.817, 3.564e-5
-1.818, 3.624e-5
-1.819, 3.685e-5
-1.820, 3.749e-5
-1.821, 3.814e-5
-1.822, 3.879e-5
-1.823, 3.944e-5
-1.824, 4.012e-5
-1.825, 4.083e-5
-1.826, 4.157e-5
-1.827, 4.231e-5
-1.828, 4.307e-5
-1.829, 4.380e-5
-1.830, 4.459e-5
-1.831, 4.540e-5
-1.832, 4.623e-5
-1.833, 4.705e-5
-1.834, 4.793e-5
-1.835, 4.882e-5
-1.836, 4.970e-5
-1.837, 5.063e-5
-1.838, 5.157e-5
-1.839, 5.254e-5
-1.840, 5.353e-5
-1.841, 5.453e-5
-1.842, 5.555e-5
-1.843, 5.659e-5
-1.844, 5.762e-5
-1.845, 5.868e-5
-1.846, 5.976e-5
-1.847, 6.089e-5
-1.848, 6.204e-5
-1.849, 6.321e-5
-1.850, 6.440e-5
-1.851, 6.561e-5
-1.852, 6.686e-5
-1.853, 6.811e-5
-1.854, 6.942e-5
-1.855, 7.072e-5
-1.856, 7.206e-5
-1.857, 7.343e-5
-1.858, 7.481e-5
-1.859, 7.622e-5
-1.860, 7.767e-5
-1.861, 7.916e-5
-1.862, 8.066e-5
-1.863, 8.216e-5
-1.864, 8.370e-5
-1.865, 8.529e-5
-1.866, 8.691e-5
-1.867, 8.854e-5
-1.868, 9.019e-5
-1.869, 9.185e-5
-1.870, 9.357e-5
-1.871, 9.531e-5
-1.872, 9.708e-5
-1.873, 9.887e-5
-1.874, 1.007e-4
-1.875, 1.026e-4
-1.876, 1.045e-4
-1.877, 1.064e-4
-1.878, 1.083e-4
-1.879, 1.102e-4
-1.880, 1.122e-4
-1.881, 1.143e-4
-1.882, 1.163e-4
-1.883, 1.185e-4
-1.884, 1.206e-4
-1.885, 1.228e-4
-1.886, 1.250e-4
-1.887, 1.272e-4
-1.888, 1.295e-4
-1.889, 1.318e-4
-1.890, 1.342e-4
-1.891, 1.366e-4
-1.892, 1.389e-4
-1.893, 1.414e-4
-1.894, 1.438e-4
-1.895, 1.463e-4
-1.896, 1.489e-4
-1.897, 1.515e-4
-1.898, 1.541e-4
-1.899, 1.567e-4
-1.900, 1.594e-4
-1.901, 1.621e-4
-1.902, 1.649e-4
-1.903, 1.676e-4
-1.904, 1.705e-4
-1.905, 1.733e-4
-1.906, 1.763e-4
-1.907, 1.792e-4
-1.908, 1.822e-4
-1.909, 1.852e-4
-1.910, 1.882e-4
-1.911, 1.913e-4
-1.912, 1.944e-4
-1.913, 1.976e-4
-1.914, 2.007e-4
-1.915, 2.040e-4
-1.916, 2.072e-4
-1.917, 2.106e-4
-1.918, 2.139e-4
-1.919, 2.173e-4
-1.920, 2.207e-4
-1.921, 2.242e-4
-1.922, 2.277e-4
-1.923, 2.313e-4
-1.924, 2.349e-4
-1.925, 2.386e-4
-1.926, 2.423e-4
-1.927, 2.460e-4
-1.928, 2.498e-4
-1.929, 2.536e-4
-1.930, 2.574e-4
-1.931, 2.613e-4
-1.932, 2.651e-4
-1.933, 2.691e-4
-1.934, 2.731e-4
-1.935, 2.771e-4
-1.936, 2.812e-4
-1.937, 2.853e-4
-1.938, 2.894e-4
-1.939, 2.936e-4
-1.940, 2.978e-4
-1.941, 3.021e-4
-1.942, 3.063e-4
-1.943, 3.106e-4
-1.944, 3.150e-4
-1.945, 3.194e-4
-1.946, 3.240e-4
-1.947, 3.284e-4
-1.948, 3.328e-4
-1.949, 3.374e-4
-1.950, 3.420e-4
-1.951, 3.467e-4
-1.952, 3.514e-4
-1.953, 3.560e-4
-1.954, 3.606e-4
-1.955, 3.653e-4
-1.956, 3.702e-4
-1.957, 3.750e-4
-1.958, 3.798e-4
-1.959, 3.847e-4
-1.960, 3.897e-4
-1.961, 3.947e-4
-1.962, 3.996e-4
-1.963, 4.046e-4
-1.964, 4.097e-4
-1.965, 4.149e-4
-1.966, 4.200e-4
-1.967, 4.251e-4
-1.968, 4.302e-4
-1.969, 4.354e-4
-1.970, 4.408e-4
-1.971, 4.461e-4
-1.972, 4.515e-4
-1.973, 4.568e-4
-1.974, 4.622e-4
-1.975, 4.677e-4
-1.976, 4.733e-4
-1.977, 4.789e-4
-1.978, 4.845e-4
-1.979, 4.899e-4
-1.980, 4.955e-4
-1.981, 5.011e-4
-1.982, 5.067e-4
-1.983, 5.124e-4
-1.984, 5.181e-4
-1.985, 5.239e-4
-1.986, 5.297e-4
-1.987, 5.355e-4
-1.988, 5.411e-4
-1.989, 5.470e-4
-1.990, 5.529e-4
-1.991, 5.588e-4
-1.992, 5.647e-4
-1.993, 5.708e-4
-1.994, 5.769e-4
-1.995, 5.827e-4
-1.996, 5.886e-4
-1.997, 5.947e-4
-1.998, 6.007e-4
-1.999, 6.068e-4
-2.000, 6.128e-4
-2.001, 6.190e-4
-2.002, 6.251e-4
-2.003, 6.311e-4
-2.004, 6.371e-4
-2.005, 6.431e-4
-2.006, 6.491e-4
-2.007, 6.555e-4
-2.008, 6.621e-4
-2.009, 6.685e-4
-2.010, 6.750e-4
-2.011, 6.814e-4
-2.012, 6.875e-4
-2.013, 6.937e-4
-2.014, 6.999e-4
-2.015, 7.063e-4
-2.016, 7.124e-4
-2.017, 7.190e-4
-2.018, 7.256e-4
-2.019, 7.321e-4
-2.020, 7.385e-4
-2.021, 7.450e-4
-2.022, 7.517e-4
-2.023, 7.587e-4
-2.024, 7.661e-4
-2.025, 7.729e-4
-2.026, 7.799e-4
-2.027, 7.867e-4
-2.028, 7.933e-4
-2.029, 7.997e-4
-2.030, 8.061e-4
-2.031, 8.125e-4
-2.032, 8.194e-4
-2.033, 8.260e-4
-2.034, 8.337e-4
-2.035, 8.419e-4
-2.036, 8.489e-4
-2.037, 8.559e-4
-2.038, 8.629e-4
-2.039, 8.697e-4
-2.040, 8.767e-4
-2.041, 8.836e-4
-2.042, 8.907e-4
-2.043, 8.977e-4
-2.044, 9.047e-4
-2.045, 9.121e-4
-2.046, 9.194e-4
-2.047, 9.263e-4
-2.048, 9.334e-4
-2.049, 9.407e-4
-2.050, 9.475e-4
-2.051, 9.547e-4
-2.052, 9.614e-4
-2.053, 9.686e-4
-2.054, 9.758e-4
-2.055, 9.832e-4
-2.056, 9.904e-4
-2.057, 9.978e-4
-2.058, 1.005e-3
-2.059, 1.011e-3
-2.060, 1.011e-3
-2.061, 1.011e-3
-2.062, 1.011e-3
-2.063, 1.011e-3
-2.064, 1.011e-3
-2.065, 1.011e-3
-2.066, 1.011e-3
-2.067, 1.011e-3
-2.068, 1.011e-3
-2.069, 1.011e-3
-2.070, 1.011e-3
-2.071, 1.011e-3
-2.072, 1.011e-3
-2.073, 1.011e-3
-2.074, 1.011e-3
-2.075, 1.011e-3
-2.076, 1.011e-3
-2.077, 1.011e-3
-2.078, 1.011e-3
-2.079, 1.011e-3
-2.080, 1.011e-3
-2.081, 1.011e-3
-2.082, 1.011e-3
-2.083, 1.011e-3
-2.084, 1.011e-3
-2.085, 1.011e-3
-2.086, 1.011e-3
-2.087, 1.011e-3
-2.088, 1.011e-3
-2.089, 1.011e-3
-2.090, 1.011e-3
-2.091, 1.011e-3
-2.092, 1.011e-3
-2.093, 1.011e-3
-2.094, 1.011e-3
-2.095, 1.011e-3
-2.096, 1.011e-3
-2.097, 1.011e-3
-2.098, 1.011e-3
-2.099, 1.011e-3
-2.100, 1.011e-3
-2.101, 1.011e-3
-2.102, 1.011e-3
-2.103, 1.011e-3
-2.104, 1.011e-3
-2.105, 1.011e-3
-2.106, 1.011e-3
-2.107, 1.011e-3
-2.108, 1.011e-3
-2.109, 1.011e-3
-2.110, 1.011e-3
-2.111, 1.011e-3
-2.112, 1.011e-3
-2.113, 1.011e-3
-2.114, 1.011e-3
-2.115, 1.011e-3
-2.116, 1.011e-3
-2.117, 1.011e-3
-2.118, 1.011e-3
-2.119, 1.011e-3
-2.120, 1.011e-3
-2.121, 1.011e-3
-2.122, 1.011e-3
-2.123, 1.011e-3
-2.124, 1.011e-3
-2.125, 1.011e-3
-2.126, 1.011e-3
-2.127, 1.011e-3
-2.128, 1.011e-3
-2.129, 1.011e-3
-2.130, 1.011e-3
-2.131, 1.011e-3
-2.132, 1.011e-3
-2.133, 1.011e-3
-2.134, 1.011e-3
-2.135, 1.011e-3
-2.136, 1.011e-3
-2.137, 1.011e-3
-2.138, 1.011e-3
-2.139, 1.011e-3
-2.140, 1.011e-3
-2.141, 1.011e-3
-2.142, 1.011e-3
-2.143, 1.011e-3
-2.144, 1.011e-3
-2.145, 1.011e-3
-2.146, 1.011e-3
-2.147, 1.011e-3
-2.148, 1.011e-3
-2.149, 1.011e-3
-2.150, 1.011e-3
-2.151, 1.011e-3
-2.152, 1.011e-3
-2.153, 1.011e-3
-2.154, 1.011e-3
-2.155, 1.011e-3
-2.156, 1.011e-3
-2.157, 1.011e-3
-2.158, 1.011e-3
-2.159, 1.011e-3
-2.160, 1.011e-3
-2.161, 1.011e-3
-2.162, 1.011e-3
-2.163, 1.011e-3
-2.164, 1.011e-3
-2.165, 1.011e-3
-2.166, 1.011e-3
-2.167, 1.011e-3
-2.168, 1.011e-3
-2.169, 1.011e-3
-2.170, 1.011e-3
-2.171, 1.011e-3
-2.172, 1.011e-3
-2.173, 1.011e-3
-2.174, 1.011e-3
-2.175, 1.011e-3
-2.176, 1.011e-3
-2.177, 1.011e-3
-2.178, 1.011e-3
-2.179, 1.011e-3
-2.180, 1.011e-3
-2.181, 1.011e-3
-2.182, 1.011e-3
-2.183, 1.011e-3
-2.184, 1.011e-3
-2.185, 1.011e-3
-2.186, 1.011e-3
-2.187, 1.011e-3
-2.188, 1.011e-3
-2.189, 1.011e-3
-2.190, 1.011e-3
-2.191, 1.011e-3
-2.192, 1.011e-3
-2.193, 1.011e-3
-2.194, 1.011e-3
-2.195, 1.011e-3
-2.196, 1.011e-3
-2.197, 1.011e-3
-2.198, 1.011e-3
-2.199, 1.011e-3
-2.200, 1.011e-3
-2.201, 1.011e-3
-2.202, 1.011e-3
-2.203, 1.011e-3
-2.204, 1.011e-3
-2.205, 1.011e-3
-2.206, 1.011e-3
-2.207, 1.011e-3
-2.208, 1.011e-3
-2.209, 1.011e-3
-2.210, 1.011e-3
-2.211, 1.011e-3
-2.212, 1.011e-3
-2.213, 1.011e-3
-2.214, 1.011e-3
-2.215, 1.011e-3
-2.216, 1.011e-3
-2.217, 1.011e-3
-2.218, 1.011e-3
-2.219, 1.011e-3
-2.220, 1.011e-3
-2.221, 1.011e-3
-2.222, 1.011e-3
-2.223, 1.011e-3
-2.224, 1.011e-3
-2.225, 1.011e-3
-2.226, 1.011e-3
-2.227, 1.011e-3
-2.228, 1.011e-3
-2.229, 1.011e-3
-2.230, 1.011e-3
-2.231, 1.011e-3
-2.232, 1.011e-3
-2.233, 1.011e-3
-2.234, 1.011e-3
-2.235, 1.011e-3
-2.236, 1.011e-3
-2.237, 1.011e-3
-2.238, 1.011e-3
-2.239, 1.011e-3
-2.240, 1.011e-3
-2.241, 1.011e-3
-2.242, 1.011e-3
-2.243, 1.011e-3
-2.244, 1.011e-3
-2.245, 1.011e-3
-2.246, 1.011e-3
-2.247, 1.011e-3
-2.248, 1.011e-3
-2.249, 1.011e-3
-2.250, 1.011e-3
-2.251, 1.011e-3
-2.252, 1.011e-3
-2.253, 1.011e-3
-2.254, 1.011e-3
-2.255, 1.011e-3
-2.256, 1.011e-3
-2.257, 1.011e-3
-2.258, 1.011e-3
-2.259, 1.011e-3
-2.260, 1.011e-3
-2.261, 1.011e-3
-2.262, 1.011e-3
-2.263, 1.011e-3
-2.264, 1.011e-3
-2.265, 1.011e-3
-2.266, 1.011e-3
-2.267, 1.011e-3
-2.268, 1.011e-3
-2.269, 1.011e-3
-2.270, 1.011e-3
-2.271, 1.011e-3
-2.272, 1.011e-3
-2.273, 1.011e-3
-2.274, 1.011e-3
-2.275, 1.011e-3
-2.276, 1.011e-3
-2.277, 1.011e-3
-2.278, 1.011e-3
-2.279, 1.011e-3
-2.280, 1.011e-3
-2.281, 1.011e-3
-2.282, 1.011e-3
-2.283, 1.011e-3
-2.284, 1.011e-3
-2.285, 1.011e-3
-2.286, 1.011e-3
-2.287, 1.011e-3
-2.288, 1.011e-3
-2.289, 1.011e-3
-2.290, 1.011e-3
-2.291, 1.011e-3
-2.292, 1.011e-3
-2.293, 1.011e-3
-2.294, 1.011e-3
-2.295, 1.011e-3
-2.296, 1.011e-3
-2.297, 1.011e-3
-2.298, 1.011e-3
-2.299, 1.011e-3
