Potential V vs RHE, Current mA cm-2
0.4132999999999999,0.004558199808165148
0.4122999999999999,0.0026002393691519376
0.4112999999999999,0.0020244518701068677
0.4102999999999999,0.0017231183632356146
0.4092999999999999,0.0014967645552572087
0.4082999999999999,0.0012955926084164005
0.4072999999999999,0.0010986647954751875
0.4062999999999999,0.0008865995716254186
0.4052999999999999,0.000714853619821803
0.4042999999999999,0.0005585280211867165
0.4032999999999999,0.0004580835188962989
0.4022999999999999,0.0002738881076538711
0.4012999999999999,0.00010635799552385346
0.4002999999999999,7.257468968307638e-06
0.3992999999999999,-0.00012115587572044173
0.3982999999999999,-0.00025648715866553114
0.3972999999999999,-0.0003891870785928716
0.3962999999999999,-0.0005245749499899556
0.3952999999999999,-0.0006207753183807782
0.3942999999999999,-0.000729708088470386
0.39329999999999987,-0.0008203910827917348
0.39229999999999987,-0.00094318802362002
0.39129999999999987,-0.0010968256707853629
0.39029999999999987,-0.0011875086651067118
0.38929999999999987,-0.001283850504627521
0.38829999999999987,-0.0013814655843182083
0.38729999999999987,-0.001469885040559773
0.38629999999999987,-0.0015972090575476264
0.38529999999999986,-0.0016764328903400682
0.38429999999999986,-0.0017669744135314306
0.38329999999999986,-0.0018702483384215787
0.38229999999999986,-0.001959375150313076
0.38129999999999986,-0.0020739667656021438
0.38029999999999986,-0.0021602641548939113
0.37929999999999986,-0.0022309997198871625
0.37829999999999986,-0.0023187118204787954
0.37729999999999986,-0.0024078386323702922
0.37629999999999986,-0.0025181861137597654
0.37529999999999986,-0.0026073129256512628
0.37429999999999986,-0.0026695602228453243
0.37329999999999985,-0.002751613478237496
0.37229999999999985,-0.0028633756709268345
0.37129999999999985,-0.002931281813320356
0.37029999999999985,-0.0030175792026121235
0.36929999999999985,-0.0030911441902051052
0.36829999999999985,-0.003160465043898492
0.36729999999999985,-0.003256665412289315
0.36629999999999985,-0.0033358892450817564
0.36529999999999985,-0.0034080395213748733
0.36429999999999985,-0.00348867806546718
0.36329999999999985,-0.0035367782496625914
0.36229999999999984,-0.003638637463252874
0.36129999999999984,-0.003732008409043967
0.36029999999999984,-0.003797085128837758
0.35929999999999984,-0.0038805530955297956
0.35829999999999984,-0.003922994434525746
0.35729999999999984,-0.004013535957717109
0.35629999999999984,-0.004123883439106582
0.35529999999999984,-0.004173398334601858
0.35429999999999984,-0.00424413389959511
0.35329999999999984,-0.004312040041988632
0.35229999999999984,-0.004385605029581614
0.35129999999999983,-0.004480390686672572
0.35029999999999983,-0.004542637983866632
0.34929999999999983,-0.004609129414960289
0.34829999999999983,-0.004678450268653676
0.34729999999999983,-0.00478879775004315
0.34629999999999983,-0.004824165532539775
0.34529999999999983,-0.0048977305201327575
0.34429999999999983,-0.004933098302629383
0.3432999999999998,-0.0049911014659238485
0.3422999999999998,-0.005061837030917102
0.3412999999999998,-0.005180672780105764
0.3402999999999998,-0.005225943541701445
0.3392999999999998,-0.005251408345099016
0.3382999999999998,-0.005330632177891458
0.3372999999999998,-0.005397123608985115
0.3362999999999998,-0.005473518019177827
0.3352999999999998,-0.005530106471172428
0.3342999999999998,-0.00556688896496892
0.3332999999999998,-0.005623477416963521
0.3322999999999998,-0.005701286538456097
0.3312999999999998,-0.00576353383565016
0.3302999999999998,-0.0058441723797424665
0.3292999999999998,-0.005888028430038283
0.3282999999999998,-0.00592622563513464
0.3272999999999998,-0.006001205334027485
0.3262999999999998,-0.006070526187720872
0.3252999999999999,-0.006151164731813179
0.3242999999999999,-0.00618511780300994
0.3232999999999999,-0.006219070874206701
0.3222999999999999,-0.006322344799096849
0.3212999999999999,-0.00639873920928956
0.3202999999999999,-0.006453912949984298
0.3192999999999999,-0.006496354288980248
0.3182999999999999,-0.00654162505057593
0.3172999999999999,-0.006596798791270665
0.3162999999999999,-0.0067043168500604084
0.3152999999999999,-0.006724122808258519
0.3142999999999999,-0.0067651494359546056
0.3132999999999999,-0.006818908465349477
0.3122999999999999,-0.006861349804345428
0.3112999999999999,-0.006988673821333281
0.3102999999999999,-0.007004235645631797
0.3092999999999999,-0.0070608240976263986
0.3082999999999999,-0.007111753704421539
0.3072999999999999,-0.007164098022516547
0.3062999999999999,-0.007229174742310337
0.3052999999999999,-0.007294251462104129
0.3042999999999999,-0.00730273972990332
0.3032999999999999,-0.007381963562695762
0.3022999999999999,-0.007451284416389148
0.3012999999999999,-0.007512117002283344
0.3002999999999999,-0.007575779010777272
0.2992999999999999,-0.007585681989876327
0.2982999999999999,-0.007632367462771873
0.2972999999999999,-0.00771583542946391
0.2962999999999999,-0.007780912149257702
0.2952999999999999,-0.007834671178652573
0.2942999999999999,-0.007851647714250953
0.2932999999999999,-0.00791530972274488
0.2922999999999999,-0.007984630576438266
0.2912999999999999,-0.008048292584932193
0.2902999999999999,-0.008096392769127604
0.2892999999999999,-0.0081289311290245
0.2882999999999999,-0.008158640066321667
0.2872999999999999,-0.008235034476514377
0.2862999999999999,-0.00828879350590925
0.2852999999999999,-0.00834538195790385
0.2842999999999999,-0.008387823296899802
0.2832999999999999,-0.008416117522897103
0.2822999999999999,-0.008493926644389681
0.2812999999999999,-0.008561832786783203
0.2802999999999999,-0.008577394611081717
0.2792999999999999,-0.008628324217876859
0.2782999999999999,-0.00866510671167335
0.2772999999999999,-0.008733012854066871
0.2762999999999999,-0.008806577841659852
0.2752999999999999,-0.00883062793375756
0.2742999999999999,-0.008880142829252835
0.2732999999999999,-0.008938145992547301
0.2722999999999999,-0.008986246176742712
0.2712999999999999,-0.009054152319136236
0.2702999999999999,-0.009093764235532455
0.2692999999999999,-0.009126302595429353
0.26829999999999987,-0.009170158645725169
0.26729999999999987,-0.00923240594291923
0.26629999999999987,-0.00929465324011329
0.26529999999999987,-0.009338509290409108
0.26429999999999987,-0.009352656403407758
0.26329999999999987,-0.009410659566702223
0.26229999999999987,-0.009488468688194801
0.26129999999999987,-0.009549301274088998
0.26029999999999986,-0.009610133859983196
0.25929999999999986,-0.009631354529481169
0.25829999999999986,-0.009686528270175906
0.25729999999999986,-0.009741702010870643
0.25629999999999986,-0.009818096421063354
0.25529999999999986,-0.009854878914859847
0.25429999999999986,-0.009883173140857146
0.25329999999999986,-0.0099213703459535
0.25229999999999986,-0.010006253023945404
0.25129999999999986,-0.010057182630740546
0.25029999999999986,-0.010081232722838252
0.24929999999999986,-0.010109526948835552
0.24829999999999985,-0.010147724153931907
0.24729999999999985,-0.010219874430225024
0.24629999999999985,-0.010284951150018817
0.24529999999999985,-0.01034436902461315
0.24429999999999985,-0.010379736807109774
0.24329999999999985,-0.010396713342708155
0.24229999999999985,-0.010464619485101676
0.24129999999999985,-0.010539599183994523
0.24029999999999985,-0.010555161008293039
0.23929999999999985,-0.01062023772808683
0.23829999999999985,-0.010658434933183185
0.23729999999999984,-0.010716438096477652
0.23629999999999984,-0.010797076640569959
0.23529999999999984,-0.010802735485769419
0.23429999999999984,-0.010828200289166992
0.23329999999999984,-0.010874885762062537
0.23229999999999984,-0.010934303636656869
0.23129999999999984,-0.011029089293747827
0.23029999999999984,-0.011057383519745126
0.22929999999999984,-0.011096995436141347
0.22829999999999984,-0.011139436775137297
0.22729999999999984,-0.011197439938431765
0.22629999999999983,-0.011269590214724881
0.22529999999999983,-0.011303543285921643
0.22429999999999983,-0.011331837511918944
0.22329999999999983,-0.011399743654312466
0.22229999999999983,-0.011440770282008551
0.22129999999999983,-0.01151292055830167
0.22029999999999983,-0.01155253247469789
0.21929999999999983,-0.011593559102393975
0.21829999999999983,-0.011643073997889252
0.21729999999999983,-0.011722297830681695
0.21629999999999983,-0.011778886282676296
0.21529999999999982,-0.011828401178171572
0.21429999999999982,-0.011870842517167522
0.21329999999999982,-0.011907625010964014
0.21229999999999982,-0.011961384040358885
0.21129999999999982,-0.012017972492353486
0.21029999999999982,-0.012054754986149977
0.20929999999999982,-0.012098611036445793
0.20829999999999982,-0.01212549055114323
0.20729999999999982,-0.012210373229135131
0.20629999999999982,-0.012282523505428248
0.20529999999999982,-0.012295255907127035
0.20429999999999982,-0.012323550133124335
0.20329999999999981,-0.012371650317319745
0.2022999999999998,-0.012438141748413402
0.2012999999999998,-0.012528683271604767
0.20029999999999992,-0.012554148075002335
0.19929999999999992,-0.012595174702698421
0.19829999999999992,-0.012633371907794776
0.19729999999999992,-0.012694204493688974
0.19629999999999992,-0.012762110636082496
0.19529999999999992,-0.012788990150779932
0.19429999999999992,-0.012890849364370214
0.19329999999999992,-0.01295451137286414
0.19229999999999992,-0.0129601702180636
0.19129999999999991,-0.013030905783056851
0.1902999999999999,-0.013063444142953748
0.1892999999999999,-0.013101641348050105
0.1882999999999999,-0.013159644511344572
0.1872999999999999,-0.013214818252039308
0.1862999999999999,-0.013288383239632289
0.1852999999999999,-0.013320921599529186
0.1842999999999999,-0.013363362938525138
0.1832999999999999,-0.013405804277521088
0.1822999999999999,-0.013473710419914608
0.1812999999999999,-0.01352746944930948
0.1802999999999999,-0.013574154922205027
0.1792999999999999,-0.013606693282101923
0.1782999999999999,-0.01367035529059585
0.1772999999999999,-0.013729773165190182
0.1762999999999999,-0.013790605751084378
0.1752999999999999,-0.013842950069179384
0.1742999999999999,-0.01388114727427574
0.1732999999999999,-0.013920759190671962
0.1722999999999999,-0.013990080044365347
0.1712999999999999,-0.01405232734155941
0.1702999999999999,-0.014093353969255496
0.1692999999999999,-0.014124477617852528
0.1682999999999999,-0.014161260111649017
0.1672999999999999,-0.01424614278964092
0.1662999999999999,-0.014316878354634173
0.1652999999999999,-0.014345172580631472
0.1642999999999999,-0.014401761032626074
0.1632999999999999,-0.014430055258623373
0.1622999999999999,-0.014514937936615275
0.1612999999999999,-0.014599820614607179
0.1602999999999999,-0.014585673501608528
0.1592999999999999,-0.014670556179600431
0.15829999999999989,-0.014684703292599082
0.15729999999999988,-0.014755438857592333
0.15629999999999988,-0.014854468648582884
0.15529999999999988,-0.014882762874580187
0.15429999999999988,-0.014925204213576137
0.15329999999999988,-0.014981792665570736
0.15229999999999988,-0.01503838111756534
0.15129999999999988,-0.015109116682558592
0.15029999999999988,-0.015123263795557243
0.14929999999999988,-0.015193999360550494
0.14829999999999988,-0.015250587812545097
0.14729999999999988,-0.015293029151541045
0.14629999999999987,-0.015377911829532949
0.14529999999999987,-0.015420353168528897
0.14429999999999987,-0.01546279450752485
0.14329999999999987,-0.015519382959519455
0.14229999999999987,-0.015604265637511355
0.14129999999999987,-0.015646706976507305
0.14029999999999987,-0.01568914831550326
0.13929999999999987,-0.015703295428501907
0.13829999999999987,-0.01575988388049651
0.13729999999999987,-0.01581647233249111
0.13629999999999987,-0.01588720789748436
0.13529999999999986,-0.015929649236480315
0.13429999999999986,-0.01597209057547626
0.13329999999999986,-0.016014531914472215
0.13229999999999986,-0.016099414592464115
0.13129999999999986,-0.01614185593146007
0.13029999999999986,-0.016212591496453318
0.12929999999999986,-0.016269179948447923
0.12829999999999986,-0.01629747417444522
0.12729999999999986,-0.01638235685243712
0.12629999999999986,-0.016438945304431726
0.12529999999999986,-0.01648138664342768
0.12429999999999986,-0.016537975095422278
0.12329999999999985,-0.01658041643441823
0.12229999999999985,-0.01665115199941148
0.12129999999999985,-0.01673603467740338
0.12029999999999985,-0.016764328903400686
0.11929999999999985,-0.016820917355395284
0.11829999999999985,-0.016863358694391237
0.11729999999999985,-0.01693409425938449
0.11629999999999985,-0.01703312405037504
0.11529999999999985,-0.017047271163373692
0.11429999999999985,-0.017103859615368294
0.11329999999999985,-0.017146300954364244
0.11229999999999984,-0.017231183632356147
0.11129999999999984,-0.01731606631034805
0.11029999999999984,-0.0173302134233467
0.10929999999999984,-0.0173868018753413
0.10829999999999984,-0.017443390327335904
0.10729999999999984,-0.017499978779330502
0.10629999999999984,-0.017584861457322406
0.10529999999999984,-0.017641449909317007
0.10429999999999984,-0.01768389124831296
0.10329999999999984,-0.01774047970030756
0.10229999999999984,-0.01781121526530081
0.10129999999999983,-0.017881950830294063
0.10029999999999983,-0.017938539282288665
0.09929999999999983,-0.017966833508285963
0.09829999999999983,-0.01803756907327922
0.09729999999999983,-0.01812245175127112
0.09629999999999983,-0.01817904020326572
0.09529999999999983,-0.018249775768258973
0.09429999999999983,-0.018278069994256275
0.09329999999999983,-0.018334658446250877
0.09229999999999983,-0.018433688237241428
0.09129999999999983,-0.01851857091523333
0.09029999999999982,-0.018546865141230634
0.08929999999999982,-0.018617600706223883
0.08829999999999982,-0.018674189158218484
0.08729999999999982,-0.018744924723211737
0.08629999999999982,-0.018801513175206338
0.08529999999999982,-0.018886395853198238
0.08429999999999982,-0.01892883719219419
0.08329999999999982,-0.018957131418191494
0.08229999999999982,-0.019056161209182042
0.08129999999999982,-0.019112749661176646
0.08029999999999982,-0.019169338113171244
0.07929999999999982,-0.019240073678164497
0.07829999999999981,-0.0192966621301591
0.07729999999999981,-0.019381544808151
0.07629999999999981,-0.019466427486142905
0.07529999999999992,-0.01950886882513886
0.07429999999999992,-0.019579604390132108
0.07329999999999992,-0.019622045729128058
0.07229999999999992,-0.01970692840711996
0.07129999999999992,-0.019791811085111865
0.07029999999999992,-0.019820105311109164
0.06929999999999992,-0.019876693763103765
0.06829999999999992,-0.019933282215098366
0.06729999999999992,-0.02003231200608892
0.06629999999999991,-0.020145488910078124
0.06529999999999991,-0.020173783136075422
0.06429999999999991,-0.020230371588070024
0.06329999999999991,-0.020286960040064625
0.06229999999999991,-0.02038598983105518
0.06129999999999991,-0.020470872509047083
0.06029999999999991,-0.02052746096104168
0.05929999999999991,-0.020598196526034934
0.05829999999999991,-0.020640637865030884
0.05729999999999991,-0.02073966765602144
0.056299999999999906,-0.020810403221014687
0.055299999999999905,-0.02088113878600794
0.054299999999999904,-0.020909433012005242
0.0532999999999999,-0.020994315689997142
0.0522999999999999,-0.021107492593986348
0.0512999999999999,-0.021135786819983647
0.0502999999999999,-0.02122066949797555
0.0492999999999999,-0.021277257949970152
0.0482999999999999,-0.021319699288966102
0.0472999999999999,-0.021432876192955305
0.0462999999999999,-0.021517758870947205
0.045299999999999896,-0.02157434732294181
0.044299999999999895,-0.02165923000093371
0.043299999999999894,-0.021701671339929663
0.04229999999999989,-0.021814848243918866
0.04129999999999989,-0.02189973092191077
0.04029999999999989,-0.02197046648690402
0.03929999999999989,-0.02204120205189727
0.03829999999999989,-0.022097790503891875
0.03729999999999989,-0.022196820294882423
0.03629999999999989,-0.022281702972874327
0.03529999999999989,-0.02232414431187028
0.034299999999999886,-0.02239487987686353
0.033299999999999885,-0.022465615441856785
0.032299999999999884,-0.022550498119848682
0.031299999999999883,-0.02267782213683654
0.030299999999999883,-0.02273441058883114
0.02929999999999988,-0.02279099904082574
0.02829999999999988,-0.02287588171881764
0.02729999999999988,-0.022960764396809545
0.02629999999999988,-0.023045647074801445
0.025299999999999878,-0.02310223552679605
0.024299999999999877,-0.023172971091789302
0.023299999999999876,-0.02324370665678255
0.022299999999999875,-0.023314442221775804
0.021299999999999875,-0.023427619125765006
0.020299999999999874,-0.023498354690758262
0.019299999999999873,-0.02355494314275286
0.018299999999999872,-0.023625678707746112
0.01729999999999987,-0.023710561385738016
0.01629999999999987,-0.023809591176728567
0.01529999999999987,-0.02388032674172182
0.014299999999999868,-0.02395106230671507
0.013299999999999867,-0.024035944984706972
0.012299999999999978,-0.024134974775697527
0.011299999999999866,-0.02423400456668808
0.010299999999999976,-0.02429059301868268
0.009299999999999864,-0.024375475696674583
0.008299999999999974,-0.024446211261667832
0.007299999999999862,-0.024559388165657038
0.006299999999999972,-0.024644270843648942
0.00529999999999986,-0.02468671218264489
0.0042999999999999705,-0.024771594860636792
0.0032999999999998586,-0.024842330425630044
0.0022999999999999687,-0.024955507329619247
0.0012999999999998568,-0.0250545371206098
0.00029999999999996696,-0.0251111255726044
-0.000700000000000145,-0.025210155363594954
-0.0017000000000000348,-0.025280890928588207
-0.0027000000000001467,-0.02540821494557606
-0.0037000000000000366,-0.025507244736566608
-0.0047000000000001485,-0.025563833188561213
-0.005700000000000038,-0.025648715866553113
-0.00670000000000015,-0.025719451431546365
-0.00770000000000004,-0.025818481222536924
-0.008700000000000152,-0.02591751101352747
-0.009700000000000042,-0.025988246578520724
-0.010700000000000154,-0.026115570595508578
-0.011700000000000044,-0.02620045327350048
-0.012700000000000156,-0.02629948306449103
-0.013700000000000045,-0.026398512855481584
-0.014700000000000157,-0.026483395533473487
-0.015700000000000047,-0.026539983985468085
-0.01670000000000016,-0.02665316088945729
-0.01770000000000005,-0.02673804356744919
-0.01870000000000016,-0.026837073358439746
-0.01970000000000005,-0.026936103149430297
-0.020700000000000163,-0.027006838714423546
-0.021700000000000053,-0.027105868505414105
-0.022700000000000164,-0.027219045409403307
-0.023700000000000054,-0.02730392808739521
-0.024700000000000166,-0.027374663652388463
-0.025700000000000056,-0.02743125210438306
-0.026700000000000168,-0.02750198766937631
-0.027700000000000058,-0.02762931168636417
-0.02870000000000017,-0.02772834147735472
-0.02970000000000006,-0.02782737126834527
-0.03070000000000017,-0.027926401059335824
-0.03170000000000006,-0.028011283737327728
-0.03270000000000017,-0.028124460641316927
-0.03370000000000006,-0.02820934331930883
-0.034700000000000175,-0.02829422599730073
-0.035700000000000065,-0.028393255788291286
-0.03670000000000018,-0.028449844240285887
-0.03770000000000007,-0.028591315370272388
-0.03870000000000018,-0.028690345161262943
-0.03970000000000007,-0.028775227839254847
-0.04070000000000018,-0.028874257630245398
-0.04170000000000007,-0.02894499319523865
-0.04270000000000018,-0.0290723172122265
-0.04370000000000007,-0.029171347003217055
-0.044700000000000184,-0.029256229681208955
-0.045700000000000074,-0.029341112359200863
-0.046700000000000186,-0.029440142150191414
-0.047700000000000076,-0.02953917194118197
-0.04870000000000019,-0.029652348845171168
-0.04970000000000008,-0.029751378636161722
-0.05070000000000019,-0.029850408427152274
-0.05170000000000008,-0.029935291105144177
-0.05270000000000019,-0.030034320896134725
-0.05370000000000008,-0.030133350687125283
-0.05470000000000019,-0.030218233365117184
-0.05570000000000008,-0.030317263156107735
-0.056700000000000195,-0.03040214583409964
-0.057700000000000085,-0.03051532273808884
-0.058700000000000196,-0.030600205416080745
-0.059700000000000086,-0.030699235207071292
-0.0607000000000002,-0.03079826499806185
-0.06170000000000009,-0.030897294789052406
-0.0627000000000002,-0.031010471693041605
