Potential V vs RHE, Current mA cm-2
0.05339999999999995,0.4890656963633432
0.05239999999999995,0.45610292307648787
0.051399999999999946,0.42752575481921407
0.050399999999999945,0.40559772967130603
0.049399999999999944,0.386782069383101
0.04839999999999994,0.3700884760446936
0.04739999999999994,0.35466812287616467
0.04639999999999994,0.34009659648755486
0.04539999999999994,0.32580801235891793
0.04439999999999994,0.31236825501020005
0.04339999999999994,0.30006026670137426
0.04239999999999994,0.28775227839254847
0.04139999999999994,0.2762931168636417
0.040399999999999936,0.2648339553347349
0.039399999999999935,0.25337479380582806
0.038399999999999934,0.2426229879268538
0.03739999999999993,0.23243706656782553
0.03639999999999993,0.22239261633878374
0.03539999999999993,0.21234816610974203
0.03439999999999993,0.20258665814067325
0.03339999999999993,0.193249563561564
0.03239999999999993,0.1844783535024008
0.03139999999999993,0.17542420118326454
0.030399999999999927,0.16651151999411481
0.029399999999999926,0.15802325219492458
0.028399999999999925,0.1496764555257209
0.027399999999999924,0.14161260111649018
0.026399999999999924,0.13346386402926755
0.025399999999999923,0.1254990394110274
0.024399999999999922,0.11763324458377779
0.02339999999999992,0.11017771603348907
0.02239999999999992,0.10306171819516792
0.02139999999999992,0.09557789541888188
0.020399999999999918,0.08815066109459044
0.019399999999999917,0.0809780748042747
0.018399999999999916,0.07420160767792117
0.017399999999999916,0.0676090530205501
0.016399999999999915,0.060903321459189835
0.015399999999999914,0.0540702658808417
0.014399999999999913,0.04770406503144904
0.013399999999999912,0.04135201129505502
0.012399999999999911,0.03516972291464481
0.01139999999999991,0.029058170099227856
0.01039999999999991,0.02273441058883114
0.009399999999999908,0.01670774045140608
0.008399999999999908,0.010866397494263347
0.007399999999999907,0.005163696244507384
0.006399999999999906,-0.0005538594738971619
0.005399999999999905,-0.006625093017267966
0.004399999999999904,-0.012347600225222041
0.003399999999999903,-0.01768389124831296
0.002399999999999902,-0.0230880884137974
0.0013999999999999013,-0.028435697127287232
0.00039999999999990044,-0.033967218309759524
-0.0006000000000001005,-0.03941385681423992
-0.0016000000000001013,-0.044421934815762155
-0.0026000000000001022,-0.04950074838227764
-0.003600000000000103,-0.05452297349679851
-0.004600000000000104,-0.05970081685430455
-0.005600000000000105,-0.06499183711579978
-0.006600000000000106,-0.0696886786313517
-0.007600000000000107,-0.07439966725990228
-0.008600000000000108,-0.07936530392242855
-0.009600000000000108,-0.08418946945496834
-0.01060000000000011,-0.08911266477849866
-0.01160000000000011,-0.09371047650306003
-0.012600000000000111,-0.09850634780960252
-0.013600000000000112,-0.10314660087315983
-0.014600000000000113,-0.10773026548472255
-0.015600000000000114,-0.11252613679126502
-0.016600000000000115,-0.11686930048185068
-0.017600000000000116,-0.12107099304244984
-0.018600000000000116,-0.125555627863022
-0.019600000000000117,-0.13018173381358067
-0.020600000000000118,-0.13463807440815556
-0.02160000000000012,-0.1387831785167601
-0.02260000000000012,-0.1428858412863687
-0.02360000000000012,-0.14712997518596382
-0.024600000000000122,-0.15165705134553195
-0.025600000000000123,-0.15604265637511353
-0.026600000000000124,-0.16014531914472213
-0.027600000000000124,-0.16396503965435774
-0.028600000000000125,-0.16806770242396638
-0.029600000000000126,-0.17231183632356148
-0.030600000000000127,-0.17641449909317006
-0.03160000000000013,-0.18037569073279217
-0.03260000000000013,-0.1843368823724143
-0.03360000000000013,-0.18815660288204988
-0.03460000000000002,-0.19254220791163149
-0.03560000000000002,-0.19678634181122662
-0.03660000000000002,-0.20046459119087567
-0.03760000000000002,-0.20428431170051128
-0.03860000000000002,-0.2081040322101469
-0.039600000000000024,-0.21234816610974203
-0.040600000000000025,-0.2164508288793506
-0.041600000000000026,-0.22012907825899972
-0.04260000000000003,-0.2239487987686353
-0.04360000000000003,-0.22805146153824393
-0.04460000000000003,-0.23201265317786599
-0.04560000000000003,-0.2359738448174881
-0.04660000000000003,-0.2396520941971372
-0.04760000000000003,-0.24318887244679982
-0.04860000000000003,-0.2471500640864219
-0.04960000000000003,-0.251111255726044
-0.050600000000000034,-0.25507244736566614
-0.051600000000000035,-0.2587506967453152
-0.052600000000000036,-0.2624289461249643
-0.053600000000000037,-0.2663901377645864
-0.05460000000000004,-0.270209858274222
-0.05560000000000004,-0.2741710499138441
-0.05660000000000004,-0.2779907704234797
-0.05760000000000004,-0.2813860775431558
-0.05860000000000004,-0.2852057980527914
-0.05960000000000004,-0.28930846082239997
-0.06060000000000004,-0.2929867102020491
-0.061600000000000044,-0.2969479018416712
-0.06260000000000004,-0.30034320896134725
-0.06360000000000005,-0.3041629294709829
-0.06460000000000005,-0.30826559224059147
-0.06560000000000005,-0.3122267838802136
-0.06660000000000005,-0.3159050332598627
-0.06760000000000005,-0.3194418115095253
-0.06860000000000005,-0.32326153201916086
-0.06960000000000005,-0.32750566591875596
-0.07060000000000005,-0.33146685755837807
-0.07160000000000005,-0.3351451069380272
-0.07260000000000005,-0.3389648274476628
-0.07360000000000005,-0.3427845479572984
-0.07460000000000006,-0.346887210726907
-0.07560000000000006,-0.3509898734965156
-0.07660000000000006,-0.35466812287616467
-0.07760000000000006,-0.3586293145157868
-0.07860000000000006,-0.3625905061554089
-0.07960000000000006,-0.3666931689250175
-0.08060000000000006,-0.3709373028246126
-0.08160000000000006,-0.3747570233342482
-0.08260000000000006,-0.37857674384388385
-0.08360000000000006,-0.3826794066134924
-0.08460000000000006,-0.3869235405130875
-0.08560000000000006,-0.3913091455426691
-0.08660000000000007,-0.3951288660523047
-0.08760000000000007,-0.3989485865619403
-0.08860000000000007,-0.40333419159152195
-0.08960000000000007,-0.4077197966211036
-0.09060000000000007,-0.4121054016506852
-0.09160000000000007,-0.4163495355502803
-0.09260000000000007,-0.42031072718990237
-0.09360000000000007,-0.42469633221948405
-0.09460000000000007,-0.42922340837905215
-0.09560000000000007,-0.43375048453862025
-0.09660000000000007,-0.43813608956820194
-0.09760000000000008,-0.44238022346779693
-0.09860000000000008,-0.4470487707573516
-0.09960000000000008,-0.45185878917689276
-0.10060000000000008,-0.45666880759643386
-0.10160000000000008,-0.46119588375600196
-0.10260000000000008,-0.4655814887855836
-0.10360000000000008,-0.4703915072051247
-0.10460000000000008,-0.47548446788463883
-0.10560000000000008,-0.48015301517419345
-0.10660000000000008,-0.4851045047237211
-0.10760000000000008,-0.48977305201327564
-0.10860000000000009,-0.49472454156280327
-0.10960000000000009,-0.5001004445022904
-0.11060000000000009,-0.5051934051818046
-0.11160000000000009,-0.5102863658613187
-0.11260000000000009,-0.5150963842808599
-0.11360000000000009,-0.520472287220347
-0.11460000000000009,-0.5262726035497938
-0.11560000000000009,-0.5319314487492538
-0.11660000000000009,-0.5370244094287681
-0.1176000000000001,-0.5422588412382686
-0.1186000000000001,-0.5476347441777557
-0.1196000000000001,-0.553293589377216
-0.1206000000000001,-0.5590939057066625
-0.1216000000000001,-0.5646112797761362
-0.1226000000000001,-0.5702701249755963
-0.1236000000000001,-0.5759289701750565
-0.1246000000000001,-0.5818707576344896
-0.1256000000000001,-0.5878125450939228
-0.1266000000000001,-0.5936128614233693
-0.1276000000000001,-0.5994131777528161
-0.1286000000000001,-0.6054964363422356
-0.1296000000000001,-0.6117211660616418
-0.1306000000000001,-0.6179458957810481
-0.1316000000000001,-0.6237462121104946
-0.1326000000000001,-0.6296879995699278
-0.1336000000000001,-0.635912729289334
-0.1346000000000001,-0.6424204012687131
-0.1356000000000001,-0.6489280732480923
-0.1366000000000001,-0.6552942740974849
-0.1376000000000001,-0.6612360615569182
-0.1386000000000001,-0.6678852046662839
-0.1396000000000001,-0.6748172900356225
-0.1406000000000001,-0.6816079042749748
-0.14160000000000011,-0.6881155762543539
-0.14260000000000012,-0.6944817771037465
-0.14360000000000012,-0.7012723913430987
-0.14460000000000012,-0.7080630055824508
-0.14560000000000012,-0.7149950909517896
-0.14660000000000012,-0.7217857051911418
-0.14760000000000012,-0.7284348483005074
-0.14860000000000012,-0.7353669336698461
-0.14960000000000012,-0.7427234324291443
-0.15060000000000012,-0.7496555177984829
-0.15160000000000012,-0.7567290742978081
-0.15260000000000012,-0.7638026307971333
-0.15360000000000013,-0.7707347161664719
-0.15460000000000013,-0.7783741571857431
-0.15560000000000013,-0.7857306559450413
-0.15660000000000013,-0.792945683574353
-0.15760000000000013,-0.8001607112036647
-0.15860000000000013,-0.8076586810929495
-0.15960000000000002,-0.8152981221122206
-0.16060000000000002,-0.8230790342614784
-0.16160000000000002,-0.8304355330207766
-0.16260000000000002,-0.8380749740400478
-0.16360000000000002,-0.8455729439293325
-0.16460000000000002,-0.8534953272085767
-0.16560000000000002,-0.8619835950077669
-0.16660000000000003,-0.8708962761969166
-0.16760000000000003,-0.8781113038262282
-0.16860000000000003,-0.8860336871054725
-0.16960000000000003,-0.8940975415147032
-0.17060000000000003,-0.9023028670539204
-0.17160000000000003,-0.9103667214631512
-0.17260000000000003,-0.9182891047423953
-0.17360000000000003,-0.9264944302816125
-0.17460000000000003,-0.9351241692107891
-0.17560000000000003,-0.9436124370099793
-0.17660000000000003,-0.9516762914192101
-0.17760000000000004,-0.9597401458284408
-0.17860000000000004,-0.9685113558876042
-0.17960000000000004,-0.977424037076754
-0.18060000000000004,-0.9860537760059305
-0.18160000000000004,-0.9945420438051207
-0.18260000000000004,-1.0030303116043109
-0.18360000000000004,-1.012084463923447
-0.18460000000000004,-1.02128008737257
-0.18560000000000004,-1.0301927685617198
-0.18660000000000004,-1.0391054497508694
-0.18760000000000004,-1.0478766598100326
-0.18860000000000005,-1.0569308121291687
-0.18960000000000005,-1.0664093778382648
-0.19060000000000005,-1.075746472417374
-0.19160000000000005,-1.0848006247365103
-0.19260000000000005,-1.093996248185633
-0.19360000000000005,-1.103333342764742
-0.19460000000000005,-1.113094850733811
-0.19560000000000005,-1.1227148875728932
-0.19660000000000005,-1.1320519821520023
-0.19760000000000005,-1.141530547861098
-0.19860000000000005,-1.1511505847001804
-0.19960000000000006,-1.1611950349292222
-0.20060000000000006,-1.1710980140282774
-0.20160000000000006,-1.180576579737373
-0.20260000000000006,-1.190338087706442
-0.20360000000000006,-1.200241066805497
-0.20460000000000006,-1.2105684592945118
-0.20560000000000006,-1.2208958517835267
-0.20660000000000006,-1.230798830882582
-0.20760000000000006,-1.2405603388516506
-0.20860000000000006,-1.2510292024706522
-0.20960000000000006,-1.2614980660896533
-0.21060000000000006,-1.272108400838641
-0.21160000000000007,-1.2822943221976693
-0.21260000000000007,-1.2921973012967245
-0.21360000000000007,-1.3028076360457121
-0.21460000000000007,-1.3135594419246865
-0.21560000000000007,-1.3241697766736744
-0.21660000000000007,-1.3349215825526486
-0.21760000000000007,-1.3458148595616095
-0.21860000000000007,-1.3568496077005565
-0.21960000000000007,-1.3677428847095177
-0.22060000000000007,-1.3784946905884918
-0.22160000000000007,-1.389246496467466
-0.22260000000000008,-1.3999983023464404
-0.22360000000000008,-1.4110330504853876
-0.22460000000000008,-1.421784856364362
-0.22560000000000008,-1.433102546763282
-0.22660000000000008,-1.4444202371622026
-0.22760000000000008,-1.4557379275611226
-0.22860000000000008,-1.4670556179600431
-0.22960000000000008,-1.4783733083589634
-0.23060000000000008,-1.4896909987578837
-0.23160000000000008,-1.501008689156804
-0.23260000000000008,-1.512326379555724
-0.23360000000000009,-1.5236440699546445
-0.2346000000000001,-1.5363764716534298
-0.2356000000000001,-1.54769416205235
-0.2366000000000001,-1.5590118524512704
-0.2376000000000001,-1.5703295428501907
-0.2386000000000001,-1.583061944548976
-0.2396000000000001,-1.5943796349478963
-0.2406000000000001,-1.6071120366466816
-0.2416000000000001,-1.6184297270456018
-0.2426000000000001,-1.6297474174445223
-0.2436000000000001,-1.6424798191433077
-0.2446000000000001,-1.655212220842093
-0.2456000000000001,-1.6665299112410132
-0.2466000000000001,-1.6792623129397986
-0.2476000000000001,-1.690580003338719
-0.2486000000000001,-1.7033124050375041
-0.2496000000000001,-1.7160448067362895
-0.2506000000000001,-1.7287772084350748
-0.2516000000000001,-1.7415096101338603
-0.2526000000000001,-1.7528273005327806
-0.2536000000000001,-1.7655597022315657
-0.2546000000000001,-1.778292103930351
-0.2556000000000001,-1.7910245056291363
-0.2566000000000001,-1.8037569073279218
-0.2576000000000001,-1.8164893090267071
-0.2586000000000001,-1.8292217107254924
-0.2596000000000001,-1.8433688237241426
-0.2606000000000001,-1.8561012254229279
-0.2616000000000001,-1.8688336271217136
-0.2626000000000001,-1.8815660288204987
-0.2636000000000001,-1.894298430519284
-0.2646000000000001,-1.9084455435179344
-0.2656000000000001,-1.92117794521672
-0.2666000000000001,-1.93532505821537
-0.2676000000000001,-1.9480574599141556
-0.2686000000000001,-1.9607898616129409
-0.2696000000000001,-1.9749369746115912
-0.2706000000000001,-1.9890840876102414
-0.2716000000000001,-2.001816489309027
-0.2726000000000001,-2.0159636023076772
-0.2736000000000001,-2.0301107153063276
-0.2746000000000001,-2.044257828304978
-0.2756000000000001,-2.0569902300037635
-0.2766000000000001,-2.071137343002414
-0.2776000000000001,-2.085284456001064
-0.2786000000000001,-2.0994315689997145
-0.2796000000000001,-2.113578681998365
-0.2806000000000001,-2.127725794997015
-0.28160000000000013,-2.1418729079956655
-0.28260000000000013,-2.156020020994316
-0.28360000000000013,-2.1701671339929662
-0.2846,-2.184314246991617
-0.2856,-2.1984613599902674
-0.2866,-2.2126084729889177
-0.2876,-2.228170297287433
-0.2886,-2.2423174102860832
-0.2896,-2.257879234584599
-0.2906,-2.272026347583249
-0.2916,-2.286173460581899
-0.2926,-2.3003205735805494
-0.2936,-2.3158823978790646
-0.29460000000000003,-2.330029510877715
-0.29560000000000003,-2.3455913351762305
-0.29660000000000003,-2.361153159474746
-0.29760000000000003,-2.3753002724733965
-0.29860000000000003,-2.3908620967719116
-0.29960000000000003,-2.4050092097705624
-0.30060000000000003,-2.420571034069078
-0.30160000000000003,-2.4347181470677284
-0.30260000000000004,-2.4502799713662435
-0.30360000000000004,-2.465841795664759
-0.30460000000000004,-2.4814036199632743
-0.30560000000000004,-2.4955507329619246
-0.30660000000000004,-2.5111125572604402
-0.30760000000000004,-2.5266743815589554
-0.30860000000000004,-2.5408214945576058
-0.30960000000000004,-2.5563833188561214
-0.31060000000000004,-2.5719451431546365
-0.31160000000000004,-2.587506967453152
-0.31260000000000004,-2.6016540804518025
-0.31360000000000005,-2.6172159047503176
-0.31460000000000005,-2.6327777290488332
-0.31560000000000005,-2.6469248420474836
-0.31660000000000005,-2.662486666345999
-0.31760000000000005,-2.6766337793446495
-0.31860000000000005,-2.6921956036431647
-0.31960000000000005,-2.7077574279416803
-0.32060000000000005,-2.7233192522401954
-0.32160000000000005,-2.737466365238846
-0.32260000000000005,-2.7516134782374966
-0.32360000000000005,-2.767175302536012
-0.32460000000000006,-2.7813224155346625
-0.32560000000000006,-2.7968842398331777
-0.32660000000000006,-2.811031352831828
-0.32760000000000006,-2.8251784658304784
-0.32860000000000006,-2.8393255788291283
-0.32960000000000006,-2.854887403127644
-0.33060000000000006,-2.8690345161262942
-0.33160000000000006,-2.8831816291249446
-0.33260000000000006,-2.8959140308237297
-0.33360000000000006,-2.9100611438223805
-0.33460000000000006,-2.924208256821031
-0.33560000000000006,-2.938355369819681
-0.33660000000000007,-2.9525024828183315
-0.33760000000000007,-2.965234884517117
-0.33860000000000007,-2.9793819975157674
-0.33960000000000007,-2.9935291105144173
-0.34060000000000007,-3.006261512213203
-0.34160000000000007,-3.0204086252118536
-0.34260000000000007,-3.0331410269106387
-0.34360000000000007,-3.0458734286094242
-0.3446000000000001,-3.0600205416080746
-0.3456000000000001,-3.0727529433068597
-0.3466000000000001,-3.0854853450056448
-0.34759999999999996,-3.0982177467044303
-0.3486000000000001,-3.110950148403216
-0.34959999999999997,-3.123682550102001
-0.3506000000000001,-3.1364149518007864
-0.35159999999999997,-3.1491473534995715
-0.3526000000000001,-3.160465043898492
-0.35359999999999997,-3.1731974455972773
-0.3546000000000001,-3.1859298472960624
-0.35559999999999997,-3.198662248994848
-0.3566000000000001,-3.2099799393937682
-0.3576,-3.2227123410925533
-0.3586000000000001,-3.2340300314914736
-0.3596,-3.246762433190259
-0.3606000000000001,-3.2580801235891794
-0.3616,-3.270812525287965
-0.3626000000000001,-3.2821302156868852
-0.3636,-3.2934479060858055
-0.3646000000000001,-3.3061803077845906
-0.3656,-3.317497998183511
-0.3666000000000001,-3.328815688582431
-0.3676,-3.3401333789813514
-0.3686000000000001,-3.351451069380272
-0.3696,-3.3641834710790572
-0.3706000000000001,-3.3769158727778423
-0.3716,-3.3882335631767626
-0.3726000000000001,-3.3995512535756833
-0.3736,-3.4108689439746036
-0.3746000000000001,-3.4221866343735234
-0.3756,-3.434919036072309
-0.3766000000000001,-3.4462367264712297
-0.3776,-3.4575544168701495
-0.3786000000000001,-3.46887210726907
-0.3796,-3.4801897976679905
-0.3806000000000001,-3.492922199366775
-0.3816,-3.504239889765696
-0.3826000000000001,-3.515557580164616
-0.3836,-3.5268752705635364
-0.3846000000000001,-3.539607672262322
-0.3856,-3.552340073961107
-0.3866000000000001,-3.5636577643600273
-0.3876,-3.5749754547589476
-0.3886000000000001,-3.5877078564577327
-0.3896,-3.6004402581565187
-0.3906000000000001,-3.6131726598553033
-0.3916,-3.6244903502542236
-0.3926000000000001,-3.6372227519530096
-0.3936,-3.6499551536517942
-0.3946000000000001,-3.66268755535058
-0.3956,-3.67683466834923
-0.3966000000000001,-3.688152358748151
-0.3976,-3.702299471746801
-0.3986000000000001,-3.715031873445586
-0.3996,-3.7291789864442366
-0.4006000000000001,-3.7433260994428865
-0.4016,-3.7560585011416725
-0.4026000000000001,-3.7702056141403233
-0.4036,-3.784352727138973
-0.4046000000000001,-3.798499840137624
-0.4056,-3.812646953136274
-0.40660000000000013,-3.8267940661349247
-0.4076,-3.84235589043344
-0.40860000000000013,-3.8565030034320897
-0.4096,-3.8720648277306053
-0.41060000000000013,-3.887626652029121
-0.4116,-3.903188476327636
-0.41260000000000013,-3.918750300626152
-0.4136,-3.935726836224532
-0.41460000000000014,-3.9512886605230477
-0.4156,-3.9682651961214277
-0.41660000000000014,-3.9838270204199433
-0.4176,-4.000803556018323
-0.41860000000000014,-4.017780091616704
-0.41960000000000003,-4.03617133851495
-0.42060000000000014,-4.05314787411333
-0.42160000000000003,-4.0715391210115754
-0.42260000000000014,-4.089930367909821
-0.42360000000000003,-4.106906903508202
-0.42460000000000014,-4.126712861706312
-0.42560000000000003,-4.145104108604558
-0.42660000000000015,-4.163495355502803
-0.42760000000000004,-4.181886602401049
-0.42860000000000015,-4.201692560599159
-0.42960000000000004,-4.22149851879727
-0.43060000000000015,-4.2413044769953805
-0.43160000000000004,-4.2611104351934905
-0.43260000000000015,-4.280916393391601
-0.43360000000000004,-4.302137062889576
-0.43460000000000015,-4.323357732387552
-0.43560000000000004,-4.344578401885528
-0.43660000000000015,-4.3657990713835035
-0.43760000000000004,-4.387019740881478
-0.43860000000000016,-4.408240410379454
-0.43960000000000005,-4.430875791177296
-0.44060000000000016,-4.453511171975136
-0.44160000000000005,-4.476146552772976
-0.44260000000000016,-4.498781933570816
-0.44360000000000005,-4.522832025668523
-0.44460000000000016,-4.545467406466363
-0.44560000000000005,-4.569517498564068
-0.44660000000000016,-4.593567590661774
-0.44760000000000005,-4.61761768275948
-0.44860000000000017,-4.64308248615705
