Aug. 21, 2024   16:05:31
Cyclic Voltammetry
File: c:/users/guazh/data/20240813_batch_94_500/2024-08-15-exp151\exp151-2024-08-21t15_50_41-arkoh\exp151_cv_sr_300mvs_efin_-1700mv.bin
Data Source:  Experiment
Instrument Model:  CHI760E
Header: CV ran at 300 mVs
Note: 

Init E (V) = -1
High E (V) = -1
Low E (V) = -1.7
Final E (V) = -1
Init P/N = N
Scan Rate (V/s) = 0.3
Segment = 3
Sample Interval (V) = 0.001
Quiet Time (sec) = 2
Sensitivity (A/V) = 0.01
Comp R (ohm) = 1.6

Results:

Channel 1:
Segment 1:

Segment 2:

Segment 3:

Potential/V, Current/A

-1.000, 9.405e-6
-1.001, 1.249e-5
-1.002, 1.249e-5
-1.003, 1.249e-5
-1.004, 1.249e-5
-1.005, 1.557e-5
-1.006, 1.249e-5
-1.007, 1.249e-5
-1.008, 1.557e-5
-1.009, 1.557e-5
-1.010, 1.557e-5
-1.011, 1.557e-5
-1.012, 1.557e-5
-1.013, 1.557e-5
-1.014, 1.557e-5
-1.015, 1.557e-5
-1.016, 1.557e-5
-1.017, 1.557e-5
-1.018, 1.557e-5
-1.019, 1.557e-5
-1.020, 1.557e-5
-1.021, 1.557e-5
-1.022, 1.557e-5
-1.023, 1.557e-5
-1.024, 1.557e-5
-1.025, 1.865e-5
-1.026, 1.557e-5
-1.027, 1.557e-5
-1.028, 1.557e-5
-1.029, 1.557e-5
-1.030, 1.557e-5
-1.031, 1.557e-5
-1.032, 1.557e-5
-1.033, 1.865e-5
-1.034, 1.557e-5
-1.035, 1.865e-5
-1.036, 1.865e-5
-1.037, 1.865e-5
-1.038, 1.865e-5
-1.039, 1.865e-5
-1.040, 1.865e-5
-1.041, 1.557e-5
-1.042, 1.557e-5
-1.043, 1.865e-5
-1.044, 1.557e-5
-1.045, 1.865e-5
-1.046, 1.865e-5
-1.047, 1.865e-5
-1.048, 1.865e-5
-1.049, 1.557e-5
-1.050, 1.865e-5
-1.051, 1.865e-5
-1.052, 1.865e-5
-1.053, 1.865e-5
-1.054, 1.865e-5
-1.055, 1.865e-5
-1.056, 1.865e-5
-1.057, 1.865e-5
-1.058, 1.865e-5
-1.059, 1.865e-5
-1.060, 1.865e-5
-1.061, 1.865e-5
-1.062, 1.865e-5
-1.063, 1.865e-5
-1.064, 1.865e-5
-1.065, 1.865e-5
-1.066, 1.865e-5
-1.067, 1.865e-5
-1.068, 1.865e-5
-1.069, 1.865e-5
-1.070, 1.865e-5
-1.071, 1.865e-5
-1.072, 1.865e-5
-1.073, 1.865e-5
-1.074, 1.865e-5
-1.075, 1.865e-5
-1.076, 1.865e-5
-1.077, 1.865e-5
-1.078, 1.865e-5
-1.079, 1.865e-5
-1.080, 1.865e-5
-1.081, 1.865e-5
-1.082, 1.865e-5
-1.083, 1.865e-5
-1.084, 1.865e-5
-1.085, 1.865e-5
-1.086, 1.865e-5
-1.087, 1.865e-5
-1.088, 1.865e-5
-1.089, 1.865e-5
-1.090, 2.174e-5
-1.091, 1.865e-5
-1.092, 1.865e-5
-1.093, 1.865e-5
-1.094, 1.865e-5
-1.095, 2.174e-5
-1.096, 2.174e-5
-1.097, 1.865e-5
-1.098, 2.174e-5
-1.099, 2.174e-5
-1.100, 2.174e-5
-1.101, 1.865e-5
-1.102, 1.865e-5
-1.103, 2.174e-5
-1.104, 1.865e-5
-1.105, 2.174e-5
-1.106, 2.174e-5
-1.107, 2.174e-5
-1.108, 2.174e-5
-1.109, 1.865e-5
-1.110, 2.174e-5
-1.111, 1.865e-5
-1.112, 2.174e-5
-1.113, 2.174e-5
-1.114, 1.865e-5
-1.115, 2.174e-5
-1.116, 2.174e-5
-1.117, 2.174e-5
-1.118, 2.174e-5
-1.119, 1.865e-5
-1.120, 2.174e-5
-1.121, 2.174e-5
-1.122, 2.174e-5
-1.123, 2.174e-5
-1.124, 2.174e-5
-1.125, 2.174e-5
-1.126, 2.174e-5
-1.127, 2.174e-5
-1.128, 2.174e-5
-1.129, 2.174e-5
-1.130, 2.174e-5
-1.131, 2.174e-5
-1.132, 2.174e-5
-1.133, 2.174e-5
-1.134, 2.174e-5
-1.135, 2.174e-5
-1.136, 2.174e-5
-1.137, 2.174e-5
-1.138, 2.174e-5
-1.139, 2.174e-5
-1.140, 2.174e-5
-1.141, 2.174e-5
-1.142, 2.174e-5
-1.143, 2.174e-5
-1.144, 1.865e-5
-1.145, 2.174e-5
-1.146, 2.174e-5
-1.147, 2.174e-5
-1.148, 1.865e-5
-1.149, 2.174e-5
-1.150, 2.174e-5
-1.151, 2.174e-5
-1.152, 2.174e-5
-1.153, 2.174e-5
-1.154, 2.174e-5
-1.155, 2.174e-5
-1.156, 1.865e-5
-1.157, 2.174e-5
-1.158, 2.174e-5
-1.159, 2.174e-5
-1.160, 2.174e-5
-1.161, 2.174e-5
-1.162, 2.174e-5
-1.163, 2.174e-5
-1.164, 2.174e-5
-1.165, 2.174e-5
-1.166, 2.174e-5
-1.167, 2.174e-5
-1.168, 1.865e-5
-1.169, 2.174e-5
-1.170, 2.174e-5
-1.171, 2.174e-5
-1.172, 2.174e-5
-1.173, 2.174e-5
-1.174, 2.174e-5
-1.175, 2.174e-5
-1.176, 2.174e-5
-1.177, 2.174e-5
-1.178, 2.174e-5
-1.179, 2.174e-5
-1.180, 2.174e-5
-1.181, 2.174e-5
-1.182, 2.174e-5
-1.183, 2.174e-5
-1.184, 2.174e-5
-1.185, 2.174e-5
-1.186, 1.865e-5
-1.187, 2.174e-5
-1.188, 2.174e-5
-1.189, 2.174e-5
-1.190, 1.865e-5
-1.191, 1.865e-5
-1.192, 2.174e-5
-1.193, 2.174e-5
-1.194, 2.174e-5
-1.195, 2.174e-5
-1.196, 1.865e-5
-1.197, 2.174e-5
-1.198, 2.174e-5
-1.199, 2.174e-5
-1.200, 2.174e-5
-1.201, 2.174e-5
-1.202, 2.174e-5
-1.203, 2.174e-5
-1.204, 2.174e-5
-1.205, 2.174e-5
-1.206, 2.174e-5
-1.207, 1.865e-5
-1.208, 2.174e-5
-1.209, 2.174e-5
-1.210, 2.174e-5
-1.211, 2.174e-5
-1.212, 2.174e-5
-1.213, 2.174e-5
-1.214, 2.174e-5
-1.215, 2.174e-5
-1.216, 2.174e-5
-1.217, 1.865e-5
-1.218, 2.174e-5
-1.219, 2.174e-5
-1.220, 2.174e-5
-1.221, 2.174e-5
-1.222, 2.174e-5
-1.223, 2.174e-5
-1.224, 2.174e-5
-1.225, 2.174e-5
-1.226, 1.865e-5
-1.227, 1.865e-5
-1.228, 1.865e-5
-1.229, 2.174e-5
-1.230, 2.174e-5
-1.231, 2.174e-5
-1.232, 2.174e-5
-1.233, 2.174e-5
-1.234, 2.174e-5
-1.235, 2.174e-5
-1.236, 1.865e-5
-1.237, 2.174e-5
-1.238, 2.174e-5
-1.239, 2.174e-5
-1.240, 2.174e-5
-1.241, 2.174e-5
-1.242, 2.174e-5
-1.243, 2.174e-5
-1.244, 2.174e-5
-1.245, 2.174e-5
-1.246, 2.174e-5
-1.247, 2.174e-5
-1.248, 2.174e-5
-1.249, 2.174e-5
-1.250, 2.174e-5
-1.251, 2.174e-5
-1.252, 2.174e-5
-1.253, 2.174e-5
-1.254, 2.174e-5
-1.255, 2.174e-5
-1.256, 2.174e-5
-1.257, 2.174e-5
-1.258, 2.174e-5
-1.259, 2.174e-5
-1.260, 2.174e-5
-1.261, 2.174e-5
-1.262, 2.174e-5
-1.263, 2.174e-5
-1.264, 2.174e-5
-1.265, 2.482e-5
-1.266, 2.174e-5
-1.267, 2.174e-5
-1.268, 2.174e-5
-1.269, 2.174e-5
-1.270, 2.174e-5
-1.271, 2.174e-5
-1.272, 2.174e-5
-1.273, 2.174e-5
-1.274, 2.174e-5
-1.275, 2.482e-5
-1.276, 2.174e-5
-1.277, 2.174e-5
-1.278, 2.174e-5
-1.279, 2.174e-5
-1.280, 2.174e-5
-1.281, 2.174e-5
-1.282, 2.174e-5
-1.283, 2.174e-5
-1.284, 2.174e-5
-1.285, 2.482e-5
-1.286, 2.174e-5
-1.287, 2.174e-5
-1.288, 2.482e-5
-1.289, 2.482e-5
-1.290, 2.482e-5
-1.291, 2.482e-5
-1.292, 2.482e-5
-1.293, 2.482e-5
-1.294, 2.482e-5
-1.295, 2.482e-5
-1.296, 2.482e-5
-1.297, 2.482e-5
-1.298, 2.482e-5
-1.299, 2.482e-5
-1.300, 2.482e-5
-1.301, 2.482e-5
-1.302, 2.482e-5
-1.303, 2.482e-5
-1.304, 2.482e-5
-1.305, 2.482e-5
-1.306, 2.482e-5
-1.307, 2.482e-5
-1.308, 2.482e-5
-1.309, 2.482e-5
-1.310, 2.790e-5
-1.311, 2.482e-5
-1.312, 2.482e-5
-1.313, 2.790e-5
-1.314, 2.482e-5
-1.315, 2.790e-5
-1.316, 2.482e-5
-1.317, 2.790e-5
-1.318, 2.790e-5
-1.319, 2.790e-5
-1.320, 2.790e-5
-1.321, 2.482e-5
-1.322, 2.790e-5
-1.323, 2.790e-5
-1.324, 2.790e-5
-1.325, 2.790e-5
-1.326, 2.790e-5
-1.327, 2.790e-5
-1.328, 2.790e-5
-1.329, 3.099e-5
-1.330, 3.099e-5
-1.331, 3.099e-5
-1.332, 3.099e-5
-1.333, 3.099e-5
-1.334, 3.099e-5
-1.335, 3.099e-5
-1.336, 3.099e-5
-1.337, 3.099e-5
-1.338, 3.099e-5
-1.339, 3.099e-5
-1.340, 3.099e-5
-1.341, 3.099e-5
-1.342, 3.099e-5
-1.343, 3.407e-5
-1.344, 3.407e-5
-1.345, 3.407e-5
-1.346, 3.407e-5
-1.347, 3.407e-5
-1.348, 3.407e-5
-1.349, 3.407e-5
-1.350, 3.407e-5
-1.351, 3.407e-5
-1.352, 3.407e-5
-1.353, 3.715e-5
-1.354, 3.715e-5
-1.355, 3.715e-5
-1.356, 3.715e-5
-1.357, 3.715e-5
-1.358, 3.715e-5
-1.359, 3.715e-5
-1.360, 4.024e-5
-1.361, 3.715e-5
-1.362, 3.715e-5
-1.363, 4.024e-5
-1.364, 4.024e-5
-1.365, 4.024e-5
-1.366, 4.024e-5
-1.367, 4.024e-5
-1.368, 4.332e-5
-1.369, 4.332e-5
-1.370, 4.332e-5
-1.371, 4.332e-5
-1.372, 4.332e-5
-1.373, 4.332e-5
-1.374, 4.640e-5
-1.375, 4.640e-5
-1.376, 4.640e-5
-1.377, 4.640e-5
-1.378, 4.640e-5
-1.379, 4.640e-5
-1.380, 4.949e-5
-1.381, 4.949e-5
-1.382, 4.949e-5
-1.383, 4.949e-5
-1.384, 5.257e-5
-1.385, 5.257e-5
-1.386, 5.257e-5
-1.387, 5.257e-5
-1.388, 5.257e-5
-1.389, 5.565e-5
-1.390, 5.565e-5
-1.391, 5.565e-5
-1.392, 5.565e-5
-1.393, 5.565e-5
-1.394, 5.873e-5
-1.395, 5.873e-5
-1.396, 5.873e-5
-1.397, 5.873e-5
-1.398, 6.182e-5
-1.399, 6.182e-5
-1.400, 6.182e-5
-1.401, 6.182e-5
-1.402, 6.490e-5
-1.403, 6.490e-5
-1.404, 6.490e-5
-1.405, 6.798e-5
-1.406, 6.798e-5
-1.407, 6.798e-5
-1.408, 6.798e-5
-1.409, 7.107e-5
-1.410, 7.107e-5
-1.411, 7.107e-5
-1.412, 7.415e-5
-1.413, 7.415e-5
-1.414, 7.723e-5
-1.415, 7.723e-5
-1.416, 7.723e-5
-1.417, 7.723e-5
-1.418, 8.032e-5
-1.419, 8.032e-5
-1.420, 8.340e-5
-1.421, 8.340e-5
-1.422, 8.340e-5
-1.423, 8.648e-5
-1.424, 8.957e-5
-1.425, 8.957e-5
-1.426, 8.957e-5
-1.427, 9.265e-5
-1.428, 9.265e-5
-1.429, 9.573e-5
-1.430, 9.573e-5
-1.431, 9.882e-5
-1.432, 9.882e-5
-1.433, 1.019e-4
-1.434, 1.050e-4
-1.435, 1.050e-4
-1.436, 1.081e-4
-1.437, 1.081e-4
-1.438, 1.111e-4
-1.439, 1.142e-4
-1.440, 1.142e-4
-1.441, 1.173e-4
-1.442, 1.173e-4
-1.443, 1.204e-4
-1.444, 1.235e-4
-1.445, 1.266e-4
-1.446, 1.296e-4
-1.447, 1.327e-4
-1.448, 1.327e-4
-1.449, 1.389e-4
-1.450, 1.389e-4
-1.451, 1.420e-4
-1.452, 1.451e-4
-1.453, 1.481e-4
-1.454, 1.512e-4
-1.455, 1.543e-4
-1.456, 1.574e-4
-1.457, 1.605e-4
-1.458, 1.636e-4
-1.459, 1.697e-4
-1.460, 1.728e-4
-1.461, 1.759e-4
-1.462, 1.790e-4
-1.463, 1.851e-4
-1.464, 1.882e-4
-1.465, 1.913e-4
-1.466, 1.975e-4
-1.467, 2.006e-4
-1.468, 2.036e-4
-1.469, 2.098e-4
-1.470, 2.129e-4
-1.471, 2.160e-4
-1.472, 2.221e-4
-1.473, 2.283e-4
-1.474, 2.345e-4
-1.475, 2.406e-4
-1.476, 2.437e-4
-1.477, 2.499e-4
-1.478, 2.561e-4
-1.479, 2.622e-4
-1.480, 2.684e-4
-1.481, 2.746e-4
-1.482, 2.807e-4
-1.483, 2.869e-4
-1.484, 2.931e-4
-1.485, 3.023e-4
-1.486, 3.085e-4
-1.487, 3.146e-4
-1.488, 3.208e-4
-1.489, 3.300e-4
-1.490, 3.362e-4
-1.491, 3.455e-4
-1.492, 3.547e-4
-1.493, 3.609e-4
-1.494, 3.701e-4
-1.495, 3.794e-4
-1.496, 3.886e-4
-1.497, 3.948e-4
-1.498, 4.071e-4
-1.499, 4.164e-4
-1.500, 4.256e-4
-1.501, 4.349e-4
-1.502, 4.441e-4
-1.503, 4.534e-4
-1.504, 4.657e-4
-1.505, 4.750e-4
-1.506, 4.873e-4
-1.507, 4.965e-4
-1.508, 5.089e-4
-1.509, 5.212e-4
-1.510, 5.335e-4
-1.511, 5.459e-4
-1.512, 5.582e-4
-1.513, 5.705e-4
-1.514, 5.829e-4
-1.515, 5.952e-4
-1.516, 6.075e-4
-1.517, 6.229e-4
-1.518, 6.353e-4
-1.519, 6.507e-4
-1.520, 6.630e-4
-1.521, 6.784e-4
-1.522, 6.939e-4
-1.523, 7.093e-4
-1.524, 7.247e-4
-1.525, 7.401e-4
-1.526, 7.555e-4
-1.527, 7.709e-4
-1.528, 7.894e-4
-1.529, 8.048e-4
-1.530, 8.233e-4
-1.531, 8.418e-4
-1.532, 8.573e-4
-1.533, 8.758e-4
-1.534, 8.943e-4
-1.535, 9.128e-4
-1.536, 9.343e-4
-1.537, 9.528e-4
-1.538, 9.713e-4
-1.539, 9.898e-4
-1.540, 1.011e-3
-1.541, 1.030e-3
-1.542, 1.051e-3
-1.543, 1.073e-3
-1.544, 1.092e-3
-1.545, 1.116e-3
-1.546, 1.135e-3
-1.547, 1.156e-3
-1.548, 1.181e-3
-1.549, 1.203e-3
-1.550, 1.224e-3
-1.551, 1.246e-3
-1.552, 1.270e-3
-1.553, 1.295e-3
-1.554, 1.320e-3
-1.555, 1.344e-3
-1.556, 1.366e-3
-1.557, 1.394e-3
-1.558, 1.415e-3
-1.559, 1.440e-3
-1.560, 1.468e-3
-1.561, 1.495e-3
-1.562, 1.520e-3
-1.563, 1.545e-3
-1.564, 1.573e-3
-1.565, 1.600e-3
-1.566, 1.628e-3
-1.567, 1.653e-3
-1.568, 1.680e-3
-1.569, 1.711e-3
-1.570, 1.739e-3
-1.571, 1.767e-3
-1.572, 1.795e-3
-1.573, 1.822e-3
-1.574, 1.853e-3
-1.575, 1.881e-3
-1.576, 1.912e-3
-1.577, 1.943e-3
-1.578, 1.976e-3
-1.579, 2.007e-3
-1.580, 2.038e-3
-1.581, 2.066e-3
-1.582, 2.100e-3
-1.583, 2.131e-3
-1.584, 2.161e-3
-1.585, 2.195e-3
-1.586, 2.226e-3
-1.587, 2.257e-3
-1.588, 2.288e-3
-1.589, 2.319e-3
-1.590, 2.353e-3
-1.591, 2.386e-3
-1.592, 2.420e-3
-1.593, 2.457e-3
-1.594, 2.491e-3
-1.595, 2.528e-3
-1.596, 2.565e-3
-1.597, 2.593e-3
-1.598, 2.627e-3
-1.599, 2.661e-3
-1.600, 2.695e-3
-1.601, 2.729e-3
-1.602, 2.763e-3
-1.603, 2.803e-3
-1.604, 2.837e-3
-1.605, 2.871e-3
-1.606, 2.911e-3
-1.607, 2.948e-3
-1.608, 2.985e-3
-1.609, 3.012e-3
-1.610, 3.049e-3
-1.611, 3.089e-3
-1.612, 3.123e-3
-1.613, 3.160e-3
-1.614, 3.197e-3
-1.615, 3.237e-3
-1.616, 3.274e-3
-1.617, 3.314e-3
-1.618, 3.348e-3
-1.619, 3.382e-3
-1.620, 3.422e-3
-1.621, 3.462e-3
-1.622, 3.499e-3
-1.623, 3.536e-3
-1.624, 3.570e-3
-1.625, 3.614e-3
-1.626, 3.654e-3
-1.627, 3.694e-3
-1.628, 3.718e-3
-1.629, 3.765e-3
-1.630, 3.802e-3
-1.631, 3.842e-3
-1.632, 3.873e-3
-1.633, 3.922e-3
-1.634, 3.959e-3
-1.635, 4.002e-3
-1.636, 4.033e-3
-1.637, 4.076e-3
-1.638, 4.110e-3
-1.639, 4.153e-3
-1.640, 4.193e-3
-1.641, 4.230e-3
-1.642, 4.267e-3
-1.643, 4.313e-3
-1.644, 4.338e-3
-1.645, 4.384e-3
-1.646, 4.421e-3
-1.647, 4.458e-3
-1.648, 4.495e-3
-1.649, 4.554e-3
-1.650, 4.603e-3
-1.651, 4.628e-3
-1.652, 4.671e-3
-1.653, 4.711e-3
-1.654, 4.751e-3
-1.655, 4.782e-3
-1.656, 4.831e-3
-1.657, 4.881e-3
-1.658, 4.908e-3
-1.659, 4.958e-3
-1.660, 4.998e-3
-1.661, 5.038e-3
-1.662, 5.078e-3
-1.663, 5.127e-3
-1.664, 5.174e-3
-1.665, 5.214e-3
-1.666, 5.257e-3
-1.667, 5.300e-3
-1.668, 5.331e-3
-1.669, 5.383e-3
-1.670, 5.423e-3
-1.671, 5.457e-3
-1.672, 5.507e-3
-1.673, 5.553e-3
-1.674, 5.574e-3
-1.675, 5.630e-3
-1.676, 5.661e-3
-1.677, 5.701e-3
-1.678, 5.750e-3
-1.679, 5.803e-3
-1.680, 5.880e-3
-1.681, 5.910e-3
-1.682, 5.935e-3
-1.683, 5.972e-3
-1.684, 6.018e-3
-1.685, 6.049e-3
-1.686, 6.102e-3
-1.687, 6.157e-3
-1.688, 6.179e-3
-1.689, 6.219e-3
-1.690, 6.256e-3
-1.691, 6.308e-3
-1.692, 6.339e-3
-1.693, 6.385e-3
-1.694, 6.453e-3
-1.695, 6.484e-3
-1.696, 6.512e-3
-1.697, 6.555e-3
-1.698, 6.604e-3
-1.699, 6.654e-3
-1.700, 6.669e-3
-1.699, 6.613e-3
-1.698, 6.561e-3
-1.697, 6.509e-3
-1.696, 6.456e-3
-1.695, 6.410e-3
-1.694, 6.351e-3
-1.693, 6.305e-3
-1.692, 6.250e-3
-1.691, 6.210e-3
-1.690, 6.154e-3
-1.689, 6.108e-3
-1.688, 6.062e-3
-1.687, 6.000e-3
-1.686, 5.963e-3
-1.685, 5.920e-3
-1.684, 5.858e-3
-1.683, 5.818e-3
-1.682, 5.753e-3
-1.681, 5.716e-3
-1.680, 5.664e-3
-1.679, 5.611e-3
-1.678, 5.568e-3
-1.677, 5.500e-3
-1.676, 5.454e-3
-1.675, 5.411e-3
-1.674, 5.349e-3
-1.673, 5.319e-3
-1.672, 5.285e-3
-1.671, 5.241e-3
-1.670, 5.186e-3
-1.669, 5.155e-3
-1.668, 5.093e-3
-1.667, 5.047e-3
-1.666, 4.989e-3
-1.665, 4.949e-3
-1.664, 4.912e-3
-1.663, 4.853e-3
-1.662, 4.813e-3
-1.661, 4.757e-3
-1.660, 4.717e-3
-1.659, 4.674e-3
-1.658, 4.643e-3
-1.657, 4.612e-3
-1.656, 4.566e-3
-1.655, 4.505e-3
-1.654, 4.461e-3
-1.653, 4.412e-3
-1.652, 4.357e-3
-1.651, 4.320e-3
-1.650, 4.289e-3
-1.649, 4.236e-3
-1.648, 4.196e-3
-1.647, 4.153e-3
-1.646, 4.104e-3
-1.645, 4.073e-3
-1.644, 4.024e-3
-1.643, 3.993e-3
-1.642, 3.968e-3
-1.641, 3.934e-3
-1.640, 3.879e-3
-1.639, 3.826e-3
-1.638, 3.789e-3
-1.637, 3.749e-3
-1.636, 3.706e-3
-1.635, 3.663e-3
-1.634, 3.635e-3
-1.633, 3.592e-3
-1.632, 3.546e-3
-1.631, 3.509e-3
-1.630, 3.469e-3
-1.629, 3.419e-3
-1.628, 3.382e-3
-1.627, 3.358e-3
-1.626, 3.324e-3
-1.625, 3.271e-3
-1.624, 3.237e-3
-1.623, 3.204e-3
-1.622, 3.157e-3
-1.621, 3.120e-3
-1.620, 3.080e-3
-1.619, 3.043e-3
-1.618, 3.006e-3
-1.617, 2.963e-3
-1.616, 2.920e-3
-1.615, 2.883e-3
-1.614, 2.855e-3
-1.613, 2.818e-3
-1.612, 2.784e-3
-1.611, 2.756e-3
-1.610, 2.716e-3
-1.609, 2.673e-3
-1.608, 2.636e-3
-1.607, 2.602e-3
-1.606, 2.568e-3
-1.605, 2.531e-3
-1.604, 2.497e-3
-1.603, 2.460e-3
-1.602, 2.427e-3
-1.601, 2.399e-3
-1.600, 2.362e-3
-1.599, 2.328e-3
-1.598, 2.291e-3
-1.597, 2.257e-3
-1.596, 2.223e-3
-1.595, 2.192e-3
-1.594, 2.158e-3
-1.593, 2.131e-3
-1.592, 2.100e-3
-1.591, 2.069e-3
-1.590, 2.035e-3
-1.589, 2.004e-3
-1.588, 1.976e-3
-1.587, 1.949e-3
-1.586, 1.915e-3
-1.585, 1.884e-3
-1.584, 1.856e-3
-1.583, 1.828e-3
-1.582, 1.801e-3
-1.581, 1.773e-3
-1.580, 1.745e-3
-1.579, 1.721e-3
-1.578, 1.693e-3
-1.577, 1.659e-3
-1.576, 1.634e-3
-1.575, 1.606e-3
-1.574, 1.576e-3
-1.573, 1.548e-3
-1.572, 1.523e-3
-1.571, 1.502e-3
-1.570, 1.477e-3
-1.569, 1.452e-3
-1.568, 1.425e-3
-1.567, 1.403e-3
-1.566, 1.375e-3
-1.565, 1.354e-3
-1.564, 1.329e-3
-1.563, 1.304e-3
-1.562, 1.280e-3
-1.561, 1.258e-3
-1.560, 1.240e-3
-1.559, 1.218e-3
-1.558, 1.196e-3
-1.557, 1.172e-3
-1.556, 1.153e-3
-1.555, 1.132e-3
-1.554, 1.110e-3
-1.553, 1.085e-3
-1.552, 1.067e-3
-1.551, 1.048e-3
-1.550, 1.030e-3
-1.549, 1.008e-3
-1.548, 9.868e-4
-1.547, 9.683e-4
-1.546, 9.498e-4
-1.545, 9.313e-4
-1.544, 9.128e-4
-1.543, 8.943e-4
-1.542, 8.788e-4
-1.541, 8.603e-4
-1.540, 8.449e-4
-1.539, 8.264e-4
-1.538, 8.079e-4
-1.537, 7.925e-4
-1.536, 7.771e-4
-1.535, 7.586e-4
-1.534, 7.432e-4
-1.533, 7.309e-4
-1.532, 7.154e-4
-1.531, 7.031e-4
-1.530, 6.877e-4
-1.529, 6.723e-4
-1.528, 6.599e-4
-1.527, 6.414e-4
-1.526, 6.291e-4
-1.525, 6.168e-4
-1.524, 6.044e-4
-1.523, 5.921e-4
-1.522, 5.798e-4
-1.521, 5.644e-4
-1.520, 5.520e-4
-1.519, 5.428e-4
-1.518, 5.274e-4
-1.517, 5.181e-4
-1.516, 5.058e-4
-1.515, 4.935e-4
-1.514, 4.842e-4
-1.513, 4.719e-4
-1.512, 4.626e-4
-1.511, 4.534e-4
-1.510, 4.441e-4
-1.509, 4.318e-4
-1.508, 4.225e-4
-1.507, 4.133e-4
-1.506, 4.040e-4
-1.505, 3.979e-4
-1.504, 3.855e-4
-1.503, 3.794e-4
-1.502, 3.701e-4
-1.501, 3.609e-4
-1.500, 3.547e-4
-1.499, 3.455e-4
-1.498, 3.393e-4
-1.497, 3.300e-4
-1.496, 3.239e-4
-1.495, 3.146e-4
-1.494, 3.085e-4
-1.493, 3.023e-4
-1.492, 2.961e-4
-1.491, 2.900e-4
-1.490, 2.838e-4
-1.489, 2.746e-4
-1.488, 2.684e-4
-1.487, 2.622e-4
-1.486, 2.561e-4
-1.485, 2.530e-4
-1.484, 2.468e-4
-1.483, 2.406e-4
-1.482, 2.345e-4
-1.481, 2.314e-4
-1.480, 2.252e-4
-1.479, 2.191e-4
-1.478, 2.160e-4
-1.477, 2.098e-4
-1.476, 2.036e-4
-1.475, 2.006e-4
-1.474, 1.975e-4
-1.473, 1.913e-4
-1.472, 1.882e-4
-1.471, 1.851e-4
-1.470, 1.790e-4
-1.469, 1.759e-4
-1.468, 1.728e-4
-1.467, 1.697e-4
-1.466, 1.636e-4
-1.465, 1.636e-4
-1.464, 1.574e-4
-1.463, 1.543e-4
-1.462, 1.512e-4
-1.461, 1.481e-4
-1.460, 1.451e-4
-1.459, 1.420e-4
-1.458, 1.389e-4
-1.457, 1.358e-4
-1.456, 1.327e-4
-1.455, 1.296e-4
-1.454, 1.266e-4
-1.453, 1.235e-4
-1.452, 1.204e-4
-1.451, 1.173e-4
-1.450, 1.173e-4
-1.449, 1.142e-4
-1.448, 1.111e-4
-1.447, 1.081e-4
-1.446, 1.050e-4
-1.445, 1.050e-4
-1.444, 1.019e-4
-1.443, 9.882e-5
-1.442, 9.573e-5
-1.441, 9.573e-5
-1.440, 9.265e-5
-1.439, 9.265e-5
-1.438, 8.957e-5
-1.437, 8.648e-5
-1.436, 8.648e-5
-1.435, 8.340e-5
-1.434, 8.032e-5
-1.433, 8.032e-5
-1.432, 7.723e-5
-1.431, 7.415e-5
-1.430, 7.415e-5
-1.429, 7.415e-5
-1.428, 7.107e-5
-1.427, 7.107e-5
-1.426, 6.798e-5
-1.425, 6.798e-5
-1.424, 6.490e-5
-1.423, 6.490e-5
-1.422, 6.182e-5
-1.421, 6.182e-5
-1.420, 5.873e-5
-1.419, 5.873e-5
-1.418, 5.565e-5
-1.417, 5.565e-5
-1.416, 5.257e-5
-1.415, 5.257e-5
-1.414, 5.257e-5
-1.413, 4.949e-5
-1.412, 4.949e-5
-1.411, 4.949e-5
-1.410, 4.640e-5
-1.409, 4.640e-5
-1.408, 4.640e-5
-1.407, 4.332e-5
-1.406, 4.332e-5
-1.405, 4.332e-5
-1.404, 4.024e-5
-1.403, 4.024e-5
-1.402, 3.715e-5
-1.401, 3.715e-5
-1.400, 3.715e-5
-1.399, 3.715e-5
-1.398, 3.407e-5
-1.397, 3.407e-5
-1.396, 3.407e-5
-1.395, 3.407e-5
-1.394, 3.099e-5
-1.393, 3.099e-5
-1.392, 3.099e-5
-1.391, 2.790e-5
-1.390, 2.790e-5
-1.389, 2.790e-5
-1.388, 2.790e-5
-1.387, 2.482e-5
-1.386, 2.482e-5
-1.385, 2.482e-5
-1.384, 2.482e-5
-1.383, 2.482e-5
-1.382, 2.482e-5
-1.381, 2.174e-5
-1.380, 2.174e-5
-1.379, 2.174e-5
-1.378, 2.174e-5
-1.377, 1.865e-5
-1.376, 1.865e-5
-1.375, 1.865e-5
-1.374, 1.865e-5
-1.373, 1.865e-5
-1.372, 1.557e-5
-1.371, 1.557e-5
-1.370, 1.557e-5
-1.369, 1.557e-5
-1.368, 1.557e-5
-1.367, 1.557e-5
-1.366, 1.249e-5
-1.365, 1.249e-5
-1.364, 1.249e-5
-1.363, 1.249e-5
-1.362, 1.249e-5
-1.361, 1.249e-5
-1.360, 1.249e-5
-1.359, 9.405e-6
-1.358, 9.405e-6
-1.357, 9.405e-6
-1.356, 9.405e-6
-1.355, 9.405e-6
-1.354, 6.322e-6
-1.353, 6.322e-6
-1.352, 6.322e-6
-1.351, 6.322e-6
-1.350, 6.322e-6
-1.349, 6.322e-6
-1.348, 6.322e-6
-1.347, 6.322e-6
-1.346, 6.322e-6
-1.345, 6.322e-6
-1.344, 3.239e-6
-1.343, 3.239e-6
-1.342, 3.239e-6
-1.341, 3.239e-6
-1.340, 3.239e-6
-1.339, 3.239e-6
-1.338, 3.239e-6
-1.337, 3.239e-6
-1.336, 3.239e-6
-1.335, 3.239e-6
-1.334, 1.559e-7
-1.333, 3.239e-6
-1.332, 3.239e-6
-1.331, 1.559e-7
-1.330, 1.559e-7
-1.329, 1.559e-7
-1.328, 1.559e-7
-1.327, 1.559e-7
-1.326, 1.559e-7
-1.325, 1.559e-7
-1.324, 1.559e-7
-1.323, 1.559e-7
-1.322, 1.559e-7
-1.321, 1.559e-7
-1.320, 1.559e-7
-1.319, -2.927e-6
-1.318, -2.927e-6
-1.317, 1.559e-7
-1.316, -2.927e-6
-1.315, -2.927e-6
-1.314, -2.927e-6
-1.313, -2.927e-6
-1.312, -2.927e-6
-1.311, -2.927e-6
-1.310, -2.927e-6
-1.309, -2.927e-6
-1.308, -2.927e-6
-1.307, -2.927e-6
-1.306, -2.927e-6
-1.305, -2.927e-6
-1.304, -6.010e-6
-1.303, -2.927e-6
-1.302, -2.927e-6
-1.301, -6.010e-6
-1.300, -2.927e-6
-1.299, -6.010e-6
-1.298, -6.010e-6
-1.297, -6.010e-6
-1.296, -6.010e-6
-1.295, -6.010e-6
-1.294, -6.010e-6
-1.293, -6.010e-6
-1.292, -6.010e-6
-1.291, -6.010e-6
-1.290, -6.010e-6
-1.289, -6.010e-6
-1.288, -6.010e-6
-1.287, -6.010e-6
-1.286, -6.010e-6
-1.285, -6.010e-6
-1.284, -6.010e-6
-1.283, -6.010e-6
-1.282, -6.010e-6
-1.281, -6.010e-6
-1.280, -6.010e-6
-1.279, -6.010e-6
-1.278, -6.010e-6
-1.277, -6.010e-6
-1.276, -9.093e-6
-1.275, -6.010e-6
-1.274, -9.093e-6
-1.273, -6.010e-6
-1.272, -9.093e-6
-1.271, -9.093e-6
-1.270, -6.010e-6
-1.269, -9.093e-6
-1.268, -9.093e-6
-1.267, -9.093e-6
-1.266, -9.093e-6
-1.265, -6.010e-6
-1.264, -9.093e-6
-1.263, -9.093e-6
-1.262, -9.093e-6
-1.261, -9.093e-6
-1.260, -9.093e-6
-1.259, -9.093e-6
-1.258, -9.093e-6
-1.257, -9.093e-6
-1.256, -9.093e-6
-1.255, -9.093e-6
-1.254, -9.093e-6
-1.253, -9.093e-6
-1.252, -9.093e-6
-1.251, -9.093e-6
-1.250, -9.093e-6
-1.249, -9.093e-6
-1.248, -9.093e-6
-1.247, -9.093e-6
-1.246, -9.093e-6
-1.245, -9.093e-6
-1.244, -9.093e-6
-1.243, -9.093e-6
-1.242, -9.093e-6
-1.241, -9.093e-6
-1.240, -9.093e-6
-1.239, -9.093e-6
-1.238, -9.093e-6
-1.237, -9.093e-6
-1.236, -9.093e-6
-1.235, -9.093e-6
-1.234, -9.093e-6
-1.233, -9.093e-6
-1.232, -9.093e-6
-1.231, -9.093e-6
-1.230, -9.093e-6
-1.229, -1.218e-5
-1.228, -9.093e-6
-1.227, -1.218e-5
-1.226, -1.218e-5
-1.225, -9.093e-6
-1.224, -1.218e-5
-1.223, -1.218e-5
-1.222, -9.093e-6
-1.221, -9.093e-6
-1.220, -1.218e-5
-1.219, -1.218e-5
-1.218, -9.093e-6
-1.217, -1.218e-5
-1.216, -9.093e-6
-1.215, -9.093e-6
-1.214, -9.093e-6
-1.213, -9.093e-6
-1.212, -1.218e-5
-1.211, -9.093e-6
-1.210, -9.093e-6
-1.209, -9.093e-6
-1.208, -9.093e-6
-1.207, -9.093e-6
-1.206, -9.093e-6
-1.205, -9.093e-6
-1.204, -9.093e-6
-1.203, -9.093e-6
-1.202, -9.093e-6
-1.201, -9.093e-6
-1.200, -9.093e-6
-1.199, -1.218e-5
-1.198, -1.218e-5
-1.197, -1.218e-5
-1.196, -9.093e-6
-1.195, -1.218e-5
-1.194, -1.218e-5
-1.193, -1.218e-5
-1.192, -1.218e-5
-1.191, -1.218e-5
-1.190, -9.093e-6
-1.189, -1.218e-5
-1.188, -1.218e-5
-1.187, -1.218e-5
-1.186, -1.218e-5
-1.185, -1.218e-5
-1.184, -1.218e-5
-1.183, -1.218e-5
-1.182, -1.218e-5
-1.181, -1.218e-5
-1.180, -1.218e-5
-1.179, -1.218e-5
-1.178, -1.218e-5
-1.177, -1.218e-5
-1.176, -1.218e-5
-1.175, -1.218e-5
-1.174, -1.218e-5
-1.173, -1.218e-5
-1.172, -1.218e-5
-1.171, -1.218e-5
-1.170, -1.218e-5
-1.169, -1.218e-5
-1.168, -1.218e-5
-1.167, -1.218e-5
-1.166, -1.218e-5
-1.165, -1.218e-5
-1.164, -1.218e-5
-1.163, -1.218e-5
-1.162, -1.218e-5
-1.161, -1.218e-5
-1.160, -1.218e-5
-1.159, -1.218e-5
-1.158, -1.218e-5
-1.157, -1.218e-5
-1.156, -1.218e-5
-1.155, -1.218e-5
-1.154, -1.218e-5
-1.153, -1.218e-5
-1.152, -1.218e-5
-1.151, -1.218e-5
-1.150, -1.218e-5
-1.149, -1.218e-5
-1.148, -1.218e-5
-1.147, -1.218e-5
-1.146, -1.218e-5
-1.145, -1.218e-5
-1.144, -1.218e-5
-1.143, -1.218e-5
-1.142, -1.218e-5
-1.141, -1.218e-5
-1.140, -1.218e-5
-1.139, -1.218e-5
-1.138, -1.218e-5
-1.137, -1.218e-5
-1.136, -1.218e-5
-1.135, -1.218e-5
-1.134, -1.218e-5
-1.133, -1.218e-5
-1.132, -1.218e-5
-1.131, -1.218e-5
-1.130, -1.218e-5
-1.129, -1.218e-5
-1.128, -1.218e-5
-1.127, -1.218e-5
-1.126, -1.218e-5
-1.125, -1.218e-5
-1.124, -1.218e-5
-1.123, -1.218e-5
-1.122, -1.218e-5
-1.121, -1.218e-5
-1.120, -1.218e-5
-1.119, -1.218e-5
-1.118, -1.218e-5
-1.117, -1.218e-5
-1.116, -1.218e-5
-1.115, -1.218e-5
-1.114, -1.218e-5
-1.113, -1.218e-5
-1.112, -1.526e-5
-1.111, -1.218e-5
-1.110, -1.218e-5
-1.109, -1.218e-5
-1.108, -1.218e-5
-1.107, -1.218e-5
-1.106, -1.526e-5
-1.105, -1.218e-5
-1.104, -1.526e-5
-1.103, -1.526e-5
-1.102, -1.218e-5
-1.101, -1.218e-5
-1.100, -1.218e-5
-1.099, -1.218e-5
-1.098, -1.218e-5
-1.097, -1.526e-5
-1.096, -1.526e-5
-1.095, -1.218e-5
-1.094, -1.526e-5
-1.093, -1.526e-5
-1.092, -1.526e-5
-1.091, -1.218e-5
-1.090, -1.526e-5
-1.089, -1.526e-5
-1.088, -1.526e-5
-1.087, -1.526e-5
-1.086, -1.526e-5
-1.085, -1.218e-5
-1.084, -1.526e-5
-1.083, -1.526e-5
-1.082, -1.526e-5
-1.081, -1.526e-5
-1.080, -1.526e-5
-1.079, -1.526e-5
-1.078, -1.526e-5
-1.077, -1.526e-5
-1.076, -1.526e-5
-1.075, -1.526e-5
-1.074, -1.526e-5
-1.073, -1.526e-5
-1.072, -1.526e-5
-1.071, -1.526e-5
-1.070, -1.526e-5
-1.069, -1.526e-5
-1.068, -1.526e-5
-1.067, -1.526e-5
-1.066, -1.526e-5
-1.065, -1.526e-5
-1.064, -1.526e-5
-1.063, -1.526e-5
-1.062, -1.526e-5
-1.061, -1.526e-5
-1.060, -1.526e-5
-1.059, -1.526e-5
-1.058, -1.526e-5
-1.057, -1.526e-5
-1.056, -1.526e-5
-1.055, -1.526e-5
-1.054, -1.526e-5
-1.053, -1.526e-5
-1.052, -1.526e-5
-1.051, -1.526e-5
-1.050, -1.526e-5
-1.049, -1.526e-5
-1.048, -1.526e-5
-1.047, -1.834e-5
-1.046, -1.526e-5
-1.045, -1.526e-5
-1.044, -1.834e-5
-1.043, -1.526e-5
-1.042, -1.526e-5
-1.041, -1.834e-5
-1.040, -1.526e-5
-1.039, -1.834e-5
-1.038, -1.834e-5
-1.037, -1.834e-5
-1.036, -1.834e-5
-1.035, -1.834e-5
-1.034, -1.834e-5
-1.033, -1.834e-5
-1.032, -1.834e-5
-1.031, -1.834e-5
-1.030, -1.834e-5
-1.029, -1.834e-5
-1.028, -1.834e-5
-1.027, -1.834e-5
-1.026, -1.834e-5
-1.025, -1.834e-5
-1.024, -1.834e-5
-1.023, -1.834e-5
-1.022, -1.834e-5
-1.021, -1.834e-5
-1.020, -1.834e-5
-1.019, -1.834e-5
-1.018, -1.834e-5
-1.017, -1.834e-5
-1.016, -1.834e-5
-1.015, -1.834e-5
-1.014, -1.834e-5
-1.013, -1.834e-5
-1.012, -1.834e-5
-1.011, -1.834e-5
-1.010, -1.834e-5
-1.009, -1.834e-5
-1.008, -2.143e-5
-1.007, -1.834e-5
-1.006, -2.143e-5
-1.005, -1.834e-5
-1.004, -2.143e-5
-1.003, -2.143e-5
-1.002, -2.143e-5
-1.001, -2.143e-5
