Potential V vs RHE, Current mA cm-2
0.05339999999999995,-0.0675524645685555
0.05239999999999995,-0.0695755017273625
0.051399999999999946,-0.07070727076725454
0.050399999999999945,-0.07158439177317086
0.049399999999999944,-0.07234833587509798
0.04839999999999994,-0.07299910307303589
0.04739999999999994,-0.07366401738397246
0.04639999999999994,-0.07430063746891173
0.04539999999999994,-0.0749089633278537
0.04439999999999994,-0.075503142073797
0.04339999999999994,-0.07604073236774572
0.04239999999999994,-0.0765924697746931
0.04139999999999994,-0.0771300600686418
0.040399999999999936,-0.07768179747558916
0.039399999999999935,-0.07823353488253654
0.038399999999999934,-0.0787569780634866
0.03739999999999993,-0.07928042124443666
0.03639999999999993,-0.07976142308639078
0.03539999999999993,-0.08024242492834488
0.03439999999999993,-0.08075172099629631
0.03339999999999993,-0.08121857572525175
0.03239999999999993,-0.08168543045420722
0.03139999999999993,-0.08218057940915997
0.030399999999999927,-0.08263328702511678
0.029399999999999926,-0.08308599464107361
0.028399999999999925,-0.08349626091803447
0.027399999999999924,-0.08389238008199668
0.026399999999999924,-0.08433094058495484
0.025399999999999923,-0.08475535397491435
0.024399999999999922,-0.0851939144778725
0.02339999999999992,-0.08559003364183472
0.02239999999999992,-0.08601444703179424
0.02139999999999992,-0.08642471330875509
0.020399999999999918,-0.08682083247271731
0.019399999999999917,-0.08721695163667952
0.018399999999999916,-0.08757062946164577
0.017399999999999916,-0.08792430728661203
0.016399999999999915,-0.08827798511157829
0.015399999999999914,-0.0886741042755405
0.014399999999999913,-0.0890419292135054
0.013399999999999912,-0.08940975415147032
0.012399999999999911,-0.08977757908943522
0.01139999999999991,-0.09011710980140283
0.01039999999999991,-0.09048493473936775
0.009399999999999908,-0.09082446545133536
0.008399999999999908,-0.09113570193730568
0.007399999999999907,-0.09150352687527057
0.006399999999999906,-0.09180061624824223
0.005399999999999905,-0.09214014696020983
0.004399999999999904,-0.09245138344618015
0.003399999999999903,-0.09273432570615316
0.002399999999999902,-0.09304556219212347
0.0013999999999999013,-0.09334265156509512
0.00039999999999990044,-0.09362559382506812
-0.0006000000000001005,-0.09393683031103843
-0.0016000000000001013,-0.0941773312320155
-0.0026000000000001022,-0.09447442060498715
-0.003600000000000103,-0.0947432157519615
-0.004600000000000104,-0.0949978637859372
-0.005600000000000105,-0.09525251181991291
-0.006600000000000106,-0.09549301274088996
-0.007600000000000107,-0.09573351366186703
-0.008600000000000108,-0.09598816169584275
-0.009600000000000108,-0.09621451550382115
-0.01060000000000011,-0.09645501642479819
-0.01160000000000011,-0.0966813702327766
-0.012600000000000111,-0.09693601826675231
-0.013600000000000112,-0.09713407784873342
-0.014600000000000113,-0.09733213743071452
-0.015600000000000114,-0.09753019701269564
-0.016600000000000115,-0.09772825659467674
-0.017600000000000116,-0.0979121690636592
-0.018600000000000116,-0.09806778730664434
-0.019600000000000117,-0.09826584688862545
-0.020600000000000118,-0.09843561224460926
-0.02160000000000012,-0.0985912304875944
-0.02260000000000012,-0.09877514295657686
-0.02360000000000012,-0.09890246697356471
-0.024600000000000122,-0.09908637944254717
-0.025600000000000123,-0.09922785057253368
-0.026600000000000124,-0.09936932170252018
-0.027600000000000124,-0.09951079283250668
-0.028600000000000125,-0.09962396973649587
-0.029600000000000126,-0.0997654408664824
-0.030600000000000127,-0.09989276488347024
-0.03160000000000013,-0.0999917946744608
-0.03260000000000013,-0.10011911869144864
-0.03360000000000013,-0.10020400136944055
-0.03460000000000002,-0.10031717827342976
-0.03560000000000002,-0.1004445022904176
-0.03660000000000002,-0.1005010907424122
-0.03760000000000002,-0.1006142676464014
-0.03860000000000002,-0.10069915032439332
-0.039600000000000024,-0.10078403300238521
-0.040600000000000025,-0.10086891568037712
-0.041600000000000026,-0.10091135701937308
-0.04260000000000003,-0.10098209258436633
-0.04360000000000003,-0.10103868103636092
-0.04460000000000003,-0.10109526948835552
-0.04560000000000003,-0.10115185794035012
-0.04660000000000003,-0.10118015216634743
-0.04760000000000003,-0.10125088773134068
-0.04860000000000003,-0.10127918195733798
-0.04960000000000003,-0.10132162329633393
-0.050600000000000034,-0.10137821174832852
-0.051600000000000035,-0.10139235886132718
-0.052600000000000036,-0.10140650597432584
-0.053600000000000037,-0.10143480020032314
-0.05460000000000004,-0.10146309442632043
-0.05560000000000004,-0.10146309442632043
-0.05660000000000004,-0.10147724153931909
-0.05760000000000004,-0.10146309442632043
-0.05860000000000004,-0.10147724153931909
-0.05960000000000004,-0.10147724153931909
-0.06060000000000004,-0.10146309442632043
-0.061600000000000044,-0.10146309442632043
-0.06260000000000004,-0.10144894731332177
-0.06360000000000005,-0.10143480020032314
-0.06460000000000005,-0.10140650597432584
-0.06560000000000005,-0.10139235886132718
-0.06660000000000005,-0.10137821174832852
-0.06760000000000005,-0.10134991752233123
-0.06860000000000005,-0.10127918195733798
-0.06960000000000005,-0.10127918195733798
-0.07060000000000005,-0.10123674061834202
-0.07160000000000005,-0.10118015216634743
-0.07260000000000005,-0.10113771082735147
-0.07360000000000005,-0.10108112237535687
-0.07460000000000006,-0.10103868103636092
-0.07560000000000006,-0.10099623969736496
-0.07660000000000006,-0.10095379835836901
-0.07760000000000006,-0.10089720990637441
-0.07860000000000006,-0.10082647434138116
-0.07960000000000006,-0.10076988588938657
-0.08060000000000006,-0.10071329743739196
-0.08160000000000006,-0.1006142676464014
-0.08260000000000006,-0.10057182630740545
-0.08360000000000006,-0.1005010907424122
-0.08460000000000006,-0.10041620806442031
-0.08560000000000006,-0.10034547249942705
-0.08660000000000007,-0.1002464427084365
-0.08760000000000007,-0.10016156003044459
-0.08860000000000007,-0.10011911869144864
-0.08960000000000007,-0.10003423601345675
-0.09060000000000007,-0.09994935333546484
-0.09160000000000007,-0.09986447065747293
-0.09260000000000007,-0.09977958797948104
-0.09360000000000007,-0.09969470530148912
-0.09460000000000007,-0.09960982262349724
-0.09560000000000007,-0.09951079283250668
-0.09660000000000007,-0.09941176304151612
-0.09760000000000008,-0.09931273325052556
-0.09860000000000008,-0.09921370345953502
-0.09960000000000008,-0.09914296789454177
-0.10060000000000008,-0.09902979099055256
-0.10160000000000008,-0.09894490831256067
-0.10260000000000008,-0.09886002563456876
-0.10360000000000008,-0.09876099584357821
-0.10460000000000008,-0.09866196605258765
-0.10560000000000008,-0.09854878914859845
-0.10660000000000008,-0.09843561224460926
-0.10760000000000008,-0.09835072956661735
-0.10860000000000009,-0.09823755266262815
-0.10960000000000009,-0.09813852287163759
-0.11060000000000009,-0.09803949308064704
-0.11160000000000009,-0.0979121690636592
-0.11260000000000009,-0.09781313927266864
-0.11360000000000009,-0.09769996236867944
-0.11460000000000009,-0.09764337391668483
-0.11560000000000009,-0.09754434412569428
-0.11660000000000009,-0.09741702010870643
-0.1176000000000001,-0.09733213743071452
-0.1186000000000001,-0.09721896052672531
-0.1196000000000001,-0.09709163650973747
-0.1206000000000001,-0.09699260671874692
-0.1216000000000001,-0.09689357692775637
-0.1226000000000001,-0.0967945471367658
-0.1236000000000001,-0.09666722311977795
-0.1246000000000001,-0.09655404621578875
-0.1256000000000001,-0.09645501642479819
-0.1266000000000001,-0.09631354529481169
-0.1276000000000001,-0.09621451550382115
-0.1286000000000001,-0.09611548571283059
-0.1296000000000001,-0.09598816169584275
-0.1306000000000001,-0.09587498479185352
-0.1316000000000001,-0.09574766077486568
-0.1326000000000001,-0.09564863098387513
-0.1336000000000001,-0.09552130696688728
-0.1346000000000001,-0.09540813006289808
-0.1356000000000001,-0.09530910027190752
-0.1366000000000001,-0.09521007048091697
-0.1376000000000001,-0.09509689357692777
-0.1386000000000001,-0.09498371667293856
-0.1396000000000001,-0.09489883399494665
-0.1406000000000001,-0.0947715099779588
-0.14160000000000011,-0.09467248018696825
-0.14260000000000012,-0.09457345039597771
-0.14360000000000012,-0.09444612637898986
-0.14460000000000012,-0.09436124370099794
-0.14560000000000012,-0.09424806679700874
-0.14660000000000012,-0.09413488989301955
-0.14760000000000012,-0.09402171298903034
-0.14860000000000012,-0.09390853608504113
-0.14960000000000012,-0.09380950629405059
-0.15060000000000012,-0.09369632939006138
-0.15160000000000012,-0.09356900537307353
-0.15260000000000012,-0.09349826980808028
-0.15360000000000013,-0.09338509290409107
-0.15460000000000013,-0.09327191600010187
-0.15560000000000013,-0.09318703332210997
-0.15660000000000013,-0.09304556219212347
-0.15760000000000013,-0.0929748266271302
-0.15860000000000013,-0.09287579683613965
-0.15960000000000002,-0.09279091415814776
-0.16060000000000002,-0.09267773725415854
-0.16160000000000002,-0.09256456035016934
-0.16260000000000002,-0.0924938247851761
-0.16360000000000002,-0.09236650076818824
-0.16460000000000002,-0.09225332386419903
-0.16560000000000002,-0.09221088252520308
-0.16660000000000003,-0.09214014696020983
-0.16760000000000003,-0.092012822943222
-0.16860000000000003,-0.09191379315223143
-0.16960000000000003,-0.09181476336124088
-0.17060000000000003,-0.09172988068324898
-0.17160000000000003,-0.09163085089225843
-0.17260000000000003,-0.09153182110126787
-0.17360000000000003,-0.09144693842327598
-0.17460000000000003,-0.09134790863228542
-0.17560000000000003,-0.0912630259542935
-0.17660000000000003,-0.09117814327630162
-0.17760000000000004,-0.09107911348531106
-0.17860000000000004,-0.09102252503331647
-0.17960000000000004,-0.0909517894683232
-0.18060000000000004,-0.09086690679033131
-0.18160000000000004,-0.09076787699934075
-0.18260000000000004,-0.09071128854734616
-0.18360000000000004,-0.09062640586935425
-0.18460000000000004,-0.090555670304361
-0.18560000000000004,-0.09047078762636909
-0.18660000000000004,-0.09047078762636909
-0.18760000000000004,-0.09037175783537854
-0.18860000000000005,-0.09027272804438799
-0.18960000000000005,-0.09020199247939473
-0.19060000000000005,-0.09011710980140283
-0.19160000000000005,-0.09003222712341094
-0.19260000000000005,-0.08994734444541903
-0.19360000000000005,-0.08987660888042578
-0.19460000000000005,-0.08980587331543252
-0.19560000000000005,-0.08972099063744063
-0.19660000000000005,-0.08962196084645008
-0.19760000000000005,-0.08956537239445547
-0.19860000000000005,-0.08949463682946222
-0.19960000000000006,-0.08942390126446896
-0.20060000000000006,-0.08935316569947571
-0.20160000000000006,-0.08925413590848516
-0.20260000000000006,-0.08919754745649056
-0.20360000000000006,-0.08914095900449596
-0.20460000000000006,-0.08908437055250136
-0.20560000000000006,-0.08901363498750811
-0.20660000000000006,-0.08892875230951619
-0.20760000000000006,-0.08888631097052026
-0.20860000000000006,-0.088815575405527
-0.20960000000000006,-0.08874483984053375
-0.21060000000000006,-0.08871654561453644
-0.21160000000000007,-0.0886458100495432
-0.21260000000000007,-0.08854678025855263
-0.21360000000000007,-0.0885043389195567
-0.21460000000000007,-0.08844775046756209
-0.21560000000000007,-0.08834872067657155
-0.21660000000000007,-0.08834872067657155
-0.21760000000000007,-0.08832042645057424
-0.21860000000000007,-0.08822139665958369
-0.21960000000000007,-0.08817895532058774
-0.22060000000000007,-0.08812236686859314
-0.22160000000000007,-0.08806577841659853
-0.22260000000000008,-0.08802333707760258
-0.22360000000000008,-0.08796674862560798
-0.22460000000000008,-0.08792430728661203
-0.22560000000000008,-0.08788186594761609
-0.22660000000000008,-0.08782527749562147
-0.22760000000000008,-0.08778283615662552
-0.22860000000000008,-0.08772624770463092
-0.22960000000000008,-0.08769795347863363
-0.23060000000000008,-0.08765551213963767
-0.23160000000000008,-0.08759892368764308
-0.23260000000000008,-0.08757062946164577
-0.23360000000000009,-0.08749989389665253
-0.2346000000000001,-0.08747159967065522
-0.2356000000000001,-0.08742915833165928
-0.2366000000000001,-0.08738671699266332
-0.2376000000000001,-0.08737256987966466
-0.2386000000000001,-0.08733012854066871
-0.2396000000000001,-0.08730183431467141
-0.2406000000000001,-0.0872735400886741
-0.2416000000000001,-0.08723109874967816
-0.2426000000000001,-0.08721695163667952
-0.2436000000000001,-0.08720280452368086
-0.2446000000000001,-0.08716036318468491
-0.2456000000000001,-0.08714621607168627
-0.2466000000000001,-0.0871037747326903
-0.2476000000000001,-0.08706133339369435
-0.2486000000000001,-0.08706133339369435
-0.2496000000000001,-0.0870188920546984
-0.2506000000000001,-0.0869905978287011
-0.2516000000000001,-0.08694815648970515
-0.2526000000000001,-0.08691986226370785
-0.2536000000000001,-0.0869057151507092
-0.2546000000000001,-0.0869057151507092
-0.2556000000000001,-0.08689156803771056
-0.2566000000000001,-0.0868491266987146
-0.2576000000000001,-0.08682083247271731
-0.2586000000000001,-0.08680668535971865
-0.2596000000000001,-0.08680668535971865
-0.2606000000000001,-0.0867359497947254
-0.2616000000000001,-0.08672180268172675
-0.2626000000000001,-0.0867076555687281
-0.2636000000000001,-0.08666521422973215
-0.2646000000000001,-0.08666521422973215
-0.2656000000000001,-0.08663692000373484
-0.2666000000000001,-0.0866227728907362
-0.2676000000000001,-0.08663692000373484
-0.2686000000000001,-0.0866227728907362
-0.2696000000000001,-0.0866227728907362
-0.2706000000000001,-0.0865944786647389
-0.2716000000000001,-0.08655203732574294
-0.2726000000000001,-0.08655203732574294
-0.2736000000000001,-0.08653789021274429
-0.2746000000000001,-0.08652374309974564
-0.2756000000000001,-0.08652374309974564
-0.2766000000000001,-0.08649544887374834
-0.2776000000000001,-0.08649544887374834
-0.2786000000000001,-0.08649544887374834
-0.2796000000000001,-0.0864813017607497
-0.2806000000000001,-0.0864813017607497
-0.28160000000000013,-0.08645300753475238
-0.28260000000000013,-0.08643886042175375
-0.28360000000000013,-0.08642471330875509
-0.2846,-0.08639641908275779
-0.2856,-0.08642471330875509
-0.2866,-0.08641056619575643
-0.2876,-0.08645300753475238
-0.2886,-0.08645300753475238
-0.2896,-0.08646715464775104
-0.2906,-0.08642471330875509
-0.2916,-0.08642471330875509
-0.2926,-0.08642471330875509
-0.2936,-0.08645300753475238
-0.29460000000000003,-0.08646715464775104
-0.29560000000000003,-0.08649544887374834
-0.29660000000000003,-0.08656618443874159
-0.29760000000000003,-0.0865944786647389
-0.29860000000000003,-0.08660862577773754
-0.29960000000000003,-0.08660862577773754
-0.30060000000000003,-0.0865944786647389
-0.30160000000000003,-0.08660862577773754
-0.30260000000000004,-0.08660862577773754
-0.30360000000000004,-0.08656618443874159
-0.30460000000000004,-0.08660862577773754
-0.30560000000000004,-0.0866227728907362
-0.30660000000000004,-0.08660862577773754
-0.30760000000000004,-0.08663692000373484
-0.30860000000000004,-0.0866227728907362
-0.30960000000000004,-0.08666521422973215
-0.31060000000000004,-0.0866510671167335
-0.31160000000000004,-0.0866510671167335
-0.31260000000000004,-0.08669350845572944
-0.31360000000000005,-0.0867076555687281
-0.31460000000000005,-0.08672180268172675
-0.31560000000000005,-0.08672180268172675
-0.31660000000000005,-0.08675009690772406
-0.31760000000000005,-0.08680668535971865
-0.31860000000000005,-0.08683497958571595
-0.31960000000000005,-0.08682083247271731
-0.32060000000000005,-0.08679253824672
-0.32160000000000005,-0.08679253824672
-0.32260000000000005,-0.08682083247271731
-0.32360000000000005,-0.08683497958571595
-0.32460000000000006,-0.0868491266987146
-0.32560000000000006,-0.0868774209247119
-0.32660000000000006,-0.08691986226370785
-0.32760000000000006,-0.08694815648970515
-0.32860000000000006,-0.08696230360270381
-0.32960000000000006,-0.0869905978287011
-0.33060000000000006,-0.0870188920546984
-0.33160000000000006,-0.08700474494169977
-0.33260000000000006,-0.08704718628069572
-0.33360000000000006,-0.08706133339369435
-0.33460000000000006,-0.0871037747326903
-0.33560000000000006,-0.08713206895868761
-0.33660000000000007,-0.08716036318468491
-0.33760000000000007,-0.08718865741068221
-0.33860000000000007,-0.08720280452368086
-0.33960000000000007,-0.08725939297567546
-0.34060000000000007,-0.08728768720167276
-0.34160000000000007,-0.08734427565366736
-0.34260000000000007,-0.08737256987966466
-0.34360000000000007,-0.08740086410566196
-0.3446000000000001,-0.08747159967065522
-0.3456000000000001,-0.08751404100965117
-0.3466000000000001,-0.08754233523564847
-0.34759999999999996,-0.08759892368764308
-0.3486000000000001,-0.08764136502663902
-0.34959999999999997,-0.08769795347863363
-0.3506000000000001,-0.08771210059163227
-0.35159999999999997,-0.08775454193062822
-0.3526000000000001,-0.08783942460862013
-0.35359999999999997,-0.08783942460862013
-0.3546000000000001,-0.08788186594761609
-0.35559999999999997,-0.08793845439961068
-0.3566000000000001,-0.08798089573860662
-0.3576,-0.08803748419060124
-0.3586000000000001,-0.08806577841659853
-0.3596,-0.08809407264259583
-0.3606000000000001,-0.08817895532058774
-0.3616,-0.08823554377258234
-0.3626000000000001,-0.08829213222457694
-0.3636,-0.0883062793375756
-0.3646000000000001,-0.08834872067657155
-0.3656,-0.08843360335456343
-0.3666000000000001,-0.0885043389195567
-0.3676,-0.0885609273715513
-0.3686000000000001,-0.0886458100495432
-0.3696,-0.08873069272753512
-0.3706000000000001,-0.08884386963152431
-0.3716,-0.0889004580835189
-0.3726000000000001,-0.0889570465355135
-0.3736,-0.08902778210050676
-0.3746000000000001,-0.08911266477849866
-0.3756,-0.08916925323049325
-0.3766000000000001,-0.08925413590848516
-0.3776,-0.08935316569947571
-0.3786000000000001,-0.08943804837746762
-0.3796,-0.08957951950745412
-0.3806000000000001,-0.08963610795944872
-0.3816,-0.08970684352444197
-0.3826000000000001,-0.08979172620243389
-0.3836,-0.08990490310642309
-0.3846000000000001,-0.09000393289741364
-0.3856,-0.09006052134940823
-0.3866000000000001,-0.09015955114039878
-0.3876,-0.09027272804438799
-0.3886000000000001,-0.09037175783537854
-0.3896,-0.09051322896536505
-0.3906000000000001,-0.0905839645303583
-0.3916,-0.09068299432134884
-0.3926000000000001,-0.0907820241123394
-0.3936,-0.09088105390332996
-0.3946000000000001,-0.09098008369432051
-0.3956,-0.09110740771130836
-0.3966000000000001,-0.09123473172829621
-0.3976,-0.09136205574528407
-0.3986000000000001,-0.09147523264927326
-0.3996,-0.09157426244026382
-0.4006000000000001,-0.09172988068324898
-0.4016,-0.09182891047423952
-0.4026000000000001,-0.09198452871722468
-0.4036,-0.09211185273421253
-0.4046000000000001,-0.0922391767512004
-0.4056,-0.0923806478811869
-0.40660000000000013,-0.09253626612417204
-0.4076,-0.09266359014115991
-0.40860000000000013,-0.09279091415814776
-0.4096,-0.09293238528813427
-0.41060000000000013,-0.0930880035311194
-0.4116,-0.09324362177410456
-0.41260000000000013,-0.09342753424308703
-0.4136,-0.09359729959907082
-0.41460000000000014,-0.09376706495505463
-0.4156,-0.09389438897204248
-0.41660000000000014,-0.094035860102029
-0.4176,-0.0941773312320155
-0.41860000000000014,-0.09431880236200199
-0.41960000000000003,-0.09453100905698175
-0.42060000000000014,-0.09472906863896285
-0.42160000000000003,-0.09494127533394262
-0.42260000000000014,-0.09513933491592372
-0.42360000000000003,-0.09533739449790483
-0.42460000000000014,-0.09552130696688728
-0.42560000000000003,-0.09567692520987243
-0.42660000000000015,-0.09588913190485218
-0.42760000000000004,-0.09611548571283059
-0.42860000000000015,-0.09635598663380765
-0.42960000000000004,-0.09661063466778336
-0.43060000000000015,-0.09680869424976446
-0.43160000000000004,-0.0970209009447442
-0.43260000000000015,-0.09723310763972397
-0.43360000000000004,-0.09741702010870643
-0.43460000000000015,-0.09765752102968349
-0.43560000000000004,-0.09794046328965648
-0.43660000000000015,-0.09820925843663084
-0.43760000000000004,-0.09850634780960252
