Dec. 17, 2024   23:06:36
Cyclic Voltammetry
File: c:/users/guazh/data/banditlqround7_x0exp667_r5/2024-12-16-exp685\exp685-2024-12-17t22_59_41-h2koh\exp685_cv_sr_300mvs_efin_-1400mv.bin
Data Source:  Experiment
Instrument Model:  CHI760E
Header: CV ran at 300 mVs
Note: 

Init E (V) = -1
High E (V) = -1
Low E (V) = -1.4
Final E (V) = -1
Init P/N = N
Scan Rate (V/s) = 0.3
Segment = 3
Sample Interval (V) = 0.001
Quiet Time (sec) = 2
Sensitivity (A/V) = 0.01
Comp R (ohm) = 1.1

Results:

Channel 1:
Segment 1:

Segment 2:

Segment 3:

Potential/V, Current/A

-1.000, -1.474e-3
-1.001, -1.338e-3
-1.002, -1.221e-3
-1.003, -1.116e-3
-1.004, -9.926e-4
-1.005, -8.631e-4
-1.006, -7.490e-4
-1.007, -6.504e-4
-1.008, -5.610e-4
-1.009, -4.531e-4
-1.010, -3.390e-4
-1.011, -2.372e-4
-1.012, -1.540e-4
-1.013, -7.384e-5
-1.014, 2.482e-5
-1.015, 1.296e-4
-1.016, 2.221e-4
-1.017, 2.992e-4
-1.018, 3.701e-4
-1.019, 4.595e-4
-1.020, 5.582e-4
-1.021, 6.414e-4
-1.022, 7.124e-4
-1.023, 7.771e-4
-1.024, 8.634e-4
-1.025, 9.559e-4
-1.026, 1.036e-3
-1.027, 1.098e-3
-1.028, 1.159e-3
-1.029, 1.233e-3
-1.030, 1.323e-3
-1.031, 1.397e-3
-1.032, 1.455e-3
-1.033, 1.511e-3
-1.034, 1.585e-3
-1.035, 1.665e-3
-1.036, 1.739e-3
-1.037, 1.791e-3
-1.038, 1.844e-3
-1.039, 1.912e-3
-1.040, 1.989e-3
-1.041, 2.057e-3
-1.042, 2.106e-3
-1.043, 2.152e-3
-1.044, 2.217e-3
-1.045, 2.288e-3
-1.046, 2.349e-3
-1.047, 2.396e-3
-1.048, 2.442e-3
-1.049, 2.504e-3
-1.050, 2.578e-3
-1.051, 2.639e-3
-1.052, 2.692e-3
-1.053, 2.738e-3
-1.054, 2.793e-3
-1.055, 2.861e-3
-1.056, 2.920e-3
-1.057, 2.960e-3
-1.058, 2.997e-3
-1.059, 3.052e-3
-1.060, 3.120e-3
-1.061, 3.176e-3
-1.062, 3.216e-3
-1.063, 3.253e-3
-1.064, 3.305e-3
-1.065, 3.370e-3
-1.066, 3.425e-3
-1.067, 3.466e-3
-1.068, 3.503e-3
-1.069, 3.555e-3
-1.070, 3.620e-3
-1.071, 3.678e-3
-1.072, 3.712e-3
-1.073, 3.749e-3
-1.074, 3.799e-3
-1.075, 3.863e-3
-1.076, 3.922e-3
-1.077, 3.962e-3
-1.078, 4.002e-3
-1.079, 4.054e-3
-1.080, 4.116e-3
-1.081, 4.169e-3
-1.082, 4.209e-3
-1.083, 4.249e-3
-1.084, 4.301e-3
-1.085, 4.360e-3
-1.086, 4.415e-3
-1.087, 4.449e-3
-1.088, 4.483e-3
-1.089, 4.532e-3
-1.090, 4.591e-3
-1.091, 4.646e-3
-1.092, 4.683e-3
-1.093, 4.717e-3
-1.094, 4.770e-3
-1.095, 4.834e-3
-1.096, 4.890e-3
-1.097, 4.927e-3
-1.098, 4.961e-3
-1.099, 5.010e-3
-1.100, 5.075e-3
-1.101, 5.130e-3
-1.102, 5.164e-3
-1.103, 5.198e-3
-1.104, 5.251e-3
-1.105, 5.309e-3
-1.106, 5.368e-3
-1.107, 5.402e-3
-1.108, 5.433e-3
-1.109, 5.479e-3
-1.110, 5.537e-3
-1.111, 5.590e-3
-1.112, 5.624e-3
-1.113, 5.658e-3
-1.114, 5.707e-3
-1.115, 5.769e-3
-1.116, 5.821e-3
-1.117, 5.855e-3
-1.118, 5.889e-3
-1.119, 5.938e-3
-1.120, 5.994e-3
-1.121, 6.046e-3
-1.122, 6.077e-3
-1.123, 6.108e-3
-1.124, 6.157e-3
-1.125, 6.216e-3
-1.126, 6.268e-3
-1.127, 6.302e-3
-1.128, 6.333e-3
-1.129, 6.388e-3
-1.130, 6.453e-3
-1.131, 6.506e-3
-1.132, 6.543e-3
-1.133, 6.580e-3
-1.134, 6.635e-3
-1.135, 6.700e-3
-1.136, 6.755e-3
-1.137, 6.795e-3
-1.138, 6.829e-3
-1.139, 6.885e-3
-1.140, 6.949e-3
-1.141, 7.008e-3
-1.142, 7.045e-3
-1.143, 7.082e-3
-1.144, 7.138e-3
-1.145, 7.205e-3
-1.146, 7.261e-3
-1.147, 7.295e-3
-1.148, 7.335e-3
-1.149, 7.387e-3
-1.150, 7.452e-3
-1.151, 7.508e-3
-1.152, 7.545e-3
-1.153, 7.582e-3
-1.154, 7.634e-3
-1.155, 7.702e-3
-1.156, 7.757e-3
-1.157, 7.794e-3
-1.158, 7.828e-3
-1.159, 7.881e-3
-1.160, 7.942e-3
-1.161, 7.998e-3
-1.162, 8.035e-3
-1.163, 8.069e-3
-1.164, 8.121e-3
-1.165, 8.183e-3
-1.166, 8.241e-3
-1.167, 8.275e-3
-1.168, 8.309e-3
-1.169, 8.362e-3
-1.170, 8.423e-3
-1.171, 8.476e-3
-1.172, 8.513e-3
-1.173, 8.547e-3
-1.174, 8.599e-3
-1.175, 8.664e-3
-1.176, 8.719e-3
-1.177, 8.753e-3
-1.178, 8.790e-3
-1.179, 8.849e-3
-1.180, 8.917e-3
-1.181, 8.972e-3
-1.182, 9.009e-3
-1.183, 9.043e-3
-1.184, 9.095e-3
-1.185, 9.160e-3
-1.186, 9.212e-3
-1.187, 9.249e-3
-1.188, 9.283e-3
-1.189, 9.333e-3
-1.190, 9.394e-3
-1.191, 9.450e-3
-1.192, 9.487e-3
-1.193, 9.527e-3
-1.194, 9.579e-3
-1.195, 9.647e-3
-1.196, 9.703e-3
-1.197, 9.743e-3
-1.198, 9.783e-3
-1.199, 9.835e-3
-1.200, 9.900e-3
-1.201, 9.959e-3
-1.202, 9.993e-3
-1.203, 1.003e-2
-1.204, 1.008e-2
-1.205, 1.015e-2
-1.206, 1.020e-2
-1.207, 1.024e-2
-1.208, 1.028e-2
-1.209, 1.033e-2
-1.210, 1.040e-2
-1.211, 1.046e-2
-1.212, 1.050e-2
-1.213, 1.054e-2
-1.214, 1.059e-2
-1.215, 1.065e-2
-1.216, 1.070e-2
-1.217, 1.074e-2
-1.218, 1.078e-2
-1.219, 1.083e-2
-1.220, 1.090e-2
-1.221, 1.096e-2
-1.222, 1.099e-2
-1.223, 1.103e-2
-1.224, 1.108e-2
-1.225, 1.115e-2
-1.226, 1.120e-2
-1.227, 1.124e-2
-1.228, 1.127e-2
-1.229, 1.132e-2
-1.230, 1.139e-2
-1.231, 1.145e-2
-1.232, 1.149e-2
-1.233, 1.152e-2
-1.234, 1.158e-2
-1.235, 1.164e-2
-1.236, 1.169e-2
-1.237, 1.173e-2
-1.238, 1.177e-2
-1.239, 1.182e-2
-1.240, 1.188e-2
-1.241, 1.194e-2
-1.242, 1.197e-2
-1.243, 1.202e-2
-1.244, 1.207e-2
-1.245, 1.213e-2
-1.246, 1.218e-2
-1.247, 1.222e-2
-1.248, 1.225e-2
-1.249, 1.230e-2
-1.250, 1.237e-2
-1.251, 1.242e-2
-1.252, 1.246e-2
-1.253, 1.249e-2
-1.254, 1.255e-2
-1.255, 1.261e-2
-1.256, 1.267e-2
-1.257, 1.271e-2
-1.258, 1.275e-2
-1.259, 1.280e-2
-1.260, 1.286e-2
-1.261, 1.292e-2
-1.262, 1.296e-2
-1.263, 1.300e-2
-1.264, 1.304e-2
-1.265, 1.311e-2
-1.266, 1.317e-2
-1.267, 1.323e-2
-1.268, 1.326e-2
-1.269, 1.331e-2
-1.270, 1.338e-2
-1.271, 1.345e-2
-1.272, 1.349e-2
-1.273, 1.352e-2
-1.274, 1.357e-2
-1.275, 1.364e-2
-1.276, 1.370e-2
-1.277, 1.374e-2
-1.278, 1.377e-2
-1.279, 1.383e-2
-1.280, 1.389e-2
-1.281, 1.395e-2
-1.282, 1.399e-2
-1.283, 1.402e-2
-1.284, 1.408e-2
-1.285, 1.415e-2
-1.286, 1.420e-2
-1.287, 1.424e-2
-1.288, 1.427e-2
-1.289, 1.432e-2
-1.290, 1.439e-2
-1.291, 1.444e-2
-1.292, 1.448e-2
-1.293, 1.451e-2
-1.294, 1.456e-2
-1.295, 1.463e-2
-1.296, 1.469e-2
-1.297, 1.472e-2
-1.298, 1.476e-2
-1.299, 1.482e-2
-1.300, 1.488e-2
-1.301, 1.493e-2
-1.302, 1.497e-2
-1.303, 1.501e-2
-1.304, 1.508e-2
-1.305, 1.515e-2
-1.306, 1.520e-2
-1.307, 1.524e-2
-1.308, 1.528e-2
-1.309, 1.533e-2
-1.310, 1.540e-2
-1.311, 1.546e-2
-1.312, 1.549e-2
-1.313, 1.553e-2
-1.314, 1.558e-2
-1.315, 1.564e-2
-1.316, 1.569e-2
-1.317, 1.576e-2
-1.318, 1.582e-2
-1.319, 1.586e-2
-1.320, 1.591e-2
-1.321, 1.597e-2
-1.322, 1.601e-2
-1.323, 1.605e-2
-1.324, 1.611e-2
-1.325, 1.617e-2
-1.326, 1.622e-2
-1.327, 1.626e-2
-1.328, 1.629e-2
-1.329, 1.634e-2
-1.330, 1.640e-2
-1.331, 1.646e-2
-1.332, 1.649e-2
-1.333, 1.652e-2
-1.334, 1.657e-2
-1.335, 1.664e-2
-1.336, 1.670e-2
-1.337, 1.675e-2
-1.338, 1.679e-2
-1.339, 1.684e-2
-1.340, 1.690e-2
-1.341, 1.697e-2
-1.342, 1.701e-2
-1.343, 1.705e-2
-1.344, 1.710e-2
-1.345, 1.717e-2
-1.346, 1.723e-2
-1.347, 1.727e-2
-1.348, 1.731e-2
-1.349, 1.736e-2
-1.350, 1.743e-2
-1.351, 1.748e-2
-1.352, 1.752e-2
-1.353, 1.756e-2
-1.354, 1.762e-2
-1.355, 1.768e-2
-1.356, 1.775e-2
-1.357, 1.779e-2
-1.358, 1.783e-2
-1.359, 1.789e-2
-1.360, 1.796e-2
-1.361, 1.801e-2
-1.362, 1.805e-2
-1.363, 1.808e-2
-1.364, 1.814e-2
-1.365, 1.821e-2
-1.366, 1.827e-2
-1.367, 1.831e-2
-1.368, 1.834e-2
-1.369, 1.840e-2
-1.370, 1.846e-2
-1.371, 1.851e-2
-1.372, 1.854e-2
-1.373, 1.855e-2
-1.374, 1.861e-2
-1.375, 1.871e-2
-1.376, 1.877e-2
-1.377, 1.879e-2
-1.378, 1.882e-2
-1.379, 1.888e-2
-1.380, 1.894e-2
-1.381, 1.900e-2
-1.382, 1.903e-2
-1.383, 1.906e-2
-1.384, 1.910e-2
-1.385, 1.916e-2
-1.386, 1.924e-2
-1.387, 1.930e-2
-1.388, 1.934e-2
-1.389, 1.939e-2
-1.390, 1.946e-2
-1.391, 1.951e-2
-1.392, 1.954e-2
-1.393, 1.957e-2
-1.394, 1.963e-2
-1.395, 1.969e-2
-1.396, 1.974e-2
-1.397, 1.978e-2
-1.398, 1.982e-2
-1.399, 1.987e-2
-1.400, 1.985e-2
-1.399, 1.964e-2
-1.398, 1.942e-2
-1.397, 1.920e-2
-1.396, 1.900e-2
-1.395, 1.882e-2
-1.394, 1.863e-2
-1.393, 1.842e-2
-1.392, 1.820e-2
-1.391, 1.801e-2
-1.390, 1.782e-2
-1.389, 1.764e-2
-1.388, 1.743e-2
-1.387, 1.722e-2
-1.386, 1.703e-2
-1.385, 1.686e-2
-1.384, 1.667e-2
-1.383, 1.648e-2
-1.382, 1.627e-2
-1.381, 1.610e-2
-1.380, 1.593e-2
-1.379, 1.575e-2
-1.378, 1.555e-2
-1.377, 1.536e-2
-1.376, 1.518e-2
-1.375, 1.502e-2
-1.374, 1.485e-2
-1.373, 1.466e-2
-1.372, 1.448e-2
-1.371, 1.431e-2
-1.370, 1.416e-2
-1.369, 1.401e-2
-1.368, 1.383e-2
-1.367, 1.364e-2
-1.366, 1.347e-2
-1.365, 1.332e-2
-1.364, 1.316e-2
-1.363, 1.299e-2
-1.362, 1.281e-2
-1.361, 1.266e-2
-1.360, 1.251e-2
-1.359, 1.236e-2
-1.358, 1.219e-2
-1.357, 1.201e-2
-1.356, 1.185e-2
-1.355, 1.171e-2
-1.354, 1.156e-2
-1.353, 1.139e-2
-1.352, 1.122e-2
-1.351, 1.107e-2
-1.350, 1.093e-2
-1.349, 1.078e-2
-1.348, 1.061e-2
-1.347, 1.045e-2
-1.346, 1.029e-2
-1.345, 1.016e-2
-1.344, 1.001e-2
-1.343, 9.854e-3
-1.342, 9.690e-3
-1.341, 9.549e-3
-1.340, 9.416e-3
-1.339, 9.277e-3
-1.338, 9.117e-3
-1.337, 8.954e-3
-1.336, 8.812e-3
-1.335, 8.676e-3
-1.334, 8.540e-3
-1.333, 8.389e-3
-1.332, 8.235e-3
-1.331, 8.099e-3
-1.330, 7.976e-3
-1.329, 7.844e-3
-1.328, 7.696e-3
-1.327, 7.545e-3
-1.326, 7.409e-3
-1.325, 7.292e-3
-1.324, 7.162e-3
-1.323, 7.017e-3
-1.322, 6.875e-3
-1.321, 6.749e-3
-1.320, 6.638e-3
-1.319, 6.518e-3
-1.318, 6.379e-3
-1.317, 6.237e-3
-1.316, 6.114e-3
-1.315, 6.003e-3
-1.314, 5.886e-3
-1.313, 5.750e-3
-1.312, 5.614e-3
-1.311, 5.491e-3
-1.310, 5.386e-3
-1.309, 5.272e-3
-1.308, 5.137e-3
-1.307, 5.004e-3
-1.306, 4.887e-3
-1.305, 4.782e-3
-1.304, 4.668e-3
-1.303, 4.542e-3
-1.302, 4.409e-3
-1.301, 4.295e-3
-1.300, 4.193e-3
-1.299, 4.085e-3
-1.298, 3.962e-3
-1.297, 3.832e-3
-1.296, 3.721e-3
-1.295, 3.626e-3
-1.294, 3.521e-3
-1.293, 3.398e-3
-1.292, 3.274e-3
-1.291, 3.167e-3
-1.290, 3.074e-3
-1.289, 2.972e-3
-1.288, 2.858e-3
-1.287, 2.738e-3
-1.286, 2.636e-3
-1.285, 2.547e-3
-1.284, 2.448e-3
-1.283, 2.331e-3
-1.282, 2.214e-3
-1.281, 2.112e-3
-1.280, 2.023e-3
-1.279, 1.933e-3
-1.278, 1.822e-3
-1.277, 1.711e-3
-1.276, 1.613e-3
-1.275, 1.529e-3
-1.274, 1.437e-3
-1.273, 1.326e-3
-1.272, 1.218e-3
-1.271, 1.122e-3
-1.270, 1.045e-3
-1.269, 9.590e-4
-1.268, 8.542e-4
-1.267, 7.463e-4
-1.266, 6.569e-4
-1.265, 5.798e-4
-1.264, 4.996e-4
-1.263, 3.979e-4
-1.262, 2.931e-4
-1.261, 2.067e-4
-1.260, 1.327e-4
-1.259, 5.257e-5
-1.258, -4.609e-5
-1.257, -1.478e-4
-1.256, -2.311e-4
-1.255, -2.989e-4
-1.254, -3.760e-4
-1.253, -4.716e-4
-1.252, -5.702e-4
-1.251, -6.504e-4
-1.250, -7.182e-4
-1.249, -7.922e-4
-1.248, -8.847e-4
-1.247, -9.803e-4
-1.246, -1.057e-3
-1.245, -1.122e-3
-1.244, -1.193e-3
-1.243, -1.286e-3
-1.242, -1.378e-3
-1.241, -1.452e-3
-1.240, -1.517e-3
-1.239, -1.585e-3
-1.238, -1.671e-3
-1.237, -1.763e-3
-1.236, -1.834e-3
-1.235, -1.896e-3
-1.234, -1.961e-3
-1.233, -2.047e-3
-1.232, -2.130e-3
-1.231, -2.201e-3
-1.230, -2.257e-3
-1.229, -2.325e-3
-1.228, -2.411e-3
-1.227, -2.494e-3
-1.226, -2.565e-3
-1.225, -2.620e-3
-1.224, -2.685e-3
-1.223, -2.762e-3
-1.222, -2.846e-3
-1.221, -2.913e-3
-1.220, -2.966e-3
-1.219, -3.024e-3
-1.218, -3.105e-3
-1.217, -3.188e-3
-1.216, -3.253e-3
-1.215, -3.305e-3
-1.214, -3.360e-3
-1.213, -3.441e-3
-1.212, -3.521e-3
-1.211, -3.582e-3
-1.210, -3.632e-3
-1.209, -3.693e-3
-1.208, -3.767e-3
-1.207, -3.844e-3
-1.206, -3.906e-3
-1.205, -3.955e-3
-1.204, -4.011e-3
-1.203, -4.085e-3
-1.202, -4.162e-3
-1.201, -4.224e-3
-1.200, -4.273e-3
-1.199, -4.325e-3
-1.198, -4.399e-3
-1.197, -4.473e-3
-1.196, -4.529e-3
-1.195, -4.575e-3
-1.194, -4.628e-3
-1.193, -4.699e-3
-1.192, -4.769e-3
-1.191, -4.831e-3
-1.190, -4.874e-3
-1.189, -4.927e-3
-1.188, -4.998e-3
-1.187, -5.072e-3
-1.186, -5.127e-3
-1.185, -5.170e-3
-1.184, -5.223e-3
-1.183, -5.294e-3
-1.182, -5.368e-3
-1.181, -5.423e-3
-1.180, -5.463e-3
-1.179, -5.522e-3
-1.178, -5.599e-3
-1.177, -5.673e-3
-1.176, -5.725e-3
-1.175, -5.768e-3
-1.174, -5.818e-3
-1.173, -5.886e-3
-1.172, -5.956e-3
-1.171, -6.006e-3
-1.170, -6.040e-3
-1.169, -6.092e-3
-1.168, -6.172e-3
-1.167, -6.252e-3
-1.166, -6.302e-3
-1.165, -6.336e-3
-1.164, -6.385e-3
-1.163, -6.453e-3
-1.162, -6.527e-3
-1.161, -6.576e-3
-1.160, -6.613e-3
-1.159, -6.659e-3
-1.158, -6.727e-3
-1.157, -6.795e-3
-1.156, -6.844e-3
-1.155, -6.881e-3
-1.154, -6.925e-3
-1.153, -6.980e-3
-1.152, -7.048e-3
-1.151, -7.100e-3
-1.150, -7.134e-3
-1.149, -7.183e-3
-1.148, -7.248e-3
-1.147, -7.316e-3
-1.146, -7.372e-3
-1.145, -7.412e-3
-1.144, -7.458e-3
-1.143, -7.526e-3
-1.142, -7.597e-3
-1.141, -7.649e-3
-1.140, -7.689e-3
-1.139, -7.735e-3
-1.138, -7.797e-3
-1.137, -7.865e-3
-1.136, -7.914e-3
-1.135, -7.951e-3
-1.134, -7.991e-3
-1.133, -8.059e-3
-1.132, -8.133e-3
-1.131, -8.189e-3
-1.130, -8.229e-3
-1.129, -8.275e-3
-1.128, -8.340e-3
-1.127, -8.411e-3
-1.126, -8.466e-3
-1.125, -8.503e-3
-1.124, -8.549e-3
-1.123, -8.614e-3
-1.122, -8.685e-3
-1.121, -8.737e-3
-1.120, -8.777e-3
-1.119, -8.818e-3
-1.118, -8.876e-3
-1.117, -8.938e-3
-1.116, -8.987e-3
-1.115, -9.021e-3
-1.114, -9.064e-3
-1.113, -9.132e-3
-1.112, -9.197e-3
-1.111, -9.249e-3
-1.110, -9.286e-3
-1.109, -9.332e-3
-1.108, -9.400e-3
-1.107, -9.465e-3
-1.106, -9.514e-3
-1.105, -9.551e-3
-1.104, -9.594e-3
-1.103, -9.656e-3
-1.102, -9.718e-3
-1.101, -9.767e-3
-1.100, -9.801e-3
-1.099, -9.844e-3
-1.098, -9.903e-3
-1.097, -9.971e-3
-1.096, -1.002e-2
-1.095, -1.005e-2
-1.094, -1.009e-2
-1.093, -1.016e-2
-1.092, -1.022e-2
-1.091, -1.027e-2
-1.090, -1.031e-2
-1.089, -1.035e-2
-1.088, -1.041e-2
-1.087, -1.048e-2
-1.086, -1.053e-2
-1.085, -1.056e-2
-1.084, -1.061e-2
-1.083, -1.067e-2
-1.082, -1.073e-2
-1.081, -1.078e-2
-1.080, -1.081e-2
-1.079, -1.085e-2
-1.078, -1.091e-2
-1.077, -1.097e-2
-1.076, -1.102e-2
-1.075, -1.105e-2
-1.074, -1.109e-2
-1.073, -1.115e-2
-1.072, -1.121e-2
-1.071, -1.126e-2
-1.070, -1.129e-2
-1.069, -1.134e-2
-1.068, -1.140e-2
-1.067, -1.147e-2
-1.066, -1.152e-2
-1.065, -1.156e-2
-1.064, -1.160e-2
-1.063, -1.165e-2
-1.062, -1.171e-2
-1.061, -1.175e-2
-1.060, -1.179e-2
-1.059, -1.183e-2
-1.058, -1.189e-2
-1.057, -1.195e-2
-1.056, -1.199e-2
-1.055, -1.201e-2
-1.054, -1.205e-2
-1.053, -1.211e-2
-1.052, -1.217e-2
-1.051, -1.222e-2
-1.050, -1.225e-2
-1.049, -1.229e-2
-1.048, -1.235e-2
-1.047, -1.240e-2
-1.046, -1.244e-2
-1.045, -1.246e-2
-1.044, -1.250e-2
-1.043, -1.256e-2
-1.042, -1.262e-2
-1.041, -1.267e-2
-1.040, -1.270e-2
-1.039, -1.273e-2
-1.038, -1.279e-2
-1.037, -1.285e-2
-1.036, -1.289e-2
-1.035, -1.292e-2
-1.034, -1.296e-2
-1.033, -1.301e-2
-1.032, -1.307e-2
-1.031, -1.311e-2
-1.030, -1.314e-2
-1.029, -1.316e-2
-1.028, -1.321e-2
-1.027, -1.328e-2
-1.026, -1.333e-2
-1.025, -1.337e-2
-1.024, -1.340e-2
-1.023, -1.346e-2
-1.022, -1.352e-2
-1.021, -1.356e-2
-1.020, -1.358e-2
-1.019, -1.361e-2
-1.018, -1.365e-2
-1.017, -1.370e-2
-1.016, -1.374e-2
-1.015, -1.376e-2
-1.014, -1.379e-2
-1.013, -1.385e-2
-1.012, -1.391e-2
-1.011, -1.395e-2
-1.010, -1.398e-2
-1.009, -1.402e-2
-1.008, -1.406e-2
-1.007, -1.411e-2
-1.006, -1.415e-2
-1.005, -1.417e-2
-1.004, -1.420e-2
-1.003, -1.424e-2
-1.002, -1.429e-2
-1.001, -1.433e-2
