Dec. 17, 2024   23:06:11
Cyclic Voltammetry
File: c:/users/guazh/data/banditlqround7_x0exp667_r5/2024-12-16-exp685\exp685-2024-12-17t22_59_41-h2koh\exp685_cv_sr_200mvs_efin_-1400mv.bin
Data Source:  Experiment
Instrument Model:  CHI760E
Header: CV ran at 200 mVs
Note: 

Init E (V) = -1
High E (V) = -1
Low E (V) = -1.4
Final E (V) = -1
Init P/N = N
Scan Rate (V/s) = 0.2
Segment = 3
Sample Interval (V) = 0.001
Quiet Time (sec) = 2
Sensitivity (A/V) = 0.01
Comp R (ohm) = 1.1

Results:

Channel 1:
Segment 1:

Segment 2:

Segment 3:

Potential/V, Current/A

-1.000, -1.401e-3
-1.001, -1.291e-3
-1.002, -1.170e-3
-1.003, -1.036e-3
-1.004, -9.363e-4
-1.005, -8.419e-4
-1.006, -7.203e-4
-1.007, -6.205e-4
-1.008, -5.437e-4
-1.009, -4.391e-4
-1.010, -3.387e-4
-1.011, -2.681e-4
-1.012, -1.820e-4
-1.013, -8.021e-5
-1.014, -9.237e-6
-1.015, 5.978e-5
-1.016, 1.559e-4
-1.017, 2.324e-4
-1.018, 2.897e-4
-1.019, 3.741e-4
-1.020, 4.570e-4
-1.021, 5.093e-4
-1.022, 5.788e-4
-1.023, 6.652e-4
-1.024, 7.213e-4
-1.025, 7.756e-4
-1.026, 8.583e-4
-1.027, 9.220e-4
-1.028, 9.661e-4
-1.029, 1.038e-3
-1.030, 1.109e-3
-1.031, 1.150e-3
-1.032, 1.207e-3
-1.033, 1.282e-3
-1.034, 1.328e-3
-1.035, 1.372e-3
-1.036, 1.444e-3
-1.037, 1.499e-3
-1.038, 1.534e-3
-1.039, 1.599e-3
-1.040, 1.662e-3
-1.041, 1.695e-3
-1.042, 1.746e-3
-1.043, 1.816e-3
-1.044, 1.855e-3
-1.045, 1.891e-3
-1.046, 1.956e-3
-1.047, 2.005e-3
-1.048, 2.034e-3
-1.049, 2.092e-3
-1.050, 2.149e-3
-1.051, 2.177e-3
-1.052, 2.221e-3
-1.053, 2.287e-3
-1.054, 2.321e-3
-1.055, 2.355e-3
-1.056, 2.418e-3
-1.057, 2.465e-3
-1.058, 2.487e-3
-1.059, 2.541e-3
-1.060, 2.596e-3
-1.061, 2.620e-3
-1.062, 2.663e-3
-1.063, 2.722e-3
-1.064, 2.752e-3
-1.065, 2.781e-3
-1.066, 2.838e-3
-1.067, 2.880e-3
-1.068, 2.902e-3
-1.069, 2.954e-3
-1.070, 3.006e-3
-1.071, 3.028e-3
-1.072, 3.067e-3
-1.073, 3.126e-3
-1.074, 3.155e-3
-1.075, 3.185e-3
-1.076, 3.243e-3
-1.077, 3.283e-3
-1.078, 3.303e-3
-1.079, 3.353e-3
-1.080, 3.404e-3
-1.081, 3.425e-3
-1.082, 3.463e-3
-1.083, 3.522e-3
-1.084, 3.550e-3
-1.085, 3.577e-3
-1.086, 3.635e-3
-1.087, 3.677e-3
-1.088, 3.694e-3
-1.089, 3.743e-3
-1.090, 3.794e-3
-1.091, 3.816e-3
-1.092, 3.854e-3
-1.093, 3.912e-3
-1.094, 3.938e-3
-1.095, 3.964e-3
-1.096, 4.022e-3
-1.097, 4.065e-3
-1.098, 4.084e-3
-1.099, 4.136e-3
-1.100, 4.185e-3
-1.101, 4.202e-3
-1.102, 4.240e-3
-1.103, 4.302e-3
-1.104, 4.334e-3
-1.105, 4.358e-3
-1.106, 4.411e-3
-1.107, 4.461e-3
-1.108, 4.484e-3
-1.109, 4.530e-3
-1.110, 4.582e-3
-1.111, 4.601e-3
-1.112, 4.640e-3
-1.113, 4.698e-3
-1.114, 4.720e-3
-1.115, 4.744e-3
-1.116, 4.799e-3
-1.117, 4.837e-3
-1.118, 4.859e-3
-1.119, 4.906e-3
-1.120, 4.955e-3
-1.121, 4.980e-3
-1.122, 5.021e-3
-1.123, 5.082e-3
-1.124, 5.114e-3
-1.125, 5.142e-3
-1.126, 5.200e-3
-1.127, 5.243e-3
-1.128, 5.265e-3
-1.129, 5.313e-3
-1.130, 5.364e-3
-1.131, 5.387e-3
-1.132, 5.424e-3
-1.133, 5.479e-3
-1.134, 5.510e-3
-1.135, 5.544e-3
-1.136, 5.604e-3
-1.137, 5.647e-3
-1.138, 5.669e-3
-1.139, 5.718e-3
-1.140, 5.772e-3
-1.141, 5.798e-3
-1.142, 5.841e-3
-1.143, 5.906e-3
-1.144, 5.937e-3
-1.145, 5.970e-3
-1.146, 6.017e-3
-1.147, 6.048e-3
-1.148, 6.072e-3
-1.149, 6.125e-3
-1.150, 6.180e-3
-1.151, 6.206e-3
-1.152, 6.247e-3
-1.153, 6.300e-3
-1.154, 6.315e-3
-1.155, 6.329e-3
-1.156, 6.378e-3
-1.157, 6.424e-3
-1.158, 6.445e-3
-1.159, 6.490e-3
-1.160, 6.549e-3
-1.161, 6.571e-3
-1.162, 6.609e-3
-1.163, 6.668e-3
-1.164, 6.700e-3
-1.165, 6.734e-3
-1.166, 6.805e-3
-1.167, 6.848e-3
-1.168, 6.861e-3
-1.169, 6.905e-3
-1.170, 6.951e-3
-1.171, 6.971e-3
-1.172, 7.009e-3
-1.173, 7.066e-3
-1.174, 7.085e-3
-1.175, 7.109e-3
-1.176, 7.170e-3
-1.177, 7.216e-3
-1.178, 7.246e-3
-1.179, 7.308e-3
-1.180, 7.367e-3
-1.181, 7.395e-3
-1.182, 7.433e-3
-1.183, 7.486e-3
-1.184, 7.515e-3
-1.185, 7.541e-3
-1.186, 7.603e-3
-1.187, 7.644e-3
-1.188, 7.662e-3
-1.189, 7.715e-3
-1.190, 7.769e-3
-1.191, 7.792e-3
-1.192, 7.828e-3
-1.193, 7.885e-3
-1.194, 7.921e-3
-1.195, 7.952e-3
-1.196, 8.008e-3
-1.197, 8.047e-3
-1.198, 8.062e-3
-1.199, 8.113e-3
-1.200, 8.172e-3
-1.201, 8.198e-3
-1.202, 8.240e-3
-1.203, 8.303e-3
-1.204, 8.334e-3
-1.205, 8.360e-3
-1.206, 8.421e-3
-1.207, 8.465e-3
-1.208, 8.479e-3
-1.209, 8.528e-3
-1.210, 8.579e-3
-1.211, 8.602e-3
-1.212, 8.638e-3
-1.213, 8.697e-3
-1.214, 8.727e-3
-1.215, 8.755e-3
-1.216, 8.813e-3
-1.217, 8.862e-3
-1.218, 8.888e-3
-1.219, 8.941e-3
-1.220, 8.996e-3
-1.221, 9.017e-3
-1.222, 9.056e-3
-1.223, 9.120e-3
-1.224, 9.152e-3
-1.225, 9.185e-3
-1.226, 9.243e-3
-1.227, 9.284e-3
-1.228, 9.309e-3
-1.229, 9.364e-3
-1.230, 9.420e-3
-1.231, 9.445e-3
-1.232, 9.486e-3
-1.233, 9.551e-3
-1.234, 9.582e-3
-1.235, 9.607e-3
-1.236, 9.666e-3
-1.237, 9.711e-3
-1.238, 9.735e-3
-1.239, 9.784e-3
-1.240, 9.836e-3
-1.241, 9.860e-3
-1.242, 9.901e-3
-1.243, 9.964e-3
-1.244, 9.999e-3
-1.245, 1.003e-2
-1.246, 1.009e-2
-1.247, 1.013e-2
-1.248, 1.016e-2
-1.249, 1.022e-2
-1.250, 1.027e-2
-1.251, 1.030e-2
-1.252, 1.034e-2
-1.253, 1.040e-2
-1.254, 1.043e-2
-1.255, 1.046e-2
-1.256, 1.053e-2
-1.257, 1.058e-2
-1.258, 1.060e-2
-1.259, 1.066e-2
-1.260, 1.071e-2
-1.261, 1.074e-2
-1.262, 1.078e-2
-1.263, 1.084e-2
-1.264, 1.088e-2
-1.265, 1.090e-2
-1.266, 1.097e-2
-1.267, 1.101e-2
-1.268, 1.103e-2
-1.269, 1.108e-2
-1.270, 1.114e-2
-1.271, 1.117e-2
-1.272, 1.121e-2
-1.273, 1.129e-2
-1.274, 1.133e-2
-1.275, 1.136e-2
-1.276, 1.142e-2
-1.277, 1.148e-2
-1.278, 1.151e-2
-1.279, 1.157e-2
-1.280, 1.164e-2
-1.281, 1.167e-2
-1.282, 1.171e-2
-1.283, 1.178e-2
-1.284, 1.182e-2
-1.285, 1.185e-2
-1.286, 1.191e-2
-1.287, 1.196e-2
-1.288, 1.199e-2
-1.289, 1.204e-2
-1.290, 1.209e-2
-1.291, 1.212e-2
-1.292, 1.217e-2
-1.293, 1.223e-2
-1.294, 1.227e-2
-1.295, 1.231e-2
-1.296, 1.238e-2
-1.297, 1.243e-2
-1.298, 1.246e-2
-1.299, 1.251e-2
-1.300, 1.257e-2
-1.301, 1.260e-2
-1.302, 1.264e-2
-1.303, 1.270e-2
-1.304, 1.274e-2
-1.305, 1.278e-2
-1.306, 1.284e-2
-1.307, 1.290e-2
-1.308, 1.292e-2
-1.309, 1.297e-2
-1.310, 1.304e-2
-1.311, 1.307e-2
-1.312, 1.312e-2
-1.313, 1.319e-2
-1.314, 1.323e-2
-1.315, 1.326e-2
-1.316, 1.334e-2
-1.317, 1.340e-2
-1.318, 1.343e-2
-1.319, 1.348e-2
-1.320, 1.354e-2
-1.321, 1.356e-2
-1.322, 1.359e-2
-1.323, 1.365e-2
-1.324, 1.368e-2
-1.325, 1.373e-2
-1.326, 1.380e-2
-1.327, 1.385e-2
-1.328, 1.388e-2
-1.329, 1.393e-2
-1.330, 1.400e-2
-1.331, 1.403e-2
-1.332, 1.408e-2
-1.333, 1.416e-2
-1.334, 1.420e-2
-1.335, 1.424e-2
-1.336, 1.432e-2
-1.337, 1.437e-2
-1.338, 1.441e-2
-1.339, 1.446e-2
-1.340, 1.452e-2
-1.341, 1.454e-2
-1.342, 1.458e-2
-1.343, 1.464e-2
-1.344, 1.467e-2
-1.345, 1.469e-2
-1.346, 1.475e-2
-1.347, 1.479e-2
-1.348, 1.481e-2
-1.349, 1.485e-2
-1.350, 1.491e-2
-1.351, 1.494e-2
-1.352, 1.498e-2
-1.353, 1.504e-2
-1.354, 1.508e-2
-1.355, 1.511e-2
-1.356, 1.517e-2
-1.357, 1.521e-2
-1.358, 1.524e-2
-1.359, 1.531e-2
-1.360, 1.538e-2
-1.361, 1.541e-2
-1.362, 1.546e-2
-1.363, 1.553e-2
-1.364, 1.557e-2
-1.365, 1.561e-2
-1.366, 1.567e-2
-1.367, 1.572e-2
-1.368, 1.574e-2
-1.369, 1.580e-2
-1.370, 1.586e-2
-1.371, 1.588e-2
-1.372, 1.592e-2
-1.373, 1.599e-2
-1.374, 1.603e-2
-1.375, 1.605e-2
-1.376, 1.610e-2
-1.377, 1.614e-2
-1.378, 1.615e-2
-1.379, 1.619e-2
-1.380, 1.624e-2
-1.381, 1.625e-2
-1.382, 1.628e-2
-1.383, 1.633e-2
-1.384, 1.635e-2
-1.385, 1.637e-2
-1.386, 1.642e-2
-1.387, 1.646e-2
-1.388, 1.647e-2
-1.389, 1.652e-2
-1.390, 1.658e-2
-1.391, 1.660e-2
-1.392, 1.663e-2
-1.393, 1.669e-2
-1.394, 1.672e-2
-1.395, 1.675e-2
-1.396, 1.681e-2
-1.397, 1.686e-2
-1.398, 1.689e-2
-1.399, 1.694e-2
-1.400, 1.686e-2
-1.399, 1.661e-2
-1.398, 1.639e-2
-1.397, 1.620e-2
-1.396, 1.597e-2
-1.395, 1.574e-2
-1.394, 1.555e-2
-1.393, 1.534e-2
-1.392, 1.512e-2
-1.391, 1.494e-2
-1.390, 1.477e-2
-1.389, 1.456e-2
-1.388, 1.435e-2
-1.387, 1.417e-2
-1.386, 1.397e-2
-1.385, 1.377e-2
-1.384, 1.360e-2
-1.383, 1.342e-2
-1.382, 1.322e-2
-1.381, 1.305e-2
-1.380, 1.288e-2
-1.379, 1.268e-2
-1.378, 1.249e-2
-1.377, 1.233e-2
-1.376, 1.215e-2
-1.375, 1.197e-2
-1.374, 1.180e-2
-1.373, 1.163e-2
-1.372, 1.144e-2
-1.371, 1.127e-2
-1.370, 1.112e-2
-1.369, 1.094e-2
-1.368, 1.076e-2
-1.367, 1.062e-2
-1.366, 1.045e-2
-1.365, 1.028e-2
-1.364, 1.014e-2
-1.363, 9.982e-3
-1.362, 9.804e-3
-1.361, 9.656e-3
-1.360, 9.516e-3
-1.359, 9.345e-3
-1.358, 9.185e-3
-1.357, 9.050e-3
-1.356, 8.890e-3
-1.355, 8.728e-3
-1.354, 8.600e-3
-1.353, 8.456e-3
-1.352, 8.294e-3
-1.351, 8.165e-3
-1.350, 8.040e-3
-1.349, 7.885e-3
-1.348, 7.737e-3
-1.347, 7.610e-3
-1.346, 7.463e-3
-1.345, 7.315e-3
-1.344, 7.196e-3
-1.343, 7.066e-3
-1.342, 6.914e-3
-1.341, 6.787e-3
-1.340, 6.667e-3
-1.339, 6.520e-3
-1.338, 6.380e-3
-1.337, 6.275e-3
-1.336, 6.138e-3
-1.335, 5.996e-3
-1.334, 5.893e-3
-1.333, 5.771e-3
-1.332, 5.627e-3
-1.331, 5.513e-3
-1.330, 5.405e-3
-1.329, 5.267e-3
-1.328, 5.142e-3
-1.327, 5.039e-3
-1.326, 4.912e-3
-1.325, 4.781e-3
-1.324, 4.688e-3
-1.323, 4.585e-3
-1.322, 4.453e-3
-1.321, 4.352e-3
-1.320, 4.256e-3
-1.319, 4.129e-3
-1.318, 4.015e-3
-1.317, 3.924e-3
-1.316, 3.808e-3
-1.315, 3.689e-3
-1.314, 3.598e-3
-1.313, 3.496e-3
-1.312, 3.373e-3
-1.311, 3.277e-3
-1.310, 3.189e-3
-1.309, 3.070e-3
-1.308, 2.963e-3
-1.307, 2.883e-3
-1.306, 2.777e-3
-1.305, 2.664e-3
-1.304, 2.584e-3
-1.303, 2.493e-3
-1.302, 2.378e-3
-1.301, 2.291e-3
-1.300, 2.211e-3
-1.299, 2.100e-3
-1.298, 2.002e-3
-1.297, 1.930e-3
-1.296, 1.834e-3
-1.295, 1.732e-3
-1.294, 1.660e-3
-1.293, 1.577e-3
-1.292, 1.469e-3
-1.291, 1.390e-3
-1.290, 1.321e-3
-1.289, 1.220e-3
-1.288, 1.133e-3
-1.287, 1.069e-3
-1.286, 9.784e-4
-1.285, 8.836e-4
-1.284, 8.190e-4
-1.283, 7.445e-4
-1.282, 6.447e-4
-1.281, 5.740e-4
-1.280, 5.088e-4
-1.279, 4.158e-4
-1.278, 3.338e-4
-1.277, 2.786e-4
-1.276, 1.955e-4
-1.275, 1.066e-4
-1.274, 4.856e-5
-1.273, -1.988e-5
-1.272, -1.122e-4
-1.271, -1.762e-4
-1.270, -2.334e-4
-1.269, -3.202e-4
-1.268, -3.950e-4
-1.267, -4.450e-4
-1.266, -5.220e-4
-1.265, -6.053e-4
-1.264, -6.557e-4
-1.263, -7.186e-4
-1.262, -8.065e-4
-1.261, -8.643e-4
-1.260, -9.158e-4
-1.259, -9.964e-4
-1.258, -1.067e-3
-1.257, -1.111e-3
-1.256, -1.181e-3
-1.255, -1.259e-3
-1.254, -1.306e-3
-1.253, -1.362e-3
-1.252, -1.444e-3
-1.251, -1.497e-3
-1.250, -1.544e-3
-1.249, -1.621e-3
-1.248, -1.684e-3
-1.247, -1.725e-3
-1.246, -1.792e-3
-1.245, -1.865e-3
-1.244, -1.909e-3
-1.243, -1.958e-3
-1.242, -2.035e-3
-1.241, -2.086e-3
-1.240, -2.126e-3
-1.239, -2.199e-3
-1.238, -2.261e-3
-1.237, -2.294e-3
-1.236, -2.359e-3
-1.235, -2.430e-3
-1.234, -2.468e-3
-1.233, -2.517e-3
-1.232, -2.590e-3
-1.231, -2.637e-3
-1.230, -2.674e-3
-1.229, -2.747e-3
-1.228, -2.809e-3
-1.227, -2.842e-3
-1.226, -2.903e-3
-1.225, -2.971e-3
-1.224, -3.006e-3
-1.223, -3.053e-3
-1.222, -3.124e-3
-1.221, -3.167e-3
-1.220, -3.205e-3
-1.219, -3.272e-3
-1.218, -3.331e-3
-1.217, -3.362e-3
-1.216, -3.418e-3
-1.215, -3.483e-3
-1.214, -3.515e-3
-1.213, -3.562e-3
-1.212, -3.633e-3
-1.211, -3.676e-3
-1.210, -3.711e-3
-1.209, -3.772e-3
-1.208, -3.828e-3
-1.207, -3.863e-3
-1.206, -3.923e-3
-1.205, -3.987e-3
-1.204, -4.017e-3
-1.203, -4.061e-3
-1.202, -4.131e-3
-1.201, -4.175e-3
-1.200, -4.208e-3
-1.199, -4.271e-3
-1.198, -4.322e-3
-1.197, -4.353e-3
-1.196, -4.411e-3
-1.195, -4.473e-3
-1.194, -4.505e-3
-1.193, -4.551e-3
-1.192, -4.616e-3
-1.191, -4.659e-3
-1.190, -4.691e-3
-1.189, -4.749e-3
-1.188, -4.799e-3
-1.187, -4.830e-3
-1.186, -4.889e-3
-1.185, -4.953e-3
-1.184, -4.986e-3
-1.183, -5.028e-3
-1.182, -5.099e-3
-1.181, -5.140e-3
-1.180, -5.176e-3
-1.179, -5.240e-3
-1.178, -5.293e-3
-1.177, -5.321e-3
-1.176, -5.374e-3
-1.175, -5.444e-3
-1.174, -5.478e-3
-1.173, -5.516e-3
-1.172, -5.580e-3
-1.171, -5.620e-3
-1.170, -5.655e-3
-1.169, -5.717e-3
-1.168, -5.771e-3
-1.167, -5.800e-3
-1.166, -5.851e-3
-1.165, -5.908e-3
-1.164, -5.936e-3
-1.163, -5.978e-3
-1.162, -6.045e-3
-1.161, -6.079e-3
-1.160, -6.108e-3
-1.159, -6.170e-3
-1.158, -6.219e-3
-1.157, -6.244e-3
-1.156, -6.297e-3
-1.155, -6.358e-3
-1.154, -6.394e-3
-1.153, -6.438e-3
-1.152, -6.501e-3
-1.151, -6.541e-3
-1.150, -6.567e-3
-1.149, -6.625e-3
-1.148, -6.684e-3
-1.147, -6.716e-3
-1.146, -6.776e-3
-1.145, -6.843e-3
-1.144, -6.880e-3
-1.143, -6.928e-3
-1.142, -7.000e-3
-1.141, -7.048e-3
-1.140, -7.086e-3
-1.139, -7.153e-3
-1.138, -7.213e-3
-1.137, -7.244e-3
-1.136, -7.297e-3
-1.135, -7.364e-3
-1.134, -7.396e-3
-1.133, -7.435e-3
-1.132, -7.498e-3
-1.131, -7.530e-3
-1.130, -7.555e-3
-1.129, -7.610e-3
-1.128, -7.654e-3
-1.127, -7.674e-3
-1.126, -7.718e-3
-1.125, -7.774e-3
-1.124, -7.803e-3
-1.123, -7.840e-3
-1.122, -7.908e-3
-1.121, -7.946e-3
-1.120, -7.974e-3
-1.119, -8.035e-3
-1.118, -8.087e-3
-1.117, -8.115e-3
-1.116, -8.169e-3
-1.115, -8.232e-3
-1.114, -8.265e-3
-1.113, -8.305e-3
-1.112, -8.370e-3
-1.111, -8.412e-3
-1.110, -8.443e-3
-1.109, -8.506e-3
-1.108, -8.560e-3
-1.107, -8.586e-3
-1.106, -8.642e-3
-1.105, -8.704e-3
-1.104, -8.734e-3
-1.103, -8.770e-3
-1.102, -8.837e-3
-1.101, -8.878e-3
-1.100, -8.904e-3
-1.099, -8.965e-3
-1.098, -9.019e-3
-1.097, -9.043e-3
-1.096, -9.094e-3
-1.095, -9.149e-3
-1.094, -9.176e-3
-1.093, -9.214e-3
-1.092, -9.276e-3
-1.091, -9.321e-3
-1.090, -9.351e-3
-1.089, -9.404e-3
-1.088, -9.457e-3
-1.087, -9.483e-3
-1.086, -9.529e-3
-1.085, -9.588e-3
-1.084, -9.615e-3
-1.083, -9.647e-3
-1.082, -9.710e-3
-1.081, -9.747e-3
-1.080, -9.771e-3
-1.079, -9.830e-3
-1.078, -9.878e-3
-1.077, -9.902e-3
-1.076, -9.950e-3
-1.075, -1.001e-2
-1.074, -1.003e-2
-1.073, -1.007e-2
-1.072, -1.013e-2
-1.071, -1.017e-2
-1.070, -1.019e-2
-1.069, -1.025e-2
-1.068, -1.030e-2
-1.067, -1.033e-2
-1.066, -1.038e-2
-1.065, -1.043e-2
-1.064, -1.047e-2
-1.063, -1.050e-2
-1.062, -1.056e-2
-1.061, -1.060e-2
-1.060, -1.063e-2
-1.059, -1.068e-2
-1.058, -1.072e-2
-1.057, -1.074e-2
-1.056, -1.078e-2
-1.055, -1.083e-2
-1.054, -1.084e-2
-1.053, -1.086e-2
-1.052, -1.094e-2
-1.051, -1.097e-2
-1.050, -1.097e-2
-1.049, -1.102e-2
-1.048, -1.106e-2
-1.047, -1.107e-2
-1.046, -1.111e-2
-1.045, -1.117e-2
-1.044, -1.119e-2
-1.043, -1.122e-2
-1.042, -1.128e-2
-1.041, -1.131e-2
-1.040, -1.133e-2
-1.039, -1.138e-2
-1.038, -1.143e-2
-1.037, -1.145e-2
-1.036, -1.150e-2
-1.035, -1.156e-2
-1.034, -1.158e-2
-1.033, -1.161e-2
-1.032, -1.166e-2
-1.031, -1.169e-2
-1.030, -1.171e-2
-1.029, -1.176e-2
-1.028, -1.180e-2
-1.027, -1.182e-2
-1.026, -1.185e-2
-1.025, -1.191e-2
-1.024, -1.192e-2
-1.023, -1.195e-2
-1.022, -1.200e-2
-1.021, -1.203e-2
-1.020, -1.205e-2
-1.019, -1.210e-2
-1.018, -1.214e-2
-1.017, -1.215e-2
-1.016, -1.218e-2
-1.015, -1.222e-2
-1.014, -1.224e-2
-1.013, -1.226e-2
-1.012, -1.231e-2
-1.011, -1.234e-2
-1.010, -1.236e-2
-1.009, -1.240e-2
-1.008, -1.244e-2
-1.007, -1.244e-2
-1.006, -1.248e-2
-1.005, -1.253e-2
-1.004, -1.253e-2
-1.003, -1.255e-2
-1.002, -1.259e-2
-1.001, -1.264e-2
