Potential V vs RHE, Current mA cm-2
0.013299999999999867,17.613155683319707
0.012299999999999978,15.87306078448571
0.011299999999999866,14.130136463051985
0.010299999999999976,12.298085329726765
0.009299999999999864,10.46603419640154
0.008299999999999974,8.63398306307632
0.007299999999999862,6.933500080638546
0.006299999999999972,5.3631705377883545
0.00529999999999986,3.922994434525747
0.0042999999999999705,2.4842330425630044
0.0032999999999998586,1.0010497157844997
0.0022999999999999687,-0.5255652478998613
0.0012999999999998568,-2.095187435100119
0.00029999999999996696,-3.7093730282461257
-0.000700000000000145,-5.279702571096316
-0.0017000000000000348,-6.632166573767292
-0.0027000000000001467,-7.940774526142452
-0.0037000000000000366,-9.205526428221793
-0.0047000000000001485,-10.470278330301136
-0.005700000000000038,-11.82274233297211
-0.00670000000000015,-13.217647674639037
-0.00770000000000004,-14.65640906660178
-0.008700000000000152,-16.056973253468165
-0.009700000000000042,-17.358507649344002
-0.010700000000000154,-18.589306480226583
-0.011700000000000044,-19.678634181122664
-0.012700000000000156,-20.810403221014692
-0.013700000000000045,-21.98461359990267
-0.014700000000000157,-23.300295108777156
-0.015700000000000047,-24.559388165657033
-0.01670000000000016,-25.86092256153287
-0.01770000000000005,-27.134162731411404
-0.01870000000000016,-28.22349043230748
-0.01970000000000005,-29.31281813320356
-0.020700000000000163,-30.274821817111786
-0.021700000000000053,-31.321708179011907
-0.022700000000000164,-32.45347721890394
-0.023700000000000054,-33.627687597791926
-0.024700000000000166,-34.90092776767045
-0.025700000000000056,-36.07513814655844
-0.026700000000000168,-37.122024508458566
-0.027700000000000058,-38.08402819236679
-0.02870000000000017,-38.98944342428042
-0.02970000000000006,-39.90900576919269
-0.03070000000000017,-40.95589213109281
-0.03170000000000006,-42.04521983198889
-0.03270000000000017,-43.17698887188092
-0.03370000000000006,-44.28046368577565
-0.034700000000000175,-45.32735004767578
-0.035700000000000065,-46.19032394059345
-0.03670000000000018,-47.02500360751382
-0.03770000000000007,-47.8879775004315
-0.03870000000000018,-48.80753984534376
-0.03970000000000007,-49.81198486824794
-0.04070000000000018,-50.85887123014807
-0.04170000000000007,-51.90575759204819
-0.04270000000000018,-52.91020261495237
-0.04370000000000007,-53.7873236208687
-0.044700000000000184,-54.60785617479041
-0.045700000000000074,-55.357653163718886
-0.046700000000000186,-56.1781857176406
-0.047700000000000076,-57.182630740544774
-0.04870000000000019,-58.18707576344896
-0.04970000000000008,-59.19152078635314
-0.05070000000000019,-60.15352447026136
-0.05170000000000008,-61.01649836317903
-0.05270000000000019,-61.80873669110345
-0.05370000000000008,-62.501945228037314
-0.05470000000000019,-63.3366248949577
-0.05570000000000008,-64.19959878787537
-0.056700000000000195,-65.11916113278764
-0.057700000000000085,-66.12360615569182
-0.058700000000000196,-67.04316850060408
-0.059700000000000086,-67.96273084551636
-0.0607000000000002,-68.74082206044213
-0.06170000000000009,-69.53306038836655
-0.0627000000000002,-70.26871026429637
-0.06370000000000009,-71.0043601402262
-0.0647000000000002,-71.92392248513846
-0.06570000000000009,-72.8859261690467
-0.0667000000000002,-73.8479298529549
-0.0677000000000001,-74.76749219786718
-0.0687000000000002,-75.54558341279296
-0.0697000000000001,-76.29538040172143
-0.07070000000000021,-76.94614759965934
-0.0717000000000001,-77.7242388145851
-0.07270000000000021,-78.55891848150549
-0.0737000000000001,-79.47848082641775
-0.07470000000000021,-80.42633739732734
-0.0757000000000001,-81.3458997422396
-0.07670000000000021,-82.09569673116808
-0.0777000000000001,-82.78890526810196
-0.07870000000000021,-83.39723112704392
-0.0797000000000001,-84.09043966397778
-0.08070000000000022,-84.84023665290624
-0.0817000000000001,-85.70321054582392
-0.08270000000000022,-86.6227728907362
-0.08370000000000011,-87.54233523564847
-0.08470000000000022,-88.4194562415648
-0.08570000000000011,-89.15510611749461
-0.08670000000000022,-89.76343197643658
-0.08770000000000011,-90.47078762636909
-0.08870000000000022,-91.24887884129487
-0.08970000000000011,-92.12599984721119
-0.09070000000000022,-93.03141507912481
-0.09170000000000011,-93.95097742403709
-0.09270000000000023,-94.8280984299534
-0.09370000000000012,-95.56374830588322
-0.09470000000000023,-96.27110395581576
-0.09570000000000012,-96.96431249274961
-0.09670000000000023,-97.69996236867944
-0.09770000000000012,-98.57708337459576
-0.09870000000000023,-99.45420438051207
-0.09970000000000012,-100.40206095142165
-0.10070000000000023,-101.27918195733798
-0.10170000000000012,-102.07142028526239
-0.10270000000000024,-102.76462882219626
-0.10370000000000013,-103.37295468113824
-0.10470000000000024,-104.06616321807209
-0.10570000000000013,-104.85840154599651
-0.10670000000000024,-105.73552255191284
-0.10770000000000013,-106.64093778382647
-0.10870000000000024,-107.51805878974278
-0.10970000000000013,-108.35273845666316
-0.11070000000000024,-109.04594699359701
-0.11170000000000013,-109.69671419153494
-0.11270000000000002,-110.40406984146746
-0.11370000000000013,-111.13971971739728
-0.11470000000000002,-112.01684072331359
-0.11570000000000014,-112.92225595522721
-0.11670000000000003,-113.88425963913545
-0.11770000000000014,-114.80382198404773
-0.11870000000000003,-115.53947185997755
-0.11970000000000014,-116.24682750991008
-0.12070000000000003,-116.89759470784797
-0.12170000000000014,-117.63324458377778
-0.12270000000000003,-118.46792425069816
-0.12370000000000014,-119.38748659561045
-0.12470000000000003,-120.33534316652002
-0.12570000000000014,-121.21246417243634
-0.12670000000000003,-121.96226116136481
-0.12770000000000015,-122.65546969829869
-0.12870000000000004,-123.26379555724066
-0.12970000000000015,-123.95700409417452
-0.13070000000000004,-124.74924242209892
-0.13170000000000015,-125.6688047670112
-0.13270000000000004,-126.6732497899154
-0.13370000000000015,-127.57866502182902
-0.13470000000000004,-128.45578602774532
-0.13570000000000015,-129.1489945646792
-0.13670000000000004,-129.8563502146117
-0.13770000000000016,-130.59200009054155
-0.13870000000000005,-131.32764996647134
-0.13970000000000016,-132.20477097238768
-0.14070000000000005,-133.12433331729994
-0.14170000000000016,-134.04389566221224
-0.14270000000000005,-134.94931089412586
-0.14370000000000016,-135.65666654405837
-0.14470000000000005,-136.3923164199882
-0.14570000000000016,-137.04308361792607
-0.14670000000000005,-137.75043926785864
-0.14770000000000016,-138.57097182178035
-0.14870000000000005,-139.49053416669264
-0.14970000000000017,-140.4949791895968
-0.15070000000000006,-141.41454153450906
-0.15170000000000017,-142.17848563643616
-0.15270000000000006,-142.8858412863687
-0.15370000000000017,-143.5931969363012
-0.15470000000000006,-144.30055258623375
-0.15570000000000017,-145.14937936615277
-0.15670000000000006,-145.9982061460718
-0.15770000000000017,-146.9885040559773
-0.15870000000000006,-147.83733083589632
-0.15970000000000018,-148.82762874580186
-0.16070000000000007,-149.53498439573437
-0.16170000000000018,-150.24234004566688
-0.16270000000000007,-150.94969569559944
-0.16370000000000018,-151.65705134553193
-0.16470000000000007,-152.64734925543743
-0.16570000000000018,-153.63764716534297
-0.16670000000000007,-154.486473945262
-0.16770000000000018,-155.47677185516753
-0.16870000000000007,-156.18412750510007
-0.16970000000000018,-156.89148315503257
-0.17070000000000007,-157.59883880496508
-0.17170000000000019,-158.3061944548976
-0.17270000000000008,-159.29649236480313
-0.1737000000000002,-160.14531914472215
-0.17470000000000008,-161.1356170546277
-0.1757000000000002,-161.9844438345467
-0.17670000000000008,-162.8332706144657
-0.1777000000000002,-163.54062626439824
-0.17870000000000008,-164.10651078434424
-0.1797000000000002,-164.9553375642633
-0.18070000000000008,-165.6626932141958
-0.1817000000000002,-166.51151999411482
-0.18270000000000008,-167.50181790402033
-0.1837000000000002,-168.35064468393938
-0.1847000000000001,-169.3409425938449
-0.1857000000000002,-170.0482982437774
-0.1867000000000001,-170.61418276372342
-0.1877000000000002,-171.46300954364247
-0.1887000000000001,-172.17036519357498
-0.1897000000000002,-173.01919197349397
-0.1907000000000001,-174.0094898833995
-0.1917000000000001,-174.85831666331853
-0.19269999999999998,-175.84861457322407
-0.1937000000000001,-176.55597022315658
-0.19469999999999998,-177.4047970030756
-0.1957000000000001,-178.1121526530081
-0.19669999999999999,-178.81950830294062
-0.1977000000000001,-179.66833508285964
-0.1987,-180.5171618627787
-0.1997000000000001,-181.64893090267074
-0.2007,-182.49775768258974
-0.2017000000000001,-183.34658446250873
-0.2027,-184.05394011244127
-0.2037000000000001,-184.7612957623738
-0.2047,-185.6101225422928
-0.2057000000000001,-186.31747819222534
-0.2067,-187.16630497214436
-0.2077000000000001,-188.15660288204987
-0.2087,-189.1469007919554
-0.2097000000000001,-189.99572757187443
-0.2107,-190.70308322180696
-0.2117000000000001,-191.41043887173947
-0.2127,-192.11779452167198
-0.2137000000000001,-192.82515017160452
-0.2147,-193.81544808151003
-0.2157000000000001,-194.94721712140205
-0.2167,-195.93751503130758
-0.21770000000000012,-196.7863418112266
-0.2187,-197.63516859114563
-0.21970000000000012,-198.3425242410781
-0.2207,-199.04987989101065
-0.22170000000000012,-199.75723554094319
-0.2227,-200.7475334508487
-0.22370000000000012,-201.59636023076774
-0.2247,-202.58665814067325
-0.22570000000000012,-203.43548492059227
-0.2267,-204.2843117005113
-0.22770000000000012,-205.27460961041683
-0.22870000000000001,-205.84049413036286
-0.22970000000000013,-206.54784978029537
-0.23070000000000002,-207.3966765602144
-0.23170000000000013,-208.3869744701199
-0.23270000000000002,-209.37727238002543
-0.23370000000000013,-210.36757028993094
-0.23470000000000002,-211.21639706985
-0.23570000000000013,-212.065223849769
-0.23670000000000002,-212.77257949970152
-0.2376999999999999,-213.62140627962054
-0.23870000000000002,-214.32876192955305
-0.2396999999999999,-215.17758870947208
-0.24070000000000003,-216.0264154893911
-0.24169999999999991,-217.01671339929663
-0.24270000000000003,-217.86554017921566
-0.24369999999999992,-218.71436695913465
-0.24470000000000003,-219.42172260906716
-0.24569999999999992,-219.98760712901318
-0.24670000000000003,-220.6949627789457
-0.24769999999999992,-221.26084729889175
-0.24870000000000003,-222.10967407881074
-0.24969999999999992,-223.09997198871628
-0.25070000000000003,-224.09026989862178
-0.2516999999999999,-225.08056780852735
-0.25270000000000004,-225.78792345845983
-0.2536999999999999,-226.35380797840588
-0.25470000000000004,-227.06116362833836
-0.2556999999999999,-227.9099904082574
-0.25670000000000004,-228.75881718817644
-0.25769999999999993,-229.74911509808197
-0.25870000000000004,-230.59794187800094
-0.25969999999999993,-231.44676865792
-0.26070000000000004,-232.15412430785253
-0.26169999999999993,-232.72000882779852
-0.26270000000000004,-233.56883560771757
-0.26369999999999993,-234.27619125765005
-0.26470000000000005,-235.12501803756908
-0.26569999999999994,-236.1153159474746
-0.26670000000000005,-237.10561385738015
-0.26769999999999994,-238.0959117672857
-0.26870000000000005,-238.94473854720468
-0.26969999999999994,-239.65209419713722
-0.27070000000000005,-240.21797871708318
-0.27169999999999994,-240.92533436701575
-0.27270000000000005,-241.77416114693477
-0.27369999999999994,-242.76445905684034
-0.27470000000000006,-243.75475696674582
-0.27569999999999995,-244.60358374666484
-0.27670000000000006,-245.45241052658386
-0.27769999999999995,-246.30123730650286
-0.27870000000000006,-247.0085929564354
-0.27969999999999995,-247.71594860636796
-0.28070000000000006,-248.56477538628693
-0.28169999999999995,-249.41360216620598
-0.28270000000000006,-250.4039000761115
-0.28369999999999995,-251.39419798601702
-0.28470000000000006,-252.243024765936
-0.28569999999999995,-252.95038041586852
-0.28670000000000007,-253.51626493581452
-0.28769999999999996,-254.08214945576057
-0.28870000000000007,-254.93097623567962
-0.28969999999999996,-255.77980301559862
-0.29070000000000007,-256.77010092550415
-0.29169999999999996,-257.76039883540966
-0.29270000000000007,-258.7506967453152
-0.29369999999999996,-259.4580523952477
-0.2947000000000001,-260.3068791751668
-0.29569999999999996,-261.01423482509927
-0.2967000000000001,-261.7215904750318
-0.29769999999999996,-262.7118883849373
-0.2987000000000001,-263.56071516485633
-0.29969999999999997,-264.55101307476184
-0.3007000000000001,-265.39983985468086
-0.30169999999999997,-266.2486666345999
-0.3027000000000001,-266.9560222845325
-0.30369999999999997,-267.6633779344649
-0.3047000000000001,-268.512204714384
-0.30569999999999997,-269.361031494303
-0.3067000000000001,-270.20985827422203
-0.3077,-271.05868505414105
-0.3087000000000001,-272.04898296404656
-0.3097,-272.8978097439656
-0.3107000000000001,-273.60516539389806
-0.3117,-274.31252104383066
-0.3127000000000001,-275.0198766937631
-0.3137,-275.7272323436957
-0.3147000000000001,-276.7175302536012
-0.3157,-277.7078281635067
-0.3167000000000001,-278.6981260734122
-0.3177,-279.5469528533313
-0.3187000000000001,-280.25430850326376
-0.3197,-280.9616641531963
-0.3207000000000001,-281.66901980312883
-0.3217,-282.3763754530613
-0.3227000000000001,-283.22520223298034
-0.3237,-284.07402901289936
-0.3247000000000001,-285.0643269228049
-0.3257,-285.9131537027239
-0.3267000000000001,-286.76198048264297
-0.3277,-287.46933613257545
-0.3287000000000001,-288.03522065252145
-0.3297,-288.8840474324405
-0.3307000000000001,-289.73287421235955
-0.3317,-290.723172122265
-0.3327000000000001,-291.71347003217056
-0.3337,-292.70376794207607
-0.3347000000000001,-293.55259472199515
-0.3357,-294.4014215019141
-0.3367000000000001,-295.10877715184665
-0.3377,-295.8161328017792
-0.3387000000000001,-296.6649595816982
-0.3397,-297.51378636161724
-0.3407000000000001,-298.3626131415362
-0.3417,-299.3529110514418
-0.3427000000000001,-300.3432089613473
-0.3437,-301.0505646112798
-0.3447000000000001,-301.8993913911989
-0.3457,-302.4652759111449
-0.3467000000000001,-303.17263156107737
-0.3477,-304.0214583409964
-0.3487000000000001,-304.8702851209154
-0.3497,-306.00205416080746
-0.3507000000000001,-306.8508809407265
-0.3517,-307.69970772064545
-0.3527000000000001,-308.407063370578
-0.3537,-309.255890150497
-0.3547000000000001,-309.9632458004295
-0.3557,-310.95354371033505
-0.35670000000000013,-311.80237049025413
-0.3577,-312.9341395301461
-0.35870000000000013,-314.0659085700381
-0.3597,-314.91473534995714
-0.36070000000000013,-315.76356212987616
-0.3617,-316.47091777980876
-0.3626999999999999,-317.03680229975475
-0.3637,-317.8856290796738
-0.3646999999999999,-318.73445585959274
-0.3657,-319.58328263951176
-0.3666999999999999,-320.57358054941733
-0.3677,-321.42240732933635
-0.3686999999999999,-322.12976297926883
-0.36970000000000003,-322.83711862920137
-0.3706999999999999,-323.40300314914737
-0.37170000000000003,-324.1103587990799
-0.3726999999999999,-324.9591855789989
-0.37370000000000003,-325.80801235891795
-0.3746999999999999,-326.656839138837
-0.37570000000000003,-327.505665918756
-0.3766999999999999,-328.3544926986751
-0.37770000000000004,-329.0618483486075
-0.3786999999999999,-329.76920399854004
-0.37970000000000004,-330.4765596484726
-0.3806999999999999,-331.18391529840505
-0.38170000000000004,-332.03274207832413
-0.38269999999999993,-333.02303998822964
-0.38370000000000004,-334.01333789813515
-0.38469999999999993,-334.86216467805417
-0.38570000000000004,-335.5695203279867
-0.38669999999999993,-335.00363580804066
-0.38570000000000004,-331.89127094833765
-0.38469999999999993,-328.92037721862107
-0.38370000000000004,-326.23242574887746
-0.38269999999999993,-323.40300314914737
-0.38170000000000004,-320.57358054941733
-0.3806999999999999,-317.8856290796738
-0.37970000000000004,-315.0562064799437
-0.3786999999999999,-312.0853127502271
-0.37770000000000004,-309.1144190205105
-0.3766999999999999,-306.28499642078043
-0.37570000000000003,-303.5970449510368
-0.3746999999999999,-300.9090934812933
-0.37370000000000003,-298.50408427152274
-0.3726999999999999,-296.0990750617522
-0.37170000000000003,-293.55259472199515
-0.3706999999999999,-290.86464325225154
-0.36970000000000003,-288.03522065252145
-0.3686999999999999,-285.3472691827779
-0.3677,-282.65931771303434
-0.3666999999999999,-280.25430850326376
-0.3657,-277.84929929349323
-0.3646999999999999,-275.44429008372265
-0.3637,-273.03928087395207
-0.3626999999999999,-270.35132940420846
-0.3617,-267.6633779344649
-0.36070000000000013,-265.11689759470784
-0.3597,-262.57041725495077
-0.35870000000000013,-260.16540804518024
-0.3577,-257.90186996539614
-0.35670000000000013,-255.63833188561213
-0.3557,-253.37479380582806
-0.3547000000000001,-250.828313466071
-0.3537,-248.42330425630044
-0.3527000000000001,-245.73535278655686
-0.3517,-243.18887244679982
-0.3507000000000001,-240.78386323702924
-0.3497,-238.5203251572452
-0.3487000000000001,-236.3982582074476
-0.3477,-233.99324899767706
-0.3467000000000001,-231.729710917893
-0.3457,-229.32470170812243
-0.3447000000000001,-226.77822136836537
-0.3437,-224.37321215859478
-0.3427000000000001,-221.96820294882426
-0.3417,-219.8461359990267
-0.3407000000000001,-217.58259791924263
-0.3397,-215.4605309694451
-0.3387000000000001,-213.19699288966103
-0.3377,-210.93345480987696
-0.3367000000000001,-208.52844560010638
-0.3357,-206.12343639033585
-0.3347000000000001,-203.71842718056527
-0.3337,-201.59636023076774
-0.3327000000000001,-199.47429328097016
-0.3317,-197.35222633117263
-0.3307000000000001,-195.23015938137505
-0.3297,-192.966621301591
-0.3287000000000001,-190.70308322180696
-0.3277,-188.4395451420229
-0.3267000000000001,-186.17600706223882
-0.3257,-184.05394011244127
-0.3247000000000001,-181.93187316264374
-0.3237,-179.95127734283267
-0.3227000000000001,-177.9706815230216
-0.3217,-175.84861457322407
-0.3207000000000001,-173.58507649344
-0.3197,-171.18006728366944
-0.3187000000000001,-169.0580003338719
-0.3177,-166.93593338407433
-0.3167000000000001,-164.81386643427678
-0.3157,-162.8332706144657
-0.3147000000000001,-160.8526747946547
-0.3137,-158.87207897484362
-0.3127000000000001,-156.75001202504606
-0.3117,-154.486473945262
-0.3107000000000001,-152.36440699546444
-0.3097,-150.24234004566688
-0.3087000000000001,-148.26174422585584
-0.3077,-146.28114840604482
-0.3067000000000001,-144.44202371622026
-0.30569999999999997,-142.4614278964092
-0.3047000000000001,-140.45253785060083
-0.30369999999999997,-138.3587651268006
-0.3027000000000001,-136.2225510640044
-0.30169999999999997,-134.12877834020412
-0.3007000000000001,-132.16232963339172
-0.29969999999999997,-130.23832226557528
-0.2987000000000001,-128.41334468874936
-0.29769999999999996,-126.5317786599289
-0.2967000000000001,-124.52288861412055
-0.29569999999999996,-122.52814568131083
-0.2947000000000001,-120.47681429650652
-0.29369999999999996,-118.51036558969413
-0.29270000000000007,-116.58635822187767
-0.29169999999999996,-114.80382198404773
-0.29070000000000007,-113.10616842420968
-0.28969999999999996,-111.3094850733811
-0.28870000000000007,-109.44206615755924
-0.28769999999999996,-107.47561745074682
-0.28670000000000007,-105.50916874393444
-0.28569999999999995,-103.45783735913014
-0.28470000000000006,-101.54797710431234
-0.28369999999999995,-99.70885241448778
-0.28270000000000006,-98.01119885464975
-0.28169999999999995,-96.31354529481169
-0.28070000000000006,-94.55930328297906
-0.27969999999999995,-92.81920838414506
-0.27870000000000006,-90.93764235532454
-0.27769999999999995,-89.02778210050676
-0.27670000000000006,-87.18865741068221
-0.27569999999999995,-85.40612117285227
-0.27470000000000006,-83.75090895201016
-0.27369999999999994,-82.09569673116808
-0.27270000000000005,-80.38389605833139
-0.27169999999999994,-78.60135982050144
-0.27070000000000005,-76.71979379168094
-0.26969999999999994,-74.8523748758591
-0.26870000000000005,-72.97080884703858
-0.26769999999999994,-71.2307139482046
