Potential V vs RHE, Current mA cm-2
0.013299999999999867,14.345172580631472
0.012299999999999978,12.515950869905978
0.011299999999999866,10.683899736580756
0.010299999999999976,8.851848603255535
0.009299999999999864,7.019797469930312
0.008299999999999974,5.145304997609139
0.007299999999999862,3.2693978139880997
0.006299999999999972,1.4373466806628774
0.00529999999999986,-0.3511313446265021
0.0042999999999999705,-2.1390434853959355
0.0032999999999998586,-3.7970851288377587
0.0022999999999999687,-5.367414671687949
0.0012999999999998568,-6.93774421453814
0.00029999999999996696,-8.376505606500881
-0.000700000000000145,-9.902979099055257
-0.0017000000000000348,-11.385596541313816
-0.0027000000000001467,-12.99978213445982
-0.0037000000000000366,-14.61396772760583
-0.0047000000000001485,-16.22673860945197
-0.005700000000000038,-17.839509491298113
-0.00670000000000015,-19.367397695152352
-0.00770000000000004,-20.85284456001064
-0.008700000000000152,-22.295850085872978
-0.009700000000000042,-23.639825820744765
-0.010700000000000154,-25.04039000761115
-0.011700000000000044,-26.34192440348698
-0.012700000000000156,-27.700047251357418
-0.013700000000000045,-29.001581647233255
-0.014700000000000157,-30.444587173095588
-0.015700000000000047,-31.802710020966025
-0.01670000000000016,-33.231568433829715
-0.01770000000000005,-34.67457395969205
-0.01870000000000016,-36.03269680756248
-0.01970000000000005,-37.376672542434264
-0.020700000000000163,-38.5650300343209
-0.021700000000000053,-39.78168175220483
-0.022700000000000164,-40.91345079209687
-0.023700000000000054,-42.087661170984845
-0.024700000000000166,-43.27601866287147
-0.025700000000000056,-44.4926703807554
-0.026700000000000168,-45.75176343763528
-0.027700000000000058,-47.067444946509774
-0.02870000000000017,-48.36897934238561
-0.02970000000000006,-49.642219512264134
-0.03070000000000017,-50.90131256914402
-0.03170000000000006,-52.033081609036046
-0.03270000000000017,-53.12240930993213
-0.03370000000000006,-54.16929567183226
-0.034700000000000175,-55.17374069473642
-0.035700000000000065,-56.26306839563251
-0.03670000000000018,-57.30995475753264
-0.03770000000000007,-58.45587091042332
-0.03870000000000018,-59.6300812893113
-0.03970000000000007,-60.84673300719523
-0.04070000000000018,-62.06338472507916
-0.04170000000000007,-63.20930087796983
-0.04270000000000018,-64.34106991786187
-0.04370000000000007,-65.38795627976201
-0.044700000000000184,-66.39240130266617
-0.045700000000000074,-67.34025787357575
-0.046700000000000186,-68.30226155748396
-0.047700000000000076,-69.30670658038814
-0.04870000000000019,-70.31115160329232
-0.04970000000000008,-71.4004793041884
-0.05070000000000019,-72.48980700508447
-0.05170000000000008,-73.62157604497652
-0.05270000000000019,-74.76749219786718
-0.05370000000000008,-75.85681989876326
-0.05470000000000019,-76.9037062606634
-0.05570000000000008,-77.80912149257702
-0.056700000000000195,-78.77112517648524
-0.057700000000000085,-79.64824618240156
-0.058700000000000196,-80.52536718831789
-0.059700000000000086,-81.47322375922747
-0.0607000000000002,-82.43522744313569
-0.06170000000000009,-83.48211380503581
-0.0627000000000002,-84.48655882793999
-0.06370000000000009,-85.57588652883607
-0.0647000000000002,-86.6227728907362
-0.06570000000000009,-87.62721791364037
-0.0667000000000002,-88.5892215975486
-0.0677000000000001,-89.46634260346492
-0.0687000000000002,-90.32931649638259
-0.0697000000000001,-91.12155482430701
-0.07070000000000021,-92.04111716921928
-0.0717000000000001,-92.90409106213696
-0.07270000000000021,-93.90853608504113
-0.0737000000000001,-94.91298110794531
-0.07470000000000021,-95.91742613084948
-0.0757000000000001,-96.96431249274961
-0.07670000000000021,-97.92631617665783
-0.0777000000000001,-98.93076119956201
-0.07870000000000021,-99.83617643147564
-0.0797000000000001,-100.670856098396
-0.08070000000000022,-101.54797710431234
-0.0817000000000001,-102.3260683192381
-0.08270000000000022,-103.20318932515443
-0.08370000000000011,-104.06616321807209
-0.08470000000000022,-105.07060824097626
-0.08570000000000011,-106.07505326388046
-0.08670000000000022,-107.07949828678463
-0.08770000000000011,-108.12638464868475
-0.08870000000000022,-109.08838833259297
-0.08970000000000011,-110.05039201650122
-0.09070000000000022,-110.96995436141347
-0.09170000000000011,-111.7904869153352
-0.09270000000000023,-112.62516658225556
-0.09370000000000012,-113.40325779718134
-0.09470000000000023,-114.28037880309766
-0.09570000000000012,-115.15749980901398
-0.09670000000000023,-116.14779771891952
-0.09770000000000012,-117.10980140282774
-0.09870000000000023,-118.11424642573192
-0.09970000000000012,-119.1186914486361
-0.10070000000000023,-120.03825379354835
-0.10170000000000012,-120.9153747994647
-0.10270000000000024,-121.73590735338641
-0.10370000000000013,-122.52814568131083
-0.10470000000000024,-123.3062368962366
-0.10570000000000013,-124.09847522416102
-0.10670000000000024,-124.91900777808273
-0.10770000000000013,-125.83857012299501
-0.10870000000000024,-126.80057380690324
-0.10970000000000013,-127.80501882980741
-0.11070000000000024,-128.8094638527116
-0.11170000000000013,-129.75732042362114
-0.11270000000000002,-130.67688276853346
-0.11370000000000013,-131.55400377444977
-0.11470000000000002,-132.37453632837148
-0.11570000000000014,-133.1667746562959
-0.11670000000000003,-133.94486587122168
-0.11770000000000014,-134.77954553814206
-0.11870000000000003,-135.65666654405837
-0.11970000000000014,-136.562081775972
-0.12070000000000003,-137.52408545988024
-0.12170000000000014,-138.52853048278442
-0.12270000000000003,-139.53297550568857
-0.12370000000000014,-140.4949791895968
-0.12470000000000003,-141.41454153450906
-0.12570000000000014,-142.31995676642268
-0.12670000000000003,-143.16878354634173
-0.12770000000000015,-143.87613919627424
-0.12870000000000004,-144.72496597619326
-0.12970000000000015,-145.57379275611228
-0.13070000000000004,-146.5640906660178
-0.13170000000000015,-147.4129174459368
-0.13270000000000004,-148.40321535584232
-0.13370000000000015,-149.53498439573437
-0.13470000000000004,-150.38381117565342
-0.13570000000000015,-151.37410908555893
-0.13670000000000004,-152.36440699546444
-0.13770000000000016,-153.07176264539694
-0.13870000000000005,-153.920589425316
-0.13970000000000016,-154.76941620523502
-0.14070000000000005,-155.61824298515404
-0.14170000000000016,-156.46706976507306
-0.14270000000000005,-157.45736767497857
-0.14370000000000016,-158.4476655848841
-0.14470000000000005,-159.57943462477613
-0.14570000000000016,-160.5697325346817
-0.14670000000000005,-161.5600304445872
-0.14770000000000016,-162.5503283544927
-0.14870000000000005,-163.39915513441173
-0.14970000000000017,-164.24798191433075
-0.15070000000000006,-165.09680869424977
-0.15170000000000017,-165.94563547416882
-0.15270000000000006,-166.79446225408785
-0.15370000000000017,-167.6432890340068
-0.15470000000000006,-168.63358694391238
-0.15570000000000017,-169.6238848538179
-0.15670000000000006,-170.61418276372342
-0.15770000000000017,-171.60448067362896
-0.15870000000000006,-172.59477858353446
-0.15970000000000018,-173.58507649344
-0.16070000000000007,-174.43390327335902
-0.16170000000000018,-175.28273005327804
-0.16270000000000007,-176.13155683319707
-0.16370000000000018,-176.98038361311612
-0.16470000000000007,-177.82921039303508
-0.16570000000000018,-178.81950830294062
-0.16670000000000007,-179.80980621284618
-0.16770000000000018,-180.8001041227517
-0.16870000000000007,-181.79040203265723
-0.16970000000000018,-182.78069994256273
-0.17070000000000007,-183.77099785246824
-0.17170000000000019,-184.7612957623738
-0.17270000000000008,-185.46865141230631
-0.1737000000000002,-186.31747819222534
-0.17470000000000008,-187.16630497214436
-0.1757000000000002,-188.15660288204987
-0.17670000000000008,-189.1469007919554
-0.1777000000000002,-190.13719870186094
-0.17870000000000008,-191.268967741753
-0.1797000000000002,-192.40073678164498
-0.18070000000000008,-193.3910346915505
-0.1817000000000002,-194.38133260145605
-0.18270000000000008,-195.37163051136156
-0.1837000000000002,-196.3619284212671
-0.1847000000000001,-197.21075520118612
-0.1857000000000002,-198.05958198110514
-0.1867000000000001,-198.90840876102413
-0.1877000000000002,-199.61576441095667
-0.1887000000000001,-200.4645911908757
-0.1897000000000002,-201.4548891007812
-0.1907000000000001,-202.44518701068677
-0.1917000000000001,-203.29401379060576
-0.19269999999999998,-204.14284057052478
-0.1937000000000001,-204.9916673504438
-0.19469999999999998,-205.98196526034934
-0.1957000000000001,-206.68932091028185
-0.19669999999999999,-207.5381476902009
-0.1977000000000001,-208.24550334013338
-0.1987,-208.95285899006592
-0.1997000000000001,-209.8016857699849
-0.2007,-210.79198367989048
-0.2017000000000001,-211.782281589796
-0.2027,-212.77257949970152
-0.2037000000000001,-213.76287740960703
-0.2047,-214.75317531951256
-0.2057000000000001,-215.7434732294181
-0.2067,-216.59230000933712
-0.2077000000000001,-217.44112678925615
-0.2087,-218.28995356917517
-0.2097000000000001,-219.13878034909416
-0.2107,-219.98760712901318
-0.2117000000000001,-220.6949627789457
-0.2127,-221.68526068885126
-0.2137000000000001,-222.53408746877028
-0.2147,-223.52438537867582
-0.2157000000000001,-224.65615441856778
-0.2167,-225.50498119848683
-0.21770000000000012,-226.49527910839237
-0.2187,-227.4855770182979
-0.21970000000000012,-228.33440379821695
-0.2207,-229.18323057813595
-0.22170000000000012,-230.03205735805497
-0.2227,-230.880884137974
-0.22370000000000012,-231.729710917893
-0.2247,-232.72000882779852
-0.22570000000000012,-233.85177786769057
-0.2267,-234.84207577759608
-0.22770000000000012,-235.97384481748813
-0.22870000000000001,-236.82267159740715
-0.22970000000000013,-237.81296950731266
-0.23070000000000002,-238.8032674172182
-0.23170000000000013,-239.65209419713722
-0.23270000000000002,-240.35944984706975
-0.23370000000000013,-241.20827662698875
-0.23470000000000002,-242.05710340690777
-0.23570000000000013,-243.04740131681334
-0.23670000000000002,-243.8962280967323
-0.2376999999999999,-244.8865260066378
-0.23870000000000002,-245.87682391654337
-0.2396999999999999,-246.8671218264489
-0.24070000000000003,-247.85741973635444
-0.24169999999999991,-248.84771764625998
-0.24270000000000003,-249.69654442617897
-0.24369999999999992,-250.545371206098
-0.24470000000000003,-251.39419798601702
-0.24569999999999992,-252.243024765936
-0.24670000000000003,-253.23332267584152
-0.24769999999999992,-254.2236205857471
-0.24870000000000003,-255.21391849565262
-0.24969999999999992,-256.20421640555816
-0.25070000000000003,-257.4774565754367
-0.2516999999999999,-258.4677544853422
-0.25270000000000004,-259.4580523952477
-0.2536999999999999,-260.4483503051532
-0.25470000000000004,-261.4386482150588
-0.2556999999999999,-262.2874749949778
-0.25670000000000004,-262.9948306449103
-0.25769999999999993,-263.84365742482936
-0.25870000000000004,-264.83395533473487
-0.25969999999999993,-265.82425324464043
-0.26070000000000004,-266.8145511545459
-0.26169999999999993,-267.94632019443793
-0.26270000000000004,-269.07808923433
-0.26369999999999993,-270.0683871442355
-0.26470000000000005,-271.05868505414105
-0.26569999999999994,-272.04898296404656
-0.26670000000000005,-273.03928087395207
-0.26769999999999994,-273.8881076538711
-0.26870000000000005,-274.7369344337901
-0.26969999999999994,-275.7272323436957
-0.27070000000000005,-276.7175302536012
-0.27169999999999994,-277.7078281635067
-0.27270000000000005,-278.8395972033987
-0.27369999999999994,-279.82989511330425
-0.27470000000000006,-280.9616641531963
-0.27569999999999995,-281.9519620631018
-0.27670000000000006,-282.9422599730073
-0.27769999999999995,-283.79108675292633
-0.27870000000000006,-284.63991353284536
-0.27969999999999995,-285.4887403127644
-0.28070000000000006,-286.33756709268346
-0.28169999999999995,-287.1863938726024
-0.28270000000000006,-288.176691782508
-0.28369999999999995,-289.1669896924135
-0.28470000000000006,-290.157287602319
-0.28569999999999995,-291.28905664221105
-0.28670000000000007,-292.1378834221301
-0.28769999999999996,-293.1281813320356
-0.28870000000000007,-293.9770081119546
-0.28969999999999996,-294.96730602186017
-0.29070000000000007,-295.67466167179265
-0.29169999999999996,-296.52348845171167
-0.29270000000000007,-297.3723152316307
-0.29369999999999996,-298.2211420115498
-0.2947000000000001,-299.06996879146874
-0.29569999999999996,-300.06026670137425
-0.2967000000000001,-301.1920357412663
-0.29769999999999996,-302.18233365117186
-0.2987000000000001,-303.17263156107737
-0.29969999999999997,-304.1629294709828
-0.3007000000000001,-305.0117562509019
-0.30169999999999997,-305.8605830308209
-0.3027000000000001,-306.56793868075346
-0.30369999999999997,-307.4167654606725
-0.3047000000000001,-308.124121110605
-0.30569999999999997,-308.972947890524
-0.3067000000000001,-309.9632458004295
-0.3077,-310.81207258034857
-0.3087000000000001,-311.80237049025413
-0.3097,-312.65119727017316
-0.3107000000000001,-313.6414951800786
-0.3117,-314.49032195999763
-0.3127000000000001,-315.19767760993017
-0.3137,-315.9050332598627
-0.3147000000000001,-316.6123889097952
-0.3157,-317.46121568971427
-0.3167000000000001,-318.16857133964675
-0.3177,-319.01739811956577
-0.3187000000000001,-319.8662248994848
-0.3197,-320.8565228093903
-0.3207000000000001,-321.8468207192958
-0.3217,-322.6956474992149
-0.3227000000000001,-323.5444742791339
-0.3237,-324.5347721890394
-0.3247000000000001,-325.24212783897195
-0.3257,-326.090954618891
-0.3267000000000001,-326.79831026882346
-0.3277,-327.6471370487425
-0.3287000000000001,-328.4959638286615
-0.3297,-329.3447906085805
-0.3307000000000001,-330.33508851848603
-0.3317,-331.18391529840505
-0.3327000000000001,-332.1742132083106
-0.3337,-333.02303998822964
-0.3347000000000001,-333.87186676814866
-0.3357,-334.7206935480677
-0.3367000000000001,-335.5695203279867
-0.3377,-336.27687597791925
-0.3387000000000001,-336.9842316278517
-0.3397,-337.83305840777075
-0.3407000000000001,-338.6818851876898
-0.3417,-339.5307119676088
-0.3427000000000001,-340.5210098775143
-0.3437,-341.51130778741987
-0.3447000000000001,-342.5016056973254
-0.3457,-343.3504324772444
-0.3467000000000001,-344.34073038714996
-0.3477,-345.04808603708244
-0.3487000000000001,-345.89691281700146
-0.3497,-346.604268466934
-0.3507000000000001,-347.45309524685297
-0.3517,-348.301922026772
-0.3527000000000001,-349.15074880669107
-0.3537,-350.1410467165966
-0.3547000000000001,-351.1313446265021
-0.3557,-352.1216425364076
-0.35670000000000013,-352.9704693163266
-0.3577,-354.10223835621866
-0.35870000000000013,-354.8095940061512
-0.3597,-355.65842078607017
-0.36070000000000013,-356.50724756598925
-0.3617,-357.2146032159218
-0.3626999999999999,-358.0634299958408
-0.3637,-358.91225677575983
-0.3646999999999999,-359.90255468566534
-0.3657,-360.89285259557084
-0.3666999999999999,-361.88315050547635
-0.3677,-362.87344841538186
-0.3686999999999999,-363.8637463252875
-0.36970000000000003,-364.854044235193
-0.3706999999999999,-365.702871015112
-0.37170000000000003,-366.69316892501746
-0.3726999999999999,-367.40052457495005
-0.37370000000000003,-368.2493513548691
-0.3746999999999999,-369.2396492647746
-0.37570000000000003,-370.0884760446936
-0.3766999999999999,-371.0787739545991
-0.37770000000000004,-372.0690718645047
-0.3786999999999999,-373.0593697744102
-0.37970000000000004,-374.19113881430224
-0.3806999999999999,-375.18143672420774
-0.38170000000000004,-376.17173463411325
-0.38269999999999993,-377.0205614140323
-0.38370000000000004,-377.86938819395135
-0.38469999999999993,-378.7182149738703
-0.38570000000000004,-379.56704175378934
-0.38669999999999993,-379.00115723384334
-0.38570000000000004,-376.0302635041267
-0.38469999999999993,-373.2008409043967
-0.38370000000000004,-370.3714183046666
-0.38269999999999993,-367.5419957049365
-0.38170000000000004,-364.7125731052065
-0.3806999999999999,-362.0246216354629
-0.37970000000000004,-359.1951990357328
-0.3786999999999999,-356.2243053060162
-0.37770000000000004,-353.3948827062862
-0.3766999999999999,-350.42398897656955
-0.37570000000000003,-347.73603750682605
-0.3746999999999999,-344.90661490709596
-0.37370000000000003,-342.21866343735235
-0.3726999999999999,-339.6721830975953
-0.37170000000000003,-336.9842316278517
-0.3706999999999999,-334.43775128809466
-0.36970000000000003,-331.89127094833765
-0.3686999999999999,-329.20331947859404
-0.3677,-326.656839138837
-0.3666999999999999,-323.9688876690934
-0.3657,-321.1394650693634
-0.3646999999999999,-318.4515135996198
-0.3637,-315.76356212987616
-0.3626999999999999,-313.0756106601326
-0.3617,-310.52913032037554
-0.36070000000000013,-308.124121110605
-0.3597,-305.71911190083443
-0.35870000000000013,-303.17263156107737
-0.3577,-300.76762235130684
-0.35670000000000013,-298.07967088156323
-0.3557,-295.53319054180616
-0.3547000000000001,-292.9867102020491
-0.3537,-290.29875873230554
-0.3527000000000001,-287.7522783925485
-0.3517,-285.0643269228049
-0.3507000000000001,-282.65931771303434
-0.3497,-280.25430850326376
-0.3487000000000001,-277.84929929349323
-0.3477,-275.44429008372265
-0.3467000000000001,-273.1807520039386
-0.3457,-270.775742794168
-0.3447000000000001,-268.22926245441096
-0.3437,-265.6827821146539
-0.3427000000000001,-263.27777290488336
-0.3417,-260.58982143513975
-0.3407000000000001,-258.18481222536917
-0.3397,-255.77980301559862
-0.3387000000000001,-253.37479380582806
-0.3377,-251.111255726044
-0.3367000000000001,-248.70624651627344
-0.3357,-246.4427084364894
-0.3347000000000001,-244.17917035670533
-0.3337,-241.77416114693477
-0.3327000000000001,-239.36915193716422
-0.3317,-236.96414272739366
-0.3307000000000001,-234.55913351762308
-0.3297,-232.01265317786604
-0.3287000000000001,-229.74911509808197
-0.3277,-227.34410588831142
-0.3267000000000001,-225.08056780852735
-0.3257,-222.81702972874328
-0.3247000000000001,-220.5534916489592
-0.3237,-218.43142469916165
-0.3227000000000001,-216.1678866193776
-0.3217,-214.04581966958003
-0.3207000000000001,-211.64081045980947
-0.3197,-209.23580125003892
-0.3187000000000001,-206.97226317025488
-0.3177,-204.5672539604843
-0.3167000000000001,-202.30371588070025
-0.3157,-200.04017780091618
-0.3147000000000001,-197.91811085111863
-0.3137,-195.65457277133459
-0.3127000000000001,-193.6739769515235
-0.3117,-191.551910001726
-0.3107000000000001,-189.42984305192843
-0.3097,-187.16630497214436
-0.3087000000000001,-185.0442380223468
-0.3077,-182.78069994256273
-0.3067000000000001,-180.37569073279218
-0.30569999999999997,-178.1121526530081
-0.3047000000000001,-175.99008570321055
-0.30369999999999997,-173.86801875341303
-0.3027000000000001,-171.74595180361547
-0.30169999999999997,-169.7653559838044
-0.3007000000000001,-167.6432890340068
-0.29969999999999997,-165.6626932141958
-0.2987000000000001,-163.54062626439824
-0.29769999999999996,-161.41855931460069
-0.2967000000000001,-159.29649236480313
-0.29569999999999996,-157.03295428501906
-0.2947000000000001,-154.9108873352215
-0.29369999999999996,-152.64734925543743
-0.29270000000000007,-150.66675343562642
-0.29169999999999996,-148.54468648582886
-0.29070000000000007,-146.5640906660178
-0.28969999999999996,-144.72496597619326
-0.28870000000000007,-142.7443701563822
-0.28769999999999996,-140.70718588457655
-0.28670000000000007,-138.6982958387682
-0.28569999999999995,-136.66111156696255
-0.28470000000000006,-134.5107503911677
-0.28369999999999995,-132.37453632837148
-0.28270000000000006,-130.32320494356716
-0.28169999999999995,-128.2294322197669
-0.28070000000000006,-126.27713062595316
-0.27969999999999995,-124.39556459713268
-0.27870000000000006,-122.48570434231489
-0.27769999999999995,-120.64657965249035
-0.27670000000000006,-118.72257228467387
-0.27569999999999995,-116.81271202985609
-0.27470000000000006,-114.84626332304367
-0.27369999999999994,-112.83737327723534
-0.27270000000000005,-110.82848323142699
-0.27169999999999994,-108.77715184662266
-0.27070000000000005,-106.86729159180487
-0.26969999999999994,-104.94328422398843
-0.26870000000000005,-103.11830664716253
-0.26769999999999994,-101.27918195733798
