Mar. 11, 2025   16:31:06
Cyclic Voltammetry
File: c:/users/guazh/data/banditlqround7_x0exp891_r5/2025-03-03-exp878\exp878-2025-03-11t16_24_45-arkoh\exp878_cv_sr_200mvs_efin_-1400mv.bin
Data Source:  Experiment
Instrument Model:  CHI760E
Header: CV ran at 200 mVs
Note: 

Init E (V) = -1
High E (V) = -1
Low E (V) = -1.4
Final E (V) = -1
Init P/N = N
Scan Rate (V/s) = 0.2
Segment = 3
Sample Interval (V) = 0.001
Quiet Time (sec) = 2
Sensitivity (A/V) = 0.01
Comp R (ohm) = 1.8

Results:

Channel 1:
Segment 1:

Segment 2:

Segment 3:

Potential/V, Current/A

-1.000, 1.901e-5
-1.001, 6.420e-5
-1.002, 8.678e-5
-1.003, 9.959e-5
-1.004, 1.140e-4
-1.005, 1.226e-4
-1.006, 1.255e-4
-1.007, 1.304e-4
-1.008, 1.360e-4
-1.009, 1.381e-4
-1.010, 1.407e-4
-1.011, 1.475e-4
-1.012, 1.491e-4
-1.013, 1.477e-4
-1.014, 1.513e-4
-1.015, 1.524e-4
-1.016, 1.495e-4
-1.017, 1.519e-4
-1.018, 1.553e-4
-1.019, 1.533e-4
-1.020, 1.534e-4
-1.021, 1.577e-4
-1.022, 1.579e-4
-1.023, 1.564e-4
-1.024, 1.600e-4
-1.025, 1.609e-4
-1.026, 1.579e-4
-1.027, 1.589e-4
-1.028, 1.628e-4
-1.029, 1.603e-4
-1.030, 1.596e-4
-1.031, 1.626e-4
-1.032, 1.606e-4
-1.033, 1.578e-4
-1.034, 1.609e-4
-1.035, 1.617e-4
-1.036, 1.587e-4
-1.037, 1.584e-4
-1.038, 1.608e-4
-1.039, 1.585e-4
-1.040, 1.577e-4
-1.041, 1.615e-4
-1.042, 1.605e-4
-1.043, 1.574e-4
-1.044, 1.600e-4
-1.045, 1.616e-4
-1.046, 1.596e-4
-1.047, 1.613e-4
-1.048, 1.634e-4
-1.049, 1.600e-4
-1.050, 1.587e-4
-1.051, 1.615e-4
-1.052, 1.608e-4
-1.053, 1.578e-4
-1.054, 1.602e-4
-1.055, 1.607e-4
-1.056, 1.576e-4
-1.057, 1.581e-4
-1.058, 1.608e-4
-1.059, 1.591e-4
-1.060, 1.580e-4
-1.061, 1.604e-4
-1.062, 1.586e-4
-1.063, 1.561e-4
-1.064, 1.584e-4
-1.065, 1.594e-4
-1.066, 1.562e-4
-1.067, 1.565e-4
-1.068, 1.592e-4
-1.069, 1.575e-4
-1.070, 1.566e-4
-1.071, 1.604e-4
-1.072, 1.581e-4
-1.073, 1.541e-4
-1.074, 1.560e-4
-1.075, 1.575e-4
-1.076, 1.557e-4
-1.077, 1.566e-4
-1.078, 1.590e-4
-1.079, 1.555e-4
-1.080, 1.533e-4
-1.081, 1.569e-4
-1.082, 1.571e-4
-1.083, 1.551e-4
-1.084, 1.587e-4
-1.085, 1.590e-4
-1.086, 1.561e-4
-1.087, 1.564e-4
-1.088, 1.576e-4
-1.089, 1.541e-4
-1.090, 1.523e-4
-1.091, 1.541e-4
-1.092, 1.529e-4
-1.093, 1.504e-4
-1.094, 1.541e-4
-1.095, 1.564e-4
-1.096, 1.542e-4
-1.097, 1.551e-4
-1.098, 1.568e-4
-1.099, 1.542e-4
-1.100, 1.537e-4
-1.101, 1.568e-4
-1.102, 1.555e-4
-1.103, 1.528e-4
-1.104, 1.550e-4
-1.105, 1.559e-4
-1.106, 1.534e-4
-1.107, 1.546e-4
-1.108, 1.576e-4
-1.109, 1.557e-4
-1.110, 1.544e-4
-1.111, 1.586e-4
-1.112, 1.580e-4
-1.113, 1.556e-4
-1.114, 1.575e-4
-1.115, 1.568e-4
-1.116, 1.523e-4
-1.117, 1.520e-4
-1.118, 1.554e-4
-1.119, 1.547e-4
-1.120, 1.547e-4
-1.121, 1.589e-4
-1.122, 1.574e-4
-1.123, 1.540e-4
-1.124, 1.570e-4
-1.125, 1.587e-4
-1.126, 1.567e-4
-1.127, 1.576e-4
-1.128, 1.594e-4
-1.129, 1.569e-4
-1.130, 1.566e-4
-1.131, 1.609e-4
-1.132, 1.605e-4
-1.133, 1.574e-4
-1.134, 1.595e-4
-1.135, 1.597e-4
-1.136, 1.564e-4
-1.137, 1.583e-4
-1.138, 1.616e-4
-1.139, 1.596e-4
-1.140, 1.588e-4
-1.141, 1.621e-4
-1.142, 1.619e-4
-1.143, 1.605e-4
-1.144, 1.638e-4
-1.145, 1.650e-4
-1.146, 1.621e-4
-1.147, 1.650e-4
-1.148, 1.698e-4
-1.149, 1.681e-4
-1.150, 1.672e-4
-1.151, 1.688e-4
-1.152, 1.662e-4
-1.153, 1.618e-4
-1.154, 1.615e-4
-1.155, 1.600e-4
-1.156, 1.587e-4
-1.157, 1.619e-4
-1.158, 1.673e-4
-1.159, 1.660e-4
-1.160, 1.646e-4
-1.161, 1.681e-4
-1.162, 1.672e-4
-1.163, 1.649e-4
-1.164, 1.687e-4
-1.165, 1.703e-4
-1.166, 1.683e-4
-1.167, 1.692e-4
-1.168, 1.724e-4
-1.169, 1.709e-4
-1.170, 1.698e-4
-1.171, 1.729e-4
-1.172, 1.741e-4
-1.173, 1.728e-4
-1.174, 1.757e-4
-1.175, 1.764e-4
-1.176, 1.728e-4
-1.177, 1.744e-4
-1.178, 1.773e-4
-1.179, 1.751e-4
-1.180, 1.750e-4
-1.181, 1.788e-4
-1.182, 1.783e-4
-1.183, 1.758e-4
-1.184, 1.783e-4
-1.185, 1.795e-4
-1.186, 1.771e-4
-1.187, 1.780e-4
-1.188, 1.812e-4
-1.189, 1.781e-4
-1.190, 1.771e-4
-1.191, 1.805e-4
-1.192, 1.801e-4
-1.193, 1.787e-4
-1.194, 1.822e-4
-1.195, 1.837e-4
-1.196, 1.816e-4
-1.197, 1.834e-4
-1.198, 1.873e-4
-1.199, 1.851e-4
-1.200, 1.830e-4
-1.201, 1.866e-4
-1.202, 1.865e-4
-1.203, 1.841e-4
-1.204, 1.872e-4
-1.205, 1.875e-4
-1.206, 1.849e-4
-1.207, 1.865e-4
-1.208, 1.909e-4
-1.209, 1.894e-4
-1.210, 1.889e-4
-1.211, 1.923e-4
-1.212, 1.926e-4
-1.213, 1.909e-4
-1.214, 1.941e-4
-1.215, 1.961e-4
-1.216, 1.936e-4
-1.217, 1.945e-4
-1.218, 1.962e-4
-1.219, 1.927e-4
-1.220, 1.913e-4
-1.221, 1.947e-4
-1.222, 1.964e-4
-1.223, 1.959e-4
-1.224, 1.991e-4
-1.225, 2.007e-4
-1.226, 1.987e-4
-1.227, 2.002e-4
-1.228, 2.042e-4
-1.229, 2.027e-4
-1.230, 2.002e-4
-1.231, 2.032e-4
-1.232, 2.027e-4
-1.233, 2.008e-4
-1.234, 2.053e-4
-1.235, 2.083e-4
-1.236, 2.064e-4
-1.237, 2.069e-4
-1.238, 2.098e-4
-1.239, 2.083e-4
-1.240, 2.084e-4
-1.241, 2.132e-4
-1.242, 2.134e-4
-1.243, 2.113e-4
-1.244, 2.152e-4
-1.245, 2.166e-4
-1.246, 2.143e-4
-1.247, 2.159e-4
-1.248, 2.197e-4
-1.249, 2.190e-4
-1.250, 2.203e-4
-1.251, 2.253e-4
-1.252, 2.265e-4
-1.253, 2.245e-4
-1.254, 2.278e-4
-1.255, 2.295e-4
-1.256, 2.261e-4
-1.257, 2.274e-4
-1.258, 2.314e-4
-1.259, 2.318e-4
-1.260, 2.338e-4
-1.261, 2.395e-4
-1.262, 2.410e-4
-1.263, 2.401e-4
-1.264, 2.451e-4
-1.265, 2.490e-4
-1.266, 2.490e-4
-1.267, 2.513e-4
-1.268, 2.555e-4
-1.269, 2.540e-4
-1.270, 2.545e-4
-1.271, 2.609e-4
-1.272, 2.645e-4
-1.273, 2.659e-4
-1.274, 2.719e-4
-1.275, 2.767e-4
-1.276, 2.774e-4
-1.277, 2.808e-4
-1.278, 2.871e-4
-1.279, 2.894e-4
-1.280, 2.929e-4
-1.281, 3.001e-4
-1.282, 3.040e-4
-1.283, 3.060e-4
-1.284, 3.141e-4
-1.285, 3.213e-4
-1.286, 3.256e-4
-1.287, 3.327e-4
-1.288, 3.408e-4
-1.289, 3.444e-4
-1.290, 3.496e-4
-1.291, 3.616e-4
-1.292, 3.701e-4
-1.293, 3.760e-4
-1.294, 3.870e-4
-1.295, 3.973e-4
-1.296, 4.057e-4
-1.297, 4.182e-4
-1.298, 4.336e-4
-1.299, 4.448e-4
-1.300, 4.549e-4
-1.301, 4.684e-4
-1.302, 4.814e-4
-1.303, 4.969e-4
-1.304, 5.220e-4
-1.305, 5.487e-4
-1.306, 5.674e-4
-1.307, 5.871e-4
-1.308, 6.139e-4
-1.309, 6.405e-4
-1.310, 6.681e-4
-1.311, 6.950e-4
-1.312, 7.156e-4
-1.313, 7.382e-4
-1.314, 7.738e-4
-1.315, 8.175e-4
-1.316, 8.617e-4
-1.317, 9.084e-4
-1.318, 9.574e-4
-1.319, 1.000e-3
-1.320, 1.046e-3
-1.321, 1.107e-3
-1.322, 1.170e-3
-1.323, 1.230e-3
-1.324, 1.304e-3
-1.325, 1.380e-3
-1.326, 1.449e-3
-1.327, 1.521e-3
-1.328, 1.595e-3
-1.329, 1.669e-3
-1.330, 1.753e-3
-1.331, 1.852e-3
-1.332, 1.954e-3
-1.333, 2.050e-3
-1.334, 2.151e-3
-1.335, 2.254e-3
-1.336, 2.355e-3
-1.337, 2.456e-3
-1.338, 2.561e-3
-1.339, 2.661e-3
-1.340, 2.760e-3
-1.341, 2.866e-3
-1.342, 2.971e-3
-1.343, 3.069e-3
-1.344, 3.167e-3
-1.345, 3.268e-3
-1.346, 3.367e-3
-1.347, 3.469e-3
-1.348, 3.576e-3
-1.349, 3.677e-3
-1.350, 3.769e-3
-1.351, 3.853e-3
-1.352, 3.941e-3
-1.353, 4.024e-3
-1.354, 4.108e-3
-1.355, 4.190e-3
-1.356, 4.260e-3
-1.357, 4.334e-3
-1.358, 4.418e-3
-1.359, 4.513e-3
-1.360, 4.612e-3
-1.361, 4.711e-3
-1.362, 4.799e-3
-1.363, 4.877e-3
-1.364, 4.943e-3
-1.365, 5.003e-3
-1.366, 5.060e-3
-1.367, 5.134e-3
-1.368, 5.221e-3
-1.369, 5.316e-3
-1.370, 5.386e-3
-1.371, 5.448e-3
-1.372, 5.514e-3
-1.373, 5.602e-3
-1.374, 5.720e-3
-1.375, 5.830e-3
-1.376, 5.923e-3
-1.377, 5.996e-3
-1.378, 6.038e-3
-1.379, 6.061e-3
-1.380, 6.088e-3
-1.381, 6.144e-3
-1.382, 6.227e-3
-1.383, 6.300e-3
-1.384, 6.360e-3
-1.385, 6.416e-3
-1.386, 6.483e-3
-1.387, 6.583e-3
-1.388, 6.703e-3
-1.389, 6.814e-3
-1.390, 6.902e-3
-1.391, 6.959e-3
-1.392, 6.982e-3
-1.393, 7.003e-3
-1.394, 7.049e-3
-1.395, 7.105e-3
-1.396, 7.165e-3
-1.397, 7.232e-3
-1.398, 7.304e-3
-1.399, 7.372e-3
-1.400, 7.381e-3
-1.399, 7.342e-3
-1.398, 7.306e-3
-1.397, 7.252e-3
-1.396, 7.171e-3
-1.395, 7.074e-3
-1.394, 6.978e-3
-1.393, 6.904e-3
-1.392, 6.848e-3
-1.391, 6.796e-3
-1.390, 6.742e-3
-1.389, 6.671e-3
-1.388, 6.574e-3
-1.387, 6.482e-3
-1.386, 6.425e-3
-1.385, 6.368e-3
-1.384, 6.312e-3
-1.383, 6.238e-3
-1.382, 6.147e-3
-1.381, 6.053e-3
-1.380, 5.982e-3
-1.379, 5.980e-3
-1.378, 5.991e-3
-1.377, 5.992e-3
-1.376, 5.923e-3
-1.375, 5.809e-3
-1.374, 5.683e-3
-1.373, 5.582e-3
-1.372, 5.500e-3
-1.371, 5.441e-3
-1.370, 5.376e-3
-1.369, 5.338e-3
-1.368, 5.280e-3
-1.367, 5.190e-3
-1.366, 5.107e-3
-1.365, 5.067e-3
-1.364, 5.046e-3
-1.363, 5.022e-3
-1.362, 4.957e-3
-1.361, 4.873e-3
-1.360, 4.796e-3
-1.359, 4.729e-3
-1.358, 4.659e-3
-1.357, 4.593e-3
-1.356, 4.543e-3
-1.355, 4.492e-3
-1.354, 4.425e-3
-1.353, 4.361e-3
-1.352, 4.304e-3
-1.351, 4.284e-3
-1.350, 4.278e-3
-1.349, 4.223e-3
-1.348, 4.131e-3
-1.347, 4.045e-3
-1.346, 4.012e-3
-1.345, 3.996e-3
-1.344, 3.935e-3
-1.343, 3.831e-3
-1.342, 3.732e-3
-1.341, 3.649e-3
-1.340, 3.585e-3
-1.339, 3.548e-3
-1.338, 3.509e-3
-1.337, 3.448e-3
-1.336, 3.381e-3
-1.335, 3.308e-3
-1.334, 3.253e-3
-1.333, 3.213e-3
-1.332, 3.185e-3
-1.331, 3.148e-3
-1.330, 3.102e-3
-1.329, 3.048e-3
-1.328, 2.986e-3
-1.327, 2.933e-3
-1.326, 2.898e-3
-1.325, 2.871e-3
-1.324, 2.823e-3
-1.323, 2.759e-3
-1.322, 2.693e-3
-1.321, 2.635e-3
-1.320, 2.591e-3
-1.319, 2.547e-3
-1.318, 2.495e-3
-1.317, 2.441e-3
-1.316, 2.400e-3
-1.315, 2.366e-3
-1.314, 2.328e-3
-1.313, 2.292e-3
-1.312, 2.254e-3
-1.311, 2.210e-3
-1.310, 2.158e-3
-1.309, 2.105e-3
-1.308, 2.053e-3
-1.307, 2.006e-3
-1.306, 1.967e-3
-1.305, 1.931e-3
-1.304, 1.893e-3
-1.303, 1.856e-3
-1.302, 1.824e-3
-1.301, 1.785e-3
-1.300, 1.739e-3
-1.299, 1.693e-3
-1.298, 1.646e-3
-1.297, 1.602e-3
-1.296, 1.568e-3
-1.295, 1.537e-3
-1.294, 1.501e-3
-1.293, 1.464e-3
-1.292, 1.430e-3
-1.291, 1.396e-3
-1.290, 1.362e-3
-1.289, 1.334e-3
-1.288, 1.305e-3
-1.287, 1.270e-3
-1.286, 1.238e-3
-1.285, 1.205e-3
-1.284, 1.165e-3
-1.283, 1.132e-3
-1.282, 1.104e-3
-1.281, 1.074e-3
-1.280, 1.043e-3
-1.279, 1.021e-3
-1.278, 9.975e-4
-1.277, 9.718e-4
-1.276, 9.474e-4
-1.275, 9.197e-4
-1.274, 8.885e-4
-1.273, 8.608e-4
-1.272, 8.382e-4
-1.271, 8.073e-4
-1.270, 7.764e-4
-1.269, 7.533e-4
-1.268, 7.298e-4
-1.267, 7.069e-4
-1.266, 6.897e-4
-1.265, 6.693e-4
-1.264, 6.449e-4
-1.263, 6.230e-4
-1.262, 6.057e-4
-1.261, 5.862e-4
-1.260, 5.651e-4
-1.259, 5.476e-4
-1.258, 5.255e-4
-1.257, 5.016e-4
-1.256, 4.861e-4
-1.255, 4.722e-4
-1.254, 4.540e-4
-1.253, 4.381e-4
-1.252, 4.221e-4
-1.251, 4.031e-4
-1.250, 3.861e-4
-1.249, 3.744e-4
-1.248, 3.605e-4
-1.247, 3.451e-4
-1.246, 3.343e-4
-1.245, 3.215e-4
-1.244, 3.031e-4
-1.243, 2.887e-4
-1.242, 2.794e-4
-1.241, 2.651e-4
-1.240, 2.511e-4
-1.239, 2.416e-4
-1.238, 2.304e-4
-1.237, 2.175e-4
-1.236, 2.095e-4
-1.235, 2.002e-4
-1.234, 1.874e-4
-1.233, 1.771e-4
-1.232, 1.710e-4
-1.231, 1.600e-4
-1.230, 1.491e-4
-1.229, 1.422e-4
-1.228, 1.341e-4
-1.227, 1.232e-4
-1.226, 1.165e-4
-1.225, 1.095e-4
-1.224, 9.970e-5
-1.223, 9.204e-5
-1.222, 8.836e-5
-1.221, 7.990e-5
-1.220, 7.162e-5
-1.219, 6.783e-5
-1.218, 6.182e-5
-1.217, 5.268e-5
-1.216, 4.889e-5
-1.215, 4.440e-5
-1.214, 3.491e-5
-1.213, 2.901e-5
-1.212, 2.593e-5
-1.211, 1.867e-5
-1.210, 1.220e-5
-1.209, 1.024e-5
-1.208, 6.381e-6
-1.207, -9.392e-7
-1.206, -3.524e-6
-1.205, -5.833e-6
-1.204, -1.259e-5
-1.203, -1.711e-5
-1.202, -1.776e-5
-1.201, -2.345e-5
-1.200, -2.827e-5
-1.199, -2.904e-5
-1.198, -3.252e-5
-1.197, -3.811e-5
-1.196, -3.980e-5
-1.195, -4.123e-5
-1.194, -4.693e-5
-1.193, -5.011e-5
-1.192, -5.013e-5
-1.191, -5.472e-5
-1.190, -5.912e-5
-1.189, -5.867e-5
-1.188, -6.132e-5
-1.187, -6.621e-5
-1.186, -6.690e-5
-1.185, -6.735e-5
-1.184, -7.166e-5
-1.183, -7.403e-5
-1.182, -7.288e-5
-1.181, -7.710e-5
-1.180, -8.151e-5
-1.179, -8.069e-5
-1.178, -8.293e-5
-1.177, -8.751e-5
-1.176, -8.676e-5
-1.175, -8.650e-5
-1.174, -9.083e-5
-1.173, -9.245e-5
-1.172, -9.089e-5
-1.171, -9.374e-5
-1.170, -9.703e-5
-1.169, -9.609e-5
-1.168, -9.708e-5
-1.167, -1.016e-4
-1.166, -1.014e-4
-1.165, -1.011e-4
-1.164, -1.052e-4
-1.163, -1.068e-4
-1.162, -1.047e-4
-1.161, -1.078e-4
-1.160, -1.099e-4
-1.159, -1.083e-4
-1.158, -1.093e-4
-1.157, -1.133e-4
-1.156, -1.132e-4
-1.155, -1.123e-4
-1.154, -1.159e-4
-1.153, -1.171e-4
-1.152, -1.151e-4
-1.151, -1.180e-4
-1.150, -1.215e-4
-1.149, -1.189e-4
-1.148, -1.188e-4
-1.147, -1.219e-4
-1.146, -1.210e-4
-1.145, -1.212e-4
-1.144, -1.251e-4
-1.143, -1.269e-4
-1.142, -1.243e-4
-1.141, -1.252e-4
-1.140, -1.278e-4
-1.139, -1.264e-4
-1.138, -1.268e-4
-1.137, -1.310e-4
-1.136, -1.290e-4
-1.135, -1.276e-4
-1.134, -1.302e-4
-1.133, -1.317e-4
-1.132, -1.299e-4
-1.131, -1.329e-4
-1.130, -1.360e-4
-1.129, -1.339e-4
-1.128, -1.339e-4
-1.127, -1.377e-4
-1.126, -1.368e-4
-1.125, -1.349e-4
-1.124, -1.378e-4
-1.123, -1.383e-4
-1.122, -1.359e-4
-1.121, -1.385e-4
-1.120, -1.413e-4
-1.119, -1.398e-4
-1.118, -1.395e-4
-1.117, -1.429e-4
-1.116, -1.423e-4
-1.115, -1.407e-4
-1.114, -1.444e-4
-1.113, -1.460e-4
-1.112, -1.426e-4
-1.111, -1.441e-4
-1.110, -1.465e-4
-1.109, -1.445e-4
-1.108, -1.449e-4
-1.107, -1.487e-4
-1.106, -1.479e-4
-1.105, -1.465e-4
-1.104, -1.495e-4
-1.103, -1.509e-4
-1.102, -1.481e-4
-1.101, -1.502e-4
-1.100, -1.537e-4
-1.099, -1.515e-4
-1.098, -1.516e-4
-1.097, -1.553e-4
-1.096, -1.540e-4
-1.095, -1.526e-4
-1.094, -1.557e-4
-1.093, -1.564e-4
-1.092, -1.536e-4
-1.091, -1.555e-4
-1.090, -1.585e-4
-1.089, -1.565e-4
-1.088, -1.561e-4
-1.087, -1.598e-4
-1.086, -1.603e-4
-1.085, -1.598e-4
-1.084, -1.633e-4
-1.083, -1.631e-4
-1.082, -1.592e-4
-1.081, -1.604e-4
-1.080, -1.641e-4
-1.079, -1.618e-4
-1.078, -1.618e-4
-1.077, -1.645e-4
-1.076, -1.634e-4
-1.075, -1.621e-4
-1.074, -1.658e-4
-1.073, -1.681e-4
-1.072, -1.658e-4
-1.071, -1.676e-4
-1.070, -1.703e-4
-1.069, -1.681e-4
-1.068, -1.688e-4
-1.067, -1.727e-4
-1.066, -1.720e-4
-1.065, -1.704e-4
-1.064, -1.735e-4
-1.063, -1.761e-4
-1.062, -1.745e-4
-1.061, -1.772e-4
-1.060, -1.804e-4
-1.059, -1.774e-4
-1.058, -1.769e-4
-1.057, -1.806e-4
-1.056, -1.804e-4
-1.055, -1.796e-4
-1.054, -1.834e-4
-1.053, -1.843e-4
-1.052, -1.822e-4
-1.051, -1.851e-4
-1.050, -1.892e-4
-1.049, -1.873e-4
-1.048, -1.867e-4
-1.047, -1.905e-4
-1.046, -1.903e-4
-1.045, -1.891e-4
-1.044, -1.927e-4
-1.043, -1.943e-4
-1.042, -1.918e-4
-1.041, -1.941e-4
-1.040, -1.983e-4
-1.039, -1.970e-4
-1.038, -1.980e-4
-1.037, -2.028e-4
-1.036, -2.054e-4
-1.035, -2.062e-4
-1.034, -2.102e-4
-1.033, -2.117e-4
-1.032, -2.085e-4
-1.031, -2.111e-4
-1.030, -2.136e-4
-1.029, -2.084e-4
-1.028, -2.062e-4
-1.027, -2.084e-4
-1.026, -2.091e-4
-1.025, -2.101e-4
-1.024, -2.171e-4
-1.023, -2.214e-4
-1.022, -2.196e-4
-1.021, -2.201e-4
-1.020, -2.228e-4
-1.019, -2.209e-4
-1.018, -2.235e-4
-1.017, -2.307e-4
-1.016, -2.330e-4
-1.015, -2.323e-4
-1.014, -2.358e-4
-1.013, -2.362e-4
-1.012, -2.339e-4
-1.011, -2.366e-4
-1.010, -2.424e-4
-1.009, -2.415e-4
-1.008, -2.407e-4
-1.007, -2.450e-4
-1.006, -2.450e-4
-1.005, -2.457e-4
-1.004, -2.520e-4
-1.003, -2.556e-4
-1.002, -2.543e-4
-1.001, -2.566e-4
