Potential V vs RHE, Current mA cm-2
0.013299999999999867,-0.3511313446265021
0.012299999999999978,-1.3107300193249565
0.011299999999999866,-2.052746096104168
0.010299999999999976,-2.662486666345999
0.009299999999999864,-3.1859298472960624
0.008299999999999974,-3.6655169779503103
0.007299999999999862,-4.014950669016974
0.006299999999999972,-4.364384360083638
0.00529999999999986,-4.626105950558669
0.0042999999999999705,-4.887827541033701
0.0032999999999998586,-5.149549131508733
0.0022999999999999687,-5.323558621392133
0.0012999999999998568,-5.5414241615713475
0.00029999999999996696,-5.715433651454749
-0.000700000000000145,-5.847001802342197
-0.0017000000000000348,-5.977155241929781
-0.0027000000000001467,-6.108723392817228
-0.0037000000000000366,-6.196435493408861
-0.0047000000000001485,-6.326588932996443
-0.005700000000000038,-6.414301033588076
-0.00670000000000015,-6.500598422879844
-0.00770000000000004,-6.588310523471475
-0.008700000000000152,-6.632166573767292
-0.009700000000000042,-6.6760226240631075
-0.010700000000000154,-6.762320013354876
-0.011700000000000044,-6.850032113946507
-0.012700000000000156,-6.93774421453814
-0.013700000000000045,-7.024041603829907
-0.014700000000000157,-7.111753704421539
-0.015700000000000047,-7.199465805013171
-0.01670000000000016,-7.28576319430494
-0.01770000000000005,-7.329619244600755
-0.01870000000000016,-7.37347529489657
-0.01970000000000005,-7.4173313451923875
-0.020700000000000163,-7.4173313451923875
-0.021700000000000053,-7.4173313451923875
-0.022700000000000164,-7.461187395488204
-0.023700000000000054,-7.4173313451923875
-0.024700000000000166,-7.4173313451923875
-0.025700000000000056,-7.4173313451923875
-0.026700000000000168,-7.4173313451923875
-0.027700000000000058,-7.4173313451923875
-0.02870000000000017,-7.4173313451923875
-0.02970000000000006,-7.4173313451923875
-0.03070000000000017,-7.4173313451923875
-0.03170000000000006,-7.4173313451923875
-0.03270000000000017,-7.37347529489657
-0.03370000000000006,-7.37347529489657
-0.034700000000000175,-7.329619244600755
-0.035700000000000065,-7.329619244600755
-0.03670000000000018,-7.329619244600755
-0.03770000000000007,-7.329619244600755
-0.03870000000000018,-7.37347529489657
-0.03970000000000007,-7.37347529489657
-0.04070000000000018,-7.4173313451923875
-0.04170000000000007,-7.461187395488204
-0.04270000000000018,-7.461187395488204
-0.04370000000000007,-7.50504344578402
-0.044700000000000184,-7.5474847847799715
-0.045700000000000074,-7.5474847847799715
-0.046700000000000186,-7.5474847847799715
-0.047700000000000076,-7.5474847847799715
-0.04870000000000019,-7.5474847847799715
-0.04970000000000008,-7.5474847847799715
-0.05070000000000019,-7.50504344578402
-0.05170000000000008,-7.50504344578402
-0.05270000000000019,-7.50504344578402
-0.05370000000000008,-7.50504344578402
-0.05470000000000019,-7.50504344578402
-0.05570000000000008,-7.50504344578402
-0.056700000000000195,-7.50504344578402
-0.057700000000000085,-7.50504344578402
-0.058700000000000196,-7.461187395488204
-0.059700000000000086,-7.461187395488204
-0.0607000000000002,-7.4173313451923875
-0.06170000000000009,-7.4173313451923875
-0.0627000000000002,-7.4173313451923875
-0.06370000000000009,-7.37347529489657
-0.0647000000000002,-7.37347529489657
-0.06570000000000009,-7.4173313451923875
-0.0667000000000002,-7.4173313451923875
-0.0677000000000001,-7.461187395488204
-0.0687000000000002,-7.461187395488204
-0.0697000000000001,-7.50504344578402
-0.07070000000000021,-7.50504344578402
-0.0717000000000001,-7.50504344578402
-0.07270000000000021,-7.50504344578402
-0.0737000000000001,-7.50504344578402
-0.07470000000000021,-7.50504344578402
-0.0757000000000001,-7.461187395488204
-0.07670000000000021,-7.461187395488204
-0.0777000000000001,-7.461187395488204
-0.07870000000000021,-7.4173313451923875
-0.0797000000000001,-7.4173313451923875
-0.08070000000000022,-7.4173313451923875
-0.0817000000000001,-7.37347529489657
-0.08270000000000022,-7.37347529489657
-0.08370000000000011,-7.329619244600755
-0.08470000000000022,-7.329619244600755
-0.08570000000000011,-7.28576319430494
-0.08670000000000022,-7.28576319430494
-0.08770000000000011,-7.243321855308987
-0.08870000000000022,-7.243321855308987
-0.08970000000000011,-7.243321855308987
-0.09070000000000022,-7.243321855308987
-0.09170000000000011,-7.243321855308987
-0.09270000000000023,-7.243321855308987
-0.09370000000000012,-7.28576319430494
-0.09470000000000023,-7.28576319430494
-0.09570000000000012,-7.329619244600755
-0.09670000000000023,-7.37347529489657
-0.09770000000000012,-7.37347529489657
-0.09870000000000023,-7.37347529489657
-0.09970000000000012,-7.37347529489657
-0.10070000000000023,-7.4173313451923875
-0.10170000000000012,-7.4173313451923875
-0.10270000000000024,-7.4173313451923875
-0.10370000000000013,-7.4173313451923875
-0.10470000000000024,-7.4173313451923875
-0.10570000000000013,-7.37347529489657
-0.10670000000000024,-7.37347529489657
-0.10770000000000013,-7.37347529489657
-0.10870000000000024,-7.37347529489657
-0.10970000000000013,-7.37347529489657
-0.11070000000000024,-7.37347529489657
-0.11170000000000013,-7.329619244600755
-0.11270000000000002,-7.329619244600755
-0.11370000000000013,-7.329619244600755
-0.11470000000000002,-7.28576319430494
-0.11570000000000014,-7.28576319430494
-0.11670000000000003,-7.28576319430494
-0.11770000000000014,-7.28576319430494
-0.11870000000000003,-7.329619244600755
-0.11970000000000014,-7.37347529489657
-0.12070000000000003,-7.37347529489657
-0.12170000000000014,-7.4173313451923875
-0.12270000000000003,-7.461187395488204
-0.12370000000000014,-7.461187395488204
-0.12470000000000003,-7.50504344578402
-0.12570000000000014,-7.50504344578402
-0.12670000000000003,-7.461187395488204
-0.12770000000000015,-7.50504344578402
-0.12870000000000004,-7.461187395488204
-0.12970000000000015,-7.461187395488204
-0.13070000000000004,-7.461187395488204
-0.13170000000000015,-7.461187395488204
-0.13270000000000004,-7.461187395488204
-0.13370000000000015,-7.461187395488204
-0.13470000000000004,-7.50504344578402
-0.13570000000000015,-7.50504344578402
-0.13670000000000004,-7.50504344578402
-0.13770000000000016,-7.5474847847799715
-0.13870000000000005,-7.50504344578402
-0.13970000000000016,-7.50504344578402
-0.14070000000000005,-7.50504344578402
-0.14170000000000016,-7.5474847847799715
-0.14270000000000005,-7.50504344578402
-0.14370000000000016,-7.5474847847799715
-0.14470000000000005,-7.5474847847799715
-0.14570000000000016,-7.5474847847799715
-0.14670000000000005,-7.591340835075788
-0.14770000000000016,-7.635196885371603
-0.14870000000000005,-7.635196885371603
-0.14970000000000017,-7.679052935667419
-0.15070000000000006,-7.722908985963235
-0.15170000000000017,-7.722908985963235
-0.15270000000000006,-7.722908985963235
-0.15370000000000017,-7.722908985963235
-0.15470000000000006,-7.722908985963235
-0.15570000000000017,-7.722908985963235
-0.15670000000000006,-7.722908985963235
-0.15770000000000017,-7.722908985963235
-0.15870000000000006,-7.7653503249591855
-0.15970000000000018,-7.809206375255003
-0.16070000000000007,-7.809206375255003
-0.16170000000000018,-7.853062425550818
-0.16270000000000007,-7.896918475846635
-0.16370000000000018,-7.896918475846635
-0.16470000000000007,-7.896918475846635
-0.16570000000000018,-7.896918475846635
-0.16670000000000007,-7.896918475846635
-0.16770000000000018,-7.896918475846635
-0.16870000000000007,-7.896918475846635
-0.16970000000000018,-7.896918475846635
-0.17070000000000007,-7.896918475846635
-0.17170000000000019,-7.896918475846635
-0.17270000000000008,-7.896918475846635
-0.1737000000000002,-7.940774526142452
-0.17470000000000008,-7.984630576438266
-0.1757000000000002,-8.027071915434218
-0.17670000000000008,-8.070927965730034
-0.1777000000000002,-8.11478401602585
-0.17870000000000008,-8.11478401602585
-0.1797000000000002,-8.158640066321666
-0.18070000000000008,-8.158640066321666
-0.1817000000000002,-8.158640066321666
-0.18270000000000008,-8.158640066321666
-0.1837000000000002,-8.158640066321666
-0.1847000000000001,-8.202496116617484
-0.1857000000000002,-8.202496116617484
-0.1867000000000001,-8.246352166913299
-0.1877000000000002,-8.288793505909249
-0.1887000000000001,-8.288793505909249
-0.1897000000000002,-8.288793505909249
-0.1907000000000001,-8.288793505909249
-0.1917000000000001,-8.288793505909249
-0.19269999999999998,-8.288793505909249
-0.1937000000000001,-8.288793505909249
-0.19469999999999998,-8.288793505909249
-0.1957000000000001,-8.288793505909249
-0.19669999999999999,-8.332649556205066
-0.1977000000000001,-8.332649556205066
-0.1987,-8.376505606500881
-0.1997000000000001,-8.4203616567967
-0.2007,-8.464217707092514
-0.2017000000000001,-8.508073757388331
-0.2027,-8.55051509638428
-0.2037000000000001,-8.594371146680096
-0.2047,-8.638227196975913
-0.2057000000000001,-8.594371146680096
-0.2067,-8.638227196975913
-0.2077000000000001,-8.638227196975913
-0.2087,-8.68208324727173
-0.2097000000000001,-8.68208324727173
-0.2107,-8.68208324727173
-0.2117000000000001,-8.68208324727173
-0.2127,-8.725939297567548
-0.2137000000000001,-8.725939297567548
-0.2147,-8.769795347863363
-0.2157000000000001,-8.85609273715513
-0.2167,-8.85609273715513
-0.21770000000000012,-8.85609273715513
-0.2187,-8.899948787450944
-0.21970000000000012,-8.899948787450944
-0.2207,-8.899948787450944
-0.22170000000000012,-8.899948787450944
-0.2227,-8.899948787450944
-0.22370000000000012,-8.899948787450944
-0.2247,-8.899948787450944
-0.22570000000000012,-8.943804837746763
-0.2267,-8.987660888042578
-0.22770000000000012,-9.031516938338395
-0.22870000000000001,-9.073958277334345
-0.22970000000000013,-9.073958277334345
-0.23070000000000002,-9.11781432763016
-0.23170000000000013,-9.11781432763016
-0.23270000000000002,-9.161670377925978
-0.23370000000000013,-9.161670377925978
-0.23470000000000002,-9.161670377925978
-0.23570000000000013,-9.205526428221793
-0.23670000000000002,-9.205526428221793
-0.2376999999999999,-9.205526428221793
-0.23870000000000002,-9.205526428221793
-0.2396999999999999,-9.205526428221793
-0.24070000000000003,-9.24938247851761
-0.24169999999999991,-9.293238528813426
-0.24270000000000003,-9.293238528813426
-0.24369999999999992,-9.335679867809377
-0.24470000000000003,-9.335679867809377
-0.24569999999999992,-9.335679867809377
-0.24670000000000003,-9.379535918105192
-0.24769999999999992,-9.335679867809377
-0.24870000000000003,-9.379535918105192
-0.24969999999999992,-9.335679867809377
-0.25070000000000003,-9.379535918105192
-0.2516999999999999,-9.423391968401008
-0.25270000000000004,-9.423391968401008
-0.2536999999999999,-9.467248018696827
-0.25470000000000004,-9.511104068992642
-0.2556999999999999,-9.55496011928846
-0.25670000000000004,-9.59740145828441
-0.25769999999999993,-9.59740145828441
-0.25870000000000004,-9.641257508580225
-0.25969999999999993,-9.641257508580225
-0.26070000000000004,-9.685113558876042
-0.26169999999999993,-9.685113558876042
-0.26270000000000004,-9.685113558876042
-0.26369999999999993,-9.728969609171857
-0.26470000000000005,-9.772825659467674
-0.26569999999999994,-9.81668170976349
-0.26670000000000005,-9.81668170976349
-0.26769999999999994,-9.85912304875944
-0.26870000000000005,-9.85912304875944
-0.26969999999999994,-9.902979099055257
-0.27070000000000005,-9.902979099055257
-0.27169999999999994,-9.946835149351072
-0.27270000000000005,-9.946835149351072
-0.27369999999999994,-9.99069119964689
-0.27470000000000006,-9.99069119964689
-0.27569999999999995,-10.034547249942705
-0.27670000000000006,-10.078403300238522
-0.27769999999999995,-10.078403300238522
-0.27870000000000006,-10.164700689530287
-0.27969999999999995,-10.208556739826104
-0.28070000000000006,-10.25241279012192
-0.28169999999999995,-10.296268840417738
-0.28270000000000006,-10.340124890713554
-0.28369999999999995,-10.382566229709504
-0.28470000000000006,-10.42642228000532
-0.28569999999999995,-10.42642228000532
-0.28670000000000007,-10.470278330301136
-0.28769999999999996,-10.514134380596953
-0.28870000000000007,-10.514134380596953
-0.28969999999999996,-10.557990430892769
-0.29070000000000007,-10.557990430892769
-0.29169999999999996,-10.644287820184536
-0.29270000000000007,-10.688143870480351
-0.29369999999999996,-10.775855971071984
-0.2947000000000001,-10.863568071663616
-0.29569999999999996,-10.949865460955383
-0.2967000000000001,-11.037577561547016
-0.29769999999999996,-11.123874950838783
-0.2987000000000001,-11.1677310011346
-0.29969999999999997,-11.255443101726232
-0.3007000000000001,-11.343155202317865
-0.30169999999999997,-11.42945259160963
-0.3027000000000001,-11.517164692201263
-0.30369999999999997,-11.56102074249708
-0.3047000000000001,-11.691174182084664
-0.30569999999999997,-11.778886282676295
-0.3067000000000001,-11.909039722263879
-0.3077,-11.996751822855511
-0.3087000000000001,-12.084463923447142
-0.3097,-12.214617363034726
-0.3107000000000001,-12.302329463626359
-0.3117,-12.432482903213943
-0.3127000000000001,-12.520195003805576
-0.3137,-12.651763154693022
-0.3147000000000001,-12.73806054398479
-0.3157,-12.869628694872238
-0.3167000000000001,-12.99978213445982
-0.3177,-13.13135028534727
-0.3187000000000001,-13.261503724934855
-0.3197,-13.436927926118118
-0.3207000000000001,-13.567081365705702
-0.3217,-13.741090855589102
-0.3227000000000001,-13.872659006476551
-0.3237,-14.046668496359947
-0.3247000000000001,-14.217848563643619
-0.3257,-14.345172580631472
-0.3267000000000001,-14.529085049613924
-0.3277,-14.69885040559773
-0.3287000000000001,-14.925204213576137
-0.3297,-15.179852247551842
-0.3307000000000001,-15.448647394526201
-0.3317,-15.74573676749786
-0.3327000000000001,-16.099414592464115
-0.3337,-16.438945304431726
-0.3347000000000001,-16.835064468393938
-0.3357,-17.231183632356142
-0.3367000000000001,-17.669744135314307
-0.3377,-18.15074597726842
-0.3387000000000001,-18.631747819222536
-0.3397,-19.112749661176647
-0.3407000000000001,-19.579604390132108
-0.3417,-20.06060623208622
-0.3427000000000001,-20.584049413036283
-0.3437,-21.149933932982297
-0.3447000000000001,-21.729965565926964
-0.3457,-22.33829142486893
-0.3467000000000001,-22.946617283810895
-0.3477,-23.597384481748815
-0.3487000000000001,-24.24815167968673
-0.3497,-24.95550732961925
-0.3507000000000001,-25.648715866553115
-0.3517,-26.34192440348698
-0.3527000000000001,-27.134162731411404
-0.3537,-27.954695285333123
-0.3547000000000001,-28.789374952253496
-0.3557,-29.708937297165768
-0.35670000000000013,-30.614352529079397
-0.3577,-31.661238890979522
-0.35870000000000013,-32.764713704874254
-0.3597,-33.89648274476628
-0.36070000000000013,-35.07069312365426
-0.3617,-36.329786180534136
-0.3626999999999999,-37.60302635041268
-0.3637,-38.94700208528445
-0.3646999999999999,-40.30512493315489
-0.3657,-41.74813045901723
-0.3666999999999999,-43.17698887188092
-0.3677,-44.704877075735155
-0.3686999999999999,-46.2327652795894
-0.36970000000000003,-47.80309482243959
-0.3706999999999999,-49.41586570428573
-0.37170000000000003,-51.071077925127824
-0.3726999999999999,-52.78287859796452
-0.37370000000000003,-54.52297349679851
-0.3746999999999999,-56.30550973462846
-0.37570000000000003,-58.14463442445301
-0.3766999999999999,-59.9696120012789
-0.37770000000000004,-61.80873669110345
-0.3786999999999999,-63.6761556069253
-0.37970000000000004,-65.60016297474175
-0.3806999999999999,-67.52417034255821
-0.38170000000000004,-69.4906190493706
-0.38269999999999993,-71.44292064318435
-0.38370000000000004,-73.40936934999675
-0.38469999999999993,-75.4182593958051
-0.38570000000000004,-77.46959078060941
-0.38669999999999993,-78.68624249849334
-0.38570000000000004,-78.72868383748929
-0.38469999999999993,-78.91259630647174
-0.38370000000000004,-79.1248030014515
-0.38269999999999993,-79.2945683574353
-0.38170000000000004,-79.42189237442317
-0.3806999999999999,-79.52092216541372
-0.37970000000000004,-79.52092216541372
-0.3786999999999999,-79.52092216541372
-0.37770000000000004,-79.42189237442317
-0.3766999999999999,-79.2945683574353
-0.37570000000000003,-79.08236166245555
-0.3746999999999999,-78.85600785447714
-0.37370000000000003,-78.60135982050144
-0.3726999999999999,-78.29012333453113
-0.37170000000000003,-77.90815128356756
-0.3706999999999999,-77.55447345860131
-0.36970000000000003,-77.0734716166472
-0.3686999999999999,-76.5924697746931
-0.3677,-76.06902659374302
-0.3666999999999999,-75.54558341279296
-0.3657,-74.93725755385098
-0.3646999999999999,-74.37137303390499
-0.3637,-73.72060583596706
-0.3626999999999999,-73.09813286402644
-0.3617,-72.44736566608852
-0.36070000000000013,-71.7965984681506
-0.3597,-71.10338993121674
-0.35870000000000013,-70.43847562028017
-0.3577,-69.78770842234226
-0.35670000000000013,-69.13694122440434
-0.3557,-68.44373268747047
-0.3547000000000001,-67.7788183765339
-0.3537,-67.04316850060408
-0.3527000000000001,-66.29337151167562
-0.3517,-65.60016297474175
-0.3507000000000001,-64.82207175981598
-0.3497,-64.11471610988345
-0.3487000000000001,-63.421507572949594
-0.3477,-62.68585769701977
-0.3467000000000001,-62.02094338608321
-0.3457,-61.28529351015339
-0.3447000000000001,-60.59208497321952
-0.3437,-59.842287984291055
-0.3427000000000001,-59.14907944735718
-0.3417,-58.45587091042332
-0.3407000000000001,-57.70607392149485
-0.3397,-56.97042404556503
-0.3387000000000001,-56.22062705663656
-0.3377,-55.484977180706736
-0.3367000000000001,-54.791768643772876
-0.3357,-54.08441299384035
-0.3347000000000001,-53.39120445690648
-0.3337,-52.69799591997262
-0.3327000000000001,-51.990640270040096
-0.3317,-51.29743173310623
-0.3307000000000001,-50.60422319617236
-0.3297,-49.89686754623985
-0.3287000000000001,-49.20365900930597
-0.3277,-48.51045047237211
-0.3267000000000001,-47.76065348344364
-0.3257,-47.067444946509774
-0.3247000000000001,-46.37423640957591
-0.3237,-45.666880759643384
-0.3227000000000001,-44.93123088371356
-0.3217,-44.223875233781044
-0.3207000000000001,-43.53066669684718
-0.3197,-42.837458159913304
-0.3187000000000001,-42.130102509980794
-0.3177,-41.47933531204288
-0.3167000000000001,-40.78612677510901
-0.3157,-40.135359577171094
-0.3147000000000001,-39.42800392723857
-0.3137,-38.734795390304704
-0.3127000000000001,-38.08402819236679
-0.3117,-37.376672542434264
-0.3107000000000001,-36.6834640055004
-0.3097,-36.03269680756248
-0.3087000000000001,-35.32534115762997
-0.3077,-34.717015298688004
-0.3067000000000001,-34.06624810075008
-0.30569999999999997,-33.41548090281216
-0.3047000000000001,-32.70812525287965
-0.30369999999999997,-32.09979939393769
-0.3027000000000001,-31.49147353499572
-0.30169999999999997,-30.8407063370578
-0.3007000000000001,-30.189939139119886
-0.29969999999999997,-29.525024828183312
-0.2987000000000001,-28.91669896924135
-0.29769999999999996,-28.308373110299385
-0.2967000000000001,-27.700047251357418
-0.29569999999999996,-27.091721392415455
-0.2947000000000001,-26.525836872469437
-0.29369999999999996,-25.959952352523427
-0.29270000000000007,-25.39406783257741
-0.29169999999999996,-24.870624651627345
-0.29070000000000007,-24.290593018682678
-0.28969999999999996,-23.724708498736668
-0.28870000000000007,-23.2012653177866
-0.28769999999999996,-22.63538079784059
-0.28670000000000007,-22.069496277894572
-0.28569999999999995,-21.54605309694451
-0.28470000000000006,-21.022609915994444
-0.28369999999999995,-20.499166735044383
-0.28270000000000006,-20.01816489309027
-0.28169999999999995,-19.49472171214021
-0.28070000000000006,-19.01371987018609
-0.27969999999999995,-18.53271802823198
-0.27870000000000006,-18.06586329927652
-0.27769999999999995,-17.584861457322408
-0.27670000000000006,-17.103859615368293
-0.27569999999999995,-16.622857773414182
-0.27470000000000006,-16.141855931460068
-0.27369999999999994,-15.660854089505953
-0.27270000000000005,-15.179852247551842
-0.27169999999999994,-14.69885040559773
-0.27070000000000005,-14.26028990263957
-0.26969999999999994,-13.828802956180734
-0.26870000000000005,-13.3930718758223
-0.26769999999999994,-12.99978213445982
-0.26670000000000005,-12.56405105410139
-0.26569999999999994,-12.170761312738911
-0.26470000000000005,-11.778886282676295
-0.26369999999999993,-11.385596541313816
