Potential V vs RHE, Current mA cm-2
0.013299999999999867,0.870188920546984
0.012299999999999978,-0.8745745255765657
0.011299999999999866,-2.576189277054232
0.010299999999999976,-4.1889601589003735
0.009299999999999864,-5.759289701750564
0.008299999999999974,-7.28576319430494
0.007299999999999862,-8.85609273715513
0.006299999999999972,-10.340124890713554
0.00529999999999986,-11.778886282676295
0.0042999999999999705,-13.217647674639037
0.0032999999999998586,-14.57152638860988
0.0022999999999999687,-15.91550212348166
0.0012999999999998568,-17.2736249713521
0.00029999999999996696,-18.49027668923603
-0.000700000000000145,-19.763516859114564
-0.0017000000000000348,-20.980168576998494
-0.0027000000000001467,-22.253408746877028
-0.0037000000000000366,-23.51250180375691
-0.0047000000000001485,-24.729153521640843
-0.005700000000000038,-25.959952352523427
-0.00670000000000015,-27.091721392415455
-0.00770000000000004,-28.22349043230748
-0.008700000000000152,-29.31281813320356
-0.009700000000000042,-30.359704495103685
-0.010700000000000154,-31.36414951800786
-0.011700000000000044,-32.283711862920136
-0.012700000000000156,-33.231568433829715
-0.013700000000000045,-34.236013456733886
-0.014700000000000157,-35.282899818634014
-0.015700000000000047,-36.329786180534136
-0.01670000000000016,-37.376672542434264
-0.01770000000000005,-38.38111756533845
-0.01870000000000016,-39.30067991025072
-0.01970000000000005,-40.177800916167044
-0.020700000000000163,-40.99833347008877
-0.021700000000000053,-41.74813045901723
-0.022700000000000164,-42.483780334947056
-0.023700000000000054,-43.23357732387552
-0.024700000000000166,-43.92678586080939
-0.025700000000000056,-44.704877075735155
-0.026700000000000168,-45.497115403659585
-0.027700000000000058,-46.37423640957591
-0.02870000000000017,-47.23721030249357
-0.02970000000000006,-48.071889969413945
-0.03070000000000017,-48.89242252333566
-0.03170000000000006,-49.59977817326819
-0.03270000000000017,-50.29298671020206
-0.03370000000000006,-50.85887123014807
-0.034700000000000175,-51.424755750094086
-0.035700000000000065,-52.033081609036046
-0.03670000000000018,-52.64140746797801
-0.03770000000000007,-53.348763117910536
-0.03870000000000018,-54.0419716548444
-0.03970000000000007,-54.73518019177827
-0.04070000000000018,-55.484977180706736
-0.04170000000000007,-56.13574437864466
-0.04270000000000018,-56.82895291557852
-0.04370000000000007,-57.408984548523186
-0.044700000000000184,-57.974869068469204
-0.045700000000000074,-58.54075358841522
-0.046700000000000186,-59.10663810836124
-0.047700000000000076,-59.6300812893113
-0.04870000000000019,-60.19596580925731
-0.04970000000000008,-60.80429166819927
-0.05070000000000019,-61.37017618814529
-0.05170000000000008,-61.97850204708726
-0.05270000000000019,-62.64341635802381
-0.05370000000000008,-63.251742216965795
-0.05470000000000019,-63.77518539791585
-0.05570000000000008,-64.29862857886593
-0.056700000000000195,-64.72304196882543
-0.057700000000000085,-65.11916113278764
-0.058700000000000196,-65.4728389577539
-0.059700000000000086,-65.86895812171612
-0.0607000000000002,-66.34995996367022
-0.06170000000000009,-66.81681469262568
-0.0627000000000002,-67.39684632557035
-0.06370000000000009,-67.86370105452582
-0.0647000000000002,-68.38714423547587
-0.06570000000000009,-68.82570473843404
-0.0667000000000002,-69.22182390239624
-0.0677000000000001,-69.61794306635846
-0.0687000000000002,-69.87259110033416
-0.0697000000000001,-70.18382758630447
-0.07070000000000021,-70.48091695927613
-0.0717000000000001,-70.74971210625048
-0.07270000000000021,-71.06094859222078
-0.0737000000000001,-71.35803796519245
-0.07470000000000021,-71.7117157901587
-0.0757000000000001,-72.15027629311687
-0.07670000000000021,-72.36248298809663
-0.0777000000000001,-72.80104349105478
-0.07870000000000021,-73.09813286402644
-0.0797000000000001,-73.3669280110008
-0.08070000000000022,-73.53669336698461
-0.0817000000000001,-73.57913470598055
-0.08270000000000022,-73.72060583596706
-0.08370000000000011,-74.0176952089387
-0.08470000000000022,-74.32893169490903
-0.08570000000000011,-74.66846240687663
-0.08670000000000022,-75.02214023184291
-0.08770000000000011,-75.33337671781321
-0.08870000000000022,-75.63046609078486
-0.08970000000000011,-75.85681989876326
-0.09070000000000022,-75.98414391575112
-0.09170000000000011,-76.11146793273898
-0.09270000000000023,-76.19635061073087
-0.09370000000000012,-76.33782174071737
-0.09470000000000023,-76.50758709670117
-0.09570000000000012,-76.5924697746931
-0.09670000000000023,-76.7622351306769
-0.09770000000000012,-77.03103027765125
-0.09870000000000023,-77.20079563363505
-0.09970000000000012,-77.42714944161345
-0.10070000000000023,-77.59691479759726
-0.10170000000000012,-77.80912149257702
-0.10270000000000024,-77.90815128356756
-0.10370000000000013,-77.99303396155948
-0.10470000000000024,-78.16279931754329
-0.10570000000000013,-78.29012333453113
-0.10670000000000024,-78.43159446451764
-0.10770000000000013,-78.60135982050144
-0.10870000000000024,-78.68624249849334
-0.10970000000000013,-78.72868383748929
-0.11070000000000024,-78.8135665154812
-0.11170000000000013,-78.9550376454677
-0.11270000000000002,-79.1248030014515
-0.11370000000000013,-79.20968567944341
-0.11470000000000002,-79.25212701843935
-0.11570000000000014,-79.25212701843935
-0.11670000000000003,-79.2945683574353
-0.11770000000000014,-79.2945683574353
-0.11870000000000003,-79.2945683574353
-0.11970000000000014,-79.2945683574353
-0.12070000000000003,-79.2945683574353
-0.12170000000000014,-79.2945683574353
-0.12270000000000003,-79.37945103542721
-0.12370000000000014,-79.47848082641775
-0.12470000000000003,-79.47848082641775
-0.12570000000000014,-79.47848082641775
-0.12670000000000003,-79.42189237442317
-0.12770000000000015,-79.37945103542721
-0.12870000000000004,-79.37945103542721
-0.12970000000000015,-79.42189237442317
-0.13070000000000004,-79.47848082641775
-0.13170000000000015,-79.52092216541372
-0.13270000000000004,-79.56336350440966
-0.13370000000000015,-79.56336350440966
-0.13470000000000004,-79.56336350440966
-0.13570000000000015,-79.42189237442317
-0.13670000000000004,-79.37945103542721
-0.13770000000000016,-79.2945683574353
-0.13870000000000005,-79.2945683574353
-0.13970000000000016,-79.33700969643127
-0.14070000000000005,-79.33700969643127
-0.14170000000000016,-79.37945103542721
-0.14270000000000005,-79.37945103542721
-0.14370000000000016,-79.37945103542721
-0.14470000000000005,-79.37945103542721
-0.14570000000000016,-79.37945103542721
-0.14670000000000005,-79.33700969643127
-0.14770000000000016,-79.2945683574353
-0.14870000000000005,-79.2945683574353
-0.14970000000000017,-79.33700969643127
-0.15070000000000006,-79.33700969643127
-0.15170000000000017,-79.33700969643127
-0.15270000000000006,-79.2945683574353
-0.15370000000000017,-79.25212701843935
-0.15470000000000006,-79.16724434044745
-0.15570000000000017,-79.1248030014515
-0.15670000000000006,-78.99747898446365
-0.15770000000000017,-78.9550376454677
-0.15870000000000006,-78.99747898446365
-0.15970000000000018,-78.99747898446365
-0.16070000000000007,-79.0399203234596
-0.16170000000000018,-79.0399203234596
-0.16270000000000007,-78.99747898446365
-0.16370000000000018,-78.99747898446365
-0.16470000000000007,-78.9550376454677
-0.16570000000000018,-78.85600785447714
-0.16670000000000007,-78.8135665154812
-0.16770000000000018,-78.77112517648524
-0.16870000000000007,-78.72868383748929
-0.16970000000000018,-78.72868383748929
-0.17070000000000007,-78.72868383748929
-0.17170000000000019,-78.77112517648524
-0.17270000000000008,-78.77112517648524
-0.1737000000000002,-78.77112517648524
-0.17470000000000008,-78.77112517648524
-0.1757000000000002,-78.68624249849334
-0.17670000000000008,-78.60135982050144
-0.1777000000000002,-78.60135982050144
-0.17870000000000008,-78.60135982050144
-0.1797000000000002,-78.55891848150549
-0.18070000000000008,-78.60135982050144
-0.1817000000000002,-78.64380115949739
-0.18270000000000008,-78.68624249849334
-0.1837000000000002,-78.68624249849334
-0.1847000000000001,-78.60135982050144
-0.1857000000000002,-78.38915312552167
-0.1867000000000001,-78.20524065653922
-0.1877000000000002,-78.12035797854733
-0.1887000000000001,-78.12035797854733
-0.1897000000000002,-78.12035797854733
-0.1907000000000001,-78.12035797854733
-0.1917000000000001,-78.12035797854733
-0.19269999999999998,-78.20524065653922
-0.1937000000000001,-78.20524065653922
-0.19469999999999998,-78.16279931754329
-0.1957000000000001,-78.12035797854733
-0.19669999999999999,-78.03547530055542
-0.1977000000000001,-77.90815128356756
-0.1987,-77.80912149257702
-0.1997000000000001,-77.76668015358106
-0.2007,-77.7242388145851
-0.2017000000000001,-77.76668015358106
-0.2027,-77.80912149257702
-0.2037000000000001,-77.86570994457162
-0.2047,-77.86570994457162
-0.2057000000000001,-77.80912149257702
-0.2067,-77.76668015358106
-0.2077000000000001,-77.59691479759726
-0.2087,-77.46959078060941
-0.2097000000000001,-77.34226676362155
-0.2107,-77.28567831162695
-0.2117000000000001,-77.28567831162695
-0.2127,-77.38470810261751
-0.2137000000000001,-77.46959078060941
-0.2147,-77.51203211960537
-0.2157000000000001,-77.63935613659322
-0.2167,-77.68179747558916
-0.21770000000000012,-77.68179747558916
-0.2187,-77.63935613659322
-0.21970000000000012,-77.63935613659322
-0.2207,-77.59691479759726
-0.22170000000000012,-77.55447345860131
-0.2227,-77.55447345860131
-0.22370000000000012,-77.55447345860131
-0.2247,-77.55447345860131
-0.22570000000000012,-77.68179747558916
-0.2267,-77.80912149257702
-0.22770000000000012,-77.95059262256353
-0.22870000000000001,-77.99303396155948
-0.22970000000000013,-77.99303396155948
-0.23070000000000002,-77.95059262256353
-0.23170000000000013,-77.86570994457162
-0.23270000000000002,-77.76668015358106
-0.23370000000000013,-77.76668015358106
-0.23470000000000002,-77.80912149257702
-0.23570000000000013,-77.95059262256353
-0.23670000000000002,-78.03547530055542
-0.2376999999999999,-78.12035797854733
-0.23870000000000002,-78.16279931754329
-0.2396999999999999,-78.20524065653922
-0.24070000000000003,-78.20524065653922
-0.24169999999999991,-78.16279931754329
-0.24270000000000003,-78.07791663955136
-0.24369999999999992,-78.03547530055542
-0.24470000000000003,-77.99303396155948
-0.24569999999999992,-77.99303396155948
-0.24670000000000003,-77.99303396155948
-0.24769999999999992,-77.99303396155948
-0.24870000000000003,-78.03547530055542
-0.24969999999999992,-78.12035797854733
-0.25070000000000003,-78.20524065653922
-0.2516999999999999,-78.24768199553519
-0.25270000000000004,-78.33256467352709
-0.2536999999999999,-78.33256467352709
-0.25470000000000004,-78.33256467352709
-0.2556999999999999,-78.24768199553519
-0.25670000000000004,-78.12035797854733
-0.25769999999999993,-78.03547530055542
-0.25870000000000004,-78.07791663955136
-0.25969999999999993,-78.16279931754329
-0.26070000000000004,-78.24768199553519
-0.26169999999999993,-78.38915312552167
-0.26270000000000004,-78.47403580351359
-0.26369999999999993,-78.55891848150549
-0.26470000000000005,-78.55891848150549
-0.26569999999999994,-78.55891848150549
-0.26670000000000005,-78.51647714250953
-0.26769999999999994,-78.47403580351359
-0.26870000000000005,-78.47403580351359
-0.26969999999999994,-78.43159446451764
-0.27070000000000005,-78.43159446451764
-0.27169999999999994,-78.47403580351359
-0.27270000000000005,-78.51647714250953
-0.27369999999999994,-78.60135982050144
-0.27470000000000006,-78.72868383748929
-0.27569999999999995,-78.77112517648524
-0.27670000000000006,-78.8135665154812
-0.27769999999999995,-78.77112517648524
-0.27870000000000006,-78.64380115949739
-0.27969999999999995,-78.47403580351359
-0.28070000000000006,-78.38915312552167
-0.28169999999999995,-78.43159446451764
-0.28270000000000006,-78.51647714250953
-0.28369999999999995,-78.64380115949739
-0.28470000000000006,-78.72868383748929
-0.28569999999999995,-78.8135665154812
-0.28670000000000007,-78.91259630647174
-0.28769999999999996,-78.9550376454677
-0.28870000000000007,-78.85600785447714
-0.28969999999999996,-78.8135665154812
-0.29070000000000007,-78.72868383748929
-0.29169999999999996,-78.60135982050144
-0.29270000000000007,-78.55891848150549
-0.29369999999999996,-78.60135982050144
-0.2947000000000001,-78.72868383748929
-0.29569999999999996,-78.85600785447714
-0.2967000000000001,-78.99747898446365
-0.29769999999999996,-79.1248030014515
-0.2987000000000001,-79.1248030014515
-0.29969999999999997,-79.1248030014515
-0.3007000000000001,-78.99747898446365
-0.30169999999999997,-78.85600785447714
-0.3027000000000001,-78.72868383748929
-0.30369999999999997,-78.72868383748929
-0.3047000000000001,-78.8135665154812
-0.30569999999999997,-78.99747898446365
-0.3067000000000001,-79.20968567944341
-0.3077,-79.33700969643127
-0.3087000000000001,-79.42189237442317
-0.3097,-79.52092216541372
-0.3107000000000001,-79.52092216541372
-0.3117,-79.42189237442317
-0.3127000000000001,-79.37945103542721
-0.3137,-79.2945683574353
-0.3147000000000001,-79.25212701843935
-0.3157,-79.25212701843935
-0.3167000000000001,-79.37945103542721
-0.3177,-79.52092216541372
-0.3187000000000001,-79.69068752139752
-0.3197,-79.81801153838538
-0.3207000000000001,-79.90289421637728
-0.3217,-79.90289421637728
-0.3227000000000001,-79.81801153838538
-0.3237,-79.73312886039348
-0.3247000000000001,-79.64824618240156
-0.3257,-79.64824618240156
-0.3267000000000001,-79.69068752139752
-0.3277,-79.81801153838538
-0.3287000000000001,-79.94533555537322
-0.3297,-80.04436534636378
-0.3307000000000001,-80.08680668535972
-0.3317,-80.12924802435568
-0.3327000000000001,-80.12924802435568
-0.3337,-80.12924802435568
-0.3347000000000001,-80.12924802435568
-0.3357,-80.12924802435568
-0.3367000000000001,-80.12924802435568
-0.3377,-80.17168936335163
-0.3387000000000001,-80.21413070234757
-0.3397,-80.29901338033947
-0.3407000000000001,-80.42633739732734
-0.3417,-80.61024986630979
-0.3427000000000001,-80.73757388329766
-0.3437,-80.90733923928146
-0.3447000000000001,-80.9497805782774
-0.3457,-80.99222191727335
-0.3467000000000001,-80.99222191727335
-0.3477,-81.04881036926795
-0.3487000000000001,-81.13369304725985
-0.3497,-81.30345840324367
-0.3507000000000001,-81.47322375922747
-0.3517,-81.61469488921396
-0.3527000000000001,-81.82690158419373
-0.3537,-82.03910827917348
-0.3547000000000001,-82.22302074815593
-0.3557,-82.39278610413973
-0.35670000000000013,-82.47766878213164
-0.3577,-82.61913991211814
-0.35870000000000013,-82.70402259011003
-0.3597,-82.78890526810196
-0.36070000000000013,-82.87378794609386
-0.3617,-83.0011119630817
-0.3626999999999999,-83.18502443206415
-0.3637,-83.43967246603985
-0.3646999999999999,-83.70846761301424
-0.3657,-83.96311564698992
-0.3666999999999999,-84.13288100297372
-0.3677,-84.35923481095215
-0.3686999999999999,-84.48655882793999
-0.36970000000000003,-84.57144150593189
-0.3706999999999999,-84.57144150593189
-0.37170000000000003,-84.6563241839238
-0.3726999999999999,-84.7977953139103
-0.37370000000000003,-85.052443347886
-0.3746999999999999,-85.32123849486035
-0.37570000000000003,-85.53344518984011
-0.3766999999999999,-85.75979899781852
-0.37770000000000004,-85.97200569279828
-0.3786999999999999,-86.22665372677399
-0.37970000000000004,-86.45300753475239
-0.3806999999999999,-86.6227728907362
-0.38170000000000004,-86.75009690772404
-0.38269999999999993,-86.93400937670651
-0.38370000000000004,-87.10377473269031
-0.38469999999999993,-87.23109874967815
-0.38570000000000004,-87.49989389665252
-0.38669999999999993,-86.5378902127443
-0.38570000000000004,-83.31234844905201
-0.38469999999999993,-80.34145471933543
-0.38370000000000004,-77.51203211960537
-0.38269999999999993,-74.76749219786718
-0.38170000000000004,-72.05124650212633
-0.3806999999999999,-69.43403059737601
-0.37970000000000004,-66.81681469262568
-0.3786999999999999,-64.38351125685783
-0.37770000000000004,-62.06338472507916
-0.3766999999999999,-59.884729323287
-0.37570000000000003,-57.79095659948675
-0.3746999999999999,-55.73962521468245
-0.37370000000000003,-53.872206298860604
-0.3726999999999999,-51.948198931044146
-0.37170000000000003,-50.024191563227696
-0.3706999999999999,-48.1992139864018
-0.36970000000000003,-46.3176479575813
-0.3686999999999999,-44.4926703807554
-0.3677,-42.752575481921404
-0.3666999999999999,-41.04077480908471
-0.3657,-39.42800392723857
-0.3646999999999999,-37.81523304539243
-0.3637,-36.28734484153819
-0.3626999999999999,-34.75945663768395
-0.3617,-33.330598224820264
-0.36070000000000013,-31.930034037953877
-0.3597,-30.571911190083444
-0.35870000000000013,-29.18549411621571
-0.3577,-27.869812607341224
-0.35670000000000013,-26.483395533473487
-0.3557,-25.167714024599
-0.3547000000000001,-23.823738289727217
-0.3537,-22.508056780852733
-0.3527000000000001,-21.248963723972853
-0.3517,-20.06060623208622
-0.3507000000000001,-18.88639585319824
-0.3497,-17.75462681330621
-0.3487000000000001,-16.70774045140608
-0.3477,-15.618412750510005
-0.3467000000000001,-14.529085049613924
-0.3457,-13.436927926118118
-0.3447000000000001,-12.390041564217992
-0.3437,-11.299299152022046
-0.3427000000000001,-10.25241279012192
-0.3417,-9.24938247851761
-0.3407000000000001,-8.246352166913299
-0.3397,-7.243321855308987
-0.3387000000000001,-6.326588932996443
-0.3377,-5.411270721983764
-0.3367000000000001,-4.494537799671222
-0.3357,-3.623075638954359
-0.3347000000000001,-2.7501987669376318
-0.3337,-1.8773218949209036
-0.3327000000000001,-1.0054353208140816
-0.3317,-0.1330535977523067
-0.3307000000000001,0.7393281253094681
-0.3297,1.6113561705462767
-0.3287000000000001,2.4403769922671885
-0.3277,3.225541763692284
-0.3267000000000001,4.01070653511738
-0.3257,4.795871306542475
-0.3247000000000001,5.537180027671754
-0.3237,6.278488748801033
-0.3227000000000001,7.019797469930312
-0.3217,7.761106191059591
-0.3207000000000001,8.503829623488736
-0.3197,9.201282294322198
-0.3187000000000001,9.986447065747294
-0.3177,10.683899736580756
-0.3167000000000001,11.38135240741422
-0.3157,12.080219789547549
-0.3147000000000001,12.733816410085195
-0.3137,13.431269080918659
-0.3127000000000001,14.042424362460354
-0.3117,14.65640906660178
-0.3107000000000001,15.307176264539699
-0.3097,15.957943462477614
-0.3087000000000001,16.56626932141958
-0.3077,17.188742293360193
-0.3067000000000001,17.797068152302163
-0.30569999999999997,18.40539401124413
-0.3047000000000001,19.01371987018609
-0.30369999999999997,19.622045729128057
-0.3027000000000001,20.230371588070028
-0.30169999999999997,20.75381476902009
-0.3007000000000001,21.319699288966106
-0.29969999999999997,21.899730921910766
-0.2987000000000001,22.42317410286083
-0.29769999999999996,22.989058622806844
-0.2967000000000001,23.51250180375691
-0.29569999999999996,24.078386323702922
-0.2947000000000001,24.601829504652986
-0.29369999999999996,25.12527268560305
-0.29270000000000007,25.648715866553115
-0.29169999999999996,26.17215904750318
-0.29070000000000007,26.65316088945729
-0.28969999999999996,27.176604070407354
-0.28870000000000007,27.65760591236147
-0.28769999999999996,28.039577963325023
-0.28670000000000007,28.56302114427509
-0.28569999999999995,29.044022986229205
-0.28470000000000006,29.525024828183312
-0.28369999999999995,30.00602667013743
-0.28270000000000006,30.444587173095588
-0.28169999999999995,30.88314767605375
-0.28070000000000006,31.321708179011907
-0.27969999999999995,31.788562907967375
-0.27870000000000006,32.22712341092554
-0.27769999999999995,32.66568391388369
-0.27670000000000006,33.14668575583781
-0.27569999999999995,33.58524625879597
-0.27470000000000006,33.98136542275818
-0.27369999999999994,34.4057788127177
-0.27270000000000005,34.84433931567585
-0.27169999999999994,35.240458479638065
-0.27070000000000005,35.679018982596226
-0.26969999999999994,36.01854969456383
-0.26870000000000005,36.45711019752199
-0.26769999999999994,36.81078802248826
-0.26670000000000005,37.249348525446415
-0.26569999999999994,37.645467689408626
-0.26470000000000005,38.02743974037218
-0.26369999999999993,38.42355890433439
-0.26270000000000004,38.777236729300654
-0.26169999999999993,39.116767441268266
-0.26070000000000004,39.42800392723857
