Oct. 1, 2024   05:35:13
Cyclic Voltammetry
File: c:/users/guazh/data/20240922_batch_417_500/2024-09-22-exp497\exp497-2024-10-01t05_20_16-arkoh\exp497_cv_sr_400mvs_efin_-1600mv.bin
Data Source:  Experiment
Instrument Model:  CHI760E
Header: CV ran at 400 mVs
Note: 

Init E (V) = -1
High E (V) = -1
Low E (V) = -1.6
Final E (V) = -1
Init P/N = N
Scan Rate (V/s) = 0.4
Segment = 3
Sample Interval (V) = 0.001
Quiet Time (sec) = 2
Sensitivity (A/V) = 0.01
Comp R (ohm) = 2.0

Results:

Channel 1:
Segment 1:

Segment 2:

Segment 3:

Potential/V, Current/A

-1.000, 1.557e-5
-1.001, 3.715e-5
-1.002, 4.640e-5
-1.003, 4.949e-5
-1.004, 4.949e-5
-1.005, 4.949e-5
-1.006, 4.949e-5
-1.007, 4.949e-5
-1.008, 4.949e-5
-1.009, 5.257e-5
-1.010, 5.257e-5
-1.011, 5.565e-5
-1.012, 5.257e-5
-1.013, 4.949e-5
-1.014, 5.257e-5
-1.015, 5.257e-5
-1.016, 5.565e-5
-1.017, 5.565e-5
-1.018, 5.565e-5
-1.019, 5.257e-5
-1.020, 5.257e-5
-1.021, 5.257e-5
-1.022, 5.565e-5
-1.023, 5.873e-5
-1.024, 5.873e-5
-1.025, 5.565e-5
-1.026, 5.565e-5
-1.027, 5.565e-5
-1.028, 5.565e-5
-1.029, 5.873e-5
-1.030, 5.873e-5
-1.031, 5.873e-5
-1.032, 5.565e-5
-1.033, 5.565e-5
-1.034, 5.565e-5
-1.035, 5.565e-5
-1.036, 5.873e-5
-1.037, 5.873e-5
-1.038, 5.873e-5
-1.039, 5.565e-5
-1.040, 5.565e-5
-1.041, 5.565e-5
-1.042, 5.873e-5
-1.043, 5.873e-5
-1.044, 5.873e-5
-1.045, 5.873e-5
-1.046, 5.565e-5
-1.047, 5.565e-5
-1.048, 5.565e-5
-1.049, 5.873e-5
-1.050, 5.873e-5
-1.051, 5.873e-5
-1.052, 5.873e-5
-1.053, 5.565e-5
-1.054, 5.565e-5
-1.055, 5.873e-5
-1.056, 5.873e-5
-1.057, 5.873e-5
-1.058, 5.873e-5
-1.059, 5.873e-5
-1.060, 5.565e-5
-1.061, 5.873e-5
-1.062, 5.873e-5
-1.063, 5.873e-5
-1.064, 5.873e-5
-1.065, 5.873e-5
-1.066, 5.873e-5
-1.067, 5.565e-5
-1.068, 5.873e-5
-1.069, 5.873e-5
-1.070, 5.873e-5
-1.071, 6.182e-5
-1.072, 5.873e-5
-1.073, 5.565e-5
-1.074, 5.873e-5
-1.075, 5.873e-5
-1.076, 5.873e-5
-1.077, 6.182e-5
-1.078, 5.873e-5
-1.079, 5.873e-5
-1.080, 5.565e-5
-1.081, 5.873e-5
-1.082, 6.182e-5
-1.083, 6.182e-5
-1.084, 6.182e-5
-1.085, 5.873e-5
-1.086, 5.873e-5
-1.087, 5.873e-5
-1.088, 5.873e-5
-1.089, 5.873e-5
-1.090, 6.182e-5
-1.091, 6.182e-5
-1.092, 5.873e-5
-1.093, 5.565e-5
-1.094, 5.873e-5
-1.095, 5.873e-5
-1.096, 5.873e-5
-1.097, 6.182e-5
-1.098, 6.182e-5
-1.099, 5.873e-5
-1.100, 5.873e-5
-1.101, 5.873e-5
-1.102, 5.873e-5
-1.103, 6.182e-5
-1.104, 6.182e-5
-1.105, 6.182e-5
-1.106, 5.873e-5
-1.107, 5.873e-5
-1.108, 5.873e-5
-1.109, 6.182e-5
-1.110, 6.182e-5
-1.111, 6.182e-5
-1.112, 5.873e-5
-1.113, 5.873e-5
-1.114, 5.873e-5
-1.115, 5.873e-5
-1.116, 6.182e-5
-1.117, 6.182e-5
-1.118, 6.182e-5
-1.119, 6.182e-5
-1.120, 5.873e-5
-1.121, 5.873e-5
-1.122, 5.873e-5
-1.123, 6.490e-5
-1.124, 6.182e-5
-1.125, 6.182e-5
-1.126, 6.182e-5
-1.127, 6.182e-5
-1.128, 6.182e-5
-1.129, 6.490e-5
-1.130, 6.182e-5
-1.131, 6.490e-5
-1.132, 6.182e-5
-1.133, 5.873e-5
-1.134, 6.182e-5
-1.135, 6.182e-5
-1.136, 6.182e-5
-1.137, 6.490e-5
-1.138, 6.490e-5
-1.139, 6.182e-5
-1.140, 6.182e-5
-1.141, 6.182e-5
-1.142, 6.490e-5
-1.143, 6.490e-5
-1.144, 6.490e-5
-1.145, 6.490e-5
-1.146, 6.182e-5
-1.147, 6.182e-5
-1.148, 6.490e-5
-1.149, 6.490e-5
-1.150, 6.490e-5
-1.151, 6.798e-5
-1.152, 6.490e-5
-1.153, 6.182e-5
-1.154, 6.182e-5
-1.155, 6.182e-5
-1.156, 6.490e-5
-1.157, 6.490e-5
-1.158, 6.490e-5
-1.159, 6.490e-5
-1.160, 6.182e-5
-1.161, 6.182e-5
-1.162, 6.798e-5
-1.163, 6.798e-5
-1.164, 6.798e-5
-1.165, 6.490e-5
-1.166, 6.490e-5
-1.167, 6.490e-5
-1.168, 6.490e-5
-1.169, 6.798e-5
-1.170, 6.798e-5
-1.171, 6.798e-5
-1.172, 6.798e-5
-1.173, 6.490e-5
-1.174, 6.490e-5
-1.175, 6.798e-5
-1.176, 6.798e-5
-1.177, 6.798e-5
-1.178, 6.798e-5
-1.179, 6.490e-5
-1.180, 6.490e-5
-1.181, 6.490e-5
-1.182, 6.798e-5
-1.183, 7.107e-5
-1.184, 7.107e-5
-1.185, 6.798e-5
-1.186, 6.798e-5
-1.187, 6.490e-5
-1.188, 6.798e-5
-1.189, 6.798e-5
-1.190, 7.107e-5
-1.191, 7.107e-5
-1.192, 6.798e-5
-1.193, 6.798e-5
-1.194, 6.798e-5
-1.195, 6.798e-5
-1.196, 6.798e-5
-1.197, 7.107e-5
-1.198, 7.107e-5
-1.199, 6.798e-5
-1.200, 6.798e-5
-1.201, 6.798e-5
-1.202, 7.107e-5
-1.203, 7.415e-5
-1.204, 7.107e-5
-1.205, 7.107e-5
-1.206, 7.107e-5
-1.207, 6.798e-5
-1.208, 7.107e-5
-1.209, 7.107e-5
-1.210, 7.415e-5
-1.211, 7.415e-5
-1.212, 7.107e-5
-1.213, 6.798e-5
-1.214, 7.107e-5
-1.215, 7.107e-5
-1.216, 7.107e-5
-1.217, 7.415e-5
-1.218, 7.415e-5
-1.219, 7.107e-5
-1.220, 7.107e-5
-1.221, 7.107e-5
-1.222, 7.415e-5
-1.223, 7.415e-5
-1.224, 7.415e-5
-1.225, 7.415e-5
-1.226, 7.415e-5
-1.227, 7.107e-5
-1.228, 7.415e-5
-1.229, 7.415e-5
-1.230, 7.723e-5
-1.231, 7.723e-5
-1.232, 7.415e-5
-1.233, 7.415e-5
-1.234, 7.415e-5
-1.235, 7.415e-5
-1.236, 7.723e-5
-1.237, 7.723e-5
-1.238, 7.723e-5
-1.239, 7.723e-5
-1.240, 7.415e-5
-1.241, 7.723e-5
-1.242, 7.723e-5
-1.243, 8.032e-5
-1.244, 8.032e-5
-1.245, 8.032e-5
-1.246, 7.723e-5
-1.247, 7.723e-5
-1.248, 7.723e-5
-1.249, 8.032e-5
-1.250, 8.032e-5
-1.251, 8.340e-5
-1.252, 8.032e-5
-1.253, 8.032e-5
-1.254, 8.032e-5
-1.255, 8.032e-5
-1.256, 8.340e-5
-1.257, 8.340e-5
-1.258, 8.340e-5
-1.259, 8.340e-5
-1.260, 8.340e-5
-1.261, 8.340e-5
-1.262, 8.648e-5
-1.263, 8.648e-5
-1.264, 8.648e-5
-1.265, 8.648e-5
-1.266, 8.648e-5
-1.267, 8.648e-5
-1.268, 8.957e-5
-1.269, 8.957e-5
-1.270, 8.957e-5
-1.271, 8.957e-5
-1.272, 8.957e-5
-1.273, 8.957e-5
-1.274, 8.957e-5
-1.275, 9.265e-5
-1.276, 9.265e-5
-1.277, 9.573e-5
-1.278, 9.573e-5
-1.279, 9.265e-5
-1.280, 9.573e-5
-1.281, 9.573e-5
-1.282, 9.573e-5
-1.283, 9.882e-5
-1.284, 1.019e-4
-1.285, 9.882e-5
-1.286, 9.882e-5
-1.287, 9.882e-5
-1.288, 1.019e-4
-1.289, 1.019e-4
-1.290, 1.050e-4
-1.291, 1.050e-4
-1.292, 1.050e-4
-1.293, 1.050e-4
-1.294, 1.050e-4
-1.295, 1.081e-4
-1.296, 1.081e-4
-1.297, 1.111e-4
-1.298, 1.111e-4
-1.299, 1.111e-4
-1.300, 1.142e-4
-1.301, 1.111e-4
-1.302, 1.173e-4
-1.303, 1.173e-4
-1.304, 1.204e-4
-1.305, 1.204e-4
-1.306, 1.204e-4
-1.307, 1.173e-4
-1.308, 1.235e-4
-1.309, 1.235e-4
-1.310, 1.266e-4
-1.311, 1.296e-4
-1.312, 1.296e-4
-1.313, 1.266e-4
-1.314, 1.296e-4
-1.315, 1.296e-4
-1.316, 1.358e-4
-1.317, 1.389e-4
-1.318, 1.389e-4
-1.319, 1.358e-4
-1.320, 1.389e-4
-1.321, 1.389e-4
-1.322, 1.451e-4
-1.323, 1.481e-4
-1.324, 1.481e-4
-1.325, 1.481e-4
-1.326, 1.512e-4
-1.327, 1.512e-4
-1.328, 1.543e-4
-1.329, 1.574e-4
-1.330, 1.574e-4
-1.331, 1.605e-4
-1.332, 1.605e-4
-1.333, 1.605e-4
-1.334, 1.666e-4
-1.335, 1.666e-4
-1.336, 1.697e-4
-1.337, 1.759e-4
-1.338, 1.759e-4
-1.339, 1.759e-4
-1.340, 1.790e-4
-1.341, 1.790e-4
-1.342, 1.851e-4
-1.343, 1.882e-4
-1.344, 1.913e-4
-1.345, 1.913e-4
-1.346, 1.944e-4
-1.347, 1.975e-4
-1.348, 1.975e-4
-1.349, 2.036e-4
-1.350, 2.067e-4
-1.351, 2.098e-4
-1.352, 2.098e-4
-1.353, 2.129e-4
-1.354, 2.160e-4
-1.355, 2.191e-4
-1.356, 2.221e-4
-1.357, 2.283e-4
-1.358, 2.283e-4
-1.359, 2.314e-4
-1.360, 2.345e-4
-1.361, 2.376e-4
-1.362, 2.437e-4
-1.363, 2.468e-4
-1.364, 2.499e-4
-1.365, 2.530e-4
-1.366, 2.561e-4
-1.367, 2.561e-4
-1.368, 2.622e-4
-1.369, 2.684e-4
-1.370, 2.715e-4
-1.371, 2.746e-4
-1.372, 2.776e-4
-1.373, 2.776e-4
-1.374, 2.838e-4
-1.375, 2.900e-4
-1.376, 2.931e-4
-1.377, 2.992e-4
-1.378, 3.054e-4
-1.379, 3.054e-4
-1.380, 3.115e-4
-1.381, 3.146e-4
-1.382, 3.208e-4
-1.383, 3.270e-4
-1.384, 3.300e-4
-1.385, 3.362e-4
-1.386, 3.393e-4
-1.387, 3.424e-4
-1.388, 3.485e-4
-1.389, 3.547e-4
-1.390, 3.578e-4
-1.391, 3.640e-4
-1.392, 3.670e-4
-1.393, 3.701e-4
-1.394, 3.763e-4
-1.395, 3.825e-4
-1.396, 3.886e-4
-1.397, 3.948e-4
-1.398, 4.010e-4
-1.399, 4.071e-4
-1.400, 4.102e-4
-1.401, 4.164e-4
-1.402, 4.225e-4
-1.403, 4.287e-4
-1.404, 4.380e-4
-1.405, 4.410e-4
-1.406, 4.472e-4
-1.407, 4.503e-4
-1.408, 4.595e-4
-1.409, 4.657e-4
-1.410, 4.719e-4
-1.411, 4.811e-4
-1.412, 4.842e-4
-1.413, 4.873e-4
-1.414, 4.965e-4
-1.415, 5.027e-4
-1.416, 5.120e-4
-1.417, 5.212e-4
-1.418, 5.243e-4
-1.419, 5.305e-4
-1.420, 5.366e-4
-1.421, 5.428e-4
-1.422, 5.520e-4
-1.423, 5.644e-4
-1.424, 5.705e-4
-1.425, 5.767e-4
-1.426, 5.829e-4
-1.427, 5.890e-4
-1.428, 5.983e-4
-1.429, 6.075e-4
-1.430, 6.168e-4
-1.431, 6.229e-4
-1.432, 6.291e-4
-1.433, 6.353e-4
-1.434, 6.445e-4
-1.435, 6.538e-4
-1.436, 6.630e-4
-1.437, 6.754e-4
-1.438, 6.815e-4
-1.439, 6.908e-4
-1.440, 6.969e-4
-1.441, 7.062e-4
-1.442, 7.154e-4
-1.443, 7.278e-4
-1.444, 7.339e-4
-1.445, 7.432e-4
-1.446, 7.524e-4
-1.447, 7.586e-4
-1.448, 7.709e-4
-1.449, 7.802e-4
-1.450, 7.925e-4
-1.451, 8.018e-4
-1.452, 8.110e-4
-1.453, 8.172e-4
-1.454, 8.264e-4
-1.455, 8.388e-4
-1.456, 8.511e-4
-1.457, 8.603e-4
-1.458, 8.727e-4
-1.459, 8.819e-4
-1.460, 8.912e-4
-1.461, 9.004e-4
-1.462, 9.128e-4
-1.463, 9.251e-4
-1.464, 9.374e-4
-1.465, 9.467e-4
-1.466, 9.590e-4
-1.467, 9.683e-4
-1.468, 9.806e-4
-1.469, 9.898e-4
-1.470, 1.002e-3
-1.471, 1.014e-3
-1.472, 1.027e-3
-1.473, 1.036e-3
-1.474, 1.048e-3
-1.475, 1.061e-3
-1.476, 1.073e-3
-1.477, 1.088e-3
-1.478, 1.101e-3
-1.479, 1.110e-3
-1.480, 1.122e-3
-1.481, 1.132e-3
-1.482, 1.144e-3
-1.483, 1.162e-3
-1.484, 1.178e-3
-1.485, 1.190e-3
-1.486, 1.199e-3
-1.487, 1.212e-3
-1.488, 1.224e-3
-1.489, 1.240e-3
-1.490, 1.255e-3
-1.491, 1.273e-3
-1.492, 1.283e-3
-1.493, 1.295e-3
-1.494, 1.310e-3
-1.495, 1.323e-3
-1.496, 1.341e-3
-1.497, 1.357e-3
-1.498, 1.369e-3
-1.499, 1.381e-3
-1.500, 1.397e-3
-1.501, 1.412e-3
-1.502, 1.431e-3
-1.503, 1.449e-3
-1.504, 1.462e-3
-1.505, 1.477e-3
-1.506, 1.489e-3
-1.507, 1.505e-3
-1.508, 1.523e-3
-1.509, 1.542e-3
-1.510, 1.560e-3
-1.511, 1.576e-3
-1.512, 1.591e-3
-1.513, 1.606e-3
-1.514, 1.625e-3
-1.515, 1.640e-3
-1.516, 1.659e-3
-1.517, 1.677e-3
-1.518, 1.696e-3
-1.519, 1.711e-3
-1.520, 1.730e-3
-1.521, 1.748e-3
-1.522, 1.767e-3
-1.523, 1.785e-3
-1.524, 1.804e-3
-1.525, 1.822e-3
-1.526, 1.841e-3
-1.527, 1.862e-3
-1.528, 1.881e-3
-1.529, 1.899e-3
-1.530, 1.921e-3
-1.531, 1.943e-3
-1.532, 1.964e-3
-1.533, 1.980e-3
-1.534, 2.001e-3
-1.535, 2.023e-3
-1.536, 2.044e-3
-1.537, 2.066e-3
-1.538, 2.087e-3
-1.539, 2.106e-3
-1.540, 2.128e-3
-1.541, 2.149e-3
-1.542, 2.171e-3
-1.543, 2.195e-3
-1.544, 2.217e-3
-1.545, 2.238e-3
-1.546, 2.260e-3
-1.547, 2.282e-3
-1.548, 2.306e-3
-1.549, 2.331e-3
-1.550, 2.356e-3
-1.551, 2.380e-3
-1.552, 2.405e-3
-1.553, 2.427e-3
-1.554, 2.451e-3
-1.555, 2.479e-3
-1.556, 2.504e-3
-1.557, 2.531e-3
-1.558, 2.556e-3
-1.559, 2.581e-3
-1.560, 2.605e-3
-1.561, 2.633e-3
-1.562, 2.661e-3
-1.563, 2.689e-3
-1.564, 2.713e-3
-1.565, 2.741e-3
-1.566, 2.769e-3
-1.567, 2.793e-3
-1.568, 2.821e-3
-1.569, 2.849e-3
-1.570, 2.874e-3
-1.571, 2.901e-3
-1.572, 2.929e-3
-1.573, 2.960e-3
-1.574, 2.991e-3
-1.575, 3.019e-3
-1.576, 3.046e-3
-1.577, 3.080e-3
-1.578, 3.111e-3
-1.579, 3.142e-3
-1.580, 3.173e-3
-1.581, 3.204e-3
-1.582, 3.234e-3
-1.583, 3.268e-3
-1.584, 3.299e-3
-1.585, 3.333e-3
-1.586, 3.367e-3
-1.587, 3.398e-3
-1.588, 3.429e-3
-1.589, 3.459e-3
-1.590, 3.490e-3
-1.591, 3.524e-3
-1.592, 3.555e-3
-1.593, 3.589e-3
-1.594, 3.629e-3
-1.595, 3.663e-3
-1.596, 3.694e-3
-1.597, 3.728e-3
-1.598, 3.765e-3
-1.599, 3.802e-3
-1.600, 3.799e-3
-1.599, 3.749e-3
-1.598, 3.712e-3
-1.597, 3.672e-3
-1.596, 3.635e-3
-1.595, 3.601e-3
-1.594, 3.564e-3
-1.593, 3.521e-3
-1.592, 3.478e-3
-1.591, 3.438e-3
-1.590, 3.404e-3
-1.589, 3.376e-3
-1.588, 3.339e-3
-1.587, 3.302e-3
-1.586, 3.265e-3
-1.585, 3.228e-3
-1.584, 3.191e-3
-1.583, 3.157e-3
-1.582, 3.130e-3
-1.581, 3.096e-3
-1.580, 3.062e-3
-1.579, 3.022e-3
-1.578, 2.991e-3
-1.577, 2.963e-3
-1.576, 2.932e-3
-1.575, 2.901e-3
-1.574, 2.864e-3
-1.573, 2.824e-3
-1.572, 2.790e-3
-1.571, 2.766e-3
-1.570, 2.741e-3
-1.569, 2.713e-3
-1.568, 2.679e-3
-1.567, 2.639e-3
-1.566, 2.608e-3
-1.565, 2.581e-3
-1.564, 2.556e-3
-1.563, 2.531e-3
-1.562, 2.501e-3
-1.561, 2.470e-3
-1.560, 2.436e-3
-1.559, 2.408e-3
-1.558, 2.386e-3
-1.557, 2.362e-3
-1.556, 2.334e-3
-1.555, 2.300e-3
-1.554, 2.269e-3
-1.553, 2.242e-3
-1.552, 2.220e-3
-1.551, 2.195e-3
-1.550, 2.171e-3
-1.549, 2.146e-3
-1.548, 2.115e-3
-1.547, 2.087e-3
-1.546, 2.063e-3
-1.545, 2.041e-3
-1.544, 2.020e-3
-1.543, 1.995e-3
-1.542, 1.970e-3
-1.541, 1.943e-3
-1.540, 1.918e-3
-1.539, 1.896e-3
-1.538, 1.875e-3
-1.537, 1.853e-3
-1.536, 1.828e-3
-1.535, 1.804e-3
-1.534, 1.782e-3
-1.533, 1.761e-3
-1.532, 1.739e-3
-1.531, 1.717e-3
-1.530, 1.696e-3
-1.529, 1.677e-3
-1.528, 1.653e-3
-1.527, 1.631e-3
-1.526, 1.613e-3
-1.525, 1.594e-3
-1.524, 1.573e-3
-1.523, 1.554e-3
-1.522, 1.532e-3
-1.521, 1.514e-3
-1.520, 1.495e-3
-1.519, 1.477e-3
-1.518, 1.458e-3
-1.517, 1.440e-3
-1.516, 1.418e-3
-1.515, 1.400e-3
-1.514, 1.388e-3
-1.513, 1.366e-3
-1.512, 1.347e-3
-1.511, 1.329e-3
-1.510, 1.314e-3
-1.509, 1.298e-3
-1.508, 1.283e-3
-1.507, 1.261e-3
-1.506, 1.246e-3
-1.505, 1.227e-3
-1.504, 1.212e-3
-1.503, 1.199e-3
-1.502, 1.184e-3
-1.501, 1.169e-3
-1.500, 1.153e-3
-1.499, 1.135e-3
-1.498, 1.119e-3
-1.497, 1.110e-3
-1.496, 1.095e-3
-1.495, 1.082e-3
-1.494, 1.067e-3
-1.493, 1.048e-3
-1.492, 1.036e-3
-1.491, 1.021e-3
-1.490, 1.011e-3
-1.489, 9.991e-4
-1.488, 9.837e-4
-1.487, 9.652e-4
-1.486, 9.528e-4
-1.485, 9.405e-4
-1.484, 9.282e-4
-1.483, 9.189e-4
-1.482, 9.066e-4
-1.481, 8.912e-4
-1.480, 8.758e-4
-1.479, 8.634e-4
-1.478, 8.542e-4
-1.477, 8.480e-4
-1.476, 8.326e-4
-1.475, 8.203e-4
-1.474, 8.079e-4
-1.473, 7.956e-4
-1.472, 7.863e-4
-1.471, 7.740e-4
-1.470, 7.648e-4
-1.469, 7.555e-4
-1.468, 7.432e-4
-1.467, 7.278e-4
-1.466, 7.216e-4
-1.465, 7.093e-4
-1.464, 7.000e-4
-1.463, 6.908e-4
-1.462, 6.815e-4
-1.461, 6.723e-4
-1.460, 6.630e-4
-1.459, 6.507e-4
-1.458, 6.414e-4
-1.457, 6.353e-4
-1.456, 6.260e-4
-1.455, 6.168e-4
-1.454, 6.075e-4
-1.453, 5.952e-4
-1.452, 5.859e-4
-1.451, 5.798e-4
-1.450, 5.705e-4
-1.449, 5.644e-4
-1.448, 5.551e-4
-1.447, 5.428e-4
-1.446, 5.366e-4
-1.445, 5.274e-4
-1.444, 5.212e-4
-1.443, 5.150e-4
-1.442, 5.058e-4
-1.441, 4.965e-4
-1.440, 4.873e-4
-1.439, 4.811e-4
-1.438, 4.750e-4
-1.437, 4.688e-4
-1.436, 4.595e-4
-1.435, 4.534e-4
-1.434, 4.472e-4
-1.433, 4.380e-4
-1.432, 4.287e-4
-1.431, 4.225e-4
-1.430, 4.195e-4
-1.429, 4.133e-4
-1.428, 4.040e-4
-1.427, 3.948e-4
-1.426, 3.886e-4
-1.425, 3.855e-4
-1.424, 3.794e-4
-1.423, 3.732e-4
-1.422, 3.670e-4
-1.421, 3.609e-4
-1.420, 3.516e-4
-1.419, 3.455e-4
-1.418, 3.424e-4
-1.417, 3.362e-4
-1.416, 3.300e-4
-1.415, 3.239e-4
-1.414, 3.177e-4
-1.413, 3.115e-4
-1.412, 3.054e-4
-1.411, 3.023e-4
-1.410, 2.961e-4
-1.409, 2.931e-4
-1.408, 2.838e-4
-1.407, 2.776e-4
-1.406, 2.746e-4
-1.405, 2.684e-4
-1.404, 2.653e-4
-1.403, 2.622e-4
-1.402, 2.561e-4
-1.401, 2.499e-4
-1.400, 2.437e-4
-1.399, 2.376e-4
-1.398, 2.345e-4
-1.397, 2.345e-4
-1.396, 2.283e-4
-1.395, 2.221e-4
-1.394, 2.160e-4
-1.393, 2.098e-4
-1.392, 2.098e-4
-1.391, 2.036e-4
-1.390, 2.006e-4
-1.389, 1.975e-4
-1.388, 1.913e-4
-1.387, 1.851e-4
-1.386, 1.821e-4
-1.385, 1.790e-4
-1.384, 1.759e-4
-1.383, 1.728e-4
-1.382, 1.697e-4
-1.381, 1.666e-4
-1.380, 1.574e-4
-1.379, 1.543e-4
-1.378, 1.543e-4
-1.377, 1.512e-4
-1.376, 1.481e-4
-1.375, 1.420e-4
-1.374, 1.389e-4
-1.373, 1.327e-4
-1.372, 1.296e-4
-1.371, 1.296e-4
-1.370, 1.266e-4
-1.369, 1.235e-4
-1.368, 1.173e-4
-1.367, 1.111e-4
-1.366, 1.111e-4
-1.365, 1.081e-4
-1.364, 1.081e-4
-1.363, 1.050e-4
-1.362, 1.019e-4
-1.361, 9.882e-5
-1.360, 9.265e-5
-1.359, 8.957e-5
-1.358, 8.957e-5
-1.357, 8.957e-5
-1.356, 8.340e-5
-1.355, 8.032e-5
-1.354, 7.723e-5
-1.353, 7.415e-5
-1.352, 7.107e-5
-1.351, 7.107e-5
-1.350, 6.798e-5
-1.349, 6.798e-5
-1.348, 6.182e-5
-1.347, 5.873e-5
-1.346, 5.873e-5
-1.345, 5.565e-5
-1.344, 5.257e-5
-1.343, 5.257e-5
-1.342, 4.949e-5
-1.341, 4.640e-5
-1.340, 4.332e-5
-1.339, 4.024e-5
-1.338, 4.024e-5
-1.337, 4.024e-5
-1.336, 3.715e-5
-1.335, 3.407e-5
-1.334, 3.099e-5
-1.333, 2.790e-5
-1.332, 2.482e-5
-1.331, 2.482e-5
-1.330, 2.482e-5
-1.329, 2.482e-5
-1.328, 1.865e-5
-1.327, 1.557e-5
-1.326, 1.557e-5
-1.325, 1.557e-5
-1.324, 1.249e-5
-1.323, 1.249e-5
-1.322, 1.249e-5
-1.321, 6.322e-6
-1.320, 3.239e-6
-1.319, 3.239e-6
-1.318, 3.239e-6
-1.317, 3.239e-6
-1.316, 1.559e-7
-1.315, 1.559e-7
-1.314, -2.927e-6
-1.313, -6.010e-6
-1.312, -6.010e-6
-1.311, -6.010e-6
-1.310, -6.010e-6
-1.309, -6.010e-6
-1.308, -1.218e-5
-1.307, -1.526e-5
-1.306, -1.526e-5
-1.305, -1.526e-5
-1.304, -1.526e-5
-1.303, -1.526e-5
-1.302, -1.834e-5
-1.301, -1.834e-5
-1.300, -2.143e-5
-1.299, -2.143e-5
-1.298, -2.143e-5
-1.297, -2.143e-5
-1.296, -2.451e-5
-1.295, -2.759e-5
-1.294, -2.451e-5
-1.293, -3.068e-5
-1.292, -3.068e-5
-1.291, -3.068e-5
-1.290, -3.068e-5
-1.289, -3.068e-5
-1.288, -3.376e-5
-1.287, -3.376e-5
-1.286, -3.684e-5
-1.285, -3.376e-5
-1.284, -3.684e-5
-1.283, -3.376e-5
-1.282, -3.684e-5
-1.281, -3.684e-5
-1.280, -3.992e-5
-1.279, -4.301e-5
-1.278, -3.992e-5
-1.277, -3.992e-5
-1.276, -3.992e-5
-1.275, -4.301e-5
-1.274, -4.301e-5
-1.273, -4.609e-5
-1.272, -4.609e-5
-1.271, -4.609e-5
-1.270, -4.301e-5
-1.269, -4.301e-5
-1.268, -4.609e-5
-1.267, -4.917e-5
-1.266, -4.917e-5
-1.265, -4.917e-5
-1.264, -4.917e-5
-1.263, -4.917e-5
-1.262, -4.917e-5
-1.261, -4.917e-5
-1.260, -5.226e-5
-1.259, -5.226e-5
-1.258, -5.226e-5
-1.257, -4.917e-5
-1.256, -4.917e-5
-1.255, -5.226e-5
-1.254, -5.534e-5
-1.253, -5.534e-5
-1.252, -5.534e-5
-1.251, -5.534e-5
-1.250, -5.226e-5
-1.249, -5.226e-5
-1.248, -5.534e-5
-1.247, -5.842e-5
-1.246, -5.842e-5
-1.245, -5.842e-5
-1.244, -5.534e-5
-1.243, -5.534e-5
-1.242, -5.534e-5
-1.241, -5.842e-5
-1.240, -6.151e-5
-1.239, -5.842e-5
-1.238, -5.842e-5
-1.237, -5.534e-5
-1.236, -5.842e-5
-1.235, -5.842e-5
-1.234, -6.151e-5
-1.233, -6.151e-5
-1.232, -6.151e-5
-1.231, -6.151e-5
-1.230, -6.151e-5
-1.229, -5.842e-5
-1.228, -6.151e-5
-1.227, -6.459e-5
-1.226, -6.151e-5
-1.225, -6.151e-5
-1.224, -6.151e-5
-1.223, -6.151e-5
-1.222, -6.151e-5
-1.221, -6.151e-5
-1.220, -6.459e-5
-1.219, -6.459e-5
-1.218, -6.151e-5
-1.217, -6.151e-5
-1.216, -6.151e-5
-1.215, -6.151e-5
-1.214, -6.459e-5
-1.213, -6.459e-5
-1.212, -6.459e-5
-1.211, -6.459e-5
-1.210, -6.151e-5
-1.209, -6.151e-5
-1.208, -6.459e-5
-1.207, -6.767e-5
-1.206, -6.767e-5
-1.205, -6.459e-5
-1.204, -6.459e-5
-1.203, -6.459e-5
-1.202, -6.459e-5
-1.201, -6.459e-5
-1.200, -6.767e-5
-1.199, -6.767e-5
-1.198, -6.459e-5
-1.197, -6.459e-5
-1.196, -6.459e-5
-1.195, -6.459e-5
-1.194, -6.767e-5
-1.193, -6.767e-5
-1.192, -6.767e-5
-1.191, -6.767e-5
-1.190, -6.459e-5
-1.189, -6.459e-5
-1.188, -6.767e-5
-1.187, -6.767e-5
-1.186, -6.767e-5
-1.185, -6.767e-5
-1.184, -6.459e-5
-1.183, -6.459e-5
-1.182, -6.459e-5
-1.181, -6.767e-5
-1.180, -6.767e-5
-1.179, -7.076e-5
-1.178, -6.767e-5
-1.177, -6.459e-5
-1.176, -6.767e-5
-1.175, -6.767e-5
-1.174, -6.767e-5
-1.173, -7.076e-5
-1.172, -6.767e-5
-1.171, -6.767e-5
-1.170, -6.767e-5
-1.169, -6.459e-5
-1.168, -7.076e-5
-1.167, -7.076e-5
-1.166, -6.767e-5
-1.165, -6.767e-5
-1.164, -6.767e-5
-1.163, -6.767e-5
-1.162, -6.767e-5
-1.161, -7.076e-5
-1.160, -6.767e-5
-1.159, -7.076e-5
-1.158, -6.767e-5
-1.157, -6.767e-5
-1.156, -6.767e-5
-1.155, -6.767e-5
-1.154, -6.767e-5
-1.153, -7.076e-5
-1.152, -6.767e-5
-1.151, -7.076e-5
-1.150, -6.767e-5
-1.149, -6.767e-5
-1.148, -7.076e-5
-1.147, -7.076e-5
-1.146, -7.076e-5
-1.145, -7.076e-5
-1.144, -6.767e-5
-1.143, -6.767e-5
-1.142, -7.076e-5
-1.141, -7.076e-5
-1.140, -7.076e-5
-1.139, -7.076e-5
-1.138, -6.767e-5
-1.137, -6.767e-5
-1.136, -6.767e-5
-1.135, -6.767e-5
-1.134, -7.076e-5
-1.133, -7.076e-5
-1.132, -7.076e-5
-1.131, -7.076e-5
-1.130, -7.076e-5
-1.129, -6.767e-5
-1.128, -7.076e-5
-1.127, -7.384e-5
-1.126, -7.076e-5
-1.125, -7.076e-5
-1.124, -7.076e-5
-1.123, -6.767e-5
-1.122, -7.076e-5
-1.121, -7.076e-5
-1.120, -7.384e-5
-1.119, -7.384e-5
-1.118, -7.076e-5
-1.117, -6.767e-5
-1.116, -7.076e-5
-1.115, -7.076e-5
-1.114, -7.076e-5
-1.113, -7.384e-5
-1.112, -7.076e-5
-1.111, -7.076e-5
-1.110, -7.076e-5
-1.109, -7.076e-5
-1.108, -7.384e-5
-1.107, -7.384e-5
-1.106, -7.384e-5
-1.105, -7.384e-5
-1.104, -7.076e-5
-1.103, -7.076e-5
-1.102, -7.076e-5
-1.101, -7.076e-5
-1.100, -7.384e-5
-1.099, -7.384e-5
-1.098, -7.076e-5
-1.097, -7.076e-5
-1.096, -7.076e-5
-1.095, -7.076e-5
-1.094, -7.384e-5
-1.093, -7.384e-5
-1.092, -7.384e-5
-1.091, -7.384e-5
-1.090, -7.076e-5
-1.089, -7.076e-5
-1.088, -7.384e-5
-1.087, -7.692e-5
-1.086, -7.692e-5
-1.085, -7.384e-5
-1.084, -7.384e-5
-1.083, -7.076e-5
-1.082, -7.076e-5
-1.081, -7.384e-5
-1.080, -7.384e-5
-1.079, -7.692e-5
-1.078, -7.384e-5
-1.077, -7.076e-5
-1.076, -7.384e-5
-1.075, -7.384e-5
-1.074, -7.692e-5
-1.073, -7.692e-5
-1.072, -7.692e-5
-1.071, -7.384e-5
-1.070, -7.384e-5
-1.069, -7.384e-5
-1.068, -7.692e-5
-1.067, -7.692e-5
-1.066, -7.384e-5
-1.065, -7.692e-5
-1.064, -7.384e-5
-1.063, -7.384e-5
-1.062, -7.384e-5
-1.061, -7.692e-5
-1.060, -7.692e-5
-1.059, -8.000e-5
-1.058, -7.384e-5
-1.057, -7.384e-5
-1.056, -7.384e-5
-1.055, -7.692e-5
-1.054, -7.692e-5
-1.053, -8.000e-5
-1.052, -7.692e-5
-1.051, -7.692e-5
-1.050, -7.692e-5
-1.049, -7.384e-5
-1.048, -8.000e-5
-1.047, -8.000e-5
-1.046, -8.000e-5
-1.045, -7.692e-5
-1.044, -7.692e-5
-1.043, -7.692e-5
-1.042, -7.692e-5
-1.041, -8.000e-5
-1.040, -8.000e-5
-1.039, -8.000e-5
-1.038, -7.692e-5
-1.037, -7.692e-5
-1.036, -7.692e-5
-1.035, -8.000e-5
-1.034, -8.000e-5
-1.033, -8.309e-5
-1.032, -8.309e-5
-1.031, -8.000e-5
-1.030, -8.000e-5
-1.029, -8.000e-5
-1.028, -8.309e-5
-1.027, -8.309e-5
-1.026, -8.309e-5
-1.025, -8.309e-5
-1.024, -8.309e-5
-1.023, -8.309e-5
-1.022, -8.309e-5
-1.021, -8.309e-5
-1.020, -8.617e-5
-1.019, -8.617e-5
-1.018, -8.617e-5
-1.017, -8.309e-5
-1.016, -8.309e-5
-1.015, -8.617e-5
-1.014, -8.925e-5
-1.013, -8.925e-5
-1.012, -8.925e-5
-1.011, -8.925e-5
-1.010, -8.925e-5
-1.009, -8.617e-5
-1.008, -9.234e-5
-1.007, -9.234e-5
-1.006, -9.234e-5
-1.005, -9.234e-5
-1.004, -9.234e-5
-1.003, -9.234e-5
-1.002, -9.234e-5
-1.001, -9.542e-5
