Mar. 10, 2025   09:01:21
Linear Sweep Voltammetry
File: c:/users/guazh/data/banditlqround7_x0exp891_r5/2025-03-03-exp864\regeneratedgce-2025-03-10t08_58_20-lsvinkoh\regeneratedgce_lsv_50mvs_efin_-1700mv.bin
Data Source:  Experiment
Instrument Model:  CHI760E
Header: LSV ran at 50 mVs with Efin at -1700mV
Note: 

Init E (V) = -0.6
Final E (V) = -1.7
Scan Rate (V/s) = 0.05
Sample Interval (V) = 0.001
Quiet Time (sec) = 2
Sensitivity (A/V) = 1e-4
Comp R (ohm) = 2.0

Results:

Channel 1:

Potential/V, Current/A

-0.600, 8.243e-7
-0.601, 1.017e-6
-0.602, 1.057e-6
-0.603, 1.070e-6
-0.604, 1.081e-6
-0.605, 1.089e-6
-0.606, 1.101e-6
-0.607, 1.107e-6
-0.608, 1.114e-6
-0.609, 1.120e-6
-0.610, 1.124e-6
-0.611, 1.132e-6
-0.612, 1.139e-6
-0.613, 1.142e-6
-0.614, 1.148e-6
-0.615, 1.154e-6
-0.616, 1.159e-6
-0.617, 1.166e-6
-0.618, 1.166e-6
-0.619, 1.170e-6
-0.620, 1.176e-6
-0.621, 1.181e-6
-0.622, 1.189e-6
-0.623, 1.189e-6
-0.624, 1.192e-6
-0.625, 1.199e-6
-0.626, 1.205e-6
-0.627, 1.215e-6
-0.628, 1.216e-6
-0.629, 1.217e-6
-0.630, 1.221e-6
-0.631, 1.225e-6
-0.632, 1.230e-6
-0.633, 1.233e-6
-0.634, 1.234e-6
-0.635, 1.238e-6
-0.636, 1.245e-6
-0.637, 1.248e-6
-0.638, 1.251e-6
-0.639, 1.251e-6
-0.640, 1.255e-6
-0.641, 1.262e-6
-0.642, 1.265e-6
-0.643, 1.267e-6
-0.644, 1.270e-6
-0.645, 1.273e-6
-0.646, 1.279e-6
-0.647, 1.284e-6
-0.648, 1.285e-6
-0.649, 1.287e-6
-0.650, 1.289e-6
-0.651, 1.293e-6
-0.652, 1.299e-6
-0.653, 1.300e-6
-0.654, 1.303e-6
-0.655, 1.305e-6
-0.656, 1.310e-6
-0.657, 1.316e-6
-0.658, 1.317e-6
-0.659, 1.318e-6
-0.660, 1.321e-6
-0.661, 1.325e-6
-0.662, 1.330e-6
-0.663, 1.331e-6
-0.664, 1.332e-6
-0.665, 1.338e-6
-0.666, 1.344e-6
-0.667, 1.346e-6
-0.668, 1.348e-6
-0.669, 1.349e-6
-0.670, 1.353e-6
-0.671, 1.358e-6
-0.672, 1.362e-6
-0.673, 1.363e-6
-0.674, 1.364e-6
-0.675, 1.367e-6
-0.676, 1.371e-6
-0.677, 1.376e-6
-0.678, 1.380e-6
-0.679, 1.380e-6
-0.680, 1.383e-6
-0.681, 1.387e-6
-0.682, 1.389e-6
-0.683, 1.391e-6
-0.684, 1.393e-6
-0.685, 1.394e-6
-0.686, 1.400e-6
-0.687, 1.403e-6
-0.688, 1.406e-6
-0.689, 1.408e-6
-0.690, 1.407e-6
-0.691, 1.413e-6
-0.692, 1.417e-6
-0.693, 1.418e-6
-0.694, 1.421e-6
-0.695, 1.422e-6
-0.696, 1.425e-6
-0.697, 1.430e-6
-0.698, 1.429e-6
-0.699, 1.432e-6
-0.700, 1.434e-6
-0.701, 1.438e-6
-0.702, 1.443e-6
-0.703, 1.444e-6
-0.704, 1.446e-6
-0.705, 1.451e-6
-0.706, 1.453e-6
-0.707, 1.457e-6
-0.708, 1.458e-6
-0.709, 1.458e-6
-0.710, 1.463e-6
-0.711, 1.466e-6
-0.712, 1.470e-6
-0.713, 1.471e-6
-0.714, 1.471e-6
-0.715, 1.475e-6
-0.716, 1.481e-6
-0.717, 1.485e-6
-0.718, 1.485e-6
-0.719, 1.486e-6
-0.720, 1.489e-6
-0.721, 1.495e-6
-0.722, 1.497e-6
-0.723, 1.499e-6
-0.724, 1.503e-6
-0.725, 1.505e-6
-0.726, 1.512e-6
-0.727, 1.514e-6
-0.728, 1.515e-6
-0.729, 1.517e-6
-0.730, 1.517e-6
-0.731, 1.520e-6
-0.732, 1.525e-6
-0.733, 1.525e-6
-0.734, 1.529e-6
-0.735, 1.529e-6
-0.736, 1.533e-6
-0.737, 1.537e-6
-0.738, 1.537e-6
-0.739, 1.539e-6
-0.740, 1.541e-6
-0.741, 1.545e-6
-0.742, 1.551e-6
-0.743, 1.549e-6
-0.744, 1.552e-6
-0.745, 1.556e-6
-0.746, 1.557e-6
-0.747, 1.562e-6
-0.748, 1.562e-6
-0.749, 1.563e-6
-0.750, 1.566e-6
-0.751, 1.569e-6
-0.752, 1.574e-6
-0.753, 1.577e-6
-0.754, 1.578e-6
-0.755, 1.581e-6
-0.756, 1.585e-6
-0.757, 1.586e-6
-0.758, 1.587e-6
-0.759, 1.588e-6
-0.760, 1.590e-6
-0.761, 1.598e-6
-0.762, 1.598e-6
-0.763, 1.599e-6
-0.764, 1.599e-6
-0.765, 1.601e-6
-0.766, 1.607e-6
-0.767, 1.609e-6
-0.768, 1.613e-6
-0.769, 1.616e-6
-0.770, 1.616e-6
-0.771, 1.621e-6
-0.772, 1.624e-6
-0.773, 1.624e-6
-0.774, 1.626e-6
-0.775, 1.628e-6
-0.776, 1.631e-6
-0.777, 1.636e-6
-0.778, 1.636e-6
-0.779, 1.639e-6
-0.780, 1.641e-6
-0.781, 1.646e-6
-0.782, 1.655e-6
-0.783, 1.655e-6
-0.784, 1.656e-6
-0.785, 1.659e-6
-0.786, 1.660e-6
-0.787, 1.664e-6
-0.788, 1.665e-6
-0.789, 1.663e-6
-0.790, 1.668e-6
-0.791, 1.672e-6
-0.792, 1.674e-6
-0.793, 1.676e-6
-0.794, 1.677e-6
-0.795, 1.679e-6
-0.796, 1.683e-6
-0.797, 1.684e-6
-0.798, 1.688e-6
-0.799, 1.688e-6
-0.800, 1.691e-6
-0.801, 1.696e-6
-0.802, 1.698e-6
-0.803, 1.701e-6
-0.804, 1.704e-6
-0.805, 1.704e-6
-0.806, 1.710e-6
-0.807, 1.713e-6
-0.808, 1.713e-6
-0.809, 1.717e-6
-0.810, 1.717e-6
-0.811, 1.722e-6
-0.812, 1.726e-6
-0.813, 1.725e-6
-0.814, 1.727e-6
-0.815, 1.728e-6
-0.816, 1.733e-6
-0.817, 1.738e-6
-0.818, 1.736e-6
-0.819, 1.746e-6
-0.820, 1.748e-6
-0.821, 1.749e-6
-0.822, 1.752e-6
-0.823, 1.753e-6
-0.824, 1.754e-6
-0.825, 1.757e-6
-0.826, 1.761e-6
-0.827, 1.765e-6
-0.828, 1.765e-6
-0.829, 1.766e-6
-0.830, 1.768e-6
-0.831, 1.772e-6
-0.832, 1.777e-6
-0.833, 1.779e-6
-0.834, 1.781e-6
-0.835, 1.787e-6
-0.836, 1.794e-6
-0.837, 1.795e-6
-0.838, 1.797e-6
-0.839, 1.797e-6
-0.840, 1.796e-6
-0.841, 1.802e-6
-0.842, 1.806e-6
-0.843, 1.806e-6
-0.844, 1.807e-6
-0.845, 1.811e-6
-0.846, 1.815e-6
-0.847, 1.818e-6
-0.848, 1.819e-6
-0.849, 1.822e-6
-0.850, 1.823e-6
-0.851, 1.828e-6
-0.852, 1.833e-6
-0.853, 1.833e-6
-0.854, 1.835e-6
-0.855, 1.838e-6
-0.856, 1.841e-6
-0.857, 1.847e-6
-0.858, 1.848e-6
-0.859, 1.849e-6
-0.860, 1.851e-6
-0.861, 1.855e-6
-0.862, 1.860e-6
-0.863, 1.861e-6
-0.864, 1.863e-6
-0.865, 1.866e-6
-0.866, 1.870e-6
-0.867, 1.875e-6
-0.868, 1.879e-6
-0.869, 1.880e-6
-0.870, 1.888e-6
-0.871, 1.891e-6
-0.872, 1.890e-6
-0.873, 1.893e-6
-0.874, 1.892e-6
-0.875, 1.895e-6
-0.876, 1.900e-6
-0.877, 1.905e-6
-0.878, 1.906e-6
-0.879, 1.906e-6
-0.880, 1.907e-6
-0.881, 1.915e-6
-0.882, 1.917e-6
-0.883, 1.920e-6
-0.884, 1.922e-6
-0.885, 1.923e-6
-0.886, 1.928e-6
-0.887, 1.932e-6
-0.888, 1.933e-6
-0.889, 1.937e-6
-0.890, 1.937e-6
-0.891, 1.942e-6
-0.892, 1.947e-6
-0.893, 1.949e-6
-0.894, 1.951e-6
-0.895, 1.953e-6
-0.896, 1.959e-6
-0.897, 1.964e-6
-0.898, 1.963e-6
-0.899, 1.967e-6
-0.900, 1.970e-6
-0.901, 1.974e-6
-0.902, 1.981e-6
-0.903, 1.981e-6
-0.904, 1.984e-6
-0.905, 1.986e-6
-0.906, 1.989e-6
-0.907, 1.994e-6
-0.908, 1.996e-6
-0.909, 1.998e-6
-0.910, 2.001e-6
-0.911, 2.005e-6
-0.912, 2.011e-6
-0.913, 2.013e-6
-0.914, 2.018e-6
-0.915, 2.023e-6
-0.916, 2.030e-6
-0.917, 2.034e-6
-0.918, 2.033e-6
-0.919, 2.035e-6
-0.920, 2.036e-6
-0.921, 2.041e-6
-0.922, 2.045e-6
-0.923, 2.049e-6
-0.924, 2.051e-6
-0.925, 2.053e-6
-0.926, 2.060e-6
-0.927, 2.063e-6
-0.928, 2.065e-6
-0.929, 2.067e-6
-0.930, 2.068e-6
-0.931, 2.075e-6
-0.932, 2.080e-6
-0.933, 2.080e-6
-0.934, 2.084e-6
-0.935, 2.087e-6
-0.936, 2.092e-6
-0.937, 2.098e-6
-0.938, 2.097e-6
-0.939, 2.101e-6
-0.940, 2.106e-6
-0.941, 2.110e-6
-0.942, 2.115e-6
-0.943, 2.115e-6
-0.944, 2.118e-6
-0.945, 2.124e-6
-0.946, 2.127e-6
-0.947, 2.134e-6
-0.948, 2.137e-6
-0.949, 2.138e-6
-0.950, 2.143e-6
-0.951, 2.148e-6
-0.952, 2.152e-6
-0.953, 2.156e-6
-0.954, 2.158e-6
-0.955, 2.162e-6
-0.956, 2.167e-6
-0.957, 2.172e-6
-0.958, 2.174e-6
-0.959, 2.177e-6
-0.960, 2.180e-6
-0.961, 2.187e-6
-0.962, 2.191e-6
-0.963, 2.196e-6
-0.964, 2.201e-6
-0.965, 2.205e-6
-0.966, 2.211e-6
-0.967, 2.214e-6
-0.968, 2.217e-6
-0.969, 2.221e-6
-0.970, 2.222e-6
-0.971, 2.229e-6
-0.972, 2.236e-6
-0.973, 2.242e-6
-0.974, 2.243e-6
-0.975, 2.249e-6
-0.976, 2.258e-6
-0.977, 2.268e-6
-0.978, 2.268e-6
-0.979, 2.270e-6
-0.980, 2.274e-6
-0.981, 2.276e-6
-0.982, 2.283e-6
-0.983, 2.283e-6
-0.984, 2.287e-6
-0.985, 2.293e-6
-0.986, 2.298e-6
-0.987, 2.304e-6
-0.988, 2.307e-6
-0.989, 2.308e-6
-0.990, 2.313e-6
-0.991, 2.318e-6
-0.992, 2.322e-6
-0.993, 2.327e-6
-0.994, 2.329e-6
-0.995, 2.333e-6
-0.996, 2.339e-6
-0.997, 2.343e-6
-0.998, 2.346e-6
-0.999, 2.350e-6
-1.000, 2.354e-6
-1.001, 2.364e-6
-1.002, 2.367e-6
-1.003, 2.369e-6
-1.004, 2.370e-6
-1.005, 2.371e-6
-1.006, 2.376e-6
-1.007, 2.381e-6
-1.008, 2.383e-6
-1.009, 2.386e-6
-1.010, 2.387e-6
-1.011, 2.393e-6
-1.012, 2.401e-6
-1.013, 2.399e-6
-1.014, 2.402e-6
-1.015, 2.406e-6
-1.016, 2.410e-6
-1.017, 2.415e-6
-1.018, 2.416e-6
-1.019, 2.419e-6
-1.020, 2.421e-6
-1.021, 2.427e-6
-1.022, 2.431e-6
-1.023, 2.432e-6
-1.024, 2.439e-6
-1.025, 2.442e-6
-1.026, 2.446e-6
-1.027, 2.454e-6
-1.028, 2.454e-6
-1.029, 2.454e-6
-1.030, 2.456e-6
-1.031, 2.462e-6
-1.032, 2.465e-6
-1.033, 2.467e-6
-1.034, 2.468e-6
-1.035, 2.473e-6
-1.036, 2.480e-6
-1.037, 2.482e-6
-1.038, 2.485e-6
-1.039, 2.486e-6
-1.040, 2.490e-6
-1.041, 2.496e-6
-1.042, 2.500e-6
-1.043, 2.502e-6
-1.044, 2.505e-6
-1.045, 2.506e-6
-1.046, 2.513e-6
-1.047, 2.516e-6
-1.048, 2.520e-6
-1.049, 2.524e-6
-1.050, 2.527e-6
-1.051, 2.534e-6
-1.052, 2.539e-6
-1.053, 2.540e-6
-1.054, 2.543e-6
-1.055, 2.546e-6
-1.056, 2.553e-6
-1.057, 2.560e-6
-1.058, 2.559e-6
-1.059, 2.564e-6
-1.060, 2.568e-6
-1.061, 2.572e-6
-1.062, 2.578e-6
-1.063, 2.582e-6
-1.064, 2.583e-6
-1.065, 2.589e-6
-1.066, 2.592e-6
-1.067, 2.599e-6
-1.068, 2.601e-6
-1.069, 2.604e-6
-1.070, 2.606e-6
-1.071, 2.611e-6
-1.072, 2.616e-6
-1.073, 2.619e-6
-1.074, 2.619e-6
-1.075, 2.628e-6
-1.076, 2.634e-6
-1.077, 2.639e-6
-1.078, 2.643e-6
-1.079, 2.644e-6
-1.080, 2.647e-6
-1.081, 2.654e-6
-1.082, 2.657e-6
-1.083, 2.660e-6
-1.084, 2.662e-6
-1.085, 2.665e-6
-1.086, 2.674e-6
-1.087, 2.678e-6
-1.088, 2.681e-6
-1.089, 2.684e-6
-1.090, 2.686e-6
-1.091, 2.692e-6
-1.092, 2.697e-6
-1.093, 2.699e-6
-1.094, 2.703e-6
-1.095, 2.706e-6
-1.096, 2.713e-6
-1.097, 2.718e-6
-1.098, 2.719e-6
-1.099, 2.726e-6
-1.100, 2.733e-6
-1.101, 2.737e-6
-1.102, 2.743e-6
-1.103, 2.741e-6
-1.104, 2.741e-6
-1.105, 2.745e-6
-1.106, 2.749e-6
-1.107, 2.755e-6
-1.108, 2.758e-6
-1.109, 2.759e-6
-1.110, 2.762e-6
-1.111, 2.767e-6
-1.112, 2.772e-6
-1.113, 2.774e-6
-1.114, 2.776e-6
-1.115, 2.780e-6
-1.116, 2.787e-6
-1.117, 2.788e-6
-1.118, 2.792e-6
-1.119, 2.795e-6
-1.120, 2.797e-6
-1.121, 2.804e-6
-1.122, 2.807e-6
-1.123, 2.810e-6
-1.124, 2.813e-6
-1.125, 2.814e-6
-1.126, 2.822e-6
-1.127, 2.827e-6
-1.128, 2.829e-6
-1.129, 2.835e-6
-1.130, 2.836e-6
-1.131, 2.843e-6
-1.132, 2.846e-6
-1.133, 2.846e-6
-1.134, 2.850e-6
-1.135, 2.853e-6
-1.136, 2.857e-6
-1.137, 2.864e-6
-1.138, 2.863e-6
-1.139, 2.869e-6
-1.140, 2.874e-6
-1.141, 2.881e-6
-1.142, 2.890e-6
-1.143, 2.890e-6
-1.144, 2.891e-6
-1.145, 2.894e-6
-1.146, 2.897e-6
-1.147, 2.903e-6
-1.148, 2.903e-6
-1.149, 2.906e-6
-1.150, 2.910e-6
-1.151, 2.914e-6
-1.152, 2.920e-6
-1.153, 2.924e-6
-1.154, 2.923e-6
-1.155, 2.927e-6
-1.156, 2.933e-6
-1.157, 2.937e-6
-1.158, 2.939e-6
-1.159, 2.941e-6
-1.160, 2.944e-6
-1.161, 2.951e-6
-1.162, 2.954e-6
-1.163, 2.956e-6
-1.164, 2.956e-6
-1.165, 2.962e-6
-1.166, 2.969e-6
-1.167, 2.976e-6
-1.168, 2.977e-6
-1.169, 2.980e-6
-1.170, 2.983e-6
-1.171, 2.990e-6
-1.172, 2.997e-6
-1.173, 2.997e-6
-1.174, 3.001e-6
-1.175, 2.999e-6
-1.176, 3.004e-6
-1.177, 3.010e-6
-1.178, 3.014e-6
-1.179, 3.015e-6
-1.180, 3.016e-6
-1.181, 3.022e-6
-1.182, 3.026e-6
-1.183, 3.028e-6
-1.184, 3.030e-6
-1.185, 3.034e-6
-1.186, 3.035e-6
-1.187, 3.042e-6
-1.188, 3.046e-6
-1.189, 3.046e-6
-1.190, 3.052e-6
-1.191, 3.057e-6
-1.192, 3.062e-6
-1.193, 3.064e-6
-1.194, 3.064e-6
-1.195, 3.068e-6
-1.196, 3.073e-6
-1.197, 3.079e-6
-1.198, 3.082e-6
-1.199, 3.085e-6
-1.200, 3.088e-6
-1.201, 3.096e-6
-1.202, 3.098e-6
-1.203, 3.101e-6
-1.204, 3.104e-6
-1.205, 3.107e-6
-1.206, 3.115e-6
-1.207, 3.119e-6
-1.208, 3.121e-6
-1.209, 3.125e-6
-1.210, 3.126e-6
-1.211, 3.133e-6
-1.212, 3.138e-6
-1.213, 3.140e-6
-1.214, 3.145e-6
-1.215, 3.146e-6
-1.216, 3.154e-6
-1.217, 3.159e-6
-1.218, 3.159e-6
-1.219, 3.161e-6
-1.220, 3.165e-6
-1.221, 3.171e-6
-1.222, 3.178e-6
-1.223, 3.179e-6
-1.224, 3.181e-6
-1.225, 3.185e-6
-1.226, 3.190e-6
-1.227, 3.198e-6
-1.228, 3.204e-6
-1.229, 3.220e-6
-1.230, 3.223e-6
-1.231, 3.227e-6
-1.232, 3.231e-6
-1.233, 3.233e-6
-1.234, 3.230e-6
-1.235, 3.234e-6
-1.236, 3.239e-6
-1.237, 3.241e-6
-1.238, 3.245e-6
-1.239, 3.245e-6
-1.240, 3.249e-6
-1.241, 3.256e-6
-1.242, 3.260e-6
-1.243, 3.261e-6
-1.244, 3.264e-6
-1.245, 3.267e-6
-1.246, 3.273e-6
-1.247, 3.277e-6
-1.248, 3.278e-6
-1.249, 3.282e-6
-1.250, 3.282e-6
-1.251, 3.289e-6
-1.252, 3.296e-6
-1.253, 3.297e-6
-1.254, 3.303e-6
-1.255, 3.303e-6
-1.256, 3.309e-6
-1.257, 3.315e-6
-1.258, 3.317e-6
-1.259, 3.323e-6
-1.260, 3.326e-6
-1.261, 3.331e-6
-1.262, 3.339e-6
-1.263, 3.339e-6
-1.264, 3.340e-6
-1.265, 3.347e-6
-1.266, 3.350e-6
-1.267, 3.359e-6
-1.268, 3.360e-6
-1.269, 3.361e-6
-1.270, 3.366e-6
-1.271, 3.371e-6
-1.272, 3.377e-6
-1.273, 3.381e-6
-1.274, 3.383e-6
-1.275, 3.385e-6
-1.276, 3.392e-6
-1.277, 3.398e-6
-1.278, 3.405e-6
-1.279, 3.406e-6
-1.280, 3.415e-6
-1.281, 3.422e-6
-1.282, 3.421e-6
-1.283, 3.426e-6
-1.284, 3.428e-6
-1.285, 3.431e-6
-1.286, 3.439e-6
-1.287, 3.443e-6
-1.288, 3.445e-6
-1.289, 3.449e-6
-1.290, 3.450e-6
-1.291, 3.458e-6
-1.292, 3.462e-6
-1.293, 3.464e-6
-1.294, 3.470e-6
-1.295, 3.474e-6
-1.296, 3.479e-6
-1.297, 3.488e-6
-1.298, 3.487e-6
-1.299, 3.490e-6
-1.300, 3.497e-6
-1.301, 3.500e-6
-1.302, 3.509e-6
-1.303, 3.511e-6
-1.304, 3.515e-6
-1.305, 3.521e-6
-1.306, 3.528e-6
-1.307, 3.536e-6
-1.308, 3.545e-6
-1.309, 3.550e-6
-1.310, 3.560e-6
-1.311, 3.565e-6
-1.312, 3.570e-6
-1.313, 3.570e-6
-1.314, 3.566e-6
-1.315, 3.571e-6
-1.316, 3.576e-6
-1.317, 3.580e-6
-1.318, 3.584e-6
-1.319, 3.587e-6
-1.320, 3.590e-6
-1.321, 3.597e-6
-1.322, 3.601e-6
-1.323, 3.603e-6
-1.324, 3.609e-6
-1.325, 3.608e-6
-1.326, 3.614e-6
-1.327, 3.620e-6
-1.328, 3.623e-6
-1.329, 3.628e-6
-1.330, 3.630e-6
-1.331, 3.639e-6
-1.332, 3.643e-6
-1.333, 3.643e-6
-1.334, 3.649e-6
-1.335, 3.653e-6
-1.336, 3.662e-6
-1.337, 3.670e-6
-1.338, 3.671e-6
-1.339, 3.670e-6
-1.340, 3.674e-6
-1.341, 3.679e-6
-1.342, 3.687e-6
-1.343, 3.686e-6
-1.344, 3.690e-6
-1.345, 3.695e-6
-1.346, 3.698e-6
-1.347, 3.707e-6
-1.348, 3.710e-6
-1.349, 3.711e-6
-1.350, 3.718e-6
-1.351, 3.722e-6
-1.352, 3.728e-6
-1.353, 3.731e-6
-1.354, 3.731e-6
-1.355, 3.737e-6
-1.356, 3.744e-6
-1.357, 3.750e-6
-1.358, 3.754e-6
-1.359, 3.756e-6
-1.360, 3.758e-6
-1.361, 3.768e-6
-1.362, 3.772e-6
-1.363, 3.775e-6
-1.364, 3.779e-6
-1.365, 3.783e-6
-1.366, 3.792e-6
-1.367, 3.795e-6
-1.368, 3.799e-6
-1.369, 3.806e-6
-1.370, 3.809e-6
-1.371, 3.818e-6
-1.372, 3.826e-6
-1.373, 3.826e-6
-1.374, 3.832e-6
-1.375, 3.836e-6
-1.376, 3.845e-6
-1.377, 3.852e-6
-1.378, 3.854e-6
-1.379, 3.860e-6
-1.380, 3.866e-6
-1.381, 3.876e-6
-1.382, 3.885e-6
-1.383, 3.889e-6
-1.384, 3.890e-6
-1.385, 3.896e-6
-1.386, 3.899e-6
-1.387, 3.907e-6
-1.388, 3.914e-6
-1.389, 3.917e-6
-1.390, 3.930e-6
-1.391, 3.944e-6
-1.392, 3.957e-6
-1.393, 3.963e-6
-1.394, 3.961e-6
-1.395, 3.966e-6
-1.396, 3.971e-6
-1.397, 3.974e-6
-1.398, 3.978e-6
-1.399, 3.979e-6
-1.400, 3.986e-6
-1.401, 3.996e-6
-1.402, 4.001e-6
-1.403, 4.007e-6
-1.404, 4.009e-6
-1.405, 4.010e-6
-1.406, 4.021e-6
-1.407, 4.028e-6
-1.408, 4.033e-6
-1.409, 4.037e-6
-1.410, 4.039e-6
-1.411, 4.049e-6
-1.412, 4.057e-6
-1.413, 4.058e-6
-1.414, 4.064e-6
-1.415, 4.068e-6
-1.416, 4.078e-6
-1.417, 4.089e-6
-1.418, 4.092e-6
-1.419, 4.099e-6
-1.420, 4.102e-6
-1.421, 4.111e-6
-1.422, 4.118e-6
-1.423, 4.120e-6
-1.424, 4.124e-6
-1.425, 4.134e-6
-1.426, 4.141e-6
-1.427, 4.152e-6
-1.428, 4.156e-6
-1.429, 4.159e-6
-1.430, 4.167e-6
-1.431, 4.175e-6
-1.432, 4.184e-6
-1.433, 4.189e-6
-1.434, 4.198e-6
-1.435, 4.200e-6
-1.436, 4.211e-6
-1.437, 4.219e-6
-1.438, 4.225e-6
-1.439, 4.230e-6
-1.440, 4.240e-6
-1.441, 4.250e-6
-1.442, 4.257e-6
-1.443, 4.265e-6
-1.444, 4.270e-6
-1.445, 4.277e-6
-1.446, 4.293e-6
-1.447, 4.304e-6
-1.448, 4.310e-6
-1.449, 4.318e-6
-1.450, 4.326e-6
-1.451, 4.339e-6
-1.452, 4.353e-6
-1.453, 4.359e-6
-1.454, 4.370e-6
-1.455, 4.378e-6
-1.456, 4.390e-6
-1.457, 4.405e-6
-1.458, 4.411e-6
-1.459, 4.423e-6
-1.460, 4.434e-6
-1.461, 4.445e-6
-1.462, 4.460e-6
-1.463, 4.468e-6
-1.464, 4.481e-6
-1.465, 4.493e-6
-1.466, 4.507e-6
-1.467, 4.524e-6
-1.468, 4.534e-6
-1.469, 4.543e-6
-1.470, 4.560e-6
-1.471, 4.576e-6
-1.472, 4.597e-6
-1.473, 4.618e-6
-1.474, 4.632e-6
-1.475, 4.646e-6
-1.476, 4.662e-6
-1.477, 4.675e-6
-1.478, 4.689e-6
-1.479, 4.699e-6
-1.480, 4.724e-6
-1.481, 4.745e-6
-1.482, 4.759e-6
-1.483, 4.782e-6
-1.484, 4.800e-6
-1.485, 4.821e-6
-1.486, 4.838e-6
-1.487, 4.856e-6
-1.488, 4.871e-6
-1.489, 4.891e-6
-1.490, 4.907e-6
-1.491, 4.934e-6
-1.492, 4.961e-6
-1.493, 4.979e-6
-1.494, 5.002e-6
-1.495, 5.021e-6
-1.496, 5.050e-6
-1.497, 5.083e-6
-1.498, 5.099e-6
-1.499, 5.124e-6
-1.500, 5.150e-6
-1.501, 5.178e-6
-1.502, 5.207e-6
-1.503, 5.232e-6
-1.504, 5.258e-6
-1.505, 5.285e-6
-1.506, 5.306e-6
-1.507, 5.343e-6
-1.508, 5.371e-6
-1.509, 5.393e-6
-1.510, 5.435e-6
-1.511, 5.471e-6
-1.512, 5.498e-6
-1.513, 5.533e-6
-1.514, 5.564e-6
-1.515, 5.604e-6
-1.516, 5.646e-6
-1.517, 5.681e-6
-1.518, 5.718e-6
-1.519, 5.756e-6
-1.520, 5.796e-6
-1.521, 5.838e-6
-1.522, 5.878e-6
-1.523, 5.922e-6
-1.524, 5.968e-6
-1.525, 6.017e-6
-1.526, 6.073e-6
-1.527, 6.119e-6
-1.528, 6.165e-6
-1.529, 6.227e-6
-1.530, 6.274e-6
-1.531, 6.322e-6
-1.532, 6.375e-6
-1.533, 6.426e-6
-1.534, 6.497e-6
-1.535, 6.582e-6
-1.536, 6.679e-6
-1.537, 6.748e-6
-1.538, 6.803e-6
-1.539, 6.873e-6
-1.540, 6.955e-6
-1.541, 6.975e-6
-1.542, 7.022e-6
-1.543, 7.087e-6
-1.544, 7.142e-6
-1.545, 7.215e-6
-1.546, 7.296e-6
-1.547, 7.377e-6
-1.548, 7.460e-6
-1.549, 7.545e-6
-1.550, 7.650e-6
-1.551, 7.751e-6
-1.552, 7.861e-6
-1.553, 7.948e-6
-1.554, 8.060e-6
-1.555, 8.156e-6
-1.556, 8.229e-6
-1.557, 8.316e-6
-1.558, 8.468e-6
-1.559, 8.588e-6
-1.560, 8.684e-6
-1.561, 8.775e-6
-1.562, 8.925e-6
-1.563, 9.040e-6
-1.564, 9.147e-6
-1.565, 9.247e-6
-1.566, 9.357e-6
-1.567, 9.510e-6
-1.568, 9.652e-6
-1.569, 9.784e-6
-1.570, 9.918e-6
-1.571, 1.007e-5
-1.572, 1.023e-5
-1.573, 1.037e-5
-1.574, 1.052e-5
-1.575, 1.067e-5
-1.576, 1.083e-5
-1.577, 1.099e-5
-1.578, 1.115e-5
-1.579, 1.131e-5
-1.580, 1.149e-5
-1.581, 1.164e-5
-1.582, 1.182e-5
-1.583, 1.200e-5
-1.584, 1.217e-5
-1.585, 1.236e-5
-1.586, 1.256e-5
-1.587, 1.277e-5
-1.588, 1.297e-5
-1.589, 1.318e-5
-1.590, 1.339e-5
-1.591, 1.363e-5
-1.592, 1.387e-5
-1.593, 1.412e-5
-1.594, 1.436e-5
-1.595, 1.465e-5
-1.596, 1.503e-5
-1.597, 1.530e-5
-1.598, 1.557e-5
-1.599, 1.583e-5
-1.600, 1.611e-5
-1.601, 1.640e-5
-1.602, 1.668e-5
-1.603, 1.698e-5
-1.604, 1.729e-5
-1.605, 1.760e-5
-1.606, 1.792e-5
-1.607, 1.824e-5
-1.608, 1.858e-5
-1.609, 1.893e-5
-1.610, 1.929e-5
-1.611, 1.967e-5
-1.612, 2.001e-5
-1.613, 2.026e-5
-1.614, 2.064e-5
-1.615, 2.104e-5
-1.616, 2.145e-5
-1.617, 2.187e-5
-1.618, 2.229e-5
-1.619, 2.274e-5
-1.620, 2.320e-5
-1.621, 2.368e-5
-1.622, 2.418e-5
-1.623, 2.467e-5
-1.624, 2.520e-5
-1.625, 2.573e-5
-1.626, 2.624e-5
-1.627, 2.676e-5
-1.628, 2.732e-5
-1.629, 2.790e-5
-1.630, 2.850e-5
-1.631, 2.911e-5
-1.632, 2.974e-5
-1.633, 3.037e-5
-1.634, 3.102e-5
-1.635, 3.170e-5
-1.636, 3.242e-5
-1.637, 3.313e-5
-1.638, 3.387e-5
-1.639, 3.465e-5
-1.640, 3.544e-5
-1.641, 3.625e-5
-1.642, 3.706e-5
-1.643, 3.788e-5
-1.644, 3.874e-5
-1.645, 3.964e-5
-1.646, 4.060e-5
-1.647, 4.167e-5
-1.648, 4.281e-5
-1.649, 4.380e-5
-1.650, 4.519e-5
-1.651, 4.647e-5
-1.652, 4.763e-5
-1.653, 4.875e-5
-1.654, 4.999e-5
-1.655, 5.110e-5
-1.656, 5.249e-5
-1.657, 5.389e-5
-1.658, 5.458e-5
-1.659, 5.566e-5
-1.660, 5.704e-5
-1.661, 5.859e-5
-1.662, 6.037e-5
-1.663, 6.190e-5
-1.664, 6.315e-5
-1.665, 6.477e-5
-1.666, 6.656e-5
-1.667, 6.821e-5
-1.668, 6.986e-5
-1.669, 7.164e-5
-1.670, 7.359e-5
-1.671, 7.545e-5
-1.672, 7.726e-5
-1.673, 7.924e-5
-1.674, 8.124e-5
-1.675, 8.338e-5
-1.676, 8.558e-5
-1.677, 8.768e-5
-1.678, 8.968e-5
-1.679, 9.192e-5
-1.680, 9.428e-5
-1.681, 9.659e-5
-1.682, 9.895e-5
-1.683, 1.014e-4
-1.684, 1.039e-4
-1.685, 1.066e-4
-1.686, 1.092e-4
-1.687, 1.119e-4
-1.688, 1.147e-4
-1.689, 1.175e-4
-1.690, 1.205e-4
-1.691, 1.235e-4
-1.692, 1.268e-4
-1.693, 1.300e-4
-1.694, 1.332e-4
-1.695, 1.365e-4
-1.696, 1.400e-4
-1.697, 1.437e-4
-1.698, 1.473e-4
-1.699, 1.510e-4
