Oct. 19, 2024   23:31:49
Cyclic Voltammetry
File: c:/users/guazh/data/banditlqround2/2024-10-18-exp579\exp579-2024-10-19t23_16_57-h2koh\exp579_cv_sr_400mvs_efin_-1600mv.bin
Data Source:  Experiment
Instrument Model:  CHI760E
Header: CV ran at 400 mVs
Note: 

Init E (V) = -1
High E (V) = -1
Low E (V) = -1.6
Final E (V) = -1
Init P/N = N
Scan Rate (V/s) = 0.4
Segment = 3
Sample Interval (V) = 0.001
Quiet Time (sec) = 2
Sensitivity (A/V) = 0.01
Comp R (ohm) = 0.9

Results:

Channel 1:
Segment 1:

Segment 2:

Segment 3:

Potential/V, Current/A

-1.000, 2.482e-5
-1.001, 5.873e-5
-1.002, 7.107e-5
-1.003, 7.723e-5
-1.004, 7.415e-5
-1.005, 7.107e-5
-1.006, 7.107e-5
-1.007, 7.107e-5
-1.008, 7.723e-5
-1.009, 8.340e-5
-1.010, 8.340e-5
-1.011, 7.723e-5
-1.012, 7.415e-5
-1.013, 7.415e-5
-1.014, 7.415e-5
-1.015, 8.340e-5
-1.016, 8.648e-5
-1.017, 8.340e-5
-1.018, 8.032e-5
-1.019, 7.415e-5
-1.020, 7.723e-5
-1.021, 8.032e-5
-1.022, 8.340e-5
-1.023, 8.648e-5
-1.024, 8.340e-5
-1.025, 8.032e-5
-1.026, 7.723e-5
-1.027, 7.723e-5
-1.028, 8.340e-5
-1.029, 8.957e-5
-1.030, 8.648e-5
-1.031, 8.340e-5
-1.032, 7.723e-5
-1.033, 7.723e-5
-1.034, 8.032e-5
-1.035, 8.648e-5
-1.036, 8.957e-5
-1.037, 8.648e-5
-1.038, 8.340e-5
-1.039, 7.723e-5
-1.040, 8.032e-5
-1.041, 8.340e-5
-1.042, 8.648e-5
-1.043, 8.957e-5
-1.044, 8.648e-5
-1.045, 8.032e-5
-1.046, 7.723e-5
-1.047, 8.032e-5
-1.048, 8.340e-5
-1.049, 8.957e-5
-1.050, 8.957e-5
-1.051, 8.648e-5
-1.052, 8.032e-5
-1.053, 8.032e-5
-1.054, 8.032e-5
-1.055, 8.648e-5
-1.056, 8.957e-5
-1.057, 8.957e-5
-1.058, 8.340e-5
-1.059, 8.032e-5
-1.060, 8.032e-5
-1.061, 8.648e-5
-1.062, 8.957e-5
-1.063, 8.957e-5
-1.064, 8.648e-5
-1.065, 8.340e-5
-1.066, 8.032e-5
-1.067, 8.032e-5
-1.068, 8.648e-5
-1.069, 8.957e-5
-1.070, 8.957e-5
-1.071, 8.648e-5
-1.072, 8.340e-5
-1.073, 8.032e-5
-1.074, 8.340e-5
-1.075, 8.957e-5
-1.076, 9.265e-5
-1.077, 8.957e-5
-1.078, 8.648e-5
-1.079, 8.032e-5
-1.080, 8.032e-5
-1.081, 8.648e-5
-1.082, 9.265e-5
-1.083, 9.265e-5
-1.084, 8.957e-5
-1.085, 8.340e-5
-1.086, 8.032e-5
-1.087, 8.340e-5
-1.088, 8.957e-5
-1.089, 9.573e-5
-1.090, 9.265e-5
-1.091, 8.957e-5
-1.092, 8.340e-5
-1.093, 8.340e-5
-1.094, 8.340e-5
-1.095, 8.957e-5
-1.096, 9.265e-5
-1.097, 9.265e-5
-1.098, 8.648e-5
-1.099, 8.340e-5
-1.100, 8.340e-5
-1.101, 8.648e-5
-1.102, 9.265e-5
-1.103, 9.265e-5
-1.104, 9.265e-5
-1.105, 8.648e-5
-1.106, 8.340e-5
-1.107, 8.648e-5
-1.108, 8.957e-5
-1.109, 9.573e-5
-1.110, 9.573e-5
-1.111, 8.957e-5
-1.112, 8.648e-5
-1.113, 8.340e-5
-1.114, 8.648e-5
-1.115, 9.265e-5
-1.116, 9.573e-5
-1.117, 9.265e-5
-1.118, 8.957e-5
-1.119, 8.648e-5
-1.120, 8.340e-5
-1.121, 8.957e-5
-1.122, 9.265e-5
-1.123, 9.573e-5
-1.124, 9.265e-5
-1.125, 8.957e-5
-1.126, 8.340e-5
-1.127, 8.648e-5
-1.128, 9.265e-5
-1.129, 9.573e-5
-1.130, 9.573e-5
-1.131, 9.265e-5
-1.132, 8.648e-5
-1.133, 8.648e-5
-1.134, 8.957e-5
-1.135, 9.573e-5
-1.136, 9.882e-5
-1.137, 9.573e-5
-1.138, 8.957e-5
-1.139, 8.648e-5
-1.140, 8.648e-5
-1.141, 9.265e-5
-1.142, 9.573e-5
-1.143, 9.882e-5
-1.144, 9.573e-5
-1.145, 8.957e-5
-1.146, 8.648e-5
-1.147, 8.957e-5
-1.148, 9.265e-5
-1.149, 9.882e-5
-1.150, 9.882e-5
-1.151, 9.265e-5
-1.152, 8.957e-5
-1.153, 8.648e-5
-1.154, 8.957e-5
-1.155, 9.573e-5
-1.156, 1.019e-4
-1.157, 9.882e-5
-1.158, 9.265e-5
-1.159, 8.957e-5
-1.160, 8.957e-5
-1.161, 9.573e-5
-1.162, 9.882e-5
-1.163, 9.882e-5
-1.164, 9.882e-5
-1.165, 9.265e-5
-1.166, 8.957e-5
-1.167, 8.957e-5
-1.168, 9.573e-5
-1.169, 1.019e-4
-1.170, 1.019e-4
-1.171, 9.573e-5
-1.172, 9.265e-5
-1.173, 9.265e-5
-1.174, 9.265e-5
-1.175, 9.882e-5
-1.176, 1.019e-4
-1.177, 1.019e-4
-1.178, 9.573e-5
-1.179, 9.265e-5
-1.180, 9.265e-5
-1.181, 9.573e-5
-1.182, 1.019e-4
-1.183, 1.019e-4
-1.184, 9.882e-5
-1.185, 9.573e-5
-1.186, 9.265e-5
-1.187, 9.573e-5
-1.188, 9.882e-5
-1.189, 1.050e-4
-1.190, 1.050e-4
-1.191, 9.882e-5
-1.192, 9.265e-5
-1.193, 9.265e-5
-1.194, 9.573e-5
-1.195, 1.019e-4
-1.196, 1.050e-4
-1.197, 1.019e-4
-1.198, 9.882e-5
-1.199, 9.265e-5
-1.200, 9.265e-5
-1.201, 9.882e-5
-1.202, 1.050e-4
-1.203, 1.050e-4
-1.204, 1.050e-4
-1.205, 9.882e-5
-1.206, 9.265e-5
-1.207, 9.573e-5
-1.208, 1.019e-4
-1.209, 1.081e-4
-1.210, 1.081e-4
-1.211, 1.019e-4
-1.212, 9.882e-5
-1.213, 9.573e-5
-1.214, 9.882e-5
-1.215, 1.050e-4
-1.216, 1.081e-4
-1.217, 1.050e-4
-1.218, 9.882e-5
-1.219, 9.573e-5
-1.220, 9.882e-5
-1.221, 1.019e-4
-1.222, 1.081e-4
-1.223, 1.081e-4
-1.224, 1.050e-4
-1.225, 1.019e-4
-1.226, 9.573e-5
-1.227, 9.882e-5
-1.228, 1.050e-4
-1.229, 1.111e-4
-1.230, 1.111e-4
-1.231, 1.050e-4
-1.232, 1.019e-4
-1.233, 9.882e-5
-1.234, 1.019e-4
-1.235, 1.081e-4
-1.236, 1.111e-4
-1.237, 1.081e-4
-1.238, 1.019e-4
-1.239, 9.882e-5
-1.240, 9.882e-5
-1.241, 1.050e-4
-1.242, 1.111e-4
-1.243, 1.111e-4
-1.244, 1.081e-4
-1.245, 1.050e-4
-1.246, 1.019e-4
-1.247, 1.050e-4
-1.248, 1.081e-4
-1.249, 1.142e-4
-1.250, 1.142e-4
-1.251, 1.081e-4
-1.252, 1.050e-4
-1.253, 1.019e-4
-1.254, 1.081e-4
-1.255, 1.111e-4
-1.256, 1.142e-4
-1.257, 1.111e-4
-1.258, 1.050e-4
-1.259, 1.019e-4
-1.260, 1.019e-4
-1.261, 1.081e-4
-1.262, 1.142e-4
-1.263, 1.142e-4
-1.264, 1.111e-4
-1.265, 1.081e-4
-1.266, 1.050e-4
-1.267, 1.050e-4
-1.268, 1.142e-4
-1.269, 1.173e-4
-1.270, 1.173e-4
-1.271, 1.111e-4
-1.272, 1.081e-4
-1.273, 1.081e-4
-1.274, 1.081e-4
-1.275, 1.142e-4
-1.276, 1.173e-4
-1.277, 1.173e-4
-1.278, 1.111e-4
-1.279, 1.081e-4
-1.280, 1.081e-4
-1.281, 1.142e-4
-1.282, 1.173e-4
-1.283, 1.173e-4
-1.284, 1.173e-4
-1.285, 1.111e-4
-1.286, 1.081e-4
-1.287, 1.111e-4
-1.288, 1.173e-4
-1.289, 1.235e-4
-1.290, 1.204e-4
-1.291, 1.173e-4
-1.292, 1.142e-4
-1.293, 1.111e-4
-1.294, 1.142e-4
-1.295, 1.204e-4
-1.296, 1.235e-4
-1.297, 1.204e-4
-1.298, 1.173e-4
-1.299, 1.142e-4
-1.300, 1.142e-4
-1.301, 1.204e-4
-1.302, 1.266e-4
-1.303, 1.266e-4
-1.304, 1.235e-4
-1.305, 1.204e-4
-1.306, 1.173e-4
-1.307, 1.173e-4
-1.308, 1.235e-4
-1.309, 1.296e-4
-1.310, 1.266e-4
-1.311, 1.266e-4
-1.312, 1.204e-4
-1.313, 1.204e-4
-1.314, 1.235e-4
-1.315, 1.296e-4
-1.316, 1.327e-4
-1.317, 1.296e-4
-1.318, 1.266e-4
-1.319, 1.235e-4
-1.320, 1.266e-4
-1.321, 1.327e-4
-1.322, 1.358e-4
-1.323, 1.358e-4
-1.324, 1.358e-4
-1.325, 1.296e-4
-1.326, 1.266e-4
-1.327, 1.327e-4
-1.328, 1.389e-4
-1.329, 1.420e-4
-1.330, 1.420e-4
-1.331, 1.389e-4
-1.332, 1.358e-4
-1.333, 1.358e-4
-1.334, 1.389e-4
-1.335, 1.451e-4
-1.336, 1.481e-4
-1.337, 1.481e-4
-1.338, 1.420e-4
-1.339, 1.389e-4
-1.340, 1.420e-4
-1.341, 1.481e-4
-1.342, 1.543e-4
-1.343, 1.543e-4
-1.344, 1.512e-4
-1.345, 1.481e-4
-1.346, 1.481e-4
-1.347, 1.512e-4
-1.348, 1.574e-4
-1.349, 1.636e-4
-1.350, 1.636e-4
-1.351, 1.605e-4
-1.352, 1.574e-4
-1.353, 1.574e-4
-1.354, 1.636e-4
-1.355, 1.697e-4
-1.356, 1.728e-4
-1.357, 1.728e-4
-1.358, 1.666e-4
-1.359, 1.666e-4
-1.360, 1.666e-4
-1.361, 1.759e-4
-1.362, 1.821e-4
-1.363, 1.821e-4
-1.364, 1.821e-4
-1.365, 1.790e-4
-1.366, 1.790e-4
-1.367, 1.851e-4
-1.368, 1.913e-4
-1.369, 1.975e-4
-1.370, 2.006e-4
-1.371, 1.944e-4
-1.372, 1.944e-4
-1.373, 1.975e-4
-1.374, 2.036e-4
-1.375, 2.098e-4
-1.376, 2.160e-4
-1.377, 2.160e-4
-1.378, 2.129e-4
-1.379, 2.129e-4
-1.380, 2.191e-4
-1.381, 2.252e-4
-1.382, 2.345e-4
-1.383, 2.376e-4
-1.384, 2.406e-4
-1.385, 2.376e-4
-1.386, 2.406e-4
-1.387, 2.468e-4
-1.388, 2.591e-4
-1.389, 2.653e-4
-1.390, 2.684e-4
-1.391, 2.715e-4
-1.392, 2.715e-4
-1.393, 2.776e-4
-1.394, 2.869e-4
-1.395, 2.992e-4
-1.396, 3.115e-4
-1.397, 3.146e-4
-1.398, 3.208e-4
-1.399, 3.270e-4
-1.400, 3.362e-4
-1.401, 3.547e-4
-1.402, 3.701e-4
-1.403, 3.855e-4
-1.404, 3.979e-4
-1.405, 4.071e-4
-1.406, 4.195e-4
-1.407, 4.410e-4
-1.408, 4.626e-4
-1.409, 4.873e-4
-1.410, 5.120e-4
-1.411, 5.335e-4
-1.412, 5.551e-4
-1.413, 5.829e-4
-1.414, 6.168e-4
-1.415, 6.507e-4
-1.416, 6.877e-4
-1.417, 7.247e-4
-1.418, 7.555e-4
-1.419, 7.925e-4
-1.420, 8.357e-4
-1.421, 8.819e-4
-1.422, 9.313e-4
-1.423, 9.744e-4
-1.424, 1.021e-3
-1.425, 1.061e-3
-1.426, 1.104e-3
-1.427, 1.153e-3
-1.428, 1.206e-3
-1.429, 1.258e-3
-1.430, 1.307e-3
-1.431, 1.354e-3
-1.432, 1.400e-3
-1.433, 1.449e-3
-1.434, 1.502e-3
-1.435, 1.557e-3
-1.436, 1.613e-3
-1.437, 1.665e-3
-1.438, 1.708e-3
-1.439, 1.754e-3
-1.440, 1.798e-3
-1.441, 1.844e-3
-1.442, 1.890e-3
-1.443, 1.936e-3
-1.444, 1.983e-3
-1.445, 2.020e-3
-1.446, 2.057e-3
-1.447, 2.100e-3
-1.448, 2.146e-3
-1.449, 2.198e-3
-1.450, 2.242e-3
-1.451, 2.285e-3
-1.452, 2.328e-3
-1.453, 2.374e-3
-1.454, 2.423e-3
-1.455, 2.476e-3
-1.456, 2.528e-3
-1.457, 2.571e-3
-1.458, 2.608e-3
-1.459, 2.642e-3
-1.460, 2.682e-3
-1.461, 2.726e-3
-1.462, 2.772e-3
-1.463, 2.815e-3
-1.464, 2.858e-3
-1.465, 2.895e-3
-1.466, 2.935e-3
-1.467, 2.982e-3
-1.468, 3.034e-3
-1.469, 3.089e-3
-1.470, 3.148e-3
-1.471, 3.200e-3
-1.472, 3.247e-3
-1.473, 3.296e-3
-1.474, 3.351e-3
-1.475, 3.395e-3
-1.476, 3.438e-3
-1.477, 3.484e-3
-1.478, 3.527e-3
-1.479, 3.567e-3
-1.480, 3.607e-3
-1.481, 3.660e-3
-1.482, 3.715e-3
-1.483, 3.765e-3
-1.484, 3.820e-3
-1.485, 3.879e-3
-1.486, 3.931e-3
-1.487, 3.993e-3
-1.488, 4.058e-3
-1.489, 4.125e-3
-1.490, 4.184e-3
-1.491, 4.233e-3
-1.492, 4.276e-3
-1.493, 4.320e-3
-1.494, 4.369e-3
-1.495, 4.418e-3
-1.496, 4.474e-3
-1.497, 4.523e-3
-1.498, 4.569e-3
-1.499, 4.619e-3
-1.500, 4.674e-3
-1.501, 4.739e-3
-1.502, 4.816e-3
-1.503, 4.893e-3
-1.504, 4.967e-3
-1.505, 5.032e-3
-1.506, 5.097e-3
-1.507, 5.161e-3
-1.508, 5.214e-3
-1.509, 5.266e-3
-1.510, 5.319e-3
-1.511, 5.374e-3
-1.512, 5.423e-3
-1.513, 5.476e-3
-1.514, 5.534e-3
-1.515, 5.605e-3
-1.516, 5.676e-3
-1.517, 5.747e-3
-1.518, 5.821e-3
-1.519, 5.895e-3
-1.520, 5.975e-3
-1.521, 6.065e-3
-1.522, 6.154e-3
-1.523, 6.234e-3
-1.524, 6.296e-3
-1.525, 6.339e-3
-1.526, 6.385e-3
-1.527, 6.438e-3
-1.528, 6.496e-3
-1.529, 6.558e-3
-1.530, 6.613e-3
-1.531, 6.669e-3
-1.532, 6.728e-3
-1.533, 6.792e-3
-1.534, 6.863e-3
-1.535, 6.953e-3
-1.536, 7.051e-3
-1.537, 7.147e-3
-1.538, 7.233e-3
-1.539, 7.316e-3
-1.540, 7.393e-3
-1.541, 7.461e-3
-1.542, 7.523e-3
-1.543, 7.588e-3
-1.544, 7.643e-3
-1.545, 7.696e-3
-1.546, 7.742e-3
-1.547, 7.797e-3
-1.548, 7.868e-3
-1.549, 7.955e-3
-1.550, 8.044e-3
-1.551, 8.127e-3
-1.552, 8.210e-3
-1.553, 8.309e-3
-1.554, 8.411e-3
-1.555, 8.516e-3
-1.556, 8.627e-3
-1.557, 8.735e-3
-1.558, 8.812e-3
-1.559, 8.858e-3
-1.560, 8.901e-3
-1.561, 8.957e-3
-1.562, 9.028e-3
-1.563, 9.095e-3
-1.564, 9.160e-3
-1.565, 9.219e-3
-1.566, 9.280e-3
-1.567, 9.354e-3
-1.568, 9.438e-3
-1.569, 9.536e-3
-1.570, 9.650e-3
-1.571, 9.771e-3
-1.572, 9.882e-3
-1.573, 9.989e-3
-1.574, 1.011e-2
-1.575, 1.021e-2
-1.576, 1.030e-2
-1.577, 1.036e-2
-1.578, 1.041e-2
-1.579, 1.047e-2
-1.580, 1.052e-2
-1.581, 1.057e-2
-1.582, 1.062e-2
-1.583, 1.069e-2
-1.584, 1.077e-2
-1.585, 1.085e-2
-1.586, 1.093e-2
-1.587, 1.104e-2
-1.588, 1.116e-2
-1.589, 1.129e-2
-1.590, 1.140e-2
-1.591, 1.152e-2
-1.592, 1.159e-2
-1.593, 1.164e-2
-1.594, 1.169e-2
-1.595, 1.174e-2
-1.596, 1.180e-2
-1.597, 1.186e-2
-1.598, 1.192e-2
-1.599, 1.198e-2
-1.600, 1.199e-2
-1.599, 1.191e-2
-1.598, 1.185e-2
-1.597, 1.180e-2
-1.596, 1.174e-2
-1.595, 1.167e-2
-1.594, 1.160e-2
-1.593, 1.150e-2
-1.592, 1.136e-2
-1.591, 1.124e-2
-1.590, 1.113e-2
-1.589, 1.103e-2
-1.588, 1.092e-2
-1.587, 1.082e-2
-1.586, 1.072e-2
-1.585, 1.064e-2
-1.584, 1.057e-2
-1.583, 1.050e-2
-1.582, 1.043e-2
-1.581, 1.036e-2
-1.580, 1.031e-2
-1.579, 1.025e-2
-1.578, 1.021e-2
-1.577, 1.016e-2
-1.576, 1.010e-2
-1.575, 1.001e-2
-1.574, 9.888e-3
-1.573, 9.761e-3
-1.572, 9.647e-3
-1.571, 9.539e-3
-1.570, 9.428e-3
-1.569, 9.317e-3
-1.568, 9.209e-3
-1.567, 9.108e-3
-1.566, 9.018e-3
-1.565, 8.941e-3
-1.564, 8.870e-3
-1.563, 8.802e-3
-1.562, 8.732e-3
-1.561, 8.658e-3
-1.560, 8.584e-3
-1.559, 8.522e-3
-1.558, 8.451e-3
-1.557, 8.358e-3
-1.556, 8.251e-3
-1.555, 8.152e-3
-1.554, 8.047e-3
-1.553, 7.951e-3
-1.552, 7.865e-3
-1.551, 7.788e-3
-1.550, 7.714e-3
-1.549, 7.634e-3
-1.548, 7.551e-3
-1.547, 7.480e-3
-1.546, 7.418e-3
-1.545, 7.366e-3
-1.544, 7.313e-3
-1.543, 7.249e-3
-1.542, 7.159e-3
-1.541, 7.048e-3
-1.540, 6.953e-3
-1.539, 6.872e-3
-1.538, 6.795e-3
-1.537, 6.712e-3
-1.536, 6.623e-3
-1.535, 6.533e-3
-1.534, 6.450e-3
-1.533, 6.373e-3
-1.532, 6.311e-3
-1.531, 6.256e-3
-1.530, 6.206e-3
-1.529, 6.145e-3
-1.528, 6.080e-3
-1.527, 6.012e-3
-1.526, 5.951e-3
-1.525, 5.889e-3
-1.524, 5.815e-3
-1.523, 5.738e-3
-1.522, 5.651e-3
-1.521, 5.562e-3
-1.520, 5.479e-3
-1.519, 5.405e-3
-1.518, 5.337e-3
-1.517, 5.275e-3
-1.516, 5.208e-3
-1.515, 5.140e-3
-1.514, 5.075e-3
-1.513, 5.016e-3
-1.512, 4.967e-3
-1.511, 4.921e-3
-1.510, 4.868e-3
-1.509, 4.813e-3
-1.508, 4.748e-3
-1.507, 4.683e-3
-1.506, 4.606e-3
-1.505, 4.535e-3
-1.504, 4.471e-3
-1.503, 4.403e-3
-1.502, 4.332e-3
-1.501, 4.261e-3
-1.500, 4.193e-3
-1.499, 4.135e-3
-1.498, 4.082e-3
-1.497, 4.027e-3
-1.496, 3.971e-3
-1.495, 3.913e-3
-1.494, 3.854e-3
-1.493, 3.799e-3
-1.492, 3.752e-3
-1.491, 3.706e-3
-1.490, 3.654e-3
-1.489, 3.592e-3
-1.488, 3.527e-3
-1.487, 3.462e-3
-1.486, 3.407e-3
-1.485, 3.351e-3
-1.484, 3.293e-3
-1.483, 3.241e-3
-1.482, 3.179e-3
-1.481, 3.120e-3
-1.480, 3.068e-3
-1.479, 3.022e-3
-1.478, 2.978e-3
-1.477, 2.935e-3
-1.476, 2.886e-3
-1.475, 2.837e-3
-1.474, 2.787e-3
-1.473, 2.741e-3
-1.472, 2.701e-3
-1.471, 2.658e-3
-1.470, 2.605e-3
-1.469, 2.553e-3
-1.468, 2.497e-3
-1.467, 2.448e-3
-1.466, 2.402e-3
-1.465, 2.362e-3
-1.464, 2.322e-3
-1.463, 2.279e-3
-1.462, 2.232e-3
-1.461, 2.183e-3
-1.460, 2.143e-3
-1.459, 2.106e-3
-1.458, 2.072e-3
-1.457, 2.038e-3
-1.456, 1.998e-3
-1.455, 1.958e-3
-1.454, 1.915e-3
-1.453, 1.878e-3
-1.452, 1.841e-3
-1.451, 1.810e-3
-1.450, 1.770e-3
-1.449, 1.730e-3
-1.448, 1.687e-3
-1.447, 1.650e-3
-1.446, 1.616e-3
-1.445, 1.585e-3
-1.444, 1.554e-3
-1.443, 1.520e-3
-1.442, 1.486e-3
-1.441, 1.449e-3
-1.440, 1.418e-3
-1.439, 1.391e-3
-1.438, 1.369e-3
-1.437, 1.341e-3
-1.436, 1.310e-3
-1.435, 1.277e-3
-1.434, 1.243e-3
-1.433, 1.215e-3
-1.432, 1.190e-3
-1.431, 1.166e-3
-1.430, 1.138e-3
-1.429, 1.107e-3
-1.428, 1.076e-3
-1.427, 1.051e-3
-1.426, 1.027e-3
-1.425, 1.008e-3
-1.424, 9.868e-4
-1.423, 9.621e-4
-1.422, 9.343e-4
-1.421, 9.097e-4
-1.420, 8.881e-4
-1.419, 8.696e-4
-1.418, 8.542e-4
-1.417, 8.326e-4
-1.416, 8.079e-4
-1.415, 7.833e-4
-1.414, 7.586e-4
-1.413, 7.401e-4
-1.412, 7.278e-4
-1.411, 7.124e-4
-1.410, 6.908e-4
-1.409, 6.692e-4
-1.408, 6.476e-4
-1.407, 6.291e-4
-1.406, 6.168e-4
-1.405, 6.044e-4
-1.404, 5.921e-4
-1.403, 5.736e-4
-1.402, 5.551e-4
-1.401, 5.335e-4
-1.400, 5.212e-4
-1.399, 5.120e-4
-1.398, 5.027e-4
-1.397, 4.873e-4
-1.396, 4.688e-4
-1.395, 4.534e-4
-1.394, 4.380e-4
-1.393, 4.256e-4
-1.392, 4.195e-4
-1.391, 4.102e-4
-1.390, 3.979e-4
-1.389, 3.825e-4
-1.388, 3.670e-4
-1.387, 3.578e-4
-1.386, 3.485e-4
-1.385, 3.424e-4
-1.384, 3.331e-4
-1.383, 3.208e-4
-1.382, 3.085e-4
-1.381, 2.961e-4
-1.380, 2.869e-4
-1.379, 2.838e-4
-1.378, 2.776e-4
-1.377, 2.684e-4
-1.376, 2.561e-4
-1.375, 2.468e-4
-1.374, 2.345e-4
-1.373, 2.283e-4
-1.372, 2.252e-4
-1.371, 2.221e-4
-1.370, 2.129e-4
-1.369, 2.006e-4
-1.368, 1.913e-4
-1.367, 1.851e-4
-1.366, 1.821e-4
-1.365, 1.821e-4
-1.364, 1.759e-4
-1.363, 1.666e-4
-1.362, 1.574e-4
-1.361, 1.481e-4
-1.360, 1.451e-4
-1.359, 1.420e-4
-1.358, 1.420e-4
-1.357, 1.358e-4
-1.356, 1.266e-4
-1.355, 1.173e-4
-1.354, 1.142e-4
-1.353, 1.081e-4
-1.352, 1.111e-4
-1.351, 1.081e-4
-1.350, 1.019e-4
-1.349, 9.265e-5
-1.348, 8.648e-5
-1.347, 8.340e-5
-1.346, 8.340e-5
-1.345, 8.340e-5
-1.344, 8.032e-5
-1.343, 7.415e-5
-1.342, 6.490e-5
-1.341, 5.873e-5
-1.340, 5.565e-5
-1.339, 5.873e-5
-1.338, 6.182e-5
-1.337, 5.565e-5
-1.336, 4.949e-5
-1.335, 4.024e-5
-1.334, 3.715e-5
-1.333, 3.715e-5
-1.332, 4.024e-5
-1.331, 4.024e-5
-1.330, 3.407e-5
-1.329, 2.790e-5
-1.328, 2.174e-5
-1.327, 1.865e-5
-1.326, 2.174e-5
-1.325, 2.174e-5
-1.324, 2.174e-5
-1.323, 1.557e-5
-1.322, 9.405e-6
-1.321, 3.239e-6
-1.320, 3.239e-6
-1.319, 6.322e-6
-1.318, 9.405e-6
-1.317, 6.322e-6
-1.316, 1.559e-7
-1.315, -6.010e-6
-1.314, -6.010e-6
-1.313, -9.093e-6
-1.312, -6.010e-6
-1.311, -2.927e-6
-1.310, -6.010e-6
-1.309, -1.526e-5
-1.308, -1.834e-5
-1.307, -2.143e-5
-1.306, -1.834e-5
-1.305, -1.526e-5
-1.304, -1.526e-5
-1.303, -1.834e-5
-1.302, -2.451e-5
-1.301, -2.759e-5
-1.300, -2.759e-5
-1.299, -2.451e-5
-1.298, -2.143e-5
-1.297, -2.451e-5
-1.296, -3.068e-5
-1.295, -3.376e-5
-1.294, -3.684e-5
-1.293, -3.376e-5
-1.292, -3.068e-5
-1.291, -3.068e-5
-1.290, -3.376e-5
-1.289, -3.992e-5
-1.288, -4.301e-5
-1.287, -4.301e-5
-1.286, -3.992e-5
-1.285, -3.684e-5
-1.284, -3.684e-5
-1.283, -3.992e-5
-1.282, -4.609e-5
-1.281, -4.917e-5
-1.280, -4.917e-5
-1.279, -4.301e-5
-1.278, -3.992e-5
-1.277, -4.301e-5
-1.276, -4.917e-5
-1.275, -5.226e-5
-1.274, -5.226e-5
-1.273, -5.226e-5
-1.272, -4.609e-5
-1.271, -4.609e-5
-1.270, -4.917e-5
-1.269, -5.534e-5
-1.268, -5.842e-5
-1.267, -5.842e-5
-1.266, -5.534e-5
-1.265, -5.226e-5
-1.264, -5.226e-5
-1.263, -5.226e-5
-1.262, -5.842e-5
-1.261, -6.151e-5
-1.260, -6.151e-5
-1.259, -5.534e-5
-1.258, -5.226e-5
-1.257, -5.534e-5
-1.256, -5.842e-5
-1.255, -6.151e-5
-1.254, -6.459e-5
-1.253, -6.151e-5
-1.252, -5.842e-5
-1.251, -5.534e-5
-1.250, -5.842e-5
-1.249, -6.459e-5
-1.248, -6.767e-5
-1.247, -6.767e-5
-1.246, -6.459e-5
-1.245, -5.842e-5
-1.244, -6.151e-5
-1.243, -6.459e-5
-1.242, -6.767e-5
-1.241, -7.076e-5
-1.240, -6.767e-5
-1.239, -6.459e-5
-1.238, -6.151e-5
-1.237, -6.151e-5
-1.236, -6.767e-5
-1.235, -7.076e-5
-1.234, -7.076e-5
-1.233, -7.076e-5
-1.232, -6.459e-5
-1.231, -6.151e-5
-1.230, -6.459e-5
-1.229, -7.076e-5
-1.228, -7.692e-5
-1.227, -7.384e-5
-1.226, -7.076e-5
-1.225, -6.767e-5
-1.224, -6.767e-5
-1.223, -7.076e-5
-1.222, -7.384e-5
-1.221, -7.692e-5
-1.220, -7.692e-5
-1.219, -7.076e-5
-1.218, -6.459e-5
-1.217, -6.767e-5
-1.216, -7.076e-5
-1.215, -7.692e-5
-1.214, -7.692e-5
-1.213, -7.384e-5
-1.212, -7.076e-5
-1.211, -6.767e-5
-1.210, -7.076e-5
-1.209, -7.692e-5
-1.208, -8.000e-5
-1.207, -8.000e-5
-1.206, -7.384e-5
-1.205, -7.076e-5
-1.204, -7.076e-5
-1.203, -7.384e-5
-1.202, -8.000e-5
-1.201, -8.309e-5
-1.200, -8.000e-5
-1.199, -7.384e-5
-1.198, -7.076e-5
-1.197, -7.076e-5
-1.196, -7.692e-5
-1.195, -8.309e-5
-1.194, -8.309e-5
-1.193, -8.000e-5
-1.192, -7.384e-5
-1.191, -7.076e-5
-1.190, -7.692e-5
-1.189, -8.000e-5
-1.188, -8.617e-5
-1.187, -8.309e-5
-1.186, -7.692e-5
-1.185, -7.384e-5
-1.184, -7.384e-5
-1.183, -7.692e-5
-1.182, -8.309e-5
-1.181, -8.617e-5
-1.180, -8.309e-5
-1.179, -7.692e-5
-1.178, -7.384e-5
-1.177, -7.692e-5
-1.176, -8.000e-5
-1.175, -8.617e-5
-1.174, -8.617e-5
-1.173, -8.309e-5
-1.172, -7.692e-5
-1.171, -7.384e-5
-1.170, -7.692e-5
-1.169, -8.309e-5
-1.168, -8.925e-5
-1.167, -8.617e-5
-1.166, -8.309e-5
-1.165, -7.692e-5
-1.164, -8.000e-5
-1.163, -8.309e-5
-1.162, -8.617e-5
-1.161, -8.925e-5
-1.160, -8.617e-5
-1.159, -8.309e-5
-1.158, -7.692e-5
-1.157, -8.000e-5
-1.156, -8.617e-5
-1.155, -8.925e-5
-1.154, -8.925e-5
-1.153, -8.617e-5
-1.152, -8.309e-5
-1.151, -8.000e-5
-1.150, -8.309e-5
-1.149, -8.925e-5
-1.148, -9.234e-5
-1.147, -9.234e-5
-1.146, -8.617e-5
-1.145, -8.000e-5
-1.144, -8.309e-5
-1.143, -8.617e-5
-1.142, -9.234e-5
-1.141, -9.234e-5
-1.140, -9.234e-5
-1.139, -8.617e-5
-1.138, -8.309e-5
-1.137, -8.309e-5
-1.136, -8.925e-5
-1.135, -9.234e-5
-1.134, -9.234e-5
-1.133, -8.925e-5
-1.132, -8.617e-5
-1.131, -8.309e-5
-1.130, -8.309e-5
-1.129, -9.234e-5
-1.128, -9.542e-5
-1.127, -9.542e-5
-1.126, -8.925e-5
-1.125, -8.617e-5
-1.124, -8.617e-5
-1.123, -8.925e-5
-1.122, -9.542e-5
-1.121, -9.542e-5
-1.120, -9.542e-5
-1.119, -8.925e-5
-1.118, -8.617e-5
-1.117, -8.617e-5
-1.116, -9.234e-5
-1.115, -9.542e-5
-1.114, -9.542e-5
-1.113, -9.542e-5
-1.112, -8.925e-5
-1.111, -8.617e-5
-1.110, -8.925e-5
-1.109, -9.542e-5
-1.108, -1.016e-4
-1.107, -9.850e-5
-1.106, -9.234e-5
-1.105, -8.617e-5
-1.104, -8.925e-5
-1.103, -9.234e-5
-1.102, -9.850e-5
-1.101, -9.850e-5
-1.100, -9.850e-5
-1.099, -9.234e-5
-1.098, -8.925e-5
-1.097, -8.925e-5
-1.096, -9.542e-5
-1.095, -9.850e-5
-1.094, -1.016e-4
-1.093, -9.850e-5
-1.092, -9.234e-5
-1.091, -8.925e-5
-1.090, -9.234e-5
-1.089, -9.850e-5
-1.088, -1.016e-4
-1.087, -1.016e-4
-1.086, -9.542e-5
-1.085, -9.234e-5
-1.084, -9.234e-5
-1.083, -9.542e-5
-1.082, -9.850e-5
-1.081, -1.047e-4
-1.080, -1.016e-4
-1.079, -9.542e-5
-1.078, -9.234e-5
-1.077, -9.234e-5
-1.076, -9.850e-5
-1.075, -1.047e-4
-1.074, -1.016e-4
-1.073, -9.850e-5
-1.072, -9.542e-5
-1.071, -9.234e-5
-1.070, -9.234e-5
-1.069, -1.016e-4
-1.068, -1.047e-4
-1.067, -1.047e-4
-1.066, -9.850e-5
-1.065, -9.234e-5
-1.064, -9.234e-5
-1.063, -9.850e-5
-1.062, -1.016e-4
-1.061, -1.047e-4
-1.060, -1.047e-4
-1.059, -9.542e-5
-1.058, -9.542e-5
-1.057, -9.542e-5
-1.056, -1.016e-4
-1.055, -1.047e-4
-1.054, -1.047e-4
-1.053, -1.016e-4
-1.052, -9.542e-5
-1.051, -9.234e-5
-1.050, -9.542e-5
-1.049, -1.047e-4
-1.048, -1.078e-4
-1.047, -1.078e-4
-1.046, -1.016e-4
-1.045, -9.542e-5
-1.044, -9.542e-5
-1.043, -9.850e-5
-1.042, -1.047e-4
-1.041, -1.108e-4
-1.040, -1.047e-4
-1.039, -1.016e-4
-1.038, -9.542e-5
-1.037, -9.850e-5
-1.036, -1.047e-4
-1.035, -1.078e-4
-1.034, -1.078e-4
-1.033, -1.047e-4
-1.032, -9.850e-5
-1.031, -9.850e-5
-1.030, -9.850e-5
-1.029, -1.047e-4
-1.028, -1.108e-4
-1.027, -1.108e-4
-1.026, -1.047e-4
-1.025, -9.850e-5
-1.024, -1.016e-4
-1.023, -1.047e-4
-1.022, -1.078e-4
-1.021, -1.108e-4
-1.020, -1.108e-4
-1.019, -1.047e-4
-1.018, -9.850e-5
-1.017, -1.016e-4
-1.016, -1.047e-4
-1.015, -1.108e-4
-1.014, -1.108e-4
-1.013, -1.078e-4
-1.012, -1.016e-4
-1.011, -9.850e-5
-1.010, -1.016e-4
-1.009, -1.108e-4
-1.008, -1.139e-4
-1.007, -1.139e-4
-1.006, -1.078e-4
-1.005, -1.016e-4
-1.004, -1.016e-4
-1.003, -1.078e-4
-1.002, -1.108e-4
-1.001, -1.170e-4
