Potential V vs RHE, Current mA cm-2
0.05339999999999995,-0.03120853127502271
0.05239999999999995,-0.11098410147441214
0.051399999999999946,-0.17768773926304862
0.050399999999999945,-0.21758259791924262
0.049399999999999944,-0.24573535278655687
0.04839999999999994,-0.26738043567449193
0.04739999999999994,-0.2857716825727374
0.04639999999999994,-0.3011920357412663
0.04539999999999994,-0.3149147353499572
0.04439999999999994,-0.32750566591875596
0.04339999999999994,-0.3389648274476628
0.04239999999999994,-0.3497166333266371
0.04139999999999994,-0.3594781412957058
0.040399999999999936,-0.36909817813478807
0.039399999999999935,-0.3784352727138973
0.038399999999999934,-0.38763089616302
0.03739999999999993,-0.3959776928322238
0.03639999999999993,-0.4034756627215085
0.03539999999999993,-0.4111151037407797
0.03439999999999993,-0.4186130736300644
0.03339999999999993,-0.42596957238936256
0.03239999999999993,-0.4334675422786472
0.03139999999999993,-0.4405410987779724
0.030399999999999927,-0.4469072996273651
0.029399999999999926,-0.4544052695166497
0.028399999999999925,-0.4613373548859885
0.027399999999999924,-0.46798649799535413
0.026399999999999924,-0.47463564110471984
0.025399999999999923,-0.48114331308409897
0.024399999999999922,-0.4877924561934647
0.02339999999999992,-0.4944415993028303
0.02239999999999992,-0.501090742412196
0.02139999999999992,-0.5073154721316021
0.020399999999999918,-0.5135402018510082
0.019399999999999917,-0.5200478738303875
0.018399999999999916,-0.5268384880697398
0.017399999999999916,-0.5329217466591593
0.016399999999999915,-0.5394294186385385
0.015399999999999914,-0.5456541483579447
0.014399999999999913,-0.5520203492073373
0.013399999999999912,-0.5590939057066625
0.012399999999999911,-0.5658845199460147
0.01139999999999991,-0.5719677785354343
0.01039999999999991,-0.5786169216447999
0.009399999999999908,-0.5851245936241791
0.008399999999999908,-0.5920566789935179
0.007399999999999907,-0.5989887643628565
0.006399999999999906,-0.6054964363422356
0.005399999999999905,-0.6121455794516013
0.004399999999999904,-0.618794722560967
0.003399999999999903,-0.6257268079303058
0.002399999999999902,-0.6332247778195904
0.0013999999999999013,-0.6400153920589425
0.00039999999999990044,-0.6468060062982948
-0.0006000000000001005,-0.6540210339276065
-0.0016000000000001013,-0.6613775326869047
-0.0026000000000001022,-0.6685925603162164
-0.003600000000000103,-0.6758075879455281
-0.004600000000000104,-0.6830226155748397
-0.005600000000000105,-0.690944998854084
-0.006600000000000106,-0.6983014976133821
-0.007600000000000107,-0.7057994675026668
-0.008600000000000108,-0.713438908521938
-0.009600000000000108,-0.7207954072812361
-0.01060000000000011,-0.7288592616904669
-0.01160000000000011,-0.7369231160996975
-0.012600000000000111,-0.7458357972888473
-0.013600000000000112,-0.753899651698078
-0.014600000000000113,-0.7609732081974032
-0.015600000000000114,-0.7691785337366205
-0.016600000000000115,-0.7776668015358106
-0.017600000000000116,-0.7858721270750278
-0.018600000000000116,-0.7942189237442315
-0.019600000000000117,-0.8025657204134353
-0.020600000000000118,-0.8110539882126255
-0.02160000000000012,-0.8199666694017753
-0.02260000000000012,-0.828313466070979
-0.02360000000000012,-0.8370846761301421
-0.024600000000000122,-0.8459973573192919
-0.025600000000000123,-0.8546270962484687
-0.026600000000000124,-0.8639641908275778
-0.027600000000000124,-0.8731598142767006
-0.028600000000000125,-0.8823554377258234
-0.029600000000000126,-0.8918340034349193
-0.030600000000000127,-0.9007466846240689
-0.03160000000000013,-0.9103667214631512
-0.03260000000000013,-0.9202697005622062
-0.03360000000000013,-0.9297482662713021
-0.03460000000000002,-0.9395097742403707
-0.03560000000000002,-0.9489883399494666
-0.03660000000000002,-0.9588913190485219
-0.03760000000000002,-0.9695016537975096
-0.03860000000000002,-0.979687575156538
-0.039600000000000024,-0.9894490831256065
-0.040600000000000025,-0.9996350044846349
-0.041600000000000026,-1.010103868103636
-0.04260000000000003,-1.0205727317226374
-0.04360000000000003,-1.0311830664716253
-0.04460000000000003,-1.0416519300906264
-0.04560000000000003,-1.0525452070995875
-0.04660000000000003,-1.0632970129785617
-0.04760000000000003,-1.0740488188575361
-0.04860000000000003,-1.0850835669964831
-0.04960000000000003,-1.0961183151354303
-0.050600000000000034,-1.107294534404364
-0.051600000000000035,-1.1188951670632574
-0.052600000000000036,-1.1300713863321914
-0.053600000000000037,-1.1416720189910845
-0.05460000000000004,-1.1528482382600183
-0.05560000000000004,-1.1647318131788846
-0.05660000000000004,-1.176615388097751
-0.05760000000000004,-1.1879330784966713
-0.05860000000000004,-1.2000995956755107
-0.05960000000000004,-1.2121246417243634
-0.06060000000000004,-1.2240082166432298
-0.061600000000000044,-1.236740618342015
-0.06260000000000004,-1.2491900777808274
-0.06360000000000005,-1.2617810083496264
-0.06460000000000005,-1.274088996658452
-0.06560000000000005,-1.2861140427073048
-0.06660000000000005,-1.2989879155360766
-0.06760000000000005,-1.3115788461048754
-0.06860000000000005,-1.3244527189336472
-0.06960000000000005,-1.3374680628924058
-0.07060000000000005,-1.350200464591191
-0.07160000000000005,-1.3634987508099223
-0.07260000000000005,-1.3767970370286537
-0.07360000000000005,-1.389812380987412
-0.07460000000000006,-1.4032521383361298
-0.07560000000000006,-1.4175407224647667
-0.07660000000000006,-1.4302731241635522
-0.07760000000000006,-1.4444202371622026
-0.07860000000000006,-1.4585673501608527
-0.07960000000000006,-1.471299751859638
-0.08060000000000006,-1.4854468648582886
-0.08160000000000006,-1.499593977856939
-0.08260000000000006,-1.5137410908555893
-0.08360000000000006,-1.5278882038542394
-0.08460000000000006,-1.54203531685289
-0.08560000000000006,-1.5561824298515403
-0.08660000000000007,-1.5717442541500557
-0.08760000000000007,-1.585891367148706
-0.08860000000000007,-1.6000384801473564
-0.08960000000000007,-1.6156003044458718
-0.09060000000000007,-1.6297474174445223
-0.09160000000000007,-1.6453092417430377
-0.09260000000000007,-1.6594563547416883
-0.09360000000000007,-1.6750181790402037
-0.09460000000000007,-1.690580003338719
-0.09560000000000007,-1.7047271163373692
-0.09660000000000007,-1.7202889406358846
-0.09760000000000008,-1.7358507649344
-0.09860000000000008,-1.7514125892329155
-0.09960000000000008,-1.766974413531431
-0.10060000000000008,-1.7825362378299463
-0.10160000000000008,-1.7980980621284617
-0.10260000000000008,-1.813659886426977
-0.10360000000000008,-1.8306364220253575
-0.10460000000000008,-1.8461982463238729
-0.10560000000000008,-1.8617600706223882
-0.10660000000000008,-1.8773218949209036
-0.10760000000000008,-1.894298430519284
-0.10860000000000009,-1.9098602548177994
-0.10960000000000009,-1.92683679041618
-0.11060000000000009,-1.9438133260145605
-0.11160000000000009,-1.959375150313076
-0.11260000000000009,-1.9763516859114565
-0.11360000000000009,-1.993328221509837
-0.11460000000000009,-2.0103047571082175
-0.11560000000000009,-2.0272812927065975
-0.11660000000000009,-2.044257828304978
-0.1176000000000001,-2.0612343639033583
-0.1186000000000001,-2.0782108995017388
-0.1196000000000001,-2.095187435100119
-0.1206000000000001,-2.1121639706984996
-0.1216000000000001,-2.12914050629688
-0.1226000000000001,-2.1461170418952604
-0.1236000000000001,-2.1630935774936413
-0.1246000000000001,-2.1800701130920217
-0.1256000000000001,-2.1984613599902674
-0.1266000000000001,-2.215437895588648
-0.1276000000000001,-2.2338291424868926
-0.1286000000000001,-2.250805678085273
-0.1296000000000001,-2.2677822136836534
-0.1306000000000001,-2.286173460581899
-0.1316000000000001,-2.30314999618028
-0.1326000000000001,-2.321541243078525
-0.1336000000000001,-2.339932489976771
-0.1346000000000001,-2.3569090255751513
-0.1356000000000001,-2.3753002724733965
-0.1366000000000001,-2.3936915193716417
-0.1376000000000001,-2.4106680549700226
-0.1386000000000001,-2.4290593018682682
-0.1396000000000001,-2.4474505487665135
-0.1406000000000001,-2.465841795664759
-0.14160000000000011,-2.4842330425630044
-0.14260000000000012,-2.50262428946125
-0.14360000000000012,-2.5210155363594953
-0.14460000000000012,-2.539406783257741
-0.14560000000000012,-2.557798030155986
-0.14660000000000012,-2.576189277054232
-0.14760000000000012,-2.5945805239524775
-0.14860000000000012,-2.6129717708507227
-0.14960000000000012,-2.631363017748968
-0.15060000000000012,-2.6497542646472136
-0.15160000000000012,-2.6681455115454593
-0.15260000000000012,-2.6865367584437045
-0.15360000000000013,-2.7049280053419507
-0.15460000000000013,-2.7233192522401954
-0.15560000000000013,-2.741710499138441
-0.15660000000000013,-2.7601017460366863
-0.15760000000000013,-2.7799077042347973
-0.15860000000000013,-2.798298951133043
-0.15960000000000002,-2.8166901980312877
-0.16060000000000002,-2.8350814449295334
-0.16160000000000002,-2.8534726918277786
-0.16260000000000002,-2.8732786500258896
-0.16360000000000002,-2.8916698969241352
-0.16460000000000002,-2.9100611438223805
-0.16560000000000002,-2.9284523907206257
-0.16660000000000003,-2.9510877715184667
-0.16760000000000003,-2.9694790184167124
-0.16860000000000003,-2.9864555540150928
-0.16960000000000003,-3.004846800913338
-0.17060000000000003,-3.0232380478115832
-0.17160000000000003,-3.041629294709829
-0.17260000000000003,-3.0600205416080746
-0.17360000000000003,-3.07841178850632
-0.17460000000000003,-3.0968030354045655
-0.17560000000000003,-3.1151942823028107
-0.17660000000000003,-3.1335855292010564
-0.17760000000000004,-3.1519767760993016
-0.17860000000000004,-3.1703680229975473
-0.17960000000000004,-3.1887592698957925
-0.18060000000000004,-3.207150516794038
-0.18160000000000004,-3.225541763692284
-0.18260000000000004,-3.243933010590529
-0.18360000000000004,-3.2623242574887747
-0.18460000000000004,-3.279300793087155
-0.18560000000000004,-3.2976920399854004
-0.18660000000000004,-3.316083286883646
-0.18760000000000004,-3.3330598224820265
-0.18860000000000005,-3.351451069380272
-0.18960000000000005,-3.368427604978652
-0.19060000000000005,-3.386818851876898
-0.19160000000000005,-3.405210098775143
-0.19260000000000005,-3.4221866343735234
-0.19360000000000005,-3.439163169971904
-0.19460000000000005,-3.4575544168701495
-0.19560000000000005,-3.4745309524685304
-0.19660000000000005,-3.4915074880669104
-0.19760000000000005,-3.508484023665291
-0.19860000000000005,-3.525460559263671
-0.19960000000000006,-3.542437094862052
-0.20060000000000006,-3.559413630460432
-0.20160000000000006,-3.5749754547589476
-0.20260000000000006,-3.591951990357328
-0.20360000000000006,-3.608928525955709
-0.20460000000000006,-3.6259050615540893
-0.20560000000000006,-3.641466885852605
-0.20660000000000006,-3.65702871015112
-0.20760000000000006,-3.674005245749501
-0.20860000000000006,-3.6895670700480157
-0.20960000000000006,-3.7051288943465317
-0.21060000000000006,-3.7206907186450464
-0.21160000000000007,-3.7362525429435625
-0.21260000000000007,-3.751814367242077
-0.21360000000000007,-3.7673761915405932
-0.21460000000000007,-3.781523304539243
-0.21560000000000007,-3.7970851288377587
-0.21660000000000007,-3.811232241836409
-0.21760000000000007,-3.8267940661349247
-0.21860000000000007,-3.84235589043344
-0.21960000000000007,-3.855088292132225
-0.22060000000000007,-3.869235405130875
-0.22160000000000007,-3.8833825181295256
-0.22260000000000008,-3.896114919828311
-0.22360000000000008,-3.910262032826961
-0.22460000000000008,-3.922994434525747
-0.22560000000000008,-3.9371415475243974
-0.22660000000000008,-3.9498739492231825
-0.22760000000000008,-3.962606350921967
-0.22860000000000008,-3.975338752620753
-0.22960000000000008,-3.988071154319539
-0.23060000000000008,-3.999388844718459
-0.23160000000000008,-4.0121212464172435
-0.23260000000000008,-4.023438936816164
-0.23360000000000009,-4.03617133851495
-0.2346000000000001,-4.04748902891387
-0.2356000000000001,-4.0588067193127895
-0.2366000000000001,-4.070124409711711
-0.2376000000000001,-4.081442100110631
-0.2386000000000001,-4.09275979050955
-0.2396000000000001,-4.102662769608606
-0.2406000000000001,-4.113980460007527
-0.2416000000000001,-4.1238834391065815
-0.2426000000000001,-4.135201129505503
-0.2436000000000001,-4.145104108604558
-0.2446000000000001,-4.155007087703612
-0.2456000000000001,-4.164910066802668
-0.2466000000000001,-4.174813045901724
-0.2476000000000001,-4.1833013137009125
-0.2486000000000001,-4.193204292799969
-0.2496000000000001,-4.201692560599159
-0.2506000000000001,-4.211595539698214
-0.2516000000000001,-4.220083807497405
-0.2526000000000001,-4.2285720752965945
-0.2536000000000001,-4.238475054395651
-0.2546000000000001,-4.24696332219484
-0.2556000000000001,-4.25545158999403
-0.2566000000000001,-4.26393985779322
-0.2576000000000001,-4.272428125592412
-0.2586000000000001,-4.280916393391601
-0.2596000000000001,-4.289404661190791
-0.2606000000000001,-4.297892928989982
-0.2616000000000001,-4.304966485489307
-0.2626000000000001,-4.313454753288497
-0.2636000000000001,-4.321943021087687
-0.2646000000000001,-4.329016577587013
-0.2656000000000001,-4.337504845386203
-0.2666000000000001,-4.344578401885528
-0.2676000000000001,-4.353066669684718
-0.2686000000000001,-4.361554937483908
-0.2696000000000001,-4.370043205283098
-0.2706000000000001,-4.377116761782423
-0.2716000000000001,-4.385605029581614
-0.2726000000000001,-4.394093297380804
-0.2736000000000001,-4.401166853880129
-0.2746000000000001,-4.40965512167932
-0.2756000000000001,-4.416728678178644
-0.2766000000000001,-4.425216945977835
-0.2776000000000001,-4.433705213777024
-0.2786000000000001,-4.442193481576215
-0.2796000000000001,-4.450681749375406
-0.2806000000000001,-4.459170017174596
-0.28160000000000013,-4.467658284973785
-0.28260000000000013,-4.476146552772976
-0.28360000000000013,-4.4846348205721664
-0.2846,-4.493123088371357
-0.2856,-4.503026067470412
-0.2866,-4.511514335269602
-0.2876,-4.521417314368658
-0.2886,-4.531320293467712
-0.2896,-4.541223272566767
-0.2906,-4.551126251665823
-0.2916,-4.561029230764878
-0.2926,-4.570932209863933
-0.2936,-4.582249900262854
-0.29460000000000003,-4.592152879361908
-0.29560000000000003,-4.603470569760829
-0.29660000000000003,-4.613373548859885
-0.29760000000000003,-4.624691239258805
-0.29860000000000003,-4.63742364095759
-0.29960000000000003,-4.6487413313565105
-0.30060000000000003,-4.66005902175543
-0.30160000000000003,-4.672791423454216
-0.30260000000000004,-4.684109113853137
-0.30360000000000004,-4.696841515551922
-0.30460000000000004,-4.710988628550572
-0.30560000000000004,-4.722306318949492
-0.30660000000000004,-4.736453431948143
-0.30760000000000004,-4.750600544946793
-0.30860000000000004,-4.763332946645578
-0.30960000000000004,-4.77748005964423
-0.31060000000000004,-4.791627172642879
-0.31160000000000004,-4.807188996941395
-0.31260000000000004,-4.821336109940045
-0.31360000000000005,-4.835483222938696
-0.31460000000000005,-4.851045047237211
-0.31560000000000005,-4.866606871535726
-0.31660000000000005,-4.882168695834241
-0.31760000000000005,-4.899145231432622
-0.31860000000000005,-4.914707055731138
-0.31960000000000005,-4.933098302629383
-0.32060000000000005,-4.950074838227763
-0.32160000000000005,-4.965636662526279
-0.32260000000000005,-4.9826131981246595
-0.32360000000000005,-4.99958973372304
-0.32460000000000006,-5.017980980621284
-0.32560000000000006,-5.034957516219666
-0.32660000000000006,-5.053348763117911
-0.32760000000000006,-5.070325298716291
-0.32860000000000006,-5.088716545614537
-0.32960000000000006,-5.107107792512783
-0.33060000000000006,-5.125499039411029
-0.33160000000000006,-5.145304997609139
-0.33260000000000006,-5.163696244507384
-0.33360000000000006,-5.183502202705494
-0.33460000000000006,-5.201893449603739
-0.33560000000000006,-5.221699407801851
-0.33660000000000007,-5.241505365999961
-0.33760000000000007,-5.261311324198071
-0.33860000000000007,-5.281117282396182
-0.33960000000000007,-5.300923240594293
-0.34060000000000007,-5.320729198792402
-0.34160000000000007,-5.341949868290378
-0.34260000000000007,-5.361755826488489
-0.34360000000000007,-5.382976495986464
-0.3446000000000001,-5.4027824541845755
-0.3456000000000001,-5.42400312368255
-0.3466000000000001,-5.445223793180525
-0.34759999999999996,-5.465029751378637
-0.3486000000000001,-5.486250420876612
-0.34959999999999997,-5.507471090374587
-0.3506000000000001,-5.528691759872564
-0.35159999999999997,-5.549912429370539
-0.3526000000000001,-5.571133098868514
-0.35359999999999997,-5.59235376836649
-0.3546000000000001,-5.613574437864465
-0.35559999999999997,-5.634795107362441
-0.3566000000000001,-5.656015776860417
-0.3576,-5.677236446358393
-0.3586000000000001,-5.699871827156233
-0.3596,-5.721092496654209
-0.3606000000000001,-5.742313166152184
-0.3616,-5.763533835650159
-0.3626000000000001,-5.784754505148135
-0.3636,-5.807389885945976
-0.3646000000000001,-5.828610555443951
-0.3656,-5.849831224941926
-0.3666000000000001,-5.871051894439902
-0.3676,-5.892272563937878
-0.3686000000000001,-5.914907944735719
-0.3696,-5.936128614233694
-0.3706000000000001,-5.957349283731669
-0.3716,-5.97998466452951
-0.3726000000000001,-6.001205334027486
-0.3736,-6.022426003525461
-0.3746000000000001,-6.043646673023436
-0.3756,-6.064867342521412
-0.3766000000000001,-6.086088012019388
-0.3776,-6.107308681517363
-0.3786000000000001,-6.128529351015339
-0.3796,-6.149750020513314
-0.3806000000000001,-6.169555978711425
-0.3816,-6.1907766482094
-0.3826000000000001,-6.211997317707376
-0.3836,-6.233217987205351
-0.3846000000000001,-6.254438656703328
-0.3856,-6.274244614901438
-0.3866000000000001,-6.2954652843994126
-0.3876,-6.3152712425975235
-0.3886000000000001,-6.335077200795634
-0.3896,-6.35629787029361
-0.3906000000000001,-6.377518539791585
-0.3916,-6.397324497989696
-0.3926000000000001,-6.417130456187806
-0.3936,-6.436936414385917
-0.3946000000000001,-6.458157083883892
-0.3956,-6.477963042082004
-0.3966000000000001,-6.497769000280114
-0.3976,-6.517574958478224
-0.3986000000000001,-6.537380916676335
-0.3996,-6.557186874874445
-0.4006000000000001,-6.5769928330725556
-0.4016,-6.5967987912706665
-0.4026000000000001,-6.616604749468776
-0.4036,-6.634995996367022
-0.4046000000000001,-6.654801954565133
-0.4056,-6.673193201463377
-0.40660000000000013,-6.692999159661489
-0.4076,-6.711390406559734
-0.40860000000000013,-6.731196364757845
-0.4096,-6.74958761165609
-0.41060000000000013,-6.7693935698542
-0.4116,-6.7877848167524455
-0.41260000000000013,-6.806176063650692
-0.4136,-6.825982021848802
-0.41460000000000014,-6.842958557447183
-0.4156,-6.862764515645292
-0.41660000000000014,-6.881155762543538
-0.4176,-6.899547009441784
-0.41860000000000014,-6.917938256340029
-0.41960000000000003,-6.936329503238276
-0.42060000000000014,-6.953306038836654
-0.42160000000000003,-6.971697285734901
-0.42260000000000014,-6.9915032439330105
-0.42360000000000003,-7.009894490831256
-0.42460000000000014,-7.026871026429637
-0.42560000000000003,-7.045262273327882
-0.42660000000000015,-7.062238808926263
-0.42760000000000004,-7.080630055824508
-0.42860000000000015,-7.099021302722755
-0.42960000000000004,-7.115997838321134
-0.43060000000000015,-7.132974373919516
-0.43160000000000004,-7.15136562081776
-0.43260000000000015,-7.1683421564161405
-0.43360000000000004,-7.185318692014522
-0.43460000000000015,-7.203709938912767
-0.43560000000000004,-7.220686474511147
-0.43660000000000015,-7.2390777214093935
-0.43760000000000004,-7.256054257007774
-0.43860000000000016,-7.2730307926061535
-0.43960000000000005,-7.290007328204534
-0.44060000000000016,-7.308398575102779
-0.44160000000000005,-7.32537511070116
-0.44260000000000016,-7.342351646299541
-0.44360000000000005,-7.35932818189792
-0.44460000000000016,-7.376304717496302
-0.44560000000000005,-7.394695964394547
-0.44660000000000016,-7.410257788693063
-0.44760000000000005,-7.428649035591308
-0.44860000000000017,-7.445625571189688
-0.44960000000000006,-7.462602106788069
-0.45060000000000017,-7.479578642386449
-0.45160000000000006,-7.49655517798483
-0.45260000000000017,-7.51353171358321
-0.45360000000000006,-7.53050824918159
-0.45460000000000017,-7.5474847847799715
