Aug. 29, 2024   02:43:13
Cyclic Voltammetry
File: c:/users/guazh/data/20240813_batch_181_500/2024-08-25-exp211\exp211-2024-08-29t02_21_50-arkoh\exp211_cv_sr_700mvs_efin_-1800mv.bin
Data Source:  Experiment
Instrument Model:  CHI760E
Header: CV ran at 700 mVs
Note: 

Init E (V) = -1
High E (V) = -1
Low E (V) = -1.8
Final E (V) = -1
Init P/N = N
Scan Rate (V/s) = 0.7
Segment = 3
Sample Interval (V) = 0.001
Quiet Time (sec) = 2
Sensitivity (A/V) = 0.01
Comp R (ohm) = 1.8

Results:

Channel 1:
Segment 1:

Segment 2:

Segment 3:

Potential/V, Current/A

-1.000, 9.405e-6
-1.001, 9.405e-6
-1.002, 9.405e-6
-1.003, 9.405e-6
-1.004, 9.405e-6
-1.005, 9.405e-6
-1.006, 9.405e-6
-1.007, 9.405e-6
-1.008, 9.405e-6
-1.009, 9.405e-6
-1.010, 9.405e-6
-1.011, 9.405e-6
-1.012, 1.249e-5
-1.013, 9.405e-6
-1.014, 9.405e-6
-1.015, 9.405e-6
-1.016, 1.249e-5
-1.017, 1.249e-5
-1.018, 1.249e-5
-1.019, 9.405e-6
-1.020, 9.405e-6
-1.021, 1.249e-5
-1.022, 1.249e-5
-1.023, 1.249e-5
-1.024, 9.405e-6
-1.025, 1.249e-5
-1.026, 1.249e-5
-1.027, 1.249e-5
-1.028, 1.249e-5
-1.029, 1.249e-5
-1.030, 1.249e-5
-1.031, 1.249e-5
-1.032, 1.249e-5
-1.033, 1.249e-5
-1.034, 1.249e-5
-1.035, 1.249e-5
-1.036, 1.249e-5
-1.037, 1.249e-5
-1.038, 1.249e-5
-1.039, 1.249e-5
-1.040, 1.249e-5
-1.041, 1.249e-5
-1.042, 1.249e-5
-1.043, 1.249e-5
-1.044, 1.249e-5
-1.045, 1.249e-5
-1.046, 1.249e-5
-1.047, 1.249e-5
-1.048, 1.249e-5
-1.049, 1.249e-5
-1.050, 1.557e-5
-1.051, 1.249e-5
-1.052, 1.249e-5
-1.053, 1.249e-5
-1.054, 1.249e-5
-1.055, 1.557e-5
-1.056, 1.249e-5
-1.057, 1.557e-5
-1.058, 1.249e-5
-1.059, 1.557e-5
-1.060, 1.557e-5
-1.061, 1.557e-5
-1.062, 1.557e-5
-1.063, 1.557e-5
-1.064, 1.557e-5
-1.065, 1.557e-5
-1.066, 1.557e-5
-1.067, 1.557e-5
-1.068, 1.557e-5
-1.069, 1.557e-5
-1.070, 1.557e-5
-1.071, 1.557e-5
-1.072, 1.557e-5
-1.073, 1.557e-5
-1.074, 1.557e-5
-1.075, 1.557e-5
-1.076, 1.557e-5
-1.077, 1.557e-5
-1.078, 1.557e-5
-1.079, 1.557e-5
-1.080, 1.557e-5
-1.081, 1.557e-5
-1.082, 1.557e-5
-1.083, 1.557e-5
-1.084, 1.557e-5
-1.085, 1.557e-5
-1.086, 1.557e-5
-1.087, 1.865e-5
-1.088, 1.557e-5
-1.089, 1.557e-5
-1.090, 1.557e-5
-1.091, 1.557e-5
-1.092, 1.865e-5
-1.093, 1.865e-5
-1.094, 1.865e-5
-1.095, 1.557e-5
-1.096, 1.557e-5
-1.097, 1.557e-5
-1.098, 1.865e-5
-1.099, 1.865e-5
-1.100, 1.865e-5
-1.101, 1.865e-5
-1.102, 1.865e-5
-1.103, 1.865e-5
-1.104, 1.865e-5
-1.105, 1.865e-5
-1.106, 1.865e-5
-1.107, 1.865e-5
-1.108, 1.865e-5
-1.109, 1.865e-5
-1.110, 1.865e-5
-1.111, 1.865e-5
-1.112, 1.865e-5
-1.113, 1.865e-5
-1.114, 1.865e-5
-1.115, 1.865e-5
-1.116, 1.865e-5
-1.117, 1.865e-5
-1.118, 1.865e-5
-1.119, 1.865e-5
-1.120, 1.865e-5
-1.121, 1.865e-5
-1.122, 1.865e-5
-1.123, 1.865e-5
-1.124, 1.865e-5
-1.125, 1.865e-5
-1.126, 1.865e-5
-1.127, 2.174e-5
-1.128, 1.865e-5
-1.129, 1.865e-5
-1.130, 2.174e-5
-1.131, 1.865e-5
-1.132, 2.174e-5
-1.133, 1.865e-5
-1.134, 2.174e-5
-1.135, 1.865e-5
-1.136, 2.174e-5
-1.137, 1.865e-5
-1.138, 2.174e-5
-1.139, 1.865e-5
-1.140, 2.174e-5
-1.141, 2.174e-5
-1.142, 2.174e-5
-1.143, 2.174e-5
-1.144, 2.174e-5
-1.145, 2.174e-5
-1.146, 2.174e-5
-1.147, 2.174e-5
-1.148, 2.174e-5
-1.149, 2.174e-5
-1.150, 2.174e-5
-1.151, 2.174e-5
-1.152, 2.174e-5
-1.153, 2.174e-5
-1.154, 2.174e-5
-1.155, 2.174e-5
-1.156, 2.174e-5
-1.157, 2.174e-5
-1.158, 2.174e-5
-1.159, 2.174e-5
-1.160, 2.174e-5
-1.161, 2.174e-5
-1.162, 2.174e-5
-1.163, 2.174e-5
-1.164, 2.174e-5
-1.165, 2.174e-5
-1.166, 2.174e-5
-1.167, 2.174e-5
-1.168, 2.174e-5
-1.169, 2.174e-5
-1.170, 2.174e-5
-1.171, 2.174e-5
-1.172, 2.174e-5
-1.173, 2.174e-5
-1.174, 2.174e-5
-1.175, 2.482e-5
-1.176, 2.482e-5
-1.177, 2.174e-5
-1.178, 2.482e-5
-1.179, 2.174e-5
-1.180, 2.482e-5
-1.181, 2.482e-5
-1.182, 2.482e-5
-1.183, 2.482e-5
-1.184, 2.482e-5
-1.185, 2.482e-5
-1.186, 2.482e-5
-1.187, 2.482e-5
-1.188, 2.482e-5
-1.189, 2.482e-5
-1.190, 2.482e-5
-1.191, 2.482e-5
-1.192, 2.482e-5
-1.193, 2.482e-5
-1.194, 2.482e-5
-1.195, 2.482e-5
-1.196, 2.482e-5
-1.197, 2.482e-5
-1.198, 2.482e-5
-1.199, 2.482e-5
-1.200, 2.482e-5
-1.201, 2.482e-5
-1.202, 2.482e-5
-1.203, 2.790e-5
-1.204, 2.482e-5
-1.205, 2.482e-5
-1.206, 2.482e-5
-1.207, 2.482e-5
-1.208, 2.482e-5
-1.209, 2.790e-5
-1.210, 2.482e-5
-1.211, 2.482e-5
-1.212, 2.790e-5
-1.213, 2.790e-5
-1.214, 2.790e-5
-1.215, 2.790e-5
-1.216, 2.790e-5
-1.217, 2.482e-5
-1.218, 2.790e-5
-1.219, 2.790e-5
-1.220, 2.790e-5
-1.221, 2.790e-5
-1.222, 2.790e-5
-1.223, 2.790e-5
-1.224, 2.790e-5
-1.225, 2.790e-5
-1.226, 2.790e-5
-1.227, 2.790e-5
-1.228, 2.790e-5
-1.229, 2.790e-5
-1.230, 2.790e-5
-1.231, 2.790e-5
-1.232, 2.790e-5
-1.233, 2.790e-5
-1.234, 2.790e-5
-1.235, 2.790e-5
-1.236, 2.790e-5
-1.237, 2.790e-5
-1.238, 2.790e-5
-1.239, 3.099e-5
-1.240, 2.790e-5
-1.241, 3.099e-5
-1.242, 2.790e-5
-1.243, 2.790e-5
-1.244, 2.790e-5
-1.245, 2.790e-5
-1.246, 3.099e-5
-1.247, 2.790e-5
-1.248, 3.099e-5
-1.249, 3.099e-5
-1.250, 3.099e-5
-1.251, 3.099e-5
-1.252, 2.790e-5
-1.253, 3.099e-5
-1.254, 3.099e-5
-1.255, 3.099e-5
-1.256, 3.099e-5
-1.257, 3.099e-5
-1.258, 3.099e-5
-1.259, 3.099e-5
-1.260, 2.790e-5
-1.261, 3.099e-5
-1.262, 3.099e-5
-1.263, 3.099e-5
-1.264, 3.099e-5
-1.265, 3.099e-5
-1.266, 3.099e-5
-1.267, 3.099e-5
-1.268, 3.099e-5
-1.269, 3.099e-5
-1.270, 3.099e-5
-1.271, 3.099e-5
-1.272, 3.099e-5
-1.273, 3.099e-5
-1.274, 3.099e-5
-1.275, 3.099e-5
-1.276, 3.099e-5
-1.277, 3.099e-5
-1.278, 3.099e-5
-1.279, 3.407e-5
-1.280, 3.099e-5
-1.281, 3.099e-5
-1.282, 3.407e-5
-1.283, 3.099e-5
-1.284, 3.407e-5
-1.285, 3.407e-5
-1.286, 3.407e-5
-1.287, 3.099e-5
-1.288, 3.099e-5
-1.289, 3.407e-5
-1.290, 3.099e-5
-1.291, 3.407e-5
-1.292, 3.407e-5
-1.293, 3.099e-5
-1.294, 3.407e-5
-1.295, 3.407e-5
-1.296, 3.407e-5
-1.297, 3.407e-5
-1.298, 3.407e-5
-1.299, 3.407e-5
-1.300, 3.407e-5
-1.301, 3.407e-5
-1.302, 3.407e-5
-1.303, 3.407e-5
-1.304, 3.407e-5
-1.305, 3.407e-5
-1.306, 3.407e-5
-1.307, 3.407e-5
-1.308, 3.407e-5
-1.309, 3.407e-5
-1.310, 3.407e-5
-1.311, 3.407e-5
-1.312, 3.407e-5
-1.313, 3.407e-5
-1.314, 3.407e-5
-1.315, 3.407e-5
-1.316, 3.407e-5
-1.317, 3.407e-5
-1.318, 3.407e-5
-1.319, 3.407e-5
-1.320, 3.407e-5
-1.321, 3.407e-5
-1.322, 3.407e-5
-1.323, 3.407e-5
-1.324, 3.407e-5
-1.325, 3.407e-5
-1.326, 3.407e-5
-1.327, 3.407e-5
-1.328, 3.407e-5
-1.329, 3.407e-5
-1.330, 3.407e-5
-1.331, 3.407e-5
-1.332, 3.715e-5
-1.333, 3.407e-5
-1.334, 3.407e-5
-1.335, 3.407e-5
-1.336, 3.407e-5
-1.337, 3.407e-5
-1.338, 3.407e-5
-1.339, 3.715e-5
-1.340, 3.715e-5
-1.341, 3.715e-5
-1.342, 3.407e-5
-1.343, 3.715e-5
-1.344, 3.715e-5
-1.345, 3.715e-5
-1.346, 3.715e-5
-1.347, 3.407e-5
-1.348, 3.715e-5
-1.349, 3.715e-5
-1.350, 3.715e-5
-1.351, 3.715e-5
-1.352, 3.715e-5
-1.353, 3.407e-5
-1.354, 3.407e-5
-1.355, 3.715e-5
-1.356, 3.715e-5
-1.357, 3.715e-5
-1.358, 3.715e-5
-1.359, 3.715e-5
-1.360, 3.407e-5
-1.361, 3.715e-5
-1.362, 3.715e-5
-1.363, 3.407e-5
-1.364, 3.715e-5
-1.365, 3.715e-5
-1.366, 3.715e-5
-1.367, 3.715e-5
-1.368, 3.715e-5
-1.369, 3.715e-5
-1.370, 3.715e-5
-1.371, 3.715e-5
-1.372, 3.715e-5
-1.373, 3.715e-5
-1.374, 3.715e-5
-1.375, 3.715e-5
-1.376, 3.715e-5
-1.377, 3.715e-5
-1.378, 3.715e-5
-1.379, 3.715e-5
-1.380, 3.715e-5
-1.381, 3.715e-5
-1.382, 3.715e-5
-1.383, 3.715e-5
-1.384, 4.024e-5
-1.385, 3.715e-5
-1.386, 3.715e-5
-1.387, 3.715e-5
-1.388, 3.715e-5
-1.389, 3.715e-5
-1.390, 3.715e-5
-1.391, 3.715e-5
-1.392, 3.715e-5
-1.393, 4.024e-5
-1.394, 3.715e-5
-1.395, 3.715e-5
-1.396, 3.715e-5
-1.397, 3.715e-5
-1.398, 3.715e-5
-1.399, 3.715e-5
-1.400, 3.715e-5
-1.401, 3.715e-5
-1.402, 4.024e-5
-1.403, 3.715e-5
-1.404, 4.024e-5
-1.405, 4.024e-5
-1.406, 3.715e-5
-1.407, 4.024e-5
-1.408, 3.715e-5
-1.409, 4.024e-5
-1.410, 4.024e-5
-1.411, 4.024e-5
-1.412, 4.024e-5
-1.413, 4.024e-5
-1.414, 4.024e-5
-1.415, 4.024e-5
-1.416, 4.024e-5
-1.417, 4.024e-5
-1.418, 4.024e-5
-1.419, 4.024e-5
-1.420, 4.024e-5
-1.421, 4.024e-5
-1.422, 4.024e-5
-1.423, 4.024e-5
-1.424, 4.024e-5
-1.425, 4.024e-5
-1.426, 4.024e-5
-1.427, 4.024e-5
-1.428, 4.024e-5
-1.429, 4.024e-5
-1.430, 4.024e-5
-1.431, 4.024e-5
-1.432, 4.024e-5
-1.433, 4.024e-5
-1.434, 4.024e-5
-1.435, 4.024e-5
-1.436, 4.024e-5
-1.437, 4.332e-5
-1.438, 4.024e-5
-1.439, 4.024e-5
-1.440, 4.024e-5
-1.441, 4.332e-5
-1.442, 4.332e-5
-1.443, 4.332e-5
-1.444, 4.332e-5
-1.445, 4.024e-5
-1.446, 4.332e-5
-1.447, 4.332e-5
-1.448, 4.332e-5
-1.449, 4.332e-5
-1.450, 4.332e-5
-1.451, 4.024e-5
-1.452, 4.332e-5
-1.453, 4.332e-5
-1.454, 4.332e-5
-1.455, 4.332e-5
-1.456, 4.332e-5
-1.457, 4.332e-5
-1.458, 4.332e-5
-1.459, 4.332e-5
-1.460, 4.332e-5
-1.461, 4.332e-5
-1.462, 4.332e-5
-1.463, 4.332e-5
-1.464, 4.332e-5
-1.465, 4.332e-5
-1.466, 4.332e-5
-1.467, 4.332e-5
-1.468, 4.332e-5
-1.469, 4.332e-5
-1.470, 4.332e-5
-1.471, 4.640e-5
-1.472, 4.332e-5
-1.473, 4.640e-5
-1.474, 4.640e-5
-1.475, 4.640e-5
-1.476, 4.640e-5
-1.477, 4.640e-5
-1.478, 4.640e-5
-1.479, 4.640e-5
-1.480, 4.640e-5
-1.481, 4.640e-5
-1.482, 4.640e-5
-1.483, 4.640e-5
-1.484, 4.640e-5
-1.485, 4.640e-5
-1.486, 4.949e-5
-1.487, 4.640e-5
-1.488, 4.640e-5
-1.489, 4.640e-5
-1.490, 4.640e-5
-1.491, 4.949e-5
-1.492, 4.949e-5
-1.493, 4.949e-5
-1.494, 4.949e-5
-1.495, 4.949e-5
-1.496, 4.949e-5
-1.497, 4.949e-5
-1.498, 4.949e-5
-1.499, 4.949e-5
-1.500, 4.949e-5
-1.501, 4.949e-5
-1.502, 4.949e-5
-1.503, 4.949e-5
-1.504, 4.949e-5
-1.505, 4.949e-5
-1.506, 4.949e-5
-1.507, 4.949e-5
-1.508, 4.949e-5
-1.509, 5.257e-5
-1.510, 4.949e-5
-1.511, 5.257e-5
-1.512, 5.257e-5
-1.513, 5.257e-5
-1.514, 5.257e-5
-1.515, 5.257e-5
-1.516, 5.257e-5
-1.517, 5.257e-5
-1.518, 5.257e-5
-1.519, 5.257e-5
-1.520, 5.257e-5
-1.521, 5.257e-5
-1.522, 5.565e-5
-1.523, 5.565e-5
-1.524, 5.565e-5
-1.525, 5.565e-5
-1.526, 5.565e-5
-1.527, 5.565e-5
-1.528, 5.565e-5
-1.529, 5.565e-5
-1.530, 5.873e-5
-1.531, 5.565e-5
-1.532, 5.873e-5
-1.533, 5.873e-5
-1.534, 5.873e-5
-1.535, 5.873e-5
-1.536, 5.873e-5
-1.537, 5.873e-5
-1.538, 5.873e-5
-1.539, 5.873e-5
-1.540, 5.873e-5
-1.541, 6.182e-5
-1.542, 6.182e-5
-1.543, 6.182e-5
-1.544, 6.182e-5
-1.545, 6.182e-5
-1.546, 6.182e-5
-1.547, 6.182e-5
-1.548, 6.490e-5
-1.549, 6.182e-5
-1.550, 6.490e-5
-1.551, 6.490e-5
-1.552, 6.490e-5
-1.553, 6.490e-5
-1.554, 6.490e-5
-1.555, 6.490e-5
-1.556, 6.490e-5
-1.557, 6.798e-5
-1.558, 6.798e-5
-1.559, 6.798e-5
-1.560, 6.798e-5
-1.561, 6.798e-5
-1.562, 7.107e-5
-1.563, 7.107e-5
-1.564, 7.107e-5
-1.565, 7.107e-5
-1.566, 7.107e-5
-1.567, 7.107e-5
-1.568, 7.415e-5
-1.569, 7.415e-5
-1.570, 7.415e-5
-1.571, 7.415e-5
-1.572, 7.415e-5
-1.573, 7.723e-5
-1.574, 7.723e-5
-1.575, 7.723e-5
-1.576, 7.723e-5
-1.577, 8.032e-5
-1.578, 8.032e-5
-1.579, 8.032e-5
-1.580, 8.032e-5
-1.581, 8.032e-5
-1.582, 8.340e-5
-1.583, 8.340e-5
-1.584, 8.648e-5
-1.585, 8.648e-5
-1.586, 8.648e-5
-1.587, 8.648e-5
-1.588, 8.957e-5
-1.589, 8.957e-5
-1.590, 8.957e-5
-1.591, 9.265e-5
-1.592, 9.265e-5
-1.593, 9.265e-5
-1.594, 9.265e-5
-1.595, 9.573e-5
-1.596, 9.573e-5
-1.597, 9.882e-5
-1.598, 9.882e-5
-1.599, 9.882e-5
-1.600, 1.019e-4
-1.601, 1.019e-4
-1.602, 1.019e-4
-1.603, 1.050e-4
-1.604, 1.050e-4
-1.605, 1.081e-4
-1.606, 1.081e-4
-1.607, 1.111e-4
-1.608, 1.111e-4
-1.609, 1.111e-4
-1.610, 1.142e-4
-1.611, 1.142e-4
-1.612, 1.173e-4
-1.613, 1.173e-4
-1.614, 1.204e-4
-1.615, 1.204e-4
-1.616, 1.235e-4
-1.617, 1.235e-4
-1.618, 1.266e-4
-1.619, 1.266e-4
-1.620, 1.296e-4
-1.621, 1.296e-4
-1.622, 1.327e-4
-1.623, 1.358e-4
-1.624, 1.358e-4
-1.625, 1.389e-4
-1.626, 1.389e-4
-1.627, 1.420e-4
-1.628, 1.451e-4
-1.629, 1.451e-4
-1.630, 1.481e-4
-1.631, 1.481e-4
-1.632, 1.543e-4
-1.633, 1.543e-4
-1.634, 1.574e-4
-1.635, 1.605e-4
-1.636, 1.605e-4
-1.637, 1.636e-4
-1.638, 1.666e-4
-1.639, 1.697e-4
-1.640, 1.728e-4
-1.641, 1.759e-4
-1.642, 1.759e-4
-1.643, 1.821e-4
-1.644, 1.851e-4
-1.645, 1.851e-4
-1.646, 1.913e-4
-1.647, 1.913e-4
-1.648, 1.944e-4
-1.649, 1.975e-4
-1.650, 2.036e-4
-1.651, 2.036e-4
-1.652, 2.098e-4
-1.653, 2.129e-4
-1.654, 2.129e-4
-1.655, 2.191e-4
-1.656, 2.221e-4
-1.657, 2.252e-4
-1.658, 2.283e-4
-1.659, 2.345e-4
-1.660, 2.376e-4
-1.661, 2.406e-4
-1.662, 2.468e-4
-1.663, 2.499e-4
-1.664, 2.530e-4
-1.665, 2.561e-4
-1.666, 2.622e-4
-1.667, 2.653e-4
-1.668, 2.715e-4
-1.669, 2.776e-4
-1.670, 2.807e-4
-1.671, 2.838e-4
-1.672, 2.900e-4
-1.673, 2.961e-4
-1.674, 2.992e-4
-1.675, 3.054e-4
-1.676, 3.115e-4
-1.677, 3.177e-4
-1.678, 3.239e-4
-1.679, 3.300e-4
-1.680, 3.362e-4
-1.681, 3.393e-4
-1.682, 3.485e-4
-1.683, 3.547e-4
-1.684, 3.609e-4
-1.685, 3.670e-4
-1.686, 3.732e-4
-1.687, 3.794e-4
-1.688, 3.855e-4
-1.689, 3.948e-4
-1.690, 4.010e-4
-1.691, 4.071e-4
-1.692, 4.133e-4
-1.693, 4.225e-4
-1.694, 4.318e-4
-1.695, 4.380e-4
-1.696, 4.472e-4
-1.697, 4.565e-4
-1.698, 4.657e-4
-1.699, 4.750e-4
-1.700, 4.842e-4
-1.701, 4.904e-4
-1.702, 4.996e-4
-1.703, 5.089e-4
-1.704, 5.181e-4
-1.705, 5.305e-4
-1.706, 5.397e-4
-1.707, 5.489e-4
-1.708, 5.582e-4
-1.709, 5.674e-4
-1.710, 5.798e-4
-1.711, 5.890e-4
-1.712, 5.983e-4
-1.713, 6.106e-4
-1.714, 6.229e-4
-1.715, 6.322e-4
-1.716, 6.445e-4
-1.717, 6.569e-4
-1.718, 6.692e-4
-1.719, 6.815e-4
-1.720, 6.939e-4
-1.721, 7.062e-4
-1.722, 7.185e-4
-1.723, 7.339e-4
-1.724, 7.463e-4
-1.725, 7.586e-4
-1.726, 7.740e-4
-1.727, 7.894e-4
-1.728, 8.048e-4
-1.729, 8.172e-4
-1.730, 8.326e-4
-1.731, 8.480e-4
-1.732, 8.665e-4
-1.733, 8.819e-4
-1.734, 8.973e-4
-1.735, 9.128e-4
-1.736, 9.282e-4
-1.737, 9.467e-4
-1.738, 9.652e-4
-1.739, 9.837e-4
-1.740, 1.002e-3
-1.741, 1.018e-3
-1.742, 1.039e-3
-1.743, 1.061e-3
-1.744, 1.079e-3
-1.745, 1.101e-3
-1.746, 1.116e-3
-1.747, 1.141e-3
-1.748, 1.156e-3
-1.749, 1.178e-3
-1.750, 1.199e-3
-1.751, 1.218e-3
-1.752, 1.240e-3
-1.753, 1.264e-3
-1.754, 1.289e-3
-1.755, 1.310e-3
-1.756, 1.332e-3
-1.757, 1.357e-3
-1.758, 1.384e-3
-1.759, 1.409e-3
-1.760, 1.434e-3
-1.761, 1.455e-3
-1.762, 1.480e-3
-1.763, 1.508e-3
-1.764, 1.532e-3
-1.765, 1.560e-3
-1.766, 1.588e-3
-1.767, 1.616e-3
-1.768, 1.643e-3
-1.769, 1.668e-3
-1.770, 1.699e-3
-1.771, 1.733e-3
-1.772, 1.758e-3
-1.773, 1.785e-3
-1.774, 1.816e-3
-1.775, 1.847e-3
-1.776, 1.878e-3
-1.777, 1.909e-3
-1.778, 1.939e-3
-1.779, 1.970e-3
-1.780, 2.004e-3
-1.781, 2.035e-3
-1.782, 2.069e-3
-1.783, 2.100e-3
-1.784, 2.137e-3
-1.785, 2.171e-3
-1.786, 2.205e-3
-1.787, 2.238e-3
-1.788, 2.275e-3
-1.789, 2.309e-3
-1.790, 2.346e-3
-1.791, 2.383e-3
-1.792, 2.420e-3
-1.793, 2.460e-3
-1.794, 2.497e-3
-1.795, 2.534e-3
-1.796, 2.575e-3
-1.797, 2.612e-3
-1.798, 2.652e-3
-1.799, 2.692e-3
-1.800, 2.710e-3
-1.799, 2.698e-3
-1.798, 2.682e-3
-1.797, 2.670e-3
-1.796, 2.652e-3
-1.795, 2.633e-3
-1.794, 2.612e-3
-1.793, 2.593e-3
-1.792, 2.575e-3
-1.791, 2.556e-3
-1.790, 2.534e-3
-1.789, 2.513e-3
-1.788, 2.491e-3
-1.787, 2.470e-3
-1.786, 2.448e-3
-1.785, 2.427e-3
-1.784, 2.402e-3
-1.783, 2.380e-3
-1.782, 2.356e-3
-1.781, 2.334e-3
-1.780, 2.309e-3
-1.779, 2.288e-3
-1.778, 2.266e-3
-1.777, 2.238e-3
-1.776, 2.217e-3
-1.775, 2.195e-3
-1.774, 2.174e-3
-1.773, 2.152e-3
-1.772, 2.128e-3
-1.771, 2.106e-3
-1.770, 2.081e-3
-1.769, 2.060e-3
-1.768, 2.038e-3
-1.767, 2.017e-3
-1.766, 1.992e-3
-1.765, 1.970e-3
-1.764, 1.946e-3
-1.763, 1.927e-3
-1.762, 1.902e-3
-1.761, 1.884e-3
-1.760, 1.859e-3
-1.759, 1.838e-3
-1.758, 1.816e-3
-1.757, 1.795e-3
-1.756, 1.773e-3
-1.755, 1.751e-3
-1.754, 1.733e-3
-1.753, 1.711e-3
-1.752, 1.690e-3
-1.751, 1.668e-3
-1.750, 1.647e-3
-1.749, 1.625e-3
-1.748, 1.606e-3
-1.747, 1.585e-3
-1.746, 1.563e-3
-1.745, 1.545e-3
-1.744, 1.523e-3
-1.743, 1.505e-3
-1.742, 1.486e-3
-1.741, 1.468e-3
-1.740, 1.446e-3
-1.739, 1.428e-3
-1.738, 1.409e-3
-1.737, 1.391e-3
-1.736, 1.372e-3
-1.735, 1.354e-3
-1.734, 1.335e-3
-1.733, 1.317e-3
-1.732, 1.301e-3
-1.731, 1.280e-3
-1.730, 1.264e-3
-1.729, 1.246e-3
-1.728, 1.227e-3
-1.727, 1.212e-3
-1.726, 1.196e-3
-1.725, 1.178e-3
-1.724, 1.162e-3
-1.723, 1.147e-3
-1.722, 1.129e-3
-1.721, 1.113e-3
-1.720, 1.098e-3
-1.719, 1.079e-3
-1.718, 1.064e-3
-1.717, 1.051e-3
-1.716, 1.036e-3
-1.715, 1.021e-3
-1.714, 1.008e-3
-1.713, 9.929e-4
-1.712, 9.775e-4
-1.711, 9.621e-4
-1.710, 9.467e-4
-1.709, 9.343e-4
-1.708, 9.220e-4
-1.707, 9.066e-4
-1.706, 8.943e-4
-1.705, 8.819e-4
-1.704, 8.665e-4
-1.703, 8.573e-4
-1.702, 8.418e-4
-1.701, 8.264e-4
-1.700, 8.141e-4
-1.699, 8.018e-4
-1.698, 7.894e-4
-1.697, 7.771e-4
-1.696, 7.648e-4
-1.695, 7.555e-4
-1.694, 7.401e-4
-1.693, 7.309e-4
-1.692, 7.185e-4
-1.691, 7.093e-4
-1.690, 6.969e-4
-1.689, 6.877e-4
-1.688, 6.723e-4
-1.687, 6.630e-4
-1.686, 6.538e-4
-1.685, 6.445e-4
-1.684, 6.322e-4
-1.683, 6.229e-4
-1.682, 6.137e-4
-1.681, 6.044e-4
-1.680, 5.921e-4
-1.679, 5.859e-4
-1.678, 5.736e-4
-1.677, 5.644e-4
-1.676, 5.551e-4
-1.675, 5.489e-4
-1.674, 5.397e-4
-1.673, 5.305e-4
-1.672, 5.212e-4
-1.671, 5.150e-4
-1.670, 5.058e-4
-1.669, 4.965e-4
-1.668, 4.873e-4
-1.667, 4.811e-4
-1.666, 4.719e-4
-1.665, 4.657e-4
-1.664, 4.565e-4
-1.663, 4.472e-4
-1.662, 4.441e-4
-1.661, 4.349e-4
-1.660, 4.256e-4
-1.659, 4.195e-4
-1.658, 4.133e-4
-1.657, 4.071e-4
-1.656, 4.010e-4
-1.655, 3.917e-4
-1.654, 3.855e-4
-1.653, 3.825e-4
-1.652, 3.732e-4
-1.651, 3.670e-4
-1.650, 3.609e-4
-1.649, 3.547e-4
-1.648, 3.516e-4
-1.647, 3.424e-4
-1.646, 3.362e-4
-1.645, 3.331e-4
-1.644, 3.270e-4
-1.643, 3.208e-4
-1.642, 3.177e-4
-1.641, 3.115e-4
-1.640, 3.054e-4
-1.639, 2.992e-4
-1.638, 2.961e-4
-1.637, 2.900e-4
-1.636, 2.838e-4
-1.635, 2.807e-4
-1.634, 2.746e-4
-1.633, 2.715e-4
-1.632, 2.653e-4
-1.631, 2.622e-4
-1.630, 2.561e-4
-1.629, 2.530e-4
-1.628, 2.499e-4
-1.627, 2.437e-4
-1.626, 2.406e-4
-1.625, 2.345e-4
-1.624, 2.314e-4
-1.623, 2.283e-4
-1.622, 2.252e-4
-1.621, 2.221e-4
-1.620, 2.160e-4
-1.619, 2.129e-4
-1.618, 2.098e-4
-1.617, 2.036e-4
-1.616, 2.036e-4
-1.615, 2.006e-4
-1.614, 1.944e-4
-1.613, 1.913e-4
-1.612, 1.882e-4
-1.611, 1.851e-4
-1.610, 1.821e-4
-1.609, 1.790e-4
-1.608, 1.759e-4
-1.607, 1.728e-4
-1.606, 1.728e-4
-1.605, 1.697e-4
-1.604, 1.666e-4
-1.603, 1.636e-4
-1.602, 1.574e-4
-1.601, 1.543e-4
-1.600, 1.543e-4
-1.599, 1.512e-4
-1.598, 1.481e-4
-1.597, 1.451e-4
-1.596, 1.420e-4
-1.595, 1.420e-4
-1.594, 1.358e-4
-1.593, 1.358e-4
-1.592, 1.327e-4
-1.591, 1.296e-4
-1.590, 1.266e-4
-1.589, 1.266e-4
-1.588, 1.235e-4
-1.587, 1.235e-4
-1.586, 1.235e-4
-1.585, 1.173e-4
-1.584, 1.173e-4
-1.583, 1.142e-4
-1.582, 1.111e-4
-1.581, 1.081e-4
-1.580, 1.081e-4
-1.579, 1.081e-4
-1.578, 1.050e-4
-1.577, 1.050e-4
-1.576, 1.019e-4
-1.575, 1.019e-4
-1.574, 9.882e-5
-1.573, 9.882e-5
-1.572, 9.573e-5
-1.571, 9.265e-5
-1.570, 8.957e-5
-1.569, 8.957e-5
-1.568, 8.957e-5
-1.567, 8.648e-5
-1.566, 8.648e-5
-1.565, 8.340e-5
-1.564, 8.340e-5
-1.563, 8.032e-5
-1.562, 8.032e-5
-1.561, 7.723e-5
-1.560, 7.723e-5
-1.559, 7.415e-5
-1.558, 7.415e-5
-1.557, 7.415e-5
-1.556, 7.107e-5
-1.555, 7.107e-5
-1.554, 6.798e-5
-1.553, 6.798e-5
-1.552, 6.798e-5
-1.551, 6.490e-5
-1.550, 6.490e-5
-1.549, 6.182e-5
-1.548, 6.182e-5
-1.547, 6.182e-5
-1.546, 5.873e-5
-1.545, 5.873e-5
-1.544, 5.873e-5
-1.543, 5.873e-5
-1.542, 5.565e-5
-1.541, 5.565e-5
-1.540, 5.257e-5
-1.539, 5.257e-5
-1.538, 5.257e-5
-1.537, 4.949e-5
-1.536, 4.949e-5
-1.535, 4.949e-5
-1.534, 4.949e-5
-1.533, 4.949e-5
-1.532, 4.640e-5
-1.531, 4.640e-5
-1.530, 4.640e-5
-1.529, 4.640e-5
-1.528, 4.332e-5
-1.527, 4.332e-5
-1.526, 4.332e-5
-1.525, 4.024e-5
-1.524, 4.024e-5
-1.523, 4.024e-5
-1.522, 4.024e-5
-1.521, 4.024e-5
-1.520, 3.715e-5
-1.519, 3.715e-5
-1.518, 3.715e-5
-1.517, 3.715e-5
-1.516, 3.715e-5
-1.515, 3.407e-5
-1.514, 3.407e-5
-1.513, 3.407e-5
-1.512, 3.407e-5
-1.511, 3.407e-5
-1.510, 3.099e-5
-1.509, 3.099e-5
-1.508, 3.099e-5
-1.507, 3.099e-5
-1.506, 3.099e-5
-1.505, 3.099e-5
-1.504, 2.790e-5
-1.503, 2.790e-5
-1.502, 2.790e-5
-1.501, 2.790e-5
-1.500, 2.790e-5
-1.499, 2.790e-5
-1.498, 2.790e-5
-1.497, 2.482e-5
-1.496, 2.482e-5
-1.495, 2.482e-5
-1.494, 2.482e-5
-1.493, 2.482e-5
-1.492, 2.174e-5
-1.491, 2.482e-5
-1.490, 2.174e-5
-1.489, 2.174e-5
-1.488, 2.174e-5
-1.487, 2.174e-5
-1.486, 2.174e-5
-1.485, 2.174e-5
-1.484, 2.174e-5
-1.483, 1.865e-5
-1.482, 1.865e-5
-1.481, 1.865e-5
-1.480, 1.865e-5
-1.479, 1.865e-5
-1.478, 1.865e-5
-1.477, 1.865e-5
-1.476, 1.865e-5
-1.475, 1.865e-5
-1.474, 1.865e-5
-1.473, 1.865e-5
-1.472, 1.557e-5
-1.471, 1.557e-5
-1.470, 1.557e-5
-1.469, 1.557e-5
-1.468, 1.557e-5
-1.467, 1.557e-5
-1.466, 1.557e-5
-1.465, 1.249e-5
-1.464, 1.557e-5
-1.463, 1.557e-5
-1.462, 1.557e-5
-1.461, 1.557e-5
-1.460, 1.249e-5
-1.459, 1.249e-5
-1.458, 1.249e-5
-1.457, 1.557e-5
-1.456, 1.249e-5
-1.455, 1.249e-5
-1.454, 1.249e-5
-1.453, 1.249e-5
-1.452, 1.249e-5
-1.451, 1.249e-5
-1.450, 1.249e-5
-1.449, 9.405e-6
-1.448, 1.249e-5
-1.447, 1.249e-5
-1.446, 1.249e-5
-1.445, 1.249e-5
-1.444, 9.405e-6
-1.443, 9.405e-6
-1.442, 9.405e-6
-1.441, 9.405e-6
-1.440, 9.405e-6
-1.439, 9.405e-6
-1.438, 9.405e-6
-1.437, 9.405e-6
-1.436, 9.405e-6
-1.435, 9.405e-6
-1.434, 9.405e-6
-1.433, 9.405e-6
-1.432, 9.405e-6
-1.431, 6.322e-6
-1.430, 9.405e-6
-1.429, 6.322e-6
-1.428, 6.322e-6
-1.427, 6.322e-6
-1.426, 6.322e-6
-1.425, 6.322e-6
-1.424, 6.322e-6
-1.423, 6.322e-6
-1.422, 6.322e-6
-1.421, 6.322e-6
-1.420, 6.322e-6
-1.419, 6.322e-6
-1.418, 6.322e-6
-1.417, 6.322e-6
-1.416, 6.322e-6
-1.415, 6.322e-6
-1.414, 6.322e-6
-1.413, 6.322e-6
-1.412, 3.239e-6
-1.411, 6.322e-6
-1.410, 6.322e-6
-1.409, 6.322e-6
-1.408, 6.322e-6
-1.407, 6.322e-6
-1.406, 3.239e-6
-1.405, 6.322e-6
-1.404, 3.239e-6
-1.403, 3.239e-6
-1.402, 6.322e-6
-1.401, 3.239e-6
-1.400, 3.239e-6
-1.399, 3.239e-6
-1.398, 6.322e-6
-1.397, 3.239e-6
-1.396, 3.239e-6
-1.395, 3.239e-6
-1.394, 3.239e-6
-1.393, 6.322e-6
-1.392, 3.239e-6
-1.391, 3.239e-6
-1.390, 3.239e-6
-1.389, 3.239e-6
-1.388, 3.239e-6
-1.387, 3.239e-6
-1.386, 3.239e-6
-1.385, 3.239e-6
-1.384, 3.239e-6
-1.383, 3.239e-6
-1.382, 3.239e-6
-1.381, 3.239e-6
-1.380, 1.559e-7
-1.379, 1.559e-7
-1.378, 1.559e-7
-1.377, 3.239e-6
-1.376, 3.239e-6
-1.375, 3.239e-6
-1.374, 1.559e-7
-1.373, 3.239e-6
-1.372, 1.559e-7
-1.371, 3.239e-6
-1.370, 3.239e-6
-1.369, 1.559e-7
-1.368, 3.239e-6
-1.367, 1.559e-7
-1.366, 3.239e-6
-1.365, 1.559e-7
-1.364, 3.239e-6
-1.363, 1.559e-7
-1.362, 1.559e-7
-1.361, 1.559e-7
-1.360, 1.559e-7
-1.359, 3.239e-6
-1.358, 1.559e-7
-1.357, 1.559e-7
-1.356, 1.559e-7
-1.355, 1.559e-7
-1.354, 1.559e-7
-1.353, 1.559e-7
-1.352, 1.559e-7
-1.351, 1.559e-7
-1.350, 1.559e-7
-1.349, 1.559e-7
-1.348, 1.559e-7
-1.347, 1.559e-7
-1.346, 1.559e-7
-1.345, 1.559e-7
-1.344, 1.559e-7
-1.343, 1.559e-7
-1.342, 1.559e-7
-1.341, 1.559e-7
-1.340, 1.559e-7
-1.339, 1.559e-7
-1.338, 1.559e-7
-1.337, 1.559e-7
-1.336, 1.559e-7
-1.335, 1.559e-7
-1.334, 1.559e-7
-1.333, 1.559e-7
-1.332, 1.559e-7
-1.331, 1.559e-7
-1.330, 1.559e-7
-1.329, 1.559e-7
-1.328, 1.559e-7
-1.327, 1.559e-7
-1.326, 1.559e-7
-1.325, 1.559e-7
-1.324, 1.559e-7
-1.323, 1.559e-7
-1.322, 1.559e-7
-1.321, 1.559e-7
-1.320, 1.559e-7
-1.319, -2.927e-6
-1.318, -2.927e-6
-1.317, -2.927e-6
-1.316, 1.559e-7
-1.315, -2.927e-6
-1.314, -2.927e-6
-1.313, -2.927e-6
-1.312, 1.559e-7
-1.311, 1.559e-7
-1.310, -2.927e-6
-1.309, 1.559e-7
-1.308, -2.927e-6
-1.307, 1.559e-7
-1.306, -2.927e-6
-1.305, 1.559e-7
-1.304, -2.927e-6
-1.303, -2.927e-6
-1.302, -2.927e-6
-1.301, -2.927e-6
-1.300, 1.559e-7
-1.299, -2.927e-6
-1.298, 1.559e-7
-1.297, -2.927e-6
-1.296, -2.927e-6
-1.295, -2.927e-6
-1.294, -2.927e-6
-1.293, 1.559e-7
-1.292, -2.927e-6
-1.291, -2.927e-6
-1.290, -2.927e-6
-1.289, 1.559e-7
-1.288, -2.927e-6
-1.287, -2.927e-6
-1.286, -2.927e-6
-1.285, -2.927e-6
-1.284, -2.927e-6
-1.283, -2.927e-6
-1.282, -2.927e-6
-1.281, -2.927e-6
-1.280, -2.927e-6
-1.279, -2.927e-6
-1.278, -2.927e-6
-1.277, -2.927e-6
-1.276, -2.927e-6
-1.275, -2.927e-6
-1.274, -2.927e-6
-1.273, -2.927e-6
-1.272, -2.927e-6
-1.271, -2.927e-6
-1.270, -2.927e-6
-1.269, -2.927e-6
-1.268, -2.927e-6
-1.267, -2.927e-6
-1.266, -2.927e-6
-1.265, -2.927e-6
-1.264, -2.927e-6
-1.263, -2.927e-6
-1.262, -2.927e-6
-1.261, -2.927e-6
-1.260, -2.927e-6
-1.259, -2.927e-6
-1.258, -2.927e-6
-1.257, -2.927e-6
-1.256, -2.927e-6
-1.255, -2.927e-6
-1.254, -2.927e-6
-1.253, -2.927e-6
-1.252, -2.927e-6
-1.251, -2.927e-6
-1.250, -2.927e-6
-1.249, -2.927e-6
-1.248, -2.927e-6
-1.247, -2.927e-6
-1.246, -2.927e-6
-1.245, -2.927e-6
-1.244, -2.927e-6
-1.243, -2.927e-6
-1.242, -2.927e-6
-1.241, -2.927e-6
-1.240, -2.927e-6
-1.239, -2.927e-6
-1.238, -2.927e-6
-1.237, -2.927e-6
-1.236, -2.927e-6
-1.235, -6.010e-6
-1.234, -2.927e-6
-1.233, -2.927e-6
-1.232, -6.010e-6
-1.231, -6.010e-6
-1.230, -2.927e-6
-1.229, -6.010e-6
-1.228, -2.927e-6
-1.227, -6.010e-6
-1.226, -6.010e-6
-1.225, -6.010e-6
-1.224, -6.010e-6
-1.223, -2.927e-6
-1.222, -2.927e-6
-1.221, -6.010e-6
-1.220, -6.010e-6
-1.219, -6.010e-6
-1.218, -2.927e-6
-1.217, -6.010e-6
-1.216, -6.010e-6
-1.215, -6.010e-6
-1.214, -6.010e-6
-1.213, -6.010e-6
-1.212, -2.927e-6
-1.211, -6.010e-6
-1.210, -6.010e-6
-1.209, -6.010e-6
-1.208, -6.010e-6
-1.207, -6.010e-6
-1.206, -6.010e-6
-1.205, -6.010e-6
-1.204, -6.010e-6
-1.203, -6.010e-6
-1.202, -6.010e-6
-1.201, -6.010e-6
-1.200, -2.927e-6
-1.199, -6.010e-6
-1.198, -6.010e-6
-1.197, -6.010e-6
-1.196, -6.010e-6
-1.195, -6.010e-6
-1.194, -6.010e-6
-1.193, -6.010e-6
-1.192, -6.010e-6
-1.191, -6.010e-6
-1.190, -6.010e-6
-1.189, -6.010e-6
-1.188, -6.010e-6
-1.187, -6.010e-6
-1.186, -6.010e-6
-1.185, -6.010e-6
-1.184, -6.010e-6
-1.183, -6.010e-6
-1.182, -6.010e-6
-1.181, -6.010e-6
-1.180, -6.010e-6
-1.179, -6.010e-6
-1.178, -6.010e-6
-1.177, -6.010e-6
-1.176, -6.010e-6
-1.175, -6.010e-6
-1.174, -6.010e-6
-1.173, -6.010e-6
-1.172, -6.010e-6
-1.171, -6.010e-6
-1.170, -6.010e-6
-1.169, -6.010e-6
-1.168, -6.010e-6
-1.167, -6.010e-6
-1.166, -6.010e-6
-1.165, -6.010e-6
-1.164, -6.010e-6
-1.163, -6.010e-6
-1.162, -6.010e-6
-1.161, -6.010e-6
-1.160, -6.010e-6
-1.159, -6.010e-6
-1.158, -6.010e-6
-1.157, -6.010e-6
-1.156, -6.010e-6
-1.155, -6.010e-6
-1.154, -6.010e-6
-1.153, -6.010e-6
-1.152, -6.010e-6
-1.151, -6.010e-6
-1.150, -6.010e-6
-1.149, -6.010e-6
-1.148, -6.010e-6
-1.147, -6.010e-6
-1.146, -6.010e-6
-1.145, -6.010e-6
-1.144, -6.010e-6
-1.143, -6.010e-6
-1.142, -6.010e-6
-1.141, -6.010e-6
-1.140, -6.010e-6
-1.139, -6.010e-6
-1.138, -6.010e-6
-1.137, -6.010e-6
-1.136, -6.010e-6
-1.135, -6.010e-6
-1.134, -6.010e-6
-1.133, -9.093e-6
-1.132, -9.093e-6
-1.131, -6.010e-6
-1.130, -6.010e-6
-1.129, -6.010e-6
-1.128, -6.010e-6
-1.127, -9.093e-6
-1.126, -9.093e-6
-1.125, -6.010e-6
-1.124, -9.093e-6
-1.123, -6.010e-6
-1.122, -9.093e-6
-1.121, -6.010e-6
-1.120, -6.010e-6
-1.119, -6.010e-6
-1.118, -6.010e-6
-1.117, -9.093e-6
-1.116, -9.093e-6
-1.115, -9.093e-6
-1.114, -6.010e-6
-1.113, -9.093e-6
-1.112, -9.093e-6
-1.111, -9.093e-6
-1.110, -9.093e-6
-1.109, -6.010e-6
-1.108, -9.093e-6
-1.107, -6.010e-6
-1.106, -9.093e-6
-1.105, -9.093e-6
-1.104, -9.093e-6
-1.103, -6.010e-6
-1.102, -9.093e-6
-1.101, -9.093e-6
-1.100, -9.093e-6
-1.099, -9.093e-6
-1.098, -9.093e-6
-1.097, -9.093e-6
-1.096, -6.010e-6
-1.095, -9.093e-6
-1.094, -9.093e-6
-1.093, -9.093e-6
-1.092, -9.093e-6
-1.091, -9.093e-6
-1.090, -9.093e-6
-1.089, -9.093e-6
-1.088, -9.093e-6
-1.087, -9.093e-6
-1.086, -9.093e-6
-1.085, -9.093e-6
-1.084, -9.093e-6
-1.083, -9.093e-6
-1.082, -9.093e-6
-1.081, -9.093e-6
-1.080, -9.093e-6
-1.079, -9.093e-6
-1.078, -9.093e-6
-1.077, -9.093e-6
-1.076, -9.093e-6
-1.075, -9.093e-6
-1.074, -9.093e-6
-1.073, -9.093e-6
-1.072, -9.093e-6
-1.071, -9.093e-6
-1.070, -9.093e-6
-1.069, -9.093e-6
-1.068, -9.093e-6
-1.067, -9.093e-6
-1.066, -9.093e-6
-1.065, -9.093e-6
-1.064, -9.093e-6
-1.063, -9.093e-6
-1.062, -9.093e-6
-1.061, -9.093e-6
-1.060, -9.093e-6
-1.059, -9.093e-6
-1.058, -9.093e-6
-1.057, -9.093e-6
-1.056, -9.093e-6
-1.055, -9.093e-6
-1.054, -9.093e-6
-1.053, -9.093e-6
-1.052, -9.093e-6
-1.051, -9.093e-6
-1.050, -9.093e-6
-1.049, -9.093e-6
-1.048, -9.093e-6
-1.047, -9.093e-6
-1.046, -9.093e-6
-1.045, -9.093e-6
-1.044, -9.093e-6
-1.043, -9.093e-6
-1.042, -9.093e-6
-1.041, -9.093e-6
-1.040, -9.093e-6
-1.039, -9.093e-6
-1.038, -9.093e-6
-1.037, -9.093e-6
-1.036, -9.093e-6
-1.035, -1.218e-5
-1.034, -9.093e-6
-1.033, -9.093e-6
-1.032, -9.093e-6
-1.031, -9.093e-6
-1.030, -9.093e-6
-1.029, -1.218e-5
-1.028, -9.093e-6
-1.027, -1.218e-5
-1.026, -9.093e-6
-1.025, -9.093e-6
-1.024, -1.218e-5
-1.023, -9.093e-6
-1.022, -9.093e-6
-1.021, -9.093e-6
-1.020, -9.093e-6
-1.019, -9.093e-6
-1.018, -1.218e-5
-1.017, -1.218e-5
-1.016, -9.093e-6
-1.015, -1.218e-5
-1.014, -9.093e-6
-1.013, -1.218e-5
-1.012, -1.218e-5
-1.011, -1.218e-5
-1.010, -9.093e-6
-1.009, -9.093e-6
-1.008, -9.093e-6
-1.007, -1.218e-5
-1.006, -1.218e-5
-1.005, -9.093e-6
-1.004, -1.218e-5
-1.003, -9.093e-6
-1.002, -1.218e-5
-1.001, -1.218e-5
