Potential V vs RHE, Current mA cm-2
0.013299999999999867,3.27788608178729
0.012299999999999978,2.3441766238763657
0.011299999999999866,1.7217036519357498
0.010299999999999976,1.2104269881645253
0.009299999999999864,0.7837500601252303
0.008299999999999974,0.4490293665771626
0.007299999999999862,0.16806770242396638
0.006299999999999972,-0.10939962481856329
0.00529999999999986,-0.3832452911334384
0.0042999999999999705,-0.6418545167487671
0.0032999999999998586,-0.8499585489589141
0.0022999999999999687,-1.0277877593519493
0.0012999999999998568,-1.2203299672635808
0.00029999999999996696,-1.4175407224647667
-0.000700000000000145,-1.6042826140469515
-0.0017000000000000348,-1.7570714344323757
-0.0027000000000001467,-1.8801513175206337
-0.0037000000000000366,-2.0315254266061924
-0.0047000000000001485,-2.202705493889862
-0.005700000000000038,-2.359738448174881
-0.00670000000000015,-2.4799889086634095
-0.00770000000000004,-2.5733598544545018
-0.008700000000000152,-2.6907808923433
-0.009700000000000042,-2.8379108675292635
-0.010700000000000154,-2.973723152316307
-0.011700000000000044,-3.076997077206455
-0.012700000000000156,-3.1576356212987617
-0.013700000000000045,-3.249591855789989
-0.014700000000000157,-3.3740864501781123
-0.015700000000000047,-3.4858486428674507
-0.01670000000000016,-3.580634299958408
-0.01770000000000005,-3.6499551536517942
-0.01870000000000016,-3.7206907186450464
-0.01970000000000005,-3.832452911334385
-0.020700000000000163,-3.944215104023722
-0.021700000000000053,-4.01636538031684
-0.022700000000000164,-4.080027388810766
-0.023700000000000054,-4.159251221603208
-0.024700000000000166,-4.2681839916928155
-0.025700000000000056,-4.368628493983234
-0.026700000000000168,-4.42946107987743
-0.027700000000000058,-4.480390686672571
-0.02870000000000017,-4.542637983866633
-0.02970000000000006,-4.63742364095759
-0.03070000000000017,-4.739282854547873
-0.03170000000000006,-4.80577428564153
-0.03270000000000017,-4.85387446983694
-0.03370000000000006,-4.910462921831542
-0.034700000000000175,-4.998175022423175
-0.035700000000000065,-5.085887123014808
-0.03670000000000018,-5.143890286309273
-0.03770000000000007,-5.18491691400536
-0.03870000000000018,-5.252823056398881
-0.03970000000000007,-5.3306321778914585
-0.04070000000000018,-5.421173701082821
-0.04170000000000007,-5.473518019177827
-0.04270000000000018,-5.508885801674452
-0.04370000000000007,-5.562644831069325
-0.044700000000000184,-5.640453952561901
-0.045700000000000074,-5.715433651454749
-0.046700000000000186,-5.7706073921494845
-0.047700000000000076,-5.791828061647459
-0.04870000000000019,-5.849831224941926
-0.04970000000000008,-5.930469769034234
-0.05070000000000019,-6.001205334027486
-0.05170000000000008,-6.045061384323302
-0.05270000000000019,-6.070526187720873
-0.05370000000000008,-6.124285217115744
-0.05470000000000019,-6.2035090499081855
-0.05570000000000008,-6.279903460100898
-0.056700000000000195,-6.323759510396714
-0.057700000000000085,-6.337906623395364
-0.058700000000000196,-6.371859694592125
-0.059700000000000086,-6.448254104784837
-0.0607000000000002,-6.5317220714768744
-0.06170000000000009,-6.581236966972151
-0.0627000000000002,-6.612360615569181
-0.06370000000000009,-6.634995996367022
-0.0647000000000002,-6.709975695259868
-0.06570000000000009,-6.775052415053661
-0.0667000000000002,-6.816079042749746
-0.0677000000000001,-6.834470289647991
-0.0687000000000002,-6.867008649544887
-0.0697000000000001,-6.933500080638546
-0.07070000000000021,-7.001406223032068
-0.0717000000000001,-7.041018139428288
-0.07270000000000021,-7.067897654125724
-0.0737000000000001,-7.096191880123024
-0.07470000000000021,-7.161268599916816
-0.0757000000000001,-7.223515897110879
-0.07670000000000021,-7.260298390907368
-0.0777000000000001,-7.275860215205883
-0.07870000000000021,-7.321130976801564
-0.0797000000000001,-7.3649870270973805
-0.08070000000000022,-7.4244049016917115
-0.0817000000000001,-7.4498697050892835
-0.08270000000000022,-7.469675663287394
-0.08370000000000011,-7.5220199813824
-0.08470000000000022,-7.577193722077136
-0.08570000000000011,-7.639441019271198
-0.08670000000000022,-7.680467646967284
-0.08770000000000011,-7.69037062606634
-0.08870000000000022,-7.724323697263101
-0.08970000000000011,-7.789400417056893
-0.09070000000000022,-7.834671178652573
-0.09170000000000011,-7.878527228948389
-0.09270000000000023,-7.894089053246905
-0.09370000000000012,-7.918139145344611
-0.09470000000000023,-7.981801153838537
-0.09570000000000012,-8.039804317133003
-0.09670000000000023,-8.066683831830439
-0.09770000000000012,-8.090733923928145
-0.09870000000000023,-8.124686995124907
-0.09970000000000012,-8.195422560118157
-0.10070000000000023,-8.253425723412624
-0.10170000000000012,-8.293037639808846
-0.10270000000000024,-8.298696485008303
-0.10370000000000013,-8.322746577106011
-0.10470000000000024,-8.380749740400477
-0.10570000000000013,-8.447241171494134
-0.10670000000000024,-8.481194242690894
-0.10770000000000013,-8.501000200889004
-0.10870000000000024,-8.529294426886306
-0.10970000000000013,-8.587297590180773
-0.11070000000000024,-8.649544887374834
-0.11170000000000013,-8.67642440207227
-0.11270000000000002,-8.694815648970515
-0.11370000000000013,-8.730183431467141
-0.11470000000000002,-8.796674862560797
-0.11570000000000014,-8.851848603255535
-0.11670000000000003,-8.891460519651757
-0.11770000000000014,-8.897119364851218
-0.11870000000000003,-8.929657724748111
-0.11970000000000014,-8.977757908943524
-0.12070000000000003,-9.07537298863421
-0.12170000000000014,-9.140449708428003
-0.12270000000000003,-9.090934812932726
-0.12370000000000014,-9.105081925931376
-0.12470000000000003,-9.189964603923277
-0.12570000000000014,-9.276261993215044
-0.12670000000000003,-9.327191600010188
-0.12770000000000015,-9.331435733909782
-0.12870000000000004,-9.354071114707622
-0.12970000000000015,-9.412074278002088
-0.13070000000000004,-9.451686194398311
-0.13170000000000015,-9.499786378593722
-0.13270000000000004,-9.515348202892236
-0.13370000000000015,-9.546471851489269
-0.13470000000000004,-9.604475014783732
-0.13570000000000015,-9.659648755478472
-0.13670000000000004,-9.699260671874692
-0.13770000000000016,-9.700675383174557
-0.13870000000000005,-9.730384320471723
-0.13970000000000016,-9.789802195066054
-0.14070000000000005,-9.86195247135917
-0.14170000000000016,-9.888831986056605
-0.14270000000000005,-9.900149676455525
-0.14370000000000016,-9.905808521654986
-0.14470000000000005,-9.953908705850399
-0.14570000000000016,-10.01332658044473
-0.14670000000000005,-10.028888404743245
-0.14770000000000016,-10.035961961242569
-0.14870000000000005,-10.05010907424122
-0.14970000000000017,-10.099623969736497
-0.15070000000000006,-10.161871266930557
-0.15170000000000017,-10.176018379929207
-0.15270000000000006,-10.18167722512867
-0.15370000000000017,-10.20431260592651
-0.15470000000000006,-10.25807163532138
-0.15570000000000017,-10.273633459619896
-0.15670000000000006,-10.311830664716252
-0.15770000000000017,-10.23826567712327
-0.15870000000000006,-10.280707016119223
-0.15970000000000018,-10.334466045514093
-0.16070000000000007,-10.37549267321018
-0.16170000000000018,-10.405201610507346
-0.16270000000000007,-10.392469208808558
-0.16370000000000018,-10.405201610507346
-0.16470000000000007,-10.42925170260505
-0.16570000000000018,-10.44622823820343
-0.16670000000000007,-10.456131217302488
-0.16770000000000018,-10.433495836504646
-0.16870000000000007,-10.44905766080316
-0.16970000000000018,-10.488669577199383
-0.17070000000000007,-10.518378514496549
-0.17170000000000019,-10.516963803196681
-0.17270000000000008,-10.488669577199383
-0.1737000000000002,-10.477351886800463
-0.17470000000000008,-10.495743133698706
-0.1757000000000002,-10.52403735969601
-0.17670000000000008,-10.542428606594253
-0.1777000000000002,-10.511304957997222
-0.17870000000000008,-10.451887083402891
-0.1797000000000002,-10.483010731999922
-0.18070000000000008,-10.505646112797763
-0.1817000000000002,-10.509890246697358
-0.18270000000000008,-10.498572556298438
-0.1837000000000002,-10.48018130940019
-0.1847000000000001,-10.488669577199383
-0.1857000000000002,-10.498572556298438
-0.1867000000000001,-10.46037535120208
-0.1877000000000002,-10.432081125204782
-0.1887000000000001,-10.4151045896064
-0.1897000000000002,-10.42642228000532
-0.1907000000000001,-10.437739970404241
-0.1917000000000001,-10.405201610507346
-0.19269999999999998,-10.368419116710854
-0.1937000000000001,-10.350027869812608
-0.19469999999999998,-10.348613158512745
-0.1957000000000001,-10.361345560211529
-0.19669999999999999,-10.328807200314634
-0.1977000000000001,-10.273633459619896
-0.1987,-10.256656924021515
-0.1997000000000001,-10.275048170919762
-0.2007,-10.282121727419087
-0.2017000000000001,-10.24675394492246
-0.2027,-10.183091936428536
-0.2037000000000001,-10.146309442632043
-0.2047,-10.14772415393191
-0.2057000000000001,-10.146309442632043
-0.2067,-10.125088773134069
-0.2077000000000001,-10.091135701937308
-0.2087,-10.058597342040411
-0.2097000000000001,-10.055767919440681
-0.2107,-10.0387913838423
-0.2117000000000001,-10.00200889004581
-0.2127,-9.953908705850399
-0.2137000000000001,-9.919955634653638
-0.2147,-9.934102747652288
-0.2157000000000001,-9.939761592851747
-0.2167,-9.880343718257414
-0.21770000000000012,-9.80536401936457
-0.2187,-9.765752102968348
-0.21970000000000012,-9.769996236867943
-0.2207,-9.769996236867943
-0.22170000000000012,-9.740287299570777
-0.2227,-9.699260671874692
-0.22370000000000012,-9.675210579776985
-0.2247,-9.663892889378065
-0.22570000000000012,-9.652575198979145
-0.2267,-9.61154857128306
-0.22770000000000012,-9.557789541888187
-0.22870000000000001,-9.530910027190751
-0.22970000000000013,-9.525251181991292
-0.23070000000000002,-9.525251181991292
-0.23170000000000013,-9.48280984299534
-0.23270000000000002,-9.436124370099794
-0.23370000000000013,-9.403586010202897
-0.23470000000000002,-9.39792716500344
-0.23570000000000013,-9.402171298903033
-0.23670000000000002,-9.379535918105192
-0.2376999999999999,-9.331435733909782
-0.23870000000000002,-9.305970930512213
-0.2396999999999999,-9.303141507912482
-0.24070000000000003,-9.31162977571167
-0.24169999999999991,-9.287579683613965
-0.24270000000000003,-9.236650076818824
-0.24369999999999992,-9.209770562121388
-0.24470000000000003,-9.208355850821524
-0.24569999999999992,-9.225332386419904
-0.24670000000000003,-9.204111716921929
-0.24769999999999992,-9.167329223125439
-0.24870000000000003,-9.141864419727867
-0.24969999999999992,-9.133376151928676
-0.25070000000000003,-9.150352687527057
-0.2516999999999999,-9.139034997128135
-0.25270000000000004,-9.10649663723124
-0.2536999999999999,-9.079617122533806
-0.25470000000000004,-9.09234952423259
-0.2556999999999999,-9.10649663723124
-0.25670000000000004,-9.102252503331647
-0.25769999999999993,-9.082446545133534
-0.25870000000000004,-9.065470009535154
-0.25969999999999993,-9.086690679033131
-0.26070000000000004,-9.10649663723124
-0.26169999999999993,-9.105081925931376
-0.26270000000000004,-9.08952010163286
-0.26369999999999993,-9.07537298863421
-0.26470000000000005,-9.105081925931376
-0.26569999999999994,-9.140449708428003
-0.26670000000000005,-9.151767398826921
-0.26769999999999994,-9.137620285828271
-0.26870000000000005,-9.150352687527057
-0.26969999999999994,-9.147523264927328
-0.27070000000000005,-9.201282294322198
-0.27169999999999994,-9.219673541220443
-0.27270000000000005,-9.182891047423954
-0.27369999999999994,-9.199867583022334
-0.27470000000000006,-9.256456035016935
-0.27569999999999995,-9.334265156509511
-0.27670000000000006,-9.362559382506815
-0.27769999999999995,-9.359729959907083
-0.27870000000000006,-9.368218227706274
-0.27969999999999995,-9.417733123201549
-0.28070000000000006,-9.46583330739696
-0.28169999999999995,-9.502615801193452
-0.28270000000000006,-9.516762914192102
-0.28369999999999995,-9.553545407988592
-0.28470000000000006,-9.59740145828441
-0.28569999999999995,-9.673795868477121
-0.28670000000000007,-9.716237207473073
-0.28769999999999996,-9.748775567369968
-0.28870000000000007,-9.788387483766188
-0.28969999999999996,-9.860537760059307
-0.29070000000000007,-9.931273325052558
-0.29169999999999996,-9.977958797948103
-0.29270000000000007,-10.02181484824392
-0.29369999999999996,-10.060012053340275
-0.2947000000000001,-10.151968287831503
-0.29569999999999996,-10.232606831923809
-0.2967000000000001,-10.306171819516793
-0.29769999999999996,-10.351442581112472
-0.2987000000000001,-10.416519300906264
-0.29969999999999997,-10.505646112797763
-0.3007000000000001,-10.61174946028764
-0.30169999999999997,-10.688143870480351
-0.3027000000000001,-10.741902899875223
-0.30369999999999997,-10.80273548576942
-0.3047000000000001,-10.904594699359702
-0.30569999999999997,-11.034748138947286
-0.3067000000000001,-11.109727837840133
-0.3077,-11.186122248032843
-0.3087000000000001,-11.261101946925693
-0.3097,-11.377108273514626
-0.3107000000000001,-11.519994114800994
-0.3117,-11.621853328391275
-0.3127000000000001,-11.7180536967821
-0.3137,-11.831230600771303
-0.3147000000000001,-11.96562817425848
-0.3157,-12.083049212147277
-0.3167000000000001,-12.186323137037425
-0.3177,-12.291011773227439
-0.3187000000000001,-12.368820894720015
-0.3197,-12.508877313406655
-0.3207000000000001,-12.670154401591269
-0.3217,-12.827187355876287
-0.3227000000000001,-12.94319368246522
-0.3237,-13.07193241075294
-0.3247000000000001,-13.210574118139712
-0.3257,-13.378924762823651
-0.3267000000000001,-13.51332233631083
-0.3277,-13.637816930698953
-0.3287000000000001,-13.793435173684106
-0.3297,-13.970274086167239
-0.3307000000000001,-14.161260111649016
-0.3317,-14.331025467632822
-0.3327000000000001,-14.458349484620674
-0.3337,-14.585673501608527
-0.3347000000000001,-14.769585970590983
-0.3357,-14.967645552572087
-0.3367000000000001,-15.137410908555893
-0.3377,-15.278882038542395
-0.3387000000000001,-15.43450028152755
-0.3397,-15.646706976507305
-0.3407000000000001,-15.844766558488407
-0.3417,-16.02867902747086
-0.3427000000000001,-16.184297270456018
-0.3437,-16.368209739438473
-0.3447000000000001,-16.580416434418233
-0.3457,-16.806770242396635
-0.3467000000000001,-16.99068271137909
-0.3477,-17.174595180361546
-0.3487000000000001,-17.34436053634535
-0.3497,-17.570714344323754
-0.3507000000000001,-17.81121526530081
-0.3517,-18.009274847281915
-0.3527000000000001,-18.17904020326572
-0.3537,-18.391246898245473
-0.3547000000000001,-18.631747819222536
-0.3557,-18.88639585319824
-0.35670000000000013,-19.141043887173947
-0.3577,-19.353250582153702
-0.35870000000000013,-19.565457277133458
-0.3597,-19.820105311109163
-0.36070000000000013,-20.06060623208622
-0.3617,-20.34354849205923
-0.3626999999999999,-20.52746096104168
-0.3637,-20.72552054302279
-0.3646999999999999,-20.95187435100119
-0.3657,-21.291405062968803
-0.3666999999999999,-21.58849443594046
-0.3677,-21.857289582914817
-0.3686999999999999,-22.210967407881075
-0.36970000000000003,-22.46561544185678
-0.3706999999999999,-22.80514615382439
-0.37170000000000003,-23.088088413797397
-0.3726999999999999,-23.356883560771752
-0.37370000000000003,-23.682267159740714
-0.3746999999999999,-24.035944984706973
-0.37570000000000003,-24.417917035670534
-0.3766999999999999,-24.757447747638142
-0.37770000000000004,-25.0828313466071
-0.3786999999999999,-25.39406783257741
-0.37970000000000004,-25.77603988354097
-0.3806999999999999,-26.18630616050183
-0.38170000000000004,-26.58242532446404
-0.38269999999999993,-26.992691601424898
-0.38370000000000004,-27.37466365238846
-0.38469999999999993,-27.813224155346617
-0.38570000000000004,-28.265931771303435
-0.38669999999999993,-28.676198048264297
-0.38770000000000004,-29.128905664221104
-0.38869999999999993,-29.581613280177915
-0.38970000000000005,-30.04846800913338
-0.39069999999999994,-30.55776407708479
-0.39170000000000005,-31.010471693041605
-0.39269999999999994,-31.49147353499572
-0.39370000000000005,-31.986622489948477
-0.39469999999999994,-32.53835989689585
-0.39570000000000005,-33.10424441684186
-0.39669999999999994,-33.59939337179462
-0.39770000000000005,-34.12283655274469
-0.39869999999999994,-34.6887210726907
-0.39970000000000006,-35.183870027643465
-0.40069999999999995,-35.763901660588125
-0.40170000000000006,-36.244903502542236
-0.40269999999999995,-36.796640909489604
-0.40370000000000006,-37.34837831643697
-0.40469999999999995,-37.87182149738703
-0.40570000000000006,-38.57917714731955
-0.40669999999999995,-39.159208780264215
-0.40770000000000006,-39.72509330021023
-0.40869999999999995,-40.36171338514949
-0.40970000000000006,-41.06906903508202
-0.41069999999999995,-41.73398334601858
-0.41170000000000007,-42.130102509980794
-0.41269999999999996,-42.497927447945706
-0.41370000000000007,-43.19113598487957
-0.41469999999999996,-44.42193481576215
-0.41570000000000007,-44.84634820572166
-0.41669999999999996,-45.52540962965688
-0.41770000000000007,-46.077147036604245
-0.41869999999999996,-46.643031556550255
-0.4197000000000001,-47.30794586748683
-0.42069999999999996,-48.12847842140855
-0.4217000000000001,-48.76509850634781
-0.42269999999999996,-49.40171859128708
-0.4237000000000001,-50.024191563227696
-0.42469999999999997,-50.67495876116561
-0.4257000000000001,-51.35402018510083
-0.42669999999999997,-52.075522948032
-0.4277000000000001,-52.79702571096317
-0.42869999999999997,-53.63170537788354
-0.4297000000000001,-54.2966196888201
-0.43069999999999997,-55.06056379074723
-0.4317000000000001,-55.73962521468245
-0.4327,-56.489422203610914
-0.4337000000000001,-57.16848362754614
-0.4347,-58.00316329446651
-0.4357000000000001,-58.75296028339497
-0.4367,-59.61593417631264
-0.4377000000000001,-60.23840714825326
-0.4387,-60.95990991118443
-0.4397000000000001,-61.75214823910885
-0.4407,-62.48779811503867
-0.4417000000000001,-62.60097501902788
-0.4427,-63.421507572949594
-0.4437000000000001,-64.27033435286862
-0.4447,-64.99183711579978
-0.4457000000000001,-66.26507728567832
-0.4467,-67.3826992125717
-0.4477000000000001,-68.42958557447183
-0.4487,-69.0944998854084
-0.4497000000000001,-69.78770842234226
-0.4507,-70.29700449029367
-0.4517000000000001,-70.76385921924914
-0.4527,-71.69756867716005
-0.4537000000000001,-72.46151277908717
-0.4547,-72.94251462104128
-0.4557000000000001,-73.77719428796166
-0.4567,-75.65876031678216
-0.4577000000000001,-76.46514575770523
-0.4587,-77.2998254246256
-0.4597000000000001,-78.10621086554868
-0.4607,-79.11065588845284
-0.4617000000000001,-79.83215865138402
-0.4627,-80.86489790028548
-0.4637000000000001,-77.31397253762425
-0.4647,-78.04962241355408
-0.4657000000000001,-78.77112517648524
-0.4667,-79.63409906940291
-0.4677000000000001,-80.21413070234757
-0.4687,-81.3458997422396
-0.4697000000000001,-81.10539882126255
-0.4707,-82.35034476514379
-0.4717000000000001,-87.35842276666601
-0.4727,-86.39641908275779
-0.4737000000000001,-87.21695163667951
-0.4747,-88.68825138853916
-0.4757000000000001,-93.45582846908432
-0.4767,-92.79091415814774
-0.4777000000000001,-94.17733123201549
-0.4787,-93.41338713008837
-0.4797000000000001,-92.96067951413156
-0.4807,-96.29939818181305
-0.48170000000000013,-96.89357692775637
-0.4827,-96.31354529481169
-0.48370000000000013,-92.76261993215046
-0.4847,-98.6195247135917
-0.48570000000000013,-98.32243534062005
-0.4867,-98.54878914859844
-0.48570000000000013,-99.53908705850398
-0.4847,-97.86972772466324
-0.48370000000000013,-96.5398991027901
-0.4827,-94.96956955993991
-0.48170000000000013,-93.89438897204248
-0.4807,-92.90409106213696
-0.4797000000000001,-91.46108553627462
-0.4787,-90.6122587563556
-0.4777000000000001,-88.5892215975486
-0.4767,-86.86327381171324
-0.4757000000000001,-87.10377473269031
-0.4747,-84.41582326294673
-0.4737000000000001,-82.43522744313569
-0.4727,-81.58640066321666
-0.4717000000000001,-81.006369030272
-0.4707,-78.60135982050144
-0.4697000000000001,-78.37500601252303
-0.4687,-79.1248030014515
-0.4677000000000001,-79.56336350440966
-0.4667,-79.23797990544071
-0.4657000000000001,-77.92229839656622
-0.4647,-73.89037119195086
-0.4637000000000001,-74.64016818087934
-0.4627,-72.65957236106827
-0.4617000000000001,-73.26789822001024
