Apr. 9, 2025   14:50:16
Cyclic Voltammetry
File: c:/users/guazh/data/banditlqround7_x0exp994_r5/2025-03-28-exp1029\exp1029-2025-04-09t14_39_36-h2koh\exp1029_cv_sr_400mvs_efin_-1500mv.bin
Data Source:  Experiment
Instrument Model:  CHI760E
Header: CV ran at 400 mVs
Note: 

Init E (V) = -1
High E (V) = -1
Low E (V) = -1.5
Final E (V) = -1
Init P/N = N
Scan Rate (V/s) = 0.4
Segment = 3
Sample Interval (V) = 0.001
Quiet Time (sec) = 2
Sensitivity (A/V) = 0.01
Comp R (ohm) = 1.7

Results:

Channel 1:
Segment 1:

Segment 2:

Segment 3:

Potential/V, Current/A

-1.000, 2.174e-5
-1.001, 4.640e-5
-1.002, 5.257e-5
-1.003, 5.565e-5
-1.004, 5.873e-5
-1.005, 6.490e-5
-1.006, 6.798e-5
-1.007, 7.107e-5
-1.008, 7.107e-5
-1.009, 7.415e-5
-1.010, 7.415e-5
-1.011, 7.723e-5
-1.012, 8.032e-5
-1.013, 8.340e-5
-1.014, 8.648e-5
-1.015, 8.648e-5
-1.016, 8.648e-5
-1.017, 8.648e-5
-1.018, 8.957e-5
-1.019, 9.265e-5
-1.020, 9.573e-5
-1.021, 9.573e-5
-1.022, 9.573e-5
-1.023, 9.882e-5
-1.024, 9.882e-5
-1.025, 1.019e-4
-1.026, 1.019e-4
-1.027, 1.050e-4
-1.028, 1.050e-4
-1.029, 1.050e-4
-1.030, 1.050e-4
-1.031, 1.081e-4
-1.032, 1.111e-4
-1.033, 1.111e-4
-1.034, 1.142e-4
-1.035, 1.142e-4
-1.036, 1.142e-4
-1.037, 1.173e-4
-1.038, 1.173e-4
-1.039, 1.204e-4
-1.040, 1.204e-4
-1.041, 1.235e-4
-1.042, 1.235e-4
-1.043, 1.235e-4
-1.044, 1.266e-4
-1.045, 1.266e-4
-1.046, 1.296e-4
-1.047, 1.327e-4
-1.048, 1.327e-4
-1.049, 1.327e-4
-1.050, 1.327e-4
-1.051, 1.327e-4
-1.052, 1.389e-4
-1.053, 1.389e-4
-1.054, 1.420e-4
-1.055, 1.420e-4
-1.056, 1.389e-4
-1.057, 1.420e-4
-1.058, 1.420e-4
-1.059, 1.451e-4
-1.060, 1.481e-4
-1.061, 1.481e-4
-1.062, 1.481e-4
-1.063, 1.481e-4
-1.064, 1.481e-4
-1.065, 1.512e-4
-1.066, 1.543e-4
-1.067, 1.543e-4
-1.068, 1.574e-4
-1.069, 1.543e-4
-1.070, 1.543e-4
-1.071, 1.574e-4
-1.072, 1.574e-4
-1.073, 1.605e-4
-1.074, 1.636e-4
-1.075, 1.636e-4
-1.076, 1.605e-4
-1.077, 1.605e-4
-1.078, 1.636e-4
-1.079, 1.666e-4
-1.080, 1.666e-4
-1.081, 1.666e-4
-1.082, 1.666e-4
-1.083, 1.666e-4
-1.084, 1.666e-4
-1.085, 1.697e-4
-1.086, 1.697e-4
-1.087, 1.728e-4
-1.088, 1.728e-4
-1.089, 1.728e-4
-1.090, 1.728e-4
-1.091, 1.728e-4
-1.092, 1.759e-4
-1.093, 1.759e-4
-1.094, 1.790e-4
-1.095, 1.759e-4
-1.096, 1.759e-4
-1.097, 1.759e-4
-1.098, 1.759e-4
-1.099, 1.790e-4
-1.100, 1.821e-4
-1.101, 1.821e-4
-1.102, 1.790e-4
-1.103, 1.790e-4
-1.104, 1.790e-4
-1.105, 1.821e-4
-1.106, 1.821e-4
-1.107, 1.821e-4
-1.108, 1.821e-4
-1.109, 1.821e-4
-1.110, 1.821e-4
-1.111, 1.821e-4
-1.112, 1.821e-4
-1.113, 1.851e-4
-1.114, 1.882e-4
-1.115, 1.851e-4
-1.116, 1.851e-4
-1.117, 1.851e-4
-1.118, 1.851e-4
-1.119, 1.882e-4
-1.120, 1.882e-4
-1.121, 1.882e-4
-1.122, 1.882e-4
-1.123, 1.851e-4
-1.124, 1.851e-4
-1.125, 1.882e-4
-1.126, 1.882e-4
-1.127, 1.913e-4
-1.128, 1.882e-4
-1.129, 1.882e-4
-1.130, 1.882e-4
-1.131, 1.882e-4
-1.132, 1.913e-4
-1.133, 1.913e-4
-1.134, 1.913e-4
-1.135, 1.913e-4
-1.136, 1.913e-4
-1.137, 1.913e-4
-1.138, 1.913e-4
-1.139, 1.913e-4
-1.140, 1.944e-4
-1.141, 1.944e-4
-1.142, 1.944e-4
-1.143, 1.913e-4
-1.144, 1.913e-4
-1.145, 1.913e-4
-1.146, 1.944e-4
-1.147, 1.944e-4
-1.148, 1.944e-4
-1.149, 1.944e-4
-1.150, 1.913e-4
-1.151, 1.944e-4
-1.152, 1.944e-4
-1.153, 1.975e-4
-1.154, 1.975e-4
-1.155, 1.944e-4
-1.156, 1.944e-4
-1.157, 1.944e-4
-1.158, 1.944e-4
-1.159, 1.975e-4
-1.160, 1.975e-4
-1.161, 1.975e-4
-1.162, 1.944e-4
-1.163, 1.944e-4
-1.164, 1.944e-4
-1.165, 1.944e-4
-1.166, 1.975e-4
-1.167, 1.975e-4
-1.168, 1.975e-4
-1.169, 1.944e-4
-1.170, 1.944e-4
-1.171, 1.944e-4
-1.172, 1.975e-4
-1.173, 1.975e-4
-1.174, 1.975e-4
-1.175, 1.975e-4
-1.176, 1.944e-4
-1.177, 1.944e-4
-1.178, 1.975e-4
-1.179, 1.975e-4
-1.180, 1.975e-4
-1.181, 1.975e-4
-1.182, 1.975e-4
-1.183, 1.944e-4
-1.184, 1.944e-4
-1.185, 1.975e-4
-1.186, 1.975e-4
-1.187, 1.975e-4
-1.188, 1.975e-4
-1.189, 1.975e-4
-1.190, 1.944e-4
-1.191, 1.944e-4
-1.192, 1.944e-4
-1.193, 1.975e-4
-1.194, 1.975e-4
-1.195, 1.975e-4
-1.196, 1.975e-4
-1.197, 1.944e-4
-1.198, 1.944e-4
-1.199, 1.975e-4
-1.200, 1.975e-4
-1.201, 1.975e-4
-1.202, 1.975e-4
-1.203, 1.944e-4
-1.204, 1.944e-4
-1.205, 1.944e-4
-1.206, 1.975e-4
-1.207, 1.975e-4
-1.208, 1.975e-4
-1.209, 1.944e-4
-1.210, 1.944e-4
-1.211, 1.944e-4
-1.212, 1.944e-4
-1.213, 1.975e-4
-1.214, 1.975e-4
-1.215, 1.944e-4
-1.216, 1.944e-4
-1.217, 1.944e-4
-1.218, 1.944e-4
-1.219, 1.944e-4
-1.220, 1.975e-4
-1.221, 1.975e-4
-1.222, 1.944e-4
-1.223, 1.944e-4
-1.224, 1.913e-4
-1.225, 1.944e-4
-1.226, 1.944e-4
-1.227, 1.944e-4
-1.228, 1.944e-4
-1.229, 1.944e-4
-1.230, 1.944e-4
-1.231, 1.944e-4
-1.232, 1.944e-4
-1.233, 1.975e-4
-1.234, 1.975e-4
-1.235, 1.944e-4
-1.236, 1.944e-4
-1.237, 1.913e-4
-1.238, 1.944e-4
-1.239, 1.944e-4
-1.240, 1.944e-4
-1.241, 1.975e-4
-1.242, 1.944e-4
-1.243, 1.944e-4
-1.244, 1.913e-4
-1.245, 1.944e-4
-1.246, 1.975e-4
-1.247, 1.975e-4
-1.248, 1.944e-4
-1.249, 1.944e-4
-1.250, 1.944e-4
-1.251, 1.944e-4
-1.252, 1.944e-4
-1.253, 1.975e-4
-1.254, 1.975e-4
-1.255, 1.975e-4
-1.256, 1.944e-4
-1.257, 1.944e-4
-1.258, 1.944e-4
-1.259, 1.975e-4
-1.260, 2.006e-4
-1.261, 1.975e-4
-1.262, 1.975e-4
-1.263, 1.975e-4
-1.264, 1.944e-4
-1.265, 1.975e-4
-1.266, 2.006e-4
-1.267, 2.006e-4
-1.268, 2.006e-4
-1.269, 2.006e-4
-1.270, 1.975e-4
-1.271, 2.006e-4
-1.272, 2.006e-4
-1.273, 2.036e-4
-1.274, 2.036e-4
-1.275, 2.036e-4
-1.276, 2.036e-4
-1.277, 2.036e-4
-1.278, 2.036e-4
-1.279, 2.067e-4
-1.280, 2.098e-4
-1.281, 2.098e-4
-1.282, 2.067e-4
-1.283, 2.098e-4
-1.284, 2.067e-4
-1.285, 2.098e-4
-1.286, 2.129e-4
-1.287, 2.160e-4
-1.288, 2.160e-4
-1.289, 2.129e-4
-1.290, 2.160e-4
-1.291, 2.191e-4
-1.292, 2.191e-4
-1.293, 2.221e-4
-1.294, 2.252e-4
-1.295, 2.252e-4
-1.296, 2.252e-4
-1.297, 2.252e-4
-1.298, 2.283e-4
-1.299, 2.314e-4
-1.300, 2.345e-4
-1.301, 2.376e-4
-1.302, 2.376e-4
-1.303, 2.406e-4
-1.304, 2.406e-4
-1.305, 2.437e-4
-1.306, 2.499e-4
-1.307, 2.530e-4
-1.308, 2.561e-4
-1.309, 2.591e-4
-1.310, 2.591e-4
-1.311, 2.653e-4
-1.312, 2.684e-4
-1.313, 2.746e-4
-1.314, 2.776e-4
-1.315, 2.807e-4
-1.316, 2.869e-4
-1.317, 2.900e-4
-1.318, 2.961e-4
-1.319, 3.023e-4
-1.320, 3.085e-4
-1.321, 3.146e-4
-1.322, 3.208e-4
-1.323, 3.270e-4
-1.324, 3.331e-4
-1.325, 3.424e-4
-1.326, 3.516e-4
-1.327, 3.640e-4
-1.328, 3.701e-4
-1.329, 3.825e-4
-1.330, 3.886e-4
-1.331, 4.010e-4
-1.332, 4.164e-4
-1.333, 4.287e-4
-1.334, 4.410e-4
-1.335, 4.565e-4
-1.336, 4.688e-4
-1.337, 4.873e-4
-1.338, 5.058e-4
-1.339, 5.243e-4
-1.340, 5.459e-4
-1.341, 5.674e-4
-1.342, 5.890e-4
-1.343, 6.137e-4
-1.344, 6.384e-4
-1.345, 6.661e-4
-1.346, 6.969e-4
-1.347, 7.278e-4
-1.348, 7.617e-4
-1.349, 7.956e-4
-1.350, 8.326e-4
-1.351, 8.758e-4
-1.352, 9.158e-4
-1.353, 9.621e-4
-1.354, 1.011e-3
-1.355, 1.058e-3
-1.356, 1.110e-3
-1.357, 1.166e-3
-1.358, 1.218e-3
-1.359, 1.280e-3
-1.360, 1.341e-3
-1.361, 1.406e-3
-1.362, 1.471e-3
-1.363, 1.539e-3
-1.364, 1.610e-3
-1.365, 1.684e-3
-1.366, 1.758e-3
-1.367, 1.832e-3
-1.368, 1.912e-3
-1.369, 1.989e-3
-1.370, 2.066e-3
-1.371, 2.143e-3
-1.372, 2.226e-3
-1.373, 2.309e-3
-1.374, 2.396e-3
-1.375, 2.479e-3
-1.376, 2.562e-3
-1.377, 2.645e-3
-1.378, 2.732e-3
-1.379, 2.818e-3
-1.380, 2.908e-3
-1.381, 2.997e-3
-1.382, 3.086e-3
-1.383, 3.173e-3
-1.384, 3.265e-3
-1.385, 3.355e-3
-1.386, 3.450e-3
-1.387, 3.546e-3
-1.388, 3.641e-3
-1.389, 3.734e-3
-1.390, 3.829e-3
-1.391, 3.922e-3
-1.392, 4.021e-3
-1.393, 4.122e-3
-1.394, 4.224e-3
-1.395, 4.326e-3
-1.396, 4.424e-3
-1.397, 4.523e-3
-1.398, 4.625e-3
-1.399, 4.730e-3
-1.400, 4.838e-3
-1.401, 4.942e-3
-1.402, 5.047e-3
-1.403, 5.149e-3
-1.404, 5.254e-3
-1.405, 5.362e-3
-1.406, 5.473e-3
-1.407, 5.584e-3
-1.408, 5.695e-3
-1.409, 5.803e-3
-1.410, 5.907e-3
-1.411, 6.018e-3
-1.412, 6.139e-3
-1.413, 6.262e-3
-1.414, 6.385e-3
-1.415, 6.499e-3
-1.416, 6.604e-3
-1.417, 6.706e-3
-1.418, 6.814e-3
-1.419, 6.922e-3
-1.420, 7.033e-3
-1.421, 7.147e-3
-1.422, 7.255e-3
-1.423, 7.369e-3
-1.424, 7.480e-3
-1.425, 7.591e-3
-1.426, 7.705e-3
-1.427, 7.819e-3
-1.428, 7.933e-3
-1.429, 8.047e-3
-1.430, 8.158e-3
-1.431, 8.269e-3
-1.432, 8.386e-3
-1.433, 8.510e-3
-1.434, 8.630e-3
-1.435, 8.756e-3
-1.436, 8.883e-3
-1.437, 9.006e-3
-1.438, 9.135e-3
-1.439, 9.271e-3
-1.440, 9.410e-3
-1.441, 9.542e-3
-1.442, 9.675e-3
-1.443, 9.804e-3
-1.444, 9.934e-3
-1.445, 1.007e-2
-1.446, 1.020e-2
-1.447, 1.034e-2
-1.448, 1.048e-2
-1.449, 1.061e-2
-1.450, 1.074e-2
-1.451, 1.088e-2
-1.452, 1.103e-2
-1.453, 1.117e-2
-1.454, 1.132e-2
-1.455, 1.145e-2
-1.456, 1.159e-2
-1.457, 1.172e-2
-1.458, 1.185e-2
-1.459, 1.198e-2
-1.460, 1.212e-2
-1.461, 1.226e-2
-1.462, 1.239e-2
-1.463, 1.252e-2
-1.464, 1.265e-2
-1.465, 1.279e-2
-1.466, 1.292e-2
-1.467, 1.306e-2
-1.468, 1.320e-2
-1.469, 1.333e-2
-1.470, 1.346e-2
-1.471, 1.359e-2
-1.472, 1.372e-2
-1.473, 1.385e-2
-1.474, 1.398e-2
-1.475, 1.410e-2
-1.476, 1.423e-2
-1.477, 1.436e-2
-1.478, 1.448e-2
-1.479, 1.462e-2
-1.480, 1.476e-2
-1.481, 1.490e-2
-1.482, 1.504e-2
-1.483, 1.518e-2
-1.484, 1.531e-2
-1.485, 1.545e-2
-1.486, 1.559e-2
-1.487, 1.573e-2
-1.488, 1.586e-2
-1.489, 1.599e-2
-1.490, 1.612e-2
-1.491, 1.625e-2
-1.492, 1.638e-2
-1.493, 1.652e-2
-1.494, 1.666e-2
-1.495, 1.678e-2
-1.496, 1.691e-2
-1.497, 1.703e-2
-1.498, 1.716e-2
-1.499, 1.729e-2
-1.500, 1.732e-2
-1.499, 1.719e-2
-1.498, 1.706e-2
-1.497, 1.693e-2
-1.496, 1.680e-2
-1.495, 1.667e-2
-1.494, 1.654e-2
-1.493, 1.642e-2
-1.492, 1.629e-2
-1.491, 1.614e-2
-1.490, 1.599e-2
-1.489, 1.584e-2
-1.488, 1.568e-2
-1.487, 1.554e-2
-1.486, 1.540e-2
-1.485, 1.527e-2
-1.484, 1.513e-2
-1.483, 1.498e-2
-1.482, 1.483e-2
-1.481, 1.469e-2
-1.480, 1.457e-2
-1.479, 1.444e-2
-1.478, 1.431e-2
-1.477, 1.418e-2
-1.476, 1.405e-2
-1.475, 1.393e-2
-1.474, 1.381e-2
-1.473, 1.367e-2
-1.472, 1.354e-2
-1.471, 1.341e-2
-1.470, 1.328e-2
-1.469, 1.315e-2
-1.468, 1.303e-2
-1.467, 1.292e-2
-1.466, 1.280e-2
-1.465, 1.267e-2
-1.464, 1.255e-2
-1.463, 1.242e-2
-1.462, 1.230e-2
-1.461, 1.218e-2
-1.460, 1.207e-2
-1.459, 1.195e-2
-1.458, 1.183e-2
-1.457, 1.171e-2
-1.456, 1.159e-2
-1.455, 1.146e-2
-1.454, 1.134e-2
-1.453, 1.122e-2
-1.452, 1.110e-2
-1.451, 1.096e-2
-1.450, 1.083e-2
-1.449, 1.070e-2
-1.448, 1.058e-2
-1.447, 1.045e-2
-1.446, 1.033e-2
-1.445, 1.021e-2
-1.444, 1.009e-2
-1.443, 9.968e-3
-1.442, 9.845e-3
-1.441, 9.727e-3
-1.440, 9.610e-3
-1.439, 9.490e-3
-1.438, 9.370e-3
-1.437, 9.246e-3
-1.436, 9.123e-3
-1.435, 9.006e-3
-1.434, 8.889e-3
-1.433, 8.765e-3
-1.432, 8.648e-3
-1.431, 8.540e-3
-1.430, 8.436e-3
-1.429, 8.321e-3
-1.428, 8.210e-3
-1.427, 8.099e-3
-1.426, 7.988e-3
-1.425, 7.874e-3
-1.424, 7.770e-3
-1.423, 7.662e-3
-1.422, 7.554e-3
-1.421, 7.449e-3
-1.420, 7.347e-3
-1.419, 7.245e-3
-1.418, 7.141e-3
-1.417, 7.030e-3
-1.416, 6.922e-3
-1.415, 6.817e-3
-1.414, 6.718e-3
-1.413, 6.620e-3
-1.412, 6.521e-3
-1.411, 6.422e-3
-1.410, 6.321e-3
-1.409, 6.219e-3
-1.408, 6.123e-3
-1.407, 6.031e-3
-1.406, 5.935e-3
-1.405, 5.843e-3
-1.404, 5.747e-3
-1.403, 5.651e-3
-1.402, 5.556e-3
-1.401, 5.467e-3
-1.400, 5.377e-3
-1.399, 5.288e-3
-1.398, 5.198e-3
-1.397, 5.109e-3
-1.396, 5.016e-3
-1.395, 4.933e-3
-1.394, 4.847e-3
-1.393, 4.764e-3
-1.392, 4.680e-3
-1.391, 4.594e-3
-1.390, 4.508e-3
-1.389, 4.424e-3
-1.388, 4.344e-3
-1.387, 4.267e-3
-1.386, 4.187e-3
-1.385, 4.110e-3
-1.384, 4.033e-3
-1.383, 3.953e-3
-1.382, 3.873e-3
-1.381, 3.802e-3
-1.380, 3.728e-3
-1.379, 3.657e-3
-1.378, 3.580e-3
-1.377, 3.509e-3
-1.376, 3.435e-3
-1.375, 3.364e-3
-1.374, 3.293e-3
-1.373, 3.225e-3
-1.372, 3.160e-3
-1.371, 3.089e-3
-1.370, 3.022e-3
-1.369, 2.954e-3
-1.368, 2.889e-3
-1.367, 2.827e-3
-1.366, 2.766e-3
-1.365, 2.704e-3
-1.364, 2.639e-3
-1.363, 2.578e-3
-1.362, 2.516e-3
-1.361, 2.460e-3
-1.360, 2.405e-3
-1.359, 2.346e-3
-1.358, 2.291e-3
-1.357, 2.235e-3
-1.356, 2.180e-3
-1.355, 2.131e-3
-1.354, 2.078e-3
-1.353, 2.029e-3
-1.352, 1.976e-3
-1.351, 1.927e-3
-1.350, 1.878e-3
-1.349, 1.828e-3
-1.348, 1.782e-3
-1.347, 1.739e-3
-1.346, 1.693e-3
-1.345, 1.647e-3
-1.344, 1.603e-3
-1.343, 1.557e-3
-1.342, 1.517e-3
-1.341, 1.477e-3
-1.340, 1.437e-3
-1.339, 1.400e-3
-1.338, 1.360e-3
-1.337, 1.320e-3
-1.336, 1.283e-3
-1.335, 1.249e-3
-1.334, 1.215e-3
-1.333, 1.181e-3
-1.332, 1.147e-3
-1.331, 1.116e-3
-1.330, 1.082e-3
-1.329, 1.048e-3
-1.328, 1.021e-3
-1.327, 9.929e-4
-1.326, 9.621e-4
-1.325, 9.343e-4
-1.324, 9.066e-4
-1.323, 8.788e-4
-1.322, 8.511e-4
-1.321, 8.264e-4
-1.320, 8.018e-4
-1.319, 7.771e-4
-1.318, 7.494e-4
-1.317, 7.278e-4
-1.316, 7.031e-4
-1.315, 6.815e-4
-1.314, 6.599e-4
-1.313, 6.384e-4
-1.312, 6.199e-4
-1.311, 5.983e-4
-1.310, 5.767e-4
-1.309, 5.582e-4
-1.308, 5.397e-4
-1.307, 5.243e-4
-1.306, 5.058e-4
-1.305, 4.873e-4
-1.304, 4.719e-4
-1.303, 4.534e-4
-1.302, 4.380e-4
-1.301, 4.225e-4
-1.300, 4.102e-4
-1.299, 3.948e-4
-1.298, 3.794e-4
-1.297, 3.640e-4
-1.296, 3.516e-4
-1.295, 3.362e-4
-1.294, 3.270e-4
-1.293, 3.146e-4
-1.292, 3.023e-4
-1.291, 2.900e-4
-1.290, 2.776e-4
-1.289, 2.653e-4
-1.288, 2.561e-4
-1.287, 2.468e-4
-1.286, 2.376e-4
-1.285, 2.283e-4
-1.284, 2.160e-4
-1.283, 2.067e-4
-1.282, 1.975e-4
-1.281, 1.913e-4
-1.280, 1.821e-4
-1.279, 1.759e-4
-1.278, 1.666e-4
-1.277, 1.574e-4
-1.276, 1.481e-4
-1.275, 1.420e-4
-1.274, 1.358e-4
-1.273, 1.296e-4
-1.272, 1.235e-4
-1.271, 1.142e-4
-1.270, 1.081e-4
-1.269, 1.019e-4
-1.268, 9.573e-5
-1.267, 9.265e-5
-1.266, 8.648e-5
-1.265, 8.032e-5
-1.264, 7.415e-5
-1.263, 6.798e-5
-1.262, 6.182e-5
-1.261, 5.873e-5
-1.260, 5.565e-5
-1.259, 4.949e-5
-1.258, 4.332e-5
-1.257, 4.024e-5
-1.256, 3.407e-5
-1.255, 3.099e-5
-1.254, 2.790e-5
-1.253, 2.482e-5
-1.252, 1.865e-5
-1.251, 1.557e-5
-1.250, 9.405e-6
-1.249, 6.322e-6
-1.248, 3.239e-6
-1.247, 3.239e-6
-1.246, 1.559e-7
-1.245, -2.927e-6
-1.244, -9.093e-6
-1.243, -1.218e-5
-1.242, -1.526e-5
-1.241, -1.526e-5
-1.240, -1.834e-5
-1.239, -2.143e-5
-1.238, -2.451e-5
-1.237, -2.759e-5
-1.236, -3.068e-5
-1.235, -3.376e-5
-1.234, -3.376e-5
-1.233, -3.684e-5
-1.232, -3.684e-5
-1.231, -4.301e-5
-1.230, -4.609e-5
-1.229, -4.917e-5
-1.228, -4.917e-5
-1.227, -4.917e-5
-1.226, -5.226e-5
-1.225, -5.534e-5
-1.224, -5.842e-5
-1.223, -5.842e-5
-1.222, -6.151e-5
-1.221, -6.151e-5
-1.220, -6.151e-5
-1.219, -6.459e-5
-1.218, -6.767e-5
-1.217, -7.076e-5
-1.216, -7.076e-5
-1.215, -7.384e-5
-1.214, -7.384e-5
-1.213, -7.384e-5
-1.212, -7.692e-5
-1.211, -8.000e-5
-1.210, -8.309e-5
-1.209, -8.309e-5
-1.208, -8.309e-5
-1.207, -8.309e-5
-1.206, -8.617e-5
-1.205, -8.617e-5
-1.204, -8.925e-5
-1.203, -9.234e-5
-1.202, -9.542e-5
-1.201, -9.234e-5
-1.200, -9.234e-5
-1.199, -9.542e-5
-1.198, -9.850e-5
-1.197, -9.850e-5
-1.196, -1.016e-4
-1.195, -1.016e-4
-1.194, -1.016e-4
-1.193, -1.016e-4
-1.192, -1.047e-4
-1.191, -1.078e-4
-1.190, -1.078e-4
-1.189, -1.078e-4
-1.188, -1.108e-4
-1.187, -1.078e-4
-1.186, -1.108e-4
-1.185, -1.139e-4
-1.184, -1.139e-4
-1.183, -1.170e-4
-1.182, -1.170e-4
-1.181, -1.170e-4
-1.180, -1.170e-4
-1.179, -1.170e-4
-1.178, -1.201e-4
-1.177, -1.232e-4
-1.176, -1.263e-4
-1.175, -1.232e-4
-1.174, -1.263e-4
-1.173, -1.232e-4
-1.172, -1.263e-4
-1.171, -1.293e-4
-1.170, -1.293e-4
-1.169, -1.324e-4
-1.168, -1.324e-4
-1.167, -1.324e-4
-1.166, -1.324e-4
-1.165, -1.324e-4
-1.164, -1.355e-4
-1.163, -1.386e-4
-1.162, -1.386e-4
-1.161, -1.386e-4
-1.160, -1.386e-4
-1.159, -1.417e-4
-1.158, -1.417e-4
-1.157, -1.448e-4
-1.156, -1.478e-4
-1.155, -1.448e-4
-1.154, -1.448e-4
-1.153, -1.478e-4
-1.152, -1.478e-4
-1.151, -1.509e-4
-1.150, -1.540e-4
-1.149, -1.540e-4
-1.148, -1.540e-4
-1.147, -1.540e-4
-1.146, -1.540e-4
-1.145, -1.571e-4
-1.144, -1.602e-4
-1.143, -1.632e-4
-1.142, -1.632e-4
-1.141, -1.632e-4
-1.140, -1.632e-4
-1.139, -1.632e-4
-1.138, -1.663e-4
-1.137, -1.694e-4
-1.136, -1.694e-4
-1.135, -1.694e-4
-1.134, -1.694e-4
-1.133, -1.694e-4
-1.132, -1.725e-4
-1.131, -1.725e-4
-1.130, -1.756e-4
-1.129, -1.756e-4
-1.128, -1.756e-4
-1.127, -1.756e-4
-1.126, -1.787e-4
-1.125, -1.787e-4
-1.124, -1.817e-4
-1.123, -1.848e-4
-1.122, -1.848e-4
-1.121, -1.848e-4
-1.120, -1.848e-4
-1.119, -1.848e-4
-1.118, -1.879e-4
-1.117, -1.879e-4
-1.116, -1.910e-4
-1.115, -1.941e-4
-1.114, -1.910e-4
-1.113, -1.910e-4
-1.112, -1.910e-4
-1.111, -1.972e-4
-1.110, -2.002e-4
-1.109, -2.002e-4
-1.108, -2.002e-4
-1.107, -2.002e-4
-1.106, -2.002e-4
-1.105, -2.033e-4
-1.104, -2.064e-4
-1.103, -2.064e-4
-1.102, -2.095e-4
-1.101, -2.064e-4
-1.100, -2.095e-4
-1.099, -2.095e-4
-1.098, -2.126e-4
-1.097, -2.157e-4
-1.096, -2.157e-4
-1.095, -2.157e-4
-1.094, -2.157e-4
-1.093, -2.157e-4
-1.092, -2.187e-4
-1.091, -2.218e-4
-1.090, -2.218e-4
-1.089, -2.249e-4
-1.088, -2.249e-4
-1.087, -2.249e-4
-1.086, -2.249e-4
-1.085, -2.280e-4
-1.084, -2.311e-4
-1.083, -2.342e-4
-1.082, -2.342e-4
-1.081, -2.342e-4
-1.080, -2.342e-4
-1.079, -2.342e-4
-1.078, -2.372e-4
-1.077, -2.403e-4
-1.076, -2.434e-4
-1.075, -2.434e-4
-1.074, -2.434e-4
-1.073, -2.434e-4
-1.072, -2.465e-4
-1.071, -2.496e-4
-1.070, -2.496e-4
-1.069, -2.527e-4
-1.068, -2.527e-4
-1.067, -2.527e-4
-1.066, -2.527e-4
-1.065, -2.557e-4
-1.064, -2.588e-4
-1.063, -2.619e-4
-1.062, -2.619e-4
-1.061, -2.650e-4
-1.060, -2.619e-4
-1.059, -2.650e-4
-1.058, -2.650e-4
-1.057, -2.712e-4
-1.056, -2.712e-4
-1.055, -2.712e-4
-1.054, -2.712e-4
-1.053, -2.712e-4
-1.052, -2.742e-4
-1.051, -2.773e-4
-1.050, -2.804e-4
-1.049, -2.835e-4
-1.048, -2.835e-4
-1.047, -2.835e-4
-1.046, -2.835e-4
-1.045, -2.866e-4
-1.044, -2.897e-4
-1.043, -2.927e-4
-1.042, -2.927e-4
-1.041, -2.958e-4
-1.040, -2.927e-4
-1.039, -2.958e-4
-1.038, -2.989e-4
-1.037, -3.020e-4
-1.036, -3.051e-4
-1.035, -3.051e-4
-1.034, -3.051e-4
-1.033, -3.082e-4
-1.032, -3.082e-4
-1.031, -3.112e-4
-1.030, -3.174e-4
-1.029, -3.174e-4
-1.028, -3.205e-4
-1.027, -3.205e-4
-1.026, -3.205e-4
-1.025, -3.236e-4
-1.024, -3.267e-4
-1.023, -3.297e-4
-1.022, -3.328e-4
-1.021, -3.297e-4
-1.020, -3.328e-4
-1.019, -3.359e-4
-1.018, -3.390e-4
-1.017, -3.421e-4
-1.016, -3.452e-4
-1.015, -3.452e-4
-1.014, -3.452e-4
-1.013, -3.482e-4
-1.012, -3.513e-4
-1.011, -3.544e-4
-1.010, -3.575e-4
-1.009, -3.606e-4
-1.008, -3.606e-4
-1.007, -3.637e-4
-1.006, -3.637e-4
-1.005, -3.667e-4
-1.004, -3.698e-4
-1.003, -3.729e-4
-1.002, -3.760e-4
-1.001, -3.791e-4
