Apr. 9, 2025   14:48:46
Cyclic Voltammetry
File: c:/users/guazh/data/banditlqround7_x0exp994_r5/2025-03-28-exp1029\exp1029-2025-04-09t14_39_36-h2koh\exp1029_cv_sr_50mvs_efin_-1500mv.bin
Data Source:  Experiment
Instrument Model:  CHI760E
Header: CV ran at 50 mVs
Note: 

Init E (V) = -1
High E (V) = -1
Low E (V) = -1.5
Final E (V) = -1
Init P/N = N
Scan Rate (V/s) = 0.05
Segment = 3
Sample Interval (V) = 0.001
Quiet Time (sec) = 2
Sensitivity (A/V) = 0.01
Comp R (ohm) = 1.7

Results:

Channel 1:
Segment 1:

Segment 2:

Segment 3:

Potential/V, Current/A

-1.000, -9.089e-6
-1.001, -4.955e-6
-1.002, -2.705e-6
-1.003, -1.492e-6
-1.004, -2.684e-7
-1.005, 8.860e-7
-1.006, 2.099e-6
-1.007, 3.303e-6
-1.008, 4.004e-6
-1.009, 4.684e-6
-1.010, 5.405e-6
-1.011, 6.322e-6
-1.012, 7.378e-6
-1.013, 8.039e-6
-1.014, 8.187e-6
-1.015, 8.828e-6
-1.016, 9.538e-6
-1.017, 1.043e-5
-1.018, 1.086e-5
-1.019, 1.099e-5
-1.020, 1.149e-5
-1.021, 1.219e-5
-1.022, 1.281e-5
-1.023, 1.318e-5
-1.024, 1.352e-5
-1.025, 1.381e-5
-1.026, 1.449e-5
-1.027, 1.503e-5
-1.028, 1.528e-5
-1.029, 1.538e-5
-1.030, 1.564e-5
-1.031, 1.622e-5
-1.032, 1.677e-5
-1.033, 1.705e-5
-1.034, 1.710e-5
-1.035, 1.715e-5
-1.036, 1.788e-5
-1.037, 1.842e-5
-1.038, 1.850e-5
-1.039, 1.859e-5
-1.040, 1.869e-5
-1.041, 1.919e-5
-1.042, 1.989e-5
-1.043, 1.983e-5
-1.044, 1.990e-5
-1.045, 2.003e-5
-1.046, 2.064e-5
-1.047, 2.098e-5
-1.048, 2.103e-5
-1.049, 2.098e-5
-1.050, 2.122e-5
-1.051, 2.164e-5
-1.052, 2.208e-5
-1.053, 2.221e-5
-1.054, 2.200e-5
-1.055, 2.228e-5
-1.056, 2.252e-5
-1.057, 2.311e-5
-1.058, 2.307e-5
-1.059, 2.301e-5
-1.060, 2.311e-5
-1.061, 2.355e-5
-1.062, 2.392e-5
-1.063, 2.404e-5
-1.064, 2.374e-5
-1.065, 2.390e-5
-1.066, 2.437e-5
-1.067, 2.474e-5
-1.068, 2.473e-5
-1.069, 2.465e-5
-1.070, 2.472e-5
-1.071, 2.523e-5
-1.072, 2.551e-5
-1.073, 2.544e-5
-1.074, 2.536e-5
-1.075, 2.554e-5
-1.076, 2.593e-5
-1.077, 2.626e-5
-1.078, 2.615e-5
-1.079, 2.618e-5
-1.080, 2.612e-5
-1.081, 2.648e-5
-1.082, 2.708e-5
-1.083, 2.679e-5
-1.084, 2.675e-5
-1.085, 2.674e-5
-1.086, 2.706e-5
-1.087, 2.754e-5
-1.088, 2.747e-5
-1.089, 2.727e-5
-1.090, 2.742e-5
-1.091, 2.757e-5
-1.092, 2.803e-5
-1.093, 2.807e-5
-1.094, 2.785e-5
-1.095, 2.805e-5
-1.096, 2.819e-5
-1.097, 2.846e-5
-1.098, 2.857e-5
-1.099, 2.822e-5
-1.100, 2.851e-5
-1.101, 2.889e-5
-1.102, 2.913e-5
-1.103, 2.911e-5
-1.104, 2.878e-5
-1.105, 2.897e-5
-1.106, 2.933e-5
-1.107, 2.960e-5
-1.108, 2.969e-5
-1.109, 2.936e-5
-1.110, 2.944e-5
-1.111, 2.977e-5
-1.112, 2.998e-5
-1.113, 3.004e-5
-1.114, 2.990e-5
-1.115, 2.969e-5
-1.116, 3.014e-5
-1.117, 3.054e-5
-1.118, 3.031e-5
-1.119, 3.022e-5
-1.120, 3.030e-5
-1.121, 3.053e-5
-1.122, 3.081e-5
-1.123, 3.078e-5
-1.124, 3.058e-5
-1.125, 3.065e-5
-1.126, 3.091e-5
-1.127, 3.127e-5
-1.128, 3.126e-5
-1.129, 3.075e-5
-1.130, 3.107e-5
-1.131, 3.122e-5
-1.132, 3.159e-5
-1.133, 3.152e-5
-1.134, 3.122e-5
-1.135, 3.130e-5
-1.136, 3.150e-5
-1.137, 3.192e-5
-1.138, 3.176e-5
-1.139, 3.144e-5
-1.140, 3.154e-5
-1.141, 3.189e-5
-1.142, 3.206e-5
-1.143, 3.211e-5
-1.144, 3.173e-5
-1.145, 3.170e-5
-1.146, 3.224e-5
-1.147, 3.242e-5
-1.148, 3.215e-5
-1.149, 3.191e-5
-1.150, 3.195e-5
-1.151, 3.219e-5
-1.152, 3.250e-5
-1.153, 3.234e-5
-1.154, 3.218e-5
-1.155, 3.211e-5
-1.156, 3.240e-5
-1.157, 3.266e-5
-1.158, 3.248e-5
-1.159, 3.243e-5
-1.160, 3.227e-5
-1.161, 3.257e-5
-1.162, 3.283e-5
-1.163, 3.270e-5
-1.164, 3.253e-5
-1.165, 3.246e-5
-1.166, 3.277e-5
-1.167, 3.306e-5
-1.168, 3.285e-5
-1.169, 3.258e-5
-1.170, 3.268e-5
-1.171, 3.287e-5
-1.172, 3.316e-5
-1.173, 3.289e-5
-1.174, 3.265e-5
-1.175, 3.271e-5
-1.176, 3.297e-5
-1.177, 3.336e-5
-1.178, 3.323e-5
-1.179, 3.287e-5
-1.180, 3.300e-5
-1.181, 3.312e-5
-1.182, 3.331e-5
-1.183, 3.328e-5
-1.184, 3.279e-5
-1.185, 3.290e-5
-1.186, 3.314e-5
-1.187, 3.327e-5
-1.188, 3.333e-5
-1.189, 3.293e-5
-1.190, 3.294e-5
-1.191, 3.341e-5
-1.192, 3.363e-5
-1.193, 3.340e-5
-1.194, 3.325e-5
-1.195, 3.321e-5
-1.196, 3.337e-5
-1.197, 3.371e-5
-1.198, 3.365e-5
-1.199, 3.340e-5
-1.200, 3.327e-5
-1.201, 3.348e-5
-1.202, 3.386e-5
-1.203, 3.375e-5
-1.204, 3.360e-5
-1.205, 3.353e-5
-1.206, 3.380e-5
-1.207, 3.421e-5
-1.208, 3.394e-5
-1.209, 3.366e-5
-1.210, 3.387e-5
-1.211, 3.411e-5
-1.212, 3.429e-5
-1.213, 3.428e-5
-1.214, 3.402e-5
-1.215, 3.416e-5
-1.216, 3.441e-5
-1.217, 3.479e-5
-1.218, 3.471e-5
-1.219, 3.453e-5
-1.220, 3.462e-5
-1.221, 3.494e-5
-1.222, 3.523e-5
-1.223, 3.523e-5
-1.224, 3.483e-5
-1.225, 3.502e-5
-1.226, 3.555e-5
-1.227, 3.566e-5
-1.228, 3.587e-5
-1.229, 3.578e-5
-1.230, 3.575e-5
-1.231, 3.628e-5
-1.232, 3.652e-5
-1.233, 3.642e-5
-1.234, 3.643e-5
-1.235, 3.662e-5
-1.236, 3.702e-5
-1.237, 3.739e-5
-1.238, 3.728e-5
-1.239, 3.747e-5
-1.240, 3.764e-5
-1.241, 3.807e-5
-1.242, 3.870e-5
-1.243, 3.865e-5
-1.244, 3.870e-5
-1.245, 3.900e-5
-1.246, 3.958e-5
-1.247, 3.991e-5
-1.248, 4.009e-5
-1.249, 4.019e-5
-1.250, 4.062e-5
-1.251, 4.121e-5
-1.252, 4.177e-5
-1.253, 4.213e-5
-1.254, 4.233e-5
-1.255, 4.284e-5
-1.256, 4.348e-5
-1.257, 4.414e-5
-1.258, 4.460e-5
-1.259, 4.495e-5
-1.260, 4.555e-5
-1.261, 4.649e-5
-1.262, 4.727e-5
-1.263, 4.795e-5
-1.264, 4.835e-5
-1.265, 4.910e-5
-1.266, 5.018e-5
-1.267, 5.130e-5
-1.268, 5.213e-5
-1.269, 5.288e-5
-1.270, 5.391e-5
-1.271, 5.542e-5
-1.272, 5.653e-5
-1.273, 5.767e-5
-1.274, 5.891e-5
-1.275, 6.024e-5
-1.276, 6.201e-5
-1.277, 6.379e-5
-1.278, 6.529e-5
-1.279, 6.690e-5
-1.280, 6.889e-5
-1.281, 7.103e-5
-1.282, 7.348e-5
-1.283, 7.548e-5
-1.284, 7.783e-5
-1.285, 8.047e-5
-1.286, 8.347e-5
-1.287, 8.673e-5
-1.288, 8.972e-5
-1.289, 9.275e-5
-1.290, 9.639e-5
-1.291, 1.004e-4
-1.292, 1.048e-4
-1.293, 1.090e-4
-1.294, 1.133e-4
-1.295, 1.184e-4
-1.296, 1.238e-4
-1.297, 1.294e-4
-1.298, 1.353e-4
-1.299, 1.415e-4
-1.300, 1.483e-4
-1.301, 1.556e-4
-1.302, 1.634e-4
-1.303, 1.714e-4
-1.304, 1.794e-4
-1.305, 1.884e-4
-1.306, 1.981e-4
-1.307, 2.082e-4
-1.308, 2.185e-4
-1.309, 2.292e-4
-1.310, 2.406e-4
-1.311, 2.529e-4
-1.312, 2.661e-4
-1.313, 2.793e-4
-1.314, 2.931e-4
-1.315, 3.077e-4
-1.316, 3.234e-4
-1.317, 3.398e-4
-1.318, 3.564e-4
-1.319, 3.738e-4
-1.320, 3.921e-4
-1.321, 4.112e-4
-1.322, 4.309e-4
-1.323, 4.513e-4
-1.324, 4.730e-4
-1.325, 4.954e-4
-1.326, 5.189e-4
-1.327, 5.434e-4
-1.328, 5.685e-4
-1.329, 5.941e-4
-1.330, 6.208e-4
-1.331, 6.486e-4
-1.332, 6.778e-4
-1.333, 7.077e-4
-1.334, 7.382e-4
-1.335, 7.700e-4
-1.336, 8.034e-4
-1.337, 8.386e-4
-1.338, 8.739e-4
-1.339, 9.100e-4
-1.340, 9.475e-4
-1.341, 9.863e-4
-1.342, 1.025e-3
-1.343, 1.066e-3
-1.344, 1.108e-3
-1.345, 1.151e-3
-1.346, 1.196e-3
-1.347, 1.242e-3
-1.348, 1.289e-3
-1.349, 1.337e-3
-1.350, 1.385e-3
-1.351, 1.434e-3
-1.352, 1.487e-3
-1.353, 1.541e-3
-1.354, 1.595e-3
-1.355, 1.651e-3
-1.356, 1.709e-3
-1.357, 1.769e-3
-1.358, 1.827e-3
-1.359, 1.887e-3
-1.360, 1.948e-3
-1.361, 2.009e-3
-1.362, 2.072e-3
-1.363, 2.135e-3
-1.364, 2.202e-3
-1.365, 2.270e-3
-1.366, 2.340e-3
-1.367, 2.416e-3
-1.368, 2.491e-3
-1.369, 2.563e-3
-1.370, 2.638e-3
-1.371, 2.707e-3
-1.372, 2.777e-3
-1.373, 2.852e-3
-1.374, 2.931e-3
-1.375, 3.012e-3
-1.376, 3.089e-3
-1.377, 3.163e-3
-1.378, 3.242e-3
-1.379, 3.332e-3
-1.380, 3.423e-3
-1.381, 3.508e-3
-1.382, 3.583e-3
-1.383, 3.675e-3
-1.384, 3.761e-3
-1.385, 3.848e-3
-1.386, 3.941e-3
-1.387, 4.038e-3
-1.388, 4.121e-3
-1.389, 4.201e-3
-1.390, 4.298e-3
-1.391, 4.386e-3
-1.392, 4.480e-3
-1.393, 4.588e-3
-1.394, 4.693e-3
-1.395, 4.789e-3
-1.396, 4.883e-3
-1.397, 4.973e-3
-1.398, 5.066e-3
-1.399, 5.159e-3
-1.400, 5.254e-3
-1.401, 5.342e-3
-1.402, 5.451e-3
-1.403, 5.566e-3
-1.404, 5.681e-3
-1.405, 5.783e-3
-1.406, 5.880e-3
-1.407, 5.986e-3
-1.408, 6.097e-3
-1.409, 6.196e-3
-1.410, 6.298e-3
-1.411, 6.401e-3
-1.412, 6.528e-3
-1.413, 6.619e-3
-1.414, 6.711e-3
-1.415, 6.807e-3
-1.416, 6.923e-3
-1.417, 7.043e-3
-1.418, 7.158e-3
-1.419, 7.267e-3
-1.420, 7.359e-3
-1.421, 7.453e-3
-1.422, 7.555e-3
-1.423, 7.660e-3
-1.424, 7.765e-3
-1.425, 7.857e-3
-1.426, 7.949e-3
-1.427, 8.058e-3
-1.428, 8.148e-3
-1.429, 8.234e-3
-1.430, 8.318e-3
-1.431, 8.387e-3
-1.432, 8.493e-3
-1.433, 8.583e-3
-1.434, 8.705e-3
-1.435, 8.797e-3
-1.436, 8.868e-3
-1.437, 8.950e-3
-1.438, 9.022e-3
-1.439, 9.086e-3
-1.440, 9.162e-3
-1.441, 9.240e-3
-1.442, 9.333e-3
-1.443, 9.421e-3
-1.444, 9.498e-3
-1.445, 9.570e-3
-1.446, 9.633e-3
-1.447, 9.694e-3
-1.448, 9.748e-3
-1.449, 9.805e-3
-1.450, 9.889e-3
-1.451, 9.980e-3
-1.452, 1.008e-2
-1.453, 1.015e-2
-1.454, 1.024e-2
-1.455, 1.032e-2
-1.456, 1.040e-2
-1.457, 1.047e-2
-1.458, 1.051e-2
-1.459, 1.059e-2
-1.460, 1.066e-2
-1.461, 1.071e-2
-1.462, 1.079e-2
-1.463, 1.088e-2
-1.464, 1.101e-2
-1.465, 1.108e-2
-1.466, 1.113e-2
-1.467, 1.118e-2
-1.468, 1.122e-2
-1.469, 1.128e-2
-1.470, 1.135e-2
-1.471, 1.148e-2
-1.472, 1.159e-2
-1.473, 1.172e-2
-1.474, 1.177e-2
-1.475, 1.184e-2
-1.476, 1.189e-2
-1.477, 1.195e-2
-1.478, 1.201e-2
-1.479, 1.209e-2
-1.480, 1.216e-2
-1.481, 1.222e-2
-1.482, 1.229e-2
-1.483, 1.237e-2
-1.484, 1.242e-2
-1.485, 1.246e-2
-1.486, 1.254e-2
-1.487, 1.270e-2
-1.488, 1.281e-2
-1.489, 1.289e-2
-1.490, 1.292e-2
-1.491, 1.298e-2
-1.492, 1.306e-2
-1.493, 1.316e-2
-1.494, 1.320e-2
-1.495, 1.331e-2
-1.496, 1.344e-2
-1.497, 1.355e-2
-1.498, 1.361e-2
-1.499, 1.369e-2
-1.500, 1.377e-2
-1.499, 1.367e-2
-1.498, 1.358e-2
-1.497, 1.353e-2
-1.496, 1.351e-2
-1.495, 1.344e-2
-1.494, 1.334e-2
-1.493, 1.328e-2
-1.492, 1.321e-2
-1.491, 1.312e-2
-1.490, 1.299e-2
-1.489, 1.282e-2
-1.488, 1.271e-2
-1.487, 1.256e-2
-1.486, 1.241e-2
-1.485, 1.233e-2
-1.484, 1.224e-2
-1.483, 1.214e-2
-1.482, 1.197e-2
-1.481, 1.184e-2
-1.480, 1.174e-2
-1.479, 1.169e-2
-1.478, 1.159e-2
-1.477, 1.153e-2
-1.476, 1.139e-2
-1.475, 1.125e-2
-1.474, 1.110e-2
-1.473, 1.096e-2
-1.472, 1.081e-2
-1.471, 1.072e-2
-1.470, 1.060e-2
-1.469, 1.046e-2
-1.468, 1.036e-2
-1.467, 1.021e-2
-1.466, 1.011e-2
-1.465, 1.003e-2
-1.464, 9.905e-3
-1.463, 9.788e-3
-1.462, 9.692e-3
-1.461, 9.587e-3
-1.460, 9.495e-3
-1.459, 9.411e-3
-1.458, 9.336e-3
-1.457, 9.269e-3
-1.456, 9.177e-3
-1.455, 9.080e-3
-1.454, 8.975e-3
-1.453, 8.860e-3
-1.452, 8.805e-3
-1.451, 8.683e-3
-1.450, 8.553e-3
-1.449, 8.455e-3
-1.448, 8.360e-3
-1.447, 8.265e-3
-1.446, 8.157e-3
-1.445, 8.057e-3
-1.444, 7.960e-3
-1.443, 7.858e-3
-1.442, 7.771e-3
-1.441, 7.721e-3
-1.440, 7.631e-3
-1.439, 7.530e-3
-1.438, 7.503e-3
-1.437, 7.421e-3
-1.436, 7.300e-3
-1.435, 7.173e-3
-1.434, 7.053e-3
-1.433, 6.959e-3
-1.432, 6.852e-3
-1.431, 6.743e-3
-1.430, 6.639e-3
-1.429, 6.545e-3
-1.428, 6.456e-3
-1.427, 6.370e-3
-1.426, 6.272e-3
-1.425, 6.193e-3
-1.424, 6.141e-3
-1.423, 6.046e-3
-1.422, 5.962e-3
-1.421, 5.878e-3
-1.420, 5.794e-3
-1.419, 5.702e-3
-1.418, 5.608e-3
-1.417, 5.514e-3
-1.416, 5.422e-3
-1.415, 5.336e-3
-1.414, 5.246e-3
-1.413, 5.168e-3
-1.412, 5.075e-3
-1.411, 4.982e-3
-1.410, 4.896e-3
-1.409, 4.809e-3
-1.408, 4.727e-3
-1.407, 4.642e-3
-1.406, 4.569e-3
-1.405, 4.488e-3
-1.404, 4.410e-3
-1.403, 4.336e-3
-1.402, 4.260e-3
-1.401, 4.175e-3
-1.400, 4.089e-3
-1.399, 4.003e-3
-1.398, 3.921e-3
-1.397, 3.841e-3
-1.396, 3.765e-3
-1.395, 3.698e-3
-1.394, 3.630e-3
-1.393, 3.558e-3
-1.392, 3.485e-3
-1.391, 3.409e-3
-1.390, 3.338e-3
-1.389, 3.269e-3
-1.388, 3.199e-3
-1.387, 3.137e-3
-1.386, 3.075e-3
-1.385, 3.002e-3
-1.384, 2.934e-3
-1.383, 2.866e-3
-1.382, 2.800e-3
-1.381, 2.740e-3
-1.380, 2.677e-3
-1.379, 2.614e-3
-1.378, 2.556e-3
-1.377, 2.495e-3
-1.376, 2.431e-3
-1.375, 2.366e-3
-1.374, 2.304e-3
-1.373, 2.244e-3
-1.372, 2.190e-3
-1.371, 2.136e-3
-1.370, 2.080e-3
-1.369, 2.025e-3
-1.368, 1.972e-3
-1.367, 1.919e-3
-1.366, 1.867e-3
-1.365, 1.818e-3
-1.364, 1.770e-3
-1.363, 1.722e-3
-1.362, 1.674e-3
-1.361, 1.626e-3
-1.360, 1.580e-3
-1.359, 1.538e-3
-1.358, 1.496e-3
-1.357, 1.456e-3
-1.356, 1.415e-3
-1.355, 1.374e-3
-1.354, 1.334e-3
-1.353, 1.294e-3
-1.352, 1.255e-3
-1.351, 1.218e-3
-1.350, 1.184e-3
-1.349, 1.149e-3
-1.348, 1.114e-3
-1.347, 1.081e-3
-1.346, 1.048e-3
-1.345, 1.017e-3
-1.344, 9.870e-4
-1.343, 9.574e-4
-1.342, 9.277e-4
-1.341, 8.985e-4
-1.340, 8.705e-4
-1.339, 8.430e-4
-1.338, 8.153e-4
-1.337, 7.887e-4
-1.336, 7.631e-4
-1.335, 7.381e-4
-1.334, 7.140e-4
-1.333, 6.906e-4
-1.332, 6.678e-4
-1.331, 6.450e-4
-1.330, 6.235e-4
-1.329, 6.023e-4
-1.328, 5.821e-4
-1.327, 5.623e-4
-1.326, 5.433e-4
-1.325, 5.251e-4
-1.324, 5.069e-4
-1.323, 4.900e-4
-1.322, 4.730e-4
-1.321, 4.560e-4
-1.320, 4.403e-4
-1.319, 4.258e-4
-1.318, 4.119e-4
-1.317, 3.971e-4
-1.316, 3.818e-4
-1.315, 3.665e-4
-1.314, 3.526e-4
-1.313, 3.400e-4
-1.312, 3.274e-4
-1.311, 3.153e-4
-1.310, 3.041e-4
-1.309, 2.937e-4
-1.308, 2.836e-4
-1.307, 2.735e-4
-1.306, 2.631e-4
-1.305, 2.528e-4
-1.304, 2.435e-4
-1.303, 2.346e-4
-1.302, 2.260e-4
-1.301, 2.175e-4
-1.300, 2.091e-4
-1.299, 2.016e-4
-1.298, 1.945e-4
-1.297, 1.872e-4
-1.296, 1.802e-4
-1.295, 1.735e-4
-1.294, 1.673e-4
-1.293, 1.612e-4
-1.292, 1.544e-4
-1.291, 1.472e-4
-1.290, 1.416e-4
-1.289, 1.369e-4
-1.288, 1.326e-4
-1.287, 1.278e-4
-1.286, 1.229e-4
-1.285, 1.180e-4
-1.284, 1.134e-4
-1.283, 1.091e-4
-1.282, 1.049e-4
-1.281, 1.006e-4
-1.280, 9.655e-5
-1.279, 9.289e-5
-1.278, 8.945e-5
-1.277, 8.596e-5
-1.276, 8.243e-5
-1.275, 7.887e-5
-1.274, 7.582e-5
-1.273, 7.274e-5
-1.272, 6.950e-5
-1.271, 6.639e-5
-1.270, 6.345e-5
-1.269, 6.058e-5
-1.268, 5.833e-5
-1.267, 5.557e-5
-1.266, 5.288e-5
-1.265, 5.046e-5
-1.264, 4.851e-5
-1.263, 4.683e-5
-1.262, 4.441e-5
-1.261, 4.232e-5
-1.260, 4.006e-5
-1.259, 3.837e-5
-1.258, 3.683e-5
-1.257, 3.481e-5
-1.256, 3.287e-5
-1.255, 3.096e-5
-1.254, 2.936e-5
-1.253, 2.841e-5
-1.252, 2.683e-5
-1.251, 2.493e-5
-1.250, 2.365e-5
-1.249, 2.220e-5
-1.248, 2.105e-5
-1.247, 1.983e-5
-1.246, 1.839e-5
-1.245, 1.707e-5
-1.244, 1.603e-5
-1.243, 1.509e-5
-1.242, 1.399e-5
-1.241, 1.265e-5
-1.240, 1.147e-5
-1.239, 1.080e-5
-1.238, 9.982e-6
-1.237, 9.075e-6
-1.236, 8.098e-6
-1.235, 7.062e-6
-1.234, 6.342e-6
-1.233, 5.720e-6
-1.232, 4.892e-6
-1.231, 3.846e-6
-1.230, 3.017e-6
-1.229, 2.198e-6
-1.228, 1.991e-6
-1.227, 1.300e-6
-1.226, 4.025e-7
-1.225, -4.065e-7
-1.224, -9.294e-7
-1.223, -1.215e-6
-1.222, -1.955e-6
-1.221, -2.666e-6
-1.220, -3.573e-6
-1.219, -4.126e-6
-1.218, -4.274e-6
-1.217, -4.895e-6
-1.216, -5.448e-6
-1.215, -5.961e-6
-1.214, -6.356e-6
-1.213, -6.405e-6
-1.212, -6.879e-6
-1.211, -7.717e-6
-1.210, -8.201e-6
-1.209, -8.654e-6
-1.208, -8.556e-6
-1.207, -9.158e-6
-1.206, -9.779e-6
-1.205, -1.019e-5
-1.204, -1.047e-5
-1.203, -1.062e-5
-1.202, -1.106e-5
-1.201, -1.153e-5
-1.200, -1.208e-5
-1.199, -1.226e-5
-1.198, -1.246e-5
-1.197, -1.278e-5
-1.196, -1.312e-5
-1.195, -1.379e-5
-1.194, -1.391e-5
-1.193, -1.396e-5
-1.192, -1.434e-5
-1.191, -1.475e-5
-1.190, -1.529e-5
-1.189, -1.543e-5
-1.188, -1.547e-5
-1.187, -1.579e-5
-1.186, -1.626e-5
-1.185, -1.669e-5
-1.184, -1.684e-5
-1.183, -1.686e-5
-1.182, -1.726e-5
-1.181, -1.759e-5
-1.180, -1.797e-5
-1.179, -1.829e-5
-1.178, -1.832e-5
-1.177, -1.858e-5
-1.176, -1.895e-5
-1.175, -1.943e-5
-1.174, -1.968e-5
-1.173, -1.965e-5
-1.172, -1.989e-5
-1.171, -2.039e-5
-1.170, -2.059e-5
-1.169, -2.072e-5
-1.168, -2.070e-5
-1.167, -2.097e-5
-1.166, -2.148e-5
-1.165, -2.190e-5
-1.164, -2.201e-5
-1.163, -2.203e-5
-1.162, -2.221e-5
-1.161, -2.260e-5
-1.160, -2.305e-5
-1.159, -2.327e-5
-1.158, -2.328e-5
-1.157, -2.334e-5
-1.156, -2.382e-5
-1.155, -2.438e-5
-1.154, -2.431e-5
-1.153, -2.442e-5
-1.152, -2.457e-5
-1.151, -2.509e-5
-1.150, -2.547e-5
-1.149, -2.565e-5
-1.148, -2.554e-5
-1.147, -2.578e-5
-1.146, -2.620e-5
-1.145, -2.662e-5
-1.144, -2.661e-5
-1.143, -2.660e-5
-1.142, -2.697e-5
-1.141, -2.737e-5
-1.140, -2.776e-5
-1.139, -2.809e-5
-1.138, -2.786e-5
-1.137, -2.821e-5
-1.136, -2.855e-5
-1.135, -2.902e-5
-1.134, -2.923e-5
-1.133, -2.910e-5
-1.132, -2.927e-5
-1.131, -2.990e-5
-1.130, -3.013e-5
-1.129, -3.044e-5
-1.128, -3.034e-5
-1.127, -3.053e-5
-1.126, -3.117e-5
-1.125, -3.148e-5
-1.124, -3.169e-5
-1.123, -3.165e-5
-1.122, -3.194e-5
-1.121, -3.240e-5
-1.120, -3.281e-5
-1.119, -3.300e-5
-1.118, -3.294e-5
-1.117, -3.302e-5
-1.116, -3.352e-5
-1.115, -3.401e-5
-1.114, -3.420e-5
-1.113, -3.417e-5
-1.112, -3.425e-5
-1.111, -3.483e-5
-1.110, -3.537e-5
-1.109, -3.556e-5
-1.108, -3.539e-5
-1.107, -3.588e-5
-1.106, -3.621e-5
-1.105, -3.675e-5
-1.104, -3.684e-5
-1.103, -3.678e-5
-1.102, -3.716e-5
-1.101, -3.753e-5
-1.100, -3.814e-5
-1.099, -3.842e-5
-1.098, -3.838e-5
-1.097, -3.856e-5
-1.096, -3.910e-5
-1.095, -3.939e-5
-1.094, -3.987e-5
-1.093, -3.971e-5
-1.092, -4.003e-5
-1.091, -4.054e-5
-1.090, -4.092e-5
-1.089, -4.122e-5
-1.088, -4.126e-5
-1.087, -4.147e-5
-1.086, -4.194e-5
-1.085, -4.246e-5
-1.084, -4.282e-5
-1.083, -4.282e-5
-1.082, -4.304e-5
-1.081, -4.371e-5
-1.080, -4.404e-5
-1.079, -4.438e-5
-1.078, -4.451e-5
-1.077, -4.455e-5
-1.076, -4.533e-5
-1.075, -4.602e-5
-1.074, -4.613e-5
-1.073, -4.631e-5
-1.072, -4.657e-5
-1.071, -4.711e-5
-1.070, -4.773e-5
-1.069, -4.792e-5
-1.068, -4.795e-5
-1.067, -4.830e-5
-1.066, -4.889e-5
-1.065, -4.950e-5
-1.064, -4.986e-5
-1.063, -4.985e-5
-1.062, -5.033e-5
-1.061, -5.089e-5
-1.060, -5.149e-5
-1.059, -5.188e-5
-1.058, -5.188e-5
-1.057, -5.232e-5
-1.056, -5.290e-5
-1.055, -5.352e-5
-1.054, -5.405e-5
-1.053, -5.410e-5
-1.052, -5.443e-5
-1.051, -5.518e-5
-1.050, -5.591e-5
-1.049, -5.633e-5
-1.048, -5.639e-5
-1.047, -5.682e-5
-1.046, -5.767e-5
-1.045, -5.821e-5
-1.044, -5.861e-5
-1.043, -5.894e-5
-1.042, -5.916e-5
-1.041, -6.007e-5
-1.040, -6.061e-5
-1.039, -6.118e-5
-1.038, -6.150e-5
-1.037, -6.187e-5
-1.036, -6.269e-5
-1.035, -6.352e-5
-1.034, -6.392e-5
-1.033, -6.427e-5
-1.032, -6.457e-5
-1.031, -6.536e-5
-1.030, -6.634e-5
-1.029, -6.669e-5
-1.028, -6.714e-5
-1.027, -6.758e-5
-1.026, -6.842e-5
-1.025, -6.933e-5
-1.024, -7.014e-5
-1.023, -7.038e-5
-1.022, -7.087e-5
-1.021, -7.175e-5
-1.020, -7.260e-5
-1.019, -7.345e-5
-1.018, -7.364e-5
-1.017, -7.430e-5
-1.016, -7.509e-5
-1.015, -7.613e-5
-1.014, -7.697e-5
-1.013, -7.714e-5
-1.012, -7.784e-5
-1.011, -7.907e-5
-1.010, -7.989e-5
-1.009, -8.068e-5
-1.008, -8.120e-5
-1.007, -8.158e-5
-1.006, -8.292e-5
-1.005, -8.386e-5
-1.004, -8.469e-5
-1.003, -8.544e-5
-1.002, -8.594e-5
-1.001, -8.731e-5
