Potential V vs RHE, Current mA cm-2
0.013299999999999867,0.1285831100447332
0.012299999999999978,0.07009894490831257
0.011299999999999866,0.03826794066134924
0.010299999999999976,0.021107492593986348
0.009299999999999864,0.003797085128837758
0.008299999999999974,-0.012534342116804225
0.007299999999999862,-0.02969479018416712
0.006299999999999972,-0.04672791423454216
0.00529999999999986,-0.056645040446596066
0.0042999999999999705,-0.06626507728567832
0.0032999999999998586,-0.07646514575770523
0.0022999999999999687,-0.08943804837746762
0.0012999999999998568,-0.10437739970404242
0.00029999999999996696,-0.11372864139615031
-0.000700000000000145,-0.11582241411995055
-0.0017000000000000348,-0.12489071355208542
-0.0027000000000001467,-0.13493516378112722
-0.0037000000000000366,-0.14755438857592332
-0.0047000000000001485,-0.15363764716534298
-0.005700000000000038,-0.15547677185516753
-0.00670000000000015,-0.1625503283544927
-0.00770000000000004,-0.17245330745354798
-0.008700000000000152,-0.18122451751271118
-0.009700000000000042,-0.18645894932221183
-0.010700000000000154,-0.19126896774175295
-0.011700000000000044,-0.19537163051136155
-0.012700000000000156,-0.20499166735044383
-0.013700000000000045,-0.21263110836971502
-0.014700000000000157,-0.2161678866193776
-0.015700000000000047,-0.21758259791924262
-0.01670000000000016,-0.22126084729889173
-0.01770000000000005,-0.22946617283810894
-0.01870000000000016,-0.23724708498736666
-0.01970000000000005,-0.24120827662698877
-0.020700000000000163,-0.24191563227692126
-0.021700000000000053,-0.2426229879268538
-0.022700000000000164,-0.25295038041586854
-0.023700000000000054,-0.26058982143513976
-0.024700000000000166,-0.2617215904750318
-0.025700000000000056,-0.26299483064491036
-0.026700000000000168,-0.26440954194477534
-0.027700000000000058,-0.27148309844410057
-0.02870000000000017,-0.2813860775431558
-0.02970000000000006,-0.2805372507632368
-0.03070000000000017,-0.2815275486731423
-0.03170000000000006,-0.28336667336296684
-0.03270000000000017,-0.29199641229214357
-0.03370000000000006,-0.29680643071168467
-0.034700000000000175,-0.29751378636161724
-0.035700000000000065,-0.29680643071168467
-0.03670000000000018,-0.3002017378313608
-0.03770000000000007,-0.3061435252907939
-0.03870000000000018,-0.31236825501020005
-0.03970000000000007,-0.3142073797000246
-0.04070000000000018,-0.31123648597030806
-0.04170000000000007,-0.31519767760993017
-0.04270000000000018,-0.3185929847296063
-0.04370000000000007,-0.32693978139880997
-0.044700000000000184,-0.326373896878864
-0.045700000000000074,-0.32552507009894494
-0.046700000000000186,-0.32693978139880997
-0.047700000000000076,-0.33316451111821616
-0.04870000000000019,-0.33839894292771683
-0.04970000000000008,-0.34009659648755486
-0.05070000000000019,-0.33585246258795975
-0.05170000000000008,-0.33811600066774383
-0.05270000000000019,-0.34476514377710943
-0.05370000000000008,-0.3499995755866101
-0.05470000000000019,-0.3498581044566236
-0.05570000000000008,-0.34872633541673154
-0.056700000000000195,-0.3497166333266371
-0.057700000000000085,-0.35693166095594875
-0.058700000000000196,-0.3608928525955709
-0.059700000000000086,-0.35990255468566534
-0.0607000000000002,-0.3587707856457733
-0.06170000000000009,-0.3613172659855304
-0.0627000000000002,-0.36683464005500405
-0.06370000000000009,-0.3715031873445586
-0.0647000000000002,-0.36994700491470706
-0.06570000000000009,-0.3703714183046666
-0.0667000000000002,-0.3695225915247476
-0.0677000000000001,-0.37461555220426174
-0.0687000000000002,-0.38310382000345194
-0.0697000000000001,-0.3790011572338433
-0.07070000000000021,-0.3784352727138973
-0.0717000000000001,-0.37829380158391085
-0.07270000000000021,-0.3828208777434789
-0.0737000000000001,-0.38961149198283107
-0.07470000000000021,-0.38862119407292556
-0.0757000000000001,-0.3857917714731955
-0.07670000000000021,-0.38791383842299304
-0.0777000000000001,-0.3900359053727906
-0.07870000000000021,-0.3965435773521698
-0.0797000000000001,-0.39710946187211577
-0.08070000000000022,-0.3939970970124127
-0.0817000000000001,-0.39682651961214277
-0.08270000000000022,-0.3988071154319538
-0.08370000000000011,-0.40262683594158943
-0.08470000000000022,-0.404183018371441
-0.08570000000000011,-0.3992315288219133
-0.08670000000000022,-0.40333419159152195
-0.08770000000000011,-0.4087100945310091
-0.08870000000000022,-0.4121054016506852
-0.08970000000000011,-0.4118224593907122
-0.09070000000000022,-0.4071539121011576
-0.09170000000000011,-0.40984186357090113
-0.09270000000000023,-0.4149348242504153
-0.09370000000000012,-0.4187545447600509
-0.09470000000000023,-0.42002778492992937
-0.09570000000000012,-0.4153592376403748
-0.09670000000000023,-0.4164910066802668
-0.09770000000000012,-0.42115955396982147
-0.09870000000000023,-0.424130447699538
-0.09970000000000012,-0.42497927447945705
-0.10070000000000023,-0.42299867865964597
-0.10170000000000012,-0.42002778492992937
-0.10270000000000024,-0.4263939857793221
-0.10370000000000013,-0.4320528309787822
-0.10470000000000024,-0.42879899498909263
-0.10570000000000013,-0.42752575481921407
-0.10670000000000024,-0.42865752385910616
-0.10770000000000013,-0.4319113598487957
-0.10870000000000024,-0.43587255148841775
-0.10970000000000013,-0.4354481380984583
-0.11070000000000024,-0.43261871549872827
-0.11170000000000013,-0.4336090134086337
-0.11270000000000002,-0.43728726278828284
-0.11370000000000013,-0.44238022346779693
-0.11470000000000002,-0.4422387523378105
-0.11570000000000014,-0.4350237247084988
-0.11670000000000003,-0.43955080086806686
-0.11770000000000014,-0.44167286781786447
-0.11870000000000003,-0.4469072996273651
-0.11970000000000014,-0.4459170017174596
-0.12070000000000003,-0.44167286781786447
-0.12170000000000014,-0.4428046368577565
-0.12270000000000003,-0.4456340594574866
-0.12370000000000014,-0.4515758469169197
-0.12470000000000003,-0.44931230883713563
-0.12570000000000014,-0.4447852326775675
-0.12670000000000003,-0.44619994397743257
-0.12770000000000015,-0.4511514335269602
-0.12870000000000004,-0.4535564427367308
-0.12970000000000015,-0.4542637983866633
-0.13070000000000004,-0.44888789544717617
-0.13170000000000015,-0.4484634820572166
-0.13270000000000004,-0.45610292307648787
-0.13370000000000015,-0.4586494034162448
-0.13470000000000004,-0.4548296829066093
-0.13570000000000015,-0.4514343757869332
-0.13670000000000004,-0.4520002603068792
-0.13770000000000016,-0.45539556742655535
-0.13870000000000005,-0.45978117245613687
-0.13970000000000016,-0.45751763437635284
-0.14070000000000005,-0.4552540962965688
-0.14170000000000016,-0.4542637983866633
-0.14270000000000005,-0.4583664611562719
-0.14370000000000016,-0.462044710535921
-0.14470000000000005,-0.4594982301961639
-0.14570000000000016,-0.45879087454623135
-0.14670000000000005,-0.45652733646644733
-0.14770000000000016,-0.46077147036604243
-0.14870000000000005,-0.46444971974569155
-0.14970000000000017,-0.462610595055867
-0.15070000000000006,-0.46020558584609644
-0.15170000000000017,-0.4592152879361909
-0.15270000000000006,-0.4636008929657725
-0.15370000000000017,-0.4677035557353811
-0.15470000000000006,-0.46473266200566454
-0.15570000000000017,-0.46091294149602896
-0.15670000000000006,-0.46232765279589394
-0.15770000000000017,-0.4650156042656376
-0.15870000000000006,-0.4691182670352462
-0.15970000000000018,-0.46529854652561053
-0.16070000000000007,-0.4619032394059345
-0.16170000000000018,-0.4627520661858534
-0.16270000000000007,-0.4664303155655025
-0.16370000000000018,-0.4719476896349762
-0.16470000000000007,-0.47010856494515163
-0.16570000000000018,-0.4650156042656376
-0.16670000000000007,-0.46685472895546215
-0.16770000000000018,-0.4685523825153001
-0.16870000000000007,-0.47124033398504367
-0.16970000000000018,-0.4708159205950842
-0.17070000000000007,-0.46388383522574556
-0.17170000000000019,-0.46544001765559706
-0.17270000000000008,-0.4688353247752731
-0.1737000000000002,-0.4706744494650977
-0.17470000000000008,-0.4715232762450167
-0.1757000000000002,-0.4658644310455565
-0.17670000000000008,-0.46600590217554305
-0.1777000000000002,-0.47265504528490876
-0.17870000000000008,-0.4757674101446118
-0.1797000000000002,-0.47251357415492223
-0.18070000000000008,-0.4703915072051247
-0.1817000000000002,-0.4698256226851787
-0.18270000000000008,-0.4720891607649627
-0.1837000000000002,-0.47689917918450386
-0.1847000000000001,-0.4760503524045848
-0.1857000000000002,-0.47251357415492223
-0.1867000000000001,-0.4706744494650977
-0.1877000000000002,-0.4736453431948142
-0.1887000000000001,-0.4790212461343014
-0.1897000000000002,-0.47746506370444985
-0.1907000000000001,-0.4753429967546523
-0.1917000000000001,-0.47435269884474673
-0.19269999999999998,-0.47817241935438237
-0.1937000000000001,-0.48397273568382904
-0.19469999999999998,-0.48015301517419345
-0.1957000000000001,-0.4761918235345713
-0.19669999999999999,-0.47916271726428794
-0.1977000000000001,-0.482558024383964
-0.1987,-0.4851045047237211
-0.1997000000000001,-0.48496303359373455
-0.2007,-0.4812847842140855
-0.2017000000000001,-0.4832653800338965
-0.2027,-0.4868021582835591
-0.2037000000000001,-0.4921780612230462
-0.2047,-0.49104629218315415
-0.2057000000000001,-0.4884998118433972
-0.2067,-0.48977305201327564
-0.2077000000000001,-0.4943001281728438
-0.2087,-0.4984027909424524
-0.2097000000000001,-0.4984027909424524
-0.2107,-0.4927439457429922
-0.2117000000000001,-0.4954318972127358
-0.2127,-0.5029298671020205
-0.2137000000000001,-0.504486049531872
-0.2147,-0.5074569432615886
-0.2157000000000001,-0.5061837030917101
-0.2167,-0.5057592897017505
-0.21770000000000012,-0.5132572595910353
-0.2187,-0.5166525667107114
-0.21970000000000012,-0.5152378554108463
-0.2207,-0.5153793265408328
-0.22170000000000012,-0.5180672780105765
-0.2227,-0.5237261232100366
-0.22370000000000012,-0.5289605550195372
-0.2247,-0.5274043725896858
-0.22570000000000012,-0.5300923240594293
-0.2267,-0.5324973332691998
-0.22770000000000012,-0.5385805918586195
-0.22870000000000001,-0.5474932730477692
-0.22970000000000013,-0.5467859173978367
-0.23070000000000002,-0.5474932730477692
-0.23170000000000013,-0.5517374069473643
-0.23270000000000002,-0.5599427324865814
-0.23370000000000013,-0.5646112797761362
-0.23470000000000002,-0.5671577601158931
-0.23570000000000013,-0.5685724714157583
-0.23670000000000002,-0.5746557300051779
-0.2376999999999999,-0.5830025266743816
-0.23870000000000002,-0.5909249099536259
-0.2396999999999999,-0.5960178706331399
-0.24070000000000003,-0.5988472932328701
-0.24169999999999991,-0.6060623208621817
-0.24270000000000003,-0.6151164731813179
-0.24369999999999992,-0.6244535677604272
-0.24470000000000003,-0.6309612397398063
-0.24569999999999992,-0.635912729289334
-0.24670000000000003,-0.6444009970885242
-0.24769999999999992,-0.6576992833072556
-0.24870000000000003,-0.6687340314462029
-0.24969999999999992,-0.6783540682852851
-0.25070000000000003,-0.6840129134847454
-0.2516999999999999,-0.694623248233733
-0.25270000000000004,-0.7099021302722753
-0.2536999999999999,-0.7257468968307639
-0.25470000000000004,-0.7374890006196436
-0.2556999999999999,-0.7480993353686314
-0.25670000000000004,-0.7626708617572412
-0.25769999999999993,-0.7840330023852033
-0.25870000000000004,-0.7997362978137053
-0.25969999999999993,-0.8158640066321667
-0.26070000000000004,-0.8334064267504931
-0.26169999999999993,-0.8522220870386981
-0.26270000000000004,-0.8772624770463092
-0.26369999999999993,-0.9024443381839068
-0.26470000000000005,-0.9236650076818825
-0.26569999999999994,-0.9464418596097095
-0.26670000000000005,-0.9745946144770238
-0.26769999999999994,-1.0048694362941357
-0.26870000000000005,-1.039529863140829
-0.26969999999999994,-1.0678240891381299
-0.27070000000000005,-1.101069804684958
-0.27169999999999994,-1.1384181830013949
-0.27270000000000005,-1.1808595219973461
-0.27369999999999994,-1.2269791103729464
-0.27470000000000006,-1.269278978238911
-0.27569999999999995,-1.3121447306248215
-0.27670000000000006,-1.3636402219399089
-0.27769999999999995,-1.420370145064497
-0.27870000000000006,-1.4826174422585585
-0.27969999999999995,-1.54203531685289
-0.28070000000000006,-1.6028679027470865
-0.28169999999999995,-1.6750181790402037
-0.28270000000000006,-1.7514125892329155
-0.28369999999999995,-1.8306364220253575
-0.28470000000000006,-1.9141043887173947
-0.28569999999999995,-2.001816489309027
-0.28670000000000007,-2.0980168576998492
-0.28769999999999996,-2.201290782589997
-0.28870000000000007,-2.3116382639794697
-0.28969999999999996,-2.424815167968673
-0.29070000000000007,-2.5379920719578757
-0.29169999999999996,-2.6653160889457292
-0.29270000000000007,-2.8025430850326374
-0.29369999999999996,-2.945428926319006
-0.2947000000000001,-3.0911441902051053
-0.29569999999999996,-3.2425182992906643
-0.2967000000000001,-3.403795387475278
-0.29769999999999996,-3.5778048773586777
-0.2987000000000001,-3.764546768940863
-0.29969999999999997,-3.9512886605230477
-0.3007000000000001,-4.146518819904423
-0.30169999999999997,-4.353066669684718
-0.3027000000000001,-4.575176343763529
-0.30369999999999997,-4.807188996941395
-0.3047000000000001,-5.0420310727189905
-0.30569999999999997,-5.288190838895507
-0.3067000000000001,-5.547083006770809
-0.3077,-5.817292865045031
-0.3087000000000001,-6.095990991118443
-0.3097,-6.384592096290911
-0.3107000000000001,-6.691584448361623
-0.3117,-7.008479779531392
-0.3127000000000001,-7.340936934999675
-0.3137,-7.687541203466609
-0.3147000000000001,-8.042633739732734
-0.3157,-8.404799832498183
-0.3167000000000001,-8.78252774956215
-0.3177,-9.175817490924628
-0.3187000000000001,-9.588913190485219
-0.3197,-10.011911869144866
-0.3207000000000001,-10.443398815603702
-0.3217,-10.893277008960782
-0.3227000000000001,-11.365790583115706
-0.3237,-11.863768960668198
-0.3247000000000001,-12.363162049520556
-0.3257,-12.873872828771834
-0.3267000000000001,-13.404389566221221
-0.3277,-13.953297550568857
-0.3287000000000001,-14.500790823616628
-0.3297,-15.080822456561293
-0.3307000000000001,-15.675001202504609
-0.3317,-16.28332706144657
-0.3327000000000001,-16.919947146385837
-0.3337,-17.570714344323754
-0.3347000000000001,-18.23562865526032
-0.3357,-18.91469007919554
-0.3367000000000001,-19.593751503130758
-0.3377,-20.286960040064624
-0.3387000000000001,-21.036757028993097
-0.3397,-21.800701130920213
-0.3407000000000001,-22.564645232847337
-0.3417,-23.356883560771752
-0.3427000000000001,-24.17741611469348
-0.3437,-25.026242894612498
-0.3447000000000001,-25.846775448534224
-0.3457,-26.69560222845324
-0.3467000000000001,-27.558576121370916
-0.3477,-28.421550014288584
-0.3487000000000001,-29.31281813320356
-0.3497,-30.204086252118536
-0.3507000000000001,-31.151942823028104
-0.3517,-32.11394650693633
-0.3527000000000001,-33.10424441684186
-0.3537,-34.179425004739294
-0.3547000000000001,-35.240458479638065
-0.3557,-36.25905061554089
-0.35670000000000013,-37.32008409043967
-0.3577,-38.29623488734655
-0.35870000000000013,-39.28653279725207
-0.3597,-40.34756627215084
-0.36070000000000013,-41.46518819904423
-0.3617,-42.6111043519349
-0.3626999999999999,-43.70043205283099
-0.3637,-44.74731841473111
-0.3646999999999999,-45.86494034162449
-0.3657,-47.13818051150302
-0.3666999999999999,-48.4255677943802
-0.3677,-49.628072399265484
-0.3686999999999999,-50.68910587416426
-0.36970000000000003,-51.990640270040096
-0.3706999999999999,-53.20729198792403
-0.37170000000000003,-54.43809081880661
-0.3726999999999999,-55.7537723276811
-0.37370000000000003,-57.12604228855018
-0.3746999999999999,-58.30025266743816
-0.37570000000000003,-59.432021707330186
-0.3766999999999999,-60.80429166819927
-0.37770000000000004,-62.04923761208051
-0.3786999999999999,-63.37906623395363
-0.37970000000000004,-64.90695443780788
-0.3806999999999999,-66.39240130266617
-0.38170000000000004,-67.7505241505366
-0.38269999999999993,-69.08035277240974
-0.38370000000000004,-70.35359294228827
-0.38469999999999993,-71.66927445116276
-0.38570000000000004,-72.98495596003725
-0.38669999999999993,-74.32893169490903
-0.38770000000000004,-75.57387763879026
-0.38869999999999993,-77.11591295564315
-0.38970000000000005,-78.74283095048794
-0.39069999999999994,-80.36974894533273
-0.39170000000000005,-81.81275447119506
-0.39269999999999994,-83.18502443206415
-0.39370000000000005,-84.6846184099211
-0.39469999999999994,-86.25494795277129
-0.39570000000000005,-87.65551213963768
-0.39669999999999994,-89.0985176655
-0.39770000000000005,-90.55567030436099
-0.39869999999999994,-92.35235365518959
-0.39970000000000006,-93.63974093806678
-0.40069999999999995,-94.94127533394261
-0.40170000000000006,-96.29939818181305
-0.40269999999999995,-97.94046328965649
-0.40370000000000006,-99.63811684949452
-0.40469999999999995,-101.26503484433933
-0.40570000000000006,-102.80707016119221
-0.40669999999999995,-104.10860455706805
-0.40770000000000006,-105.4384331789412
-0.40869999999999995,-106.88143870480351
-0.40970000000000006,-108.36688556966182
-0.41069999999999995,-109.8523324345201
-0.41170000000000007,-111.15386683039593
-0.41269999999999996,-112.45540122627176
-0.41370000000000007,-113.99743654312465
-0.41469999999999996,-115.2706767130032
-0.41570000000000007,-116.48732843088712
-0.41669999999999996,-117.67568592277377
-0.41770000000000007,-118.65183671968063
-0.41869999999999996,-120.15143069753758
-0.4197000000000001,-121.42467086741611
-0.42069999999999996,-123.15061865325143
-0.4217000000000001,-124.45215304912726
-0.42269999999999996,-125.45659807203144
-0.4237000000000001,-126.61666133792076
-0.42469999999999997,-127.63525347382362
-0.4257000000000001,-128.54066870573723
-0.42669999999999997,-129.61584929363465
-0.4277000000000001,-130.7193241075294
-0.42869999999999997,-132.03500561640385
-0.4297000000000001,-133.2799515602851
-0.43069999999999997,-134.36927926118116
-0.4317000000000001,-135.387871397084
-0.4327,-136.27913951599896
-0.4337000000000001,-137.14211340891666
-0.4347,-137.9060575108438
-0.4357000000000001,-138.71244295176686
-0.4367,-139.90080044365348
-0.4377000000000001,-141.18818772653066
-0.4387,-142.6028990263957
-0.4397000000000001,-143.5931969363012
-0.4407,-144.86643710617977
-0.4417000000000001,-145.9982061460718
-0.4427,-147.1299751859638
-0.4437000000000001,-148.12027309586935
-0.4447,-148.68615761581535
-0.4457000000000001,-149.8179266557074
-0.4467,-150.8082245656129
-0.4477000000000001,-151.5155802155454
-0.4487,-152.64734925543743
-0.4497000000000001,-153.920589425316
-0.4507,-155.75971411514055
-0.4517000000000001,-156.75001202504606
-0.4527,-157.45736767497857
-0.4537000000000001,-158.1647233249111
-0.4547,-158.73060784485713
-0.4557000000000001,-159.57943462477613
-0.4567,-160.5697325346817
-0.4577000000000001,-162.40885722450622
-0.4587,-163.96503965435775
-0.4597000000000001,-165.8041643441823
-0.4607,-166.51151999411482
-0.4617000000000001,-167.50181790402033
-0.4627,-168.20917355395284
-0.4637000000000001,-169.0580003338719
-0.4647,-169.9068271137909
-0.4657000000000001,-171.03859615368293
-0.4667,-172.0288940635885
-0.4677000000000001,-172.87772084350746
-0.4687,-173.86801875341303
-0.4697000000000001,-174.99978779330505
-0.4707,-175.70714344323756
-0.4717000000000001,-176.27302796318358
-0.4727,-177.4047970030756
-0.4737000000000001,-179.66833508285964
-0.4747,-181.2245175127112
-0.4757000000000001,-182.35628655260325
-0.4767,-182.78069994256273
-0.4777000000000001,-183.62952672248176
-0.4787,-184.7612957623738
-0.4797000000000001,-186.17600706223882
-0.4807,-186.74189158218485
-0.48170000000000013,-188.29807401203638
-0.4827,-190.13719870186094
-0.48370000000000013,-191.69338113171247
-0.4847,-192.54220791163152
-0.48570000000000013,-193.6739769515235
-0.4867,-194.80574599141553
-0.48570000000000013,-193.3910346915505
-0.4847,-192.11779452167198
-0.48370000000000013,-191.41043887173947
-0.4827,-191.12749661176645
-0.48170000000000013,-190.13719870186094
-0.4807,-188.72248740199586
-0.4797000000000001,-187.87366062207687
-0.4787,-186.88336271217133
-0.4777000000000001,-185.6101225422928
-0.4767,-183.77099785246824
-0.4757000000000001,-181.36598864269772
-0.4747,-179.80980621284618
-0.4737000000000001,-177.6877392630486
