Aug. 27, 2024   00:22:00
Cyclic Voltammetry
File: c:/users/guazh/data/20240813_batch_181_500/2024-08-25-exp192\exp192-2024-08-27t00_13_13-arkoh\exp192_cv_50mvs_efin_-1600mv.bin
Data Source:  Experiment
Instrument Model:  CHI760E
Header: CV ran at 50 mVs
Note: 

Init E (V) = -1
High E (V) = -1
Low E (V) = -1.6
Final E (V) = -1
Init P/N = N
Scan Rate (V/s) = 0.05
Segment = 7
Sample Interval (V) = 0.001
Quiet Time (sec) = 60
Sensitivity (A/V) = 0.001
Comp R (ohm) = 1.5

Results:

Channel 1:
Segment 1:

Segment 2:

Segment 3:

Segment 4:

Segment 5:

Segment 6:

Segment 7:

Potential/V, Current/A

-1.000, 2.666e-6
-1.001, 3.057e-6
-1.002, 3.175e-6
-1.003, 3.180e-6
-1.004, 3.336e-6
-1.005, 3.288e-6
-1.006, 3.300e-6
-1.007, 3.360e-6
-1.008, 3.374e-6
-1.009, 3.459e-6
-1.010, 3.450e-6
-1.011, 3.428e-6
-1.012, 3.491e-6
-1.013, 3.465e-6
-1.014, 3.567e-6
-1.015, 3.535e-6
-1.016, 3.558e-6
-1.017, 3.582e-6
-1.018, 3.620e-6
-1.019, 3.639e-6
-1.020, 3.628e-6
-1.021, 3.633e-6
-1.022, 3.637e-6
-1.023, 3.705e-6
-1.024, 3.762e-6
-1.025, 3.710e-6
-1.026, 3.729e-6
-1.027, 3.739e-6
-1.028, 3.763e-6
-1.029, 3.805e-6
-1.030, 3.782e-6
-1.031, 3.800e-6
-1.032, 3.806e-6
-1.033, 3.821e-6
-1.034, 3.887e-6
-1.035, 3.877e-6
-1.036, 3.849e-6
-1.037, 3.925e-6
-1.038, 3.930e-6
-1.039, 3.955e-6
-1.040, 3.949e-6
-1.041, 3.929e-6
-1.042, 4.012e-6
-1.043, 3.996e-6
-1.044, 4.061e-6
-1.045, 4.014e-6
-1.046, 4.008e-6
-1.047, 4.084e-6
-1.048, 4.068e-6
-1.049, 4.120e-6
-1.050, 4.113e-6
-1.051, 4.095e-6
-1.052, 4.081e-6
-1.053, 4.183e-6
-1.054, 4.189e-6
-1.055, 4.168e-6
-1.056, 4.189e-6
-1.057, 4.191e-6
-1.058, 4.225e-6
-1.059, 4.261e-6
-1.060, 4.285e-6
-1.061, 4.245e-6
-1.062, 4.255e-6
-1.063, 4.321e-6
-1.064, 4.328e-6
-1.065, 4.313e-6
-1.066, 4.326e-6
-1.067, 4.325e-6
-1.068, 4.343e-6
-1.069, 4.398e-6
-1.070, 4.388e-6
-1.071, 4.349e-6
-1.072, 4.438e-6
-1.073, 4.410e-6
-1.074, 4.452e-6
-1.075, 4.442e-6
-1.076, 4.417e-6
-1.077, 4.480e-6
-1.078, 4.479e-6
-1.079, 4.534e-6
-1.080, 4.498e-6
-1.081, 4.464e-6
-1.082, 4.549e-6
-1.083, 4.524e-6
-1.084, 4.577e-6
-1.085, 4.559e-6
-1.086, 4.558e-6
-1.087, 4.569e-6
-1.088, 4.585e-6
-1.089, 4.614e-6
-1.090, 4.607e-6
-1.091, 4.605e-6
-1.092, 4.617e-6
-1.093, 4.670e-6
-1.094, 4.678e-6
-1.095, 4.682e-6
-1.096, 4.642e-6
-1.097, 4.633e-6
-1.098, 4.761e-6
-1.099, 4.722e-6
-1.100, 4.696e-6
-1.101, 4.700e-6
-1.102, 4.704e-6
-1.103, 4.761e-6
-1.104, 4.750e-6
-1.105, 4.766e-6
-1.106, 4.733e-6
-1.107, 4.750e-6
-1.108, 4.806e-6
-1.109, 4.802e-6
-1.110, 4.809e-6
-1.111, 4.780e-6
-1.112, 4.837e-6
-1.113, 4.847e-6
-1.114, 4.885e-6
-1.115, 4.849e-6
-1.116, 4.844e-6
-1.117, 4.883e-6
-1.118, 4.891e-6
-1.119, 4.918e-6
-1.120, 4.886e-6
-1.121, 4.862e-6
-1.122, 4.929e-6
-1.123, 4.944e-6
-1.124, 4.979e-6
-1.125, 4.952e-6
-1.126, 4.949e-6
-1.127, 4.977e-6
-1.128, 4.995e-6
-1.129, 5.046e-6
-1.130, 5.013e-6
-1.131, 4.978e-6
-1.132, 4.997e-6
-1.133, 5.053e-6
-1.134, 5.053e-6
-1.135, 5.067e-6
-1.136, 5.029e-6
-1.137, 5.034e-6
-1.138, 5.104e-6
-1.139, 5.089e-6
-1.140, 5.110e-6
-1.141, 5.107e-6
-1.142, 5.095e-6
-1.143, 5.165e-6
-1.144, 5.116e-6
-1.145, 5.139e-6
-1.146, 5.169e-6
-1.147, 5.152e-6
-1.148, 5.192e-6
-1.149, 5.226e-6
-1.150, 5.215e-6
-1.151, 5.173e-6
-1.152, 5.213e-6
-1.153, 5.240e-6
-1.154, 5.284e-6
-1.155, 5.224e-6
-1.156, 5.216e-6
-1.157, 5.268e-6
-1.158, 5.285e-6
-1.159, 5.333e-6
-1.160, 5.244e-6
-1.161, 5.340e-6
-1.162, 5.308e-6
-1.163, 5.351e-6
-1.164, 5.344e-6
-1.165, 5.339e-6
-1.166, 5.370e-6
-1.167, 5.381e-6
-1.168, 5.409e-6
-1.169, 5.407e-6
-1.170, 5.399e-6
-1.171, 5.388e-6
-1.172, 5.441e-6
-1.173, 5.456e-6
-1.174, 5.471e-6
-1.175, 5.538e-6
-1.176, 5.427e-6
-1.177, 5.508e-6
-1.178, 5.575e-6
-1.179, 5.531e-6
-1.180, 5.558e-6
-1.181, 5.561e-6
-1.182, 5.563e-6
-1.183, 5.615e-6
-1.184, 5.619e-6
-1.185, 5.667e-6
-1.186, 5.650e-6
-1.187, 5.666e-6
-1.188, 5.707e-6
-1.189, 5.729e-6
-1.190, 5.696e-6
-1.191, 5.714e-6
-1.192, 5.729e-6
-1.193, 5.769e-6
-1.194, 5.849e-6
-1.195, 5.772e-6
-1.196, 5.787e-6
-1.197, 5.828e-6
-1.198, 5.827e-6
-1.199, 5.895e-6
-1.200, 5.861e-6
-1.201, 5.875e-6
-1.202, 5.858e-6
-1.203, 5.930e-6
-1.204, 5.932e-6
-1.205, 5.922e-6
-1.206, 5.947e-6
-1.207, 5.918e-6
-1.208, 5.974e-6
-1.209, 5.959e-6
-1.210, 5.996e-6
-1.211, 5.963e-6
-1.212, 5.967e-6
-1.213, 6.071e-6
-1.214, 6.053e-6
-1.215, 6.065e-6
-1.216, 6.022e-6
-1.217, 6.063e-6
-1.218, 6.123e-6
-1.219, 6.087e-6
-1.220, 6.177e-6
-1.221, 6.085e-6
-1.222, 6.127e-6
-1.223, 6.226e-6
-1.224, 6.193e-6
-1.225, 6.226e-6
-1.226, 6.205e-6
-1.227, 6.226e-6
-1.228, 6.311e-6
-1.229, 6.314e-6
-1.230, 6.318e-6
-1.231, 6.325e-6
-1.232, 6.363e-6
-1.233, 6.383e-6
-1.234, 6.423e-6
-1.235, 6.412e-6
-1.236, 6.431e-6
-1.237, 6.461e-6
-1.238, 6.470e-6
-1.239, 6.562e-6
-1.240, 6.525e-6
-1.241, 6.544e-6
-1.242, 6.576e-6
-1.243, 6.639e-6
-1.244, 6.622e-6
-1.245, 6.641e-6
-1.246, 6.690e-6
-1.247, 6.675e-6
-1.248, 6.751e-6
-1.249, 6.799e-6
-1.250, 6.827e-6
-1.251, 6.775e-6
-1.252, 6.838e-6
-1.253, 6.905e-6
-1.254, 6.911e-6
-1.255, 7.006e-6
-1.256, 6.963e-6
-1.257, 7.005e-6
-1.258, 7.081e-6
-1.259, 7.050e-6
-1.260, 7.119e-6
-1.261, 7.130e-6
-1.262, 7.136e-6
-1.263, 7.263e-6
-1.264, 7.198e-6
-1.265, 7.319e-6
-1.266, 7.276e-6
-1.267, 7.349e-6
-1.268, 7.431e-6
-1.269, 7.419e-6
-1.270, 7.450e-6
-1.271, 7.488e-6
-1.272, 7.540e-6
-1.273, 7.600e-6
-1.274, 7.648e-6
-1.275, 7.682e-6
-1.276, 7.670e-6
-1.277, 7.724e-6
-1.278, 7.798e-6
-1.279, 7.855e-6
-1.280, 7.848e-6
-1.281, 7.909e-6
-1.282, 7.909e-6
-1.283, 7.954e-6
-1.284, 8.030e-6
-1.285, 8.037e-6
-1.286, 8.109e-6
-1.287, 8.082e-6
-1.288, 8.156e-6
-1.289, 8.188e-6
-1.290, 8.229e-6
-1.291, 8.299e-6
-1.292, 8.256e-6
-1.293, 8.403e-6
-1.294, 8.389e-6
-1.295, 8.439e-6
-1.296, 8.453e-6
-1.297, 8.465e-6
-1.298, 8.580e-6
-1.299, 8.549e-6
-1.300, 8.621e-6
-1.301, 8.650e-6
-1.302, 8.595e-6
-1.303, 8.751e-6
-1.304, 8.722e-6
-1.305, 8.781e-6
-1.306, 8.761e-6
-1.307, 8.830e-6
-1.308, 8.865e-6
-1.309, 8.872e-6
-1.310, 8.922e-6
-1.311, 8.898e-6
-1.312, 8.959e-6
-1.313, 8.993e-6
-1.314, 9.025e-6
-1.315, 8.995e-6
-1.316, 8.986e-6
-1.317, 9.034e-6
-1.318, 9.083e-6
-1.319, 9.107e-6
-1.320, 9.081e-6
-1.321, 9.111e-6
-1.322, 9.089e-6
-1.323, 9.151e-6
-1.324, 9.132e-6
-1.325, 9.127e-6
-1.326, 9.161e-6
-1.327, 9.128e-6
-1.328, 9.193e-6
-1.329, 9.164e-6
-1.330, 9.223e-6
-1.331, 9.166e-6
-1.332, 9.182e-6
-1.333, 9.231e-6
-1.334, 9.192e-6
-1.335, 9.263e-6
-1.336, 9.175e-6
-1.337, 9.175e-6
-1.338, 9.268e-6
-1.339, 9.224e-6
-1.340, 9.220e-6
-1.341, 9.215e-6
-1.342, 9.223e-6
-1.343, 9.229e-6
-1.344, 9.295e-6
-1.345, 9.281e-6
-1.346, 9.253e-6
-1.347, 9.217e-6
-1.348, 9.278e-6
-1.349, 9.321e-6
-1.350, 9.291e-6
-1.351, 9.321e-6
-1.352, 9.284e-6
-1.353, 9.365e-6
-1.354, 9.358e-6
-1.355, 9.322e-6
-1.356, 9.336e-6
-1.357, 9.355e-6
-1.358, 9.437e-6
-1.359, 9.482e-6
-1.360, 9.455e-6
-1.361, 9.406e-6
-1.362, 9.481e-6
-1.363, 9.531e-6
-1.364, 9.526e-6
-1.365, 9.623e-6
-1.366, 9.525e-6
-1.367, 9.622e-6
-1.368, 9.680e-6
-1.369, 9.641e-6
-1.370, 9.737e-6
-1.371, 9.737e-6
-1.372, 9.774e-6
-1.373, 9.869e-6
-1.374, 9.893e-6
-1.375, 9.952e-6
-1.376, 9.969e-6
-1.377, 1.000e-5
-1.378, 1.011e-5
-1.379, 1.011e-5
-1.380, 1.018e-5
-1.381, 1.023e-5
-1.382, 1.024e-5
-1.383, 1.040e-5
-1.384, 1.041e-5
-1.385, 1.042e-5
-1.386, 1.053e-5
-1.387, 1.057e-5
-1.388, 1.069e-5
-1.389, 1.070e-5
-1.390, 1.081e-5
-1.391, 1.088e-5
-1.392, 1.091e-5
-1.393, 1.105e-5
-1.394, 1.110e-5
-1.395, 1.124e-5
-1.396, 1.129e-5
-1.397, 1.137e-5
-1.398, 1.151e-5
-1.399, 1.155e-5
-1.400, 1.172e-5
-1.401, 1.179e-5
-1.402, 1.186e-5
-1.403, 1.205e-5
-1.404, 1.216e-5
-1.405, 1.228e-5
-1.406, 1.242e-5
-1.407, 1.254e-5
-1.408, 1.269e-5
-1.409, 1.283e-5
-1.410, 1.303e-5
-1.411, 1.309e-5
-1.412, 1.330e-5
-1.413, 1.349e-5
-1.414, 1.364e-5
-1.415, 1.383e-5
-1.416, 1.396e-5
-1.417, 1.417e-5
-1.418, 1.436e-5
-1.419, 1.462e-5
-1.420, 1.479e-5
-1.421, 1.504e-5
-1.422, 1.521e-5
-1.423, 1.556e-5
-1.424, 1.577e-5
-1.425, 1.598e-5
-1.426, 1.626e-5
-1.427, 1.647e-5
-1.428, 1.681e-5
-1.429, 1.706e-5
-1.430, 1.734e-5
-1.431, 1.766e-5
-1.432, 1.790e-5
-1.433, 1.834e-5
-1.434, 1.867e-5
-1.435, 1.900e-5
-1.436, 1.933e-5
-1.437, 1.971e-5
-1.438, 2.019e-5
-1.439, 2.052e-5
-1.440, 2.092e-5
-1.441, 2.133e-5
-1.442, 2.176e-5
-1.443, 2.225e-5
-1.444, 2.269e-5
-1.445, 2.321e-5
-1.446, 2.364e-5
-1.447, 2.422e-5
-1.448, 2.476e-5
-1.449, 2.525e-5
-1.450, 2.586e-5
-1.451, 2.637e-5
-1.452, 2.704e-5
-1.453, 2.766e-5
-1.454, 2.825e-5
-1.455, 2.894e-5
-1.456, 2.954e-5
-1.457, 3.026e-5
-1.458, 3.105e-5
-1.459, 3.171e-5
-1.460, 3.250e-5
-1.461, 3.322e-5
-1.462, 3.408e-5
-1.463, 3.493e-5
-1.464, 3.575e-5
-1.465, 3.660e-5
-1.466, 3.752e-5
-1.467, 3.847e-5
-1.468, 3.946e-5
-1.469, 4.046e-5
-1.470, 4.146e-5
-1.471, 4.256e-5
-1.472, 4.361e-5
-1.473, 4.481e-5
-1.474, 4.600e-5
-1.475, 4.714e-5
-1.476, 4.843e-5
-1.477, 4.969e-5
-1.478, 5.105e-5
-1.479, 5.244e-5
-1.480, 5.380e-5
-1.481, 5.526e-5
-1.482, 5.675e-5
-1.483, 5.833e-5
-1.484, 5.991e-5
-1.485, 6.158e-5
-1.486, 6.326e-5
-1.487, 6.498e-5
-1.488, 6.680e-5
-1.489, 6.864e-5
-1.490, 7.051e-5
-1.491, 7.245e-5
-1.492, 7.448e-5
-1.493, 7.656e-5
-1.494, 7.868e-5
-1.495, 8.087e-5
-1.496, 8.308e-5
-1.497, 8.539e-5
-1.498, 8.790e-5
-1.499, 9.028e-5
-1.500, 9.282e-5
-1.501, 9.535e-5
-1.502, 9.801e-5
-1.503, 1.008e-4
-1.504, 1.036e-4
-1.505, 1.065e-4
-1.506, 1.095e-4
-1.507, 1.125e-4
-1.508, 1.157e-4
-1.509, 1.190e-4
-1.510, 1.223e-4
-1.511, 1.257e-4
-1.512, 1.292e-4
-1.513, 1.328e-4
-1.514, 1.365e-4
-1.515, 1.403e-4
-1.516, 1.441e-4
-1.517, 1.482e-4
-1.518, 1.522e-4
-1.519, 1.565e-4
-1.520, 1.608e-4
-1.521, 1.652e-4
-1.522, 1.698e-4
-1.523, 1.744e-4
-1.524, 1.792e-4
-1.525, 1.841e-4
-1.526, 1.891e-4
-1.527, 1.942e-4
-1.528, 1.995e-4
-1.529, 2.050e-4
-1.530, 2.105e-4
-1.531, 2.162e-4
-1.532, 2.219e-4
-1.533, 2.279e-4
-1.534, 2.340e-4
-1.535, 2.403e-4
-1.536, 2.466e-4
-1.537, 2.531e-4
-1.538, 2.599e-4
-1.539, 2.667e-4
-1.540, 2.736e-4
-1.541, 2.808e-4
-1.542, 2.881e-4
-1.543, 2.957e-4
-1.544, 3.033e-4
-1.545, 3.110e-4
-1.546, 3.191e-4
-1.547, 3.272e-4
-1.548, 3.357e-4
-1.549, 3.442e-4
-1.550, 3.530e-4
-1.551, 3.619e-4
-1.552, 3.709e-4
-1.553, 3.803e-4
-1.554, 3.898e-4
-1.555, 3.995e-4
-1.556, 4.093e-4
-1.557, 4.194e-4
-1.558, 4.298e-4
-1.559, 4.403e-4
-1.560, 4.510e-4
-1.561, 4.618e-4
-1.562, 4.728e-4
-1.563, 4.841e-4
-1.564, 4.957e-4
-1.565, 5.075e-4
-1.566, 5.194e-4
-1.567, 5.316e-4
-1.568, 5.441e-4
-1.569, 5.568e-4
-1.570, 5.698e-4
-1.571, 5.829e-4
-1.572, 5.963e-4
-1.573, 6.100e-4
-1.574, 6.238e-4
-1.575, 6.379e-4
-1.576, 6.523e-4
-1.577, 6.668e-4
-1.578, 6.818e-4
-1.579, 6.968e-4
-1.580, 7.123e-4
-1.581, 7.280e-4
-1.582, 7.438e-4
-1.583, 7.600e-4
-1.584, 7.764e-4
-1.585, 7.931e-4
-1.586, 8.101e-4
-1.587, 8.274e-4
-1.588, 8.450e-4
-1.589, 8.627e-4
-1.590, 8.808e-4
-1.591, 8.991e-4
-1.592, 9.176e-4
-1.593, 9.365e-4
-1.594, 9.557e-4
-1.595, 9.751e-4
-1.596, 9.948e-4
-1.597, 1.015e-3
-1.598, 1.035e-3
-1.599, 1.056e-3
-1.600, 1.063e-3
-1.599, 1.056e-3
-1.598, 1.048e-3
-1.597, 1.039e-3
-1.596, 1.030e-3
-1.595, 1.020e-3
-1.594, 1.010e-3
-1.593, 9.998e-4
-1.592, 9.894e-4
-1.591, 9.785e-4
-1.590, 9.675e-4
-1.589, 9.563e-4
-1.588, 9.450e-4
-1.587, 9.337e-4
-1.586, 9.223e-4
-1.585, 9.108e-4
-1.584, 8.993e-4
-1.583, 8.878e-4
-1.582, 8.762e-4
-1.581, 8.646e-4
-1.580, 8.531e-4
-1.579, 8.417e-4
-1.578, 8.302e-4
-1.577, 8.186e-4
-1.576, 8.074e-4
-1.575, 7.961e-4
-1.574, 7.848e-4
-1.573, 7.736e-4
-1.572, 7.626e-4
-1.571, 7.514e-4
-1.570, 7.405e-4
-1.569, 7.296e-4
-1.568, 7.188e-4
-1.567, 7.081e-4
-1.566, 6.974e-4
-1.565, 6.869e-4
-1.564, 6.764e-4
-1.563, 6.659e-4
-1.562, 6.558e-4
-1.561, 6.455e-4
-1.560, 6.355e-4
-1.559, 6.255e-4
-1.558, 6.156e-4
-1.557, 6.059e-4
-1.556, 5.962e-4
-1.555, 5.867e-4
-1.554, 5.772e-4
-1.553, 5.679e-4
-1.552, 5.587e-4
-1.551, 5.496e-4
-1.550, 5.406e-4
-1.549, 5.317e-4
-1.548, 5.228e-4
-1.547, 5.142e-4
-1.546, 5.056e-4
-1.545, 4.971e-4
-1.544, 4.888e-4
-1.543, 4.804e-4
-1.542, 4.723e-4
-1.541, 4.643e-4
-1.540, 4.564e-4
-1.539, 4.485e-4
-1.538, 4.408e-4
-1.537, 4.332e-4
-1.536, 4.257e-4
-1.535, 4.182e-4
-1.534, 4.109e-4
-1.533, 4.037e-4
-1.532, 3.966e-4
-1.531, 3.896e-4
-1.530, 3.828e-4
-1.529, 3.758e-4
-1.528, 3.692e-4
-1.527, 3.625e-4
-1.526, 3.560e-4
-1.525, 3.496e-4
-1.524, 3.432e-4
-1.523, 3.370e-4
-1.522, 3.309e-4
-1.521, 3.248e-4
-1.520, 3.189e-4
-1.519, 3.130e-4
-1.518, 3.072e-4
-1.517, 3.016e-4
-1.516, 2.960e-4
-1.515, 2.905e-4
-1.514, 2.851e-4
-1.513, 2.797e-4
-1.512, 2.746e-4
-1.511, 2.694e-4
-1.510, 2.642e-4
-1.509, 2.593e-4
-1.508, 2.543e-4
-1.507, 2.495e-4
-1.506, 2.447e-4
-1.505, 2.400e-4
-1.504, 2.354e-4
-1.503, 2.308e-4
-1.502, 2.264e-4
-1.501, 2.220e-4
-1.500, 2.177e-4
-1.499, 2.134e-4
-1.498, 2.093e-4
-1.497, 2.052e-4
-1.496, 2.012e-4
-1.495, 1.972e-4
-1.494, 1.932e-4
-1.493, 1.894e-4
-1.492, 1.857e-4
-1.491, 1.819e-4
-1.490, 1.783e-4
-1.489, 1.747e-4
-1.488, 1.712e-4
-1.487, 1.678e-4
-1.486, 1.643e-4
-1.485, 1.610e-4
-1.484, 1.577e-4
-1.483, 1.545e-4
-1.482, 1.514e-4
-1.481, 1.482e-4
-1.480, 1.452e-4
-1.479, 1.422e-4
-1.478, 1.392e-4
-1.477, 1.364e-4
-1.476, 1.335e-4
-1.475, 1.308e-4
-1.474, 1.280e-4
-1.473, 1.253e-4
-1.472, 1.227e-4
-1.471, 1.201e-4
-1.470, 1.175e-4
-1.469, 1.151e-4
-1.468, 1.126e-4
-1.467, 1.102e-4
-1.466, 1.078e-4
-1.465, 1.055e-4
-1.464, 1.033e-4
-1.463, 1.010e-4
-1.462, 9.885e-5
-1.461, 9.667e-5
-1.460, 9.459e-5
-1.459, 9.248e-5
-1.458, 9.038e-5
-1.457, 8.850e-5
-1.456, 8.653e-5
-1.455, 8.460e-5
-1.454, 8.266e-5
-1.453, 8.089e-5
-1.452, 7.909e-5
-1.451, 7.727e-5
-1.450, 7.559e-5
-1.449, 7.380e-5
-1.448, 7.218e-5
-1.447, 7.056e-5
-1.446, 6.888e-5
-1.445, 6.735e-5
-1.444, 6.575e-5
-1.443, 6.426e-5
-1.442, 6.277e-5
-1.441, 6.133e-5
-1.440, 5.990e-5
-1.439, 5.848e-5
-1.438, 5.707e-5
-1.437, 5.579e-5
-1.436, 5.449e-5
-1.435, 5.314e-5
-1.434, 5.186e-5
-1.433, 5.060e-5
-1.432, 4.944e-5
-1.431, 4.819e-5
-1.430, 4.707e-5
-1.429, 4.589e-5
-1.428, 4.474e-5
-1.427, 4.374e-5
-1.426, 4.260e-5
-1.425, 4.154e-5
-1.424, 4.052e-5
-1.423, 3.950e-5
-1.422, 3.854e-5
-1.421, 3.757e-5
-1.420, 3.661e-5
-1.419, 3.561e-5
-1.418, 3.480e-5
-1.417, 3.388e-5
-1.416, 3.301e-5
-1.415, 3.216e-5
-1.414, 3.123e-5
-1.413, 3.052e-5
-1.412, 2.971e-5
-1.411, 2.893e-5
-1.410, 2.814e-5
-1.409, 2.736e-5
-1.408, 2.664e-5
-1.407, 2.597e-5
-1.406, 2.525e-5
-1.405, 2.454e-5
-1.404, 2.386e-5
-1.403, 2.316e-5
-1.402, 2.262e-5
-1.401, 2.194e-5
-1.400, 2.134e-5
-1.399, 2.074e-5
-1.398, 2.010e-5
-1.397, 1.956e-5
-1.396, 1.898e-5
-1.395, 1.846e-5
-1.394, 1.788e-5
-1.393, 1.736e-5
-1.392, 1.691e-5
-1.391, 1.635e-5
-1.390, 1.590e-5
-1.389, 1.537e-5
-1.388, 1.491e-5
-1.387, 1.448e-5
-1.386, 1.401e-5
-1.385, 1.357e-5
-1.384, 1.312e-5
-1.383, 1.274e-5
-1.382, 1.233e-5
-1.381, 1.192e-5
-1.380, 1.155e-5
-1.379, 1.113e-5
-1.378, 1.077e-5
-1.377, 1.041e-5
-1.376, 1.007e-5
-1.375, 9.741e-6
-1.374, 9.335e-6
-1.373, 9.045e-6
-1.372, 8.727e-6
-1.371, 8.387e-6
-1.370, 8.093e-6
-1.369, 7.763e-6
-1.368, 7.443e-6
-1.367, 7.246e-6
-1.366, 6.919e-6
-1.365, 6.650e-6
-1.364, 6.389e-6
-1.363, 6.107e-6
-1.362, 5.906e-6
-1.361, 5.601e-6
-1.360, 5.415e-6
-1.359, 5.125e-6
-1.358, 4.890e-6
-1.357, 4.750e-6
-1.356, 4.438e-6
-1.355, 4.245e-6
-1.354, 4.041e-6
-1.353, 3.818e-6
-1.352, 3.664e-6
-1.351, 3.443e-6
-1.350, 3.260e-6
-1.349, 3.056e-6
-1.348, 2.894e-6
-1.347, 2.699e-6
-1.346, 2.573e-6
-1.345, 2.370e-6
-1.344, 2.202e-6
-1.343, 2.030e-6
-1.342, 1.899e-6
-1.341, 1.751e-6
-1.340, 1.599e-6
-1.339, 1.475e-6
-1.338, 1.301e-6
-1.337, 1.200e-6
-1.336, 1.025e-6
-1.335, 9.203e-7
-1.334, 7.634e-7
-1.333, 6.490e-7
-1.332, 5.839e-7
-1.331, 4.221e-7
-1.330, 3.323e-7
-1.329, 1.547e-7
-1.328, 8.366e-8
-1.327, -1.204e-8
-1.326, -1.600e-7
-1.325, -2.123e-7
-1.324, -3.712e-7
-1.323, -4.471e-7
-1.322, -5.063e-7
-1.321, -6.119e-7
-1.320, -7.115e-7
-1.319, -7.727e-7
-1.318, -9.089e-7
-1.317, -9.434e-7
-1.316, -1.028e-6
-1.315, -1.131e-6
-1.314, -1.161e-6
-1.313, -1.302e-6
-1.312, -1.292e-6
-1.311, -1.392e-6
-1.310, -1.503e-6
-1.309, -1.532e-6
-1.308, -1.641e-6
-1.307, -1.643e-6
-1.306, -1.760e-6
-1.305, -1.807e-6
-1.304, -1.896e-6
-1.303, -1.934e-6
-1.302, -1.963e-6
-1.301, -2.039e-6
-1.300, -2.041e-6
-1.299, -2.189e-6
-1.298, -2.167e-6
-1.297, -2.183e-6
-1.296, -2.271e-6
-1.295, -2.310e-6
-1.294, -2.396e-6
-1.293, -2.406e-6
-1.292, -2.407e-6
-1.291, -2.531e-6
-1.290, -2.497e-6
-1.289, -2.540e-6
-1.288, -2.626e-6
-1.287, -2.579e-6
-1.286, -2.674e-6
-1.285, -2.706e-6
-1.284, -2.687e-6
-1.283, -2.792e-6
-1.282, -2.745e-6
-1.281, -2.825e-6
-1.280, -2.856e-6
-1.279, -2.887e-6
-1.278, -2.967e-6
-1.277, -2.891e-6
-1.276, -2.936e-6
-1.275, -2.936e-6
-1.274, -3.009e-6
-1.273, -2.997e-6
-1.272, -2.979e-6
-1.271, -3.047e-6
-1.270, -3.075e-6
-1.269, -3.101e-6
-1.268, -3.084e-6
-1.267, -3.086e-6
-1.266, -3.115e-6
-1.265, -3.143e-6
-1.264, -3.198e-6
-1.263, -3.163e-6
-1.262, -3.189e-6
-1.261, -3.161e-6
-1.260, -3.190e-6
-1.259, -3.220e-6
-1.258, -3.220e-6
-1.257, -3.206e-6
-1.256, -3.208e-6
-1.255, -3.239e-6
-1.254, -3.259e-6
-1.253, -3.271e-6
-1.252, -3.217e-6
-1.251, -3.298e-6
-1.250, -3.224e-6
-1.249, -3.295e-6
-1.248, -3.296e-6
-1.247, -3.211e-6
-1.246, -3.315e-6
-1.245, -3.270e-6
-1.244, -3.309e-6
-1.243, -3.331e-6
-1.242, -3.243e-6
-1.241, -3.342e-6
-1.240, -3.268e-6
-1.239, -3.350e-6
-1.238, -3.332e-6
-1.237, -3.288e-6
-1.236, -3.328e-6
-1.235, -3.317e-6
-1.234, -3.346e-6
-1.233, -3.309e-6
-1.232, -3.281e-6
-1.231, -3.290e-6
-1.230, -3.328e-6
-1.229, -3.358e-6
-1.228, -3.346e-6
-1.227, -3.303e-6
-1.226, -3.313e-6
-1.225, -3.340e-6
-1.224, -3.345e-6
-1.223, -3.366e-6
-1.222, -3.289e-6
-1.221, -3.308e-6
-1.220, -3.316e-6
-1.219, -3.360e-6
-1.218, -3.337e-6
-1.217, -3.283e-6
-1.216, -3.343e-6
-1.215, -3.305e-6
-1.214, -3.382e-6
-1.213, -3.339e-6
-1.212, -3.269e-6
-1.211, -3.341e-6
-1.210, -3.284e-6
-1.209, -3.333e-6
-1.208, -3.312e-6
-1.207, -3.283e-6
-1.206, -3.322e-6
-1.205, -3.275e-6
-1.204, -3.318e-6
-1.203, -3.322e-6
-1.202, -3.284e-6
-1.201, -3.296e-6
-1.200, -3.252e-6
-1.199, -3.308e-6
-1.198, -3.276e-6
-1.197, -3.247e-6
-1.196, -3.279e-6
-1.195, -3.287e-6
-1.194, -3.296e-6
-1.193, -3.330e-6
-1.192, -3.256e-6
-1.191, -3.276e-6
-1.190, -3.279e-6
-1.189, -3.260e-6
-1.188, -3.282e-6
-1.187, -3.251e-6
-1.186, -3.258e-6
-1.185, -3.254e-6
-1.184, -3.256e-6
-1.183, -3.280e-6
-1.182, -3.204e-6
-1.181, -3.243e-6
-1.180, -3.205e-6
-1.179, -3.266e-6
-1.178, -3.265e-6
-1.177, -3.215e-6
-1.176, -3.264e-6
-1.175, -3.186e-6
-1.174, -3.264e-6
-1.173, -3.256e-6
-1.172, -3.166e-6
-1.171, -3.243e-6
-1.170, -3.187e-6
-1.169, -3.253e-6
-1.168, -3.205e-6
-1.167, -3.198e-6
-1.166, -3.213e-6
-1.165, -3.176e-6
-1.164, -3.211e-6
-1.163, -3.216e-6
-1.162, -3.175e-6
-1.161, -3.183e-6
-1.160, -3.186e-6
-1.159, -3.232e-6
-1.158, -3.207e-6
-1.157, -3.157e-6
-1.156, -3.172e-6
-1.155, -3.211e-6
-1.154, -3.162e-6
-1.153, -3.209e-6
-1.152, -3.156e-6
-1.151, -3.133e-6
-1.150, -3.173e-6
-1.149, -3.163e-6
-1.148, -3.162e-6
-1.147, -3.131e-6
-1.146, -3.159e-6
-1.145, -3.158e-6
-1.144, -3.153e-6
-1.143, -3.156e-6
-1.142, -3.104e-6
-1.141, -3.141e-6
-1.140, -3.129e-6
-1.139, -3.138e-6
-1.138, -3.166e-6
-1.137, -3.107e-6
-1.136, -3.134e-6
-1.135, -3.082e-6
-1.134, -3.136e-6
-1.133, -3.148e-6
-1.132, -3.080e-6
-1.131, -3.130e-6
-1.130, -3.077e-6
-1.129, -3.142e-6
-1.128, -3.098e-6
-1.127, -3.064e-6
-1.126, -3.101e-6
-1.125, -3.069e-6
-1.124, -3.143e-6
-1.123, -3.116e-6
-1.122, -3.084e-6
-1.121, -3.123e-6
-1.120, -3.095e-6
-1.119, -3.127e-6
-1.118, -3.103e-6
-1.117, -3.068e-6
-1.116, -3.059e-6
-1.115, -3.103e-6
-1.114, -3.120e-6
-1.113, -3.098e-6
-1.112, -3.069e-6
-1.111, -3.092e-6
-1.110, -3.061e-6
-1.109, -3.109e-6
-1.108, -3.109e-6
-1.107, -3.073e-6
-1.106, -3.065e-6
-1.105, -3.104e-6
-1.104, -3.054e-6
-1.103, -3.094e-6
-1.102, -3.076e-6
-1.101, -3.065e-6
-1.100, -3.069e-6
-1.099, -3.088e-6
-1.098, -3.105e-6
-1.097, -3.047e-6
-1.096, -3.058e-6
-1.095, -3.058e-6
-1.094, -3.075e-6
-1.093, -3.094e-6
-1.092, -3.055e-6
-1.091, -3.070e-6
-1.090, -3.064e-6
-1.089, -3.126e-6
-1.088, -3.122e-6
-1.087, -3.054e-6
-1.086, -3.104e-6
-1.085, -3.066e-6
-1.084, -3.089e-6
-1.083, -3.123e-6
-1.082, -3.067e-6
-1.081, -3.102e-6
-1.080, -3.054e-6
-1.079, -3.133e-6
-1.078, -3.099e-6
-1.077, -3.064e-6
-1.076, -3.104e-6
-1.075, -3.110e-6
-1.074, -3.138e-6
-1.073, -3.122e-6
-1.072, -3.081e-6
-1.071, -3.109e-6
-1.070, -3.121e-6
-1.069, -3.152e-6
-1.068, -3.120e-6
-1.067, -3.135e-6
-1.066, -3.115e-6
-1.065, -3.156e-6
-1.064, -3.178e-6
-1.063, -3.132e-6
-1.062, -3.177e-6
-1.061, -3.111e-6
-1.060, -3.143e-6
-1.059, -3.185e-6
-1.058, -3.184e-6
-1.057, -3.161e-6
-1.056, -3.158e-6
-1.055, -3.180e-6
-1.054, -3.163e-6
-1.053, -3.213e-6
-1.052, -3.166e-6
-1.051, -3.199e-6
-1.050, -3.183e-6
-1.049, -3.220e-6
-1.048, -3.244e-6
-1.047, -3.180e-6
-1.046, -3.220e-6
-1.045, -3.198e-6
-1.044, -3.243e-6
-1.043, -3.290e-6
-1.042, -3.224e-6
-1.041, -3.267e-6
-1.040, -3.238e-6
-1.039, -3.302e-6
-1.038, -3.288e-6
-1.037, -3.221e-6
-1.036, -3.271e-6
-1.035, -3.280e-6
-1.034, -3.321e-6
-1.033, -3.340e-6
-1.032, -3.276e-6
-1.031, -3.321e-6
-1.030, -3.316e-6
-1.029, -3.348e-6
-1.028, -3.290e-6
-1.027, -3.315e-6
-1.026, -3.310e-6
-1.025, -3.330e-6
-1.024, -3.381e-6
-1.023, -3.359e-6
-1.022, -3.378e-6
-1.021, -3.345e-6
-1.020, -3.370e-6
-1.019, -3.443e-6
-1.018, -3.380e-6
-1.017, -3.406e-6
-1.016, -3.364e-6
-1.015, -3.391e-6
-1.014, -3.452e-6
-1.013, -3.408e-6
-1.012, -3.418e-6
-1.011, -3.404e-6
-1.010, -3.437e-6
-1.009, -3.475e-6
-1.008, -3.441e-6
-1.007, -3.441e-6
-1.006, -3.449e-6
-1.005, -3.452e-6
-1.004, -3.459e-6
-1.003, -3.511e-6
-1.002, -3.458e-6
-1.001, -3.498e-6
-1.000, -7.530e-7
-1.001, 1.034e-7
-1.002, 3.214e-7
-1.003, 5.464e-7
-1.004, 7.141e-7
-1.005, 7.901e-7
-1.006, 9.361e-7
-1.007, 1.027e-6
-1.008, 1.132e-6
-1.009, 1.226e-6
-1.010, 1.269e-6
-1.011, 1.353e-6
-1.012, 1.409e-6
-1.013, 1.502e-6
-1.014, 1.564e-6
-1.015, 1.617e-6
-1.016, 1.630e-6
-1.017, 1.688e-6
-1.018, 1.782e-6
-1.019, 1.812e-6
-1.020, 1.828e-6
-1.021, 1.865e-6
-1.022, 1.895e-6
-1.023, 1.980e-6
-1.024, 2.011e-6
-1.025, 2.023e-6
-1.026, 2.029e-6
-1.027, 2.034e-6
-1.028, 2.112e-6
-1.029, 2.162e-6
-1.030, 2.181e-6
-1.031, 2.176e-6
-1.032, 2.180e-6
-1.033, 2.228e-6
-1.034, 2.278e-6
-1.035, 2.274e-6
-1.036, 2.251e-6
-1.037, 2.343e-6
-1.038, 2.358e-6
-1.039, 2.374e-6
-1.040, 2.381e-6
-1.041, 2.368e-6
-1.042, 2.415e-6
-1.043, 2.438e-6
-1.044, 2.451e-6
-1.045, 2.463e-6
-1.046, 2.429e-6
-1.047, 2.493e-6
-1.048, 2.492e-6
-1.049, 2.522e-6
-1.050, 2.538e-6
-1.051, 2.515e-6
-1.052, 2.579e-6
-1.053, 2.611e-6
-1.054, 2.602e-6
-1.055, 2.609e-6
-1.056, 2.566e-6
-1.057, 2.596e-6
-1.058, 2.662e-6
-1.059, 2.667e-6
-1.060, 2.640e-6
-1.061, 2.642e-6
-1.062, 2.652e-6
-1.063, 2.681e-6
-1.064, 2.710e-6
-1.065, 2.679e-6
-1.066, 2.669e-6
-1.067, 2.717e-6
-1.068, 2.703e-6
-1.069, 2.780e-6
-1.070, 2.753e-6
-1.071, 2.716e-6
-1.072, 2.756e-6
-1.073, 2.760e-6
-1.074, 2.820e-6
-1.075, 2.800e-6
-1.076, 2.796e-6
-1.077, 2.812e-6
-1.078, 2.822e-6
-1.079, 2.848e-6
-1.080, 2.813e-6
-1.081, 2.804e-6
-1.082, 2.852e-6
-1.083, 2.873e-6
-1.084, 2.909e-6
-1.085, 2.860e-6
-1.086, 2.864e-6
-1.087, 2.856e-6
-1.088, 2.888e-6
-1.089, 2.946e-6
-1.090, 2.877e-6
-1.091, 2.921e-6
-1.092, 2.895e-6
-1.093, 2.963e-6
-1.094, 2.928e-6
-1.095, 2.914e-6
-1.096, 2.942e-6
-1.097, 2.916e-6
-1.098, 2.981e-6
-1.099, 2.986e-6
-1.100, 2.928e-6
-1.101, 2.971e-6
-1.102, 2.989e-6
-1.103, 3.007e-6
-1.104, 2.988e-6
-1.105, 3.014e-6
-1.106, 2.994e-6
-1.107, 3.000e-6
-1.108, 3.078e-6
-1.109, 3.022e-6
-1.110, 3.022e-6
-1.111, 3.044e-6
-1.112, 3.032e-6
-1.113, 3.072e-6
-1.114, 3.057e-6
-1.115, 3.062e-6
-1.116, 3.061e-6
-1.117, 3.043e-6
-1.118, 3.087e-6
-1.119, 3.109e-6
-1.120, 3.082e-6
-1.121, 3.051e-6
-1.122, 3.113e-6
-1.123, 3.127e-6
-1.124, 3.135e-6
-1.125, 3.167e-6
-1.126, 3.090e-6
-1.127, 3.156e-6
-1.128, 3.171e-6
-1.129, 3.151e-6
-1.130, 3.169e-6
-1.131, 3.111e-6
-1.132, 3.181e-6
-1.133, 3.169e-6
-1.134, 3.202e-6
-1.135, 3.188e-6
-1.136, 3.158e-6
-1.137, 3.198e-6
-1.138, 3.233e-6
-1.139, 3.220e-6
-1.140, 3.229e-6
-1.141, 3.187e-6
-1.142, 3.254e-6
-1.143, 3.241e-6
-1.144, 3.283e-6
-1.145, 3.262e-6
-1.146, 3.246e-6
-1.147, 3.264e-6
-1.148, 3.292e-6
-1.149, 3.308e-6
-1.150, 3.271e-6
-1.151, 3.295e-6
-1.152, 3.301e-6
-1.153, 3.334e-6
-1.154, 3.372e-6
-1.155, 3.301e-6
-1.156, 3.334e-6
-1.157, 3.351e-6
-1.158, 3.345e-6
-1.159, 3.420e-6
-1.160, 3.397e-6
-1.161, 3.369e-6
-1.162, 3.392e-6
-1.163, 3.401e-6
-1.164, 3.453e-6
-1.165, 3.421e-6
-1.166, 3.424e-6
-1.167, 3.426e-6
-1.168, 3.442e-6
-1.169, 3.484e-6
-1.170, 3.474e-6
-1.171, 3.451e-6
-1.172, 3.500e-6
-1.173, 3.478e-6
-1.174, 3.521e-6
-1.175, 3.510e-6
-1.176, 3.456e-6
-1.177, 3.510e-6
-1.178, 3.548e-6
-1.179, 3.549e-6
-1.180, 3.541e-6
-1.181, 3.522e-6
-1.182, 3.554e-6
-1.183, 3.638e-6
-1.184, 3.597e-6
-1.185, 3.604e-6
-1.186, 3.584e-6
-1.187, 3.608e-6
-1.188, 3.630e-6
-1.189, 3.650e-6
-1.190, 3.671e-6
-1.191, 3.603e-6
-1.192, 3.656e-6
-1.193, 3.672e-6
-1.194, 3.711e-6
-1.195, 3.705e-6
-1.196, 3.648e-6
-1.197, 3.731e-6
-1.198, 3.714e-6
-1.199, 3.739e-6
-1.200, 3.728e-6
-1.201, 3.691e-6
-1.202, 3.774e-6
-1.203, 3.745e-6
-1.204, 3.810e-6
-1.205, 3.802e-6
-1.206, 3.738e-6
-1.207, 3.838e-6
-1.208, 3.790e-6
-1.209, 3.878e-6
-1.210, 3.823e-6
-1.211, 3.831e-6
-1.212, 3.854e-6
-1.213, 3.878e-6
-1.214, 3.925e-6
-1.215, 3.899e-6
-1.216, 3.889e-6
-1.217, 3.923e-6
-1.218, 3.937e-6
-1.219, 3.945e-6
-1.220, 3.939e-6
-1.221, 3.951e-6
-1.222, 3.945e-6
-1.223, 3.976e-6
-1.224, 4.017e-6
-1.225, 3.992e-6
-1.226, 3.997e-6
-1.227, 3.988e-6
-1.228, 4.087e-6
-1.229, 4.076e-6
-1.230, 4.083e-6
-1.231, 4.051e-6
-1.232, 4.052e-6
-1.233, 4.093e-6
-1.234, 4.155e-6
-1.235, 4.138e-6
-1.236, 4.091e-6
-1.237, 4.137e-6
-1.238, 4.168e-6
-1.239, 4.204e-6
-1.240, 4.180e-6
-1.241, 4.142e-6
-1.242, 4.220e-6
-1.243, 4.213e-6
-1.244, 4.257e-6
-1.245, 4.249e-6
-1.246, 4.217e-6
-1.247, 4.292e-6
-1.248, 4.268e-6
-1.249, 4.327e-6
-1.250, 4.300e-6
-1.251, 4.295e-6
-1.252, 4.318e-6
-1.253, 4.351e-6
-1.254, 4.398e-6
-1.255, 4.358e-6
-1.256, 4.356e-6
-1.257, 4.377e-6
-1.258, 4.400e-6
-1.259, 4.445e-6
-1.260, 4.419e-6
-1.261, 4.453e-6
-1.262, 4.437e-6
-1.263, 4.502e-6
-1.264, 4.502e-6
-1.265, 4.505e-6
-1.266, 4.506e-6
-1.267, 4.503e-6
-1.268, 4.543e-6
-1.269, 4.571e-6
-1.270, 4.577e-6
-1.271, 4.581e-6
-1.272, 4.579e-6
-1.273, 4.605e-6
-1.274, 4.650e-6
-1.275, 4.652e-6
-1.276, 4.617e-6
-1.277, 4.638e-6
-1.278, 4.678e-6
-1.279, 4.715e-6
-1.280, 4.740e-6
-1.281, 4.653e-6
-1.282, 4.761e-6
-1.283, 4.745e-6
-1.284, 4.776e-6
-1.285, 4.789e-6
-1.286, 4.747e-6
-1.287, 4.826e-6
-1.288, 4.805e-6
-1.289, 4.908e-6
-1.290, 4.844e-6
-1.291, 4.843e-6
-1.292, 4.913e-6
-1.293, 4.880e-6
-1.294, 4.946e-6
-1.295, 4.900e-6
-1.296, 4.907e-6
-1.297, 4.938e-6
-1.298, 4.978e-6
-1.299, 5.002e-6
-1.300, 4.975e-6
-1.301, 5.010e-6
-1.302, 5.014e-6
-1.303, 5.026e-6
-1.304, 5.099e-6
-1.305, 5.040e-6
-1.306, 5.122e-6
-1.307, 5.051e-6
-1.308, 5.122e-6
-1.309, 5.177e-6
-1.310, 5.123e-6
-1.311, 5.177e-6
-1.312, 5.148e-6
-1.313, 5.200e-6
-1.314, 5.265e-6
-1.315, 5.244e-6
-1.316, 5.211e-6
-1.317, 5.233e-6
-1.318, 5.284e-6
-1.319, 5.365e-6
-1.320, 5.327e-6
-1.321, 5.338e-6
-1.322, 5.394e-6
-1.323, 5.411e-6
-1.324, 5.420e-6
-1.325, 5.492e-6
-1.326, 5.419e-6
-1.327, 5.528e-6
-1.328, 5.522e-6
-1.329, 5.585e-6
-1.330, 5.594e-6
-1.331, 5.558e-6
-1.332, 5.613e-6
-1.333, 5.613e-6
-1.334, 5.688e-6
-1.335, 5.702e-6
-1.336, 5.676e-6
-1.337, 5.777e-6
-1.338, 5.776e-6
-1.339, 5.820e-6
-1.340, 5.831e-6
-1.341, 5.831e-6
-1.342, 5.854e-6
-1.343, 5.918e-6
-1.344, 6.012e-6
-1.345, 5.957e-6
-1.346, 6.012e-6
-1.347, 6.053e-6
-1.348, 6.052e-6
-1.349, 6.195e-6
-1.350, 6.133e-6
-1.351, 6.224e-6
-1.352, 6.257e-6
-1.353, 6.294e-6
-1.354, 6.393e-6
-1.355, 6.354e-6
-1.356, 6.421e-6
-1.357, 6.457e-6
-1.358, 6.503e-6
-1.359, 6.627e-6
-1.360, 6.605e-6
-1.361, 6.673e-6
-1.362, 6.706e-6
-1.363, 6.768e-6
-1.364, 6.883e-6
-1.365, 6.899e-6
-1.366, 6.919e-6
-1.367, 7.010e-6
-1.368, 7.079e-6
-1.369, 7.161e-6
-1.370, 7.214e-6
-1.371, 7.273e-6
-1.372, 7.324e-6
-1.373, 7.417e-6
-1.374, 7.522e-6
-1.375, 7.567e-6
-1.376, 7.637e-6
-1.377, 7.699e-6
-1.378, 7.816e-6
-1.379, 7.921e-6
-1.380, 7.967e-6
-1.381, 8.013e-6
-1.382, 8.117e-6
-1.383, 8.246e-6
-1.384, 8.346e-6
-1.385, 8.445e-6
-1.386, 8.504e-6
-1.387, 8.611e-6
-1.388, 8.684e-6
-1.389, 8.874e-6
-1.390, 8.954e-6
-1.391, 9.002e-6
-1.392, 9.149e-6
-1.393, 9.262e-6
-1.394, 9.401e-6
-1.395, 9.521e-6
-1.396, 9.617e-6
-1.397, 9.772e-6
-1.398, 9.878e-6
-1.399, 1.007e-5
-1.400, 1.018e-5
-1.401, 1.031e-5
-1.402, 1.050e-5
-1.403, 1.057e-5
-1.404, 1.080e-5
-1.405, 1.096e-5
-1.406, 1.106e-5
-1.407, 1.128e-5
-1.408, 1.143e-5
-1.409, 1.164e-5
-1.410, 1.176e-5
-1.411, 1.195e-5
-1.412, 1.215e-5
-1.413, 1.230e-5
-1.414, 1.257e-5
-1.415, 1.275e-5
-1.416, 1.293e-5
-1.417, 1.314e-5
-1.418, 1.339e-5
-1.419, 1.362e-5
-1.420, 1.382e-5
-1.421, 1.412e-5
-1.422, 1.430e-5
-1.423, 1.456e-5
-1.424, 1.483e-5
-1.425, 1.509e-5
-1.426, 1.537e-5
-1.427, 1.562e-5
-1.428, 1.594e-5
-1.429, 1.622e-5
-1.430, 1.656e-5
-1.431, 1.683e-5
-1.432, 1.707e-5
-1.433, 1.744e-5
-1.434, 1.782e-5
-1.435, 1.812e-5
-1.436, 1.845e-5
-1.437, 1.884e-5
-1.438, 1.920e-5
-1.439, 1.964e-5
-1.440, 2.000e-5
-1.441, 2.033e-5
-1.442, 2.075e-5
-1.443, 2.118e-5
-1.444, 2.165e-5
-1.445, 2.206e-5
-1.446, 2.249e-5
-1.447, 2.304e-5
-1.448, 2.345e-5
-1.449, 2.398e-5
-1.450, 2.445e-5
-1.451, 2.494e-5
-1.452, 2.552e-5
-1.453, 2.605e-5
-1.454, 2.666e-5
-1.455, 2.716e-5
-1.456, 2.774e-5
-1.457, 2.833e-5
-1.458, 2.896e-5
-1.459, 2.964e-5
-1.460, 3.026e-5
-1.461, 3.094e-5
-1.462, 3.161e-5
-1.463, 3.232e-5
-1.464, 3.306e-5
-1.465, 3.376e-5
-1.466, 3.454e-5
-1.467, 3.527e-5
-1.468, 3.613e-5
-1.469, 3.695e-5
-1.470, 3.779e-5
-1.471, 3.863e-5
-1.472, 3.951e-5
-1.473, 4.043e-5
-1.474, 4.141e-5
-1.475, 4.236e-5
-1.476, 4.332e-5
-1.477, 4.434e-5
-1.478, 4.535e-5
-1.479, 4.646e-5
-1.480, 4.755e-5
-1.481, 4.865e-5
-1.482, 4.983e-5
-1.483, 5.098e-5
-1.484, 5.223e-5
-1.485, 5.349e-5
-1.486, 5.474e-5
-1.487, 5.611e-5
-1.488, 5.741e-5
-1.489, 5.890e-5
-1.490, 6.027e-5
-1.491, 6.173e-5
-1.492, 6.329e-5
-1.493, 6.476e-5
-1.494, 6.640e-5
-1.495, 6.801e-5
-1.496, 6.960e-5
-1.497, 7.137e-5
-1.498, 7.314e-5
-1.499, 7.495e-5
-1.500, 7.679e-5
-1.501, 7.870e-5
-1.502, 8.062e-5
-1.503, 8.265e-5
-1.504, 8.469e-5
-1.505, 8.679e-5
-1.506, 8.896e-5
-1.507, 9.117e-5
-1.508, 9.349e-5
-1.509, 9.582e-5
-1.510, 9.822e-5
-1.511, 1.007e-4
-1.512, 1.032e-4
-1.513, 1.058e-4
-1.514, 1.085e-4
-1.515, 1.112e-4
-1.516, 1.140e-4
-1.517, 1.169e-4
-1.518, 1.198e-4
-1.519, 1.229e-4
-1.520, 1.260e-4
-1.521, 1.291e-4
-1.522, 1.324e-4
-1.523, 1.357e-4
-1.524, 1.392e-4
-1.525, 1.427e-4
-1.526, 1.463e-4
-1.527, 1.500e-4
-1.528, 1.538e-4
-1.529, 1.577e-4
-1.530, 1.617e-4
-1.531, 1.657e-4
-1.532, 1.700e-4
-1.533, 1.743e-4
-1.534, 1.788e-4
-1.535, 1.832e-4
-1.536, 1.879e-4
-1.537, 1.926e-4
-1.538, 1.975e-4
-1.539, 2.025e-4
-1.540, 2.076e-4
-1.541, 2.128e-4
-1.542, 2.181e-4
-1.543, 2.237e-4
-1.544, 2.293e-4
-1.545, 2.350e-4
-1.546, 2.409e-4
-1.547, 2.469e-4
-1.548, 2.531e-4
-1.549, 2.595e-4
-1.550, 2.658e-4
-1.551, 2.725e-4
-1.552, 2.792e-4
-1.553, 2.862e-4
-1.554, 2.933e-4
-1.555, 3.005e-4
-1.556, 3.079e-4
-1.557, 3.154e-4
-1.558, 3.232e-4
-1.559, 3.311e-4
-1.560, 3.392e-4
-1.561, 3.475e-4
-1.562, 3.560e-4
-1.563, 3.646e-4
-1.564, 3.735e-4
-1.565, 3.825e-4
-1.566, 3.917e-4
-1.567, 4.011e-4
-1.568, 4.108e-4
-1.569, 4.206e-4
-1.570, 4.306e-4
-1.571, 4.408e-4
-1.572, 4.513e-4
-1.573, 4.619e-4
-1.574, 4.728e-4
-1.575, 4.839e-4
-1.576, 4.952e-4
-1.577, 5.068e-4
-1.578, 5.186e-4
-1.579, 5.306e-4
-1.580, 5.429e-4
-1.581, 5.553e-4
-1.582, 5.681e-4
-1.583, 5.811e-4
-1.584, 5.943e-4
-1.585, 6.078e-4
-1.586, 6.215e-4
-1.587, 6.356e-4
-1.588, 6.498e-4
-1.589, 6.644e-4
-1.590, 6.792e-4
-1.591, 6.942e-4
-1.592, 7.096e-4
-1.593, 7.251e-4
-1.594, 7.410e-4
-1.595, 7.570e-4
-1.596, 7.735e-4
-1.597, 7.901e-4
-1.598, 8.071e-4
-1.599, 8.245e-4
-1.600, 8.303e-4
-1.599, 8.250e-4
-1.598, 8.191e-4
-1.597, 8.127e-4
-1.596, 8.058e-4
-1.595, 7.984e-4
-1.594, 7.907e-4
-1.593, 7.828e-4
-1.592, 7.747e-4
-1.591, 7.663e-4
-1.590, 7.578e-4
-1.589, 7.492e-4
-1.588, 7.403e-4
-1.587, 7.313e-4
-1.586, 7.224e-4
-1.585, 7.134e-4
-1.584, 7.045e-4
-1.583, 6.954e-4
-1.582, 6.863e-4
-1.581, 6.773e-4
-1.580, 6.682e-4
-1.579, 6.591e-4
-1.578, 6.501e-4
-1.577, 6.411e-4
-1.576, 6.321e-4
-1.575, 6.232e-4
-1.574, 6.143e-4
-1.573, 6.055e-4
-1.572, 5.967e-4
-1.571, 5.879e-4
-1.570, 5.794e-4
-1.569, 5.707e-4
-1.568, 5.623e-4
-1.567, 5.538e-4
-1.566, 5.454e-4
-1.565, 5.371e-4
-1.564, 5.288e-4
-1.563, 5.206e-4
-1.562, 5.125e-4
-1.561, 5.045e-4
-1.560, 4.966e-4
-1.559, 4.887e-4
-1.558, 4.810e-4
-1.557, 4.734e-4
-1.556, 4.657e-4
-1.555, 4.583e-4
-1.554, 4.508e-4
-1.553, 4.435e-4
-1.552, 4.364e-4
-1.551, 4.292e-4
-1.550, 4.221e-4
-1.549, 4.151e-4
-1.548, 4.082e-4
-1.547, 4.015e-4
-1.546, 3.948e-4
-1.545, 3.881e-4
-1.544, 3.816e-4
-1.543, 3.752e-4
-1.542, 3.688e-4
-1.541, 3.625e-4
-1.540, 3.563e-4
-1.539, 3.501e-4
-1.538, 3.441e-4
-1.537, 3.382e-4
-1.536, 3.323e-4
-1.535, 3.265e-4
-1.534, 3.208e-4
-1.533, 3.151e-4
-1.532, 3.097e-4
-1.531, 3.041e-4
-1.530, 2.988e-4
-1.529, 2.934e-4
-1.528, 2.882e-4
-1.527, 2.831e-4
-1.526, 2.779e-4
-1.525, 2.731e-4
-1.524, 2.680e-4
-1.523, 2.632e-4
-1.522, 2.585e-4
-1.521, 2.537e-4
-1.520, 2.492e-4
-1.519, 2.446e-4
-1.518, 2.401e-4
-1.517, 2.357e-4
-1.516, 2.314e-4
-1.515, 2.271e-4
-1.514, 2.228e-4
-1.513, 2.187e-4
-1.512, 2.147e-4
-1.511, 2.107e-4
-1.510, 2.066e-4
-1.509, 2.028e-4
-1.508, 1.989e-4
-1.507, 1.951e-4
-1.506, 1.915e-4
-1.505, 1.879e-4
-1.504, 1.843e-4
-1.503, 1.807e-4
-1.502, 1.773e-4
-1.501, 1.739e-4
-1.500, 1.705e-4
-1.499, 1.672e-4
-1.498, 1.639e-4
-1.497, 1.608e-4
-1.496, 1.577e-4
-1.495, 1.546e-4
-1.494, 1.515e-4
-1.493, 1.486e-4
-1.492, 1.457e-4
-1.491, 1.427e-4
-1.490, 1.400e-4
-1.489, 1.372e-4
-1.488, 1.344e-4
-1.487, 1.318e-4
-1.486, 1.291e-4
-1.485, 1.266e-4
-1.484, 1.240e-4
-1.483, 1.215e-4
-1.482, 1.190e-4
-1.481, 1.166e-4
-1.480, 1.143e-4
-1.479, 1.119e-4
-1.478, 1.096e-4
-1.477, 1.074e-4
-1.476, 1.052e-4
-1.475, 1.031e-4
-1.474, 1.009e-4
-1.473, 9.878e-5
-1.472, 9.678e-5
-1.471, 9.474e-5
-1.470, 9.276e-5
-1.469, 9.079e-5
-1.468, 8.892e-5
-1.467, 8.705e-5
-1.466, 8.523e-5
-1.465, 8.340e-5
-1.464, 8.164e-5
-1.463, 7.983e-5
-1.462, 7.819e-5
-1.461, 7.656e-5
-1.460, 7.488e-5
-1.459, 7.329e-5
-1.458, 7.163e-5
-1.457, 7.013e-5
-1.456, 6.860e-5
-1.455, 6.710e-5
-1.454, 6.565e-5
-1.453, 6.416e-5
-1.452, 6.280e-5
-1.451, 6.139e-5
-1.450, 6.002e-5
-1.449, 5.868e-5
-1.448, 5.733e-5
-1.447, 5.613e-5
-1.446, 5.478e-5
-1.445, 5.362e-5
-1.444, 5.234e-5
-1.443, 5.112e-5
-1.442, 5.006e-5
-1.441, 4.885e-5
-1.440, 4.774e-5
-1.439, 4.663e-5
-1.438, 4.554e-5
-1.437, 4.452e-5
-1.436, 4.343e-5
-1.435, 4.246e-5
-1.434, 4.141e-5
-1.433, 4.039e-5
-1.432, 3.956e-5
-1.431, 3.852e-5
-1.430, 3.766e-5
-1.429, 3.676e-5
-1.428, 3.583e-5
-1.427, 3.503e-5
-1.426, 3.413e-5
-1.425, 3.329e-5
-1.424, 3.247e-5
-1.423, 3.170e-5
-1.422, 3.093e-5
-1.421, 3.012e-5
-1.420, 2.938e-5
-1.419, 2.859e-5
-1.418, 2.795e-5
-1.417, 2.722e-5
-1.416, 2.655e-5
-1.415, 2.586e-5
-1.414, 2.515e-5
-1.413, 2.453e-5
-1.412, 2.394e-5
-1.411, 2.328e-5
-1.410, 2.268e-5
-1.409, 2.205e-5
-1.408, 2.147e-5
-1.407, 2.093e-5
-1.406, 2.037e-5
-1.405, 1.984e-5
-1.404, 1.928e-5
-1.403, 1.872e-5
-1.402, 1.828e-5
-1.401, 1.775e-5
-1.400, 1.725e-5
-1.399, 1.678e-5
-1.398, 1.630e-5
-1.397, 1.589e-5
-1.396, 1.540e-5
-1.395, 1.494e-5
-1.394, 1.451e-5
-1.393, 1.405e-5
-1.392, 1.371e-5
-1.391, 1.329e-5
-1.390, 1.287e-5
-1.389, 1.250e-5
-1.388, 1.211e-5
-1.387, 1.179e-5
-1.386, 1.139e-5
-1.385, 1.107e-5
-1.384, 1.071e-5
-1.383, 1.034e-5
-1.382, 1.004e-5
-1.381, 9.713e-6
-1.380, 9.432e-6
-1.379, 9.066e-6
-1.378, 8.771e-6
-1.377, 8.526e-6
-1.376, 8.234e-6
-1.375, 7.950e-6
-1.374, 7.589e-6
-1.373, 7.388e-6
-1.372, 7.141e-6
-1.371, 6.916e-6
-1.370, 6.623e-6
-1.369, 6.325e-6
-1.368, 6.108e-6
-1.367, 5.939e-6
-1.366, 5.688e-6
-1.365, 5.488e-6
-1.364, 5.229e-6
-1.363, 4.995e-6
-1.362, 4.829e-6
-1.361, 4.640e-6
-1.360, 4.410e-6
-1.359, 4.233e-6
-1.358, 4.004e-6
-1.357, 3.880e-6
-1.356, 3.689e-6
-1.355, 3.494e-6
-1.354, 3.316e-6
-1.353, 3.128e-6
-1.352, 3.016e-6
-1.351, 2.884e-6
-1.350, 2.624e-6
-1.349, 2.537e-6
-1.348, 2.382e-6
-1.347, 2.238e-6
-1.346, 2.121e-6
-1.345, 1.939e-6
-1.344, 1.822e-6
-1.343, 1.654e-6
-1.342, 1.541e-6
-1.341, 1.467e-6
-1.340, 1.293e-6
-1.339, 1.167e-6
-1.338, 1.059e-6
-1.337, 9.795e-7
-1.336, 8.789e-7
-1.335, 7.634e-7
-1.334, 6.036e-7
-1.333, 5.020e-7
-1.332, 4.822e-7
-1.331, 3.806e-7
-1.330, 2.435e-7
-1.329, 1.281e-7
-1.328, 3.433e-8
-1.327, 7.893e-10
-1.326, -1.334e-7
-1.325, -1.896e-7
-1.324, -3.445e-7
-1.323, -4.175e-7
-1.322, -4.708e-7
-1.321, -5.152e-7
-1.320, -5.931e-7
-1.319, -7.007e-7
-1.318, -7.885e-7
-1.317, -8.112e-7
-1.316, -8.467e-7
-1.315, -9.888e-7
-1.314, -1.038e-6
-1.313, -1.082e-6
-1.312, -1.159e-6
-1.311, -1.129e-6
-1.310, -1.266e-6
-1.309, -1.335e-6
-1.308, -1.376e-6
-1.307, -1.456e-6
-1.306, -1.453e-6
-1.305, -1.528e-6
-1.304, -1.599e-6
-1.303, -1.659e-6
-1.302, -1.694e-6
-1.301, -1.673e-6
-1.300, -1.769e-6
-1.299, -1.794e-6
-1.298, -1.882e-6
-1.297, -1.878e-6
-1.296, -1.912e-6
-1.295, -1.939e-6
-1.294, -2.005e-6
-1.293, -2.036e-6
-1.292, -2.074e-6
-1.291, -2.076e-6
-1.290, -2.093e-6
-1.289, -2.198e-6
-1.288, -2.187e-6
-1.287, -2.197e-6
-1.286, -2.235e-6
-1.285, -2.242e-6
-1.284, -2.296e-6
-1.283, -2.364e-6
-1.282, -2.333e-6
-1.281, -2.382e-6
-1.280, -2.402e-6
-1.279, -2.462e-6
-1.278, -2.447e-6
-1.277, -2.437e-6
-1.276, -2.443e-6
-1.275, -2.485e-6
-1.274, -2.563e-6
-1.273, -2.511e-6
-1.272, -2.558e-6
-1.271, -2.494e-6
-1.270, -2.610e-6
-1.269, -2.565e-6
-1.268, -2.626e-6
-1.267, -2.654e-6
-1.266, -2.585e-6
-1.265, -2.647e-6
-1.264, -2.680e-6
-1.263, -2.674e-6
-1.262, -2.683e-6
-1.261, -2.670e-6
-1.260, -2.696e-6
-1.259, -2.723e-6
-1.258, -2.718e-6
-1.257, -2.700e-6
-1.256, -2.718e-6
-1.255, -2.718e-6
-1.254, -2.787e-6
-1.253, -2.718e-6
-1.252, -2.725e-6
-1.251, -2.789e-6
-1.250, -2.723e-6
-1.249, -2.795e-6
-1.248, -2.785e-6
-1.247, -2.741e-6
-1.246, -2.808e-6
-1.245, -2.753e-6
-1.244, -2.811e-6
-1.243, -2.801e-6
-1.242, -2.803e-6
-1.241, -2.810e-6
-1.240, -2.771e-6
-1.239, -2.839e-6
-1.238, -2.827e-6
-1.237, -2.822e-6
-1.236, -2.788e-6
-1.235, -2.810e-6
-1.234, -2.859e-6
-1.233, -2.772e-6
-1.232, -2.830e-6
-1.231, -2.762e-6
-1.230, -2.798e-6
-1.229, -2.903e-6
-1.228, -2.826e-6
-1.227, -2.826e-6
-1.226, -2.802e-6
-1.225, -2.844e-6
-1.224, -2.851e-6
-1.223, -2.835e-6
-1.222, -2.865e-6
-1.221, -2.803e-6
-1.220, -2.803e-6
-1.219, -2.857e-6
-1.218, -2.847e-6
-1.217, -2.831e-6
-1.216, -2.802e-6
-1.215, -2.823e-6
-1.214, -2.855e-6
-1.213, -2.873e-6
-1.212, -2.840e-6
-1.211, -2.825e-6
-1.210, -2.824e-6
-1.209, -2.855e-6
-1.208, -2.833e-6
-1.207, -2.813e-6
-1.206, -2.834e-6
-1.205, -2.782e-6
-1.204, -2.841e-6
-1.203, -2.869e-6
-1.202, -2.797e-6
-1.201, -2.842e-6
-1.200, -2.781e-6
-1.199, -2.851e-6
-1.198, -2.857e-6
-1.197, -2.808e-6
-1.196, -2.834e-6
-1.195, -2.792e-6
-1.194, -2.871e-6
-1.193, -2.841e-6
-1.192, -2.792e-6
-1.191, -2.818e-6
-1.190, -2.804e-6
-1.189, -2.836e-6
-1.188, -2.820e-6
-1.187, -2.826e-6
-1.186, -2.808e-6
-1.185, -2.782e-6
-1.184, -2.844e-6
-1.183, -2.783e-6
-1.182, -2.835e-6
-1.181, -2.754e-6
-1.180, -2.762e-6
-1.179, -2.833e-6
-1.178, -2.837e-6
-1.177, -2.815e-6
-1.176, -2.749e-6
-1.175, -2.799e-6
-1.174, -2.812e-6
-1.173, -2.804e-6
-1.172, -2.772e-6
-1.171, -2.756e-6
-1.170, -2.775e-6
-1.169, -2.791e-6
-1.168, -2.795e-6
-1.167, -2.775e-6
-1.166, -2.754e-6
-1.165, -2.745e-6
-1.164, -2.765e-6
-1.163, -2.808e-6
-1.162, -2.720e-6
-1.161, -2.774e-6
-1.160, -2.730e-6
-1.159, -2.766e-6
-1.158, -2.798e-6
-1.157, -2.722e-6
-1.156, -2.747e-6
-1.155, -2.724e-6
-1.154, -2.743e-6
-1.153, -2.817e-6
-1.152, -2.711e-6
-1.151, -2.728e-6
-1.150, -2.745e-6
-1.149, -2.751e-6
-1.148, -2.747e-6
-1.147, -2.732e-6
-1.146, -2.703e-6
-1.145, -2.721e-6
-1.144, -2.750e-6
-1.143, -2.714e-6
-1.142, -2.737e-6
-1.141, -2.691e-6
-1.140, -2.718e-6
-1.139, -2.757e-6
-1.138, -2.709e-6
-1.137, -2.730e-6
-1.136, -2.658e-6
-1.135, -2.705e-6
-1.134, -2.716e-6
-1.133, -2.761e-6
-1.132, -2.702e-6
-1.131, -2.673e-6
-1.130, -2.679e-6
-1.129, -2.705e-6
-1.128, -2.741e-6
-1.127, -2.714e-6
-1.126, -2.700e-6
-1.125, -2.704e-6
-1.124, -2.704e-6
-1.123, -2.764e-6
-1.122, -2.681e-6
-1.121, -2.691e-6
-1.120, -2.709e-6
-1.119, -2.692e-6
-1.118, -2.761e-6
-1.117, -2.709e-6
-1.116, -2.692e-6
-1.115, -2.717e-6
-1.114, -2.699e-6
-1.113, -2.783e-6
-1.112, -2.684e-6
-1.111, -2.682e-6
-1.110, -2.706e-6
-1.109, -2.692e-6
-1.108, -2.776e-6
-1.107, -2.690e-6
-1.106, -2.730e-6
-1.105, -2.730e-6
-1.104, -2.724e-6
-1.103, -2.782e-6
-1.102, -2.727e-6
-1.101, -2.740e-6
-1.100, -2.714e-6
-1.099, -2.745e-6
-1.098, -2.784e-6
-1.097, -2.775e-6
-1.096, -2.714e-6
-1.095, -2.732e-6
-1.094, -2.781e-6
-1.093, -2.766e-6
-1.092, -2.732e-6
-1.091, -2.777e-6
-1.090, -2.736e-6
-1.089, -2.775e-6
-1.088, -2.782e-6
-1.087, -2.772e-6
-1.086, -2.775e-6
-1.085, -2.768e-6
-1.084, -2.797e-6
-1.083, -2.823e-6
-1.082, -2.780e-6
-1.081, -2.803e-6
-1.080, -2.796e-6
-1.079, -2.796e-6
-1.078, -2.828e-6
-1.077, -2.814e-6
-1.076, -2.799e-6
-1.075, -2.854e-6
-1.074, -2.837e-6
-1.073, -2.861e-6
-1.072, -2.823e-6
-1.071, -2.848e-6
-1.070, -2.863e-6
-1.069, -2.824e-6
-1.068, -2.889e-6
-1.067, -2.858e-6
-1.066, -2.854e-6
-1.065, -2.906e-6
-1.064, -2.840e-6
-1.063, -2.911e-6
-1.062, -2.903e-6
-1.061, -2.886e-6
-1.060, -2.932e-6
-1.059, -2.938e-6
-1.058, -2.921e-6
-1.057, -2.900e-6
-1.056, -2.946e-6
-1.055, -2.944e-6
-1.054, -2.929e-6
-1.053, -2.975e-6
-1.052, -2.953e-6
-1.051, -2.959e-6
-1.050, -3.004e-6
-1.049, -3.001e-6
-1.048, -3.017e-6
-1.047, -2.958e-6
-1.046, -3.040e-6
-1.045, -3.013e-6
-1.044, -3.031e-6
-1.043, -3.078e-6
-1.042, -3.007e-6
-1.041, -3.050e-6
-1.040, -3.027e-6
-1.039, -3.089e-6
-1.038, -3.087e-6
-1.037, -3.070e-6
-1.036, -3.090e-6
-1.035, -3.080e-6
-1.034, -3.140e-6
-1.033, -3.141e-6
-1.032, -3.100e-6
-1.031, -3.101e-6
-1.030, -3.164e-6
-1.029, -3.181e-6
-1.028, -3.185e-6
-1.027, -3.192e-6
-1.026, -3.174e-6
-1.025, -3.208e-6
-1.024, -3.240e-6
-1.023, -3.238e-6
-1.022, -3.239e-6
-1.021, -3.212e-6
-1.020, -3.247e-6
-1.019, -3.280e-6
-1.018, -3.275e-6
-1.017, -3.306e-6
-1.016, -3.266e-6
-1.015, -3.267e-6
-1.014, -3.328e-6
-1.013, -3.340e-6
-1.012, -3.297e-6
-1.011, -3.351e-6
-1.010, -3.334e-6
-1.009, -3.359e-6
-1.008, -3.382e-6
-1.007, -3.337e-6
-1.006, -3.373e-6
-1.005, -3.357e-6
-1.004, -3.383e-6
-1.003, -3.419e-6
-1.002, -3.387e-6
-1.001, -3.433e-6
-1.000, -6.020e-7
-1.001, 1.715e-7
-1.002, 4.536e-7
-1.003, 6.450e-7
-1.004, 8.039e-7
-1.005, 9.963e-7
-1.006, 1.013e-6
-1.007, 1.182e-6
-1.008, 1.228e-6
-1.009, 1.340e-6
-1.010, 1.448e-6
-1.011, 1.461e-6
-1.012, 1.553e-6
-1.013, 1.598e-6
-1.014, 1.689e-6
-1.015, 1.749e-6
-1.016, 1.734e-6
-1.017, 1.837e-6
-1.018, 1.840e-6
-1.019, 1.940e-6
-1.020, 1.967e-6
-1.021, 1.958e-6
-1.022, 2.019e-6
-1.023, 2.054e-6
-1.024, 2.137e-6
-1.025, 2.144e-6
-1.026, 2.172e-6
-1.027, 2.198e-6
-1.028, 2.181e-6
-1.029, 2.287e-6
-1.030, 2.288e-6
-1.031, 2.289e-6
-1.032, 2.309e-6
-1.033, 2.373e-6
-1.034, 2.398e-6
-1.035, 2.386e-6
-1.036, 2.397e-6
-1.037, 2.408e-6
-1.038, 2.441e-6
-1.039, 2.508e-6
-1.040, 2.521e-6
-1.041, 2.485e-6
-1.042, 2.518e-6
-1.043, 2.564e-6
-1.044, 2.548e-6
-1.045, 2.607e-6
-1.046, 2.549e-6
-1.047, 2.602e-6
-1.048, 2.592e-6
-1.049, 2.651e-6
-1.050, 2.660e-6
-1.051, 2.605e-6
-1.052, 2.679e-6
-1.053, 2.646e-6
-1.054, 2.722e-6
-1.055, 2.762e-6
-1.056, 2.694e-6
-1.057, 2.710e-6
-1.058, 2.757e-6
-1.059, 2.766e-6
-1.060, 2.767e-6
-1.061, 2.753e-6
-1.062, 2.745e-6
-1.063, 2.826e-6
-1.064, 2.777e-6
-1.065, 2.822e-6
-1.066, 2.797e-6
-1.067, 2.811e-6
-1.068, 2.838e-6
-1.069, 2.871e-6
-1.070, 2.861e-6
-1.071, 2.840e-6
-1.072, 2.851e-6
-1.073, 2.867e-6
-1.074, 2.911e-6
-1.075, 2.933e-6
-1.076, 2.829e-6
-1.077, 2.922e-6
-1.078, 2.892e-6
-1.079, 2.939e-6
-1.080, 2.942e-6
-1.081, 2.903e-6
-1.082, 2.933e-6
-1.083, 2.937e-6
-1.084, 2.960e-6
-1.085, 2.953e-6
-1.086, 2.956e-6
-1.087, 2.974e-6
-1.088, 2.952e-6
-1.089, 2.930e-6
-1.090, 3.019e-6
-1.091, 2.964e-6
-1.092, 2.980e-6
-1.093, 3.023e-6
-1.094, 2.974e-6
-1.095, 3.066e-6
-1.096, 2.961e-6
-1.097, 3.028e-6
-1.098, 3.012e-6
-1.099, 3.029e-6
-1.100, 3.061e-6
-1.101, 3.024e-6
-1.102, 3.043e-6
-1.103, 3.057e-6
-1.104, 3.082e-6
-1.105, 3.065e-6
-1.106, 3.063e-6
-1.107, 3.069e-6
-1.108, 3.079e-6
-1.109, 3.084e-6
-1.110, 3.128e-6
-1.111, 3.094e-6
-1.112, 3.048e-6
-1.113, 3.113e-6
-1.114, 3.127e-6
-1.115, 3.151e-6
-1.116, 3.083e-6
-1.117, 3.142e-6
-1.118, 3.107e-6
-1.119, 3.162e-6
-1.120, 3.161e-6
-1.121, 3.098e-6
-1.122, 3.165e-6
-1.123, 3.113e-6
-1.124, 3.173e-6
-1.125, 3.177e-6
-1.126, 3.169e-6
-1.127, 3.164e-6
-1.128, 3.190e-6
-1.129, 3.204e-6
-1.130, 3.219e-6
-1.131, 3.199e-6
-1.132, 3.194e-6
-1.133, 3.248e-6
-1.134, 3.213e-6
-1.135, 3.223e-6
-1.136, 3.203e-6
-1.137, 3.206e-6
-1.138, 3.233e-6
-1.139, 3.255e-6
-1.140, 3.264e-6
-1.141, 3.239e-6
-1.142, 3.255e-6
-1.143, 3.254e-6
-1.144, 3.257e-6
-1.145, 3.301e-6
-1.146, 3.237e-6
-1.147, 3.289e-6
-1.148, 3.282e-6
-1.149, 3.338e-6
-1.150, 3.325e-6
-1.151, 3.303e-6
-1.152, 3.318e-6
-1.153, 3.290e-6
-1.154, 3.363e-6
-1.155, 3.322e-6
-1.156, 3.340e-6
-1.157, 3.329e-6
-1.158, 3.358e-6
-1.159, 3.364e-6
-1.160, 3.365e-6
-1.161, 3.344e-6
-1.162, 3.370e-6
-1.163, 3.392e-6
-1.164, 3.411e-6
-1.165, 3.433e-6
-1.166, 3.389e-6
-1.167, 3.423e-6
-1.168, 3.445e-6
-1.169, 3.398e-6
-1.170, 3.481e-6
-1.171, 3.407e-6
-1.172, 3.463e-6
-1.173, 3.453e-6
-1.174, 3.496e-6
-1.175, 3.497e-6
-1.176, 3.426e-6
-1.177, 3.505e-6
-1.178, 3.503e-6
-1.179, 3.522e-6
-1.180, 3.534e-6
-1.181, 3.540e-6
-1.182, 3.495e-6
-1.183, 3.542e-6
-1.184, 3.579e-6
-1.185, 3.533e-6
-1.186, 3.559e-6
-1.187, 3.543e-6
-1.188, 3.599e-6
-1.189, 3.585e-6
-1.190, 3.612e-6
-1.191, 3.593e-6
-1.192, 3.575e-6
-1.193, 3.614e-6
-1.194, 3.647e-6
-1.195, 3.646e-6
-1.196, 3.603e-6
-1.197, 3.642e-6
-1.198, 3.640e-6
-1.199, 3.696e-6
-1.200, 3.712e-6
-1.201, 3.624e-6
-1.202, 3.688e-6
-1.203, 3.683e-6
-1.204, 3.725e-6
-1.205, 3.730e-6
-1.206, 3.711e-6
-1.207, 3.704e-6
-1.208, 3.756e-6
-1.209, 3.756e-6
-1.210, 3.793e-6
-1.211, 3.727e-6
-1.212, 3.756e-6
-1.213, 3.829e-6
-1.214, 3.763e-6
-1.215, 3.847e-6
-1.216, 3.756e-6
-1.217, 3.814e-6
-1.218, 3.820e-6
-1.219, 3.845e-6
-1.220, 3.854e-6
-1.221, 3.850e-6
-1.222, 3.858e-6
-1.223, 3.867e-6
-1.224, 3.898e-6
-1.225, 3.897e-6
-1.226, 3.892e-6
-1.227, 3.846e-6
-1.228, 3.951e-6
-1.229, 3.960e-6
-1.230, 3.967e-6
-1.231, 3.918e-6
-1.232, 3.973e-6
-1.233, 3.957e-6
-1.234, 4.006e-6
-1.235, 4.006e-6
-1.236, 3.975e-6
-1.237, 3.992e-6
-1.238, 3.998e-6
-1.239, 4.063e-6
-1.240, 4.033e-6
-1.241, 4.026e-6
-1.242, 4.032e-6
-1.243, 4.084e-6
-1.244, 4.082e-6
-1.245, 4.138e-6
-1.246, 4.082e-6
-1.247, 4.112e-6
-1.248, 4.138e-6
-1.249, 4.115e-6
-1.250, 4.177e-6
-1.251, 4.091e-6
-1.252, 4.161e-6
-1.253, 4.158e-6
-1.254, 4.241e-6
-1.255, 4.221e-6
-1.256, 4.210e-6
-1.257, 4.197e-6
-1.258, 4.244e-6
-1.259, 4.271e-6
-1.260, 4.264e-6
-1.261, 4.264e-6
-1.262, 4.265e-6
-1.263, 4.327e-6
-1.264, 4.291e-6
-1.265, 4.342e-6
-1.266, 4.312e-6
-1.267, 4.331e-6
-1.268, 4.334e-6
-1.269, 4.386e-6
-1.270, 4.397e-6
-1.271, 4.385e-6
-1.272, 4.403e-6
-1.273, 4.401e-6
-1.274, 4.493e-6
-1.275, 4.449e-6
-1.276, 4.438e-6
-1.277, 4.446e-6
-1.278, 4.480e-6
-1.279, 4.535e-6
-1.280, 4.558e-6
-1.281, 4.496e-6
-1.282, 4.512e-6
-1.283, 4.532e-6
-1.284, 4.556e-6
-1.285, 4.615e-6
-1.286, 4.566e-6
-1.287, 4.621e-6
-1.288, 4.603e-6
-1.289, 4.645e-6
-1.290, 4.667e-6
-1.291, 4.636e-6
-1.292, 4.642e-6
-1.293, 4.700e-6
-1.294, 4.686e-6
-1.295, 4.716e-6
-1.296, 4.761e-6
-1.297, 4.707e-6
-1.298, 4.755e-6
-1.299, 4.756e-6
-1.300, 4.802e-6
-1.301, 4.770e-6
-1.302, 4.795e-6
-1.303, 4.818e-6
-1.304, 4.812e-6
-1.305, 4.880e-6
-1.306, 4.846e-6
-1.307, 4.889e-6
-1.308, 4.881e-6
-1.309, 4.945e-6
-1.310, 4.964e-6
-1.311, 4.954e-6
-1.312, 4.967e-6
-1.313, 4.983e-6
-1.314, 5.049e-6
-1.315, 5.025e-6
-1.316, 5.044e-6
-1.317, 5.058e-6
-1.318, 5.105e-6
-1.319, 5.109e-6
-1.320, 5.113e-6
-1.321, 5.077e-6
-1.322, 5.170e-6
-1.323, 5.140e-6
-1.324, 5.202e-6
-1.325, 5.282e-6
-1.326, 5.184e-6
-1.327, 5.283e-6
-1.328, 5.266e-6
-1.329, 5.310e-6
-1.330, 5.350e-6
-1.331, 5.326e-6
-1.332, 5.421e-6
-1.333, 5.389e-6
-1.334, 5.443e-6
-1.335, 5.512e-6
-1.336, 5.475e-6
-1.337, 5.489e-6
-1.338, 5.595e-6
-1.339, 5.575e-6
-1.340, 5.612e-6
-1.341, 5.622e-6
-1.342, 5.661e-6
-1.343, 5.685e-6
-1.344, 5.747e-6
-1.345, 5.815e-6
-1.346, 5.750e-6
-1.347, 5.869e-6
-1.348, 5.854e-6
-1.349, 5.926e-6
-1.350, 5.959e-6
-1.351, 5.985e-6
-1.352, 6.045e-6
-1.353, 6.049e-6
-1.354, 6.167e-6
-1.355, 6.154e-6
-1.356, 6.162e-6
-1.357, 6.249e-6
-1.358, 6.310e-6
-1.359, 6.367e-6
-1.360, 6.401e-6
-1.361, 6.441e-6
-1.362, 6.466e-6
-1.363, 6.552e-6
-1.364, 6.632e-6
-1.365, 6.694e-6
-1.366, 6.692e-6
-1.367, 6.775e-6
-1.368, 6.851e-6
-1.369, 6.885e-6
-1.370, 7.034e-6
-1.371, 6.979e-6
-1.372, 7.093e-6
-1.373, 7.170e-6
-1.374, 7.282e-6
-1.375, 7.309e-6
-1.376, 7.337e-6
-1.377, 7.453e-6
-1.378, 7.500e-6
-1.379, 7.650e-6
-1.380, 7.704e-6
-1.381, 7.783e-6
-1.382, 7.872e-6
-1.383, 8.006e-6
-1.384, 8.088e-6
-1.385, 8.166e-6
-1.386, 8.243e-6
-1.387, 8.324e-6
-1.388, 8.471e-6
-1.389, 8.549e-6
-1.390, 8.690e-6
-1.391, 8.748e-6
-1.392, 8.894e-6
-1.393, 8.979e-6
-1.394, 9.147e-6
-1.395, 9.267e-6
-1.396, 9.351e-6
-1.397, 9.480e-6
-1.398, 9.616e-6
-1.399, 9.811e-6
-1.400, 9.884e-6
-1.401, 1.001e-5
-1.402, 1.015e-5
-1.403, 1.031e-5
-1.404, 1.050e-5
-1.405, 1.066e-5
-1.406, 1.070e-5
-1.407, 1.096e-5
-1.408, 1.115e-5
-1.409, 1.132e-5
-1.410, 1.148e-5
-1.411, 1.162e-5
-1.412, 1.186e-5
-1.413, 1.202e-5
-1.414, 1.219e-5
-1.415, 1.245e-5
-1.416, 1.259e-5
-1.417, 1.282e-5
-1.418, 1.301e-5
-1.419, 1.329e-5
-1.420, 1.347e-5
-1.421, 1.369e-5
-1.422, 1.390e-5
-1.423, 1.422e-5
-1.424, 1.443e-5
-1.425, 1.467e-5
-1.426, 1.495e-5
-1.427, 1.517e-5
-1.428, 1.552e-5
-1.429, 1.575e-5
-1.430, 1.607e-5
-1.431, 1.634e-5
-1.432, 1.661e-5
-1.433, 1.694e-5
-1.434, 1.727e-5
-1.435, 1.762e-5
-1.436, 1.788e-5
-1.437, 1.827e-5
-1.438, 1.861e-5
-1.439, 1.902e-5
-1.440, 1.934e-5
-1.441, 1.968e-5
-1.442, 2.009e-5
-1.443, 2.048e-5
-1.444, 2.089e-5
-1.445, 2.130e-5
-1.446, 2.171e-5
-1.447, 2.215e-5
-1.448, 2.259e-5
-1.449, 2.303e-5
-1.450, 2.354e-5
-1.451, 2.398e-5
-1.452, 2.444e-5
-1.453, 2.504e-5
-1.454, 2.548e-5
-1.455, 2.605e-5
-1.456, 2.652e-5
-1.457, 2.713e-5
-1.458, 2.771e-5
-1.459, 2.825e-5
-1.460, 2.889e-5
-1.461, 2.949e-5
-1.462, 3.009e-5
-1.463, 3.076e-5
-1.464, 3.141e-5
-1.465, 3.207e-5
-1.466, 3.278e-5
-1.467, 3.344e-5
-1.468, 3.423e-5
-1.469, 3.497e-5
-1.470, 3.570e-5
-1.471, 3.649e-5
-1.472, 3.725e-5
-1.473, 3.816e-5
-1.474, 3.896e-5
-1.475, 3.982e-5
-1.476, 4.070e-5
-1.477, 4.159e-5
-1.478, 4.253e-5
-1.479, 4.350e-5
-1.480, 4.450e-5
-1.481, 4.545e-5
-1.482, 4.650e-5
-1.483, 4.755e-5
-1.484, 4.866e-5
-1.485, 4.978e-5
-1.486, 5.090e-5
-1.487, 5.207e-5
-1.488, 5.327e-5
-1.489, 5.450e-5
-1.490, 5.577e-5
-1.491, 5.704e-5
-1.492, 5.834e-5
-1.493, 5.971e-5
-1.494, 6.112e-5
-1.495, 6.253e-5
-1.496, 6.400e-5
-1.497, 6.546e-5
-1.498, 6.708e-5
-1.499, 6.860e-5
-1.500, 7.023e-5
-1.501, 7.188e-5
-1.502, 7.354e-5
-1.503, 7.533e-5
-1.504, 7.711e-5
-1.505, 7.895e-5
-1.506, 8.082e-5
-1.507, 8.270e-5
-1.508, 8.471e-5
-1.509, 8.676e-5
-1.510, 8.881e-5
-1.511, 9.100e-5
-1.512, 9.309e-5
-1.513, 9.537e-5
-1.514, 9.773e-5
-1.515, 1.000e-4
-1.516, 1.025e-4
-1.517, 1.049e-4
-1.518, 1.075e-4
-1.519, 1.101e-4
-1.520, 1.128e-4
-1.521, 1.155e-4
-1.522, 1.183e-4
-1.523, 1.212e-4
-1.524, 1.241e-4
-1.525, 1.272e-4
-1.526, 1.302e-4
-1.527, 1.334e-4
-1.528, 1.366e-4
-1.529, 1.400e-4
-1.530, 1.434e-4
-1.531, 1.469e-4
-1.532, 1.505e-4
-1.533, 1.542e-4
-1.534, 1.580e-4
-1.535, 1.619e-4
-1.536, 1.658e-4
-1.537, 1.699e-4
-1.538, 1.741e-4
-1.539, 1.783e-4
-1.540, 1.827e-4
-1.541, 1.872e-4
-1.542, 1.917e-4
-1.543, 1.965e-4
-1.544, 2.013e-4
-1.545, 2.063e-4
-1.546, 2.113e-4
-1.547, 2.165e-4
-1.548, 2.218e-4
-1.549, 2.273e-4
-1.550, 2.328e-4
-1.551, 2.385e-4
-1.552, 2.442e-4
-1.553, 2.502e-4
-1.554, 2.563e-4
-1.555, 2.625e-4
-1.556, 2.689e-4
-1.557, 2.754e-4
-1.558, 2.821e-4
-1.559, 2.890e-4
-1.560, 2.959e-4
-1.561, 3.031e-4
-1.562, 3.104e-4
-1.563, 3.179e-4
-1.564, 3.256e-4
-1.565, 3.334e-4
-1.566, 3.413e-4
-1.567, 3.495e-4
-1.568, 3.578e-4
-1.569, 3.664e-4
-1.570, 3.752e-4
-1.571, 3.840e-4
-1.572, 3.931e-4
-1.573, 4.025e-4
-1.574, 4.120e-4
-1.575, 4.217e-4
-1.576, 4.316e-4
-1.577, 4.416e-4
-1.578, 4.520e-4
-1.579, 4.625e-4
-1.580, 4.733e-4
-1.581, 4.842e-4
-1.582, 4.954e-4
-1.583, 5.069e-4
-1.584, 5.186e-4
-1.585, 5.305e-4
-1.586, 5.426e-4
-1.587, 5.551e-4
-1.588, 5.678e-4
-1.589, 5.807e-4
-1.590, 5.938e-4
-1.591, 6.072e-4
-1.592, 6.207e-4
-1.593, 6.347e-4
-1.594, 6.489e-4
-1.595, 6.633e-4
-1.596, 6.781e-4
-1.597, 6.929e-4
-1.598, 7.083e-4
-1.599, 7.238e-4
-1.600, 7.288e-4
-1.599, 7.241e-4
-1.598, 7.188e-4
-1.597, 7.131e-4
-1.596, 7.070e-4
-1.595, 7.004e-4
-1.594, 6.936e-4
-1.593, 6.864e-4
-1.592, 6.793e-4
-1.591, 6.718e-4
-1.590, 6.642e-4
-1.589, 6.565e-4
-1.588, 6.485e-4
-1.587, 6.406e-4
-1.586, 6.327e-4
-1.585, 6.247e-4
-1.584, 6.167e-4
-1.583, 6.087e-4
-1.582, 6.006e-4
-1.581, 5.926e-4
-1.580, 5.845e-4
-1.579, 5.765e-4
-1.578, 5.685e-4
-1.577, 5.605e-4
-1.576, 5.527e-4
-1.575, 5.447e-4
-1.574, 5.369e-4
-1.573, 5.290e-4
-1.572, 5.213e-4
-1.571, 5.136e-4
-1.570, 5.060e-4
-1.569, 4.983e-4
-1.568, 4.908e-4
-1.567, 4.833e-4
-1.566, 4.759e-4
-1.565, 4.687e-4
-1.564, 4.613e-4
-1.563, 4.542e-4
-1.562, 4.471e-4
-1.561, 4.401e-4
-1.560, 4.331e-4
-1.559, 4.262e-4
-1.558, 4.193e-4
-1.557, 4.127e-4
-1.556, 4.060e-4
-1.555, 3.995e-4
-1.554, 3.929e-4
-1.553, 3.864e-4
-1.552, 3.802e-4
-1.551, 3.739e-4
-1.550, 3.676e-4
-1.549, 3.615e-4
-1.548, 3.555e-4
-1.547, 3.495e-4
-1.546, 3.437e-4
-1.545, 3.379e-4
-1.544, 3.322e-4
-1.543, 3.265e-4
-1.542, 3.209e-4
-1.541, 3.155e-4
-1.540, 3.100e-4
-1.539, 3.046e-4
-1.538, 2.994e-4
-1.537, 2.942e-4
-1.536, 2.891e-4
-1.535, 2.840e-4
-1.534, 2.790e-4
-1.533, 2.741e-4
-1.532, 2.693e-4
-1.531, 2.646e-4
-1.530, 2.599e-4
-1.529, 2.552e-4
-1.528, 2.507e-4
-1.527, 2.462e-4
-1.526, 2.418e-4
-1.525, 2.374e-4
-1.524, 2.332e-4
-1.523, 2.289e-4
-1.522, 2.248e-4
-1.521, 2.206e-4
-1.520, 2.167e-4
-1.519, 2.127e-4
-1.518, 2.087e-4
-1.517, 2.049e-4
-1.516, 2.012e-4
-1.515, 1.975e-4
-1.514, 1.937e-4
-1.513, 1.902e-4
-1.512, 1.867e-4
-1.511, 1.832e-4
-1.510, 1.797e-4
-1.509, 1.763e-4
-1.508, 1.730e-4
-1.507, 1.697e-4
-1.506, 1.666e-4
-1.505, 1.634e-4
-1.504, 1.603e-4
-1.503, 1.572e-4
-1.502, 1.542e-4
-1.501, 1.513e-4
-1.500, 1.484e-4
-1.499, 1.454e-4
-1.498, 1.427e-4
-1.497, 1.399e-4
-1.496, 1.372e-4
-1.495, 1.346e-4
-1.494, 1.319e-4
-1.493, 1.294e-4
-1.492, 1.268e-4
-1.491, 1.244e-4
-1.490, 1.219e-4
-1.489, 1.195e-4
-1.488, 1.171e-4
-1.487, 1.148e-4
-1.486, 1.125e-4
-1.485, 1.103e-4
-1.484, 1.080e-4
-1.483, 1.058e-4
-1.482, 1.037e-4
-1.481, 1.016e-4
-1.480, 9.964e-5
-1.479, 9.754e-5
-1.478, 9.555e-5
-1.477, 9.363e-5
-1.476, 9.172e-5
-1.475, 8.988e-5
-1.474, 8.798e-5
-1.473, 8.620e-5
-1.472, 8.441e-5
-1.471, 8.275e-5
-1.470, 8.096e-5
-1.469, 7.926e-5
-1.468, 7.761e-5
-1.467, 7.601e-5
-1.466, 7.441e-5
-1.465, 7.285e-5
-1.464, 7.132e-5
-1.463, 6.976e-5
-1.462, 6.833e-5
-1.461, 6.686e-5
-1.460, 6.549e-5
-1.459, 6.396e-5
-1.458, 6.261e-5
-1.457, 6.129e-5
-1.456, 5.996e-5
-1.455, 5.870e-5
-1.454, 5.736e-5
-1.453, 5.616e-5
-1.452, 5.489e-5
-1.451, 5.372e-5
-1.450, 5.252e-5
-1.449, 5.132e-5
-1.448, 5.019e-5
-1.447, 4.910e-5
-1.446, 4.802e-5
-1.445, 4.694e-5
-1.444, 4.584e-5
-1.443, 4.479e-5
-1.442, 4.385e-5
-1.441, 4.281e-5
-1.440, 4.190e-5
-1.439, 4.087e-5
-1.438, 3.993e-5
-1.437, 3.908e-5
-1.436, 3.816e-5
-1.435, 3.730e-5
-1.434, 3.632e-5
-1.433, 3.551e-5
-1.432, 3.468e-5
-1.431, 3.392e-5
-1.430, 3.307e-5
-1.429, 3.227e-5
-1.428, 3.153e-5
-1.427, 3.075e-5
-1.426, 3.007e-5
-1.425, 2.928e-5
-1.424, 2.857e-5
-1.423, 2.789e-5
-1.422, 2.724e-5
-1.421, 2.657e-5
-1.420, 2.592e-5
-1.419, 2.521e-5
-1.418, 2.458e-5
-1.417, 2.400e-5
-1.416, 2.343e-5
-1.415, 2.284e-5
-1.414, 2.218e-5
-1.413, 2.170e-5
-1.412, 2.109e-5
-1.411, 2.056e-5
-1.410, 2.004e-5
-1.409, 1.947e-5
-1.408, 1.903e-5
-1.407, 1.848e-5
-1.406, 1.804e-5
-1.405, 1.755e-5
-1.404, 1.704e-5
-1.403, 1.655e-5
-1.402, 1.615e-5
-1.401, 1.572e-5
-1.400, 1.529e-5
-1.399, 1.483e-5
-1.398, 1.438e-5
-1.397, 1.407e-5
-1.396, 1.363e-5
-1.395, 1.327e-5
-1.394, 1.284e-5
-1.393, 1.248e-5
-1.392, 1.215e-5
-1.391, 1.180e-5
-1.390, 1.143e-5
-1.389, 1.109e-5
-1.388, 1.078e-5
-1.387, 1.044e-5
-1.386, 1.016e-5
-1.385, 9.813e-6
-1.384, 9.530e-6
-1.383, 9.204e-6
-1.382, 8.908e-6
-1.381, 8.674e-6
-1.380, 8.362e-6
-1.379, 8.092e-6
-1.378, 7.815e-6
-1.377, 7.575e-6
-1.376, 7.327e-6
-1.375, 7.106e-6
-1.374, 6.793e-6
-1.373, 6.611e-6
-1.372, 6.352e-6
-1.371, 6.122e-6
-1.370, 5.900e-6
-1.369, 5.652e-6
-1.368, 5.516e-6
-1.367, 5.265e-6
-1.366, 5.102e-6
-1.365, 4.879e-6
-1.364, 4.681e-6
-1.363, 4.470e-6
-1.362, 4.314e-6
-1.361, 4.157e-6
-1.360, 3.969e-6
-1.359, 3.775e-6
-1.358, 3.570e-6
-1.357, 3.460e-6
-1.356, 3.295e-6
-1.355, 3.146e-6
-1.354, 2.957e-6
-1.353, 2.846e-6
-1.352, 2.658e-6
-1.351, 2.589e-6
-1.350, 2.394e-6
-1.349, 2.259e-6
-1.348, 2.144e-6
-1.347, 1.990e-6
-1.346, 1.896e-6
-1.345, 1.711e-6
-1.344, 1.656e-6
-1.343, 1.509e-6
-1.342, 1.428e-6
-1.341, 1.267e-6
-1.340, 1.225e-6
-1.339, 1.022e-6
-1.338, 9.430e-7
-1.337, 8.680e-7
-1.336, 7.891e-7
-1.335, 6.973e-7
-1.334, 5.266e-7
-1.333, 4.635e-7
-1.332, 3.944e-7
-1.331, 3.264e-7
-1.330, 1.981e-7
-1.329, 1.103e-7
-1.328, 1.362e-8
-1.327, -3.078e-8
-1.326, -9.195e-8
-1.325, -1.798e-7
-1.324, -2.439e-7
-1.323, -3.860e-7
-1.322, -4.047e-7
-1.321, -4.678e-7
-1.320, -5.221e-7
-1.319, -6.277e-7
-1.318, -7.145e-7
-1.317, -7.549e-7
-1.316, -7.362e-7
-1.315, -8.950e-7
-1.314, -9.503e-7
-1.313, -9.690e-7
-1.312, -1.002e-6
-1.311, -1.075e-6
-1.310, -1.162e-6
-1.309, -1.184e-6
-1.308, -1.242e-6
-1.307, -1.275e-6
-1.306, -1.314e-6
-1.305, -1.383e-6
-1.304, -1.437e-6
-1.303, -1.453e-6
-1.302, -1.553e-6
-1.301, -1.498e-6
-1.300, -1.571e-6
-1.299, -1.644e-6
-1.298, -1.675e-6
-1.297, -1.722e-6
-1.296, -1.697e-6
-1.295, -1.803e-6
-1.294, -1.837e-6
-1.293, -1.857e-6
-1.292, -1.846e-6
-1.291, -1.879e-6
-1.290, -1.914e-6
-1.289, -1.979e-6
-1.288, -1.998e-6
-1.287, -1.986e-6
-1.286, -2.011e-6
-1.285, -2.019e-6
-1.284, -2.073e-6
-1.283, -2.088e-6
-1.282, -2.122e-6
-1.281, -2.098e-6
-1.280, -2.181e-6
-1.279, -2.181e-6
-1.278, -2.259e-6
-1.277, -2.186e-6
-1.276, -2.196e-6
-1.275, -2.243e-6
-1.274, -2.230e-6
-1.273, -2.323e-6
-1.272, -2.253e-6
-1.271, -2.293e-6
-1.270, -2.309e-6
-1.269, -2.340e-6
-1.268, -2.343e-6
-1.267, -2.348e-6
-1.266, -2.343e-6
-1.265, -2.358e-6
-1.264, -2.414e-6
-1.263, -2.377e-6
-1.262, -2.394e-6
-1.261, -2.343e-6
-1.260, -2.422e-6
-1.259, -2.428e-6
-1.258, -2.420e-6
-1.257, -2.444e-6
-1.256, -2.378e-6
-1.255, -2.449e-6
-1.254, -2.462e-6
-1.253, -2.472e-6
-1.252, -2.424e-6
-1.251, -2.454e-6
-1.250, -2.468e-6
-1.249, -2.501e-6
-1.248, -2.495e-6
-1.247, -2.452e-6
-1.246, -2.487e-6
-1.245, -2.452e-6
-1.244, -2.496e-6
-1.243, -2.524e-6
-1.242, -2.480e-6
-1.241, -2.444e-6
-1.240, -2.515e-6
-1.239, -2.499e-6
-1.238, -2.512e-6
-1.237, -2.477e-6
-1.236, -2.427e-6
-1.235, -2.525e-6
-1.234, -2.519e-6
-1.233, -2.529e-6
-1.232, -2.496e-6
-1.231, -2.486e-6
-1.230, -2.532e-6
-1.229, -2.558e-6
-1.228, -2.565e-6
-1.227, -2.515e-6
-1.226, -2.495e-6
-1.225, -2.522e-6
-1.224, -2.530e-6
-1.223, -2.513e-6
-1.222, -2.525e-6
-1.221, -2.513e-6
-1.220, -2.525e-6
-1.219, -2.580e-6
-1.218, -2.506e-6
-1.217, -2.537e-6
-1.216, -2.470e-6
-1.215, -2.553e-6
-1.214, -2.564e-6
-1.213, -2.531e-6
-1.212, -2.503e-6
-1.211, -2.514e-6
-1.210, -2.550e-6
-1.209, -2.548e-6
-1.208, -2.574e-6
-1.207, -2.462e-6
-1.206, -2.537e-6
-1.205, -2.527e-6
-1.204, -2.533e-6
-1.203, -2.570e-6
-1.202, -2.504e-6
-1.201, -2.541e-6
-1.200, -2.526e-6
-1.199, -2.559e-6
-1.198, -2.560e-6
-1.197, -2.498e-6
-1.196, -2.477e-6
-1.195, -2.559e-6
-1.194, -2.535e-6
-1.193, -2.551e-6
-1.192, -2.515e-6
-1.191, -2.491e-6
-1.190, -2.569e-6
-1.189, -2.518e-6
-1.188, -2.529e-6
-1.187, -2.484e-6
-1.186, -2.495e-6
-1.185, -2.529e-6
-1.184, -2.545e-6
-1.183, -2.552e-6
-1.182, -2.514e-6
-1.181, -2.519e-6
-1.180, -2.473e-6
-1.179, -2.569e-6
-1.178, -2.526e-6
-1.177, -2.498e-6
-1.176, -2.516e-6
-1.175, -2.528e-6
-1.174, -2.554e-6
-1.173, -2.547e-6
-1.172, -2.501e-6
-1.171, -2.463e-6
-1.170, -2.525e-6
-1.169, -2.522e-6
-1.168, -2.485e-6
-1.167, -2.454e-6
-1.166, -2.487e-6
-1.165, -2.491e-6
-1.164, -2.516e-6
-1.163, -2.551e-6
-1.162, -2.469e-6
-1.161, -2.490e-6
-1.160, -2.498e-6
-1.159, -2.532e-6
-1.158, -2.520e-6
-1.157, -2.461e-6
-1.156, -2.507e-6
-1.155, -2.474e-6
-1.154, -2.530e-6
-1.153, -2.533e-6
-1.152, -2.459e-6
-1.151, -2.481e-6
-1.150, -2.526e-6
-1.149, -2.461e-6
-1.148, -2.504e-6
-1.147, -2.510e-6
-1.146, -2.468e-6
-1.145, -2.514e-6
-1.144, -2.497e-6
-1.143, -2.484e-6
-1.142, -2.443e-6
-1.141, -2.489e-6
-1.140, -2.469e-6
-1.139, -2.528e-6
-1.138, -2.500e-6
-1.137, -2.465e-6
-1.136, -2.480e-6
-1.135, -2.464e-6
-1.134, -2.564e-6
-1.133, -2.479e-6
-1.132, -2.499e-6
-1.131, -2.484e-6
-1.130, -2.473e-6
-1.129, -2.512e-6
-1.128, -2.496e-6
-1.127, -2.490e-6
-1.126, -2.477e-6
-1.125, -2.497e-6
-1.124, -2.502e-6
-1.123, -2.541e-6
-1.122, -2.475e-6
-1.121, -2.502e-6
-1.120, -2.491e-6
-1.119, -2.504e-6
-1.118, -2.537e-6
-1.117, -2.481e-6
-1.116, -2.481e-6
-1.115, -2.492e-6
-1.114, -2.519e-6
-1.113, -2.508e-6
-1.112, -2.497e-6
-1.111, -2.559e-6
-1.110, -2.507e-6
-1.109, -2.555e-6
-1.108, -2.526e-6
-1.107, -2.504e-6
-1.106, -2.514e-6
-1.105, -2.527e-6
-1.104, -2.535e-6
-1.103, -2.543e-6
-1.102, -2.536e-6
-1.101, -2.536e-6
-1.100, -2.531e-6
-1.099, -2.556e-6
-1.098, -2.571e-6
-1.097, -2.508e-6
-1.096, -2.557e-6
-1.095, -2.541e-6
-1.094, -2.606e-6
-1.093, -2.594e-6
-1.092, -2.554e-6
-1.091, -2.578e-6
-1.090, -2.535e-6
-1.089, -2.620e-6
-1.088, -2.601e-6
-1.087, -2.569e-6
-1.086, -2.598e-6
-1.085, -2.612e-6
-1.084, -2.613e-6
-1.083, -2.665e-6
-1.082, -2.613e-6
-1.081, -2.633e-6
-1.080, -2.633e-6
-1.079, -2.634e-6
-1.078, -2.675e-6
-1.077, -2.612e-6
-1.076, -2.678e-6
-1.075, -2.647e-6
-1.074, -2.652e-6
-1.073, -2.703e-6
-1.072, -2.643e-6
-1.071, -2.697e-6
-1.070, -2.669e-6
-1.069, -2.714e-6
-1.068, -2.692e-6
-1.067, -2.697e-6
-1.066, -2.692e-6
-1.065, -2.714e-6
-1.064, -2.750e-6
-1.063, -2.760e-6
-1.062, -2.735e-6
-1.061, -2.750e-6
-1.060, -2.756e-6
-1.059, -2.780e-6
-1.058, -2.804e-6
-1.057, -2.736e-6
-1.056, -2.808e-6
-1.055, -2.764e-6
-1.054, -2.844e-6
-1.053, -2.834e-6
-1.052, -2.797e-6
-1.051, -2.841e-6
-1.050, -2.809e-6
-1.049, -2.901e-6
-1.048, -2.858e-6
-1.047, -2.844e-6
-1.046, -2.888e-6
-1.045, -2.897e-6
-1.044, -2.915e-6
-1.043, -2.946e-6
-1.042, -2.904e-6
-1.041, -2.930e-6
-1.040, -2.931e-6
-1.039, -2.962e-6
-1.038, -2.980e-6
-1.037, -2.926e-6
-1.036, -3.010e-6
-1.035, -2.964e-6
-1.034, -3.031e-6
-1.033, -3.055e-6
-1.032, -2.970e-6
-1.031, -3.018e-6
-1.030, -3.042e-6
-1.029, -3.069e-6
-1.028, -3.046e-6
-1.027, -3.100e-6
-1.026, -3.046e-6
-1.025, -3.128e-6
-1.024, -3.137e-6
-1.023, -3.120e-6
-1.022, -3.134e-6
-1.021, -3.141e-6
-1.020, -3.155e-6
-1.019, -3.171e-6
-1.018, -3.200e-6
-1.017, -3.170e-6
-1.016, -3.182e-6
-1.015, -3.181e-6
-1.014, -3.260e-6
-1.013, -3.216e-6
-1.012, -3.204e-6
-1.011, -3.275e-6
-1.010, -3.249e-6
-1.009, -3.311e-6
-1.008, -3.284e-6
-1.007, -3.313e-6
-1.006, -3.321e-6
-1.005, -3.306e-6
-1.004, -3.341e-6
-1.003, -3.361e-6
-1.002, -3.340e-6
-1.001, -3.331e-6
