July 11, 2024   21:16:52
Cyclic Voltammetry
File: c:/users/guazh/data/20240709_batch67/2024-07-10-exp15\exp15-2024-07-11t21_00_27-h2koh\exp15_cv_50mvs_efin_-1700mv.bin
Data Source:  Experiment
Instrument Model:  CHI760E
Header: CV ran at 50 mVs
Note: 

Init E (V) = -1
High E (V) = -1
Low E (V) = -1.7
Final E (V) = -1
Init P/N = N
Scan Rate (V/s) = 0.05
Segment = 7
Sample Interval (V) = 0.001
Quiet Time (sec) = 60
Sensitivity (A/V) = 0.001
Comp R (ohm) = 1.7

Results:

Channel 1:
Segment 1:

Segment 2:

Segment 3:

Segment 4:

Segment 5:

Segment 6:

Segment 7:

Potential/V, Current/A

-1.000, 7.032e-7
-1.001, 1.132e-6
-1.002, 1.527e-6
-1.003, 1.593e-6
-1.004, 1.658e-6
-1.005, 1.606e-6
-1.006, 1.810e-6
-1.007, 2.027e-6
-1.008, 2.132e-6
-1.009, 2.017e-6
-1.010, 2.000e-6
-1.011, 2.133e-6
-1.012, 2.316e-6
-1.013, 2.396e-6
-1.014, 2.285e-6
-1.015, 2.294e-6
-1.016, 2.358e-6
-1.017, 2.576e-6
-1.018, 2.584e-6
-1.019, 2.524e-6
-1.020, 2.404e-6
-1.021, 2.624e-6
-1.022, 2.714e-6
-1.023, 2.794e-6
-1.024, 2.686e-6
-1.025, 2.621e-6
-1.026, 2.770e-6
-1.027, 2.960e-6
-1.028, 2.943e-6
-1.029, 2.890e-6
-1.030, 2.779e-6
-1.031, 2.874e-6
-1.032, 3.102e-6
-1.033, 3.063e-6
-1.034, 3.010e-6
-1.035, 2.872e-6
-1.036, 3.044e-6
-1.037, 3.192e-6
-1.038, 3.193e-6
-1.039, 3.069e-6
-1.040, 3.051e-6
-1.041, 3.073e-6
-1.042, 3.291e-6
-1.043, 3.290e-6
-1.044, 3.208e-6
-1.045, 3.126e-6
-1.046, 3.197e-6
-1.047, 3.422e-6
-1.048, 3.380e-6
-1.049, 3.289e-6
-1.050, 3.165e-6
-1.051, 3.380e-6
-1.052, 3.479e-6
-1.053, 3.548e-6
-1.054, 3.363e-6
-1.055, 3.316e-6
-1.056, 3.367e-6
-1.057, 3.590e-6
-1.058, 3.581e-6
-1.059, 3.446e-6
-1.060, 3.392e-6
-1.061, 3.486e-6
-1.062, 3.679e-6
-1.063, 3.703e-6
-1.064, 3.525e-6
-1.065, 3.459e-6
-1.066, 3.619e-6
-1.067, 3.759e-6
-1.068, 3.797e-6
-1.069, 3.612e-6
-1.070, 3.571e-6
-1.071, 3.630e-6
-1.072, 3.848e-6
-1.073, 3.773e-6
-1.074, 3.709e-6
-1.075, 3.603e-6
-1.076, 3.827e-6
-1.077, 3.909e-6
-1.078, 3.973e-6
-1.079, 3.771e-6
-1.080, 3.737e-6
-1.081, 3.807e-6
-1.082, 4.033e-6
-1.083, 4.003e-6
-1.084, 3.872e-6
-1.085, 3.773e-6
-1.086, 3.895e-6
-1.087, 4.085e-6
-1.088, 4.037e-6
-1.089, 3.972e-6
-1.090, 3.870e-6
-1.091, 4.035e-6
-1.092, 4.153e-6
-1.093, 4.225e-6
-1.094, 3.974e-6
-1.095, 3.977e-6
-1.096, 4.097e-6
-1.097, 4.318e-6
-1.098, 4.241e-6
-1.099, 4.122e-6
-1.100, 4.066e-6
-1.101, 4.288e-6
-1.102, 4.381e-6
-1.103, 4.410e-6
-1.104, 4.199e-6
-1.105, 4.187e-6
-1.106, 4.304e-6
-1.107, 4.508e-6
-1.108, 4.467e-6
-1.109, 4.326e-6
-1.110, 4.211e-6
-1.111, 4.475e-6
-1.112, 4.565e-6
-1.113, 4.569e-6
-1.114, 4.446e-6
-1.115, 4.380e-6
-1.116, 4.533e-6
-1.117, 4.725e-6
-1.118, 4.683e-6
-1.119, 4.557e-6
-1.120, 4.517e-6
-1.121, 4.713e-6
-1.122, 4.908e-6
-1.123, 4.791e-6
-1.124, 4.715e-6
-1.125, 4.602e-6
-1.126, 4.885e-6
-1.127, 5.000e-6
-1.128, 5.020e-6
-1.129, 4.822e-6
-1.130, 4.885e-6
-1.131, 4.999e-6
-1.132, 5.259e-6
-1.133, 5.148e-6
-1.134, 5.055e-6
-1.135, 4.954e-6
-1.136, 5.258e-6
-1.137, 5.317e-6
-1.138, 5.340e-6
-1.139, 5.186e-6
-1.140, 5.233e-6
-1.141, 5.407e-6
-1.142, 5.570e-6
-1.143, 5.511e-6
-1.144, 5.415e-6
-1.145, 5.345e-6
-1.146, 5.628e-6
-1.147, 5.705e-6
-1.148, 5.660e-6
-1.149, 5.602e-6
-1.150, 5.568e-6
-1.151, 5.811e-6
-1.152, 5.959e-6
-1.153, 6.025e-6
-1.154, 5.846e-6
-1.155, 5.901e-6
-1.156, 6.009e-6
-1.157, 6.207e-6
-1.158, 6.154e-6
-1.159, 6.089e-6
-1.160, 6.145e-6
-1.161, 6.354e-6
-1.162, 6.454e-6
-1.163, 6.482e-6
-1.164, 6.327e-6
-1.165, 6.426e-6
-1.166, 6.645e-6
-1.167, 6.784e-6
-1.168, 6.773e-6
-1.169, 6.627e-6
-1.170, 6.748e-6
-1.171, 6.934e-6
-1.172, 7.110e-6
-1.173, 7.059e-6
-1.174, 7.026e-6
-1.175, 7.006e-6
-1.176, 7.289e-6
-1.177, 7.468e-6
-1.178, 7.526e-6
-1.179, 7.351e-6
-1.180, 7.479e-6
-1.181, 7.637e-6
-1.182, 7.909e-6
-1.183, 7.867e-6
-1.184, 7.768e-6
-1.185, 7.904e-6
-1.186, 8.110e-6
-1.187, 8.283e-6
-1.188, 8.266e-6
-1.189, 8.235e-6
-1.190, 8.339e-6
-1.191, 8.596e-6
-1.192, 8.747e-6
-1.193, 8.837e-6
-1.194, 8.677e-6
-1.195, 8.865e-6
-1.196, 9.029e-6
-1.197, 9.336e-6
-1.198, 9.273e-6
-1.199, 9.283e-6
-1.200, 9.320e-6
-1.201, 9.635e-6
-1.202, 9.798e-6
-1.203, 9.915e-6
-1.204, 9.810e-6
-1.205, 1.005e-5
-1.206, 1.022e-5
-1.207, 1.050e-5
-1.208, 1.046e-5
-1.209, 1.057e-5
-1.210, 1.061e-5
-1.211, 1.094e-5
-1.212, 1.112e-5
-1.213, 1.117e-5
-1.214, 1.116e-5
-1.215, 1.134e-5
-1.216, 1.162e-5
-1.217, 1.191e-5
-1.218, 1.192e-5
-1.219, 1.197e-5
-1.220, 1.210e-5
-1.221, 1.239e-5
-1.222, 1.267e-5
-1.223, 1.271e-5
-1.224, 1.280e-5
-1.225, 1.291e-5
-1.226, 1.330e-5
-1.227, 1.351e-5
-1.228, 1.360e-5
-1.229, 1.362e-5
-1.230, 1.382e-5
-1.231, 1.419e-5
-1.232, 1.447e-5
-1.233, 1.446e-5
-1.234, 1.467e-5
-1.235, 1.484e-5
-1.236, 1.518e-5
-1.237, 1.545e-5
-1.238, 1.557e-5
-1.239, 1.558e-5
-1.240, 1.584e-5
-1.241, 1.618e-5
-1.242, 1.658e-5
-1.243, 1.655e-5
-1.244, 1.667e-5
-1.245, 1.690e-5
-1.246, 1.730e-5
-1.247, 1.759e-5
-1.248, 1.775e-5
-1.249, 1.776e-5
-1.250, 1.806e-5
-1.251, 1.844e-5
-1.252, 1.888e-5
-1.253, 1.899e-5
-1.254, 1.909e-5
-1.255, 1.934e-5
-1.256, 1.976e-5
-1.257, 2.015e-5
-1.258, 2.032e-5
-1.259, 2.045e-5
-1.260, 2.076e-5
-1.261, 2.119e-5
-1.262, 2.151e-5
-1.263, 2.179e-5
-1.264, 2.184e-5
-1.265, 2.221e-5
-1.266, 2.258e-5
-1.267, 2.309e-5
-1.268, 2.317e-5
-1.269, 2.343e-5
-1.270, 2.374e-5
-1.271, 2.425e-5
-1.272, 2.462e-5
-1.273, 2.483e-5
-1.274, 2.495e-5
-1.275, 2.536e-5
-1.276, 2.594e-5
-1.277, 2.633e-5
-1.278, 2.653e-5
-1.279, 2.671e-5
-1.280, 2.712e-5
-1.281, 2.763e-5
-1.282, 2.815e-5
-1.283, 2.815e-5
-1.284, 2.852e-5
-1.285, 2.887e-5
-1.286, 2.949e-5
-1.287, 2.991e-5
-1.288, 3.022e-5
-1.289, 3.045e-5
-1.290, 3.091e-5
-1.291, 3.145e-5
-1.292, 3.194e-5
-1.293, 3.208e-5
-1.294, 3.249e-5
-1.295, 3.292e-5
-1.296, 3.352e-5
-1.297, 3.397e-5
-1.298, 3.418e-5
-1.299, 3.459e-5
-1.300, 3.504e-5
-1.301, 3.558e-5
-1.302, 3.604e-5
-1.303, 3.641e-5
-1.304, 3.676e-5
-1.305, 3.724e-5
-1.306, 3.797e-5
-1.307, 3.857e-5
-1.308, 3.873e-5
-1.309, 3.910e-5
-1.310, 3.958e-5
-1.311, 4.026e-5
-1.312, 4.079e-5
-1.313, 4.117e-5
-1.314, 4.153e-5
-1.315, 4.203e-5
-1.316, 4.268e-5
-1.317, 4.337e-5
-1.318, 4.364e-5
-1.319, 4.401e-5
-1.320, 4.459e-5
-1.321, 4.533e-5
-1.322, 4.588e-5
-1.323, 4.632e-5
-1.324, 4.687e-5
-1.325, 4.750e-5
-1.326, 4.809e-5
-1.327, 4.865e-5
-1.328, 4.895e-5
-1.329, 4.953e-5
-1.330, 5.014e-5
-1.331, 5.103e-5
-1.332, 5.148e-5
-1.333, 5.199e-5
-1.334, 5.238e-5
-1.335, 5.327e-5
-1.336, 5.391e-5
-1.337, 5.443e-5
-1.338, 5.483e-5
-1.339, 5.542e-5
-1.340, 5.606e-5
-1.341, 5.692e-5
-1.342, 5.763e-5
-1.343, 5.814e-5
-1.344, 5.849e-5
-1.345, 5.919e-5
-1.346, 6.008e-5
-1.347, 6.078e-5
-1.348, 6.124e-5
-1.349, 6.182e-5
-1.350, 6.240e-5
-1.351, 6.321e-5
-1.352, 6.387e-5
-1.353, 6.468e-5
-1.354, 6.510e-5
-1.355, 6.582e-5
-1.356, 6.666e-5
-1.357, 6.736e-5
-1.358, 6.789e-5
-1.359, 6.856e-5
-1.360, 6.949e-5
-1.361, 7.047e-5
-1.362, 7.113e-5
-1.363, 7.155e-5
-1.364, 7.215e-5
-1.365, 7.309e-5
-1.366, 7.402e-5
-1.367, 7.481e-5
-1.368, 7.533e-5
-1.369, 7.579e-5
-1.370, 7.675e-5
-1.371, 7.791e-5
-1.372, 7.846e-5
-1.373, 7.889e-5
-1.374, 7.957e-5
-1.375, 8.041e-5
-1.376, 8.142e-5
-1.377, 8.227e-5
-1.378, 8.310e-5
-1.379, 8.386e-5
-1.380, 8.467e-5
-1.381, 8.557e-5
-1.382, 8.645e-5
-1.383, 8.721e-5
-1.384, 8.808e-5
-1.385, 8.898e-5
-1.386, 9.010e-5
-1.387, 9.066e-5
-1.388, 9.168e-5
-1.389, 9.286e-5
-1.390, 9.372e-5
-1.391, 9.440e-5
-1.392, 9.519e-5
-1.393, 9.591e-5
-1.394, 9.675e-5
-1.395, 9.783e-5
-1.396, 9.939e-5
-1.397, 1.003e-4
-1.398, 1.009e-4
-1.399, 1.016e-4
-1.400, 1.026e-4
-1.401, 1.038e-4
-1.402, 1.049e-4
-1.403, 1.056e-4
-1.404, 1.065e-4
-1.405, 1.072e-4
-1.406, 1.087e-4
-1.407, 1.100e-4
-1.408, 1.109e-4
-1.409, 1.111e-4
-1.410, 1.119e-4
-1.411, 1.129e-4
-1.412, 1.139e-4
-1.413, 1.149e-4
-1.414, 1.159e-4
-1.415, 1.173e-4
-1.416, 1.184e-4
-1.417, 1.192e-4
-1.418, 1.204e-4
-1.419, 1.214e-4
-1.420, 1.227e-4
-1.421, 1.239e-4
-1.422, 1.246e-4
-1.423, 1.254e-4
-1.424, 1.268e-4
-1.425, 1.283e-4
-1.426, 1.292e-4
-1.427, 1.306e-4
-1.428, 1.314e-4
-1.429, 1.325e-4
-1.430, 1.337e-4
-1.431, 1.352e-4
-1.432, 1.367e-4
-1.433, 1.375e-4
-1.434, 1.381e-4
-1.435, 1.395e-4
-1.436, 1.407e-4
-1.437, 1.421e-4
-1.438, 1.432e-4
-1.439, 1.443e-4
-1.440, 1.453e-4
-1.441, 1.465e-4
-1.442, 1.482e-4
-1.443, 1.496e-4
-1.444, 1.507e-4
-1.445, 1.533e-4
-1.446, 1.544e-4
-1.447, 1.558e-4
-1.448, 1.569e-4
-1.449, 1.580e-4
-1.450, 1.591e-4
-1.451, 1.603e-4
-1.452, 1.620e-4
-1.453, 1.633e-4
-1.454, 1.644e-4
-1.455, 1.658e-4
-1.456, 1.676e-4
-1.457, 1.685e-4
-1.458, 1.696e-4
-1.459, 1.714e-4
-1.460, 1.735e-4
-1.461, 1.759e-4
-1.462, 1.775e-4
-1.463, 1.781e-4
-1.464, 1.792e-4
-1.465, 1.811e-4
-1.466, 1.826e-4
-1.467, 1.837e-4
-1.468, 1.851e-4
-1.469, 1.859e-4
-1.470, 1.880e-4
-1.471, 1.903e-4
-1.472, 1.919e-4
-1.473, 1.927e-4
-1.474, 1.944e-4
-1.475, 1.965e-4
-1.476, 1.986e-4
-1.477, 2.001e-4
-1.478, 2.020e-4
-1.479, 2.042e-4
-1.480, 2.062e-4
-1.481, 2.077e-4
-1.482, 2.092e-4
-1.483, 2.109e-4
-1.484, 2.133e-4
-1.485, 2.159e-4
-1.486, 2.174e-4
-1.487, 2.187e-4
-1.488, 2.204e-4
-1.489, 2.222e-4
-1.490, 2.244e-4
-1.491, 2.258e-4
-1.492, 2.277e-4
-1.493, 2.292e-4
-1.494, 2.310e-4
-1.495, 2.333e-4
-1.496, 2.360e-4
-1.497, 2.386e-4
-1.498, 2.407e-4
-1.499, 2.429e-4
-1.500, 2.445e-4
-1.501, 2.467e-4
-1.502, 2.489e-4
-1.503, 2.512e-4
-1.504, 2.530e-4
-1.505, 2.550e-4
-1.506, 2.572e-4
-1.507, 2.592e-4
-1.508, 2.620e-4
-1.509, 2.641e-4
-1.510, 2.662e-4
-1.511, 2.686e-4
-1.512, 2.710e-4
-1.513, 2.731e-4
-1.514, 2.759e-4
-1.515, 2.792e-4
-1.516, 2.818e-4
-1.517, 2.845e-4
-1.518, 2.862e-4
-1.519, 2.892e-4
-1.520, 2.924e-4
-1.521, 2.955e-4
-1.522, 2.979e-4
-1.523, 2.996e-4
-1.524, 3.019e-4
-1.525, 3.045e-4
-1.526, 3.079e-4
-1.527, 3.107e-4
-1.528, 3.136e-4
-1.529, 3.167e-4
-1.530, 3.199e-4
-1.531, 3.232e-4
-1.532, 3.267e-4
-1.533, 3.308e-4
-1.534, 3.345e-4
-1.535, 3.377e-4
-1.536, 3.403e-4
-1.537, 3.442e-4
-1.538, 3.469e-4
-1.539, 3.506e-4
-1.540, 3.538e-4
-1.541, 3.565e-4
-1.542, 3.596e-4
-1.543, 3.634e-4
-1.544, 3.663e-4
-1.545, 3.703e-4
-1.546, 3.740e-4
-1.547, 3.779e-4
-1.548, 3.820e-4
-1.549, 3.860e-4
-1.550, 3.911e-4
-1.551, 3.961e-4
-1.552, 4.004e-4
-1.553, 4.031e-4
-1.554, 4.063e-4
-1.555, 4.117e-4
-1.556, 4.162e-4
-1.557, 4.206e-4
-1.558, 4.238e-4
-1.559, 4.267e-4
-1.560, 4.323e-4
-1.561, 4.377e-4
-1.562, 4.415e-4
-1.563, 4.457e-4
-1.564, 4.501e-4
-1.565, 4.540e-4
-1.566, 4.580e-4
-1.567, 4.621e-4
-1.568, 4.695e-4
-1.569, 4.745e-4
-1.570, 4.793e-4
-1.571, 4.829e-4
-1.572, 4.880e-4
-1.573, 4.931e-4
-1.574, 4.997e-4
-1.575, 5.077e-4
-1.576, 5.154e-4
-1.577, 5.211e-4
-1.578, 5.255e-4
-1.579, 5.314e-4
-1.580, 5.386e-4
-1.581, 5.458e-4
-1.582, 5.535e-4
-1.583, 5.603e-4
-1.584, 5.661e-4
-1.585, 5.722e-4
-1.586, 5.795e-4
-1.587, 5.863e-4
-1.588, 5.945e-4
-1.589, 6.015e-4
-1.590, 6.091e-4
-1.591, 6.175e-4
-1.592, 6.256e-4
-1.593, 6.344e-4
-1.594, 6.440e-4
-1.595, 6.543e-4
-1.596, 6.629e-4
-1.597, 6.714e-4
-1.598, 6.798e-4
-1.599, 6.892e-4
-1.600, 6.999e-4
-1.601, 7.092e-4
-1.602, 7.184e-4
-1.603, 7.267e-4
-1.604, 7.365e-4
-1.605, 7.485e-4
-1.606, 7.597e-4
-1.607, 7.702e-4
-1.608, 7.813e-4
-1.609, 7.935e-4
-1.610, 8.045e-4
-1.611, 8.165e-4
-1.612, 8.269e-4
-1.613, 8.399e-4
-1.614, 8.556e-4
-1.615, 8.688e-4
-1.616, 8.813e-4
-1.617, 8.940e-4
-1.618, 9.080e-4
-1.619, 9.243e-4
-1.620, 9.418e-4
-1.621, 9.595e-4
-1.622, 9.758e-4
-1.623, 9.907e-4
-1.624, 1.006e-3
-1.625, 1.023e-3
-1.626, 1.042e-3
-1.627, 1.062e-3
-1.628, 1.077e-3
-1.629, 1.095e-3
-1.630, 1.114e-3
-1.631, 1.133e-3
-1.632, 1.153e-3
-1.633, 1.175e-3
-1.634, 1.195e-3
-1.635, 1.216e-3
-1.636, 1.239e-3
-1.637, 1.261e-3
-1.638, 1.286e-3
-1.639, 1.312e-3
-1.640, 1.339e-3
-1.641, 1.364e-3
-1.642, 1.386e-3
-1.643, 1.412e-3
-1.644, 1.439e-3
-1.645, 1.469e-3
-1.646, 1.493e-3
-1.647, 1.519e-3
-1.648, 1.547e-3
-1.649, 1.577e-3
-1.650, 1.609e-3
-1.651, 1.640e-3
-1.652, 1.670e-3
-1.653, 1.703e-3
-1.654, 1.736e-3
-1.655, 1.773e-3
-1.656, 1.811e-3
-1.657, 1.850e-3
-1.658, 1.886e-3
-1.659, 1.924e-3
-1.660, 1.962e-3
-1.661, 2.002e-3
-1.662, 2.042e-3
-1.663, 2.082e-3
-1.664, 2.123e-3
-1.665, 2.164e-3
-1.666, 2.206e-3
-1.667, 2.249e-3
-1.668, 2.293e-3
-1.669, 2.337e-3
-1.670, 2.383e-3
-1.671, 2.433e-3
-1.672, 2.485e-3
-1.673, 2.538e-3
-1.674, 2.591e-3
-1.675, 2.641e-3
-1.676, 2.694e-3
-1.677, 2.733e-3
-1.678, 2.771e-3
-1.679, 2.814e-3
-1.680, 2.864e-3
-1.681, 2.921e-3
-1.682, 2.978e-3
-1.683, 3.032e-3
-1.684, 3.089e-3
-1.685, 3.142e-3
-1.686, 3.198e-3
-1.687, 3.263e-3
-1.688, 3.331e-3
-1.689, 3.402e-3
-1.690, 3.466e-3
-1.691, 3.524e-3
-1.692, 3.584e-3
-1.693, 3.645e-3
-1.694, 3.709e-3
-1.695, 3.782e-3
-1.696, 3.845e-3
-1.697, 3.901e-3
-1.698, 3.959e-3
-1.699, 4.019e-3
-1.700, 4.041e-3
-1.699, 4.017e-3
-1.698, 3.998e-3
-1.697, 3.963e-3
-1.696, 3.921e-3
-1.695, 3.883e-3
-1.694, 3.850e-3
-1.693, 3.811e-3
-1.692, 3.763e-3
-1.691, 3.714e-3
-1.690, 3.663e-3
-1.689, 3.609e-3
-1.688, 3.571e-3
-1.687, 3.530e-3
-1.686, 3.489e-3
-1.685, 3.449e-3
-1.684, 3.400e-3
-1.683, 3.353e-3
-1.682, 3.306e-3
-1.681, 3.256e-3
-1.680, 3.213e-3
-1.679, 3.164e-3
-1.678, 3.117e-3
-1.677, 3.072e-3
-1.676, 3.030e-3
-1.675, 2.992e-3
-1.674, 2.953e-3
-1.673, 2.908e-3
-1.672, 2.860e-3
-1.671, 2.818e-3
-1.670, 2.780e-3
-1.669, 2.741e-3
-1.668, 2.700e-3
-1.667, 2.655e-3
-1.666, 2.612e-3
-1.665, 2.574e-3
-1.664, 2.535e-3
-1.663, 2.496e-3
-1.662, 2.456e-3
-1.661, 2.422e-3
-1.660, 2.384e-3
-1.659, 2.345e-3
-1.658, 2.304e-3
-1.657, 2.268e-3
-1.656, 2.227e-3
-1.655, 2.187e-3
-1.654, 2.147e-3
-1.653, 2.107e-3
-1.652, 2.071e-3
-1.651, 2.041e-3
-1.650, 2.008e-3
-1.649, 1.972e-3
-1.648, 1.938e-3
-1.647, 1.904e-3
-1.646, 1.870e-3
-1.645, 1.837e-3
-1.644, 1.806e-3
-1.643, 1.772e-3
-1.642, 1.741e-3
-1.641, 1.712e-3
-1.640, 1.686e-3
-1.639, 1.659e-3
-1.638, 1.633e-3
-1.637, 1.604e-3
-1.636, 1.571e-3
-1.635, 1.542e-3
-1.634, 1.518e-3
-1.633, 1.492e-3
-1.632, 1.467e-3
-1.631, 1.438e-3
-1.630, 1.412e-3
-1.629, 1.388e-3
-1.628, 1.361e-3
-1.627, 1.337e-3
-1.626, 1.318e-3
-1.625, 1.290e-3
-1.624, 1.268e-3
-1.623, 1.245e-3
-1.622, 1.226e-3
-1.621, 1.212e-3
-1.620, 1.188e-3
-1.619, 1.166e-3
-1.618, 1.143e-3
-1.617, 1.123e-3
-1.616, 1.104e-3
-1.615, 1.090e-3
-1.614, 1.065e-3
-1.613, 1.043e-3
-1.612, 1.024e-3
-1.611, 1.008e-3
-1.610, 9.939e-4
-1.609, 9.777e-4
-1.608, 9.593e-4
-1.607, 9.403e-4
-1.606, 9.253e-4
-1.605, 9.077e-4
-1.604, 8.929e-4
-1.603, 8.806e-4
-1.602, 8.624e-4
-1.601, 8.470e-4
-1.600, 8.306e-4
-1.599, 8.155e-4
-1.598, 8.016e-4
-1.597, 7.883e-4
-1.596, 7.756e-4
-1.595, 7.619e-4
-1.594, 7.489e-4
-1.593, 7.362e-4
-1.592, 7.265e-4
-1.591, 7.174e-4
-1.590, 7.052e-4
-1.589, 6.898e-4
-1.588, 6.794e-4
-1.587, 6.687e-4
-1.586, 6.582e-4
-1.585, 6.499e-4
-1.584, 6.400e-4
-1.583, 6.325e-4
-1.582, 6.220e-4
-1.581, 6.081e-4
-1.580, 6.001e-4
-1.579, 5.925e-4
-1.578, 5.832e-4
-1.577, 5.744e-4
-1.576, 5.651e-4
-1.575, 5.557e-4
-1.574, 5.472e-4
-1.573, 5.403e-4
-1.572, 5.332e-4
-1.571, 5.262e-4
-1.570, 5.195e-4
-1.569, 5.119e-4
-1.568, 5.051e-4
-1.567, 4.987e-4
-1.566, 4.923e-4
-1.565, 4.861e-4
-1.564, 4.794e-4
-1.563, 4.717e-4
-1.562, 4.646e-4
-1.561, 4.582e-4
-1.560, 4.533e-4
-1.559, 4.461e-4
-1.558, 4.400e-4
-1.557, 4.329e-4
-1.556, 4.259e-4
-1.555, 4.220e-4
-1.554, 4.172e-4
-1.553, 4.109e-4
-1.552, 4.056e-4
-1.551, 4.008e-4
-1.550, 3.960e-4
-1.549, 3.916e-4
-1.548, 3.871e-4
-1.547, 3.826e-4
-1.546, 3.775e-4
-1.545, 3.723e-4
-1.544, 3.674e-4
-1.543, 3.626e-4
-1.542, 3.592e-4
-1.541, 3.537e-4
-1.540, 3.492e-4
-1.539, 3.432e-4
-1.538, 3.385e-4
-1.537, 3.350e-4
-1.536, 3.313e-4
-1.535, 3.250e-4
-1.534, 3.205e-4
-1.533, 3.164e-4
-1.532, 3.132e-4
-1.531, 3.115e-4
-1.530, 3.090e-4
-1.529, 3.052e-4
-1.528, 3.008e-4
-1.527, 2.970e-4
-1.526, 2.923e-4
-1.525, 2.884e-4
-1.524, 2.863e-4
-1.523, 2.828e-4
-1.522, 2.802e-4
-1.521, 2.759e-4
-1.520, 2.731e-4
-1.519, 2.706e-4
-1.518, 2.679e-4
-1.517, 2.651e-4
-1.516, 2.616e-4
-1.515, 2.584e-4
-1.514, 2.557e-4
-1.513, 2.525e-4
-1.512, 2.496e-4
-1.511, 2.470e-4
-1.510, 2.440e-4
-1.509, 2.414e-4
-1.508, 2.380e-4
-1.507, 2.351e-4
-1.506, 2.327e-4
-1.505, 2.303e-4
-1.504, 2.276e-4
-1.503, 2.244e-4
-1.502, 2.213e-4
-1.501, 2.192e-4
-1.500, 2.189e-4
-1.499, 2.151e-4
-1.498, 2.139e-4
-1.497, 2.105e-4
-1.496, 2.082e-4
-1.495, 2.057e-4
-1.494, 2.027e-4
-1.493, 2.003e-4
-1.492, 1.978e-4
-1.491, 1.961e-4
-1.490, 1.936e-4
-1.489, 1.913e-4
-1.488, 1.892e-4
-1.487, 1.868e-4
-1.486, 1.848e-4
-1.485, 1.825e-4
-1.484, 1.802e-4
-1.483, 1.783e-4
-1.482, 1.768e-4
-1.481, 1.747e-4
-1.480, 1.721e-4
-1.479, 1.700e-4
-1.478, 1.682e-4
-1.477, 1.660e-4
-1.476, 1.642e-4
-1.475, 1.624e-4
-1.474, 1.607e-4
-1.473, 1.592e-4
-1.472, 1.567e-4
-1.471, 1.550e-4
-1.470, 1.537e-4
-1.469, 1.515e-4
-1.468, 1.503e-4
-1.467, 1.484e-4
-1.466, 1.462e-4
-1.465, 1.449e-4
-1.464, 1.429e-4
-1.463, 1.410e-4
-1.462, 1.390e-4
-1.461, 1.373e-4
-1.460, 1.357e-4
-1.459, 1.345e-4
-1.458, 1.328e-4
-1.457, 1.315e-4
-1.456, 1.297e-4
-1.455, 1.283e-4
-1.454, 1.264e-4
-1.453, 1.249e-4
-1.452, 1.234e-4
-1.451, 1.221e-4
-1.450, 1.210e-4
-1.449, 1.200e-4
-1.448, 1.180e-4
-1.447, 1.169e-4
-1.446, 1.157e-4
-1.445, 1.145e-4
-1.444, 1.129e-4
-1.443, 1.115e-4
-1.442, 1.100e-4
-1.441, 1.089e-4
-1.440, 1.076e-4
-1.439, 1.063e-4
-1.438, 1.048e-4
-1.437, 1.037e-4
-1.436, 1.026e-4
-1.435, 1.014e-4
-1.434, 9.975e-5
-1.433, 9.824e-5
-1.432, 9.728e-5
-1.431, 9.654e-5
-1.430, 9.535e-5
-1.429, 9.381e-5
-1.428, 9.255e-5
-1.427, 9.160e-5
-1.426, 9.047e-5
-1.425, 8.952e-5
-1.424, 8.826e-5
-1.423, 8.703e-5
-1.422, 8.587e-5
-1.421, 8.499e-5
-1.420, 8.406e-5
-1.419, 8.272e-5
-1.418, 8.149e-5
-1.417, 8.048e-5
-1.416, 7.962e-5
-1.415, 7.866e-5
-1.414, 7.741e-5
-1.413, 7.640e-5
-1.412, 7.551e-5
-1.411, 7.497e-5
-1.410, 7.427e-5
-1.409, 7.412e-5
-1.408, 7.345e-5
-1.407, 7.170e-5
-1.406, 7.093e-5
-1.405, 6.988e-5
-1.404, 6.896e-5
-1.403, 6.809e-5
-1.402, 6.696e-5
-1.401, 6.628e-5
-1.400, 6.549e-5
-1.399, 6.472e-5
-1.398, 6.378e-5
-1.397, 6.317e-5
-1.396, 6.264e-5
-1.395, 6.154e-5
-1.394, 6.060e-5
-1.393, 6.013e-5
-1.392, 5.966e-5
-1.391, 5.874e-5
-1.390, 5.781e-5
-1.389, 5.698e-5
-1.388, 5.617e-5
-1.387, 5.548e-5
-1.386, 5.492e-5
-1.385, 5.427e-5
-1.384, 5.352e-5
-1.383, 5.261e-5
-1.382, 5.172e-5
-1.381, 5.109e-5
-1.380, 5.048e-5
-1.379, 4.975e-5
-1.378, 4.887e-5
-1.377, 4.831e-5
-1.376, 4.792e-5
-1.375, 4.733e-5
-1.374, 4.673e-5
-1.373, 4.599e-5
-1.372, 4.506e-5
-1.371, 4.461e-5
-1.370, 4.396e-5
-1.369, 4.319e-5
-1.368, 4.236e-5
-1.367, 4.192e-5
-1.366, 4.177e-5
-1.365, 4.134e-5
-1.364, 4.047e-5
-1.363, 3.988e-5
-1.362, 3.937e-5
-1.361, 3.894e-5
-1.360, 3.846e-5
-1.359, 3.803e-5
-1.358, 3.739e-5
-1.357, 3.713e-5
-1.356, 3.678e-5
-1.355, 3.632e-5
-1.354, 3.546e-5
-1.353, 3.473e-5
-1.352, 3.426e-5
-1.351, 3.401e-5
-1.350, 3.345e-5
-1.349, 3.282e-5
-1.348, 3.222e-5
-1.347, 3.186e-5
-1.346, 3.156e-5
-1.345, 3.105e-5
-1.344, 3.047e-5
-1.343, 2.993e-5
-1.342, 2.982e-5
-1.341, 2.948e-5
-1.340, 2.918e-5
-1.339, 2.863e-5
-1.338, 2.821e-5
-1.337, 2.777e-5
-1.336, 2.744e-5
-1.335, 2.703e-5
-1.334, 2.651e-5
-1.333, 2.594e-5
-1.332, 2.569e-5
-1.331, 2.541e-5
-1.330, 2.512e-5
-1.329, 2.451e-5
-1.328, 2.404e-5
-1.327, 2.382e-5
-1.326, 2.379e-5
-1.325, 2.326e-5
-1.324, 2.277e-5
-1.323, 2.234e-5
-1.322, 2.209e-5
-1.321, 2.192e-5
-1.320, 2.163e-5
-1.319, 2.117e-5
-1.318, 2.065e-5
-1.317, 2.045e-5
-1.316, 2.025e-5
-1.315, 1.988e-5
-1.314, 1.942e-5
-1.313, 1.907e-5
-1.312, 1.880e-5
-1.311, 1.860e-5
-1.310, 1.819e-5
-1.309, 1.780e-5
-1.308, 1.736e-5
-1.307, 1.707e-5
-1.306, 1.680e-5
-1.305, 1.659e-5
-1.304, 1.612e-5
-1.303, 1.583e-5
-1.302, 1.561e-5
-1.301, 1.569e-5
-1.300, 1.526e-5
-1.299, 1.483e-5
-1.298, 1.451e-5
-1.297, 1.438e-5
-1.296, 1.422e-5
-1.295, 1.399e-5
-1.294, 1.351e-5
-1.293, 1.319e-5
-1.292, 1.301e-5
-1.291, 1.295e-5
-1.290, 1.261e-5
-1.289, 1.227e-5
-1.288, 1.193e-5
-1.287, 1.185e-5
-1.286, 1.175e-5
-1.285, 1.153e-5
-1.284, 1.120e-5
-1.283, 1.082e-5
-1.282, 1.076e-5
-1.281, 1.068e-5
-1.280, 1.048e-5
-1.279, 1.002e-5
-1.278, 9.785e-6
-1.277, 9.660e-6
-1.276, 9.675e-6
-1.275, 9.337e-6
-1.274, 9.068e-6
-1.273, 8.678e-6
-1.272, 8.772e-6
-1.271, 8.641e-6
-1.270, 8.385e-6
-1.269, 8.042e-6
-1.268, 7.818e-6
-1.267, 7.681e-6
-1.266, 7.766e-6
-1.265, 8.413e-6
-1.264, 8.179e-6
-1.263, 7.499e-6
-1.262, 7.185e-6
-1.261, 7.029e-6
-1.260, 6.738e-6
-1.259, 6.437e-6
-1.258, 6.166e-6
-1.257, 6.103e-6
-1.256, 6.074e-6
-1.255, 5.863e-6
-1.254, 5.482e-6
-1.253, 5.384e-6
-1.252, 5.279e-6
-1.251, 5.384e-6
-1.250, 5.024e-6
-1.249, 4.802e-6
-1.248, 4.574e-6
-1.247, 4.667e-6
-1.246, 4.537e-6
-1.245, 4.372e-6
-1.244, 4.096e-6
-1.243, 3.943e-6
-1.242, 3.937e-6
-1.241, 3.910e-6
-1.240, 3.700e-6
-1.239, 3.438e-6
-1.238, 3.301e-6
-1.237, 3.256e-6
-1.236, 3.290e-6
-1.235, 3.060e-6
-1.234, 2.840e-6
-1.233, 2.670e-6
-1.232, 2.758e-6
-1.231, 2.644e-6
-1.230, 2.528e-6
-1.229, 2.285e-6
-1.228, 2.151e-6
-1.227, 2.139e-6
-1.226, 2.120e-6
-1.225, 1.921e-6
-1.224, 1.740e-6
-1.223, 1.663e-6
-1.222, 1.634e-6
-1.221, 1.652e-6
-1.220, 1.460e-6
-1.219, 1.263e-6
-1.218, 1.105e-6
-1.217, 1.212e-6
-1.216, 1.170e-6
-1.215, 1.014e-6
-1.214, 7.496e-7
-1.213, 7.250e-7
-1.212, 6.875e-7
-1.211, 8.128e-7
-1.210, 5.109e-7
-1.209, 3.550e-7
-1.208, 3.431e-7
-1.207, 3.678e-7
-1.206, 3.461e-7
-1.205, 2.474e-7
-1.204, 3.137e-8
-1.203, -1.097e-7
-1.202, -1.993e-8
-1.201, 4.736e-9
-1.200, -9.392e-8
-1.199, -3.761e-7
-1.198, -3.889e-7
-1.197, -3.495e-7
-1.196, -2.616e-7
-1.195, -4.777e-7
-1.194, -6.977e-7
-1.193, -7.609e-7
-1.192, -6.494e-7
-1.191, -6.573e-7
-1.190, -7.540e-7
-1.189, -1.001e-6
-1.188, -9.710e-7
-1.187, -9.858e-7
-1.186, -8.901e-7
-1.185, -1.119e-6
-1.184, -1.223e-6
-1.183, -1.265e-6
-1.182, -1.186e-6
-1.181, -1.183e-6
-1.180, -1.257e-6
-1.179, -1.483e-6
-1.178, -1.501e-6
-1.177, -1.482e-6
-1.176, -1.373e-6
-1.175, -1.525e-6
-1.174, -1.719e-6
-1.173, -1.711e-6
-1.172, -1.632e-6
-1.171, -1.577e-6
-1.170, -1.730e-6
-1.169, -1.855e-6
-1.168, -1.979e-6
-1.167, -1.803e-6
-1.166, -1.837e-6
-1.165, -1.893e-6
-1.164, -2.137e-6
-1.163, -2.122e-6
-1.162, -2.047e-6
-1.161, -1.902e-6
-1.160, -2.158e-6
-1.159, -2.231e-6
-1.158, -2.328e-6
-1.157, -2.220e-6
-1.156, -2.345e-6
-1.155, -2.572e-6
-1.154, -2.764e-6
-1.153, -2.714e-6
-1.152, -2.620e-6
-1.151, -2.619e-6
-1.150, -2.763e-6
-1.149, -2.913e-6
-1.148, -2.893e-6
-1.147, -2.793e-6
-1.146, -2.660e-6
-1.145, -2.843e-6
-1.144, -2.939e-6
-1.143, -2.992e-6
-1.142, -2.812e-6
-1.141, -2.778e-6
-1.140, -2.846e-6
-1.139, -3.096e-6
-1.138, -3.013e-6
-1.137, -2.943e-6
-1.136, -2.834e-6
-1.135, -3.004e-6
-1.134, -3.171e-6
-1.133, -3.115e-6
-1.132, -3.002e-6
-1.131, -3.014e-6
-1.130, -3.086e-6
-1.129, -3.290e-6
-1.128, -3.170e-6
-1.127, -3.053e-6
-1.126, -2.942e-6
-1.125, -3.167e-6
-1.124, -3.246e-6
-1.123, -3.159e-6
-1.122, -3.014e-6
-1.121, -3.041e-6
-1.120, -3.291e-6
-1.119, -3.453e-6
-1.118, -3.400e-6
-1.117, -3.229e-6
-1.116, -3.234e-6
-1.115, -3.346e-6
-1.114, -3.512e-6
-1.113, -3.476e-6
-1.112, -3.388e-6
-1.111, -3.274e-6
-1.110, -3.485e-6
-1.109, -3.545e-6
-1.108, -3.543e-6
-1.107, -3.355e-6
-1.106, -3.369e-6
-1.105, -3.458e-6
-1.104, -3.647e-6
-1.103, -3.584e-6
-1.102, -3.488e-6
-1.101, -3.382e-6
-1.100, -3.592e-6
-1.099, -3.642e-6
-1.098, -3.658e-6
-1.097, -3.456e-6
-1.096, -3.486e-6
-1.095, -3.588e-6
-1.094, -3.742e-6
-1.093, -3.682e-6
-1.092, -3.581e-6
-1.091, -3.522e-6
-1.090, -3.712e-6
-1.089, -3.764e-6
-1.088, -3.762e-6
-1.087, -3.659e-6
-1.086, -3.626e-6
-1.085, -3.738e-6
-1.084, -3.878e-6
-1.083, -3.808e-6
-1.082, -3.671e-6
-1.081, -3.693e-6
-1.080, -3.853e-6
-1.079, -3.926e-6
-1.078, -3.902e-6
-1.077, -3.774e-6
-1.076, -3.751e-6
-1.075, -3.920e-6
-1.074, -3.968e-6
-1.073, -3.975e-6
-1.072, -3.731e-6
-1.071, -3.792e-6
-1.070, -3.913e-6
-1.069, -4.080e-6
-1.068, -3.914e-6
-1.067, -3.853e-6
-1.066, -3.834e-6
-1.065, -4.050e-6
-1.064, -4.081e-6
-1.063, -4.080e-6
-1.062, -3.902e-6
-1.061, -3.978e-6
-1.060, -4.035e-6
-1.059, -4.219e-6
-1.058, -4.067e-6
-1.057, -3.981e-6
-1.056, -4.008e-6
-1.055, -4.142e-6
-1.054, -4.239e-6
-1.053, -4.190e-6
-1.052, -4.027e-6
-1.051, -4.090e-6
-1.050, -4.221e-6
-1.049, -4.342e-6
-1.048, -4.289e-6
-1.047, -4.131e-6
-1.046, -4.229e-6
-1.045, -4.298e-6
-1.044, -4.469e-6
-1.043, -4.364e-6
-1.042, -4.271e-6
-1.041, -4.267e-6
-1.040, -4.468e-6
-1.039, -4.541e-6
-1.038, -4.531e-6
-1.037, -4.328e-6
-1.036, -4.450e-6
-1.035, -4.517e-6
-1.034, -4.659e-6
-1.033, -4.577e-6
-1.032, -4.467e-6
-1.031, -4.510e-6
-1.030, -4.727e-6
-1.029, -4.743e-6
-1.028, -4.717e-6
-1.027, -4.542e-6
-1.026, -4.618e-6
-1.025, -4.783e-6
-1.024, -4.917e-6
-1.023, -4.855e-6
-1.022, -4.720e-6
-1.021, -4.762e-6
-1.020, -4.904e-6
-1.019, -5.058e-6
-1.018, -4.882e-6
-1.017, -4.847e-6
-1.016, -4.808e-6
-1.015, -5.055e-6
-1.014, -5.079e-6
-1.013, -5.075e-6
-1.012, -4.909e-6
-1.011, -5.013e-6
-1.010, -5.188e-6
-1.009, -5.305e-6
-1.008, -5.148e-6
-1.007, -5.122e-6
-1.006, -5.110e-6
-1.005, -5.340e-6
-1.004, -5.384e-6
-1.003, -5.400e-6
-1.002, -5.223e-6
-1.001, -5.365e-6
-1.000, -3.814e-6
-1.001, -3.034e-6
-1.002, -2.479e-6
-1.003, -2.115e-6
-1.004, -1.885e-6
-1.005, -1.873e-6
-1.006, -1.655e-6
-1.007, -1.390e-6
-1.008, -1.026e-6
-1.009, -1.014e-6
-1.010, -9.444e-7
-1.011, -9.424e-7
-1.012, -6.119e-7
-1.013, -4.521e-7
-1.014, -3.189e-7
-1.015, -4.077e-7
-1.016, -3.110e-7
-1.017, -1.452e-7
-1.018, 1.774e-7
-1.019, 1.803e-7
-1.020, 1.843e-7
-1.021, 1.557e-7
-1.022, 4.250e-7
-1.023, 5.937e-7
-1.024, 6.687e-7
-1.025, 5.661e-7
-1.026, 6.283e-7
-1.027, 7.999e-7
-1.028, 1.016e-6
-1.029, 9.381e-7
-1.030, 9.578e-7
-1.031, 9.489e-7
-1.032, 1.153e-6
-1.033, 1.270e-6
-1.034, 1.327e-6
-1.035, 1.233e-6
-1.036, 1.259e-6
-1.037, 1.359e-6
-1.038, 1.573e-6
-1.039, 1.578e-6
-1.040, 1.473e-6
-1.041, 1.472e-6
-1.042, 1.679e-6
-1.043, 1.822e-6
-1.044, 1.779e-6
-1.045, 1.695e-6
-1.046, 1.659e-6
-1.047, 1.890e-6
-1.048, 1.981e-6
-1.049, 2.005e-6
-1.050, 1.852e-6
-1.051, 1.874e-6
-1.052, 2.068e-6
-1.053, 2.232e-6
-1.054, 2.136e-6
-1.055, 2.046e-6
-1.056, 2.013e-6
-1.057, 2.235e-6
-1.058, 2.331e-6
-1.059, 2.298e-6
-1.060, 2.134e-6
-1.061, 2.176e-6
-1.062, 2.281e-6
-1.063, 2.512e-6
-1.064, 2.405e-6
-1.065, 2.307e-6
-1.066, 2.316e-6
-1.067, 2.496e-6
-1.068, 2.517e-6
-1.069, 2.530e-6
-1.070, 2.376e-6
-1.071, 2.450e-6
-1.072, 2.494e-6
-1.073, 2.690e-6
-1.074, 2.576e-6
-1.075, 2.478e-6
-1.076, 2.469e-6
-1.077, 2.644e-6
-1.078, 2.674e-6
-1.079, 2.696e-6
-1.080, 2.507e-6
-1.081, 2.541e-6
-1.082, 2.712e-6
-1.083, 2.789e-6
-1.084, 2.724e-6
-1.085, 2.580e-6
-1.086, 2.636e-6
-1.087, 2.719e-6
-1.088, 2.869e-6
-1.089, 2.763e-6
-1.090, 2.725e-6
-1.091, 2.658e-6
-1.092, 2.843e-6
-1.093, 2.872e-6
-1.094, 2.868e-6
-1.095, 2.682e-6
-1.096, 2.774e-6
-1.097, 2.857e-6
-1.098, 2.958e-6
-1.099, 2.832e-6
-1.100, 2.790e-6
-1.101, 2.776e-6
-1.102, 2.931e-6
-1.103, 3.019e-6
-1.104, 2.955e-6
-1.105, 2.767e-6
-1.106, 2.876e-6
-1.107, 2.954e-6
-1.108, 3.132e-6
-1.109, 2.966e-6
-1.110, 2.888e-6
-1.111, 2.842e-6
-1.112, 3.021e-6
-1.113, 3.102e-6
-1.114, 3.098e-6
-1.115, 2.880e-6
-1.116, 3.009e-6
-1.117, 3.014e-6
-1.118, 3.209e-6
-1.119, 3.056e-6
-1.120, 3.022e-6
-1.121, 2.975e-6
-1.122, 3.172e-6
-1.123, 3.222e-6
-1.124, 3.194e-6
-1.125, 3.009e-6
-1.126, 3.079e-6
-1.127, 3.199e-6
-1.128, 3.364e-6
-1.129, 3.187e-6
-1.130, 3.185e-6
-1.131, 3.131e-6
-1.132, 3.352e-6
-1.133, 3.388e-6
-1.134, 3.327e-6
-1.135, 3.195e-6
-1.136, 3.238e-6
-1.137, 3.378e-6
-1.138, 3.530e-6
-1.139, 3.353e-6
-1.140, 3.348e-6
-1.141, 3.326e-6
-1.142, 3.543e-6
-1.143, 3.550e-6
-1.144, 3.554e-6
-1.145, 3.377e-6
-1.146, 3.430e-6
-1.147, 3.601e-6
-1.148, 3.721e-6
-1.149, 3.583e-6
-1.150, 3.547e-6
-1.151, 3.558e-6
-1.152, 3.785e-6
-1.153, 3.792e-6
-1.154, 3.789e-6
-1.155, 3.647e-6
-1.156, 3.758e-6
-1.157, 3.848e-6
-1.158, 3.964e-6
-1.159, 3.836e-6
-1.160, 3.799e-6
-1.161, 3.807e-6
-1.162, 4.080e-6
-1.163, 4.091e-6
-1.164, 4.044e-6
-1.165, 3.882e-6
-1.166, 4.029e-6
-1.167, 4.197e-6
-1.168, 4.311e-6
-1.169, 4.151e-6
-1.170, 4.150e-6
-1.171, 4.140e-6
-1.172, 4.396e-6
-1.173, 4.438e-6
-1.174, 4.344e-6
-1.175, 4.260e-6
-1.176, 4.385e-6
-1.177, 4.559e-6
-1.178, 4.700e-6
-1.179, 4.548e-6
-1.180, 4.467e-6
-1.181, 4.547e-6
-1.182, 4.733e-6
-1.183, 4.858e-6
-1.184, 4.752e-6
-1.185, 4.651e-6
-1.186, 4.810e-6
-1.187, 4.975e-6
-1.188, 5.067e-6
-1.189, 4.965e-6
-1.190, 4.991e-6
-1.191, 5.046e-6
-1.192, 5.280e-6
-1.193, 5.334e-6
-1.194, 5.232e-6
-1.195, 5.176e-6
-1.196, 5.318e-6
-1.197, 5.497e-6
-1.198, 5.593e-6
-1.199, 5.529e-6
-1.200, 5.524e-6
-1.201, 5.589e-6
-1.202, 5.807e-6
-1.203, 5.895e-6
-1.204, 5.825e-6
-1.205, 5.802e-6
-1.206, 5.935e-6
-1.207, 6.112e-6
-1.208, 6.183e-6
-1.209, 6.123e-6
-1.210, 6.163e-6
-1.211, 6.239e-6
-1.212, 6.499e-6
-1.213, 6.566e-6
-1.214, 6.541e-6
-1.215, 6.499e-6
-1.216, 6.660e-6
-1.217, 6.867e-6
-1.218, 6.936e-6
-1.219, 6.958e-6
-1.220, 6.955e-6
-1.221, 7.085e-6
-1.222, 7.305e-6
-1.223, 7.394e-6
-1.224, 7.354e-6
-1.225, 7.343e-6
-1.226, 7.536e-6
-1.227, 7.747e-6
-1.228, 7.824e-6
-1.229, 7.862e-6
-1.230, 7.852e-6
-1.231, 8.042e-6
-1.232, 8.310e-6
-1.233, 8.377e-6
-1.234, 8.316e-6
-1.235, 8.353e-6
-1.236, 8.505e-6
-1.237, 8.788e-6
-1.238, 8.848e-6
-1.239, 8.935e-6
-1.240, 8.892e-6
-1.241, 9.119e-6
-1.242, 9.335e-6
-1.243, 9.510e-6
-1.244, 9.430e-6
-1.245, 9.477e-6
-1.246, 9.655e-6
-1.247, 1.001e-5
-1.248, 1.004e-5
-1.249, 1.012e-5
-1.250, 1.006e-5
-1.251, 1.040e-5
-1.252, 1.062e-5
-1.253, 1.073e-5
-1.254, 1.072e-5
-1.255, 1.087e-5
-1.256, 1.098e-5
-1.257, 1.135e-5
-1.258, 1.148e-5
-1.259, 1.149e-5
-1.260, 1.155e-5
-1.261, 1.185e-5
-1.262, 1.210e-5
-1.263, 1.227e-5
-1.264, 1.223e-5
-1.265, 1.240e-5
-1.266, 1.260e-5
-1.267, 1.294e-5
-1.268, 1.311e-5
-1.269, 1.311e-5
-1.270, 1.322e-5
-1.271, 1.351e-5
-1.272, 1.381e-5
-1.273, 1.396e-5
-1.274, 1.394e-5
-1.275, 1.410e-5
-1.276, 1.431e-5
-1.277, 1.473e-5
-1.278, 1.487e-5
-1.279, 1.488e-5
-1.280, 1.502e-5
-1.281, 1.532e-5
-1.282, 1.561e-5
-1.283, 1.594e-5
-1.284, 1.610e-5
-1.285, 1.622e-5
-1.286, 1.654e-5
-1.287, 1.684e-5
-1.288, 1.696e-5
-1.289, 1.697e-5
-1.290, 1.721e-5
-1.291, 1.760e-5
-1.292, 1.797e-5
-1.293, 1.822e-5
-1.294, 1.827e-5
-1.295, 1.841e-5
-1.296, 1.879e-5
-1.297, 1.905e-5
-1.298, 1.926e-5
-1.299, 1.932e-5
-1.300, 1.956e-5
-1.301, 2.000e-5
-1.302, 2.046e-5
-1.303, 2.056e-5
-1.304, 2.067e-5
-1.305, 2.081e-5
-1.306, 2.126e-5
-1.307, 2.160e-5
-1.308, 2.191e-5
-1.309, 2.193e-5
-1.310, 2.218e-5
-1.311, 2.248e-5
-1.312, 2.300e-5
-1.313, 2.334e-5
-1.314, 2.344e-5
-1.315, 2.356e-5
-1.316, 2.400e-5
-1.317, 2.436e-5
-1.318, 2.485e-5
-1.319, 2.496e-5
-1.320, 2.518e-5
-1.321, 2.563e-5
-1.322, 2.608e-5
-1.323, 2.632e-5
-1.324, 2.655e-5
-1.325, 2.681e-5
-1.326, 2.726e-5
-1.327, 2.772e-5
-1.328, 2.791e-5
-1.329, 2.808e-5
-1.330, 2.852e-5
-1.331, 2.906e-5
-1.332, 2.938e-5
-1.333, 2.965e-5
-1.334, 2.981e-5
-1.335, 3.009e-5
-1.336, 3.073e-5
-1.337, 3.131e-5
-1.338, 3.161e-5
-1.339, 3.177e-5
-1.340, 3.204e-5
-1.341, 3.265e-5
-1.342, 3.299e-5
-1.343, 3.346e-5
-1.344, 3.361e-5
-1.345, 3.400e-5
-1.346, 3.463e-5
-1.347, 3.525e-5
-1.348, 3.562e-5
-1.349, 3.580e-5
-1.350, 3.589e-5
-1.351, 3.654e-5
-1.352, 3.698e-5
-1.353, 3.743e-5
-1.354, 3.786e-5
-1.355, 3.827e-5
-1.356, 3.878e-5
-1.357, 3.931e-5
-1.358, 3.969e-5
-1.359, 4.004e-5
-1.360, 4.040e-5
-1.361, 4.116e-5
-1.362, 4.168e-5
-1.363, 4.216e-5
-1.364, 4.249e-5
-1.365, 4.294e-5
-1.366, 4.348e-5
-1.367, 4.439e-5
-1.368, 4.443e-5
-1.369, 4.471e-5
-1.370, 4.517e-5
-1.371, 4.581e-5
-1.372, 4.651e-5
-1.373, 4.710e-5
-1.374, 4.761e-5
-1.375, 4.798e-5
-1.376, 4.859e-5
-1.377, 4.920e-5
-1.378, 4.975e-5
-1.379, 5.011e-5
-1.380, 5.074e-5
-1.381, 5.144e-5
-1.382, 5.218e-5
-1.383, 5.245e-5
-1.384, 5.293e-5
-1.385, 5.368e-5
-1.386, 5.447e-5
-1.387, 5.470e-5
-1.388, 5.528e-5
-1.389, 5.564e-5
-1.390, 5.650e-5
-1.391, 5.725e-5
-1.392, 5.822e-5
-1.393, 5.904e-5
-1.394, 5.956e-5
-1.395, 6.022e-5
-1.396, 6.109e-5
-1.397, 6.180e-5
-1.398, 6.250e-5
-1.399, 6.292e-5
-1.400, 6.365e-5
-1.401, 6.418e-5
-1.402, 6.499e-5
-1.403, 6.552e-5
-1.404, 6.631e-5
-1.405, 6.636e-5
-1.406, 6.728e-5
-1.407, 6.837e-5
-1.408, 6.912e-5
-1.409, 6.965e-5
-1.410, 7.033e-5
-1.411, 7.091e-5
-1.412, 7.162e-5
-1.413, 7.219e-5
-1.414, 7.294e-5
-1.415, 7.388e-5
-1.416, 7.490e-5
-1.417, 7.570e-5
-1.418, 7.643e-5
-1.419, 7.698e-5
-1.420, 7.774e-5
-1.421, 7.871e-5
-1.422, 7.995e-5
-1.423, 8.011e-5
-1.424, 8.056e-5
-1.425, 8.137e-5
-1.426, 8.217e-5
-1.427, 8.314e-5
-1.428, 8.387e-5
-1.429, 8.526e-5
-1.430, 8.619e-5
-1.431, 8.650e-5
-1.432, 8.712e-5
-1.433, 8.813e-5
-1.434, 8.943e-5
-1.435, 9.014e-5
-1.436, 9.163e-5
-1.437, 9.265e-5
-1.438, 9.321e-5
-1.439, 9.391e-5
-1.440, 9.473e-5
-1.441, 9.563e-5
-1.442, 9.690e-5
-1.443, 9.769e-5
-1.444, 9.859e-5
-1.445, 9.962e-5
-1.446, 1.006e-4
-1.447, 1.016e-4
-1.448, 1.027e-4
-1.449, 1.033e-4
-1.450, 1.042e-4
-1.451, 1.054e-4
-1.452, 1.066e-4
-1.453, 1.075e-4
-1.454, 1.083e-4
-1.455, 1.094e-4
-1.456, 1.108e-4
-1.457, 1.118e-4
-1.458, 1.128e-4
-1.459, 1.135e-4
-1.460, 1.147e-4
-1.461, 1.158e-4
-1.462, 1.171e-4
-1.463, 1.183e-4
-1.464, 1.194e-4
-1.465, 1.204e-4
-1.466, 1.220e-4
-1.467, 1.229e-4
-1.468, 1.239e-4
-1.469, 1.251e-4
-1.470, 1.261e-4
-1.471, 1.276e-4
-1.472, 1.293e-4
-1.473, 1.308e-4
-1.474, 1.316e-4
-1.475, 1.329e-4
-1.476, 1.341e-4
-1.477, 1.354e-4
-1.478, 1.368e-4
-1.479, 1.382e-4
-1.480, 1.394e-4
-1.481, 1.408e-4
-1.482, 1.418e-4
-1.483, 1.433e-4
-1.484, 1.452e-4
-1.485, 1.461e-4
-1.486, 1.471e-4
-1.487, 1.487e-4
-1.488, 1.502e-4
-1.489, 1.515e-4
-1.490, 1.531e-4
-1.491, 1.549e-4
-1.492, 1.565e-4
-1.493, 1.577e-4
-1.494, 1.591e-4
-1.495, 1.605e-4
-1.496, 1.623e-4
-1.497, 1.638e-4
-1.498, 1.653e-4
-1.499, 1.664e-4
-1.500, 1.682e-4
-1.501, 1.701e-4
-1.502, 1.722e-4
-1.503, 1.731e-4
-1.504, 1.742e-4
-1.505, 1.759e-4
-1.506, 1.777e-4
-1.507, 1.795e-4
-1.508, 1.814e-4
-1.509, 1.836e-4
-1.510, 1.850e-4
-1.511, 1.868e-4
-1.512, 1.888e-4
-1.513, 1.906e-4
-1.514, 1.923e-4
-1.515, 1.943e-4
-1.516, 1.962e-4
-1.517, 1.982e-4
-1.518, 1.999e-4
-1.519, 2.023e-4
-1.520, 2.044e-4
-1.521, 2.060e-4
-1.522, 2.081e-4
-1.523, 2.098e-4
-1.524, 2.120e-4
-1.525, 2.139e-4
-1.526, 2.162e-4
-1.527, 2.187e-4
-1.528, 2.204e-4
-1.529, 2.226e-4
-1.530, 2.252e-4
-1.531, 2.276e-4
-1.532, 2.300e-4
-1.533, 2.322e-4
-1.534, 2.344e-4
-1.535, 2.367e-4
-1.536, 2.383e-4
-1.537, 2.396e-4
-1.538, 2.428e-4
-1.539, 2.454e-4
-1.540, 2.478e-4
-1.541, 2.506e-4
-1.542, 2.532e-4
-1.543, 2.551e-4
-1.544, 2.587e-4
-1.545, 2.621e-4
-1.546, 2.648e-4
-1.547, 2.674e-4
-1.548, 2.701e-4
-1.549, 2.730e-4
-1.550, 2.760e-4
-1.551, 2.797e-4
-1.552, 2.826e-4
-1.553, 2.852e-4
-1.554, 2.876e-4
-1.555, 2.907e-4
-1.556, 2.938e-4
-1.557, 2.968e-4
-1.558, 2.994e-4
-1.559, 3.026e-4
-1.560, 3.051e-4
-1.561, 3.087e-4
-1.562, 3.120e-4
-1.563, 3.158e-4
-1.564, 3.183e-4
-1.565, 3.199e-4
-1.566, 3.253e-4
-1.567, 3.290e-4
-1.568, 3.318e-4
-1.569, 3.365e-4
-1.570, 3.420e-4
-1.571, 3.459e-4
-1.572, 3.492e-4
-1.573, 3.535e-4
-1.574, 3.575e-4
-1.575, 3.623e-4
-1.576, 3.676e-4
-1.577, 3.723e-4
-1.578, 3.768e-4
-1.579, 3.809e-4
-1.580, 3.853e-4
-1.581, 3.907e-4
-1.582, 3.960e-4
-1.583, 4.000e-4
-1.584, 4.051e-4
-1.585, 4.107e-4
-1.586, 4.162e-4
-1.587, 4.223e-4
-1.588, 4.274e-4
-1.589, 4.324e-4
-1.590, 4.379e-4
-1.591, 4.444e-4
-1.592, 4.512e-4
-1.593, 4.575e-4
-1.594, 4.638e-4
-1.595, 4.711e-4
-1.596, 4.784e-4
-1.597, 4.855e-4
-1.598, 4.926e-4
-1.599, 4.994e-4
-1.600, 5.068e-4
-1.601, 5.147e-4
-1.602, 5.222e-4
-1.603, 5.301e-4
-1.604, 5.374e-4
-1.605, 5.458e-4
-1.606, 5.533e-4
-1.607, 5.613e-4
-1.608, 5.695e-4
-1.609, 5.783e-4
-1.610, 5.879e-4
-1.611, 5.978e-4
-1.612, 6.076e-4
-1.613, 6.174e-4
-1.614, 6.273e-4
-1.615, 6.383e-4
-1.616, 6.494e-4
-1.617, 6.605e-4
-1.618, 6.709e-4
-1.619, 6.807e-4
-1.620, 6.917e-4
-1.621, 7.055e-4
-1.622, 7.176e-4
-1.623, 7.294e-4
-1.624, 7.409e-4
-1.625, 7.537e-4
-1.626, 7.675e-4
-1.627, 7.818e-4
-1.628, 7.984e-4
-1.629, 8.136e-4
-1.630, 8.292e-4
-1.631, 8.442e-4
-1.632, 8.605e-4
-1.633, 8.773e-4
-1.634, 8.951e-4
-1.635, 9.127e-4
-1.636, 9.290e-4
-1.637, 9.468e-4
-1.638, 9.671e-4
-1.639, 9.881e-4
-1.640, 1.007e-3
-1.641, 1.027e-3
-1.642, 1.046e-3
-1.643, 1.067e-3
-1.644, 1.089e-3
-1.645, 1.114e-3
-1.646, 1.140e-3
-1.647, 1.166e-3
-1.648, 1.191e-3
-1.649, 1.215e-3
-1.650, 1.242e-3
-1.651, 1.271e-3
-1.652, 1.301e-3
-1.653, 1.331e-3
-1.654, 1.360e-3
-1.655, 1.390e-3
-1.656, 1.422e-3
-1.657, 1.456e-3
-1.658, 1.486e-3
-1.659, 1.517e-3
-1.660, 1.549e-3
-1.661, 1.586e-3
-1.662, 1.623e-3
-1.663, 1.661e-3
-1.664, 1.702e-3
-1.665, 1.744e-3
-1.666, 1.790e-3
-1.667, 1.832e-3
-1.668, 1.868e-3
-1.669, 1.912e-3
-1.670, 1.958e-3
-1.671, 2.006e-3
-1.672, 2.053e-3
-1.673, 2.095e-3
-1.674, 2.144e-3
-1.675, 2.199e-3
-1.676, 2.251e-3
-1.677, 2.302e-3
-1.678, 2.349e-3
-1.679, 2.401e-3
-1.680, 2.454e-3
-1.681, 2.511e-3
-1.682, 2.575e-3
-1.683, 2.636e-3
-1.684, 2.695e-3
-1.685, 2.749e-3
-1.686, 2.804e-3
-1.687, 2.868e-3
-1.688, 2.937e-3
-1.689, 3.002e-3
-1.690, 3.069e-3
-1.691, 3.131e-3
-1.692, 3.202e-3
-1.693, 3.274e-3
-1.694, 3.341e-3
-1.695, 3.410e-3
-1.696, 3.479e-3
-1.697, 3.551e-3
-1.698, 3.626e-3
-1.699, 3.704e-3
-1.700, 3.752e-3
-1.699, 3.745e-3
-1.698, 3.726e-3
-1.697, 3.697e-3
-1.696, 3.663e-3
-1.695, 3.629e-3
-1.694, 3.602e-3
-1.693, 3.572e-3
-1.692, 3.538e-3
-1.691, 3.491e-3
-1.690, 3.453e-3
-1.689, 3.423e-3
-1.688, 3.397e-3
-1.687, 3.361e-3
-1.686, 3.322e-3
-1.685, 3.274e-3
-1.684, 3.225e-3
-1.683, 3.180e-3
-1.682, 3.144e-3
-1.681, 3.110e-3
-1.680, 3.076e-3
-1.679, 3.039e-3
-1.678, 2.995e-3
-1.677, 2.952e-3
-1.676, 2.912e-3
-1.675, 2.874e-3
-1.674, 2.839e-3
-1.673, 2.799e-3
-1.672, 2.754e-3
-1.671, 2.714e-3
-1.670, 2.676e-3
-1.669, 2.634e-3
-1.668, 2.598e-3
-1.667, 2.561e-3
-1.666, 2.521e-3
-1.665, 2.482e-3
-1.664, 2.445e-3
-1.663, 2.411e-3
-1.662, 2.376e-3
-1.661, 2.341e-3
-1.660, 2.305e-3
-1.659, 2.268e-3
-1.658, 2.231e-3
-1.657, 2.193e-3
-1.656, 2.159e-3
-1.655, 2.122e-3
-1.654, 2.084e-3
-1.653, 2.049e-3
-1.652, 2.014e-3
-1.651, 1.982e-3
-1.650, 1.950e-3
-1.649, 1.919e-3
-1.648, 1.886e-3
-1.647, 1.853e-3
-1.646, 1.820e-3
-1.645, 1.792e-3
-1.644, 1.764e-3
-1.643, 1.733e-3
-1.642, 1.704e-3
-1.641, 1.673e-3
-1.640, 1.644e-3
-1.639, 1.615e-3
-1.638, 1.586e-3
-1.637, 1.558e-3
-1.636, 1.526e-3
-1.635, 1.494e-3
-1.634, 1.466e-3
-1.633, 1.439e-3
-1.632, 1.414e-3
-1.631, 1.385e-3
-1.630, 1.359e-3
-1.629, 1.334e-3
-1.628, 1.311e-3
-1.627, 1.288e-3
-1.626, 1.265e-3
-1.625, 1.243e-3
-1.624, 1.221e-3
-1.623, 1.196e-3
-1.622, 1.173e-3
-1.621, 1.152e-3
-1.620, 1.131e-3
-1.619, 1.113e-3
-1.618, 1.092e-3
-1.617, 1.071e-3
-1.616, 1.049e-3
-1.615, 1.029e-3
-1.614, 1.009e-3
-1.613, 9.900e-4
-1.612, 9.707e-4
-1.611, 9.515e-4
-1.610, 9.340e-4
-1.609, 9.175e-4
-1.608, 9.009e-4
-1.607, 8.837e-4
-1.606, 8.657e-4
-1.605, 8.494e-4
-1.604, 8.340e-4
-1.603, 8.186e-4
-1.602, 8.027e-4
-1.601, 7.878e-4
-1.600, 7.685e-4
-1.599, 7.522e-4
-1.598, 7.384e-4
-1.597, 7.249e-4
-1.596, 7.113e-4
-1.595, 6.966e-4
-1.594, 6.829e-4
-1.593, 6.696e-4
-1.592, 6.568e-4
-1.591, 6.448e-4
-1.590, 6.339e-4
-1.589, 6.222e-4
-1.588, 6.090e-4
-1.587, 5.970e-4
-1.586, 5.856e-4
-1.585, 5.752e-4
-1.584, 5.652e-4
-1.583, 5.548e-4
-1.582, 5.440e-4
-1.581, 5.346e-4
-1.580, 5.253e-4
-1.579, 5.159e-4
-1.578, 5.064e-4
-1.577, 4.949e-4
-1.576, 4.857e-4
-1.575, 4.764e-4
-1.574, 4.677e-4
-1.573, 4.595e-4
-1.572, 4.510e-4
-1.571, 4.421e-4
-1.570, 4.345e-4
-1.569, 4.286e-4
-1.568, 4.205e-4
-1.567, 4.129e-4
-1.566, 4.057e-4
-1.565, 3.980e-4
-1.564, 3.902e-4
-1.563, 3.832e-4
-1.562, 3.767e-4
-1.561, 3.710e-4
-1.560, 3.659e-4
-1.559, 3.590e-4
-1.558, 3.527e-4
-1.557, 3.465e-4
-1.556, 3.397e-4
-1.555, 3.349e-4
-1.554, 3.299e-4
-1.553, 3.242e-4
-1.552, 3.188e-4
-1.551, 3.136e-4
-1.550, 3.086e-4
-1.549, 3.037e-4
-1.548, 2.989e-4
-1.547, 2.945e-4
-1.546, 2.901e-4
-1.545, 2.859e-4
-1.544, 2.816e-4
-1.543, 2.772e-4
-1.542, 2.730e-4
-1.541, 2.686e-4
-1.540, 2.651e-4
-1.539, 2.601e-4
-1.538, 2.556e-4
-1.537, 2.520e-4
-1.536, 2.488e-4
-1.535, 2.454e-4
-1.534, 2.410e-4
-1.533, 2.371e-4
-1.532, 2.333e-4
-1.531, 2.299e-4
-1.530, 2.268e-4
-1.529, 2.238e-4
-1.528, 2.201e-4
-1.527, 2.168e-4
-1.526, 2.138e-4
-1.525, 2.109e-4
-1.524, 2.076e-4
-1.523, 2.043e-4
-1.522, 2.020e-4
-1.521, 2.000e-4
-1.520, 1.966e-4
-1.519, 1.932e-4
-1.518, 1.903e-4
-1.517, 1.879e-4
-1.516, 1.855e-4
-1.515, 1.835e-4
-1.514, 1.804e-4
-1.513, 1.778e-4
-1.512, 1.753e-4
-1.511, 1.736e-4
-1.510, 1.712e-4
-1.509, 1.684e-4
-1.508, 1.660e-4
-1.507, 1.636e-4
-1.506, 1.615e-4
-1.505, 1.595e-4
-1.504, 1.579e-4
-1.503, 1.554e-4
-1.502, 1.532e-4
-1.501, 1.510e-4
-1.500, 1.496e-4
-1.499, 1.475e-4
-1.498, 1.454e-4
-1.497, 1.433e-4
-1.496, 1.414e-4
-1.495, 1.396e-4
-1.494, 1.376e-4
-1.493, 1.359e-4
-1.492, 1.343e-4
-1.491, 1.320e-4
-1.490, 1.307e-4
-1.489, 1.298e-4
-1.488, 1.263e-4
-1.487, 1.245e-4
-1.486, 1.230e-4
-1.485, 1.218e-4
-1.484, 1.210e-4
-1.483, 1.180e-4
-1.482, 1.164e-4
-1.481, 1.150e-4
-1.480, 1.135e-4
-1.479, 1.119e-4
-1.478, 1.103e-4
-1.477, 1.089e-4
-1.476, 1.075e-4
-1.475, 1.066e-4
-1.474, 1.061e-4
-1.473, 1.047e-4
-1.472, 1.029e-4
-1.471, 1.016e-4
-1.470, 9.928e-5
-1.469, 9.814e-5
-1.468, 9.678e-5
-1.467, 9.543e-5
-1.466, 9.436e-5
-1.465, 9.338e-5
-1.464, 9.207e-5
-1.463, 9.081e-5
-1.462, 8.936e-5
-1.461, 8.843e-5
-1.460, 8.749e-5
-1.459, 8.687e-5
-1.458, 8.506e-5
-1.457, 8.384e-5
-1.456, 8.288e-5
-1.455, 8.224e-5
-1.454, 8.087e-5
-1.453, 7.967e-5
-1.452, 7.860e-5
-1.451, 7.781e-5
-1.450, 7.702e-5
-1.449, 7.603e-5
-1.448, 7.482e-5
-1.447, 7.371e-5
-1.446, 7.288e-5
-1.445, 7.205e-5
-1.444, 7.110e-5
-1.443, 6.995e-5
-1.442, 6.898e-5
-1.441, 6.853e-5
-1.440, 6.783e-5
-1.439, 6.658e-5
-1.438, 6.564e-5
-1.437, 6.491e-5
-1.436, 6.416e-5
-1.435, 6.348e-5
-1.434, 6.265e-5
-1.433, 6.158e-5
-1.432, 6.080e-5
-1.431, 6.008e-5
-1.430, 5.953e-5
-1.429, 5.872e-5
-1.428, 5.784e-5
-1.427, 5.696e-5
-1.426, 5.624e-5
-1.425, 5.572e-5
-1.424, 5.511e-5
-1.423, 5.449e-5
-1.422, 5.330e-5
-1.421, 5.282e-5
-1.420, 5.234e-5
-1.419, 5.187e-5
-1.418, 5.086e-5
-1.417, 5.017e-5
-1.416, 4.987e-5
-1.415, 4.989e-5
-1.414, 4.908e-5
-1.413, 4.843e-5
-1.412, 4.752e-5
-1.411, 4.643e-5
-1.410, 4.561e-5
-1.409, 4.513e-5
-1.408, 4.430e-5
-1.407, 4.371e-5
-1.406, 4.420e-5
-1.405, 4.363e-5
-1.404, 4.300e-5
-1.403, 4.219e-5
-1.402, 4.161e-5
-1.401, 4.119e-5
-1.400, 4.054e-5
-1.399, 4.033e-5
-1.398, 3.969e-5
-1.397, 3.898e-5
-1.396, 3.858e-5
-1.395, 3.818e-5
-1.394, 3.768e-5
-1.393, 3.731e-5
-1.392, 3.666e-5
-1.391, 3.626e-5
-1.390, 3.592e-5
-1.389, 3.531e-5
-1.388, 3.479e-5
-1.387, 3.415e-5
-1.386, 3.392e-5
-1.385, 3.354e-5
-1.384, 3.321e-5
-1.383, 3.259e-5
-1.382, 3.199e-5
-1.381, 3.171e-5
-1.380, 3.133e-5
-1.379, 3.084e-5
-1.378, 3.030e-5
-1.377, 2.990e-5
-1.376, 2.955e-5
-1.375, 2.926e-5
-1.374, 2.867e-5
-1.373, 2.811e-5
-1.372, 2.761e-5
-1.371, 2.751e-5
-1.370, 2.719e-5
-1.369, 2.675e-5
-1.368, 2.633e-5
-1.367, 2.597e-5
-1.366, 2.574e-5
-1.365, 2.536e-5
-1.364, 2.495e-5
-1.363, 2.443e-5
-1.362, 2.405e-5
-1.361, 2.386e-5
-1.360, 2.363e-5
-1.359, 2.332e-5
-1.358, 2.285e-5
-1.357, 2.250e-5
-1.356, 2.220e-5
-1.355, 2.191e-5
-1.354, 2.163e-5
-1.353, 2.111e-5
-1.352, 2.080e-5
-1.351, 2.066e-5
-1.350, 2.056e-5
-1.349, 2.017e-5
-1.348, 1.984e-5
-1.347, 1.953e-5
-1.346, 1.929e-5
-1.345, 1.905e-5
-1.344, 1.874e-5
-1.343, 1.829e-5
-1.342, 1.791e-5
-1.341, 1.795e-5
-1.340, 1.762e-5
-1.339, 1.737e-5
-1.338, 1.701e-5
-1.337, 1.672e-5
-1.336, 1.655e-5
-1.335, 1.643e-5
-1.334, 1.601e-5
-1.333, 1.572e-5
-1.332, 1.537e-5
-1.331, 1.536e-5
-1.330, 1.511e-5
-1.329, 1.486e-5
-1.328, 1.450e-5
-1.327, 1.423e-5
-1.326, 1.412e-5
-1.325, 1.407e-5
-1.324, 1.376e-5
-1.323, 1.334e-5
-1.322, 1.311e-5
-1.321, 1.268e-5
-1.320, 1.253e-5
-1.319, 1.234e-5
-1.318, 1.223e-5
-1.317, 1.208e-5
-1.316, 1.199e-5
-1.315, 1.177e-5
-1.314, 1.139e-5
-1.313, 1.106e-5
-1.312, 1.086e-5
-1.311, 1.084e-5
-1.310, 1.076e-5
-1.309, 1.045e-5
-1.308, 1.012e-5
-1.307, 9.984e-6
-1.306, 9.860e-6
-1.305, 9.864e-6
-1.304, 9.560e-6
-1.303, 9.302e-6
-1.302, 9.112e-6
-1.301, 9.138e-6
-1.300, 9.144e-6
-1.299, 8.933e-6
-1.298, 8.579e-6
-1.297, 8.423e-6
-1.296, 8.343e-6
-1.295, 8.323e-6
-1.294, 8.019e-6
-1.293, 7.716e-6
-1.292, 7.574e-6
-1.291, 7.521e-6
-1.290, 7.466e-6
-1.289, 7.194e-6
-1.288, 6.919e-6
-1.287, 6.792e-6
-1.286, 6.757e-6
-1.285, 6.709e-6
-1.284, 6.329e-6
-1.283, 6.123e-6
-1.282, 6.018e-6
-1.281, 6.008e-6
-1.280, 5.907e-6
-1.279, 5.715e-6
-1.278, 5.454e-6
-1.277, 5.339e-6
-1.276, 5.367e-6
-1.275, 5.234e-6
-1.274, 5.097e-6
-1.273, 4.750e-6
-1.272, 4.676e-6
-1.271, 4.733e-6
-1.270, 4.696e-6
-1.269, 4.448e-6
-1.268, 4.225e-6
-1.267, 4.105e-6
-1.266, 4.144e-6
-1.265, 4.052e-6
-1.264, 3.894e-6
-1.263, 3.588e-6
-1.262, 3.548e-6
-1.261, 3.610e-6
-1.260, 3.564e-6
-1.259, 3.360e-6
-1.258, 3.112e-6
-1.257, 3.045e-6
-1.256, 3.074e-6
-1.255, 3.065e-6
-1.254, 2.827e-6
-1.253, 2.636e-6
-1.252, 2.529e-6
-1.251, 2.603e-6
-1.250, 2.555e-6
-1.249, 2.440e-6
-1.248, 2.180e-6
-1.247, 2.126e-6
-1.246, 2.136e-6
-1.245, 2.122e-6
-1.244, 1.960e-6
-1.243, 1.821e-6
-1.242, 1.746e-6
-1.241, 1.828e-6
-1.240, 1.745e-6
-1.239, 1.638e-6
-1.238, 1.350e-6
-1.237, 1.392e-6
-1.236, 1.435e-6
-1.235, 1.419e-6
-1.234, 1.187e-6
-1.233, 1.022e-6
-1.232, 9.371e-7
-1.231, 1.043e-6
-1.230, 1.063e-6
-1.229, 8.591e-7
-1.228, 6.825e-7
-1.227, 5.691e-7
-1.226, 7.240e-7
-1.225, 6.332e-7
-1.224, 5.503e-7
-1.223, 3.145e-7
-1.222, 3.333e-7
-1.221, 3.422e-7
-1.220, 4.398e-7
-1.219, 1.912e-7
-1.218, 5.209e-8
-1.217, 3.749e-9
-1.216, 9.945e-8
-1.215, 3.631e-8
-1.214, -6.531e-8
-1.213, -2.764e-7
-1.212, -1.965e-7
-1.211, -1.719e-7
-1.210, -1.067e-7
-1.209, -3.337e-7
-1.208, -4.580e-7
-1.207, -5.034e-7
-1.206, -4.027e-7
-1.205, -3.583e-7
-1.204, -5.557e-7
-1.203, -7.224e-7
-1.202, -7.332e-7
-1.201, -4.609e-7
-1.200, -5.704e-7
-1.199, -7.342e-7
-1.198, -9.375e-7
-1.197, -9.138e-7
-1.196, -8.408e-7
-1.195, -7.510e-7
-1.194, -9.523e-7
-1.193, -1.097e-6
-1.192, -1.101e-6
-1.191, -9.680e-7
-1.190, -9.888e-7
-1.189, -1.184e-6
-1.188, -1.316e-6
-1.187, -1.269e-6
-1.186, -1.211e-6
-1.185, -1.136e-6
-1.184, -1.420e-6
-1.183, -1.457e-6
-1.182, -1.468e-6
-1.181, -1.308e-6
-1.180, -1.350e-6
-1.179, -1.473e-6
-1.178, -1.655e-6
-1.177, -1.545e-6
-1.176, -1.498e-6
-1.175, -1.438e-6
-1.174, -1.671e-6
-1.173, -1.758e-6
-1.172, -1.751e-6
-1.171, -1.650e-6
-1.170, -1.624e-6
-1.169, -1.752e-6
-1.168, -1.919e-6
-1.167, -1.838e-6
-1.166, -1.714e-6
-1.165, -1.729e-6
-1.164, -1.910e-6
-1.163, -1.998e-6
-1.162, -1.911e-6
-1.161, -1.806e-6
-1.160, -1.802e-6
-1.159, -1.944e-6
-1.158, -2.062e-6
-1.157, -2.022e-6
-1.156, -1.887e-6
-1.155, -1.892e-6
-1.154, -2.049e-6
-1.153, -2.153e-6
-1.152, -2.112e-6
-1.151, -1.992e-6
-1.150, -2.014e-6
-1.149, -2.125e-6
-1.148, -2.232e-6
-1.147, -2.171e-6
-1.146, -2.009e-6
-1.145, -2.088e-6
-1.144, -2.192e-6
-1.143, -2.294e-6
-1.142, -2.256e-6
-1.141, -2.109e-6
-1.140, -2.128e-6
-1.139, -2.300e-6
-1.138, -2.425e-6
-1.137, -2.340e-6
-1.136, -2.212e-6
-1.135, -2.266e-6
-1.134, -2.334e-6
-1.133, -2.526e-6
-1.132, -2.367e-6
-1.131, -2.373e-6
-1.130, -2.303e-6
-1.129, -2.483e-6
-1.128, -2.528e-6
-1.127, -2.537e-6
-1.126, -2.342e-6
-1.125, -2.412e-6
-1.124, -2.440e-6
-1.123, -2.656e-6
-1.122, -2.494e-6
-1.121, -2.394e-6
-1.120, -2.426e-6
-1.119, -2.527e-6
-1.118, -2.598e-6
-1.117, -2.603e-6
-1.116, -2.392e-6
-1.115, -2.520e-6
-1.114, -2.560e-6
-1.113, -2.751e-6
-1.112, -2.584e-6
-1.111, -2.512e-6
-1.110, -2.544e-6
-1.109, -2.627e-6
-1.108, -2.732e-6
-1.107, -2.730e-6
-1.106, -2.541e-6
-1.105, -2.621e-6
-1.104, -2.694e-6
-1.103, -2.814e-6
-1.102, -2.716e-6
-1.101, -2.617e-6
-1.100, -2.613e-6
-1.099, -2.754e-6
-1.098, -2.820e-6
-1.097, -2.785e-6
-1.096, -2.625e-6
-1.095, -2.683e-6
-1.094, -2.787e-6
-1.093, -2.908e-6
-1.092, -2.793e-6
-1.091, -2.693e-6
-1.090, -2.704e-6
-1.089, -2.860e-6
-1.088, -2.937e-6
-1.087, -2.875e-6
-1.086, -2.724e-6
-1.085, -2.743e-6
-1.084, -2.924e-6
-1.083, -2.968e-6
-1.082, -2.915e-6
-1.081, -2.788e-6
-1.080, -2.823e-6
-1.079, -2.953e-6
-1.078, -3.064e-6
-1.077, -2.916e-6
-1.076, -2.885e-6
-1.075, -2.885e-6
-1.074, -3.093e-6
-1.073, -3.053e-6
-1.072, -3.037e-6
-1.071, -2.869e-6
-1.070, -2.944e-6
-1.069, -3.078e-6
-1.068, -3.144e-6
-1.067, -3.014e-6
-1.066, -2.910e-6
-1.065, -3.019e-6
-1.064, -3.120e-6
-1.063, -3.213e-6
-1.062, -3.094e-6
-1.061, -3.005e-6
-1.060, -3.035e-6
-1.059, -3.233e-6
-1.058, -3.211e-6
-1.057, -3.227e-6
-1.056, -3.058e-6
-1.055, -3.176e-6
-1.054, -3.263e-6
-1.053, -3.375e-6
-1.052, -3.211e-6
-1.051, -3.182e-6
-1.050, -3.185e-6
-1.049, -3.377e-6
-1.048, -3.432e-6
-1.047, -3.437e-6
-1.046, -3.218e-6
-1.045, -3.313e-6
-1.044, -3.451e-6
-1.043, -3.591e-6
-1.042, -3.452e-6
-1.041, -3.371e-6
-1.040, -3.408e-6
-1.039, -3.554e-6
-1.038, -3.637e-6
-1.037, -3.534e-6
-1.036, -3.437e-6
-1.035, -3.510e-6
-1.034, -3.703e-6
-1.033, -3.784e-6
-1.032, -3.684e-6
-1.031, -3.537e-6
-1.030, -3.630e-6
-1.029, -3.716e-6
-1.028, -3.895e-6
-1.027, -3.697e-6
-1.026, -3.673e-6
-1.025, -3.711e-6
-1.024, -3.877e-6
-1.023, -3.955e-6
-1.022, -3.905e-6
-1.021, -3.720e-6
-1.020, -3.892e-6
-1.019, -4.011e-6
-1.018, -4.085e-6
-1.017, -3.951e-6
-1.016, -3.896e-6
-1.015, -3.943e-6
-1.014, -4.123e-6
-1.013, -4.208e-6
-1.012, -4.081e-6
-1.011, -4.008e-6
-1.010, -4.090e-6
-1.009, -4.300e-6
-1.008, -4.373e-6
-1.007, -4.252e-6
-1.006, -4.101e-6
-1.005, -4.238e-6
-1.004, -4.385e-6
-1.003, -4.516e-6
-1.002, -4.363e-6
-1.001, -4.332e-6
-1.000, -2.777e-6
-1.001, -2.175e-6
-1.002, -1.837e-6
-1.003, -1.513e-6
-1.004, -1.140e-6
-1.005, -1.066e-6
-1.006, -9.700e-7
-1.007, -9.019e-7
-1.008, -5.211e-7
-1.009, -3.554e-7
-1.010, -2.498e-7
-1.011, -3.514e-7
-1.012, -1.659e-7
-1.013, -2.684e-8
-1.014, 2.356e-7
-1.015, 2.040e-7
-1.016, 2.060e-7
-1.017, 2.751e-7
-1.018, 5.207e-7
-1.019, 6.194e-7
-1.020, 6.884e-7
-1.021, 5.661e-7
-1.022, 6.707e-7
-1.023, 8.374e-7
-1.024, 1.074e-6
-1.025, 9.992e-7
-1.026, 9.795e-7
-1.027, 9.459e-7
-1.028, 1.180e-6
-1.029, 1.308e-6
-1.030, 1.342e-6
-1.031, 1.221e-6
-1.032, 1.273e-6
-1.033, 1.438e-6
-1.034, 1.614e-6
-1.035, 1.502e-6
-1.036, 1.467e-6
-1.037, 1.470e-6
-1.038, 1.711e-6
-1.039, 1.788e-6
-1.040, 1.784e-6
-1.041, 1.655e-6
-1.042, 1.697e-6
-1.043, 1.855e-6
-1.044, 1.996e-6
-1.045, 1.947e-6
-1.046, 1.825e-6
-1.047, 1.923e-6
-1.048, 2.031e-6
-1.049, 2.172e-6
-1.050, 2.053e-6
-1.051, 1.995e-6
-1.052, 2.022e-6
-1.053, 2.223e-6
-1.054, 2.313e-6
-1.055, 2.271e-6
-1.056, 2.151e-6
-1.057, 2.208e-6
-1.058, 2.357e-6
-1.059, 2.473e-6
-1.060, 2.362e-6
-1.061, 2.290e-6
-1.062, 2.307e-6
-1.063, 2.483e-6
-1.064, 2.525e-6
-1.065, 2.558e-6
-1.066, 2.319e-6
-1.067, 2.432e-6
-1.068, 2.523e-6
-1.069, 2.680e-6
-1.070, 2.557e-6
-1.071, 2.493e-6
-1.072, 2.488e-6
-1.073, 2.633e-6
-1.074, 2.712e-6
-1.075, 2.738e-6
-1.076, 2.559e-6
-1.077, 2.601e-6
-1.078, 2.709e-6
-1.079, 2.854e-6
-1.080, 2.745e-6
-1.081, 2.618e-6
-1.082, 2.649e-6
-1.083, 2.819e-6
-1.084, 2.858e-6
-1.085, 2.778e-6
-1.086, 2.666e-6
-1.087, 2.661e-6
-1.088, 2.832e-6
-1.089, 2.910e-6
-1.090, 2.832e-6
-1.091, 2.713e-6
-1.092, 2.763e-6
-1.093, 2.918e-6
-1.094, 2.968e-6
-1.095, 2.850e-6
-1.096, 2.745e-6
-1.097, 2.746e-6
-1.098, 2.957e-6
-1.099, 2.972e-6
-1.100, 2.961e-6
-1.101, 2.778e-6
-1.102, 2.847e-6
-1.103, 2.954e-6
-1.104, 3.079e-6
-1.105, 2.914e-6
-1.106, 2.854e-6
-1.107, 2.850e-6
-1.108, 3.031e-6
-1.109, 3.025e-6
-1.110, 3.029e-6
-1.111, 2.838e-6
-1.112, 2.933e-6
-1.113, 3.049e-6
-1.114, 3.189e-6
-1.115, 2.973e-6
-1.116, 2.936e-6
-1.117, 2.937e-6
-1.118, 3.130e-6
-1.119, 3.162e-6
-1.120, 3.106e-6
-1.121, 2.908e-6
-1.122, 3.029e-6
-1.123, 3.101e-6
-1.124, 3.229e-6
-1.125, 3.137e-6
-1.126, 3.009e-6
-1.127, 3.066e-6
-1.128, 3.196e-6
-1.129, 3.271e-6
-1.130, 3.187e-6
-1.131, 3.084e-6
-1.132, 3.106e-6
-1.133, 3.293e-6
-1.134, 3.360e-6
-1.135, 3.250e-6
-1.136, 3.114e-6
-1.137, 3.177e-6
-1.138, 3.266e-6
-1.139, 3.439e-6
-1.140, 3.264e-6
-1.141, 3.187e-6
-1.142, 3.223e-6
-1.143, 3.414e-6
-1.144, 3.431e-6
-1.145, 3.373e-6
-1.146, 3.189e-6
-1.147, 3.343e-6
-1.148, 3.431e-6
-1.149, 3.572e-6
-1.150, 3.370e-6
-1.151, 3.348e-6
-1.152, 3.356e-6
-1.153, 3.519e-6
-1.154, 3.584e-6
-1.155, 3.485e-6
-1.156, 3.346e-6
-1.157, 3.481e-6
-1.158, 3.565e-6
-1.159, 3.684e-6
-1.160, 3.546e-6
-1.161, 3.491e-6
-1.162, 3.533e-6
-1.163, 3.691e-6
-1.164, 3.782e-6
-1.165, 3.619e-6
-1.166, 3.590e-6
-1.167, 3.654e-6
-1.168, 3.765e-6
-1.169, 3.855e-6
-1.170, 3.750e-6
-1.171, 3.658e-6
-1.172, 3.762e-6
-1.173, 3.849e-6
-1.174, 3.951e-6
-1.175, 3.791e-6
-1.176, 3.760e-6
-1.177, 3.803e-6
-1.178, 4.044e-6
-1.179, 4.011e-6
-1.180, 3.955e-6
-1.181, 3.882e-6
-1.182, 4.027e-6
-1.183, 4.138e-6
-1.184, 4.265e-6
-1.185, 4.031e-6
-1.186, 4.115e-6
-1.187, 4.092e-6
-1.188, 4.317e-6
-1.189, 4.270e-6
-1.190, 4.253e-6
-1.191, 4.175e-6
-1.192, 4.301e-6
-1.193, 4.434e-6
-1.194, 4.499e-6
-1.195, 4.383e-6
-1.196, 4.344e-6
-1.197, 4.394e-6
-1.198, 4.611e-6
-1.199, 4.632e-6
-1.200, 4.625e-6
-1.201, 4.496e-6
-1.202, 4.656e-6
-1.203, 4.780e-6
-1.204, 4.891e-6
-1.205, 4.788e-6
-1.206, 4.775e-6
-1.207, 4.805e-6
-1.208, 5.021e-6
-1.209, 5.045e-6
-1.210, 4.961e-6
-1.211, 4.881e-6
-1.212, 5.074e-6
-1.213, 5.198e-6
-1.214, 5.260e-6
-1.215, 5.181e-6
-1.216, 5.190e-6
-1.217, 5.233e-6
-1.218, 5.478e-6
-1.219, 5.494e-6
-1.220, 5.457e-6
-1.221, 5.418e-6
-1.222, 5.605e-6
-1.223, 5.710e-6
-1.224, 5.762e-6
-1.225, 5.707e-6
-1.226, 5.705e-6
-1.227, 5.814e-6
-1.228, 6.053e-6
-1.229, 6.118e-6
-1.230, 6.006e-6
-1.231, 6.002e-6
-1.232, 6.089e-6
-1.233, 6.343e-6
-1.234, 6.311e-6
-1.235, 6.341e-6
-1.236, 6.257e-6
-1.237, 6.515e-6
-1.238, 6.644e-6
-1.239, 6.726e-6
-1.240, 6.652e-6
-1.241, 6.676e-6
-1.242, 6.745e-6
-1.243, 7.008e-6
-1.244, 7.048e-6
-1.245, 7.042e-6
-1.246, 6.985e-6
-1.247, 7.199e-6
-1.248, 7.349e-6
-1.249, 7.440e-6
-1.250, 7.442e-6
-1.251, 7.462e-6
-1.252, 7.587e-6
-1.253, 7.804e-6
-1.254, 7.916e-6
-1.255, 7.891e-6
-1.256, 7.841e-6
-1.257, 8.114e-6
-1.258, 8.333e-6
-1.259, 8.374e-6
-1.260, 8.332e-6
-1.261, 8.411e-6
-1.262, 8.547e-6
-1.263, 8.807e-6
-1.264, 8.911e-6
-1.265, 8.838e-6
-1.266, 8.884e-6
-1.267, 9.080e-6
-1.268, 9.347e-6
-1.269, 9.346e-6
-1.270, 9.491e-6
-1.271, 9.435e-6
-1.272, 9.694e-6
-1.273, 9.903e-6
-1.274, 1.006e-5
-1.275, 9.985e-6
-1.276, 1.009e-5
-1.277, 1.030e-5
-1.278, 1.056e-5
-1.279, 1.063e-5
-1.280, 1.068e-5
-1.281, 1.066e-5
-1.282, 1.099e-5
-1.283, 1.117e-5
-1.284, 1.134e-5
-1.285, 1.126e-5
-1.286, 1.138e-5
-1.287, 1.159e-5
-1.288, 1.190e-5
-1.289, 1.199e-5
-1.290, 1.200e-5
-1.291, 1.208e-5
-1.292, 1.237e-5
-1.293, 1.260e-5
-1.294, 1.279e-5
-1.295, 1.278e-5
-1.296, 1.290e-5
-1.297, 1.311e-5
-1.298, 1.345e-5
-1.299, 1.353e-5
-1.300, 1.357e-5
-1.301, 1.368e-5
-1.302, 1.390e-5
-1.303, 1.424e-5
-1.304, 1.437e-5
-1.305, 1.441e-5
-1.306, 1.455e-5
-1.307, 1.486e-5
-1.308, 1.512e-5
-1.309, 1.531e-5
-1.310, 1.539e-5
-1.311, 1.549e-5
-1.312, 1.584e-5
-1.313, 1.613e-5
-1.314, 1.623e-5
-1.315, 1.632e-5
-1.316, 1.644e-5
-1.317, 1.679e-5
-1.318, 1.705e-5
-1.319, 1.731e-5
-1.320, 1.733e-5
-1.321, 1.749e-5
-1.322, 1.779e-5
-1.323, 1.812e-5
-1.324, 1.825e-5
-1.325, 1.845e-5
-1.326, 1.852e-5
-1.327, 1.899e-5
-1.328, 1.920e-5
-1.329, 1.943e-5
-1.330, 1.962e-5
-1.331, 1.983e-5
-1.332, 2.004e-5
-1.333, 2.047e-5
-1.334, 2.065e-5
-1.335, 2.084e-5
-1.336, 2.097e-5
-1.337, 2.148e-5
-1.338, 2.173e-5
-1.339, 2.192e-5
-1.340, 2.212e-5
-1.341, 2.228e-5
-1.342, 2.269e-5
-1.343, 2.310e-5
-1.344, 2.334e-5
-1.345, 2.346e-5
-1.346, 2.363e-5
-1.347, 2.405e-5
-1.348, 2.460e-5
-1.349, 2.473e-5
-1.350, 2.475e-5
-1.351, 2.507e-5
-1.352, 2.552e-5
-1.353, 2.595e-5
-1.354, 2.622e-5
-1.355, 2.641e-5
-1.356, 2.661e-5
-1.357, 2.703e-5
-1.358, 2.749e-5
-1.359, 2.778e-5
-1.360, 2.802e-5
-1.361, 2.820e-5
-1.362, 2.865e-5
-1.363, 2.908e-5
-1.364, 2.940e-5
-1.365, 2.959e-5
-1.366, 2.993e-5
-1.367, 3.040e-5
-1.368, 3.093e-5
-1.369, 3.104e-5
-1.370, 3.131e-5
-1.371, 3.168e-5
-1.372, 3.225e-5
-1.373, 3.266e-5
-1.374, 3.302e-5
-1.375, 3.321e-5
-1.376, 3.365e-5
-1.377, 3.406e-5
-1.378, 3.473e-5
-1.379, 3.486e-5
-1.380, 3.518e-5
-1.381, 3.553e-5
-1.382, 3.610e-5
-1.383, 3.670e-5
-1.384, 3.712e-5
-1.385, 3.735e-5
-1.386, 3.799e-5
-1.387, 3.817e-5
-1.388, 3.882e-5
-1.389, 3.918e-5
-1.390, 3.942e-5
-1.391, 3.990e-5
-1.392, 4.054e-5
-1.393, 4.112e-5
-1.394, 4.154e-5
-1.395, 4.184e-5
-1.396, 4.262e-5
-1.397, 4.268e-5
-1.398, 4.339e-5
-1.399, 4.377e-5
-1.400, 4.426e-5
-1.401, 4.471e-5
-1.402, 4.544e-5
-1.403, 4.613e-5
-1.404, 4.650e-5
-1.405, 4.681e-5
-1.406, 4.745e-5
-1.407, 4.814e-5
-1.408, 4.881e-5
-1.409, 4.928e-5
-1.410, 4.973e-5
-1.411, 5.029e-5
-1.412, 5.108e-5
-1.413, 5.166e-5
-1.414, 5.251e-5
-1.415, 5.280e-5
-1.416, 5.313e-5
-1.417, 5.391e-5
-1.418, 5.468e-5
-1.419, 5.518e-5
-1.420, 5.574e-5
-1.421, 5.644e-5
-1.422, 5.746e-5
-1.423, 5.814e-5
-1.424, 5.882e-5
-1.425, 5.931e-5
-1.426, 6.001e-5
-1.427, 6.073e-5
-1.428, 6.160e-5
-1.429, 6.217e-5
-1.430, 6.276e-5
-1.431, 6.339e-5
-1.432, 6.442e-5
-1.433, 6.548e-5
-1.434, 6.571e-5
-1.435, 6.646e-5
-1.436, 6.736e-5
-1.437, 6.814e-5
-1.438, 6.909e-5
-1.439, 6.991e-5
-1.440, 7.052e-5
-1.441, 7.116e-5
-1.442, 7.221e-5
-1.443, 7.321e-5
-1.444, 7.402e-5
-1.445, 7.459e-5
-1.446, 7.552e-5
-1.447, 7.656e-5
-1.448, 7.750e-5
-1.449, 7.826e-5
-1.450, 7.906e-5
-1.451, 7.995e-5
-1.452, 8.107e-5
-1.453, 8.213e-5
-1.454, 8.298e-5
-1.455, 8.361e-5
-1.456, 8.449e-5
-1.457, 8.595e-5
-1.458, 8.667e-5
-1.459, 8.744e-5
-1.460, 8.836e-5
-1.461, 8.928e-5
-1.462, 9.045e-5
-1.463, 9.160e-5
-1.464, 9.260e-5
-1.465, 9.348e-5
-1.466, 9.453e-5
-1.467, 9.588e-5
-1.468, 9.697e-5
-1.469, 9.803e-5
-1.470, 9.896e-5
-1.471, 1.002e-4
-1.472, 1.014e-4
-1.473, 1.027e-4
-1.474, 1.035e-4
-1.475, 1.047e-4
-1.476, 1.058e-4
-1.477, 1.068e-4
-1.478, 1.083e-4
-1.479, 1.093e-4
-1.480, 1.103e-4
-1.481, 1.115e-4
-1.482, 1.130e-4
-1.483, 1.144e-4
-1.484, 1.157e-4
-1.485, 1.169e-4
-1.486, 1.181e-4
-1.487, 1.197e-4
-1.488, 1.210e-4
-1.489, 1.223e-4
-1.490, 1.233e-4
-1.491, 1.248e-4
-1.492, 1.260e-4
-1.493, 1.277e-4
-1.494, 1.292e-4
-1.495, 1.298e-4
-1.496, 1.313e-4
-1.497, 1.331e-4
-1.498, 1.346e-4
-1.499, 1.360e-4
-1.500, 1.372e-4
-1.501, 1.389e-4
-1.502, 1.405e-4
-1.503, 1.423e-4
-1.504, 1.437e-4
-1.505, 1.455e-4
-1.506, 1.471e-4
-1.507, 1.487e-4
-1.508, 1.502e-4
-1.509, 1.520e-4
-1.510, 1.540e-4
-1.511, 1.545e-4
-1.512, 1.565e-4
-1.513, 1.584e-4
-1.514, 1.600e-4
-1.515, 1.616e-4
-1.516, 1.634e-4
-1.517, 1.654e-4
-1.518, 1.673e-4
-1.519, 1.691e-4
-1.520, 1.710e-4
-1.521, 1.731e-4
-1.522, 1.752e-4
-1.523, 1.773e-4
-1.524, 1.794e-4
-1.525, 1.812e-4
-1.526, 1.833e-4
-1.527, 1.852e-4
-1.528, 1.877e-4
-1.529, 1.891e-4
-1.530, 1.912e-4
-1.531, 1.932e-4
-1.532, 1.955e-4
-1.533, 1.978e-4
-1.534, 1.999e-4
-1.535, 2.024e-4
-1.536, 2.047e-4
-1.537, 2.073e-4
-1.538, 2.098e-4
-1.539, 2.120e-4
-1.540, 2.147e-4
-1.541, 2.171e-4
-1.542, 2.198e-4
-1.543, 2.222e-4
-1.544, 2.244e-4
-1.545, 2.265e-4
-1.546, 2.300e-4
-1.547, 2.317e-4
-1.548, 2.345e-4
-1.549, 2.372e-4
-1.550, 2.399e-4
-1.551, 2.429e-4
-1.552, 2.461e-4
-1.553, 2.494e-4
-1.554, 2.519e-4
-1.555, 2.548e-4
-1.556, 2.582e-4
-1.557, 2.617e-4
-1.558, 2.650e-4
-1.559, 2.683e-4
-1.560, 2.715e-4
-1.561, 2.746e-4
-1.562, 2.783e-4
-1.563, 2.815e-4
-1.564, 2.849e-4
-1.565, 2.875e-4
-1.566, 2.911e-4
-1.567, 2.952e-4
-1.568, 2.992e-4
-1.569, 3.031e-4
-1.570, 3.068e-4
-1.571, 3.109e-4
-1.572, 3.153e-4
-1.573, 3.193e-4
-1.574, 3.235e-4
-1.575, 3.279e-4
-1.576, 3.320e-4
-1.577, 3.369e-4
-1.578, 3.416e-4
-1.579, 3.455e-4
-1.580, 3.499e-4
-1.581, 3.540e-4
-1.582, 3.589e-4
-1.583, 3.636e-4
-1.584, 3.676e-4
-1.585, 3.723e-4
-1.586, 3.776e-4
-1.587, 3.837e-4
-1.588, 3.899e-4
-1.589, 3.957e-4
-1.590, 4.021e-4
-1.591, 4.074e-4
-1.592, 4.139e-4
-1.593, 4.203e-4
-1.594, 4.264e-4
-1.595, 4.329e-4
-1.596, 4.396e-4
-1.597, 4.455e-4
-1.598, 4.525e-4
-1.599, 4.595e-4
-1.600, 4.660e-4
-1.601, 4.752e-4
-1.602, 4.807e-4
-1.603, 4.874e-4
-1.604, 4.949e-4
-1.605, 5.020e-4
-1.606, 5.118e-4
-1.607, 5.208e-4
-1.608, 5.301e-4
-1.609, 5.383e-4
-1.610, 5.476e-4
-1.611, 5.572e-4
-1.612, 5.675e-4
-1.613, 5.780e-4
-1.614, 5.882e-4
-1.615, 5.977e-4
-1.616, 6.080e-4
-1.617, 6.200e-4
-1.618, 6.311e-4
-1.619, 6.434e-4
-1.620, 6.543e-4
-1.621, 6.638e-4
-1.622, 6.761e-4
-1.623, 6.889e-4
-1.624, 7.032e-4
-1.625, 7.167e-4
-1.626, 7.308e-4
-1.627, 7.455e-4
-1.628, 7.599e-4
-1.629, 7.753e-4
-1.630, 7.909e-4
-1.631, 8.072e-4
-1.632, 8.240e-4
-1.633, 8.399e-4
-1.634, 8.559e-4
-1.635, 8.745e-4
-1.636, 8.916e-4
-1.637, 9.111e-4
-1.638, 9.293e-4
-1.639, 9.464e-4
-1.640, 9.662e-4
-1.641, 9.864e-4
-1.642, 1.009e-3
-1.643, 1.032e-3
-1.644, 1.055e-3
-1.645, 1.078e-3
-1.646, 1.101e-3
-1.647, 1.126e-3
-1.648, 1.152e-3
-1.649, 1.178e-3
-1.650, 1.205e-3
-1.651, 1.232e-3
-1.652, 1.259e-3
-1.653, 1.290e-3
-1.654, 1.320e-3
-1.655, 1.348e-3
-1.656, 1.379e-3
-1.657, 1.410e-3
-1.658, 1.444e-3
-1.659, 1.478e-3
-1.660, 1.514e-3
-1.661, 1.552e-3
-1.662, 1.589e-3
-1.663, 1.628e-3
-1.664, 1.668e-3
-1.665, 1.707e-3
-1.666, 1.750e-3
-1.667, 1.794e-3
-1.668, 1.838e-3
-1.669, 1.883e-3
-1.670, 1.926e-3
-1.671, 1.974e-3
-1.672, 2.022e-3
-1.673, 2.070e-3
-1.674, 2.115e-3
-1.675, 2.163e-3
-1.676, 2.216e-3
-1.677, 2.269e-3
-1.678, 2.325e-3
-1.679, 2.385e-3
-1.680, 2.444e-3
-1.681, 2.502e-3
-1.682, 2.560e-3
-1.683, 2.621e-3
-1.684, 2.683e-3
-1.685, 2.748e-3
-1.686, 2.812e-3
-1.687, 2.879e-3
-1.688, 2.947e-3
-1.689, 3.015e-3
-1.690, 3.085e-3
-1.691, 3.151e-3
-1.692, 3.221e-3
-1.693, 3.297e-3
-1.694, 3.372e-3
-1.695, 3.445e-3
-1.696, 3.520e-3
-1.697, 3.603e-3
-1.698, 3.686e-3
-1.699, 3.768e-3
-1.700, 3.815e-3
-1.699, 3.802e-3
-1.698, 3.787e-3
-1.697, 3.770e-3
-1.696, 3.745e-3
-1.695, 3.717e-3
-1.694, 3.683e-3
-1.693, 3.655e-3
-1.692, 3.623e-3
-1.691, 3.583e-3
-1.690, 3.548e-3
-1.689, 3.517e-3
-1.688, 3.482e-3
-1.687, 3.443e-3
-1.686, 3.404e-3
-1.685, 3.366e-3
-1.684, 3.329e-3
-1.683, 3.294e-3
-1.682, 3.257e-3
-1.681, 3.217e-3
-1.680, 3.181e-3
-1.679, 3.145e-3
-1.678, 3.109e-3
-1.677, 3.070e-3
-1.676, 3.029e-3
-1.675, 2.990e-3
-1.674, 2.951e-3
-1.673, 2.912e-3
-1.672, 2.874e-3
-1.671, 2.837e-3
-1.670, 2.795e-3
-1.669, 2.753e-3
-1.668, 2.715e-3
-1.667, 2.678e-3
-1.666, 2.641e-3
-1.665, 2.602e-3
-1.664, 2.565e-3
-1.663, 2.529e-3
-1.662, 2.494e-3
-1.661, 2.457e-3
-1.660, 2.421e-3
-1.659, 2.386e-3
-1.658, 2.350e-3
-1.657, 2.314e-3
-1.656, 2.279e-3
-1.655, 2.242e-3
-1.654, 2.205e-3
-1.653, 2.171e-3
-1.652, 2.134e-3
-1.651, 2.096e-3
-1.650, 2.062e-3
-1.649, 2.031e-3
-1.648, 1.999e-3
-1.647, 1.967e-3
-1.646, 1.934e-3
-1.645, 1.900e-3
-1.644, 1.868e-3
-1.643, 1.837e-3
-1.642, 1.805e-3
-1.641, 1.772e-3
-1.640, 1.738e-3
-1.639, 1.706e-3
-1.638, 1.677e-3
-1.637, 1.648e-3
-1.636, 1.621e-3
-1.635, 1.590e-3
-1.634, 1.559e-3
-1.633, 1.529e-3
-1.632, 1.499e-3
-1.631, 1.471e-3
-1.630, 1.444e-3
-1.629, 1.418e-3
-1.628, 1.392e-3
-1.627, 1.366e-3
-1.626, 1.340e-3
-1.625, 1.314e-3
-1.624, 1.290e-3
-1.623, 1.266e-3
-1.622, 1.236e-3
-1.621, 1.207e-3
-1.620, 1.183e-3
-1.619, 1.160e-3
-1.618, 1.138e-3
-1.617, 1.115e-3
-1.616, 1.092e-3
-1.615, 1.070e-3
-1.614, 1.049e-3
-1.613, 1.029e-3
-1.612, 1.010e-3
-1.611, 9.903e-4
-1.610, 9.697e-4
-1.609, 9.492e-4
-1.608, 9.309e-4
-1.607, 9.122e-4
-1.606, 8.936e-4
-1.605, 8.758e-4
-1.604, 8.581e-4
-1.603, 8.395e-4
-1.602, 8.203e-4
-1.601, 8.021e-4
-1.600, 7.851e-4
-1.599, 7.687e-4
-1.598, 7.540e-4
-1.597, 7.381e-4
-1.596, 7.227e-4
-1.595, 7.069e-4
-1.594, 6.932e-4
-1.593, 6.802e-4
-1.592, 6.671e-4
-1.591, 6.533e-4
-1.590, 6.392e-4
-1.589, 6.259e-4
-1.588, 6.126e-4
-1.587, 5.998e-4
-1.586, 5.870e-4
-1.585, 5.738e-4
-1.584, 5.615e-4
-1.583, 5.576e-4
-1.582, 5.465e-4
-1.581, 5.360e-4
-1.580, 5.205e-4
-1.579, 5.074e-4
-1.578, 4.970e-4
-1.577, 4.868e-4
-1.576, 4.773e-4
-1.575, 4.681e-4
-1.574, 4.599e-4
-1.573, 4.498e-4
-1.572, 4.406e-4
-1.571, 4.316e-4
-1.570, 4.231e-4
-1.569, 4.151e-4
-1.568, 4.072e-4
-1.567, 3.988e-4
-1.566, 3.918e-4
-1.565, 3.844e-4
-1.564, 3.759e-4
-1.563, 3.691e-4
-1.562, 3.613e-4
-1.561, 3.540e-4
-1.560, 3.462e-4
-1.559, 3.391e-4
-1.558, 3.328e-4
-1.557, 3.264e-4
-1.556, 3.202e-4
-1.555, 3.141e-4
-1.554, 3.084e-4
-1.553, 3.027e-4
-1.552, 2.970e-4
-1.551, 2.911e-4
-1.550, 2.864e-4
-1.549, 2.809e-4
-1.548, 2.754e-4
-1.547, 2.701e-4
-1.546, 2.652e-4
-1.545, 2.604e-4
-1.544, 2.559e-4
-1.543, 2.510e-4
-1.542, 2.460e-4
-1.541, 2.412e-4
-1.540, 2.366e-4
-1.539, 2.328e-4
-1.538, 2.289e-4
-1.537, 2.242e-4
-1.536, 2.204e-4
-1.535, 2.163e-4
-1.534, 2.126e-4
-1.533, 2.089e-4
-1.532, 2.048e-4
-1.531, 2.007e-4
-1.530, 1.971e-4
-1.529, 1.940e-4
-1.528, 1.909e-4
-1.527, 1.874e-4
-1.526, 1.841e-4
-1.525, 1.810e-4
-1.524, 1.782e-4
-1.523, 1.750e-4
-1.522, 1.720e-4
-1.521, 1.690e-4
-1.520, 1.664e-4
-1.519, 1.640e-4
-1.518, 1.614e-4
-1.517, 1.587e-4
-1.516, 1.560e-4
-1.515, 1.533e-4
-1.514, 1.509e-4
-1.513, 1.487e-4
-1.512, 1.460e-4
-1.511, 1.434e-4
-1.510, 1.414e-4
-1.509, 1.395e-4
-1.508, 1.372e-4
-1.507, 1.350e-4
-1.506, 1.327e-4
-1.505, 1.306e-4
-1.504, 1.289e-4
-1.503, 1.267e-4
-1.502, 1.250e-4
-1.501, 1.229e-4
-1.500, 1.208e-4
-1.499, 1.197e-4
-1.498, 1.180e-4
-1.497, 1.160e-4
-1.496, 1.142e-4
-1.495, 1.125e-4
-1.494, 1.109e-4
-1.493, 1.093e-4
-1.492, 1.077e-4
-1.491, 1.060e-4
-1.490, 1.044e-4
-1.489, 1.029e-4
-1.488, 1.014e-4
-1.487, 9.984e-5
-1.486, 9.831e-5
-1.485, 9.698e-5
-1.484, 9.628e-5
-1.483, 9.464e-5
-1.482, 9.315e-5
-1.481, 9.181e-5
-1.480, 9.046e-5
-1.479, 8.933e-5
-1.478, 8.809e-5
-1.477, 8.636e-5
-1.476, 8.468e-5
-1.475, 8.360e-5
-1.474, 8.264e-5
-1.473, 8.152e-5
-1.472, 8.025e-5
-1.471, 7.885e-5
-1.470, 7.770e-5
-1.469, 7.681e-5
-1.468, 7.582e-5
-1.467, 7.471e-5
-1.466, 7.351e-5
-1.465, 7.267e-5
-1.464, 7.183e-5
-1.463, 7.086e-5
-1.462, 6.972e-5
-1.461, 6.873e-5
-1.460, 6.782e-5
-1.459, 6.693e-5
-1.458, 6.595e-5
-1.457, 6.500e-5
-1.456, 6.401e-5
-1.455, 6.335e-5
-1.454, 6.259e-5
-1.453, 6.167e-5
-1.452, 6.073e-5
-1.451, 6.000e-5
-1.450, 5.909e-5
-1.449, 5.849e-5
-1.448, 5.777e-5
-1.447, 5.675e-5
-1.446, 5.590e-5
-1.445, 5.519e-5
-1.444, 5.473e-5
-1.443, 5.391e-5
-1.442, 5.306e-5
-1.441, 5.219e-5
-1.440, 5.149e-5
-1.439, 5.097e-5
-1.438, 5.027e-5
-1.437, 4.942e-5
-1.436, 4.868e-5
-1.435, 4.807e-5
-1.434, 4.772e-5
-1.433, 4.705e-5
-1.432, 4.639e-5
-1.431, 4.571e-5
-1.430, 4.525e-5
-1.429, 4.500e-5
-1.428, 4.433e-5
-1.427, 4.358e-5
-1.426, 4.293e-5
-1.425, 4.234e-5
-1.424, 4.217e-5
-1.423, 4.141e-5
-1.422, 4.076e-5
-1.421, 4.004e-5
-1.420, 3.964e-5
-1.419, 3.912e-5
-1.418, 3.867e-5
-1.417, 3.793e-5
-1.416, 3.735e-5
-1.415, 3.694e-5
-1.414, 3.657e-5
-1.413, 3.606e-5
-1.412, 3.539e-5
-1.411, 3.495e-5
-1.410, 3.452e-5
-1.409, 3.413e-5
-1.408, 3.368e-5
-1.407, 3.314e-5
-1.406, 3.257e-5
-1.405, 3.231e-5
-1.404, 3.191e-5
-1.403, 3.152e-5
-1.402, 3.100e-5
-1.401, 3.051e-5
-1.400, 3.024e-5
-1.399, 2.997e-5
-1.398, 2.954e-5
-1.397, 2.903e-5
-1.396, 2.848e-5
-1.395, 2.822e-5
-1.394, 2.787e-5
-1.393, 2.755e-5
-1.392, 2.695e-5
-1.391, 2.661e-5
-1.390, 2.630e-5
-1.389, 2.615e-5
-1.388, 2.564e-5
-1.387, 2.512e-5
-1.386, 2.469e-5
-1.385, 2.454e-5
-1.384, 2.435e-5
-1.383, 2.409e-5
-1.382, 2.361e-5
-1.381, 2.324e-5
-1.380, 2.302e-5
-1.379, 2.287e-5
-1.378, 2.242e-5
-1.377, 2.200e-5
-1.376, 2.157e-5
-1.375, 2.142e-5
-1.374, 2.123e-5
-1.373, 2.096e-5
-1.372, 2.052e-5
-1.371, 2.018e-5
-1.370, 1.998e-5
-1.369, 1.990e-5
-1.368, 1.953e-5
-1.367, 1.919e-5
-1.366, 1.882e-5
-1.365, 1.868e-5
-1.364, 1.852e-5
-1.363, 1.821e-5
-1.362, 1.784e-5
-1.361, 1.750e-5
-1.360, 1.737e-5
-1.359, 1.707e-5
-1.358, 1.691e-5
-1.357, 1.650e-5
-1.356, 1.612e-5
-1.355, 1.600e-5
-1.354, 1.588e-5
-1.353, 1.558e-5
-1.352, 1.533e-5
-1.351, 1.502e-5
-1.350, 1.499e-5
-1.349, 1.488e-5
-1.348, 1.462e-5
-1.347, 1.427e-5
-1.346, 1.404e-5
-1.345, 1.386e-5
-1.344, 1.378e-5
-1.343, 1.351e-5
-1.342, 1.323e-5
-1.341, 1.291e-5
-1.340, 1.292e-5
-1.339, 1.277e-5
-1.338, 1.254e-5
-1.337, 1.214e-5
-1.336, 1.196e-5
-1.335, 1.184e-5
-1.334, 1.177e-5
-1.333, 1.139e-5
-1.332, 1.120e-5
-1.331, 1.092e-5
-1.330, 1.092e-5
-1.329, 1.081e-5
-1.328, 1.059e-5
-1.327, 1.023e-5
-1.326, 1.007e-5
-1.325, 1.002e-5
-1.324, 9.954e-6
-1.323, 9.671e-6
-1.322, 9.383e-6
-1.321, 9.167e-6
-1.320, 9.195e-6
-1.319, 9.073e-6
-1.318, 8.862e-6
-1.317, 8.552e-6
-1.316, 8.439e-6
-1.315, 8.340e-6
-1.314, 8.385e-6
-1.313, 8.101e-6
-1.312, 7.862e-6
-1.311, 7.706e-6
-1.310, 7.690e-6
-1.309, 7.611e-6
-1.308, 7.474e-6
-1.307, 7.146e-6
-1.306, 7.030e-6
-1.305, 6.974e-6
-1.304, 6.994e-6
-1.303, 6.742e-6
-1.302, 6.498e-6
-1.301, 6.366e-6
-1.300, 6.436e-6
-1.299, 6.331e-6
-1.298, 6.160e-6
-1.297, 5.921e-6
-1.296, 5.849e-6
-1.295, 5.782e-6
-1.294, 5.770e-6
-1.293, 5.668e-6
-1.292, 5.370e-6
-1.291, 5.227e-6
-1.290, 5.255e-6
-1.289, 5.192e-6
-1.288, 5.034e-6
-1.287, 4.762e-6
-1.286, 4.624e-6
-1.285, 4.691e-6
-1.284, 4.660e-6
-1.283, 4.494e-6
-1.282, 4.217e-6
-1.281, 4.146e-6
-1.280, 4.125e-6
-1.279, 4.139e-6
-1.278, 3.947e-6
-1.277, 3.736e-6
-1.276, 3.636e-6
-1.275, 3.720e-6
-1.274, 3.648e-6
-1.273, 3.537e-6
-1.272, 3.239e-6
-1.271, 3.227e-6
-1.270, 3.212e-6
-1.269, 3.258e-6
-1.268, 3.026e-6
-1.267, 2.807e-6
-1.266, 2.736e-6
-1.265, 2.780e-6
-1.264, 2.723e-6
-1.263, 2.609e-6
-1.262, 2.405e-6
-1.261, 2.344e-6
-1.260, 2.402e-6
-1.259, 2.385e-6
-1.258, 2.213e-6
-1.257, 1.990e-6
-1.256, 1.950e-6
-1.255, 1.978e-6
-1.254, 2.018e-6
-1.253, 1.799e-6
-1.252, 1.663e-6
-1.251, 1.532e-6
-1.250, 1.654e-6
-1.249, 1.587e-6
-1.248, 1.511e-6
-1.247, 1.278e-6
-1.246, 1.245e-6
-1.245, 1.297e-6
-1.244, 1.333e-6
-1.243, 1.157e-6
-1.242, 1.006e-6
-1.241, 9.144e-7
-1.240, 1.016e-6
-1.239, 9.667e-7
-1.238, 8.641e-7
-1.237, 6.243e-7
-1.236, 6.756e-7
-1.235, 7.003e-7
-1.234, 7.575e-7
-1.233, 5.217e-7
-1.232, 4.171e-7
-1.231, 3.629e-7
-1.230, 4.605e-7
-1.229, 4.122e-7
-1.228, 2.494e-7
-1.227, 7.873e-8
-1.226, 1.350e-7
-1.225, 1.646e-7
-1.224, 1.961e-7
-1.223, 2.644e-8
-1.222, -1.442e-7
-1.221, -1.038e-7
-1.220, -2.486e-8
-1.219, -2.881e-8
-1.218, -1.837e-7
-1.217, -3.110e-7
-1.216, -3.425e-7
-1.215, -2.488e-7
-1.214, -2.636e-7
-1.213, -4.027e-7
-1.212, -5.231e-7
-1.211, -5.300e-7
-1.210, -4.974e-7
-1.209, -4.057e-7
-1.208, -6.385e-7
-1.207, -7.411e-7
-1.206, -7.776e-7
-1.205, -6.879e-7
-1.204, -6.336e-7
-1.203, -8.329e-7
-1.202, -9.197e-7
-1.201, -9.473e-7
-1.200, -7.658e-7
-1.199, -7.934e-7
-1.198, -9.967e-7
-1.197, -1.140e-6
-1.196, -1.049e-6
-1.195, -9.493e-7
-1.194, -9.394e-7
-1.193, -1.141e-6
-1.192, -1.174e-6
-1.191, -1.243e-6
-1.190, -1.108e-6
-1.189, -1.126e-6
-1.188, -1.224e-6
-1.187, -1.386e-6
-1.186, -1.298e-6
-1.185, -1.227e-6
-1.184, -1.201e-6
-1.183, -1.358e-6
-1.182, -1.471e-6
-1.181, -1.447e-6
-1.180, -1.341e-6
-1.179, -1.341e-6
-1.178, -1.484e-6
-1.177, -1.636e-6
-1.176, -1.570e-6
-1.175, -1.510e-6
-1.174, -1.472e-6
-1.173, -1.603e-6
-1.172, -1.738e-6
-1.171, -1.696e-6
-1.170, -1.606e-6
-1.169, -1.574e-6
-1.168, -1.765e-6
-1.167, -1.773e-6
-1.166, -1.796e-6
-1.165, -1.677e-6
-1.164, -1.693e-6
-1.163, -1.783e-6
-1.162, -1.883e-6
-1.161, -1.852e-6
-1.160, -1.743e-6
-1.159, -1.719e-6
-1.158, -1.887e-6
-1.157, -1.958e-6
-1.156, -1.954e-6
-1.155, -1.817e-6
-1.154, -1.864e-6
-1.153, -1.969e-6
-1.152, -2.128e-6
-1.151, -2.005e-6
-1.150, -1.901e-6
-1.149, -1.887e-6
-1.148, -2.035e-6
-1.147, -2.084e-6
-1.146, -2.107e-6
-1.145, -1.978e-6
-1.144, -2.020e-6
-1.143, -2.086e-6
-1.142, -2.252e-6
-1.141, -2.130e-6
-1.140, -2.003e-6
-1.139, -2.047e-6
-1.138, -2.220e-6
-1.137, -2.277e-6
-1.136, -2.256e-6
-1.135, -2.085e-6
-1.134, -2.150e-6
-1.133, -2.226e-6
-1.132, -2.360e-6
-1.131, -2.236e-6
-1.130, -2.133e-6
-1.129, -2.182e-6
-1.128, -2.296e-6
-1.127, -2.325e-6
-1.126, -2.384e-6
-1.125, -2.214e-6
-1.124, -2.247e-6
-1.123, -2.392e-6
-1.122, -2.453e-6
-1.121, -2.368e-6
-1.120, -2.216e-6
-1.119, -2.339e-6
-1.118, -2.407e-6
-1.117, -2.478e-6
-1.116, -2.367e-6
-1.115, -2.314e-6
-1.114, -2.235e-6
-1.113, -2.450e-6
-1.112, -2.555e-6
-1.111, -2.503e-6
-1.110, -2.296e-6
-1.109, -2.359e-6
-1.108, -2.482e-6
-1.107, -2.583e-6
-1.106, -2.458e-6
-1.105, -2.408e-6
-1.104, -2.366e-6
-1.103, -2.600e-6
-1.102, -2.587e-6
-1.101, -2.570e-6
-1.100, -2.362e-6
-1.099, -2.454e-6
-1.098, -2.559e-6
-1.097, -2.690e-6
-1.096, -2.547e-6
-1.095, -2.456e-6
-1.094, -2.466e-6
-1.093, -2.675e-6
-1.092, -2.678e-6
-1.091, -2.664e-6
-1.090, -2.483e-6
-1.089, -2.563e-6
-1.088, -2.643e-6
-1.087, -2.717e-6
-1.086, -2.618e-6
-1.085, -2.563e-6
-1.084, -2.577e-6
-1.083, -2.701e-6
-1.082, -2.745e-6
-1.081, -2.688e-6
-1.080, -2.595e-6
-1.079, -2.593e-6
-1.078, -2.805e-6
-1.077, -2.848e-6
-1.076, -2.754e-6
-1.075, -2.646e-6
-1.074, -2.687e-6
-1.073, -2.806e-6
-1.072, -2.898e-6
-1.071, -2.755e-6
-1.070, -2.707e-6
-1.069, -2.720e-6
-1.068, -2.883e-6
-1.067, -2.918e-6
-1.066, -2.885e-6
-1.065, -2.707e-6
-1.064, -2.856e-6
-1.063, -2.943e-6
-1.062, -3.092e-6
-1.061, -2.875e-6
-1.060, -2.868e-6
-1.059, -2.876e-6
-1.058, -3.054e-6
-1.057, -3.097e-6
-1.056, -2.999e-6
-1.055, -2.872e-6
-1.054, -3.001e-6
-1.053, -3.087e-6
-1.052, -3.206e-6
-1.051, -3.032e-6
-1.050, -3.001e-6
-1.049, -3.036e-6
-1.048, -3.237e-6
-1.047, -3.238e-6
-1.046, -3.203e-6
-1.045, -3.034e-6
-1.044, -3.144e-6
-1.043, -3.299e-6
-1.042, -3.296e-6
-1.041, -3.240e-6
-1.040, -3.109e-6
-1.039, -3.247e-6
-1.038, -3.405e-6
-1.037, -3.457e-6
-1.036, -3.276e-6
-1.035, -3.280e-6
-1.034, -3.277e-6
-1.033, -3.455e-6
-1.032, -3.480e-6
-1.031, -3.464e-6
-1.030, -3.315e-6
-1.029, -3.434e-6
-1.028, -3.524e-6
-1.027, -3.698e-6
-1.026, -3.486e-6
-1.025, -3.486e-6
-1.024, -3.534e-6
-1.023, -3.729e-6
-1.022, -3.741e-6
-1.021, -3.631e-6
-1.020, -3.526e-6
-1.019, -3.647e-6
-1.018, -3.781e-6
-1.017, -3.872e-6
-1.016, -3.738e-6
-1.015, -3.705e-6
-1.014, -3.763e-6
-1.013, -3.919e-6
-1.012, -3.973e-6
-1.011, -3.890e-6
-1.010, -3.823e-6
-1.009, -3.874e-6
-1.008, -4.066e-6
-1.007, -4.083e-6
-1.006, -4.027e-6
-1.005, -3.958e-6
-1.004, -4.037e-6
-1.003, -4.186e-6
-1.002, -4.221e-6
-1.001, -4.069e-6
