June 29, 2026   18:54:27
Linear Sweep Voltammetry
File: c:/users/guazh/data/20260623_doe_duplica2/2026-06-24-exp43\regeneratedgce-2026-06-29t18_49_51-lsvinkoh\regeneratedgce_lsv_50mvs_efin_-1900mv.bin
Data Source:  Experiment
Instrument Model:  CHI760E
Header: LSV ran at 50 mVs with Efin at -1900mV
Note: 

Init E (V) = -0.6
Final E (V) = -1.9
Scan Rate (V/s) = 0.05
Sample Interval (V) = 0.001
Quiet Time (sec) = 2
Sensitivity (A/V) = 1e-4
Comp R (ohm) = 1.6

Results:

Channel 1:

Potential/V, Current/A

-0.600, 2.099e-7
-0.601, 3.633e-7
-0.602, 4.077e-7
-0.603, 4.291e-7
-0.604, 4.473e-7
-0.605, 4.604e-7
-0.606, 4.726e-7
-0.607, 4.847e-7
-0.608, 4.940e-7
-0.609, 5.042e-7
-0.610, 5.113e-7
-0.611, 5.206e-7
-0.612, 5.289e-7
-0.613, 5.351e-7
-0.614, 5.445e-7
-0.615, 5.509e-7
-0.616, 5.562e-7
-0.617, 5.634e-7
-0.618, 5.681e-7
-0.619, 5.749e-7
-0.620, 5.819e-7
-0.621, 5.870e-7
-0.622, 5.915e-7
-0.623, 5.968e-7
-0.624, 6.001e-7
-0.625, 6.065e-7
-0.626, 6.107e-7
-0.627, 6.179e-7
-0.628, 6.215e-7
-0.629, 6.252e-7
-0.630, 6.306e-7
-0.631, 6.350e-7
-0.632, 6.400e-7
-0.633, 6.442e-7
-0.634, 6.485e-7
-0.635, 6.532e-7
-0.636, 6.570e-7
-0.637, 6.609e-7
-0.638, 6.662e-7
-0.639, 6.699e-7
-0.640, 6.749e-7
-0.641, 6.790e-7
-0.642, 6.820e-7
-0.643, 6.856e-7
-0.644, 6.915e-7
-0.645, 6.929e-7
-0.646, 6.977e-7
-0.647, 7.012e-7
-0.648, 7.041e-7
-0.649, 7.090e-7
-0.650, 7.125e-7
-0.651, 7.158e-7
-0.652, 7.214e-7
-0.653, 7.232e-7
-0.654, 7.283e-7
-0.655, 7.307e-7
-0.656, 7.330e-7
-0.657, 7.376e-7
-0.658, 7.386e-7
-0.659, 7.447e-7
-0.660, 7.486e-7
-0.661, 7.498e-7
-0.662, 7.561e-7
-0.663, 7.585e-7
-0.664, 7.619e-7
-0.665, 7.669e-7
-0.666, 7.704e-7
-0.667, 7.734e-7
-0.668, 7.758e-7
-0.669, 7.797e-7
-0.670, 7.831e-7
-0.671, 7.850e-7
-0.672, 7.901e-7
-0.673, 7.941e-7
-0.674, 7.954e-7
-0.675, 8.004e-7
-0.676, 8.034e-7
-0.677, 8.061e-7
-0.678, 8.106e-7
-0.679, 8.141e-7
-0.680, 8.172e-7
-0.681, 8.205e-7
-0.682, 8.226e-7
-0.683, 8.255e-7
-0.684, 8.299e-7
-0.685, 8.333e-7
-0.686, 8.362e-7
-0.687, 8.381e-7
-0.688, 8.410e-7
-0.689, 8.464e-7
-0.690, 8.482e-7
-0.691, 8.517e-7
-0.692, 8.551e-7
-0.693, 8.567e-7
-0.694, 8.614e-7
-0.695, 8.636e-7
-0.696, 8.662e-7
-0.697, 8.709e-7
-0.698, 8.719e-7
-0.699, 8.761e-7
-0.700, 8.787e-7
-0.701, 8.810e-7
-0.702, 8.851e-7
-0.703, 8.851e-7
-0.704, 8.888e-7
-0.705, 8.935e-7
-0.706, 8.949e-7
-0.707, 8.991e-7
-0.708, 9.013e-7
-0.709, 9.038e-7
-0.710, 9.074e-7
-0.711, 9.102e-7
-0.712, 9.118e-7
-0.713, 9.158e-7
-0.714, 9.190e-7
-0.715, 9.221e-7
-0.716, 9.239e-7
-0.717, 9.270e-7
-0.718, 9.310e-7
-0.719, 9.336e-7
-0.720, 9.362e-7
-0.721, 9.390e-7
-0.722, 9.415e-7
-0.723, 9.445e-7
-0.724, 9.481e-7
-0.725, 9.492e-7
-0.726, 9.532e-7
-0.727, 9.562e-7
-0.728, 9.581e-7
-0.729, 9.623e-7
-0.730, 9.636e-7
-0.731, 9.668e-7
-0.732, 9.699e-7
-0.733, 9.711e-7
-0.734, 9.754e-7
-0.735, 9.784e-7
-0.736, 9.809e-7
-0.737, 9.847e-7
-0.738, 9.862e-7
-0.739, 9.891e-7
-0.740, 9.923e-7
-0.741, 9.941e-7
-0.742, 9.989e-7
-0.743, 9.998e-7
-0.744, 1.003e-6
-0.745, 1.006e-6
-0.746, 1.008e-6
-0.747, 1.013e-6
-0.748, 1.016e-6
-0.749, 1.018e-6
-0.750, 1.020e-6
-0.751, 1.023e-6
-0.752, 1.027e-6
-0.753, 1.029e-6
-0.754, 1.031e-6
-0.755, 1.036e-6
-0.756, 1.039e-6
-0.757, 1.041e-6
-0.758, 1.044e-6
-0.759, 1.046e-6
-0.760, 1.050e-6
-0.761, 1.052e-6
-0.762, 1.054e-6
-0.763, 1.057e-6
-0.764, 1.061e-6
-0.765, 1.064e-6
-0.766, 1.066e-6
-0.767, 1.068e-6
-0.768, 1.074e-6
-0.769, 1.078e-6
-0.770, 1.079e-6
-0.771, 1.081e-6
-0.772, 1.084e-6
-0.773, 1.086e-6
-0.774, 1.090e-6
-0.775, 1.092e-6
-0.776, 1.095e-6
-0.777, 1.097e-6
-0.778, 1.100e-6
-0.779, 1.103e-6
-0.780, 1.106e-6
-0.781, 1.107e-6
-0.782, 1.112e-6
-0.783, 1.113e-6
-0.784, 1.116e-6
-0.785, 1.120e-6
-0.786, 1.121e-6
-0.787, 1.123e-6
-0.788, 1.127e-6
-0.789, 1.129e-6
-0.790, 1.134e-6
-0.791, 1.135e-6
-0.792, 1.138e-6
-0.793, 1.142e-6
-0.794, 1.145e-6
-0.795, 1.149e-6
-0.796, 1.149e-6
-0.797, 1.153e-6
-0.798, 1.156e-6
-0.799, 1.157e-6
-0.800, 1.161e-6
-0.801, 1.164e-6
-0.802, 1.166e-6
-0.803, 1.170e-6
-0.804, 1.172e-6
-0.805, 1.176e-6
-0.806, 1.178e-6
-0.807, 1.180e-6
-0.808, 1.183e-6
-0.809, 1.186e-6
-0.810, 1.190e-6
-0.811, 1.191e-6
-0.812, 1.195e-6
-0.813, 1.197e-6
-0.814, 1.200e-6
-0.815, 1.204e-6
-0.816, 1.206e-6
-0.817, 1.211e-6
-0.818, 1.211e-6
-0.819, 1.219e-6
-0.820, 1.224e-6
-0.821, 1.223e-6
-0.822, 1.227e-6
-0.823, 1.228e-6
-0.824, 1.231e-6
-0.825, 1.235e-6
-0.826, 1.237e-6
-0.827, 1.239e-6
-0.828, 1.242e-6
-0.829, 1.244e-6
-0.830, 1.250e-6
-0.831, 1.251e-6
-0.832, 1.255e-6
-0.833, 1.259e-6
-0.834, 1.261e-6
-0.835, 1.263e-6
-0.836, 1.266e-6
-0.837, 1.269e-6
-0.838, 1.273e-6
-0.839, 1.275e-6
-0.840, 1.278e-6
-0.841, 1.282e-6
-0.842, 1.284e-6
-0.843, 1.287e-6
-0.844, 1.290e-6
-0.845, 1.294e-6
-0.846, 1.298e-6
-0.847, 1.300e-6
-0.848, 1.302e-6
-0.849, 1.307e-6
-0.850, 1.309e-6
-0.851, 1.313e-6
-0.852, 1.315e-6
-0.853, 1.317e-6
-0.854, 1.322e-6
-0.855, 1.324e-6
-0.856, 1.327e-6
-0.857, 1.332e-6
-0.858, 1.335e-6
-0.859, 1.338e-6
-0.860, 1.339e-6
-0.861, 1.341e-6
-0.862, 1.346e-6
-0.863, 1.349e-6
-0.864, 1.352e-6
-0.865, 1.355e-6
-0.866, 1.358e-6
-0.867, 1.362e-6
-0.868, 1.365e-6
-0.869, 1.367e-6
-0.870, 1.373e-6
-0.871, 1.376e-6
-0.872, 1.378e-6
-0.873, 1.382e-6
-0.874, 1.382e-6
-0.875, 1.387e-6
-0.876, 1.391e-6
-0.877, 1.393e-6
-0.878, 1.398e-6
-0.879, 1.400e-6
-0.880, 1.403e-6
-0.881, 1.406e-6
-0.882, 1.409e-6
-0.883, 1.414e-6
-0.884, 1.418e-6
-0.885, 1.420e-6
-0.886, 1.423e-6
-0.887, 1.426e-6
-0.888, 1.428e-6
-0.889, 1.433e-6
-0.890, 1.437e-6
-0.891, 1.438e-6
-0.892, 1.441e-6
-0.893, 1.444e-6
-0.894, 1.449e-6
-0.895, 1.453e-6
-0.896, 1.455e-6
-0.897, 1.459e-6
-0.898, 1.461e-6
-0.899, 1.466e-6
-0.900, 1.469e-6
-0.901, 1.470e-6
-0.902, 1.475e-6
-0.903, 1.477e-6
-0.904, 1.480e-6
-0.905, 1.484e-6
-0.906, 1.485e-6
-0.907, 1.489e-6
-0.908, 1.493e-6
-0.909, 1.496e-6
-0.910, 1.500e-6
-0.911, 1.503e-6
-0.912, 1.506e-6
-0.913, 1.510e-6
-0.914, 1.511e-6
-0.915, 1.516e-6
-0.916, 1.519e-6
-0.917, 1.521e-6
-0.918, 1.525e-6
-0.919, 1.527e-6
-0.920, 1.531e-6
-0.921, 1.535e-6
-0.922, 1.538e-6
-0.923, 1.542e-6
-0.924, 1.545e-6
-0.925, 1.548e-6
-0.926, 1.552e-6
-0.927, 1.556e-6
-0.928, 1.557e-6
-0.929, 1.562e-6
-0.930, 1.564e-6
-0.931, 1.567e-6
-0.932, 1.571e-6
-0.933, 1.574e-6
-0.934, 1.578e-6
-0.935, 1.581e-6
-0.936, 1.584e-6
-0.937, 1.589e-6
-0.938, 1.590e-6
-0.939, 1.594e-6
-0.940, 1.598e-6
-0.941, 1.603e-6
-0.942, 1.606e-6
-0.943, 1.609e-6
-0.944, 1.610e-6
-0.945, 1.614e-6
-0.946, 1.618e-6
-0.947, 1.621e-6
-0.948, 1.624e-6
-0.949, 1.628e-6
-0.950, 1.632e-6
-0.951, 1.634e-6
-0.952, 1.637e-6
-0.953, 1.642e-6
-0.954, 1.645e-6
-0.955, 1.651e-6
-0.956, 1.652e-6
-0.957, 1.656e-6
-0.958, 1.660e-6
-0.959, 1.663e-6
-0.960, 1.667e-6
-0.961, 1.671e-6
-0.962, 1.673e-6
-0.963, 1.677e-6
-0.964, 1.681e-6
-0.965, 1.685e-6
-0.966, 1.690e-6
-0.967, 1.692e-6
-0.968, 1.697e-6
-0.969, 1.701e-6
-0.970, 1.704e-6
-0.971, 1.708e-6
-0.972, 1.712e-6
-0.973, 1.719e-6
-0.974, 1.721e-6
-0.975, 1.722e-6
-0.976, 1.726e-6
-0.977, 1.732e-6
-0.978, 1.734e-6
-0.979, 1.738e-6
-0.980, 1.743e-6
-0.981, 1.743e-6
-0.982, 1.750e-6
-0.983, 1.751e-6
-0.984, 1.756e-6
-0.985, 1.761e-6
-0.986, 1.765e-6
-0.987, 1.768e-6
-0.988, 1.772e-6
-0.989, 1.775e-6
-0.990, 1.781e-6
-0.991, 1.781e-6
-0.992, 1.786e-6
-0.993, 1.790e-6
-0.994, 1.792e-6
-0.995, 1.797e-6
-0.996, 1.801e-6
-0.997, 1.804e-6
-0.998, 1.810e-6
-0.999, 1.814e-6
-1.000, 1.818e-6
-1.001, 1.822e-6
-1.002, 1.824e-6
-1.003, 1.829e-6
-1.004, 1.833e-6
-1.005, 1.837e-6
-1.006, 1.842e-6
-1.007, 1.844e-6
-1.008, 1.849e-6
-1.009, 1.853e-6
-1.010, 1.857e-6
-1.011, 1.861e-6
-1.012, 1.864e-6
-1.013, 1.867e-6
-1.014, 1.873e-6
-1.015, 1.876e-6
-1.016, 1.879e-6
-1.017, 1.884e-6
-1.018, 1.888e-6
-1.019, 1.891e-6
-1.020, 1.895e-6
-1.021, 1.898e-6
-1.022, 1.903e-6
-1.023, 1.906e-6
-1.024, 1.912e-6
-1.025, 1.916e-6
-1.026, 1.917e-6
-1.027, 1.922e-6
-1.028, 1.926e-6
-1.029, 1.928e-6
-1.030, 1.933e-6
-1.031, 1.936e-6
-1.032, 1.939e-6
-1.033, 1.944e-6
-1.034, 1.946e-6
-1.035, 1.950e-6
-1.036, 1.955e-6
-1.037, 1.957e-6
-1.038, 1.961e-6
-1.039, 1.964e-6
-1.040, 1.968e-6
-1.041, 1.973e-6
-1.042, 1.974e-6
-1.043, 1.979e-6
-1.044, 1.984e-6
-1.045, 1.986e-6
-1.046, 1.990e-6
-1.047, 1.992e-6
-1.048, 1.995e-6
-1.049, 2.001e-6
-1.050, 2.005e-6
-1.051, 2.007e-6
-1.052, 2.011e-6
-1.053, 2.015e-6
-1.054, 2.019e-6
-1.055, 2.022e-6
-1.056, 2.027e-6
-1.057, 2.030e-6
-1.058, 2.033e-6
-1.059, 2.036e-6
-1.060, 2.040e-6
-1.061, 2.044e-6
-1.062, 2.048e-6
-1.063, 2.051e-6
-1.064, 2.054e-6
-1.065, 2.059e-6
-1.066, 2.062e-6
-1.067, 2.067e-6
-1.068, 2.071e-6
-1.069, 2.074e-6
-1.070, 2.079e-6
-1.071, 2.081e-6
-1.072, 2.085e-6
-1.073, 2.089e-6
-1.074, 2.092e-6
-1.075, 2.098e-6
-1.076, 2.102e-6
-1.077, 2.104e-6
-1.078, 2.109e-6
-1.079, 2.110e-6
-1.080, 2.114e-6
-1.081, 2.119e-6
-1.082, 2.121e-6
-1.083, 2.126e-6
-1.084, 2.128e-6
-1.085, 2.132e-6
-1.086, 2.137e-6
-1.087, 2.140e-6
-1.088, 2.144e-6
-1.089, 2.148e-6
-1.090, 2.149e-6
-1.091, 2.155e-6
-1.092, 2.157e-6
-1.093, 2.160e-6
-1.094, 2.166e-6
-1.095, 2.169e-6
-1.096, 2.172e-6
-1.097, 2.174e-6
-1.098, 2.177e-6
-1.099, 2.182e-6
-1.100, 2.186e-6
-1.101, 2.188e-6
-1.102, 2.192e-6
-1.103, 2.196e-6
-1.104, 2.198e-6
-1.105, 2.203e-6
-1.106, 2.205e-6
-1.107, 2.208e-6
-1.108, 2.212e-6
-1.109, 2.214e-6
-1.110, 2.219e-6
-1.111, 2.222e-6
-1.112, 2.225e-6
-1.113, 2.228e-6
-1.114, 2.231e-6
-1.115, 2.234e-6
-1.116, 2.238e-6
-1.117, 2.240e-6
-1.118, 2.245e-6
-1.119, 2.247e-6
-1.120, 2.250e-6
-1.121, 2.255e-6
-1.122, 2.256e-6
-1.123, 2.259e-6
-1.124, 2.262e-6
-1.125, 2.265e-6
-1.126, 2.271e-6
-1.127, 2.272e-6
-1.128, 2.275e-6
-1.129, 2.279e-6
-1.130, 2.280e-6
-1.131, 2.283e-6
-1.132, 2.286e-6
-1.133, 2.289e-6
-1.134, 2.293e-6
-1.135, 2.295e-6
-1.136, 2.298e-6
-1.137, 2.301e-6
-1.138, 2.304e-6
-1.139, 2.308e-6
-1.140, 2.311e-6
-1.141, 2.313e-6
-1.142, 2.316e-6
-1.143, 2.318e-6
-1.144, 2.321e-6
-1.145, 2.324e-6
-1.146, 2.326e-6
-1.147, 2.329e-6
-1.148, 2.332e-6
-1.149, 2.333e-6
-1.150, 2.338e-6
-1.151, 2.340e-6
-1.152, 2.345e-6
-1.153, 2.348e-6
-1.154, 2.347e-6
-1.155, 2.352e-6
-1.156, 2.355e-6
-1.157, 2.356e-6
-1.158, 2.361e-6
-1.159, 2.362e-6
-1.160, 2.366e-6
-1.161, 2.369e-6
-1.162, 2.371e-6
-1.163, 2.375e-6
-1.164, 2.377e-6
-1.165, 2.379e-6
-1.166, 2.384e-6
-1.167, 2.386e-6
-1.168, 2.389e-6
-1.169, 2.392e-6
-1.170, 2.394e-6
-1.171, 2.399e-6
-1.172, 2.400e-6
-1.173, 2.403e-6
-1.174, 2.408e-6
-1.175, 2.408e-6
-1.176, 2.413e-6
-1.177, 2.417e-6
-1.178, 2.422e-6
-1.179, 2.422e-6
-1.180, 2.425e-6
-1.181, 2.427e-6
-1.182, 2.430e-6
-1.183, 2.433e-6
-1.184, 2.436e-6
-1.185, 2.440e-6
-1.186, 2.442e-6
-1.187, 2.444e-6
-1.188, 2.448e-6
-1.189, 2.448e-6
-1.190, 2.453e-6
-1.191, 2.455e-6
-1.192, 2.458e-6
-1.193, 2.462e-6
-1.194, 2.463e-6
-1.195, 2.469e-6
-1.196, 2.470e-6
-1.197, 2.470e-6
-1.198, 2.476e-6
-1.199, 2.476e-6
-1.200, 2.480e-6
-1.201, 2.484e-6
-1.202, 2.485e-6
-1.203, 2.488e-6
-1.204, 2.492e-6
-1.205, 2.493e-6
-1.206, 2.499e-6
-1.207, 2.500e-6
-1.208, 2.502e-6
-1.209, 2.506e-6
-1.210, 2.506e-6
-1.211, 2.511e-6
-1.212, 2.513e-6
-1.213, 2.513e-6
-1.214, 2.518e-6
-1.215, 2.520e-6
-1.216, 2.525e-6
-1.217, 2.527e-6
-1.218, 2.528e-6
-1.219, 2.531e-6
-1.220, 2.534e-6
-1.221, 2.536e-6
-1.222, 2.540e-6
-1.223, 2.542e-6
-1.224, 2.544e-6
-1.225, 2.549e-6
-1.226, 2.550e-6
-1.227, 2.553e-6
-1.228, 2.555e-6
-1.229, 2.566e-6
-1.230, 2.564e-6
-1.231, 2.565e-6
-1.232, 2.565e-6
-1.233, 2.570e-6
-1.234, 2.573e-6
-1.235, 2.577e-6
-1.236, 2.579e-6
-1.237, 2.578e-6
-1.238, 2.583e-6
-1.239, 2.583e-6
-1.240, 2.585e-6
-1.241, 2.590e-6
-1.242, 2.592e-6
-1.243, 2.595e-6
-1.244, 2.595e-6
-1.245, 2.597e-6
-1.246, 2.602e-6
-1.247, 2.604e-6
-1.248, 2.605e-6
-1.249, 2.609e-6
-1.250, 2.610e-6
-1.251, 2.614e-6
-1.252, 2.616e-6
-1.253, 2.617e-6
-1.254, 2.621e-6
-1.255, 2.623e-6
-1.256, 2.626e-6
-1.257, 2.627e-6
-1.258, 2.628e-6
-1.259, 2.635e-6
-1.260, 2.634e-6
-1.261, 2.638e-6
-1.262, 2.638e-6
-1.263, 2.641e-6
-1.264, 2.643e-6
-1.265, 2.644e-6
-1.266, 2.646e-6
-1.267, 2.650e-6
-1.268, 2.652e-6
-1.269, 2.653e-6
-1.270, 2.658e-6
-1.271, 2.657e-6
-1.272, 2.660e-6
-1.273, 2.663e-6
-1.274, 2.664e-6
-1.275, 2.668e-6
-1.276, 2.670e-6
-1.277, 2.671e-6
-1.278, 2.675e-6
-1.279, 2.676e-6
-1.280, 2.682e-6
-1.281, 2.685e-6
-1.282, 2.682e-6
-1.283, 2.685e-6
-1.284, 2.689e-6
-1.285, 2.690e-6
-1.286, 2.695e-6
-1.287, 2.694e-6
-1.288, 2.698e-6
-1.289, 2.703e-6
-1.290, 2.700e-6
-1.291, 2.705e-6
-1.292, 2.707e-6
-1.293, 2.708e-6
-1.294, 2.712e-6
-1.295, 2.715e-6
-1.296, 2.717e-6
-1.297, 2.720e-6
-1.298, 2.721e-6
-1.299, 2.725e-6
-1.300, 2.726e-6
-1.301, 2.730e-6
-1.302, 2.734e-6
-1.303, 2.734e-6
-1.304, 2.737e-6
-1.305, 2.742e-6
-1.306, 2.744e-6
-1.307, 2.748e-6
-1.308, 2.749e-6
-1.309, 2.750e-6
-1.310, 2.755e-6
-1.311, 2.758e-6
-1.312, 2.760e-6
-1.313, 2.764e-6
-1.314, 2.766e-6
-1.315, 2.770e-6
-1.316, 2.772e-6
-1.317, 2.775e-6
-1.318, 2.778e-6
-1.319, 2.781e-6
-1.320, 2.783e-6
-1.321, 2.789e-6
-1.322, 2.790e-6
-1.323, 2.796e-6
-1.324, 2.800e-6
-1.325, 2.802e-6
-1.326, 2.808e-6
-1.327, 2.805e-6
-1.328, 2.807e-6
-1.329, 2.812e-6
-1.330, 2.815e-6
-1.331, 2.819e-6
-1.332, 2.822e-6
-1.333, 2.824e-6
-1.334, 2.828e-6
-1.335, 2.828e-6
-1.336, 2.833e-6
-1.337, 2.836e-6
-1.338, 2.837e-6
-1.339, 2.840e-6
-1.340, 2.843e-6
-1.341, 2.845e-6
-1.342, 2.848e-6
-1.343, 2.850e-6
-1.344, 2.856e-6
-1.345, 2.859e-6
-1.346, 2.860e-6
-1.347, 2.863e-6
-1.348, 2.866e-6
-1.349, 2.868e-6
-1.350, 2.872e-6
-1.351, 2.875e-6
-1.352, 2.878e-6
-1.353, 2.881e-6
-1.354, 2.882e-6
-1.355, 2.887e-6
-1.356, 2.890e-6
-1.357, 2.894e-6
-1.358, 2.897e-6
-1.359, 2.898e-6
-1.360, 2.901e-6
-1.361, 2.905e-6
-1.362, 2.904e-6
-1.363, 2.909e-6
-1.364, 2.913e-6
-1.365, 2.915e-6
-1.366, 2.920e-6
-1.367, 2.921e-6
-1.368, 2.923e-6
-1.369, 2.929e-6
-1.370, 2.929e-6
-1.371, 2.932e-6
-1.372, 2.936e-6
-1.373, 2.937e-6
-1.374, 2.941e-6
-1.375, 2.943e-6
-1.376, 2.950e-6
-1.377, 2.951e-6
-1.378, 2.950e-6
-1.379, 2.956e-6
-1.380, 2.957e-6
-1.381, 2.962e-6
-1.382, 2.968e-6
-1.383, 2.972e-6
-1.384, 2.973e-6
-1.385, 2.978e-6
-1.386, 2.977e-6
-1.387, 2.979e-6
-1.388, 2.982e-6
-1.389, 2.985e-6
-1.390, 2.991e-6
-1.391, 2.994e-6
-1.392, 2.996e-6
-1.393, 3.000e-6
-1.394, 2.999e-6
-1.395, 3.003e-6
-1.396, 3.007e-6
-1.397, 3.008e-6
-1.398, 3.014e-6
-1.399, 3.015e-6
-1.400, 3.019e-6
-1.401, 3.023e-6
-1.402, 3.023e-6
-1.403, 3.028e-6
-1.404, 3.033e-6
-1.405, 3.033e-6
-1.406, 3.040e-6
-1.407, 3.041e-6
-1.408, 3.043e-6
-1.409, 3.050e-6
-1.410, 3.052e-6
-1.411, 3.055e-6
-1.412, 3.059e-6
-1.413, 3.060e-6
-1.414, 3.066e-6
-1.415, 3.068e-6
-1.416, 3.074e-6
-1.417, 3.078e-6
-1.418, 3.077e-6
-1.419, 3.083e-6
-1.420, 3.087e-6
-1.421, 3.091e-6
-1.422, 3.094e-6
-1.423, 3.096e-6
-1.424, 3.100e-6
-1.425, 3.106e-6
-1.426, 3.107e-6
-1.427, 3.114e-6
-1.428, 3.115e-6
-1.429, 3.117e-6
-1.430, 3.125e-6
-1.431, 3.126e-6
-1.432, 3.129e-6
-1.433, 3.135e-6
-1.434, 3.142e-6
-1.435, 3.143e-6
-1.436, 3.148e-6
-1.437, 3.151e-6
-1.438, 3.156e-6
-1.439, 3.158e-6
-1.440, 3.162e-6
-1.441, 3.167e-6
-1.442, 3.168e-6
-1.443, 3.173e-6
-1.444, 3.180e-6
-1.445, 3.179e-6
-1.446, 3.188e-6
-1.447, 3.190e-6
-1.448, 3.193e-6
-1.449, 3.199e-6
-1.450, 3.200e-6
-1.451, 3.206e-6
-1.452, 3.210e-6
-1.453, 3.212e-6
-1.454, 3.220e-6
-1.455, 3.222e-6
-1.456, 3.227e-6
-1.457, 3.234e-6
-1.458, 3.233e-6
-1.459, 3.241e-6
-1.460, 3.246e-6
-1.461, 3.247e-6
-1.462, 3.254e-6
-1.463, 3.256e-6
-1.464, 3.261e-6
-1.465, 3.267e-6
-1.466, 3.271e-6
-1.467, 3.276e-6
-1.468, 3.280e-6
-1.469, 3.284e-6
-1.470, 3.290e-6
-1.471, 3.292e-6
-1.472, 3.301e-6
-1.473, 3.307e-6
-1.474, 3.309e-6
-1.475, 3.315e-6
-1.476, 3.323e-6
-1.477, 3.326e-6
-1.478, 3.333e-6
-1.479, 3.335e-6
-1.480, 3.342e-6
-1.481, 3.349e-6
-1.482, 3.351e-6
-1.483, 3.359e-6
-1.484, 3.365e-6
-1.485, 3.374e-6
-1.486, 3.379e-6
-1.487, 3.381e-6
-1.488, 3.387e-6
-1.489, 3.394e-6
-1.490, 3.397e-6
-1.491, 3.403e-6
-1.492, 3.410e-6
-1.493, 3.412e-6
-1.494, 3.419e-6
-1.495, 3.423e-6
-1.496, 3.429e-6
-1.497, 3.438e-6
-1.498, 3.440e-6
-1.499, 3.450e-6
-1.500, 3.453e-6
-1.501, 3.458e-6
-1.502, 3.468e-6
-1.503, 3.471e-6
-1.504, 3.478e-6
-1.505, 3.483e-6
-1.506, 3.489e-6
-1.507, 3.497e-6
-1.508, 3.501e-6
-1.509, 3.507e-6
-1.510, 3.516e-6
-1.511, 3.520e-6
-1.512, 3.527e-6
-1.513, 3.533e-6
-1.514, 3.537e-6
-1.515, 3.545e-6
-1.516, 3.553e-6
-1.517, 3.559e-6
-1.518, 3.564e-6
-1.519, 3.570e-6
-1.520, 3.576e-6
-1.521, 3.584e-6
-1.522, 3.592e-6
-1.523, 3.601e-6
-1.524, 3.610e-6
-1.525, 3.614e-6
-1.526, 3.621e-6
-1.527, 3.626e-6
-1.528, 3.633e-6
-1.529, 3.643e-6
-1.530, 3.649e-6
-1.531, 3.659e-6
-1.532, 3.667e-6
-1.533, 3.672e-6
-1.534, 3.681e-6
-1.535, 3.689e-6
-1.536, 3.699e-6
-1.537, 3.707e-6
-1.538, 3.711e-6
-1.539, 3.723e-6
-1.540, 3.729e-6
-1.541, 3.737e-6
-1.542, 3.748e-6
-1.543, 3.756e-6
-1.544, 3.763e-6
-1.545, 3.774e-6
-1.546, 3.780e-6
-1.547, 3.793e-6
-1.548, 3.800e-6
-1.549, 3.808e-6
-1.550, 3.818e-6
-1.551, 3.828e-6
-1.552, 3.836e-6
-1.553, 3.848e-6
-1.554, 3.856e-6
-1.555, 3.869e-6
-1.556, 3.879e-6
-1.557, 3.890e-6
-1.558, 3.900e-6
-1.559, 3.906e-6
-1.560, 3.917e-6
-1.561, 3.931e-6
-1.562, 3.941e-6
-1.563, 3.950e-6
-1.564, 3.962e-6
-1.565, 3.972e-6
-1.566, 3.985e-6
-1.567, 3.996e-6
-1.568, 4.005e-6
-1.569, 4.021e-6
-1.570, 4.030e-6
-1.571, 4.044e-6
-1.572, 4.054e-6
-1.573, 4.065e-6
-1.574, 4.081e-6
-1.575, 4.091e-6
-1.576, 4.105e-6
-1.577, 4.120e-6
-1.578, 4.128e-6
-1.579, 4.147e-6
-1.580, 4.159e-6
-1.581, 4.170e-6
-1.582, 4.187e-6
-1.583, 4.200e-6
-1.584, 4.213e-6
-1.585, 4.229e-6
-1.586, 4.241e-6
-1.587, 4.263e-6
-1.588, 4.281e-6
-1.589, 4.288e-6
-1.590, 4.306e-6
-1.591, 4.319e-6
-1.592, 4.333e-6
-1.593, 4.353e-6
-1.594, 4.368e-6
-1.595, 4.389e-6
-1.596, 4.406e-6
-1.597, 4.422e-6
-1.598, 4.440e-6
-1.599, 4.457e-6
-1.600, 4.476e-6
-1.601, 4.499e-6
-1.602, 4.514e-6
-1.603, 4.536e-6
-1.604, 4.556e-6
-1.605, 4.575e-6
-1.606, 4.600e-6
-1.607, 4.618e-6
-1.608, 4.638e-6
-1.609, 4.662e-6
-1.610, 4.679e-6
-1.611, 4.705e-6
-1.612, 4.729e-6
-1.613, 4.752e-6
-1.614, 4.775e-6
-1.615, 4.799e-6
-1.616, 4.826e-6
-1.617, 4.851e-6
-1.618, 4.870e-6
-1.619, 4.898e-6
-1.620, 4.925e-6
-1.621, 4.948e-6
-1.622, 4.979e-6
-1.623, 5.003e-6
-1.624, 5.036e-6
-1.625, 5.062e-6
-1.626, 5.089e-6
-1.627, 5.122e-6
-1.628, 5.152e-6
-1.629, 5.180e-6
-1.630, 5.214e-6
-1.631, 5.244e-6
-1.632, 5.280e-6
-1.633, 5.315e-6
-1.634, 5.346e-6
-1.635, 5.382e-6
-1.636, 5.414e-6
-1.637, 5.451e-6
-1.638, 5.497e-6
-1.639, 5.542e-6
-1.640, 5.569e-6
-1.641, 5.612e-6
-1.642, 5.646e-6
-1.643, 5.687e-6
-1.644, 5.730e-6
-1.645, 5.770e-6
-1.646, 5.820e-6
-1.647, 5.860e-6
-1.648, 5.903e-6
-1.649, 5.950e-6
-1.650, 5.994e-6
-1.651, 6.045e-6
-1.652, 6.095e-6
-1.653, 6.142e-6
-1.654, 6.194e-6
-1.655, 6.245e-6
-1.656, 6.296e-6
-1.657, 6.355e-6
-1.658, 6.406e-6
-1.659, 6.467e-6
-1.660, 6.525e-6
-1.661, 6.585e-6
-1.662, 6.651e-6
-1.663, 6.710e-6
-1.664, 6.779e-6
-1.665, 6.849e-6
-1.666, 6.913e-6
-1.667, 6.984e-6
-1.668, 7.051e-6
-1.669, 7.123e-6
-1.670, 7.201e-6
-1.671, 7.276e-6
-1.672, 7.355e-6
-1.673, 7.431e-6
-1.674, 7.512e-6
-1.675, 7.597e-6
-1.676, 7.684e-6
-1.677, 7.769e-6
-1.678, 7.861e-6
-1.679, 7.952e-6
-1.680, 8.048e-6
-1.681, 8.148e-6
-1.682, 8.250e-6
-1.683, 8.354e-6
-1.684, 8.456e-6
-1.685, 8.559e-6
-1.686, 8.667e-6
-1.687, 8.779e-6
-1.688, 8.891e-6
-1.689, 9.015e-6
-1.690, 9.144e-6
-1.691, 9.264e-6
-1.692, 9.392e-6
-1.693, 9.522e-6
-1.694, 9.655e-6
-1.695, 9.794e-6
-1.696, 9.938e-6
-1.697, 1.008e-5
-1.698, 1.023e-5
-1.699, 1.038e-5
-1.700, 1.054e-5
-1.701, 1.070e-5
-1.702, 1.087e-5
-1.703, 1.104e-5
-1.704, 1.122e-5
-1.705, 1.140e-5
-1.706, 1.157e-5
-1.707, 1.177e-5
-1.708, 1.196e-5
-1.709, 1.214e-5
-1.710, 1.235e-5
-1.711, 1.256e-5
-1.712, 1.278e-5
-1.713, 1.300e-5
-1.714, 1.323e-5
-1.715, 1.347e-5
-1.716, 1.371e-5
-1.717, 1.396e-5
-1.718, 1.422e-5
-1.719, 1.448e-5
-1.720, 1.475e-5
-1.721, 1.503e-5
-1.722, 1.531e-5
-1.723, 1.561e-5
-1.724, 1.591e-5
-1.725, 1.623e-5
-1.726, 1.655e-5
-1.727, 1.688e-5
-1.728, 1.722e-5
-1.729, 1.757e-5
-1.730, 1.793e-5
-1.731, 1.830e-5
-1.732, 1.868e-5
-1.733, 1.907e-5
-1.734, 1.948e-5
-1.735, 1.989e-5
-1.736, 2.032e-5
-1.737, 2.076e-5
-1.738, 2.121e-5
-1.739, 2.167e-5
-1.740, 2.214e-5
-1.741, 2.263e-5
-1.742, 2.315e-5
-1.743, 2.367e-5
-1.744, 2.421e-5
-1.745, 2.476e-5
-1.746, 2.533e-5
-1.747, 2.591e-5
-1.748, 2.651e-5
-1.749, 2.713e-5
-1.750, 2.777e-5
-1.751, 2.841e-5
-1.752, 2.909e-5
-1.753, 2.979e-5
-1.754, 3.049e-5
-1.755, 3.123e-5
-1.756, 3.199e-5
-1.757, 3.277e-5
-1.758, 3.357e-5
-1.759, 3.439e-5
-1.760, 3.524e-5
-1.761, 3.611e-5
-1.762, 3.700e-5
-1.763, 3.791e-5
-1.764, 3.886e-5
-1.765, 3.984e-5
-1.766, 4.085e-5
-1.767, 4.189e-5
-1.768, 4.294e-5
-1.769, 4.402e-5
-1.770, 4.514e-5
-1.771, 4.629e-5
-1.772, 4.749e-5
-1.773, 4.870e-5
-1.774, 4.995e-5
-1.775, 5.124e-5
-1.776, 5.256e-5
-1.777, 5.392e-5
-1.778, 5.532e-5
-1.779, 5.676e-5
-1.780, 5.822e-5
-1.781, 5.971e-5
-1.782, 6.127e-5
-1.783, 6.287e-5
-1.784, 6.451e-5
-1.785, 6.619e-5
-1.786, 6.794e-5
-1.787, 6.972e-5
-1.788, 7.156e-5
-1.789, 7.344e-5
-1.790, 7.536e-5
-1.791, 7.733e-5
-1.792, 7.938e-5
-1.793, 8.148e-5
-1.794, 8.363e-5
-1.795, 8.584e-5
-1.796, 8.809e-5
-1.797, 9.040e-5
-1.798, 9.279e-5
-1.799, 9.523e-5
-1.800, 9.775e-5
-1.801, 1.003e-4
-1.802, 1.030e-4
-1.803, 1.057e-4
-1.804, 1.085e-4
-1.805, 1.113e-4
-1.806, 1.143e-4
-1.807, 1.173e-4
-1.808, 1.203e-4
-1.809, 1.235e-4
-1.810, 1.267e-4
-1.811, 1.301e-4
-1.812, 1.335e-4
-1.813, 1.370e-4
-1.814, 1.406e-4
-1.815, 1.442e-4
-1.816, 1.480e-4
-1.817, 1.519e-4
-1.818, 1.558e-4
-1.819, 1.599e-4
-1.820, 1.640e-4
-1.821, 1.683e-4
-1.822, 1.727e-4
-1.823, 1.772e-4
-1.824, 1.817e-4
-1.825, 1.864e-4
-1.826, 1.912e-4
-1.827, 1.961e-4
-1.828, 2.012e-4
-1.829, 2.063e-4
-1.830, 2.115e-4
-1.831, 2.169e-4
-1.832, 2.224e-4
-1.833, 2.281e-4
-1.834, 2.338e-4
-1.835, 2.398e-4
-1.836, 2.459e-4
-1.837, 2.520e-4
-1.838, 2.583e-4
-1.839, 2.648e-4
-1.840, 2.713e-4
-1.841, 2.781e-4
-1.842, 2.850e-4
-1.843, 2.921e-4
-1.844, 2.993e-4
-1.845, 3.067e-4
-1.846, 3.142e-4
-1.847, 3.219e-4
-1.848, 3.296e-4
-1.849, 3.374e-4
-1.850, 3.455e-4
-1.851, 3.538e-4
-1.852, 3.622e-4
-1.853, 3.709e-4
-1.854, 3.797e-4
-1.855, 3.887e-4
-1.856, 3.979e-4
-1.857, 4.073e-4
-1.858, 4.169e-4
-1.859, 4.265e-4
-1.860, 4.364e-4
-1.861, 4.466e-4
-1.862, 4.569e-4
-1.863, 4.673e-4
-1.864, 4.780e-4
-1.865, 4.890e-4
-1.866, 5.001e-4
-1.867, 5.116e-4
-1.868, 5.233e-4
-1.869, 5.352e-4
-1.870, 5.472e-4
-1.871, 5.595e-4
-1.872, 5.721e-4
-1.873, 5.849e-4
-1.874, 5.980e-4
-1.875, 6.114e-4
-1.876, 6.250e-4
-1.877, 6.389e-4
-1.878, 6.530e-4
-1.879, 6.675e-4
-1.880, 6.822e-4
-1.881, 6.973e-4
-1.882, 7.125e-4
-1.883, 7.281e-4
-1.884, 7.441e-4
-1.885, 7.602e-4
-1.886, 7.767e-4
-1.887, 7.935e-4
-1.888, 8.104e-4
-1.889, 8.277e-4
-1.890, 8.454e-4
-1.891, 8.635e-4
-1.892, 8.817e-4
-1.893, 9.003e-4
-1.894, 9.193e-4
-1.895, 9.385e-4
-1.896, 9.582e-4
-1.897, 9.783e-4
-1.898, 9.984e-4
-1.899, 1.011e-3
