Potential V vs RHE, Current mA cm-2
0.013299999999999867,-0.7001406223032067
0.012299999999999978,-2.968064307116847
0.011299999999999866,-5.0618370309171015
0.010299999999999976,-6.981600264833956
0.009299999999999864,-8.85609273715513
0.008299999999999974,-10.601846481188586
0.007299999999999862,-12.258473413330542
0.006299999999999972,-13.784946905884919
0.00529999999999986,-15.222293586547794
0.0042999999999999705,-16.622857773414182
0.0032999999999998586,-17.881950830294063
0.0022999999999999687,-19.112749661176647
0.0012999999999998568,-20.244518701068674
0.00029999999999996696,-21.291405062968803
-0.000700000000000145,-22.295850085872978
-0.0017000000000000348,-23.24370665678255
-0.0027000000000001467,-24.120827662698876
-0.0037000000000000366,-24.95550732961925
-0.0047000000000001485,-25.73359854454502
-0.005700000000000038,-26.440954194477534
-0.00670000000000015,-27.176604070407354
-0.00770000000000004,-27.869812607341224
-0.008700000000000152,-28.478138466283188
-0.009700000000000042,-29.100611438223805
-0.010700000000000154,-29.708937297165768
-0.011700000000000044,-30.274821817111786
-0.012700000000000156,-30.79826499806185
-0.013700000000000045,-31.27926684001596
-0.014700000000000157,-31.717827342974125
-0.015700000000000047,-32.09979939393769
-0.01670000000000016,-32.49591855789989
-0.01770000000000005,-32.84959638286615
-0.01870000000000016,-33.14668575583781
-0.01970000000000005,-33.50036358080407
-0.020700000000000163,-33.81160006677438
-0.021700000000000053,-34.10868943974604
-0.022700000000000164,-34.377484586720385
-0.023700000000000054,-34.67457395969205
-0.024700000000000166,-34.94336910666641
-0.025700000000000056,-35.198017140642115
-0.026700000000000168,-35.46681228761647
-0.027700000000000058,-35.679018982596226
-0.02870000000000017,-35.90537279057463
-0.02970000000000006,-36.07513814655844
-0.03070000000000017,-36.28734484153819
-0.03170000000000006,-36.4288159715247
-0.03270000000000017,-36.5985813275085
-0.03370000000000006,-36.725905344496354
-0.034700000000000175,-36.8532293614842
-0.035700000000000065,-36.99470049147071
-0.03670000000000018,-37.122024508458566
-0.03770000000000007,-37.291789864442364
-0.03870000000000018,-37.41911388143023
-0.03970000000000007,-37.51814367242077
-0.04070000000000018,-37.687909028404576
-0.04170000000000007,-37.77279170639648
-0.04270000000000018,-37.85767438438838
-0.04370000000000007,-37.99914551437489
-0.044700000000000184,-38.08402819236679
-0.045700000000000074,-38.12646953136274
-0.046700000000000186,-38.211352209354644
-0.047700000000000076,-38.253793548350586
-0.04870000000000019,-38.253793548350586
-0.04970000000000008,-38.33867622634249
-0.05070000000000019,-38.33867622634249
-0.05170000000000008,-38.42355890433439
-0.05270000000000019,-38.46600024333035
-0.05370000000000008,-38.5650300343209
-0.05470000000000019,-38.6499127123128
-0.05570000000000008,-38.734795390304704
-0.056700000000000195,-38.777236729300654
-0.057700000000000085,-38.81967806829661
-0.058700000000000196,-38.90456074628851
-0.059700000000000086,-38.94700208528445
-0.0607000000000002,-38.94700208528445
-0.06170000000000009,-38.98944342428042
-0.0627000000000002,-38.98944342428042
-0.06370000000000009,-38.98944342428042
-0.0647000000000002,-39.046031876275016
-0.06570000000000009,-39.08847321527096
-0.0667000000000002,-39.08847321527096
-0.0677000000000001,-39.173355893262865
-0.0687000000000002,-39.173355893262865
-0.0697000000000001,-39.21579723225882
-0.07070000000000021,-39.30067991025072
-0.0717000000000001,-39.30067991025072
-0.07270000000000021,-39.34312124924667
-0.0737000000000001,-39.34312124924667
-0.07470000000000021,-39.38556258824262
-0.0757000000000001,-39.38556258824262
-0.07670000000000021,-39.38556258824262
-0.0777000000000001,-39.38556258824262
-0.07870000000000021,-39.34312124924667
-0.0797000000000001,-39.34312124924667
-0.08070000000000022,-39.38556258824262
-0.0817000000000001,-39.38556258824262
-0.08270000000000022,-39.42800392723857
-0.08370000000000011,-39.47044526623452
-0.08470000000000022,-39.47044526623452
-0.08570000000000011,-39.51288660523048
-0.08670000000000022,-39.56947505722508
-0.08770000000000011,-39.61191639622103
-0.08870000000000022,-39.654357735216976
-0.08970000000000011,-39.654357735216976
-0.09070000000000022,-39.654357735216976
-0.09170000000000011,-39.654357735216976
-0.09270000000000023,-39.654357735216976
-0.09370000000000012,-39.61191639622103
-0.09470000000000023,-39.654357735216976
-0.09570000000000012,-39.61191639622103
-0.09670000000000023,-39.696799074212926
-0.09770000000000012,-39.696799074212926
-0.09870000000000023,-39.696799074212926
-0.09970000000000012,-39.78168175220483
-0.10070000000000023,-39.82412309120078
-0.10170000000000012,-39.82412309120078
-0.10270000000000024,-39.90900576919269
-0.10370000000000013,-39.90900576919269
-0.10470000000000024,-39.90900576919269
-0.10570000000000013,-39.90900576919269
-0.10670000000000024,-39.95144710818864
-0.10770000000000013,-39.95144710818864
-0.10870000000000024,-39.90900576919269
-0.10970000000000013,-39.90900576919269
-0.11070000000000024,-39.95144710818864
-0.11170000000000013,-39.95144710818864
-0.11270000000000002,-40.03632978618054
-0.11370000000000013,-40.03632978618054
-0.11470000000000002,-40.092918238175145
-0.11570000000000014,-40.135359577171094
-0.11670000000000003,-40.177800916167044
-0.11770000000000014,-40.177800916167044
-0.11870000000000003,-40.220242255162994
-0.11970000000000014,-40.177800916167044
-0.12070000000000003,-40.220242255162994
-0.12170000000000014,-40.220242255162994
-0.12270000000000003,-40.220242255162994
-0.12370000000000014,-40.220242255162994
-0.12470000000000003,-40.220242255162994
-0.12570000000000014,-40.26268359415894
-0.12670000000000003,-40.30512493315489
-0.12770000000000015,-40.30512493315489
-0.12870000000000004,-40.34756627215084
-0.12970000000000015,-40.3900076111468
-0.13070000000000004,-40.43244895014274
-0.13170000000000015,-40.43244895014274
-0.13270000000000004,-40.4748902891387
-0.13370000000000015,-40.51733162813464
-0.13470000000000004,-40.559772967130606
-0.13570000000000015,-40.559772967130606
-0.13670000000000004,-40.559772967130606
-0.13770000000000016,-40.559772967130606
-0.13870000000000005,-40.616361419125205
-0.13970000000000016,-40.616361419125205
-0.14070000000000005,-40.65880275812115
-0.14170000000000016,-40.701244097117105
-0.14270000000000005,-40.743685436113054
-0.14370000000000016,-40.78612677510901
-0.14470000000000005,-40.828568114104954
-0.14570000000000016,-40.87100945310091
-0.14670000000000005,-40.91345079209687
-0.14770000000000016,-40.95589213109281
-0.14870000000000005,-40.99833347008877
-0.14970000000000017,-40.99833347008877
-0.15070000000000006,-40.99833347008877
-0.15170000000000017,-40.99833347008877
-0.15270000000000006,-40.99833347008877
-0.15370000000000017,-40.99833347008877
-0.15470000000000006,-40.99833347008877
-0.15570000000000017,-41.04077480908471
-0.15670000000000006,-41.083216148080666
-0.15770000000000017,-41.139804600075266
-0.15870000000000006,-41.182245939071215
-0.15970000000000018,-41.22468727806717
-0.16070000000000007,-41.267128617063115
-0.16170000000000018,-41.352011295055014
-0.16270000000000007,-41.39445263405098
-0.16370000000000018,-41.43689397304693
-0.16470000000000007,-41.47933531204288
-0.16570000000000018,-41.52177665103883
-0.16670000000000007,-41.56421799003478
-0.16770000000000018,-41.52177665103883
-0.16870000000000007,-41.56421799003478
-0.16970000000000018,-41.606659329030734
-0.17070000000000007,-41.66324778102533
-0.17170000000000019,-41.70568912002128
-0.17270000000000008,-41.74813045901723
-0.1737000000000002,-41.83301313700913
-0.17470000000000008,-41.87545447600508
-0.1757000000000002,-41.91789581500104
-0.17670000000000008,-42.00277849299294
-0.1777000000000002,-42.087661170984845
-0.17870000000000008,-42.130102509980794
-0.1797000000000002,-42.186690961975394
-0.18070000000000008,-42.229132300971344
-0.1817000000000002,-42.229132300971344
-0.18270000000000008,-42.31401497896325
-0.1837000000000002,-42.31401497896325
-0.1847000000000001,-42.3564563179592
-0.1857000000000002,-42.4413389959511
-0.1867000000000001,-42.483780334947056
-0.1877000000000002,-42.568663012938956
-0.1887000000000001,-42.653545690930855
-0.1897000000000002,-42.752575481921404
-0.1907000000000001,-42.87989949890926
-0.1917000000000001,-42.92234083790521
-0.19269999999999998,-43.007223515897124
-0.1937000000000001,-43.09210619388902
-0.19469999999999998,-43.17698887188092
-0.1957000000000001,-43.27601866287147
-0.19669999999999999,-43.36090134086337
-0.1977000000000001,-43.40334267985933
-0.1987,-43.48822535785123
-0.1997000000000001,-43.53066669684718
-0.2007,-43.61554937483908
-0.2017000000000001,-43.70043205283099
-0.2027,-43.79946184382153
-0.2037000000000001,-43.88434452181344
-0.2047,-43.96922719980534
-0.2057000000000001,-44.138992555789144
-0.2067,-44.223875233781044
-0.2077000000000001,-44.3229050247716
-0.2087,-44.45022904175945
-0.2097000000000001,-44.535111719751356
-0.2107,-44.577553058747306
-0.2117000000000001,-44.704877075735155
-0.2127,-44.74731841473111
-0.2137000000000001,-44.84634820572166
-0.2147,-44.97367222270952
-0.2157000000000001,-45.10099623969737
-0.2167,-45.22832025668522
-0.21770000000000012,-45.36979138667173
-0.2187,-45.45467406466363
-0.21970000000000012,-45.624439420647434
-0.2207,-45.79420477663124
-0.22170000000000012,-45.93567590661774
-0.2227,-46.062999923605595
-0.22370000000000012,-46.19032394059345
-0.2247,-46.37423640957591
-0.22570000000000012,-46.45911908756781
-0.2267,-46.628884443551605
-0.22770000000000012,-46.75620846053947
-0.22870000000000001,-46.88353247752732
-0.22970000000000013,-47.02500360751382
-0.23070000000000002,-47.15232762450167
-0.23170000000000013,-47.32209298048547
-0.23270000000000002,-47.506005449467935
-0.23370000000000013,-47.67577080545174
-0.23470000000000002,-47.84553616143554
-0.23570000000000013,-48.114331308409895
-0.23670000000000002,-48.24165532539775
-0.2376999999999999,-48.45386202037751
-0.23870000000000002,-48.63777448935996
-0.2396999999999999,-48.80753984534376
-0.24070000000000003,-48.97730520132757
-0.24169999999999991,-49.16121767031002
-0.24270000000000003,-49.33098302629383
-0.24369999999999992,-49.50074838227763
-0.24470000000000003,-49.72710219025603
-0.24569999999999992,-49.939308885235796
-0.24670000000000003,-50.1656626932142
-0.24769999999999992,-50.42031072718991
-0.24870000000000003,-50.68910587416426
-0.24969999999999992,-50.943753908139975
-0.25070000000000003,-51.17010771611838
-0.2516999999999999,-51.46719708909004
-0.25270000000000004,-51.73599223606439
-0.2536999999999999,-51.990640270040096
-0.25470000000000004,-52.25943541701445
-0.2556999999999999,-52.471642111994214
-0.25670000000000004,-52.74043725896857
-0.25769999999999993,-52.995085292944275
-0.25870000000000004,-53.22143910092268
-0.25969999999999993,-53.518528473894335
-0.26070000000000004,-53.7873236208687
-0.26169999999999993,-54.08441299384035
-0.26270000000000004,-54.39564947981066
-0.26369999999999993,-54.69273885278232
-0.26470000000000005,-55.046416677748574
-0.26569999999999994,-55.400094502714836
-0.26670000000000005,-55.73962521468245
-0.26769999999999994,-56.093303039648696
-0.26870000000000005,-56.44698086461496
-0.26969999999999994,-56.786511576582576
-0.27070000000000005,-57.14018940154883
-0.27169999999999994,-57.45142588751914
-0.27270000000000005,-57.79095659948675
-0.27369999999999994,-58.14463442445301
-0.27470000000000006,-58.498312249419264
-0.27569999999999995,-58.880284300382826
-0.27670000000000006,-59.27640346434504
-0.27769999999999995,-59.67252262830725
-0.27870000000000006,-60.11108313126541
-0.27969999999999995,-60.54964363422357
-0.28070000000000006,-61.01649836317903
-0.28169999999999995,-61.455058866137186
-0.28270000000000006,-61.851178030099405
-0.28369999999999995,-62.37462121104946
-0.28470000000000006,-62.77074037501168
-0.28569999999999995,-63.20930087796983
-0.28670000000000007,-63.6761556069253
-0.28769999999999996,-64.11471610988345
-0.28870000000000007,-64.59571795183757
-0.28969999999999996,-65.03427845479574
-0.29070000000000007,-65.51528029674984
-0.29169999999999996,-65.99628213870396
-0.29270000000000007,-66.51972531965401
-0.29369999999999996,-67.08560983960004
-0.2947000000000001,-67.6090530205501
-0.29569999999999996,-68.17493754049613
-0.2967000000000001,-68.74082206044213
-0.29769999999999996,-69.26426524139221
-0.2987000000000001,-69.8301497613382
-0.29969999999999997,-70.39603428128423
-0.3007000000000001,-70.91947746223428
-0.30169999999999997,-71.48536198218031
-0.3027000000000001,-72.10783495412092
-0.30369999999999997,-72.63127813507097
-0.3047000000000001,-73.23960399401295
-0.30569999999999997,-73.8479298529549
-0.3067000000000001,-74.49869705089283
-0.3077,-75.14946424883075
-0.3087000000000001,-75.77193722077136
-0.3097,-76.46514575770523
-0.3107000000000001,-77.1583542946391
-0.3117,-77.80912149257702
-0.3127000000000001,-78.55891848150549
-0.3137,-79.25212701843935
-0.3147000000000001,-79.94533555537322
-0.3157,-80.69513254430169
-0.3167000000000001,-81.38834108123557
-0.3177,-82.09569673116808
-0.3187000000000001,-82.78890526810196
-0.3197,-83.52455514403178
-0.3207000000000001,-84.23191079396429
-0.3217,-84.96756066989411
-0.3227000000000001,-85.75979899781852
-0.3237,-86.58033155174023
-0.3247000000000001,-87.37256987966467
-0.3257,-88.19310243358639
-0.3267000000000001,-89.02778210050676
-0.3277,-89.80587331543254
-0.3287000000000001,-90.68299432134886
-0.3297,-91.51767398826922
-0.3307000000000001,-92.33820654219093
-0.3317,-93.17288620911131
-0.3327000000000001,-93.99341876303303
-0.3337,-94.8280984299534
-0.3347000000000001,-95.69107232287108
-0.3357,-96.61063466778336
-0.3367000000000001,-97.4877556736997
-0.3377,-98.4497593576079
-0.3387000000000001,-99.35517458952152
-0.3397,-100.31717827342976
-0.3407000000000001,-101.32162329633393
-0.3417,-102.28362698024215
-0.3427000000000001,-103.28807200314633
-0.3437,-104.2076343480586
-0.3447000000000001,-105.21207937096277
-0.3457,-106.11749460287639
-0.3467000000000001,-107.07949828678463
-0.3477,-108.0839433096888
-0.3487000000000001,-109.04594699359701
-0.3497,-110.05039201650122
-0.3507000000000001,-111.05483703940537
-0.3517,-112.10172340130552
-0.3527000000000001,-113.14860976320564
-0.3537,-114.19549612510575
-0.3547000000000001,-115.2423824870059
-0.3557,-116.28926884890602
-0.35670000000000013,-117.42103788879804
-0.3577,-118.51036558969413
-0.35870000000000013,-119.64213462958614
-0.3597,-120.77390366947817
-0.36070000000000013,-121.86323137037427
-0.3617,-122.95255907127036
-0.3626999999999999,-124.09847522416102
-0.3637,-125.23024426405304
-0.3646999999999999,-126.3195719649491
-0.3657,-127.4937823438371
-0.3666999999999999,-128.62555138372915
-0.3677,-129.8563502146117
-0.3686999999999999,-131.03056059349967
-0.36970000000000003,-132.24721231138363
-0.3706999999999999,-133.52045248126214
-0.37170000000000003,-134.73710419914607
-0.3726999999999999,-135.91131457803408
-0.37370000000000003,-137.12796629591801
-0.3746999999999999,-138.3163237878046
-0.37570000000000003,-139.53297550568857
-0.3766999999999999,-140.74962722357247
-0.37770000000000004,-142.03701450644968
-0.3786999999999999,-143.16878354634173
-0.37970000000000004,-144.44202371622026
-0.3806999999999999,-145.7152638860988
-0.38170000000000004,-146.9885040559773
-0.38269999999999993,-148.26174422585584
-0.38370000000000004,-149.53498439573437
-0.38469999999999993,-150.8082245656129
-0.38570000000000004,-152.22293586547795
-0.38669999999999993,-151.7985224755184
-0.38570000000000004,-148.54468648582886
-0.38469999999999993,-145.57379275611228
-0.38370000000000004,-142.8858412863687
-0.38269999999999993,-140.22618404262244
-0.38170000000000004,-137.79288060685457
-0.3806999999999999,-135.43031273607997
-0.37970000000000004,-133.1667746562959
-0.3786999999999999,-131.07300193249566
-0.37770000000000004,-129.0641118866873
-0.3766999999999999,-127.09766317987489
-0.37570000000000003,-125.23024426405304
-0.3746999999999999,-123.39111957422851
-0.37370000000000003,-121.60858333639854
-0.3726999999999999,-119.9109297765605
-0.37170000000000003,-118.1991291037238
-0.3706999999999999,-116.54391688288172
-0.36970000000000003,-114.88870466203963
-0.3686999999999999,-113.23349244119754
-0.3677,-111.6207215593514
-0.3666999999999999,-110.00795067750525
-0.3657,-108.48006247365102
-0.3646999999999999,-106.86729159180487
-0.3637,-105.38184472694657
-0.3626999999999999,-103.85395652309235
-0.3617,-102.41095099723
-0.36070000000000013,-100.92550413237171
-0.3597,-99.49664571950804
-0.35870000000000013,-98.05364019364569
-0.3577,-96.65307600677932
-0.35670000000000013,-95.26665893291157
-0.3557,-93.82365340704924
-0.3547000000000001,-92.4655305591788
-0.3537,-91.03667214631511
-0.3527000000000001,-89.63610795944872
-0.3517,-88.23554377258235
-0.3507000000000001,-86.89156803771054
-0.3497,-85.49100385084417
-0.3487000000000001,-84.13288100297372
-0.3477,-82.8313466070979
-0.3467000000000001,-81.51566509822342
-0.3457,-80.21413070234757
-0.3447000000000001,-78.9550376454677
-0.3437,-77.63935613659322
-0.3427000000000001,-76.38026307971333
-0.3417,-75.06458157083884
-0.3407000000000001,-73.80548851395896
-0.3397,-72.53224834408043
-0.3387000000000001,-71.27315528720055
-0.3377,-69.95747377832606
-0.3367000000000001,-68.65593938245023
-0.3357,-67.39684632557035
-0.3347000000000001,-66.03872347769992
-0.3337,-64.82207175981598
-0.3327000000000001,-63.54883158993744
-0.3317,-62.37462121104946
-0.3307000000000001,-61.20041083216149
-0.3297,-59.9696120012789
-0.3287000000000001,-58.79540162239092
-0.3277,-57.66363258249889
-0.3267000000000001,-56.44698086461496
-0.3257,-55.31521182472294
-0.3247000000000001,-54.1268543328363
-0.3237,-52.95264395394832
-0.3227000000000001,-51.77843357506035
-0.3217,-50.60422319617236
-0.3207000000000001,-49.458307043281685
-0.3197,-48.2840966643937
-0.3187000000000001,-47.10988628550572
-0.3177,-45.97811724561369
-0.3167000000000001,-44.84634820572166
-0.3157,-43.75702050482558
-0.3147000000000001,-42.653545690930855
-0.3137,-41.56421799003478
-0.3127000000000001,-40.4748902891387
-0.3117,-39.38556258824262
-0.3107000000000001,-38.33867622634249
-0.3097,-37.291789864442364
-0.3087000000000001,-36.20246216354629
-0.3077,-35.11313446265021
-0.3067000000000001,-34.02380676175414
-0.30569999999999997,-32.97692039985401
-0.3047000000000001,-31.887592698957924
-0.30369999999999997,-30.88314767605375
-0.3027000000000001,-29.836261314153624
-0.30169999999999997,-28.831816291249446
-0.3007000000000001,-27.869812607341224
-0.29969999999999997,-26.86536758443705
-0.2987000000000001,-25.91751101352747
-0.29769999999999996,-24.95550732961925
-0.2967000000000001,-23.993503645711023
-0.29569999999999996,-23.031499961802798
-0.2947000000000001,-22.069496277894572
-0.29369999999999996,-21.107492593986347
-0.29270000000000007,-20.159636023076775
-0.29169999999999996,-19.197632339168546
-0.29070000000000007,-18.23562865526032
-0.28969999999999996,-17.316066310348052
-0.28870000000000007,-16.396503965435777
-0.28769999999999996,-15.491088733522153
-0.28670000000000007,-14.61396772760583
-0.28569999999999995,-13.741090855589102
-0.28470000000000006,-12.869628694872238
-0.28369999999999995,-12.040607873151327
-0.28270000000000006,-11.1677310011346
-0.28169999999999995,-10.340124890713554
-0.28070000000000006,-9.511104068992642
-0.27969999999999995,-8.68208324727173
-0.27870000000000006,-7.809206375255003
-0.27769999999999995,-6.981600264833956
-0.27670000000000006,-6.152579443113044
-0.27569999999999995,-5.323558621392133
-0.27470000000000006,-4.494537799671222
-0.27369999999999994,-3.6655169779503103
-0.27270000000000005,-2.8803522065252145
-0.27169999999999994,-2.095187435100119
-0.27070000000000005,-1.3543031273607997
-0.26969999999999994,-0.6128529351015338
-0.26870000000000005,0.17231183632356148
-0.26769999999999994,0.870188920546984
-0.26670000000000005,1.6113561705462767
-0.26569999999999994,2.352664891675556
