Mar. 7, 2025   01:04:35
Cyclic Voltammetry
File: c:/users/guazh/data/banditlqround7_x0exp169_r20_3/2025-03-03-exp893\exp893-2025-03-07t00_57_59-arkoh\exp893_cv_sr_300mvs_efin_-1400mv.bin
Data Source:  Experiment
Instrument Model:  CHI760E
Header: CV ran at 300 mVs
Note: 

Init E (V) = -1
High E (V) = -1
Low E (V) = -1.4
Final E (V) = -1
Init P/N = N
Scan Rate (V/s) = 0.3
Segment = 3
Sample Interval (V) = 0.001
Quiet Time (sec) = 2
Sensitivity (A/V) = 0.01
Comp R (ohm) = 1.6

Results:

Channel 1:
Segment 1:

Segment 2:

Segment 3:

Potential/V, Current/A

-1.000, 4.024e-5
-1.001, 1.882e-4
-1.002, 3.054e-4
-1.003, 4.010e-4
-1.004, 4.780e-4
-1.005, 5.459e-4
-1.006, 6.106e-4
-1.007, 6.630e-4
-1.008, 7.000e-4
-1.009, 7.309e-4
-1.010, 7.617e-4
-1.011, 7.925e-4
-1.012, 8.203e-4
-1.013, 8.357e-4
-1.014, 8.480e-4
-1.015, 8.634e-4
-1.016, 8.788e-4
-1.017, 8.912e-4
-1.018, 8.943e-4
-1.019, 9.035e-4
-1.020, 9.097e-4
-1.021, 9.189e-4
-1.022, 9.282e-4
-1.023, 9.282e-4
-1.024, 9.313e-4
-1.025, 9.374e-4
-1.026, 9.436e-4
-1.027, 9.498e-4
-1.028, 9.467e-4
-1.029, 9.436e-4
-1.030, 9.467e-4
-1.031, 9.498e-4
-1.032, 9.559e-4
-1.033, 9.559e-4
-1.034, 9.528e-4
-1.035, 9.528e-4
-1.036, 9.590e-4
-1.037, 9.621e-4
-1.038, 9.621e-4
-1.039, 9.559e-4
-1.040, 9.559e-4
-1.041, 9.621e-4
-1.042, 9.621e-4
-1.043, 9.621e-4
-1.044, 9.590e-4
-1.045, 9.590e-4
-1.046, 9.621e-4
-1.047, 9.652e-4
-1.048, 9.621e-4
-1.049, 9.590e-4
-1.050, 9.621e-4
-1.051, 9.652e-4
-1.052, 9.683e-4
-1.053, 9.652e-4
-1.054, 9.621e-4
-1.055, 9.621e-4
-1.056, 9.652e-4
-1.057, 9.713e-4
-1.058, 9.683e-4
-1.059, 9.621e-4
-1.060, 9.652e-4
-1.061, 9.683e-4
-1.062, 9.713e-4
-1.063, 9.713e-4
-1.064, 9.652e-4
-1.065, 9.652e-4
-1.066, 9.683e-4
-1.067, 9.713e-4
-1.068, 9.713e-4
-1.069, 9.652e-4
-1.070, 9.652e-4
-1.071, 9.713e-4
-1.072, 9.744e-4
-1.073, 9.713e-4
-1.074, 9.652e-4
-1.075, 9.683e-4
-1.076, 9.744e-4
-1.077, 9.744e-4
-1.078, 9.744e-4
-1.079, 9.683e-4
-1.080, 9.683e-4
-1.081, 9.744e-4
-1.082, 9.775e-4
-1.083, 9.744e-4
-1.084, 9.713e-4
-1.085, 9.713e-4
-1.086, 9.744e-4
-1.087, 9.775e-4
-1.088, 9.775e-4
-1.089, 9.744e-4
-1.090, 9.744e-4
-1.091, 9.775e-4
-1.092, 9.837e-4
-1.093, 9.775e-4
-1.094, 9.744e-4
-1.095, 9.744e-4
-1.096, 9.775e-4
-1.097, 9.806e-4
-1.098, 9.775e-4
-1.099, 9.713e-4
-1.100, 9.713e-4
-1.101, 9.775e-4
-1.102, 9.806e-4
-1.103, 9.806e-4
-1.104, 9.744e-4
-1.105, 9.775e-4
-1.106, 9.806e-4
-1.107, 9.837e-4
-1.108, 9.837e-4
-1.109, 9.775e-4
-1.110, 9.806e-4
-1.111, 9.837e-4
-1.112, 9.868e-4
-1.113, 9.837e-4
-1.114, 9.806e-4
-1.115, 9.806e-4
-1.116, 9.868e-4
-1.117, 9.898e-4
-1.118, 9.868e-4
-1.119, 9.837e-4
-1.120, 9.868e-4
-1.121, 9.898e-4
-1.122, 9.929e-4
-1.123, 9.929e-4
-1.124, 9.898e-4
-1.125, 9.898e-4
-1.126, 9.929e-4
-1.127, 9.991e-4
-1.128, 9.960e-4
-1.129, 9.929e-4
-1.130, 9.929e-4
-1.131, 9.991e-4
-1.132, 1.002e-3
-1.133, 9.991e-4
-1.134, 9.960e-4
-1.135, 9.960e-4
-1.136, 1.002e-3
-1.137, 1.005e-3
-1.138, 1.002e-3
-1.139, 9.991e-4
-1.140, 9.991e-4
-1.141, 1.005e-3
-1.142, 1.008e-3
-1.143, 1.005e-3
-1.144, 1.005e-3
-1.145, 1.005e-3
-1.146, 1.011e-3
-1.147, 1.014e-3
-1.148, 1.014e-3
-1.149, 1.011e-3
-1.150, 1.014e-3
-1.151, 1.021e-3
-1.152, 1.021e-3
-1.153, 1.021e-3
-1.154, 1.018e-3
-1.155, 1.018e-3
-1.156, 1.024e-3
-1.157, 1.030e-3
-1.158, 1.027e-3
-1.159, 1.024e-3
-1.160, 1.027e-3
-1.161, 1.033e-3
-1.162, 1.036e-3
-1.163, 1.036e-3
-1.164, 1.033e-3
-1.165, 1.036e-3
-1.166, 1.042e-3
-1.167, 1.048e-3
-1.168, 1.045e-3
-1.169, 1.045e-3
-1.170, 1.045e-3
-1.171, 1.055e-3
-1.172, 1.058e-3
-1.173, 1.058e-3
-1.174, 1.055e-3
-1.175, 1.058e-3
-1.176, 1.067e-3
-1.177, 1.073e-3
-1.178, 1.073e-3
-1.179, 1.070e-3
-1.180, 1.073e-3
-1.181, 1.079e-3
-1.182, 1.085e-3
-1.183, 1.085e-3
-1.184, 1.082e-3
-1.185, 1.085e-3
-1.186, 1.092e-3
-1.187, 1.098e-3
-1.188, 1.098e-3
-1.189, 1.098e-3
-1.190, 1.104e-3
-1.191, 1.113e-3
-1.192, 1.119e-3
-1.193, 1.122e-3
-1.194, 1.119e-3
-1.195, 1.125e-3
-1.196, 1.132e-3
-1.197, 1.141e-3
-1.198, 1.141e-3
-1.199, 1.141e-3
-1.200, 1.144e-3
-1.201, 1.156e-3
-1.202, 1.162e-3
-1.203, 1.162e-3
-1.204, 1.166e-3
-1.205, 1.172e-3
-1.206, 1.181e-3
-1.207, 1.190e-3
-1.208, 1.193e-3
-1.209, 1.196e-3
-1.210, 1.203e-3
-1.211, 1.212e-3
-1.212, 1.221e-3
-1.213, 1.227e-3
-1.214, 1.230e-3
-1.215, 1.236e-3
-1.216, 1.249e-3
-1.217, 1.258e-3
-1.218, 1.264e-3
-1.219, 1.267e-3
-1.220, 1.277e-3
-1.221, 1.289e-3
-1.222, 1.301e-3
-1.223, 1.304e-3
-1.224, 1.310e-3
-1.225, 1.320e-3
-1.226, 1.332e-3
-1.227, 1.344e-3
-1.228, 1.351e-3
-1.229, 1.360e-3
-1.230, 1.372e-3
-1.231, 1.384e-3
-1.232, 1.397e-3
-1.233, 1.406e-3
-1.234, 1.412e-3
-1.235, 1.425e-3
-1.236, 1.443e-3
-1.237, 1.458e-3
-1.238, 1.468e-3
-1.239, 1.477e-3
-1.240, 1.489e-3
-1.241, 1.505e-3
-1.242, 1.523e-3
-1.243, 1.532e-3
-1.244, 1.545e-3
-1.245, 1.560e-3
-1.246, 1.582e-3
-1.247, 1.600e-3
-1.248, 1.613e-3
-1.249, 1.628e-3
-1.250, 1.643e-3
-1.251, 1.665e-3
-1.252, 1.687e-3
-1.253, 1.699e-3
-1.254, 1.714e-3
-1.255, 1.733e-3
-1.256, 1.754e-3
-1.257, 1.776e-3
-1.258, 1.795e-3
-1.259, 1.810e-3
-1.260, 1.828e-3
-1.261, 1.856e-3
-1.262, 1.881e-3
-1.263, 1.896e-3
-1.264, 1.915e-3
-1.265, 1.939e-3
-1.266, 1.967e-3
-1.267, 1.995e-3
-1.268, 2.017e-3
-1.269, 2.035e-3
-1.270, 2.063e-3
-1.271, 2.094e-3
-1.272, 2.121e-3
-1.273, 2.146e-3
-1.274, 2.171e-3
-1.275, 2.198e-3
-1.276, 2.232e-3
-1.277, 2.266e-3
-1.278, 2.294e-3
-1.279, 2.319e-3
-1.280, 2.353e-3
-1.281, 2.390e-3
-1.282, 2.420e-3
-1.283, 2.448e-3
-1.284, 2.473e-3
-1.285, 2.507e-3
-1.286, 2.544e-3
-1.287, 2.578e-3
-1.288, 2.608e-3
-1.289, 2.639e-3
-1.290, 2.673e-3
-1.291, 2.716e-3
-1.292, 2.756e-3
-1.293, 2.790e-3
-1.294, 2.827e-3
-1.295, 2.867e-3
-1.296, 2.914e-3
-1.297, 2.957e-3
-1.298, 2.997e-3
-1.299, 3.037e-3
-1.300, 3.080e-3
-1.301, 3.130e-3
-1.302, 3.173e-3
-1.303, 3.216e-3
-1.304, 3.256e-3
-1.305, 3.302e-3
-1.306, 3.351e-3
-1.307, 3.401e-3
-1.308, 3.447e-3
-1.309, 3.490e-3
-1.310, 3.540e-3
-1.311, 3.595e-3
-1.312, 3.647e-3
-1.313, 3.694e-3
-1.314, 3.740e-3
-1.315, 3.792e-3
-1.316, 3.851e-3
-1.317, 3.906e-3
-1.318, 3.965e-3
-1.319, 4.017e-3
-1.320, 4.076e-3
-1.321, 4.138e-3
-1.322, 4.196e-3
-1.323, 4.255e-3
-1.324, 4.310e-3
-1.325, 4.369e-3
-1.326, 4.431e-3
-1.327, 4.495e-3
-1.328, 4.551e-3
-1.329, 4.609e-3
-1.330, 4.671e-3
-1.331, 4.739e-3
-1.332, 4.801e-3
-1.333, 4.859e-3
-1.334, 4.921e-3
-1.335, 4.986e-3
-1.336, 5.056e-3
-1.337, 5.124e-3
-1.338, 5.192e-3
-1.339, 5.257e-3
-1.340, 5.328e-3
-1.341, 5.399e-3
-1.342, 5.470e-3
-1.343, 5.537e-3
-1.344, 5.602e-3
-1.345, 5.673e-3
-1.346, 5.747e-3
-1.347, 5.821e-3
-1.348, 5.895e-3
-1.349, 5.963e-3
-1.350, 6.040e-3
-1.351, 6.120e-3
-1.352, 6.197e-3
-1.353, 6.271e-3
-1.354, 6.345e-3
-1.355, 6.422e-3
-1.356, 6.506e-3
-1.357, 6.589e-3
-1.358, 6.669e-3
-1.359, 6.746e-3
-1.360, 6.823e-3
-1.361, 6.909e-3
-1.362, 6.996e-3
-1.363, 7.079e-3
-1.364, 7.162e-3
-1.365, 7.249e-3
-1.366, 7.338e-3
-1.367, 7.424e-3
-1.368, 7.508e-3
-1.369, 7.591e-3
-1.370, 7.674e-3
-1.371, 7.763e-3
-1.372, 7.847e-3
-1.373, 7.927e-3
-1.374, 8.010e-3
-1.375, 8.096e-3
-1.376, 8.186e-3
-1.377, 8.272e-3
-1.378, 8.352e-3
-1.379, 8.432e-3
-1.380, 8.525e-3
-1.381, 8.621e-3
-1.382, 8.716e-3
-1.383, 8.806e-3
-1.384, 8.889e-3
-1.385, 8.978e-3
-1.386, 9.077e-3
-1.387, 9.172e-3
-1.388, 9.262e-3
-1.389, 9.351e-3
-1.390, 9.450e-3
-1.391, 9.558e-3
-1.392, 9.660e-3
-1.393, 9.752e-3
-1.394, 9.845e-3
-1.395, 9.946e-3
-1.396, 1.005e-2
-1.397, 1.014e-2
-1.398, 1.023e-2
-1.399, 1.032e-2
-1.400, 1.030e-2
-1.399, 1.011e-2
-1.398, 9.946e-3
-1.397, 9.798e-3
-1.396, 9.663e-3
-1.395, 9.542e-3
-1.394, 9.425e-3
-1.393, 9.314e-3
-1.392, 9.197e-3
-1.391, 9.080e-3
-1.390, 8.972e-3
-1.389, 8.873e-3
-1.388, 8.775e-3
-1.387, 8.673e-3
-1.386, 8.571e-3
-1.385, 8.473e-3
-1.384, 8.377e-3
-1.383, 8.278e-3
-1.382, 8.177e-3
-1.381, 8.075e-3
-1.380, 7.976e-3
-1.379, 7.881e-3
-1.378, 7.785e-3
-1.377, 7.689e-3
-1.376, 7.591e-3
-1.375, 7.495e-3
-1.374, 7.406e-3
-1.373, 7.313e-3
-1.372, 7.212e-3
-1.371, 7.113e-3
-1.370, 7.014e-3
-1.369, 6.919e-3
-1.368, 6.823e-3
-1.367, 6.721e-3
-1.366, 6.623e-3
-1.365, 6.527e-3
-1.364, 6.438e-3
-1.363, 6.348e-3
-1.362, 6.253e-3
-1.361, 6.160e-3
-1.360, 6.077e-3
-1.359, 5.994e-3
-1.358, 5.910e-3
-1.357, 5.821e-3
-1.356, 5.735e-3
-1.355, 5.658e-3
-1.354, 5.578e-3
-1.353, 5.494e-3
-1.352, 5.411e-3
-1.351, 5.322e-3
-1.350, 5.238e-3
-1.349, 5.161e-3
-1.348, 5.081e-3
-1.347, 4.995e-3
-1.346, 4.912e-3
-1.345, 4.831e-3
-1.344, 4.757e-3
-1.343, 4.680e-3
-1.342, 4.600e-3
-1.341, 4.520e-3
-1.340, 4.440e-3
-1.339, 4.366e-3
-1.338, 4.292e-3
-1.337, 4.212e-3
-1.336, 4.135e-3
-1.335, 4.061e-3
-1.334, 3.993e-3
-1.333, 3.922e-3
-1.332, 3.851e-3
-1.331, 3.777e-3
-1.330, 3.709e-3
-1.329, 3.641e-3
-1.328, 3.577e-3
-1.327, 3.503e-3
-1.326, 3.429e-3
-1.325, 3.364e-3
-1.324, 3.302e-3
-1.323, 3.237e-3
-1.322, 3.163e-3
-1.321, 3.093e-3
-1.320, 3.028e-3
-1.319, 2.969e-3
-1.318, 2.904e-3
-1.317, 2.837e-3
-1.316, 2.769e-3
-1.315, 2.704e-3
-1.314, 2.645e-3
-1.313, 2.587e-3
-1.312, 2.522e-3
-1.311, 2.454e-3
-1.310, 2.396e-3
-1.309, 2.340e-3
-1.308, 2.285e-3
-1.307, 2.226e-3
-1.306, 2.164e-3
-1.305, 2.109e-3
-1.304, 2.060e-3
-1.303, 2.004e-3
-1.302, 1.949e-3
-1.301, 1.890e-3
-1.300, 1.838e-3
-1.299, 1.791e-3
-1.298, 1.742e-3
-1.297, 1.687e-3
-1.296, 1.631e-3
-1.295, 1.582e-3
-1.294, 1.536e-3
-1.293, 1.489e-3
-1.292, 1.440e-3
-1.291, 1.388e-3
-1.290, 1.341e-3
-1.289, 1.295e-3
-1.288, 1.255e-3
-1.287, 1.206e-3
-1.286, 1.159e-3
-1.285, 1.116e-3
-1.284, 1.076e-3
-1.283, 1.036e-3
-1.282, 9.898e-4
-1.281, 9.436e-4
-1.280, 9.004e-4
-1.279, 8.634e-4
-1.278, 8.264e-4
-1.277, 7.833e-4
-1.276, 7.370e-4
-1.275, 7.031e-4
-1.274, 6.661e-4
-1.273, 6.322e-4
-1.272, 5.921e-4
-1.271, 5.520e-4
-1.270, 5.150e-4
-1.269, 4.873e-4
-1.268, 4.503e-4
-1.267, 4.133e-4
-1.266, 3.794e-4
-1.265, 3.455e-4
-1.264, 3.208e-4
-1.263, 2.900e-4
-1.262, 2.530e-4
-1.261, 2.191e-4
-1.260, 1.882e-4
-1.259, 1.636e-4
-1.258, 1.358e-4
-1.257, 1.050e-4
-1.256, 7.107e-5
-1.255, 4.332e-5
-1.254, 2.174e-5
-1.253, -6.010e-6
-1.252, -3.376e-5
-1.251, -6.459e-5
-1.250, -8.925e-5
-1.249, -1.108e-4
-1.248, -1.324e-4
-1.247, -1.602e-4
-1.246, -1.848e-4
-1.245, -2.095e-4
-1.244, -2.280e-4
-1.243, -2.465e-4
-1.242, -2.742e-4
-1.241, -2.989e-4
-1.240, -3.174e-4
-1.239, -3.359e-4
-1.238, -3.513e-4
-1.237, -3.760e-4
-1.236, -3.976e-4
-1.235, -4.161e-4
-1.234, -4.284e-4
-1.233, -4.469e-4
-1.232, -4.685e-4
-1.231, -4.901e-4
-1.230, -5.055e-4
-1.229, -5.209e-4
-1.228, -5.363e-4
-1.227, -5.548e-4
-1.226, -5.702e-4
-1.225, -5.856e-4
-1.224, -5.949e-4
-1.223, -6.072e-4
-1.222, -6.257e-4
-1.221, -6.442e-4
-1.220, -6.565e-4
-1.219, -6.658e-4
-1.218, -6.750e-4
-1.217, -6.935e-4
-1.216, -7.090e-4
-1.215, -7.182e-4
-1.214, -7.244e-4
-1.213, -7.336e-4
-1.212, -7.490e-4
-1.211, -7.614e-4
-1.210, -7.706e-4
-1.209, -7.768e-4
-1.208, -7.830e-4
-1.207, -7.984e-4
-1.206, -8.107e-4
-1.205, -8.169e-4
-1.204, -8.230e-4
-1.203, -8.292e-4
-1.202, -8.385e-4
-1.201, -8.539e-4
-1.200, -8.600e-4
-1.199, -8.631e-4
-1.198, -8.693e-4
-1.197, -8.785e-4
-1.196, -8.909e-4
-1.195, -8.970e-4
-1.194, -9.001e-4
-1.193, -9.063e-4
-1.192, -9.124e-4
-1.191, -9.248e-4
-1.190, -9.309e-4
-1.189, -9.309e-4
-1.188, -9.371e-4
-1.187, -9.433e-4
-1.186, -9.525e-4
-1.185, -9.556e-4
-1.184, -9.556e-4
-1.183, -9.587e-4
-1.182, -9.679e-4
-1.181, -9.741e-4
-1.180, -9.803e-4
-1.179, -9.772e-4
-1.178, -9.834e-4
-1.177, -9.895e-4
-1.176, -9.988e-4
-1.175, -9.988e-4
-1.174, -9.988e-4
-1.173, -1.002e-3
-1.172, -1.011e-3
-1.171, -1.014e-3
-1.170, -1.017e-3
-1.169, -1.017e-3
-1.168, -1.017e-3
-1.167, -1.023e-3
-1.166, -1.030e-3
-1.165, -1.030e-3
-1.164, -1.030e-3
-1.163, -1.030e-3
-1.162, -1.036e-3
-1.161, -1.039e-3
-1.160, -1.042e-3
-1.159, -1.039e-3
-1.158, -1.039e-3
-1.157, -1.045e-3
-1.156, -1.048e-3
-1.155, -1.051e-3
-1.154, -1.045e-3
-1.153, -1.045e-3
-1.152, -1.051e-3
-1.151, -1.054e-3
-1.150, -1.054e-3
-1.149, -1.054e-3
-1.148, -1.054e-3
-1.147, -1.060e-3
-1.146, -1.064e-3
-1.145, -1.064e-3
-1.144, -1.060e-3
-1.143, -1.060e-3
-1.142, -1.067e-3
-1.141, -1.070e-3
-1.140, -1.070e-3
-1.139, -1.067e-3
-1.138, -1.067e-3
-1.137, -1.070e-3
-1.136, -1.073e-3
-1.135, -1.076e-3
-1.134, -1.073e-3
-1.133, -1.070e-3
-1.132, -1.076e-3
-1.131, -1.079e-3
-1.130, -1.079e-3
-1.129, -1.076e-3
-1.128, -1.076e-3
-1.127, -1.079e-3
-1.126, -1.082e-3
-1.125, -1.085e-3
-1.124, -1.079e-3
-1.123, -1.079e-3
-1.122, -1.082e-3
-1.121, -1.088e-3
-1.120, -1.085e-3
-1.119, -1.082e-3
-1.118, -1.082e-3
-1.117, -1.085e-3
-1.116, -1.088e-3
-1.115, -1.088e-3
-1.114, -1.082e-3
-1.113, -1.082e-3
-1.112, -1.085e-3
-1.111, -1.091e-3
-1.110, -1.088e-3
-1.109, -1.085e-3
-1.108, -1.082e-3
-1.107, -1.088e-3
-1.106, -1.091e-3
-1.105, -1.091e-3
-1.104, -1.088e-3
-1.103, -1.085e-3
-1.102, -1.091e-3
-1.101, -1.094e-3
-1.100, -1.094e-3
-1.099, -1.091e-3
-1.098, -1.088e-3
-1.097, -1.091e-3
-1.096, -1.097e-3
-1.095, -1.097e-3
-1.094, -1.091e-3
-1.093, -1.091e-3
-1.092, -1.094e-3
-1.091, -1.097e-3
-1.090, -1.097e-3
-1.089, -1.091e-3
-1.088, -1.091e-3
-1.087, -1.094e-3
-1.086, -1.101e-3
-1.085, -1.101e-3
-1.084, -1.097e-3
-1.083, -1.094e-3
-1.082, -1.097e-3
-1.081, -1.104e-3
-1.080, -1.101e-3
-1.079, -1.097e-3
-1.078, -1.094e-3
-1.077, -1.101e-3
-1.076, -1.104e-3
-1.075, -1.104e-3
-1.074, -1.101e-3
-1.073, -1.101e-3
-1.072, -1.104e-3
-1.071, -1.107e-3
-1.070, -1.107e-3
-1.069, -1.101e-3
-1.068, -1.101e-3
-1.067, -1.104e-3
-1.066, -1.107e-3
-1.065, -1.104e-3
-1.064, -1.101e-3
-1.063, -1.101e-3
-1.062, -1.107e-3
-1.061, -1.107e-3
-1.060, -1.110e-3
-1.059, -1.107e-3
-1.058, -1.104e-3
-1.057, -1.110e-3
-1.056, -1.113e-3
-1.055, -1.113e-3
-1.054, -1.110e-3
-1.053, -1.107e-3
-1.052, -1.113e-3
-1.051, -1.116e-3
-1.050, -1.113e-3
-1.049, -1.113e-3
-1.048, -1.110e-3
-1.047, -1.113e-3
-1.046, -1.119e-3
-1.045, -1.116e-3
-1.044, -1.116e-3
-1.043, -1.116e-3
-1.042, -1.119e-3
-1.041, -1.122e-3
-1.040, -1.122e-3
-1.039, -1.119e-3
-1.038, -1.119e-3
-1.037, -1.125e-3
-1.036, -1.128e-3
-1.035, -1.128e-3
-1.034, -1.125e-3
-1.033, -1.125e-3
-1.032, -1.128e-3
-1.031, -1.131e-3
-1.030, -1.131e-3
-1.029, -1.128e-3
-1.028, -1.125e-3
-1.027, -1.131e-3
-1.026, -1.134e-3
-1.025, -1.134e-3
-1.024, -1.131e-3
-1.023, -1.131e-3
-1.022, -1.134e-3
-1.021, -1.138e-3
-1.020, -1.138e-3
-1.019, -1.134e-3
-1.018, -1.134e-3
-1.017, -1.138e-3
-1.016, -1.141e-3
-1.015, -1.144e-3
-1.014, -1.141e-3
-1.013, -1.141e-3
-1.012, -1.147e-3
-1.011, -1.150e-3
-1.010, -1.150e-3
-1.009, -1.147e-3
-1.008, -1.147e-3
-1.007, -1.153e-3
-1.006, -1.159e-3
-1.005, -1.159e-3
-1.004, -1.156e-3
-1.003, -1.156e-3
-1.002, -1.162e-3
-1.001, -1.168e-3
