Potential V vs RHE, Current mA cm-2
0.013299999999999867,-0.6564260431373771
0.012299999999999978,-2.8803522065252145
0.011299999999999866,-4.887827541033701
0.010299999999999976,-6.719878674358924
0.009299999999999864,-8.376505606500881
0.008299999999999974,-9.85912304875944
0.007299999999999862,-11.1677310011346
0.006299999999999972,-12.390041564217992
0.00529999999999986,-13.523225315409885
0.0042999999999999705,-14.57152638860988
0.0032999999999998586,-15.575971411514052
0.0022999999999999687,-16.495533756426326
0.0012999999999998568,-17.316066310348052
0.00029999999999996696,-18.06586329927652
-0.000700000000000145,-18.80151317520634
-0.0017000000000000348,-19.409839034148305
-0.0027000000000001467,-19.93328221509837
-0.0037000000000000366,-20.414284057052477
-0.0047000000000001485,-20.89528589900659
-0.005700000000000038,-21.333846401964752
-0.00670000000000015,-21.772406904922917
-0.00770000000000004,-22.15437895588647
-0.008700000000000152,-22.550498119848687
-0.009700000000000042,-22.861734605818995
-0.010700000000000154,-23.15882397879065
-0.011700000000000044,-23.427619125765005
-0.012700000000000156,-23.639825820744765
-0.013700000000000045,-23.823738289727217
-0.014700000000000157,-24.035944984706973
-0.015700000000000047,-24.20571034069078
-0.01670000000000016,-24.389622809673234
-0.01770000000000005,-24.601829504652986
-0.01870000000000016,-24.771594860636792
-0.01970000000000005,-24.95550732961925
-0.020700000000000163,-25.0828313466071
-0.021700000000000053,-25.12527268560305
-0.022700000000000164,-25.252596702590903
-0.023700000000000054,-25.295038041586857
-0.024700000000000166,-25.39406783257741
-0.025700000000000056,-25.478950510569312
-0.026700000000000168,-25.60627452755716
-0.027700000000000058,-25.691157205549064
-0.02870000000000017,-25.77603988354097
-0.02970000000000006,-25.91751101352747
-0.03070000000000017,-26.002393691519377
-0.03170000000000006,-26.002393691519377
-0.03270000000000017,-26.044835030515326
-0.03370000000000006,-26.044835030515326
-0.034700000000000175,-26.087276369511276
-0.035700000000000065,-26.129717708507226
-0.03670000000000018,-26.21460038649913
-0.03770000000000007,-26.257041725495082
-0.03870000000000018,-26.34192440348698
-0.03970000000000007,-26.440954194477534
-0.04070000000000018,-26.483395533473487
-0.04170000000000007,-26.483395533473487
-0.04270000000000018,-26.483395533473487
-0.04370000000000007,-26.483395533473487
-0.044700000000000184,-26.440954194477534
-0.045700000000000074,-26.483395533473487
-0.046700000000000186,-26.525836872469437
-0.047700000000000076,-26.525836872469437
-0.04870000000000019,-26.568278211465387
-0.04970000000000008,-26.61071955046134
-0.05070000000000019,-26.61071955046134
-0.05170000000000008,-26.61071955046134
-0.05270000000000019,-26.61071955046134
-0.05370000000000008,-26.568278211465387
-0.05470000000000019,-26.568278211465387
-0.05570000000000008,-26.568278211465387
-0.056700000000000195,-26.61071955046134
-0.057700000000000085,-26.65316088945729
-0.058700000000000196,-26.69560222845324
-0.059700000000000086,-26.69560222845324
-0.0607000000000002,-26.738043567449193
-0.06170000000000009,-26.738043567449193
-0.0627000000000002,-26.780484906445146
-0.06370000000000009,-26.69560222845324
-0.0647000000000002,-26.69560222845324
-0.06570000000000009,-26.69560222845324
-0.0667000000000002,-26.738043567449193
-0.0677000000000001,-26.738043567449193
-0.0687000000000002,-26.822926245441096
-0.0697000000000001,-26.822926245441096
-0.07070000000000021,-26.822926245441096
-0.0717000000000001,-26.822926245441096
-0.07270000000000021,-26.822926245441096
-0.0737000000000001,-26.780484906445146
-0.07470000000000021,-26.780484906445146
-0.0757000000000001,-26.822926245441096
-0.07670000000000021,-26.822926245441096
-0.0777000000000001,-26.86536758443705
-0.07870000000000021,-26.907808923433
-0.0797000000000001,-26.907808923433
-0.08070000000000022,-26.9643973754276
-0.0817000000000001,-26.9643973754276
-0.08270000000000022,-26.9643973754276
-0.08370000000000011,-26.907808923433
-0.08470000000000022,-26.907808923433
-0.08570000000000011,-26.907808923433
-0.08670000000000022,-26.9643973754276
-0.08770000000000011,-26.9643973754276
-0.08870000000000022,-27.049280053419505
-0.08970000000000011,-27.091721392415455
-0.09070000000000022,-27.091721392415455
-0.09170000000000011,-27.049280053419505
-0.09270000000000023,-27.049280053419505
-0.09370000000000012,-27.00683871442355
-0.09470000000000023,-27.00683871442355
-0.09570000000000012,-27.00683871442355
-0.09670000000000023,-27.049280053419505
-0.09770000000000012,-27.091721392415455
-0.09870000000000023,-27.134162731411404
-0.09970000000000012,-27.134162731411404
-0.10070000000000023,-27.176604070407354
-0.10170000000000012,-27.134162731411404
-0.10270000000000024,-27.134162731411404
-0.10370000000000013,-27.134162731411404
-0.10470000000000024,-27.134162731411404
-0.10570000000000013,-27.134162731411404
-0.10670000000000024,-27.134162731411404
-0.10770000000000013,-27.176604070407354
-0.10870000000000024,-27.219045409403304
-0.10970000000000013,-27.219045409403304
-0.11070000000000024,-27.261486748399253
-0.11170000000000013,-27.219045409403304
-0.11270000000000002,-27.219045409403304
-0.11370000000000013,-27.176604070407354
-0.11470000000000002,-27.176604070407354
-0.11570000000000014,-27.176604070407354
-0.11670000000000003,-27.176604070407354
-0.11770000000000014,-27.261486748399253
-0.11870000000000003,-27.303928087395207
-0.11970000000000014,-27.303928087395207
-0.12070000000000003,-27.34636942639116
-0.12170000000000014,-27.34636942639116
-0.12270000000000003,-27.303928087395207
-0.12370000000000014,-27.303928087395207
-0.12470000000000003,-27.303928087395207
-0.12570000000000014,-27.303928087395207
-0.12670000000000003,-27.38881076538711
-0.12770000000000015,-27.38881076538711
-0.12870000000000004,-27.487840556377662
-0.12970000000000015,-27.487840556377662
-0.13070000000000004,-27.530281895373616
-0.13170000000000015,-27.530281895373616
-0.13270000000000004,-27.530281895373616
-0.13370000000000015,-27.530281895373616
-0.13470000000000004,-27.530281895373616
-0.13570000000000015,-27.530281895373616
-0.13670000000000004,-27.615164573365515
-0.13770000000000016,-27.65760591236147
-0.13870000000000005,-27.700047251357418
-0.13970000000000016,-27.78492992934932
-0.14070000000000005,-27.827371268345274
-0.14170000000000016,-27.78492992934932
-0.14270000000000005,-27.827371268345274
-0.14370000000000016,-27.78492992934932
-0.14470000000000005,-27.827371268345274
-0.14570000000000016,-27.827371268345274
-0.14670000000000005,-27.869812607341224
-0.14770000000000016,-27.954695285333123
-0.14870000000000005,-28.011283737327723
-0.14970000000000017,-28.05372507632368
-0.15070000000000006,-28.09616641531963
-0.15170000000000017,-28.09616641531963
-0.15270000000000006,-28.09616641531963
-0.15370000000000017,-28.09616641531963
-0.15470000000000006,-28.09616641531963
-0.15570000000000017,-28.13860775431558
-0.15670000000000006,-28.18104909331153
-0.15770000000000017,-28.22349043230748
-0.15870000000000006,-28.308373110299385
-0.15970000000000018,-28.350814449295335
-0.16070000000000007,-28.393255788291288
-0.16170000000000018,-28.393255788291288
-0.16270000000000007,-28.435697127287238
-0.16370000000000018,-28.435697127287238
-0.16470000000000007,-28.478138466283188
-0.16570000000000018,-28.53472691827779
-0.16670000000000007,-28.577168257273744
-0.16770000000000018,-28.619609596269694
-0.16870000000000007,-28.704492274261593
-0.16970000000000018,-28.789374952253496
-0.17070000000000007,-28.789374952253496
-0.17170000000000019,-28.831816291249446
-0.17270000000000008,-28.831816291249446
-0.1737000000000002,-28.831816291249446
-0.17470000000000008,-28.8742576302454
-0.1757000000000002,-28.91669896924135
-0.17670000000000008,-29.001581647233255
-0.1777000000000002,-29.058170099227848
-0.17870000000000008,-29.14305277721976
-0.1797000000000002,-29.22793545521166
-0.18070000000000008,-29.31281813320356
-0.1817000000000002,-29.35525947219951
-0.18270000000000008,-29.39770081119546
-0.1837000000000002,-29.39770081119546
-0.1847000000000001,-29.482583489187363
-0.1857000000000002,-29.525024828183312
-0.1867000000000001,-29.62405461917387
-0.1877000000000002,-29.708937297165768
-0.1887000000000001,-29.836261314153624
-0.1897000000000002,-29.878702653149578
-0.1907000000000001,-30.00602667013743
-0.1917000000000001,-30.04846800913338
-0.19269999999999998,-30.04846800913338
-0.1937000000000001,-30.10505646112798
-0.19469999999999998,-30.189939139119886
-0.1957000000000001,-30.274821817111786
-0.19669999999999999,-30.359704495103685
-0.1977000000000001,-30.487028512091538
-0.1987,-30.614352529079397
-0.1997000000000001,-30.71338232006995
-0.2007,-30.79826499806185
-0.2017000000000001,-30.88314767605375
-0.2027,-30.968030354045652
-0.2037000000000001,-31.010471693041605
-0.2047,-31.095354371033505
-0.2057000000000001,-31.19438416202406
-0.2067,-31.36414951800786
-0.2077000000000001,-31.449032195999767
-0.2087,-31.618797551983565
-0.2097000000000001,-31.76026868197007
-0.2107,-31.84515135996197
-0.2117000000000001,-31.930034037953877
-0.2127,-32.01491671594578
-0.2137000000000001,-32.05735805494172
-0.2147,-32.184682071929586
-0.2157000000000001,-32.368594540912035
-0.2167,-32.49591855789989
-0.21770000000000012,-32.66568391388369
-0.2187,-32.807155043870196
-0.21970000000000012,-32.97692039985401
-0.2207,-33.10424441684186
-0.22170000000000012,-33.18912709483376
-0.2227,-33.330598224820264
-0.22370000000000012,-33.45792224180811
-0.2247,-33.54280491980002
-0.22570000000000012,-33.712570275783825
-0.2267,-33.89648274476628
-0.22770000000000012,-34.06624810075008
-0.22870000000000001,-34.278454795729836
-0.22970000000000013,-34.50480860370825
-0.23070000000000002,-34.67457395969205
-0.23170000000000013,-34.85848642867451
-0.23270000000000002,-35.02825178465831
-0.23370000000000013,-35.15557580164616
-0.23470000000000002,-35.38192960962457
-0.23570000000000013,-35.55169496560837
-0.23670000000000002,-35.806342999584075
-0.2376999999999999,-36.03269680756248
-0.23870000000000002,-36.329786180534136
-0.2396999999999999,-36.55613998851254
-0.24070000000000003,-36.81078802248826
-0.24169999999999991,-36.99470049147071
-0.24270000000000003,-37.206907186450465
-0.24369999999999992,-37.376672542434264
-0.24470000000000003,-37.645467689408626
-0.24569999999999992,-37.85767438438838
-0.24670000000000003,-38.12646953136274
-0.24769999999999992,-38.42355890433439
-0.24870000000000003,-38.734795390304704
-0.24969999999999992,-38.98944342428042
-0.25070000000000003,-39.258238571254765
-0.2516999999999999,-39.51288660523048
-0.25270000000000004,-39.739240413208876
-0.2536999999999999,-40.03632978618054
-0.25470000000000004,-40.30512493315489
-0.2556999999999999,-40.616361419125205
-0.25670000000000004,-40.95589213109281
-0.25769999999999993,-41.30956995605907
-0.25870000000000004,-41.66324778102533
-0.25969999999999993,-42.00277849299294
-0.26070000000000004,-42.3564563179592
-0.26169999999999993,-42.653545690930855
-0.26270000000000004,-42.96478217690117
-0.26369999999999993,-43.27601866287147
-0.26470000000000005,-43.61554937483908
-0.26569999999999994,-44.011668538801295
-0.26670000000000005,-44.4077877027635
-0.26769999999999994,-44.84634820572166
-0.26870000000000005,-45.22832025668522
-0.26969999999999994,-45.666880759643384
-0.27070000000000005,-46.062999923605595
-0.27169999999999994,-46.45911908756781
-0.27270000000000005,-46.84109113853137
-0.27369999999999994,-47.23721030249357
-0.27470000000000006,-47.633329466455784
-0.27569999999999995,-48.114331308409895
-0.27670000000000006,-48.59533315036401
-0.27769999999999995,-49.076334992318124
-0.27870000000000006,-49.59977817326819
-0.27969999999999995,-50.0807800152223
-0.28070000000000006,-50.547634744177756
-0.28169999999999995,-51.028636586131874
-0.28270000000000006,-51.46719708909004
-0.28369999999999995,-51.948198931044146
-0.28470000000000006,-52.42920077299826
-0.28569999999999995,-52.95264395394832
-0.28670000000000007,-53.518528473894335
-0.28769999999999996,-54.0419716548444
-0.28870000000000007,-54.65029751378637
-0.28969999999999996,-55.17374069473642
-0.29070000000000007,-55.73962521468245
-0.29169999999999996,-56.36209818662306
-0.29270000000000007,-56.88554136757313
-0.29369999999999996,-57.45142588751914
-0.2947000000000001,-58.05975174646111
-0.29569999999999996,-58.62563626640712
-0.2967000000000001,-59.27640346434504
-0.29769999999999996,-59.92717066228296
-0.2987000000000001,-60.63452631221547
-0.29969999999999997,-61.28529351015339
-0.3007000000000001,-61.89361936909536
-0.30169999999999997,-62.544386567033264
-0.3027000000000001,-63.15271242597524
-0.30369999999999997,-63.81762673691181
-0.3047000000000001,-64.46839393484973
-0.30569999999999997,-65.11916113278764
-0.3067000000000001,-65.82651678272015
-0.3077,-66.51972531965401
-0.3087000000000001,-67.25537519558385
-0.3097,-67.96273084551636
-0.3107000000000001,-68.65593938245023
-0.3117,-69.3491479193841
-0.3127000000000001,-70.09894490831257
-0.3137,-70.79215344524643
-0.3147000000000001,-71.52780332117625
-0.3157,-72.27760031010472
-0.3167000000000001,-73.09813286402644
-0.3177,-73.93281253094682
-0.3187000000000001,-74.76749219786718
-0.3197,-75.5880247517889
-0.3207000000000001,-76.38026307971333
-0.3217,-77.20079563363505
-0.3227000000000001,-78.03547530055542
-0.3237,-78.8135665154812
-0.3247000000000001,-79.73312886039348
-0.3257,-80.61024986630979
-0.3267000000000001,-81.57225355021802
-0.3277,-82.47766878213164
-0.3287000000000001,-83.43967246603985
-0.3297,-84.35923481095215
-0.3307000000000001,-85.27879715586442
-0.3317,-86.22665372677399
-0.3327000000000001,-87.10377473269031
-0.3337,-88.06577841659853
-0.3347000000000001,-89.07022343950271
-0.3357,-90.03222712341093
-0.3367000000000001,-91.07911348531105
-0.3377,-92.12599984721119
-0.3387000000000001,-93.13044487011537
-0.3397,-94.17733123201549
-0.3407000000000001,-95.22421759391563
-0.3417,-96.21451550382113
-0.3427000000000001,-97.21896052672531
-0.3437,-98.2234055496295
-0.3447000000000001,-99.22785057253368
-0.3457,-100.2747369344338
-0.3467000000000001,-101.32162329633393
-0.3477,-102.41095099723
-0.3487000000000001,-103.54272003712204
-0.3497,-104.68863619001272
-0.3507000000000001,-105.7779638909088
-0.3517,-106.86729159180487
-0.3527000000000001,-107.95661929270095
-0.3537,-109.00350565460108
-0.3547000000000001,-110.1352746944931
-0.3557,-111.26704373438514
-0.35670000000000013,-112.44125411327312
-0.3577,-113.62961160515974
-0.35870000000000013,-114.84626332304367
-0.3597,-116.02047370193165
-0.36070000000000013,-117.25127253281424
-0.3617,-118.42548291170223
-0.3626999999999999,-119.5996932905902
-0.3637,-120.81634500847414
-0.3646999999999999,-122.00470250036076
-0.3657,-123.2213542182447
-0.3666999999999999,-124.48044727512458
-0.3677,-125.71124610600715
-0.3686999999999999,-126.97033916288706
-0.36970000000000003,-128.2294322197669
-0.3706999999999999,-129.41778971165354
-0.37170000000000003,-130.67688276853346
-0.3726999999999999,-131.89353448641737
-0.37370000000000003,-133.1667746562959
-0.3746999999999999,-134.46830905217172
-0.37570000000000003,-135.78399056104624
-0.3766999999999999,-137.12796629591801
-0.37770000000000004,-138.52853048278442
-0.3786999999999999,-139.9290946696508
-0.37970000000000004,-141.3155117435185
-0.3806999999999999,-142.7443701563822
-0.38170000000000004,-144.01761032626072
-0.38269999999999993,-145.43232162612577
-0.38370000000000004,-146.7055617960043
-0.38469999999999993,-148.12027309586935
-0.38570000000000004,-149.53498439573437
-0.38669999999999993,-149.25204213576137
-0.38570000000000004,-146.1396772760583
-0.38469999999999993,-143.4517258063147
-0.38370000000000004,-141.06086370954282
-0.38269999999999993,-138.6982958387682
-0.38170000000000004,-136.562081775972
-0.3806999999999999,-134.56733884316228
-0.37970000000000004,-132.60089013634988
-0.3786999999999999,-130.8042067855213
-0.37770000000000004,-129.0641118866873
-0.3766999999999999,-127.4088996658452
-0.37570000000000003,-125.79612878399907
-0.3746999999999999,-124.22579924114888
-0.37370000000000003,-122.65546969829869
-0.3726999999999999,-121.04269881645253
-0.37170000000000003,-119.51481061259831
-0.3706999999999999,-117.98692240874406
-0.36970000000000003,-116.37415152689792
-0.3686999999999999,-114.84626332304367
-0.3677,-113.36081645818538
-0.3666999999999999,-111.8753695933271
-0.3657,-110.4465111804634
-0.3646999999999999,-109.04594699359701
-0.3637,-107.64538280673065
-0.3626999999999999,-106.2589657328629
-0.3617,-104.77351886800463
-0.36070000000000013,-103.33051334214227
-0.3597,-101.80262513828804
-0.35870000000000013,-100.35961961242569
-0.3577,-98.97320253855796
-0.35670000000000013,-97.57263835169158
-0.3557,-96.21451550382113
-0.3547000000000001,-94.91298110794531
-0.3537,-93.55485826007487
-0.3527000000000001,-92.2108825252031
-0.3517,-90.85275967733266
-0.3507000000000001,-89.46634260346492
-0.3497,-88.10821975559449
-0.3487000000000001,-86.80668535971866
-0.3477,-85.49100385084417
-0.3467000000000001,-84.18946945496833
-0.3457,-82.9162292850898
-0.3447000000000001,-81.69957756720586
-0.3437,-80.38389605833139
-0.3427000000000001,-79.08236166245555
-0.3417,-77.80912149257702
-0.3407000000000001,-76.50758709670117
-0.3397,-75.19190558782671
-0.3387000000000001,-73.97525386994278
-0.3377,-72.71616081306288
-0.3367000000000001,-71.52780332117625
-0.3357,-70.35359294228827
-0.3347000000000001,-69.1793825634003
-0.3337,-68.04761352350828
-0.3327000000000001,-66.87340314462028
-0.3317,-65.64260431373769
-0.3307000000000001,-64.42595259585376
-0.3297,-63.20930087796983
-0.3287000000000001,-62.06338472507916
-0.3277,-60.93161568518713
-0.3267000000000001,-59.757405306299155
-0.3257,-58.66807760540307
-0.3247000000000001,-57.53630856551105
-0.3237,-56.404539525619015
-0.3227000000000001,-55.25862337272834
-0.3217,-54.1268543328363
-0.3207000000000001,-52.995085292944275
-0.3197,-51.82087491405629
-0.3187000000000001,-50.73154721316022
-0.3177,-49.642219512264134
-0.3167000000000001,-48.59533315036401
-0.3157,-47.506005449467935
-0.3147000000000001,-46.544001765559706
-0.3137,-45.45467406466363
-0.3127000000000001,-44.45022904175945
-0.3117,-43.40334267985933
-0.3107000000000001,-42.3564563179592
-0.3097,-41.30956995605907
-0.3087000000000001,-40.26268359415894
-0.3077,-39.30067991025072
-0.3067000000000001,-38.29623488734655
-0.30569999999999997,-37.334231203438314
-0.3047000000000001,-36.37222751953009
-0.30369999999999997,-35.42437094862052
-0.3027000000000001,-34.41992592571634
-0.30169999999999997,-33.45792224180811
-0.3007000000000001,-32.45347721890394
-0.29969999999999997,-31.49147353499572
-0.2987000000000001,-30.529469851087494
-0.29769999999999996,-29.62405461917387
-0.2967000000000001,-28.704492274261593
-0.29569999999999996,-27.827371268345274
-0.2947000000000001,-26.9643973754276
-0.29369999999999996,-26.087276369511276
-0.29270000000000007,-25.167714024599
-0.29169999999999996,-24.24815167968673
-0.29070000000000007,-23.385177786769056
-0.28969999999999996,-22.42317410286083
-0.28870000000000007,-21.58849443594046
-0.28769999999999996,-20.72552054302279
-0.28670000000000007,-19.890840876102416
-0.28569999999999995,-19.112749661176647
-0.28470000000000006,-18.320511333252224
-0.28369999999999995,-17.48583166633185
-0.28270000000000006,-16.70774045140608
-0.28169999999999995,-15.87306078448571
-0.28070000000000006,-15.05252823056399
-0.27969999999999995,-14.26028990263957
-0.27870000000000006,-13.436927926118118
-0.27769999999999995,-12.694204493688973
-0.27670000000000006,-11.952895772559694
-0.27569999999999995,-11.211587051430415
-0.27470000000000006,-10.514134380596953
-0.27369999999999994,-9.772825659467674
-0.27270000000000005,-9.073958277334345
-0.27169999999999994,-8.332649556205066
-0.27070000000000005,-7.591340835075788
-0.26969999999999994,-6.850032113946507
-0.26870000000000005,-6.152579443113044
-0.26769999999999994,-5.453712060979717
-0.26670000000000005,-4.800115440442069
