Potential V vs RHE, Current mA cm-2
0.4132999999999999,0.16453092417430376
0.4122999999999999,0.14755438857592332
0.4112999999999999,0.13011099824858743
0.4102999999999999,0.11467649796705988
0.4092999999999999,0.10031717827342976
0.4082999999999999,0.08735842276666603
0.4072999999999999,0.07454113838988878
0.4062999999999999,0.06231803275905486
0.4052999999999999,0.05061837030917101
0.4042999999999999,0.03928653279725207
0.4032999999999999,0.02847813846628319
0.4022999999999999,0.017924392169290013
0.4012999999999999,0.00768188235826715
0.4002999999999999,-0.002349835469075826
0.3992999999999999,-0.012169346601439045
0.3982999999999999,-0.021772406904922915
0.3972999999999999,-0.031067060145036202
0.3962999999999999,-0.039965594221187284
0.3952999999999999,-0.04876509850634782
0.3942999999999999,-0.057324101870531295
0.39329999999999987,-0.0655011331837512
0.39229999999999987,-0.0736498702709738
0.39129999999999987,-0.08184104869719236
0.39029999999999987,-0.08965025507244738
0.38929999999999987,-0.09726140186572127
0.38829999999999987,-0.10475937175500598
0.38729999999999987,-0.1120734291753082
0.38629999999999987,-0.11945822216060371
0.38529999999999986,-0.12651763154693024
0.38429999999999986,-0.13318092176929455
0.38329999999999986,-0.14016959559062783
0.38229999999999986,-0.14642261953603128
0.38129999999999986,-0.15307176264539696
0.38029999999999986,-0.16000384801473563
0.37929999999999986,-0.16608710660415532
0.37829999999999986,-0.17217036519357498
0.37729999999999986,-0.17782921039303512
0.37629999999999986,-0.18391246898245475
0.37529999999999986,-0.18971278531190142
0.37429999999999986,-0.19523015938137506
0.37329999999999985,-0.2008890045808352
0.37229999999999985,-0.20626490752032234
0.37129999999999985,-0.211782281589796
0.37029999999999985,-0.21758259791924262
0.36929999999999985,-0.22267555859875673
0.36829999999999985,-0.22805146153824393
0.36729999999999985,-0.23328589334774452
0.36629999999999985,-0.23837885402725867
0.36529999999999985,-0.2429059301868268
0.36429999999999985,-0.24785741973635445
0.36329999999999985,-0.252525967025909
0.36229999999999984,-0.2577603988354097
0.36129999999999984,-0.2634192440348699
0.36029999999999984,-0.26738043567449193
0.35929999999999984,-0.27162456957408704
0.35829999999999984,-0.27558576121370915
0.35729999999999984,-0.2801128373732773
0.35629999999999984,-0.28364961562293983
0.35529999999999984,-0.288742576302454
0.35429999999999984,-0.29284523907206256
0.35329999999999984,-0.2972308441016442
0.35229999999999984,-0.30147497800123935
0.35129999999999983,-0.30600205416080745
0.35029999999999983,-0.310387659190389
0.34929999999999983,-0.3142073797000246
0.34829999999999983,-0.3171782734297412
0.34729999999999983,-0.3214224073293363
0.34629999999999983,-0.32580801235891793
0.34529999999999983,-0.32976920399854004
0.34429999999999983,-0.3335889245081756
0.3432999999999998,-0.33712570275783826
0.3422999999999998,-0.3417942500473929
0.3412999999999998,-0.3453310282970554
0.3402999999999998,-0.34915074880669106
0.3392999999999998,-0.35311194044631317
0.3382999999999998,-0.3570731320859353
0.3372999999999998,-0.35990255468566534
0.3362999999999998,-0.36315639067535493
0.3352999999999998,-0.36683464005500405
0.3342999999999998,-0.37065436056463963
0.3332999999999998,-0.37362525429435617
0.3322999999999998,-0.37772791706396475
0.3312999999999998,-0.3815476375736004
0.3302999999999998,-0.384235589043344
0.3292999999999998,-0.38777236729300657
0.3282999999999998,-0.39215797232258814
0.3272999999999998,-0.3954118083122777
0.3262999999999998,-0.3978168175220483
0.3252999999999999,-0.40008035560183236
0.3242999999999999,-0.40404154724145447
0.3232999999999999,-0.4072953832311441
0.3222999999999999,-0.4104077480908471
0.3212999999999999,-0.41380305521052324
0.3202999999999999,-0.41705689120021283
0.3192999999999999,-0.42002778492992937
0.3182999999999999,-0.4242719188295245
0.3172999999999999,-0.4279501682091736
0.3162999999999999,-0.4321943021087687
0.3152999999999999,-0.43459931131853924
0.3142999999999999,-0.43672137826833685
0.3132999999999999,-0.43940932973808033
0.3122999999999999,-0.4429461079877429
0.3112999999999999,-0.44535111719751347
0.3102999999999999,-0.44888789544717617
0.3092999999999999,-0.45100996239697366
0.3082999999999999,-0.45398085612669026
0.3072999999999999,-0.45751763437635284
0.3062999999999999,-0.4594982301961639
0.3052999999999999,-0.462044710535921
0.3042999999999999,-0.465157075395624
0.3032999999999999,-0.46798649799535413
0.3022999999999999,-0.47010856494515163
0.3012999999999999,-0.4720891607649627
0.3002999999999999,-0.4747771122347063
0.2992999999999999,-0.4776065348344364
0.2982999999999999,-0.48015301517419345
0.2972999999999999,-0.48142625534407196
0.2962999999999999,-0.48397273568382904
0.2952999999999999,-0.4859533315036401
0.2942999999999999,-0.4892071674933296
0.2932999999999999,-0.4921780612230462
0.2922999999999999,-0.4944415993028303
0.2912999999999999,-0.49613925286266836
0.2902999999999999,-0.4979783775524929
0.2892999999999999,-0.5001004445022904
0.2882999999999999,-0.504203107271899
0.2872999999999999,-0.5060422319617235
0.2862999999999999,-0.5080228277815346
0.2852999999999999,-0.5104278369913052
0.2842999999999999,-0.5117010771611837
0.2832999999999999,-0.5139646152409678
0.2822999999999999,-0.5163696244507384
0.2812999999999999,-0.5186331625305225
0.2802999999999999,-0.52075522948032
0.2792999999999999,-0.5231602386900907
0.2782999999999999,-0.5249993633799152
0.2772999999999999,-0.5268384880697398
0.2762999999999999,-0.5286776127595643
0.2752999999999999,-0.5300923240594293
0.2742999999999999,-0.5334876311791055
0.2732999999999999,-0.5349023424789704
0.2722999999999999,-0.5371658805587545
0.2712999999999999,-0.539570889768525
0.2702999999999999,-0.5414100144583496
0.2692999999999999,-0.5431076680181876
0.26829999999999987,-0.5450882638379987
0.26729999999999987,-0.5472103307877962
0.26629999999999987,-0.5489079843476343
0.26529999999999987,-0.5507471090374588
0.26429999999999987,-0.5535765316371889
0.26329999999999987,-0.5548497718070674
0.26229999999999987,-0.5562644831069326
0.26129999999999987,-0.559235376836649
0.26029999999999986,-0.5603671458765411
0.25929999999999986,-0.5612159726564601
0.25829999999999986,-0.5633380396062576
0.25729999999999986,-0.5650356931660957
0.25629999999999986,-0.5668748178559202
0.25529999999999986,-0.5692798270656908
0.25429999999999986,-0.5719677785354343
0.25329999999999986,-0.5715433651454748
0.25229999999999986,-0.5729580764453399
0.25129999999999986,-0.5746557300051779
0.25029999999999986,-0.577768094864881
0.24929999999999986,-0.5794657484247191
0.24829999999999985,-0.5817292865045031
0.24729999999999985,-0.5838513534543007
0.24629999999999985,-0.5868222471840172
0.24529999999999985,-0.5888028430038282
0.24429999999999985,-0.5909249099536259
0.24329999999999985,-0.5927640346434504
0.24229999999999985,-0.5940372748133289
0.24129999999999985,-0.5964422840230995
0.24029999999999985,-0.597432581933005
0.23929999999999985,-0.5989887643628565
0.23829999999999985,-0.6001205334027485
0.23729999999999984,-0.6012523024426406
0.23629999999999984,-0.6033743693924382
0.23529999999999984,-0.6050720229522761
0.23429999999999984,-0.6071940899020738
0.23329999999999984,-0.6095990991118443
0.23229999999999984,-0.6107308681517364
0.23129999999999984,-0.6144091175313855
0.23029999999999984,-0.6158238288312504
0.22929999999999984,-0.616814126741156
0.22829999999999984,-0.6195020782108995
0.22729999999999984,-0.6217656162906836
0.22629999999999983,-0.6228973853305756
0.22529999999999983,-0.6247365100204001
0.22429999999999983,-0.6268585769701978
0.22329999999999983,-0.6281318171400763
0.22229999999999983,-0.6289806439199952
0.22129999999999983,-0.6326588932996443
0.22029999999999983,-0.6350639025094149
0.21929999999999983,-0.6366200849392665
0.21829999999999983,-0.6374689117191855
0.21729999999999983,-0.6377518539791586
0.21629999999999983,-0.6411471610988346
0.21529999999999982,-0.6458157083883892
0.21429999999999982,-0.6503427845479574
0.21329999999999982,-0.6518989669778088
0.21229999999999982,-0.6531722071476874
0.21129999999999982,-0.6547283895775389
0.21029999999999982,-0.65670898539735
0.20929999999999982,-0.658689581217161
0.20829999999999982,-0.6609531192969451
0.20729999999999982,-0.6619434172068507
0.20629999999999982,-0.6642069552866348
0.20529999999999982,-0.6671778490163512
0.20429999999999982,-0.6673193201463378
0.20329999999999981,-0.6700072716160814
0.2022999999999998,-0.672129338565879
0.2012999999999998,-0.674675818905636
0.20029999999999992,-0.6770808281154066
0.19929999999999992,-0.6784955394152716
0.19829999999999992,-0.6794858373251772
0.19729999999999992,-0.6814664331449882
0.19629999999999992,-0.6851446825246373
0.19529999999999992,-0.6871252783444484
0.19429999999999992,-0.6876911628643944
0.19329999999999992,-0.6892473452942459
0.19229999999999992,-0.691227941114057
0.19129999999999991,-0.6930670658038814
0.1902999999999999,-0.694623248233733
0.1892999999999999,-0.6960379595335981
0.1882999999999999,-0.6970282574435036
0.1872999999999999,-0.6995747377832607
0.1862999999999999,-0.7015553336030717
0.1852999999999999,-0.7031115160329233
0.1842999999999999,-0.7057994675026668
0.1832999999999999,-0.7063653520226129
0.1822999999999999,-0.7074971210625048
0.1812999999999999,-0.7087703612323834
0.1802999999999999,-0.7128730240019919
0.1792999999999999,-0.7145706775618301
0.1782999999999999,-0.7166927445116276
0.1772999999999999,-0.7189562825914116
0.1762999999999999,-0.7222101185811013
0.1752999999999999,-0.7232004164910067
0.1742999999999999,-0.7230589453610202
0.1732999999999999,-0.7251810123108178
0.1722999999999999,-0.7277274926505749
0.1712999999999999,-0.7285763194304938
0.1702999999999999,-0.731688684290197
0.1692999999999999,-0.7343766357599406
0.1682999999999999,-0.7348010491499001
0.1672999999999999,-0.7363572315797515
0.1662999999999999,-0.7384792985295492
0.1652999999999999,-0.7407428366093332
0.1642999999999999,-0.7403184232193737
0.1632999999999999,-0.7417331345192387
0.1622999999999999,-0.7451284416389149
0.1612999999999999,-0.7455528550288744
0.1602999999999999,-0.7483822776286043
0.1592999999999999,-0.7509287579683614
0.15829999999999989,-0.7514946424883074
0.15729999999999988,-0.7520605270082534
0.15629999999999988,-0.753050824918159
0.15529999999999988,-0.7546070073480106
0.15429999999999988,-0.7568705454277946
0.15329999999999988,-0.7606902659374303
0.15229999999999988,-0.7625293906272548
0.15129999999999988,-0.7647929287070389
0.15029999999999988,-0.7656417554869578
0.14929999999999988,-0.7660661688769174
0.14829999999999988,-0.7666320533968634
0.14729999999999988,-0.7698858893865529
0.14629999999999987,-0.7727153119862831
0.14529999999999987,-0.7737056098961885
0.14429999999999987,-0.7745544366761076
0.14329999999999987,-0.7773838592758376
0.14229999999999987,-0.7797888684856082
0.14129999999999987,-0.7802132818755677
0.14029999999999987,-0.7827597622153247
0.13929999999999987,-0.7837500601252303
0.13829999999999987,-0.7858721270750278
0.13729999999999987,-0.7867209538549468
0.13629999999999987,-0.7877112517648525
0.13529999999999986,-0.7899747898446364
0.13429999999999986,-0.7903992032345959
0.13329999999999986,-0.793228625834326
0.13229999999999986,-0.7973312886039347
0.13129999999999986,-0.7997362978137053
0.13029999999999986,-0.7993118844237457
0.12929999999999986,-0.8019998358934892
0.12829999999999986,-0.8015754225035298
0.12729999999999986,-0.8034145471933544
0.12629999999999986,-0.8042633739732733
0.12529999999999986,-0.8052536718831789
0.12429999999999986,-0.8093563346527874
0.12329999999999985,-0.8120442861225311
0.12229999999999985,-0.8136004685523825
0.12129999999999985,-0.8155810643721937
0.12029999999999985,-0.8172787179320317
0.11929999999999985,-0.8195422560118159
0.11829999999999985,-0.8219472652215865
0.11729999999999985,-0.8256255146012355
0.11629999999999985,-0.8308599464107361
0.11529999999999985,-0.8390652719499533
0.11429999999999985,-0.8389238008199668
0.11329999999999985,-0.8372261472601288
0.11229999999999984,-0.8360943782202367
0.11129999999999984,-0.8426020501996159
0.11029999999999984,-0.8437338192395079
0.10929999999999984,-0.8421776368096564
0.10829999999999984,-0.8424605790696293
0.10729999999999984,-0.8438752903694944
0.10629999999999984,-0.8509488468688196
0.10529999999999984,-0.8520806159087115
0.10429999999999984,-0.8532123849486036
0.10329999999999984,-0.8547685673784552
0.10229999999999984,-0.8540612117285227
0.10129999999999983,-0.8544856251184821
0.10029999999999983,-0.8575979899781853
0.09929999999999983,-0.8581638744981313
0.09829999999999983,-0.8590127012780503
0.09729999999999983,-0.8612762393578344
0.09629999999999983,-0.8649544887374835
0.09529999999999983,-0.8697645071570246
0.09429999999999983,-0.8721695163667951
0.09329999999999983,-0.8727354008867412
0.09229999999999983,-0.8742915833165926
0.09129999999999983,-0.8762721791364039
0.09029999999999982,-0.8778283615662553
0.08929999999999982,-0.8779698326962417
0.08829999999999982,-0.8813651398159178
0.08729999999999982,-0.8847604469355939
0.08629999999999982,-0.8871654561453645
0.08529999999999982,-0.887023985015378
0.08429999999999982,-0.8894289942251485
0.08329999999999982,-0.8923998879548651
0.08229999999999982,-0.8936731281247438
0.08129999999999982,-0.8956537239445548
0.08029999999999982,-0.8980587331543252
0.07929999999999982,-0.9000393289741364
0.07829999999999981,-0.8990490310642308
0.07729999999999981,-0.9035761072237989
0.07629999999999981,-0.9078202411233941
0.07529999999999992,-0.9078202411233941
0.07429999999999992,-0.9113570193730566
0.07329999999999992,-0.9133376151928677
0.07229999999999992,-0.9161670377925977
0.07129999999999992,-0.9157426244026382
0.07029999999999992,-0.9197038160422604
0.06929999999999992,-0.92295765203195
0.06829999999999992,-0.9280506127114639
0.06729999999999992,-0.9270603148015586
0.06629999999999991,-0.9288994394913831
0.06529999999999991,-0.9310215064411805
0.06429999999999991,-0.9356900537307352
0.06329999999999991,-0.9337094579109243
0.06229999999999991,-0.9330021022609917
0.06129999999999991,-0.9355485826007488
0.06029999999999991,-0.9399341876303302
0.05929999999999991,-0.9412074278002089
0.05829999999999991,-0.9434709658799929
0.05729999999999991,-0.9478565709095745
0.056299999999999906,-0.9499786378593722
0.055299999999999905,-0.9494127533394261
0.054299999999999904,-0.9506859935093046
0.0532999999999999,-0.9530910027190752
0.0522999999999999,-0.9563448387087647
0.0512999999999999,-0.9586083767885488
0.0502999999999999,-0.960871914868333
0.0492999999999999,-0.963135452948117
0.0482999999999999,-0.9638428085980495
0.0472999999999999,-0.965964875547847
0.0462999999999999,-0.9707748939673883
0.045299999999999896,-0.9706334228374016
0.044299999999999895,-0.9716237207473072
0.043299999999999894,-0.9745946144770238
0.04229999999999989,-0.9754434412569427
0.04129999999999989,-0.977424037076754
0.04029999999999989,-0.9792631617665783
0.03929999999999989,-0.981951113236322
0.03829999999999989,-0.9846390647060654
0.03729999999999989,-0.9880343718257415
0.03629999999999989,-0.9886002563456876
0.03529999999999989,-0.9895905542555933
0.034299999999999886,-0.9880343718257415
0.033299999999999885,-0.9894490831256065
0.032299999999999884,-0.9935517458952152
0.031299999999999883,-0.9956738128450128
0.030299999999999883,-0.9946835149351072
0.02929999999999988,-0.9931273325052556
0.02829999999999988,-0.9956738128450128
0.02729999999999988,-0.9987861777047158
0.02629999999999988,-1.0000594178745945
0.025299999999999878,-1.0003423601345676
0.024299999999999877,-1.0043035517741894
0.023299999999999876,-1.004445022904176
0.022299999999999875,-1.006425618723987
0.021299999999999875,-1.0093965124537037
0.020299999999999874,-1.010952694883555
0.019299999999999873,-1.0105282814935956
0.018299999999999872,-1.0153382999131368
0.01729999999999987,-1.0171774246029612
0.01629999999999987,-1.0154797710431231
0.01529999999999987,-1.0219874430225024
0.014299999999999868,-1.0219874430225024
0.013299999999999867,-1.0207142028526242
0.012299999999999978,-1.023543625452354
0.011299999999999866,-1.0250998078822056
0.010299999999999976,-1.027221874832003
0.009299999999999864,-1.0294854129117872
0.008299999999999974,-1.0310415953416388
0.007299999999999862,-1.0335880756813958
0.006299999999999972,-1.035568671501207
0.00529999999999986,-1.0376907384510043
0.0042999999999999705,-1.0385395652309235
0.0032999999999998586,-1.040095747660775
0.0022999999999999687,-1.041793401220613
0.0012999999999998568,-1.040095747660775
0.00029999999999996696,-1.039529863140829
-0.000700000000000145,-1.042925170260505
-0.0017000000000000348,-1.0446228238203432
-0.0027000000000001467,-1.0461790062501946
-0.0037000000000000366,-1.0463204773801813
-0.0047000000000001485,-1.0478766598100326
-0.005700000000000038,-1.0515549091896819
-0.00670000000000015,-1.0501401978898166
-0.00770000000000004,-1.054384331789412
-0.008700000000000152,-1.0516963803196684
-0.009700000000000042,-1.0521207937096277
-0.010700000000000154,-1.0531110916195334
-0.011700000000000044,-1.0557990430892767
-0.012700000000000156,-1.0562234564792363
-0.013700000000000045,-1.0582040522990475
-0.014700000000000157,-1.0584869945590205
-0.015700000000000047,-1.0613164171587506
-0.01670000000000016,-1.062589657328629
-0.01770000000000005,-1.0615993594187236
-0.01870000000000016,-1.062872599588602
-0.01970000000000005,-1.0630140707185887
-0.020700000000000163,-1.0621652439386697
-0.021700000000000053,-1.062872599588602
-0.022700000000000164,-1.064853195408413
-0.023700000000000054,-1.0662679067082783
-0.024700000000000166,-1.0675411468781568
-0.025700000000000056,-1.068107031398103
-0.026700000000000168,-1.0702290983479001
-0.027700000000000058,-1.0700876272179138
-0.02870000000000017,-1.0709364539978328
-0.02970000000000006,-1.0730585209476302
-0.03070000000000017,-1.0730585209476302
-0.03170000000000006,-1.0731999920776167
-0.03270000000000017,-1.0737658765975628
-0.03370000000000006,-1.074897645637455
-0.034700000000000175,-1.076878241457266
-0.035700000000000065,-1.0758879435473605
-0.03670000000000018,-1.075463530157401
-0.03770000000000007,-1.0744732322474955
-0.03870000000000018,-1.0750391167674413
-0.03970000000000007,-1.0756050012873875
-0.04070000000000018,-1.0741902899875224
-0.04170000000000007,-1.0764538280673064
-0.04270000000000018,-1.0758879435473605
-0.04370000000000007,-1.0781514816271445
-0.044700000000000184,-1.0818297310067937
-0.045700000000000074,-1.080839433096888
-0.046700000000000186,-1.0798491351869823
-0.047700000000000076,-1.0781514816271445
-0.04870000000000019,-1.0816882598768072
-0.04970000000000008,-1.0823956155267396
-0.05070000000000019,-1.0832444423066585
-0.05170000000000008,-1.0856494515164292
-0.05270000000000019,-1.0828200289166992
-0.05370000000000008,-1.0821126732667665
-0.05470000000000019,-1.0843762113465507
-0.05570000000000008,-1.081122375356861
-0.056700000000000195,-1.0815467887468206
-0.057700000000000085,-1.0835273845666316
-0.058700000000000196,-1.0842347402165642
-0.059700000000000086,-1.080839433096888
-0.0607000000000002,-1.081122375356861
-0.06170000000000009,-1.0853665092564562
-0.0627000000000002,-1.0948450749655518
-0.06370000000000009,-1.0947036038355653
-0.0647000000000002,-1.0952694883555114
-0.06570000000000009,-1.0910253544559163
-0.0667000000000002,-1.090317998805984
-0.0677000000000001,-1.0928644791457407
-0.0687000000000002,-1.0920156523658218
-0.0697000000000001,-1.0924400657557813
-0.07070000000000021,-1.0913082967158894
-0.0717000000000001,-1.0920156523658218
-0.07270000000000021,-1.0934303636656868
-0.0737000000000001,-1.0956939017454708
-0.07470000000000021,-1.0925815368857679
-0.0757000000000001,-1.0897521142860378
-0.07670000000000021,-1.0876300473362401
-0.0777000000000001,-1.0890447586361052
-0.07870000000000021,-1.0891862297660917
-0.0797000000000001,-1.0883374029861725
-0.08070000000000022,-1.0893277008960784
-0.0817000000000001,-1.0913082967158894
-0.08270000000000022,-1.0910253544559163
-0.08370000000000011,-1.0925815368857679
