Apr. 2, 2025   00:07:59
Linear Sweep Voltammetry
File: c:/users/guazh/data/banditlqround7_x0exp518_r20/2025-03-28-exp1014\1acid_3ac-2025-04-02t00_04_46-lsvinphos\1acid_3ac_lsv_50mvs_efin_-2300mv.bin
Data Source:  Experiment
Instrument Model:  CHI760E
Header: LSV ran at 50 mVs with Efin at -2300mV
Note: 

Init E (V) = -0.6
Final E (V) = -2.3
Scan Rate (V/s) = 0.05
Sample Interval (V) = 0.001
Quiet Time (sec) = 2
Sensitivity (A/V) = 1e-4
Comp R (ohm) = 9.2

Results:

Channel 1:
Ep = -1.985V
ip = 7.622e-4A
Ah = 1.136e-3C

Potential/V, Current/A

-0.600, 3.055e-6
-0.601, 3.177e-6
-0.602, 3.226e-6
-0.603, 3.262e-6
-0.604, 3.295e-6
-0.605, 3.331e-6
-0.606, 3.362e-6
-0.607, 3.393e-6
-0.608, 3.425e-6
-0.609, 3.458e-6
-0.610, 3.489e-6
-0.611, 3.520e-6
-0.612, 3.549e-6
-0.613, 3.578e-6
-0.614, 3.612e-6
-0.615, 3.646e-6
-0.616, 3.673e-6
-0.617, 3.704e-6
-0.618, 3.734e-6
-0.619, 3.765e-6
-0.620, 3.798e-6
-0.621, 3.827e-6
-0.622, 3.858e-6
-0.623, 3.888e-6
-0.624, 3.918e-6
-0.625, 3.951e-6
-0.626, 3.980e-6
-0.627, 4.011e-6
-0.628, 4.041e-6
-0.629, 4.072e-6
-0.630, 4.105e-6
-0.631, 4.133e-6
-0.632, 4.162e-6
-0.633, 4.191e-6
-0.634, 4.222e-6
-0.635, 4.254e-6
-0.636, 4.283e-6
-0.637, 4.314e-6
-0.638, 4.345e-6
-0.639, 4.374e-6
-0.640, 4.407e-6
-0.641, 4.440e-6
-0.642, 4.468e-6
-0.643, 4.500e-6
-0.644, 4.532e-6
-0.645, 4.565e-6
-0.646, 4.595e-6
-0.647, 4.624e-6
-0.648, 4.654e-6
-0.649, 4.686e-6
-0.650, 4.718e-6
-0.651, 4.747e-6
-0.652, 4.776e-6
-0.653, 4.808e-6
-0.654, 4.840e-6
-0.655, 4.870e-6
-0.656, 4.899e-6
-0.657, 4.929e-6
-0.658, 4.958e-6
-0.659, 4.990e-6
-0.660, 5.023e-6
-0.661, 5.052e-6
-0.662, 5.081e-6
-0.663, 5.110e-6
-0.664, 5.139e-6
-0.665, 5.172e-6
-0.666, 5.203e-6
-0.667, 5.231e-6
-0.668, 5.258e-6
-0.669, 5.289e-6
-0.670, 5.320e-6
-0.671, 5.347e-6
-0.672, 5.375e-6
-0.673, 5.403e-6
-0.674, 5.430e-6
-0.675, 5.461e-6
-0.676, 5.489e-6
-0.677, 5.516e-6
-0.678, 5.544e-6
-0.679, 5.571e-6
-0.680, 5.600e-6
-0.681, 5.627e-6
-0.682, 5.651e-6
-0.683, 5.677e-6
-0.684, 5.705e-6
-0.685, 5.734e-6
-0.686, 5.758e-6
-0.687, 5.784e-6
-0.688, 5.809e-6
-0.689, 5.835e-6
-0.690, 5.862e-6
-0.691, 5.886e-6
-0.692, 5.909e-6
-0.693, 5.930e-6
-0.694, 5.954e-6
-0.695, 5.980e-6
-0.696, 6.003e-6
-0.697, 6.025e-6
-0.698, 6.047e-6
-0.699, 6.071e-6
-0.700, 6.096e-6
-0.701, 6.117e-6
-0.702, 6.137e-6
-0.703, 6.156e-6
-0.704, 6.178e-6
-0.705, 6.199e-6
-0.706, 6.217e-6
-0.707, 6.236e-6
-0.708, 6.255e-6
-0.709, 6.272e-6
-0.710, 6.294e-6
-0.711, 6.312e-6
-0.712, 6.330e-6
-0.713, 6.349e-6
-0.714, 6.365e-6
-0.715, 6.386e-6
-0.716, 6.402e-6
-0.717, 6.417e-6
-0.718, 6.433e-6
-0.719, 6.449e-6
-0.720, 6.466e-6
-0.721, 6.481e-6
-0.722, 6.493e-6
-0.723, 6.507e-6
-0.724, 6.522e-6
-0.725, 6.537e-6
-0.726, 6.550e-6
-0.727, 6.561e-6
-0.728, 6.573e-6
-0.729, 6.587e-6
-0.730, 6.600e-6
-0.731, 6.611e-6
-0.732, 6.620e-6
-0.733, 6.630e-6
-0.734, 6.641e-6
-0.735, 6.653e-6
-0.736, 6.662e-6
-0.737, 6.668e-6
-0.738, 6.677e-6
-0.739, 6.685e-6
-0.740, 6.695e-6
-0.741, 6.700e-6
-0.742, 6.709e-6
-0.743, 6.714e-6
-0.744, 6.720e-6
-0.745, 6.728e-6
-0.746, 6.733e-6
-0.747, 6.737e-6
-0.748, 6.740e-6
-0.749, 6.745e-6
-0.750, 6.751e-6
-0.751, 6.754e-6
-0.752, 6.756e-6
-0.753, 6.760e-6
-0.754, 6.762e-6
-0.755, 6.767e-6
-0.756, 6.769e-6
-0.757, 6.769e-6
-0.758, 6.771e-6
-0.759, 6.771e-6
-0.760, 6.774e-6
-0.761, 6.775e-6
-0.762, 6.772e-6
-0.763, 6.773e-6
-0.764, 6.773e-6
-0.765, 6.773e-6
-0.766, 6.773e-6
-0.767, 6.769e-6
-0.768, 6.770e-6
-0.769, 6.769e-6
-0.770, 6.768e-6
-0.771, 6.764e-6
-0.772, 6.760e-6
-0.773, 6.757e-6
-0.774, 6.754e-6
-0.775, 6.751e-6
-0.776, 6.749e-6
-0.777, 6.744e-6
-0.778, 6.738e-6
-0.779, 6.734e-6
-0.780, 6.731e-6
-0.781, 6.726e-6
-0.782, 6.720e-6
-0.783, 6.716e-6
-0.784, 6.710e-6
-0.785, 6.708e-6
-0.786, 6.700e-6
-0.787, 6.693e-6
-0.788, 6.687e-6
-0.789, 6.681e-6
-0.790, 6.676e-6
-0.791, 6.669e-6
-0.792, 6.661e-6
-0.793, 6.655e-6
-0.794, 6.647e-6
-0.795, 6.641e-6
-0.796, 6.634e-6
-0.797, 6.625e-6
-0.798, 6.617e-6
-0.799, 6.609e-6
-0.800, 6.604e-6
-0.801, 6.595e-6
-0.802, 6.584e-6
-0.803, 6.577e-6
-0.804, 6.568e-6
-0.805, 6.561e-6
-0.806, 6.553e-6
-0.807, 6.545e-6
-0.808, 6.534e-6
-0.809, 6.526e-6
-0.810, 6.518e-6
-0.811, 6.509e-6
-0.812, 6.498e-6
-0.813, 6.489e-6
-0.814, 6.480e-6
-0.815, 6.473e-6
-0.816, 6.463e-6
-0.817, 6.453e-6
-0.818, 6.443e-6
-0.819, 6.437e-6
-0.820, 6.431e-6
-0.821, 6.419e-6
-0.822, 6.409e-6
-0.823, 6.398e-6
-0.824, 6.388e-6
-0.825, 6.381e-6
-0.826, 6.371e-6
-0.827, 6.359e-6
-0.828, 6.350e-6
-0.829, 6.340e-6
-0.830, 6.332e-6
-0.831, 6.320e-6
-0.832, 6.311e-6
-0.833, 6.301e-6
-0.834, 6.288e-6
-0.835, 6.280e-6
-0.836, 6.271e-6
-0.837, 6.260e-6
-0.838, 6.251e-6
-0.839, 6.240e-6
-0.840, 6.233e-6
-0.841, 6.225e-6
-0.842, 6.213e-6
-0.843, 6.203e-6
-0.844, 6.195e-6
-0.845, 6.188e-6
-0.846, 6.180e-6
-0.847, 6.169e-6
-0.848, 6.159e-6
-0.849, 6.149e-6
-0.850, 6.140e-6
-0.851, 6.132e-6
-0.852, 6.120e-6
-0.853, 6.111e-6
-0.854, 6.102e-6
-0.855, 6.093e-6
-0.856, 6.084e-6
-0.857, 6.074e-6
-0.858, 6.064e-6
-0.859, 6.054e-6
-0.860, 6.046e-6
-0.861, 6.037e-6
-0.862, 6.027e-6
-0.863, 6.017e-6
-0.864, 6.008e-6
-0.865, 6.000e-6
-0.866, 5.991e-6
-0.867, 5.980e-6
-0.868, 5.972e-6
-0.869, 5.961e-6
-0.870, 5.956e-6
-0.871, 5.949e-6
-0.872, 5.939e-6
-0.873, 5.930e-6
-0.874, 5.920e-6
-0.875, 5.913e-6
-0.876, 5.906e-6
-0.877, 5.896e-6
-0.878, 5.888e-6
-0.879, 5.880e-6
-0.880, 5.873e-6
-0.881, 5.866e-6
-0.882, 5.855e-6
-0.883, 5.848e-6
-0.884, 5.839e-6
-0.885, 5.831e-6
-0.886, 5.824e-6
-0.887, 5.815e-6
-0.888, 5.806e-6
-0.889, 5.798e-6
-0.890, 5.791e-6
-0.891, 5.783e-6
-0.892, 5.774e-6
-0.893, 5.765e-6
-0.894, 5.757e-6
-0.895, 5.749e-6
-0.896, 5.744e-6
-0.897, 5.735e-6
-0.898, 5.727e-6
-0.899, 5.719e-6
-0.900, 5.713e-6
-0.901, 5.705e-6
-0.902, 5.698e-6
-0.903, 5.689e-6
-0.904, 5.681e-6
-0.905, 5.676e-6
-0.906, 5.668e-6
-0.907, 5.661e-6
-0.908, 5.653e-6
-0.909, 5.646e-6
-0.910, 5.641e-6
-0.911, 5.634e-6
-0.912, 5.626e-6
-0.913, 5.620e-6
-0.914, 5.612e-6
-0.915, 5.607e-6
-0.916, 5.601e-6
-0.917, 5.592e-6
-0.918, 5.586e-6
-0.919, 5.577e-6
-0.920, 5.573e-6
-0.921, 5.568e-6
-0.922, 5.559e-6
-0.923, 5.552e-6
-0.924, 5.546e-6
-0.925, 5.541e-6
-0.926, 5.536e-6
-0.927, 5.527e-6
-0.928, 5.521e-6
-0.929, 5.515e-6
-0.930, 5.509e-6
-0.931, 5.504e-6
-0.932, 5.497e-6
-0.933, 5.489e-6
-0.934, 5.484e-6
-0.935, 5.479e-6
-0.936, 5.474e-6
-0.937, 5.467e-6
-0.938, 5.460e-6
-0.939, 5.455e-6
-0.940, 5.450e-6
-0.941, 5.446e-6
-0.942, 5.440e-6
-0.943, 5.432e-6
-0.944, 5.426e-6
-0.945, 5.423e-6
-0.946, 5.418e-6
-0.947, 5.412e-6
-0.948, 5.405e-6
-0.949, 5.401e-6
-0.950, 5.397e-6
-0.951, 5.392e-6
-0.952, 5.386e-6
-0.953, 5.381e-6
-0.954, 5.376e-6
-0.955, 5.371e-6
-0.956, 5.367e-6
-0.957, 5.360e-6
-0.958, 5.354e-6
-0.959, 5.348e-6
-0.960, 5.346e-6
-0.961, 5.342e-6
-0.962, 5.336e-6
-0.963, 5.332e-6
-0.964, 5.326e-6
-0.965, 5.322e-6
-0.966, 5.318e-6
-0.967, 5.312e-6
-0.968, 5.306e-6
-0.969, 5.302e-6
-0.970, 5.297e-6
-0.971, 5.294e-6
-0.972, 5.289e-6
-0.973, 5.286e-6
-0.974, 5.280e-6
-0.975, 5.277e-6
-0.976, 5.274e-6
-0.977, 5.268e-6
-0.978, 5.262e-6
-0.979, 5.258e-6
-0.980, 5.255e-6
-0.981, 5.252e-6
-0.982, 5.247e-6
-0.983, 5.242e-6
-0.984, 5.236e-6
-0.985, 5.234e-6
-0.986, 5.231e-6
-0.987, 5.227e-6
-0.988, 5.221e-6
-0.989, 5.216e-6
-0.990, 5.214e-6
-0.991, 5.209e-6
-0.992, 5.205e-6
-0.993, 5.201e-6
-0.994, 5.196e-6
-0.995, 5.193e-6
-0.996, 5.190e-6
-0.997, 5.185e-6
-0.998, 5.182e-6
-0.999, 5.178e-6
-1.000, 5.176e-6
-1.001, 5.173e-6
-1.002, 5.168e-6
-1.003, 5.164e-6
-1.004, 5.160e-6
-1.005, 5.156e-6
-1.006, 5.156e-6
-1.007, 5.149e-6
-1.008, 5.144e-6
-1.009, 5.142e-6
-1.010, 5.140e-6
-1.011, 5.137e-6
-1.012, 5.133e-6
-1.013, 5.129e-6
-1.014, 5.126e-6
-1.015, 5.124e-6
-1.016, 5.121e-6
-1.017, 5.117e-6
-1.018, 5.112e-6
-1.019, 5.109e-6
-1.020, 5.107e-6
-1.021, 5.104e-6
-1.022, 5.101e-6
-1.023, 5.096e-6
-1.024, 5.094e-6
-1.025, 5.093e-6
-1.026, 5.090e-6
-1.027, 5.087e-6
-1.028, 5.082e-6
-1.029, 5.078e-6
-1.030, 5.077e-6
-1.031, 5.075e-6
-1.032, 5.071e-6
-1.033, 5.068e-6
-1.034, 5.063e-6
-1.035, 5.063e-6
-1.036, 5.061e-6
-1.037, 5.056e-6
-1.038, 5.054e-6
-1.039, 5.051e-6
-1.040, 5.049e-6
-1.041, 5.048e-6
-1.042, 5.043e-6
-1.043, 5.040e-6
-1.044, 5.038e-6
-1.045, 5.034e-6
-1.046, 5.035e-6
-1.047, 5.030e-6
-1.048, 5.025e-6
-1.049, 5.024e-6
-1.050, 5.022e-6
-1.051, 5.021e-6
-1.052, 5.018e-6
-1.053, 5.014e-6
-1.054, 5.012e-6
-1.055, 5.010e-6
-1.056, 5.009e-6
-1.057, 5.005e-6
-1.058, 5.002e-6
-1.059, 4.999e-6
-1.060, 4.999e-6
-1.061, 4.997e-6
-1.062, 4.995e-6
-1.063, 4.993e-6
-1.064, 4.988e-6
-1.065, 4.988e-6
-1.066, 4.987e-6
-1.067, 4.984e-6
-1.068, 4.981e-6
-1.069, 4.978e-6
-1.070, 4.978e-6
-1.071, 4.977e-6
-1.072, 4.974e-6
-1.073, 4.971e-6
-1.074, 4.968e-6
-1.075, 4.970e-6
-1.076, 4.969e-6
-1.077, 4.965e-6
-1.078, 4.963e-6
-1.079, 4.961e-6
-1.080, 4.959e-6
-1.081, 4.959e-6
-1.082, 4.955e-6
-1.083, 4.953e-6
-1.084, 4.952e-6
-1.085, 4.951e-6
-1.086, 4.950e-6
-1.087, 4.947e-6
-1.088, 4.944e-6
-1.089, 4.943e-6
-1.090, 4.941e-6
-1.091, 4.943e-6
-1.092, 4.940e-6
-1.093, 4.937e-6
-1.094, 4.935e-6
-1.095, 4.935e-6
-1.096, 4.934e-6
-1.097, 4.934e-6
-1.098, 4.929e-6
-1.099, 4.928e-6
-1.100, 4.928e-6
-1.101, 4.928e-6
-1.102, 4.926e-6
-1.103, 4.923e-6
-1.104, 4.922e-6
-1.105, 4.923e-6
-1.106, 4.922e-6
-1.107, 4.919e-6
-1.108, 4.918e-6
-1.109, 4.916e-6
-1.110, 4.916e-6
-1.111, 4.916e-6
-1.112, 4.914e-6
-1.113, 4.912e-6
-1.114, 4.910e-6
-1.115, 4.910e-6
-1.116, 4.912e-6
-1.117, 4.908e-6
-1.118, 4.906e-6
-1.119, 4.905e-6
-1.120, 4.905e-6
-1.121, 4.906e-6
-1.122, 4.904e-6
-1.123, 4.902e-6
-1.124, 4.902e-6
-1.125, 4.901e-6
-1.126, 4.902e-6
-1.127, 4.899e-6
-1.128, 4.898e-6
-1.129, 4.898e-6
-1.130, 4.898e-6
-1.131, 4.898e-6
-1.132, 4.896e-6
-1.133, 4.895e-6
-1.134, 4.894e-6
-1.135, 4.894e-6
-1.136, 4.894e-6
-1.137, 4.894e-6
-1.138, 4.891e-6
-1.139, 4.891e-6
-1.140, 4.890e-6
-1.141, 4.892e-6
-1.142, 4.891e-6
-1.143, 4.888e-6
-1.144, 4.887e-6
-1.145, 4.889e-6
-1.146, 4.888e-6
-1.147, 4.888e-6
-1.148, 4.886e-6
-1.149, 4.884e-6
-1.150, 4.885e-6
-1.151, 4.884e-6
-1.152, 4.885e-6
-1.153, 4.885e-6
-1.154, 4.884e-6
-1.155, 4.884e-6
-1.156, 4.884e-6
-1.157, 4.882e-6
-1.158, 4.882e-6
-1.159, 4.881e-6
-1.160, 4.880e-6
-1.161, 4.882e-6
-1.162, 4.880e-6
-1.163, 4.880e-6
-1.164, 4.879e-6
-1.165, 4.880e-6
-1.166, 4.881e-6
-1.167, 4.880e-6
-1.168, 4.879e-6
-1.169, 4.878e-6
-1.170, 4.878e-6
-1.171, 4.879e-6
-1.172, 4.879e-6
-1.173, 4.878e-6
-1.174, 4.878e-6
-1.175, 4.877e-6
-1.176, 4.879e-6
-1.177, 4.879e-6
-1.178, 4.880e-6
-1.179, 4.878e-6
-1.180, 4.879e-6
-1.181, 4.879e-6
-1.182, 4.878e-6
-1.183, 4.877e-6
-1.184, 4.876e-6
-1.185, 4.877e-6
-1.186, 4.879e-6
-1.187, 4.878e-6
-1.188, 4.877e-6
-1.189, 4.876e-6
-1.190, 4.878e-6
-1.191, 4.880e-6
-1.192, 4.879e-6
-1.193, 4.878e-6
-1.194, 4.877e-6
-1.195, 4.877e-6
-1.196, 4.879e-6
-1.197, 4.878e-6
-1.198, 4.879e-6
-1.199, 4.877e-6
-1.200, 4.878e-6
-1.201, 4.880e-6
-1.202, 4.879e-6
-1.203, 4.880e-6
-1.204, 4.879e-6
-1.205, 4.879e-6
-1.206, 4.882e-6
-1.207, 4.881e-6
-1.208, 4.881e-6
-1.209, 4.881e-6
-1.210, 4.880e-6
-1.211, 4.883e-6
-1.212, 4.883e-6
-1.213, 4.881e-6
-1.214, 4.882e-6
-1.215, 4.882e-6
-1.216, 4.885e-6
-1.217, 4.885e-6
-1.218, 4.883e-6
-1.219, 4.884e-6
-1.220, 4.886e-6
-1.221, 4.887e-6
-1.222, 4.887e-6
-1.223, 4.885e-6
-1.224, 4.885e-6
-1.225, 4.887e-6
-1.226, 4.888e-6
-1.227, 4.889e-6
-1.228, 4.888e-6
-1.229, 4.893e-6
-1.230, 4.893e-6
-1.231, 4.893e-6
-1.232, 4.893e-6
-1.233, 4.893e-6
-1.234, 4.893e-6
-1.235, 4.895e-6
-1.236, 4.896e-6
-1.237, 4.896e-6
-1.238, 4.896e-6
-1.239, 4.897e-6
-1.240, 4.897e-6
-1.241, 4.900e-6
-1.242, 4.900e-6
-1.243, 4.900e-6
-1.244, 4.901e-6
-1.245, 4.901e-6
-1.246, 4.903e-6
-1.247, 4.904e-6
-1.248, 4.904e-6
-1.249, 4.906e-6
-1.250, 4.905e-6
-1.251, 4.907e-6
-1.252, 4.908e-6
-1.253, 4.907e-6
-1.254, 4.909e-6
-1.255, 4.910e-6
-1.256, 4.913e-6
-1.257, 4.913e-6
-1.258, 4.912e-6
-1.259, 4.915e-6
-1.260, 4.915e-6
-1.261, 4.917e-6
-1.262, 4.918e-6
-1.263, 4.918e-6
-1.264, 4.918e-6
-1.265, 4.920e-6
-1.266, 4.922e-6
-1.267, 4.924e-6
-1.268, 4.923e-6
-1.269, 4.924e-6
-1.270, 4.926e-6
-1.271, 4.928e-6
-1.272, 4.930e-6
-1.273, 4.931e-6
-1.274, 4.932e-6
-1.275, 4.933e-6
-1.276, 4.935e-6
-1.277, 4.934e-6
-1.278, 4.936e-6
-1.279, 4.938e-6
-1.280, 4.941e-6
-1.281, 4.944e-6
-1.282, 4.944e-6
-1.283, 4.945e-6
-1.284, 4.945e-6
-1.285, 4.947e-6
-1.286, 4.950e-6
-1.287, 4.952e-6
-1.288, 4.952e-6
-1.289, 4.954e-6
-1.290, 4.954e-6
-1.291, 4.958e-6
-1.292, 4.958e-6
-1.293, 4.960e-6
-1.294, 4.962e-6
-1.295, 4.962e-6
-1.296, 4.966e-6
-1.297, 4.967e-6
-1.298, 4.968e-6
-1.299, 4.969e-6
-1.300, 4.972e-6
-1.301, 4.973e-6
-1.302, 4.976e-6
-1.303, 4.978e-6
-1.304, 4.978e-6
-1.305, 4.982e-6
-1.306, 4.985e-6
-1.307, 4.986e-6
-1.308, 4.987e-6
-1.309, 4.988e-6
-1.310, 4.991e-6
-1.311, 4.994e-6
-1.312, 4.997e-6
-1.313, 4.997e-6
-1.314, 4.998e-6
-1.315, 5.002e-6
-1.316, 5.006e-6
-1.317, 5.008e-6
-1.318, 5.010e-6
-1.319, 5.011e-6
-1.320, 5.014e-6
-1.321, 5.017e-6
-1.322, 5.017e-6
-1.323, 5.020e-6
-1.324, 5.022e-6
-1.325, 5.025e-6
-1.326, 5.029e-6
-1.327, 5.032e-6
-1.328, 5.032e-6
-1.329, 5.034e-6
-1.330, 5.037e-6
-1.331, 5.043e-6
-1.332, 5.045e-6
-1.333, 5.046e-6
-1.334, 5.048e-6
-1.335, 5.051e-6
-1.336, 5.056e-6
-1.337, 5.058e-6
-1.338, 5.059e-6
-1.339, 5.062e-6
-1.340, 5.065e-6
-1.341, 5.069e-6
-1.342, 5.072e-6
-1.343, 5.074e-6
-1.344, 5.077e-6
-1.345, 5.080e-6
-1.346, 5.084e-6
-1.347, 5.088e-6
-1.348, 5.089e-6
-1.349, 5.091e-6
-1.350, 5.094e-6
-1.351, 5.099e-6
-1.352, 5.103e-6
-1.353, 5.105e-6
-1.354, 5.107e-6
-1.355, 5.110e-6
-1.356, 5.115e-6
-1.357, 5.119e-6
-1.358, 5.122e-6
-1.359, 5.124e-6
-1.360, 5.128e-6
-1.361, 5.132e-6
-1.362, 5.135e-6
-1.363, 5.139e-6
-1.364, 5.142e-6
-1.365, 5.145e-6
-1.366, 5.151e-6
-1.367, 5.154e-6
-1.368, 5.156e-6
-1.369, 5.161e-6
-1.370, 5.163e-6
-1.371, 5.170e-6
-1.372, 5.173e-6
-1.373, 5.175e-6
-1.374, 5.180e-6
-1.375, 5.182e-6
-1.376, 5.189e-6
-1.377, 5.193e-6
-1.378, 5.195e-6
-1.379, 5.200e-6
-1.380, 5.203e-6
-1.381, 5.209e-6
-1.382, 5.216e-6
-1.383, 5.221e-6
-1.384, 5.223e-6
-1.385, 5.227e-6
-1.386, 5.232e-6
-1.387, 5.237e-6
-1.388, 5.241e-6
-1.389, 5.245e-6
-1.390, 5.251e-6
-1.391, 5.257e-6
-1.392, 5.262e-6
-1.393, 5.266e-6
-1.394, 5.269e-6
-1.395, 5.275e-6
-1.396, 5.282e-6
-1.397, 5.286e-6
-1.398, 5.291e-6
-1.399, 5.296e-6
-1.400, 5.299e-6
-1.401, 5.308e-6
-1.402, 5.312e-6
-1.403, 5.316e-6
-1.404, 5.322e-6
-1.405, 5.328e-6
-1.406, 5.335e-6
-1.407, 5.341e-6
-1.408, 5.346e-6
-1.409, 5.350e-6
-1.410, 5.356e-6
-1.411, 5.364e-6
-1.412, 5.369e-6
-1.413, 5.374e-6
-1.414, 5.380e-6
-1.415, 5.385e-6
-1.416, 5.392e-6
-1.417, 5.400e-6
-1.418, 5.402e-6
-1.419, 5.409e-6
-1.420, 5.415e-6
-1.421, 5.424e-6
-1.422, 5.430e-6
-1.423, 5.435e-6
-1.424, 5.441e-6
-1.425, 5.449e-6
-1.426, 5.456e-6
-1.427, 5.463e-6
-1.428, 5.468e-6
-1.429, 5.475e-6
-1.430, 5.483e-6
-1.431, 5.492e-6
-1.432, 5.500e-6
-1.433, 5.506e-6
-1.434, 5.514e-6
-1.435, 5.520e-6
-1.436, 5.531e-6
-1.437, 5.539e-6
-1.438, 5.546e-6
-1.439, 5.552e-6
-1.440, 5.560e-6
-1.441, 5.570e-6
-1.442, 5.576e-6
-1.443, 5.585e-6
-1.444, 5.591e-6
-1.445, 5.599e-6
-1.446, 5.612e-6
-1.447, 5.619e-6
-1.448, 5.626e-6
-1.449, 5.635e-6
-1.450, 5.640e-6
-1.451, 5.652e-6
-1.452, 5.661e-6
-1.453, 5.668e-6
-1.454, 5.677e-6
-1.455, 5.684e-6
-1.456, 5.696e-6
-1.457, 5.707e-6
-1.458, 5.713e-6
-1.459, 5.724e-6
-1.460, 5.733e-6
-1.461, 5.745e-6
-1.462, 5.757e-6
-1.463, 5.764e-6
-1.464, 5.774e-6
-1.465, 5.784e-6
-1.466, 5.796e-6
-1.467, 5.807e-6
-1.468, 5.816e-6
-1.469, 5.825e-6
-1.470, 5.838e-6
-1.471, 5.847e-6
-1.472, 5.861e-6
-1.473, 5.871e-6
-1.474, 5.880e-6
-1.475, 5.891e-6
-1.476, 5.902e-6
-1.477, 5.914e-6
-1.478, 5.924e-6
-1.479, 5.933e-6
-1.480, 5.944e-6
-1.481, 5.958e-6
-1.482, 5.970e-6
-1.483, 5.982e-6
-1.484, 5.993e-6
-1.485, 6.005e-6
-1.486, 6.022e-6
-1.487, 6.034e-6
-1.488, 6.045e-6
-1.489, 6.058e-6
-1.490, 6.070e-6
-1.491, 6.086e-6
-1.492, 6.101e-6
-1.493, 6.112e-6
-1.494, 6.126e-6
-1.495, 6.139e-6
-1.496, 6.154e-6
-1.497, 6.168e-6
-1.498, 6.181e-6
-1.499, 6.194e-6
-1.500, 6.207e-6
-1.501, 6.223e-6
-1.502, 6.239e-6
-1.503, 6.251e-6
-1.504, 6.266e-6
-1.505, 6.281e-6
-1.506, 6.297e-6
-1.507, 6.315e-6
-1.508, 6.330e-6
-1.509, 6.347e-6
-1.510, 6.361e-6
-1.511, 6.380e-6
-1.512, 6.398e-6
-1.513, 6.414e-6
-1.514, 6.428e-6
-1.515, 6.446e-6
-1.516, 6.464e-6
-1.517, 6.483e-6
-1.518, 6.501e-6
-1.519, 6.516e-6
-1.520, 6.535e-6
-1.521, 6.556e-6
-1.522, 6.576e-6
-1.523, 6.594e-6
-1.524, 6.613e-6
-1.525, 6.630e-6
-1.526, 6.654e-6
-1.527, 6.673e-6
-1.528, 6.693e-6
-1.529, 6.713e-6
-1.530, 6.732e-6
-1.531, 6.753e-6
-1.532, 6.776e-6
-1.533, 6.796e-6
-1.534, 6.817e-6
-1.535, 6.837e-6
-1.536, 6.861e-6
-1.537, 6.884e-6
-1.538, 6.904e-6
-1.539, 6.926e-6
-1.540, 6.948e-6
-1.541, 6.972e-6
-1.542, 6.997e-6
-1.543, 7.019e-6
-1.544, 7.040e-6
-1.545, 7.065e-6
-1.546, 7.090e-6
-1.547, 7.115e-6
-1.548, 7.140e-6
-1.549, 7.165e-6
-1.550, 7.192e-6
-1.551, 7.218e-6
-1.552, 7.244e-6
-1.553, 7.269e-6
-1.554, 7.291e-6
-1.555, 7.320e-6
-1.556, 7.348e-6
-1.557, 7.377e-6
-1.558, 7.402e-6
-1.559, 7.429e-6
-1.560, 7.456e-6
-1.561, 7.488e-6
-1.562, 7.517e-6
-1.563, 7.547e-6
-1.564, 7.574e-6
-1.565, 7.604e-6
-1.566, 7.638e-6
-1.567, 7.668e-6
-1.568, 7.697e-6
-1.569, 7.731e-6
-1.570, 7.758e-6
-1.571, 7.792e-6
-1.572, 7.827e-6
-1.573, 7.858e-6
-1.574, 7.892e-6
-1.575, 7.923e-6
-1.576, 7.960e-6
-1.577, 7.997e-6
-1.578, 8.027e-6
-1.579, 8.062e-6
-1.580, 8.097e-6
-1.581, 8.135e-6
-1.582, 8.173e-6
-1.583, 8.209e-6
-1.584, 8.246e-6
-1.585, 8.285e-6
-1.586, 8.324e-6
-1.587, 8.366e-6
-1.588, 8.404e-6
-1.589, 8.440e-6
-1.590, 8.480e-6
-1.591, 8.521e-6
-1.592, 8.564e-6
-1.593, 8.604e-6
-1.594, 8.642e-6
-1.595, 8.684e-6
-1.596, 8.729e-6
-1.597, 8.773e-6
-1.598, 8.818e-6
-1.599, 8.859e-6
-1.600, 8.902e-6
-1.601, 8.951e-6
-1.602, 8.996e-6
-1.603, 9.042e-6
-1.604, 9.090e-6
-1.605, 9.136e-6
-1.606, 9.188e-6
-1.607, 9.240e-6
-1.608, 9.290e-6
-1.609, 9.340e-6
-1.610, 9.389e-6
-1.611, 9.442e-6
-1.612, 9.499e-6
-1.613, 9.552e-6
-1.614, 9.605e-6
-1.615, 9.658e-6
-1.616, 9.719e-6
-1.617, 9.778e-6
-1.618, 9.836e-6
-1.619, 9.894e-6
-1.620, 9.954e-6
-1.621, 1.002e-5
-1.622, 1.008e-5
-1.623, 1.014e-5
-1.624, 1.020e-5
-1.625, 1.027e-5
-1.626, 1.033e-5
-1.627, 1.040e-5
-1.628, 1.047e-5
-1.629, 1.054e-5
-1.630, 1.061e-5
-1.631, 1.069e-5
-1.632, 1.077e-5
-1.633, 1.084e-5
-1.634, 1.092e-5
-1.635, 1.100e-5
-1.636, 1.108e-5
-1.637, 1.116e-5
-1.638, 1.125e-5
-1.639, 1.134e-5
-1.640, 1.142e-5
-1.641, 1.151e-5
-1.642, 1.160e-5
-1.643, 1.170e-5
-1.644, 1.179e-5
-1.645, 1.188e-5
-1.646, 1.198e-5
-1.647, 1.207e-5
-1.648, 1.216e-5
-1.649, 1.226e-5
-1.650, 1.237e-5
-1.651, 1.248e-5
-1.652, 1.259e-5
-1.653, 1.270e-5
-1.654, 1.281e-5
-1.655, 1.292e-5
-1.656, 1.305e-5
-1.657, 1.317e-5
-1.658, 1.329e-5
-1.659, 1.341e-5
-1.660, 1.354e-5
-1.661, 1.367e-5
-1.662, 1.381e-5
-1.663, 1.394e-5
-1.664, 1.408e-5
-1.665, 1.422e-5
-1.666, 1.437e-5
-1.667, 1.452e-5
-1.668, 1.467e-5
-1.669, 1.481e-5
-1.670, 1.497e-5
-1.671, 1.513e-5
-1.672, 1.529e-5
-1.673, 1.546e-5
-1.674, 1.563e-5
-1.675, 1.580e-5
-1.676, 1.598e-5
-1.677, 1.616e-5
-1.678, 1.634e-5
-1.679, 1.653e-5
-1.680, 1.671e-5
-1.681, 1.691e-5
-1.682, 1.711e-5
-1.683, 1.731e-5
-1.684, 1.752e-5
-1.685, 1.772e-5
-1.686, 1.793e-5
-1.687, 1.815e-5
-1.688, 1.837e-5
-1.689, 1.860e-5
-1.690, 1.883e-5
-1.691, 1.907e-5
-1.692, 1.931e-5
-1.693, 1.955e-5
-1.694, 1.981e-5
-1.695, 2.006e-5
-1.696, 2.032e-5
-1.697, 2.059e-5
-1.698, 2.085e-5
-1.699, 2.113e-5
-1.700, 2.141e-5
-1.701, 2.170e-5
-1.702, 2.199e-5
-1.703, 2.229e-5
-1.704, 2.260e-5
-1.705, 2.291e-5
-1.706, 2.322e-5
-1.707, 2.354e-5
-1.708, 2.387e-5
-1.709, 2.421e-5
-1.710, 2.454e-5
-1.711, 2.490e-5
-1.712, 2.526e-5
-1.713, 2.561e-5
-1.714, 2.597e-5
-1.715, 2.635e-5
-1.716, 2.674e-5
-1.717, 2.715e-5
-1.718, 2.755e-5
-1.719, 2.795e-5
-1.720, 2.836e-5
-1.721, 2.880e-5
-1.722, 2.922e-5
-1.723, 2.967e-5
-1.724, 3.013e-5
-1.725, 3.059e-5
-1.726, 3.107e-5
-1.727, 3.155e-5
-1.728, 3.206e-5
-1.729, 3.256e-5
-1.730, 3.307e-5
-1.731, 3.359e-5
-1.732, 3.413e-5
-1.733, 3.468e-5
-1.734, 3.524e-5
-1.735, 3.582e-5
-1.736, 3.640e-5
-1.737, 3.700e-5
-1.738, 3.761e-5
-1.739, 3.823e-5
-1.740, 3.886e-5
-1.741, 3.951e-5
-1.742, 4.018e-5
-1.743, 4.086e-5
-1.744, 4.155e-5
-1.745, 4.225e-5
-1.746, 4.297e-5
-1.747, 4.369e-5
-1.748, 4.443e-5
-1.749, 4.519e-5
-1.750, 4.597e-5
-1.751, 4.677e-5
-1.752, 4.758e-5
-1.753, 4.841e-5
-1.754, 4.924e-5
-1.755, 5.010e-5
-1.756, 5.099e-5
-1.757, 5.189e-5
-1.758, 5.279e-5
-1.759, 5.372e-5
-1.760, 5.466e-5
-1.761, 5.564e-5
-1.762, 5.663e-5
-1.763, 5.763e-5
-1.764, 5.866e-5
-1.765, 5.970e-5
-1.766, 6.077e-5
-1.767, 6.187e-5
-1.768, 6.298e-5
-1.769, 6.413e-5
-1.770, 6.529e-5
-1.771, 6.647e-5
-1.772, 6.769e-5
-1.773, 6.890e-5
-1.774, 7.015e-5
-1.775, 7.143e-5
-1.776, 7.274e-5
-1.777, 7.407e-5
-1.778, 7.540e-5
-1.779, 7.677e-5
-1.780, 7.815e-5
-1.781, 7.959e-5
-1.782, 8.106e-5
-1.783, 8.255e-5
-1.784, 8.403e-5
-1.785, 8.555e-5
-1.786, 8.711e-5
-1.787, 8.867e-5
-1.788, 9.027e-5
-1.789, 9.189e-5
-1.790, 9.355e-5
-1.791, 9.523e-5
-1.792, 9.697e-5
-1.793, 9.873e-5
-1.794, 1.005e-4
-1.795, 1.023e-4
-1.796, 1.042e-4
-1.797, 1.060e-4
-1.798, 1.078e-4
-1.799, 1.097e-4
-1.800, 1.117e-4
-1.801, 1.137e-4
-1.802, 1.157e-4
-1.803, 1.177e-4
-1.804, 1.198e-4
-1.805, 1.220e-4
-1.806, 1.241e-4
-1.807, 1.263e-4
-1.808, 1.285e-4
-1.809, 1.308e-4
-1.810, 1.331e-4
-1.811, 1.354e-4
-1.812, 1.377e-4
-1.813, 1.401e-4
-1.814, 1.425e-4
-1.815, 1.449e-4
-1.816, 1.473e-4
-1.817, 1.499e-4
-1.818, 1.524e-4
-1.819, 1.550e-4
-1.820, 1.576e-4
-1.821, 1.602e-4
-1.822, 1.629e-4
-1.823, 1.656e-4
-1.824, 1.683e-4
-1.825, 1.710e-4
-1.826, 1.738e-4
-1.827, 1.766e-4
-1.828, 1.794e-4
-1.829, 1.823e-4
-1.830, 1.852e-4
-1.831, 1.882e-4
-1.832, 1.912e-4
-1.833, 1.942e-4
-1.834, 1.972e-4
-1.835, 2.003e-4
-1.836, 2.034e-4
-1.837, 2.065e-4
-1.838, 2.096e-4
-1.839, 2.128e-4
-1.840, 2.160e-4
-1.841, 2.192e-4
-1.842, 2.226e-4
-1.843, 2.259e-4
-1.844, 2.293e-4
-1.845, 2.327e-4
-1.846, 2.361e-4
-1.847, 2.396e-4
-1.848, 2.431e-4
-1.849, 2.466e-4
-1.850, 2.502e-4
-1.851, 2.538e-4
-1.852, 2.574e-4
-1.853, 2.611e-4
-1.854, 2.647e-4
-1.855, 2.683e-4
-1.856, 2.719e-4
-1.857, 2.757e-4
-1.858, 2.795e-4
-1.859, 2.834e-4
-1.860, 2.872e-4
-1.861, 2.911e-4
-1.862, 2.948e-4
-1.863, 2.987e-4
-1.864, 3.026e-4
-1.865, 3.066e-4
-1.866, 3.106e-4
-1.867, 3.146e-4
-1.868, 3.187e-4
-1.869, 3.229e-4
-1.870, 3.270e-4
-1.871, 3.312e-4
-1.872, 3.354e-4
-1.873, 3.396e-4
-1.874, 3.439e-4
-1.875, 3.482e-4
-1.876, 3.524e-4
-1.877, 3.568e-4
-1.878, 3.612e-4
-1.879, 3.655e-4
-1.880, 3.699e-4
-1.881, 3.743e-4
-1.882, 3.787e-4
-1.883, 3.832e-4
-1.884, 3.876e-4
-1.885, 3.921e-4
-1.886, 3.967e-4
-1.887, 4.012e-4
-1.888, 4.058e-4
-1.889, 4.101e-4
-1.890, 4.145e-4
-1.891, 4.191e-4
-1.892, 4.237e-4
-1.893, 4.284e-4
-1.894, 4.330e-4
-1.895, 4.376e-4
-1.896, 4.421e-4
-1.897, 4.467e-4
-1.898, 4.516e-4
-1.899, 4.565e-4
-1.900, 4.614e-4
-1.901, 4.663e-4
-1.902, 4.712e-4
-1.903, 4.761e-4
-1.904, 4.811e-4
-1.905, 4.861e-4
-1.906, 4.912e-4
-1.907, 4.964e-4
-1.908, 5.016e-4
-1.909, 5.069e-4
-1.910, 5.122e-4
-1.911, 5.176e-4
-1.912, 5.231e-4
-1.913, 5.287e-4
-1.914, 5.345e-4
-1.915, 5.406e-4
-1.916, 5.463e-4
-1.917, 5.519e-4
-1.918, 5.576e-4
-1.919, 5.633e-4
-1.920, 5.691e-4
-1.921, 5.750e-4
-1.922, 5.809e-4
-1.923, 5.870e-4
-1.924, 5.927e-4
-1.925, 5.985e-4
-1.926, 6.045e-4
-1.927, 6.104e-4
-1.928, 6.164e-4
-1.929, 6.224e-4
-1.930, 6.285e-4
-1.931, 6.346e-4
-1.932, 6.407e-4
-1.933, 6.469e-4
-1.934, 6.532e-4
-1.935, 6.596e-4
-1.936, 6.660e-4
-1.937, 6.723e-4
-1.938, 6.786e-4
-1.939, 6.849e-4
-1.940, 6.915e-4
-1.941, 6.980e-4
-1.942, 7.046e-4
-1.943, 7.112e-4
-1.944, 7.178e-4
-1.945, 7.244e-4
-1.946, 7.312e-4
-1.947, 7.380e-4
-1.948, 7.447e-4
-1.949, 7.524e-4
-1.950, 7.593e-4
-1.951, 7.662e-4
-1.952, 7.732e-4
-1.953, 7.800e-4
-1.954, 7.873e-4
-1.955, 7.945e-4
-1.956, 8.015e-4
-1.957, 8.085e-4
-1.958, 8.154e-4
-1.959, 8.223e-4
-1.960, 8.293e-4
-1.961, 8.363e-4
-1.962, 8.434e-4
-1.963, 8.508e-4
-1.964, 8.578e-4
-1.965, 8.650e-4
-1.966, 8.721e-4
-1.967, 8.794e-4
-1.968, 8.866e-4
-1.969, 8.943e-4
-1.970, 9.029e-4
-1.971, 9.103e-4
-1.972, 9.175e-4
-1.973, 9.248e-4
-1.974, 9.323e-4
-1.975, 9.407e-4
-1.976, 9.488e-4
-1.977, 9.564e-4
-1.978, 9.643e-4
-1.979, 9.721e-4
-1.980, 9.792e-4
-1.981, 9.864e-4
-1.982, 9.937e-4
-1.983, 1.001e-3
-1.984, 1.008e-3
-1.985, 1.011e-3
-1.986, 1.011e-3
-1.987, 1.011e-3
-1.988, 1.011e-3
-1.989, 1.011e-3
-1.990, 1.011e-3
-1.991, 1.011e-3
-1.992, 1.011e-3
-1.993, 1.011e-3
-1.994, 1.011e-3
-1.995, 1.011e-3
-1.996, 1.011e-3
-1.997, 1.011e-3
-1.998, 1.011e-3
-1.999, 1.011e-3
-2.000, 1.011e-3
-2.001, 1.011e-3
-2.002, 1.011e-3
-2.003, 1.011e-3
-2.004, 1.011e-3
-2.005, 1.011e-3
-2.006, 1.011e-3
-2.007, 1.011e-3
-2.008, 1.011e-3
-2.009, 1.011e-3
-2.010, 1.011e-3
-2.011, 1.011e-3
-2.012, 1.011e-3
-2.013, 1.011e-3
-2.014, 1.011e-3
-2.015, 1.011e-3
-2.016, 1.011e-3
-2.017, 1.011e-3
-2.018, 1.011e-3
-2.019, 1.011e-3
-2.020, 1.011e-3
-2.021, 1.011e-3
-2.022, 1.011e-3
-2.023, 1.011e-3
-2.024, 1.011e-3
-2.025, 1.011e-3
-2.026, 1.011e-3
-2.027, 1.011e-3
-2.028, 1.011e-3
-2.029, 1.011e-3
-2.030, 1.011e-3
-2.031, 1.011e-3
-2.032, 1.011e-3
-2.033, 1.011e-3
-2.034, 1.011e-3
-2.035, 1.011e-3
-2.036, 1.011e-3
-2.037, 1.011e-3
-2.038, 1.011e-3
-2.039, 1.011e-3
-2.040, 1.011e-3
-2.041, 1.011e-3
-2.042, 1.011e-3
-2.043, 1.011e-3
-2.044, 1.011e-3
-2.045, 1.011e-3
-2.046, 1.011e-3
-2.047, 1.011e-3
-2.048, 1.011e-3
-2.049, 1.011e-3
-2.050, 1.011e-3
-2.051, 1.011e-3
-2.052, 1.011e-3
-2.053, 1.011e-3
-2.054, 1.011e-3
-2.055, 1.011e-3
-2.056, 1.011e-3
-2.057, 1.011e-3
-2.058, 1.011e-3
-2.059, 1.011e-3
-2.060, 1.011e-3
-2.061, 1.011e-3
-2.062, 1.011e-3
-2.063, 1.011e-3
-2.064, 1.011e-3
-2.065, 1.011e-3
-2.066, 1.011e-3
-2.067, 1.011e-3
-2.068, 1.011e-3
-2.069, 1.011e-3
-2.070, 1.011e-3
-2.071, 1.011e-3
-2.072, 1.011e-3
-2.073, 1.011e-3
-2.074, 1.011e-3
-2.075, 1.011e-3
-2.076, 1.011e-3
-2.077, 1.011e-3
-2.078, 1.011e-3
-2.079, 1.011e-3
-2.080, 1.011e-3
-2.081, 1.011e-3
-2.082, 1.011e-3
-2.083, 1.011e-3
-2.084, 1.011e-3
-2.085, 1.011e-3
-2.086, 1.011e-3
-2.087, 1.011e-3
-2.088, 1.011e-3
-2.089, 1.011e-3
-2.090, 1.011e-3
-2.091, 1.011e-3
-2.092, 1.011e-3
-2.093, 1.011e-3
-2.094, 1.011e-3
-2.095, 1.011e-3
-2.096, 1.011e-3
-2.097, 1.011e-3
-2.098, 1.011e-3
-2.099, 1.011e-3
-2.100, 1.011e-3
-2.101, 1.011e-3
-2.102, 1.011e-3
-2.103, 1.011e-3
-2.104, 1.011e-3
-2.105, 1.011e-3
-2.106, 1.011e-3
-2.107, 1.011e-3
-2.108, 1.011e-3
-2.109, 1.011e-3
-2.110, 1.011e-3
-2.111, 1.011e-3
-2.112, 1.011e-3
-2.113, 1.011e-3
-2.114, 1.011e-3
-2.115, 1.011e-3
-2.116, 1.011e-3
-2.117, 1.011e-3
-2.118, 1.011e-3
-2.119, 1.011e-3
-2.120, 1.011e-3
-2.121, 1.011e-3
-2.122, 1.011e-3
-2.123, 1.011e-3
-2.124, 1.011e-3
-2.125, 1.011e-3
-2.126, 1.011e-3
-2.127, 1.011e-3
-2.128, 1.011e-3
-2.129, 1.011e-3
-2.130, 1.011e-3
-2.131, 1.011e-3
-2.132, 1.011e-3
-2.133, 1.011e-3
-2.134, 1.011e-3
-2.135, 1.011e-3
-2.136, 1.011e-3
-2.137, 1.011e-3
-2.138, 1.011e-3
-2.139, 1.011e-3
-2.140, 1.011e-3
-2.141, 1.011e-3
-2.142, 1.011e-3
-2.143, 1.011e-3
-2.144, 1.011e-3
-2.145, 1.011e-3
-2.146, 1.011e-3
-2.147, 1.011e-3
-2.148, 1.011e-3
-2.149, 1.011e-3
-2.150, 1.011e-3
-2.151, 1.011e-3
-2.152, 1.011e-3
-2.153, 1.011e-3
-2.154, 1.011e-3
-2.155, 1.011e-3
-2.156, 1.011e-3
-2.157, 1.011e-3
-2.158, 1.011e-3
-2.159, 1.011e-3
-2.160, 1.011e-3
-2.161, 1.011e-3
-2.162, 1.011e-3
-2.163, 1.011e-3
-2.164, 1.011e-3
-2.165, 1.011e-3
-2.166, 1.011e-3
-2.167, 1.011e-3
-2.168, 1.011e-3
-2.169, 1.011e-3
-2.170, 1.011e-3
-2.171, 1.011e-3
-2.172, 1.011e-3
-2.173, 1.011e-3
-2.174, 1.011e-3
-2.175, 1.011e-3
-2.176, 1.011e-3
-2.177, 1.011e-3
-2.178, 1.011e-3
-2.179, 1.011e-3
-2.180, 1.011e-3
-2.181, 1.011e-3
-2.182, 1.011e-3
-2.183, 1.011e-3
-2.184, 1.011e-3
-2.185, 1.011e-3
-2.186, 1.011e-3
-2.187, 1.011e-3
-2.188, 1.011e-3
-2.189, 1.011e-3
-2.190, 1.011e-3
-2.191, 1.011e-3
-2.192, 1.011e-3
-2.193, 1.011e-3
-2.194, 1.011e-3
-2.195, 1.011e-3
-2.196, 1.011e-3
-2.197, 1.011e-3
-2.198, 1.011e-3
-2.199, 1.011e-3
-2.200, 1.011e-3
-2.201, 1.011e-3
-2.202, 1.011e-3
-2.203, 1.011e-3
-2.204, 1.011e-3
-2.205, 1.011e-3
-2.206, 1.011e-3
-2.207, 1.011e-3
-2.208, 1.011e-3
-2.209, 1.011e-3
-2.210, 1.011e-3
-2.211, 1.011e-3
-2.212, 1.011e-3
-2.213, 1.011e-3
-2.214, 1.011e-3
-2.215, 1.011e-3
-2.216, 1.011e-3
-2.217, 1.011e-3
-2.218, 1.011e-3
-2.219, 1.011e-3
-2.220, 1.011e-3
-2.221, 1.011e-3
-2.222, 1.011e-3
-2.223, 1.011e-3
-2.224, 1.011e-3
-2.225, 1.011e-3
-2.226, 1.011e-3
-2.227, 1.011e-3
-2.228, 1.011e-3
-2.229, 1.011e-3
-2.230, 1.011e-3
-2.231, 1.011e-3
-2.232, 1.011e-3
-2.233, 1.011e-3
-2.234, 1.011e-3
-2.235, 1.011e-3
-2.236, 1.011e-3
-2.237, 1.011e-3
-2.238, 1.011e-3
-2.239, 1.011e-3
-2.240, 1.011e-3
-2.241, 1.011e-3
-2.242, 1.011e-3
-2.243, 1.011e-3
-2.244, 1.011e-3
-2.245, 1.011e-3
-2.246, 1.011e-3
-2.247, 1.011e-3
-2.248, 1.011e-3
-2.249, 1.011e-3
-2.250, 1.011e-3
-2.251, 1.011e-3
-2.252, 1.011e-3
-2.253, 1.011e-3
-2.254, 1.011e-3
-2.255, 1.011e-3
-2.256, 1.011e-3
-2.257, 1.011e-3
-2.258, 1.011e-3
-2.259, 1.011e-3
-2.260, 1.011e-3
-2.261, 1.011e-3
-2.262, 1.011e-3
-2.263, 1.011e-3
-2.264, 1.011e-3
-2.265, 1.011e-3
-2.266, 1.011e-3
-2.267, 1.011e-3
-2.268, 1.011e-3
-2.269, 1.011e-3
-2.270, 1.011e-3
-2.271, 1.011e-3
-2.272, 1.011e-3
-2.273, 1.011e-3
-2.274, 1.011e-3
-2.275, 1.011e-3
-2.276, 1.011e-3
-2.277, 1.011e-3
-2.278, 1.011e-3
-2.279, 1.011e-3
-2.280, 1.011e-3
-2.281, 1.011e-3
-2.282, 1.011e-3
-2.283, 1.011e-3
-2.284, 1.011e-3
-2.285, 1.011e-3
-2.286, 1.011e-3
-2.287, 1.011e-3
-2.288, 1.011e-3
-2.289, 1.011e-3
-2.290, 1.011e-3
-2.291, 1.011e-3
-2.292, 1.011e-3
-2.293, 1.011e-3
-2.294, 1.011e-3
-2.295, 1.011e-3
-2.296, 1.011e-3
-2.297, 1.011e-3
-2.298, 1.011e-3
-2.299, 1.011e-3
