Potential V vs RHE, Current mA cm-2
0.05339999999999995,-0.027332222313392506
0.05239999999999995,-0.028336667336296688
0.051399999999999946,-0.028874257630245398
0.050399999999999945,-0.029284523907206258
0.049399999999999944,-0.02966649595816982
0.04839999999999994,-0.030048468009133376
0.04739999999999994,-0.030359704495103685
0.04639999999999994,-0.03065679386807535
0.04539999999999994,-0.030982177467044306
0.04439999999999994,-0.03130756106601326
0.04339999999999994,-0.03161879755198357
0.04239999999999994,-0.03193003403795388
0.04139999999999994,-0.03221297629792688
0.040399999999999936,-0.03251006567089854
0.039399999999999935,-0.0328637434958648
0.038399999999999934,-0.03320327420783241
0.03739999999999993,-0.03350036358080407
0.03639999999999993,-0.03381160006677438
0.03539999999999993,-0.034108689439746036
0.03439999999999993,-0.03444822015171364
0.03339999999999993,-0.03475945663768395
0.03239999999999993,-0.03504239889765696
0.03139999999999993,-0.03533948827062862
0.030399999999999927,-0.035664871869597575
0.029399999999999926,-0.03599025546856653
0.028399999999999925,-0.03634393329353279
0.027399999999999924,-0.03664102266650445
0.026399999999999924,-0.03695225915247476
0.025399999999999923,-0.037291789864442364
0.024399999999999922,-0.03761717346341132
0.02339999999999992,-0.03798499840137624
0.02239999999999992,-0.03828208777434789
0.02139999999999992,-0.0385933242603182
0.020399999999999918,-0.03890456074628851
0.019399999999999917,-0.03927238568425342
0.018399999999999916,-0.039611916396221025
0.017399999999999916,-0.03995144710818864
0.016399999999999915,-0.040262683594158945
0.015399999999999914,-0.04058806719312791
0.014399999999999913,-0.04094174501809417
0.013399999999999912,-0.04132371706905772
0.012399999999999911,-0.04167739489402397
0.01139999999999991,-0.041988631379994285
0.01039999999999991,-0.04232816209196189
0.009399999999999908,-0.04268183991692816
0.008399999999999908,-0.04306381196789172
0.007399999999999907,-0.04341748979285798
0.006399999999999906,-0.043757020504825585
0.005399999999999905,-0.04411069832979184
0.004399999999999904,-0.044492670380755404
0.003399999999999903,-0.044874642431718965
0.002399999999999902,-0.04522832025668522
0.0013999999999999013,-0.04558199808165148
0.00039999999999990044,-0.04592152879361909
-0.0006000000000001005,-0.046317647957581295
-0.0016000000000001013,-0.04668547289554621
-0.0026000000000001022,-0.04708159205950842
-0.003600000000000103,-0.04743526988447468
-0.004600000000000104,-0.04780309482243959
-0.005600000000000105,-0.048227508212399094
-0.006600000000000106,-0.04862362737636131
-0.007600000000000107,-0.04897730520132757
-0.008600000000000108,-0.04937342436528978
-0.009600000000000108,-0.049727102190256035
-0.01060000000000011,-0.0501373684672169
-0.01160000000000011,-0.05054763474417776
-0.012600000000000111,-0.05094375390813997
-0.013600000000000112,-0.05133987307210218
-0.014600000000000113,-0.05175013934906304
-0.015600000000000114,-0.05214625851302525
-0.016600000000000115,-0.05257067190298476
-0.017600000000000116,-0.052966791066946975
-0.018600000000000116,-0.05336291023090918
-0.019600000000000117,-0.05375902939487139
-0.020600000000000118,-0.054169295671832256
-0.02160000000000012,-0.05463615040078772
-0.02260000000000012,-0.05503226956474993
-0.02360000000000012,-0.05541424161571349
-0.024600000000000122,-0.05582450789267435
-0.025600000000000123,-0.056248921282633854
-0.026600000000000124,-0.05670162889859067
-0.027600000000000124,-0.05711189517555153
-0.028600000000000125,-0.05750801433951374
-0.029600000000000126,-0.0579182806164746
-0.030600000000000127,-0.05837098823243141
-0.03160000000000013,-0.05882369584838822
-0.03260000000000013,-0.05919152078635314
-0.03360000000000013,-0.05961593417631265
-0.03460000000000002,-0.060026200453273504
-0.03560000000000002,-0.06046476095623167
-0.03660000000000002,-0.06091746857218847
-0.03760000000000002,-0.06135602907514664
-0.03860000000000002,-0.061780442465106146
-0.039600000000000024,-0.06220485585506567
-0.040600000000000025,-0.06265756347102248
-0.041600000000000026,-0.06312441819997792
-0.04260000000000003,-0.0635629787029361
-0.04360000000000003,-0.06402983343189157
-0.04460000000000003,-0.06445424682185108
-0.04560000000000003,-0.06492110155080652
-0.04660000000000003,-0.06538795627976199
-0.04760000000000003,-0.06582651678272017
-0.04860000000000003,-0.06626507728567832
-0.04960000000000003,-0.06670363778863649
-0.050600000000000034,-0.06715634540459328
-0.051600000000000035,-0.0676656414725447
-0.052600000000000036,-0.06809005486250422
-0.053600000000000037,-0.06854276247846103
-0.05460000000000004,-0.0689813229814192
-0.05560000000000004,-0.069434030597376
-0.05660000000000004,-0.06991503243933012
-0.05760000000000004,-0.07036774005528693
-0.05860000000000004,-0.07080630055824509
-0.05960000000000004,-0.07127315528720055
-0.06060000000000004,-0.07172586290315736
-0.061600000000000044,-0.07222101185811013
-0.06260000000000004,-0.07267371947406694
-0.06360000000000005,-0.07312642709002375
-0.06460000000000005,-0.07357913470598056
-0.06560000000000005,-0.07406013654793467
-0.06660000000000005,-0.07454113838988878
-0.06760000000000005,-0.07497969889284695
-0.06860000000000005,-0.0754182593958051
-0.06960000000000005,-0.07589926123775922
-0.07060000000000005,-0.07633782174071738
-0.07160000000000005,-0.07680467646967284
-0.07260000000000005,-0.07727153119862831
-0.07360000000000005,-0.07771009170158645
-0.07460000000000006,-0.07814865220454463
-0.07560000000000006,-0.07865794827249603
-0.07660000000000006,-0.0791248030014515
-0.07760000000000006,-0.07957751061740831
-0.07860000000000006,-0.08000192400736782
-0.07960000000000006,-0.080440484510326
-0.08060000000000006,-0.0808931921262828
-0.08160000000000006,-0.0813741939682369
-0.08260000000000006,-0.08184104869719236
-0.08360000000000006,-0.08229375631314918
-0.08460000000000006,-0.08271816970310869
-0.08560000000000006,-0.08315673020606687
-0.08660000000000007,-0.08359529070902501
-0.08760000000000007,-0.08399140987298723
-0.08860000000000007,-0.08441582326294673
-0.08960000000000007,-0.08484023665290626
-0.09060000000000007,-0.08529294426886307
-0.09160000000000007,-0.0857597989978185
-0.09260000000000007,-0.08617006527477938
-0.09360000000000007,-0.0865944786647389
-0.09460000000000007,-0.0869905978287011
-0.09560000000000007,-0.0874150112186606
-0.09660000000000007,-0.08783942460862013
-0.09760000000000008,-0.08823554377258234
-0.09860000000000008,-0.08861751582354589
-0.09960000000000008,-0.08901363498750811
-0.10060000000000008,-0.08943804837746762
-0.10160000000000008,-0.08989075599342443
-0.10260000000000008,-0.09028687515738665
-0.10360000000000008,-0.09068299432134884
-0.10460000000000008,-0.09107911348531106
-0.10560000000000008,-0.09147523264927326
-0.10660000000000008,-0.09187135181323548
-0.10760000000000008,-0.09225332386419903
-0.10860000000000009,-0.09263529591516259
-0.10960000000000009,-0.09300312085312752
-0.11060000000000009,-0.09338509290409107
-0.11160000000000009,-0.09379535918105193
-0.11260000000000009,-0.09414903700601819
-0.11360000000000009,-0.0944885677179858
-0.11460000000000009,-0.09485639265595071
-0.11560000000000009,-0.09522421759391562
-0.11660000000000009,-0.09559204253188053
-0.1176000000000001,-0.09594572035684679
-0.1186000000000001,-0.09627110395581574
-0.1196000000000001,-0.0965964875547847
-0.1206000000000001,-0.09693601826675231
-0.1216000000000001,-0.09728969609171857
-0.1226000000000001,-0.09758678546469024
-0.1236000000000001,-0.0978838748376619
-0.1246000000000001,-0.09818096421063353
-0.1256000000000001,-0.09849220069660385
-0.1266000000000001,-0.09883173140857146
-0.1276000000000001,-0.09911467366854448
-0.1286000000000001,-0.09938346881551882
-0.1296000000000001,-0.09966641107549183
-0.1306000000000001,-0.09996350044846349
-0.1316000000000001,-0.10026058982143515
-0.1326000000000001,-0.10051523785541085
-0.1336000000000001,-0.10078403300238521
-0.1346000000000001,-0.10102453392336228
-0.1356000000000001,-0.10127918195733798
-0.1366000000000001,-0.10156212421731098
-0.1376000000000001,-0.10177433091229074
-0.1386000000000001,-0.1020148318332678
-0.1396000000000001,-0.10225533275424485
-0.1406000000000001,-0.10248168656222324
-0.14160000000000011,-0.1027221874832003
-0.14260000000000012,-0.10292024706518142
-0.14360000000000012,-0.10309001242116521
-0.14460000000000012,-0.10328807200314633
-0.14560000000000012,-0.10348613158512744
-0.14660000000000012,-0.10371248539310583
-0.14760000000000012,-0.10389639786208829
-0.14860000000000012,-0.10402372187907614
-0.14960000000000012,-0.1042076343480586
-0.15060000000000012,-0.10436325259104375
-0.15160000000000012,-0.10454716506002622
-0.15260000000000012,-0.10471693041601002
-0.15360000000000013,-0.10481596020700056
-0.15460000000000013,-0.10495743133698707
-0.15560000000000013,-0.10509890246697358
-0.15660000000000013,-0.10525452070995873
-0.15760000000000013,-0.10538184472694657
-0.15860000000000013,-0.10548087451793714
-0.15960000000000002,-0.10559405142192634
-0.16060000000000002,-0.10570722832591554
-0.16160000000000002,-0.10582040522990475
-0.16260000000000002,-0.10593358213389395
-0.16360000000000002,-0.1060043176988872
-0.16460000000000002,-0.10606090615088182
-0.16560000000000002,-0.10621652439386696
-0.16660000000000003,-0.10632970129785616
-0.16760000000000003,-0.10638628974985076
-0.16860000000000003,-0.1064287310888467
-0.16960000000000003,-0.10645702531484401
-0.17060000000000003,-0.10649946665383996
-0.17160000000000003,-0.10659849644483052
-0.17260000000000003,-0.10662679067082782
-0.17360000000000003,-0.10664093778382645
-0.17460000000000003,-0.10666923200982377
-0.17560000000000003,-0.10668337912282241
-0.17660000000000003,-0.10673996757481702
-0.17760000000000004,-0.10673996757481702
-0.17860000000000004,-0.10673996757481702
-0.17960000000000004,-0.10675411468781566
-0.18060000000000004,-0.10675411468781566
-0.18160000000000004,-0.10678240891381298
-0.18260000000000004,-0.10676826180081432
-0.18360000000000004,-0.10672582046181836
-0.18460000000000004,-0.10671167334881972
-0.18560000000000004,-0.10669752623582107
-0.18660000000000004,-0.10669752623582107
-0.18760000000000004,-0.10664093778382645
-0.18860000000000005,-0.10659849644483052
-0.18960000000000005,-0.10655605510583457
-0.19060000000000005,-0.10651361376683861
-0.19160000000000005,-0.10651361376683861
-0.19260000000000005,-0.10645702531484401
-0.19360000000000005,-0.10638628974985076
-0.19460000000000005,-0.10631555418485751
-0.19560000000000005,-0.10627311284586156
-0.19660000000000005,-0.10621652439386696
-0.19760000000000005,-0.10615993594187234
-0.19860000000000005,-0.10607505326388045
-0.19960000000000006,-0.10599017058588855
-0.20060000000000006,-0.10591943502089529
-0.20160000000000006,-0.10584869945590204
-0.20260000000000006,-0.10576381677791014
-0.20360000000000006,-0.10567893409991824
-0.20460000000000006,-0.10555161008293039
-0.20560000000000006,-0.10548087451793714
-0.20660000000000006,-0.10541013895294389
-0.20760000000000006,-0.10528281493595604
-0.20860000000000006,-0.10518378514496549
-0.20960000000000006,-0.10505646112797762
-0.21060000000000006,-0.10498572556298437
-0.21160000000000007,-0.10490084288499248
-0.21260000000000007,-0.10475937175500598
-0.21360000000000007,-0.10466034196401541
-0.21460000000000007,-0.10453301794702756
-0.21560000000000007,-0.10441984104303836
-0.21660000000000007,-0.1043491054780451
-0.21760000000000007,-0.10423592857405589
-0.21860000000000007,-0.1040944574440694
-0.21960000000000007,-0.10396713342708154
-0.22060000000000007,-0.1038398094100937
-0.22160000000000007,-0.10374077961910314
-0.22260000000000008,-0.10361345560211528
-0.22360000000000008,-0.10345783735913014
-0.22460000000000008,-0.10333051334214227
-0.22560000000000008,-0.10318904221215577
-0.22660000000000008,-0.10309001242116521
-0.22760000000000008,-0.10296268840417737
-0.22860000000000008,-0.10280707016119221
-0.22960000000000008,-0.10267974614420436
-0.23060000000000008,-0.10255242212721652
-0.23160000000000008,-0.10242509811022867
-0.23260000000000008,-0.10228362698024217
-0.23360000000000009,-0.102128008737257
-0.2346000000000001,-0.10198653760727049
-0.2356000000000001,-0.10184506647728399
-0.2366000000000001,-0.10173188957329479
-0.2376000000000001,-0.1015904184433083
-0.2386000000000001,-0.10142065308732448
-0.2396000000000001,-0.10126503484433932
-0.2406000000000001,-0.10112356371435283
-0.2416000000000001,-0.10101038681036362
-0.2426000000000001,-0.10086891568037712
-0.2436000000000001,-0.10071329743739196
-0.2446000000000001,-0.10054353208140815
-0.2456000000000001,-0.10040206095142165
-0.2466000000000001,-0.10026058982143515
-0.2476000000000001,-0.10010497157845
-0.2486000000000001,-0.09994935333546484
-0.2496000000000001,-0.09980788220547833
-0.2506000000000001,-0.09965226396249319
-0.2516000000000001,-0.09953908705850398
-0.2526000000000001,-0.09939761592851748
-0.2536000000000001,-0.09921370345953502
-0.2546000000000001,-0.09905808521654987
-0.2556000000000001,-0.09894490831256067
-0.2566000000000001,-0.09883173140857146
-0.2576000000000001,-0.09866196605258765
-0.2586000000000001,-0.09850634780960252
-0.2596000000000001,-0.09835072956661735
-0.2606000000000001,-0.09820925843663084
-0.2616000000000001,-0.09806778730664434
-0.2626000000000001,-0.09794046328965648
-0.2636000000000001,-0.09775655082067403
-0.2646000000000001,-0.09761507969068753
-0.2656000000000001,-0.09747360856070103
-0.2666000000000001,-0.09738872588270912
-0.2676000000000001,-0.09723310763972397
-0.2686000000000001,-0.09709163650973747
-0.2696000000000001,-0.09692187115375367
-0.2706000000000001,-0.0967945471367658
-0.2716000000000001,-0.0966813702327766
-0.2726000000000001,-0.09653989910279011
-0.2736000000000001,-0.09637013374680631
-0.2746000000000001,-0.0962286626168198
-0.2756000000000001,-0.0960871914868333
-0.2766000000000001,-0.09595986746984543
-0.2776000000000001,-0.09583254345285759
-0.2786000000000001,-0.09567692520987243
-0.2796000000000001,-0.09552130696688728
-0.2806000000000001,-0.09539398294989941
-0.28160000000000013,-0.09529495315890889
-0.28260000000000013,-0.09513933491592372
-0.28360000000000013,-0.09501201089893586
-0.2846,-0.09485639265595071
-0.2856,-0.09471492152596421
-0.2866,-0.0946300388479723
-0.2876,-0.0944885677179858
-0.2886,-0.0943470965879993
-0.2896,-0.0942056254580128
-0.2906,-0.0940641543280263
-0.2916,-0.09396512453703573
-0.2926,-0.09382365340704923
-0.2936,-0.09368218227706274
-0.29460000000000003,-0.09355485826007487
-0.29560000000000003,-0.09342753424308703
-0.29660000000000003,-0.09334265156509512
-0.29760000000000003,-0.09321532754810727
-0.29860000000000003,-0.09307385641812077
-0.29960000000000003,-0.09293238528813427
-0.30060000000000003,-0.09281920838414506
-0.30160000000000003,-0.09272017859315451
-0.30260000000000004,-0.09257870746316801
-0.30360000000000004,-0.0924372363331815
-0.30460000000000004,-0.09232405942919229
-0.30560000000000004,-0.09219673541220444
-0.30660000000000004,-0.09211185273421253
-0.30760000000000004,-0.09199867583022334
-0.30860000000000004,-0.09184305758723818
-0.30960000000000004,-0.09172988068324898
-0.31060000000000004,-0.09164499800525706
-0.31160000000000004,-0.09154596821426653
-0.31260000000000004,-0.09143279131027732
-0.31360000000000005,-0.09130546729328948
-0.31460000000000005,-0.09117814327630162
-0.31560000000000005,-0.09106496637231241
-0.31660000000000005,-0.09098008369432051
-0.31760000000000005,-0.09086690679033131
-0.31860000000000005,-0.09075372988634212
-0.31960000000000005,-0.09065470009535155
-0.32060000000000005,-0.09054152319136234
-0.32160000000000005,-0.09045664051337043
-0.32260000000000005,-0.09037175783537854
-0.32360000000000005,-0.09024443381839069
-0.32460000000000006,-0.09011710980140283
-0.32560000000000006,-0.09003222712341094
-0.32660000000000006,-0.08994734444541903
-0.32760000000000006,-0.08983416754142984
-0.32860000000000006,-0.08973513775043927
-0.32960000000000006,-0.08960781373345142
-0.33060000000000006,-0.08952293105545953
-0.33160000000000006,-0.08943804837746762
-0.33260000000000006,-0.08933901858647707
-0.33360000000000006,-0.08922584168248787
-0.33460000000000006,-0.0891268118914973
-0.33560000000000006,-0.08902778210050676
-0.33660000000000007,-0.08898534076151081
-0.33760000000000007,-0.08885801674452294
-0.33860000000000007,-0.0887589869535324
-0.33960000000000007,-0.0886741042755405
-0.34060000000000007,-0.08857507448454995
-0.34160000000000007,-0.08851848603255535
-0.34260000000000007,-0.08843360335456343
-0.34360000000000007,-0.08832042645057424
-0.3446000000000001,-0.08823554377258234
-0.3456000000000001,-0.08816480820758908
-0.3466000000000001,-0.08810821975559449
-0.34759999999999996,-0.08800918996460394
-0.3486000000000001,-0.08791016017361337
-0.34959999999999997,-0.08783942460862013
-0.3506000000000001,-0.08775454193062822
-0.35159999999999997,-0.08769795347863363
-0.3526000000000001,-0.08762721791364038
-0.35359999999999997,-0.08752818812264983
-0.3546000000000001,-0.08742915833165928
-0.35559999999999997,-0.08737256987966466
-0.3566000000000001,-0.08731598142767007
-0.3576,-0.08725939297567546
-0.3586000000000001,-0.08717451029768356
-0.3596,-0.08707548050669302
-0.3606000000000001,-0.08700474494169977
-0.3616,-0.08696230360270381
-0.3626000000000001,-0.0868774209247119
-0.3636,-0.08679253824672
-0.3646000000000001,-0.0867076555687281
-0.3656,-0.08666521422973215
-0.3666000000000001,-0.08660862577773754
-0.3676,-0.08653789021274429
-0.3686000000000001,-0.08643886042175375
-0.3696,-0.08635397774376184
-0.3706000000000001,-0.08632568351776454
-0.3716,-0.0862832421787686
-0.3726000000000001,-0.08621250661377533
-0.3736,-0.08612762393578344
-0.3746000000000001,-0.08604274125779153
-0.3756,-0.08597200569279828
-0.3766000000000001,-0.08595785857979962
-0.3776,-0.08588712301480637
-0.3786000000000001,-0.08583053456281178
-0.3796,-0.08573150477182122
-0.3806000000000001,-0.08567491631982663
-0.3816,-0.08566076920682797
-0.3826000000000001,-0.08557588652883606
-0.3836,-0.08551929807684147
-0.3846000000000001,-0.08546270962484687
-0.3856,-0.08539197405985362
-0.3866000000000001,-0.08536367983385632
-0.3876,-0.08532123849486037
-0.3886000000000001,-0.08523635581686846
-0.3896,-0.08517976736487386
-0.3906000000000001,-0.08512317891287925
-0.3916,-0.08509488468688196
-0.3926000000000001,-0.085052443347886
-0.3936,-0.0849675606698941
-0.3946000000000001,-0.0849109722178995
-0.3956,-0.0848543837659049
-0.3966000000000001,-0.08486853087890354
-0.3976,-0.0848260895399076
-0.3986000000000001,-0.0847412068619157
-0.3996,-0.0846846184099211
-0.4006000000000001,-0.08464217707092515
-0.4016,-0.08462802995792648
-0.4026000000000001,-0.08458558861893054
-0.4036,-0.08452900016693596
-0.4046000000000001,-0.0844582646019427
-0.4056,-0.08442997037594539
-0.40660000000000013,-0.08441582326294673
-0.4076,-0.08435923481095214
-0.40860000000000013,-0.08430264635895754
-0.4096,-0.08426020501996159
-0.41060000000000013,-0.08423191079396428
-0.4116,-0.08420361656796697
-0.41260000000000013,-0.08416117522897103
-0.4136,-0.08411873388997508
-0.41460000000000014,-0.08409043966397778
-0.4156,-0.08406214543798048
-0.41660000000000014,-0.08404799832498183
-0.4176,-0.08400555698598587
-0.41860000000000014,-0.08394896853399128
-0.41960000000000003,-0.08392067430799398
-0.42060000000000014,-0.08387823296899803
-0.42160000000000003,-0.08390652719499532
-0.42260000000000014,-0.08387823296899803
-0.42360000000000003,-0.08380749740400478
-0.42460000000000014,-0.08379335029100612
-0.42560000000000003,-0.08375090895201018
-0.42660000000000015,-0.08375090895201018
-0.42760000000000004,-0.08372261472601288
-0.42860000000000015,-0.08369432050001557
-0.42960000000000004,-0.08366602627401826
-0.43060000000000015,-0.08363773204802097
-0.43160000000000004,-0.08362358493502231
-0.43260000000000015,-0.08362358493502231
-0.43360000000000004,-0.08356699648302772
-0.43460000000000015,-0.08355284937002906
-0.43560000000000004,-0.08353870225703043
-0.43660000000000015,-0.08352455514403176
