Oct. 27, 2024   21:41:03
Cyclic Voltammetry
File: c:/users/guazh/data/banditlqv2round1/2024-10-24-exp601\exp601-2024-10-27t21_06_00-arkoh\exp601_cv_sr_200mvs_efin_-2300mv.bin
Data Source:  Experiment
Instrument Model:  CHI760E
Header: CV ran at 200 mVs
Note: 

Init E (V) = -1
High E (V) = -1
Low E (V) = -2.3
Final E (V) = -1
Init P/N = N
Scan Rate (V/s) = 0.2
Segment = 3
Sample Interval (V) = 0.001
Quiet Time (sec) = 2
Sensitivity (A/V) = 0.01
Comp R (ohm) = 0.9

Results:

Channel 1:
Segment 1:

Segment 2:

Segment 3:

Potential/V, Current/A

-1.000, 3.433e-7
-1.001, 3.729e-7
-1.002, 6.590e-7
-1.003, 3.137e-7
-1.004, 5.209e-7
-1.005, 4.716e-7
-1.006, 4.223e-7
-1.007, 6.294e-7
-1.008, 5.308e-7
-1.009, 7.676e-7
-1.010, 5.012e-7
-1.011, 7.281e-7
-1.012, 7.873e-7
-1.013, 6.788e-7
-1.014, 7.084e-7
-1.015, 6.393e-7
-1.016, 6.590e-7
-1.017, 7.972e-7
-1.018, 5.012e-7
-1.019, 9.748e-7
-1.020, 4.913e-7
-1.021, 9.748e-7
-1.022, 8.366e-7
-1.023, 4.223e-7
-1.024, 1.014e-6
-1.025, 8.860e-7
-1.026, 9.945e-7
-1.027, 9.156e-7
-1.028, 8.564e-7
-1.029, 9.452e-7
-1.030, 9.748e-7
-1.031, 1.123e-6
-1.032, 1.133e-6
-1.033, 7.281e-7
-1.034, 1.162e-6
-1.035, 7.281e-7
-1.036, 1.182e-6
-1.037, 1.093e-6
-1.038, 1.093e-6
-1.039, 1.350e-6
-1.040, 1.123e-6
-1.041, 1.212e-6
-1.042, 1.330e-6
-1.043, 1.064e-6
-1.044, 1.241e-6
-1.045, 1.182e-6
-1.046, 1.340e-6
-1.047, 1.162e-6
-1.048, 1.093e-6
-1.049, 1.202e-6
-1.050, 1.290e-6
-1.051, 1.212e-6
-1.052, 1.537e-6
-1.053, 1.034e-6
-1.054, 1.350e-6
-1.055, 1.212e-6
-1.056, 1.379e-6
-1.057, 1.212e-6
-1.058, 1.271e-6
-1.059, 1.340e-6
-1.060, 1.113e-6
-1.061, 1.419e-6
-1.062, 1.508e-6
-1.063, 1.192e-6
-1.064, 1.488e-6
-1.065, 1.360e-6
-1.066, 1.369e-6
-1.067, 1.646e-6
-1.068, 1.310e-6
-1.069, 1.567e-6
-1.070, 1.330e-6
-1.071, 1.547e-6
-1.072, 1.616e-6
-1.073, 1.458e-6
-1.074, 1.606e-6
-1.075, 1.438e-6
-1.076, 1.823e-6
-1.077, 1.685e-6
-1.078, 1.596e-6
-1.079, 1.567e-6
-1.080, 1.586e-6
-1.081, 1.725e-6
-1.082, 1.656e-6
-1.083, 1.369e-6
-1.084, 1.813e-6
-1.085, 1.656e-6
-1.086, 1.932e-6
-1.087, 1.567e-6
-1.088, 1.626e-6
-1.089, 1.863e-6
-1.090, 1.823e-6
-1.091, 1.932e-6
-1.092, 1.843e-6
-1.093, 1.685e-6
-1.094, 1.863e-6
-1.095, 1.744e-6
-1.096, 1.823e-6
-1.097, 1.813e-6
-1.098, 1.853e-6
-1.099, 2.050e-6
-1.100, 1.863e-6
-1.101, 1.961e-6
-1.102, 2.149e-6
-1.103, 1.912e-6
-1.104, 2.060e-6
-1.105, 2.228e-6
-1.106, 2.169e-6
-1.107, 2.011e-6
-1.108, 2.109e-6
-1.109, 2.228e-6
-1.110, 2.159e-6
-1.111, 2.287e-6
-1.112, 2.188e-6
-1.113, 2.139e-6
-1.114, 2.188e-6
-1.115, 2.030e-6
-1.116, 2.198e-6
-1.117, 2.415e-6
-1.118, 2.109e-6
-1.119, 2.346e-6
-1.120, 2.198e-6
-1.121, 2.395e-6
-1.122, 2.395e-6
-1.123, 2.257e-6
-1.124, 2.563e-6
-1.125, 2.435e-6
-1.126, 2.474e-6
-1.127, 2.524e-6
-1.128, 2.553e-6
-1.129, 2.484e-6
-1.130, 2.277e-6
-1.131, 2.721e-6
-1.132, 2.632e-6
-1.133, 2.405e-6
-1.134, 2.642e-6
-1.135, 2.415e-6
-1.136, 2.553e-6
-1.137, 2.573e-6
-1.138, 2.672e-6
-1.139, 2.672e-6
-1.140, 2.603e-6
-1.141, 2.573e-6
-1.142, 2.928e-6
-1.143, 2.672e-6
-1.144, 2.800e-6
-1.145, 2.731e-6
-1.146, 2.928e-6
-1.147, 2.928e-6
-1.148, 2.563e-6
-1.149, 2.987e-6
-1.150, 2.593e-6
-1.151, 3.047e-6
-1.152, 2.987e-6
-1.153, 3.017e-6
-1.154, 2.938e-6
-1.155, 2.849e-6
-1.156, 2.948e-6
-1.157, 2.918e-6
-1.158, 3.086e-6
-1.159, 3.076e-6
-1.160, 2.928e-6
-1.161, 3.076e-6
-1.162, 3.274e-6
-1.163, 3.066e-6
-1.164, 3.066e-6
-1.165, 3.066e-6
-1.166, 3.392e-6
-1.167, 3.264e-6
-1.168, 3.145e-6
-1.169, 3.303e-6
-1.170, 3.047e-6
-1.171, 3.204e-6
-1.172, 3.500e-6
-1.173, 3.362e-6
-1.174, 3.510e-6
-1.175, 3.234e-6
-1.176, 3.244e-6
-1.177, 3.422e-6
-1.178, 3.274e-6
-1.179, 3.461e-6
-1.180, 3.461e-6
-1.181, 3.629e-6
-1.182, 3.678e-6
-1.183, 3.204e-6
-1.184, 3.619e-6
-1.185, 3.362e-6
-1.186, 3.698e-6
-1.187, 3.431e-6
-1.188, 3.491e-6
-1.189, 3.599e-6
-1.190, 3.362e-6
-1.191, 3.865e-6
-1.192, 3.905e-6
-1.193, 3.422e-6
-1.194, 3.688e-6
-1.195, 3.846e-6
-1.196, 3.905e-6
-1.197, 3.619e-6
-1.198, 3.678e-6
-1.199, 3.865e-6
-1.200, 3.796e-6
-1.201, 3.856e-6
-1.202, 4.013e-6
-1.203, 3.757e-6
-1.204, 3.935e-6
-1.205, 3.944e-6
-1.206, 3.816e-6
-1.207, 4.013e-6
-1.208, 3.836e-6
-1.209, 3.994e-6
-1.210, 3.954e-6
-1.211, 4.033e-6
-1.212, 4.073e-6
-1.213, 3.865e-6
-1.214, 4.171e-6
-1.215, 3.875e-6
-1.216, 4.290e-6
-1.217, 4.122e-6
-1.218, 3.954e-6
-1.219, 4.240e-6
-1.220, 4.073e-6
-1.221, 4.152e-6
-1.222, 4.270e-6
-1.223, 4.171e-6
-1.224, 4.171e-6
-1.225, 4.102e-6
-1.226, 4.260e-6
-1.227, 4.132e-6
-1.228, 4.211e-6
-1.229, 4.596e-6
-1.230, 4.280e-6
-1.231, 4.359e-6
-1.232, 4.418e-6
-1.233, 4.132e-6
-1.234, 4.487e-6
-1.235, 4.250e-6
-1.236, 4.418e-6
-1.237, 4.398e-6
-1.238, 4.388e-6
-1.239, 4.398e-6
-1.240, 4.517e-6
-1.241, 4.428e-6
-1.242, 4.487e-6
-1.243, 4.418e-6
-1.244, 4.526e-6
-1.245, 4.704e-6
-1.246, 4.546e-6
-1.247, 4.566e-6
-1.248, 4.339e-6
-1.249, 4.615e-6
-1.250, 4.388e-6
-1.251, 4.556e-6
-1.252, 4.763e-6
-1.253, 4.526e-6
-1.254, 4.645e-6
-1.255, 4.674e-6
-1.256, 4.674e-6
-1.257, 4.674e-6
-1.258, 4.734e-6
-1.259, 4.763e-6
-1.260, 4.684e-6
-1.261, 4.822e-6
-1.262, 4.832e-6
-1.263, 4.665e-6
-1.264, 4.586e-6
-1.265, 4.586e-6
-1.266, 4.803e-6
-1.267, 4.803e-6
-1.268, 4.763e-6
-1.269, 4.961e-6
-1.270, 4.556e-6
-1.271, 4.892e-6
-1.272, 5.030e-6
-1.273, 4.744e-6
-1.274, 4.911e-6
-1.275, 4.892e-6
-1.276, 4.931e-6
-1.277, 4.862e-6
-1.278, 4.753e-6
-1.279, 4.951e-6
-1.280, 4.901e-6
-1.281, 4.882e-6
-1.282, 5.158e-6
-1.283, 4.783e-6
-1.284, 5.128e-6
-1.285, 5.000e-6
-1.286, 5.158e-6
-1.287, 5.138e-6
-1.288, 4.882e-6
-1.289, 5.010e-6
-1.290, 4.951e-6
-1.291, 5.030e-6
-1.292, 5.296e-6
-1.293, 4.921e-6
-1.294, 5.217e-6
-1.295, 5.217e-6
-1.296, 5.128e-6
-1.297, 5.266e-6
-1.298, 5.168e-6
-1.299, 5.355e-6
-1.300, 5.158e-6
-1.301, 5.247e-6
-1.302, 5.414e-6
-1.303, 4.951e-6
-1.304, 5.168e-6
-1.305, 5.030e-6
-1.306, 5.217e-6
-1.307, 5.237e-6
-1.308, 5.355e-6
-1.309, 5.227e-6
-1.310, 5.336e-6
-1.311, 5.286e-6
-1.312, 5.237e-6
-1.313, 5.197e-6
-1.314, 5.247e-6
-1.315, 5.237e-6
-1.316, 5.474e-6
-1.317, 5.483e-6
-1.318, 5.355e-6
-1.319, 5.553e-6
-1.320, 5.395e-6
-1.321, 5.434e-6
-1.322, 5.474e-6
-1.323, 5.197e-6
-1.324, 5.513e-6
-1.325, 5.503e-6
-1.326, 5.671e-6
-1.327, 5.533e-6
-1.328, 5.385e-6
-1.329, 5.651e-6
-1.330, 5.395e-6
-1.331, 5.779e-6
-1.332, 5.631e-6
-1.333, 5.503e-6
-1.334, 5.701e-6
-1.335, 5.740e-6
-1.336, 5.622e-6
-1.337, 5.582e-6
-1.338, 5.503e-6
-1.339, 5.691e-6
-1.340, 5.365e-6
-1.341, 5.641e-6
-1.342, 5.789e-6
-1.343, 5.503e-6
-1.344, 5.770e-6
-1.345, 5.631e-6
-1.346, 5.691e-6
-1.347, 5.701e-6
-1.348, 5.750e-6
-1.349, 5.671e-6
-1.350, 5.710e-6
-1.351, 5.770e-6
-1.352, 5.789e-6
-1.353, 5.523e-6
-1.354, 5.888e-6
-1.355, 5.809e-6
-1.356, 5.710e-6
-1.357, 5.779e-6
-1.358, 5.868e-6
-1.359, 6.036e-6
-1.360, 5.839e-6
-1.361, 5.888e-6
-1.362, 5.967e-6
-1.363, 5.839e-6
-1.364, 5.987e-6
-1.365, 5.967e-6
-1.366, 6.066e-6
-1.367, 6.164e-6
-1.368, 5.730e-6
-1.369, 6.056e-6
-1.370, 5.977e-6
-1.371, 6.115e-6
-1.372, 5.977e-6
-1.373, 5.562e-6
-1.374, 6.154e-6
-1.375, 5.898e-6
-1.376, 5.977e-6
-1.377, 6.036e-6
-1.378, 5.888e-6
-1.379, 6.125e-6
-1.380, 5.878e-6
-1.381, 5.927e-6
-1.382, 6.174e-6
-1.383, 6.026e-6
-1.384, 6.283e-6
-1.385, 6.154e-6
-1.386, 6.006e-6
-1.387, 6.115e-6
-1.388, 6.016e-6
-1.389, 6.174e-6
-1.390, 6.026e-6
-1.391, 6.145e-6
-1.392, 6.371e-6
-1.393, 6.066e-6
-1.394, 6.283e-6
-1.395, 6.066e-6
-1.396, 6.312e-6
-1.397, 6.184e-6
-1.398, 6.115e-6
-1.399, 6.431e-6
-1.400, 6.006e-6
-1.401, 6.233e-6
-1.402, 6.440e-6
-1.403, 6.026e-6
-1.404, 6.164e-6
-1.405, 6.095e-6
-1.406, 6.164e-6
-1.407, 6.184e-6
-1.408, 6.223e-6
-1.409, 6.273e-6
-1.410, 6.302e-6
-1.411, 6.480e-6
-1.412, 6.519e-6
-1.413, 6.164e-6
-1.414, 6.421e-6
-1.415, 6.223e-6
-1.416, 6.362e-6
-1.417, 6.401e-6
-1.418, 6.332e-6
-1.419, 6.440e-6
-1.420, 6.342e-6
-1.421, 6.411e-6
-1.422, 6.322e-6
-1.423, 6.233e-6
-1.424, 6.371e-6
-1.425, 6.401e-6
-1.426, 6.480e-6
-1.427, 6.579e-6
-1.428, 6.352e-6
-1.429, 6.490e-6
-1.430, 6.401e-6
-1.431, 6.401e-6
-1.432, 6.539e-6
-1.433, 6.174e-6
-1.434, 6.519e-6
-1.435, 6.519e-6
-1.436, 6.549e-6
-1.437, 6.579e-6
-1.438, 6.579e-6
-1.439, 6.598e-6
-1.440, 6.608e-6
-1.441, 6.756e-6
-1.442, 6.727e-6
-1.443, 6.598e-6
-1.444, 6.717e-6
-1.445, 6.549e-6
-1.446, 6.756e-6
-1.447, 6.658e-6
-1.448, 6.756e-6
-1.449, 6.677e-6
-1.450, 6.618e-6
-1.451, 6.796e-6
-1.452, 6.756e-6
-1.453, 6.490e-6
-1.454, 6.786e-6
-1.455, 6.667e-6
-1.456, 6.707e-6
-1.457, 6.628e-6
-1.458, 6.687e-6
-1.459, 6.894e-6
-1.460, 6.736e-6
-1.461, 6.727e-6
-1.462, 6.875e-6
-1.463, 6.500e-6
-1.464, 6.815e-6
-1.465, 6.796e-6
-1.466, 6.914e-6
-1.467, 6.796e-6
-1.468, 6.776e-6
-1.469, 6.914e-6
-1.470, 6.677e-6
-1.471, 6.746e-6
-1.472, 6.825e-6
-1.473, 6.736e-6
-1.474, 6.776e-6
-1.475, 6.667e-6
-1.476, 6.717e-6
-1.477, 6.865e-6
-1.478, 6.845e-6
-1.479, 7.121e-6
-1.480, 6.667e-6
-1.481, 7.032e-6
-1.482, 7.023e-6
-1.483, 6.904e-6
-1.484, 7.003e-6
-1.485, 7.082e-6
-1.486, 7.121e-6
-1.487, 6.934e-6
-1.488, 6.845e-6
-1.489, 7.102e-6
-1.490, 6.825e-6
-1.491, 7.250e-6
-1.492, 7.131e-6
-1.493, 6.924e-6
-1.494, 7.121e-6
-1.495, 7.190e-6
-1.496, 7.102e-6
-1.497, 7.131e-6
-1.498, 7.023e-6
-1.499, 7.407e-6
-1.500, 6.993e-6
-1.501, 7.131e-6
-1.502, 7.250e-6
-1.503, 7.092e-6
-1.504, 7.240e-6
-1.505, 7.230e-6
-1.506, 7.240e-6
-1.507, 7.338e-6
-1.508, 7.220e-6
-1.509, 7.289e-6
-1.510, 7.200e-6
-1.511, 7.388e-6
-1.512, 7.703e-6
-1.513, 7.180e-6
-1.514, 7.417e-6
-1.515, 7.171e-6
-1.516, 7.269e-6
-1.517, 7.388e-6
-1.518, 7.319e-6
-1.519, 7.595e-6
-1.520, 7.407e-6
-1.521, 7.417e-6
-1.522, 7.624e-6
-1.523, 7.319e-6
-1.524, 7.605e-6
-1.525, 7.506e-6
-1.526, 7.545e-6
-1.527, 7.723e-6
-1.528, 7.555e-6
-1.529, 7.693e-6
-1.530, 7.486e-6
-1.531, 7.743e-6
-1.532, 7.476e-6
-1.533, 7.585e-6
-1.534, 7.841e-6
-1.535, 7.496e-6
-1.536, 7.792e-6
-1.537, 7.763e-6
-1.538, 7.684e-6
-1.539, 7.999e-6
-1.540, 7.763e-6
-1.541, 7.812e-6
-1.542, 8.019e-6
-1.543, 7.960e-6
-1.544, 8.019e-6
-1.545, 7.940e-6
-1.546, 7.980e-6
-1.547, 7.920e-6
-1.548, 7.822e-6
-1.549, 8.078e-6
-1.550, 7.940e-6
-1.551, 8.098e-6
-1.552, 8.157e-6
-1.553, 8.088e-6
-1.554, 8.118e-6
-1.555, 7.950e-6
-1.556, 8.216e-6
-1.557, 8.078e-6
-1.558, 8.256e-6
-1.559, 8.285e-6
-1.560, 8.177e-6
-1.561, 8.325e-6
-1.562, 8.424e-6
-1.563, 8.246e-6
-1.564, 8.493e-6
-1.565, 8.315e-6
-1.566, 8.443e-6
-1.567, 8.433e-6
-1.568, 8.325e-6
-1.569, 8.680e-6
-1.570, 8.532e-6
-1.571, 8.493e-6
-1.572, 8.769e-6
-1.573, 8.502e-6
-1.574, 8.512e-6
-1.575, 8.650e-6
-1.576, 8.749e-6
-1.577, 8.838e-6
-1.578, 8.670e-6
-1.579, 9.006e-6
-1.580, 8.779e-6
-1.581, 8.966e-6
-1.582, 8.907e-6
-1.583, 8.887e-6
-1.584, 8.848e-6
-1.585, 8.848e-6
-1.586, 8.976e-6
-1.587, 8.927e-6
-1.588, 8.966e-6
-1.589, 9.233e-6
-1.590, 9.065e-6
-1.591, 9.124e-6
-1.592, 9.302e-6
-1.593, 9.035e-6
-1.594, 9.479e-6
-1.595, 9.075e-6
-1.596, 9.272e-6
-1.597, 9.252e-6
-1.598, 9.321e-6
-1.599, 9.440e-6
-1.600, 9.321e-6
-1.601, 9.499e-6
-1.602, 9.538e-6
-1.603, 9.282e-6
-1.604, 9.509e-6
-1.605, 9.499e-6
-1.606, 9.696e-6
-1.607, 9.558e-6
-1.608, 9.706e-6
-1.609, 9.775e-6
-1.610, 9.588e-6
-1.611, 9.775e-6
-1.612, 9.825e-6
-1.613, 9.746e-6
-1.614, 9.953e-6
-1.615, 9.913e-6
-1.616, 9.913e-6
-1.617, 9.913e-6
-1.618, 1.003e-5
-1.619, 1.002e-5
-1.620, 1.007e-5
-1.621, 1.022e-5
-1.622, 1.016e-5
-1.623, 1.009e-5
-1.624, 1.017e-5
-1.625, 1.025e-5
-1.626, 1.031e-5
-1.627, 1.035e-5
-1.628, 1.029e-5
-1.629, 1.067e-5
-1.630, 1.033e-5
-1.631, 1.060e-5
-1.632, 1.077e-5
-1.633, 1.046e-5
-1.634, 1.069e-5
-1.635, 1.075e-5
-1.636, 1.066e-5
-1.637, 1.080e-5
-1.638, 1.079e-5
-1.639, 1.119e-5
-1.640, 1.100e-5
-1.641, 1.116e-5
-1.642, 1.126e-5
-1.643, 1.122e-5
-1.644, 1.123e-5
-1.645, 1.123e-5
-1.646, 1.126e-5
-1.647, 1.134e-5
-1.648, 1.154e-5
-1.649, 1.153e-5
-1.650, 1.140e-5
-1.651, 1.164e-5
-1.652, 1.200e-5
-1.653, 1.146e-5
-1.654, 1.166e-5
-1.655, 1.182e-5
-1.656, 1.182e-5
-1.657, 1.200e-5
-1.658, 1.168e-5
-1.659, 1.202e-5
-1.660, 1.194e-5
-1.661, 1.216e-5
-1.662, 1.237e-5
-1.663, 1.204e-5
-1.664, 1.219e-5
-1.665, 1.255e-5
-1.666, 1.234e-5
-1.667, 1.270e-5
-1.668, 1.249e-5
-1.669, 1.265e-5
-1.670, 1.264e-5
-1.671, 1.273e-5
-1.672, 1.310e-5
-1.673, 1.270e-5
-1.674, 1.315e-5
-1.675, 1.298e-5
-1.676, 1.320e-5
-1.677, 1.337e-5
-1.678, 1.328e-5
-1.679, 1.351e-5
-1.680, 1.340e-5
-1.681, 1.355e-5
-1.682, 1.400e-5
-1.683, 1.350e-5
-1.684, 1.387e-5
-1.685, 1.375e-5
-1.686, 1.410e-5
-1.687, 1.420e-5
-1.688, 1.408e-5
-1.689, 1.432e-5
-1.690, 1.423e-5
-1.691, 1.451e-5
-1.692, 1.473e-5
-1.693, 1.447e-5
-1.694, 1.467e-5
-1.695, 1.469e-5
-1.696, 1.512e-5
-1.697, 1.484e-5
-1.698, 1.495e-5
-1.699, 1.513e-5
-1.700, 1.510e-5
-1.701, 1.539e-5
-1.702, 1.553e-5
-1.703, 1.544e-5
-1.704, 1.572e-5
-1.705, 1.569e-5
-1.706, 1.593e-5
-1.707, 1.607e-5
-1.708, 1.597e-5
-1.709, 1.616e-5
-1.710, 1.633e-5
-1.711, 1.649e-5
-1.712, 1.670e-5
-1.713, 1.656e-5
-1.714, 1.679e-5
-1.715, 1.692e-5
-1.716, 1.706e-5
-1.717, 1.728e-5
-1.718, 1.731e-5
-1.719, 1.761e-5
-1.720, 1.754e-5
-1.721, 1.750e-5
-1.722, 1.804e-5
-1.723, 1.792e-5
-1.724, 1.810e-5
-1.725, 1.813e-5
-1.726, 1.849e-5
-1.727, 1.849e-5
-1.728, 1.871e-5
-1.729, 1.884e-5
-1.730, 1.910e-5
-1.731, 1.903e-5
-1.732, 1.951e-5
-1.733, 1.953e-5
-1.734, 1.964e-5
-1.735, 1.971e-5
-1.736, 2.017e-5
-1.737, 2.012e-5
-1.738, 2.029e-5
-1.739, 2.068e-5
-1.740, 2.067e-5
-1.741, 2.089e-5
-1.742, 2.139e-5
-1.743, 2.115e-5
-1.744, 2.142e-5
-1.745, 2.198e-5
-1.746, 2.197e-5
-1.747, 2.212e-5
-1.748, 2.209e-5
-1.749, 2.253e-5
-1.750, 2.264e-5
-1.751, 2.309e-5
-1.752, 2.324e-5
-1.753, 2.328e-5
-1.754, 2.363e-5
-1.755, 2.397e-5
-1.756, 2.407e-5
-1.757, 2.433e-5
-1.758, 2.449e-5
-1.759, 2.502e-5
-1.760, 2.517e-5
-1.761, 2.540e-5
-1.762, 2.572e-5
-1.763, 2.583e-5
-1.764, 2.625e-5
-1.765, 2.640e-5
-1.766, 2.673e-5
-1.767, 2.703e-5
-1.768, 2.720e-5
-1.769, 2.771e-5
-1.770, 2.793e-5
-1.771, 2.825e-5
-1.772, 2.870e-5
-1.773, 2.882e-5
-1.774, 2.924e-5
-1.775, 2.965e-5
-1.776, 3.004e-5
-1.777, 3.014e-5
-1.778, 3.047e-5
-1.779, 3.101e-5
-1.780, 3.129e-5
-1.781, 3.184e-5
-1.782, 3.225e-5
-1.783, 3.237e-5
-1.784, 3.272e-5
-1.785, 3.332e-5
-1.786, 3.362e-5
-1.787, 3.409e-5
-1.788, 3.438e-5
-1.789, 3.515e-5
-1.790, 3.516e-5
-1.791, 3.572e-5
-1.792, 3.638e-5
-1.793, 3.650e-5
-1.794, 3.725e-5
-1.795, 3.755e-5
-1.796, 3.814e-5
-1.797, 3.862e-5
-1.798, 3.905e-5
-1.799, 3.989e-5
-1.800, 4.012e-5
-1.801, 4.074e-5
-1.802, 4.152e-5
-1.803, 4.158e-5
-1.804, 4.232e-5
-1.805, 4.281e-5
-1.806, 4.358e-5
-1.807, 4.419e-5
-1.808, 4.460e-5
-1.809, 4.542e-5
-1.810, 4.595e-5
-1.811, 4.641e-5
-1.812, 4.732e-5
-1.813, 4.778e-5
-1.814, 4.834e-5
-1.815, 4.893e-5
-1.816, 4.996e-5
-1.817, 5.032e-5
-1.818, 5.108e-5
-1.819, 5.197e-5
-1.820, 5.267e-5
-1.821, 5.340e-5
-1.822, 5.439e-5
-1.823, 5.489e-5
-1.824, 5.567e-5
-1.825, 5.637e-5
-1.826, 5.730e-5
-1.827, 5.815e-5
-1.828, 5.878e-5
-1.829, 5.993e-5
-1.830, 6.065e-5
-1.831, 6.154e-5
-1.832, 6.260e-5
-1.833, 6.325e-5
-1.834, 6.440e-5
-1.835, 6.514e-5
-1.836, 6.617e-5
-1.837, 6.718e-5
-1.838, 6.776e-5
-1.839, 6.914e-5
-1.840, 7.008e-5
-1.841, 7.097e-5
-1.842, 7.240e-5
-1.843, 7.311e-5
-1.844, 7.446e-5
-1.845, 7.547e-5
-1.846, 7.659e-5
-1.847, 7.786e-5
-1.848, 7.885e-5
-1.849, 8.015e-5
-1.850, 8.140e-5
-1.851, 8.237e-5
-1.852, 8.412e-5
-1.853, 8.477e-5
-1.854, 8.629e-5
-1.855, 8.748e-5
-1.856, 8.872e-5
-1.857, 9.025e-5
-1.858, 9.149e-5
-1.859, 9.315e-5
-1.860, 9.427e-5
-1.861, 9.556e-5
-1.862, 9.719e-5
-1.863, 9.853e-5
-1.864, 9.997e-5
-1.865, 1.015e-4
-1.866, 1.030e-4
-1.867, 1.044e-4
-1.868, 1.060e-4
-1.869, 1.080e-4
-1.870, 1.094e-4
-1.871, 1.107e-4
-1.872, 1.128e-4
-1.873, 1.142e-4
-1.874, 1.159e-4
-1.875, 1.178e-4
-1.876, 1.196e-4
-1.877, 1.211e-4
-1.878, 1.227e-4
-1.879, 1.251e-4
-1.880, 1.267e-4
-1.881, 1.284e-4
-1.882, 1.306e-4
-1.883, 1.326e-4
-1.884, 1.343e-4
-1.885, 1.365e-4
-1.886, 1.384e-4
-1.887, 1.402e-4
-1.888, 1.423e-4
-1.889, 1.447e-4
-1.890, 1.466e-4
-1.891, 1.486e-4
-1.892, 1.512e-4
-1.893, 1.533e-4
-1.894, 1.555e-4
-1.895, 1.578e-4
-1.896, 1.605e-4
-1.897, 1.625e-4
-1.898, 1.648e-4
-1.899, 1.674e-4
-1.900, 1.698e-4
-1.901, 1.720e-4
-1.902, 1.748e-4
-1.903, 1.771e-4
-1.904, 1.797e-4
-1.905, 1.822e-4
-1.906, 1.851e-4
-1.907, 1.876e-4
-1.908, 1.902e-4
-1.909, 1.932e-4
-1.910, 1.960e-4
-1.911, 1.984e-4
-1.912, 2.015e-4
-1.913, 2.043e-4
-1.914, 2.069e-4
-1.915, 2.101e-4
-1.916, 2.132e-4
-1.917, 2.160e-4
-1.918, 2.187e-4
-1.919, 2.224e-4
-1.920, 2.252e-4
-1.921, 2.284e-4
-1.922, 2.314e-4
-1.923, 2.347e-4
-1.924, 2.380e-4
-1.925, 2.410e-4
-1.926, 2.447e-4
-1.927, 2.481e-4
-1.928, 2.512e-4
-1.929, 2.549e-4
-1.930, 2.584e-4
-1.931, 2.615e-4
-1.932, 2.655e-4
-1.933, 2.691e-4
-1.934, 2.728e-4
-1.935, 2.764e-4
-1.936, 2.807e-4
-1.937, 2.839e-4
-1.938, 2.877e-4
-1.939, 2.919e-4
-1.940, 2.959e-4
-1.941, 2.994e-4
-1.942, 3.039e-4
-1.943, 3.080e-4
-1.944, 3.119e-4
-1.945, 3.162e-4
-1.946, 3.206e-4
-1.947, 3.246e-4
-1.948, 3.288e-4
-1.949, 3.339e-4
-1.950, 3.379e-4
-1.951, 3.419e-4
-1.952, 3.470e-4
-1.953, 3.514e-4
-1.954, 3.559e-4
-1.955, 3.605e-4
-1.956, 3.656e-4
-1.957, 3.703e-4
-1.958, 3.748e-4
-1.959, 3.802e-4
-1.960, 3.848e-4
-1.961, 3.894e-4
-1.962, 3.948e-4
-1.963, 3.996e-4
-1.964, 4.047e-4
-1.965, 4.099e-4
-1.966, 4.152e-4
-1.967, 4.203e-4
-1.968, 4.253e-4
-1.969, 4.313e-4
-1.970, 4.364e-4
-1.971, 4.414e-4
-1.972, 4.477e-4
-1.973, 4.533e-4
-1.974, 4.586e-4
-1.975, 4.646e-4
-1.976, 4.707e-4
-1.977, 4.761e-4
-1.978, 4.820e-4
-1.979, 4.886e-4
-1.980, 4.943e-4
-1.981, 5.000e-4
-1.982, 5.067e-4
-1.983, 5.128e-4
-1.984, 5.187e-4
-1.985, 5.253e-4
-1.986, 5.320e-4
-1.987, 5.382e-4
-1.988, 5.444e-4
-1.989, 5.518e-4
-1.990, 5.583e-4
-1.991, 5.644e-4
-1.992, 5.719e-4
-1.993, 5.787e-4
-1.994, 5.853e-4
-1.995, 5.923e-4
-1.996, 5.997e-4
-1.997, 6.063e-4
-1.998, 6.131e-4
-1.999, 6.212e-4
-2.000, 6.280e-4
-2.001, 6.351e-4
-2.002, 6.431e-4
-2.003, 6.507e-4
-2.004, 6.579e-4
-2.005, 6.657e-4
-2.006, 6.740e-4
-2.007, 6.816e-4
-2.008, 6.891e-4
-2.009, 6.979e-4
-2.010, 7.057e-4
-2.011, 7.131e-4
-2.012, 7.219e-4
-2.013, 7.301e-4
-2.014, 7.379e-4
-2.015, 7.465e-4
-2.016, 7.553e-4
-2.017, 7.636e-4
-2.018, 7.718e-4
-2.019, 7.818e-4
-2.020, 7.900e-4
-2.021, 7.983e-4
-2.022, 8.078e-4
-2.023, 8.173e-4
-2.024, 8.259e-4
-2.025, 8.352e-4
-2.026, 8.451e-4
-2.027, 8.540e-4
-2.028, 8.629e-4
-2.029, 8.733e-4
-2.030, 8.825e-4
-2.031, 8.916e-4
-2.032, 9.017e-4
-2.033, 9.118e-4
-2.034, 9.210e-4
-2.035, 9.312e-4
-2.036, 9.418e-4
-2.037, 9.511e-4
-2.038, 9.609e-4
-2.039, 9.722e-4
-2.040, 9.823e-4
-2.041, 9.920e-4
-2.042, 1.003e-3
-2.043, 1.014e-3
-2.044, 1.023e-3
-2.045, 1.034e-3
-2.046, 1.046e-3
-2.047, 1.056e-3
-2.048, 1.067e-3
-2.049, 1.079e-3
-2.050, 1.090e-3
-2.051, 1.101e-3
-2.052, 1.113e-3
-2.053, 1.124e-3
-2.054, 1.135e-3
-2.055, 1.147e-3
-2.056, 1.159e-3
-2.057, 1.170e-3
-2.058, 1.182e-3
-2.059, 1.194e-3
-2.060, 1.205e-3
-2.061, 1.216e-3
-2.062, 1.229e-3
-2.063, 1.241e-3
-2.064, 1.253e-3
-2.065, 1.265e-3
-2.066, 1.278e-3
-2.067, 1.290e-3
-2.068, 1.302e-3
-2.069, 1.316e-3
-2.070, 1.329e-3
-2.071, 1.341e-3
-2.072, 1.355e-3
-2.073, 1.368e-3
-2.074, 1.380e-3
-2.075, 1.394e-3
-2.076, 1.408e-3
-2.077, 1.420e-3
-2.078, 1.433e-3
-2.079, 1.448e-3
-2.080, 1.461e-3
-2.081, 1.474e-3
-2.082, 1.489e-3
-2.083, 1.503e-3
-2.084, 1.516e-3
-2.085, 1.530e-3
-2.086, 1.545e-3
-2.087, 1.559e-3
-2.088, 1.573e-3
-2.089, 1.589e-3
-2.090, 1.603e-3
-2.091, 1.617e-3
-2.092, 1.633e-3
-2.093, 1.648e-3
-2.094, 1.662e-3
-2.095, 1.677e-3
-2.096, 1.693e-3
-2.097, 1.708e-3
-2.098, 1.723e-3
-2.099, 1.739e-3
-2.100, 1.755e-3
-2.101, 1.769e-3
-2.102, 1.786e-3
-2.103, 1.802e-3
-2.104, 1.816e-3
-2.105, 1.832e-3
-2.106, 1.850e-3
-2.107, 1.865e-3
-2.108, 1.881e-3
-2.109, 1.898e-3
-2.110, 1.914e-3
-2.111, 1.930e-3
-2.112, 1.948e-3
-2.113, 1.965e-3
-2.114, 1.980e-3
-2.115, 1.997e-3
-2.116, 2.015e-3
-2.117, 2.031e-3
-2.118, 2.048e-3
-2.119, 2.066e-3
-2.120, 2.083e-3
-2.121, 2.099e-3
-2.122, 2.118e-3
-2.123, 2.136e-3
-2.124, 2.153e-3
-2.125, 2.171e-3
-2.126, 2.190e-3
-2.127, 2.207e-3
-2.128, 2.224e-3
-2.129, 2.244e-3
-2.130, 2.262e-3
-2.131, 2.279e-3
-2.132, 2.299e-3
-2.133, 2.318e-3
-2.134, 2.335e-3
-2.135, 2.354e-3
-2.136, 2.374e-3
-2.137, 2.393e-3
-2.138, 2.412e-3
-2.139, 2.433e-3
-2.140, 2.451e-3
-2.141, 2.470e-3
-2.142, 2.490e-3
-2.143, 2.510e-3
-2.144, 2.529e-3
-2.145, 2.549e-3
-2.146, 2.570e-3
-2.147, 2.589e-3
-2.148, 2.608e-3
-2.149, 2.630e-3
-2.150, 2.650e-3
-2.151, 2.669e-3
-2.152, 2.691e-3
-2.153, 2.712e-3
-2.154, 2.731e-3
-2.155, 2.752e-3
-2.156, 2.775e-3
-2.157, 2.794e-3
-2.158, 2.814e-3
-2.159, 2.837e-3
-2.160, 2.858e-3
-2.161, 2.878e-3
-2.162, 2.901e-3
-2.163, 2.923e-3
-2.164, 2.944e-3
-2.165, 2.966e-3
-2.166, 2.990e-3
-2.167, 3.010e-3
-2.168, 3.031e-3
-2.169, 3.056e-3
-2.170, 3.078e-3
-2.171, 3.099e-3
-2.172, 3.123e-3
-2.173, 3.146e-3
-2.174, 3.167e-3
-2.175, 3.191e-3
-2.176, 3.216e-3
-2.177, 3.238e-3
-2.178, 3.261e-3
-2.179, 3.286e-3
-2.180, 3.309e-3
-2.181, 3.331e-3
-2.182, 3.357e-3
-2.183, 3.381e-3
-2.184, 3.404e-3
-2.185, 3.428e-3
-2.186, 3.454e-3
-2.187, 3.477e-3
-2.188, 3.500e-3
-2.189, 3.528e-3
-2.190, 3.552e-3
-2.191, 3.575e-3
-2.192, 3.601e-3
-2.193, 3.627e-3
-2.194, 3.650e-3
-2.195, 3.676e-3
-2.196, 3.703e-3
-2.197, 3.727e-3
-2.198, 3.752e-3
-2.199, 3.780e-3
-2.200, 3.804e-3
-2.201, 3.829e-3
-2.202, 3.857e-3
-2.203, 3.884e-3
-2.204, 3.909e-3
-2.205, 3.935e-3
-2.206, 3.964e-3
-2.207, 3.989e-3
-2.208, 4.015e-3
-2.209, 4.045e-3
-2.210, 4.072e-3
-2.211, 4.097e-3
-2.212, 4.126e-3
-2.213, 4.154e-3
-2.214, 4.179e-3
-2.215, 4.207e-3
-2.216, 4.237e-3
-2.217, 4.263e-3
-2.218, 4.290e-3
-2.219, 4.321e-3
-2.220, 4.349e-3
-2.221, 4.373e-3
-2.222, 4.403e-3
-2.223, 4.433e-3
-2.224, 4.459e-3
-2.225, 4.489e-3
-2.226, 4.520e-3
-2.227, 4.548e-3
-2.228, 4.576e-3
-2.229, 4.608e-3
-2.230, 4.637e-3
-2.231, 4.664e-3
-2.232, 4.696e-3
-2.233, 4.726e-3
-2.234, 4.754e-3
-2.235, 4.785e-3
-2.236, 4.818e-3
-2.237, 4.846e-3
-2.238, 4.875e-3
-2.239, 4.911e-3
-2.240, 4.940e-3
-2.241, 4.968e-3
-2.242, 5.001e-3
-2.243, 5.033e-3
-2.244, 5.062e-3
-2.245, 5.094e-3
-2.246, 5.128e-3
-2.247, 5.157e-3
-2.248, 5.188e-3
-2.249, 5.223e-3
-2.250, 5.254e-3
-2.251, 5.285e-3
-2.252, 5.318e-3
-2.253, 5.351e-3
-2.254, 5.381e-3
-2.255, 5.414e-3
-2.256, 5.449e-3
-2.257, 5.479e-3
-2.258, 5.513e-3
-2.259, 5.548e-3
-2.260, 5.580e-3
-2.261, 5.611e-3
-2.262, 5.646e-3
-2.263, 5.680e-3
-2.264, 5.711e-3
-2.265, 5.746e-3
-2.266, 5.781e-3
-2.267, 5.812e-3
-2.268, 5.845e-3
-2.269, 5.882e-3
-2.270, 5.915e-3
-2.271, 5.946e-3
-2.272, 5.982e-3
-2.273, 6.018e-3
-2.274, 6.050e-3
-2.275, 6.084e-3
-2.276, 6.122e-3
-2.277, 6.154e-3
-2.278, 6.187e-3
-2.279, 6.225e-3
-2.280, 6.260e-3
-2.281, 6.294e-3
-2.282, 6.331e-3
-2.283, 6.367e-3
-2.284, 6.400e-3
-2.285, 6.436e-3
-2.286, 6.473e-3
-2.287, 6.507e-3
-2.288, 6.542e-3
-2.289, 6.580e-3
-2.290, 6.615e-3
-2.291, 6.649e-3
-2.292, 6.687e-3
-2.293, 6.724e-3
-2.294, 6.757e-3
-2.295, 6.794e-3
-2.296, 6.833e-3
-2.297, 6.867e-3
-2.298, 6.902e-3
-2.299, 6.941e-3
-2.300, 6.942e-3
-2.299, 6.904e-3
-2.298, 6.870e-3
-2.297, 6.834e-3
-2.296, 6.796e-3
-2.295, 6.761e-3
-2.294, 6.727e-3
-2.293, 6.688e-3
-2.292, 6.650e-3
-2.291, 6.617e-3
-2.290, 6.579e-3
-2.289, 6.540e-3
-2.288, 6.508e-3
-2.287, 6.471e-3
-2.286, 6.432e-3
-2.285, 6.398e-3
-2.284, 6.363e-3
-2.283, 6.323e-3
-2.282, 6.286e-3
-2.281, 6.253e-3
-2.280, 6.218e-3
-2.279, 6.178e-3
-2.278, 6.146e-3
-2.277, 6.110e-3
-2.276, 6.072e-3
-2.275, 6.038e-3
-2.274, 6.004e-3
-2.273, 5.966e-3
-2.272, 5.931e-3
-2.271, 5.899e-3
-2.270, 5.862e-3
-2.269, 5.826e-3
-2.268, 5.792e-3
-2.267, 5.758e-3
-2.266, 5.721e-3
-2.265, 5.690e-3
-2.264, 5.657e-3
-2.263, 5.620e-3
-2.262, 5.585e-3
-2.261, 5.553e-3
-2.260, 5.518e-3
-2.259, 5.483e-3
-2.258, 5.451e-3
-2.257, 5.418e-3
-2.256, 5.383e-3
-2.255, 5.351e-3
-2.254, 5.321e-3
-2.253, 5.286e-3
-2.252, 5.251e-3
-2.251, 5.221e-3
-2.250, 5.187e-3
-2.249, 5.153e-3
-2.248, 5.122e-3
-2.247, 5.089e-3
-2.246, 5.054e-3
-2.245, 5.023e-3
-2.244, 4.992e-3
-2.243, 4.959e-3
-2.242, 4.926e-3
-2.241, 4.896e-3
-2.240, 4.864e-3
-2.239, 4.830e-3
-2.238, 4.803e-3
-2.237, 4.771e-3
-2.236, 4.737e-3
-2.235, 4.710e-3
-2.234, 4.678e-3
-2.233, 4.644e-3
-2.232, 4.612e-3
-2.231, 4.583e-3
-2.230, 4.552e-3
-2.229, 4.521e-3
-2.228, 4.494e-3
-2.227, 4.464e-3
-2.226, 4.432e-3
-2.225, 4.402e-3
-2.224, 4.373e-3
-2.223, 4.344e-3
-2.222, 4.313e-3
-2.221, 4.287e-3
-2.220, 4.257e-3
-2.219, 4.228e-3
-2.218, 4.201e-3
-2.217, 4.173e-3
-2.216, 4.142e-3
-2.215, 4.114e-3
-2.214, 4.086e-3
-2.213, 4.056e-3
-2.212, 4.027e-3
-2.211, 4.002e-3
-2.210, 3.973e-3
-2.209, 3.943e-3
-2.208, 3.917e-3
-2.207, 3.890e-3
-2.206, 3.860e-3
-2.205, 3.834e-3
-2.204, 3.808e-3
-2.203, 3.779e-3
-2.202, 3.752e-3
-2.201, 3.729e-3
-2.200, 3.700e-3
-2.199, 3.672e-3
-2.198, 3.648e-3
-2.197, 3.621e-3
-2.196, 3.593e-3
-2.195, 3.567e-3
-2.194, 3.545e-3
-2.193, 3.516e-3
-2.192, 3.490e-3
-2.191, 3.469e-3
-2.190, 3.443e-3
-2.189, 3.417e-3
-2.188, 3.394e-3
-2.187, 3.369e-3
-2.186, 3.342e-3
-2.185, 3.318e-3
-2.184, 3.295e-3
-2.183, 3.269e-3
-2.182, 3.245e-3
-2.181, 3.222e-3
-2.180, 3.197e-3
-2.179, 3.171e-3
-2.178, 3.148e-3
-2.177, 3.126e-3
-2.176, 3.100e-3
-2.175, 3.077e-3
-2.174, 3.054e-3
-2.173, 3.030e-3
-2.172, 3.006e-3
-2.171, 2.984e-3
-2.170, 2.961e-3
-2.169, 2.936e-3
-2.168, 2.915e-3
-2.167, 2.892e-3
-2.166, 2.868e-3
-2.165, 2.847e-3
-2.164, 2.824e-3
-2.163, 2.801e-3
-2.162, 2.782e-3
-2.161, 2.761e-3
-2.160, 2.739e-3
-2.159, 2.717e-3
-2.158, 2.696e-3
-2.157, 2.674e-3
-2.156, 2.651e-3
-2.155, 2.630e-3
-2.154, 2.610e-3
-2.153, 2.587e-3
-2.152, 2.566e-3
-2.151, 2.546e-3
-2.150, 2.524e-3
-2.149, 2.502e-3
-2.148, 2.483e-3
-2.147, 2.462e-3
-2.146, 2.440e-3
-2.145, 2.420e-3
-2.144, 2.403e-3
-2.143, 2.381e-3
-2.142, 2.361e-3
-2.141, 2.343e-3
-2.140, 2.323e-3
-2.139, 2.303e-3
-2.138, 2.285e-3
-2.137, 2.265e-3
-2.136, 2.245e-3
-2.135, 2.226e-3
-2.134, 2.208e-3
-2.133, 2.188e-3
-2.132, 2.168e-3
-2.131, 2.152e-3
-2.130, 2.132e-3
-2.129, 2.112e-3
-2.128, 2.095e-3
-2.127, 2.076e-3
-2.126, 2.057e-3
-2.125, 2.039e-3
-2.124, 2.022e-3
-2.123, 2.003e-3
-2.122, 1.985e-3
-2.121, 1.968e-3
-2.120, 1.950e-3
-2.119, 1.932e-3
-2.118, 1.916e-3
-2.117, 1.899e-3
-2.116, 1.880e-3
-2.115, 1.864e-3
-2.114, 1.847e-3
-2.113, 1.829e-3
-2.112, 1.812e-3
-2.111, 1.797e-3
-2.110, 1.779e-3
-2.109, 1.762e-3
-2.108, 1.746e-3
-2.107, 1.730e-3
-2.106, 1.713e-3
-2.105, 1.697e-3
-2.104, 1.682e-3
-2.103, 1.665e-3
-2.102, 1.650e-3
-2.101, 1.635e-3
-2.100, 1.619e-3
-2.099, 1.602e-3
-2.098, 1.588e-3
-2.097, 1.572e-3
-2.096, 1.556e-3
-2.095, 1.542e-3
-2.094, 1.528e-3
-2.093, 1.512e-3
-2.092, 1.497e-3
-2.091, 1.484e-3
-2.090, 1.468e-3
-2.089, 1.453e-3
-2.088, 1.440e-3
-2.087, 1.425e-3
-2.086, 1.411e-3
-2.085, 1.399e-3
-2.084, 1.384e-3
-2.083, 1.369e-3
-2.082, 1.355e-3
-2.081, 1.343e-3
-2.080, 1.329e-3
-2.079, 1.314e-3
-2.078, 1.302e-3
-2.077, 1.289e-3
-2.076, 1.275e-3
-2.075, 1.263e-3
-2.074, 1.251e-3
-2.073, 1.237e-3
-2.072, 1.224e-3
-2.071, 1.213e-3
-2.070, 1.201e-3
-2.069, 1.188e-3
-2.068, 1.176e-3
-2.067, 1.164e-3
-2.066, 1.151e-3
-2.065, 1.139e-3
-2.064, 1.128e-3
-2.063, 1.115e-3
-2.062, 1.103e-3
-2.061, 1.093e-3
-2.060, 1.081e-3
-2.059, 1.069e-3
-2.058, 1.059e-3
-2.057, 1.047e-3
-2.056, 1.035e-3
-2.055, 1.025e-3
-2.054, 1.014e-3
-2.053, 1.003e-3
-2.052, 9.922e-4
-2.051, 9.826e-4
-2.050, 9.713e-4
-2.049, 9.600e-4
-2.048, 9.503e-4
-2.047, 9.398e-4
-2.046, 9.291e-4
-2.045, 9.196e-4
-2.044, 9.099e-4
-2.043, 8.993e-4
-2.042, 8.891e-4
-2.041, 8.805e-4
-2.040, 8.703e-4
-2.039, 8.602e-4
-2.038, 8.519e-4
-2.037, 8.422e-4
-2.036, 8.322e-4
-2.035, 8.231e-4
-2.034, 8.145e-4
-2.033, 8.045e-4
-2.032, 7.957e-4
-2.031, 7.875e-4
-2.030, 7.781e-4
-2.029, 7.686e-4
-2.028, 7.607e-4
-2.027, 7.521e-4
-2.026, 7.430e-4
-2.025, 7.352e-4
-2.024, 7.275e-4
-2.023, 7.193e-4
-2.022, 7.105e-4
-2.021, 7.035e-4
-2.020, 6.952e-4
-2.019, 6.868e-4
-2.018, 6.800e-4
-2.017, 6.723e-4
-2.016, 6.641e-4
-2.015, 6.570e-4
-2.014, 6.497e-4
-2.013, 6.417e-4
-2.012, 6.344e-4
-2.011, 6.277e-4
-2.010, 6.205e-4
-2.009, 6.130e-4
-2.008, 6.067e-4
-2.007, 5.995e-4
-2.006, 5.922e-4
-2.005, 5.859e-4
-2.004, 5.793e-4
-2.003, 5.722e-4
-2.002, 5.654e-4
-2.001, 5.596e-4
-2.000, 5.528e-4
-1.999, 5.458e-4
-1.998, 5.400e-4
-1.997, 5.337e-4
-1.996, 5.271e-4
-1.995, 5.215e-4
-1.994, 5.156e-4
-1.993, 5.091e-4
-1.992, 5.031e-4
-1.991, 4.978e-4
-1.990, 4.915e-4
-1.989, 4.852e-4
-1.988, 4.804e-4
-1.987, 4.745e-4
-1.986, 4.686e-4
-1.985, 4.633e-4
-1.984, 4.581e-4
-1.983, 4.523e-4
-1.982, 4.466e-4
-1.981, 4.420e-4
-1.980, 4.366e-4
-1.979, 4.313e-4
-1.978, 4.270e-4
-1.977, 4.215e-4
-1.976, 4.167e-4
-1.975, 4.120e-4
-1.974, 4.072e-4
-1.973, 4.020e-4
-1.972, 3.972e-4
-1.971, 3.931e-4
-1.970, 3.881e-4
-1.969, 3.830e-4
-1.968, 3.790e-4
-1.967, 3.743e-4
-1.966, 3.696e-4
-1.965, 3.654e-4
-1.964, 3.612e-4
-1.963, 3.565e-4
-1.962, 3.522e-4
-1.961, 3.484e-4
-1.960, 3.440e-4
-1.959, 3.396e-4
-1.958, 3.357e-4
-1.957, 3.313e-4
-1.956, 3.273e-4
-1.955, 3.236e-4
-1.954, 3.197e-4
-1.953, 3.154e-4
-1.952, 3.116e-4
-1.951, 3.080e-4
-1.950, 3.039e-4
-1.949, 3.001e-4
-1.948, 2.970e-4
-1.947, 2.932e-4
-1.946, 2.895e-4
-1.945, 2.857e-4
-1.944, 2.825e-4
-1.943, 2.787e-4
-1.942, 2.753e-4
-1.941, 2.723e-4
-1.940, 2.687e-4
-1.939, 2.651e-4
-1.938, 2.623e-4
-1.937, 2.588e-4
-1.936, 2.555e-4
-1.935, 2.526e-4
-1.934, 2.494e-4
-1.933, 2.464e-4
-1.932, 2.432e-4
-1.931, 2.404e-4
-1.930, 2.373e-4
-1.929, 2.342e-4
-1.928, 2.317e-4
-1.927, 2.285e-4
-1.926, 2.254e-4
-1.925, 2.231e-4
-1.924, 2.201e-4
-1.923, 2.174e-4
-1.922, 2.148e-4
-1.921, 2.124e-4
-1.920, 2.094e-4
-1.919, 2.067e-4
-1.918, 2.043e-4
-1.917, 2.014e-4
-1.916, 1.990e-4
-1.915, 1.967e-4
-1.914, 1.942e-4
-1.913, 1.916e-4
-1.912, 1.892e-4
-1.911, 1.871e-4
-1.910, 1.844e-4
-1.909, 1.820e-4
-1.908, 1.800e-4
-1.907, 1.773e-4
-1.906, 1.752e-4
-1.905, 1.734e-4
-1.904, 1.705e-4
-1.903, 1.687e-4
-1.902, 1.664e-4
-1.901, 1.645e-4
-1.900, 1.621e-4
-1.899, 1.600e-4
-1.898, 1.584e-4
-1.897, 1.559e-4
-1.896, 1.539e-4
-1.895, 1.523e-4
-1.894, 1.501e-4
-1.893, 1.479e-4
-1.892, 1.461e-4
-1.891, 1.444e-4
-1.890, 1.424e-4
-1.889, 1.403e-4
-1.888, 1.388e-4
-1.887, 1.368e-4
-1.886, 1.350e-4
-1.885, 1.334e-4
-1.884, 1.317e-4
-1.883, 1.300e-4
-1.882, 1.281e-4
-1.881, 1.267e-4
-1.880, 1.248e-4
-1.879, 1.231e-4
-1.878, 1.217e-4
-1.877, 1.198e-4
-1.876, 1.182e-4
-1.875, 1.167e-4
-1.874, 1.153e-4
-1.873, 1.134e-4
-1.872, 1.120e-4
-1.871, 1.108e-4
-1.870, 1.093e-4
-1.869, 1.076e-4
-1.868, 1.064e-4
-1.867, 1.048e-4
-1.866, 1.033e-4
-1.865, 1.023e-4
-1.864, 1.007e-4
-1.863, 9.952e-5
-1.862, 9.796e-5
-1.861, 9.698e-5
-1.860, 9.563e-5
-1.859, 9.422e-5
-1.858, 9.296e-5
-1.857, 9.164e-5
-1.856, 9.042e-5
-1.855, 8.936e-5
-1.854, 8.782e-5
-1.853, 8.677e-5
-1.852, 8.563e-5
-1.851, 8.459e-5
-1.850, 8.334e-5
-1.849, 8.200e-5
-1.848, 8.112e-5
-1.847, 7.991e-5
-1.846, 7.894e-5
-1.845, 7.818e-5
-1.844, 7.663e-5
-1.843, 7.564e-5
-1.842, 7.462e-5
-1.841, 7.373e-5
-1.840, 7.244e-5
-1.839, 7.147e-5
-1.838, 7.061e-5
-1.837, 6.942e-5
-1.836, 6.843e-5
-1.835, 6.784e-5
-1.834, 6.682e-5
-1.833, 6.577e-5
-1.832, 6.492e-5
-1.831, 6.418e-5
-1.830, 6.294e-5
-1.829, 6.208e-5
-1.828, 6.140e-5
-1.827, 6.048e-5
-1.826, 5.961e-5
-1.825, 5.897e-5
-1.824, 5.794e-5
-1.823, 5.737e-5
-1.822, 5.637e-5
-1.821, 5.581e-5
-1.820, 5.493e-5
-1.819, 5.415e-5
-1.818, 5.365e-5
-1.817, 5.259e-5
-1.816, 5.171e-5
-1.815, 5.147e-5
-1.814, 5.021e-5
-1.813, 4.984e-5
-1.812, 4.892e-5
-1.811, 4.837e-5
-1.810, 4.759e-5
-1.809, 4.678e-5
-1.808, 4.631e-5
-1.807, 4.547e-5
-1.806, 4.482e-5
-1.805, 4.425e-5
-1.804, 4.354e-5
-1.803, 4.294e-5
-1.802, 4.235e-5
-1.801, 4.192e-5
-1.800, 4.117e-5
-1.799, 4.036e-5
-1.798, 4.013e-5
-1.797, 3.943e-5
-1.796, 3.886e-5
-1.795, 3.831e-5
-1.794, 3.755e-5
-1.793, 3.718e-5
-1.792, 3.652e-5
-1.791, 3.633e-5
-1.790, 3.541e-5
-1.789, 3.482e-5
-1.788, 3.440e-5
-1.787, 3.361e-5
-1.786, 3.342e-5
-1.785, 3.312e-5
-1.784, 3.229e-5
-1.783, 3.193e-5
-1.782, 3.149e-5
-1.781, 3.114e-5
-1.780, 3.068e-5
-1.779, 2.999e-5
-1.778, 2.956e-5
-1.777, 2.907e-5
-1.776, 2.875e-5
-1.775, 2.850e-5
-1.774, 2.770e-5
-1.773, 2.739e-5
-1.772, 2.694e-5
-1.771, 2.674e-5
-1.770, 2.655e-5
-1.769, 2.574e-5
-1.768, 2.568e-5
-1.767, 2.497e-5
-1.766, 2.454e-5
-1.765, 2.451e-5
-1.764, 2.383e-5
-1.763, 2.371e-5
-1.762, 2.336e-5
-1.761, 2.281e-5
-1.760, 2.229e-5
-1.759, 2.199e-5
-1.758, 2.205e-5
-1.757, 2.157e-5
-1.756, 2.127e-5
-1.755, 2.088e-5
-1.754, 2.044e-5
-1.753, 2.008e-5
-1.752, 1.980e-5
-1.751, 1.976e-5
-1.750, 1.931e-5
-1.749, 1.892e-5
-1.748, 1.896e-5
-1.747, 1.831e-5
-1.746, 1.813e-5
-1.745, 1.802e-5
-1.744, 1.764e-5
-1.743, 1.751e-5
-1.742, 1.705e-5
-1.741, 1.676e-5
-1.740, 1.665e-5
-1.739, 1.635e-5
-1.738, 1.618e-5
-1.737, 1.578e-5
-1.736, 1.564e-5
-1.735, 1.551e-5
-1.734, 1.496e-5
-1.733, 1.483e-5
-1.732, 1.465e-5
-1.731, 1.465e-5
-1.730, 1.417e-5
-1.729, 1.390e-5
-1.728, 1.401e-5
-1.727, 1.347e-5
-1.726, 1.320e-5
-1.725, 1.345e-5
-1.724, 1.284e-5
-1.723, 1.275e-5
-1.722, 1.252e-5
-1.721, 1.250e-5
-1.720, 1.219e-5
-1.719, 1.182e-5
-1.718, 1.202e-5
-1.717, 1.150e-5
-1.716, 1.141e-5
-1.715, 1.135e-5
-1.714, 1.100e-5
-1.713, 1.098e-5
-1.712, 1.064e-5
-1.711, 1.068e-5
-1.710, 1.026e-5
-1.709, 1.010e-5
-1.708, 1.028e-5
-1.707, 9.805e-6
-1.706, 9.755e-6
-1.705, 9.874e-6
-1.704, 9.371e-6
-1.703, 9.351e-6
-1.702, 9.242e-6
-1.701, 9.104e-6
-1.700, 8.858e-6
-1.699, 8.779e-6
-1.698, 8.759e-6
-1.697, 8.670e-6
-1.696, 8.354e-6
-1.695, 8.493e-6
-1.694, 7.930e-6
-1.693, 8.049e-6
-1.692, 7.960e-6
-1.691, 7.881e-6
-1.690, 7.496e-6
-1.689, 7.467e-6
-1.688, 7.536e-6
-1.687, 7.210e-6
-1.686, 7.023e-6
-1.685, 7.230e-6
-1.684, 6.914e-6
-1.683, 6.815e-6
-1.682, 6.707e-6
-1.681, 6.549e-6
-1.680, 6.480e-6
-1.679, 6.450e-6
-1.678, 6.401e-6
-1.677, 6.223e-6
-1.676, 6.066e-6
-1.675, 6.026e-6
-1.674, 5.908e-6
-1.673, 5.957e-6
-1.672, 5.849e-6
-1.671, 5.819e-6
-1.670, 5.444e-6
-1.669, 5.276e-6
-1.668, 5.553e-6
-1.667, 5.326e-6
-1.666, 5.069e-6
-1.665, 5.237e-6
-1.664, 4.783e-6
-1.663, 5.030e-6
-1.662, 4.901e-6
-1.661, 4.921e-6
-1.660, 4.684e-6
-1.659, 4.822e-6
-1.658, 4.526e-6
-1.657, 4.487e-6
-1.656, 4.448e-6
-1.655, 4.329e-6
-1.654, 4.063e-6
-1.653, 4.300e-6
-1.652, 4.152e-6
-1.651, 4.043e-6
-1.650, 3.846e-6
-1.649, 3.954e-6
-1.648, 4.132e-6
-1.647, 3.974e-6
-1.646, 3.639e-6
-1.645, 4.013e-6
-1.644, 3.372e-6
-1.643, 3.619e-6
-1.642, 3.422e-6
-1.641, 3.510e-6
-1.640, 3.412e-6
-1.639, 3.126e-6
-1.638, 3.422e-6
-1.637, 3.096e-6
-1.636, 3.106e-6
-1.635, 3.185e-6
-1.634, 2.849e-6
-1.633, 2.987e-6
-1.632, 2.889e-6
-1.631, 2.889e-6
-1.630, 2.879e-6
-1.629, 2.543e-6
-1.628, 2.839e-6
-1.627, 2.524e-6
-1.626, 2.642e-6
-1.625, 2.455e-6
-1.624, 2.297e-6
-1.623, 2.593e-6
-1.622, 2.366e-6
-1.621, 2.267e-6
-1.620, 2.159e-6
-1.619, 2.169e-6
-1.618, 2.386e-6
-1.617, 1.981e-6
-1.616, 2.149e-6
-1.615, 2.149e-6
-1.614, 1.833e-6
-1.613, 1.902e-6
-1.612, 2.030e-6
-1.611, 2.021e-6
-1.610, 1.981e-6
-1.609, 1.715e-6
-1.608, 1.951e-6
-1.607, 1.833e-6
-1.606, 1.853e-6
-1.605, 1.882e-6
-1.604, 1.606e-6
-1.603, 1.705e-6
-1.602, 1.586e-6
-1.601, 1.547e-6
-1.600, 1.636e-6
-1.599, 1.369e-6
-1.598, 1.646e-6
-1.597, 1.438e-6
-1.596, 1.448e-6
-1.595, 1.626e-6
-1.594, 1.152e-6
-1.593, 1.429e-6
-1.592, 1.310e-6
-1.591, 1.290e-6
-1.590, 1.389e-6
-1.589, 1.093e-6
-1.588, 1.350e-6
-1.587, 1.083e-6
-1.586, 1.350e-6
-1.585, 1.251e-6
-1.584, 1.014e-6
-1.583, 1.271e-6
-1.582, 1.044e-6
-1.581, 1.152e-6
-1.580, 1.064e-6
-1.579, 7.478e-7
-1.578, 1.064e-6
-1.577, 7.478e-7
-1.576, 9.156e-7
-1.575, 1.054e-6
-1.574, 6.196e-7
-1.573, 9.748e-7
-1.572, 7.972e-7
-1.571, 8.958e-7
-1.570, 7.676e-7
-1.569, 7.478e-7
-1.568, 7.478e-7
-1.567, 6.788e-7
-1.566, 6.196e-7
-1.565, 7.873e-7
-1.564, 5.012e-7
-1.563, 5.604e-7
-1.562, 8.564e-7
-1.561, 5.801e-7
-1.560, 5.505e-7
-1.559, 4.025e-7
-1.558, 5.801e-7
-1.557, 4.025e-7
-1.556, 3.433e-7
-1.555, 5.407e-7
-1.554, 2.447e-7
-1.553, 5.012e-7
-1.552, 5.998e-7
-1.551, 2.841e-7
-1.550, 2.743e-7
-1.549, 2.545e-7
-1.548, 3.137e-7
-1.547, 2.151e-7
-1.546, 3.927e-7
-1.545, 3.828e-7
-1.544, 3.749e-8
-1.543, 2.249e-7
-1.542, 2.447e-7
-1.541, 2.841e-7
-1.540, 2.348e-7
-1.539, 2.249e-7
-1.538, 2.151e-7
-1.537, 1.776e-8
-1.536, 8.682e-8
-1.535, 2.151e-7
-1.534, -1.973e-9
-1.533, 1.657e-7
-1.532, 7.695e-8
-1.531, 2.762e-8
-1.530, 1.657e-7
-1.529, -1.598e-7
-1.528, 7.695e-8
-1.527, -1.401e-7
-1.526, -9.077e-8
-1.525, -2.171e-8
-1.524, -9.077e-8
-1.523, -7.103e-8
-1.522, -1.401e-7
-1.521, 4.736e-8
-1.520, -1.401e-7
-1.519, -2.782e-7
-1.518, 1.460e-7
-1.517, -3.078e-7
-1.516, -4.144e-8
-1.515, -7.103e-8
-1.514, -4.459e-7
-1.513, -1.993e-7
-1.512, -1.697e-7
-1.511, -2.289e-7
-1.510, 3.749e-8
-1.509, -4.755e-7
-1.508, -2.171e-8
-1.507, -3.473e-7
-1.506, -3.571e-7
-1.505, -1.500e-7
-1.504, -3.769e-7
-1.503, -2.980e-7
-1.502, -4.657e-7
-1.501, -4.163e-7
-1.500, -2.585e-7
-1.499, -4.262e-7
-1.498, -3.867e-7
-1.497, -4.953e-7
-1.496, -4.361e-7
-1.495, -2.289e-7
-1.494, -6.038e-7
-1.493, -3.867e-7
-1.492, -5.841e-7
-1.491, -3.769e-7
-1.490, -3.769e-7
-1.489, -5.249e-7
-1.488, -1.598e-7
-1.487, -5.841e-7
-1.486, -4.361e-7
-1.485, -3.867e-7
-1.484, -8.307e-7
-1.483, -5.841e-7
-1.482, -6.038e-7
-1.481, -5.347e-7
-1.480, -5.150e-7
-1.479, -7.025e-7
-1.478, -4.163e-7
-1.477, -8.504e-7
-1.476, -5.742e-7
-1.475, -5.347e-7
-1.474, -7.222e-7
-1.473, -6.137e-7
-1.472, -5.742e-7
-1.471, -7.419e-7
-1.470, -5.841e-7
-1.469, -9.096e-7
-1.468, -7.321e-7
-1.467, -6.827e-7
-1.466, -8.011e-7
-1.465, -6.531e-7
-1.464, -8.899e-7
-1.463, -7.419e-7
-1.462, -8.899e-7
-1.461, -6.137e-7
-1.460, -7.518e-7
-1.459, -1.018e-6
-1.458, -8.406e-7
-1.457, -9.984e-7
-1.456, -9.096e-7
-1.455, -8.011e-7
-1.454, -1.117e-6
-1.453, -8.603e-7
-1.452, -7.814e-7
-1.451, -8.998e-7
-1.450, -9.590e-7
-1.449, -9.590e-7
-1.448, -8.800e-7
-1.447, -8.208e-7
-1.446, -9.195e-7
-1.445, -7.419e-7
-1.444, -9.886e-7
-1.443, -9.392e-7
-1.442, -1.077e-6
-1.441, -9.984e-7
-1.440, -1.018e-6
-1.439, -1.058e-6
-1.438, -8.702e-7
-1.437, -1.087e-6
-1.436, -1.077e-6
-1.435, -7.617e-7
-1.434, -1.166e-6
-1.433, -1.215e-6
-1.432, -1.196e-6
-1.431, -1.186e-6
-1.430, -1.087e-6
-1.429, -1.196e-6
-1.428, -1.018e-6
-1.427, -1.058e-6
-1.426, -1.077e-6
-1.425, -1.028e-6
-1.424, -1.265e-6
-1.423, -1.048e-6
-1.422, -1.255e-6
-1.421, -1.275e-6
-1.420, -1.186e-6
-1.419, -1.324e-6
-1.418, -1.235e-6
-1.417, -1.146e-6
-1.416, -1.186e-6
-1.415, -1.087e-6
-1.414, -1.482e-6
-1.413, -1.245e-6
-1.412, -1.176e-6
-1.411, -1.433e-6
-1.410, -1.314e-6
-1.409, -1.492e-6
-1.408, -1.097e-6
-1.407, -1.393e-6
-1.406, -1.255e-6
-1.405, -1.275e-6
-1.404, -1.255e-6
-1.403, -1.492e-6
-1.402, -1.176e-6
-1.401, -1.472e-6
-1.400, -1.442e-6
-1.399, -1.571e-6
-1.398, -1.255e-6
-1.397, -1.334e-6
-1.396, -1.393e-6
-1.395, -1.324e-6
-1.394, -1.502e-6
-1.393, -1.423e-6
-1.392, -1.373e-6
-1.391, -1.403e-6
-1.390, -1.235e-6
-1.389, -1.492e-6
-1.388, -1.433e-6
-1.387, -1.561e-6
-1.386, -1.452e-6
-1.385, -1.610e-6
-1.384, -1.581e-6
-1.383, -1.344e-6
-1.382, -1.373e-6
-1.381, -1.620e-6
-1.380, -1.314e-6
-1.379, -1.640e-6
-1.378, -1.393e-6
-1.377, -1.630e-6
-1.376, -1.729e-6
-1.375, -1.413e-6
-1.374, -1.571e-6
-1.373, -1.363e-6
-1.372, -1.511e-6
-1.371, -1.689e-6
-1.370, -1.541e-6
-1.369, -1.965e-6
-1.368, -1.452e-6
-1.367, -1.738e-6
-1.366, -1.442e-6
-1.365, -1.472e-6
-1.364, -1.709e-6
-1.363, -1.571e-6
-1.362, -1.373e-6
-1.361, -1.511e-6
-1.360, -1.452e-6
-1.359, -1.906e-6
-1.358, -1.452e-6
-1.357, -1.748e-6
-1.356, -1.679e-6
-1.355, -1.679e-6
-1.354, -1.709e-6
-1.353, -1.659e-6
-1.352, -1.452e-6
-1.351, -1.857e-6
-1.350, -1.669e-6
-1.349, -1.788e-6
-1.348, -1.669e-6
-1.347, -1.709e-6
-1.346, -1.679e-6
-1.345, -1.659e-6
-1.344, -1.955e-6
-1.343, -1.758e-6
-1.342, -1.719e-6
-1.341, -1.729e-6
-1.340, -1.748e-6
-1.339, -1.768e-6
-1.338, -1.709e-6
-1.337, -1.837e-6
-1.336, -1.857e-6
-1.335, -1.630e-6
-1.334, -1.936e-6
-1.333, -1.729e-6
-1.332, -1.699e-6
-1.331, -1.877e-6
-1.330, -1.827e-6
-1.329, -1.827e-6
-1.328, -1.985e-6
-1.327, -1.798e-6
-1.326, -2.024e-6
-1.325, -1.778e-6
-1.324, -2.103e-6
-1.323, -1.630e-6
-1.322, -1.778e-6
-1.321, -1.847e-6
-1.320, -1.916e-6
-1.319, -2.024e-6
-1.318, -1.995e-6
-1.317, -2.024e-6
-1.316, -1.906e-6
-1.315, -1.926e-6
-1.314, -2.005e-6
-1.313, -1.748e-6
-1.312, -1.798e-6
-1.311, -1.926e-6
-1.310, -1.886e-6
-1.309, -1.975e-6
-1.308, -1.827e-6
-1.307, -2.044e-6
-1.306, -1.965e-6
-1.305, -1.995e-6
-1.304, -2.163e-6
-1.303, -1.886e-6
-1.302, -1.965e-6
-1.301, -2.044e-6
-1.300, -1.936e-6
-1.299, -2.064e-6
-1.298, -1.877e-6
-1.297, -1.965e-6
-1.296, -2.064e-6
-1.295, -2.015e-6
-1.294, -2.084e-6
-1.293, -1.975e-6
-1.292, -2.103e-6
-1.291, -2.113e-6
-1.290, -1.955e-6
-1.289, -2.084e-6
-1.288, -1.955e-6
-1.287, -2.182e-6
-1.286, -2.103e-6
-1.285, -1.877e-6
-1.284, -2.340e-6
-1.283, -2.054e-6
-1.282, -1.995e-6
-1.281, -2.064e-6
-1.280, -2.054e-6
-1.279, -2.390e-6
-1.278, -2.024e-6
-1.277, -2.133e-6
-1.276, -2.143e-6
-1.275, -1.946e-6
-1.274, -2.172e-6
-1.273, -2.153e-6
-1.272, -2.172e-6
-1.271, -2.074e-6
-1.270, -2.103e-6
-1.269, -2.054e-6
-1.268, -2.015e-6
-1.267, -2.251e-6
-1.266, -2.301e-6
-1.265, -2.054e-6
-1.264, -2.261e-6
-1.263, -2.005e-6
-1.262, -2.064e-6
-1.261, -2.232e-6
-1.260, -2.034e-6
-1.259, -2.449e-6
-1.258, -2.054e-6
-1.257, -2.271e-6
-1.256, -2.182e-6
-1.255, -2.172e-6
-1.254, -2.508e-6
-1.253, -2.242e-6
-1.252, -2.054e-6
-1.251, -2.320e-6
-1.250, -2.163e-6
-1.249, -2.409e-6
-1.248, -2.182e-6
-1.247, -2.311e-6
-1.246, -2.222e-6
-1.245, -2.222e-6
-1.244, -2.478e-6
-1.243, -2.301e-6
-1.242, -2.202e-6
-1.241, -2.291e-6
-1.240, -2.390e-6
-1.239, -2.291e-6
-1.238, -2.449e-6
-1.237, -2.271e-6
-1.236, -2.301e-6
-1.235, -2.212e-6
-1.234, -2.468e-6
-1.233, -2.163e-6
-1.232, -2.360e-6
-1.231, -2.340e-6
-1.230, -2.251e-6
-1.229, -2.439e-6
-1.228, -2.291e-6
-1.227, -2.538e-6
-1.226, -2.399e-6
-1.225, -2.409e-6
-1.224, -2.577e-6
-1.223, -2.301e-6
-1.222, -2.380e-6
-1.221, -2.577e-6
-1.220, -2.320e-6
-1.219, -2.636e-6
-1.218, -2.419e-6
-1.217, -2.577e-6
-1.216, -2.468e-6
-1.215, -2.350e-6
-1.214, -2.607e-6
-1.213, -2.340e-6
-1.212, -2.251e-6
-1.211, -2.538e-6
-1.210, -2.409e-6
-1.209, -2.468e-6
-1.208, -2.429e-6
-1.207, -2.528e-6
-1.206, -2.518e-6
-1.205, -2.380e-6
-1.204, -2.616e-6
-1.203, -2.577e-6
-1.202, -2.607e-6
-1.201, -2.705e-6
-1.200, -2.320e-6
-1.199, -2.607e-6
-1.198, -2.587e-6
-1.197, -2.547e-6
-1.196, -2.666e-6
-1.195, -2.419e-6
-1.194, -2.626e-6
-1.193, -2.676e-6
-1.192, -2.429e-6
-1.191, -2.755e-6
-1.190, -2.547e-6
-1.189, -2.695e-6
-1.188, -2.429e-6
-1.187, -2.725e-6
-1.186, -2.626e-6
-1.185, -2.380e-6
-1.184, -2.686e-6
-1.183, -2.656e-6
-1.182, -2.676e-6
-1.181, -2.784e-6
-1.180, -2.666e-6
-1.179, -2.656e-6
-1.178, -2.498e-6
-1.177, -2.695e-6
-1.176, -2.764e-6
-1.175, -2.547e-6
-1.174, -2.883e-6
-1.173, -2.636e-6
-1.172, -2.764e-6
-1.171, -2.893e-6
-1.170, -2.695e-6
-1.169, -2.903e-6
-1.168, -2.616e-6
-1.167, -2.646e-6
-1.166, -2.656e-6
-1.165, -2.656e-6
-1.164, -2.962e-6
-1.163, -2.735e-6
-1.162, -2.666e-6
-1.161, -3.060e-6
-1.160, -2.764e-6
-1.159, -3.021e-6
-1.158, -2.863e-6
-1.157, -2.843e-6
-1.156, -2.636e-6
-1.155, -2.646e-6
-1.154, -2.853e-6
-1.153, -2.824e-6
-1.152, -2.755e-6
-1.151, -2.903e-6
-1.150, -2.814e-6
-1.149, -3.021e-6
-1.148, -2.626e-6
-1.147, -2.824e-6
-1.146, -2.952e-6
-1.145, -2.705e-6
-1.144, -3.100e-6
-1.143, -2.814e-6
-1.142, -2.942e-6
-1.141, -2.922e-6
-1.140, -2.774e-6
-1.139, -3.100e-6
-1.138, -2.922e-6
-1.137, -3.060e-6
-1.136, -2.814e-6
-1.135, -2.843e-6
-1.134, -2.893e-6
-1.133, -3.041e-6
-1.132, -2.883e-6
-1.131, -2.922e-6
-1.130, -2.922e-6
-1.129, -3.129e-6
-1.128, -2.893e-6
-1.127, -2.981e-6
-1.126, -3.060e-6
-1.125, -2.962e-6
-1.124, -3.179e-6
-1.123, -3.149e-6
-1.122, -2.952e-6
-1.121, -3.179e-6
-1.120, -3.021e-6
-1.119, -3.031e-6
-1.118, -2.952e-6
-1.117, -3.051e-6
-1.116, -3.080e-6
-1.115, -2.942e-6
-1.114, -3.189e-6
-1.113, -3.120e-6
-1.112, -2.774e-6
-1.111, -3.120e-6
-1.110, -3.120e-6
-1.109, -3.199e-6
-1.108, -2.952e-6
-1.107, -3.208e-6
-1.106, -3.218e-6
-1.105, -2.922e-6
-1.104, -3.307e-6
-1.103, -3.139e-6
-1.102, -3.001e-6
-1.101, -3.347e-6
-1.100, -3.139e-6
-1.099, -3.366e-6
-1.098, -3.031e-6
-1.097, -3.199e-6
-1.096, -3.307e-6
-1.095, -3.159e-6
-1.094, -3.504e-6
-1.093, -3.051e-6
-1.092, -3.228e-6
-1.091, -3.327e-6
-1.090, -3.110e-6
-1.089, -3.287e-6
-1.088, -3.307e-6
-1.087, -3.248e-6
-1.086, -3.356e-6
-1.085, -3.149e-6
-1.084, -3.376e-6
-1.083, -3.208e-6
-1.082, -3.268e-6
-1.081, -3.386e-6
-1.080, -3.307e-6
-1.079, -3.327e-6
-1.078, -3.110e-6
-1.077, -3.307e-6
-1.076, -3.465e-6
-1.075, -3.179e-6
-1.074, -3.544e-6
-1.073, -3.238e-6
-1.072, -3.317e-6
-1.071, -3.504e-6
-1.070, -3.277e-6
-1.069, -3.386e-6
-1.068, -3.366e-6
-1.067, -3.445e-6
-1.066, -3.613e-6
-1.065, -3.258e-6
-1.064, -3.603e-6
-1.063, -3.445e-6
-1.062, -3.475e-6
-1.061, -3.544e-6
-1.060, -3.445e-6
-1.059, -3.534e-6
-1.058, -3.366e-6
-1.057, -3.554e-6
-1.056, -3.564e-6
-1.055, -3.406e-6
-1.054, -3.623e-6
-1.053, -3.445e-6
-1.052, -3.366e-6
-1.051, -3.544e-6
-1.050, -3.406e-6
-1.049, -3.445e-6
-1.048, -3.583e-6
-1.047, -3.524e-6
-1.046, -3.781e-6
-1.045, -3.268e-6
-1.044, -3.840e-6
-1.043, -3.396e-6
-1.042, -3.445e-6
-1.041, -3.524e-6
-1.040, -3.652e-6
-1.039, -3.583e-6
-1.038, -3.485e-6
-1.037, -3.514e-6
-1.036, -3.643e-6
-1.035, -3.544e-6
-1.034, -3.761e-6
-1.033, -3.593e-6
-1.032, -3.347e-6
-1.031, -3.800e-6
-1.030, -3.544e-6
-1.029, -3.692e-6
-1.028, -3.386e-6
-1.027, -3.702e-6
-1.026, -3.633e-6
-1.025, -3.544e-6
-1.024, -3.613e-6
-1.023, -3.712e-6
-1.022, -3.573e-6
-1.021, -3.958e-6
-1.020, -3.820e-6
-1.019, -3.869e-6
-1.018, -3.485e-6
-1.017, -3.721e-6
-1.016, -3.840e-6
-1.015, -3.593e-6
-1.014, -3.919e-6
-1.013, -3.721e-6
-1.012, -3.603e-6
-1.011, -3.929e-6
-1.010, -3.662e-6
-1.009, -3.978e-6
-1.008, -3.564e-6
-1.007, -3.702e-6
-1.006, -3.860e-6
-1.005, -3.544e-6
-1.004, -3.573e-6
-1.003, -3.840e-6
-1.002, -3.761e-6
-1.001, -3.879e-6
