Oct. 27, 2024   21:43:40
Cyclic Voltammetry
File: c:/users/guazh/data/banditlqv2round1/2024-10-24-exp601\exp601-2024-10-27t21_06_00-arkoh\exp601_cv_sr_900mvs_efin_-2300mv.bin
Data Source:  Experiment
Instrument Model:  CHI760E
Header: CV ran at 900 mVs
Note: 

Init E (V) = -1
High E (V) = -1
Low E (V) = -2.3
Final E (V) = -1
Init P/N = N
Scan Rate (V/s) = 0.9
Segment = 3
Sample Interval (V) = 0.001
Quiet Time (sec) = 2
Sensitivity (A/V) = 0.01
Comp R (ohm) = 0.9

Results:

Channel 1:
Segment 1:

Segment 2:

Segment 3:

Potential/V, Current/A

-1.000, 3.239e-6
-1.001, 3.239e-6
-1.002, 3.239e-6
-1.003, 3.239e-6
-1.004, 3.239e-6
-1.005, 3.239e-6
-1.006, 3.239e-6
-1.007, 3.239e-6
-1.008, 3.239e-6
-1.009, 3.239e-6
-1.010, 3.239e-6
-1.011, 3.239e-6
-1.012, 3.239e-6
-1.013, 3.239e-6
-1.014, 3.239e-6
-1.015, 3.239e-6
-1.016, 3.239e-6
-1.017, 3.239e-6
-1.018, 3.239e-6
-1.019, 3.239e-6
-1.020, 3.239e-6
-1.021, 3.239e-6
-1.022, 3.239e-6
-1.023, 3.239e-6
-1.024, 3.239e-6
-1.025, 3.239e-6
-1.026, 3.239e-6
-1.027, 3.239e-6
-1.028, 3.239e-6
-1.029, 3.239e-6
-1.030, 3.239e-6
-1.031, 3.239e-6
-1.032, 3.239e-6
-1.033, 3.239e-6
-1.034, 3.239e-6
-1.035, 6.322e-6
-1.036, 3.239e-6
-1.037, 3.239e-6
-1.038, 3.239e-6
-1.039, 3.239e-6
-1.040, 3.239e-6
-1.041, 3.239e-6
-1.042, 3.239e-6
-1.043, 3.239e-6
-1.044, 3.239e-6
-1.045, 3.239e-6
-1.046, 3.239e-6
-1.047, 3.239e-6
-1.048, 3.239e-6
-1.049, 3.239e-6
-1.050, 3.239e-6
-1.051, 3.239e-6
-1.052, 3.239e-6
-1.053, 3.239e-6
-1.054, 3.239e-6
-1.055, 3.239e-6
-1.056, 3.239e-6
-1.057, 3.239e-6
-1.058, 3.239e-6
-1.059, 3.239e-6
-1.060, 3.239e-6
-1.061, 3.239e-6
-1.062, 3.239e-6
-1.063, 3.239e-6
-1.064, 3.239e-6
-1.065, 3.239e-6
-1.066, 3.239e-6
-1.067, 3.239e-6
-1.068, 3.239e-6
-1.069, 6.322e-6
-1.070, 3.239e-6
-1.071, 3.239e-6
-1.072, 6.322e-6
-1.073, 3.239e-6
-1.074, 3.239e-6
-1.075, 6.322e-6
-1.076, 6.322e-6
-1.077, 3.239e-6
-1.078, 6.322e-6
-1.079, 3.239e-6
-1.080, 6.322e-6
-1.081, 6.322e-6
-1.082, 6.322e-6
-1.083, 6.322e-6
-1.084, 6.322e-6
-1.085, 6.322e-6
-1.086, 3.239e-6
-1.087, 3.239e-6
-1.088, 3.239e-6
-1.089, 3.239e-6
-1.090, 6.322e-6
-1.091, 3.239e-6
-1.092, 3.239e-6
-1.093, 3.239e-6
-1.094, 6.322e-6
-1.095, 6.322e-6
-1.096, 3.239e-6
-1.097, 3.239e-6
-1.098, 3.239e-6
-1.099, 6.322e-6
-1.100, 3.239e-6
-1.101, 6.322e-6
-1.102, 6.322e-6
-1.103, 6.322e-6
-1.104, 3.239e-6
-1.105, 6.322e-6
-1.106, 6.322e-6
-1.107, 3.239e-6
-1.108, 6.322e-6
-1.109, 6.322e-6
-1.110, 6.322e-6
-1.111, 6.322e-6
-1.112, 6.322e-6
-1.113, 6.322e-6
-1.114, 6.322e-6
-1.115, 6.322e-6
-1.116, 6.322e-6
-1.117, 6.322e-6
-1.118, 6.322e-6
-1.119, 6.322e-6
-1.120, 6.322e-6
-1.121, 6.322e-6
-1.122, 6.322e-6
-1.123, 6.322e-6
-1.124, 6.322e-6
-1.125, 6.322e-6
-1.126, 6.322e-6
-1.127, 6.322e-6
-1.128, 6.322e-6
-1.129, 6.322e-6
-1.130, 6.322e-6
-1.131, 6.322e-6
-1.132, 6.322e-6
-1.133, 6.322e-6
-1.134, 6.322e-6
-1.135, 6.322e-6
-1.136, 6.322e-6
-1.137, 6.322e-6
-1.138, 6.322e-6
-1.139, 6.322e-6
-1.140, 6.322e-6
-1.141, 6.322e-6
-1.142, 6.322e-6
-1.143, 6.322e-6
-1.144, 6.322e-6
-1.145, 6.322e-6
-1.146, 6.322e-6
-1.147, 6.322e-6
-1.148, 6.322e-6
-1.149, 6.322e-6
-1.150, 6.322e-6
-1.151, 6.322e-6
-1.152, 6.322e-6
-1.153, 6.322e-6
-1.154, 6.322e-6
-1.155, 6.322e-6
-1.156, 6.322e-6
-1.157, 6.322e-6
-1.158, 6.322e-6
-1.159, 6.322e-6
-1.160, 6.322e-6
-1.161, 6.322e-6
-1.162, 6.322e-6
-1.163, 6.322e-6
-1.164, 6.322e-6
-1.165, 6.322e-6
-1.166, 6.322e-6
-1.167, 6.322e-6
-1.168, 6.322e-6
-1.169, 6.322e-6
-1.170, 6.322e-6
-1.171, 6.322e-6
-1.172, 6.322e-6
-1.173, 6.322e-6
-1.174, 6.322e-6
-1.175, 6.322e-6
-1.176, 6.322e-6
-1.177, 6.322e-6
-1.178, 6.322e-6
-1.179, 6.322e-6
-1.180, 6.322e-6
-1.181, 6.322e-6
-1.182, 6.322e-6
-1.183, 6.322e-6
-1.184, 9.405e-6
-1.185, 6.322e-6
-1.186, 6.322e-6
-1.187, 6.322e-6
-1.188, 6.322e-6
-1.189, 9.405e-6
-1.190, 6.322e-6
-1.191, 9.405e-6
-1.192, 6.322e-6
-1.193, 9.405e-6
-1.194, 6.322e-6
-1.195, 9.405e-6
-1.196, 6.322e-6
-1.197, 9.405e-6
-1.198, 9.405e-6
-1.199, 9.405e-6
-1.200, 9.405e-6
-1.201, 6.322e-6
-1.202, 9.405e-6
-1.203, 6.322e-6
-1.204, 9.405e-6
-1.205, 9.405e-6
-1.206, 9.405e-6
-1.207, 9.405e-6
-1.208, 6.322e-6
-1.209, 9.405e-6
-1.210, 9.405e-6
-1.211, 9.405e-6
-1.212, 9.405e-6
-1.213, 9.405e-6
-1.214, 6.322e-6
-1.215, 9.405e-6
-1.216, 6.322e-6
-1.217, 6.322e-6
-1.218, 9.405e-6
-1.219, 9.405e-6
-1.220, 9.405e-6
-1.221, 9.405e-6
-1.222, 9.405e-6
-1.223, 6.322e-6
-1.224, 9.405e-6
-1.225, 9.405e-6
-1.226, 9.405e-6
-1.227, 9.405e-6
-1.228, 9.405e-6
-1.229, 9.405e-6
-1.230, 9.405e-6
-1.231, 6.322e-6
-1.232, 9.405e-6
-1.233, 9.405e-6
-1.234, 9.405e-6
-1.235, 9.405e-6
-1.236, 9.405e-6
-1.237, 9.405e-6
-1.238, 9.405e-6
-1.239, 9.405e-6
-1.240, 9.405e-6
-1.241, 9.405e-6
-1.242, 9.405e-6
-1.243, 9.405e-6
-1.244, 9.405e-6
-1.245, 9.405e-6
-1.246, 9.405e-6
-1.247, 9.405e-6
-1.248, 9.405e-6
-1.249, 9.405e-6
-1.250, 9.405e-6
-1.251, 9.405e-6
-1.252, 9.405e-6
-1.253, 9.405e-6
-1.254, 9.405e-6
-1.255, 9.405e-6
-1.256, 9.405e-6
-1.257, 9.405e-6
-1.258, 9.405e-6
-1.259, 9.405e-6
-1.260, 9.405e-6
-1.261, 9.405e-6
-1.262, 9.405e-6
-1.263, 9.405e-6
-1.264, 9.405e-6
-1.265, 9.405e-6
-1.266, 9.405e-6
-1.267, 9.405e-6
-1.268, 9.405e-6
-1.269, 9.405e-6
-1.270, 9.405e-6
-1.271, 9.405e-6
-1.272, 9.405e-6
-1.273, 9.405e-6
-1.274, 9.405e-6
-1.275, 9.405e-6
-1.276, 9.405e-6
-1.277, 9.405e-6
-1.278, 9.405e-6
-1.279, 9.405e-6
-1.280, 9.405e-6
-1.281, 9.405e-6
-1.282, 9.405e-6
-1.283, 9.405e-6
-1.284, 9.405e-6
-1.285, 9.405e-6
-1.286, 9.405e-6
-1.287, 9.405e-6
-1.288, 9.405e-6
-1.289, 9.405e-6
-1.290, 9.405e-6
-1.291, 9.405e-6
-1.292, 9.405e-6
-1.293, 9.405e-6
-1.294, 9.405e-6
-1.295, 9.405e-6
-1.296, 9.405e-6
-1.297, 9.405e-6
-1.298, 9.405e-6
-1.299, 9.405e-6
-1.300, 1.249e-5
-1.301, 9.405e-6
-1.302, 9.405e-6
-1.303, 9.405e-6
-1.304, 9.405e-6
-1.305, 1.249e-5
-1.306, 9.405e-6
-1.307, 1.249e-5
-1.308, 9.405e-6
-1.309, 9.405e-6
-1.310, 9.405e-6
-1.311, 9.405e-6
-1.312, 9.405e-6
-1.313, 9.405e-6
-1.314, 1.249e-5
-1.315, 1.249e-5
-1.316, 1.249e-5
-1.317, 9.405e-6
-1.318, 9.405e-6
-1.319, 1.249e-5
-1.320, 1.249e-5
-1.321, 9.405e-6
-1.322, 9.405e-6
-1.323, 1.249e-5
-1.324, 9.405e-6
-1.325, 1.249e-5
-1.326, 9.405e-6
-1.327, 1.249e-5
-1.328, 1.249e-5
-1.329, 9.405e-6
-1.330, 1.249e-5
-1.331, 1.249e-5
-1.332, 1.249e-5
-1.333, 9.405e-6
-1.334, 1.249e-5
-1.335, 1.249e-5
-1.336, 9.405e-6
-1.337, 1.249e-5
-1.338, 9.405e-6
-1.339, 1.249e-5
-1.340, 1.249e-5
-1.341, 1.249e-5
-1.342, 1.249e-5
-1.343, 1.249e-5
-1.344, 1.249e-5
-1.345, 1.249e-5
-1.346, 1.249e-5
-1.347, 9.405e-6
-1.348, 1.249e-5
-1.349, 1.249e-5
-1.350, 9.405e-6
-1.351, 1.249e-5
-1.352, 9.405e-6
-1.353, 1.249e-5
-1.354, 1.249e-5
-1.355, 1.249e-5
-1.356, 1.249e-5
-1.357, 1.249e-5
-1.358, 1.249e-5
-1.359, 1.249e-5
-1.360, 1.249e-5
-1.361, 9.405e-6
-1.362, 1.249e-5
-1.363, 9.405e-6
-1.364, 1.249e-5
-1.365, 1.249e-5
-1.366, 1.249e-5
-1.367, 1.249e-5
-1.368, 1.249e-5
-1.369, 1.249e-5
-1.370, 1.249e-5
-1.371, 1.249e-5
-1.372, 1.249e-5
-1.373, 1.249e-5
-1.374, 1.249e-5
-1.375, 1.249e-5
-1.376, 1.249e-5
-1.377, 1.249e-5
-1.378, 1.249e-5
-1.379, 1.249e-5
-1.380, 1.249e-5
-1.381, 1.249e-5
-1.382, 1.249e-5
-1.383, 1.249e-5
-1.384, 1.249e-5
-1.385, 1.249e-5
-1.386, 1.249e-5
-1.387, 1.249e-5
-1.388, 1.249e-5
-1.389, 1.249e-5
-1.390, 1.249e-5
-1.391, 1.249e-5
-1.392, 1.249e-5
-1.393, 1.249e-5
-1.394, 1.249e-5
-1.395, 1.249e-5
-1.396, 1.249e-5
-1.397, 1.249e-5
-1.398, 1.249e-5
-1.399, 1.249e-5
-1.400, 1.249e-5
-1.401, 1.249e-5
-1.402, 1.249e-5
-1.403, 1.249e-5
-1.404, 1.249e-5
-1.405, 1.249e-5
-1.406, 1.249e-5
-1.407, 1.249e-5
-1.408, 1.249e-5
-1.409, 1.249e-5
-1.410, 1.249e-5
-1.411, 1.249e-5
-1.412, 1.249e-5
-1.413, 1.249e-5
-1.414, 1.249e-5
-1.415, 1.249e-5
-1.416, 1.249e-5
-1.417, 1.249e-5
-1.418, 1.249e-5
-1.419, 1.249e-5
-1.420, 1.249e-5
-1.421, 1.249e-5
-1.422, 1.249e-5
-1.423, 1.249e-5
-1.424, 1.557e-5
-1.425, 1.249e-5
-1.426, 1.249e-5
-1.427, 1.249e-5
-1.428, 1.249e-5
-1.429, 1.249e-5
-1.430, 1.249e-5
-1.431, 1.249e-5
-1.432, 1.249e-5
-1.433, 1.249e-5
-1.434, 1.249e-5
-1.435, 1.557e-5
-1.436, 1.249e-5
-1.437, 1.249e-5
-1.438, 1.249e-5
-1.439, 1.249e-5
-1.440, 1.249e-5
-1.441, 1.249e-5
-1.442, 1.249e-5
-1.443, 1.557e-5
-1.444, 1.249e-5
-1.445, 1.249e-5
-1.446, 1.557e-5
-1.447, 1.249e-5
-1.448, 1.249e-5
-1.449, 1.557e-5
-1.450, 1.249e-5
-1.451, 1.557e-5
-1.452, 1.249e-5
-1.453, 1.249e-5
-1.454, 1.557e-5
-1.455, 1.557e-5
-1.456, 1.249e-5
-1.457, 1.249e-5
-1.458, 1.557e-5
-1.459, 1.249e-5
-1.460, 1.557e-5
-1.461, 1.249e-5
-1.462, 1.557e-5
-1.463, 1.249e-5
-1.464, 1.557e-5
-1.465, 1.557e-5
-1.466, 1.557e-5
-1.467, 1.249e-5
-1.468, 1.557e-5
-1.469, 1.557e-5
-1.470, 1.557e-5
-1.471, 1.557e-5
-1.472, 1.557e-5
-1.473, 1.557e-5
-1.474, 1.557e-5
-1.475, 1.249e-5
-1.476, 1.557e-5
-1.477, 1.557e-5
-1.478, 1.557e-5
-1.479, 1.557e-5
-1.480, 1.557e-5
-1.481, 1.557e-5
-1.482, 1.557e-5
-1.483, 1.557e-5
-1.484, 1.557e-5
-1.485, 1.557e-5
-1.486, 1.557e-5
-1.487, 1.249e-5
-1.488, 1.557e-5
-1.489, 1.557e-5
-1.490, 1.557e-5
-1.491, 1.557e-5
-1.492, 1.557e-5
-1.493, 1.557e-5
-1.494, 1.557e-5
-1.495, 1.557e-5
-1.496, 1.557e-5
-1.497, 1.557e-5
-1.498, 1.557e-5
-1.499, 1.557e-5
-1.500, 1.557e-5
-1.501, 1.557e-5
-1.502, 1.557e-5
-1.503, 1.557e-5
-1.504, 1.557e-5
-1.505, 1.557e-5
-1.506, 1.557e-5
-1.507, 1.557e-5
-1.508, 1.557e-5
-1.509, 1.557e-5
-1.510, 1.557e-5
-1.511, 1.557e-5
-1.512, 1.557e-5
-1.513, 1.557e-5
-1.514, 1.557e-5
-1.515, 1.557e-5
-1.516, 1.557e-5
-1.517, 1.557e-5
-1.518, 1.557e-5
-1.519, 1.557e-5
-1.520, 1.557e-5
-1.521, 1.557e-5
-1.522, 1.557e-5
-1.523, 1.557e-5
-1.524, 1.557e-5
-1.525, 1.557e-5
-1.526, 1.557e-5
-1.527, 1.557e-5
-1.528, 1.557e-5
-1.529, 1.557e-5
-1.530, 1.557e-5
-1.531, 1.557e-5
-1.532, 1.557e-5
-1.533, 1.557e-5
-1.534, 1.557e-5
-1.535, 1.557e-5
-1.536, 1.557e-5
-1.537, 1.557e-5
-1.538, 1.865e-5
-1.539, 1.557e-5
-1.540, 1.557e-5
-1.541, 1.557e-5
-1.542, 1.557e-5
-1.543, 1.557e-5
-1.544, 1.557e-5
-1.545, 1.557e-5
-1.546, 1.557e-5
-1.547, 1.557e-5
-1.548, 1.557e-5
-1.549, 1.557e-5
-1.550, 1.557e-5
-1.551, 1.557e-5
-1.552, 1.865e-5
-1.553, 1.557e-5
-1.554, 1.557e-5
-1.555, 1.557e-5
-1.556, 1.557e-5
-1.557, 1.557e-5
-1.558, 1.557e-5
-1.559, 1.865e-5
-1.560, 1.557e-5
-1.561, 1.865e-5
-1.562, 1.557e-5
-1.563, 1.865e-5
-1.564, 1.557e-5
-1.565, 1.557e-5
-1.566, 1.557e-5
-1.567, 1.865e-5
-1.568, 1.557e-5
-1.569, 1.557e-5
-1.570, 1.865e-5
-1.571, 1.865e-5
-1.572, 1.557e-5
-1.573, 1.557e-5
-1.574, 1.865e-5
-1.575, 1.865e-5
-1.576, 1.557e-5
-1.577, 1.865e-5
-1.578, 1.865e-5
-1.579, 1.865e-5
-1.580, 1.865e-5
-1.581, 1.865e-5
-1.582, 1.865e-5
-1.583, 1.557e-5
-1.584, 1.865e-5
-1.585, 1.865e-5
-1.586, 1.865e-5
-1.587, 1.865e-5
-1.588, 1.865e-5
-1.589, 1.865e-5
-1.590, 1.865e-5
-1.591, 1.865e-5
-1.592, 1.865e-5
-1.593, 1.865e-5
-1.594, 1.865e-5
-1.595, 1.865e-5
-1.596, 1.865e-5
-1.597, 1.865e-5
-1.598, 1.865e-5
-1.599, 1.865e-5
-1.600, 1.865e-5
-1.601, 1.865e-5
-1.602, 1.865e-5
-1.603, 1.865e-5
-1.604, 1.865e-5
-1.605, 1.865e-5
-1.606, 1.865e-5
-1.607, 1.865e-5
-1.608, 1.865e-5
-1.609, 1.865e-5
-1.610, 1.865e-5
-1.611, 1.865e-5
-1.612, 1.865e-5
-1.613, 1.865e-5
-1.614, 1.865e-5
-1.615, 1.865e-5
-1.616, 1.865e-5
-1.617, 1.865e-5
-1.618, 1.865e-5
-1.619, 2.174e-5
-1.620, 1.865e-5
-1.621, 1.865e-5
-1.622, 1.865e-5
-1.623, 1.865e-5
-1.624, 1.865e-5
-1.625, 1.865e-5
-1.626, 1.865e-5
-1.627, 1.865e-5
-1.628, 1.865e-5
-1.629, 1.865e-5
-1.630, 1.865e-5
-1.631, 1.865e-5
-1.632, 2.174e-5
-1.633, 1.865e-5
-1.634, 2.174e-5
-1.635, 1.865e-5
-1.636, 1.865e-5
-1.637, 1.865e-5
-1.638, 1.865e-5
-1.639, 2.174e-5
-1.640, 1.865e-5
-1.641, 1.865e-5
-1.642, 2.174e-5
-1.643, 2.174e-5
-1.644, 2.174e-5
-1.645, 2.174e-5
-1.646, 2.174e-5
-1.647, 1.865e-5
-1.648, 2.174e-5
-1.649, 2.174e-5
-1.650, 2.174e-5
-1.651, 2.174e-5
-1.652, 1.865e-5
-1.653, 2.174e-5
-1.654, 2.174e-5
-1.655, 2.174e-5
-1.656, 2.174e-5
-1.657, 2.174e-5
-1.658, 2.174e-5
-1.659, 2.174e-5
-1.660, 2.174e-5
-1.661, 2.174e-5
-1.662, 2.174e-5
-1.663, 2.174e-5
-1.664, 2.174e-5
-1.665, 2.174e-5
-1.666, 2.174e-5
-1.667, 2.174e-5
-1.668, 2.174e-5
-1.669, 2.174e-5
-1.670, 2.174e-5
-1.671, 2.174e-5
-1.672, 2.174e-5
-1.673, 2.482e-5
-1.674, 2.174e-5
-1.675, 2.174e-5
-1.676, 2.174e-5
-1.677, 2.174e-5
-1.678, 2.174e-5
-1.679, 2.174e-5
-1.680, 2.482e-5
-1.681, 2.174e-5
-1.682, 2.482e-5
-1.683, 2.174e-5
-1.684, 2.174e-5
-1.685, 2.482e-5
-1.686, 2.174e-5
-1.687, 2.482e-5
-1.688, 2.482e-5
-1.689, 2.482e-5
-1.690, 2.174e-5
-1.691, 2.482e-5
-1.692, 2.174e-5
-1.693, 2.482e-5
-1.694, 2.482e-5
-1.695, 2.482e-5
-1.696, 2.482e-5
-1.697, 2.482e-5
-1.698, 2.482e-5
-1.699, 2.482e-5
-1.700, 2.482e-5
-1.701, 2.482e-5
-1.702, 2.482e-5
-1.703, 2.482e-5
-1.704, 2.482e-5
-1.705, 2.482e-5
-1.706, 2.482e-5
-1.707, 2.482e-5
-1.708, 2.482e-5
-1.709, 2.482e-5
-1.710, 2.482e-5
-1.711, 2.482e-5
-1.712, 2.790e-5
-1.713, 2.482e-5
-1.714, 2.482e-5
-1.715, 2.482e-5
-1.716, 2.482e-5
-1.717, 2.790e-5
-1.718, 2.482e-5
-1.719, 2.790e-5
-1.720, 2.482e-5
-1.721, 2.790e-5
-1.722, 2.790e-5
-1.723, 2.790e-5
-1.724, 2.790e-5
-1.725, 2.790e-5
-1.726, 2.790e-5
-1.727, 2.790e-5
-1.728, 2.790e-5
-1.729, 2.790e-5
-1.730, 2.790e-5
-1.731, 2.790e-5
-1.732, 2.790e-5
-1.733, 2.790e-5
-1.734, 2.790e-5
-1.735, 2.790e-5
-1.736, 2.790e-5
-1.737, 2.790e-5
-1.738, 2.790e-5
-1.739, 2.790e-5
-1.740, 3.099e-5
-1.741, 2.790e-5
-1.742, 3.099e-5
-1.743, 3.099e-5
-1.744, 3.099e-5
-1.745, 3.099e-5
-1.746, 3.099e-5
-1.747, 3.099e-5
-1.748, 3.099e-5
-1.749, 3.099e-5
-1.750, 3.099e-5
-1.751, 3.099e-5
-1.752, 3.099e-5
-1.753, 3.099e-5
-1.754, 3.099e-5
-1.755, 3.099e-5
-1.756, 3.099e-5
-1.757, 3.099e-5
-1.758, 3.099e-5
-1.759, 3.099e-5
-1.760, 3.099e-5
-1.761, 3.099e-5
-1.762, 3.407e-5
-1.763, 3.407e-5
-1.764, 3.407e-5
-1.765, 3.407e-5
-1.766, 3.407e-5
-1.767, 3.407e-5
-1.768, 3.407e-5
-1.769, 3.407e-5
-1.770, 3.407e-5
-1.771, 3.407e-5
-1.772, 3.407e-5
-1.773, 3.407e-5
-1.774, 3.407e-5
-1.775, 3.407e-5
-1.776, 3.715e-5
-1.777, 3.715e-5
-1.778, 3.715e-5
-1.779, 3.715e-5
-1.780, 3.715e-5
-1.781, 3.715e-5
-1.782, 3.715e-5
-1.783, 3.715e-5
-1.784, 3.715e-5
-1.785, 4.024e-5
-1.786, 3.715e-5
-1.787, 4.024e-5
-1.788, 4.024e-5
-1.789, 4.024e-5
-1.790, 4.024e-5
-1.791, 4.024e-5
-1.792, 4.024e-5
-1.793, 4.024e-5
-1.794, 4.024e-5
-1.795, 4.024e-5
-1.796, 4.024e-5
-1.797, 4.024e-5
-1.798, 4.332e-5
-1.799, 4.332e-5
-1.800, 4.332e-5
-1.801, 4.332e-5
-1.802, 4.332e-5
-1.803, 4.332e-5
-1.804, 4.332e-5
-1.805, 4.332e-5
-1.806, 4.640e-5
-1.807, 4.332e-5
-1.808, 4.640e-5
-1.809, 4.640e-5
-1.810, 4.640e-5
-1.811, 4.640e-5
-1.812, 4.949e-5
-1.813, 4.640e-5
-1.814, 4.949e-5
-1.815, 4.949e-5
-1.816, 4.949e-5
-1.817, 4.949e-5
-1.818, 4.949e-5
-1.819, 4.949e-5
-1.820, 4.949e-5
-1.821, 4.949e-5
-1.822, 5.257e-5
-1.823, 5.257e-5
-1.824, 5.257e-5
-1.825, 5.257e-5
-1.826, 5.257e-5
-1.827, 5.257e-5
-1.828, 5.257e-5
-1.829, 5.565e-5
-1.830, 5.565e-5
-1.831, 5.565e-5
-1.832, 5.565e-5
-1.833, 5.873e-5
-1.834, 5.565e-5
-1.835, 5.873e-5
-1.836, 5.873e-5
-1.837, 5.873e-5
-1.838, 5.873e-5
-1.839, 5.873e-5
-1.840, 6.182e-5
-1.841, 6.182e-5
-1.842, 6.182e-5
-1.843, 6.182e-5
-1.844, 6.490e-5
-1.845, 6.490e-5
-1.846, 6.490e-5
-1.847, 6.490e-5
-1.848, 6.490e-5
-1.849, 6.490e-5
-1.850, 6.798e-5
-1.851, 6.798e-5
-1.852, 6.798e-5
-1.853, 6.798e-5
-1.854, 7.107e-5
-1.855, 7.107e-5
-1.856, 7.107e-5
-1.857, 7.415e-5
-1.858, 7.415e-5
-1.859, 7.415e-5
-1.860, 7.415e-5
-1.861, 7.723e-5
-1.862, 7.723e-5
-1.863, 7.723e-5
-1.864, 7.723e-5
-1.865, 8.032e-5
-1.866, 8.032e-5
-1.867, 8.032e-5
-1.868, 8.340e-5
-1.869, 8.340e-5
-1.870, 8.340e-5
-1.871, 8.340e-5
-1.872, 8.648e-5
-1.873, 8.648e-5
-1.874, 8.957e-5
-1.875, 8.957e-5
-1.876, 8.957e-5
-1.877, 9.265e-5
-1.878, 9.265e-5
-1.879, 9.265e-5
-1.880, 9.573e-5
-1.881, 9.573e-5
-1.882, 9.573e-5
-1.883, 9.882e-5
-1.884, 9.882e-5
-1.885, 1.019e-4
-1.886, 1.019e-4
-1.887, 1.019e-4
-1.888, 1.050e-4
-1.889, 1.050e-4
-1.890, 1.081e-4
-1.891, 1.081e-4
-1.892, 1.081e-4
-1.893, 1.111e-4
-1.894, 1.111e-4
-1.895, 1.142e-4
-1.896, 1.142e-4
-1.897, 1.173e-4
-1.898, 1.173e-4
-1.899, 1.173e-4
-1.900, 1.204e-4
-1.901, 1.204e-4
-1.902, 1.235e-4
-1.903, 1.266e-4
-1.904, 1.266e-4
-1.905, 1.296e-4
-1.906, 1.296e-4
-1.907, 1.327e-4
-1.908, 1.358e-4
-1.909, 1.358e-4
-1.910, 1.389e-4
-1.911, 1.389e-4
-1.912, 1.420e-4
-1.913, 1.420e-4
-1.914, 1.451e-4
-1.915, 1.451e-4
-1.916, 1.481e-4
-1.917, 1.481e-4
-1.918, 1.512e-4
-1.919, 1.543e-4
-1.920, 1.574e-4
-1.921, 1.574e-4
-1.922, 1.605e-4
-1.923, 1.636e-4
-1.924, 1.636e-4
-1.925, 1.666e-4
-1.926, 1.697e-4
-1.927, 1.697e-4
-1.928, 1.728e-4
-1.929, 1.759e-4
-1.930, 1.759e-4
-1.931, 1.790e-4
-1.932, 1.821e-4
-1.933, 1.851e-4
-1.934, 1.882e-4
-1.935, 1.913e-4
-1.936, 1.913e-4
-1.937, 1.944e-4
-1.938, 1.975e-4
-1.939, 1.975e-4
-1.940, 2.006e-4
-1.941, 2.036e-4
-1.942, 2.067e-4
-1.943, 2.098e-4
-1.944, 2.129e-4
-1.945, 2.129e-4
-1.946, 2.191e-4
-1.947, 2.191e-4
-1.948, 2.221e-4
-1.949, 2.252e-4
-1.950, 2.314e-4
-1.951, 2.314e-4
-1.952, 2.345e-4
-1.953, 2.376e-4
-1.954, 2.437e-4
-1.955, 2.437e-4
-1.956, 2.468e-4
-1.957, 2.499e-4
-1.958, 2.530e-4
-1.959, 2.561e-4
-1.960, 2.591e-4
-1.961, 2.653e-4
-1.962, 2.684e-4
-1.963, 2.715e-4
-1.964, 2.746e-4
-1.965, 2.776e-4
-1.966, 2.838e-4
-1.967, 2.869e-4
-1.968, 2.900e-4
-1.969, 2.931e-4
-1.970, 2.961e-4
-1.971, 2.992e-4
-1.972, 3.054e-4
-1.973, 3.085e-4
-1.974, 3.115e-4
-1.975, 3.177e-4
-1.976, 3.208e-4
-1.977, 3.239e-4
-1.978, 3.270e-4
-1.979, 3.331e-4
-1.980, 3.393e-4
-1.981, 3.424e-4
-1.982, 3.455e-4
-1.983, 3.516e-4
-1.984, 3.547e-4
-1.985, 3.609e-4
-1.986, 3.640e-4
-1.987, 3.701e-4
-1.988, 3.732e-4
-1.989, 3.794e-4
-1.990, 3.825e-4
-1.991, 3.886e-4
-1.992, 3.948e-4
-1.993, 3.979e-4
-1.994, 4.040e-4
-1.995, 4.102e-4
-1.996, 4.133e-4
-1.997, 4.195e-4
-1.998, 4.256e-4
-1.999, 4.287e-4
-2.000, 4.349e-4
-2.001, 4.410e-4
-2.002, 4.472e-4
-2.003, 4.503e-4
-2.004, 4.565e-4
-2.005, 4.626e-4
-2.006, 4.688e-4
-2.007, 4.750e-4
-2.008, 4.811e-4
-2.009, 4.873e-4
-2.010, 4.935e-4
-2.011, 4.996e-4
-2.012, 5.058e-4
-2.013, 5.120e-4
-2.014, 5.181e-4
-2.015, 5.243e-4
-2.016, 5.305e-4
-2.017, 5.366e-4
-2.018, 5.459e-4
-2.019, 5.520e-4
-2.020, 5.582e-4
-2.021, 5.644e-4
-2.022, 5.705e-4
-2.023, 5.798e-4
-2.024, 5.859e-4
-2.025, 5.921e-4
-2.026, 6.014e-4
-2.027, 6.075e-4
-2.028, 6.137e-4
-2.029, 6.199e-4
-2.030, 6.291e-4
-2.031, 6.353e-4
-2.032, 6.445e-4
-2.033, 6.507e-4
-2.034, 6.599e-4
-2.035, 6.661e-4
-2.036, 6.754e-4
-2.037, 6.846e-4
-2.038, 6.908e-4
-2.039, 7.000e-4
-2.040, 7.093e-4
-2.041, 7.185e-4
-2.042, 7.278e-4
-2.043, 7.339e-4
-2.044, 7.432e-4
-2.045, 7.494e-4
-2.046, 7.586e-4
-2.047, 7.709e-4
-2.048, 7.771e-4
-2.049, 7.863e-4
-2.050, 7.956e-4
-2.051, 8.048e-4
-2.052, 8.141e-4
-2.053, 8.264e-4
-2.054, 8.357e-4
-2.055, 8.449e-4
-2.056, 8.542e-4
-2.057, 8.634e-4
-2.058, 8.727e-4
-2.059, 8.819e-4
-2.060, 8.912e-4
-2.061, 9.035e-4
-2.062, 9.128e-4
-2.063, 9.220e-4
-2.064, 9.343e-4
-2.065, 9.436e-4
-2.066, 9.528e-4
-2.067, 9.652e-4
-2.068, 9.744e-4
-2.069, 9.868e-4
-2.070, 9.960e-4
-2.071, 1.008e-3
-2.072, 1.018e-3
-2.073, 1.030e-3
-2.074, 1.039e-3
-2.075, 1.051e-3
-2.076, 1.064e-3
-2.077, 1.073e-3
-2.078, 1.085e-3
-2.079, 1.098e-3
-2.080, 1.110e-3
-2.081, 1.122e-3
-2.082, 1.132e-3
-2.083, 1.144e-3
-2.084, 1.156e-3
-2.085, 1.169e-3
-2.086, 1.181e-3
-2.087, 1.193e-3
-2.088, 1.206e-3
-2.089, 1.218e-3
-2.090, 1.230e-3
-2.091, 1.243e-3
-2.092, 1.255e-3
-2.093, 1.267e-3
-2.094, 1.280e-3
-2.095, 1.292e-3
-2.096, 1.307e-3
-2.097, 1.320e-3
-2.098, 1.332e-3
-2.099, 1.347e-3
-2.100, 1.360e-3
-2.101, 1.375e-3
-2.102, 1.388e-3
-2.103, 1.403e-3
-2.104, 1.415e-3
-2.105, 1.428e-3
-2.106, 1.443e-3
-2.107, 1.455e-3
-2.108, 1.471e-3
-2.109, 1.483e-3
-2.110, 1.499e-3
-2.111, 1.514e-3
-2.112, 1.526e-3
-2.113, 1.542e-3
-2.114, 1.557e-3
-2.115, 1.573e-3
-2.116, 1.588e-3
-2.117, 1.603e-3
-2.118, 1.619e-3
-2.119, 1.634e-3
-2.120, 1.650e-3
-2.121, 1.665e-3
-2.122, 1.680e-3
-2.123, 1.693e-3
-2.124, 1.711e-3
-2.125, 1.727e-3
-2.126, 1.742e-3
-2.127, 1.758e-3
-2.128, 1.773e-3
-2.129, 1.791e-3
-2.130, 1.807e-3
-2.131, 1.825e-3
-2.132, 1.841e-3
-2.133, 1.856e-3
-2.134, 1.872e-3
-2.135, 1.890e-3
-2.136, 1.906e-3
-2.137, 1.924e-3
-2.138, 1.939e-3
-2.139, 1.955e-3
-2.140, 1.973e-3
-2.141, 1.992e-3
-2.142, 2.007e-3
-2.143, 2.026e-3
-2.144, 2.044e-3
-2.145, 2.063e-3
-2.146, 2.081e-3
-2.147, 2.097e-3
-2.148, 2.115e-3
-2.149, 2.134e-3
-2.150, 2.152e-3
-2.151, 2.171e-3
-2.152, 2.189e-3
-2.153, 2.205e-3
-2.154, 2.226e-3
-2.155, 2.242e-3
-2.156, 2.260e-3
-2.157, 2.282e-3
-2.158, 2.300e-3
-2.159, 2.319e-3
-2.160, 2.337e-3
-2.161, 2.359e-3
-2.162, 2.377e-3
-2.163, 2.396e-3
-2.164, 2.417e-3
-2.165, 2.436e-3
-2.166, 2.454e-3
-2.167, 2.476e-3
-2.168, 2.494e-3
-2.169, 2.516e-3
-2.170, 2.534e-3
-2.171, 2.556e-3
-2.172, 2.575e-3
-2.173, 2.596e-3
-2.174, 2.618e-3
-2.175, 2.639e-3
-2.176, 2.661e-3
-2.177, 2.682e-3
-2.178, 2.701e-3
-2.179, 2.723e-3
-2.180, 2.744e-3
-2.181, 2.766e-3
-2.182, 2.784e-3
-2.183, 2.806e-3
-2.184, 2.824e-3
-2.185, 2.849e-3
-2.186, 2.871e-3
-2.187, 2.892e-3
-2.188, 2.917e-3
-2.189, 2.938e-3
-2.190, 2.963e-3
-2.191, 2.985e-3
-2.192, 3.006e-3
-2.193, 3.028e-3
-2.194, 3.049e-3
-2.195, 3.074e-3
-2.196, 3.096e-3
-2.197, 3.120e-3
-2.198, 3.142e-3
-2.199, 3.167e-3
-2.200, 3.188e-3
-2.201, 3.213e-3
-2.202, 3.237e-3
-2.203, 3.262e-3
-2.204, 3.287e-3
-2.205, 3.311e-3
-2.206, 3.336e-3
-2.207, 3.358e-3
-2.208, 3.382e-3
-2.209, 3.407e-3
-2.210, 3.432e-3
-2.211, 3.456e-3
-2.212, 3.478e-3
-2.213, 3.506e-3
-2.214, 3.527e-3
-2.215, 3.552e-3
-2.216, 3.580e-3
-2.217, 3.604e-3
-2.218, 3.629e-3
-2.219, 3.657e-3
-2.220, 3.681e-3
-2.221, 3.709e-3
-2.222, 3.737e-3
-2.223, 3.762e-3
-2.224, 3.786e-3
-2.225, 3.814e-3
-2.226, 3.839e-3
-2.227, 3.866e-3
-2.228, 3.891e-3
-2.229, 3.919e-3
-2.230, 3.943e-3
-2.231, 3.971e-3
-2.232, 3.999e-3
-2.233, 4.027e-3
-2.234, 4.054e-3
-2.235, 4.082e-3
-2.236, 4.113e-3
-2.237, 4.141e-3
-2.238, 4.169e-3
-2.239, 4.196e-3
-2.240, 4.224e-3
-2.241, 4.252e-3
-2.242, 4.280e-3
-2.243, 4.307e-3
-2.244, 4.335e-3
-2.245, 4.363e-3
-2.246, 4.391e-3
-2.247, 4.421e-3
-2.248, 4.449e-3
-2.249, 4.480e-3
-2.250, 4.511e-3
-2.251, 4.542e-3
-2.252, 4.572e-3
-2.253, 4.603e-3
-2.254, 4.631e-3
-2.255, 4.659e-3
-2.256, 4.690e-3
-2.257, 4.720e-3
-2.258, 4.748e-3
-2.259, 4.779e-3
-2.260, 4.810e-3
-2.261, 4.841e-3
-2.262, 4.875e-3
-2.263, 4.905e-3
-2.264, 4.936e-3
-2.265, 4.967e-3
-2.266, 5.001e-3
-2.267, 5.032e-3
-2.268, 5.066e-3
-2.269, 5.097e-3
-2.270, 5.127e-3
-2.271, 5.158e-3
-2.272, 5.189e-3
-2.273, 5.223e-3
-2.274, 5.254e-3
-2.275, 5.288e-3
-2.276, 5.322e-3
-2.277, 5.356e-3
-2.278, 5.386e-3
-2.279, 5.420e-3
-2.280, 5.457e-3
-2.281, 5.488e-3
-2.282, 5.522e-3
-2.283, 5.556e-3
-2.284, 5.593e-3
-2.285, 5.624e-3
-2.286, 5.658e-3
-2.287, 5.692e-3
-2.288, 5.725e-3
-2.289, 5.759e-3
-2.290, 5.793e-3
-2.291, 5.830e-3
-2.292, 5.864e-3
-2.293, 5.901e-3
-2.294, 5.935e-3
-2.295, 5.972e-3
-2.296, 6.006e-3
-2.297, 6.043e-3
-2.298, 6.080e-3
-2.299, 6.117e-3
-2.300, 6.123e-3
-2.299, 6.089e-3
-2.298, 6.055e-3
-2.297, 6.021e-3
-2.296, 5.991e-3
-2.295, 5.960e-3
-2.294, 5.929e-3
-2.293, 5.898e-3
-2.292, 5.867e-3
-2.291, 5.836e-3
-2.290, 5.803e-3
-2.289, 5.775e-3
-2.288, 5.744e-3
-2.287, 5.710e-3
-2.286, 5.679e-3
-2.285, 5.645e-3
-2.284, 5.614e-3
-2.283, 5.584e-3
-2.282, 5.550e-3
-2.281, 5.519e-3
-2.280, 5.488e-3
-2.279, 5.457e-3
-2.278, 5.423e-3
-2.277, 5.396e-3
-2.276, 5.365e-3
-2.275, 5.337e-3
-2.274, 5.306e-3
-2.273, 5.275e-3
-2.272, 5.245e-3
-2.271, 5.211e-3
-2.270, 5.183e-3
-2.269, 5.152e-3
-2.268, 5.121e-3
-2.267, 5.090e-3
-2.266, 5.060e-3
-2.265, 5.029e-3
-2.264, 4.998e-3
-2.263, 4.970e-3
-2.262, 4.939e-3
-2.261, 4.912e-3
-2.260, 4.881e-3
-2.259, 4.853e-3
-2.258, 4.822e-3
-2.257, 4.794e-3
-2.256, 4.764e-3
-2.255, 4.733e-3
-2.254, 4.705e-3
-2.253, 4.674e-3
-2.252, 4.643e-3
-2.251, 4.612e-3
-2.250, 4.585e-3
-2.249, 4.557e-3
-2.248, 4.529e-3
-2.247, 4.501e-3
-2.246, 4.474e-3
-2.245, 4.446e-3
-2.244, 4.418e-3
-2.243, 4.391e-3
-2.242, 4.363e-3
-2.241, 4.335e-3
-2.240, 4.307e-3
-2.239, 4.280e-3
-2.238, 4.249e-3
-2.237, 4.221e-3
-2.236, 4.193e-3
-2.235, 4.165e-3
-2.234, 4.141e-3
-2.233, 4.113e-3
-2.232, 4.085e-3
-2.231, 4.061e-3
-2.230, 4.033e-3
-2.229, 4.005e-3
-2.228, 3.980e-3
-2.227, 3.953e-3
-2.226, 3.925e-3
-2.225, 3.897e-3
-2.224, 3.873e-3
-2.223, 3.845e-3
-2.222, 3.820e-3
-2.221, 3.792e-3
-2.220, 3.765e-3
-2.219, 3.740e-3
-2.218, 3.715e-3
-2.217, 3.688e-3
-2.216, 3.663e-3
-2.215, 3.641e-3
-2.214, 3.614e-3
-2.213, 3.589e-3
-2.212, 3.564e-3
-2.211, 3.536e-3
-2.210, 3.512e-3
-2.209, 3.487e-3
-2.208, 3.462e-3
-2.207, 3.435e-3
-2.206, 3.413e-3
-2.205, 3.388e-3
-2.204, 3.364e-3
-2.203, 3.339e-3
-2.202, 3.314e-3
-2.201, 3.293e-3
-2.200, 3.268e-3
-2.199, 3.244e-3
-2.198, 3.219e-3
-2.197, 3.197e-3
-2.196, 3.173e-3
-2.195, 3.148e-3
-2.194, 3.123e-3
-2.193, 3.099e-3
-2.192, 3.074e-3
-2.191, 3.052e-3
-2.190, 3.031e-3
-2.189, 3.006e-3
-2.188, 2.985e-3
-2.187, 2.963e-3
-2.186, 2.941e-3
-2.185, 2.917e-3
-2.184, 2.895e-3
-2.183, 2.874e-3
-2.182, 2.852e-3
-2.181, 2.827e-3
-2.180, 2.806e-3
-2.179, 2.784e-3
-2.178, 2.763e-3
-2.177, 2.741e-3
-2.176, 2.719e-3
-2.175, 2.698e-3
-2.174, 2.676e-3
-2.173, 2.655e-3
-2.172, 2.633e-3
-2.171, 2.615e-3
-2.170, 2.593e-3
-2.169, 2.575e-3
-2.168, 2.553e-3
-2.167, 2.531e-3
-2.166, 2.510e-3
-2.165, 2.491e-3
-2.164, 2.470e-3
-2.163, 2.448e-3
-2.162, 2.427e-3
-2.161, 2.405e-3
-2.160, 2.386e-3
-2.159, 2.365e-3
-2.158, 2.346e-3
-2.157, 2.328e-3
-2.156, 2.309e-3
-2.155, 2.291e-3
-2.154, 2.272e-3
-2.153, 2.251e-3
-2.152, 2.232e-3
-2.151, 2.214e-3
-2.150, 2.195e-3
-2.149, 2.177e-3
-2.148, 2.155e-3
-2.147, 2.137e-3
-2.146, 2.118e-3
-2.145, 2.100e-3
-2.144, 2.081e-3
-2.143, 2.063e-3
-2.142, 2.047e-3
-2.141, 2.029e-3
-2.140, 2.010e-3
-2.139, 1.995e-3
-2.138, 1.973e-3
-2.137, 1.958e-3
-2.136, 1.939e-3
-2.135, 1.921e-3
-2.134, 1.906e-3
-2.133, 1.887e-3
-2.132, 1.869e-3
-2.131, 1.853e-3
-2.130, 1.835e-3
-2.129, 1.816e-3
-2.128, 1.801e-3
-2.127, 1.785e-3
-2.126, 1.770e-3
-2.125, 1.754e-3
-2.124, 1.736e-3
-2.123, 1.721e-3
-2.122, 1.705e-3
-2.121, 1.690e-3
-2.120, 1.671e-3
-2.119, 1.659e-3
-2.118, 1.640e-3
-2.117, 1.625e-3
-2.116, 1.610e-3
-2.115, 1.594e-3
-2.114, 1.576e-3
-2.113, 1.563e-3
-2.112, 1.548e-3
-2.111, 1.532e-3
-2.110, 1.520e-3
-2.109, 1.505e-3
-2.108, 1.489e-3
-2.107, 1.474e-3
-2.106, 1.458e-3
-2.105, 1.446e-3
-2.104, 1.431e-3
-2.103, 1.418e-3
-2.102, 1.403e-3
-2.101, 1.388e-3
-2.100, 1.375e-3
-2.099, 1.360e-3
-2.098, 1.347e-3
-2.097, 1.332e-3
-2.096, 1.320e-3
-2.095, 1.307e-3
-2.094, 1.292e-3
-2.093, 1.283e-3
-2.092, 1.267e-3
-2.091, 1.255e-3
-2.090, 1.240e-3
-2.089, 1.227e-3
-2.088, 1.215e-3
-2.087, 1.206e-3
-2.086, 1.193e-3
-2.085, 1.181e-3
-2.084, 1.166e-3
-2.083, 1.153e-3
-2.082, 1.144e-3
-2.081, 1.132e-3
-2.080, 1.119e-3
-2.079, 1.110e-3
-2.078, 1.098e-3
-2.077, 1.085e-3
-2.076, 1.073e-3
-2.075, 1.061e-3
-2.074, 1.048e-3
-2.073, 1.039e-3
-2.072, 1.027e-3
-2.071, 1.014e-3
-2.070, 1.005e-3
-2.069, 9.960e-4
-2.068, 9.837e-4
-2.067, 9.744e-4
-2.066, 9.652e-4
-2.065, 9.528e-4
-2.064, 9.436e-4
-2.063, 9.313e-4
-2.062, 9.220e-4
-2.061, 9.128e-4
-2.060, 9.004e-4
-2.059, 8.912e-4
-2.058, 8.819e-4
-2.057, 8.727e-4
-2.056, 8.603e-4
-2.055, 8.542e-4
-2.054, 8.418e-4
-2.053, 8.326e-4
-2.052, 8.233e-4
-2.051, 8.141e-4
-2.050, 8.079e-4
-2.049, 7.956e-4
-2.048, 7.863e-4
-2.047, 7.802e-4
-2.046, 7.679e-4
-2.045, 7.617e-4
-2.044, 7.524e-4
-2.043, 7.432e-4
-2.042, 7.339e-4
-2.041, 7.278e-4
-2.040, 7.185e-4
-2.039, 7.124e-4
-2.038, 7.031e-4
-2.037, 6.939e-4
-2.036, 6.877e-4
-2.035, 6.784e-4
-2.034, 6.723e-4
-2.033, 6.630e-4
-2.032, 6.569e-4
-2.031, 6.476e-4
-2.030, 6.414e-4
-2.029, 6.322e-4
-2.028, 6.260e-4
-2.027, 6.199e-4
-2.026, 6.106e-4
-2.025, 6.044e-4
-2.024, 5.983e-4
-2.023, 5.921e-4
-2.022, 5.829e-4
-2.021, 5.798e-4
-2.020, 5.705e-4
-2.019, 5.644e-4
-2.018, 5.582e-4
-2.017, 5.520e-4
-2.016, 5.459e-4
-2.015, 5.366e-4
-2.014, 5.335e-4
-2.013, 5.274e-4
-2.012, 5.181e-4
-2.011, 5.120e-4
-2.010, 5.058e-4
-2.009, 4.996e-4
-2.008, 4.935e-4
-2.007, 4.904e-4
-2.006, 4.842e-4
-2.005, 4.780e-4
-2.004, 4.719e-4
-2.003, 4.657e-4
-2.002, 4.626e-4
-2.001, 4.565e-4
-2.000, 4.503e-4
-1.999, 4.441e-4
-1.998, 4.410e-4
-1.997, 4.349e-4
-1.996, 4.287e-4
-1.995, 4.225e-4
-1.994, 4.195e-4
-1.993, 4.133e-4
-1.992, 4.102e-4
-1.991, 4.040e-4
-1.990, 4.010e-4
-1.989, 3.948e-4
-1.988, 3.917e-4
-1.987, 3.855e-4
-1.986, 3.825e-4
-1.985, 3.763e-4
-1.984, 3.732e-4
-1.983, 3.670e-4
-1.982, 3.609e-4
-1.981, 3.578e-4
-1.980, 3.547e-4
-1.979, 3.516e-4
-1.978, 3.455e-4
-1.977, 3.424e-4
-1.976, 3.393e-4
-1.975, 3.331e-4
-1.974, 3.300e-4
-1.973, 3.270e-4
-1.972, 3.208e-4
-1.971, 3.177e-4
-1.970, 3.146e-4
-1.969, 3.085e-4
-1.968, 3.054e-4
-1.967, 3.023e-4
-1.966, 2.992e-4
-1.965, 2.931e-4
-1.964, 2.900e-4
-1.963, 2.869e-4
-1.962, 2.838e-4
-1.961, 2.807e-4
-1.960, 2.776e-4
-1.959, 2.746e-4
-1.958, 2.715e-4
-1.957, 2.684e-4
-1.956, 2.653e-4
-1.955, 2.591e-4
-1.954, 2.591e-4
-1.953, 2.530e-4
-1.952, 2.499e-4
-1.951, 2.468e-4
-1.950, 2.437e-4
-1.949, 2.437e-4
-1.948, 2.376e-4
-1.947, 2.376e-4
-1.946, 2.314e-4
-1.945, 2.314e-4
-1.944, 2.283e-4
-1.943, 2.252e-4
-1.942, 2.221e-4
-1.941, 2.191e-4
-1.940, 2.160e-4
-1.939, 2.129e-4
-1.938, 2.129e-4
-1.937, 2.098e-4
-1.936, 2.067e-4
-1.935, 2.036e-4
-1.934, 2.006e-4
-1.933, 1.975e-4
-1.932, 1.944e-4
-1.931, 1.944e-4
-1.930, 1.913e-4
-1.929, 1.882e-4
-1.928, 1.851e-4
-1.927, 1.821e-4
-1.926, 1.821e-4
-1.925, 1.790e-4
-1.924, 1.759e-4
-1.923, 1.728e-4
-1.922, 1.728e-4
-1.921, 1.697e-4
-1.920, 1.697e-4
-1.919, 1.666e-4
-1.918, 1.636e-4
-1.917, 1.636e-4
-1.916, 1.605e-4
-1.915, 1.574e-4
-1.914, 1.543e-4
-1.913, 1.543e-4
-1.912, 1.512e-4
-1.911, 1.512e-4
-1.910, 1.481e-4
-1.909, 1.451e-4
-1.908, 1.451e-4
-1.907, 1.420e-4
-1.906, 1.420e-4
-1.905, 1.389e-4
-1.904, 1.358e-4
-1.903, 1.327e-4
-1.902, 1.327e-4
-1.901, 1.327e-4
-1.900, 1.296e-4
-1.899, 1.266e-4
-1.898, 1.266e-4
-1.897, 1.235e-4
-1.896, 1.235e-4
-1.895, 1.204e-4
-1.894, 1.204e-4
-1.893, 1.173e-4
-1.892, 1.173e-4
-1.891, 1.142e-4
-1.890, 1.142e-4
-1.889, 1.111e-4
-1.888, 1.111e-4
-1.887, 1.081e-4
-1.886, 1.081e-4
-1.885, 1.050e-4
-1.884, 1.050e-4
-1.883, 1.050e-4
-1.882, 1.019e-4
-1.881, 1.019e-4
-1.880, 9.882e-5
-1.879, 9.882e-5
-1.878, 9.573e-5
-1.877, 9.573e-5
-1.876, 9.265e-5
-1.875, 9.265e-5
-1.874, 9.265e-5
-1.873, 8.957e-5
-1.872, 8.957e-5
-1.871, 8.648e-5
-1.870, 8.648e-5
-1.869, 8.648e-5
-1.868, 8.340e-5
-1.867, 8.340e-5
-1.866, 8.340e-5
-1.865, 8.032e-5
-1.864, 7.723e-5
-1.863, 7.723e-5
-1.862, 7.723e-5
-1.861, 7.723e-5
-1.860, 7.723e-5
-1.859, 7.415e-5
-1.858, 7.415e-5
-1.857, 7.107e-5
-1.856, 7.107e-5
-1.855, 7.107e-5
-1.854, 7.107e-5
-1.853, 6.798e-5
-1.852, 6.490e-5
-1.851, 6.798e-5
-1.850, 6.490e-5
-1.849, 6.490e-5
-1.848, 6.182e-5
-1.847, 6.182e-5
-1.846, 6.182e-5
-1.845, 5.873e-5
-1.844, 5.873e-5
-1.843, 5.873e-5
-1.842, 5.873e-5
-1.841, 5.873e-5
-1.840, 5.873e-5
-1.839, 5.565e-5
-1.838, 5.565e-5
-1.837, 5.565e-5
-1.836, 5.257e-5
-1.835, 5.257e-5
-1.834, 5.257e-5
-1.833, 5.257e-5
-1.832, 4.949e-5
-1.831, 4.949e-5
-1.830, 4.949e-5
-1.829, 4.640e-5
-1.828, 4.640e-5
-1.827, 4.640e-5
-1.826, 4.640e-5
-1.825, 4.640e-5
-1.824, 4.640e-5
-1.823, 4.640e-5
-1.822, 4.332e-5
-1.821, 4.332e-5
-1.820, 4.024e-5
-1.819, 4.024e-5
-1.818, 4.024e-5
-1.817, 4.024e-5
-1.816, 4.024e-5
-1.815, 4.024e-5
-1.814, 4.024e-5
-1.813, 3.715e-5
-1.812, 3.715e-5
-1.811, 3.715e-5
-1.810, 3.715e-5
-1.809, 3.407e-5
-1.808, 3.407e-5
-1.807, 3.407e-5
-1.806, 3.407e-5
-1.805, 3.407e-5
-1.804, 3.407e-5
-1.803, 3.407e-5
-1.802, 3.099e-5
-1.801, 3.099e-5
-1.800, 3.099e-5
-1.799, 3.099e-5
-1.798, 3.099e-5
-1.797, 2.790e-5
-1.796, 2.790e-5
-1.795, 2.790e-5
-1.794, 2.790e-5
-1.793, 2.790e-5
-1.792, 2.790e-5
-1.791, 2.790e-5
-1.790, 2.482e-5
-1.789, 2.790e-5
-1.788, 2.482e-5
-1.787, 2.482e-5
-1.786, 2.482e-5
-1.785, 2.482e-5
-1.784, 2.482e-5
-1.783, 2.482e-5
-1.782, 2.174e-5
-1.781, 2.174e-5
-1.780, 2.482e-5
-1.779, 2.482e-5
-1.778, 2.174e-5
-1.777, 2.174e-5
-1.776, 2.174e-5
-1.775, 2.174e-5
-1.774, 2.174e-5
-1.773, 2.174e-5
-1.772, 1.865e-5
-1.771, 1.865e-5
-1.770, 1.865e-5
-1.769, 1.865e-5
-1.768, 1.865e-5
-1.767, 1.865e-5
-1.766, 1.865e-5
-1.765, 1.865e-5
-1.764, 1.865e-5
-1.763, 1.865e-5
-1.762, 1.865e-5
-1.761, 1.557e-5
-1.760, 1.557e-5
-1.759, 1.557e-5
-1.758, 1.557e-5
-1.757, 1.557e-5
-1.756, 1.557e-5
-1.755, 1.557e-5
-1.754, 1.557e-5
-1.753, 1.557e-5
-1.752, 1.557e-5
-1.751, 1.557e-5
-1.750, 1.557e-5
-1.749, 1.249e-5
-1.748, 1.249e-5
-1.747, 1.249e-5
-1.746, 1.249e-5
-1.745, 1.249e-5
-1.744, 1.249e-5
-1.743, 1.249e-5
-1.742, 1.249e-5
-1.741, 1.249e-5
-1.740, 1.249e-5
-1.739, 1.249e-5
-1.738, 9.405e-6
-1.737, 1.249e-5
-1.736, 1.249e-5
-1.735, 1.249e-5
-1.734, 1.249e-5
-1.733, 9.405e-6
-1.732, 9.405e-6
-1.731, 9.405e-6
-1.730, 1.249e-5
-1.729, 9.405e-6
-1.728, 9.405e-6
-1.727, 9.405e-6
-1.726, 9.405e-6
-1.725, 9.405e-6
-1.724, 9.405e-6
-1.723, 9.405e-6
-1.722, 9.405e-6
-1.721, 9.405e-6
-1.720, 9.405e-6
-1.719, 9.405e-6
-1.718, 9.405e-6
-1.717, 9.405e-6
-1.716, 9.405e-6
-1.715, 6.322e-6
-1.714, 9.405e-6
-1.713, 9.405e-6
-1.712, 9.405e-6
-1.711, 6.322e-6
-1.710, 6.322e-6
-1.709, 6.322e-6
-1.708, 6.322e-6
-1.707, 6.322e-6
-1.706, 6.322e-6
-1.705, 6.322e-6
-1.704, 6.322e-6
-1.703, 6.322e-6
-1.702, 6.322e-6
-1.701, 6.322e-6
-1.700, 6.322e-6
-1.699, 6.322e-6
-1.698, 6.322e-6
-1.697, 6.322e-6
-1.696, 6.322e-6
-1.695, 6.322e-6
-1.694, 3.239e-6
-1.693, 6.322e-6
-1.692, 6.322e-6
-1.691, 6.322e-6
-1.690, 6.322e-6
-1.689, 6.322e-6
-1.688, 3.239e-6
-1.687, 3.239e-6
-1.686, 3.239e-6
-1.685, 3.239e-6
-1.684, 3.239e-6
-1.683, 3.239e-6
-1.682, 6.322e-6
-1.681, 3.239e-6
-1.680, 3.239e-6
-1.679, 3.239e-6
-1.678, 3.239e-6
-1.677, 3.239e-6
-1.676, 3.239e-6
-1.675, 6.322e-6
-1.674, 3.239e-6
-1.673, 3.239e-6
-1.672, 3.239e-6
-1.671, 3.239e-6
-1.670, 3.239e-6
-1.669, 3.239e-6
-1.668, 3.239e-6
-1.667, 3.239e-6
-1.666, 3.239e-6
-1.665, 3.239e-6
-1.664, 3.239e-6
-1.663, 3.239e-6
-1.662, 3.239e-6
-1.661, 3.239e-6
-1.660, 3.239e-6
-1.659, 3.239e-6
-1.658, 3.239e-6
-1.657, 3.239e-6
-1.656, 3.239e-6
-1.655, 3.239e-6
-1.654, 3.239e-6
-1.653, 3.239e-6
-1.652, 3.239e-6
-1.651, 1.559e-7
-1.650, 3.239e-6
-1.649, 3.239e-6
-1.648, 3.239e-6
-1.647, 3.239e-6
-1.646, 3.239e-6
-1.645, 3.239e-6
-1.644, 3.239e-6
-1.643, 1.559e-7
-1.642, 1.559e-7
-1.641, 3.239e-6
-1.640, 3.239e-6
-1.639, 1.559e-7
-1.638, 1.559e-7
-1.637, 1.559e-7
-1.636, 1.559e-7
-1.635, 1.559e-7
-1.634, 1.559e-7
-1.633, 1.559e-7
-1.632, 1.559e-7
-1.631, 1.559e-7
-1.630, 3.239e-6
-1.629, 1.559e-7
-1.628, 1.559e-7
-1.627, 1.559e-7
-1.626, 1.559e-7
-1.625, 1.559e-7
-1.624, 1.559e-7
-1.623, 3.239e-6
-1.622, 3.239e-6
-1.621, 1.559e-7
-1.620, 1.559e-7
-1.619, 1.559e-7
-1.618, 1.559e-7
-1.617, 1.559e-7
-1.616, 1.559e-7
-1.615, 1.559e-7
-1.614, 1.559e-7
-1.613, 1.559e-7
-1.612, 1.559e-7
-1.611, 1.559e-7
-1.610, 1.559e-7
-1.609, 1.559e-7
-1.608, 1.559e-7
-1.607, 1.559e-7
-1.606, 1.559e-7
-1.605, 1.559e-7
-1.604, 1.559e-7
-1.603, 1.559e-7
-1.602, 1.559e-7
-1.601, 1.559e-7
-1.600, 1.559e-7
-1.599, 1.559e-7
-1.598, 1.559e-7
-1.597, 1.559e-7
-1.596, 1.559e-7
-1.595, 1.559e-7
-1.594, 1.559e-7
-1.593, 1.559e-7
-1.592, 1.559e-7
-1.591, 1.559e-7
-1.590, 1.559e-7
-1.589, 1.559e-7
-1.588, 1.559e-7
-1.587, 1.559e-7
-1.586, 1.559e-7
-1.585, 1.559e-7
-1.584, 1.559e-7
-1.583, 1.559e-7
-1.582, 1.559e-7
-1.581, 1.559e-7
-1.580, -2.927e-6
-1.579, 1.559e-7
-1.578, 1.559e-7
-1.577, 1.559e-7
-1.576, 1.559e-7
-1.575, 1.559e-7
-1.574, 1.559e-7
-1.573, 1.559e-7
-1.572, 1.559e-7
-1.571, 1.559e-7
-1.570, 1.559e-7
-1.569, 1.559e-7
-1.568, 1.559e-7
-1.567, 1.559e-7
-1.566, 1.559e-7
-1.565, 1.559e-7
-1.564, 1.559e-7
-1.563, 1.559e-7
-1.562, 1.559e-7
-1.561, 1.559e-7
-1.560, -2.927e-6
-1.559, -2.927e-6
-1.558, 1.559e-7
-1.557, 1.559e-7
-1.556, 1.559e-7
-1.555, 1.559e-7
-1.554, 1.559e-7
-1.553, 1.559e-7
-1.552, 1.559e-7
-1.551, 1.559e-7
-1.550, 1.559e-7
-1.549, 1.559e-7
-1.548, 1.559e-7
-1.547, 1.559e-7
-1.546, 1.559e-7
-1.545, 1.559e-7
-1.544, 1.559e-7
-1.543, -2.927e-6
-1.542, 1.559e-7
-1.541, -2.927e-6
-1.540, 1.559e-7
-1.539, -2.927e-6
-1.538, 1.559e-7
-1.537, 1.559e-7
-1.536, -2.927e-6
-1.535, -2.927e-6
-1.534, -2.927e-6
-1.533, -2.927e-6
-1.532, 1.559e-7
-1.531, 1.559e-7
-1.530, -2.927e-6
-1.529, -2.927e-6
-1.528, 1.559e-7
-1.527, -2.927e-6
-1.526, 1.559e-7
-1.525, -2.927e-6
-1.524, 1.559e-7
-1.523, -2.927e-6
-1.522, 1.559e-7
-1.521, 1.559e-7
-1.520, -2.927e-6
-1.519, 1.559e-7
-1.518, -2.927e-6
-1.517, 1.559e-7
-1.516, -2.927e-6
-1.515, -2.927e-6
-1.514, -2.927e-6
-1.513, -2.927e-6
-1.512, 1.559e-7
-1.511, -2.927e-6
-1.510, 1.559e-7
-1.509, 1.559e-7
-1.508, -2.927e-6
-1.507, -2.927e-6
-1.506, 1.559e-7
-1.505, 1.559e-7
-1.504, 1.559e-7
-1.503, -2.927e-6
-1.502, -2.927e-6
-1.501, 1.559e-7
-1.500, -2.927e-6
-1.499, -2.927e-6
-1.498, 1.559e-7
-1.497, -2.927e-6
-1.496, -2.927e-6
-1.495, 1.559e-7
-1.494, 1.559e-7
-1.493, -2.927e-6
-1.492, 1.559e-7
-1.491, -2.927e-6
-1.490, -2.927e-6
-1.489, -2.927e-6
-1.488, -2.927e-6
-1.487, 1.559e-7
-1.486, -2.927e-6
-1.485, -2.927e-6
-1.484, -2.927e-6
-1.483, -2.927e-6
-1.482, -2.927e-6
-1.481, -2.927e-6
-1.480, 1.559e-7
-1.479, -2.927e-6
-1.478, -2.927e-6
-1.477, -2.927e-6
-1.476, -2.927e-6
-1.475, -2.927e-6
-1.474, -2.927e-6
-1.473, -2.927e-6
-1.472, -2.927e-6
-1.471, -2.927e-6
-1.470, -2.927e-6
-1.469, -2.927e-6
-1.468, -2.927e-6
-1.467, -2.927e-6
-1.466, -2.927e-6
-1.465, -2.927e-6
-1.464, 1.559e-7
-1.463, -2.927e-6
-1.462, -2.927e-6
-1.461, -2.927e-6
-1.460, -2.927e-6
-1.459, -2.927e-6
-1.458, -2.927e-6
-1.457, -2.927e-6
-1.456, -2.927e-6
-1.455, 1.559e-7
-1.454, -2.927e-6
-1.453, -2.927e-6
-1.452, 1.559e-7
-1.451, -2.927e-6
-1.450, 1.559e-7
-1.449, 1.559e-7
-1.448, -2.927e-6
-1.447, -2.927e-6
-1.446, 1.559e-7
-1.445, -2.927e-6
-1.444, -2.927e-6
-1.443, -2.927e-6
-1.442, -2.927e-6
-1.441, -2.927e-6
-1.440, -2.927e-6
-1.439, 1.559e-7
-1.438, -2.927e-6
-1.437, -2.927e-6
-1.436, -2.927e-6
-1.435, -2.927e-6
-1.434, -2.927e-6
-1.433, -2.927e-6
-1.432, -2.927e-6
-1.431, -2.927e-6
-1.430, -2.927e-6
-1.429, -2.927e-6
-1.428, -2.927e-6
-1.427, -2.927e-6
-1.426, -2.927e-6
-1.425, -2.927e-6
-1.424, -2.927e-6
-1.423, -2.927e-6
-1.422, -2.927e-6
-1.421, -2.927e-6
-1.420, -2.927e-6
-1.419, -2.927e-6
-1.418, -2.927e-6
-1.417, -2.927e-6
-1.416, -2.927e-6
-1.415, -2.927e-6
-1.414, -2.927e-6
-1.413, -2.927e-6
-1.412, -2.927e-6
-1.411, -2.927e-6
-1.410, -2.927e-6
-1.409, -2.927e-6
-1.408, -2.927e-6
-1.407, -2.927e-6
-1.406, -2.927e-6
-1.405, -2.927e-6
-1.404, -2.927e-6
-1.403, -2.927e-6
-1.402, -2.927e-6
-1.401, -2.927e-6
-1.400, -2.927e-6
-1.399, -2.927e-6
-1.398, -2.927e-6
-1.397, -2.927e-6
-1.396, -2.927e-6
-1.395, -2.927e-6
-1.394, -2.927e-6
-1.393, -2.927e-6
-1.392, -2.927e-6
-1.391, -2.927e-6
-1.390, -2.927e-6
-1.389, -2.927e-6
-1.388, -2.927e-6
-1.387, -2.927e-6
-1.386, -2.927e-6
-1.385, -2.927e-6
-1.384, -2.927e-6
-1.383, -2.927e-6
-1.382, -2.927e-6
-1.381, -2.927e-6
-1.380, -2.927e-6
-1.379, -2.927e-6
-1.378, -2.927e-6
-1.377, -2.927e-6
-1.376, -2.927e-6
-1.375, -2.927e-6
-1.374, -2.927e-6
-1.373, -2.927e-6
-1.372, -2.927e-6
-1.371, -2.927e-6
-1.370, -2.927e-6
-1.369, -2.927e-6
-1.368, -2.927e-6
-1.367, -2.927e-6
-1.366, -2.927e-6
-1.365, -2.927e-6
-1.364, -2.927e-6
-1.363, -2.927e-6
-1.362, -2.927e-6
-1.361, -2.927e-6
-1.360, -2.927e-6
-1.359, -2.927e-6
-1.358, -2.927e-6
-1.357, -2.927e-6
-1.356, -2.927e-6
-1.355, -2.927e-6
-1.354, -2.927e-6
-1.353, -2.927e-6
-1.352, -2.927e-6
-1.351, -2.927e-6
-1.350, -2.927e-6
-1.349, -2.927e-6
-1.348, -2.927e-6
-1.347, -2.927e-6
-1.346, -2.927e-6
-1.345, -2.927e-6
-1.344, -2.927e-6
-1.343, -2.927e-6
-1.342, -2.927e-6
-1.341, -2.927e-6
-1.340, -2.927e-6
-1.339, -2.927e-6
-1.338, -2.927e-6
-1.337, -2.927e-6
-1.336, -2.927e-6
-1.335, -2.927e-6
-1.334, -2.927e-6
-1.333, -2.927e-6
-1.332, -2.927e-6
-1.331, -2.927e-6
-1.330, -2.927e-6
-1.329, -2.927e-6
-1.328, -2.927e-6
-1.327, -2.927e-6
-1.326, -2.927e-6
-1.325, -2.927e-6
-1.324, -2.927e-6
-1.323, -2.927e-6
-1.322, -2.927e-6
-1.321, -2.927e-6
-1.320, -2.927e-6
-1.319, -2.927e-6
-1.318, -2.927e-6
-1.317, -2.927e-6
-1.316, -2.927e-6
-1.315, -2.927e-6
-1.314, -2.927e-6
-1.313, -2.927e-6
-1.312, -2.927e-6
-1.311, -2.927e-6
-1.310, -2.927e-6
-1.309, -2.927e-6
-1.308, -2.927e-6
-1.307, -2.927e-6
-1.306, -2.927e-6
-1.305, -2.927e-6
-1.304, -2.927e-6
-1.303, -2.927e-6
-1.302, -2.927e-6
-1.301, -2.927e-6
-1.300, -2.927e-6
-1.299, -2.927e-6
-1.298, -2.927e-6
-1.297, -2.927e-6
-1.296, -6.010e-6
-1.295, -2.927e-6
-1.294, -2.927e-6
-1.293, -2.927e-6
-1.292, -2.927e-6
-1.291, -2.927e-6
-1.290, -2.927e-6
-1.289, -2.927e-6
-1.288, -2.927e-6
-1.287, -2.927e-6
-1.286, -2.927e-6
-1.285, -2.927e-6
-1.284, -2.927e-6
-1.283, -2.927e-6
-1.282, -2.927e-6
-1.281, -2.927e-6
-1.280, -2.927e-6
-1.279, -2.927e-6
-1.278, -2.927e-6
-1.277, -2.927e-6
-1.276, -2.927e-6
-1.275, -2.927e-6
-1.274, -2.927e-6
-1.273, -6.010e-6
-1.272, -2.927e-6
-1.271, -2.927e-6
-1.270, -2.927e-6
-1.269, -2.927e-6
-1.268, -2.927e-6
-1.267, -2.927e-6
-1.266, -2.927e-6
-1.265, -2.927e-6
-1.264, -2.927e-6
-1.263, -2.927e-6
-1.262, -2.927e-6
-1.261, -2.927e-6
-1.260, -2.927e-6
-1.259, -2.927e-6
-1.258, -2.927e-6
-1.257, -2.927e-6
-1.256, -2.927e-6
-1.255, -2.927e-6
-1.254, -2.927e-6
-1.253, -2.927e-6
-1.252, -2.927e-6
-1.251, -2.927e-6
-1.250, -2.927e-6
-1.249, -2.927e-6
-1.248, -2.927e-6
-1.247, -2.927e-6
-1.246, -2.927e-6
-1.245, -2.927e-6
-1.244, -6.010e-6
-1.243, -2.927e-6
-1.242, -2.927e-6
-1.241, -6.010e-6
-1.240, -2.927e-6
-1.239, -2.927e-6
-1.238, -2.927e-6
-1.237, -2.927e-6
-1.236, -2.927e-6
-1.235, -2.927e-6
-1.234, -2.927e-6
-1.233, -2.927e-6
-1.232, -2.927e-6
-1.231, -2.927e-6
-1.230, -2.927e-6
-1.229, -2.927e-6
-1.228, -2.927e-6
-1.227, -2.927e-6
-1.226, -2.927e-6
-1.225, -2.927e-6
-1.224, -2.927e-6
-1.223, -2.927e-6
-1.222, -2.927e-6
-1.221, -2.927e-6
-1.220, -6.010e-6
-1.219, -2.927e-6
-1.218, -2.927e-6
-1.217, -2.927e-6
-1.216, -2.927e-6
-1.215, -2.927e-6
-1.214, -6.010e-6
-1.213, -2.927e-6
-1.212, -6.010e-6
-1.211, -2.927e-6
-1.210, -2.927e-6
-1.209, -2.927e-6
-1.208, -2.927e-6
-1.207, -2.927e-6
-1.206, -2.927e-6
-1.205, -2.927e-6
-1.204, -6.010e-6
-1.203, -2.927e-6
-1.202, -2.927e-6
-1.201, -2.927e-6
-1.200, -2.927e-6
-1.199, -2.927e-6
-1.198, -6.010e-6
-1.197, -2.927e-6
-1.196, -2.927e-6
-1.195, -2.927e-6
-1.194, -2.927e-6
-1.193, -2.927e-6
-1.192, -2.927e-6
-1.191, -2.927e-6
-1.190, -2.927e-6
-1.189, -2.927e-6
-1.188, -2.927e-6
-1.187, -2.927e-6
-1.186, -2.927e-6
-1.185, -2.927e-6
-1.184, -2.927e-6
-1.183, -2.927e-6
-1.182, -6.010e-6
-1.181, -2.927e-6
-1.180, -2.927e-6
-1.179, -6.010e-6
-1.178, -2.927e-6
-1.177, -2.927e-6
-1.176, -2.927e-6
-1.175, -2.927e-6
-1.174, -2.927e-6
-1.173, -2.927e-6
-1.172, -2.927e-6
-1.171, -2.927e-6
-1.170, -2.927e-6
-1.169, -6.010e-6
-1.168, -2.927e-6
-1.167, -2.927e-6
-1.166, -6.010e-6
-1.165, -2.927e-6
-1.164, -2.927e-6
-1.163, -6.010e-6
-1.162, -2.927e-6
-1.161, -6.010e-6
-1.160, -2.927e-6
-1.159, -6.010e-6
-1.158, -2.927e-6
-1.157, -2.927e-6
-1.156, -6.010e-6
-1.155, -2.927e-6
-1.154, -6.010e-6
-1.153, -2.927e-6
-1.152, -6.010e-6
-1.151, -2.927e-6
-1.150, -6.010e-6
-1.149, -6.010e-6
-1.148, -2.927e-6
-1.147, -6.010e-6
-1.146, -2.927e-6
-1.145, -6.010e-6
-1.144, -2.927e-6
-1.143, -6.010e-6
-1.142, -2.927e-6
-1.141, -2.927e-6
-1.140, -2.927e-6
-1.139, -2.927e-6
-1.138, -6.010e-6
-1.137, -6.010e-6
-1.136, -2.927e-6
-1.135, -2.927e-6
-1.134, -6.010e-6
-1.133, -2.927e-6
-1.132, -2.927e-6
-1.131, -2.927e-6
-1.130, -2.927e-6
-1.129, -6.010e-6
-1.128, -6.010e-6
-1.127, -2.927e-6
-1.126, -6.010e-6
-1.125, -6.010e-6
-1.124, -6.010e-6
-1.123, -2.927e-6
-1.122, -6.010e-6
-1.121, -6.010e-6
-1.120, -6.010e-6
-1.119, -2.927e-6
-1.118, -2.927e-6
-1.117, -6.010e-6
-1.116, -6.010e-6
-1.115, -6.010e-6
-1.114, -6.010e-6
-1.113, -6.010e-6
-1.112, -2.927e-6
-1.111, -6.010e-6
-1.110, -6.010e-6
-1.109, -6.010e-6
-1.108, -6.010e-6
-1.107, -2.927e-6
-1.106, -6.010e-6
-1.105, -2.927e-6
-1.104, -2.927e-6
-1.103, -6.010e-6
-1.102, -2.927e-6
-1.101, -6.010e-6
-1.100, -6.010e-6
-1.099, -6.010e-6
-1.098, -2.927e-6
-1.097, -6.010e-6
-1.096, -6.010e-6
-1.095, -6.010e-6
-1.094, -6.010e-6
-1.093, -2.927e-6
-1.092, -6.010e-6
-1.091, -2.927e-6
-1.090, -6.010e-6
-1.089, -2.927e-6
-1.088, -6.010e-6
-1.087, -6.010e-6
-1.086, -6.010e-6
-1.085, -6.010e-6
-1.084, -6.010e-6
-1.083, -6.010e-6
-1.082, -2.927e-6
-1.081, -6.010e-6
-1.080, -6.010e-6
-1.079, -6.010e-6
-1.078, -6.010e-6
-1.077, -6.010e-6
-1.076, -6.010e-6
-1.075, -6.010e-6
-1.074, -6.010e-6
-1.073, -6.010e-6
-1.072, -6.010e-6
-1.071, -6.010e-6
-1.070, -6.010e-6
-1.069, -6.010e-6
-1.068, -6.010e-6
-1.067, -6.010e-6
-1.066, -6.010e-6
-1.065, -6.010e-6
-1.064, -6.010e-6
-1.063, -6.010e-6
-1.062, -6.010e-6
-1.061, -6.010e-6
-1.060, -6.010e-6
-1.059, -2.927e-6
-1.058, -6.010e-6
-1.057, -6.010e-6
-1.056, -6.010e-6
-1.055, -6.010e-6
-1.054, -6.010e-6
-1.053, -6.010e-6
-1.052, -6.010e-6
-1.051, -6.010e-6
-1.050, -6.010e-6
-1.049, -6.010e-6
-1.048, -6.010e-6
-1.047, -6.010e-6
-1.046, -6.010e-6
-1.045, -6.010e-6
-1.044, -6.010e-6
-1.043, -6.010e-6
-1.042, -6.010e-6
-1.041, -6.010e-6
-1.040, -6.010e-6
-1.039, -2.927e-6
-1.038, -6.010e-6
-1.037, -6.010e-6
-1.036, -6.010e-6
-1.035, -6.010e-6
-1.034, -6.010e-6
-1.033, -6.010e-6
-1.032, -6.010e-6
-1.031, -6.010e-6
-1.030, -6.010e-6
-1.029, -6.010e-6
-1.028, -6.010e-6
-1.027, -6.010e-6
-1.026, -6.010e-6
-1.025, -6.010e-6
-1.024, -6.010e-6
-1.023, -6.010e-6
-1.022, -6.010e-6
-1.021, -6.010e-6
-1.020, -6.010e-6
-1.019, -6.010e-6
-1.018, -6.010e-6
-1.017, -6.010e-6
-1.016, -6.010e-6
-1.015, -6.010e-6
-1.014, -6.010e-6
-1.013, -6.010e-6
-1.012, -6.010e-6
-1.011, -6.010e-6
-1.010, -6.010e-6
-1.009, -6.010e-6
-1.008, -6.010e-6
-1.007, -6.010e-6
-1.006, -6.010e-6
-1.005, -6.010e-6
-1.004, -6.010e-6
-1.003, -6.010e-6
-1.002, -6.010e-6
-1.001, -6.010e-6
