Jan. 15, 2025   20:58:32
Linear Sweep Voltammetry
File: c:/users/guazh/data/banditlqround7_x0exp772_r5/2025-01-10-exp856\pre-regen-2025-01-15t20_55_27-lsvinphos\pre-regen_lsv_50mvs_efin_-1900mv.bin
Data Source:  Experiment
Instrument Model:  CHI760E
Header: LSV ran at 50 mVs with Efin at -1900mV
Note: 

Init E (V) = -0.6
Final E (V) = -1.9
Scan Rate (V/s) = 0.05
Sample Interval (V) = 0.001
Quiet Time (sec) = 2
Sensitivity (A/V) = 1e-4
Comp R (ohm) = 9.5

Results:

Channel 1:
Ep = -1.453V
ip = 2.665e-4A
Ah = 1.375e-4C

Potential/V, Current/A

-0.600, -1.213e-6
-0.601, -7.348e-7
-0.602, -4.480e-7
-0.603, -2.553e-7
-0.604, -1.012e-7
-0.605, 3.550e-8
-0.606, 1.655e-7
-0.607, 2.947e-7
-0.608, 4.121e-7
-0.609, 5.163e-7
-0.610, 6.101e-7
-0.611, 7.078e-7
-0.612, 8.068e-7
-0.613, 9.001e-7
-0.614, 9.884e-7
-0.615, 1.069e-6
-0.616, 1.147e-6
-0.617, 1.234e-6
-0.618, 1.310e-6
-0.619, 1.383e-6
-0.620, 1.453e-6
-0.621, 1.527e-6
-0.622, 1.605e-6
-0.623, 1.675e-6
-0.624, 1.739e-6
-0.625, 1.803e-6
-0.626, 1.868e-6
-0.627, 1.939e-6
-0.628, 2.007e-6
-0.629, 2.066e-6
-0.630, 2.123e-6
-0.631, 2.182e-6
-0.632, 2.247e-6
-0.633, 2.307e-6
-0.634, 2.361e-6
-0.635, 2.417e-6
-0.636, 2.473e-6
-0.637, 2.533e-6
-0.638, 2.595e-6
-0.639, 2.646e-6
-0.640, 2.697e-6
-0.641, 2.755e-6
-0.642, 2.811e-6
-0.643, 2.870e-6
-0.644, 2.918e-6
-0.645, 2.966e-6
-0.646, 3.020e-6
-0.647, 3.077e-6
-0.648, 3.133e-6
-0.649, 3.183e-6
-0.650, 3.228e-6
-0.651, 3.281e-6
-0.652, 3.337e-6
-0.653, 3.391e-6
-0.654, 3.440e-6
-0.655, 3.483e-6
-0.656, 3.536e-6
-0.657, 3.592e-6
-0.658, 3.643e-6
-0.659, 3.694e-6
-0.660, 3.737e-6
-0.661, 3.787e-6
-0.662, 3.845e-6
-0.663, 3.897e-6
-0.664, 3.941e-6
-0.665, 3.990e-6
-0.666, 4.044e-6
-0.667, 4.099e-6
-0.668, 4.149e-6
-0.669, 4.192e-6
-0.670, 4.238e-6
-0.671, 4.284e-6
-0.672, 4.343e-6
-0.673, 4.398e-6
-0.674, 4.443e-6
-0.675, 4.491e-6
-0.676, 4.542e-6
-0.677, 4.599e-6
-0.678, 4.653e-6
-0.679, 4.702e-6
-0.680, 4.747e-6
-0.681, 4.802e-6
-0.682, 4.857e-6
-0.683, 4.915e-6
-0.684, 4.962e-6
-0.685, 5.011e-6
-0.686, 5.067e-6
-0.687, 5.124e-6
-0.688, 5.181e-6
-0.689, 5.232e-6
-0.690, 5.284e-6
-0.691, 5.339e-6
-0.692, 5.401e-6
-0.693, 5.458e-6
-0.694, 5.514e-6
-0.695, 5.562e-6
-0.696, 5.620e-6
-0.697, 5.684e-6
-0.698, 5.744e-6
-0.699, 5.800e-6
-0.700, 5.853e-6
-0.701, 5.908e-6
-0.702, 5.972e-6
-0.703, 6.034e-6
-0.704, 6.092e-6
-0.705, 6.149e-6
-0.706, 6.202e-6
-0.707, 6.269e-6
-0.708, 6.332e-6
-0.709, 6.393e-6
-0.710, 6.453e-6
-0.711, 6.512e-6
-0.712, 6.579e-6
-0.713, 6.648e-6
-0.714, 6.709e-6
-0.715, 6.770e-6
-0.716, 6.833e-6
-0.717, 6.903e-6
-0.718, 6.973e-6
-0.719, 7.033e-6
-0.720, 7.095e-6
-0.721, 7.160e-6
-0.722, 7.231e-6
-0.723, 7.303e-6
-0.724, 7.368e-6
-0.725, 7.432e-6
-0.726, 7.501e-6
-0.727, 7.570e-6
-0.728, 7.648e-6
-0.729, 7.717e-6
-0.730, 7.782e-6
-0.731, 7.851e-6
-0.732, 7.927e-6
-0.733, 8.001e-6
-0.734, 8.072e-6
-0.735, 8.139e-6
-0.736, 8.212e-6
-0.737, 8.294e-6
-0.738, 8.371e-6
-0.739, 8.446e-6
-0.740, 8.514e-6
-0.741, 8.586e-6
-0.742, 8.668e-6
-0.743, 8.747e-6
-0.744, 8.823e-6
-0.745, 8.892e-6
-0.746, 8.964e-6
-0.747, 9.048e-6
-0.748, 9.131e-6
-0.749, 9.206e-6
-0.750, 9.284e-6
-0.751, 9.357e-6
-0.752, 9.443e-6
-0.753, 9.525e-6
-0.754, 9.602e-6
-0.755, 9.679e-6
-0.756, 9.757e-6
-0.757, 9.841e-6
-0.758, 9.930e-6
-0.759, 1.001e-5
-0.760, 1.009e-5
-0.761, 1.016e-5
-0.762, 1.025e-5
-0.763, 1.033e-5
-0.764, 1.042e-5
-0.765, 1.049e-5
-0.766, 1.058e-5
-0.767, 1.067e-5
-0.768, 1.076e-5
-0.769, 1.085e-5
-0.770, 1.092e-5
-0.771, 1.101e-5
-0.772, 1.109e-5
-0.773, 1.119e-5
-0.774, 1.127e-5
-0.775, 1.135e-5
-0.776, 1.143e-5
-0.777, 1.153e-5
-0.778, 1.162e-5
-0.779, 1.170e-5
-0.780, 1.179e-5
-0.781, 1.187e-5
-0.782, 1.197e-5
-0.783, 1.205e-5
-0.784, 1.213e-5
-0.785, 1.221e-5
-0.786, 1.230e-5
-0.787, 1.239e-5
-0.788, 1.248e-5
-0.789, 1.257e-5
-0.790, 1.266e-5
-0.791, 1.274e-5
-0.792, 1.284e-5
-0.793, 1.294e-5
-0.794, 1.303e-5
-0.795, 1.311e-5
-0.796, 1.319e-5
-0.797, 1.329e-5
-0.798, 1.339e-5
-0.799, 1.348e-5
-0.800, 1.357e-5
-0.801, 1.366e-5
-0.802, 1.375e-5
-0.803, 1.385e-5
-0.804, 1.394e-5
-0.805, 1.403e-5
-0.806, 1.412e-5
-0.807, 1.421e-5
-0.808, 1.431e-5
-0.809, 1.440e-5
-0.810, 1.449e-5
-0.811, 1.458e-5
-0.812, 1.468e-5
-0.813, 1.477e-5
-0.814, 1.487e-5
-0.815, 1.496e-5
-0.816, 1.505e-5
-0.817, 1.514e-5
-0.818, 1.525e-5
-0.819, 1.535e-5
-0.820, 1.545e-5
-0.821, 1.553e-5
-0.822, 1.563e-5
-0.823, 1.573e-5
-0.824, 1.582e-5
-0.825, 1.591e-5
-0.826, 1.600e-5
-0.827, 1.611e-5
-0.828, 1.621e-5
-0.829, 1.630e-5
-0.830, 1.639e-5
-0.831, 1.648e-5
-0.832, 1.659e-5
-0.833, 1.669e-5
-0.834, 1.678e-5
-0.835, 1.687e-5
-0.836, 1.696e-5
-0.837, 1.706e-5
-0.838, 1.717e-5
-0.839, 1.726e-5
-0.840, 1.736e-5
-0.841, 1.745e-5
-0.842, 1.755e-5
-0.843, 1.765e-5
-0.844, 1.775e-5
-0.845, 1.784e-5
-0.846, 1.794e-5
-0.847, 1.803e-5
-0.848, 1.814e-5
-0.849, 1.823e-5
-0.850, 1.832e-5
-0.851, 1.842e-5
-0.852, 1.852e-5
-0.853, 1.862e-5
-0.854, 1.872e-5
-0.855, 1.881e-5
-0.856, 1.891e-5
-0.857, 1.901e-5
-0.858, 1.912e-5
-0.859, 1.922e-5
-0.860, 1.931e-5
-0.861, 1.940e-5
-0.862, 1.950e-5
-0.863, 1.961e-5
-0.864, 1.971e-5
-0.865, 1.981e-5
-0.866, 1.990e-5
-0.867, 2.000e-5
-0.868, 2.011e-5
-0.869, 2.021e-5
-0.870, 2.031e-5
-0.871, 2.041e-5
-0.872, 2.051e-5
-0.873, 2.062e-5
-0.874, 2.073e-5
-0.875, 2.083e-5
-0.876, 2.092e-5
-0.877, 2.103e-5
-0.878, 2.114e-5
-0.879, 2.124e-5
-0.880, 2.135e-5
-0.881, 2.145e-5
-0.882, 2.155e-5
-0.883, 2.167e-5
-0.884, 2.177e-5
-0.885, 2.187e-5
-0.886, 2.197e-5
-0.887, 2.208e-5
-0.888, 2.220e-5
-0.889, 2.231e-5
-0.890, 2.241e-5
-0.891, 2.252e-5
-0.892, 2.263e-5
-0.893, 2.275e-5
-0.894, 2.286e-5
-0.895, 2.296e-5
-0.896, 2.307e-5
-0.897, 2.319e-5
-0.898, 2.331e-5
-0.899, 2.343e-5
-0.900, 2.354e-5
-0.901, 2.365e-5
-0.902, 2.376e-5
-0.903, 2.389e-5
-0.904, 2.401e-5
-0.905, 2.413e-5
-0.906, 2.424e-5
-0.907, 2.436e-5
-0.908, 2.449e-5
-0.909, 2.461e-5
-0.910, 2.473e-5
-0.911, 2.484e-5
-0.912, 2.496e-5
-0.913, 2.509e-5
-0.914, 2.522e-5
-0.915, 2.535e-5
-0.916, 2.546e-5
-0.917, 2.559e-5
-0.918, 2.572e-5
-0.919, 2.584e-5
-0.920, 2.596e-5
-0.921, 2.609e-5
-0.922, 2.621e-5
-0.923, 2.635e-5
-0.924, 2.648e-5
-0.925, 2.660e-5
-0.926, 2.673e-5
-0.927, 2.686e-5
-0.928, 2.700e-5
-0.929, 2.713e-5
-0.930, 2.726e-5
-0.931, 2.738e-5
-0.932, 2.752e-5
-0.933, 2.766e-5
-0.934, 2.779e-5
-0.935, 2.790e-5
-0.936, 2.803e-5
-0.937, 2.816e-5
-0.938, 2.830e-5
-0.939, 2.844e-5
-0.940, 2.857e-5
-0.941, 2.870e-5
-0.942, 2.884e-5
-0.943, 2.898e-5
-0.944, 2.912e-5
-0.945, 2.925e-5
-0.946, 2.938e-5
-0.947, 2.952e-5
-0.948, 2.967e-5
-0.949, 2.980e-5
-0.950, 2.993e-5
-0.951, 3.006e-5
-0.952, 3.020e-5
-0.953, 3.034e-5
-0.954, 3.048e-5
-0.955, 3.062e-5
-0.956, 3.075e-5
-0.957, 3.089e-5
-0.958, 3.104e-5
-0.959, 3.118e-5
-0.960, 3.132e-5
-0.961, 3.145e-5
-0.962, 3.159e-5
-0.963, 3.174e-5
-0.964, 3.188e-5
-0.965, 3.202e-5
-0.966, 3.216e-5
-0.967, 3.230e-5
-0.968, 3.246e-5
-0.969, 3.260e-5
-0.970, 3.274e-5
-0.971, 3.287e-5
-0.972, 3.302e-5
-0.973, 3.317e-5
-0.974, 3.332e-5
-0.975, 3.345e-5
-0.976, 3.359e-5
-0.977, 3.373e-5
-0.978, 3.388e-5
-0.979, 3.403e-5
-0.980, 3.417e-5
-0.981, 3.430e-5
-0.982, 3.445e-5
-0.983, 3.460e-5
-0.984, 3.475e-5
-0.985, 3.490e-5
-0.986, 3.504e-5
-0.987, 3.518e-5
-0.988, 3.534e-5
-0.989, 3.549e-5
-0.990, 3.563e-5
-0.991, 3.578e-5
-0.992, 3.592e-5
-0.993, 3.608e-5
-0.994, 3.623e-5
-0.995, 3.638e-5
-0.996, 3.652e-5
-0.997, 3.667e-5
-0.998, 3.683e-5
-0.999, 3.699e-5
-1.000, 3.714e-5
-1.001, 3.728e-5
-1.002, 3.743e-5
-1.003, 3.760e-5
-1.004, 3.775e-5
-1.005, 3.790e-5
-1.006, 3.806e-5
-1.007, 3.821e-5
-1.008, 3.838e-5
-1.009, 3.855e-5
-1.010, 3.870e-5
-1.011, 3.885e-5
-1.012, 3.902e-5
-1.013, 3.919e-5
-1.014, 3.936e-5
-1.015, 3.952e-5
-1.016, 3.968e-5
-1.017, 3.985e-5
-1.018, 4.003e-5
-1.019, 4.021e-5
-1.020, 4.037e-5
-1.021, 4.054e-5
-1.022, 4.072e-5
-1.023, 4.090e-5
-1.024, 4.109e-5
-1.025, 4.128e-5
-1.026, 4.145e-5
-1.027, 4.163e-5
-1.028, 4.181e-5
-1.029, 4.201e-5
-1.030, 4.220e-5
-1.031, 4.237e-5
-1.032, 4.256e-5
-1.033, 4.277e-5
-1.034, 4.297e-5
-1.035, 4.317e-5
-1.036, 4.336e-5
-1.037, 4.356e-5
-1.038, 4.376e-5
-1.039, 4.397e-5
-1.040, 4.418e-5
-1.041, 4.439e-5
-1.042, 4.461e-5
-1.043, 4.483e-5
-1.044, 4.506e-5
-1.045, 4.528e-5
-1.046, 4.550e-5
-1.047, 4.573e-5
-1.048, 4.597e-5
-1.049, 4.622e-5
-1.050, 4.645e-5
-1.051, 4.670e-5
-1.052, 4.694e-5
-1.053, 4.720e-5
-1.054, 4.747e-5
-1.055, 4.773e-5
-1.056, 4.799e-5
-1.057, 4.826e-5
-1.058, 4.853e-5
-1.059, 4.883e-5
-1.060, 4.911e-5
-1.061, 4.939e-5
-1.062, 4.968e-5
-1.063, 4.997e-5
-1.064, 5.029e-5
-1.065, 5.060e-5
-1.066, 5.090e-5
-1.067, 5.122e-5
-1.068, 5.155e-5
-1.069, 5.189e-5
-1.070, 5.223e-5
-1.071, 5.256e-5
-1.072, 5.291e-5
-1.073, 5.327e-5
-1.074, 5.364e-5
-1.075, 5.402e-5
-1.076, 5.441e-5
-1.077, 5.478e-5
-1.078, 5.517e-5
-1.079, 5.558e-5
-1.080, 5.600e-5
-1.081, 5.641e-5
-1.082, 5.683e-5
-1.083, 5.727e-5
-1.084, 5.772e-5
-1.085, 5.816e-5
-1.086, 5.861e-5
-1.087, 5.906e-5
-1.088, 5.954e-5
-1.089, 6.003e-5
-1.090, 6.051e-5
-1.091, 6.099e-5
-1.092, 6.148e-5
-1.093, 6.199e-5
-1.094, 6.253e-5
-1.095, 6.304e-5
-1.096, 6.358e-5
-1.097, 6.412e-5
-1.098, 6.468e-5
-1.099, 6.526e-5
-1.100, 6.582e-5
-1.101, 6.638e-5
-1.102, 6.695e-5
-1.103, 6.753e-5
-1.104, 6.814e-5
-1.105, 6.876e-5
-1.106, 6.935e-5
-1.107, 6.996e-5
-1.108, 7.060e-5
-1.109, 7.125e-5
-1.110, 7.191e-5
-1.111, 7.256e-5
-1.112, 7.321e-5
-1.113, 7.388e-5
-1.114, 7.457e-5
-1.115, 7.526e-5
-1.116, 7.594e-5
-1.117, 7.665e-5
-1.118, 7.737e-5
-1.119, 7.810e-5
-1.120, 7.884e-5
-1.121, 7.959e-5
-1.122, 8.033e-5
-1.123, 8.110e-5
-1.124, 8.187e-5
-1.125, 8.264e-5
-1.126, 8.342e-5
-1.127, 8.421e-5
-1.128, 8.502e-5
-1.129, 8.583e-5
-1.130, 8.665e-5
-1.131, 8.750e-5
-1.132, 8.833e-5
-1.133, 8.918e-5
-1.134, 9.005e-5
-1.135, 9.091e-5
-1.136, 9.178e-5
-1.137, 9.265e-5
-1.138, 9.353e-5
-1.139, 9.445e-5
-1.140, 9.537e-5
-1.141, 9.628e-5
-1.142, 9.721e-5
-1.143, 9.816e-5
-1.144, 9.912e-5
-1.145, 1.001e-4
-1.146, 1.010e-4
-1.147, 1.020e-4
-1.148, 1.030e-4
-1.149, 1.040e-4
-1.150, 1.050e-4
-1.151, 1.060e-4
-1.152, 1.070e-4
-1.153, 1.081e-4
-1.154, 1.091e-4
-1.155, 1.102e-4
-1.156, 1.113e-4
-1.157, 1.123e-4
-1.158, 1.134e-4
-1.159, 1.145e-4
-1.160, 1.156e-4
-1.161, 1.167e-4
-1.162, 1.179e-4
-1.163, 1.190e-4
-1.164, 1.202e-4
-1.165, 1.213e-4
-1.166, 1.225e-4
-1.167, 1.236e-4
-1.168, 1.248e-4
-1.169, 1.261e-4
-1.170, 1.273e-4
-1.171, 1.285e-4
-1.172, 1.297e-4
-1.173, 1.310e-4
-1.174, 1.323e-4
-1.175, 1.336e-4
-1.176, 1.349e-4
-1.177, 1.362e-4
-1.178, 1.375e-4
-1.179, 1.389e-4
-1.180, 1.402e-4
-1.181, 1.416e-4
-1.182, 1.430e-4
-1.183, 1.444e-4
-1.184, 1.458e-4
-1.185, 1.472e-4
-1.186, 1.486e-4
-1.187, 1.501e-4
-1.188, 1.516e-4
-1.189, 1.530e-4
-1.190, 1.545e-4
-1.191, 1.560e-4
-1.192, 1.575e-4
-1.193, 1.591e-4
-1.194, 1.607e-4
-1.195, 1.622e-4
-1.196, 1.638e-4
-1.197, 1.655e-4
-1.198, 1.672e-4
-1.199, 1.688e-4
-1.200, 1.704e-4
-1.201, 1.721e-4
-1.202, 1.738e-4
-1.203, 1.755e-4
-1.204, 1.772e-4
-1.205, 1.790e-4
-1.206, 1.807e-4
-1.207, 1.825e-4
-1.208, 1.843e-4
-1.209, 1.861e-4
-1.210, 1.880e-4
-1.211, 1.898e-4
-1.212, 1.917e-4
-1.213, 1.936e-4
-1.214, 1.955e-4
-1.215, 1.975e-4
-1.216, 1.994e-4
-1.217, 2.014e-4
-1.218, 2.034e-4
-1.219, 2.054e-4
-1.220, 2.074e-4
-1.221, 2.094e-4
-1.222, 2.115e-4
-1.223, 2.136e-4
-1.224, 2.157e-4
-1.225, 2.178e-4
-1.226, 2.199e-4
-1.227, 2.221e-4
-1.228, 2.243e-4
-1.229, 2.265e-4
-1.230, 2.288e-4
-1.231, 2.309e-4
-1.232, 2.331e-4
-1.233, 2.354e-4
-1.234, 2.376e-4
-1.235, 2.399e-4
-1.236, 2.422e-4
-1.237, 2.445e-4
-1.238, 2.468e-4
-1.239, 2.491e-4
-1.240, 2.514e-4
-1.241, 2.538e-4
-1.242, 2.561e-4
-1.243, 2.585e-4
-1.244, 2.609e-4
-1.245, 2.633e-4
-1.246, 2.657e-4
-1.247, 2.681e-4
-1.248, 2.705e-4
-1.249, 2.729e-4
-1.250, 2.754e-4
-1.251, 2.779e-4
-1.252, 2.803e-4
-1.253, 2.828e-4
-1.254, 2.853e-4
-1.255, 2.878e-4
-1.256, 2.903e-4
-1.257, 2.929e-4
-1.258, 2.954e-4
-1.259, 2.980e-4
-1.260, 3.005e-4
-1.261, 3.030e-4
-1.262, 3.056e-4
-1.263, 3.082e-4
-1.264, 3.108e-4
-1.265, 3.133e-4
-1.266, 3.159e-4
-1.267, 3.185e-4
-1.268, 3.211e-4
-1.269, 3.238e-4
-1.270, 3.264e-4
-1.271, 3.290e-4
-1.272, 3.317e-4
-1.273, 3.343e-4
-1.274, 3.370e-4
-1.275, 3.397e-4
-1.276, 3.423e-4
-1.277, 3.450e-4
-1.278, 3.477e-4
-1.279, 3.505e-4
-1.280, 3.533e-4
-1.281, 3.561e-4
-1.282, 3.588e-4
-1.283, 3.616e-4
-1.284, 3.645e-4
-1.285, 3.673e-4
-1.286, 3.701e-4
-1.287, 3.730e-4
-1.288, 3.759e-4
-1.289, 3.788e-4
-1.290, 3.817e-4
-1.291, 3.846e-4
-1.292, 3.875e-4
-1.293, 3.904e-4
-1.294, 3.934e-4
-1.295, 3.963e-4
-1.296, 3.993e-4
-1.297, 4.022e-4
-1.298, 4.051e-4
-1.299, 4.080e-4
-1.300, 4.110e-4
-1.301, 4.139e-4
-1.302, 4.168e-4
-1.303, 4.197e-4
-1.304, 4.226e-4
-1.305, 4.255e-4
-1.306, 4.284e-4
-1.307, 4.312e-4
-1.308, 4.341e-4
-1.309, 4.370e-4
-1.310, 4.398e-4
-1.311, 4.426e-4
-1.312, 4.454e-4
-1.313, 4.482e-4
-1.314, 4.510e-4
-1.315, 4.538e-4
-1.316, 4.565e-4
-1.317, 4.592e-4
-1.318, 4.619e-4
-1.319, 4.646e-4
-1.320, 4.673e-4
-1.321, 4.699e-4
-1.322, 4.726e-4
-1.323, 4.752e-4
-1.324, 4.778e-4
-1.325, 4.803e-4
-1.326, 4.829e-4
-1.327, 4.854e-4
-1.328, 4.879e-4
-1.329, 4.904e-4
-1.330, 4.929e-4
-1.331, 4.953e-4
-1.332, 4.977e-4
-1.333, 5.000e-4
-1.334, 5.024e-4
-1.335, 5.047e-4
-1.336, 5.070e-4
-1.337, 5.092e-4
-1.338, 5.115e-4
-1.339, 5.137e-4
-1.340, 5.160e-4
-1.341, 5.182e-4
-1.342, 5.204e-4
-1.343, 5.225e-4
-1.344, 5.247e-4
-1.345, 5.269e-4
-1.346, 5.289e-4
-1.347, 5.310e-4
-1.348, 5.331e-4
-1.349, 5.352e-4
-1.350, 5.373e-4
-1.351, 5.393e-4
-1.352, 5.413e-4
-1.353, 5.433e-4
-1.354, 5.453e-4
-1.355, 5.473e-4
-1.356, 5.493e-4
-1.357, 5.512e-4
-1.358, 5.532e-4
-1.359, 5.551e-4
-1.360, 5.570e-4
-1.361, 5.589e-4
-1.362, 5.608e-4
-1.363, 5.627e-4
-1.364, 5.647e-4
-1.365, 5.666e-4
-1.366, 5.686e-4
-1.367, 5.706e-4
-1.368, 5.725e-4
-1.369, 5.746e-4
-1.370, 5.766e-4
-1.371, 5.787e-4
-1.372, 5.808e-4
-1.373, 5.829e-4
-1.374, 5.851e-4
-1.375, 5.874e-4
-1.376, 5.896e-4
-1.377, 5.918e-4
-1.378, 5.940e-4
-1.379, 5.964e-4
-1.380, 5.988e-4
-1.381, 6.012e-4
-1.382, 6.037e-4
-1.383, 6.063e-4
-1.384, 6.090e-4
-1.385, 6.116e-4
-1.386, 6.144e-4
-1.387, 6.172e-4
-1.388, 6.200e-4
-1.389, 6.230e-4
-1.390, 6.261e-4
-1.391, 6.291e-4
-1.392, 6.323e-4
-1.393, 6.354e-4
-1.394, 6.387e-4
-1.395, 6.421e-4
-1.396, 6.455e-4
-1.397, 6.489e-4
-1.398, 6.525e-4
-1.399, 6.561e-4
-1.400, 6.599e-4
-1.401, 6.637e-4
-1.402, 6.676e-4
-1.403, 6.717e-4
-1.404, 6.758e-4
-1.405, 6.801e-4
-1.406, 6.845e-4
-1.407, 6.890e-4
-1.408, 6.937e-4
-1.409, 6.985e-4
-1.410, 7.034e-4
-1.411, 7.083e-4
-1.412, 7.134e-4
-1.413, 7.187e-4
-1.414, 7.241e-4
-1.415, 7.295e-4
-1.416, 7.352e-4
-1.417, 7.408e-4
-1.418, 7.466e-4
-1.419, 7.526e-4
-1.420, 7.586e-4
-1.421, 7.648e-4
-1.422, 7.711e-4
-1.423, 7.774e-4
-1.424, 7.839e-4
-1.425, 7.906e-4
-1.426, 7.973e-4
-1.427, 8.042e-4
-1.428, 8.112e-4
-1.429, 8.184e-4
-1.430, 8.257e-4
-1.431, 8.331e-4
-1.432, 8.406e-4
-1.433, 8.482e-4
-1.434, 8.561e-4
-1.435, 8.641e-4
-1.436, 8.720e-4
-1.437, 8.802e-4
-1.438, 8.884e-4
-1.439, 8.968e-4
-1.440, 9.052e-4
-1.441, 9.138e-4
-1.442, 9.224e-4
-1.443, 9.311e-4
-1.444, 9.397e-4
-1.445, 9.485e-4
-1.446, 9.574e-4
-1.447, 9.664e-4
-1.448, 9.755e-4
-1.449, 9.846e-4
-1.450, 9.937e-4
-1.451, 1.003e-3
-1.452, 1.010e-3
-1.453, 1.011e-3
-1.454, 1.011e-3
-1.455, 1.011e-3
-1.456, 1.011e-3
-1.457, 1.011e-3
-1.458, 1.011e-3
-1.459, 1.011e-3
-1.460, 1.011e-3
-1.461, 1.011e-3
-1.462, 1.011e-3
-1.463, 1.011e-3
-1.464, 1.011e-3
-1.465, 1.011e-3
-1.466, 1.011e-3
-1.467, 1.011e-3
-1.468, 1.011e-3
-1.469, 1.011e-3
-1.470, 1.011e-3
-1.471, 1.011e-3
-1.472, 1.011e-3
-1.473, 1.011e-3
-1.474, 1.011e-3
-1.475, 1.011e-3
-1.476, 1.011e-3
-1.477, 1.011e-3
-1.478, 1.011e-3
-1.479, 1.011e-3
-1.480, 1.011e-3
-1.481, 1.011e-3
-1.482, 1.011e-3
-1.483, 1.011e-3
-1.484, 1.011e-3
-1.485, 1.011e-3
-1.486, 1.011e-3
-1.487, 1.011e-3
-1.488, 1.011e-3
-1.489, 1.011e-3
-1.490, 1.011e-3
-1.491, 1.011e-3
-1.492, 1.011e-3
-1.493, 1.011e-3
-1.494, 1.011e-3
-1.495, 1.011e-3
-1.496, 1.011e-3
-1.497, 1.011e-3
-1.498, 1.011e-3
-1.499, 1.011e-3
-1.500, 1.011e-3
-1.501, 1.011e-3
-1.502, 1.011e-3
-1.503, 1.011e-3
-1.504, 1.011e-3
-1.505, 1.011e-3
-1.506, 1.011e-3
-1.507, 1.011e-3
-1.508, 1.011e-3
-1.509, 1.011e-3
-1.510, 1.011e-3
-1.511, 1.011e-3
-1.512, 1.011e-3
-1.513, 1.011e-3
-1.514, 1.011e-3
-1.515, 1.011e-3
-1.516, 1.011e-3
-1.517, 1.011e-3
-1.518, 1.011e-3
-1.519, 1.011e-3
-1.520, 1.011e-3
-1.521, 1.011e-3
-1.522, 1.011e-3
-1.523, 1.011e-3
-1.524, 1.011e-3
-1.525, 1.011e-3
-1.526, 1.011e-3
-1.527, 1.011e-3
-1.528, 1.011e-3
-1.529, 1.011e-3
-1.530, 1.011e-3
-1.531, 1.011e-3
-1.532, 1.011e-3
-1.533, 1.011e-3
-1.534, 1.011e-3
-1.535, 1.011e-3
-1.536, 1.011e-3
-1.537, 1.011e-3
-1.538, 1.011e-3
-1.539, 1.011e-3
-1.540, 1.011e-3
-1.541, 1.011e-3
-1.542, 1.011e-3
-1.543, 1.011e-3
-1.544, 1.011e-3
-1.545, 1.011e-3
-1.546, 1.011e-3
-1.547, 1.011e-3
-1.548, 1.011e-3
-1.549, 1.011e-3
-1.550, 1.011e-3
-1.551, 1.011e-3
-1.552, 1.011e-3
-1.553, 1.011e-3
-1.554, 1.011e-3
-1.555, 1.011e-3
-1.556, 1.011e-3
-1.557, 1.011e-3
-1.558, 1.011e-3
-1.559, 1.011e-3
-1.560, 1.011e-3
-1.561, 1.011e-3
-1.562, 1.011e-3
-1.563, 1.011e-3
-1.564, 1.011e-3
-1.565, 1.011e-3
-1.566, 1.011e-3
-1.567, 1.011e-3
-1.568, 1.011e-3
-1.569, 1.011e-3
-1.570, 1.011e-3
-1.571, 1.011e-3
-1.572, 1.011e-3
-1.573, 1.011e-3
-1.574, 1.011e-3
-1.575, 1.011e-3
-1.576, 1.011e-3
-1.577, 1.011e-3
-1.578, 1.011e-3
-1.579, 1.011e-3
-1.580, 1.011e-3
-1.581, 1.011e-3
-1.582, 1.011e-3
-1.583, 1.011e-3
-1.584, 1.011e-3
-1.585, 1.011e-3
-1.586, 1.011e-3
-1.587, 1.011e-3
-1.588, 1.011e-3
-1.589, 1.011e-3
-1.590, 1.011e-3
-1.591, 1.011e-3
-1.592, 1.011e-3
-1.593, 1.011e-3
-1.594, 1.011e-3
-1.595, 1.011e-3
-1.596, 1.011e-3
-1.597, 1.011e-3
-1.598, 1.011e-3
-1.599, 1.011e-3
-1.600, 1.011e-3
-1.601, 1.011e-3
-1.602, 1.011e-3
-1.603, 1.011e-3
-1.604, 1.011e-3
-1.605, 1.011e-3
-1.606, 1.011e-3
-1.607, 1.011e-3
-1.608, 1.011e-3
-1.609, 1.011e-3
-1.610, 1.011e-3
-1.611, 1.011e-3
-1.612, 1.011e-3
-1.613, 1.011e-3
-1.614, 1.011e-3
-1.615, 1.011e-3
-1.616, 1.011e-3
-1.617, 1.011e-3
-1.618, 1.011e-3
-1.619, 1.011e-3
-1.620, 1.011e-3
-1.621, 1.011e-3
-1.622, 1.011e-3
-1.623, 1.011e-3
-1.624, 1.011e-3
-1.625, 1.011e-3
-1.626, 1.011e-3
-1.627, 1.011e-3
-1.628, 1.011e-3
-1.629, 1.011e-3
-1.630, 1.011e-3
-1.631, 1.011e-3
-1.632, 1.011e-3
-1.633, 1.011e-3
-1.634, 1.011e-3
-1.635, 1.011e-3
-1.636, 1.011e-3
-1.637, 1.011e-3
-1.638, 1.011e-3
-1.639, 1.011e-3
-1.640, 1.011e-3
-1.641, 1.011e-3
-1.642, 1.011e-3
-1.643, 1.011e-3
-1.644, 1.011e-3
-1.645, 1.011e-3
-1.646, 1.011e-3
-1.647, 1.011e-3
-1.648, 1.011e-3
-1.649, 1.011e-3
-1.650, 1.011e-3
-1.651, 1.011e-3
-1.652, 1.011e-3
-1.653, 1.011e-3
-1.654, 1.011e-3
-1.655, 1.011e-3
-1.656, 1.011e-3
-1.657, 1.011e-3
-1.658, 1.011e-3
-1.659, 1.011e-3
-1.660, 1.011e-3
-1.661, 1.011e-3
-1.662, 1.011e-3
-1.663, 1.011e-3
-1.664, 1.011e-3
-1.665, 1.011e-3
-1.666, 1.011e-3
-1.667, 1.011e-3
-1.668, 1.011e-3
-1.669, 1.011e-3
-1.670, 1.011e-3
-1.671, 1.011e-3
-1.672, 1.011e-3
-1.673, 1.011e-3
-1.674, 1.011e-3
-1.675, 1.011e-3
-1.676, 1.011e-3
-1.677, 1.011e-3
-1.678, 1.011e-3
-1.679, 1.011e-3
-1.680, 1.011e-3
-1.681, 1.011e-3
-1.682, 1.011e-3
-1.683, 1.011e-3
-1.684, 1.011e-3
-1.685, 1.011e-3
-1.686, 1.011e-3
-1.687, 1.011e-3
-1.688, 1.011e-3
-1.689, 1.011e-3
-1.690, 1.011e-3
-1.691, 1.011e-3
-1.692, 1.011e-3
-1.693, 1.011e-3
-1.694, 1.011e-3
-1.695, 1.011e-3
-1.696, 1.011e-3
-1.697, 1.011e-3
-1.698, 1.011e-3
-1.699, 1.011e-3
-1.700, 1.011e-3
-1.701, 1.011e-3
-1.702, 1.011e-3
-1.703, 1.011e-3
-1.704, 1.011e-3
-1.705, 1.011e-3
-1.706, 1.011e-3
-1.707, 1.011e-3
-1.708, 1.011e-3
-1.709, 1.011e-3
-1.710, 1.011e-3
-1.711, 1.011e-3
-1.712, 1.011e-3
-1.713, 1.011e-3
-1.714, 1.011e-3
-1.715, 1.011e-3
-1.716, 1.011e-3
-1.717, 1.011e-3
-1.718, 1.011e-3
-1.719, 1.011e-3
-1.720, 1.011e-3
-1.721, 1.011e-3
-1.722, 1.011e-3
-1.723, 1.011e-3
-1.724, 1.011e-3
-1.725, 1.011e-3
-1.726, 1.011e-3
-1.727, 1.011e-3
-1.728, 1.011e-3
-1.729, 1.011e-3
-1.730, 1.011e-3
-1.731, 1.011e-3
-1.732, 1.011e-3
-1.733, 1.011e-3
-1.734, 1.011e-3
-1.735, 1.011e-3
-1.736, 1.011e-3
-1.737, 1.011e-3
-1.738, 1.011e-3
-1.739, 1.011e-3
-1.740, 1.011e-3
-1.741, 1.011e-3
-1.742, 1.011e-3
-1.743, 1.011e-3
-1.744, 1.011e-3
-1.745, 1.011e-3
-1.746, 1.011e-3
-1.747, 1.011e-3
-1.748, 1.011e-3
-1.749, 1.011e-3
-1.750, 1.011e-3
-1.751, 1.011e-3
-1.752, 1.011e-3
-1.753, 1.011e-3
-1.754, 1.011e-3
-1.755, 1.011e-3
-1.756, 1.011e-3
-1.757, 1.011e-3
-1.758, 1.011e-3
-1.759, 1.011e-3
-1.760, 1.011e-3
-1.761, 1.011e-3
-1.762, 1.011e-3
-1.763, 1.011e-3
-1.764, 1.011e-3
-1.765, 1.011e-3
-1.766, 1.011e-3
-1.767, 1.011e-3
-1.768, 1.011e-3
-1.769, 1.011e-3
-1.770, 1.011e-3
-1.771, 1.011e-3
-1.772, 1.011e-3
-1.773, 1.011e-3
-1.774, 1.011e-3
-1.775, 1.011e-3
-1.776, 1.011e-3
-1.777, 1.011e-3
-1.778, 1.011e-3
-1.779, 1.011e-3
-1.780, 1.011e-3
-1.781, 1.011e-3
-1.782, 1.011e-3
-1.783, 1.011e-3
-1.784, 1.011e-3
-1.785, 1.011e-3
-1.786, 1.011e-3
-1.787, 1.011e-3
-1.788, 1.011e-3
-1.789, 1.011e-3
-1.790, 1.011e-3
-1.791, 1.011e-3
-1.792, 1.011e-3
-1.793, 1.011e-3
-1.794, 1.011e-3
-1.795, 1.011e-3
-1.796, 1.011e-3
-1.797, 1.011e-3
-1.798, 1.011e-3
-1.799, 1.011e-3
-1.800, 1.011e-3
-1.801, 1.011e-3
-1.802, 1.011e-3
-1.803, 1.011e-3
-1.804, 1.011e-3
-1.805, 1.011e-3
-1.806, 1.011e-3
-1.807, 1.011e-3
-1.808, 1.011e-3
-1.809, 1.011e-3
-1.810, 1.011e-3
-1.811, 1.011e-3
-1.812, 1.011e-3
-1.813, 1.011e-3
-1.814, 1.011e-3
-1.815, 1.011e-3
-1.816, 1.011e-3
-1.817, 1.011e-3
-1.818, 1.011e-3
-1.819, 1.011e-3
-1.820, 1.011e-3
-1.821, 1.011e-3
-1.822, 1.011e-3
-1.823, 1.011e-3
-1.824, 1.011e-3
-1.825, 1.011e-3
-1.826, 1.011e-3
-1.827, 1.011e-3
-1.828, 1.011e-3
-1.829, 1.011e-3
-1.830, 1.011e-3
-1.831, 1.011e-3
-1.832, 1.011e-3
-1.833, 1.011e-3
-1.834, 1.011e-3
-1.835, 1.011e-3
-1.836, 1.011e-3
-1.837, 1.011e-3
-1.838, 1.011e-3
-1.839, 1.011e-3
-1.840, 1.011e-3
-1.841, 1.011e-3
-1.842, 1.011e-3
-1.843, 1.011e-3
-1.844, 1.011e-3
-1.845, 1.011e-3
-1.846, 1.011e-3
-1.847, 1.011e-3
-1.848, 1.011e-3
-1.849, 1.011e-3
-1.850, 1.011e-3
-1.851, 1.011e-3
-1.852, 1.011e-3
-1.853, 1.011e-3
-1.854, 1.011e-3
-1.855, 1.011e-3
-1.856, 1.011e-3
-1.857, 1.011e-3
-1.858, 1.011e-3
-1.859, 1.011e-3
-1.860, 1.011e-3
-1.861, 1.011e-3
-1.862, 1.011e-3
-1.863, 1.011e-3
-1.864, 1.011e-3
-1.865, 1.011e-3
-1.866, 1.011e-3
-1.867, 1.011e-3
-1.868, 1.011e-3
-1.869, 1.011e-3
-1.870, 1.011e-3
-1.871, 1.011e-3
-1.872, 1.011e-3
-1.873, 1.011e-3
-1.874, 1.011e-3
-1.875, 1.011e-3
-1.876, 1.011e-3
-1.877, 1.011e-3
-1.878, 1.011e-3
-1.879, 1.011e-3
-1.880, 1.011e-3
-1.881, 1.011e-3
-1.882, 1.011e-3
-1.883, 1.011e-3
-1.884, 1.011e-3
-1.885, 1.011e-3
-1.886, 1.011e-3
-1.887, 1.011e-3
-1.888, 1.011e-3
-1.889, 1.011e-3
-1.890, 1.011e-3
-1.891, 1.011e-3
-1.892, 1.011e-3
-1.893, 1.011e-3
-1.894, 1.011e-3
-1.895, 1.011e-3
-1.896, 1.011e-3
-1.897, 1.011e-3
-1.898, 1.011e-3
-1.899, 1.011e-3
