Potential V vs RHE, Current mA cm-2
0.05339999999999995,0.017160448067362895
0.05239999999999995,0.01039529863140829
0.051399999999999946,0.006337906623395365
0.050399999999999945,0.003611757948555439
0.049399999999999944,0.0014316878354634173
0.04839999999999994,-0.000502222511452088
0.04739999999999994,-0.0023413472012766352
0.04639999999999994,-0.0041691542007022625
0.04539999999999994,-0.005830025266743816
0.04439999999999994,-0.007304154441203185
0.04339999999999994,-0.008631153640476587
0.04239999999999994,-0.01001332658044473
0.04139999999999994,-0.011413890767311117
0.040399999999999936,-0.012733816410085195
0.039399999999999935,-0.013983006487866021
0.038399999999999934,-0.015123263795557243
0.03739999999999993,-0.016226738609451972
0.03639999999999993,-0.017457537440334552
0.03539999999999993,-0.01853271802823198
0.03439999999999993,-0.019565457277133456
0.03339999999999993,-0.02055575518703898
0.03239999999999993,-0.021602641548939108
0.03139999999999993,-0.02270611636283384
0.030399999999999927,-0.023696414272739365
0.029399999999999926,-0.024601829504652988
0.028399999999999925,-0.025507244736566608
0.027399999999999924,-0.026426807081478886
0.026399999999999924,-0.02743125210438306
0.025399999999999923,-0.028393255788291286
0.024399999999999922,-0.02922793545521166
0.02339999999999992,-0.030034320896134725
0.02239999999999992,-0.0308690005630551
0.02139999999999992,-0.031788562907967374
0.020399999999999918,-0.032637389687886396
0.019399999999999917,-0.03340133378981351
0.018399999999999916,-0.034193572117737936
0.017399999999999916,-0.03498581044566235
0.016399999999999915,-0.03583463722558138
0.015399999999999914,-0.03671175823149771
0.014399999999999913,-0.037433260994428876
0.013399999999999912,-0.038154763757360044
0.012399999999999911,-0.03897529631128176
0.01139999999999991,-0.03976753463920618
0.01039999999999991,-0.04060221430612655
0.009399999999999908,-0.04128127573006177
0.008399999999999908,-0.04196033715399699
0.007399999999999907,-0.04272428125592411
0.006399999999999906,-0.04353066669684717
0.005399999999999905,-0.0443229050247716
0.004399999999999904,-0.045030260674704115
0.003399999999999903,-0.045666880759643376
0.002399999999999902,-0.046416677748571854
0.0013999999999999013,-0.04720891607649628
0.00039999999999990044,-0.04797286017842339
-0.0006000000000001005,-0.04866606871535726
-0.0016000000000001013,-0.049274394574299225
-0.0026000000000001022,-0.050024191563227696
-0.003600000000000103,-0.05081642989115212
-0.004600000000000104,-0.05153793265408329
-0.005600000000000105,-0.05225943541701446
-0.006600000000000106,-0.05286776127595642
-0.007600000000000107,-0.053575116925888934
-0.008600000000000108,-0.054395649479810654
-0.009600000000000108,-0.05513129935574049
-0.01060000000000011,-0.0557537723276811
-0.01160000000000011,-0.056446980864614964
-0.012600000000000111,-0.05721092496654208
-0.013600000000000112,-0.05798901618146785
-0.014600000000000113,-0.05869637183140037
-0.015600000000000114,-0.059304697690342335
-0.016600000000000115,-0.059955464888280255
-0.017600000000000116,-0.060606232086218174
-0.018600000000000116,-0.061440911753138545
-0.019600000000000117,-0.06221900296806432
-0.020600000000000118,-0.06285562305300357
-0.02160000000000012,-0.0635346844769388
-0.02260000000000012,-0.06425618723986996
-0.02360000000000012,-0.06506257268079305
-0.024600000000000122,-0.06582651678272017
-0.025600000000000123,-0.06651972531965401
-0.026600000000000124,-0.06715634540459328
-0.027600000000000124,-0.06793443661951905
-0.028600000000000125,-0.06871252783444483
-0.029600000000000126,-0.06953306038836657
-0.030600000000000127,-0.07019797469930313
-0.03160000000000013,-0.07089118323623698
-0.03260000000000013,-0.07168342156416141
-0.03360000000000013,-0.07248980700508448
-0.03460000000000002,-0.07329619244600755
-0.03560000000000002,-0.07401769520893872
-0.03660000000000002,-0.07475334508486854
-0.03760000000000002,-0.07553143629979431
-0.03860000000000002,-0.07640855730571063
-0.039600000000000024,-0.0772149427466337
-0.040600000000000025,-0.07800718107455813
-0.041600000000000026,-0.07868624249849335
-0.04260000000000003,-0.07950677505241506
-0.04360000000000003,-0.0804121902843287
-0.04460000000000003,-0.08126101706424771
-0.04560000000000003,-0.08205325539217213
-0.04660000000000003,-0.0828030523811006
-0.04760000000000003,-0.08358114359602638
-0.04860000000000003,-0.08448655882793998
-0.04960000000000003,-0.08536367983385632
-0.050600000000000034,-0.08618421238777803
-0.051600000000000035,-0.0869905978287011
-0.052600000000000036,-0.08774039481762959
-0.053600000000000037,-0.08868825138853914
-0.05460000000000004,-0.08957951950745412
-0.05560000000000004,-0.09044249340037179
-0.05660000000000004,-0.09129132018029082
-0.05760000000000004,-0.09212599984721119
-0.05860000000000004,-0.09307385641812077
-0.05960000000000004,-0.09405000721502763
-0.06060000000000004,-0.09491298110794531
-0.061600000000000044,-0.09577595500086299
-0.06260000000000004,-0.09666722311977795
-0.06360000000000005,-0.09765752102968349
-0.06460000000000005,-0.09864781893958902
-0.06560000000000005,-0.09949664571950805
-0.06660000000000005,-0.10037376672542435
-0.06760000000000005,-0.10129332907033663
-0.06860000000000005,-0.1022977740932408
-0.06960000000000005,-0.10331636622914364
-0.07060000000000005,-0.10423592857405589
-0.07160000000000005,-0.10514134380596953
-0.07260000000000005,-0.1061174946028764
-0.07360000000000005,-0.10709364539978329
-0.07460000000000006,-0.10819712021367801
-0.07560000000000006,-0.1091732710105849
-0.07660000000000006,-0.11009283335549715
-0.07760000000000006,-0.11106898415240402
-0.07860000000000006,-0.11214416474030146
-0.07960000000000006,-0.1131910511022016
-0.08060000000000006,-0.11419549612510577
-0.08160000000000006,-0.11514335269601533
-0.08260000000000006,-0.11617609194491682
-0.08360000000000006,-0.11733615521080615
-0.08460000000000006,-0.11842548291170223
-0.08560000000000006,-0.119486516386601
-0.08660000000000007,-0.12044852007050923
-0.08760000000000007,-0.12146711220641206
-0.08860000000000007,-0.1226271754723014
-0.08960000000000007,-0.12374479739919475
-0.09060000000000007,-0.12481997798709218
-0.09160000000000007,-0.12579612878399907
-0.09260000000000007,-0.12681472091990187
-0.09360000000000007,-0.1280030784117885
-0.09460000000000007,-0.1291772887906765
-0.09560000000000007,-0.13023832226557527
-0.09660000000000007,-0.13134179707947
-0.09760000000000008,-0.13237453632837148
-0.09860000000000008,-0.1335911880462554
-0.09960000000000008,-0.13475125131214474
-0.10060000000000008,-0.13584057901304084
-0.10160000000000008,-0.1369299067139369
-0.10260000000000008,-0.13803338152783162
-0.10360000000000008,-0.13922173901971824
-0.10460000000000008,-0.14048083207659814
-0.10560000000000008,-0.14161260111649018
-0.10660000000000008,-0.1427443701563822
-0.10760000000000008,-0.1437346680662877
-0.10860000000000009,-0.14500790823616627
-0.10960000000000009,-0.14613967727605828
-0.11060000000000009,-0.14741291744593682
-0.11160000000000009,-0.14840321535584233
-0.11260000000000009,-0.1496764555257209
-0.11360000000000009,-0.1509496956955994
-0.11460000000000009,-0.15222293586547794
-0.11560000000000009,-0.15349617603535648
-0.11660000000000009,-0.15448647394526202
-0.1176000000000001,-0.15575971411514053
-0.1186000000000001,-0.15689148315503257
-0.1196000000000001,-0.1583061944548976
-0.1206000000000001,-0.15943796349478964
-0.1216000000000001,-0.16056973253468165
-0.1226000000000001,-0.1617015015745737
-0.1236000000000001,-0.16311621287443873
-0.1246000000000001,-0.16438945304431726
-0.1256000000000001,-0.1655212220842093
-0.1266000000000001,-0.1667944622540878
-0.1276000000000001,-0.16792623129397988
-0.1286000000000001,-0.1693409425938449
-0.1296000000000001,-0.17047271163373692
-0.1306000000000001,-0.17160448067362896
-0.1316000000000001,-0.172736249713521
-0.1326000000000001,-0.17400948988339954
-0.1336000000000001,-0.17528273005327805
-0.1346000000000001,-0.17655597022315658
-0.1356000000000001,-0.17782921039303512
-0.1366000000000001,-0.17910245056291366
-0.1376000000000001,-0.18023421960280567
-0.1386000000000001,-0.18164893090267073
-0.1396000000000001,-0.18306364220253574
-0.1406000000000001,-0.1843368823724143
-0.14160000000000011,-0.1854686514123063
-0.14260000000000012,-0.18660042045219835
-0.14360000000000012,-0.18801513175206336
-0.14460000000000012,-0.18942984305192842
-0.14560000000000012,-0.19070308322180693
-0.14660000000000012,-0.1919763233916855
-0.14760000000000012,-0.193249563561564
-0.14860000000000012,-0.19452280373144254
-0.14960000000000012,-0.19593751503130757
-0.15060000000000012,-0.1972107552011861
-0.15160000000000012,-0.19848399537106462
-0.15260000000000012,-0.19975723554094318
-0.15360000000000013,-0.2010304757108217
-0.15460000000000013,-0.20244518701068673
-0.15560000000000013,-0.2037184271805653
-0.15660000000000013,-0.20499166735044383
-0.15760000000000013,-0.20626490752032234
-0.15860000000000013,-0.2076796188201874
-0.15960000000000002,-0.2089528589900659
-0.16060000000000002,-0.21036757028993097
-0.16160000000000002,-0.2116408104598095
-0.16260000000000002,-0.21291405062968802
-0.16360000000000002,-0.21418729079956658
-0.16460000000000002,-0.2157434732294181
-0.16560000000000002,-0.21715818452928315
-0.16660000000000003,-0.21857289582914816
-0.16760000000000003,-0.21970466486904017
-0.16860000000000003,-0.22111937616890526
-0.16960000000000003,-0.22253408746877026
-0.17060000000000003,-0.22380732763864883
-0.17160000000000003,-0.2250805678085273
-0.17260000000000003,-0.22635380797840585
-0.17360000000000003,-0.2279099904082574
-0.17460000000000003,-0.2293247017081224
-0.17560000000000003,-0.23059794187800098
-0.17660000000000003,-0.23187118204787951
-0.17760000000000004,-0.23314442221775805
-0.17860000000000004,-0.23470060464760956
-0.17960000000000004,-0.23611531594747462
-0.18060000000000004,-0.23738855611735316
-0.18160000000000004,-0.2386617962872317
-0.18260000000000004,-0.2399350364571102
-0.18360000000000004,-0.24134974775697526
-0.18460000000000004,-0.2429059301868268
-0.18560000000000004,-0.24417917035670533
-0.18660000000000004,-0.24559388165657034
-0.18760000000000004,-0.2468671218264489
-0.18860000000000005,-0.2482818331263139
-0.18960000000000005,-0.24969654442617895
-0.19060000000000005,-0.251111255726044
-0.19160000000000005,-0.2523844958959225
-0.19260000000000005,-0.2537992071957876
-0.19360000000000005,-0.25507244736566614
-0.19460000000000005,-0.25662862979551765
-0.19560000000000005,-0.25790186996539616
-0.19660000000000005,-0.2591751101352747
-0.19760000000000005,-0.26058982143513976
-0.19860000000000005,-0.2620045327350048
-0.19960000000000006,-0.2634192440348699
-0.20060000000000006,-0.2648339553347349
-0.20160000000000006,-0.2661071955046134
-0.20260000000000006,-0.26752190680447846
-0.20360000000000006,-0.2689366181043435
-0.20460000000000006,-0.27049280053419505
-0.20560000000000006,-0.27190751183406003
-0.20660000000000006,-0.2731807520039386
-0.20760000000000006,-0.27445399217381716
-0.20860000000000006,-0.27586870347368214
-0.20960000000000006,-0.2774248859035337
-0.21060000000000006,-0.27883959720339874
-0.21160000000000007,-0.28025430850326377
-0.21260000000000007,-0.2815275486731423
-0.21360000000000007,-0.28294225997300737
-0.21460000000000007,-0.2844984424028589
-0.21560000000000007,-0.28591315370272397
-0.21660000000000007,-0.28732786500258894
-0.21760000000000007,-0.288742576302454
-0.21860000000000007,-0.290157287602319
-0.21960000000000007,-0.2917134700321706
-0.22060000000000007,-0.2932696524620221
-0.22160000000000007,-0.2946843637618871
-0.22260000000000008,-0.2959576039317657
-0.22360000000000008,-0.29751378636161724
-0.22460000000000008,-0.29906996879146874
-0.22560000000000008,-0.3004846800913338
-0.22660000000000008,-0.30204086252118534
-0.22760000000000008,-0.3034555738210504
-0.22860000000000008,-0.30487028512091535
-0.22960000000000008,-0.30656793868075344
-0.23060000000000008,-0.3079826499806185
-0.23160000000000008,-0.3093973612804835
-0.23260000000000008,-0.3108120725803486
-0.23360000000000009,-0.31236825501020005
-0.2346000000000001,-0.31406590857003813
-0.2356000000000001,-0.3156220909998897
-0.2366000000000001,-0.3170368022997547
-0.2376000000000001,-0.3185929847296063
-0.2386000000000001,-0.32014916715945774
-0.2396000000000001,-0.3218468207192958
-0.2406000000000001,-0.3234030031491474
-0.2416000000000001,-0.3248177144490124
-0.2426000000000001,-0.326373896878864
-0.2436000000000001,-0.32807155043870195
-0.2446000000000001,-0.32976920399854004
-0.2456000000000001,-0.33146685755837807
-0.2466000000000001,-0.33302303998822963
-0.2476000000000001,-0.3345792224180812
-0.2486000000000001,-0.33613540484793275
-0.2496000000000001,-0.3379745295377573
-0.2506000000000001,-0.3396721830975953
-0.2516000000000001,-0.34136983665743337
-0.2526000000000001,-0.3429260190872849
-0.2536000000000001,-0.34462367264712296
-0.2546000000000001,-0.3464627973369475
-0.2556000000000001,-0.34816045089678554
-0.2566000000000001,-0.3498581044566236
-0.2576000000000001,-0.35141428688647514
-0.2586000000000001,-0.35311194044631317
-0.2596000000000001,-0.35495106513613767
-0.2606000000000001,-0.3567901898259622
-0.2616000000000001,-0.3586293145157868
-0.2626000000000001,-0.36018549694563834
-0.2636000000000001,-0.3620246216354629
-0.2646000000000001,-0.36386374632528745
-0.2656000000000001,-0.3655613998851255
-0.2666000000000001,-0.3672590534449635
-0.2676000000000001,-0.36909817813478807
-0.2686000000000001,-0.37079583169462615
-0.2696000000000001,-0.3727764275144372
-0.2706000000000001,-0.37461555220426174
-0.2716000000000001,-0.37631320576409977
-0.2726000000000001,-0.37815233045392427
-0.2736000000000001,-0.3799914551437488
-0.2746000000000001,-0.38197205096355985
-0.2756000000000001,-0.3838111756533844
-0.2766000000000001,-0.38565030034320896
-0.2776000000000001,-0.387347953903047
-0.2786000000000001,-0.3893285497228581
-0.2796000000000001,-0.3913091455426691
-0.2806000000000001,-0.39314827023249366
-0.28160000000000013,-0.3947044526623452
-0.28260000000000013,-0.3965435773521698
-0.28360000000000013,-0.39838270204199433
-0.2846,-0.40036329786180536
-0.2856,-0.4023438936816164
-0.2866,-0.404183018371441
-0.2876,-0.40602214306126555
-0.2886,-0.4080027388810766
-0.2896,-0.40998333470088766
-0.2906,-0.4119639305206987
-0.2916,-0.41380305521052324
-0.2926,-0.4156421799003478
-0.2936,-0.4176227757201588
-0.29460000000000003,-0.4197448426699564
-0.29560000000000003,-0.42158396735978093
-0.29660000000000003,-0.4234230920496055
-0.29760000000000003,-0.42526221673943004
-0.29860000000000003,-0.42724281255924107
-0.29960000000000003,-0.42922340837905215
-0.30060000000000003,-0.4312040041988632
-0.30160000000000003,-0.43318460001867426
-0.30260000000000004,-0.4350237247084988
-0.30360000000000004,-0.4370043205283098
-0.30460000000000004,-0.4391263874781074
-0.30560000000000004,-0.4411069832979185
-0.30660000000000004,-0.44308757911772945
-0.30760000000000004,-0.444926703807554
-0.30860000000000004,-0.4469072996273651
-0.30960000000000004,-0.4490293665771626
-0.31060000000000004,-0.45100996239697366
-0.31160000000000004,-0.45299055821678474
-0.31260000000000004,-0.4549711540365957
-0.31360000000000005,-0.4569517498564068
-0.31460000000000005,-0.4592152879361909
-0.31560000000000005,-0.46119588375600196
-0.31660000000000005,-0.46317647957581304
-0.31760000000000005,-0.4650156042656376
-0.31860000000000005,-0.4671376712154351
-0.31960000000000005,-0.4692597381652327
-0.32060000000000005,-0.4713818051150302
-0.32160000000000005,-0.47322092980485475
-0.32260000000000005,-0.47520152562466583
-0.32360000000000005,-0.47718212144447686
-0.32460000000000006,-0.4793041883942744
-0.32560000000000006,-0.48142625534407196
-0.32660000000000006,-0.48340685116388304
-0.32760000000000006,-0.4852459758537076
-0.32860000000000006,-0.4873680428035051
-0.32960000000000006,-0.48949010975330265
-0.33060000000000006,-0.49161217670310015
-0.33160000000000006,-0.4937342436528978
-0.33260000000000006,-0.4957148394727089
-0.33360000000000006,-0.49769543529251986
-0.33460000000000006,-0.4999589733723039
-0.33560000000000006,-0.5020810403221014
-0.33660000000000007,-0.5040616361419126
-0.33760000000000007,-0.5061837030917101
-0.33860000000000007,-0.5081642989115212
-0.33960000000000007,-0.5104278369913052
-0.34060000000000007,-0.5125499039411028
-0.34160000000000007,-0.5146719708909003
-0.34260000000000007,-0.5166525667107114
-0.34360000000000007,-0.518774633660509
-0.3446000000000001,-0.521038171740293
-0.3456000000000001,-0.5233017098200771
-0.3466000000000001,-0.5254237767698746
-0.34759999999999996,-0.5274043725896858
-0.3486000000000001,-0.5295264395394833
-0.34959999999999997,-0.5319314487492538
-0.3506000000000001,-0.5340535156990515
-0.35159999999999997,-0.5361755826488489
-0.3526000000000001,-0.538439120728633
-0.35359999999999997,-0.5405611876784305
-0.3546000000000001,-0.5429661968882011
-0.35559999999999997,-0.5453712060979717
-0.3566000000000001,-0.5474932730477692
-0.3576,-0.5496153399975668
-0.3586000000000001,-0.5520203492073373
-0.3596,-0.5544253584171079
-0.3606000000000001,-0.5568303676268785
-0.3616,-0.5590939057066625
-0.3626000000000001,-0.5613574437864466
-0.3636,-0.5637624529962171
-0.3646000000000001,-0.5663089333359742
-0.3656,-0.5688554136757313
-0.3666000000000001,-0.5711189517555153
-0.3676,-0.5735239609652859
-0.3686000000000001,-0.576070441305043
-0.3696,-0.5786169216447999
-0.3706000000000001,-0.5813048731145436
-0.3716,-0.5839928245842871
-0.3726000000000001,-0.5863978337940576
-0.3736,-0.5889443141338148
-0.3746000000000001,-0.5914907944735719
-0.3756,-0.5943202170733018
-0.3766000000000001,-0.5970081685430455
-0.3776,-0.5994131777528161
-0.3786000000000001,-0.6021011292225595
-0.3796,-0.6050720229522761
-0.3806000000000001,-0.6079014455520062
-0.3816,-0.6107308681517364
-0.3826000000000001,-0.6134188196214798
-0.3836,-0.61624824222121
-0.3846000000000001,-0.6190776648209401
-0.3856,-0.6220485585506567
-0.3866000000000001,-0.6250194522803731
-0.3876,-0.6279903460100897
-0.3886000000000001,-0.6311027108697929
-0.3896,-0.634215075729496
-0.3906000000000001,-0.6374689117191855
-0.3916,-0.6405812765788885
-0.3926000000000001,-0.6436936414385916
-0.3936,-0.6469474774282812
-0.3946000000000001,-0.6503427845479574
-0.3956,-0.6538795627976199
-0.3966000000000001,-0.6571333987873096
-0.3976,-0.6606701770369722
-0.3986000000000001,-0.6640654841566482
-0.3996,-0.6677437335362972
-0.4006000000000001,-0.6715634540459329
-0.4016,-0.675241703425582
-0.4026000000000001,-0.6789199528052311
-0.4036,-0.6827396733148667
-0.4046000000000001,-0.6865593938245023
-0.4056,-0.6908035277240974
-0.40660000000000013,-0.6947647193637195
-0.4076,-0.6987259110033417
-0.40860000000000013,-0.7028285737729503
-0.4096,-0.7069312365425588
-0.41060000000000013,-0.711458312702127
-0.4116,-0.7158439177317085
-0.41260000000000013,-0.7200880516313036
-0.4136,-0.7246151277908718
-0.41460000000000014,-0.7292836750804264
-0.4156,-0.7340936934999676
-0.41660000000000014,-0.7389037119195087
-0.4176,-0.7435722592090632
-0.41860000000000014,-0.7485237487585908
-0.41960000000000003,-0.7536167094381051
-0.42060000000000014,-0.7588511412476057
-0.42160000000000003,-0.7642270441870929
-0.42260000000000014,-0.7697444182565665
-0.42360000000000003,-0.774978850066067
-0.42460000000000014,-0.7804962241355408
-0.42560000000000003,-0.7862965404649873
-0.42660000000000015,-0.7922383279244205
-0.42760000000000004,-0.7980386442538671
-0.42860000000000015,-0.8039804317133004
-0.42960000000000004,-0.8102051614327065
-0.43060000000000015,-0.8165713622820991
-0.43160000000000004,-0.8227960920015054
-0.43260000000000015,-0.829162292850898
-0.43360000000000004,-0.8355284937002907
-0.43460000000000015,-0.8423191079396429
-0.43560000000000004,-0.8492511933089816
-0.43660000000000015,-0.8560418075483337
-0.43760000000000004,-0.8628324217876858
-0.43860000000000016,-0.8697645071570246
-0.43960000000000005,-0.8769795347863362
-0.44060000000000016,-0.8846189758056074
