Potential V vs RHE, Current mA cm-2
0.013299999999999867,8.89570465355135
0.012299999999999978,6.714219829159464
0.011299999999999866,4.578005766363259
0.010299999999999976,2.4403769922671885
0.009299999999999864,0.3467457395969205
0.008299999999999974,-1.5717442541500557
0.007299999999999862,-3.317497998183511
0.006299999999999972,-4.9302688800296535
0.00529999999999986,-6.414301033588076
0.0042999999999999705,-7.984630576438266
0.0032999999999998586,-9.55496011928846
0.0022999999999999687,-11.1677310011346
0.0012999999999998568,-12.869628694872238
0.00029999999999996696,-14.401761032626075
-0.000700000000000145,-15.830619445489761
-0.0017000000000000348,-17.103859615368293
-0.0027000000000001467,-18.23562865526032
-0.0037000000000000366,-19.452280373144255
-0.0047000000000001485,-20.683079204026836
-0.005700000000000038,-22.027054938898623
-0.00670000000000015,-23.47006046476096
-0.00770000000000004,-24.771594860636792
-0.008700000000000152,-26.002393691519377
-0.009700000000000042,-27.049280053419505
-0.010700000000000154,-28.05372507632368
-0.011700000000000044,-29.100611438223805
-0.012700000000000156,-30.10505646112798
-0.013700000000000045,-31.23682550102001
-0.014700000000000157,-32.41103587990799
-0.015700000000000047,-33.54280491980002
-0.01670000000000016,-34.632132620696105
-0.01770000000000005,-35.594136304604326
-0.01870000000000016,-36.47125731052064
-0.01970000000000005,-37.291789864442364
-0.020700000000000163,-38.16891087035869
-0.021700000000000053,-39.130914554266916
-0.022700000000000164,-40.092918238175145
-0.023700000000000054,-41.139804600075266
-0.024700000000000166,-42.087661170984845
-0.025700000000000056,-42.96478217690117
-0.026700000000000168,-43.70043205283099
-0.027700000000000058,-44.45022904175945
-0.02870000000000017,-45.18587891768927
-0.02970000000000006,-46.062999923605595
-0.03070000000000017,-47.02500360751382
-0.03170000000000006,-48.029448630417996
-0.03270000000000017,-48.97730520132757
-0.03370000000000006,-49.85442620724389
-0.034700000000000175,-50.547634744177756
-0.035700000000000065,-51.17010771611838
-0.03670000000000018,-51.86331625305225
-0.03770000000000007,-52.59896612898206
-0.03870000000000018,-53.518528473894335
-0.03970000000000007,-54.43809081880661
-0.04070000000000018,-55.400094502714836
-0.04170000000000007,-56.26306839563251
-0.04270000000000018,-56.97042404556503
-0.04370000000000007,-57.62119124350295
-0.044700000000000184,-58.27195844144086
-0.045700000000000074,-58.92272563937878
-0.046700000000000186,-59.757405306299155
-0.047700000000000076,-60.63452631221547
-0.04870000000000019,-61.53994154412909
-0.04970000000000008,-62.33217987205352
-0.05070000000000019,-63.02538840898739
-0.05170000000000008,-63.633714267929356
-0.05270000000000019,-64.19959878787537
-0.05370000000000008,-64.82207175981598
-0.05470000000000019,-65.60016297474175
-0.05570000000000008,-66.47728398065809
-0.056700000000000195,-67.39684632557035
-0.057700000000000085,-68.25982021848802
-0.058700000000000196,-69.0096172074165
-0.059700000000000086,-69.61794306635846
-0.0607000000000002,-70.14138624730852
-0.06170000000000009,-70.79215344524643
-0.0627000000000002,-71.48536198218031
-0.06370000000000009,-72.36248298809663
-0.0647000000000002,-73.32448667200485
-0.06570000000000009,-74.20160767792116
-0.0667000000000002,-74.97969889284694
-0.0677000000000001,-75.71534876877676
-0.0687000000000002,-76.38026307971333
-0.0697000000000001,-76.94614759965934
-0.07070000000000021,-77.59691479759726
-0.0717000000000001,-78.38915312552167
-0.07270000000000021,-79.2945683574353
-0.0737000000000001,-80.17168936335163
-0.07470000000000021,-80.90733923928146
-0.0757000000000001,-81.57225355021802
-0.07670000000000021,-82.18057940915998
-0.0777000000000001,-82.746463929106
-0.07870000000000021,-83.43967246603985
-0.0797000000000001,-84.23191079396429
-0.08070000000000022,-85.09488468688197
-0.0817000000000001,-85.97200569279828
-0.08270000000000022,-86.84912669871461
-0.08370000000000011,-87.58477657464444
-0.08470000000000022,-88.19310243358639
-0.08570000000000011,-88.7589869535324
-0.08670000000000022,-89.50878394246087
-0.08770000000000011,-90.24443381839069
-0.08870000000000022,-90.99423080731917
-0.08970000000000011,-91.72988068324898
-0.09070000000000022,-92.50797189817473
-0.09170000000000011,-93.25776888710321
-0.09270000000000023,-93.95097742403709
-0.09370000000000012,-94.55930328297906
-0.09470000000000023,-95.18177625491967
-0.09570000000000012,-95.87498479185354
-0.09670000000000023,-96.69551734577524
-0.09770000000000012,-97.57263835169158
-0.09870000000000023,-98.4497593576079
-0.09970000000000012,-99.27029191152963
-0.10070000000000023,-99.97764756146215
-0.10170000000000012,-100.58597342040412
-0.10270000000000024,-101.15185794035013
-0.10370000000000013,-101.71774246029614
-0.10470000000000024,-102.41095099723
-0.10570000000000013,-103.16074798615847
-0.10670000000000024,-104.06616321807209
-0.10770000000000013,-104.90084288499246
-0.10870000000000024,-105.50916874393444
-0.10970000000000013,-106.0326119248845
-0.11070000000000024,-106.51361376683862
-0.11170000000000013,-107.07949828678463
-0.11270000000000002,-107.73026548472255
-0.11370000000000013,-108.60738649063886
-0.11470000000000002,-109.52694883555114
-0.11570000000000014,-110.34748138947285
-0.11670000000000003,-111.05483703940537
-0.11770000000000014,-111.5358388813595
-0.11870000000000003,-112.01684072331359
-0.11970000000000014,-112.48369545226906
-0.12070000000000003,-113.00713863321914
-0.12170000000000014,-113.71449428315165
-0.12270000000000003,-114.4925854980774
-0.12370000000000014,-115.32726516499778
-0.12470000000000003,-116.14779771891952
-0.12570000000000014,-116.85515336885203
-0.12670000000000003,-117.42103788879804
-0.12770000000000015,-117.81715705276027
-0.12870000000000004,-118.24157044271978
-0.12970000000000015,-118.76501362366983
-0.13070000000000004,-119.4299279346064
-0.13170000000000015,-120.20801914953216
-0.13270000000000004,-120.95781613846064
-0.13370000000000015,-121.60858333639854
-0.13470000000000004,-122.17446785634456
-0.13570000000000015,-122.61302835930273
-0.13670000000000004,-123.05158886226087
-0.13770000000000016,-123.532590704215
-0.13870000000000005,-124.14091656315696
-0.13970000000000016,-124.83412510009084
-0.14070000000000005,-125.48489229802875
-0.14170000000000016,-126.05077681797478
-0.14270000000000005,-126.44689598193698
-0.14370000000000016,-126.80057380690324
-0.14470000000000005,-127.14010451887084
-0.14570000000000016,-127.62110636082497
-0.14670000000000005,-128.144549541775
-0.14770000000000016,-128.8094638527116
-0.14870000000000005,-129.50267238964545
-0.14970000000000017,-130.1534395875834
-0.15070000000000006,-130.67688276853346
-0.15170000000000017,-131.07300193249566
-0.15270000000000006,-131.37009130546733
-0.15370000000000017,-131.80865180842545
-0.15470000000000006,-132.24721231138363
-0.15570000000000017,-132.7706554923337
-0.15670000000000006,-133.3365400122797
-0.15770000000000017,-133.94486587122168
-0.15870000000000006,-134.46830905217172
-0.15970000000000018,-134.9068695551299
-0.16070000000000007,-135.26054738009617
-0.16170000000000018,-135.65666654405837
-0.16270000000000007,-136.03863859502192
-0.16370000000000018,-136.60452311496792
-0.16470000000000007,-137.2694374259045
-0.16570000000000018,-137.83532194585052
-0.16670000000000007,-138.40120646579655
-0.16770000000000018,-138.8397669687547
-0.16870000000000007,-139.13685634172634
-0.16970000000000018,-139.44809282769666
-0.17070000000000007,-139.80177065266292
-0.17170000000000019,-140.2686253816184
-0.17270000000000008,-140.89109835355902
-0.1737000000000002,-141.61260111649017
-0.17470000000000008,-142.17848563643616
-0.1757000000000002,-142.7443701563822
-0.17670000000000008,-143.0273124163552
-0.1777000000000002,-143.16878354634173
-0.17870000000000008,-143.4517258063147
-0.1797000000000002,-143.87613919627424
-0.18070000000000008,-144.44202371622026
-0.1817000000000002,-145.00790823616626
-0.18270000000000008,-145.57379275611228
-0.1837000000000002,-145.85673501608528
-0.1847000000000001,-146.1396772760583
-0.1857000000000002,-146.4226195360313
-0.1867000000000001,-146.8470329259908
-0.1877000000000002,-147.4129174459368
-0.1887000000000001,-147.83733083589632
-0.1897000000000002,-148.40321535584232
-0.1907000000000001,-148.82762874580186
-0.1917000000000001,-149.1105710057749
-0.19269999999999998,-149.53498439573437
-0.1937000000000001,-149.6764555257209
-0.19469999999999998,-149.95939778569388
-0.1957000000000001,-150.24234004566688
-0.19669999999999999,-150.66675343562642
-0.1977000000000001,-151.09116682558593
-0.1987,-151.65705134553193
-0.1997000000000001,-152.22293586547795
-0.2007,-152.50587812545095
-0.2017000000000001,-152.78882038542397
-0.2027,-152.93029151541046
-0.2037000000000001,-153.07176264539694
-0.2047,-153.49617603535648
-0.2057000000000001,-153.920589425316
-0.2067,-154.486473945262
-0.2077000000000001,-154.9108873352215
-0.2087,-155.19382959519453
-0.2097000000000001,-155.47677185516753
-0.2107,-155.61824298515404
-0.2117000000000001,-156.04265637511355
-0.2127,-156.32559863508658
-0.2137000000000001,-156.75001202504606
-0.2147,-157.17442541500557
-0.2157000000000001,-157.7403099349516
-0.2167,-158.02325219492457
-0.21770000000000012,-158.3061944548976
-0.2187,-158.4476655848841
-0.21970000000000012,-158.5891367148706
-0.2207,-158.87207897484362
-0.22170000000000012,-159.01355010483013
-0.2227,-159.43796349478964
-0.22370000000000012,-159.86237688474912
-0.2247,-160.14531914472215
-0.22570000000000012,-160.5697325346817
-0.2267,-160.71120366466818
-0.22770000000000012,-160.8526747946547
-0.22870000000000001,-161.1356170546277
-0.22970000000000013,-161.41855931460069
-0.23070000000000002,-161.84297270456022
-0.23170000000000013,-162.12591496453322
-0.23270000000000002,-162.6917994844792
-0.23370000000000013,-162.97474174445222
-0.23470000000000002,-163.11621287443873
-0.23570000000000013,-163.11621287443873
-0.23670000000000002,-163.11621287443873
-0.2376999999999999,-163.25768400442522
-0.23870000000000002,-163.68209739438475
-0.2396999999999999,-164.10651078434424
-0.24070000000000003,-164.38945304431726
-0.24169999999999991,-164.67239530429026
-0.24270000000000003,-164.81386643427678
-0.24369999999999992,-164.81386643427678
-0.24470000000000003,-164.9553375642633
-0.24569999999999992,-165.09680869424977
-0.24670000000000003,-165.3797509542228
-0.24769999999999992,-165.6626932141958
-0.24870000000000003,-165.94563547416882
-0.24969999999999992,-166.0871066041553
-0.25070000000000003,-166.22857773414182
-0.2516999999999999,-166.3700488641283
-0.25270000000000004,-166.51151999411482
-0.2536999999999999,-166.51151999411482
-0.25470000000000004,-166.79446225408785
-0.2556999999999999,-166.93593338407433
-0.25670000000000004,-167.36034677403384
-0.25769999999999993,-167.6432890340068
-0.25870000000000004,-167.92623129397984
-0.25969999999999993,-168.06770242396635
-0.26070000000000004,-168.06770242396635
-0.26169999999999993,-167.92623129397984
-0.26270000000000004,-167.92623129397984
-0.26369999999999993,-168.20917355395284
-0.26470000000000005,-168.49211581392586
-0.26569999999999994,-168.77505807389886
-0.26670000000000005,-169.0580003338719
-0.26769999999999994,-169.19947146385837
-0.26870000000000005,-169.0580003338719
-0.26969999999999994,-169.0580003338719
-0.27070000000000005,-169.0580003338719
-0.27169999999999994,-169.19947146385837
-0.27270000000000005,-169.48241372383137
-0.27369999999999994,-169.7653559838044
-0.27470000000000006,-170.0482982437774
-0.27569999999999995,-170.0482982437774
-0.27670000000000006,-170.0482982437774
-0.27769999999999995,-169.9068271137909
-0.27870000000000006,-169.9068271137909
-0.27969999999999995,-170.0482982437774
-0.28070000000000006,-170.18976937376394
-0.28169999999999995,-170.61418276372342
-0.28270000000000006,-170.75565389370993
-0.28369999999999995,-170.89712502369645
-0.28470000000000006,-170.75565389370993
-0.28569999999999995,-170.61418276372342
-0.28670000000000007,-170.47271163373694
-0.28769999999999996,-170.47271163373694
-0.28870000000000007,-170.75565389370993
-0.28969999999999996,-170.89712502369645
-0.29070000000000007,-171.18006728366944
-0.29169999999999996,-171.18006728366944
-0.29270000000000007,-171.18006728366944
-0.29369999999999996,-170.89712502369645
-0.2947000000000001,-170.75565389370993
-0.29569999999999996,-170.75565389370993
-0.2967000000000001,-170.75565389370993
-0.29769999999999996,-170.89712502369645
-0.2987000000000001,-171.03859615368293
-0.29969999999999997,-171.03859615368293
-0.3007000000000001,-170.89712502369645
-0.30169999999999997,-170.75565389370993
-0.3027000000000001,-170.61418276372342
-0.30369999999999997,-170.61418276372342
-0.3047000000000001,-170.61418276372342
-0.30569999999999997,-170.75565389370993
-0.3067000000000001,-170.75565389370993
-0.3077,-170.75565389370993
-0.3087000000000001,-170.75565389370993
-0.3097,-170.61418276372342
-0.3107000000000001,-170.47271163373694
-0.3117,-170.33124050375042
-0.3127000000000001,-170.18976937376394
-0.3137,-170.18976937376394
-0.3147000000000001,-170.18976937376394
-0.3157,-170.33124050375042
-0.3167000000000001,-170.33124050375042
-0.3177,-170.33124050375042
-0.3187000000000001,-170.18976937376394
-0.3197,-170.0482982437774
-0.3207000000000001,-170.0482982437774
-0.3217,-170.0482982437774
-0.3227000000000001,-170.18976937376394
-0.3237,-170.33124050375042
-0.3247000000000001,-170.18976937376394
-0.3257,-170.0482982437774
-0.3267000000000001,-169.9068271137909
-0.3277,-169.6238848538179
-0.3287000000000001,-169.6238848538179
-0.3297,-169.6238848538179
-0.3307000000000001,-169.6238848538179
-0.3317,-169.7653559838044
-0.3327000000000001,-169.7653559838044
-0.3337,-169.7653559838044
-0.3347000000000001,-169.7653559838044
-0.3357,-169.48241372383137
-0.3367000000000001,-169.3409425938449
-0.3377,-169.3409425938449
-0.3387000000000001,-169.3409425938449
-0.3397,-169.48241372383137
-0.3407000000000001,-169.6238848538179
-0.3417,-169.6238848538179
-0.3427000000000001,-169.6238848538179
-0.3437,-169.3409425938449
-0.3447000000000001,-169.19947146385837
-0.3457,-169.0580003338719
-0.3467000000000001,-169.19947146385837
-0.3477,-169.19947146385837
-0.3487000000000001,-169.3409425938449
-0.3497,-169.48241372383137
-0.3507000000000001,-169.48241372383137
-0.3517,-169.3409425938449
-0.3527000000000001,-169.3409425938449
-0.3537,-169.19947146385837
-0.3547000000000001,-169.19947146385837
-0.3557,-169.3409425938449
-0.35670000000000013,-169.48241372383137
-0.3577,-169.6238848538179
-0.35870000000000013,-169.7653559838044
-0.3597,-169.6238848538179
-0.36070000000000013,-169.6238848538179
-0.3617,-169.48241372383137
-0.3626999999999999,-169.48241372383137
-0.3637,-169.6238848538179
-0.3646999999999999,-170.0482982437774
-0.3657,-170.18976937376394
-0.3666999999999999,-170.47271163373694
-0.3677,-170.47271163373694
-0.3686999999999999,-170.33124050375042
-0.36970000000000003,-170.33124050375042
-0.3706999999999999,-170.47271163373694
-0.37170000000000003,-170.61418276372342
-0.3726999999999999,-171.03859615368293
-0.37370000000000003,-171.32153841365593
-0.3746999999999999,-171.46300954364247
-0.37570000000000003,-171.46300954364247
-0.3766999999999999,-171.46300954364247
-0.37770000000000004,-171.46300954364247
-0.3786999999999999,-171.46300954364247
-0.37970000000000004,-171.74595180361547
-0.3806999999999999,-172.0288940635885
-0.38170000000000004,-172.31183632356147
-0.38269999999999993,-172.73624971352098
-0.38370000000000004,-172.87772084350746
-0.38469999999999993,-173.01919197349397
-0.38570000000000004,-173.01919197349397
-0.38669999999999993,-171.46300954364247
-0.38570000000000004,-167.07740451406085
-0.38469999999999993,-163.11621287443873
-0.38370000000000004,-159.43796349478964
-0.38269999999999993,-155.90118524512707
-0.38170000000000004,-152.36440699546444
-0.3806999999999999,-148.96909987578834
-0.37970000000000004,-145.43232162612577
-0.3786999999999999,-142.17848563643616
-0.37770000000000004,-139.05197366373446
-0.3766999999999999,-136.1801097250084
-0.37570000000000003,-133.37898135127566
-0.3746999999999999,-130.76176544652535
-0.37370000000000003,-128.10210820277908
-0.3726999999999999,-125.31512694204494
-0.37170000000000003,-122.57058702030677
-0.3706999999999999,-119.81189998556997
-0.36970000000000003,-117.25127253281424
-0.3686999999999999,-114.80382198404773
-0.3677,-112.58272524325962
-0.3666999999999999,-110.40406984146746
-0.3657,-108.21126732667666
-0.3646999999999999,-105.99017058588855
-0.3637,-103.68419116710854
-0.3626999999999999,-101.3640646353299
-0.3617,-99.05808521654988
-0.36070000000000013,-96.96431249274961
-0.3597,-94.99786378593721
-0.35870000000000013,-93.13044487011537
-0.3577,-91.24887884129487
-0.35670000000000013,-89.36731281247435
-0.3557,-87.41501121866061
-0.3547000000000001,-85.40612117285227
-0.3537,-83.43967246603985
-0.3527000000000001,-81.51566509822342
-0.3517,-79.7755701993894
-0.3507000000000001,-78.07791663955136
-0.3497,-76.50758709670117
-0.3487000000000001,-74.8523748758591
-0.3477,-73.0556915250305
-0.3467000000000001,-71.27315528720055
-0.3457,-69.39158925838004
-0.3447000000000001,-67.693935698542
-0.3437,-66.12360615569182
-0.3427000000000001,-64.68060062982947
-0.3417,-63.3366248949577
-0.3407000000000001,-61.89361936909536
-0.3397,-60.28084848724921
-0.3387000000000001,-58.66807760540307
-0.3377,-57.012865384560975
-0.3367000000000001,-55.442535841710786
-0.3357,-53.999530315848446
-0.3347000000000001,-52.74043725896857
-0.3337,-51.46719708909004
-0.3327000000000001,-50.1656626932142
-0.3317,-48.80753984534376
-0.3307000000000001,-47.32209298048547
-0.3297,-45.85079322862584
-0.3287000000000001,-44.36534636376755
-0.3277,-43.007223515897124
-0.3267000000000001,-41.74813045901723
-0.3257,-40.65880275812115
-0.3247000000000001,-39.51288660523048
-0.3237,-38.42355890433439
-0.3227000000000001,-37.122024508458566
-0.3217,-35.806342999584075
-0.3207000000000001,-34.377484586720385
-0.3197,-33.06180307784591
-0.3187000000000001,-31.84515135996197
-0.3177,-30.79826499806185
-0.3167000000000001,-29.793819975157668
-0.3157,-28.789374952253496
-0.3147000000000001,-27.65760591236147
-0.3137,-26.483395533473487
-0.3127000000000001,-25.210155363594954
-0.3117,-23.993503645711023
-0.3107000000000001,-22.904175944814945
-0.3097,-21.94217226090672
-0.3087000000000001,-21.022609915994444
-0.3077,-20.01816489309027
-0.3067000000000001,-19.01371987018609
-0.30569999999999997,-17.924392169290012
-0.3047000000000001,-16.835064468393938
-0.30369999999999997,-15.70329542850191
-0.3027000000000001,-14.69885040559773
-0.30169999999999997,-13.828802956180734
-0.3007000000000001,-12.99978213445982
-0.29969999999999997,-12.12831997374296
-0.2987000000000001,-11.255443101726232
-0.29769999999999996,-10.25241279012192
-0.2967000000000001,-9.205526428221793
-0.29569999999999996,-8.158640066321666
-0.2947000000000001,-7.111753704421539
-0.29369999999999996,-6.238876832404812
-0.29270000000000007,-5.453712060979717
-0.29169999999999996,-4.712403339850438
-0.29070000000000007,-3.927238568425342
-0.28969999999999996,-3.055776407708479
-0.28870000000000007,-2.095187435100119
-0.28769999999999996,-1.0925815368857679
-0.28670000000000007,-0.1330535977523067
-0.28569999999999995,0.7393281253094681
-0.28470000000000006,1.4373466806628774
-0.28369999999999995,2.0909433012005243
-0.28270000000000006,2.7898106833338523
-0.28169999999999995,3.5311194044631313
-0.28070000000000006,4.402581565179994
-0.27969999999999995,5.319314487492538
-0.27870000000000006,6.1907766482094
-0.27769999999999995,7.019797469930312
-0.27670000000000006,7.7186648520636405
-0.27569999999999995,8.372261472601286
-0.27470000000000006,8.983416754142983
-0.27369999999999994,9.680869424976446
-0.27270000000000005,10.509890246697358
-0.27169999999999994,11.33891106841827
-0.27070000000000005,12.254229279430946
-0.26969999999999994,13.039394050856043
-0.26870000000000005,13.736846721689506
-0.26769999999999994,14.345172580631472
