Potential V vs RHE, Current mA cm-2
0.013299999999999867,-0.1330535977523067
0.012299999999999978,-1.5717442541500557
0.011299999999999866,-2.794054817233447
0.010299999999999976,-3.884797229429391
0.009299999999999864,-4.887827541033701
0.008299999999999974,-5.80314575204638
0.007299999999999862,-6.632166573767292
0.006299999999999972,-7.4173313451923875
0.00529999999999986,-8.202496116617484
0.0042999999999999705,-8.85609273715513
0.0032999999999998586,-9.467248018696827
0.0022999999999999687,-10.034547249942705
0.0012999999999998568,-10.557990430892769
0.00029999999999996696,-11.037577561547016
-0.000700000000000145,-11.473308641905447
-0.0017000000000000348,-11.909039722263879
-0.0027000000000001467,-12.302329463626359
-0.0037000000000000366,-12.73806054398479
-0.0047000000000001485,-13.13135028534727
-0.005700000000000038,-13.523225315409885
-0.00670000000000015,-13.916515056772363
-0.00770000000000004,-14.217848563643619
-0.008700000000000152,-14.529085049613924
-0.009700000000000042,-14.783733083589633
-0.010700000000000154,-15.05252823056399
-0.011700000000000044,-15.264734925543747
-0.012700000000000156,-15.491088733522153
-0.013700000000000045,-15.660854089505953
-0.014700000000000157,-15.91550212348166
-0.015700000000000047,-16.141855931460068
-0.01670000000000016,-16.354062626439823
-0.01770000000000005,-16.53797509542228
-0.01870000000000016,-16.750181790402035
-0.01970000000000005,-16.962388485381787
-0.020700000000000163,-17.146300954364243
-0.021700000000000053,-17.2736249713521
-0.022700000000000164,-17.40094898833995
-0.023700000000000054,-17.48583166633185
-0.024700000000000166,-17.627302796318357
-0.025700000000000056,-17.75462681330621
-0.026700000000000168,-17.881950830294063
-0.027700000000000058,-18.009274847281915
-0.02870000000000017,-18.19318731626437
-0.02970000000000006,-18.320511333252224
-0.03070000000000017,-18.44783535024008
-0.03170000000000006,-18.53271802823198
-0.03270000000000017,-18.631747819222536
-0.03370000000000006,-18.716630497214435
-0.034700000000000175,-18.80151317520634
-0.035700000000000065,-18.843954514202288
-0.03670000000000018,-18.92883719219419
-0.03770000000000007,-19.01371987018609
-0.03870000000000018,-19.155191000172596
-0.03970000000000007,-19.2400736781645
-0.04070000000000018,-19.367397695152352
-0.04170000000000007,-19.49472171214021
-0.04270000000000018,-19.636192842126707
-0.04370000000000007,-19.763516859114564
-0.044700000000000184,-19.848399537106463
-0.045700000000000074,-19.93328221509837
-0.046700000000000186,-20.01816489309027
-0.047700000000000076,-20.01816489309027
-0.04870000000000019,-20.06060623208622
-0.04970000000000008,-20.10304757108217
-0.05070000000000019,-20.159636023076775
-0.05170000000000008,-20.202077362072725
-0.05270000000000019,-20.286960040064624
-0.05370000000000008,-20.286960040064624
-0.05470000000000019,-20.329401379060574
-0.05570000000000008,-20.329401379060574
-0.056700000000000195,-20.329401379060574
-0.057700000000000085,-20.371842718056527
-0.058700000000000196,-20.414284057052477
-0.059700000000000086,-20.456725396048434
-0.0607000000000002,-20.541608074040333
-0.06170000000000009,-20.683079204026836
-0.0627000000000002,-20.85284456001064
-0.06370000000000009,-20.93772723800254
-0.0647000000000002,-21.107492593986347
-0.06570000000000009,-21.2065223849769
-0.0667000000000002,-21.333846401964752
-0.0677000000000001,-21.376287740960702
-0.0687000000000002,-21.418729079956652
-0.0697000000000001,-21.461170418952605
-0.07070000000000021,-21.418729079956652
-0.0717000000000001,-21.418729079956652
-0.07270000000000021,-21.418729079956652
-0.0737000000000001,-21.376287740960702
-0.07470000000000021,-21.376287740960702
-0.0757000000000001,-21.376287740960702
-0.07670000000000021,-21.333846401964752
-0.0777000000000001,-21.333846401964752
-0.07870000000000021,-21.291405062968803
-0.0797000000000001,-21.248963723972853
-0.08070000000000022,-21.149933932982297
-0.0817000000000001,-21.107492593986347
-0.08270000000000022,-21.065051254990397
-0.08370000000000011,-21.065051254990397
-0.08470000000000022,-21.065051254990397
-0.08570000000000011,-21.149933932982297
-0.08670000000000022,-21.248963723972853
-0.08770000000000011,-21.291405062968803
-0.08870000000000022,-21.376287740960702
-0.08970000000000011,-21.461170418952605
-0.09070000000000022,-21.54605309694451
-0.09170000000000011,-21.58849443594046
-0.09270000000000023,-21.63093577493641
-0.09370000000000012,-21.63093577493641
-0.09470000000000023,-21.63093577493641
-0.09570000000000012,-21.67337711393236
-0.09670000000000023,-21.67337711393236
-0.09770000000000012,-21.67337711393236
-0.09870000000000023,-21.67337711393236
-0.09970000000000012,-21.729965565926964
-0.10070000000000023,-21.67337711393236
-0.10170000000000012,-21.63093577493641
-0.10270000000000024,-21.58849443594046
-0.10370000000000013,-21.503611757948562
-0.10470000000000024,-21.376287740960702
-0.10570000000000013,-21.291405062968803
-0.10670000000000024,-21.248963723972853
-0.10770000000000013,-21.149933932982297
-0.10870000000000024,-21.107492593986347
-0.10970000000000013,-21.065051254990397
-0.11070000000000024,-21.065051254990397
-0.11170000000000013,-21.065051254990397
-0.11270000000000002,-21.022609915994444
-0.11370000000000013,-21.022609915994444
-0.11470000000000002,-20.980168576998494
-0.11570000000000014,-20.93772723800254
-0.11670000000000003,-20.89528589900659
-0.11770000000000014,-20.85284456001064
-0.11870000000000003,-20.85284456001064
-0.11970000000000014,-20.89528589900659
-0.12070000000000003,-20.93772723800254
-0.12170000000000014,-20.980168576998494
-0.12270000000000003,-21.022609915994444
-0.12370000000000014,-21.022609915994444
-0.12470000000000003,-21.065051254990397
-0.12570000000000014,-21.022609915994444
-0.12670000000000003,-20.980168576998494
-0.12770000000000015,-20.93772723800254
-0.12870000000000004,-20.85284456001064
-0.12970000000000015,-20.810403221014692
-0.13070000000000004,-20.72552054302279
-0.13170000000000015,-20.683079204026836
-0.13270000000000004,-20.683079204026836
-0.13370000000000015,-20.626490752032236
-0.13470000000000004,-20.626490752032236
-0.13570000000000015,-20.584049413036283
-0.13670000000000004,-20.541608074040333
-0.13770000000000016,-20.499166735044383
-0.13870000000000005,-20.456725396048434
-0.13970000000000016,-20.456725396048434
-0.14070000000000005,-20.329401379060574
-0.14170000000000016,-20.286960040064624
-0.14270000000000005,-20.202077362072725
-0.14370000000000016,-20.159636023076775
-0.14470000000000005,-20.10304757108217
-0.14570000000000016,-20.06060623208622
-0.14670000000000005,-20.06060623208622
-0.14770000000000016,-20.01816489309027
-0.14870000000000005,-19.93328221509837
-0.14970000000000017,-19.848399537106463
-0.15070000000000006,-19.721075520118614
-0.15170000000000017,-19.636192842126707
-0.15270000000000006,-19.579604390132108
-0.15370000000000017,-19.579604390132108
-0.15470000000000006,-19.636192842126707
-0.15570000000000017,-19.721075520118614
-0.15670000000000006,-19.805958198110513
-0.15770000000000017,-19.890840876102416
-0.15870000000000006,-19.97572355409432
-0.15970000000000018,-20.06060623208622
-0.16070000000000007,-20.159636023076775
-0.16170000000000018,-20.244518701068674
-0.16270000000000007,-20.286960040064624
-0.16370000000000018,-20.371842718056527
-0.16470000000000007,-20.456725396048434
-0.16570000000000018,-20.499166735044383
-0.16670000000000007,-20.584049413036283
-0.16770000000000018,-20.626490752032236
-0.16870000000000007,-20.683079204026836
-0.16970000000000018,-20.72552054302279
-0.17070000000000007,-20.72552054302279
-0.17170000000000019,-20.683079204026836
-0.17270000000000008,-20.584049413036283
-0.1737000000000002,-20.541608074040333
-0.17470000000000008,-20.456725396048434
-0.1757000000000002,-20.329401379060574
-0.17670000000000008,-20.202077362072725
-0.1777000000000002,-20.159636023076775
-0.17870000000000008,-20.06060623208622
-0.1797000000000002,-19.97572355409432
-0.18070000000000008,-19.93328221509837
-0.1817000000000002,-19.890840876102416
-0.18270000000000008,-19.848399537106463
-0.1837000000000002,-19.763516859114564
-0.1847000000000001,-19.678634181122664
-0.1857000000000002,-19.579604390132108
-0.1867000000000001,-19.49472171214021
-0.1877000000000002,-19.452280373144255
-0.1887000000000001,-19.49472171214021
-0.1897000000000002,-19.636192842126707
-0.1907000000000001,-19.848399537106463
-0.1917000000000001,-20.06060623208622
-0.19269999999999998,-20.286960040064624
-0.1937000000000001,-20.499166735044383
-0.19469999999999998,-20.683079204026836
-0.1957000000000001,-20.810403221014692
-0.19669999999999999,-20.89528589900659
-0.1977000000000001,-20.93772723800254
-0.1987,-20.93772723800254
-0.1997000000000001,-20.93772723800254
-0.2007,-20.93772723800254
-0.2017000000000001,-20.93772723800254
-0.2027,-20.980168576998494
-0.2037000000000001,-21.022609915994444
-0.2047,-21.065051254990397
-0.2057000000000001,-21.065051254990397
-0.2067,-21.065051254990397
-0.2077000000000001,-21.065051254990397
-0.2087,-21.022609915994444
-0.2097000000000001,-20.980168576998494
-0.2107,-20.89528589900659
-0.2117000000000001,-20.85284456001064
-0.2127,-20.76796188201874
-0.2137000000000001,-20.72552054302279
-0.2147,-20.626490752032236
-0.2157000000000001,-20.683079204026836
-0.2167,-20.626490752032236
-0.21770000000000012,-20.584049413036283
-0.2187,-20.541608074040333
-0.21970000000000012,-20.456725396048434
-0.2207,-20.414284057052477
-0.22170000000000012,-20.329401379060574
-0.2227,-20.286960040064624
-0.22370000000000012,-20.244518701068674
-0.2247,-20.244518701068674
-0.22570000000000012,-20.202077362072725
-0.2267,-20.244518701068674
-0.22770000000000012,-20.244518701068674
-0.22870000000000001,-20.286960040064624
-0.22970000000000013,-20.286960040064624
-0.23070000000000002,-20.329401379060574
-0.23170000000000013,-20.286960040064624
-0.23270000000000002,-20.329401379060574
-0.23370000000000013,-20.329401379060574
-0.23470000000000002,-20.286960040064624
-0.23570000000000013,-20.286960040064624
-0.23670000000000002,-20.286960040064624
-0.2376999999999999,-20.286960040064624
-0.23870000000000002,-20.329401379060574
-0.2396999999999999,-20.371842718056527
-0.24070000000000003,-20.414284057052477
-0.24169999999999991,-20.414284057052477
-0.24270000000000003,-20.371842718056527
-0.24369999999999992,-20.329401379060574
-0.24470000000000003,-20.244518701068674
-0.24569999999999992,-20.159636023076775
-0.24670000000000003,-20.10304757108217
-0.24769999999999992,-20.01816489309027
-0.24870000000000003,-19.93328221509837
-0.24969999999999992,-19.848399537106463
-0.25070000000000003,-19.763516859114564
-0.2516999999999999,-19.678634181122664
-0.25270000000000004,-19.636192842126707
-0.2536999999999999,-19.537163051136158
-0.25470000000000004,-19.452280373144255
-0.2556999999999999,-19.367397695152352
-0.25670000000000004,-19.3249563561564
-0.25769999999999993,-19.2400736781645
-0.25870000000000004,-19.155191000172596
-0.25969999999999993,-19.155191000172596
-0.26070000000000004,-19.155191000172596
-0.26169999999999993,-19.155191000172596
-0.26270000000000004,-19.112749661176647
-0.26369999999999993,-19.056161209182044
-0.26470000000000005,-19.056161209182044
-0.26569999999999994,-19.01371987018609
-0.26670000000000005,-18.92883719219419
-0.26769999999999994,-18.88639585319824
-0.26870000000000005,-18.759071836210385
-0.26969999999999994,-18.674189158218486
-0.27070000000000005,-18.589306480226583
-0.27169999999999994,-18.53271802823198
-0.27270000000000005,-18.53271802823198
-0.27369999999999994,-18.53271802823198
-0.27470000000000006,-18.53271802823198
-0.27569999999999995,-18.53271802823198
-0.27670000000000006,-18.49027668923603
-0.27769999999999995,-18.49027668923603
-0.27870000000000006,-18.44783535024008
-0.27969999999999995,-18.40539401124413
-0.28070000000000006,-18.362952672248177
-0.28169999999999995,-18.320511333252224
-0.28270000000000006,-18.27806999425627
-0.28369999999999995,-18.27806999425627
-0.28470000000000006,-18.23562865526032
-0.28569999999999995,-18.23562865526032
-0.28670000000000007,-18.23562865526032
-0.28769999999999996,-18.19318731626437
-0.28870000000000007,-18.19318731626437
-0.28969999999999996,-18.15074597726842
-0.29070000000000007,-18.06586329927652
-0.29169999999999996,-17.966833508285966
-0.29270000000000007,-17.881950830294063
-0.29369999999999996,-17.797068152302163
-0.2947000000000001,-17.797068152302163
-0.29569999999999996,-17.839509491298113
-0.2967000000000001,-17.924392169290012
-0.29769999999999996,-18.06586329927652
-0.2987000000000001,-18.19318731626437
-0.29969999999999997,-18.362952672248177
-0.3007000000000001,-18.53271802823198
-0.30169999999999997,-18.674189158218486
-0.3027000000000001,-18.759071836210385
-0.30369999999999997,-18.80151317520634
-0.3047000000000001,-18.843954514202288
-0.30569999999999997,-18.843954514202288
-0.3067000000000001,-18.843954514202288
-0.3077,-18.843954514202288
-0.3087000000000001,-18.88639585319824
-0.3097,-18.88639585319824
-0.3107000000000001,-18.92883719219419
-0.3117,-18.88639585319824
-0.3127000000000001,-18.843954514202288
-0.3137,-18.80151317520634
-0.3147000000000001,-18.80151317520634
-0.3157,-18.759071836210385
-0.3167000000000001,-18.759071836210385
-0.3177,-18.759071836210385
-0.3187000000000001,-18.843954514202288
-0.3197,-18.843954514202288
-0.3207000000000001,-18.843954514202288
-0.3217,-18.843954514202288
-0.3227000000000001,-18.843954514202288
-0.3237,-18.843954514202288
-0.3247000000000001,-18.843954514202288
-0.3257,-18.88639585319824
-0.3267000000000001,-18.92883719219419
-0.3277,-19.01371987018609
-0.3287000000000001,-19.155191000172596
-0.3297,-19.2400736781645
-0.3307000000000001,-19.367397695152352
-0.3317,-19.49472171214021
-0.3327000000000001,-19.636192842126707
-0.3337,-19.763516859114564
-0.3347000000000001,-19.93328221509837
-0.3357,-20.01816489309027
-0.3367000000000001,-20.159636023076775
-0.3377,-20.244518701068674
-0.3387000000000001,-20.329401379060574
-0.3397,-20.414284057052477
-0.3407000000000001,-20.499166735044383
-0.3417,-20.584049413036283
-0.3427000000000001,-20.683079204026836
-0.3437,-20.76796188201874
-0.3447000000000001,-20.810403221014692
-0.3457,-20.85284456001064
-0.3467000000000001,-20.89528589900659
-0.3477,-20.89528589900659
-0.3487000000000001,-20.89528589900659
-0.3497,-20.89528589900659
-0.3507000000000001,-20.85284456001064
-0.3517,-20.810403221014692
-0.3527000000000001,-20.76796188201874
-0.3537,-20.76796188201874
-0.3547000000000001,-20.72552054302279
-0.3557,-20.72552054302279
-0.35670000000000013,-20.72552054302279
-0.3577,-20.72552054302279
-0.35870000000000013,-20.810403221014692
-0.3597,-20.980168576998494
-0.36070000000000013,-21.2065223849769
-0.3617,-21.461170418952605
-0.3626999999999999,-21.67337711393236
-0.3637,-21.94217226090672
-0.3646999999999999,-22.111937616890522
-0.3657,-22.33829142486893
-0.3666999999999999,-22.46561544185678
-0.3677,-22.63538079784059
-0.3686999999999999,-22.861734605818995
-0.36970000000000003,-23.031499961802798
-0.3706999999999999,-23.2012653177866
-0.37170000000000003,-23.342736447773106
-0.3726999999999999,-23.47006046476096
-0.37370000000000003,-23.55494314275286
-0.3746999999999999,-23.682267159740714
-0.37570000000000003,-23.767149837732617
-0.3766999999999999,-23.86617962872317
-0.37770000000000004,-23.993503645711023
-0.3786999999999999,-24.078386323702922
-0.37970000000000004,-24.20571034069078
-0.3806999999999999,-24.24815167968673
-0.38170000000000004,-24.34718147067728
-0.38269999999999993,-24.432064148669184
-0.38370000000000004,-24.516946826661083
-0.38469999999999993,-24.64427084364894
-0.38570000000000004,-24.771594860636792
-0.38669999999999993,-24.9130659906233
-0.38770000000000004,-25.04039000761115
-0.38869999999999993,-25.167714024599
-0.38970000000000005,-25.337479380582806
-0.39069999999999994,-25.478950510569312
-0.39170000000000005,-25.648715866553115
-0.39269999999999994,-25.81848122253692
-0.39370000000000005,-25.959952352523427
-0.39469999999999994,-26.129717708507226
-0.39570000000000005,-26.29948306449103
-0.39669999999999994,-26.483395533473487
-0.39770000000000005,-26.65316088945729
-0.39869999999999994,-26.86536758443705
-0.39970000000000006,-27.049280053419505
-0.40069999999999995,-27.261486748399253
-0.40170000000000006,-27.530281895373616
-0.40269999999999995,-27.700047251357418
-0.40370000000000006,-27.954695285333123
-0.40469999999999995,-28.18104909331153
-0.40570000000000006,-28.350814449295335
-0.40669999999999995,-28.53472691827779
-0.40770000000000006,-28.704492274261593
-0.40869999999999995,-28.8742576302454
-0.40970000000000006,-29.058170099227848
-0.41069999999999995,-29.22793545521166
-0.41170000000000007,-29.39770081119546
-0.41269999999999996,-29.62405461917387
-0.41370000000000007,-29.793819975157668
-0.41469999999999996,-30.00602667013743
-0.41570000000000007,-30.147497800123933
-0.41669999999999996,-30.359704495103685
-0.41770000000000007,-30.487028512091538
-0.41869999999999996,-30.670940981073993
-0.4197000000000001,-30.88314767605375
-0.42069999999999996,-31.052913032037555
-0.4217000000000001,-31.36414951800786
-0.42269999999999996,-31.618797551983565
-0.4237000000000001,-31.972475376949827
-0.42469999999999997,-32.283711862920136
-0.4257000000000001,-32.62324257488775
-0.42669999999999997,-32.93447906085806
-0.4277000000000001,-33.231568433829715
-0.42869999999999997,-33.54280491980002
-0.4297000000000001,-33.81160006677438
-0.43069999999999997,-34.06624810075008
-0.4317000000000001,-34.33504324772444
-0.4327,-34.58969128170015
-0.4337000000000001,-34.85848642867451
-0.4347,-35.15557580164616
-0.4357000000000001,-35.46681228761647
-0.4367,-35.763901660588125
-0.4377000000000001,-36.07513814655844
-0.4387,-36.37222751953009
-0.4397000000000001,-36.64102266650445
-0.4407,-36.89567070048016
-0.4417000000000001,-37.164465847454515
-0.4427,-37.47570233342482
-0.4437000000000001,-37.73035036740053
-0.4447,-38.08402819236679
-0.4457000000000001,-38.38111756533845
-0.4467,-38.734795390304704
-0.4477000000000001,-39.08847321527096
-0.4487,-39.42800392723857
-0.4497000000000001,-39.739240413208876
-0.4507,-40.03632978618054
-0.4517000000000001,-40.3900076111468
-0.4527,-40.701244097117105
-0.4537000000000001,-40.99833347008877
-0.4547,-41.30956995605907
-0.4557000000000001,-41.606659329030734
-0.4567,-41.96033715399699
-0.4577000000000001,-42.31401497896325
-0.4587,-42.6111043519349
-0.4597000000000001,-42.96478217690117
-0.4607,-43.31846000186743
-0.4617000000000001,-43.657990713835034
-0.4627,-44.011668538801295
-0.4637000000000001,-44.36534636376755
-0.4647,-44.74731841473111
-0.4657000000000001,-45.10099623969737
-0.4667,-45.497115403659585
-0.4677000000000001,-45.89323456762179
-0.4687,-46.27520661858535
-0.4697000000000001,-46.67132578254756
-0.4707,-47.067444946509774
-0.4717000000000001,-47.46356411047198
-0.4727,-47.8879775004315
-0.4737000000000001,-48.2840966643937
-0.4747,-48.68021582835591
-0.4757000000000001,-49.076334992318124
-0.4767,-49.41586570428573
-0.4777000000000001,-49.81198486824794
-0.4787,-50.2505453712061
-0.4797000000000001,-50.73154721316022
-0.4807,-51.21254905511432
-0.48170000000000013,-51.73599223606439
-0.4827,-52.34431809500636
-0.48370000000000013,-52.91020261495237
-0.4847,-53.56096981289029
-0.48570000000000013,-54.1268543328363
-0.4867,-53.64585249088219
-0.48570000000000013,-51.46719708909004
-0.4847,-49.68466085126009
-0.48370000000000013,-48.1992139864018
-0.4827,-46.94012092952192
-0.48170000000000013,-45.79420477663124
-0.4807,-44.74731841473111
-0.4797000000000001,-43.79946184382153
-0.4787,-42.92234083790521
-0.4777000000000001,-42.186690961975394
-0.4767,-41.43689397304693
-0.4757000000000001,-40.701244097117105
-0.4747,-39.99388844718459
-0.4737000000000001,-39.34312124924667
-0.4727,-38.692354051308754
-0.4717000000000001,-38.04158685337084
-0.4707,-37.376672542434264
-0.4697000000000001,-36.81078802248826
-0.4687,-36.244903502542236
-0.4677000000000001,-35.679018982596226
-0.4667,-35.198017140642115
