Sept. 24, 2024   23:25:26
Cyclic Voltammetry
File: c:/users/guazh/data/20240922_batch_417_500/2024-09-22-exp439\exp439-2024-09-24t23_08_16-arkoh\exp439_cv_sr_800mvs_efin_-1800mv.bin
Data Source:  Experiment
Instrument Model:  CHI760E
Header: CV ran at 800 mVs
Note: 

Init E (V) = -1
High E (V) = -1
Low E (V) = -1.8
Final E (V) = -1
Init P/N = N
Scan Rate (V/s) = 0.8
Segment = 3
Sample Interval (V) = 0.001
Quiet Time (sec) = 2
Sensitivity (A/V) = 0.01
Comp R (ohm) = 1.9

Results:

Channel 1:
Segment 1:

Segment 2:

Segment 3:

Potential/V, Current/A

-1.000, 3.239e-6
-1.001, 3.239e-6
-1.002, 3.239e-6
-1.003, 3.239e-6
-1.004, 3.239e-6
-1.005, 3.239e-6
-1.006, 3.239e-6
-1.007, 3.239e-6
-1.008, 6.322e-6
-1.009, 6.322e-6
-1.010, 3.239e-6
-1.011, 3.239e-6
-1.012, 3.239e-6
-1.013, 6.322e-6
-1.014, 3.239e-6
-1.015, 3.239e-6
-1.016, 6.322e-6
-1.017, 6.322e-6
-1.018, 6.322e-6
-1.019, 3.239e-6
-1.020, 3.239e-6
-1.021, 3.239e-6
-1.022, 6.322e-6
-1.023, 3.239e-6
-1.024, 6.322e-6
-1.025, 3.239e-6
-1.026, 6.322e-6
-1.027, 3.239e-6
-1.028, 6.322e-6
-1.029, 3.239e-6
-1.030, 6.322e-6
-1.031, 3.239e-6
-1.032, 6.322e-6
-1.033, 3.239e-6
-1.034, 6.322e-6
-1.035, 6.322e-6
-1.036, 6.322e-6
-1.037, 6.322e-6
-1.038, 3.239e-6
-1.039, 3.239e-6
-1.040, 6.322e-6
-1.041, 6.322e-6
-1.042, 6.322e-6
-1.043, 3.239e-6
-1.044, 6.322e-6
-1.045, 6.322e-6
-1.046, 6.322e-6
-1.047, 6.322e-6
-1.048, 6.322e-6
-1.049, 6.322e-6
-1.050, 6.322e-6
-1.051, 6.322e-6
-1.052, 6.322e-6
-1.053, 6.322e-6
-1.054, 6.322e-6
-1.055, 6.322e-6
-1.056, 6.322e-6
-1.057, 6.322e-6
-1.058, 6.322e-6
-1.059, 6.322e-6
-1.060, 6.322e-6
-1.061, 6.322e-6
-1.062, 6.322e-6
-1.063, 6.322e-6
-1.064, 6.322e-6
-1.065, 6.322e-6
-1.066, 6.322e-6
-1.067, 6.322e-6
-1.068, 6.322e-6
-1.069, 6.322e-6
-1.070, 6.322e-6
-1.071, 6.322e-6
-1.072, 6.322e-6
-1.073, 6.322e-6
-1.074, 6.322e-6
-1.075, 6.322e-6
-1.076, 6.322e-6
-1.077, 6.322e-6
-1.078, 6.322e-6
-1.079, 6.322e-6
-1.080, 6.322e-6
-1.081, 9.405e-6
-1.082, 9.405e-6
-1.083, 6.322e-6
-1.084, 6.322e-6
-1.085, 6.322e-6
-1.086, 6.322e-6
-1.087, 9.405e-6
-1.088, 6.322e-6
-1.089, 6.322e-6
-1.090, 6.322e-6
-1.091, 9.405e-6
-1.092, 6.322e-6
-1.093, 6.322e-6
-1.094, 6.322e-6
-1.095, 9.405e-6
-1.096, 6.322e-6
-1.097, 6.322e-6
-1.098, 6.322e-6
-1.099, 6.322e-6
-1.100, 6.322e-6
-1.101, 6.322e-6
-1.102, 6.322e-6
-1.103, 6.322e-6
-1.104, 6.322e-6
-1.105, 9.405e-6
-1.106, 9.405e-6
-1.107, 6.322e-6
-1.108, 9.405e-6
-1.109, 9.405e-6
-1.110, 6.322e-6
-1.111, 6.322e-6
-1.112, 6.322e-6
-1.113, 6.322e-6
-1.114, 6.322e-6
-1.115, 9.405e-6
-1.116, 6.322e-6
-1.117, 6.322e-6
-1.118, 9.405e-6
-1.119, 9.405e-6
-1.120, 6.322e-6
-1.121, 9.405e-6
-1.122, 9.405e-6
-1.123, 9.405e-6
-1.124, 9.405e-6
-1.125, 6.322e-6
-1.126, 9.405e-6
-1.127, 6.322e-6
-1.128, 9.405e-6
-1.129, 6.322e-6
-1.130, 9.405e-6
-1.131, 9.405e-6
-1.132, 9.405e-6
-1.133, 6.322e-6
-1.134, 9.405e-6
-1.135, 9.405e-6
-1.136, 9.405e-6
-1.137, 6.322e-6
-1.138, 6.322e-6
-1.139, 6.322e-6
-1.140, 9.405e-6
-1.141, 9.405e-6
-1.142, 9.405e-6
-1.143, 6.322e-6
-1.144, 9.405e-6
-1.145, 9.405e-6
-1.146, 9.405e-6
-1.147, 9.405e-6
-1.148, 9.405e-6
-1.149, 9.405e-6
-1.150, 9.405e-6
-1.151, 9.405e-6
-1.152, 9.405e-6
-1.153, 9.405e-6
-1.154, 9.405e-6
-1.155, 9.405e-6
-1.156, 9.405e-6
-1.157, 9.405e-6
-1.158, 9.405e-6
-1.159, 9.405e-6
-1.160, 9.405e-6
-1.161, 9.405e-6
-1.162, 9.405e-6
-1.163, 9.405e-6
-1.164, 9.405e-6
-1.165, 9.405e-6
-1.166, 9.405e-6
-1.167, 9.405e-6
-1.168, 9.405e-6
-1.169, 9.405e-6
-1.170, 9.405e-6
-1.171, 9.405e-6
-1.172, 9.405e-6
-1.173, 9.405e-6
-1.174, 9.405e-6
-1.175, 9.405e-6
-1.176, 9.405e-6
-1.177, 9.405e-6
-1.178, 9.405e-6
-1.179, 9.405e-6
-1.180, 9.405e-6
-1.181, 9.405e-6
-1.182, 9.405e-6
-1.183, 9.405e-6
-1.184, 9.405e-6
-1.185, 9.405e-6
-1.186, 9.405e-6
-1.187, 9.405e-6
-1.188, 9.405e-6
-1.189, 9.405e-6
-1.190, 9.405e-6
-1.191, 9.405e-6
-1.192, 9.405e-6
-1.193, 9.405e-6
-1.194, 9.405e-6
-1.195, 9.405e-6
-1.196, 9.405e-6
-1.197, 9.405e-6
-1.198, 9.405e-6
-1.199, 9.405e-6
-1.200, 9.405e-6
-1.201, 9.405e-6
-1.202, 9.405e-6
-1.203, 9.405e-6
-1.204, 9.405e-6
-1.205, 9.405e-6
-1.206, 9.405e-6
-1.207, 9.405e-6
-1.208, 9.405e-6
-1.209, 9.405e-6
-1.210, 1.249e-5
-1.211, 9.405e-6
-1.212, 9.405e-6
-1.213, 9.405e-6
-1.214, 9.405e-6
-1.215, 1.249e-5
-1.216, 9.405e-6
-1.217, 1.249e-5
-1.218, 9.405e-6
-1.219, 9.405e-6
-1.220, 1.249e-5
-1.221, 9.405e-6
-1.222, 9.405e-6
-1.223, 1.249e-5
-1.224, 1.249e-5
-1.225, 9.405e-6
-1.226, 9.405e-6
-1.227, 9.405e-6
-1.228, 1.249e-5
-1.229, 1.249e-5
-1.230, 9.405e-6
-1.231, 9.405e-6
-1.232, 1.249e-5
-1.233, 1.249e-5
-1.234, 1.249e-5
-1.235, 9.405e-6
-1.236, 1.249e-5
-1.237, 1.249e-5
-1.238, 1.249e-5
-1.239, 1.249e-5
-1.240, 1.249e-5
-1.241, 1.249e-5
-1.242, 1.249e-5
-1.243, 9.405e-6
-1.244, 1.249e-5
-1.245, 9.405e-6
-1.246, 1.249e-5
-1.247, 1.249e-5
-1.248, 1.249e-5
-1.249, 1.249e-5
-1.250, 9.405e-6
-1.251, 1.249e-5
-1.252, 1.249e-5
-1.253, 1.249e-5
-1.254, 1.249e-5
-1.255, 1.249e-5
-1.256, 1.249e-5
-1.257, 1.249e-5
-1.258, 1.249e-5
-1.259, 1.249e-5
-1.260, 1.249e-5
-1.261, 1.557e-5
-1.262, 1.249e-5
-1.263, 1.249e-5
-1.264, 1.249e-5
-1.265, 1.249e-5
-1.266, 1.249e-5
-1.267, 1.249e-5
-1.268, 1.249e-5
-1.269, 1.249e-5
-1.270, 1.249e-5
-1.271, 1.249e-5
-1.272, 1.249e-5
-1.273, 1.249e-5
-1.274, 1.249e-5
-1.275, 1.249e-5
-1.276, 1.249e-5
-1.277, 1.249e-5
-1.278, 1.249e-5
-1.279, 1.249e-5
-1.280, 1.249e-5
-1.281, 1.249e-5
-1.282, 1.249e-5
-1.283, 1.557e-5
-1.284, 1.249e-5
-1.285, 1.249e-5
-1.286, 1.249e-5
-1.287, 1.249e-5
-1.288, 1.249e-5
-1.289, 1.557e-5
-1.290, 1.249e-5
-1.291, 1.249e-5
-1.292, 1.557e-5
-1.293, 1.557e-5
-1.294, 1.557e-5
-1.295, 1.557e-5
-1.296, 1.557e-5
-1.297, 1.557e-5
-1.298, 1.557e-5
-1.299, 1.249e-5
-1.300, 1.249e-5
-1.301, 1.557e-5
-1.302, 1.557e-5
-1.303, 1.557e-5
-1.304, 1.249e-5
-1.305, 1.249e-5
-1.306, 1.557e-5
-1.307, 1.557e-5
-1.308, 1.557e-5
-1.309, 1.557e-5
-1.310, 1.557e-5
-1.311, 1.557e-5
-1.312, 1.557e-5
-1.313, 1.249e-5
-1.314, 1.249e-5
-1.315, 1.557e-5
-1.316, 1.557e-5
-1.317, 1.249e-5
-1.318, 1.249e-5
-1.319, 1.249e-5
-1.320, 1.557e-5
-1.321, 1.557e-5
-1.322, 1.557e-5
-1.323, 1.249e-5
-1.324, 1.557e-5
-1.325, 1.557e-5
-1.326, 1.557e-5
-1.327, 1.557e-5
-1.328, 1.557e-5
-1.329, 1.557e-5
-1.330, 1.557e-5
-1.331, 1.557e-5
-1.332, 1.557e-5
-1.333, 1.557e-5
-1.334, 1.557e-5
-1.335, 1.557e-5
-1.336, 1.557e-5
-1.337, 1.557e-5
-1.338, 1.557e-5
-1.339, 1.557e-5
-1.340, 1.557e-5
-1.341, 1.557e-5
-1.342, 1.557e-5
-1.343, 1.557e-5
-1.344, 1.557e-5
-1.345, 1.557e-5
-1.346, 1.557e-5
-1.347, 1.557e-5
-1.348, 1.557e-5
-1.349, 1.557e-5
-1.350, 1.557e-5
-1.351, 1.557e-5
-1.352, 1.557e-5
-1.353, 1.557e-5
-1.354, 1.865e-5
-1.355, 1.557e-5
-1.356, 1.865e-5
-1.357, 1.865e-5
-1.358, 1.865e-5
-1.359, 1.557e-5
-1.360, 1.557e-5
-1.361, 1.865e-5
-1.362, 1.865e-5
-1.363, 1.865e-5
-1.364, 1.557e-5
-1.365, 1.557e-5
-1.366, 1.557e-5
-1.367, 1.557e-5
-1.368, 1.865e-5
-1.369, 1.557e-5
-1.370, 1.865e-5
-1.371, 1.865e-5
-1.372, 1.865e-5
-1.373, 1.865e-5
-1.374, 1.865e-5
-1.375, 1.865e-5
-1.376, 1.865e-5
-1.377, 1.557e-5
-1.378, 1.865e-5
-1.379, 1.865e-5
-1.380, 1.865e-5
-1.381, 1.865e-5
-1.382, 1.557e-5
-1.383, 1.865e-5
-1.384, 1.865e-5
-1.385, 1.865e-5
-1.386, 1.865e-5
-1.387, 1.865e-5
-1.388, 1.865e-5
-1.389, 1.865e-5
-1.390, 1.865e-5
-1.391, 1.865e-5
-1.392, 1.865e-5
-1.393, 1.865e-5
-1.394, 1.865e-5
-1.395, 1.865e-5
-1.396, 1.865e-5
-1.397, 1.865e-5
-1.398, 2.174e-5
-1.399, 2.174e-5
-1.400, 1.865e-5
-1.401, 1.865e-5
-1.402, 1.865e-5
-1.403, 2.174e-5
-1.404, 1.865e-5
-1.405, 1.865e-5
-1.406, 1.865e-5
-1.407, 1.865e-5
-1.408, 2.174e-5
-1.409, 1.865e-5
-1.410, 1.865e-5
-1.411, 2.174e-5
-1.412, 2.174e-5
-1.413, 2.174e-5
-1.414, 1.865e-5
-1.415, 2.174e-5
-1.416, 2.174e-5
-1.417, 2.174e-5
-1.418, 2.174e-5
-1.419, 1.865e-5
-1.420, 1.865e-5
-1.421, 2.174e-5
-1.422, 2.174e-5
-1.423, 2.174e-5
-1.424, 2.174e-5
-1.425, 2.174e-5
-1.426, 2.174e-5
-1.427, 2.174e-5
-1.428, 2.174e-5
-1.429, 2.174e-5
-1.430, 2.174e-5
-1.431, 2.174e-5
-1.432, 2.174e-5
-1.433, 2.174e-5
-1.434, 2.174e-5
-1.435, 2.174e-5
-1.436, 2.174e-5
-1.437, 2.174e-5
-1.438, 2.174e-5
-1.439, 2.174e-5
-1.440, 2.482e-5
-1.441, 2.174e-5
-1.442, 2.482e-5
-1.443, 2.174e-5
-1.444, 2.482e-5
-1.445, 2.174e-5
-1.446, 2.174e-5
-1.447, 2.482e-5
-1.448, 2.482e-5
-1.449, 2.482e-5
-1.450, 2.482e-5
-1.451, 2.174e-5
-1.452, 2.482e-5
-1.453, 2.482e-5
-1.454, 2.482e-5
-1.455, 2.174e-5
-1.456, 2.482e-5
-1.457, 2.482e-5
-1.458, 2.482e-5
-1.459, 2.482e-5
-1.460, 2.482e-5
-1.461, 2.482e-5
-1.462, 2.482e-5
-1.463, 2.482e-5
-1.464, 2.482e-5
-1.465, 2.482e-5
-1.466, 2.482e-5
-1.467, 2.482e-5
-1.468, 2.482e-5
-1.469, 2.482e-5
-1.470, 2.482e-5
-1.471, 2.482e-5
-1.472, 2.482e-5
-1.473, 2.482e-5
-1.474, 2.482e-5
-1.475, 2.482e-5
-1.476, 2.790e-5
-1.477, 2.482e-5
-1.478, 2.790e-5
-1.479, 2.790e-5
-1.480, 2.790e-5
-1.481, 2.790e-5
-1.482, 2.790e-5
-1.483, 2.790e-5
-1.484, 2.790e-5
-1.485, 2.790e-5
-1.486, 2.790e-5
-1.487, 2.790e-5
-1.488, 2.790e-5
-1.489, 2.790e-5
-1.490, 2.790e-5
-1.491, 3.099e-5
-1.492, 2.790e-5
-1.493, 2.790e-5
-1.494, 2.790e-5
-1.495, 3.099e-5
-1.496, 2.790e-5
-1.497, 2.790e-5
-1.498, 2.790e-5
-1.499, 3.099e-5
-1.500, 3.099e-5
-1.501, 3.099e-5
-1.502, 3.099e-5
-1.503, 3.099e-5
-1.504, 3.099e-5
-1.505, 3.099e-5
-1.506, 3.099e-5
-1.507, 3.099e-5
-1.508, 3.407e-5
-1.509, 3.099e-5
-1.510, 3.099e-5
-1.511, 3.099e-5
-1.512, 3.099e-5
-1.513, 3.407e-5
-1.514, 3.407e-5
-1.515, 3.407e-5
-1.516, 3.407e-5
-1.517, 3.407e-5
-1.518, 3.407e-5
-1.519, 3.407e-5
-1.520, 3.407e-5
-1.521, 3.407e-5
-1.522, 3.407e-5
-1.523, 3.407e-5
-1.524, 3.407e-5
-1.525, 3.407e-5
-1.526, 3.407e-5
-1.527, 3.407e-5
-1.528, 3.407e-5
-1.529, 3.407e-5
-1.530, 3.407e-5
-1.531, 3.715e-5
-1.532, 3.715e-5
-1.533, 3.715e-5
-1.534, 3.715e-5
-1.535, 3.715e-5
-1.536, 3.715e-5
-1.537, 3.715e-5
-1.538, 3.715e-5
-1.539, 3.715e-5
-1.540, 4.024e-5
-1.541, 3.715e-5
-1.542, 4.024e-5
-1.543, 4.024e-5
-1.544, 4.024e-5
-1.545, 4.024e-5
-1.546, 4.024e-5
-1.547, 4.024e-5
-1.548, 4.024e-5
-1.549, 4.332e-5
-1.550, 4.332e-5
-1.551, 4.332e-5
-1.552, 4.332e-5
-1.553, 4.332e-5
-1.554, 4.332e-5
-1.555, 4.640e-5
-1.556, 4.332e-5
-1.557, 4.332e-5
-1.558, 4.640e-5
-1.559, 4.640e-5
-1.560, 4.640e-5
-1.561, 4.640e-5
-1.562, 4.640e-5
-1.563, 4.640e-5
-1.564, 4.949e-5
-1.565, 4.949e-5
-1.566, 4.949e-5
-1.567, 4.949e-5
-1.568, 5.257e-5
-1.569, 4.949e-5
-1.570, 4.949e-5
-1.571, 4.949e-5
-1.572, 5.257e-5
-1.573, 5.257e-5
-1.574, 5.257e-5
-1.575, 5.257e-5
-1.576, 5.257e-5
-1.577, 5.565e-5
-1.578, 5.565e-5
-1.579, 5.565e-5
-1.580, 5.565e-5
-1.581, 5.565e-5
-1.582, 5.873e-5
-1.583, 5.873e-5
-1.584, 5.873e-5
-1.585, 5.873e-5
-1.586, 6.182e-5
-1.587, 6.182e-5
-1.588, 6.182e-5
-1.589, 6.182e-5
-1.590, 6.182e-5
-1.591, 6.490e-5
-1.592, 6.490e-5
-1.593, 6.490e-5
-1.594, 6.490e-5
-1.595, 6.798e-5
-1.596, 6.798e-5
-1.597, 7.107e-5
-1.598, 6.798e-5
-1.599, 7.107e-5
-1.600, 7.415e-5
-1.601, 7.415e-5
-1.602, 7.415e-5
-1.603, 7.415e-5
-1.604, 7.723e-5
-1.605, 8.032e-5
-1.606, 8.032e-5
-1.607, 8.032e-5
-1.608, 8.032e-5
-1.609, 8.340e-5
-1.610, 8.340e-5
-1.611, 8.648e-5
-1.612, 8.648e-5
-1.613, 8.957e-5
-1.614, 8.957e-5
-1.615, 8.957e-5
-1.616, 8.957e-5
-1.617, 9.265e-5
-1.618, 9.573e-5
-1.619, 9.573e-5
-1.620, 9.882e-5
-1.621, 9.882e-5
-1.622, 1.019e-4
-1.623, 1.050e-4
-1.624, 1.050e-4
-1.625, 1.050e-4
-1.626, 1.081e-4
-1.627, 1.111e-4
-1.628, 1.142e-4
-1.629, 1.142e-4
-1.630, 1.142e-4
-1.631, 1.173e-4
-1.632, 1.204e-4
-1.633, 1.235e-4
-1.634, 1.235e-4
-1.635, 1.266e-4
-1.636, 1.296e-4
-1.637, 1.327e-4
-1.638, 1.358e-4
-1.639, 1.358e-4
-1.640, 1.389e-4
-1.641, 1.420e-4
-1.642, 1.451e-4
-1.643, 1.451e-4
-1.644, 1.512e-4
-1.645, 1.543e-4
-1.646, 1.574e-4
-1.647, 1.605e-4
-1.648, 1.636e-4
-1.649, 1.666e-4
-1.650, 1.697e-4
-1.651, 1.728e-4
-1.652, 1.790e-4
-1.653, 1.790e-4
-1.654, 1.851e-4
-1.655, 1.882e-4
-1.656, 1.913e-4
-1.657, 1.944e-4
-1.658, 2.006e-4
-1.659, 2.036e-4
-1.660, 2.098e-4
-1.661, 2.129e-4
-1.662, 2.160e-4
-1.663, 2.221e-4
-1.664, 2.252e-4
-1.665, 2.314e-4
-1.666, 2.376e-4
-1.667, 2.406e-4
-1.668, 2.468e-4
-1.669, 2.530e-4
-1.670, 2.561e-4
-1.671, 2.622e-4
-1.672, 2.684e-4
-1.673, 2.715e-4
-1.674, 2.807e-4
-1.675, 2.869e-4
-1.676, 2.931e-4
-1.677, 2.992e-4
-1.678, 3.054e-4
-1.679, 3.115e-4
-1.680, 3.177e-4
-1.681, 3.270e-4
-1.682, 3.331e-4
-1.683, 3.424e-4
-1.684, 3.485e-4
-1.685, 3.547e-4
-1.686, 3.640e-4
-1.687, 3.701e-4
-1.688, 3.794e-4
-1.689, 3.886e-4
-1.690, 3.979e-4
-1.691, 4.040e-4
-1.692, 4.164e-4
-1.693, 4.225e-4
-1.694, 4.349e-4
-1.695, 4.410e-4
-1.696, 4.534e-4
-1.697, 4.626e-4
-1.698, 4.719e-4
-1.699, 4.842e-4
-1.700, 4.935e-4
-1.701, 5.058e-4
-1.702, 5.181e-4
-1.703, 5.274e-4
-1.704, 5.397e-4
-1.705, 5.520e-4
-1.706, 5.644e-4
-1.707, 5.767e-4
-1.708, 5.890e-4
-1.709, 6.014e-4
-1.710, 6.168e-4
-1.711, 6.291e-4
-1.712, 6.414e-4
-1.713, 6.569e-4
-1.714, 6.723e-4
-1.715, 6.877e-4
-1.716, 7.000e-4
-1.717, 7.154e-4
-1.718, 7.309e-4
-1.719, 7.494e-4
-1.720, 7.648e-4
-1.721, 7.802e-4
-1.722, 7.956e-4
-1.723, 8.141e-4
-1.724, 8.326e-4
-1.725, 8.480e-4
-1.726, 8.665e-4
-1.727, 8.850e-4
-1.728, 9.066e-4
-1.729, 9.251e-4
-1.730, 9.436e-4
-1.731, 9.621e-4
-1.732, 9.837e-4
-1.733, 1.002e-3
-1.734, 1.024e-3
-1.735, 1.045e-3
-1.736, 1.067e-3
-1.737, 1.088e-3
-1.738, 1.110e-3
-1.739, 1.135e-3
-1.740, 1.156e-3
-1.741, 1.181e-3
-1.742, 1.203e-3
-1.743, 1.227e-3
-1.744, 1.249e-3
-1.745, 1.273e-3
-1.746, 1.301e-3
-1.747, 1.326e-3
-1.748, 1.351e-3
-1.749, 1.378e-3
-1.750, 1.406e-3
-1.751, 1.434e-3
-1.752, 1.462e-3
-1.753, 1.486e-3
-1.754, 1.517e-3
-1.755, 1.545e-3
-1.756, 1.573e-3
-1.757, 1.600e-3
-1.758, 1.631e-3
-1.759, 1.662e-3
-1.760, 1.696e-3
-1.761, 1.727e-3
-1.762, 1.758e-3
-1.763, 1.788e-3
-1.764, 1.822e-3
-1.765, 1.853e-3
-1.766, 1.887e-3
-1.767, 1.921e-3
-1.768, 1.955e-3
-1.769, 1.989e-3
-1.770, 2.026e-3
-1.771, 2.057e-3
-1.772, 2.094e-3
-1.773, 2.134e-3
-1.774, 2.168e-3
-1.775, 2.205e-3
-1.776, 2.242e-3
-1.777, 2.279e-3
-1.778, 2.319e-3
-1.779, 2.356e-3
-1.780, 2.396e-3
-1.781, 2.436e-3
-1.782, 2.473e-3
-1.783, 2.516e-3
-1.784, 2.556e-3
-1.785, 2.596e-3
-1.786, 2.639e-3
-1.787, 2.679e-3
-1.788, 2.723e-3
-1.789, 2.763e-3
-1.790, 2.806e-3
-1.791, 2.849e-3
-1.792, 2.892e-3
-1.793, 2.935e-3
-1.794, 2.978e-3
-1.795, 3.022e-3
-1.796, 3.068e-3
-1.797, 3.114e-3
-1.798, 3.160e-3
-1.799, 3.207e-3
-1.800, 3.228e-3
-1.799, 3.219e-3
-1.798, 3.204e-3
-1.797, 3.185e-3
-1.796, 3.170e-3
-1.795, 3.151e-3
-1.794, 3.130e-3
-1.793, 3.111e-3
-1.792, 3.089e-3
-1.791, 3.065e-3
-1.790, 3.043e-3
-1.789, 3.022e-3
-1.788, 2.997e-3
-1.787, 2.972e-3
-1.786, 2.951e-3
-1.785, 2.926e-3
-1.784, 2.904e-3
-1.783, 2.880e-3
-1.782, 2.852e-3
-1.781, 2.827e-3
-1.780, 2.803e-3
-1.779, 2.778e-3
-1.778, 2.753e-3
-1.777, 2.729e-3
-1.776, 2.704e-3
-1.775, 2.679e-3
-1.774, 2.655e-3
-1.773, 2.627e-3
-1.772, 2.602e-3
-1.771, 2.578e-3
-1.770, 2.550e-3
-1.769, 2.525e-3
-1.768, 2.497e-3
-1.767, 2.473e-3
-1.766, 2.448e-3
-1.765, 2.423e-3
-1.764, 2.399e-3
-1.763, 2.371e-3
-1.762, 2.346e-3
-1.761, 2.322e-3
-1.760, 2.297e-3
-1.759, 2.272e-3
-1.758, 2.245e-3
-1.757, 2.223e-3
-1.756, 2.195e-3
-1.755, 2.171e-3
-1.754, 2.149e-3
-1.753, 2.124e-3
-1.752, 2.100e-3
-1.751, 2.075e-3
-1.750, 2.050e-3
-1.749, 2.029e-3
-1.748, 2.004e-3
-1.747, 1.980e-3
-1.746, 1.958e-3
-1.745, 1.933e-3
-1.744, 1.909e-3
-1.743, 1.887e-3
-1.742, 1.862e-3
-1.741, 1.841e-3
-1.740, 1.816e-3
-1.739, 1.795e-3
-1.738, 1.773e-3
-1.737, 1.748e-3
-1.736, 1.727e-3
-1.735, 1.705e-3
-1.734, 1.684e-3
-1.733, 1.662e-3
-1.732, 1.640e-3
-1.731, 1.619e-3
-1.730, 1.597e-3
-1.729, 1.576e-3
-1.728, 1.554e-3
-1.727, 1.532e-3
-1.726, 1.514e-3
-1.725, 1.492e-3
-1.724, 1.474e-3
-1.723, 1.452e-3
-1.722, 1.434e-3
-1.721, 1.412e-3
-1.720, 1.397e-3
-1.719, 1.375e-3
-1.718, 1.357e-3
-1.717, 1.338e-3
-1.716, 1.320e-3
-1.715, 1.301e-3
-1.714, 1.283e-3
-1.713, 1.264e-3
-1.712, 1.246e-3
-1.711, 1.230e-3
-1.710, 1.212e-3
-1.709, 1.193e-3
-1.708, 1.178e-3
-1.707, 1.159e-3
-1.706, 1.144e-3
-1.705, 1.129e-3
-1.704, 1.110e-3
-1.703, 1.095e-3
-1.702, 1.079e-3
-1.701, 1.064e-3
-1.700, 1.045e-3
-1.699, 1.030e-3
-1.698, 1.018e-3
-1.697, 1.002e-3
-1.696, 9.837e-4
-1.695, 9.683e-4
-1.694, 9.559e-4
-1.693, 9.405e-4
-1.692, 9.251e-4
-1.691, 9.097e-4
-1.690, 8.973e-4
-1.689, 8.819e-4
-1.688, 8.696e-4
-1.687, 8.573e-4
-1.686, 8.418e-4
-1.685, 8.295e-4
-1.684, 8.172e-4
-1.683, 8.018e-4
-1.682, 7.894e-4
-1.681, 7.771e-4
-1.680, 7.648e-4
-1.679, 7.524e-4
-1.678, 7.370e-4
-1.677, 7.278e-4
-1.676, 7.154e-4
-1.675, 7.031e-4
-1.674, 6.939e-4
-1.673, 6.815e-4
-1.672, 6.692e-4
-1.671, 6.599e-4
-1.670, 6.476e-4
-1.669, 6.384e-4
-1.668, 6.260e-4
-1.667, 6.137e-4
-1.666, 6.044e-4
-1.665, 5.952e-4
-1.664, 5.829e-4
-1.663, 5.736e-4
-1.662, 5.644e-4
-1.661, 5.551e-4
-1.660, 5.459e-4
-1.659, 5.366e-4
-1.658, 5.274e-4
-1.657, 5.181e-4
-1.656, 5.089e-4
-1.655, 4.996e-4
-1.654, 4.904e-4
-1.653, 4.842e-4
-1.652, 4.750e-4
-1.651, 4.657e-4
-1.650, 4.565e-4
-1.649, 4.503e-4
-1.648, 4.410e-4
-1.647, 4.349e-4
-1.646, 4.256e-4
-1.645, 4.195e-4
-1.644, 4.102e-4
-1.643, 4.040e-4
-1.642, 3.979e-4
-1.641, 3.886e-4
-1.640, 3.825e-4
-1.639, 3.763e-4
-1.638, 3.701e-4
-1.637, 3.609e-4
-1.636, 3.547e-4
-1.635, 3.485e-4
-1.634, 3.393e-4
-1.633, 3.362e-4
-1.632, 3.300e-4
-1.631, 3.208e-4
-1.630, 3.177e-4
-1.629, 3.115e-4
-1.628, 3.054e-4
-1.627, 2.992e-4
-1.626, 2.931e-4
-1.625, 2.900e-4
-1.624, 2.838e-4
-1.623, 2.776e-4
-1.622, 2.715e-4
-1.621, 2.653e-4
-1.620, 2.622e-4
-1.619, 2.561e-4
-1.618, 2.530e-4
-1.617, 2.468e-4
-1.616, 2.437e-4
-1.615, 2.376e-4
-1.614, 2.345e-4
-1.613, 2.283e-4
-1.612, 2.252e-4
-1.611, 2.191e-4
-1.610, 2.160e-4
-1.609, 2.098e-4
-1.608, 2.067e-4
-1.607, 2.036e-4
-1.606, 2.006e-4
-1.605, 1.944e-4
-1.604, 1.913e-4
-1.603, 1.882e-4
-1.602, 1.851e-4
-1.601, 1.821e-4
-1.600, 1.759e-4
-1.599, 1.728e-4
-1.598, 1.697e-4
-1.597, 1.666e-4
-1.596, 1.636e-4
-1.595, 1.605e-4
-1.594, 1.574e-4
-1.593, 1.543e-4
-1.592, 1.512e-4
-1.591, 1.481e-4
-1.590, 1.451e-4
-1.589, 1.420e-4
-1.588, 1.389e-4
-1.587, 1.358e-4
-1.586, 1.327e-4
-1.585, 1.296e-4
-1.584, 1.296e-4
-1.583, 1.266e-4
-1.582, 1.235e-4
-1.581, 1.204e-4
-1.580, 1.173e-4
-1.579, 1.173e-4
-1.578, 1.142e-4
-1.577, 1.111e-4
-1.576, 1.081e-4
-1.575, 1.081e-4
-1.574, 1.050e-4
-1.573, 1.019e-4
-1.572, 9.882e-5
-1.571, 9.573e-5
-1.570, 9.573e-5
-1.569, 9.573e-5
-1.568, 9.265e-5
-1.567, 8.648e-5
-1.566, 8.648e-5
-1.565, 8.957e-5
-1.564, 8.340e-5
-1.563, 8.032e-5
-1.562, 8.032e-5
-1.561, 8.032e-5
-1.560, 7.723e-5
-1.559, 7.415e-5
-1.558, 7.107e-5
-1.557, 7.415e-5
-1.556, 7.107e-5
-1.555, 7.107e-5
-1.554, 6.798e-5
-1.553, 6.798e-5
-1.552, 6.490e-5
-1.551, 6.490e-5
-1.550, 6.182e-5
-1.549, 5.873e-5
-1.548, 5.873e-5
-1.547, 5.873e-5
-1.546, 5.873e-5
-1.545, 5.565e-5
-1.544, 5.565e-5
-1.543, 5.565e-5
-1.542, 5.257e-5
-1.541, 5.257e-5
-1.540, 4.949e-5
-1.539, 4.949e-5
-1.538, 4.949e-5
-1.537, 4.640e-5
-1.536, 4.332e-5
-1.535, 4.332e-5
-1.534, 4.332e-5
-1.533, 4.332e-5
-1.532, 4.024e-5
-1.531, 4.024e-5
-1.530, 4.024e-5
-1.529, 3.715e-5
-1.528, 3.715e-5
-1.527, 3.715e-5
-1.526, 3.407e-5
-1.525, 3.407e-5
-1.524, 3.407e-5
-1.523, 3.407e-5
-1.522, 3.099e-5
-1.521, 3.099e-5
-1.520, 3.099e-5
-1.519, 3.099e-5
-1.518, 2.790e-5
-1.517, 2.790e-5
-1.516, 2.790e-5
-1.515, 2.790e-5
-1.514, 2.482e-5
-1.513, 2.482e-5
-1.512, 2.482e-5
-1.511, 2.482e-5
-1.510, 2.482e-5
-1.509, 2.174e-5
-1.508, 2.174e-5
-1.507, 2.174e-5
-1.506, 2.174e-5
-1.505, 2.174e-5
-1.504, 2.174e-5
-1.503, 1.865e-5
-1.502, 1.865e-5
-1.501, 1.865e-5
-1.500, 1.865e-5
-1.499, 1.865e-5
-1.498, 1.865e-5
-1.497, 1.557e-5
-1.496, 1.557e-5
-1.495, 1.557e-5
-1.494, 1.249e-5
-1.493, 1.557e-5
-1.492, 1.557e-5
-1.491, 1.249e-5
-1.490, 1.249e-5
-1.489, 1.249e-5
-1.488, 1.249e-5
-1.487, 1.249e-5
-1.486, 1.249e-5
-1.485, 1.249e-5
-1.484, 1.249e-5
-1.483, 1.249e-5
-1.482, 9.405e-6
-1.481, 9.405e-6
-1.480, 9.405e-6
-1.479, 9.405e-6
-1.478, 9.405e-6
-1.477, 9.405e-6
-1.476, 9.405e-6
-1.475, 9.405e-6
-1.474, 6.322e-6
-1.473, 9.405e-6
-1.472, 6.322e-6
-1.471, 6.322e-6
-1.470, 6.322e-6
-1.469, 6.322e-6
-1.468, 6.322e-6
-1.467, 6.322e-6
-1.466, 6.322e-6
-1.465, 6.322e-6
-1.464, 6.322e-6
-1.463, 6.322e-6
-1.462, 3.239e-6
-1.461, 6.322e-6
-1.460, 3.239e-6
-1.459, 3.239e-6
-1.458, 3.239e-6
-1.457, 3.239e-6
-1.456, 3.239e-6
-1.455, 3.239e-6
-1.454, 3.239e-6
-1.453, 3.239e-6
-1.452, 3.239e-6
-1.451, 3.239e-6
-1.450, 3.239e-6
-1.449, 3.239e-6
-1.448, 1.559e-7
-1.447, 3.239e-6
-1.446, 1.559e-7
-1.445, 1.559e-7
-1.444, 1.559e-7
-1.443, 1.559e-7
-1.442, 1.559e-7
-1.441, 3.239e-6
-1.440, 1.559e-7
-1.439, 1.559e-7
-1.438, 1.559e-7
-1.437, 1.559e-7
-1.436, 1.559e-7
-1.435, 1.559e-7
-1.434, 1.559e-7
-1.433, 1.559e-7
-1.432, 1.559e-7
-1.431, -2.927e-6
-1.430, -2.927e-6
-1.429, -2.927e-6
-1.428, -2.927e-6
-1.427, 1.559e-7
-1.426, -2.927e-6
-1.425, -2.927e-6
-1.424, -2.927e-6
-1.423, 1.559e-7
-1.422, -2.927e-6
-1.421, -2.927e-6
-1.420, -2.927e-6
-1.419, -2.927e-6
-1.418, -2.927e-6
-1.417, -2.927e-6
-1.416, -2.927e-6
-1.415, -2.927e-6
-1.414, -2.927e-6
-1.413, -2.927e-6
-1.412, -2.927e-6
-1.411, -2.927e-6
-1.410, -2.927e-6
-1.409, -2.927e-6
-1.408, -6.010e-6
-1.407, -6.010e-6
-1.406, -2.927e-6
-1.405, -2.927e-6
-1.404, -2.927e-6
-1.403, -6.010e-6
-1.402, -6.010e-6
-1.401, -6.010e-6
-1.400, -2.927e-6
-1.399, -2.927e-6
-1.398, -2.927e-6
-1.397, -2.927e-6
-1.396, -2.927e-6
-1.395, -6.010e-6
-1.394, -6.010e-6
-1.393, -6.010e-6
-1.392, -2.927e-6
-1.391, -6.010e-6
-1.390, -2.927e-6
-1.389, -6.010e-6
-1.388, -6.010e-6
-1.387, -2.927e-6
-1.386, -2.927e-6
-1.385, -6.010e-6
-1.384, -6.010e-6
-1.383, -6.010e-6
-1.382, -2.927e-6
-1.381, -6.010e-6
-1.380, -6.010e-6
-1.379, -6.010e-6
-1.378, -6.010e-6
-1.377, -6.010e-6
-1.376, -6.010e-6
-1.375, -6.010e-6
-1.374, -6.010e-6
-1.373, -6.010e-6
-1.372, -6.010e-6
-1.371, -6.010e-6
-1.370, -6.010e-6
-1.369, -6.010e-6
-1.368, -6.010e-6
-1.367, -6.010e-6
-1.366, -6.010e-6
-1.365, -6.010e-6
-1.364, -6.010e-6
-1.363, -6.010e-6
-1.362, -6.010e-6
-1.361, -6.010e-6
-1.360, -6.010e-6
-1.359, -6.010e-6
-1.358, -6.010e-6
-1.357, -9.093e-6
-1.356, -6.010e-6
-1.355, -6.010e-6
-1.354, -6.010e-6
-1.353, -6.010e-6
-1.352, -6.010e-6
-1.351, -6.010e-6
-1.350, -6.010e-6
-1.349, -6.010e-6
-1.348, -9.093e-6
-1.347, -6.010e-6
-1.346, -6.010e-6
-1.345, -6.010e-6
-1.344, -9.093e-6
-1.343, -6.010e-6
-1.342, -6.010e-6
-1.341, -6.010e-6
-1.340, -9.093e-6
-1.339, -6.010e-6
-1.338, -9.093e-6
-1.337, -6.010e-6
-1.336, -6.010e-6
-1.335, -6.010e-6
-1.334, -9.093e-6
-1.333, -6.010e-6
-1.332, -6.010e-6
-1.331, -9.093e-6
-1.330, -9.093e-6
-1.329, -9.093e-6
-1.328, -9.093e-6
-1.327, -6.010e-6
-1.326, -9.093e-6
-1.325, -9.093e-6
-1.324, -6.010e-6
-1.323, -9.093e-6
-1.322, -6.010e-6
-1.321, -9.093e-6
-1.320, -9.093e-6
-1.319, -6.010e-6
-1.318, -9.093e-6
-1.317, -9.093e-6
-1.316, -9.093e-6
-1.315, -9.093e-6
-1.314, -9.093e-6
-1.313, -6.010e-6
-1.312, -9.093e-6
-1.311, -9.093e-6
-1.310, -9.093e-6
-1.309, -9.093e-6
-1.308, -9.093e-6
-1.307, -9.093e-6
-1.306, -9.093e-6
-1.305, -6.010e-6
-1.304, -9.093e-6
-1.303, -9.093e-6
-1.302, -9.093e-6
-1.301, -9.093e-6
-1.300, -9.093e-6
-1.299, -9.093e-6
-1.298, -9.093e-6
-1.297, -9.093e-6
-1.296, -9.093e-6
-1.295, -9.093e-6
-1.294, -9.093e-6
-1.293, -9.093e-6
-1.292, -9.093e-6
-1.291, -9.093e-6
-1.290, -9.093e-6
-1.289, -9.093e-6
-1.288, -9.093e-6
-1.287, -9.093e-6
-1.286, -6.010e-6
-1.285, -9.093e-6
-1.284, -9.093e-6
-1.283, -9.093e-6
-1.282, -9.093e-6
-1.281, -9.093e-6
-1.280, -9.093e-6
-1.279, -9.093e-6
-1.278, -9.093e-6
-1.277, -9.093e-6
-1.276, -9.093e-6
-1.275, -9.093e-6
-1.274, -9.093e-6
-1.273, -9.093e-6
-1.272, -6.010e-6
-1.271, -9.093e-6
-1.270, -9.093e-6
-1.269, -9.093e-6
-1.268, -9.093e-6
-1.267, -9.093e-6
-1.266, -9.093e-6
-1.265, -9.093e-6
-1.264, -9.093e-6
-1.263, -9.093e-6
-1.262, -9.093e-6
-1.261, -9.093e-6
-1.260, -9.093e-6
-1.259, -9.093e-6
-1.258, -9.093e-6
-1.257, -9.093e-6
-1.256, -9.093e-6
-1.255, -9.093e-6
-1.254, -9.093e-6
-1.253, -9.093e-6
-1.252, -9.093e-6
-1.251, -9.093e-6
-1.250, -9.093e-6
-1.249, -9.093e-6
-1.248, -9.093e-6
-1.247, -9.093e-6
-1.246, -9.093e-6
-1.245, -9.093e-6
-1.244, -9.093e-6
-1.243, -9.093e-6
-1.242, -1.218e-5
-1.241, -9.093e-6
-1.240, -9.093e-6
-1.239, -9.093e-6
-1.238, -9.093e-6
-1.237, -9.093e-6
-1.236, -9.093e-6
-1.235, -9.093e-6
-1.234, -1.218e-5
-1.233, -9.093e-6
-1.232, -9.093e-6
-1.231, -9.093e-6
-1.230, -9.093e-6
-1.229, -9.093e-6
-1.228, -9.093e-6
-1.227, -9.093e-6
-1.226, -9.093e-6
-1.225, -9.093e-6
-1.224, -9.093e-6
-1.223, -9.093e-6
-1.222, -9.093e-6
-1.221, -9.093e-6
-1.220, -9.093e-6
-1.219, -9.093e-6
-1.218, -9.093e-6
-1.217, -9.093e-6
-1.216, -1.218e-5
-1.215, -1.218e-5
-1.214, -9.093e-6
-1.213, -9.093e-6
-1.212, -9.093e-6
-1.211, -1.218e-5
-1.210, -9.093e-6
-1.209, -9.093e-6
-1.208, -9.093e-6
-1.207, -1.218e-5
-1.206, -9.093e-6
-1.205, -9.093e-6
-1.204, -9.093e-6
-1.203, -9.093e-6
-1.202, -1.218e-5
-1.201, -9.093e-6
-1.200, -9.093e-6
-1.199, -9.093e-6
-1.198, -9.093e-6
-1.197, -1.218e-5
-1.196, -9.093e-6
-1.195, -9.093e-6
-1.194, -9.093e-6
-1.193, -1.218e-5
-1.192, -9.093e-6
-1.191, -9.093e-6
-1.190, -9.093e-6
-1.189, -9.093e-6
-1.188, -9.093e-6
-1.187, -1.218e-5
-1.186, -9.093e-6
-1.185, -9.093e-6
-1.184, -9.093e-6
-1.183, -1.218e-5
-1.182, -9.093e-6
-1.181, -9.093e-6
-1.180, -9.093e-6
-1.179, -1.218e-5
-1.178, -9.093e-6
-1.177, -1.218e-5
-1.176, -9.093e-6
-1.175, -9.093e-6
-1.174, -1.218e-5
-1.173, -9.093e-6
-1.172, -9.093e-6
-1.171, -1.218e-5
-1.170, -1.218e-5
-1.169, -1.218e-5
-1.168, -9.093e-6
-1.167, -1.218e-5
-1.166, -9.093e-6
-1.165, -1.218e-5
-1.164, -9.093e-6
-1.163, -9.093e-6
-1.162, -9.093e-6
-1.161, -1.218e-5
-1.160, -1.218e-5
-1.159, -9.093e-6
-1.158, -1.218e-5
-1.157, -1.218e-5
-1.156, -1.218e-5
-1.155, -1.218e-5
-1.154, -1.218e-5
-1.153, -9.093e-6
-1.152, -1.218e-5
-1.151, -1.218e-5
-1.150, -1.218e-5
-1.149, -9.093e-6
-1.148, -9.093e-6
-1.147, -9.093e-6
-1.146, -1.218e-5
-1.145, -9.093e-6
-1.144, -1.218e-5
-1.143, -1.218e-5
-1.142, -1.218e-5
-1.141, -9.093e-6
-1.140, -9.093e-6
-1.139, -9.093e-6
-1.138, -1.218e-5
-1.137, -1.218e-5
-1.136, -9.093e-6
-1.135, -9.093e-6
-1.134, -1.218e-5
-1.133, -1.218e-5
-1.132, -1.218e-5
-1.131, -9.093e-6
-1.130, -1.218e-5
-1.129, -9.093e-6
-1.128, -1.218e-5
-1.127, -1.218e-5
-1.126, -9.093e-6
-1.125, -1.218e-5
-1.124, -1.218e-5
-1.123, -1.218e-5
-1.122, -9.093e-6
-1.121, -9.093e-6
-1.120, -1.218e-5
-1.119, -1.218e-5
-1.118, -1.218e-5
-1.117, -9.093e-6
-1.116, -1.218e-5
-1.115, -1.218e-5
-1.114, -1.218e-5
-1.113, -9.093e-6
-1.112, -1.218e-5
-1.111, -1.218e-5
-1.110, -1.218e-5
-1.109, -1.218e-5
-1.108, -1.218e-5
-1.107, -1.218e-5
-1.106, -1.218e-5
-1.105, -1.218e-5
-1.104, -1.218e-5
-1.103, -1.218e-5
-1.102, -1.218e-5
-1.101, -1.218e-5
-1.100, -1.218e-5
-1.099, -9.093e-6
-1.098, -9.093e-6
-1.097, -1.218e-5
-1.096, -1.218e-5
-1.095, -1.218e-5
-1.094, -1.218e-5
-1.093, -1.218e-5
-1.092, -1.218e-5
-1.091, -1.218e-5
-1.090, -1.218e-5
-1.089, -9.093e-6
-1.088, -1.218e-5
-1.087, -1.218e-5
-1.086, -1.218e-5
-1.085, -1.218e-5
-1.084, -1.218e-5
-1.083, -1.218e-5
-1.082, -1.218e-5
-1.081, -1.218e-5
-1.080, -1.218e-5
-1.079, -1.218e-5
-1.078, -1.218e-5
-1.077, -1.218e-5
-1.076, -9.093e-6
-1.075, -9.093e-6
-1.074, -1.218e-5
-1.073, -1.218e-5
-1.072, -1.218e-5
-1.071, -1.218e-5
-1.070, -1.218e-5
-1.069, -1.218e-5
-1.068, -1.218e-5
-1.067, -1.218e-5
-1.066, -9.093e-6
-1.065, -1.218e-5
-1.064, -1.218e-5
-1.063, -1.218e-5
-1.062, -1.218e-5
-1.061, -1.218e-5
-1.060, -1.218e-5
-1.059, -1.218e-5
-1.058, -1.218e-5
-1.057, -1.218e-5
-1.056, -1.218e-5
-1.055, -1.526e-5
-1.054, -1.218e-5
-1.053, -1.218e-5
-1.052, -1.218e-5
-1.051, -1.218e-5
-1.050, -1.218e-5
-1.049, -1.218e-5
-1.048, -1.218e-5
-1.047, -1.218e-5
-1.046, -1.218e-5
-1.045, -1.218e-5
-1.044, -1.218e-5
-1.043, -1.218e-5
-1.042, -1.218e-5
-1.041, -1.218e-5
-1.040, -1.218e-5
-1.039, -1.218e-5
-1.038, -1.218e-5
-1.037, -1.218e-5
-1.036, -1.218e-5
-1.035, -1.218e-5
-1.034, -1.218e-5
-1.033, -1.218e-5
-1.032, -1.218e-5
-1.031, -1.218e-5
-1.030, -1.218e-5
-1.029, -1.218e-5
-1.028, -1.218e-5
-1.027, -1.218e-5
-1.026, -1.218e-5
-1.025, -1.218e-5
-1.024, -1.218e-5
-1.023, -1.218e-5
-1.022, -1.218e-5
-1.021, -1.218e-5
-1.020, -1.218e-5
-1.019, -1.218e-5
-1.018, -1.218e-5
-1.017, -1.218e-5
-1.016, -1.218e-5
-1.015, -1.218e-5
-1.014, -1.218e-5
-1.013, -1.218e-5
-1.012, -9.093e-6
-1.011, -1.218e-5
-1.010, -1.218e-5
-1.009, -1.218e-5
-1.008, -1.218e-5
-1.007, -1.218e-5
-1.006, -1.218e-5
-1.005, -1.218e-5
-1.004, -1.218e-5
-1.003, -1.218e-5
-1.002, -1.218e-5
-1.001, -1.218e-5
