Mar. 14, 2025   18:47:22
Cyclic Voltammetry
File: c:/users/guazh/data/banditlqround7_x0exp891_r5/2025-03-03-exp895\exp895-2025-03-14t18_42_26-arkoh\exp895_cv_50mvs_efin_-1400mv.bin
Data Source:  Experiment
Instrument Model:  CHI760E
Header: CV ran at 50 mVs
Note: 

Init E (V) = -1
High E (V) = -1
Low E (V) = -1.4
Final E (V) = -1
Init P/N = N
Scan Rate (V/s) = 0.05
Segment = 7
Sample Interval (V) = 0.001
Quiet Time (sec) = 60
Sensitivity (A/V) = 0.001
Comp R (ohm) = 1.7

Results:

Channel 1:
Segment 1:

Segment 2:

Segment 3:

Segment 4:

Segment 5:

Segment 6:

Segment 7:

Potential/V, Current/A

-1.000, 7.527e-6
-1.001, 1.077e-5
-1.002, 1.193e-5
-1.003, 1.241e-5
-1.004, 1.272e-5
-1.005, 1.285e-5
-1.006, 1.325e-5
-1.007, 1.380e-5
-1.008, 1.401e-5
-1.009, 1.402e-5
-1.010, 1.410e-5
-1.011, 1.432e-5
-1.012, 1.485e-5
-1.013, 1.509e-5
-1.014, 1.496e-5
-1.015, 1.504e-5
-1.016, 1.523e-5
-1.017, 1.565e-5
-1.018, 1.596e-5
-1.019, 1.574e-5
-1.020, 1.582e-5
-1.021, 1.606e-5
-1.022, 1.643e-5
-1.023, 1.674e-5
-1.024, 1.662e-5
-1.025, 1.661e-5
-1.026, 1.691e-5
-1.027, 1.731e-5
-1.028, 1.760e-5
-1.029, 1.747e-5
-1.030, 1.745e-5
-1.031, 1.786e-5
-1.032, 1.813e-5
-1.033, 1.846e-5
-1.034, 1.840e-5
-1.035, 1.834e-5
-1.036, 1.874e-5
-1.037, 1.925e-5
-1.038, 1.941e-5
-1.039, 1.946e-5
-1.040, 1.943e-5
-1.041, 1.983e-5
-1.042, 2.030e-5
-1.043, 2.048e-5
-1.044, 2.055e-5
-1.045, 2.059e-5
-1.046, 2.096e-5
-1.047, 2.155e-5
-1.048, 2.176e-5
-1.049, 2.176e-5
-1.050, 2.196e-5
-1.051, 2.226e-5
-1.052, 2.284e-5
-1.053, 2.317e-5
-1.054, 2.321e-5
-1.055, 2.337e-5
-1.056, 2.376e-5
-1.057, 2.428e-5
-1.058, 2.469e-5
-1.059, 2.460e-5
-1.060, 2.495e-5
-1.061, 2.541e-5
-1.062, 2.595e-5
-1.063, 2.638e-5
-1.064, 2.632e-5
-1.065, 2.655e-5
-1.066, 2.718e-5
-1.067, 2.764e-5
-1.068, 2.809e-5
-1.069, 2.819e-5
-1.070, 2.841e-5
-1.071, 2.905e-5
-1.072, 2.958e-5
-1.073, 2.992e-5
-1.074, 3.014e-5
-1.075, 3.044e-5
-1.076, 3.099e-5
-1.077, 3.162e-5
-1.078, 3.194e-5
-1.079, 3.216e-5
-1.080, 3.240e-5
-1.081, 3.304e-5
-1.082, 3.378e-5
-1.083, 3.405e-5
-1.084, 3.431e-5
-1.085, 3.461e-5
-1.086, 3.526e-5
-1.087, 3.599e-5
-1.088, 3.627e-5
-1.089, 3.651e-5
-1.090, 3.698e-5
-1.091, 3.744e-5
-1.092, 3.827e-5
-1.093, 3.859e-5
-1.094, 3.883e-5
-1.095, 3.925e-5
-1.096, 3.978e-5
-1.097, 4.047e-5
-1.098, 4.106e-5
-1.099, 4.123e-5
-1.100, 4.155e-5
-1.101, 4.228e-5
-1.102, 4.293e-5
-1.103, 4.340e-5
-1.104, 4.364e-5
-1.105, 4.393e-5
-1.106, 4.468e-5
-1.107, 4.532e-5
-1.108, 4.581e-5
-1.109, 4.606e-5
-1.110, 4.635e-5
-1.111, 4.714e-5
-1.112, 4.777e-5
-1.113, 4.820e-5
-1.114, 4.854e-5
-1.115, 4.884e-5
-1.116, 4.952e-5
-1.117, 5.020e-5
-1.118, 5.064e-5
-1.119, 5.098e-5
-1.120, 5.113e-5
-1.121, 5.193e-5
-1.122, 5.266e-5
-1.123, 5.302e-5
-1.124, 5.321e-5
-1.125, 5.357e-5
-1.126, 5.422e-5
-1.127, 5.497e-5
-1.128, 5.530e-5
-1.129, 5.550e-5
-1.130, 5.588e-5
-1.131, 5.647e-5
-1.132, 5.715e-5
-1.133, 5.761e-5
-1.134, 5.767e-5
-1.135, 5.809e-5
-1.136, 5.858e-5
-1.137, 5.932e-5
-1.138, 5.965e-5
-1.139, 5.967e-5
-1.140, 6.001e-5
-1.141, 6.058e-5
-1.142, 6.117e-5
-1.143, 6.153e-5
-1.144, 6.160e-5
-1.145, 6.187e-5
-1.146, 6.252e-5
-1.147, 6.295e-5
-1.148, 6.329e-5
-1.149, 6.333e-5
-1.150, 6.357e-5
-1.151, 6.426e-5
-1.152, 6.459e-5
-1.153, 6.494e-5
-1.154, 6.497e-5
-1.155, 6.502e-5
-1.156, 6.560e-5
-1.157, 6.608e-5
-1.158, 6.621e-5
-1.159, 6.634e-5
-1.160, 6.631e-5
-1.161, 6.692e-5
-1.162, 6.742e-5
-1.163, 6.741e-5
-1.164, 6.744e-5
-1.165, 6.752e-5
-1.166, 6.797e-5
-1.167, 6.838e-5
-1.168, 6.834e-5
-1.169, 6.832e-5
-1.170, 6.849e-5
-1.171, 6.881e-5
-1.172, 6.916e-5
-1.173, 6.922e-5
-1.174, 6.905e-5
-1.175, 6.919e-5
-1.176, 6.949e-5
-1.177, 6.981e-5
-1.178, 6.989e-5
-1.179, 6.957e-5
-1.180, 6.971e-5
-1.181, 7.000e-5
-1.182, 7.027e-5
-1.183, 7.025e-5
-1.184, 7.005e-5
-1.185, 7.003e-5
-1.186, 7.037e-5
-1.187, 7.047e-5
-1.188, 7.043e-5
-1.189, 7.023e-5
-1.190, 7.020e-5
-1.191, 7.054e-5
-1.192, 7.066e-5
-1.193, 7.049e-5
-1.194, 7.038e-5
-1.195, 7.021e-5
-1.196, 7.054e-5
-1.197, 7.065e-5
-1.198, 7.056e-5
-1.199, 7.038e-5
-1.200, 7.016e-5
-1.201, 7.046e-5
-1.202, 7.065e-5
-1.203, 7.044e-5
-1.204, 7.013e-5
-1.205, 7.018e-5
-1.206, 7.034e-5
-1.207, 7.056e-5
-1.208, 7.029e-5
-1.209, 6.996e-5
-1.210, 7.002e-5
-1.211, 7.019e-5
-1.212, 7.034e-5
-1.213, 7.018e-5
-1.214, 6.984e-5
-1.215, 6.980e-5
-1.216, 6.993e-5
-1.217, 7.008e-5
-1.218, 6.999e-5
-1.219, 6.969e-5
-1.220, 6.968e-5
-1.221, 6.975e-5
-1.222, 6.991e-5
-1.223, 6.984e-5
-1.224, 6.948e-5
-1.225, 6.948e-5
-1.226, 6.971e-5
-1.227, 6.988e-5
-1.228, 6.986e-5
-1.229, 6.948e-5
-1.230, 6.947e-5
-1.231, 6.967e-5
-1.232, 6.971e-5
-1.233, 6.965e-5
-1.234, 6.942e-5
-1.235, 6.937e-5
-1.236, 6.954e-5
-1.237, 6.975e-5
-1.238, 6.959e-5
-1.239, 6.940e-5
-1.240, 6.936e-5
-1.241, 6.955e-5
-1.242, 6.975e-5
-1.243, 6.959e-5
-1.244, 6.937e-5
-1.245, 6.939e-5
-1.246, 6.962e-5
-1.247, 6.994e-5
-1.248, 6.970e-5
-1.249, 6.949e-5
-1.250, 6.960e-5
-1.251, 6.976e-5
-1.252, 7.006e-5
-1.253, 6.997e-5
-1.254, 6.973e-5
-1.255, 6.979e-5
-1.256, 6.997e-5
-1.257, 7.026e-5
-1.258, 7.026e-5
-1.259, 6.992e-5
-1.260, 7.011e-5
-1.261, 7.032e-5
-1.262, 7.059e-5
-1.263, 7.061e-5
-1.264, 7.023e-5
-1.265, 7.037e-5
-1.266, 7.079e-5
-1.267, 7.106e-5
-1.268, 7.111e-5
-1.269, 7.086e-5
-1.270, 7.086e-5
-1.271, 7.127e-5
-1.272, 7.152e-5
-1.273, 7.143e-5
-1.274, 7.144e-5
-1.275, 7.142e-5
-1.276, 7.182e-5
-1.277, 7.216e-5
-1.278, 7.201e-5
-1.279, 7.201e-5
-1.280, 7.223e-5
-1.281, 7.251e-5
-1.282, 7.292e-5
-1.283, 7.274e-5
-1.284, 7.274e-5
-1.285, 7.289e-5
-1.286, 7.335e-5
-1.287, 7.364e-5
-1.288, 7.359e-5
-1.289, 7.354e-5
-1.290, 7.383e-5
-1.291, 7.417e-5
-1.292, 7.463e-5
-1.293, 7.462e-5
-1.294, 7.454e-5
-1.295, 7.484e-5
-1.296, 7.525e-5
-1.297, 7.564e-5
-1.298, 7.577e-5
-1.299, 7.568e-5
-1.300, 7.598e-5
-1.301, 7.649e-5
-1.302, 7.695e-5
-1.303, 7.706e-5
-1.304, 7.704e-5
-1.305, 7.742e-5
-1.306, 7.803e-5
-1.307, 7.844e-5
-1.308, 7.867e-5
-1.309, 7.879e-5
-1.310, 7.924e-5
-1.311, 7.992e-5
-1.312, 8.047e-5
-1.313, 8.073e-5
-1.314, 8.106e-5
-1.315, 8.163e-5
-1.316, 8.248e-5
-1.317, 8.328e-5
-1.318, 8.385e-5
-1.319, 8.450e-5
-1.320, 8.544e-5
-1.321, 8.667e-5
-1.322, 8.813e-5
-1.323, 8.946e-5
-1.324, 9.109e-5
-1.325, 9.339e-5
-1.326, 9.580e-5
-1.327, 9.794e-5
-1.328, 9.979e-5
-1.329, 1.017e-4
-1.330, 1.046e-4
-1.331, 1.076e-4
-1.332, 1.108e-4
-1.333, 1.144e-4
-1.334, 1.188e-4
-1.335, 1.242e-4
-1.336, 1.305e-4
-1.337, 1.382e-4
-1.338, 1.469e-4
-1.339, 1.566e-4
-1.340, 1.676e-4
-1.341, 1.807e-4
-1.342, 1.953e-4
-1.343, 2.122e-4
-1.344, 2.325e-4
-1.345, 2.549e-4
-1.346, 2.813e-4
-1.347, 3.117e-4
-1.348, 3.480e-4
-1.349, 3.868e-4
-1.350, 4.340e-4
-1.351, 4.869e-4
-1.352, 5.424e-4
-1.353, 5.972e-4
-1.354, 6.445e-4
-1.355, 6.879e-4
-1.356, 7.252e-4
-1.357, 7.622e-4
-1.358, 7.900e-4
-1.359, 8.176e-4
-1.360, 8.470e-4
-1.361, 8.805e-4
-1.362, 9.159e-4
-1.363, 9.546e-4
-1.364, 9.978e-4
-1.365, 1.043e-3
-1.366, 1.089e-3
-1.367, 1.135e-3
-1.368, 1.181e-3
-1.369, 1.231e-3
-1.370, 1.281e-3
-1.371, 1.329e-3
-1.372, 1.378e-3
-1.373, 1.438e-3
-1.374, 1.497e-3
-1.375, 1.556e-3
-1.376, 1.613e-3
-1.377, 1.678e-3
-1.378, 1.740e-3
-1.379, 1.804e-3
-1.380, 1.870e-3
-1.381, 1.931e-3
-1.382, 1.996e-3
-1.383, 2.067e-3
-1.384, 2.129e-3
-1.385, 2.191e-3
-1.386, 2.257e-3
-1.387, 2.324e-3
-1.388, 2.393e-3
-1.389, 2.467e-3
-1.390, 2.535e-3
-1.391, 2.605e-3
-1.392, 2.670e-3
-1.393, 2.740e-3
-1.394, 2.813e-3
-1.395, 2.883e-3
-1.396, 2.950e-3
-1.397, 3.014e-3
-1.398, 3.081e-3
-1.399, 3.152e-3
-1.400, 3.163e-3
-1.399, 3.116e-3
-1.398, 3.070e-3
-1.397, 3.015e-3
-1.396, 2.961e-3
-1.395, 2.909e-3
-1.394, 2.853e-3
-1.393, 2.792e-3
-1.392, 2.739e-3
-1.391, 2.676e-3
-1.390, 2.614e-3
-1.389, 2.556e-3
-1.388, 2.502e-3
-1.387, 2.455e-3
-1.386, 2.397e-3
-1.385, 2.341e-3
-1.384, 2.287e-3
-1.383, 2.234e-3
-1.382, 2.184e-3
-1.381, 2.130e-3
-1.380, 2.073e-3
-1.379, 2.022e-3
-1.378, 1.972e-3
-1.377, 1.923e-3
-1.376, 1.872e-3
-1.375, 1.823e-3
-1.374, 1.776e-3
-1.373, 1.729e-3
-1.372, 1.682e-3
-1.371, 1.639e-3
-1.370, 1.598e-3
-1.369, 1.557e-3
-1.368, 1.516e-3
-1.367, 1.475e-3
-1.366, 1.437e-3
-1.365, 1.397e-3
-1.364, 1.358e-3
-1.363, 1.321e-3
-1.362, 1.285e-3
-1.361, 1.248e-3
-1.360, 1.208e-3
-1.359, 1.170e-3
-1.358, 1.138e-3
-1.357, 1.104e-3
-1.356, 1.070e-3
-1.355, 1.039e-3
-1.354, 1.008e-3
-1.353, 9.808e-4
-1.352, 9.518e-4
-1.351, 9.227e-4
-1.350, 8.950e-4
-1.349, 8.686e-4
-1.348, 8.425e-4
-1.347, 8.166e-4
-1.346, 7.923e-4
-1.345, 7.681e-4
-1.344, 7.448e-4
-1.343, 7.207e-4
-1.342, 6.973e-4
-1.341, 6.726e-4
-1.340, 6.523e-4
-1.339, 6.314e-4
-1.338, 6.110e-4
-1.337, 5.911e-4
-1.336, 5.719e-4
-1.335, 5.531e-4
-1.334, 5.349e-4
-1.333, 5.170e-4
-1.332, 4.997e-4
-1.331, 4.827e-4
-1.330, 4.660e-4
-1.329, 4.502e-4
-1.328, 4.351e-4
-1.327, 4.203e-4
-1.326, 4.053e-4
-1.325, 3.914e-4
-1.324, 3.779e-4
-1.323, 3.648e-4
-1.322, 3.521e-4
-1.321, 3.395e-4
-1.320, 3.276e-4
-1.319, 3.160e-4
-1.318, 3.047e-4
-1.317, 2.937e-4
-1.316, 2.832e-4
-1.315, 2.731e-4
-1.314, 2.638e-4
-1.313, 2.542e-4
-1.312, 2.450e-4
-1.311, 2.361e-4
-1.310, 2.274e-4
-1.309, 2.192e-4
-1.308, 2.115e-4
-1.307, 2.035e-4
-1.306, 1.960e-4
-1.305, 1.887e-4
-1.304, 1.821e-4
-1.303, 1.753e-4
-1.302, 1.687e-4
-1.301, 1.623e-4
-1.300, 1.563e-4
-1.299, 1.507e-4
-1.298, 1.450e-4
-1.297, 1.392e-4
-1.296, 1.340e-4
-1.295, 1.290e-4
-1.294, 1.243e-4
-1.293, 1.195e-4
-1.292, 1.149e-4
-1.291, 1.104e-4
-1.290, 1.063e-4
-1.289, 1.024e-4
-1.288, 9.858e-5
-1.287, 9.448e-5
-1.286, 9.074e-5
-1.285, 8.742e-5
-1.284, 8.410e-5
-1.283, 8.070e-5
-1.282, 7.749e-5
-1.281, 7.426e-5
-1.280, 7.144e-5
-1.279, 6.869e-5
-1.278, 6.595e-5
-1.277, 6.326e-5
-1.276, 6.064e-5
-1.275, 5.824e-5
-1.274, 5.608e-5
-1.273, 5.374e-5
-1.272, 5.150e-5
-1.271, 4.931e-5
-1.270, 4.729e-5
-1.269, 4.556e-5
-1.268, 4.367e-5
-1.267, 4.160e-5
-1.266, 3.979e-5
-1.265, 3.816e-5
-1.264, 3.675e-5
-1.263, 3.516e-5
-1.262, 3.339e-5
-1.261, 3.189e-5
-1.260, 3.064e-5
-1.259, 2.937e-5
-1.258, 2.812e-5
-1.257, 2.656e-5
-1.256, 2.525e-5
-1.255, 2.425e-5
-1.254, 2.323e-5
-1.253, 2.211e-5
-1.252, 2.092e-5
-1.251, 1.972e-5
-1.250, 1.895e-5
-1.249, 1.811e-5
-1.248, 1.719e-5
-1.247, 1.616e-5
-1.246, 1.505e-5
-1.245, 1.451e-5
-1.244, 1.385e-5
-1.243, 1.296e-5
-1.242, 1.207e-5
-1.241, 1.123e-5
-1.240, 1.069e-5
-1.239, 1.027e-5
-1.238, 9.476e-6
-1.237, 8.714e-6
-1.236, 8.025e-6
-1.235, 7.506e-6
-1.234, 7.187e-6
-1.233, 6.491e-6
-1.232, 5.868e-6
-1.231, 5.228e-6
-1.230, 4.865e-6
-1.229, 4.461e-6
-1.228, 4.077e-6
-1.227, 3.309e-6
-1.226, 2.867e-6
-1.225, 2.560e-6
-1.224, 2.365e-6
-1.223, 1.945e-6
-1.222, 1.311e-6
-1.221, 8.670e-7
-1.220, 6.835e-7
-1.219, 4.408e-7
-1.218, 9.254e-8
-1.217, -5.231e-7
-1.216, -8.053e-7
-1.215, -1.023e-6
-1.214, -1.148e-6
-1.213, -1.447e-6
-1.212, -1.956e-6
-1.211, -2.372e-6
-1.210, -2.355e-6
-1.209, -2.575e-6
-1.208, -2.814e-6
-1.207, -3.252e-6
-1.206, -3.688e-6
-1.205, -3.653e-6
-1.204, -3.735e-6
-1.203, -4.087e-6
-1.202, -4.460e-6
-1.201, -4.814e-6
-1.200, -4.721e-6
-1.199, -4.702e-6
-1.198, -5.094e-6
-1.197, -5.483e-6
-1.196, -5.726e-6
-1.195, -5.725e-6
-1.194, -5.703e-6
-1.193, -5.947e-6
-1.192, -6.398e-6
-1.191, -6.526e-6
-1.190, -6.629e-6
-1.189, -6.537e-6
-1.188, -6.807e-6
-1.187, -7.251e-6
-1.186, -7.337e-6
-1.185, -7.382e-6
-1.184, -7.259e-6
-1.183, -7.513e-6
-1.182, -7.952e-6
-1.181, -8.053e-6
-1.180, -7.982e-6
-1.179, -8.052e-6
-1.178, -8.215e-6
-1.177, -8.650e-6
-1.176, -8.689e-6
-1.175, -8.626e-6
-1.174, -8.644e-6
-1.173, -8.791e-6
-1.172, -9.204e-6
-1.171, -9.358e-6
-1.170, -9.276e-6
-1.169, -9.197e-6
-1.168, -9.406e-6
-1.167, -9.690e-6
-1.166, -9.919e-6
-1.165, -9.719e-6
-1.164, -9.748e-6
-1.163, -9.929e-6
-1.162, -1.029e-5
-1.161, -1.041e-5
-1.160, -1.030e-5
-1.159, -1.018e-5
-1.158, -1.045e-5
-1.157, -1.075e-5
-1.156, -1.092e-5
-1.155, -1.082e-5
-1.154, -1.069e-5
-1.153, -1.093e-5
-1.152, -1.126e-5
-1.151, -1.138e-5
-1.150, -1.135e-5
-1.149, -1.115e-5
-1.148, -1.135e-5
-1.147, -1.175e-5
-1.146, -1.186e-5
-1.145, -1.176e-5
-1.144, -1.159e-5
-1.143, -1.177e-5
-1.142, -1.220e-5
-1.141, -1.219e-5
-1.140, -1.220e-5
-1.139, -1.209e-5
-1.138, -1.218e-5
-1.137, -1.266e-5
-1.136, -1.262e-5
-1.135, -1.257e-5
-1.134, -1.252e-5
-1.133, -1.262e-5
-1.132, -1.299e-5
-1.131, -1.317e-5
-1.130, -1.295e-5
-1.129, -1.290e-5
-1.128, -1.304e-5
-1.127, -1.341e-5
-1.126, -1.362e-5
-1.125, -1.339e-5
-1.124, -1.327e-5
-1.123, -1.352e-5
-1.122, -1.389e-5
-1.121, -1.401e-5
-1.120, -1.383e-5
-1.119, -1.369e-5
-1.118, -1.395e-5
-1.117, -1.429e-5
-1.116, -1.430e-5
-1.115, -1.438e-5
-1.114, -1.408e-5
-1.113, -1.440e-5
-1.112, -1.466e-5
-1.111, -1.479e-5
-1.110, -1.475e-5
-1.109, -1.451e-5
-1.108, -1.474e-5
-1.107, -1.521e-5
-1.106, -1.519e-5
-1.105, -1.519e-5
-1.104, -1.492e-5
-1.103, -1.519e-5
-1.102, -1.565e-5
-1.101, -1.563e-5
-1.100, -1.555e-5
-1.099, -1.549e-5
-1.098, -1.558e-5
-1.097, -1.610e-5
-1.096, -1.610e-5
-1.095, -1.597e-5
-1.094, -1.598e-5
-1.093, -1.610e-5
-1.092, -1.651e-5
-1.091, -1.661e-5
-1.090, -1.645e-5
-1.089, -1.647e-5
-1.088, -1.661e-5
-1.087, -1.696e-5
-1.086, -1.718e-5
-1.085, -1.690e-5
-1.084, -1.683e-5
-1.083, -1.717e-5
-1.082, -1.743e-5
-1.081, -1.764e-5
-1.080, -1.740e-5
-1.079, -1.739e-5
-1.078, -1.767e-5
-1.077, -1.799e-5
-1.076, -1.816e-5
-1.075, -1.808e-5
-1.074, -1.787e-5
-1.073, -1.819e-5
-1.072, -1.848e-5
-1.071, -1.860e-5
-1.070, -1.864e-5
-1.069, -1.841e-5
-1.068, -1.869e-5
-1.067, -1.914e-5
-1.066, -1.916e-5
-1.065, -1.916e-5
-1.064, -1.899e-5
-1.063, -1.929e-5
-1.062, -1.973e-5
-1.061, -1.981e-5
-1.060, -1.967e-5
-1.059, -1.968e-5
-1.058, -1.988e-5
-1.057, -2.034e-5
-1.056, -2.041e-5
-1.055, -2.029e-5
-1.054, -2.034e-5
-1.053, -2.047e-5
-1.052, -2.092e-5
-1.051, -2.110e-5
-1.050, -2.091e-5
-1.049, -2.095e-5
-1.048, -2.111e-5
-1.047, -2.160e-5
-1.046, -2.177e-5
-1.045, -2.155e-5
-1.044, -2.148e-5
-1.043, -2.199e-5
-1.042, -2.222e-5
-1.041, -2.241e-5
-1.040, -2.230e-5
-1.039, -2.215e-5
-1.038, -2.261e-5
-1.037, -2.293e-5
-1.036, -2.306e-5
-1.035, -2.305e-5
-1.034, -2.282e-5
-1.033, -2.332e-5
-1.032, -2.363e-5
-1.031, -2.377e-5
-1.030, -2.377e-5
-1.029, -2.357e-5
-1.028, -2.387e-5
-1.027, -2.443e-5
-1.026, -2.451e-5
-1.025, -2.446e-5
-1.024, -2.435e-5
-1.023, -2.470e-5
-1.022, -2.524e-5
-1.021, -2.517e-5
-1.020, -2.519e-5
-1.019, -2.516e-5
-1.018, -2.540e-5
-1.017, -2.595e-5
-1.016, -2.600e-5
-1.015, -2.586e-5
-1.014, -2.594e-5
-1.013, -2.617e-5
-1.012, -2.666e-5
-1.011, -2.685e-5
-1.010, -2.659e-5
-1.009, -2.670e-5
-1.008, -2.703e-5
-1.007, -2.739e-5
-1.006, -2.765e-5
-1.005, -2.744e-5
-1.004, -2.742e-5
-1.003, -2.786e-5
-1.002, -2.823e-5
-1.001, -2.838e-5
-1.000, -1.051e-5
-1.001, -3.324e-6
-1.002, -1.369e-6
-1.003, -3.060e-7
-1.004, 9.913e-7
-1.005, 2.171e-6
-1.006, 3.210e-6
-1.007, 3.816e-6
-1.008, 4.016e-6
-1.009, 4.669e-6
-1.010, 5.487e-6
-1.011, 6.199e-6
-1.012, 6.394e-6
-1.013, 6.468e-6
-1.014, 6.937e-6
-1.015, 7.542e-6
-1.016, 8.044e-6
-1.017, 8.092e-6
-1.018, 8.206e-6
-1.019, 8.428e-6
-1.020, 8.980e-6
-1.021, 9.367e-6
-1.022, 9.350e-6
-1.023, 9.353e-6
-1.024, 9.582e-6
-1.025, 9.998e-6
-1.026, 1.033e-5
-1.027, 1.026e-5
-1.028, 1.023e-5
-1.029, 1.036e-5
-1.030, 1.069e-5
-1.031, 1.118e-5
-1.032, 1.095e-5
-1.033, 1.089e-5
-1.034, 1.108e-5
-1.035, 1.134e-5
-1.036, 1.171e-5
-1.037, 1.153e-5
-1.038, 1.139e-5
-1.039, 1.161e-5
-1.040, 1.187e-5
-1.041, 1.220e-5
-1.042, 1.202e-5
-1.043, 1.178e-5
-1.044, 1.201e-5
-1.045, 1.229e-5
-1.046, 1.249e-5
-1.047, 1.245e-5
-1.048, 1.219e-5
-1.049, 1.231e-5
-1.050, 1.268e-5
-1.051, 1.286e-5
-1.052, 1.268e-5
-1.053, 1.249e-5
-1.054, 1.257e-5
-1.055, 1.299e-5
-1.056, 1.311e-5
-1.057, 1.287e-5
-1.058, 1.277e-5
-1.059, 1.277e-5
-1.060, 1.318e-5
-1.061, 1.327e-5
-1.062, 1.313e-5
-1.063, 1.294e-5
-1.064, 1.304e-5
-1.065, 1.329e-5
-1.066, 1.364e-5
-1.067, 1.321e-5
-1.068, 1.309e-5
-1.069, 1.321e-5
-1.070, 1.348e-5
-1.071, 1.374e-5
-1.072, 1.336e-5
-1.073, 1.321e-5
-1.074, 1.339e-5
-1.075, 1.370e-5
-1.076, 1.376e-5
-1.077, 1.357e-5
-1.078, 1.334e-5
-1.079, 1.355e-5
-1.080, 1.365e-5
-1.081, 1.380e-5
-1.082, 1.367e-5
-1.083, 1.337e-5
-1.084, 1.359e-5
-1.085, 1.382e-5
-1.086, 1.392e-5
-1.087, 1.380e-5
-1.088, 1.348e-5
-1.089, 1.362e-5
-1.090, 1.391e-5
-1.091, 1.396e-5
-1.092, 1.379e-5
-1.093, 1.355e-5
-1.094, 1.367e-5
-1.095, 1.406e-5
-1.096, 1.396e-5
-1.097, 1.382e-5
-1.098, 1.375e-5
-1.099, 1.369e-5
-1.100, 1.402e-5
-1.101, 1.415e-5
-1.102, 1.385e-5
-1.103, 1.369e-5
-1.104, 1.375e-5
-1.105, 1.405e-5
-1.106, 1.421e-5
-1.107, 1.393e-5
-1.108, 1.377e-5
-1.109, 1.387e-5
-1.110, 1.413e-5
-1.111, 1.423e-5
-1.112, 1.395e-5
-1.113, 1.376e-5
-1.114, 1.398e-5
-1.115, 1.416e-5
-1.116, 1.425e-5
-1.117, 1.405e-5
-1.118, 1.385e-5
-1.119, 1.403e-5
-1.120, 1.425e-5
-1.121, 1.426e-5
-1.122, 1.413e-5
-1.123, 1.392e-5
-1.124, 1.402e-5
-1.125, 1.436e-5
-1.126, 1.434e-5
-1.127, 1.425e-5
-1.128, 1.399e-5
-1.129, 1.408e-5
-1.130, 1.445e-5
-1.131, 1.444e-5
-1.132, 1.429e-5
-1.133, 1.418e-5
-1.134, 1.420e-5
-1.135, 1.458e-5
-1.136, 1.452e-5
-1.137, 1.428e-5
-1.138, 1.428e-5
-1.139, 1.426e-5
-1.140, 1.465e-5
-1.141, 1.464e-5
-1.142, 1.449e-5
-1.143, 1.435e-5
-1.144, 1.444e-5
-1.145, 1.470e-5
-1.146, 1.483e-5
-1.147, 1.456e-5
-1.148, 1.451e-5
-1.149, 1.456e-5
-1.150, 1.484e-5
-1.151, 1.495e-5
-1.152, 1.471e-5
-1.153, 1.453e-5
-1.154, 1.482e-5
-1.155, 1.494e-5
-1.156, 1.504e-5
-1.157, 1.488e-5
-1.158, 1.472e-5
-1.159, 1.497e-5
-1.160, 1.519e-5
-1.161, 1.517e-5
-1.162, 1.509e-5
-1.163, 1.489e-5
-1.164, 1.509e-5
-1.165, 1.536e-5
-1.166, 1.540e-5
-1.167, 1.530e-5
-1.168, 1.512e-5
-1.169, 1.525e-5
-1.170, 1.560e-5
-1.171, 1.559e-5
-1.172, 1.545e-5
-1.173, 1.535e-5
-1.174, 1.550e-5
-1.175, 1.587e-5
-1.176, 1.584e-5
-1.177, 1.571e-5
-1.178, 1.569e-5
-1.179, 1.573e-5
-1.180, 1.607e-5
-1.181, 1.613e-5
-1.182, 1.599e-5
-1.183, 1.589e-5
-1.184, 1.611e-5
-1.185, 1.630e-5
-1.186, 1.648e-5
-1.187, 1.627e-5
-1.188, 1.629e-5
-1.189, 1.645e-5
-1.190, 1.668e-5
-1.191, 1.692e-5
-1.192, 1.665e-5
-1.193, 1.661e-5
-1.194, 1.686e-5
-1.195, 1.713e-5
-1.196, 1.726e-5
-1.197, 1.719e-5
-1.198, 1.709e-5
-1.199, 1.737e-5
-1.200, 1.760e-5
-1.201, 1.779e-5
-1.202, 1.771e-5
-1.203, 1.761e-5
-1.204, 1.790e-5
-1.205, 1.826e-5
-1.206, 1.835e-5
-1.207, 1.834e-5
-1.208, 1.823e-5
-1.209, 1.854e-5
-1.210, 1.897e-5
-1.211, 1.906e-5
-1.212, 1.904e-5
-1.213, 1.908e-5
-1.214, 1.937e-5
-1.215, 1.978e-5
-1.216, 1.989e-5
-1.217, 1.990e-5
-1.218, 2.001e-5
-1.219, 2.029e-5
-1.220, 2.080e-5
-1.221, 2.098e-5
-1.222, 2.091e-5
-1.223, 2.116e-5
-1.224, 2.146e-5
-1.225, 2.190e-5
-1.226, 2.223e-5
-1.227, 2.229e-5
-1.228, 2.260e-5
-1.229, 2.300e-5
-1.230, 2.343e-5
-1.231, 2.384e-5
-1.232, 2.388e-5
-1.233, 2.415e-5
-1.234, 2.475e-5
-1.235, 2.523e-5
-1.236, 2.567e-5
-1.237, 2.595e-5
-1.238, 2.622e-5
-1.239, 2.691e-5
-1.240, 2.758e-5
-1.241, 2.805e-5
-1.242, 2.843e-5
-1.243, 2.894e-5
-1.244, 2.960e-5
-1.245, 3.048e-5
-1.246, 3.114e-5
-1.247, 3.172e-5
-1.248, 3.224e-5
-1.249, 3.318e-5
-1.250, 3.427e-5
-1.251, 3.504e-5
-1.252, 3.580e-5
-1.253, 3.665e-5
-1.254, 3.784e-5
-1.255, 3.911e-5
-1.256, 4.021e-5
-1.257, 4.117e-5
-1.258, 4.239e-5
-1.259, 4.384e-5
-1.260, 4.544e-5
-1.261, 4.702e-5
-1.262, 4.831e-5
-1.263, 4.996e-5
-1.264, 5.178e-5
-1.265, 5.388e-5
-1.266, 5.586e-5
-1.267, 5.763e-5
-1.268, 5.975e-5
-1.269, 6.220e-5
-1.270, 6.482e-5
-1.271, 6.730e-5
-1.272, 6.976e-5
-1.273, 7.239e-5
-1.274, 7.562e-5
-1.275, 7.888e-5
-1.276, 8.211e-5
-1.277, 8.531e-5
-1.278, 8.878e-5
-1.279, 9.269e-5
-1.280, 9.672e-5
-1.281, 1.007e-4
-1.282, 1.044e-4
-1.283, 1.085e-4
-1.284, 1.130e-4
-1.285, 1.178e-4
-1.286, 1.225e-4
-1.287, 1.271e-4
-1.288, 1.323e-4
-1.289, 1.379e-4
-1.290, 1.438e-4
-1.291, 1.496e-4
-1.292, 1.555e-4
-1.293, 1.619e-4
-1.294, 1.685e-4
-1.295, 1.757e-4
-1.296, 1.828e-4
-1.297, 1.902e-4
-1.298, 1.979e-4
-1.299, 2.060e-4
-1.300, 2.147e-4
-1.301, 2.234e-4
-1.302, 2.325e-4
-1.303, 2.419e-4
-1.304, 2.515e-4
-1.305, 2.618e-4
-1.306, 2.724e-4
-1.307, 2.832e-4
-1.308, 2.938e-4
-1.309, 3.048e-4
-1.310, 3.166e-4
-1.311, 3.287e-4
-1.312, 3.407e-4
-1.313, 3.532e-4
-1.314, 3.657e-4
-1.315, 3.790e-4
-1.316, 3.927e-4
-1.317, 4.067e-4
-1.318, 4.207e-4
-1.319, 4.352e-4
-1.320, 4.491e-4
-1.321, 4.650e-4
-1.322, 4.811e-4
-1.323, 4.970e-4
-1.324, 5.140e-4
-1.325, 5.310e-4
-1.326, 5.492e-4
-1.327, 5.676e-4
-1.328, 5.868e-4
-1.329, 6.075e-4
-1.330, 6.295e-4
-1.331, 6.502e-4
-1.332, 6.719e-4
-1.333, 6.945e-4
-1.334, 7.176e-4
-1.335, 7.415e-4
-1.336, 7.653e-4
-1.337, 7.905e-4
-1.338, 8.152e-4
-1.339, 8.407e-4
-1.340, 8.645e-4
-1.341, 8.915e-4
-1.342, 9.186e-4
-1.343, 9.477e-4
-1.344, 9.804e-4
-1.345, 1.012e-3
-1.346, 1.043e-3
-1.347, 1.075e-3
-1.348, 1.107e-3
-1.349, 1.140e-3
-1.350, 1.174e-3
-1.351, 1.210e-3
-1.352, 1.246e-3
-1.353, 1.282e-3
-1.354, 1.318e-3
-1.355, 1.357e-3
-1.356, 1.394e-3
-1.357, 1.438e-3
-1.358, 1.482e-3
-1.359, 1.525e-3
-1.360, 1.569e-3
-1.361, 1.611e-3
-1.362, 1.649e-3
-1.363, 1.695e-3
-1.364, 1.742e-3
-1.365, 1.789e-3
-1.366, 1.838e-3
-1.367, 1.884e-3
-1.368, 1.930e-3
-1.369, 1.977e-3
-1.370, 2.024e-3
-1.371, 2.070e-3
-1.372, 2.116e-3
-1.373, 2.165e-3
-1.374, 2.217e-3
-1.375, 2.272e-3
-1.376, 2.320e-3
-1.377, 2.375e-3
-1.378, 2.429e-3
-1.379, 2.480e-3
-1.380, 2.532e-3
-1.381, 2.586e-3
-1.382, 2.641e-3
-1.383, 2.698e-3
-1.384, 2.752e-3
-1.385, 2.802e-3
-1.386, 2.858e-3
-1.387, 2.916e-3
-1.388, 2.974e-3
-1.389, 3.037e-3
-1.390, 3.091e-3
-1.391, 3.150e-3
-1.392, 3.206e-3
-1.393, 3.270e-3
-1.394, 3.323e-3
-1.395, 3.377e-3
-1.396, 3.439e-3
-1.397, 3.491e-3
-1.398, 3.548e-3
-1.399, 3.612e-3
-1.400, 3.617e-3
-1.399, 3.552e-3
-1.398, 3.479e-3
-1.397, 3.421e-3
-1.396, 3.361e-3
-1.395, 3.302e-3
-1.394, 3.242e-3
-1.393, 3.181e-3
-1.392, 3.111e-3
-1.391, 3.055e-3
-1.390, 2.999e-3
-1.389, 2.934e-3
-1.388, 2.874e-3
-1.387, 2.812e-3
-1.386, 2.751e-3
-1.385, 2.693e-3
-1.384, 2.639e-3
-1.383, 2.581e-3
-1.382, 2.517e-3
-1.381, 2.460e-3
-1.380, 2.405e-3
-1.379, 2.346e-3
-1.378, 2.295e-3
-1.377, 2.238e-3
-1.376, 2.185e-3
-1.375, 2.136e-3
-1.374, 2.080e-3
-1.373, 2.030e-3
-1.372, 1.980e-3
-1.371, 1.931e-3
-1.370, 1.889e-3
-1.369, 1.841e-3
-1.368, 1.794e-3
-1.367, 1.745e-3
-1.366, 1.695e-3
-1.365, 1.651e-3
-1.364, 1.613e-3
-1.363, 1.572e-3
-1.362, 1.531e-3
-1.361, 1.491e-3
-1.360, 1.450e-3
-1.359, 1.405e-3
-1.358, 1.367e-3
-1.357, 1.330e-3
-1.356, 1.295e-3
-1.355, 1.258e-3
-1.354, 1.221e-3
-1.353, 1.184e-3
-1.352, 1.150e-3
-1.351, 1.111e-3
-1.350, 1.079e-3
-1.349, 1.047e-3
-1.348, 1.015e-3
-1.347, 9.881e-4
-1.346, 9.595e-4
-1.345, 9.296e-4
-1.344, 9.009e-4
-1.343, 8.695e-4
-1.342, 8.424e-4
-1.341, 8.161e-4
-1.340, 7.909e-4
-1.339, 7.661e-4
-1.338, 7.421e-4
-1.337, 7.187e-4
-1.336, 6.951e-4
-1.335, 6.722e-4
-1.334, 6.507e-4
-1.333, 6.298e-4
-1.332, 6.091e-4
-1.331, 5.892e-4
-1.330, 5.693e-4
-1.329, 5.478e-4
-1.328, 5.293e-4
-1.327, 5.104e-4
-1.326, 4.921e-4
-1.325, 4.752e-4
-1.324, 4.586e-4
-1.323, 4.425e-4
-1.322, 4.269e-4
-1.321, 4.121e-4
-1.320, 3.978e-4
-1.319, 3.834e-4
-1.318, 3.694e-4
-1.317, 3.561e-4
-1.316, 3.433e-4
-1.315, 3.308e-4
-1.314, 3.188e-4
-1.313, 3.068e-4
-1.312, 2.954e-4
-1.311, 2.846e-4
-1.310, 2.740e-4
-1.309, 2.640e-4
-1.308, 2.539e-4
-1.307, 2.446e-4
-1.306, 2.355e-4
-1.305, 2.266e-4
-1.304, 2.183e-4
-1.303, 2.101e-4
-1.302, 2.018e-4
-1.301, 1.942e-4
-1.300, 1.870e-4
-1.299, 1.798e-4
-1.298, 1.729e-4
-1.297, 1.662e-4
-1.296, 1.598e-4
-1.295, 1.537e-4
-1.294, 1.477e-4
-1.293, 1.420e-4
-1.292, 1.364e-4
-1.291, 1.311e-4
-1.290, 1.262e-4
-1.289, 1.213e-4
-1.288, 1.164e-4
-1.287, 1.118e-4
-1.286, 1.074e-4
-1.285, 1.034e-4
-1.284, 9.921e-5
-1.283, 9.501e-5
-1.282, 9.118e-5
-1.281, 8.760e-5
-1.280, 8.421e-5
-1.279, 8.076e-5
-1.278, 7.730e-5
-1.277, 7.410e-5
-1.276, 7.124e-5
-1.275, 6.848e-5
-1.274, 6.567e-5
-1.273, 6.273e-5
-1.272, 6.012e-5
-1.271, 5.775e-5
-1.270, 5.546e-5
-1.269, 5.312e-5
-1.268, 5.065e-5
-1.267, 4.839e-5
-1.266, 4.649e-5
-1.265, 4.461e-5
-1.264, 4.260e-5
-1.263, 4.057e-5
-1.262, 3.876e-5
-1.261, 3.722e-5
-1.260, 3.568e-5
-1.259, 3.394e-5
-1.258, 3.230e-5
-1.257, 3.072e-5
-1.256, 2.952e-5
-1.255, 2.821e-5
-1.254, 2.675e-5
-1.253, 2.538e-5
-1.252, 2.416e-5
-1.251, 2.306e-5
-1.250, 2.208e-5
-1.249, 2.086e-5
-1.248, 1.970e-5
-1.247, 1.859e-5
-1.246, 1.779e-5
-1.245, 1.691e-5
-1.244, 1.600e-5
-1.243, 1.486e-5
-1.242, 1.401e-5
-1.241, 1.335e-5
-1.240, 1.273e-5
-1.239, 1.190e-5
-1.238, 1.088e-5
-1.237, 1.024e-5
-1.236, 9.729e-6
-1.235, 9.132e-6
-1.234, 8.446e-6
-1.233, 7.604e-6
-1.232, 7.067e-6
-1.231, 6.584e-6
-1.230, 6.126e-6
-1.229, 5.369e-6
-1.228, 4.820e-6
-1.227, 4.219e-6
-1.226, 4.004e-6
-1.225, 3.633e-6
-1.224, 3.137e-6
-1.223, 2.513e-6
-1.222, 1.993e-6
-1.221, 1.907e-6
-1.220, 1.567e-6
-1.219, 1.059e-6
-1.218, 5.257e-7
-1.217, 1.360e-7
-1.216, -5.841e-8
-1.215, -2.271e-7
-1.214, -6.750e-7
-1.213, -1.076e-6
-1.212, -1.465e-6
-1.211, -1.601e-6
-1.210, -1.671e-6
-1.209, -2.069e-6
-1.208, -2.543e-6
-1.207, -2.829e-6
-1.206, -2.932e-6
-1.205, -3.010e-6
-1.204, -3.311e-6
-1.203, -3.862e-6
-1.202, -4.021e-6
-1.201, -4.058e-6
-1.200, -4.102e-6
-1.199, -4.399e-6
-1.198, -4.834e-6
-1.197, -5.027e-6
-1.196, -5.056e-6
-1.195, -5.118e-6
-1.194, -5.350e-6
-1.193, -5.714e-6
-1.192, -5.934e-6
-1.191, -5.874e-6
-1.190, -5.949e-6
-1.189, -6.151e-6
-1.188, -6.516e-6
-1.187, -6.781e-6
-1.186, -6.657e-6
-1.185, -6.673e-6
-1.184, -6.889e-6
-1.183, -7.185e-6
-1.182, -7.482e-6
-1.181, -7.300e-6
-1.180, -7.278e-6
-1.179, -7.578e-6
-1.178, -7.935e-6
-1.177, -8.042e-6
-1.176, -7.977e-6
-1.175, -7.869e-6
-1.174, -8.177e-6
-1.173, -8.399e-6
-1.172, -8.576e-6
-1.171, -8.563e-6
-1.170, -8.480e-6
-1.169, -8.615e-6
-1.168, -8.947e-6
-1.167, -9.100e-6
-1.166, -9.104e-6
-1.165, -8.888e-6
-1.164, -9.212e-6
-1.163, -9.495e-6
-1.162, -9.527e-6
-1.161, -9.546e-6
-1.160, -9.388e-6
-1.159, -9.566e-6
-1.158, -9.924e-6
-1.157, -9.986e-6
-1.156, -9.921e-6
-1.155, -9.872e-6
-1.154, -9.986e-6
-1.153, -1.035e-5
-1.152, -1.040e-5
-1.151, -1.031e-5
-1.150, -1.029e-5
-1.149, -1.039e-5
-1.148, -1.070e-5
-1.147, -1.087e-5
-1.146, -1.066e-5
-1.145, -1.063e-5
-1.144, -1.075e-5
-1.143, -1.110e-5
-1.142, -1.123e-5
-1.141, -1.106e-5
-1.140, -1.096e-5
-1.139, -1.120e-5
-1.138, -1.144e-5
-1.137, -1.161e-5
-1.136, -1.143e-5
-1.135, -1.131e-5
-1.134, -1.161e-5
-1.133, -1.184e-5
-1.132, -1.194e-5
-1.131, -1.187e-5
-1.130, -1.164e-5
-1.129, -1.187e-5
-1.128, -1.221e-5
-1.127, -1.225e-5
-1.126, -1.224e-5
-1.125, -1.202e-5
-1.124, -1.217e-5
-1.123, -1.267e-5
-1.122, -1.260e-5
-1.121, -1.255e-5
-1.120, -1.239e-5
-1.119, -1.258e-5
-1.118, -1.299e-5
-1.117, -1.297e-5
-1.116, -1.281e-5
-1.115, -1.284e-5
-1.114, -1.295e-5
-1.113, -1.334e-5
-1.112, -1.338e-5
-1.111, -1.320e-5
-1.110, -1.316e-5
-1.109, -1.329e-5
-1.108, -1.361e-5
-1.107, -1.377e-5
-1.106, -1.360e-5
-1.105, -1.349e-5
-1.104, -1.361e-5
-1.103, -1.399e-5
-1.102, -1.413e-5
-1.101, -1.395e-5
-1.100, -1.382e-5
-1.099, -1.414e-5
-1.098, -1.431e-5
-1.097, -1.454e-5
-1.096, -1.433e-5
-1.095, -1.413e-5
-1.094, -1.454e-5
-1.093, -1.474e-5
-1.092, -1.482e-5
-1.091, -1.478e-5
-1.090, -1.455e-5
-1.089, -1.485e-5
-1.088, -1.516e-5
-1.087, -1.524e-5
-1.086, -1.519e-5
-1.085, -1.499e-5
-1.084, -1.520e-5
-1.083, -1.566e-5
-1.082, -1.565e-5
-1.081, -1.561e-5
-1.080, -1.541e-5
-1.079, -1.560e-5
-1.078, -1.610e-5
-1.077, -1.603e-5
-1.076, -1.607e-5
-1.075, -1.594e-5
-1.074, -1.611e-5
-1.073, -1.652e-5
-1.072, -1.655e-5
-1.071, -1.648e-5
-1.070, -1.647e-5
-1.069, -1.655e-5
-1.068, -1.687e-5
-1.067, -1.712e-5
-1.066, -1.694e-5
-1.065, -1.697e-5
-1.064, -1.706e-5
-1.063, -1.743e-5
-1.062, -1.758e-5
-1.061, -1.746e-5
-1.060, -1.740e-5
-1.059, -1.765e-5
-1.058, -1.789e-5
-1.057, -1.812e-5
-1.056, -1.798e-5
-1.055, -1.784e-5
-1.054, -1.820e-5
-1.053, -1.844e-5
-1.052, -1.858e-5
-1.051, -1.860e-5
-1.050, -1.847e-5
-1.049, -1.868e-5
-1.048, -1.906e-5
-1.047, -1.912e-5
-1.046, -1.919e-5
-1.045, -1.902e-5
-1.044, -1.921e-5
-1.043, -1.971e-5
-1.042, -1.976e-5
-1.041, -1.979e-5
-1.040, -1.956e-5
-1.039, -1.978e-5
-1.038, -2.037e-5
-1.037, -2.033e-5
-1.036, -2.035e-5
-1.035, -2.026e-5
-1.034, -2.045e-5
-1.033, -2.098e-5
-1.032, -2.101e-5
-1.031, -2.096e-5
-1.030, -2.097e-5
-1.029, -2.110e-5
-1.028, -2.153e-5
-1.027, -2.178e-5
-1.026, -2.161e-5
-1.025, -2.166e-5
-1.024, -2.189e-5
-1.023, -2.225e-5
-1.022, -2.254e-5
-1.021, -2.233e-5
-1.020, -2.229e-5
-1.019, -2.260e-5
-1.018, -2.299e-5
-1.017, -2.323e-5
-1.016, -2.311e-5
-1.015, -2.296e-5
-1.014, -2.343e-5
-1.013, -2.372e-5
-1.012, -2.392e-5
-1.011, -2.394e-5
-1.010, -2.381e-5
-1.009, -2.423e-5
-1.008, -2.456e-5
-1.007, -2.471e-5
-1.006, -2.475e-5
-1.005, -2.460e-5
-1.004, -2.493e-5
-1.003, -2.545e-5
-1.002, -2.562e-5
-1.001, -2.564e-5
-1.000, -8.219e-6
-1.001, -1.632e-6
-1.002, -2.486e-8
-1.003, 1.095e-6
-1.004, 2.404e-6
-1.005, 3.439e-6
-1.006, 3.949e-6
-1.007, 4.383e-6
-1.008, 4.834e-6
-1.009, 5.492e-6
-1.010, 6.300e-6
-1.011, 6.457e-6
-1.012, 6.536e-6
-1.013, 6.851e-6
-1.014, 7.386e-6
-1.015, 7.949e-6
-1.016, 7.998e-6
-1.017, 7.920e-6
-1.018, 8.249e-6
-1.019, 8.573e-6
-1.020, 9.099e-6
-1.021, 9.120e-6
-1.022, 8.987e-6
-1.023, 9.231e-6
-1.024, 9.580e-6
-1.025, 9.847e-6
-1.026, 9.944e-6
-1.027, 9.709e-6
-1.028, 9.843e-6
-1.029, 1.021e-5
-1.030, 1.057e-5
-1.031, 1.050e-5
-1.032, 1.027e-5
-1.033, 1.038e-5
-1.034, 1.078e-5
-1.035, 1.102e-5
-1.036, 1.094e-5
-1.037, 1.077e-5
-1.038, 1.083e-5
-1.039, 1.124e-5
-1.040, 1.140e-5
-1.041, 1.132e-5
-1.042, 1.117e-5
-1.043, 1.115e-5
-1.044, 1.150e-5
-1.045, 1.177e-5
-1.046, 1.162e-5
-1.047, 1.148e-5
-1.048, 1.145e-5
-1.049, 1.174e-5
-1.050, 1.202e-5
-1.051, 1.184e-5
-1.052, 1.168e-5
-1.053, 1.172e-5
-1.054, 1.199e-5
-1.055, 1.233e-5
-1.056, 1.203e-5
-1.057, 1.186e-5
-1.058, 1.196e-5
-1.059, 1.209e-5
-1.060, 1.244e-5
-1.061, 1.226e-5
-1.062, 1.199e-5
-1.063, 1.217e-5
-1.064, 1.226e-5
-1.065, 1.251e-5
-1.066, 1.242e-5
-1.067, 1.213e-5
-1.068, 1.221e-5
-1.069, 1.246e-5
-1.070, 1.267e-5
-1.071, 1.251e-5
-1.072, 1.222e-5
-1.073, 1.231e-5
-1.074, 1.256e-5
-1.075, 1.283e-5
-1.076, 1.260e-5
-1.077, 1.233e-5
-1.078, 1.237e-5
-1.079, 1.271e-5
-1.080, 1.280e-5
-1.081, 1.259e-5
-1.082, 1.249e-5
-1.083, 1.244e-5
-1.084, 1.271e-5
-1.085, 1.290e-5
-1.086, 1.269e-5
-1.087, 1.257e-5
-1.088, 1.250e-5
-1.089, 1.274e-5
-1.090, 1.302e-5
-1.091, 1.273e-5
-1.092, 1.257e-5
-1.093, 1.256e-5
-1.094, 1.282e-5
-1.095, 1.305e-5
-1.096, 1.280e-5
-1.097, 1.248e-5
-1.098, 1.273e-5
-1.099, 1.280e-5
-1.100, 1.308e-5
-1.101, 1.290e-5
-1.102, 1.258e-5
-1.103, 1.274e-5
-1.104, 1.288e-5
-1.105, 1.312e-5
-1.106, 1.297e-5
-1.107, 1.261e-5
-1.108, 1.274e-5
-1.109, 1.296e-5
-1.110, 1.313e-5
-1.111, 1.299e-5
-1.112, 1.272e-5
-1.113, 1.277e-5
-1.114, 1.305e-5
-1.115, 1.319e-5
-1.116, 1.301e-5
-1.117, 1.282e-5
-1.118, 1.282e-5
-1.119, 1.312e-5
-1.120, 1.322e-5
-1.121, 1.303e-5
-1.122, 1.291e-5
-1.123, 1.288e-5
-1.124, 1.312e-5
-1.125, 1.333e-5
-1.126, 1.310e-5
-1.127, 1.302e-5
-1.128, 1.296e-5
-1.129, 1.322e-5
-1.130, 1.343e-5
-1.131, 1.319e-5
-1.132, 1.300e-5
-1.133, 1.305e-5
-1.134, 1.330e-5
-1.135, 1.352e-5
-1.136, 1.325e-5
-1.137, 1.306e-5
-1.138, 1.322e-5
-1.139, 1.334e-5
-1.140, 1.365e-5
-1.141, 1.336e-5
-1.142, 1.312e-5
-1.143, 1.333e-5
-1.144, 1.346e-5
-1.145, 1.361e-5
-1.146, 1.353e-5
-1.147, 1.326e-5
-1.148, 1.338e-5
-1.149, 1.363e-5
-1.150, 1.373e-5
-1.151, 1.361e-5
-1.152, 1.337e-5
-1.153, 1.350e-5
-1.154, 1.376e-5
-1.155, 1.393e-5
-1.156, 1.372e-5
-1.157, 1.356e-5
-1.158, 1.361e-5
-1.159, 1.395e-5
-1.160, 1.400e-5
-1.161, 1.379e-5
-1.162, 1.373e-5
-1.163, 1.375e-5
-1.164, 1.409e-5
-1.165, 1.421e-5
-1.166, 1.400e-5
-1.167, 1.391e-5
-1.168, 1.395e-5
-1.169, 1.424e-5
-1.170, 1.444e-5
-1.171, 1.418e-5
-1.172, 1.413e-5
-1.173, 1.422e-5
-1.174, 1.443e-5
-1.175, 1.462e-5
-1.176, 1.439e-5
-1.177, 1.436e-5
-1.178, 1.451e-5
-1.179, 1.469e-5
-1.180, 1.485e-5
-1.181, 1.467e-5
-1.182, 1.453e-5
-1.183, 1.479e-5
-1.184, 1.500e-5
-1.185, 1.511e-5
-1.186, 1.503e-5
-1.187, 1.486e-5
-1.188, 1.504e-5
-1.189, 1.534e-5
-1.190, 1.546e-5
-1.191, 1.535e-5
-1.192, 1.522e-5
-1.193, 1.536e-5
-1.194, 1.571e-5
-1.195, 1.582e-5
-1.196, 1.573e-5
-1.197, 1.569e-5
-1.198, 1.586e-5
-1.199, 1.619e-5
-1.200, 1.630e-5
-1.201, 1.613e-5
-1.202, 1.622e-5
-1.203, 1.637e-5
-1.204, 1.667e-5
-1.205, 1.686e-5
-1.206, 1.678e-5
-1.207, 1.682e-5
-1.208, 1.693e-5
-1.209, 1.730e-5
-1.210, 1.756e-5
-1.211, 1.747e-5
-1.212, 1.743e-5
-1.213, 1.772e-5
-1.214, 1.811e-5
-1.215, 1.835e-5
-1.216, 1.822e-5
-1.217, 1.831e-5
-1.218, 1.869e-5
-1.219, 1.900e-5
-1.220, 1.924e-5
-1.221, 1.929e-5
-1.222, 1.934e-5
-1.223, 1.980e-5
-1.224, 2.013e-5
-1.225, 2.046e-5
-1.226, 2.053e-5
-1.227, 2.066e-5
-1.228, 2.119e-5
-1.229, 2.162e-5
-1.230, 2.192e-5
-1.231, 2.206e-5
-1.232, 2.220e-5
-1.233, 2.271e-5
-1.234, 2.332e-5
-1.235, 2.364e-5
-1.236, 2.392e-5
-1.237, 2.425e-5
-1.238, 2.473e-5
-1.239, 2.551e-5
-1.240, 2.592e-5
-1.241, 2.623e-5
-1.242, 2.672e-5
-1.243, 2.731e-5
-1.244, 2.818e-5
-1.245, 2.876e-5
-1.246, 2.927e-5
-1.247, 2.985e-5
-1.248, 3.060e-5
-1.249, 3.161e-5
-1.250, 3.243e-5
-1.251, 3.308e-5
-1.252, 3.383e-5
-1.253, 3.486e-5
-1.254, 3.607e-5
-1.255, 3.709e-5
-1.256, 3.797e-5
-1.257, 3.898e-5
-1.258, 4.032e-5
-1.259, 4.175e-5
-1.260, 4.311e-5
-1.261, 4.437e-5
-1.262, 4.568e-5
-1.263, 4.732e-5
-1.264, 4.913e-5
-1.265, 5.081e-5
-1.266, 5.249e-5
-1.267, 5.431e-5
-1.268, 5.636e-5
-1.269, 5.866e-5
-1.270, 6.078e-5
-1.271, 6.308e-5
-1.272, 6.536e-5
-1.273, 6.802e-5
-1.274, 7.098e-5
-1.275, 7.376e-5
-1.276, 7.655e-5
-1.277, 7.960e-5
-1.278, 8.277e-5
-1.279, 8.609e-5
-1.280, 8.956e-5
-1.281, 9.302e-5
-1.282, 9.657e-5
-1.283, 1.006e-4
-1.284, 1.049e-4
-1.285, 1.091e-4
-1.286, 1.132e-4
-1.287, 1.178e-4
-1.288, 1.227e-4
-1.289, 1.278e-4
-1.290, 1.330e-4
-1.291, 1.382e-4
-1.292, 1.438e-4
-1.293, 1.499e-4
-1.294, 1.564e-4
-1.295, 1.630e-4
-1.296, 1.696e-4
-1.297, 1.766e-4
-1.298, 1.841e-4
-1.299, 1.917e-4
-1.300, 1.998e-4
-1.301, 2.078e-4
-1.302, 2.164e-4
-1.303, 2.256e-4
-1.304, 2.349e-4
-1.305, 2.446e-4
-1.306, 2.542e-4
-1.307, 2.642e-4
-1.308, 2.747e-4
-1.309, 2.855e-4
-1.310, 2.963e-4
-1.311, 3.077e-4
-1.312, 3.194e-4
-1.313, 3.319e-4
-1.314, 3.442e-4
-1.315, 3.559e-4
-1.316, 3.687e-4
-1.317, 3.824e-4
-1.318, 3.970e-4
-1.319, 4.116e-4
-1.320, 4.269e-4
-1.321, 4.422e-4
-1.322, 4.575e-4
-1.323, 4.739e-4
-1.324, 4.906e-4
-1.325, 5.083e-4
-1.326, 5.264e-4
-1.327, 5.447e-4
-1.328, 5.646e-4
-1.329, 5.840e-4
-1.330, 6.033e-4
-1.331, 6.233e-4
-1.332, 6.446e-4
-1.333, 6.662e-4
-1.334, 6.878e-4
-1.335, 7.101e-4
-1.336, 7.352e-4
-1.337, 7.604e-4
-1.338, 7.871e-4
-1.339, 8.130e-4
-1.340, 8.398e-4
-1.341, 8.676e-4
-1.342, 8.952e-4
-1.343, 9.234e-4
-1.344, 9.519e-4
-1.345, 9.810e-4
-1.346, 1.013e-3
-1.347, 1.044e-3
-1.348, 1.074e-3
-1.349, 1.106e-3
-1.350, 1.143e-3
-1.351, 1.179e-3
-1.352, 1.215e-3
-1.353, 1.251e-3
-1.354, 1.288e-3
-1.355, 1.326e-3
-1.356, 1.364e-3
-1.357, 1.402e-3
-1.358, 1.437e-3
-1.359, 1.478e-3
-1.360, 1.520e-3
-1.361, 1.562e-3
-1.362, 1.605e-3
-1.363, 1.652e-3
-1.364, 1.693e-3
-1.365, 1.738e-3
-1.366, 1.785e-3
-1.367, 1.832e-3
-1.368, 1.883e-3
-1.369, 1.928e-3
-1.370, 1.976e-3
-1.371, 2.022e-3
-1.372, 2.070e-3
-1.373, 2.118e-3
-1.374, 2.168e-3
-1.375, 2.217e-3
-1.376, 2.267e-3
-1.377, 2.317e-3
-1.378, 2.373e-3
-1.379, 2.426e-3
-1.380, 2.477e-3
-1.381, 2.531e-3
-1.382, 2.590e-3
-1.383, 2.641e-3
-1.384, 2.698e-3
-1.385, 2.754e-3
-1.386, 2.802e-3
-1.387, 2.846e-3
-1.388, 2.914e-3
-1.389, 2.969e-3
-1.390, 3.039e-3
-1.391, 3.086e-3
-1.392, 3.142e-3
-1.393, 3.197e-3
-1.394, 3.264e-3
-1.395, 3.320e-3
-1.396, 3.386e-3
-1.397, 3.449e-3
-1.398, 3.499e-3
-1.399, 3.553e-3
-1.400, 3.559e-3
-1.399, 3.510e-3
-1.398, 3.454e-3
-1.397, 3.396e-3
-1.396, 3.337e-3
-1.395, 3.275e-3
-1.394, 3.216e-3
-1.393, 3.155e-3
-1.392, 3.090e-3
-1.391, 3.030e-3
-1.390, 2.975e-3
-1.389, 2.911e-3
-1.388, 2.850e-3
-1.387, 2.796e-3
-1.386, 2.734e-3
-1.385, 2.682e-3
-1.384, 2.627e-3
-1.383, 2.571e-3
-1.382, 2.513e-3
-1.381, 2.452e-3
-1.380, 2.397e-3
-1.379, 2.348e-3
-1.378, 2.294e-3
-1.377, 2.245e-3
-1.376, 2.196e-3
-1.375, 2.143e-3
-1.374, 2.098e-3
-1.373, 2.052e-3
-1.372, 2.011e-3
-1.371, 1.958e-3
-1.370, 1.902e-3
-1.369, 1.853e-3
-1.368, 1.809e-3
-1.367, 1.764e-3
-1.366, 1.715e-3
-1.365, 1.673e-3
-1.364, 1.631e-3
-1.363, 1.589e-3
-1.362, 1.544e-3
-1.361, 1.504e-3
-1.360, 1.465e-3
-1.359, 1.425e-3
-1.358, 1.388e-3
-1.357, 1.354e-3
-1.356, 1.316e-3
-1.355, 1.278e-3
-1.354, 1.241e-3
-1.353, 1.212e-3
-1.352, 1.177e-3
-1.351, 1.146e-3
-1.350, 1.113e-3
-1.349, 1.083e-3
-1.348, 1.054e-3
-1.347, 1.023e-3
-1.346, 9.925e-4
-1.345, 9.628e-4
-1.344, 9.347e-4
-1.343, 9.030e-4
-1.342, 8.762e-4
-1.341, 8.497e-4
-1.340, 8.225e-4
-1.339, 8.000e-4
-1.338, 7.733e-4
-1.337, 7.484e-4
-1.336, 7.252e-4
-1.335, 7.016e-4
-1.334, 6.790e-4
-1.333, 6.569e-4
-1.332, 6.350e-4
-1.331, 6.143e-4
-1.330, 5.916e-4
-1.329, 5.722e-4
-1.328, 5.538e-4
-1.327, 5.349e-4
-1.326, 5.169e-4
-1.325, 4.993e-4
-1.324, 4.818e-4
-1.323, 4.645e-4
-1.322, 4.485e-4
-1.321, 4.328e-4
-1.320, 4.172e-4
-1.319, 4.018e-4
-1.318, 3.869e-4
-1.317, 3.730e-4
-1.316, 3.596e-4
-1.315, 3.468e-4
-1.314, 3.339e-4
-1.313, 3.220e-4
-1.312, 3.103e-4
-1.311, 2.986e-4
-1.310, 2.873e-4
-1.309, 2.765e-4
-1.308, 2.662e-4
-1.307, 2.565e-4
-1.306, 2.470e-4
-1.305, 2.374e-4
-1.304, 2.284e-4
-1.303, 2.198e-4
-1.302, 2.114e-4
-1.301, 2.035e-4
-1.300, 1.955e-4
-1.299, 1.878e-4
-1.298, 1.808e-4
-1.297, 1.738e-4
-1.296, 1.671e-4
-1.295, 1.604e-4
-1.294, 1.539e-4
-1.293, 1.481e-4
-1.292, 1.425e-4
-1.291, 1.369e-4
-1.290, 1.313e-4
-1.289, 1.260e-4
-1.288, 1.211e-4
-1.287, 1.164e-4
-1.286, 1.118e-4
-1.285, 1.072e-4
-1.284, 1.028e-4
-1.283, 9.861e-5
-1.282, 9.480e-5
-1.281, 9.095e-5
-1.280, 8.699e-5
-1.279, 8.338e-5
-1.278, 7.989e-5
-1.277, 7.673e-5
-1.276, 7.367e-5
-1.275, 7.033e-5
-1.274, 6.732e-5
-1.273, 6.454e-5
-1.272, 6.201e-5
-1.271, 5.945e-5
-1.270, 5.669e-5
-1.269, 5.423e-5
-1.268, 5.189e-5
-1.267, 4.974e-5
-1.266, 4.777e-5
-1.265, 4.545e-5
-1.264, 4.343e-5
-1.263, 4.164e-5
-1.262, 3.983e-5
-1.261, 3.819e-5
-1.260, 3.630e-5
-1.259, 3.448e-5
-1.258, 3.305e-5
-1.257, 3.165e-5
-1.256, 3.030e-5
-1.255, 2.868e-5
-1.254, 2.717e-5
-1.253, 2.600e-5
-1.252, 2.487e-5
-1.251, 2.366e-5
-1.250, 2.236e-5
-1.249, 2.108e-5
-1.248, 2.015e-5
-1.247, 1.926e-5
-1.246, 1.828e-5
-1.245, 1.713e-5
-1.244, 1.611e-5
-1.243, 1.526e-5
-1.242, 1.453e-5
-1.241, 1.382e-5
-1.240, 1.281e-5
-1.239, 1.195e-5
-1.238, 1.122e-5
-1.237, 1.079e-5
-1.236, 1.007e-5
-1.235, 9.137e-6
-1.234, 8.473e-6
-1.233, 7.858e-6
-1.232, 7.482e-6
-1.231, 6.983e-6
-1.230, 6.138e-6
-1.229, 5.359e-6
-1.228, 5.064e-6
-1.227, 4.754e-6
-1.226, 4.290e-6
-1.225, 3.623e-6
-1.224, 3.087e-6
-1.223, 2.747e-6
-1.222, 2.482e-6
-1.221, 2.105e-6
-1.220, 1.555e-6
-1.219, 9.785e-7
-1.218, 7.772e-7
-1.217, 6.204e-7
-1.216, 3.126e-7
-1.215, -2.725e-7
-1.214, -7.283e-7
-1.213, -8.516e-7
-1.212, -9.296e-7
-1.211, -1.296e-6
-1.210, -1.749e-6
-1.209, -2.194e-6
-1.208, -2.280e-6
-1.207, -2.329e-6
-1.206, -2.649e-6
-1.205, -3.004e-6
-1.204, -3.344e-6
-1.203, -3.564e-6
-1.202, -3.496e-6
-1.201, -3.818e-6
-1.200, -4.088e-6
-1.199, -4.483e-6
-1.198, -4.607e-6
-1.197, -4.445e-6
-1.196, -4.659e-6
-1.195, -5.148e-6
-1.194, -5.361e-6
-1.193, -5.486e-6
-1.192, -5.357e-6
-1.191, -5.548e-6
-1.190, -5.952e-6
-1.189, -6.160e-6
-1.188, -6.169e-6
-1.187, -6.186e-6
-1.186, -6.274e-6
-1.185, -6.637e-6
-1.184, -6.849e-6
-1.183, -6.903e-6
-1.182, -6.875e-6
-1.181, -6.869e-6
-1.180, -7.309e-6
-1.179, -7.546e-6
-1.178, -7.552e-6
-1.177, -7.440e-6
-1.176, -7.565e-6
-1.175, -7.809e-6
-1.174, -8.171e-6
-1.173, -7.968e-6
-1.172, -7.904e-6
-1.171, -8.076e-6
-1.170, -8.369e-6
-1.169, -8.608e-6
-1.168, -8.503e-6
-1.167, -8.413e-6
-1.166, -8.637e-6
-1.165, -8.798e-6
-1.164, -9.095e-6
-1.163, -8.979e-6
-1.162, -8.826e-6
-1.161, -9.032e-6
-1.160, -9.255e-6
-1.159, -9.462e-6
-1.158, -9.409e-6
-1.157, -9.210e-6
-1.156, -9.312e-6
-1.155, -9.777e-6
-1.154, -9.901e-6
-1.153, -9.818e-6
-1.152, -9.650e-6
-1.151, -9.746e-6
-1.150, -1.015e-5
-1.149, -1.023e-5
-1.148, -1.010e-5
-1.147, -1.004e-5
-1.146, -1.012e-5
-1.145, -1.046e-5
-1.144, -1.060e-5
-1.143, -1.049e-5
-1.142, -1.042e-5
-1.141, -1.044e-5
-1.140, -1.082e-5
-1.139, -1.103e-5
-1.138, -1.086e-5
-1.137, -1.076e-5
-1.136, -1.078e-5
-1.135, -1.110e-5
-1.134, -1.137e-5
-1.133, -1.111e-5
-1.132, -1.105e-5
-1.131, -1.123e-5
-1.130, -1.142e-5
-1.129, -1.171e-5
-1.128, -1.149e-5
-1.127, -1.140e-5
-1.126, -1.162e-5
-1.125, -1.179e-5
-1.124, -1.189e-5
-1.123, -1.190e-5
-1.122, -1.166e-5
-1.121, -1.182e-5
-1.120, -1.212e-5
-1.119, -1.232e-5
-1.118, -1.219e-5
-1.117, -1.194e-5
-1.116, -1.213e-5
-1.115, -1.246e-5
-1.114, -1.261e-5
-1.113, -1.246e-5
-1.112, -1.233e-5
-1.111, -1.246e-5
-1.110, -1.286e-5
-1.109, -1.295e-5
-1.108, -1.271e-5
-1.107, -1.270e-5
-1.106, -1.283e-5
-1.105, -1.316e-5
-1.104, -1.327e-5
-1.103, -1.309e-5
-1.102, -1.307e-5
-1.101, -1.310e-5
-1.100, -1.352e-5
-1.099, -1.370e-5
-1.098, -1.341e-5
-1.097, -1.337e-5
-1.096, -1.352e-5
-1.095, -1.381e-5
-1.094, -1.404e-5
-1.093, -1.381e-5
-1.092, -1.368e-5
-1.091, -1.395e-5
-1.090, -1.420e-5
-1.089, -1.435e-5
-1.088, -1.413e-5
-1.087, -1.403e-5
-1.086, -1.429e-5
-1.085, -1.459e-5
-1.084, -1.467e-5
-1.083, -1.464e-5
-1.082, -1.445e-5
-1.081, -1.466e-5
-1.080, -1.499e-5
-1.079, -1.509e-5
-1.078, -1.503e-5
-1.077, -1.481e-5
-1.076, -1.504e-5
-1.075, -1.546e-5
-1.074, -1.550e-5
-1.073, -1.546e-5
-1.072, -1.525e-5
-1.071, -1.547e-5
-1.070, -1.588e-5
-1.069, -1.592e-5
-1.068, -1.579e-5
-1.067, -1.574e-5
-1.066, -1.590e-5
-1.065, -1.631e-5
-1.064, -1.635e-5
-1.063, -1.621e-5
-1.062, -1.619e-5
-1.061, -1.635e-5
-1.060, -1.667e-5
-1.059, -1.690e-5
-1.058, -1.672e-5
-1.057, -1.663e-5
-1.056, -1.674e-5
-1.055, -1.722e-5
-1.054, -1.730e-5
-1.053, -1.717e-5
-1.052, -1.704e-5
-1.051, -1.733e-5
-1.050, -1.776e-5
-1.049, -1.791e-5
-1.048, -1.771e-5
-1.047, -1.756e-5
-1.046, -1.791e-5
-1.045, -1.821e-5
-1.044, -1.834e-5
-1.043, -1.830e-5
-1.042, -1.818e-5
-1.041, -1.836e-5
-1.040, -1.878e-5
-1.039, -1.891e-5
-1.038, -1.884e-5
-1.037, -1.865e-5
-1.036, -1.896e-5
-1.035, -1.944e-5
-1.034, -1.944e-5
-1.033, -1.943e-5
-1.032, -1.926e-5
-1.031, -1.965e-5
-1.030, -2.007e-5
-1.029, -2.007e-5
-1.028, -1.996e-5
-1.027, -2.001e-5
-1.026, -2.019e-5
-1.025, -2.070e-5
-1.024, -2.082e-5
-1.023, -2.066e-5
-1.022, -2.070e-5
-1.021, -2.092e-5
-1.020, -2.135e-5
-1.019, -2.157e-5
-1.018, -2.133e-5
-1.017, -2.136e-5
-1.016, -2.161e-5
-1.015, -2.202e-5
-1.014, -2.224e-5
-1.013, -2.211e-5
-1.012, -2.202e-5
-1.011, -2.242e-5
-1.010, -2.283e-5
-1.009, -2.304e-5
-1.008, -2.280e-5
-1.007, -2.275e-5
-1.006, -2.329e-5
-1.005, -2.359e-5
-1.004, -2.375e-5
-1.003, -2.377e-5
-1.002, -2.357e-5
-1.001, -2.403e-5
