Potential V vs RHE, Current mA cm-2
0.013299999999999867,17.358507649344002
0.012299999999999978,15.43450028152755
0.011299999999999866,13.562837231806107
0.010299999999999976,11.686930048185067
0.009299999999999864,9.768581525568079
0.008299999999999974,7.936530392242855
0.007299999999999862,6.060623208621817
0.006299999999999972,4.272428125592412
0.00529999999999986,2.4842330425630044
0.0042999999999999705,0.6520404381077953
0.0032999999999998586,-1.0490084288499246
0.0022999999999999687,-2.706342716641815
0.0012999999999998568,-4.364384360083638
0.00029999999999996696,-6.021011292225596
-0.000700000000000145,-7.591340835075788
-0.0017000000000000348,-9.205526428221793
-0.0027000000000001467,-10.819712021367803
-0.0037000000000000366,-12.476338953509758
-0.0047000000000001485,-14.090524546655764
-0.005700000000000038,-15.74573676749786
-0.00670000000000015,-17.358507649344002
-0.00770000000000004,-19.01371987018609
-0.008700000000000152,-20.626490752032236
-0.009700000000000042,-22.196820294882425
-0.010700000000000154,-23.86617962872317
-0.011700000000000044,-25.39406783257741
-0.012700000000000156,-26.86536758443705
-0.013700000000000045,-28.350814449295335
-0.014700000000000157,-29.836261314153624
-0.015700000000000047,-31.23682550102001
-0.01670000000000016,-32.70812525287965
-0.01770000000000005,-34.15113077874198
-0.01870000000000016,-35.636577643600276
-0.01970000000000005,-37.122024508458566
-0.020700000000000163,-38.5650300343209
-0.021700000000000053,-40.03632978618054
-0.022700000000000164,-41.52177665103883
-0.023700000000000054,-43.007223515897124
-0.024700000000000166,-44.45022904175945
-0.025700000000000056,-45.89323456762179
-0.026700000000000168,-47.23721030249357
-0.027700000000000058,-48.59533315036401
-0.02870000000000017,-49.939308885235796
-0.02970000000000006,-51.29743173310623
-0.03070000000000017,-52.59896612898206
-0.03170000000000006,-53.9570889768525
-0.03270000000000017,-55.31521182472294
-0.03370000000000006,-56.70162889859067
-0.034700000000000175,-58.10219308545706
-0.035700000000000065,-59.44616882032884
-0.03670000000000018,-60.80429166819927
-0.03770000000000007,-62.20485585506566
-0.03870000000000018,-63.59127292893339
-0.03970000000000007,-64.90695443780788
-0.04070000000000018,-66.25093017267966
-0.04170000000000007,-67.48172900356225
-0.04270000000000018,-68.74082206044213
-0.04370000000000007,-69.95747377832606
-0.044700000000000184,-71.1458312702127
-0.045700000000000074,-72.32004164910067
-0.046700000000000186,-73.53669336698461
-0.047700000000000076,-74.72505085887124
-0.04870000000000019,-75.94170257675518
-0.04970000000000008,-77.20079563363505
-0.05070000000000019,-78.47403580351359
-0.05170000000000008,-79.7755701993894
-0.05270000000000019,-81.09125170826391
-0.05370000000000008,-82.30790342614785
-0.05470000000000019,-83.60943782202366
-0.05570000000000008,-84.7977953139103
-0.056700000000000195,-86.01444703179425
-0.057700000000000085,-87.14621607168625
-0.058700000000000196,-88.32042645057423
-0.059700000000000086,-89.46634260346492
-0.0607000000000002,-90.55567030436099
-0.06170000000000009,-91.72988068324898
-0.0627000000000002,-92.86164972314101
-0.06370000000000009,-94.03586010202899
-0.0647000000000002,-95.18177625491967
-0.06570000000000009,-96.3984279728036
-0.0667000000000002,-97.61507969068752
-0.0677000000000001,-98.88831986056607
-0.0687000000000002,-100.10497157844999
-0.0697000000000001,-101.32162329633393
-0.07070000000000021,-102.5524221272165
-0.0717000000000001,-103.7266325061045
-0.07270000000000021,-104.94328422398843
-0.0737000000000001,-106.07505326388046
-0.07470000000000021,-107.20682230377247
-0.0757000000000001,-108.3102971176672
-0.07670000000000021,-109.44206615755924
-0.0777000000000001,-110.48895251945936
-0.07870000000000021,-111.66316289834735
-0.0797000000000001,-112.79493193823936
-0.08070000000000022,-113.92670097813141
-0.0817000000000001,-115.01602867902749
-0.08270000000000022,-116.14779771891952
-0.08370000000000011,-117.29371387181018
-0.08470000000000022,-118.38304157270628
-0.08570000000000011,-119.47236927360234
-0.08670000000000022,-120.60413831349437
-0.08770000000000011,-121.65102467539451
-0.08870000000000022,-122.74035237629057
-0.08970000000000011,-123.82968007718667
-0.09070000000000022,-124.83412510009084
-0.09170000000000011,-125.96589413998288
-0.09270000000000023,-127.012780501883
-0.09370000000000012,-128.10210820277908
-0.09470000000000023,-129.2338772426711
-0.09570000000000012,-130.37979339556176
-0.09670000000000023,-131.55400377444977
-0.09770000000000012,-132.7706554923337
-0.09870000000000023,-133.9873072102176
-0.09970000000000012,-135.17566470210423
-0.10070000000000023,-136.30743374199628
-0.10170000000000012,-137.39676144289237
-0.10270000000000024,-138.3587651268006
-0.10370000000000013,-139.36321014970477
-0.10470000000000024,-140.22618404262244
-0.10570000000000013,-141.14574638753473
-0.10670000000000024,-142.03701450644968
-0.10770000000000013,-143.0273124163552
-0.10870000000000024,-144.01761032626072
-0.10970000000000013,-145.00790823616626
-0.11070000000000024,-145.9982061460718
-0.11170000000000013,-147.1299751859638
-0.11270000000000002,-148.26174422585584
-0.11370000000000013,-149.53498439573437
-0.11470000000000002,-150.66675343562642
-0.11570000000000014,-151.93999360550492
-0.11670000000000003,-153.07176264539694
-0.11770000000000014,-154.0620605553025
-0.11870000000000003,-155.19382959519453
-0.11970000000000014,-156.32559863508658
-0.12070000000000003,-157.31589654499206
-0.12170000000000014,-158.3061944548976
-0.12270000000000003,-159.29649236480313
-0.12370000000000014,-160.28679027470866
-0.12470000000000003,-161.41855931460069
-0.12570000000000014,-162.40885722450622
-0.12670000000000003,-163.39915513441173
-0.12770000000000015,-164.53092417430375
-0.12870000000000004,-165.5212220842093
-0.12970000000000015,-166.51151999411482
-0.13070000000000004,-167.50181790402033
-0.13170000000000015,-168.63358694391238
-0.13270000000000004,-169.6238848538179
-0.13370000000000015,-170.61418276372342
-0.13470000000000004,-171.60448067362896
-0.13570000000000015,-172.59477858353446
-0.13670000000000004,-173.72654762342648
-0.13770000000000016,-174.71684553333202
-0.13870000000000005,-175.84861457322407
-0.13970000000000016,-176.98038361311612
-0.14070000000000005,-178.1121526530081
-0.14170000000000016,-179.10245056291362
-0.14270000000000005,-180.23421960280567
-0.14370000000000016,-181.36598864269772
-0.14470000000000005,-182.35628655260325
-0.14570000000000016,-183.34658446250873
-0.14670000000000005,-184.33688237241427
-0.14770000000000016,-185.3271802823198
-0.14870000000000005,-186.31747819222534
-0.14970000000000017,-187.30777610213087
-0.15070000000000006,-188.29807401203638
-0.15170000000000017,-189.2883719219419
-0.15270000000000006,-190.42014096183394
-0.15370000000000017,-191.551910001726
-0.15470000000000006,-192.683679041618
-0.15570000000000017,-193.81544808151003
-0.15670000000000006,-194.94721712140205
-0.15770000000000017,-196.0789861612941
-0.15870000000000006,-197.35222633117263
-0.15970000000000018,-198.48399537106465
-0.16070000000000007,-199.61576441095667
-0.16170000000000018,-200.7475334508487
-0.16270000000000007,-201.73783136075423
-0.16370000000000018,-202.86960040064628
-0.16470000000000007,-203.85989831055176
-0.16570000000000018,-204.8501962204573
-0.16670000000000007,-205.84049413036286
-0.16770000000000018,-206.83079204026836
-0.16870000000000007,-207.96256108016038
-0.16970000000000018,-208.95285899006592
-0.17070000000000007,-210.08462802995794
-0.17170000000000019,-211.21639706985
-0.17270000000000008,-212.34816610974204
-0.1737000000000002,-213.47993514963403
-0.17470000000000008,-214.47023305953954
-0.1757000000000002,-215.6020020994316
-0.17670000000000008,-216.59230000933712
-0.1777000000000002,-217.72406904922914
-0.17870000000000008,-218.71436695913465
-0.1797000000000002,-219.7046648690402
-0.18070000000000008,-220.6949627789457
-0.1817000000000002,-221.68526068885126
-0.18270000000000008,-222.6755585987568
-0.1837000000000002,-223.6658565086623
-0.1847000000000001,-224.79762554855435
-0.1857000000000002,-225.78792345845983
-0.1867000000000001,-226.91969249835188
-0.1877000000000002,-228.0514615382439
-0.1887000000000001,-229.04175944814943
-0.1897000000000002,-230.17352848804146
-0.1907000000000001,-231.3052975279335
-0.1917000000000001,-232.29559543783904
-0.19269999999999998,-233.28589334774458
-0.1937000000000001,-234.4176623876366
-0.19469999999999998,-235.40796029754208
-0.1957000000000001,-236.3982582074476
-0.19669999999999999,-237.38855611735315
-0.1977000000000001,-238.5203251572452
-0.1987,-239.65209419713722
-0.1997000000000001,-240.64239210704275
-0.2007,-241.77416114693477
-0.2017000000000001,-242.90593018682682
-0.2027,-243.8962280967323
-0.2037000000000001,-245.02799713662432
-0.2047,-246.15976617651637
-0.2057000000000001,-247.1500640864219
-0.2067,-248.28183312631393
-0.2077000000000001,-249.2721310362195
-0.2087,-250.262428946125
-0.2097000000000001,-251.25272685603056
-0.2107,-252.243024765936
-0.2117000000000001,-253.23332267584152
-0.2127,-254.2236205857471
-0.2137000000000001,-255.35538962563913
-0.2147,-256.34568753554464
-0.2157000000000001,-257.4774565754367
-0.2167,-258.60922561532874
-0.21770000000000012,-259.59952352523425
-0.2187,-260.73129256512624
-0.21970000000000012,-261.7215904750318
-0.2207,-262.8533595149238
-0.22170000000000012,-263.84365742482936
-0.2227,-264.83395533473487
-0.22370000000000012,-265.82425324464043
-0.2247,-266.8145511545459
-0.22570000000000012,-267.6633779344649
-0.2267,-268.79514697435695
-0.22770000000000012,-269.78544488426246
-0.22870000000000001,-270.775742794168
-0.22970000000000013,-271.7660407040736
-0.23070000000000002,-272.8978097439656
-0.23170000000000013,-274.0295787838576
-0.23270000000000002,-275.1613478237496
-0.23370000000000013,-276.15164573365513
-0.23470000000000002,-277.2834147735472
-0.23570000000000013,-278.4151838134392
-0.23670000000000002,-279.40548172334474
-0.2376999999999999,-280.3957796332503
-0.23870000000000002,-281.3860775431558
-0.2396999999999999,-282.3763754530613
-0.24070000000000003,-283.22520223298034
-0.24169999999999991,-284.35697127287233
-0.24270000000000003,-285.2057980527914
-0.24369999999999992,-286.33756709268346
-0.24470000000000003,-287.327865002589
-0.24569999999999992,-288.45963404248096
-0.24670000000000003,-289.4499319523865
-0.24769999999999992,-290.5817009922785
-0.24870000000000003,-291.571998902184
-0.24969999999999992,-292.70376794207607
-0.25070000000000003,-293.6940658519816
-0.2516999999999999,-294.8258348918736
-0.25270000000000004,-295.67466167179265
-0.2536999999999999,-296.80643071168464
-0.25470000000000004,-297.79672862159026
-0.2556999999999999,-298.6455554015092
-0.25670000000000004,-299.6358533114148
-0.25769999999999993,-300.6261512213203
-0.25870000000000004,-301.6164491312258
-0.25969999999999993,-302.74821817111786
-0.26070000000000004,-303.73851608102336
-0.26169999999999993,-304.72881399092887
-0.26270000000000004,-305.8605830308209
-0.26369999999999993,-306.99235207071297
-0.26470000000000005,-307.98264998061853
-0.26569999999999994,-309.1144190205105
-0.26670000000000005,-310.10471693041603
-0.26769999999999994,-311.2364859703081
-0.26870000000000005,-312.2267838802136
-0.26969999999999994,-313.21708179011915
-0.27070000000000005,-314.20737970002466
-0.27169999999999994,-315.19767760993017
-0.27270000000000005,-316.3294466498222
-0.27369999999999994,-317.3197445597277
-0.27470000000000006,-318.31004246963323
-0.27569999999999995,-319.4418115095253
-0.27670000000000006,-320.4321094194308
-0.27769999999999995,-321.56387845932284
-0.27870000000000006,-322.6956474992149
-0.27969999999999995,-323.68594540912045
-0.28070000000000006,-324.81771444901244
-0.28169999999999995,-325.80801235891795
-0.28270000000000006,-326.79831026882346
-0.28369999999999995,-327.788608178729
-0.28470000000000006,-328.7789060886345
-0.28569999999999995,-329.76920399854004
-0.28670000000000007,-330.7595019084456
-0.28769999999999996,-331.74979981835105
-0.28870000000000007,-332.7400977282566
-0.28969999999999996,-333.7303956381621
-0.29070000000000007,-334.86216467805417
-0.29169999999999996,-335.8524625879597
-0.29270000000000007,-336.9842316278517
-0.29369999999999996,-338.1160006677438
-0.2947000000000001,-339.1062985776493
-0.29569999999999996,-340.2380676175413
-0.2967000000000001,-341.22836552744684
-0.29769999999999996,-342.07719230736586
-0.2987000000000001,-343.06749021727137
-0.29969999999999997,-344.057788127177
-0.3007000000000001,-344.90661490709596
-0.30169999999999997,-345.89691281700146
-0.3027000000000001,-346.88721072690697
-0.30369999999999997,-347.87750863681254
-0.3047000000000001,-349.0092776767046
-0.30569999999999997,-349.9995755866101
-0.3067000000000001,-351.1313446265021
-0.3077,-352.1216425364076
-0.3087000000000001,-353.25341157629964
-0.3097,-354.2437094862052
-0.3107000000000001,-355.3754785260972
-0.3117,-356.2243053060162
-0.3127000000000001,-357.2146032159218
-0.3137,-358.0634299958408
-0.3147000000000001,-359.0537279057463
-0.3157,-359.90255468566534
-0.3167000000000001,-360.75138146558436
-0.3177,-361.74167937548987
-0.3187000000000001,-362.73197728539543
-0.3197,-363.72227519530094
-0.3207000000000001,-364.854044235193
-0.3217,-365.8443421450985
-0.3227000000000001,-366.97611118499054
-0.3237,-368.10788022488254
-0.3247000000000001,-369.2396492647746
-0.3257,-370.3714183046666
-0.3267000000000001,-371.3617162145721
-0.3277,-372.2105429944911
-0.3287000000000001,-373.2008409043967
-0.3297,-374.04966768431575
-0.3307000000000001,-375.0399655942212
-0.3317,-375.8887923741402
-0.3327000000000001,-376.59614802407276
-0.3337,-377.58644593397827
-0.3347000000000001,-378.43527271389735
-0.3357,-379.42557062380286
-0.3367000000000001,-380.41586853370836
-0.3377,-381.4061664436139
-0.3387000000000001,-382.3964643535194
-0.3397,-383.5282333934114
-0.3407000000000001,-384.6600024333035
-0.3417,-385.65030034320904
-0.3427000000000001,-386.782069383101
-0.3437,-387.7723672930066
-0.3447000000000001,-388.7626652029121
-0.3457,-389.75296311281767
-0.3467000000000001,-390.7432610227231
-0.3477,-391.7335589326286
-0.3487000000000001,-392.7238568425342
-0.3497,-393.7141547524397
-0.3507000000000001,-394.70445266234526
-0.3517,-395.6947505722507
-0.3527000000000001,-396.82651961214276
-0.3537,-397.81681752204827
-0.3547000000000001,-398.80711543195383
-0.3557,-399.79741334185934
-0.35670000000000013,-400.6462401217784
-0.3577,-401.6365380316839
-0.35870000000000013,-402.62683594158943
-0.3597,-403.61713385149494
-0.36070000000000013,-404.6074317614005
-0.3617,-405.4562585413196
-0.3626999999999999,-406.44655645122504
-0.3637,-407.43685436113054
-0.3646999999999999,-408.28568114104957
-0.3657,-409.4174501809416
-0.3666999999999999,-410.4077480908472
-0.3677,-411.3980460007527
-0.3686999999999999,-412.38834391065814
-0.36970000000000003,-413.5201129505502
-0.3706999999999999,-414.51041086045575
-0.37170000000000003,-415.50070877036126
-0.3726999999999999,-416.34953555028034
-0.37370000000000003,-417.3398334601858
-0.3746999999999999,-418.33013137009135
-0.37570000000000003,-419.1789581500104
-0.3766999999999999,-420.02778492992945
-0.37770000000000004,-421.01808283983496
-0.3786999999999999,-421.8669096197539
-0.37970000000000004,-422.85720752965943
-0.3806999999999999,-423.847505439565
-0.38170000000000004,-424.97927447945705
-0.38269999999999993,-425.96957238936255
-0.38370000000000004,-426.95987029926806
-0.38469999999999993,-428.09163933916005
-0.38570000000000004,-429.0819372490656
-0.38669999999999993,-428.6575238591061
-0.38570000000000004,-425.6866301293895
-0.38469999999999993,-422.71573639967295
-0.38370000000000004,-419.8863137999429
-0.38269999999999993,-416.7739489402398
-0.38170000000000004,-413.94452634050975
-0.3806999999999999,-411.11510374077966
-0.37970000000000004,-408.1442100110631
-0.3786999999999999,-405.4562585413196
-0.37770000000000004,-402.62683594158943
-0.3766999999999999,-399.9388844718459
-0.37570000000000003,-397.2509330021023
-0.3746999999999999,-394.70445266234526
-0.37370000000000003,-392.0165011926016
-0.3726999999999999,-389.3285497228581
-0.37170000000000003,-386.64059825311455
-0.3706999999999999,-383.952646783371
-0.36970000000000003,-381.4061664436139
-0.3686999999999999,-378.5767438438838
-0.3677,-376.0302635041267
-0.3666999999999999,-373.34231203438316
-0.3657,-370.7958316946261
-0.3646999999999999,-368.2493513548691
-0.3637,-365.8443421450985
-0.3626999999999999,-363.2978618053415
-0.3617,-360.75138146558436
-0.36070000000000013,-358.20490112582723
-0.3597,-355.65842078607017
-0.35870000000000013,-353.11194044631316
-0.3577,-350.7069312365426
-0.35670000000000013,-348.16045089678556
-0.3557,-345.47249942704195
-0.3547000000000001,-342.92601908728494
-0.3537,-340.2380676175413
-0.3527000000000001,-337.69158727778427
-0.3517,-335.1451069380272
-0.3507000000000001,-332.7400977282566
-0.3497,-330.19361738849955
-0.3487000000000001,-327.788608178729
-0.3477,-325.3835989689584
-0.3467000000000001,-322.97858975918786
-0.3457,-320.71505167940376
-0.3447000000000001,-318.31004246963323
-0.3437,-315.9050332598627
-0.3427000000000001,-313.5000240500921
-0.3417,-311.09501484032154
-0.3407000000000001,-308.690005630551
-0.3397,-306.4264675507669
-0.3387000000000001,-304.0214583409964
-0.3377,-301.6164491312258
-0.3367000000000001,-299.2114399214552
-0.3357,-296.80643071168464
-0.3347000000000001,-294.4014215019141
-0.3337,-291.9964122921436
-0.3327000000000001,-289.73287421235955
-0.3317,-287.1863938726024
-0.3307000000000001,-284.9228557928184
-0.3297,-282.65931771303434
-0.3287000000000001,-280.3957796332503
-0.3277,-277.9907704234797
-0.3267000000000001,-275.7272323436957
-0.3257,-273.3222231339251
-0.3247000000000001,-271.05868505414105
-0.3237,-268.65367584437047
-0.3227000000000001,-266.2486666345999
-0.3217,-263.98512855481584
-0.3207000000000001,-261.7215904750318
-0.3197,-259.4580523952477
-0.3187000000000001,-257.1945143154637
-0.3177,-255.07244736566614
-0.3167000000000001,-252.80890928588207
-0.3157,-250.6868423360845
-0.3147000000000001,-248.56477538628693
-0.3137,-246.30123730650286
-0.3127000000000001,-244.17917035670533
-0.3117,-241.9156322769213
-0.3107000000000001,-239.65209419713722
-0.3097,-237.38855611735315
-0.3087000000000001,-235.12501803756908
-0.3077,-232.86147995778504
-0.3067000000000001,-230.59794187800094
-0.30569999999999997,-228.33440379821695
-0.3047000000000001,-226.21233684841937
-0.30369999999999997,-223.9487987686353
-0.3027000000000001,-221.82673181883774
-0.30169999999999997,-219.7046648690402
-0.3007000000000001,-217.58259791924263
-0.29969999999999997,-215.4605309694451
-0.2987000000000001,-213.33846401964755
-0.29769999999999996,-211.21639706985
-0.2967000000000001,-209.0943301200524
-0.29569999999999996,-206.97226317025488
-0.2947000000000001,-204.8501962204573
-0.29369999999999996,-202.58665814067325
-0.29270000000000007,-200.4645911908757
-0.29169999999999996,-198.3425242410781
-0.29070000000000007,-196.0789861612941
-0.28969999999999996,-193.9569192114965
-0.28870000000000007,-191.83485226169896
-0.28769999999999996,-189.8542564418879
-0.28670000000000007,-187.73218949209036
-0.28569999999999995,-185.6101225422928
-0.28470000000000006,-183.62952672248176
-0.28369999999999995,-181.5074597726842
-0.28270000000000006,-179.52686395287316
-0.28169999999999995,-177.4047970030756
-0.28070000000000006,-175.28273005327804
-0.27969999999999995,-173.16066310348046
-0.27870000000000006,-171.03859615368293
-0.27769999999999995,-168.91652920388537
-0.27670000000000006,-166.93593338407433
-0.27569999999999995,-164.81386643427678
-0.27470000000000006,-162.8332706144657
-0.27369999999999994,-160.71120366466818
-0.27270000000000005,-158.87207897484362
-0.27169999999999994,-156.89148315503257
-0.27070000000000005,-154.9108873352215
-0.26969999999999994,-153.07176264539694
-0.26870000000000005,-151.09116682558593
-0.26769999999999994,-149.1105710057749
