Potential V vs RHE, Current mA cm-2
0.013299999999999867,4.490293665771627
0.012299999999999978,3.313253864283916
0.011299999999999866,2.396520941971372
0.010299999999999976,1.5250587812545096
0.009299999999999864,0.6956135461436386
0.008299999999999974,-0.08943804837746762
0.007299999999999862,-0.7872868383748929
0.006299999999999972,-1.3543031273607997
0.00529999999999986,-1.8334658446250875
0.0042999999999999705,-2.3144676865791998
0.0032999999999998586,-2.7501987669376318
0.0022999999999999687,-3.273641947887695
0.0012999999999998568,-3.7970851288377587
0.00029999999999996696,-4.364384360083638
-0.000700000000000145,-4.887827541033701
-0.0017000000000000348,-5.367414671687949
-0.0027000000000001467,-5.672992312458796
-0.0037000000000000366,-6.021011292225596
-0.0047000000000001485,-6.37044498329226
-0.005700000000000038,-6.719878674358924
-0.00670000000000015,-7.199465805013171
-0.00770000000000004,-7.679052935667419
-0.008700000000000152,-8.11478401602585
-0.009700000000000042,-8.55051509638428
-0.010700000000000154,-8.85609273715513
-0.011700000000000044,-9.11781432763016
-0.012700000000000156,-9.379535918105192
-0.013700000000000045,-9.685113558876042
-0.014700000000000157,-10.120844639234473
-0.015700000000000047,-10.514134380596953
-0.01670000000000016,-10.949865460955383
-0.01770000000000005,-11.343155202317865
-0.01870000000000016,-11.647318131788847
-0.01970000000000005,-11.909039722263879
-0.020700000000000163,-12.12831997374296
-0.021700000000000053,-12.432482903213943
-0.022700000000000164,-12.781916594280606
-0.023700000000000054,-13.175206335643086
-0.024700000000000166,-13.610937416001518
-0.025700000000000056,-13.960371107068182
-0.026700000000000168,-14.30273124163552
-0.027700000000000058,-14.61396772760583
-0.02870000000000017,-14.868615761581536
-0.02970000000000006,-15.094969569559943
-0.03070000000000017,-15.3920589425316
-0.03170000000000006,-15.78817810649381
-0.03270000000000017,-16.184297270456018
-0.03370000000000006,-16.622857773414182
-0.034700000000000175,-16.962388485381787
-0.035700000000000065,-17.2736249713521
-0.03670000000000018,-17.48583166633185
-0.03770000000000007,-17.71218547431026
-0.03870000000000018,-17.966833508285966
-0.03970000000000007,-18.362952672248177
-0.04070000000000018,-18.80151317520634
-0.04170000000000007,-19.2400736781645
-0.04270000000000018,-19.636192842126707
-0.04370000000000007,-19.93328221509837
-0.044700000000000184,-20.202077362072725
-0.045700000000000074,-20.414284057052477
-0.046700000000000186,-20.72552054302279
-0.047700000000000076,-21.107492593986347
-0.04870000000000019,-21.54605309694451
-0.04970000000000008,-22.027054938898623
-0.05070000000000019,-22.42317410286083
-0.05170000000000008,-22.776851927827092
-0.05270000000000019,-23.073941300798747
-0.05370000000000008,-23.342736447773106
-0.05470000000000019,-23.639825820744765
-0.05570000000000008,-23.951062306715073
-0.056700000000000195,-24.34718147067728
-0.057700000000000085,-24.771594860636792
-0.058700000000000196,-25.210155363594954
-0.059700000000000086,-25.563833188561212
-0.0607000000000002,-25.86092256153287
-0.06170000000000009,-26.129717708507226
-0.0627000000000002,-26.34192440348698
-0.06370000000000009,-26.65316088945729
-0.0647000000000002,-27.00683871442355
-0.06570000000000009,-27.43125210438306
-0.0667000000000002,-27.912253946337174
-0.0677000000000001,-28.350814449295335
-0.0687000000000002,-28.704492274261593
-0.0697000000000001,-29.001581647233255
-0.07070000000000021,-29.35525947219951
-0.0717000000000001,-29.708937297165768
-0.07270000000000021,-30.10505646112798
-0.0737000000000001,-30.529469851087494
-0.07470000000000021,-31.010471693041605
-0.0757000000000001,-31.40659085700382
-0.07670000000000021,-31.76026868197007
-0.0777000000000001,-32.05735805494172
-0.07870000000000021,-32.368594540912035
-0.0797000000000001,-32.62324257488775
-0.08070000000000022,-32.892037721862096
-0.0817000000000001,-33.330598224820264
-0.08270000000000022,-33.755011614779775
-0.08370000000000011,-34.33504324772444
-0.08470000000000022,-34.90092776767045
-0.08570000000000011,-35.38192960962457
-0.08670000000000022,-35.806342999584075
-0.08770000000000011,-36.20246216354629
-0.08870000000000022,-36.5985813275085
-0.08970000000000011,-37.037141830466666
-0.09070000000000022,-37.41911388143023
-0.09170000000000011,-37.81523304539243
-0.09270000000000023,-38.16891087035869
-0.09370000000000012,-38.33867622634249
-0.09470000000000023,-38.522588695324956
-0.09570000000000012,-38.734795390304704
-0.09670000000000023,-39.130914554266916
-0.09770000000000012,-39.654357735216976
-0.09870000000000023,-40.220242255162994
-0.09970000000000012,-40.87100945310091
-0.10070000000000023,-41.47933531204288
-0.10170000000000012,-42.087661170984845
-0.10270000000000024,-42.568663012938956
-0.10370000000000013,-42.96478217690117
-0.10470000000000024,-43.27601866287147
-0.10570000000000013,-43.61554937483908
-0.10670000000000024,-43.96922719980534
-0.10770000000000013,-44.3229050247716
-0.10870000000000024,-44.577553058747306
-0.10970000000000013,-44.80390686672572
-0.11070000000000024,-44.97367222270952
-0.11170000000000013,-45.143437578693316
-0.11270000000000002,-45.36979138667173
-0.11370000000000013,-45.75176343763528
-0.11470000000000002,-46.3176479575813
-0.11570000000000014,-47.067444946509774
-0.11670000000000003,-47.80309482243959
-0.11770000000000014,-48.51045047237211
-0.11870000000000003,-49.076334992318124
-0.11970000000000014,-49.458307043281685
-0.12070000000000003,-49.72710219025603
-0.12170000000000014,-49.98175022423175
-0.12270000000000003,-50.29298671020206
-0.12370000000000014,-50.64666453516831
-0.12470000000000003,-51.17010771611838
-0.12570000000000014,-51.594521106077885
-0.12670000000000003,-52.075522948032
-0.12770000000000015,-52.42920077299826
-0.12870000000000004,-52.69799591997262
-0.12970000000000015,-52.95264395394832
-0.13070000000000004,-53.348763117910536
-0.13170000000000015,-53.7873236208687
-0.13270000000000004,-54.16929567183226
-0.13370000000000015,-54.52297349679851
-0.13470000000000004,-54.834209982768826
-0.13570000000000015,-55.088858016744524
-0.13670000000000004,-55.357653163718886
-0.13770000000000016,-55.65474253669055
-0.13870000000000005,-56.05086170065276
-0.13970000000000016,-56.53186354260687
-0.14070000000000005,-57.012865384560975
-0.14170000000000016,-57.493867226515086
-0.14270000000000005,-57.974869068469204
-0.14370000000000016,-58.39928245842871
-0.14470000000000005,-58.83784296138688
-0.14570000000000016,-59.19152078635314
-0.14670000000000005,-59.54519861131939
-0.14770000000000016,-59.884729323287
-0.14870000000000005,-60.23840714825326
-0.14970000000000017,-60.71940899020737
-0.15070000000000006,-61.20041083216149
-0.15170000000000017,-61.6814126741156
-0.15270000000000006,-62.02094338608321
-0.15370000000000017,-62.33217987205352
-0.15470000000000006,-62.58682790602922
-0.15570000000000017,-62.855623053003576
-0.15670000000000006,-63.20930087796983
-0.15770000000000017,-63.633714267929356
-0.15870000000000006,-64.0722747708875
-0.15970000000000018,-64.51083527384567
-0.16070000000000007,-64.82207175981598
-0.16170000000000018,-65.03427845479574
-0.16270000000000007,-65.2464851497755
-0.16370000000000018,-65.60016297474175
-0.16470000000000007,-66.08116481669586
-0.16570000000000018,-66.56216665864997
-0.16670000000000007,-67.04316850060408
-0.16770000000000018,-67.48172900356225
-0.16870000000000007,-67.82125971552985
-0.16970000000000018,-68.21737887949207
-0.17070000000000007,-68.52861536546239
-0.17170000000000019,-68.96717586842054
-0.17270000000000008,-69.39158925838004
-0.1737000000000002,-69.91503243933012
-0.17470000000000008,-70.39603428128423
-0.1757000000000002,-70.79215344524643
-0.17670000000000008,-71.18827260920865
-0.1777000000000002,-71.48536198218031
-0.17870000000000008,-71.75415712915466
-0.1797000000000002,-72.00880516313036
-0.18070000000000008,-72.27760031010472
-0.1817000000000002,-72.67371947406694
-0.18270000000000008,-73.0556915250305
-0.1837000000000002,-73.45181068899271
-0.1847000000000001,-73.80548851395896
-0.1857000000000002,-74.10257788693062
-0.1867000000000001,-74.32893169490903
-0.1877000000000002,-74.45625571189689
-0.1887000000000001,-74.72505085887124
-0.1897000000000002,-75.06458157083884
-0.1907000000000001,-75.54558341279296
-0.1917000000000001,-76.02658525474708
-0.19269999999999998,-76.55002843569714
-0.1937000000000001,-76.9037062606634
-0.19469999999999998,-77.20079563363505
-0.1957000000000001,-77.42714944161345
-0.19669999999999999,-77.68179747558916
-0.1977000000000001,-78.07791663955136
-0.1987,-78.51647714250953
-0.1997000000000001,-78.99747898446365
-0.2007,-79.2945683574353
-0.2017000000000001,-79.52092216541372
-0.2027,-79.60580484340561
-0.2037000000000001,-79.73312886039348
-0.2047,-79.94533555537322
-0.2057000000000001,-80.21413070234757
-0.2067,-80.56780852731384
-0.2077000000000001,-80.90733923928146
-0.2087,-81.26101706424771
-0.2097000000000001,-81.47322375922747
-0.2107,-81.74201890620182
-0.2117000000000001,-81.95422560118158
-0.2127,-82.09569673116808
-0.2137000000000001,-82.26546208715187
-0.2147,-82.52011012112759
-0.2157000000000001,-82.87378794609386
-0.2167,-83.26990711005605
-0.21770000000000012,-83.70846761301424
-0.2187,-84.00555698598588
-0.21970000000000012,-84.35923481095215
-0.2207,-84.57144150593189
-0.22170000000000012,-84.75535397491434
-0.2227,-84.96756066989411
-0.22370000000000012,-85.36367983385631
-0.2247,-85.80224033681448
-0.22570000000000012,-86.22665372677399
-0.2267,-86.5378902127443
-0.22770000000000012,-86.75009690772404
-0.22870000000000001,-86.89156803771054
-0.22970000000000013,-87.06133339369435
-0.23070000000000002,-87.37256987966467
-0.23170000000000013,-87.79698326962418
-0.23270000000000002,-88.27798511157829
-0.23370000000000013,-88.7589869535324
-0.23470000000000002,-89.11266477849867
-0.23570000000000013,-89.36731281247435
-0.23670000000000002,-89.67854929844468
-0.2376999999999999,-89.94734444541903
-0.23870000000000002,-90.20199247939475
-0.2396999999999999,-90.51322896536506
-0.24070000000000003,-90.81031833833671
-0.24169999999999991,-91.24887884129487
-0.24270000000000003,-91.60255666626112
-0.24369999999999992,-91.89964603923279
-0.24470000000000003,-92.08355850821525
-0.24569999999999992,-92.12599984721119
-0.24670000000000003,-92.2108825252031
-0.24769999999999992,-92.3806478811869
-0.24870000000000003,-92.6918843671572
-0.24969999999999992,-93.13044487011537
-0.25070000000000003,-93.55485826007487
-0.2516999999999999,-93.86609474604518
-0.25270000000000004,-93.99341876303303
-0.2536999999999999,-94.07830144102493
-0.25470000000000004,-94.26221391000739
-0.2556999999999999,-94.47442060498715
-0.25670000000000004,-94.8280984299534
-0.25769999999999993,-95.08274646392913
-0.25870000000000004,-95.39398294989942
-0.25969999999999993,-95.64863098387512
-0.26070000000000004,-95.74766077486568
-0.26169999999999993,-95.64863098387512
-0.26270000000000004,-95.69107232287108
-0.26369999999999993,-96.00230880884139
-0.26470000000000005,-96.27110395581576
-0.26569999999999994,-96.4833106507955
-0.26670000000000005,-96.69551734577524
-0.26769999999999994,-96.96431249274961
-0.26870000000000005,-97.21896052672531
-0.26969999999999994,-97.4877556736997
-0.27070000000000005,-97.78484504667132
-0.27169999999999994,-98.2234055496295
-0.27270000000000005,-98.6195247135917
-0.27369999999999994,-98.97320253855796
-0.27470000000000006,-99.22785057253368
-0.27569999999999995,-99.41176304151614
-0.27670000000000006,-99.45420438051207
-0.27769999999999995,-99.45420438051207
-0.27870000000000006,-99.41176304151614
-0.27969999999999995,-99.49664571950804
-0.28070000000000006,-99.66641107549184
-0.28169999999999995,-100.02008890045809
-0.28270000000000006,-100.31717827342976
-0.28369999999999995,-100.670856098396
-0.28470000000000006,-100.98209258436633
-0.28569999999999995,-101.15185794035013
-0.28670000000000007,-101.19429927934607
-0.28769999999999996,-101.19429927934607
-0.28870000000000007,-101.27918195733798
-0.28969999999999996,-101.50553576531638
-0.29070000000000007,-101.76018379929208
-0.29169999999999996,-102.02897894626645
-0.29270000000000007,-102.28362698024215
-0.29369999999999996,-102.59486346621246
-0.2947000000000001,-102.89195283918411
-0.29569999999999996,-103.07586530816658
-0.2967000000000001,-103.24563066415038
-0.29769999999999996,-103.37295468113824
-0.2987000000000001,-103.50027869812607
-0.29969999999999997,-103.64174982811258
-0.3007000000000001,-103.76907384510045
-0.30169999999999997,-103.85395652309235
-0.3027000000000001,-103.89639786208829
-0.30369999999999997,-103.85395652309235
-0.3047000000000001,-103.85395652309235
-0.30569999999999997,-103.89639786208829
-0.3067000000000001,-104.12275167006669
-0.3077,-104.46228238203432
-0.3087000000000001,-104.94328422398843
-0.3097,-105.38184472694657
-0.3107000000000001,-105.63649276092228
-0.3117,-105.7779638909088
-0.3127000000000001,-105.82040522990474
-0.3137,-105.86284656890071
-0.3147000000000001,-105.90528790789664
-0.3157,-106.11749460287639
-0.3167000000000001,-106.34384841085482
-0.3177,-106.47117242784265
-0.3187000000000001,-106.51361376683862
-0.3197,-106.4287310888467
-0.3207000000000001,-106.34384841085482
-0.3217,-106.21652439386696
-0.3227000000000001,-106.21652439386696
-0.3237,-106.4287310888467
-0.3247000000000001,-106.68337912282242
-0.3257,-106.86729159180487
-0.3267000000000001,-106.99461560879273
-0.3277,-107.07949828678463
-0.3287000000000001,-107.03705694778867
-0.3297,-106.99461560879273
-0.3307000000000001,-107.12193962578058
-0.3317,-107.39073477275493
-0.3327000000000001,-107.68782414572658
-0.3337,-107.99906063169689
-0.3347000000000001,-108.1688259876807
-0.3357,-108.35273845666316
-0.3367000000000001,-108.3102971176672
-0.3377,-108.21126732667666
-0.3387000000000001,-108.21126732667666
-0.3397,-108.35273845666316
-0.3407000000000001,-108.48006247365102
-0.3417,-108.60738649063886
-0.3427000000000001,-108.83374029861727
-0.3437,-108.91862297660917
-0.3447000000000001,-108.96106431560513
-0.3457,-108.83374029861727
-0.3467000000000001,-108.91862297660917
-0.3477,-109.08838833259297
-0.3487000000000001,-109.21571234958083
-0.3497,-109.30059502757274
-0.3507000000000001,-109.44206615755924
-0.3517,-109.44206615755924
-0.3527000000000001,-109.35718347956733
-0.3537,-109.13082967158894
-0.3547000000000001,-109.00350565460108
-0.3557,-108.96106431560513
-0.35670000000000013,-109.04594699359701
-0.3577,-109.17327101058488
-0.35870000000000013,-109.35718347956733
-0.3597,-109.56939017454708
-0.36070000000000013,-109.73915553053091
-0.3617,-109.8806266605174
-0.3626999999999999,-109.9655093385093
-0.3637,-110.05039201650122
-0.3646999999999999,-110.1352746944931
-0.3657,-110.26259871148096
-0.3666999999999999,-110.34748138947285
-0.3677,-110.3050400504769
-0.3686999999999999,-110.17771603348905
-0.36970000000000003,-110.17771603348905
-0.3706999999999999,-110.1352746944931
-0.37170000000000003,-110.22015737248502
-0.3726999999999999,-110.3050400504769
-0.37370000000000003,-110.48895251945936
-0.3746999999999999,-110.70115921443913
-0.37570000000000003,-110.82848323142699
-0.3766999999999999,-110.87092457042293
-0.37770000000000004,-110.74360055343507
-0.3786999999999999,-110.53139385845533
-0.37970000000000004,-110.22015737248502
-0.3806999999999999,-109.92306799951335
-0.38170000000000004,-109.8806266605174
-0.38269999999999993,-110.00795067750525
-0.38370000000000004,-110.17771603348905
-0.38469999999999993,-110.3050400504769
-0.38570000000000004,-110.34748138947285
-0.38669999999999993,-110.34748138947285
-0.38770000000000004,-110.48895251945936
-0.38869999999999993,-110.70115921443913
-0.38970000000000005,-111.05483703940537
-0.39069999999999994,-111.4509562033676
-0.39170000000000005,-111.66316289834735
-0.39269999999999994,-111.7056042373433
-0.39370000000000005,-111.49339754236355
-0.39469999999999994,-111.13971971739728
-0.39570000000000005,-110.74360055343507
-0.39669999999999994,-110.53139385845533
-0.39770000000000005,-110.53139385845533
-0.39869999999999994,-110.74360055343507
-0.39970000000000006,-111.01239570040943
-0.40069999999999995,-111.26704373438514
-0.40170000000000006,-111.35192641237703
-0.40269999999999995,-111.26704373438514
-0.40370000000000006,-111.01239570040943
-0.40469999999999995,-110.70115921443913
-0.40570000000000006,-110.4465111804634
-0.40669999999999995,-110.4465111804634
-0.40770000000000006,-110.57383519745127
-0.40869999999999995,-110.74360055343507
-0.40970000000000006,-110.92751302241753
-0.41069999999999995,-111.01239570040943
-0.41170000000000007,-111.09727837840134
-0.41269999999999996,-111.18216105639323
-0.41370000000000007,-111.3094850733811
-0.41469999999999996,-111.49339754236355
-0.41570000000000007,-111.7056042373433
-0.41669999999999996,-111.83292825433115
-0.41770000000000007,-111.83292825433115
-0.41869999999999996,-111.74804557633925
-0.4197000000000001,-111.6207215593514
-0.42069999999999996,-111.49339754236355
-0.4217000000000001,-111.5358388813595
-0.42269999999999996,-111.6207215593514
-0.4237000000000001,-111.7904869153352
-0.42469999999999997,-112.01684072331359
-0.4257000000000001,-112.18660607929739
-0.42669999999999997,-112.3563714352812
-0.4277000000000001,-112.48369545226906
-0.42869999999999997,-112.58272524325962
-0.4297000000000001,-112.71004926024747
-0.43069999999999997,-112.79493193823936
-0.4317000000000001,-112.87981461623129
-0.4327,-112.92225595522721
-0.4337000000000001,-112.96469729422319
-0.4347,-112.92225595522721
-0.4357000000000001,-112.83737327723534
-0.4367,-112.75249059924342
-0.4377000000000001,-112.79493193823936
-0.4387,-112.92225595522721
-0.4397000000000001,-113.19105110220158
-0.4407,-113.48814047517324
-0.4417000000000001,-113.79937696114357
-0.4427,-114.0115836561233
-0.4437000000000001,-114.19549612510575
-0.4447,-114.3228201420936
-0.4457000000000001,-114.45014415908147
-0.4467,-114.57746817606933
-0.4477000000000001,-114.76138064505177
-0.4487,-114.97358734003153
-0.4497000000000001,-115.15749980901398
-0.4507,-115.28482382600184
-0.4517000000000001,-115.32726516499778
-0.4527,-115.28482382600184
-0.4537000000000001,-115.19994114800993
-0.4547,-115.15749980901398
-0.4557000000000001,-115.10091135701937
-0.4567,-115.32726516499778
-0.4577000000000001,-115.72338432896
-0.4587,-116.24682750991008
-0.4597000000000001,-116.81271202985609
-0.4607,-117.29371387181018
-0.4617000000000001,-117.67568592277377
-0.4627,-118.07180508673595
-0.4637000000000001,-118.42548291170223
-0.4647,-118.86404341466037
-0.4657000000000001,-119.38748659561045
-0.4667,-119.95337111555646
-0.4677000000000001,-120.60413831349437
-0.4687,-121.17002283344038
-0.4697000000000001,-121.77834869238235
-0.4707,-122.38667455132433
-0.4717000000000001,-123.09403020125686
-0.4727,-123.91456275517855
-0.4737000000000001,-124.7916837610949
-0.4747,-125.83857012299501
-0.4757000000000001,-126.84301514589919
-0.4767,-127.80501882980741
-0.4777000000000001,-128.5831100447332
-0.4787,-129.3753483726576
-0.4797000000000001,-130.37979339556176
-0.4807,-131.63888645244168
-0.48170000000000013,-133.03945063930803
-0.4827,-134.46830905217172
-0.48370000000000013,-135.91131457803408
-0.4847,-137.22699608690854
-0.48570000000000013,-138.52853048278442
-0.4867,-138.65585449977226
-0.48570000000000013,-137.00064227893017
-0.4847,-135.5576367530678
-0.48370000000000013,-134.21366101819604
-0.4827,-132.89797950932152
-0.48170000000000013,-131.5964451134457
-0.4807,-130.32320494356716
-0.4797000000000001,-129.10655322568326
-0.4787,-127.93234284679528
-0.4777000000000001,-126.71569112891132
-0.4767,-125.5273336370247
-0.4757000000000001,-124.35312325813672
-0.4747,-123.2213542182447
-0.4737000000000001,-122.08958517835266
-0.4727,-121.00025747745659
-0.4717000000000001,-119.81189998556997
-0.4707,-118.55280692869007
-0.4697000000000001,-117.25127253281424
-0.4687,-116.02047370193165
-0.4677000000000001,-114.84626332304367
-0.4667,-113.79937696114357
-0.4657000000000001,-112.75249059924342
-0.4647,-111.66316289834735
