Mar. 14, 2025   14:16:22
Cyclic Voltammetry
File: c:/users/guazh/data/banditlqround7_x0exp891_r5/2025-03-03-exp893\exp893-2025-03-14t14_08_56-arkoh\exp893_cv_sr_500mvs_efin_-1400mv.bin
Data Source:  Experiment
Instrument Model:  CHI760E
Header: CV ran at 500 mVs
Note: 

Init E (V) = -1
High E (V) = -1
Low E (V) = -1.4
Final E (V) = -1
Init P/N = N
Scan Rate (V/s) = 0.5
Segment = 3
Sample Interval (V) = 0.001
Quiet Time (sec) = 2
Sensitivity (A/V) = 0.01
Comp R (ohm) = 1.9

Results:

Channel 1:
Segment 1:

Segment 2:

Segment 3:

Potential/V, Current/A

-1.000, 2.482e-5
-1.001, 7.107e-5
-1.002, 9.265e-5
-1.003, 1.111e-4
-1.004, 1.204e-4
-1.005, 1.266e-4
-1.006, 1.327e-4
-1.007, 1.358e-4
-1.008, 1.420e-4
-1.009, 1.451e-4
-1.010, 1.481e-4
-1.011, 1.512e-4
-1.012, 1.512e-4
-1.013, 1.512e-4
-1.014, 1.512e-4
-1.015, 1.512e-4
-1.016, 1.512e-4
-1.017, 1.543e-4
-1.018, 1.574e-4
-1.019, 1.574e-4
-1.020, 1.574e-4
-1.021, 1.543e-4
-1.022, 1.543e-4
-1.023, 1.543e-4
-1.024, 1.543e-4
-1.025, 1.574e-4
-1.026, 1.574e-4
-1.027, 1.574e-4
-1.028, 1.605e-4
-1.029, 1.574e-4
-1.030, 1.574e-4
-1.031, 1.574e-4
-1.032, 1.543e-4
-1.033, 1.574e-4
-1.034, 1.574e-4
-1.035, 1.574e-4
-1.036, 1.574e-4
-1.037, 1.574e-4
-1.038, 1.574e-4
-1.039, 1.574e-4
-1.040, 1.574e-4
-1.041, 1.543e-4
-1.042, 1.574e-4
-1.043, 1.574e-4
-1.044, 1.574e-4
-1.045, 1.574e-4
-1.046, 1.574e-4
-1.047, 1.574e-4
-1.048, 1.543e-4
-1.049, 1.543e-4
-1.050, 1.574e-4
-1.051, 1.574e-4
-1.052, 1.574e-4
-1.053, 1.574e-4
-1.054, 1.574e-4
-1.055, 1.543e-4
-1.056, 1.543e-4
-1.057, 1.543e-4
-1.058, 1.543e-4
-1.059, 1.574e-4
-1.060, 1.574e-4
-1.061, 1.574e-4
-1.062, 1.574e-4
-1.063, 1.574e-4
-1.064, 1.543e-4
-1.065, 1.543e-4
-1.066, 1.543e-4
-1.067, 1.574e-4
-1.068, 1.574e-4
-1.069, 1.574e-4
-1.070, 1.574e-4
-1.071, 1.574e-4
-1.072, 1.574e-4
-1.073, 1.543e-4
-1.074, 1.543e-4
-1.075, 1.574e-4
-1.076, 1.574e-4
-1.077, 1.574e-4
-1.078, 1.574e-4
-1.079, 1.574e-4
-1.080, 1.574e-4
-1.081, 1.543e-4
-1.082, 1.543e-4
-1.083, 1.574e-4
-1.084, 1.574e-4
-1.085, 1.574e-4
-1.086, 1.605e-4
-1.087, 1.574e-4
-1.088, 1.574e-4
-1.089, 1.574e-4
-1.090, 1.543e-4
-1.091, 1.574e-4
-1.092, 1.574e-4
-1.093, 1.605e-4
-1.094, 1.605e-4
-1.095, 1.605e-4
-1.096, 1.574e-4
-1.097, 1.574e-4
-1.098, 1.574e-4
-1.099, 1.574e-4
-1.100, 1.574e-4
-1.101, 1.605e-4
-1.102, 1.605e-4
-1.103, 1.605e-4
-1.104, 1.605e-4
-1.105, 1.605e-4
-1.106, 1.574e-4
-1.107, 1.574e-4
-1.108, 1.605e-4
-1.109, 1.605e-4
-1.110, 1.605e-4
-1.111, 1.636e-4
-1.112, 1.605e-4
-1.113, 1.605e-4
-1.114, 1.605e-4
-1.115, 1.605e-4
-1.116, 1.605e-4
-1.117, 1.605e-4
-1.118, 1.636e-4
-1.119, 1.636e-4
-1.120, 1.636e-4
-1.121, 1.636e-4
-1.122, 1.636e-4
-1.123, 1.605e-4
-1.124, 1.636e-4
-1.125, 1.636e-4
-1.126, 1.636e-4
-1.127, 1.666e-4
-1.128, 1.636e-4
-1.129, 1.636e-4
-1.130, 1.636e-4
-1.131, 1.636e-4
-1.132, 1.636e-4
-1.133, 1.666e-4
-1.134, 1.666e-4
-1.135, 1.666e-4
-1.136, 1.697e-4
-1.137, 1.697e-4
-1.138, 1.666e-4
-1.139, 1.666e-4
-1.140, 1.666e-4
-1.141, 1.666e-4
-1.142, 1.666e-4
-1.143, 1.697e-4
-1.144, 1.697e-4
-1.145, 1.728e-4
-1.146, 1.697e-4
-1.147, 1.697e-4
-1.148, 1.697e-4
-1.149, 1.697e-4
-1.150, 1.697e-4
-1.151, 1.728e-4
-1.152, 1.728e-4
-1.153, 1.728e-4
-1.154, 1.728e-4
-1.155, 1.728e-4
-1.156, 1.728e-4
-1.157, 1.728e-4
-1.158, 1.728e-4
-1.159, 1.759e-4
-1.160, 1.759e-4
-1.161, 1.759e-4
-1.162, 1.759e-4
-1.163, 1.759e-4
-1.164, 1.759e-4
-1.165, 1.759e-4
-1.166, 1.759e-4
-1.167, 1.790e-4
-1.168, 1.790e-4
-1.169, 1.790e-4
-1.170, 1.821e-4
-1.171, 1.790e-4
-1.172, 1.790e-4
-1.173, 1.790e-4
-1.174, 1.790e-4
-1.175, 1.821e-4
-1.176, 1.821e-4
-1.177, 1.851e-4
-1.178, 1.851e-4
-1.179, 1.851e-4
-1.180, 1.851e-4
-1.181, 1.821e-4
-1.182, 1.821e-4
-1.183, 1.851e-4
-1.184, 1.851e-4
-1.185, 1.882e-4
-1.186, 1.882e-4
-1.187, 1.882e-4
-1.188, 1.882e-4
-1.189, 1.851e-4
-1.190, 1.851e-4
-1.191, 1.882e-4
-1.192, 1.882e-4
-1.193, 1.913e-4
-1.194, 1.913e-4
-1.195, 1.913e-4
-1.196, 1.913e-4
-1.197, 1.913e-4
-1.198, 1.913e-4
-1.199, 1.913e-4
-1.200, 1.913e-4
-1.201, 1.944e-4
-1.202, 1.944e-4
-1.203, 1.944e-4
-1.204, 1.944e-4
-1.205, 1.944e-4
-1.206, 1.944e-4
-1.207, 1.944e-4
-1.208, 1.944e-4
-1.209, 1.975e-4
-1.210, 1.975e-4
-1.211, 1.975e-4
-1.212, 1.975e-4
-1.213, 1.975e-4
-1.214, 1.975e-4
-1.215, 1.975e-4
-1.216, 1.975e-4
-1.217, 1.975e-4
-1.218, 2.006e-4
-1.219, 2.006e-4
-1.220, 2.006e-4
-1.221, 2.006e-4
-1.222, 2.006e-4
-1.223, 2.006e-4
-1.224, 2.006e-4
-1.225, 2.006e-4
-1.226, 2.036e-4
-1.227, 2.036e-4
-1.228, 2.036e-4
-1.229, 2.036e-4
-1.230, 2.036e-4
-1.231, 2.036e-4
-1.232, 2.036e-4
-1.233, 2.036e-4
-1.234, 2.067e-4
-1.235, 2.067e-4
-1.236, 2.067e-4
-1.237, 2.067e-4
-1.238, 2.036e-4
-1.239, 2.036e-4
-1.240, 2.036e-4
-1.241, 2.036e-4
-1.242, 2.067e-4
-1.243, 2.067e-4
-1.244, 2.098e-4
-1.245, 2.067e-4
-1.246, 2.067e-4
-1.247, 2.067e-4
-1.248, 2.036e-4
-1.249, 2.067e-4
-1.250, 2.067e-4
-1.251, 2.067e-4
-1.252, 2.067e-4
-1.253, 2.067e-4
-1.254, 2.067e-4
-1.255, 2.067e-4
-1.256, 2.067e-4
-1.257, 2.067e-4
-1.258, 2.098e-4
-1.259, 2.098e-4
-1.260, 2.098e-4
-1.261, 2.098e-4
-1.262, 2.098e-4
-1.263, 2.098e-4
-1.264, 2.067e-4
-1.265, 2.067e-4
-1.266, 2.067e-4
-1.267, 2.098e-4
-1.268, 2.098e-4
-1.269, 2.098e-4
-1.270, 2.098e-4
-1.271, 2.098e-4
-1.272, 2.067e-4
-1.273, 2.067e-4
-1.274, 2.067e-4
-1.275, 2.098e-4
-1.276, 2.098e-4
-1.277, 2.098e-4
-1.278, 2.098e-4
-1.279, 2.098e-4
-1.280, 2.098e-4
-1.281, 2.098e-4
-1.282, 2.098e-4
-1.283, 2.098e-4
-1.284, 2.098e-4
-1.285, 2.129e-4
-1.286, 2.129e-4
-1.287, 2.129e-4
-1.288, 2.098e-4
-1.289, 2.098e-4
-1.290, 2.098e-4
-1.291, 2.129e-4
-1.292, 2.129e-4
-1.293, 2.129e-4
-1.294, 2.160e-4
-1.295, 2.160e-4
-1.296, 2.129e-4
-1.297, 2.129e-4
-1.298, 2.129e-4
-1.299, 2.129e-4
-1.300, 2.160e-4
-1.301, 2.160e-4
-1.302, 2.191e-4
-1.303, 2.191e-4
-1.304, 2.191e-4
-1.305, 2.191e-4
-1.306, 2.191e-4
-1.307, 2.221e-4
-1.308, 2.221e-4
-1.309, 2.252e-4
-1.310, 2.252e-4
-1.311, 2.252e-4
-1.312, 2.252e-4
-1.313, 2.252e-4
-1.314, 2.252e-4
-1.315, 2.283e-4
-1.316, 2.283e-4
-1.317, 2.314e-4
-1.318, 2.345e-4
-1.319, 2.376e-4
-1.320, 2.376e-4
-1.321, 2.376e-4
-1.322, 2.376e-4
-1.323, 2.406e-4
-1.324, 2.406e-4
-1.325, 2.437e-4
-1.326, 2.499e-4
-1.327, 2.499e-4
-1.328, 2.530e-4
-1.329, 2.561e-4
-1.330, 2.561e-4
-1.331, 2.591e-4
-1.332, 2.622e-4
-1.333, 2.653e-4
-1.334, 2.684e-4
-1.335, 2.715e-4
-1.336, 2.746e-4
-1.337, 2.776e-4
-1.338, 2.807e-4
-1.339, 2.838e-4
-1.340, 2.869e-4
-1.341, 2.931e-4
-1.342, 2.961e-4
-1.343, 3.054e-4
-1.344, 3.085e-4
-1.345, 3.146e-4
-1.346, 3.177e-4
-1.347, 3.208e-4
-1.348, 3.270e-4
-1.349, 3.331e-4
-1.350, 3.393e-4
-1.351, 3.485e-4
-1.352, 3.547e-4
-1.353, 3.640e-4
-1.354, 3.732e-4
-1.355, 3.794e-4
-1.356, 3.886e-4
-1.357, 3.979e-4
-1.358, 4.071e-4
-1.359, 4.195e-4
-1.360, 4.318e-4
-1.361, 4.441e-4
-1.362, 4.565e-4
-1.363, 4.719e-4
-1.364, 4.873e-4
-1.365, 5.027e-4
-1.366, 5.243e-4
-1.367, 5.459e-4
-1.368, 5.705e-4
-1.369, 5.921e-4
-1.370, 6.199e-4
-1.371, 6.445e-4
-1.372, 6.784e-4
-1.373, 7.124e-4
-1.374, 7.494e-4
-1.375, 7.956e-4
-1.376, 8.449e-4
-1.377, 8.973e-4
-1.378, 9.528e-4
-1.379, 1.014e-3
-1.380, 1.085e-3
-1.381, 1.156e-3
-1.382, 1.236e-3
-1.383, 1.326e-3
-1.384, 1.415e-3
-1.385, 1.517e-3
-1.386, 1.622e-3
-1.387, 1.730e-3
-1.388, 1.847e-3
-1.389, 1.967e-3
-1.390, 2.094e-3
-1.391, 2.226e-3
-1.392, 2.365e-3
-1.393, 2.510e-3
-1.394, 2.658e-3
-1.395, 2.809e-3
-1.396, 2.963e-3
-1.397, 3.117e-3
-1.398, 3.278e-3
-1.399, 3.444e-3
-1.400, 3.558e-3
-1.399, 3.607e-3
-1.398, 3.663e-3
-1.397, 3.712e-3
-1.396, 3.755e-3
-1.395, 3.789e-3
-1.394, 3.823e-3
-1.393, 3.854e-3
-1.392, 3.879e-3
-1.391, 3.900e-3
-1.390, 3.916e-3
-1.389, 3.931e-3
-1.388, 3.947e-3
-1.387, 3.956e-3
-1.386, 3.959e-3
-1.385, 3.959e-3
-1.384, 3.959e-3
-1.383, 3.956e-3
-1.382, 3.943e-3
-1.381, 3.931e-3
-1.380, 3.916e-3
-1.379, 3.900e-3
-1.378, 3.879e-3
-1.377, 3.860e-3
-1.376, 3.848e-3
-1.375, 3.823e-3
-1.374, 3.799e-3
-1.373, 3.777e-3
-1.372, 3.749e-3
-1.371, 3.721e-3
-1.370, 3.691e-3
-1.369, 3.657e-3
-1.368, 3.623e-3
-1.367, 3.589e-3
-1.366, 3.555e-3
-1.365, 3.521e-3
-1.364, 3.481e-3
-1.363, 3.441e-3
-1.362, 3.404e-3
-1.361, 3.361e-3
-1.360, 3.324e-3
-1.359, 3.281e-3
-1.358, 3.241e-3
-1.357, 3.200e-3
-1.356, 3.157e-3
-1.355, 3.114e-3
-1.354, 3.068e-3
-1.353, 3.022e-3
-1.352, 2.978e-3
-1.351, 2.935e-3
-1.350, 2.892e-3
-1.349, 2.849e-3
-1.348, 2.803e-3
-1.347, 2.760e-3
-1.346, 2.713e-3
-1.345, 2.673e-3
-1.344, 2.630e-3
-1.343, 2.590e-3
-1.342, 2.547e-3
-1.341, 2.501e-3
-1.340, 2.454e-3
-1.339, 2.408e-3
-1.338, 2.368e-3
-1.337, 2.328e-3
-1.336, 2.294e-3
-1.335, 2.254e-3
-1.334, 2.211e-3
-1.333, 2.171e-3
-1.332, 2.128e-3
-1.331, 2.084e-3
-1.330, 2.047e-3
-1.329, 2.004e-3
-1.328, 1.961e-3
-1.327, 1.918e-3
-1.326, 1.878e-3
-1.325, 1.841e-3
-1.324, 1.807e-3
-1.323, 1.776e-3
-1.322, 1.742e-3
-1.321, 1.708e-3
-1.320, 1.674e-3
-1.319, 1.631e-3
-1.318, 1.594e-3
-1.317, 1.557e-3
-1.316, 1.523e-3
-1.315, 1.489e-3
-1.314, 1.455e-3
-1.313, 1.421e-3
-1.312, 1.391e-3
-1.311, 1.354e-3
-1.310, 1.323e-3
-1.309, 1.292e-3
-1.308, 1.261e-3
-1.307, 1.230e-3
-1.306, 1.199e-3
-1.305, 1.166e-3
-1.304, 1.135e-3
-1.303, 1.104e-3
-1.302, 1.073e-3
-1.301, 1.042e-3
-1.300, 1.014e-3
-1.299, 9.868e-4
-1.298, 9.621e-4
-1.297, 9.343e-4
-1.296, 9.066e-4
-1.295, 8.819e-4
-1.294, 8.573e-4
-1.293, 8.326e-4
-1.292, 8.110e-4
-1.291, 7.863e-4
-1.290, 7.617e-4
-1.289, 7.401e-4
-1.288, 7.154e-4
-1.287, 6.939e-4
-1.286, 6.723e-4
-1.285, 6.476e-4
-1.284, 6.291e-4
-1.283, 6.106e-4
-1.282, 5.890e-4
-1.281, 5.705e-4
-1.280, 5.520e-4
-1.279, 5.335e-4
-1.278, 5.120e-4
-1.277, 4.965e-4
-1.276, 4.780e-4
-1.275, 4.626e-4
-1.274, 4.441e-4
-1.273, 4.287e-4
-1.272, 4.133e-4
-1.271, 3.979e-4
-1.270, 3.825e-4
-1.269, 3.640e-4
-1.268, 3.485e-4
-1.267, 3.362e-4
-1.266, 3.239e-4
-1.265, 3.085e-4
-1.264, 2.992e-4
-1.263, 2.838e-4
-1.262, 2.715e-4
-1.261, 2.561e-4
-1.260, 2.468e-4
-1.259, 2.345e-4
-1.258, 2.252e-4
-1.257, 2.160e-4
-1.256, 2.036e-4
-1.255, 1.913e-4
-1.254, 1.821e-4
-1.253, 1.728e-4
-1.252, 1.605e-4
-1.251, 1.512e-4
-1.250, 1.451e-4
-1.249, 1.358e-4
-1.248, 1.266e-4
-1.247, 1.173e-4
-1.246, 1.081e-4
-1.245, 1.019e-4
-1.244, 9.265e-5
-1.243, 8.648e-5
-1.242, 7.723e-5
-1.241, 7.107e-5
-1.240, 6.490e-5
-1.239, 5.873e-5
-1.238, 5.257e-5
-1.237, 4.640e-5
-1.236, 3.715e-5
-1.235, 3.099e-5
-1.234, 2.790e-5
-1.233, 2.174e-5
-1.232, 1.557e-5
-1.231, 1.249e-5
-1.230, 6.322e-6
-1.229, 1.559e-7
-1.228, -6.010e-6
-1.227, -1.218e-5
-1.226, -1.526e-5
-1.225, -1.834e-5
-1.224, -2.143e-5
-1.223, -2.451e-5
-1.222, -3.068e-5
-1.221, -3.684e-5
-1.220, -3.992e-5
-1.219, -4.301e-5
-1.218, -4.917e-5
-1.217, -4.917e-5
-1.216, -5.226e-5
-1.215, -5.534e-5
-1.214, -5.842e-5
-1.213, -6.151e-5
-1.212, -6.767e-5
-1.211, -7.076e-5
-1.210, -7.384e-5
-1.209, -7.692e-5
-1.208, -7.692e-5
-1.207, -8.000e-5
-1.206, -8.309e-5
-1.205, -8.617e-5
-1.204, -8.925e-5
-1.203, -9.234e-5
-1.202, -9.542e-5
-1.201, -9.850e-5
-1.200, -9.850e-5
-1.199, -9.850e-5
-1.198, -1.016e-4
-1.197, -1.047e-4
-1.196, -1.078e-4
-1.195, -1.078e-4
-1.194, -1.108e-4
-1.193, -1.139e-4
-1.192, -1.139e-4
-1.191, -1.139e-4
-1.190, -1.170e-4
-1.189, -1.201e-4
-1.188, -1.232e-4
-1.187, -1.232e-4
-1.186, -1.263e-4
-1.185, -1.293e-4
-1.184, -1.293e-4
-1.183, -1.293e-4
-1.182, -1.293e-4
-1.181, -1.293e-4
-1.180, -1.324e-4
-1.179, -1.355e-4
-1.178, -1.386e-4
-1.177, -1.386e-4
-1.176, -1.386e-4
-1.175, -1.386e-4
-1.174, -1.417e-4
-1.173, -1.417e-4
-1.172, -1.448e-4
-1.171, -1.448e-4
-1.170, -1.478e-4
-1.169, -1.478e-4
-1.168, -1.509e-4
-1.167, -1.509e-4
-1.166, -1.509e-4
-1.165, -1.509e-4
-1.164, -1.509e-4
-1.163, -1.540e-4
-1.162, -1.540e-4
-1.161, -1.571e-4
-1.160, -1.571e-4
-1.159, -1.602e-4
-1.158, -1.602e-4
-1.157, -1.571e-4
-1.156, -1.602e-4
-1.155, -1.602e-4
-1.154, -1.632e-4
-1.153, -1.632e-4
-1.152, -1.663e-4
-1.151, -1.663e-4
-1.150, -1.663e-4
-1.149, -1.663e-4
-1.148, -1.663e-4
-1.147, -1.663e-4
-1.146, -1.663e-4
-1.145, -1.694e-4
-1.144, -1.725e-4
-1.143, -1.725e-4
-1.142, -1.725e-4
-1.141, -1.694e-4
-1.140, -1.725e-4
-1.139, -1.725e-4
-1.138, -1.725e-4
-1.137, -1.756e-4
-1.136, -1.756e-4
-1.135, -1.756e-4
-1.134, -1.787e-4
-1.133, -1.756e-4
-1.132, -1.756e-4
-1.131, -1.756e-4
-1.130, -1.787e-4
-1.129, -1.787e-4
-1.128, -1.787e-4
-1.127, -1.817e-4
-1.126, -1.817e-4
-1.125, -1.817e-4
-1.124, -1.817e-4
-1.123, -1.787e-4
-1.122, -1.817e-4
-1.121, -1.817e-4
-1.120, -1.817e-4
-1.119, -1.848e-4
-1.118, -1.848e-4
-1.117, -1.848e-4
-1.116, -1.848e-4
-1.115, -1.848e-4
-1.114, -1.848e-4
-1.113, -1.848e-4
-1.112, -1.879e-4
-1.111, -1.879e-4
-1.110, -1.879e-4
-1.109, -1.879e-4
-1.108, -1.848e-4
-1.107, -1.848e-4
-1.106, -1.848e-4
-1.105, -1.848e-4
-1.104, -1.879e-4
-1.103, -1.879e-4
-1.102, -1.910e-4
-1.101, -1.910e-4
-1.100, -1.879e-4
-1.099, -1.879e-4
-1.098, -1.879e-4
-1.097, -1.879e-4
-1.096, -1.879e-4
-1.095, -1.910e-4
-1.094, -1.910e-4
-1.093, -1.910e-4
-1.092, -1.910e-4
-1.091, -1.910e-4
-1.090, -1.879e-4
-1.089, -1.910e-4
-1.088, -1.910e-4
-1.087, -1.910e-4
-1.086, -1.941e-4
-1.085, -1.941e-4
-1.084, -1.910e-4
-1.083, -1.910e-4
-1.082, -1.910e-4
-1.081, -1.910e-4
-1.080, -1.910e-4
-1.079, -1.941e-4
-1.078, -1.941e-4
-1.077, -1.941e-4
-1.076, -1.941e-4
-1.075, -1.941e-4
-1.074, -1.941e-4
-1.073, -1.910e-4
-1.072, -1.910e-4
-1.071, -1.941e-4
-1.070, -1.941e-4
-1.069, -1.941e-4
-1.068, -1.972e-4
-1.067, -1.941e-4
-1.066, -1.941e-4
-1.065, -1.910e-4
-1.064, -1.910e-4
-1.063, -1.941e-4
-1.062, -1.941e-4
-1.061, -1.941e-4
-1.060, -1.972e-4
-1.059, -1.972e-4
-1.058, -1.941e-4
-1.057, -1.941e-4
-1.056, -1.941e-4
-1.055, -1.941e-4
-1.054, -1.941e-4
-1.053, -1.972e-4
-1.052, -1.972e-4
-1.051, -1.972e-4
-1.050, -1.972e-4
-1.049, -1.941e-4
-1.048, -1.941e-4
-1.047, -1.972e-4
-1.046, -1.972e-4
-1.045, -1.972e-4
-1.044, -1.972e-4
-1.043, -2.002e-4
-1.042, -1.972e-4
-1.041, -1.972e-4
-1.040, -1.972e-4
-1.039, -1.972e-4
-1.038, -1.972e-4
-1.037, -1.972e-4
-1.036, -2.002e-4
-1.035, -2.002e-4
-1.034, -2.002e-4
-1.033, -2.002e-4
-1.032, -1.972e-4
-1.031, -1.972e-4
-1.030, -2.002e-4
-1.029, -2.002e-4
-1.028, -2.033e-4
-1.027, -2.033e-4
-1.026, -2.033e-4
-1.025, -2.033e-4
-1.024, -2.033e-4
-1.023, -2.033e-4
-1.022, -2.033e-4
-1.021, -2.033e-4
-1.020, -2.033e-4
-1.019, -2.064e-4
-1.018, -2.064e-4
-1.017, -2.064e-4
-1.016, -2.064e-4
-1.015, -2.064e-4
-1.014, -2.064e-4
-1.013, -2.064e-4
-1.012, -2.095e-4
-1.011, -2.095e-4
-1.010, -2.095e-4
-1.009, -2.095e-4
-1.008, -2.095e-4
-1.007, -2.095e-4
-1.006, -2.126e-4
-1.005, -2.126e-4
-1.004, -2.126e-4
-1.003, -2.157e-4
-1.002, -2.157e-4
-1.001, -2.157e-4
