Potential V vs RHE, Current mA cm-2
0.013299999999999867,-0.6128529351015338
0.012299999999999978,-1.9650339955125358
0.011299999999999866,-2.662486666345999
0.010299999999999976,-3.1420737970002466
0.009299999999999864,-3.403795387475278
0.008299999999999974,-3.579219588658543
0.007299999999999862,-3.7532290785419424
0.006299999999999972,-3.840941179133574
0.00529999999999986,-3.927238568425342
0.0042999999999999705,-4.014950669016974
0.0032999999999998586,-4.102662769608606
0.0022999999999999687,-4.146518819904423
0.0012999999999998568,-4.1889601589003735
0.00029999999999996696,-4.23281620919619
-0.000700000000000145,-4.276672259492005
-0.0017000000000000348,-4.276672259492005
-0.0027000000000001467,-4.3205283097878215
-0.0037000000000000366,-4.364384360083638
-0.0047000000000001485,-4.364384360083638
-0.005700000000000038,-4.406825699079589
-0.00670000000000015,-4.406825699079589
-0.00770000000000004,-4.450681749375406
-0.008700000000000152,-4.450681749375406
-0.009700000000000042,-4.494537799671222
-0.010700000000000154,-4.494537799671222
-0.011700000000000044,-4.494537799671222
-0.012700000000000156,-4.494537799671222
-0.013700000000000045,-4.494537799671222
-0.014700000000000157,-4.538393849967037
-0.015700000000000047,-4.494537799671222
-0.01670000000000016,-4.538393849967037
-0.01770000000000005,-4.538393849967037
-0.01870000000000016,-4.538393849967037
-0.01970000000000005,-4.582249900262854
-0.020700000000000163,-4.626105950558669
-0.021700000000000053,-4.626105950558669
-0.022700000000000164,-4.668547289554621
-0.023700000000000054,-4.626105950558669
-0.024700000000000166,-4.668547289554621
-0.025700000000000056,-4.668547289554621
-0.026700000000000168,-4.712403339850438
-0.027700000000000058,-4.712403339850438
-0.02870000000000017,-4.756259390146253
-0.02970000000000006,-4.712403339850438
-0.03070000000000017,-4.712403339850438
-0.03170000000000006,-4.712403339850438
-0.03270000000000017,-4.712403339850438
-0.03370000000000006,-4.712403339850438
-0.034700000000000175,-4.756259390146253
-0.035700000000000065,-4.800115440442069
-0.03670000000000018,-4.800115440442069
-0.03770000000000007,-4.756259390146253
-0.03870000000000018,-4.756259390146253
-0.03970000000000007,-4.756259390146253
-0.04070000000000018,-4.800115440442069
-0.04170000000000007,-4.800115440442069
-0.04270000000000018,-4.800115440442069
-0.04370000000000007,-4.800115440442069
-0.044700000000000184,-4.800115440442069
-0.045700000000000074,-4.800115440442069
-0.046700000000000186,-4.843971490737885
-0.047700000000000076,-4.843971490737885
-0.04870000000000019,-4.843971490737885
-0.04970000000000008,-4.843971490737885
-0.05070000000000019,-4.843971490737885
-0.05170000000000008,-4.843971490737885
-0.05270000000000019,-4.843971490737885
-0.05370000000000008,-4.843971490737885
-0.05470000000000019,-4.843971490737885
-0.05570000000000008,-4.843971490737885
-0.056700000000000195,-4.843971490737885
-0.057700000000000085,-4.887827541033701
-0.058700000000000196,-4.843971490737885
-0.059700000000000086,-4.887827541033701
-0.0607000000000002,-4.843971490737885
-0.06170000000000009,-4.887827541033701
-0.0627000000000002,-4.887827541033701
-0.06370000000000009,-4.843971490737885
-0.0647000000000002,-4.843971490737885
-0.06570000000000009,-4.887827541033701
-0.0667000000000002,-4.887827541033701
-0.0677000000000001,-4.887827541033701
-0.0687000000000002,-4.887827541033701
-0.0697000000000001,-4.887827541033701
-0.07070000000000021,-4.887827541033701
-0.0717000000000001,-4.887827541033701
-0.07270000000000021,-4.887827541033701
-0.0737000000000001,-4.887827541033701
-0.07470000000000021,-4.887827541033701
-0.0757000000000001,-4.9302688800296535
-0.07670000000000021,-4.9302688800296535
-0.0777000000000001,-4.887827541033701
-0.07870000000000021,-4.9302688800296535
-0.0797000000000001,-4.887827541033701
-0.08070000000000022,-4.887827541033701
-0.0817000000000001,-4.887827541033701
-0.08270000000000022,-4.887827541033701
-0.08370000000000011,-4.887827541033701
-0.08470000000000022,-4.887827541033701
-0.08570000000000011,-4.9302688800296535
-0.08670000000000022,-4.9302688800296535
-0.08770000000000011,-4.9302688800296535
-0.08870000000000022,-4.887827541033701
-0.08970000000000011,-4.887827541033701
-0.09070000000000022,-4.887827541033701
-0.09170000000000011,-4.9302688800296535
-0.09270000000000023,-4.887827541033701
-0.09370000000000012,-4.887827541033701
-0.09470000000000023,-4.887827541033701
-0.09570000000000012,-4.843971490737885
-0.09670000000000023,-4.887827541033701
-0.09770000000000012,-4.887827541033701
-0.09870000000000023,-4.887827541033701
-0.09970000000000012,-4.887827541033701
-0.10070000000000023,-4.887827541033701
-0.10170000000000012,-4.887827541033701
-0.10270000000000024,-4.887827541033701
-0.10370000000000013,-4.887827541033701
-0.10470000000000024,-4.887827541033701
-0.10570000000000013,-4.9302688800296535
-0.10670000000000024,-4.9302688800296535
-0.10770000000000013,-4.887827541033701
-0.10870000000000024,-4.887827541033701
-0.10970000000000013,-4.9302688800296535
-0.11070000000000024,-4.887827541033701
-0.11170000000000013,-4.887827541033701
-0.11270000000000002,-4.887827541033701
-0.11370000000000013,-4.887827541033701
-0.11470000000000002,-4.843971490737885
-0.11570000000000014,-4.887827541033701
-0.11670000000000003,-4.887827541033701
-0.11770000000000014,-4.887827541033701
-0.11870000000000003,-4.9302688800296535
-0.11970000000000014,-4.887827541033701
-0.12070000000000003,-4.887827541033701
-0.12170000000000014,-4.887827541033701
-0.12270000000000003,-4.843971490737885
-0.12370000000000014,-4.843971490737885
-0.12470000000000003,-4.843971490737885
-0.12570000000000014,-4.843971490737885
-0.12670000000000003,-4.887827541033701
-0.12770000000000015,-4.843971490737885
-0.12870000000000004,-4.843971490737885
-0.12970000000000015,-4.843971490737885
-0.13070000000000004,-4.843971490737885
-0.13170000000000015,-4.843971490737885
-0.13270000000000004,-4.843971490737885
-0.13370000000000015,-4.843971490737885
-0.13470000000000004,-4.843971490737885
-0.13570000000000015,-4.843971490737885
-0.13670000000000004,-4.843971490737885
-0.13770000000000016,-4.843971490737885
-0.13870000000000005,-4.843971490737885
-0.13970000000000016,-4.843971490737885
-0.14070000000000005,-4.800115440442069
-0.14170000000000016,-4.800115440442069
-0.14270000000000005,-4.800115440442069
-0.14370000000000016,-4.800115440442069
-0.14470000000000005,-4.800115440442069
-0.14570000000000016,-4.800115440442069
-0.14670000000000005,-4.800115440442069
-0.14770000000000016,-4.800115440442069
-0.14870000000000005,-4.800115440442069
-0.14970000000000017,-4.800115440442069
-0.15070000000000006,-4.800115440442069
-0.15170000000000017,-4.756259390146253
-0.15270000000000006,-4.756259390146253
-0.15370000000000017,-4.756259390146253
-0.15470000000000006,-4.756259390146253
-0.15570000000000017,-4.756259390146253
-0.15670000000000006,-4.756259390146253
-0.15770000000000017,-4.756259390146253
-0.15870000000000006,-4.756259390146253
-0.15970000000000018,-4.756259390146253
-0.16070000000000007,-4.756259390146253
-0.16170000000000018,-4.756259390146253
-0.16270000000000007,-4.712403339850438
-0.16370000000000018,-4.756259390146253
-0.16470000000000007,-4.756259390146253
-0.16570000000000018,-4.756259390146253
-0.16670000000000007,-4.756259390146253
-0.16770000000000018,-4.756259390146253
-0.16870000000000007,-4.756259390146253
-0.16970000000000018,-4.756259390146253
-0.17070000000000007,-4.712403339850438
-0.17170000000000019,-4.712403339850438
-0.17270000000000008,-4.712403339850438
-0.1737000000000002,-4.712403339850438
-0.17470000000000008,-4.712403339850438
-0.1757000000000002,-4.712403339850438
-0.17670000000000008,-4.712403339850438
-0.1777000000000002,-4.668547289554621
-0.17870000000000008,-4.712403339850438
-0.1797000000000002,-4.712403339850438
-0.18070000000000008,-4.668547289554621
-0.1817000000000002,-4.712403339850438
-0.18270000000000008,-4.712403339850438
-0.1837000000000002,-4.668547289554621
-0.1847000000000001,-4.668547289554621
-0.1857000000000002,-4.668547289554621
-0.1867000000000001,-4.668547289554621
-0.1877000000000002,-4.712403339850438
-0.1887000000000001,-4.712403339850438
-0.1897000000000002,-4.712403339850438
-0.1907000000000001,-4.712403339850438
-0.1917000000000001,-4.712403339850438
-0.19269999999999998,-4.712403339850438
-0.1937000000000001,-4.712403339850438
-0.19469999999999998,-4.756259390146253
-0.1957000000000001,-4.756259390146253
-0.19669999999999999,-4.756259390146253
-0.1977000000000001,-4.756259390146253
-0.1987,-4.800115440442069
-0.1997000000000001,-4.800115440442069
-0.2007,-4.800115440442069
-0.2017000000000001,-4.756259390146253
-0.2027,-4.756259390146253
-0.2037000000000001,-4.756259390146253
-0.2047,-4.756259390146253
-0.2057000000000001,-4.756259390146253
-0.2067,-4.800115440442069
-0.2077000000000001,-4.800115440442069
-0.2087,-4.800115440442069
-0.2097000000000001,-4.800115440442069
-0.2107,-4.756259390146253
-0.2117000000000001,-4.756259390146253
-0.2127,-4.800115440442069
-0.2137000000000001,-4.800115440442069
-0.2147,-4.800115440442069
-0.2157000000000001,-4.843971490737885
-0.2167,-4.800115440442069
-0.21770000000000012,-4.800115440442069
-0.2187,-4.800115440442069
-0.21970000000000012,-4.800115440442069
-0.2207,-4.800115440442069
-0.22170000000000012,-4.843971490737885
-0.2227,-4.800115440442069
-0.22370000000000012,-4.800115440442069
-0.2247,-4.843971490737885
-0.22570000000000012,-4.843971490737885
-0.2267,-4.843971490737885
-0.22770000000000012,-4.887827541033701
-0.22870000000000001,-4.843971490737885
-0.22970000000000013,-4.843971490737885
-0.23070000000000002,-4.843971490737885
-0.23170000000000013,-4.843971490737885
-0.23270000000000002,-4.843971490737885
-0.23370000000000013,-4.887827541033701
-0.23470000000000002,-4.887827541033701
-0.23570000000000013,-4.887827541033701
-0.23670000000000002,-4.887827541033701
-0.2376999999999999,-4.887827541033701
-0.23870000000000002,-4.9302688800296535
-0.2396999999999999,-4.9302688800296535
-0.24070000000000003,-4.9302688800296535
-0.24169999999999991,-4.9302688800296535
-0.24270000000000003,-4.9302688800296535
-0.24369999999999992,-4.9302688800296535
-0.24470000000000003,-4.9302688800296535
-0.24569999999999992,-4.974124930325469
-0.24670000000000003,-4.974124930325469
-0.24769999999999992,-4.974124930325469
-0.24870000000000003,-5.017980980621284
-0.24969999999999992,-5.017980980621284
-0.25070000000000003,-4.974124930325469
-0.2516999999999999,-5.017980980621284
-0.25270000000000004,-5.017980980621284
-0.2536999999999999,-5.0618370309171015
-0.25470000000000004,-5.105693081212917
-0.2556999999999999,-5.105693081212917
-0.25670000000000004,-5.0618370309171015
-0.25769999999999993,-5.105693081212917
-0.25870000000000004,-5.105693081212917
-0.25969999999999993,-5.149549131508733
-0.26070000000000004,-5.149549131508733
-0.26169999999999993,-5.149549131508733
-0.26270000000000004,-5.149549131508733
-0.26369999999999993,-5.149549131508733
-0.26470000000000005,-5.191990470504685
-0.26569999999999994,-5.235846520800501
-0.26670000000000005,-5.235846520800501
-0.26769999999999994,-5.279702571096316
-0.26870000000000005,-5.235846520800501
-0.26969999999999994,-5.279702571096316
-0.27070000000000005,-5.279702571096316
-0.27169999999999994,-5.279702571096316
-0.27270000000000005,-5.323558621392133
-0.27369999999999994,-5.323558621392133
-0.27470000000000006,-5.323558621392133
-0.27569999999999995,-5.367414671687949
-0.27670000000000006,-5.411270721983764
-0.27769999999999995,-5.453712060979717
-0.27870000000000006,-5.497568111275533
-0.27969999999999995,-5.497568111275533
-0.28070000000000006,-5.497568111275533
-0.28169999999999995,-5.497568111275533
-0.28270000000000006,-5.497568111275533
-0.28369999999999995,-5.497568111275533
-0.28470000000000006,-5.5414241615713475
-0.28569999999999995,-5.585280211867165
-0.28670000000000007,-5.585280211867165
-0.28769999999999996,-5.629136262162981
-0.28870000000000007,-5.629136262162981
-0.28969999999999996,-5.672992312458796
-0.29070000000000007,-5.672992312458796
-0.29169999999999996,-5.715433651454749
-0.29270000000000007,-5.759289701750564
-0.29369999999999996,-5.759289701750564
-0.2947000000000001,-5.759289701750564
-0.29569999999999996,-5.80314575204638
-0.2967000000000001,-5.847001802342197
-0.29769999999999996,-5.890857852638012
-0.2987000000000001,-5.890857852638012
-0.29969999999999997,-5.9347139029338285
-0.3007000000000001,-5.9347139029338285
-0.30169999999999997,-5.9347139029338285
-0.3027000000000001,-5.977155241929781
-0.30369999999999997,-6.021011292225596
-0.3047000000000001,-6.064867342521412
-0.30569999999999997,-6.108723392817228
-0.3067000000000001,-6.152579443113044
-0.3077,-6.152579443113044
-0.3087000000000001,-6.196435493408861
-0.3097,-6.238876832404812
-0.3107000000000001,-6.282732882700628
-0.3117,-6.282732882700628
-0.3127000000000001,-6.326588932996443
-0.3137,-6.37044498329226
-0.3147000000000001,-6.414301033588076
-0.3157,-6.458157083883892
-0.3167000000000001,-6.500598422879844
-0.3177,-6.500598422879844
-0.3187000000000001,-6.588310523471475
-0.3197,-6.588310523471475
-0.3207000000000001,-6.6760226240631075
-0.3217,-6.719878674358924
-0.3227000000000001,-6.762320013354876
-0.3237,-6.806176063650692
-0.3247000000000001,-6.850032113946507
-0.3257,-6.893888164242324
-0.3267000000000001,-6.93774421453814
-0.3277,-6.93774421453814
-0.3287000000000001,-6.981600264833956
-0.3297,-7.067897654125724
-0.3307000000000001,-7.155609754717355
-0.3317,-7.199465805013171
-0.3327000000000001,-7.243321855308987
-0.3337,-7.28576319430494
-0.3347000000000001,-7.329619244600755
-0.3357,-7.4173313451923875
-0.3367000000000001,-7.50504344578402
-0.3377,-7.5474847847799715
-0.3387000000000001,-7.5474847847799715
-0.3397,-7.591340835075788
-0.3407000000000001,-7.679052935667419
-0.3417,-7.722908985963235
-0.3427000000000001,-7.7653503249591855
-0.3437,-7.809206375255003
-0.3447000000000001,-7.896918475846635
-0.3457,-7.940774526142452
-0.3467000000000001,-7.984630576438266
-0.3477,-8.070927965730034
-0.3487000000000001,-8.070927965730034
-0.3497,-8.11478401602585
-0.3507000000000001,-8.11478401602585
-0.3517,-8.11478401602585
-0.3527000000000001,-8.202496116617484
-0.3537,-8.376505606500881
-0.3547000000000001,-8.508073757388331
-0.3557,-8.68208324727173
-0.35670000000000013,-8.769795347863363
-0.3577,-8.85609273715513
-0.35870000000000013,-8.943804837746763
-0.3597,-9.031516938338395
-0.36070000000000013,-9.161670377925978
-0.3617,-9.24938247851761
-0.3626999999999999,-9.335679867809377
-0.3637,-9.423391968401008
-0.3646999999999999,-9.467248018696827
-0.3657,-9.55496011928846
-0.3666999999999999,-9.641257508580225
-0.3677,-9.685113558876042
-0.3686999999999999,-9.81668170976349
-0.36970000000000003,-9.946835149351072
-0.3706999999999999,-9.99069119964689
-0.37170000000000003,-10.120844639234473
-0.3726999999999999,-10.164700689530287
-0.37370000000000003,-10.296268840417738
-0.3746999999999999,-10.382566229709504
-0.37570000000000003,-10.514134380596953
-0.3766999999999999,-10.601846481188586
-0.37770000000000004,-10.731999920776168
-0.3786999999999999,-10.819712021367803
-0.37970000000000004,-10.993721511251199
-0.3806999999999999,-11.081433611842833
-0.38170000000000004,-11.211587051430415
-0.38269999999999993,-11.299299152022046
-0.38370000000000004,-11.42945259160963
-0.38469999999999993,-11.56102074249708
-0.38570000000000004,-11.691174182084664
-0.38669999999999993,-11.778886282676295
-0.38770000000000004,-11.909039722263879
-0.38869999999999993,-12.040607873151327
-0.38970000000000005,-12.170761312738911
-0.39069999999999994,-12.302329463626359
-0.39170000000000005,-12.432482903213943
-0.39269999999999994,-12.56405105410139
-0.39370000000000005,-12.694204493688973
-0.39469999999999994,-12.825772644576423
-0.39570000000000005,-12.99978213445982
-0.39669999999999994,-13.13135028534727
-0.39770000000000005,-13.261503724934855
-0.39869999999999994,-13.3930718758223
-0.39970000000000006,-13.523225315409885
-0.40069999999999995,-13.654793466297335
-0.40170000000000006,-13.784946905884919
-0.40269999999999995,-13.916515056772363
-0.40370000000000006,-14.090524546655764
-0.40469999999999995,-14.217848563643619
-0.40570000000000006,-14.401761032626075
-0.40669999999999995,-14.529085049613924
-0.40770000000000006,-14.69885040559773
-0.40869999999999995,-14.868615761581536
-0.40970000000000006,-15.01008689156804
-0.41069999999999995,-15.179852247551842
-0.41170000000000007,-15.307176264539699
-0.41269999999999996,-15.533530072518102
-0.41370000000000007,-15.70329542850191
-0.41469999999999996,-15.87306078448571
-0.41570000000000007,-15.972090575476265
-0.41669999999999996,-16.141855931460068
-0.41770000000000007,-16.311621287443874
-0.41869999999999996,-16.495533756426326
-0.4197000000000001,-16.665299112410132
-0.42069999999999996,-16.792623129397985
-0.4217000000000001,-16.962388485381787
-0.42269999999999996,-17.103859615368293
-0.4237000000000001,-17.231183632356142
-0.42469999999999997,-17.40094898833995
-0.4257000000000001,-17.584861457322408
-0.42669999999999997,-17.75462681330621
-0.4277000000000001,-17.966833508285966
-0.42869999999999997,-18.23562865526032
-0.4297000000000001,-18.362952672248177
-0.43069999999999997,-18.49027668923603
-0.4317000000000001,-18.674189158218486
-0.4327,-18.88639585319824
-0.4337000000000001,-19.056161209182044
-0.4347,-19.197632339168546
-0.4357000000000001,-19.367397695152352
-0.4367,-19.579604390132108
-0.4377000000000001,-19.805958198110513
-0.4387,-19.97572355409432
-0.4397000000000001,-20.159636023076775
-0.4407,-20.329401379060574
-0.4417000000000001,-20.584049413036283
-0.4427,-20.76796188201874
-0.4437000000000001,-20.980168576998494
-0.4447,-21.107492593986347
-0.4457000000000001,-21.333846401964752
-0.4467,-21.58849443594046
-0.4477000000000001,-21.772406904922917
-0.4487,-21.98461359990267
-0.4497000000000001,-22.196820294882425
-0.4507,-22.38073276386488
-0.4517000000000001,-22.63538079784059
-0.4527,-22.904175944814945
-0.4537000000000001,-23.073941300798747
-0.4547,-23.300295108777156
-0.4557000000000001,-23.51250180375691
-0.4567,-23.767149837732617
-0.4577000000000001,-24.035944984706973
-0.4587,-24.20571034069078
-0.4597000000000001,-24.389622809673234
-0.4607,-24.559388165657033
-0.4617000000000001,-24.771594860636792
-0.4627,-25.0828313466071
-0.4637000000000001,-25.295038041586857
-0.4647,-25.478950510569312
-0.4657000000000001,-25.691157205549064
-0.4667,-25.91751101352747
-0.4677000000000001,-26.21460038649913
-0.4687,-26.440954194477534
-0.4697000000000001,-26.61071955046134
-0.4707,-26.86536758443705
-0.4717000000000001,-27.091721392415455
-0.4727,-27.34636942639116
-0.4737000000000001,-27.615164573365515
-0.4747,-27.827371268345274
-0.4757000000000001,-28.09616641531963
-0.4767,-28.308373110299385
-0.4777000000000001,-28.53472691827779
-0.4787,-28.831816291249446
-0.4797000000000001,-29.058170099227848
-0.4807,-29.22793545521166
-0.48170000000000013,-29.482583489187363
-0.4827,-29.751378636161718
-0.48370000000000013,-30.00602667013743
-0.4847,-30.232380478115836
-0.48570000000000013,-30.529469851087494
-0.4867,-30.71338232006995
-0.4876999999999999,-30.925589015049702
-0.4887,-31.23682550102001
-0.4896999999999999,-31.533914873991666
-0.4907,-31.84515135996197
-0.4916999999999999,-32.09979939393769
-0.4927,-32.368594540912035
-0.4936999999999999,-32.66568391388369
-0.49470000000000003,-33.01936173884996
-0.4956999999999999,-33.330598224820264
-0.49670000000000003,-33.58524625879597
-0.4976999999999999,-33.89648274476628
-0.49870000000000003,-34.236013456733886
-0.4996999999999999,-34.5472499427042
-0.5007,-34.85848642867451
-0.5016999999999999,-35.15557580164616
-0.5027,-35.50925362661242
-0.5036999999999999,-35.763901660588125
-0.5047,-36.07513814655844
-0.5056999999999999,-36.4288159715247
-0.5067,-36.725905344496354
-0.5076999999999999,-37.07958316946261
-0.5087,-37.376672542434264
-0.5096999999999999,-37.687909028404576
-0.5107,-37.99914551437489
