July 12, 2024   03:15:33
Linear Sweep Voltammetry
File: c:/users/guazh/data/20240709_batch67/2024-07-10-exp17\post-regen1-2024-07-12t03_12_22-lsvinphos\post-regen1_lsv_50mvs_efin_-2300mv.bin
Data Source:  Experiment
Instrument Model:  CHI760E
Header: LSV ran at 50 mVs with Efin at -2300mV
Note: 

Init E (V) = -0.6
Final E (V) = -2.3
Scan Rate (V/s) = 0.05
Sample Interval (V) = 0.001
Quiet Time (sec) = 2
Sensitivity (A/V) = 1e-4
Comp R (ohm) = 8.9

Results:

Channel 1:
Ep = -1.979V
ip = 9.288e-4A
Ah = 1.196e-3C

Potential/V, Current/A

-0.600, 2.299e-6
-0.601, 2.368e-6
-0.602, 2.405e-6
-0.603, 2.436e-6
-0.604, 2.465e-6
-0.605, 2.495e-6
-0.606, 2.523e-6
-0.607, 2.550e-6
-0.608, 2.576e-6
-0.609, 2.604e-6
-0.610, 2.633e-6
-0.611, 2.661e-6
-0.612, 2.686e-6
-0.613, 2.712e-6
-0.614, 2.739e-6
-0.615, 2.769e-6
-0.616, 2.797e-6
-0.617, 2.823e-6
-0.618, 2.849e-6
-0.619, 2.877e-6
-0.620, 2.907e-6
-0.621, 2.936e-6
-0.622, 2.962e-6
-0.623, 2.988e-6
-0.624, 3.017e-6
-0.625, 3.048e-6
-0.626, 3.076e-6
-0.627, 3.104e-6
-0.628, 3.133e-6
-0.629, 3.163e-6
-0.630, 3.195e-6
-0.631, 3.224e-6
-0.632, 3.251e-6
-0.633, 3.279e-6
-0.634, 3.308e-6
-0.635, 3.341e-6
-0.636, 3.374e-6
-0.637, 3.402e-6
-0.638, 3.431e-6
-0.639, 3.463e-6
-0.640, 3.496e-6
-0.641, 3.528e-6
-0.642, 3.556e-6
-0.643, 3.587e-6
-0.644, 3.619e-6
-0.645, 3.654e-6
-0.646, 3.686e-6
-0.647, 3.715e-6
-0.648, 3.747e-6
-0.649, 3.781e-6
-0.650, 3.815e-6
-0.651, 3.850e-6
-0.652, 3.881e-6
-0.653, 3.914e-6
-0.654, 3.946e-6
-0.655, 3.980e-6
-0.656, 4.016e-6
-0.657, 4.047e-6
-0.658, 4.078e-6
-0.659, 4.112e-6
-0.660, 4.148e-6
-0.661, 4.182e-6
-0.662, 4.214e-6
-0.663, 4.245e-6
-0.664, 4.280e-6
-0.665, 4.318e-6
-0.666, 4.354e-6
-0.667, 4.386e-6
-0.668, 4.421e-6
-0.669, 4.457e-6
-0.670, 4.494e-6
-0.671, 4.532e-6
-0.672, 4.565e-6
-0.673, 4.600e-6
-0.674, 4.636e-6
-0.675, 4.673e-6
-0.676, 4.710e-6
-0.677, 4.744e-6
-0.678, 4.780e-6
-0.679, 4.816e-6
-0.680, 4.855e-6
-0.681, 4.892e-6
-0.682, 4.925e-6
-0.683, 4.960e-6
-0.684, 4.999e-6
-0.685, 5.038e-6
-0.686, 5.076e-6
-0.687, 5.110e-6
-0.688, 5.145e-6
-0.689, 5.184e-6
-0.690, 5.221e-6
-0.691, 5.260e-6
-0.692, 5.295e-6
-0.693, 5.331e-6
-0.694, 5.369e-6
-0.695, 5.407e-6
-0.696, 5.444e-6
-0.697, 5.480e-6
-0.698, 5.516e-6
-0.699, 5.554e-6
-0.700, 5.594e-6
-0.701, 5.630e-6
-0.702, 5.665e-6
-0.703, 5.700e-6
-0.704, 5.738e-6
-0.705, 5.779e-6
-0.706, 5.815e-6
-0.707, 5.851e-6
-0.708, 5.885e-6
-0.709, 5.918e-6
-0.710, 5.956e-6
-0.711, 5.992e-6
-0.712, 6.027e-6
-0.713, 6.063e-6
-0.714, 6.099e-6
-0.715, 6.137e-6
-0.716, 6.172e-6
-0.717, 6.205e-6
-0.718, 6.237e-6
-0.719, 6.272e-6
-0.720, 6.310e-6
-0.721, 6.345e-6
-0.722, 6.378e-6
-0.723, 6.412e-6
-0.724, 6.447e-6
-0.725, 6.482e-6
-0.726, 6.516e-6
-0.727, 6.549e-6
-0.728, 6.582e-6
-0.729, 6.616e-6
-0.730, 6.652e-6
-0.731, 6.685e-6
-0.732, 6.715e-6
-0.733, 6.746e-6
-0.734, 6.780e-6
-0.735, 6.813e-6
-0.736, 6.847e-6
-0.737, 6.875e-6
-0.738, 6.905e-6
-0.739, 6.936e-6
-0.740, 6.969e-6
-0.741, 6.998e-6
-0.742, 7.027e-6
-0.743, 7.056e-6
-0.744, 7.086e-6
-0.745, 7.119e-6
-0.746, 7.146e-6
-0.747, 7.173e-6
-0.748, 7.200e-6
-0.749, 7.228e-6
-0.750, 7.257e-6
-0.751, 7.284e-6
-0.752, 7.308e-6
-0.753, 7.334e-6
-0.754, 7.359e-6
-0.755, 7.387e-6
-0.756, 7.413e-6
-0.757, 7.435e-6
-0.758, 7.459e-6
-0.759, 7.484e-6
-0.760, 7.510e-6
-0.761, 7.534e-6
-0.762, 7.554e-6
-0.763, 7.577e-6
-0.764, 7.600e-6
-0.765, 7.623e-6
-0.766, 7.646e-6
-0.767, 7.664e-6
-0.768, 7.686e-6
-0.769, 7.709e-6
-0.770, 7.730e-6
-0.771, 7.750e-6
-0.772, 7.767e-6
-0.773, 7.784e-6
-0.774, 7.802e-6
-0.775, 7.823e-6
-0.776, 7.842e-6
-0.777, 7.858e-6
-0.778, 7.873e-6
-0.779, 7.889e-6
-0.780, 7.908e-6
-0.781, 7.924e-6
-0.782, 7.938e-6
-0.783, 7.950e-6
-0.784, 7.967e-6
-0.785, 7.983e-6
-0.786, 7.997e-6
-0.787, 8.008e-6
-0.788, 8.020e-6
-0.789, 8.031e-6
-0.790, 8.047e-6
-0.791, 8.058e-6
-0.792, 8.068e-6
-0.793, 8.078e-6
-0.794, 8.090e-6
-0.795, 8.102e-6
-0.796, 8.112e-6
-0.797, 8.120e-6
-0.798, 8.128e-6
-0.799, 8.137e-6
-0.800, 8.149e-6
-0.801, 8.157e-6
-0.802, 8.163e-6
-0.803, 8.170e-6
-0.804, 8.177e-6
-0.805, 8.188e-6
-0.806, 8.195e-6
-0.807, 8.200e-6
-0.808, 8.204e-6
-0.809, 8.212e-6
-0.810, 8.220e-6
-0.811, 8.226e-6
-0.812, 8.229e-6
-0.813, 8.233e-6
-0.814, 8.237e-6
-0.815, 8.243e-6
-0.816, 8.248e-6
-0.817, 8.249e-6
-0.818, 8.251e-6
-0.819, 8.258e-6
-0.820, 8.265e-6
-0.821, 8.266e-6
-0.822, 8.266e-6
-0.823, 8.267e-6
-0.824, 8.269e-6
-0.825, 8.274e-6
-0.826, 8.275e-6
-0.827, 8.273e-6
-0.828, 8.272e-6
-0.829, 8.274e-6
-0.830, 8.277e-6
-0.831, 8.277e-6
-0.832, 8.276e-6
-0.833, 8.275e-6
-0.834, 8.275e-6
-0.835, 8.278e-6
-0.836, 8.277e-6
-0.837, 8.273e-6
-0.838, 8.272e-6
-0.839, 8.270e-6
-0.840, 8.271e-6
-0.841, 8.272e-6
-0.842, 8.268e-6
-0.843, 8.265e-6
-0.844, 8.263e-6
-0.845, 8.265e-6
-0.846, 8.262e-6
-0.847, 8.259e-6
-0.848, 8.256e-6
-0.849, 8.255e-6
-0.850, 8.253e-6
-0.851, 8.251e-6
-0.852, 8.248e-6
-0.853, 8.242e-6
-0.854, 8.240e-6
-0.855, 8.239e-6
-0.856, 8.236e-6
-0.857, 8.233e-6
-0.858, 8.229e-6
-0.859, 8.226e-6
-0.860, 8.225e-6
-0.861, 8.221e-6
-0.862, 8.216e-6
-0.863, 8.211e-6
-0.864, 8.209e-6
-0.865, 8.209e-6
-0.866, 8.205e-6
-0.867, 8.199e-6
-0.868, 8.193e-6
-0.869, 8.191e-6
-0.870, 8.191e-6
-0.871, 8.188e-6
-0.872, 8.182e-6
-0.873, 8.177e-6
-0.874, 8.173e-6
-0.875, 8.172e-6
-0.876, 8.167e-6
-0.877, 8.162e-6
-0.878, 8.158e-6
-0.879, 8.154e-6
-0.880, 8.153e-6
-0.881, 8.150e-6
-0.882, 8.144e-6
-0.883, 8.141e-6
-0.884, 8.138e-6
-0.885, 8.136e-6
-0.886, 8.133e-6
-0.887, 8.127e-6
-0.888, 8.122e-6
-0.889, 8.120e-6
-0.890, 8.120e-6
-0.891, 8.114e-6
-0.892, 8.109e-6
-0.893, 8.105e-6
-0.894, 8.102e-6
-0.895, 8.102e-6
-0.896, 8.099e-6
-0.897, 8.093e-6
-0.898, 8.090e-6
-0.899, 8.087e-6
-0.900, 8.086e-6
-0.901, 8.081e-6
-0.902, 8.077e-6
-0.903, 8.074e-6
-0.904, 8.071e-6
-0.905, 8.070e-6
-0.906, 8.067e-6
-0.907, 8.062e-6
-0.908, 8.058e-6
-0.909, 8.056e-6
-0.910, 8.056e-6
-0.911, 8.053e-6
-0.912, 8.048e-6
-0.913, 8.045e-6
-0.914, 8.042e-6
-0.915, 8.041e-6
-0.916, 8.040e-6
-0.917, 8.034e-6
-0.918, 8.032e-6
-0.919, 8.029e-6
-0.920, 8.029e-6
-0.921, 8.027e-6
-0.922, 8.024e-6
-0.923, 8.021e-6
-0.924, 8.019e-6
-0.925, 8.020e-6
-0.926, 8.018e-6
-0.927, 8.012e-6
-0.928, 8.012e-6
-0.929, 8.010e-6
-0.930, 8.011e-6
-0.931, 8.008e-6
-0.932, 8.004e-6
-0.933, 8.000e-6
-0.934, 8.000e-6
-0.935, 8.001e-6
-0.936, 7.999e-6
-0.937, 7.995e-6
-0.938, 7.992e-6
-0.939, 7.992e-6
-0.940, 7.993e-6
-0.941, 7.991e-6
-0.942, 7.989e-6
-0.943, 7.986e-6
-0.944, 7.985e-6
-0.945, 7.987e-6
-0.946, 7.984e-6
-0.947, 7.983e-6
-0.948, 7.983e-6
-0.949, 7.980e-6
-0.950, 7.983e-6
-0.951, 7.981e-6
-0.952, 7.977e-6
-0.953, 7.976e-6
-0.954, 7.976e-6
-0.955, 7.979e-6
-0.956, 7.977e-6
-0.957, 7.974e-6
-0.958, 7.973e-6
-0.959, 7.973e-6
-0.960, 7.975e-6
-0.961, 7.976e-6
-0.962, 7.971e-6
-0.963, 7.971e-6
-0.964, 7.972e-6
-0.965, 7.974e-6
-0.966, 7.974e-6
-0.967, 7.972e-6
-0.968, 7.972e-6
-0.969, 7.974e-6
-0.970, 7.974e-6
-0.971, 7.974e-6
-0.972, 7.972e-6
-0.973, 7.974e-6
-0.974, 7.974e-6
-0.975, 7.977e-6
-0.976, 7.977e-6
-0.977, 7.975e-6
-0.978, 7.975e-6
-0.979, 7.976e-6
-0.980, 7.978e-6
-0.981, 7.979e-6
-0.982, 7.979e-6
-0.983, 7.977e-6
-0.984, 7.980e-6
-0.985, 7.983e-6
-0.986, 7.983e-6
-0.987, 7.982e-6
-0.988, 7.982e-6
-0.989, 7.984e-6
-0.990, 7.987e-6
-0.991, 7.988e-6
-0.992, 7.987e-6
-0.993, 7.987e-6
-0.994, 7.990e-6
-0.995, 7.992e-6
-0.996, 7.994e-6
-0.997, 7.993e-6
-0.998, 7.994e-6
-0.999, 7.996e-6
-1.000, 8.000e-6
-1.001, 8.001e-6
-1.002, 7.999e-6
-1.003, 8.001e-6
-1.004, 8.003e-6
-1.005, 8.008e-6
-1.006, 8.009e-6
-1.007, 8.009e-6
-1.008, 8.010e-6
-1.009, 8.014e-6
-1.010, 8.017e-6
-1.011, 8.018e-6
-1.012, 8.019e-6
-1.013, 8.020e-6
-1.014, 8.023e-6
-1.015, 8.027e-6
-1.016, 8.028e-6
-1.017, 8.030e-6
-1.018, 8.030e-6
-1.019, 8.033e-6
-1.020, 8.037e-6
-1.021, 8.040e-6
-1.022, 8.041e-6
-1.023, 8.042e-6
-1.024, 8.046e-6
-1.025, 8.052e-6
-1.026, 8.054e-6
-1.027, 8.055e-6
-1.028, 8.055e-6
-1.029, 8.059e-6
-1.030, 8.064e-6
-1.031, 8.067e-6
-1.032, 8.067e-6
-1.033, 8.070e-6
-1.034, 8.072e-6
-1.035, 8.079e-6
-1.036, 8.079e-6
-1.037, 8.082e-6
-1.038, 8.084e-6
-1.039, 8.088e-6
-1.040, 8.094e-6
-1.041, 8.096e-6
-1.042, 8.097e-6
-1.043, 8.099e-6
-1.044, 8.104e-6
-1.045, 8.109e-6
-1.046, 8.112e-6
-1.047, 8.113e-6
-1.048, 8.116e-6
-1.049, 8.119e-6
-1.050, 8.125e-6
-1.051, 8.130e-6
-1.052, 8.130e-6
-1.053, 8.133e-6
-1.054, 8.138e-6
-1.055, 8.143e-6
-1.056, 8.146e-6
-1.057, 8.148e-6
-1.058, 8.151e-6
-1.059, 8.155e-6
-1.060, 8.162e-6
-1.061, 8.165e-6
-1.062, 8.167e-6
-1.063, 8.170e-6
-1.064, 8.175e-6
-1.065, 8.181e-6
-1.066, 8.186e-6
-1.067, 8.189e-6
-1.068, 8.192e-6
-1.069, 8.197e-6
-1.070, 8.203e-6
-1.071, 8.206e-6
-1.072, 8.210e-6
-1.073, 8.215e-6
-1.074, 8.220e-6
-1.075, 8.228e-6
-1.076, 8.232e-6
-1.077, 8.232e-6
-1.078, 8.235e-6
-1.079, 8.242e-6
-1.080, 8.249e-6
-1.081, 8.254e-6
-1.082, 8.256e-6
-1.083, 8.259e-6
-1.084, 8.266e-6
-1.085, 8.272e-6
-1.086, 8.276e-6
-1.087, 8.279e-6
-1.088, 8.284e-6
-1.089, 8.289e-6
-1.090, 8.296e-6
-1.091, 8.299e-6
-1.092, 8.304e-6
-1.093, 8.307e-6
-1.094, 8.313e-6
-1.095, 8.320e-6
-1.096, 8.324e-6
-1.097, 8.329e-6
-1.098, 8.330e-6
-1.099, 8.337e-6
-1.100, 8.344e-6
-1.101, 8.350e-6
-1.102, 8.353e-6
-1.103, 8.356e-6
-1.104, 8.362e-6
-1.105, 8.371e-6
-1.106, 8.375e-6
-1.107, 8.378e-6
-1.108, 8.382e-6
-1.109, 8.388e-6
-1.110, 8.396e-6
-1.111, 8.399e-6
-1.112, 8.403e-6
-1.113, 8.409e-6
-1.114, 8.414e-6
-1.115, 8.422e-6
-1.116, 8.427e-6
-1.117, 8.432e-6
-1.118, 8.436e-6
-1.119, 8.441e-6
-1.120, 8.450e-6
-1.121, 8.456e-6
-1.122, 8.458e-6
-1.123, 8.463e-6
-1.124, 8.470e-6
-1.125, 8.479e-6
-1.126, 8.485e-6
-1.127, 8.489e-6
-1.128, 8.492e-6
-1.129, 8.501e-6
-1.130, 8.508e-6
-1.131, 8.513e-6
-1.132, 8.518e-6
-1.133, 8.523e-6
-1.134, 8.529e-6
-1.135, 8.536e-6
-1.136, 8.542e-6
-1.137, 8.548e-6
-1.138, 8.553e-6
-1.139, 8.560e-6
-1.140, 8.567e-6
-1.141, 8.573e-6
-1.142, 8.577e-6
-1.143, 8.583e-6
-1.144, 8.588e-6
-1.145, 8.598e-6
-1.146, 8.604e-6
-1.147, 8.607e-6
-1.148, 8.611e-6
-1.149, 8.616e-6
-1.150, 8.626e-6
-1.151, 8.632e-6
-1.152, 8.637e-6
-1.153, 8.644e-6
-1.154, 8.649e-6
-1.155, 8.657e-6
-1.156, 8.664e-6
-1.157, 8.668e-6
-1.158, 8.675e-6
-1.159, 8.683e-6
-1.160, 8.692e-6
-1.161, 8.699e-6
-1.162, 8.702e-6
-1.163, 8.708e-6
-1.164, 8.716e-6
-1.165, 8.725e-6
-1.166, 8.733e-6
-1.167, 8.737e-6
-1.168, 8.744e-6
-1.169, 8.752e-6
-1.170, 8.760e-6
-1.171, 8.768e-6
-1.172, 8.774e-6
-1.173, 8.779e-6
-1.174, 8.788e-6
-1.175, 8.796e-6
-1.176, 8.803e-6
-1.177, 8.808e-6
-1.178, 8.818e-6
-1.179, 8.825e-6
-1.180, 8.834e-6
-1.181, 8.840e-6
-1.182, 8.846e-6
-1.183, 8.852e-6
-1.184, 8.861e-6
-1.185, 8.870e-6
-1.186, 8.878e-6
-1.187, 8.884e-6
-1.188, 8.889e-6
-1.189, 8.897e-6
-1.190, 8.907e-6
-1.191, 8.915e-6
-1.192, 8.922e-6
-1.193, 8.930e-6
-1.194, 8.936e-6
-1.195, 8.949e-6
-1.196, 8.958e-6
-1.197, 8.963e-6
-1.198, 8.971e-6
-1.199, 8.979e-6
-1.200, 8.990e-6
-1.201, 8.999e-6
-1.202, 9.005e-6
-1.203, 9.015e-6
-1.204, 9.023e-6
-1.205, 9.034e-6
-1.206, 9.043e-6
-1.207, 9.049e-6
-1.208, 9.058e-6
-1.209, 9.068e-6
-1.210, 9.081e-6
-1.211, 9.089e-6
-1.212, 9.096e-6
-1.213, 9.104e-6
-1.214, 9.114e-6
-1.215, 9.126e-6
-1.216, 9.137e-6
-1.217, 9.145e-6
-1.218, 9.153e-6
-1.219, 9.162e-6
-1.220, 9.176e-6
-1.221, 9.185e-6
-1.222, 9.196e-6
-1.223, 9.205e-6
-1.224, 9.215e-6
-1.225, 9.230e-6
-1.226, 9.240e-6
-1.227, 9.250e-6
-1.228, 9.259e-6
-1.229, 9.274e-6
-1.230, 9.288e-6
-1.231, 9.298e-6
-1.232, 9.307e-6
-1.233, 9.318e-6
-1.234, 9.329e-6
-1.235, 9.344e-6
-1.236, 9.355e-6
-1.237, 9.364e-6
-1.238, 9.377e-6
-1.239, 9.389e-6
-1.240, 9.402e-6
-1.241, 9.413e-6
-1.242, 9.424e-6
-1.243, 9.435e-6
-1.244, 9.449e-6
-1.245, 9.465e-6
-1.246, 9.481e-6
-1.247, 9.491e-6
-1.248, 9.503e-6
-1.249, 9.518e-6
-1.250, 9.535e-6
-1.251, 9.549e-6
-1.252, 9.560e-6
-1.253, 9.572e-6
-1.254, 9.586e-6
-1.255, 9.604e-6
-1.256, 9.618e-6
-1.257, 9.632e-6
-1.258, 9.643e-6
-1.259, 9.658e-6
-1.260, 9.676e-6
-1.261, 9.689e-6
-1.262, 9.703e-6
-1.263, 9.718e-6
-1.264, 9.734e-6
-1.265, 9.753e-6
-1.266, 9.765e-6
-1.267, 9.782e-6
-1.268, 9.796e-6
-1.269, 9.812e-6
-1.270, 9.832e-6
-1.271, 9.847e-6
-1.272, 9.862e-6
-1.273, 9.877e-6
-1.274, 9.893e-6
-1.275, 9.913e-6
-1.276, 9.930e-6
-1.277, 9.945e-6
-1.278, 9.961e-6
-1.279, 9.979e-6
-1.280, 1.000e-5
-1.281, 1.002e-5
-1.282, 1.003e-5
-1.283, 1.005e-5
-1.284, 1.007e-5
-1.285, 1.009e-5
-1.286, 1.011e-5
-1.287, 1.012e-5
-1.288, 1.014e-5
-1.289, 1.016e-5
-1.290, 1.017e-5
-1.291, 1.019e-5
-1.292, 1.021e-5
-1.293, 1.023e-5
-1.294, 1.025e-5
-1.295, 1.027e-5
-1.296, 1.029e-5
-1.297, 1.030e-5
-1.298, 1.032e-5
-1.299, 1.034e-5
-1.300, 1.036e-5
-1.301, 1.038e-5
-1.302, 1.040e-5
-1.303, 1.042e-5
-1.304, 1.044e-5
-1.305, 1.047e-5
-1.306, 1.049e-5
-1.307, 1.050e-5
-1.308, 1.052e-5
-1.309, 1.055e-5
-1.310, 1.057e-5
-1.311, 1.059e-5
-1.312, 1.061e-5
-1.313, 1.063e-5
-1.314, 1.065e-5
-1.315, 1.068e-5
-1.316, 1.070e-5
-1.317, 1.072e-5
-1.318, 1.074e-5
-1.319, 1.076e-5
-1.320, 1.079e-5
-1.321, 1.081e-5
-1.322, 1.083e-5
-1.323, 1.085e-5
-1.324, 1.088e-5
-1.325, 1.090e-5
-1.326, 1.093e-5
-1.327, 1.094e-5
-1.328, 1.097e-5
-1.329, 1.099e-5
-1.330, 1.102e-5
-1.331, 1.104e-5
-1.332, 1.106e-5
-1.333, 1.108e-5
-1.334, 1.110e-5
-1.335, 1.113e-5
-1.336, 1.116e-5
-1.337, 1.118e-5
-1.338, 1.120e-5
-1.339, 1.123e-5
-1.340, 1.126e-5
-1.341, 1.128e-5
-1.342, 1.130e-5
-1.343, 1.133e-5
-1.344, 1.136e-5
-1.345, 1.139e-5
-1.346, 1.141e-5
-1.347, 1.144e-5
-1.348, 1.146e-5
-1.349, 1.149e-5
-1.350, 1.152e-5
-1.351, 1.154e-5
-1.352, 1.157e-5
-1.353, 1.159e-5
-1.354, 1.162e-5
-1.355, 1.165e-5
-1.356, 1.168e-5
-1.357, 1.171e-5
-1.358, 1.173e-5
-1.359, 1.176e-5
-1.360, 1.179e-5
-1.361, 1.182e-5
-1.362, 1.185e-5
-1.363, 1.188e-5
-1.364, 1.190e-5
-1.365, 1.193e-5
-1.366, 1.196e-5
-1.367, 1.199e-5
-1.368, 1.202e-5
-1.369, 1.204e-5
-1.370, 1.207e-5
-1.371, 1.209e-5
-1.372, 1.212e-5
-1.373, 1.214e-5
-1.374, 1.218e-5
-1.375, 1.222e-5
-1.376, 1.225e-5
-1.377, 1.227e-5
-1.378, 1.230e-5
-1.379, 1.233e-5
-1.380, 1.237e-5
-1.381, 1.240e-5
-1.382, 1.243e-5
-1.383, 1.246e-5
-1.384, 1.249e-5
-1.385, 1.252e-5
-1.386, 1.255e-5
-1.387, 1.258e-5
-1.388, 1.261e-5
-1.389, 1.264e-5
-1.390, 1.267e-5
-1.391, 1.270e-5
-1.392, 1.273e-5
-1.393, 1.276e-5
-1.394, 1.279e-5
-1.395, 1.283e-5
-1.396, 1.286e-5
-1.397, 1.289e-5
-1.398, 1.292e-5
-1.399, 1.295e-5
-1.400, 1.299e-5
-1.401, 1.302e-5
-1.402, 1.305e-5
-1.403, 1.308e-5
-1.404, 1.311e-5
-1.405, 1.314e-5
-1.406, 1.318e-5
-1.407, 1.320e-5
-1.408, 1.324e-5
-1.409, 1.327e-5
-1.410, 1.330e-5
-1.411, 1.334e-5
-1.412, 1.336e-5
-1.413, 1.340e-5
-1.414, 1.343e-5
-1.415, 1.346e-5
-1.416, 1.350e-5
-1.417, 1.353e-5
-1.418, 1.355e-5
-1.419, 1.359e-5
-1.420, 1.362e-5
-1.421, 1.366e-5
-1.422, 1.368e-5
-1.423, 1.371e-5
-1.424, 1.374e-5
-1.425, 1.378e-5
-1.426, 1.381e-5
-1.427, 1.384e-5
-1.428, 1.387e-5
-1.429, 1.390e-5
-1.430, 1.393e-5
-1.431, 1.396e-5
-1.432, 1.399e-5
-1.433, 1.402e-5
-1.434, 1.405e-5
-1.435, 1.409e-5
-1.436, 1.412e-5
-1.437, 1.415e-5
-1.438, 1.417e-5
-1.439, 1.420e-5
-1.440, 1.424e-5
-1.441, 1.427e-5
-1.442, 1.430e-5
-1.443, 1.433e-5
-1.444, 1.436e-5
-1.445, 1.439e-5
-1.446, 1.442e-5
-1.447, 1.445e-5
-1.448, 1.448e-5
-1.449, 1.451e-5
-1.450, 1.455e-5
-1.451, 1.458e-5
-1.452, 1.461e-5
-1.453, 1.464e-5
-1.454, 1.467e-5
-1.455, 1.470e-5
-1.456, 1.474e-5
-1.457, 1.476e-5
-1.458, 1.479e-5
-1.459, 1.482e-5
-1.460, 1.486e-5
-1.461, 1.489e-5
-1.462, 1.492e-5
-1.463, 1.495e-5
-1.464, 1.498e-5
-1.465, 1.501e-5
-1.466, 1.505e-5
-1.467, 1.508e-5
-1.468, 1.511e-5
-1.469, 1.514e-5
-1.470, 1.518e-5
-1.471, 1.521e-5
-1.472, 1.524e-5
-1.473, 1.527e-5
-1.474, 1.530e-5
-1.475, 1.534e-5
-1.476, 1.537e-5
-1.477, 1.540e-5
-1.478, 1.544e-5
-1.479, 1.547e-5
-1.480, 1.551e-5
-1.481, 1.555e-5
-1.482, 1.558e-5
-1.483, 1.561e-5
-1.484, 1.564e-5
-1.485, 1.569e-5
-1.486, 1.573e-5
-1.487, 1.576e-5
-1.488, 1.579e-5
-1.489, 1.583e-5
-1.490, 1.586e-5
-1.491, 1.591e-5
-1.492, 1.594e-5
-1.493, 1.598e-5
-1.494, 1.602e-5
-1.495, 1.606e-5
-1.496, 1.610e-5
-1.497, 1.614e-5
-1.498, 1.617e-5
-1.499, 1.622e-5
-1.500, 1.626e-5
-1.501, 1.630e-5
-1.502, 1.634e-5
-1.503, 1.638e-5
-1.504, 1.642e-5
-1.505, 1.647e-5
-1.506, 1.652e-5
-1.507, 1.656e-5
-1.508, 1.660e-5
-1.509, 1.664e-5
-1.510, 1.669e-5
-1.511, 1.673e-5
-1.512, 1.678e-5
-1.513, 1.682e-5
-1.514, 1.686e-5
-1.515, 1.692e-5
-1.516, 1.696e-5
-1.517, 1.701e-5
-1.518, 1.705e-5
-1.519, 1.710e-5
-1.520, 1.716e-5
-1.521, 1.721e-5
-1.522, 1.726e-5
-1.523, 1.730e-5
-1.524, 1.735e-5
-1.525, 1.741e-5
-1.526, 1.746e-5
-1.527, 1.751e-5
-1.528, 1.757e-5
-1.529, 1.762e-5
-1.530, 1.768e-5
-1.531, 1.774e-5
-1.532, 1.779e-5
-1.533, 1.784e-5
-1.534, 1.790e-5
-1.535, 1.796e-5
-1.536, 1.802e-5
-1.537, 1.807e-5
-1.538, 1.813e-5
-1.539, 1.819e-5
-1.540, 1.825e-5
-1.541, 1.831e-5
-1.542, 1.837e-5
-1.543, 1.843e-5
-1.544, 1.849e-5
-1.545, 1.856e-5
-1.546, 1.862e-5
-1.547, 1.868e-5
-1.548, 1.874e-5
-1.549, 1.881e-5
-1.550, 1.888e-5
-1.551, 1.894e-5
-1.552, 1.901e-5
-1.553, 1.907e-5
-1.554, 1.914e-5
-1.555, 1.921e-5
-1.556, 1.928e-5
-1.557, 1.934e-5
-1.558, 1.941e-5
-1.559, 1.948e-5
-1.560, 1.955e-5
-1.561, 1.963e-5
-1.562, 1.970e-5
-1.563, 1.976e-5
-1.564, 1.984e-5
-1.565, 1.991e-5
-1.566, 1.999e-5
-1.567, 2.005e-5
-1.568, 2.012e-5
-1.569, 2.019e-5
-1.570, 2.027e-5
-1.571, 2.035e-5
-1.572, 2.042e-5
-1.573, 2.049e-5
-1.574, 2.057e-5
-1.575, 2.065e-5
-1.576, 2.073e-5
-1.577, 2.080e-5
-1.578, 2.088e-5
-1.579, 2.095e-5
-1.580, 2.104e-5
-1.581, 2.112e-5
-1.582, 2.119e-5
-1.583, 2.126e-5
-1.584, 2.134e-5
-1.585, 2.143e-5
-1.586, 2.151e-5
-1.587, 2.159e-5
-1.588, 2.166e-5
-1.589, 2.174e-5
-1.590, 2.182e-5
-1.591, 2.190e-5
-1.592, 2.198e-5
-1.593, 2.205e-5
-1.594, 2.213e-5
-1.595, 2.222e-5
-1.596, 2.230e-5
-1.597, 2.238e-5
-1.598, 2.246e-5
-1.599, 2.253e-5
-1.600, 2.262e-5
-1.601, 2.271e-5
-1.602, 2.278e-5
-1.603, 2.286e-5
-1.604, 2.294e-5
-1.605, 2.302e-5
-1.606, 2.310e-5
-1.607, 2.318e-5
-1.608, 2.325e-5
-1.609, 2.333e-5
-1.610, 2.342e-5
-1.611, 2.350e-5
-1.612, 2.357e-5
-1.613, 2.364e-5
-1.614, 2.372e-5
-1.615, 2.381e-5
-1.616, 2.389e-5
-1.617, 2.396e-5
-1.618, 2.404e-5
-1.619, 2.412e-5
-1.620, 2.420e-5
-1.621, 2.427e-5
-1.622, 2.435e-5
-1.623, 2.441e-5
-1.624, 2.448e-5
-1.625, 2.457e-5
-1.626, 2.464e-5
-1.627, 2.471e-5
-1.628, 2.478e-5
-1.629, 2.484e-5
-1.630, 2.492e-5
-1.631, 2.500e-5
-1.632, 2.506e-5
-1.633, 2.512e-5
-1.634, 2.519e-5
-1.635, 2.527e-5
-1.636, 2.534e-5
-1.637, 2.540e-5
-1.638, 2.546e-5
-1.639, 2.553e-5
-1.640, 2.560e-5
-1.641, 2.566e-5
-1.642, 2.572e-5
-1.643, 2.577e-5
-1.644, 2.583e-5
-1.645, 2.590e-5
-1.646, 2.596e-5
-1.647, 2.601e-5
-1.648, 2.606e-5
-1.649, 2.612e-5
-1.650, 2.618e-5
-1.651, 2.624e-5
-1.652, 2.629e-5
-1.653, 2.633e-5
-1.654, 2.639e-5
-1.655, 2.644e-5
-1.656, 2.650e-5
-1.657, 2.654e-5
-1.658, 2.658e-5
-1.659, 2.663e-5
-1.660, 2.668e-5
-1.661, 2.673e-5
-1.662, 2.677e-5
-1.663, 2.681e-5
-1.664, 2.685e-5
-1.665, 2.690e-5
-1.666, 2.694e-5
-1.667, 2.698e-5
-1.668, 2.701e-5
-1.669, 2.705e-5
-1.670, 2.710e-5
-1.671, 2.714e-5
-1.672, 2.718e-5
-1.673, 2.720e-5
-1.674, 2.724e-5
-1.675, 2.729e-5
-1.676, 2.733e-5
-1.677, 2.736e-5
-1.678, 2.739e-5
-1.679, 2.742e-5
-1.680, 2.746e-5
-1.681, 2.750e-5
-1.682, 2.752e-5
-1.683, 2.755e-5
-1.684, 2.758e-5
-1.685, 2.762e-5
-1.686, 2.766e-5
-1.687, 2.769e-5
-1.688, 2.772e-5
-1.689, 2.775e-5
-1.690, 2.779e-5
-1.691, 2.782e-5
-1.692, 2.785e-5
-1.693, 2.787e-5
-1.694, 2.790e-5
-1.695, 2.794e-5
-1.696, 2.799e-5
-1.697, 2.802e-5
-1.698, 2.804e-5
-1.699, 2.808e-5
-1.700, 2.813e-5
-1.701, 2.817e-5
-1.702, 2.820e-5
-1.703, 2.823e-5
-1.704, 2.827e-5
-1.705, 2.832e-5
-1.706, 2.837e-5
-1.707, 2.841e-5
-1.708, 2.845e-5
-1.709, 2.849e-5
-1.710, 2.856e-5
-1.711, 2.861e-5
-1.712, 2.866e-5
-1.713, 2.870e-5
-1.714, 2.876e-5
-1.715, 2.883e-5
-1.716, 2.889e-5
-1.717, 2.895e-5
-1.718, 2.900e-5
-1.719, 2.907e-5
-1.720, 2.915e-5
-1.721, 2.923e-5
-1.722, 2.930e-5
-1.723, 2.937e-5
-1.724, 2.946e-5
-1.725, 2.955e-5
-1.726, 2.964e-5
-1.727, 2.973e-5
-1.728, 2.982e-5
-1.729, 2.992e-5
-1.730, 3.002e-5
-1.731, 3.014e-5
-1.732, 3.025e-5
-1.733, 3.035e-5
-1.734, 3.047e-5
-1.735, 3.060e-5
-1.736, 3.074e-5
-1.737, 3.088e-5
-1.738, 3.101e-5
-1.739, 3.115e-5
-1.740, 3.131e-5
-1.741, 3.147e-5
-1.742, 3.163e-5
-1.743, 3.179e-5
-1.744, 3.197e-5
-1.745, 3.216e-5
-1.746, 3.235e-5
-1.747, 3.254e-5
-1.748, 3.273e-5
-1.749, 3.294e-5
-1.750, 3.317e-5
-1.751, 3.340e-5
-1.752, 3.362e-5
-1.753, 3.385e-5
-1.754, 3.410e-5
-1.755, 3.437e-5
-1.756, 3.464e-5
-1.757, 3.491e-5
-1.758, 3.519e-5
-1.759, 3.547e-5
-1.760, 3.579e-5
-1.761, 3.611e-5
-1.762, 3.642e-5
-1.763, 3.675e-5
-1.764, 3.709e-5
-1.765, 3.746e-5
-1.766, 3.784e-5
-1.767, 3.821e-5
-1.768, 3.858e-5
-1.769, 3.899e-5
-1.770, 3.941e-5
-1.771, 3.985e-5
-1.772, 4.029e-5
-1.773, 4.073e-5
-1.774, 4.120e-5
-1.775, 4.169e-5
-1.776, 4.219e-5
-1.777, 4.270e-5
-1.778, 4.322e-5
-1.779, 4.375e-5
-1.780, 4.432e-5
-1.781, 4.491e-5
-1.782, 4.550e-5
-1.783, 4.609e-5
-1.784, 4.672e-5
-1.785, 4.738e-5
-1.786, 4.804e-5
-1.787, 4.872e-5
-1.788, 4.941e-5
-1.789, 5.013e-5
-1.790, 5.088e-5
-1.791, 5.166e-5
-1.792, 5.244e-5
-1.793, 5.324e-5
-1.794, 5.406e-5
-1.795, 5.493e-5
-1.796, 5.582e-5
-1.797, 5.672e-5
-1.798, 5.761e-5
-1.799, 5.855e-5
-1.800, 5.954e-5
-1.801, 6.056e-5
-1.802, 6.158e-5
-1.803, 6.261e-5
-1.804, 6.369e-5
-1.805, 6.481e-5
-1.806, 6.595e-5
-1.807, 6.711e-5
-1.808, 6.830e-5
-1.809, 6.952e-5
-1.810, 7.077e-5
-1.811, 7.208e-5
-1.812, 7.344e-5
-1.813, 7.480e-5
-1.814, 7.617e-5
-1.815, 7.758e-5
-1.816, 7.901e-5
-1.817, 8.050e-5
-1.818, 8.201e-5
-1.819, 8.356e-5
-1.820, 8.516e-5
-1.821, 8.679e-5
-1.822, 8.845e-5
-1.823, 9.013e-5
-1.824, 9.183e-5
-1.825, 9.361e-5
-1.826, 9.545e-5
-1.827, 9.732e-5
-1.828, 9.921e-5
-1.829, 1.011e-4
-1.830, 1.031e-4
-1.831, 1.052e-4
-1.832, 1.072e-4
-1.833, 1.093e-4
-1.834, 1.114e-4
-1.835, 1.137e-4
-1.836, 1.159e-4
-1.837, 1.182e-4
-1.838, 1.206e-4
-1.839, 1.230e-4
-1.840, 1.255e-4
-1.841, 1.280e-4
-1.842, 1.306e-4
-1.843, 1.332e-4
-1.844, 1.358e-4
-1.845, 1.385e-4
-1.846, 1.413e-4
-1.847, 1.440e-4
-1.848, 1.469e-4
-1.849, 1.497e-4
-1.850, 1.527e-4
-1.851, 1.557e-4
-1.852, 1.588e-4
-1.853, 1.619e-4
-1.854, 1.651e-4
-1.855, 1.684e-4
-1.856, 1.717e-4
-1.857, 1.752e-4
-1.858, 1.786e-4
-1.859, 1.820e-4
-1.860, 1.845e-4
-1.861, 1.874e-4
-1.862, 1.909e-4
-1.863, 1.943e-4
-1.864, 1.979e-4
-1.865, 2.016e-4
-1.866, 2.055e-4
-1.867, 2.094e-4
-1.868, 2.134e-4
-1.869, 2.174e-4
-1.870, 2.215e-4
-1.871, 2.257e-4
-1.872, 2.300e-4
-1.873, 2.340e-4
-1.874, 2.381e-4
-1.875, 2.425e-4
-1.876, 2.470e-4
-1.877, 2.516e-4
-1.878, 2.562e-4
-1.879, 2.608e-4
-1.880, 2.654e-4
-1.881, 2.702e-4
-1.882, 2.751e-4
-1.883, 2.799e-4
-1.884, 2.849e-4
-1.885, 2.901e-4
-1.886, 2.954e-4
-1.887, 3.005e-4
-1.888, 3.057e-4
-1.889, 3.109e-4
-1.890, 3.164e-4
-1.891, 3.219e-4
-1.892, 3.274e-4
-1.893, 3.329e-4
-1.894, 3.385e-4
-1.895, 3.441e-4
-1.896, 3.497e-4
-1.897, 3.555e-4
-1.898, 3.614e-4
-1.899, 3.674e-4
-1.900, 3.734e-4
-1.901, 3.794e-4
-1.902, 3.856e-4
-1.903, 3.918e-4
-1.904, 3.980e-4
-1.905, 4.043e-4
-1.906, 4.106e-4
-1.907, 4.170e-4
-1.908, 4.236e-4
-1.909, 4.303e-4
-1.910, 4.369e-4
-1.911, 4.435e-4
-1.912, 4.502e-4
-1.913, 4.569e-4
-1.914, 4.640e-4
-1.915, 4.710e-4
-1.916, 4.779e-4
-1.917, 4.848e-4
-1.918, 4.919e-4
-1.919, 4.991e-4
-1.920, 5.064e-4
-1.921, 5.138e-4
-1.922, 5.211e-4
-1.923, 5.285e-4
-1.924, 5.360e-4
-1.925, 5.436e-4
-1.926, 5.510e-4
-1.927, 5.585e-4
-1.928, 5.662e-4
-1.929, 5.740e-4
-1.930, 5.818e-4
-1.931, 5.897e-4
-1.932, 5.975e-4
-1.933, 6.055e-4
-1.934, 6.134e-4
-1.935, 6.214e-4
-1.936, 6.295e-4
-1.937, 6.379e-4
-1.938, 6.460e-4
-1.939, 6.542e-4
-1.940, 6.625e-4
-1.941, 6.710e-4
-1.942, 6.793e-4
-1.943, 6.876e-4
-1.944, 6.960e-4
-1.945, 7.047e-4
-1.946, 7.132e-4
-1.947, 7.219e-4
-1.948, 7.305e-4
-1.949, 7.392e-4
-1.950, 7.481e-4
-1.951, 7.569e-4
-1.952, 7.653e-4
-1.953, 7.739e-4
-1.954, 7.828e-4
-1.955, 7.918e-4
-1.956, 8.006e-4
-1.957, 8.097e-4
-1.958, 8.188e-4
-1.959, 8.280e-4
-1.960, 8.371e-4
-1.961, 8.465e-4
-1.962, 8.556e-4
-1.963, 8.649e-4
-1.964, 8.740e-4
-1.965, 8.833e-4
-1.966, 8.927e-4
-1.967, 9.022e-4
-1.968, 9.117e-4
-1.969, 9.213e-4
-1.970, 9.309e-4
-1.971, 9.406e-4
-1.972, 9.504e-4
-1.973, 9.602e-4
-1.974, 9.699e-4
-1.975, 9.797e-4
-1.976, 9.896e-4
-1.977, 9.994e-4
-1.978, 1.009e-3
-1.979, 1.011e-3
-1.980, 1.011e-3
-1.981, 1.011e-3
-1.982, 1.011e-3
-1.983, 1.011e-3
-1.984, 1.011e-3
-1.985, 1.011e-3
-1.986, 1.011e-3
-1.987, 1.011e-3
-1.988, 1.011e-3
-1.989, 1.011e-3
-1.990, 1.011e-3
-1.991, 1.011e-3
-1.992, 1.011e-3
-1.993, 1.011e-3
-1.994, 1.011e-3
-1.995, 1.011e-3
-1.996, 1.011e-3
-1.997, 1.011e-3
-1.998, 1.011e-3
-1.999, 1.011e-3
-2.000, 1.011e-3
-2.001, 1.011e-3
-2.002, 1.011e-3
-2.003, 1.011e-3
-2.004, 1.011e-3
-2.005, 1.011e-3
-2.006, 1.011e-3
-2.007, 1.011e-3
-2.008, 1.011e-3
-2.009, 1.011e-3
-2.010, 1.011e-3
-2.011, 1.011e-3
-2.012, 1.011e-3
-2.013, 1.011e-3
-2.014, 1.011e-3
-2.015, 1.011e-3
-2.016, 1.011e-3
-2.017, 1.011e-3
-2.018, 1.011e-3
-2.019, 1.011e-3
-2.020, 1.011e-3
-2.021, 1.011e-3
-2.022, 1.011e-3
-2.023, 1.011e-3
-2.024, 1.011e-3
-2.025, 1.011e-3
-2.026, 1.011e-3
-2.027, 1.011e-3
-2.028, 1.011e-3
-2.029, 1.011e-3
-2.030, 1.011e-3
-2.031, 1.011e-3
-2.032, 1.011e-3
-2.033, 1.011e-3
-2.034, 1.011e-3
-2.035, 1.011e-3
-2.036, 1.011e-3
-2.037, 1.011e-3
-2.038, 1.011e-3
-2.039, 1.011e-3
-2.040, 1.011e-3
-2.041, 1.011e-3
-2.042, 1.011e-3
-2.043, 1.011e-3
-2.044, 1.011e-3
-2.045, 1.011e-3
-2.046, 1.011e-3
-2.047, 1.011e-3
-2.048, 1.011e-3
-2.049, 1.011e-3
-2.050, 1.011e-3
-2.051, 1.011e-3
-2.052, 1.011e-3
-2.053, 1.011e-3
-2.054, 1.011e-3
-2.055, 1.011e-3
-2.056, 1.011e-3
-2.057, 1.011e-3
-2.058, 1.011e-3
-2.059, 1.011e-3
-2.060, 1.011e-3
-2.061, 1.011e-3
-2.062, 1.011e-3
-2.063, 1.011e-3
-2.064, 1.011e-3
-2.065, 1.011e-3
-2.066, 1.011e-3
-2.067, 1.011e-3
-2.068, 1.011e-3
-2.069, 1.011e-3
-2.070, 1.011e-3
-2.071, 1.011e-3
-2.072, 1.011e-3
-2.073, 1.011e-3
-2.074, 1.011e-3
-2.075, 1.011e-3
-2.076, 1.011e-3
-2.077, 1.011e-3
-2.078, 1.011e-3
-2.079, 1.011e-3
-2.080, 1.011e-3
-2.081, 1.011e-3
-2.082, 1.011e-3
-2.083, 1.011e-3
-2.084, 1.011e-3
-2.085, 1.011e-3
-2.086, 1.011e-3
-2.087, 1.011e-3
-2.088, 1.011e-3
-2.089, 1.011e-3
-2.090, 1.011e-3
-2.091, 1.011e-3
-2.092, 1.011e-3
-2.093, 1.011e-3
-2.094, 1.011e-3
-2.095, 1.011e-3
-2.096, 1.011e-3
-2.097, 1.011e-3
-2.098, 1.011e-3
-2.099, 1.011e-3
-2.100, 1.011e-3
-2.101, 1.011e-3
-2.102, 1.011e-3
-2.103, 1.011e-3
-2.104, 1.011e-3
-2.105, 1.011e-3
-2.106, 1.011e-3
-2.107, 1.011e-3
-2.108, 1.011e-3
-2.109, 1.011e-3
-2.110, 1.011e-3
-2.111, 1.011e-3
-2.112, 1.011e-3
-2.113, 1.011e-3
-2.114, 1.011e-3
-2.115, 1.011e-3
-2.116, 1.011e-3
-2.117, 1.011e-3
-2.118, 1.011e-3
-2.119, 1.011e-3
-2.120, 1.011e-3
-2.121, 1.011e-3
-2.122, 1.011e-3
-2.123, 1.011e-3
-2.124, 1.011e-3
-2.125, 1.011e-3
-2.126, 1.011e-3
-2.127, 1.011e-3
-2.128, 1.011e-3
-2.129, 1.011e-3
-2.130, 1.011e-3
-2.131, 1.011e-3
-2.132, 1.011e-3
-2.133, 1.011e-3
-2.134, 1.011e-3
-2.135, 1.011e-3
-2.136, 1.011e-3
-2.137, 1.011e-3
-2.138, 1.011e-3
-2.139, 1.011e-3
-2.140, 1.011e-3
-2.141, 1.011e-3
-2.142, 1.011e-3
-2.143, 1.011e-3
-2.144, 1.011e-3
-2.145, 1.011e-3
-2.146, 1.011e-3
-2.147, 1.011e-3
-2.148, 1.011e-3
-2.149, 1.011e-3
-2.150, 1.011e-3
-2.151, 1.011e-3
-2.152, 1.011e-3
-2.153, 1.011e-3
-2.154, 1.011e-3
-2.155, 1.011e-3
-2.156, 1.011e-3
-2.157, 1.011e-3
-2.158, 1.011e-3
-2.159, 1.011e-3
-2.160, 1.011e-3
-2.161, 1.011e-3
-2.162, 1.011e-3
-2.163, 1.011e-3
-2.164, 1.011e-3
-2.165, 1.011e-3
-2.166, 1.011e-3
-2.167, 1.011e-3
-2.168, 1.011e-3
-2.169, 1.011e-3
-2.170, 1.011e-3
-2.171, 1.011e-3
-2.172, 1.011e-3
-2.173, 1.011e-3
-2.174, 1.011e-3
-2.175, 1.011e-3
-2.176, 1.011e-3
-2.177, 1.011e-3
-2.178, 1.011e-3
-2.179, 1.011e-3
-2.180, 1.011e-3
-2.181, 1.011e-3
-2.182, 1.011e-3
-2.183, 1.011e-3
-2.184, 1.011e-3
-2.185, 1.011e-3
-2.186, 1.011e-3
-2.187, 1.011e-3
-2.188, 1.011e-3
-2.189, 1.011e-3
-2.190, 1.011e-3
-2.191, 1.011e-3
-2.192, 1.011e-3
-2.193, 1.011e-3
-2.194, 1.011e-3
-2.195, 1.011e-3
-2.196, 1.011e-3
-2.197, 1.011e-3
-2.198, 1.011e-3
-2.199, 1.011e-3
-2.200, 1.011e-3
-2.201, 1.011e-3
-2.202, 1.011e-3
-2.203, 1.011e-3
-2.204, 1.011e-3
-2.205, 1.011e-3
-2.206, 1.011e-3
-2.207, 1.011e-3
-2.208, 1.011e-3
-2.209, 1.011e-3
-2.210, 1.011e-3
-2.211, 1.011e-3
-2.212, 1.011e-3
-2.213, 1.011e-3
-2.214, 1.011e-3
-2.215, 1.011e-3
-2.216, 1.011e-3
-2.217, 1.011e-3
-2.218, 1.011e-3
-2.219, 1.011e-3
-2.220, 1.011e-3
-2.221, 1.011e-3
-2.222, 1.011e-3
-2.223, 1.011e-3
-2.224, 1.011e-3
-2.225, 1.011e-3
-2.226, 1.011e-3
-2.227, 1.011e-3
-2.228, 1.011e-3
-2.229, 1.011e-3
-2.230, 1.011e-3
-2.231, 1.011e-3
-2.232, 1.011e-3
-2.233, 1.011e-3
-2.234, 1.011e-3
-2.235, 1.011e-3
-2.236, 1.011e-3
-2.237, 1.011e-3
-2.238, 1.011e-3
-2.239, 1.011e-3
-2.240, 1.011e-3
-2.241, 1.011e-3
-2.242, 1.011e-3
-2.243, 1.011e-3
-2.244, 1.011e-3
-2.245, 1.011e-3
-2.246, 1.011e-3
-2.247, 1.011e-3
-2.248, 1.011e-3
-2.249, 1.011e-3
-2.250, 1.011e-3
-2.251, 1.011e-3
-2.252, 1.011e-3
-2.253, 1.011e-3
-2.254, 1.011e-3
-2.255, 1.011e-3
-2.256, 1.011e-3
-2.257, 1.011e-3
-2.258, 1.011e-3
-2.259, 1.011e-3
-2.260, 1.011e-3
-2.261, 1.011e-3
-2.262, 1.011e-3
-2.263, 1.011e-3
-2.264, 1.011e-3
-2.265, 1.011e-3
-2.266, 1.011e-3
-2.267, 1.011e-3
-2.268, 1.011e-3
-2.269, 1.011e-3
-2.270, 1.011e-3
-2.271, 1.011e-3
-2.272, 1.011e-3
-2.273, 1.011e-3
-2.274, 1.011e-3
-2.275, 1.011e-3
-2.276, 1.011e-3
-2.277, 1.011e-3
-2.278, 1.011e-3
-2.279, 1.011e-3
-2.280, 1.011e-3
-2.281, 1.011e-3
-2.282, 1.011e-3
-2.283, 1.011e-3
-2.284, 1.011e-3
-2.285, 1.011e-3
-2.286, 1.011e-3
-2.287, 1.011e-3
-2.288, 1.011e-3
-2.289, 1.011e-3
-2.290, 1.011e-3
-2.291, 1.011e-3
-2.292, 1.011e-3
-2.293, 1.011e-3
-2.294, 1.011e-3
-2.295, 1.011e-3
-2.296, 1.011e-3
-2.297, 1.011e-3
-2.298, 1.011e-3
-2.299, 1.011e-3
