Apr. 5, 2025   01:13:23
Cyclic Voltammetry
File: c:/users/guazh/data/banditlqround7_x0exp994_r5/2025-03-28-exp985\exp985-2025-04-05t01_02_52-h2koh\exp985_cv_sr_300mvs_efin_-1500mv.bin
Data Source:  Experiment
Instrument Model:  CHI760E
Header: CV ran at 300 mVs
Note: 

Init E (V) = -1
High E (V) = -1
Low E (V) = -1.5
Final E (V) = -1
Init P/N = N
Scan Rate (V/s) = 0.3
Segment = 3
Sample Interval (V) = 0.001
Quiet Time (sec) = 2
Sensitivity (A/V) = 0.01
Comp R (ohm) = 2.0

Results:

Channel 1:
Segment 1:

Segment 2:

Segment 3:

Potential/V, Current/A

-1.000, 6.322e-6
-1.001, 1.865e-5
-1.002, 1.865e-5
-1.003, 2.174e-5
-1.004, 2.482e-5
-1.005, 2.790e-5
-1.006, 2.790e-5
-1.007, 3.099e-5
-1.008, 3.099e-5
-1.009, 3.407e-5
-1.010, 3.715e-5
-1.011, 3.715e-5
-1.012, 3.715e-5
-1.013, 3.715e-5
-1.014, 4.024e-5
-1.015, 4.332e-5
-1.016, 4.024e-5
-1.017, 4.332e-5
-1.018, 4.332e-5
-1.019, 4.332e-5
-1.020, 4.640e-5
-1.021, 4.640e-5
-1.022, 4.640e-5
-1.023, 4.949e-5
-1.024, 4.949e-5
-1.025, 5.257e-5
-1.026, 5.257e-5
-1.027, 5.257e-5
-1.028, 5.257e-5
-1.029, 5.565e-5
-1.030, 5.565e-5
-1.031, 5.873e-5
-1.032, 5.565e-5
-1.033, 5.873e-5
-1.034, 5.873e-5
-1.035, 6.182e-5
-1.036, 6.182e-5
-1.037, 6.182e-5
-1.038, 6.182e-5
-1.039, 6.490e-5
-1.040, 6.490e-5
-1.041, 6.490e-5
-1.042, 6.490e-5
-1.043, 6.490e-5
-1.044, 6.798e-5
-1.045, 7.107e-5
-1.046, 7.107e-5
-1.047, 7.107e-5
-1.048, 7.107e-5
-1.049, 7.107e-5
-1.050, 7.415e-5
-1.051, 7.415e-5
-1.052, 7.415e-5
-1.053, 7.415e-5
-1.054, 7.415e-5
-1.055, 7.723e-5
-1.056, 7.723e-5
-1.057, 8.032e-5
-1.058, 7.723e-5
-1.059, 8.032e-5
-1.060, 8.340e-5
-1.061, 8.340e-5
-1.062, 8.340e-5
-1.063, 8.340e-5
-1.064, 8.340e-5
-1.065, 8.648e-5
-1.066, 8.648e-5
-1.067, 8.648e-5
-1.068, 8.648e-5
-1.069, 8.957e-5
-1.070, 8.957e-5
-1.071, 8.957e-5
-1.072, 8.957e-5
-1.073, 8.957e-5
-1.074, 9.265e-5
-1.075, 9.573e-5
-1.076, 9.573e-5
-1.077, 9.573e-5
-1.078, 9.265e-5
-1.079, 9.573e-5
-1.080, 9.573e-5
-1.081, 9.573e-5
-1.082, 9.882e-5
-1.083, 9.573e-5
-1.084, 9.882e-5
-1.085, 9.882e-5
-1.086, 1.019e-4
-1.087, 1.019e-4
-1.088, 9.882e-5
-1.089, 1.019e-4
-1.090, 1.019e-4
-1.091, 1.019e-4
-1.092, 1.019e-4
-1.093, 1.019e-4
-1.094, 1.050e-4
-1.095, 1.081e-4
-1.096, 1.050e-4
-1.097, 1.050e-4
-1.098, 1.050e-4
-1.099, 1.081e-4
-1.100, 1.111e-4
-1.101, 1.081e-4
-1.102, 1.081e-4
-1.103, 1.081e-4
-1.104, 1.111e-4
-1.105, 1.111e-4
-1.106, 1.111e-4
-1.107, 1.111e-4
-1.108, 1.111e-4
-1.109, 1.111e-4
-1.110, 1.142e-4
-1.111, 1.142e-4
-1.112, 1.111e-4
-1.113, 1.111e-4
-1.114, 1.142e-4
-1.115, 1.173e-4
-1.116, 1.173e-4
-1.117, 1.173e-4
-1.118, 1.173e-4
-1.119, 1.173e-4
-1.120, 1.173e-4
-1.121, 1.173e-4
-1.122, 1.173e-4
-1.123, 1.173e-4
-1.124, 1.173e-4
-1.125, 1.204e-4
-1.126, 1.173e-4
-1.127, 1.204e-4
-1.128, 1.173e-4
-1.129, 1.204e-4
-1.130, 1.204e-4
-1.131, 1.204e-4
-1.132, 1.204e-4
-1.133, 1.204e-4
-1.134, 1.235e-4
-1.135, 1.235e-4
-1.136, 1.235e-4
-1.137, 1.235e-4
-1.138, 1.235e-4
-1.139, 1.235e-4
-1.140, 1.266e-4
-1.141, 1.235e-4
-1.142, 1.235e-4
-1.143, 1.235e-4
-1.144, 1.235e-4
-1.145, 1.266e-4
-1.146, 1.266e-4
-1.147, 1.235e-4
-1.148, 1.235e-4
-1.149, 1.235e-4
-1.150, 1.266e-4
-1.151, 1.266e-4
-1.152, 1.266e-4
-1.153, 1.266e-4
-1.154, 1.266e-4
-1.155, 1.296e-4
-1.156, 1.266e-4
-1.157, 1.266e-4
-1.158, 1.266e-4
-1.159, 1.266e-4
-1.160, 1.296e-4
-1.161, 1.296e-4
-1.162, 1.266e-4
-1.163, 1.266e-4
-1.164, 1.296e-4
-1.165, 1.296e-4
-1.166, 1.296e-4
-1.167, 1.296e-4
-1.168, 1.266e-4
-1.169, 1.296e-4
-1.170, 1.296e-4
-1.171, 1.296e-4
-1.172, 1.266e-4
-1.173, 1.266e-4
-1.174, 1.266e-4
-1.175, 1.296e-4
-1.176, 1.296e-4
-1.177, 1.266e-4
-1.178, 1.266e-4
-1.179, 1.296e-4
-1.180, 1.296e-4
-1.181, 1.296e-4
-1.182, 1.296e-4
-1.183, 1.296e-4
-1.184, 1.296e-4
-1.185, 1.327e-4
-1.186, 1.296e-4
-1.187, 1.266e-4
-1.188, 1.266e-4
-1.189, 1.266e-4
-1.190, 1.296e-4
-1.191, 1.266e-4
-1.192, 1.266e-4
-1.193, 1.235e-4
-1.194, 1.266e-4
-1.195, 1.296e-4
-1.196, 1.296e-4
-1.197, 1.296e-4
-1.198, 1.266e-4
-1.199, 1.296e-4
-1.200, 1.296e-4
-1.201, 1.296e-4
-1.202, 1.266e-4
-1.203, 1.266e-4
-1.204, 1.266e-4
-1.205, 1.266e-4
-1.206, 1.266e-4
-1.207, 1.235e-4
-1.208, 1.235e-4
-1.209, 1.266e-4
-1.210, 1.266e-4
-1.211, 1.266e-4
-1.212, 1.235e-4
-1.213, 1.235e-4
-1.214, 1.266e-4
-1.215, 1.266e-4
-1.216, 1.266e-4
-1.217, 1.235e-4
-1.218, 1.235e-4
-1.219, 1.235e-4
-1.220, 1.266e-4
-1.221, 1.235e-4
-1.222, 1.235e-4
-1.223, 1.235e-4
-1.224, 1.235e-4
-1.225, 1.266e-4
-1.226, 1.235e-4
-1.227, 1.235e-4
-1.228, 1.235e-4
-1.229, 1.266e-4
-1.230, 1.235e-4
-1.231, 1.235e-4
-1.232, 1.235e-4
-1.233, 1.204e-4
-1.234, 1.235e-4
-1.235, 1.235e-4
-1.236, 1.235e-4
-1.237, 1.204e-4
-1.238, 1.204e-4
-1.239, 1.235e-4
-1.240, 1.235e-4
-1.241, 1.235e-4
-1.242, 1.235e-4
-1.243, 1.204e-4
-1.244, 1.235e-4
-1.245, 1.235e-4
-1.246, 1.235e-4
-1.247, 1.204e-4
-1.248, 1.204e-4
-1.249, 1.235e-4
-1.250, 1.235e-4
-1.251, 1.235e-4
-1.252, 1.204e-4
-1.253, 1.204e-4
-1.254, 1.235e-4
-1.255, 1.235e-4
-1.256, 1.235e-4
-1.257, 1.235e-4
-1.258, 1.235e-4
-1.259, 1.235e-4
-1.260, 1.235e-4
-1.261, 1.235e-4
-1.262, 1.235e-4
-1.263, 1.235e-4
-1.264, 1.235e-4
-1.265, 1.266e-4
-1.266, 1.235e-4
-1.267, 1.235e-4
-1.268, 1.235e-4
-1.269, 1.235e-4
-1.270, 1.266e-4
-1.271, 1.266e-4
-1.272, 1.266e-4
-1.273, 1.266e-4
-1.274, 1.266e-4
-1.275, 1.296e-4
-1.276, 1.296e-4
-1.277, 1.296e-4
-1.278, 1.266e-4
-1.279, 1.296e-4
-1.280, 1.327e-4
-1.281, 1.327e-4
-1.282, 1.327e-4
-1.283, 1.327e-4
-1.284, 1.358e-4
-1.285, 1.358e-4
-1.286, 1.358e-4
-1.287, 1.389e-4
-1.288, 1.389e-4
-1.289, 1.420e-4
-1.290, 1.420e-4
-1.291, 1.420e-4
-1.292, 1.451e-4
-1.293, 1.451e-4
-1.294, 1.481e-4
-1.295, 1.512e-4
-1.296, 1.512e-4
-1.297, 1.512e-4
-1.298, 1.543e-4
-1.299, 1.574e-4
-1.300, 1.605e-4
-1.301, 1.636e-4
-1.302, 1.636e-4
-1.303, 1.666e-4
-1.304, 1.697e-4
-1.305, 1.728e-4
-1.306, 1.759e-4
-1.307, 1.790e-4
-1.308, 1.821e-4
-1.309, 1.882e-4
-1.310, 1.913e-4
-1.311, 1.944e-4
-1.312, 2.006e-4
-1.313, 2.036e-4
-1.314, 2.098e-4
-1.315, 2.160e-4
-1.316, 2.221e-4
-1.317, 2.283e-4
-1.318, 2.345e-4
-1.319, 2.406e-4
-1.320, 2.468e-4
-1.321, 2.561e-4
-1.322, 2.622e-4
-1.323, 2.715e-4
-1.324, 2.807e-4
-1.325, 2.900e-4
-1.326, 3.023e-4
-1.327, 3.115e-4
-1.328, 3.208e-4
-1.329, 3.362e-4
-1.330, 3.485e-4
-1.331, 3.609e-4
-1.332, 3.763e-4
-1.333, 3.886e-4
-1.334, 4.071e-4
-1.335, 4.256e-4
-1.336, 4.410e-4
-1.337, 4.595e-4
-1.338, 4.780e-4
-1.339, 4.996e-4
-1.340, 5.212e-4
-1.341, 5.428e-4
-1.342, 5.674e-4
-1.343, 5.890e-4
-1.344, 6.168e-4
-1.345, 6.445e-4
-1.346, 6.723e-4
-1.347, 7.000e-4
-1.348, 7.278e-4
-1.349, 7.617e-4
-1.350, 7.987e-4
-1.351, 8.357e-4
-1.352, 8.696e-4
-1.353, 9.066e-4
-1.354, 9.467e-4
-1.355, 9.898e-4
-1.356, 1.030e-3
-1.357, 1.073e-3
-1.358, 1.113e-3
-1.359, 1.156e-3
-1.360, 1.203e-3
-1.361, 1.246e-3
-1.362, 1.289e-3
-1.363, 1.335e-3
-1.364, 1.388e-3
-1.365, 1.440e-3
-1.366, 1.492e-3
-1.367, 1.545e-3
-1.368, 1.594e-3
-1.369, 1.647e-3
-1.370, 1.702e-3
-1.371, 1.754e-3
-1.372, 1.804e-3
-1.373, 1.856e-3
-1.374, 1.912e-3
-1.375, 1.973e-3
-1.376, 2.035e-3
-1.377, 2.100e-3
-1.378, 2.161e-3
-1.379, 2.229e-3
-1.380, 2.297e-3
-1.381, 2.368e-3
-1.382, 2.433e-3
-1.383, 2.497e-3
-1.384, 2.559e-3
-1.385, 2.621e-3
-1.386, 2.679e-3
-1.387, 2.735e-3
-1.388, 2.793e-3
-1.389, 2.855e-3
-1.390, 2.923e-3
-1.391, 2.997e-3
-1.392, 3.068e-3
-1.393, 3.145e-3
-1.394, 3.225e-3
-1.395, 3.305e-3
-1.396, 3.385e-3
-1.397, 3.459e-3
-1.398, 3.530e-3
-1.399, 3.601e-3
-1.400, 3.672e-3
-1.401, 3.743e-3
-1.402, 3.808e-3
-1.403, 3.879e-3
-1.404, 3.953e-3
-1.405, 4.030e-3
-1.406, 4.113e-3
-1.407, 4.196e-3
-1.408, 4.276e-3
-1.409, 4.363e-3
-1.410, 4.452e-3
-1.411, 4.545e-3
-1.412, 4.628e-3
-1.413, 4.711e-3
-1.414, 4.797e-3
-1.415, 4.884e-3
-1.416, 4.961e-3
-1.417, 5.035e-3
-1.418, 5.103e-3
-1.419, 5.171e-3
-1.420, 5.241e-3
-1.421, 5.315e-3
-1.422, 5.393e-3
-1.423, 5.479e-3
-1.424, 5.581e-3
-1.425, 5.688e-3
-1.426, 5.799e-3
-1.427, 5.914e-3
-1.428, 6.031e-3
-1.429, 6.160e-3
-1.430, 6.287e-3
-1.431, 6.404e-3
-1.432, 6.518e-3
-1.433, 6.623e-3
-1.434, 6.706e-3
-1.435, 6.795e-3
-1.436, 6.869e-3
-1.437, 6.891e-3
-1.438, 6.885e-3
-1.439, 6.860e-3
-1.440, 6.826e-3
-1.441, 6.838e-3
-1.442, 6.916e-3
-1.443, 7.054e-3
-1.444, 7.245e-3
-1.445, 7.467e-3
-1.446, 7.680e-3
-1.447, 7.856e-3
-1.448, 7.992e-3
-1.449, 8.096e-3
-1.450, 8.170e-3
-1.451, 8.232e-3
-1.452, 8.278e-3
-1.453, 8.312e-3
-1.454, 8.343e-3
-1.455, 8.392e-3
-1.456, 8.473e-3
-1.457, 8.568e-3
-1.458, 8.676e-3
-1.459, 8.790e-3
-1.460, 8.907e-3
-1.461, 9.037e-3
-1.462, 9.191e-3
-1.463, 9.345e-3
-1.464, 9.471e-3
-1.465, 9.567e-3
-1.466, 9.641e-3
-1.467, 9.709e-3
-1.468, 9.795e-3
-1.469, 9.894e-3
-1.470, 1.000e-2
-1.471, 1.012e-2
-1.472, 1.026e-2
-1.473, 1.043e-2
-1.474, 1.060e-2
-1.475, 1.077e-2
-1.476, 1.091e-2
-1.477, 1.100e-2
-1.478, 1.107e-2
-1.479, 1.112e-2
-1.480, 1.116e-2
-1.481, 1.118e-2
-1.482, 1.117e-2
-1.483, 1.118e-2
-1.484, 1.125e-2
-1.485, 1.138e-2
-1.486, 1.154e-2
-1.487, 1.170e-2
-1.488, 1.188e-2
-1.489, 1.206e-2
-1.490, 1.225e-2
-1.491, 1.242e-2
-1.492, 1.254e-2
-1.493, 1.259e-2
-1.494, 1.261e-2
-1.495, 1.260e-2
-1.496, 1.259e-2
-1.497, 1.259e-2
-1.498, 1.259e-2
-1.499, 1.263e-2
-1.500, 1.267e-2
-1.499, 1.267e-2
-1.498, 1.268e-2
-1.497, 1.266e-2
-1.496, 1.263e-2
-1.495, 1.258e-2
-1.494, 1.251e-2
-1.493, 1.239e-2
-1.492, 1.226e-2
-1.491, 1.210e-2
-1.490, 1.193e-2
-1.489, 1.175e-2
-1.488, 1.160e-2
-1.487, 1.149e-2
-1.486, 1.139e-2
-1.485, 1.132e-2
-1.484, 1.127e-2
-1.483, 1.123e-2
-1.482, 1.120e-2
-1.481, 1.117e-2
-1.480, 1.112e-2
-1.479, 1.103e-2
-1.478, 1.093e-2
-1.477, 1.080e-2
-1.476, 1.068e-2
-1.475, 1.057e-2
-1.474, 1.045e-2
-1.473, 1.033e-2
-1.472, 1.020e-2
-1.471, 1.010e-2
-1.470, 1.002e-2
-1.469, 9.934e-3
-1.468, 9.841e-3
-1.467, 9.727e-3
-1.466, 9.607e-3
-1.465, 9.490e-3
-1.464, 9.370e-3
-1.463, 9.249e-3
-1.462, 9.138e-3
-1.461, 9.040e-3
-1.460, 8.950e-3
-1.459, 8.873e-3
-1.458, 8.799e-3
-1.457, 8.725e-3
-1.456, 8.658e-3
-1.455, 8.587e-3
-1.454, 8.510e-3
-1.453, 8.420e-3
-1.452, 8.331e-3
-1.451, 8.238e-3
-1.450, 8.143e-3
-1.449, 8.044e-3
-1.448, 7.939e-3
-1.447, 7.834e-3
-1.446, 7.736e-3
-1.445, 7.640e-3
-1.444, 7.554e-3
-1.443, 7.474e-3
-1.442, 7.393e-3
-1.441, 7.316e-3
-1.440, 7.239e-3
-1.439, 7.162e-3
-1.438, 7.079e-3
-1.437, 6.990e-3
-1.436, 6.903e-3
-1.435, 6.820e-3
-1.434, 6.740e-3
-1.433, 6.654e-3
-1.432, 6.561e-3
-1.431, 6.465e-3
-1.430, 6.373e-3
-1.429, 6.280e-3
-1.428, 6.188e-3
-1.427, 6.102e-3
-1.426, 6.025e-3
-1.425, 5.947e-3
-1.424, 5.870e-3
-1.423, 5.784e-3
-1.422, 5.695e-3
-1.421, 5.614e-3
-1.420, 5.541e-3
-1.419, 5.470e-3
-1.418, 5.399e-3
-1.417, 5.325e-3
-1.416, 5.254e-3
-1.415, 5.180e-3
-1.414, 5.100e-3
-1.413, 5.016e-3
-1.412, 4.930e-3
-1.411, 4.844e-3
-1.410, 4.754e-3
-1.409, 4.668e-3
-1.408, 4.585e-3
-1.407, 4.505e-3
-1.406, 4.434e-3
-1.405, 4.375e-3
-1.404, 4.320e-3
-1.403, 4.264e-3
-1.402, 4.206e-3
-1.401, 4.150e-3
-1.400, 4.091e-3
-1.399, 4.030e-3
-1.398, 3.959e-3
-1.397, 3.882e-3
-1.396, 3.805e-3
-1.395, 3.728e-3
-1.394, 3.647e-3
-1.393, 3.567e-3
-1.392, 3.493e-3
-1.391, 3.435e-3
-1.390, 3.385e-3
-1.389, 3.339e-3
-1.388, 3.287e-3
-1.387, 3.225e-3
-1.386, 3.163e-3
-1.385, 3.114e-3
-1.384, 3.059e-3
-1.383, 3.006e-3
-1.382, 2.951e-3
-1.381, 2.898e-3
-1.380, 2.843e-3
-1.379, 2.781e-3
-1.378, 2.710e-3
-1.377, 2.639e-3
-1.376, 2.565e-3
-1.375, 2.494e-3
-1.374, 2.430e-3
-1.373, 2.365e-3
-1.372, 2.316e-3
-1.371, 2.279e-3
-1.370, 2.251e-3
-1.369, 2.220e-3
-1.368, 2.186e-3
-1.367, 2.152e-3
-1.366, 2.112e-3
-1.365, 2.072e-3
-1.364, 2.029e-3
-1.363, 1.976e-3
-1.362, 1.921e-3
-1.361, 1.869e-3
-1.360, 1.813e-3
-1.359, 1.758e-3
-1.358, 1.699e-3
-1.357, 1.643e-3
-1.356, 1.591e-3
-1.355, 1.557e-3
-1.354, 1.529e-3
-1.353, 1.502e-3
-1.352, 1.477e-3
-1.351, 1.449e-3
-1.350, 1.425e-3
-1.349, 1.397e-3
-1.348, 1.363e-3
-1.347, 1.326e-3
-1.346, 1.289e-3
-1.345, 1.252e-3
-1.344, 1.212e-3
-1.343, 1.172e-3
-1.342, 1.132e-3
-1.341, 1.095e-3
-1.340, 1.061e-3
-1.339, 1.033e-3
-1.338, 1.008e-3
-1.337, 9.868e-4
-1.336, 9.683e-4
-1.335, 9.467e-4
-1.334, 9.220e-4
-1.333, 8.973e-4
-1.332, 8.727e-4
-1.331, 8.480e-4
-1.330, 8.233e-4
-1.329, 7.956e-4
-1.328, 7.709e-4
-1.327, 7.432e-4
-1.326, 7.185e-4
-1.325, 6.969e-4
-1.324, 6.754e-4
-1.323, 6.538e-4
-1.322, 6.353e-4
-1.321, 6.199e-4
-1.320, 6.014e-4
-1.319, 5.859e-4
-1.318, 5.674e-4
-1.317, 5.520e-4
-1.316, 5.366e-4
-1.315, 5.181e-4
-1.314, 5.058e-4
-1.313, 4.842e-4
-1.312, 4.688e-4
-1.311, 4.534e-4
-1.310, 4.380e-4
-1.309, 4.225e-4
-1.308, 4.071e-4
-1.307, 3.917e-4
-1.306, 3.794e-4
-1.305, 3.670e-4
-1.304, 3.578e-4
-1.303, 3.455e-4
-1.302, 3.331e-4
-1.301, 3.239e-4
-1.300, 3.146e-4
-1.299, 3.023e-4
-1.298, 2.900e-4
-1.297, 2.807e-4
-1.296, 2.715e-4
-1.295, 2.622e-4
-1.294, 2.499e-4
-1.293, 2.406e-4
-1.292, 2.314e-4
-1.291, 2.252e-4
-1.290, 2.191e-4
-1.289, 2.098e-4
-1.288, 2.006e-4
-1.287, 1.913e-4
-1.286, 1.851e-4
-1.285, 1.821e-4
-1.284, 1.728e-4
-1.283, 1.666e-4
-1.282, 1.574e-4
-1.281, 1.512e-4
-1.280, 1.451e-4
-1.279, 1.389e-4
-1.278, 1.327e-4
-1.277, 1.266e-4
-1.276, 1.204e-4
-1.275, 1.173e-4
-1.274, 1.111e-4
-1.273, 1.050e-4
-1.272, 1.019e-4
-1.271, 9.882e-5
-1.270, 9.265e-5
-1.269, 8.957e-5
-1.268, 8.340e-5
-1.267, 8.032e-5
-1.266, 7.723e-5
-1.265, 7.107e-5
-1.264, 6.798e-5
-1.263, 6.490e-5
-1.262, 5.873e-5
-1.261, 5.565e-5
-1.260, 5.257e-5
-1.259, 4.949e-5
-1.258, 4.640e-5
-1.257, 4.332e-5
-1.256, 4.024e-5
-1.255, 3.715e-5
-1.254, 3.407e-5
-1.253, 3.099e-5
-1.252, 2.790e-5
-1.251, 2.790e-5
-1.250, 2.482e-5
-1.249, 2.174e-5
-1.248, 1.865e-5
-1.247, 1.557e-5
-1.246, 1.249e-5
-1.245, 1.249e-5
-1.244, 9.405e-6
-1.243, 6.322e-6
-1.242, 3.239e-6
-1.241, 3.239e-6
-1.240, 3.239e-6
-1.239, 1.559e-7
-1.238, -2.927e-6
-1.237, -6.010e-6
-1.236, -6.010e-6
-1.235, -6.010e-6
-1.234, -9.093e-6
-1.233, -1.218e-5
-1.232, -1.218e-5
-1.231, -1.526e-5
-1.230, -1.526e-5
-1.229, -1.834e-5
-1.228, -2.143e-5
-1.227, -2.143e-5
-1.226, -2.143e-5
-1.225, -2.143e-5
-1.224, -2.451e-5
-1.223, -2.759e-5
-1.222, -3.068e-5
-1.221, -2.759e-5
-1.220, -2.759e-5
-1.219, -3.068e-5
-1.218, -3.068e-5
-1.217, -3.376e-5
-1.216, -3.376e-5
-1.215, -3.376e-5
-1.214, -3.684e-5
-1.213, -3.992e-5
-1.212, -3.992e-5
-1.211, -3.992e-5
-1.210, -3.992e-5
-1.209, -4.301e-5
-1.208, -4.301e-5
-1.207, -4.609e-5
-1.206, -4.609e-5
-1.205, -4.609e-5
-1.204, -4.609e-5
-1.203, -4.917e-5
-1.202, -5.226e-5
-1.201, -4.917e-5
-1.200, -4.917e-5
-1.199, -5.226e-5
-1.198, -5.226e-5
-1.197, -5.534e-5
-1.196, -5.534e-5
-1.195, -5.534e-5
-1.194, -5.534e-5
-1.193, -5.842e-5
-1.192, -5.842e-5
-1.191, -5.842e-5
-1.190, -5.842e-5
-1.189, -6.151e-5
-1.188, -6.151e-5
-1.187, -6.151e-5
-1.186, -6.151e-5
-1.185, -6.151e-5
-1.184, -6.459e-5
-1.183, -6.767e-5
-1.182, -6.767e-5
-1.181, -6.767e-5
-1.180, -6.459e-5
-1.179, -6.767e-5
-1.178, -7.076e-5
-1.177, -7.384e-5
-1.176, -7.076e-5
-1.175, -7.076e-5
-1.174, -7.384e-5
-1.173, -7.384e-5
-1.172, -7.692e-5
-1.171, -7.384e-5
-1.170, -7.384e-5
-1.169, -7.692e-5
-1.168, -7.692e-5
-1.167, -7.692e-5
-1.166, -8.000e-5
-1.165, -7.692e-5
-1.164, -8.000e-5
-1.163, -8.309e-5
-1.162, -8.309e-5
-1.161, -8.309e-5
-1.160, -8.309e-5
-1.159, -8.309e-5
-1.158, -8.617e-5
-1.157, -8.617e-5
-1.156, -8.617e-5
-1.155, -8.617e-5
-1.154, -8.617e-5
-1.153, -8.925e-5
-1.152, -8.925e-5
-1.151, -8.925e-5
-1.150, -8.925e-5
-1.149, -9.234e-5
-1.148, -9.542e-5
-1.147, -9.542e-5
-1.146, -9.542e-5
-1.145, -9.542e-5
-1.144, -9.542e-5
-1.143, -9.850e-5
-1.142, -9.850e-5
-1.141, -9.850e-5
-1.140, -9.850e-5
-1.139, -9.850e-5
-1.138, -1.016e-4
-1.137, -1.047e-4
-1.136, -1.016e-4
-1.135, -1.016e-4
-1.134, -1.047e-4
-1.133, -1.078e-4
-1.132, -1.078e-4
-1.131, -1.078e-4
-1.130, -1.078e-4
-1.129, -1.078e-4
-1.128, -1.108e-4
-1.127, -1.108e-4
-1.126, -1.108e-4
-1.125, -1.108e-4
-1.124, -1.108e-4
-1.123, -1.139e-4
-1.122, -1.139e-4
-1.121, -1.139e-4
-1.120, -1.139e-4
-1.119, -1.170e-4
-1.118, -1.170e-4
-1.117, -1.201e-4
-1.116, -1.201e-4
-1.115, -1.201e-4
-1.114, -1.201e-4
-1.113, -1.232e-4
-1.112, -1.232e-4
-1.111, -1.232e-4
-1.110, -1.232e-4
-1.109, -1.232e-4
-1.108, -1.232e-4
-1.107, -1.263e-4
-1.106, -1.263e-4
-1.105, -1.263e-4
-1.104, -1.293e-4
-1.103, -1.293e-4
-1.102, -1.324e-4
-1.101, -1.324e-4
-1.100, -1.293e-4
-1.099, -1.324e-4
-1.098, -1.355e-4
-1.097, -1.355e-4
-1.096, -1.324e-4
-1.095, -1.324e-4
-1.094, -1.355e-4
-1.093, -1.386e-4
-1.092, -1.386e-4
-1.091, -1.386e-4
-1.090, -1.386e-4
-1.089, -1.417e-4
-1.088, -1.417e-4
-1.087, -1.448e-4
-1.086, -1.448e-4
-1.085, -1.448e-4
-1.084, -1.448e-4
-1.083, -1.478e-4
-1.082, -1.478e-4
-1.081, -1.478e-4
-1.080, -1.478e-4
-1.079, -1.478e-4
-1.078, -1.509e-4
-1.077, -1.509e-4
-1.076, -1.509e-4
-1.075, -1.540e-4
-1.074, -1.540e-4
-1.073, -1.571e-4
-1.072, -1.571e-4
-1.071, -1.571e-4
-1.070, -1.571e-4
-1.069, -1.571e-4
-1.068, -1.602e-4
-1.067, -1.602e-4
-1.066, -1.602e-4
-1.065, -1.602e-4
-1.064, -1.632e-4
-1.063, -1.632e-4
-1.062, -1.663e-4
-1.061, -1.663e-4
-1.060, -1.663e-4
-1.059, -1.663e-4
-1.058, -1.694e-4
-1.057, -1.694e-4
-1.056, -1.694e-4
-1.055, -1.694e-4
-1.054, -1.725e-4
-1.053, -1.756e-4
-1.052, -1.756e-4
-1.051, -1.756e-4
-1.050, -1.756e-4
-1.049, -1.787e-4
-1.048, -1.787e-4
-1.047, -1.817e-4
-1.046, -1.787e-4
-1.045, -1.787e-4
-1.044, -1.817e-4
-1.043, -1.848e-4
-1.042, -1.848e-4
-1.041, -1.848e-4
-1.040, -1.848e-4
-1.039, -1.879e-4
-1.038, -1.910e-4
-1.037, -1.910e-4
-1.036, -1.941e-4
-1.035, -1.941e-4
-1.034, -1.941e-4
-1.033, -1.972e-4
-1.032, -1.972e-4
-1.031, -1.972e-4
-1.030, -1.972e-4
-1.029, -1.972e-4
-1.028, -2.002e-4
-1.027, -2.002e-4
-1.026, -2.033e-4
-1.025, -2.033e-4
-1.024, -2.064e-4
-1.023, -2.095e-4
-1.022, -2.095e-4
-1.021, -2.095e-4
-1.020, -2.095e-4
-1.019, -2.126e-4
-1.018, -2.157e-4
-1.017, -2.157e-4
-1.016, -2.157e-4
-1.015, -2.157e-4
-1.014, -2.187e-4
-1.013, -2.187e-4
-1.012, -2.218e-4
-1.011, -2.218e-4
-1.010, -2.218e-4
-1.009, -2.249e-4
-1.008, -2.280e-4
-1.007, -2.311e-4
-1.006, -2.311e-4
-1.005, -2.311e-4
-1.004, -2.311e-4
-1.003, -2.342e-4
-1.002, -2.372e-4
-1.001, -2.372e-4
