Potential V vs RHE, Current mA cm-2
0.013299999999999867,11.9486516386601
0.012299999999999978,10.292024706518141
0.011299999999999866,8.80799255295972
0.010299999999999976,7.456943261588608
0.009299999999999864,6.234632698505217
0.008299999999999974,5.145304997609139
0.007299999999999862,4.140859974704963
0.006299999999999972,3.1378296631006513
0.00529999999999986,2.0909433012005243
0.0042999999999999705,1.1317690398920295
0.0032999999999998586,0.3031726315610774
0.0022999999999999687,-0.48199213986401795
0.0012999999999998568,-1.3107300193249565
0.00029999999999996696,-2.1828995356917518
-0.000700000000000145,-3.0119203574126634
-0.0017000000000000348,-3.6655169779503103
-0.0027000000000001467,-4.364384360083638
-0.0037000000000000366,-5.105693081212917
-0.0047000000000001485,-5.847001802342197
-0.005700000000000038,-6.588310523471475
-0.00670000000000015,-7.199465805013171
-0.00770000000000004,-7.7653503249591855
-0.008700000000000152,-8.464217707092514
-0.009700000000000042,-9.11781432763016
-0.010700000000000154,-9.81668170976349
-0.011700000000000044,-10.42642228000532
-0.012700000000000156,-10.949865460955383
-0.013700000000000045,-11.56102074249708
-0.014700000000000157,-12.258473413330542
-0.015700000000000047,-12.869628694872238
-0.01670000000000016,-13.436927926118118
-0.01770000000000005,-13.960371107068182
-0.01870000000000016,-14.529085049613924
-0.01970000000000005,-15.137410908555893
-0.020700000000000163,-15.660854089505953
-0.021700000000000053,-16.141855931460068
-0.022700000000000164,-16.622857773414182
-0.023700000000000054,-17.146300954364243
-0.024700000000000166,-17.75462681330621
-0.025700000000000056,-18.320511333252224
-0.026700000000000168,-18.759071836210385
-0.027700000000000058,-19.2400736781645
-0.02870000000000017,-19.805958198110513
-0.02970000000000006,-20.371842718056527
-0.03070000000000017,-20.93772723800254
-0.03170000000000006,-21.376287740960702
-0.03270000000000017,-21.814848243918867
-0.03370000000000006,-22.33829142486893
-0.034700000000000175,-22.904175944814945
-0.035700000000000065,-23.427619125765005
-0.03670000000000018,-23.908620967719123
-0.03770000000000007,-24.34718147067728
-0.03870000000000018,-24.9130659906233
-0.03970000000000007,-25.521391849565262
-0.04070000000000018,-26.129717708507226
-0.04170000000000007,-26.61071955046134
-0.04270000000000018,-27.049280053419505
-0.04370000000000007,-27.572723234369565
-0.044700000000000184,-28.13860775431558
-0.045700000000000074,-28.662050935265643
-0.046700000000000186,-29.14305277721976
-0.047700000000000076,-29.581613280177915
-0.04870000000000019,-30.147497800123933
-0.04970000000000008,-30.7558236590659
-0.05070000000000019,-31.321708179011907
-0.05170000000000008,-31.84515135996197
-0.05270000000000019,-32.24127052392419
-0.05370000000000008,-32.807155043870196
-0.05470000000000019,-33.41548090281216
-0.05570000000000008,-33.98136542275818
-0.056700000000000195,-34.50480860370825
-0.057700000000000085,-34.98581044566235
-0.058700000000000196,-35.46681228761647
-0.059700000000000086,-36.03269680756248
-0.0607000000000002,-36.5136986495166
-0.06170000000000009,-36.99470049147071
-0.0627000000000002,-37.41911388143023
-0.06370000000000009,-37.99914551437489
-0.0647000000000002,-38.607471373316855
-0.06570000000000009,-39.173355893262865
-0.0667000000000002,-39.61191639622103
-0.0677000000000001,-40.135359577171094
-0.0687000000000002,-40.701244097117105
-0.0697000000000001,-41.39445263405098
-0.07070000000000021,-42.00277849299294
-0.0717000000000001,-42.483780334947056
-0.07270000000000021,-43.007223515897124
-0.0737000000000001,-43.57310803584313
-0.07470000000000021,-44.138992555789144
-0.0757000000000001,-44.66243573673921
-0.07670000000000021,-45.10099623969737
-0.0777000000000001,-45.581998081651484
-0.07870000000000021,-46.19032394059345
-0.0797000000000001,-46.88353247752732
-0.08070000000000022,-47.506005449467935
-0.0817000000000001,-48.071889969413945
-0.08270000000000022,-48.59533315036401
-0.08370000000000011,-49.20365900930597
-0.08470000000000022,-49.81198486824794
-0.08570000000000011,-50.335428049198
-0.08670000000000022,-50.73154721316022
-0.08770000000000011,-51.17010771611838
-0.08870000000000022,-51.69355089706845
-0.08970000000000011,-52.30187675601041
-0.09070000000000022,-52.82531993696047
-0.09170000000000011,-53.348763117910536
-0.09270000000000023,-53.872206298860604
-0.09370000000000012,-54.43809081880661
-0.09470000000000023,-55.13129935574048
-0.09570000000000012,-55.73962521468245
-0.09670000000000023,-56.26306839563251
-0.09770000000000012,-56.74407023758662
-0.09870000000000023,-57.22507207954074
-0.09970000000000012,-57.93242772947325
-0.10070000000000023,-58.498312249419264
-0.10170000000000012,-59.02175543036933
-0.10270000000000024,-59.502757272323436
-0.10370000000000013,-60.06864179226946
-0.10470000000000024,-60.80429166819927
-0.10570000000000013,-61.412617527141244
-0.10670000000000024,-61.89361936909536
-0.10770000000000013,-62.459503889041365
-0.10870000000000024,-62.98294706999144
-0.10970000000000013,-63.6761556069253
-0.11070000000000024,-64.29862857886593
-0.11170000000000013,-64.68060062982947
-0.11270000000000002,-65.16160247178358
-0.11370000000000013,-65.64260431373769
-0.11470000000000002,-66.25093017267966
-0.11570000000000014,-66.81681469262568
-0.11670000000000003,-67.2978165345798
-0.11770000000000014,-67.82125971552985
-0.11870000000000003,-68.38714423547587
-0.11970000000000014,-69.0944998854084
-0.12070000000000003,-69.74526708334632
-0.12170000000000014,-70.22626892530042
-0.12270000000000003,-70.74971210625048
-0.12370000000000014,-71.31559662619651
-0.12470000000000003,-71.96636382413442
-0.12570000000000014,-72.57468968307639
-0.12670000000000003,-73.09813286402644
-0.12770000000000015,-73.57913470598055
-0.12870000000000004,-74.10257788693062
-0.12970000000000015,-74.72505085887124
-0.13070000000000004,-75.33337671781321
-0.13170000000000015,-75.81437855976732
-0.13270000000000004,-76.33782174071737
-0.13370000000000015,-76.81882358267148
-0.13470000000000004,-77.42714944161345
-0.13570000000000015,-77.99303396155948
-0.13670000000000004,-78.43159446451764
-0.13770000000000016,-78.85600785447714
-0.13870000000000005,-79.37945103542721
-0.13970000000000016,-80.00192400736783
-0.14070000000000005,-80.69513254430169
-0.14170000000000016,-81.26101706424771
-0.14270000000000005,-81.86934292318966
-0.14370000000000016,-82.39278610413973
-0.14470000000000005,-82.9162292850898
-0.14570000000000016,-83.39723112704392
-0.14670000000000005,-83.75090895201016
-0.14770000000000016,-84.23191079396429
-0.14870000000000005,-84.75535397491434
-0.14970000000000017,-85.36367983385631
-0.15070000000000006,-85.97200569279828
-0.15170000000000017,-86.41056619575643
-0.15270000000000006,-86.97645071570246
-0.15370000000000017,-87.58477657464444
-0.15470000000000006,-88.23554377258235
-0.15570000000000017,-88.8438696315243
-0.15670000000000006,-89.23998879548651
-0.15770000000000017,-89.67854929844468
-0.15870000000000006,-90.24443381839069
-0.15970000000000018,-90.76787699934074
-0.16070000000000007,-91.29132018029082
-0.16170000000000018,-91.56011532726518
-0.16270000000000007,-91.89964603923279
-0.16370000000000018,-92.42308922018285
-0.16470000000000007,-93.03141507912481
-0.16570000000000018,-93.73877072905732
-0.16670000000000007,-94.26221391000739
-0.16770000000000018,-94.6583330739696
-0.16870000000000007,-95.18177625491967
-0.16970000000000018,-95.74766077486568
-0.17070000000000007,-96.31354529481169
-0.17170000000000019,-96.87942981475771
-0.17270000000000008,-97.36043165671182
-0.1737000000000002,-97.78484504667132
-0.17470000000000008,-98.18096421063355
-0.1757000000000002,-98.6195247135917
-0.17670000000000008,-98.97320253855796
-0.1777000000000002,-99.41176304151614
-0.17870000000000008,-99.93520622246619
-0.1797000000000002,-100.45864940341626
-0.18070000000000008,-101.06697526235823
-0.1817000000000002,-101.59041844330828
-0.18270000000000008,-102.11386162425833
-0.1837000000000002,-102.76462882219626
-0.1847000000000001,-103.45783735913014
-0.1857000000000002,-104.02372187907615
-0.1867000000000001,-104.33495836504645
-0.1877000000000002,-104.5471650600262
-0.1887000000000001,-104.85840154599651
-0.1897000000000002,-105.38184472694657
-0.1907000000000001,-105.99017058588855
-0.1917000000000001,-106.64093778382647
-0.19269999999999998,-107.26341075576708
-0.1937000000000001,-107.914177953705
-0.19469999999999998,-108.35273845666316
-0.1957000000000001,-108.64982782963483
-0.19669999999999999,-108.83374029861727
-0.1977000000000001,-108.96106431560513
-0.1987,-109.35718347956733
-0.1997000000000001,-109.78159686952685
-0.2007,-110.40406984146746
-0.2017000000000001,-110.78604189243102
-0.2027,-111.13971971739728
-0.2037000000000001,-111.74804557633925
-0.2047,-112.48369545226906
-0.2057000000000001,-113.10616842420968
-0.2067,-113.53058181416918
-0.2077000000000001,-113.84181830013951
-0.2087,-114.28037880309766
-0.2097000000000001,-114.76138064505177
-0.2107,-115.28482382600184
-0.2117000000000001,-115.72338432896
-0.2127,-116.02047370193165
-0.2137000000000001,-116.50147554388576
-0.2147,-116.89759470784797
-0.2157000000000001,-117.42103788879804
-0.2167,-117.81715705276027
-0.21770000000000012,-118.15668776472786
-0.2187,-118.76501362366983
-0.21970000000000012,-119.2884568046199
-0.2207,-119.81189998556997
-0.22170000000000012,-120.16557781053622
-0.2227,-120.39193161851462
-0.22370000000000012,-120.77390366947817
-0.2247,-121.12758149444444
-0.22570000000000012,-121.52370065840667
-0.2267,-121.77834869238235
-0.22770000000000012,-122.0471438393567
-0.22870000000000001,-122.52814568131083
-0.22970000000000013,-123.05158886226087
-0.23070000000000002,-123.65991472120285
-0.23170000000000013,-124.35312325813672
-0.23270000000000002,-124.87656643908679
-0.23370000000000013,-125.48489229802875
-0.23470000000000002,-125.96589413998288
-0.23570000000000013,-126.36201330394509
-0.23670000000000002,-126.75813246790726
-0.2376999999999999,-127.19669297086547
-0.23870000000000002,-127.72013615181551
-0.2396999999999999,-128.05966686378312
-0.24070000000000003,-128.2294322197669
-0.24169999999999991,-128.54066870573723
-0.24270000000000003,-128.85190519170752
-0.24369999999999992,-129.50267238964545
-0.24470000000000003,-130.19588092657932
-0.24569999999999992,-130.7193241075294
-0.24670000000000003,-131.24276728847948
-0.24769999999999992,-131.46912109645783
-0.24870000000000003,-131.8510931474214
-0.24969999999999992,-132.37453632837148
-0.25070000000000003,-132.7706554923337
-0.2516999999999999,-133.12433331729994
-0.25270000000000004,-133.4214226902716
-0.2536999999999999,-133.94486587122168
-0.25470000000000004,-134.5107503911677
-0.2556999999999999,-135.03419357211774
-0.25670000000000004,-135.387871397084
-0.25769999999999993,-135.387871397084
-0.25870000000000004,-135.6142252050624
-0.25969999999999993,-136.08107993401788
-0.26070000000000004,-136.60452311496792
-0.26169999999999993,-137.22699608690854
-0.26270000000000004,-137.56652679887617
-0.26369999999999993,-137.9626459628384
-0.26470000000000005,-138.48608914378846
-0.26569999999999994,-138.92464964674662
-0.26670000000000005,-139.3207688107088
-0.26769999999999994,-139.57541684468453
-0.26870000000000005,-139.8866533306548
-0.26969999999999994,-140.2686253816184
-0.27070000000000005,-140.70718588457655
-0.27169999999999994,-141.14574638753473
-0.27270000000000005,-141.61260111649017
-0.27369999999999994,-142.31995676642268
-0.27470000000000006,-142.8858412863687
-0.27569999999999995,-143.4517258063147
-0.27670000000000006,-143.87613919627424
-0.27769999999999995,-144.15908145624724
-0.27870000000000006,-144.58349484620675
-0.27969999999999995,-144.86643710617977
-0.28070000000000006,-145.14937936615277
-0.28169999999999995,-145.14937936615277
-0.28270000000000006,-145.29085049613926
-0.28369999999999995,-145.7152638860988
-0.28470000000000006,-146.28114840604482
-0.28569999999999995,-146.8470329259908
-0.28670000000000007,-147.4129174459368
-0.28769999999999996,-147.83733083589632
-0.28870000000000007,-148.26174422585584
-0.28969999999999996,-148.68615761581535
-0.29070000000000007,-148.82762874580186
-0.29169999999999996,-149.1105710057749
-0.29270000000000007,-149.25204213576137
-0.29369999999999996,-149.53498439573437
-0.2947000000000001,-150.1008689156804
-0.29569999999999996,-150.5252823056399
-0.2967000000000001,-151.09116682558593
-0.29769999999999996,-151.65705134553193
-0.2987000000000001,-152.36440699546444
-0.29969999999999997,-152.93029151541046
-0.3007000000000001,-153.21323377538346
-0.30169999999999997,-153.49617603535648
-0.3027000000000001,-153.49617603535648
-0.30369999999999997,-153.49617603535648
-0.3047000000000001,-153.49617603535648
-0.30569999999999997,-153.35470490536997
-0.3067000000000001,-153.49617603535648
-0.3077,-153.77911829532948
-0.3087000000000001,-154.203531685289
-0.3097,-154.9108873352215
-0.3107000000000001,-155.47677185516753
-0.3117,-155.90118524512707
-0.3127000000000001,-156.18412750510007
-0.3137,-156.46706976507306
-0.3147000000000001,-157.03295428501906
-0.3157,-157.17442541500557
-0.3167000000000001,-157.17442541500557
-0.3177,-157.17442541500557
-0.3187000000000001,-157.45736767497857
-0.3197,-158.02325219492457
-0.3207000000000001,-158.3061944548976
-0.3217,-158.5891367148706
-0.3227000000000001,-158.73060784485713
-0.3237,-159.15502123481662
-0.3247000000000001,-159.57943462477613
-0.3257,-160.00384801473567
-0.3267000000000001,-160.28679027470866
-0.3277,-160.42826140469515
-0.3287000000000001,-160.71120366466818
-0.3297,-161.41855931460069
-0.3307000000000001,-161.9844438345467
-0.3317,-162.40885722450622
-0.3327000000000001,-162.6917994844792
-0.3337,-162.6917994844792
-0.3347000000000001,-163.11621287443873
-0.3357,-163.54062626439824
-0.3367000000000001,-163.82356852437124
-0.3377,-164.24798191433075
-0.3387000000000001,-164.38945304431726
-0.3397,-164.53092417430375
-0.3407000000000001,-164.53092417430375
-0.3417,-164.67239530429026
-0.3427000000000001,-164.53092417430375
-0.3437,-164.53092417430375
-0.3447000000000001,-164.81386643427678
-0.3457,-164.67239530429026
-0.3467000000000001,-164.53092417430375
-0.3477,-164.53092417430375
-0.3487000000000001,-164.67239530429026
-0.3497,-164.81386643427678
-0.3507000000000001,-164.67239530429026
-0.3517,-164.53092417430375
-0.3527000000000001,-164.53092417430375
-0.3537,-164.53092417430375
-0.3547000000000001,-164.9553375642633
-0.3557,-165.09680869424977
-0.35670000000000013,-165.2382798242363
-0.3577,-165.3797509542228
-0.35870000000000013,-165.5212220842093
-0.3597,-165.8041643441823
-0.36070000000000013,-166.0871066041553
-0.3617,-166.0871066041553
-0.3626999999999999,-166.0871066041553
-0.3637,-165.94563547416882
-0.3646999999999999,-166.22857773414182
-0.3657,-166.3700488641283
-0.3666999999999999,-166.3700488641283
-0.3677,-166.65299112410133
-0.3686999999999999,-166.79446225408785
-0.36970000000000003,-167.07740451406085
-0.3706999999999999,-167.07740451406085
-0.37170000000000003,-167.07740451406085
-0.3726999999999999,-167.21887564404733
-0.37370000000000003,-167.36034677403384
-0.3746999999999999,-167.36034677403384
-0.37570000000000003,-167.21887564404733
-0.3766999999999999,-167.50181790402033
-0.37770000000000004,-167.78476016399335
-0.3786999999999999,-168.06770242396635
-0.37970000000000004,-168.49211581392586
-0.3806999999999999,-168.77505807389886
-0.38170000000000004,-168.91652920388537
-0.38269999999999993,-168.91652920388537
-0.38370000000000004,-168.91652920388537
-0.38469999999999993,-168.63358694391238
-0.38570000000000004,-168.35064468393938
-0.38669999999999993,-167.92623129397984
-0.38770000000000004,-167.50181790402033
-0.38869999999999993,-167.07740451406085
-0.38970000000000005,-167.07740451406085
-0.39069999999999994,-167.50181790402033
-0.39170000000000005,-167.6432890340068
-0.39269999999999994,-168.06770242396635
-0.39370000000000005,-168.77505807389886
-0.39469999999999994,-169.3409425938449
-0.39570000000000005,-169.7653559838044
-0.39669999999999994,-169.3409425938449
-0.39770000000000005,-169.3409425938449
-0.39869999999999994,-168.91652920388537
-0.39970000000000006,-168.49211581392586
-0.40069999999999995,-168.06770242396635
-0.40170000000000006,-167.36034677403384
-0.40269999999999995,-167.07740451406085
-0.40370000000000006,-167.21887564404733
-0.40469999999999995,-167.36034677403384
-0.40570000000000006,-167.6432890340068
-0.40669999999999995,-167.6432890340068
-0.40770000000000006,-167.78476016399335
-0.40869999999999995,-167.92623129397984
-0.40970000000000006,-168.06770242396635
-0.41069999999999995,-168.20917355395284
-0.41170000000000007,-167.92623129397984
-0.41269999999999996,-167.92623129397984
-0.41370000000000007,-168.06770242396635
-0.41469999999999996,-168.35064468393938
-0.41570000000000007,-168.77505807389886
-0.41669999999999996,-169.0580003338719
-0.41770000000000007,-169.6238848538179
-0.41869999999999996,-170.0482982437774
-0.4197000000000001,-170.18976937376394
-0.42069999999999996,-170.18976937376394
-0.4217000000000001,-169.7653559838044
-0.42269999999999996,-169.19947146385837
-0.4237000000000001,-168.63358694391238
-0.42469999999999997,-168.35064468393938
-0.4257000000000001,-168.20917355395284
-0.42669999999999997,-168.06770242396635
-0.4277000000000001,-168.06770242396635
-0.42869999999999997,-168.35064468393938
-0.4297000000000001,-168.49211581392586
-0.43069999999999997,-168.91652920388537
-0.4317000000000001,-169.19947146385837
-0.4327,-169.3409425938449
-0.4337000000000001,-169.7653559838044
-0.4347,-169.9068271137909
-0.4357000000000001,-170.0482982437774
-0.4367,-169.9068271137909
-0.4377000000000001,-169.6238848538179
-0.4387,-169.6238848538179
-0.4397000000000001,-169.48241372383137
-0.4407,-169.6238848538179
-0.4417000000000001,-169.7653559838044
-0.4427,-170.0482982437774
-0.4437000000000001,-170.47271163373694
-0.4447,-170.75565389370993
-0.4457000000000001,-171.03859615368293
-0.4467,-171.18006728366944
-0.4477000000000001,-171.18006728366944
-0.4487,-171.18006728366944
-0.4497000000000001,-171.46300954364247
-0.4507,-171.60448067362896
-0.4517000000000001,-171.74595180361547
-0.4527,-172.0288940635885
-0.4537000000000001,-172.59477858353446
-0.4547,-173.16066310348046
-0.4557000000000001,-173.44360536345349
-0.4567,-173.44360536345349
-0.4577000000000001,-173.44360536345349
-0.4587,-173.72654762342648
-0.4597000000000001,-173.86801875341303
-0.4607,-174.0094898833995
-0.4617000000000001,-174.150961013386
-0.4627,-174.57537440334553
-0.4637000000000001,-175.28273005327804
-0.4647,-175.56567231325104
-0.4657000000000001,-175.84861457322407
-0.4667,-175.84861457322407
-0.4677000000000001,-175.84861457322407
-0.4687,-176.13155683319707
-0.4697000000000001,-176.4144990931701
-0.4707,-176.8389124831296
-0.4717000000000001,-177.2633258730891
-0.4727,-177.54626813306209
-0.4737000000000001,-177.9706815230216
-0.4747,-178.1121526530081
-0.4757000000000001,-178.3950949129811
-0.4767,-178.53656604296762
-0.4777000000000001,-178.53656604296762
-0.4787,-178.81950830294062
-0.4797000000000001,-179.24392169290016
-0.4807,-179.52686395287316
-0.48170000000000013,-179.80980621284618
-0.4827,-179.95127734283267
-0.48370000000000013,-180.37569073279218
-0.4847,-180.8001041227517
-0.48570000000000013,-181.08304638272472
-0.4867,-179.80980621284618
-0.48570000000000013,-175.99008570321055
-0.4847,-172.87772084350746
-0.48370000000000013,-169.9068271137909
-0.4827,-166.93593338407433
-0.48170000000000013,-164.10651078434424
-0.4807,-161.2770881846142
-0.4797000000000001,-158.73060784485713
-0.4787,-156.18412750510007
-0.4777000000000001,-153.920589425316
-0.4767,-151.65705134553193
-0.4757000000000001,-149.25204213576137
-0.4747,-147.27144631595033
-0.4737000000000001,-145.29085049613926
-0.4727,-143.3102546763282
-0.4717000000000001,-141.10330504853877
-0.4707,-138.8397669687547
-0.4697000000000001,-136.8733182619423
-0.4687,-135.03419357211774
-0.4677000000000001,-133.12433331729994
-0.4667,-131.24276728847948
