Potential V vs RHE, Current mA cm-2
0.013299999999999867,12.080219789547549
0.012299999999999978,10.248168656222326
0.011299999999999866,8.764136502663902
0.010299999999999976,7.413087211292793
0.009299999999999864,6.14833530921345
0.008299999999999974,4.926024746130058
0.007299999999999862,3.7051288943465317
0.006299999999999972,2.5705304318547717
0.00529999999999986,1.5250587812545096
0.0042999999999999705,0.5647527509061226
0.0032999999999998586,-0.3511313446265021
0.0022999999999999687,-1.3107300193249565
0.0012999999999998568,-2.2706116362833835
0.00029999999999996696,-3.1859298472960624
-0.000700000000000145,-4.102662769608606
-0.0017000000000000348,-4.887827541033701
-0.0027000000000001467,-5.672992312458796
-0.0037000000000000366,-6.458157083883892
-0.0047000000000001485,-7.243321855308987
-0.005700000000000038,-8.027071915434218
-0.00670000000000015,-8.85609273715513
-0.00770000000000004,-9.59740145828441
-0.008700000000000152,-10.25241279012192
-0.009700000000000042,-10.949865460955383
-0.010700000000000154,-11.647318131788847
-0.011700000000000044,-12.390041564217992
-0.012700000000000156,-13.13135028534727
-0.013700000000000045,-13.872659006476551
-0.014700000000000157,-14.529085049613924
-0.015700000000000047,-15.137410908555893
-0.01670000000000016,-15.78817810649381
-0.01770000000000005,-16.396503965435777
-0.01870000000000016,-17.061418276372343
-0.01970000000000005,-17.71218547431026
-0.020700000000000163,-18.320511333252224
-0.021700000000000053,-18.88639585319824
-0.022700000000000164,-19.452280373144255
-0.023700000000000054,-19.97572355409432
-0.024700000000000166,-20.584049413036283
-0.025700000000000056,-21.248963723972853
-0.026700000000000168,-21.899730921910766
-0.027700000000000058,-22.508056780852733
-0.02870000000000017,-23.1163826397947
-0.02970000000000006,-23.639825820744765
-0.03070000000000017,-24.24815167968673
-0.03170000000000006,-24.870624651627345
-0.03270000000000017,-25.521391849565262
-0.03370000000000006,-26.17215904750318
-0.034700000000000175,-26.738043567449193
-0.035700000000000065,-27.303928087395207
-0.03670000000000018,-27.827371268345274
-0.03770000000000007,-28.393255788291288
-0.03870000000000018,-29.001581647233255
-0.03970000000000007,-29.62405461917387
-0.04070000000000018,-30.232380478115836
-0.04170000000000007,-30.7558236590659
-0.04270000000000018,-31.27926684001596
-0.04370000000000007,-31.84515135996197
-0.044700000000000184,-32.41103587990799
-0.045700000000000074,-33.01936173884996
-0.046700000000000186,-33.627687597791926
-0.047700000000000076,-34.236013456733886
-0.04870000000000019,-34.75945663768395
-0.04970000000000008,-35.32534115762997
-0.05070000000000019,-35.806342999584075
-0.05170000000000008,-36.37222751953009
-0.05270000000000019,-36.99470049147071
-0.05370000000000008,-37.60302635041268
-0.05470000000000019,-38.16891087035869
-0.05570000000000008,-38.734795390304704
-0.056700000000000195,-39.258238571254765
-0.057700000000000085,-39.78168175220483
-0.058700000000000196,-40.3900076111468
-0.059700000000000086,-41.04077480908471
-0.0607000000000002,-41.606659329030734
-0.06170000000000009,-42.186690961975394
-0.0627000000000002,-42.79501682091736
-0.06370000000000009,-43.36090134086337
-0.0647000000000002,-44.011668538801295
-0.06570000000000009,-44.704877075735155
-0.0667000000000002,-45.412232725667685
-0.0677000000000001,-46.062999923605595
-0.0687000000000002,-46.628884443551605
-0.0697000000000001,-47.19476896349763
-0.07070000000000021,-47.76065348344364
-0.0717000000000001,-48.41142068138156
-0.07270000000000021,-49.118776331314066
-0.0737000000000001,-49.76954352925199
-0.07470000000000021,-50.37786938819396
-0.0757000000000001,-50.98619524713592
-0.07670000000000021,-51.509638428085985
-0.0777000000000001,-52.17455273902255
-0.07870000000000021,-52.91020261495237
-0.0797000000000001,-53.68829382987814
-0.08070000000000022,-54.35320814081471
-0.0817000000000001,-54.961533999756675
-0.08270000000000022,-55.484977180706736
-0.08370000000000011,-56.008420361656796
-0.08470000000000022,-56.57430488160282
-0.08570000000000011,-57.182630740544774
-0.08670000000000022,-57.7485152604908
-0.08770000000000011,-58.35684111943277
-0.08870000000000022,-58.97931409137338
-0.08970000000000011,-59.54519861131939
-0.09070000000000022,-60.15352447026136
-0.09170000000000011,-60.84673300719523
-0.09270000000000023,-61.53994154412909
-0.09370000000000012,-62.28973853305756
-0.09470000000000023,-63.02538840898739
-0.09570000000000012,-63.77518539791585
-0.09670000000000023,-64.46839393484973
-0.09770000000000012,-65.03427845479574
-0.09870000000000023,-65.68504565273366
-0.09970000000000012,-66.29337151167562
-0.10070000000000023,-66.81681469262568
-0.10170000000000012,-67.2978165345798
-0.10270000000000024,-67.82125971552985
-0.10370000000000013,-68.30226155748396
-0.10470000000000024,-68.86814607742998
-0.10570000000000013,-69.57550172736251
-0.10670000000000024,-70.31115160329232
-0.10770000000000013,-71.06094859222078
-0.10870000000000024,-71.83903980714656
-0.10970000000000013,-72.63127813507097
-0.11070000000000024,-73.3669280110008
-0.11170000000000013,-74.14501922592657
-0.11270000000000002,-74.93725755385098
-0.11370000000000013,-75.63046609078486
-0.11470000000000002,-76.11146793273898
-0.11570000000000014,-76.5924697746931
-0.11670000000000003,-76.98858893865528
-0.11770000000000014,-77.42714944161345
-0.11870000000000003,-77.95059262256353
-0.11970000000000014,-78.51647714250953
-0.12070000000000003,-79.08236166245555
-0.12170000000000014,-79.64824618240156
-0.12270000000000003,-80.29901338033947
-0.12370000000000014,-80.99222191727335
-0.12470000000000003,-81.65713622820991
-0.12570000000000014,-82.35034476514379
-0.12670000000000003,-83.04355330207765
-0.12770000000000015,-83.66602627401826
-0.12870000000000004,-84.31679347195619
-0.12970000000000015,-85.01000200889004
-0.13070000000000004,-85.70321054582392
-0.13170000000000015,-86.5378902127443
-0.13270000000000004,-87.45745255765657
-0.13370000000000015,-88.23554377258235
-0.13470000000000004,-88.9004580835189
-0.13570000000000015,-89.46634260346492
-0.13670000000000004,-90.03222712341093
-0.13770000000000016,-90.47078762636909
-0.13870000000000005,-91.03667214631511
-0.13970000000000016,-91.64499800525708
-0.14070000000000005,-92.16844118620713
-0.14170000000000016,-92.64944302816124
-0.14270000000000005,-93.25776888710321
-0.14370000000000016,-93.90853608504113
-0.14470000000000005,-94.55930328297906
-0.14570000000000016,-95.43642428889537
-0.14670000000000005,-96.21451550382113
-0.14770000000000016,-97.04919517074151
-0.14870000000000005,-97.69996236867944
-0.14970000000000017,-98.3082882276214
-0.15070000000000006,-98.83173140857146
-0.15170000000000017,-99.45420438051207
-0.15270000000000006,-100.02008890045809
-0.15370000000000017,-100.62841475940007
-0.15470000000000006,-101.19429927934607
-0.15570000000000017,-101.76018379929208
-0.15670000000000006,-102.3260683192381
-0.15770000000000017,-102.80707016119221
-0.15870000000000006,-103.37295468113824
-0.15970000000000018,-104.06616321807209
-0.16070000000000007,-104.73107752900866
-0.16170000000000018,-105.33940338795064
-0.16270000000000007,-105.99017058588855
-0.16370000000000018,-106.59849644483052
-0.16470000000000007,-107.20682230377247
-0.16570000000000018,-107.8292952757131
-0.16670000000000007,-108.64982782963483
-0.16770000000000018,-109.35718347956733
-0.16870000000000007,-110.09283335549715
-0.16970000000000018,-110.87092457042293
-0.17070000000000007,-111.57828022035544
-0.17170000000000019,-112.18660607929739
-0.17270000000000008,-112.83737327723534
-0.1737000000000002,-113.44569913617728
-0.17470000000000008,-113.92670097813141
-0.1757000000000002,-114.3228201420936
-0.17670000000000008,-114.88870466203963
-0.1777000000000002,-115.4121478429897
-0.17870000000000008,-115.97803236293572
-0.1797000000000002,-116.81271202985609
-0.18070000000000008,-117.54836190578591
-0.1817000000000002,-118.11424642573192
-0.18270000000000008,-118.76501362366983
-0.1837000000000002,-119.47236927360234
-0.1847000000000001,-120.08069513254432
-0.1857000000000002,-120.60413831349437
-0.1867000000000001,-121.21246417243634
-0.1877000000000002,-121.69346601439047
-0.1887000000000001,-122.00470250036076
-0.1897000000000002,-122.42911589032028
-0.1907000000000001,-122.95255907127036
-0.1917000000000001,-123.532590704215
-0.19269999999999998,-124.22579924114888
-0.1937000000000001,-125.00389045607463
-0.19469999999999998,-125.62636342801528
-0.1957000000000001,-126.09321815697072
-0.19669999999999999,-126.6732497899154
-0.1977000000000001,-127.09766317987489
-0.1987,-127.45134100484115
-0.1997000000000001,-127.93234284679528
-0.2007,-128.45578602774532
-0.2017000000000001,-128.752875400717
-0.2027,-129.02167054769134
-0.2037000000000001,-129.4602310506495
-0.2047,-129.9412328926036
-0.2057000000000001,-130.46467607355368
-0.2067,-131.2003259494835
-0.2077000000000001,-131.89353448641737
-0.2087,-132.47356611936203
-0.2097000000000001,-133.03945063930803
-0.2107,-133.73265917624192
-0.2117000000000001,-134.38342637417986
-0.2127,-135.09078202411234
-0.2137000000000001,-135.86887323903812
-0.2147,-136.43475775898415
-0.2157000000000001,-136.83087692294635
-0.2167,-137.31187876490046
-0.21770000000000012,-137.83532194585052
-0.2187,-138.17485265781812
-0.21970000000000012,-138.61341316077628
-0.2207,-139.1792976807223
-0.22170000000000012,-139.57541684468453
-0.2227,-140.05641868663866
-0.22370000000000012,-140.5798618675887
-0.2247,-141.2306290655266
-0.22570000000000012,-141.89554337646317
-0.2267,-142.6028990263957
-0.22770000000000012,-143.3102546763282
-0.22870000000000001,-144.01761032626072
-0.22970000000000013,-144.86643710617977
-0.23070000000000002,-145.57379275611228
-0.23170000000000013,-146.1396772760583
-0.23270000000000002,-146.5640906660178
-0.23370000000000013,-146.9885040559773
-0.23470000000000002,-147.4129174459368
-0.23570000000000013,-147.6958597059098
-0.23670000000000002,-147.97880196588284
-0.2376999999999999,-148.54468648582886
-0.23870000000000002,-149.1105710057749
-0.2396999999999999,-149.6764555257209
-0.24070000000000003,-150.38381117565342
-0.24169999999999991,-150.94969569559944
-0.24270000000000003,-151.37410908555893
-0.24369999999999992,-151.93999360550492
-0.24470000000000003,-152.78882038542397
-0.24569999999999992,-153.63764716534297
-0.24670000000000003,-154.486473945262
-0.24769999999999992,-155.33530072518104
-0.24870000000000003,-155.75971411514055
-0.24969999999999992,-156.04265637511355
-0.25070000000000003,-156.18412750510007
-0.2516999999999999,-156.32559863508658
-0.25270000000000004,-156.46706976507306
-0.2536999999999999,-156.60854089505958
-0.25470000000000004,-156.75001202504606
-0.2556999999999999,-157.03295428501906
-0.25670000000000004,-157.17442541500557
-0.25769999999999993,-157.59883880496508
-0.25870000000000004,-158.1647233249111
-0.25969999999999993,-158.73060784485713
-0.26070000000000004,-159.43796349478964
-0.26169999999999993,-160.00384801473567
-0.26270000000000004,-160.5697325346817
-0.26369999999999993,-160.99414592464117
-0.26470000000000005,-161.41855931460069
-0.26569999999999994,-161.9844438345467
-0.26670000000000005,-162.40885722450622
-0.26769999999999994,-162.97474174445222
-0.26870000000000005,-163.54062626439824
-0.26969999999999994,-163.82356852437124
-0.27070000000000005,-164.38945304431726
-0.27169999999999994,-164.81386643427678
-0.27270000000000005,-165.2382798242363
-0.27369999999999994,-165.8041643441823
-0.27470000000000006,-166.3700488641283
-0.27569999999999995,-166.79446225408785
-0.27670000000000006,-167.07740451406085
-0.27769999999999995,-167.50181790402033
-0.27870000000000006,-167.92623129397984
-0.27969999999999995,-168.20917355395284
-0.28070000000000006,-168.63358694391238
-0.28169999999999995,-168.91652920388537
-0.28270000000000006,-169.19947146385837
-0.28369999999999995,-169.7653559838044
-0.28470000000000006,-170.33124050375042
-0.28569999999999995,-170.89712502369645
-0.28670000000000007,-171.46300954364247
-0.28769999999999996,-172.0288940635885
-0.28870000000000007,-172.73624971352098
-0.28969999999999996,-173.16066310348046
-0.29070000000000007,-173.72654762342648
-0.29169999999999996,-174.85831666331853
-0.29270000000000007,-175.70714344323756
-0.29369999999999996,-176.4144990931701
-0.2947000000000001,-177.1218547431026
-0.29569999999999996,-177.4047970030756
-0.2967000000000001,-177.4047970030756
-0.29769999999999996,-177.54626813306209
-0.2987000000000001,-177.9706815230216
-0.29969999999999997,-178.25362378299462
-0.3007000000000001,-178.67803717295413
-0.30169999999999997,-179.10245056291362
-0.3027000000000001,-179.38539282288664
-0.30369999999999997,-179.66833508285964
-0.3047000000000001,-180.09274847281918
-0.30569999999999997,-180.65863299276518
-0.3067000000000001,-181.08304638272472
-0.3077,-181.79040203265723
-0.3087000000000001,-182.49775768258974
-0.3097,-183.06364220253573
-0.3107000000000001,-183.62952672248176
-0.3117,-184.33688237241427
-0.3127000000000001,-185.0442380223468
-0.3137,-185.3271802823198
-0.3147000000000001,-185.6101225422928
-0.3157,-185.89306480226583
-0.3167000000000001,-186.17600706223882
-0.3177,-186.45894932221185
-0.3187000000000001,-186.88336271217133
-0.3197,-187.30777610213087
-0.3207000000000001,-187.73218949209036
-0.3217,-188.01513175206335
-0.3227000000000001,-188.29807401203638
-0.3237,-188.8639585319824
-0.3247000000000001,-189.42984305192843
-0.3257,-189.99572757187443
-0.3267000000000001,-190.56161209182042
-0.3277,-190.84455435179345
-0.3287000000000001,-191.41043887173947
-0.3297,-191.551910001726
-0.3307000000000001,-191.69338113171247
-0.3317,-192.40073678164498
-0.3327000000000001,-192.966621301591
-0.3337,-193.249563561564
-0.3347000000000001,-193.3910346915505
-0.3357,-193.3910346915505
-0.3367000000000001,-193.249563561564
-0.3377,-193.249563561564
-0.3387000000000001,-193.3910346915505
-0.3397,-193.532505821537
-0.3407000000000001,-193.3910346915505
-0.3417,-193.532505821537
-0.3427000000000001,-193.6739769515235
-0.3437,-193.6739769515235
-0.3447000000000001,-193.9569192114965
-0.3457,-194.52280373144254
-0.3467000000000001,-194.94721712140205
-0.3477,-195.51310164134807
-0.3487000000000001,-196.0789861612941
-0.3497,-196.7863418112266
-0.3507000000000001,-197.21075520118612
-0.3517,-197.63516859114563
-0.3527000000000001,-198.05958198110514
-0.3537,-198.05958198110514
-0.3547000000000001,-198.05958198110514
-0.3557,-198.20105311109162
-0.35670000000000013,-198.3425242410781
-0.3577,-198.3425242410781
-0.35870000000000013,-198.62546650105114
-0.3597,-199.04987989101065
-0.36070000000000013,-199.33282215098367
-0.3617,-199.89870667092967
-0.3626999999999999,-200.3231200608892
-0.3637,-200.7475334508487
-0.3646999999999999,-201.03047571082172
-0.3657,-201.31341797079472
-0.3666999999999999,-201.59636023076774
-0.3677,-201.59636023076774
-0.3686999999999999,-201.59636023076774
-0.36970000000000003,-201.31341797079472
-0.3706999999999999,-201.17194684080823
-0.37170000000000003,-201.17194684080823
-0.3726999999999999,-201.4548891007812
-0.37370000000000003,-201.73783136075423
-0.3746999999999999,-201.87930249074074
-0.37570000000000003,-202.02077362072723
-0.3766999999999999,-202.16224475071377
-0.37770000000000004,-202.30371588070025
-0.3786999999999999,-202.44518701068677
-0.37970000000000004,-202.86960040064628
-0.3806999999999999,-203.15254266061928
-0.38170000000000004,-203.43548492059227
-0.38269999999999993,-203.85989831055176
-0.38370000000000004,-204.2843117005113
-0.38469999999999993,-204.42578283049778
-0.38570000000000004,-204.8501962204573
-0.38669999999999993,-205.13313848043032
-0.38770000000000004,-204.9916673504438
-0.38869999999999993,-204.9916673504438
-0.38970000000000005,-204.9916673504438
-0.39069999999999994,-204.9916673504438
-0.39170000000000005,-204.9916673504438
-0.39269999999999994,-205.41608074040332
-0.39370000000000005,-205.41608074040332
-0.39469999999999994,-205.41608074040332
-0.39570000000000005,-205.41608074040332
-0.39669999999999994,-205.41608074040332
-0.39770000000000005,-205.41608074040332
-0.39869999999999994,-205.41608074040332
-0.39970000000000006,-205.69902300037634
-0.40069999999999995,-205.69902300037634
-0.40170000000000006,-205.69902300037634
-0.40269999999999995,-205.84049413036286
-0.40370000000000006,-206.12343639033585
-0.40469999999999995,-206.26490752032234
-0.40570000000000006,-206.40637865030885
-0.40669999999999995,-206.83079204026836
-0.40770000000000006,-206.83079204026836
-0.40869999999999995,-206.83079204026836
-0.40970000000000006,-206.83079204026836
-0.41069999999999995,-206.68932091028185
-0.41170000000000007,-206.40637865030885
-0.41269999999999996,-206.40637865030885
-0.41370000000000007,-206.40637865030885
-0.41469999999999996,-206.40637865030885
-0.41570000000000007,-206.26490752032234
-0.41669999999999996,-206.26490752032234
-0.41770000000000007,-205.98196526034934
-0.41869999999999996,-205.98196526034934
-0.4197000000000001,-206.26490752032234
-0.42069999999999996,-206.40637865030885
-0.4217000000000001,-206.54784978029537
-0.42269999999999996,-206.68932091028185
-0.4237000000000001,-206.83079204026836
-0.42469999999999997,-207.1137343002414
-0.4257000000000001,-207.3966765602144
-0.42669999999999997,-207.8210899501739
-0.4277000000000001,-207.96256108016038
-0.42869999999999997,-208.1040322101469
-0.4297000000000001,-208.24550334013338
-0.43069999999999997,-208.24550334013338
-0.4317000000000001,-208.3869744701199
-0.4327,-208.6699167300929
-0.4337000000000001,-208.6699167300929
-0.4347,-208.52844560010638
-0.4357000000000001,-208.3869744701199
-0.4367,-208.24550334013338
-0.4377000000000001,-208.24550334013338
-0.4387,-208.3869744701199
-0.4397000000000001,-208.52844560010638
-0.4407,-208.52844560010638
-0.4417000000000001,-208.3869744701199
-0.4427,-208.24550334013338
-0.4437000000000001,-208.24550334013338
-0.4447,-208.1040322101469
-0.4457000000000001,-208.3869744701199
-0.4467,-208.6699167300929
-0.4477000000000001,-208.6699167300929
-0.4487,-208.95285899006592
-0.4497000000000001,-209.0943301200524
-0.4507,-209.23580125003892
-0.4517000000000001,-209.51874351001192
-0.4527,-210.08462802995794
-0.4537000000000001,-210.79198367989048
-0.4547,-211.07492593986345
-0.4557000000000001,-211.07492593986345
-0.4567,-211.07492593986345
-0.4577000000000001,-210.79198367989048
-0.4587,-210.50904141991748
-0.4597000000000001,-210.08462802995794
-0.4607,-209.66021463999843
-0.4617000000000001,-209.23580125003892
-0.4627,-208.95285899006592
-0.4637000000000001,-208.3869744701199
-0.4647,-207.67961882018741
-0.4657000000000001,-207.8210899501739
-0.4667,-208.3869744701199
-0.4677000000000001,-208.3869744701199
-0.4687,-209.51874351001192
-0.4697000000000001,-211.07492593986345
-0.4707,-211.9237527197825
-0.4717000000000001,-211.9237527197825
-0.4727,-211.9237527197825
-0.4737000000000001,-211.64081045980947
-0.4747,-211.21639706985
-0.4757000000000001,-211.21639706985
-0.4767,-211.21639706985
-0.4777000000000001,-211.499339329823
-0.4787,-211.64081045980947
-0.4797000000000001,-211.782281589796
-0.4807,-211.64081045980947
-0.48170000000000013,-211.21639706985
-0.4827,-211.499339329823
-0.48370000000000013,-212.2066949797555
-0.4847,-212.914050629688
-0.48570000000000013,-213.76287740960703
-0.4867,-213.33846401964755
-0.48570000000000013,-209.8016857699849
-0.4847,-206.40637865030885
-0.48370000000000013,-203.29401379060576
-0.4827,-200.3231200608892
-0.48170000000000013,-196.7863418112266
-0.4807,-193.81544808151003
-0.4797000000000001,-191.12749661176645
-0.4787,-187.73218949209036
-0.4777000000000001,-184.05394011244127
-0.4767,-180.8001041227517
-0.4757000000000001,-177.6877392630486
-0.4747,-175.28273005327804
-0.4737000000000001,-173.16066310348046
-0.4727,-171.46300954364247
-0.4717000000000001,-169.9068271137909
-0.4707,-168.20917355395284
-0.4697000000000001,-166.3700488641283
-0.4687,-164.38945304431726
-0.4677000000000001,-162.2673860945197
-0.4667,-160.14531914472215
-0.4657000000000001,-157.88178106493808
