Apr. 3, 2025   15:56:03
Cyclic Voltammetry
File: c:/users/guazh/data/banditlqround7_x0exp518_r20/2025-03-28-exp1031\exp1031-2025-04-03t15_44_26-arkoh\exp1031_cv_sr_700mvs_efin_-1500mv.bin
Data Source:  Experiment
Instrument Model:  CHI760E
Header: CV ran at 700 mVs
Note: 

Init E (V) = -1
High E (V) = -1
Low E (V) = -1.5
Final E (V) = -1
Init P/N = N
Scan Rate (V/s) = 0.7
Segment = 3
Sample Interval (V) = 0.001
Quiet Time (sec) = 2
Sensitivity (A/V) = 0.01
Comp R (ohm) = 1.6

Results:

Channel 1:
Segment 1:

Segment 2:

Segment 3:

Potential/V, Current/A

-1.000, -7.984e-4
-1.001, -6.627e-4
-1.002, -5.456e-4
-1.003, -4.346e-4
-1.004, -3.328e-4
-1.005, -2.342e-4
-1.006, -1.386e-4
-1.007, -4.609e-5
-1.008, 4.332e-5
-1.009, 1.296e-4
-1.010, 2.129e-4
-1.011, 2.931e-4
-1.012, 3.701e-4
-1.013, 4.441e-4
-1.014, 5.150e-4
-1.015, 5.859e-4
-1.016, 6.507e-4
-1.017, 7.185e-4
-1.018, 7.863e-4
-1.019, 8.542e-4
-1.020, 9.220e-4
-1.021, 9.868e-4
-1.022, 1.048e-3
-1.023, 1.116e-3
-1.024, 1.175e-3
-1.025, 1.233e-3
-1.026, 1.292e-3
-1.027, 1.351e-3
-1.028, 1.406e-3
-1.029, 1.462e-3
-1.030, 1.520e-3
-1.031, 1.579e-3
-1.032, 1.640e-3
-1.033, 1.699e-3
-1.034, 1.754e-3
-1.035, 1.810e-3
-1.036, 1.865e-3
-1.037, 1.918e-3
-1.038, 1.970e-3
-1.039, 2.020e-3
-1.040, 2.069e-3
-1.041, 2.118e-3
-1.042, 2.171e-3
-1.043, 2.220e-3
-1.044, 2.272e-3
-1.045, 2.322e-3
-1.046, 2.371e-3
-1.047, 2.420e-3
-1.048, 2.467e-3
-1.049, 2.516e-3
-1.050, 2.562e-3
-1.051, 2.612e-3
-1.052, 2.661e-3
-1.053, 2.707e-3
-1.054, 2.760e-3
-1.055, 2.812e-3
-1.056, 2.864e-3
-1.057, 2.917e-3
-1.058, 2.966e-3
-1.059, 3.015e-3
-1.060, 3.065e-3
-1.061, 3.114e-3
-1.062, 3.163e-3
-1.063, 3.213e-3
-1.064, 3.265e-3
-1.065, 3.318e-3
-1.066, 3.373e-3
-1.067, 3.425e-3
-1.068, 3.481e-3
-1.069, 3.533e-3
-1.070, 3.583e-3
-1.071, 3.629e-3
-1.072, 3.678e-3
-1.073, 3.725e-3
-1.074, 3.771e-3
-1.075, 3.820e-3
-1.076, 3.869e-3
-1.077, 3.919e-3
-1.078, 3.971e-3
-1.079, 4.027e-3
-1.080, 4.082e-3
-1.081, 4.135e-3
-1.082, 4.184e-3
-1.083, 4.236e-3
-1.084, 4.286e-3
-1.085, 4.338e-3
-1.086, 4.387e-3
-1.087, 4.437e-3
-1.088, 4.486e-3
-1.089, 4.538e-3
-1.090, 4.591e-3
-1.091, 4.649e-3
-1.092, 4.702e-3
-1.093, 4.754e-3
-1.094, 4.804e-3
-1.095, 4.856e-3
-1.096, 4.908e-3
-1.097, 4.958e-3
-1.098, 5.007e-3
-1.099, 5.056e-3
-1.100, 5.106e-3
-1.101, 5.155e-3
-1.102, 5.211e-3
-1.103, 5.263e-3
-1.104, 5.315e-3
-1.105, 5.365e-3
-1.106, 5.417e-3
-1.107, 5.470e-3
-1.108, 5.525e-3
-1.109, 5.581e-3
-1.110, 5.633e-3
-1.111, 5.685e-3
-1.112, 5.741e-3
-1.113, 5.799e-3
-1.114, 5.858e-3
-1.115, 5.920e-3
-1.116, 5.978e-3
-1.117, 6.034e-3
-1.118, 6.092e-3
-1.119, 6.151e-3
-1.120, 6.213e-3
-1.121, 6.271e-3
-1.122, 6.330e-3
-1.123, 6.385e-3
-1.124, 6.441e-3
-1.125, 6.499e-3
-1.126, 6.561e-3
-1.127, 6.620e-3
-1.128, 6.675e-3
-1.129, 6.728e-3
-1.130, 6.780e-3
-1.131, 6.835e-3
-1.132, 6.891e-3
-1.133, 6.946e-3
-1.134, 6.999e-3
-1.135, 7.051e-3
-1.136, 7.104e-3
-1.137, 7.159e-3
-1.138, 7.218e-3
-1.139, 7.273e-3
-1.140, 7.323e-3
-1.141, 7.369e-3
-1.142, 7.418e-3
-1.143, 7.467e-3
-1.144, 7.520e-3
-1.145, 7.575e-3
-1.146, 7.631e-3
-1.147, 7.689e-3
-1.148, 7.754e-3
-1.149, 7.819e-3
-1.150, 7.890e-3
-1.151, 7.955e-3
-1.152, 8.010e-3
-1.153, 8.072e-3
-1.154, 8.124e-3
-1.155, 8.180e-3
-1.156, 8.238e-3
-1.157, 8.294e-3
-1.158, 8.346e-3
-1.159, 8.405e-3
-1.160, 8.466e-3
-1.161, 8.534e-3
-1.162, 8.602e-3
-1.163, 8.667e-3
-1.164, 8.725e-3
-1.165, 8.778e-3
-1.166, 8.833e-3
-1.167, 8.886e-3
-1.168, 8.938e-3
-1.169, 8.991e-3
-1.170, 9.040e-3
-1.171, 9.089e-3
-1.172, 9.138e-3
-1.173, 9.191e-3
-1.174, 9.246e-3
-1.175, 9.299e-3
-1.176, 9.351e-3
-1.177, 9.404e-3
-1.178, 9.459e-3
-1.179, 9.512e-3
-1.180, 9.573e-3
-1.181, 9.632e-3
-1.182, 9.693e-3
-1.183, 9.755e-3
-1.184, 9.826e-3
-1.185, 9.903e-3
-1.186, 9.974e-3
-1.187, 1.004e-2
-1.188, 1.011e-2
-1.189, 1.017e-2
-1.190, 1.022e-2
-1.191, 1.029e-2
-1.192, 1.035e-2
-1.193, 1.040e-2
-1.194, 1.046e-2
-1.195, 1.051e-2
-1.196, 1.056e-2
-1.197, 1.061e-2
-1.198, 1.066e-2
-1.199, 1.070e-2
-1.200, 1.074e-2
-1.201, 1.078e-2
-1.202, 1.083e-2
-1.203, 1.087e-2
-1.204, 1.092e-2
-1.205, 1.097e-2
-1.206, 1.102e-2
-1.207, 1.108e-2
-1.208, 1.114e-2
-1.209, 1.120e-2
-1.210, 1.126e-2
-1.211, 1.131e-2
-1.212, 1.136e-2
-1.213, 1.141e-2
-1.214, 1.147e-2
-1.215, 1.152e-2
-1.216, 1.157e-2
-1.217, 1.163e-2
-1.218, 1.168e-2
-1.219, 1.174e-2
-1.220, 1.181e-2
-1.221, 1.188e-2
-1.222, 1.194e-2
-1.223, 1.200e-2
-1.224, 1.206e-2
-1.225, 1.211e-2
-1.226, 1.217e-2
-1.227, 1.223e-2
-1.228, 1.228e-2
-1.229, 1.234e-2
-1.230, 1.239e-2
-1.231, 1.244e-2
-1.232, 1.250e-2
-1.233, 1.255e-2
-1.234, 1.260e-2
-1.235, 1.265e-2
-1.236, 1.270e-2
-1.237, 1.274e-2
-1.238, 1.279e-2
-1.239, 1.284e-2
-1.240, 1.290e-2
-1.241, 1.296e-2
-1.242, 1.301e-2
-1.243, 1.306e-2
-1.244, 1.312e-2
-1.245, 1.318e-2
-1.246, 1.323e-2
-1.247, 1.328e-2
-1.248, 1.332e-2
-1.249, 1.337e-2
-1.250, 1.342e-2
-1.251, 1.346e-2
-1.252, 1.351e-2
-1.253, 1.355e-2
-1.254, 1.359e-2
-1.255, 1.364e-2
-1.256, 1.369e-2
-1.257, 1.374e-2
-1.258, 1.378e-2
-1.259, 1.383e-2
-1.260, 1.388e-2
-1.261, 1.394e-2
-1.262, 1.399e-2
-1.263, 1.403e-2
-1.264, 1.408e-2
-1.265, 1.413e-2
-1.266, 1.418e-2
-1.267, 1.423e-2
-1.268, 1.429e-2
-1.269, 1.435e-2
-1.270, 1.440e-2
-1.271, 1.445e-2
-1.272, 1.450e-2
-1.273, 1.455e-2
-1.274, 1.461e-2
-1.275, 1.466e-2
-1.276, 1.471e-2
-1.277, 1.476e-2
-1.278, 1.481e-2
-1.279, 1.487e-2
-1.280, 1.493e-2
-1.281, 1.498e-2
-1.282, 1.502e-2
-1.283, 1.507e-2
-1.284, 1.512e-2
-1.285, 1.518e-2
-1.286, 1.523e-2
-1.287, 1.527e-2
-1.288, 1.531e-2
-1.289, 1.534e-2
-1.290, 1.538e-2
-1.291, 1.542e-2
-1.292, 1.546e-2
-1.293, 1.549e-2
-1.294, 1.554e-2
-1.295, 1.559e-2
-1.296, 1.564e-2
-1.297, 1.570e-2
-1.298, 1.575e-2
-1.299, 1.580e-2
-1.300, 1.586e-2
-1.301, 1.591e-2
-1.302, 1.597e-2
-1.303, 1.602e-2
-1.304, 1.606e-2
-1.305, 1.610e-2
-1.306, 1.615e-2
-1.307, 1.619e-2
-1.308, 1.624e-2
-1.309, 1.628e-2
-1.310, 1.632e-2
-1.311, 1.635e-2
-1.312, 1.639e-2
-1.313, 1.643e-2
-1.314, 1.648e-2
-1.315, 1.652e-2
-1.316, 1.657e-2
-1.317, 1.661e-2
-1.318, 1.665e-2
-1.319, 1.670e-2
-1.320, 1.674e-2
-1.321, 1.678e-2
-1.322, 1.682e-2
-1.323, 1.686e-2
-1.324, 1.689e-2
-1.325, 1.693e-2
-1.326, 1.697e-2
-1.327, 1.700e-2
-1.328, 1.703e-2
-1.329, 1.706e-2
-1.330, 1.710e-2
-1.331, 1.715e-2
-1.332, 1.720e-2
-1.333, 1.726e-2
-1.334, 1.732e-2
-1.335, 1.739e-2
-1.336, 1.745e-2
-1.337, 1.752e-2
-1.338, 1.758e-2
-1.339, 1.764e-2
-1.340, 1.768e-2
-1.341, 1.771e-2
-1.342, 1.775e-2
-1.343, 1.779e-2
-1.344, 1.782e-2
-1.345, 1.785e-2
-1.346, 1.788e-2
-1.347, 1.791e-2
-1.348, 1.795e-2
-1.349, 1.799e-2
-1.350, 1.803e-2
-1.351, 1.806e-2
-1.352, 1.810e-2
-1.353, 1.813e-2
-1.354, 1.818e-2
-1.355, 1.823e-2
-1.356, 1.826e-2
-1.357, 1.830e-2
-1.358, 1.834e-2
-1.359, 1.840e-2
-1.360, 1.843e-2
-1.361, 1.845e-2
-1.362, 1.847e-2
-1.363, 1.850e-2
-1.364, 1.855e-2
-1.365, 1.860e-2
-1.366, 1.866e-2
-1.367, 1.872e-2
-1.368, 1.879e-2
-1.369, 1.886e-2
-1.370, 1.892e-2
-1.371, 1.899e-2
-1.372, 1.905e-2
-1.373, 1.908e-2
-1.374, 1.910e-2
-1.375, 1.914e-2
-1.376, 1.916e-2
-1.377, 1.918e-2
-1.378, 1.919e-2
-1.379, 1.920e-2
-1.380, 1.921e-2
-1.381, 1.923e-2
-1.382, 1.925e-2
-1.383, 1.927e-2
-1.384, 1.928e-2
-1.385, 1.931e-2
-1.386, 1.933e-2
-1.387, 1.934e-2
-1.388, 1.935e-2
-1.389, 1.937e-2
-1.390, 1.939e-2
-1.391, 1.943e-2
-1.392, 1.946e-2
-1.393, 1.949e-2
-1.394, 1.951e-2
-1.395, 1.954e-2
-1.396, 1.958e-2
-1.397, 1.962e-2
-1.398, 1.967e-2
-1.399, 1.970e-2
-1.400, 1.973e-2
-1.401, 1.978e-2
-1.402, 1.984e-2
-1.403, 1.990e-2
-1.404, 1.994e-2
-1.405, 1.999e-2
-1.406, 2.004e-2
-1.407, 2.009e-2
-1.408, 2.015e-2
-1.409, 2.021e-2
-1.410, 2.025e-2
-1.411, 2.029e-2
-1.412, 2.031e-2
-1.413, 2.035e-2
-1.414, 2.040e-2
-1.415, 2.046e-2
-1.416, 2.051e-2
-1.417, 2.054e-2
-1.418, 2.057e-2
-1.419, 2.060e-2
-1.420, 2.063e-2
-1.421, 2.065e-2
-1.422, 2.064e-2
-1.423, 2.063e-2
-1.424, 2.063e-2
-1.425, 2.064e-2
-1.426, 2.064e-2
-1.427, 2.066e-2
-1.428, 2.067e-2
-1.429, 2.069e-2
-1.430, 2.071e-2
-1.431, 2.073e-2
-1.432, 2.077e-2
-1.433, 2.080e-2
-1.434, 2.085e-2
-1.435, 2.089e-2
-1.436, 2.092e-2
-1.437, 2.096e-2
-1.438, 2.101e-2
-1.439, 2.105e-2
-1.440, 2.110e-2
-1.441, 2.113e-2
-1.442, 2.116e-2
-1.443, 2.120e-2
-1.444, 2.124e-2
-1.445, 2.129e-2
-1.446, 2.132e-2
-1.447, 2.134e-2
-1.448, 2.137e-2
-1.449, 2.138e-2
-1.450, 2.140e-2
-1.451, 2.142e-2
-1.452, 2.144e-2
-1.453, 2.145e-2
-1.454, 2.146e-2
-1.455, 2.147e-2
-1.456, 2.149e-2
-1.457, 2.150e-2
-1.458, 2.150e-2
-1.459, 2.150e-2
-1.460, 2.150e-2
-1.461, 2.150e-2
-1.462, 2.151e-2
-1.463, 2.153e-2
-1.464, 2.154e-2
-1.465, 2.154e-2
-1.466, 2.155e-2
-1.467, 2.157e-2
-1.468, 2.160e-2
-1.469, 2.161e-2
-1.470, 2.159e-2
-1.471, 2.159e-2
-1.472, 2.159e-2
-1.473, 2.161e-2
-1.474, 2.163e-2
-1.475, 2.163e-2
-1.476, 2.165e-2
-1.477, 2.165e-2
-1.478, 2.167e-2
-1.479, 2.168e-2
-1.480, 2.171e-2
-1.481, 2.173e-2
-1.482, 2.173e-2
-1.483, 2.173e-2
-1.484, 2.175e-2
-1.485, 2.177e-2
-1.486, 2.179e-2
-1.487, 2.180e-2
-1.488, 2.181e-2
-1.489, 2.181e-2
-1.490, 2.180e-2
-1.491, 2.180e-2
-1.492, 2.181e-2
-1.493, 2.179e-2
-1.494, 2.178e-2
-1.495, 2.178e-2
-1.496, 2.179e-2
-1.497, 2.179e-2
-1.498, 2.180e-2
-1.499, 2.181e-2
-1.500, 2.170e-2
-1.499, 2.141e-2
-1.498, 2.115e-2
-1.497, 2.090e-2
-1.496, 2.067e-2
-1.495, 2.044e-2
-1.494, 2.020e-2
-1.493, 1.997e-2
-1.492, 1.975e-2
-1.491, 1.953e-2
-1.490, 1.931e-2
-1.489, 1.909e-2
-1.488, 1.887e-2
-1.487, 1.865e-2
-1.486, 1.843e-2
-1.485, 1.820e-2
-1.484, 1.797e-2
-1.483, 1.777e-2
-1.482, 1.757e-2
-1.481, 1.736e-2
-1.480, 1.718e-2
-1.479, 1.700e-2
-1.478, 1.682e-2
-1.477, 1.663e-2
-1.476, 1.645e-2
-1.475, 1.626e-2
-1.474, 1.607e-2
-1.473, 1.589e-2
-1.472, 1.571e-2
-1.471, 1.553e-2
-1.470, 1.535e-2
-1.469, 1.518e-2
-1.468, 1.501e-2
-1.467, 1.485e-2
-1.466, 1.469e-2
-1.465, 1.452e-2
-1.464, 1.436e-2
-1.463, 1.419e-2
-1.462, 1.403e-2
-1.461, 1.387e-2
-1.460, 1.370e-2
-1.459, 1.353e-2
-1.458, 1.336e-2
-1.457, 1.319e-2
-1.456, 1.303e-2
-1.455, 1.288e-2
-1.454, 1.273e-2
-1.453, 1.257e-2
-1.452, 1.242e-2
-1.451, 1.228e-2
-1.450, 1.213e-2
-1.449, 1.199e-2
-1.448, 1.185e-2
-1.447, 1.171e-2
-1.446, 1.157e-2
-1.445, 1.143e-2
-1.444, 1.129e-2
-1.443, 1.115e-2
-1.442, 1.101e-2
-1.441, 1.086e-2
-1.440, 1.072e-2
-1.439, 1.056e-2
-1.438, 1.041e-2
-1.437, 1.028e-2
-1.436, 1.013e-2
-1.435, 9.999e-3
-1.434, 9.869e-3
-1.433, 9.740e-3
-1.432, 9.619e-3
-1.431, 9.502e-3
-1.430, 9.388e-3
-1.429, 9.277e-3
-1.428, 9.157e-3
-1.427, 9.034e-3
-1.426, 8.917e-3
-1.425, 8.806e-3
-1.424, 8.701e-3
-1.423, 8.587e-3
-1.422, 8.473e-3
-1.421, 8.365e-3
-1.420, 8.257e-3
-1.419, 8.146e-3
-1.418, 8.022e-3
-1.417, 7.893e-3
-1.416, 7.770e-3
-1.415, 7.649e-3
-1.414, 7.529e-3
-1.413, 7.403e-3
-1.412, 7.282e-3
-1.411, 7.165e-3
-1.410, 7.051e-3
-1.409, 6.940e-3
-1.408, 6.838e-3
-1.407, 6.734e-3
-1.406, 6.626e-3
-1.405, 6.521e-3
-1.404, 6.413e-3
-1.403, 6.308e-3
-1.402, 6.203e-3
-1.401, 6.095e-3
-1.400, 5.988e-3
-1.399, 5.886e-3
-1.398, 5.784e-3
-1.397, 5.682e-3
-1.396, 5.584e-3
-1.395, 5.485e-3
-1.394, 5.383e-3
-1.393, 5.285e-3
-1.392, 5.186e-3
-1.391, 5.093e-3
-1.390, 4.995e-3
-1.389, 4.896e-3
-1.388, 4.797e-3
-1.387, 4.705e-3
-1.386, 4.616e-3
-1.385, 4.526e-3
-1.384, 4.440e-3
-1.383, 4.350e-3
-1.382, 4.261e-3
-1.381, 4.172e-3
-1.380, 4.082e-3
-1.379, 3.993e-3
-1.378, 3.903e-3
-1.377, 3.817e-3
-1.376, 3.731e-3
-1.375, 3.647e-3
-1.374, 3.564e-3
-1.373, 3.484e-3
-1.372, 3.401e-3
-1.371, 3.318e-3
-1.370, 3.234e-3
-1.369, 3.148e-3
-1.368, 3.065e-3
-1.367, 2.982e-3
-1.366, 2.898e-3
-1.365, 2.815e-3
-1.364, 2.732e-3
-1.363, 2.652e-3
-1.362, 2.571e-3
-1.361, 2.497e-3
-1.360, 2.414e-3
-1.359, 2.334e-3
-1.358, 2.257e-3
-1.357, 2.180e-3
-1.356, 2.100e-3
-1.355, 2.020e-3
-1.354, 1.946e-3
-1.353, 1.869e-3
-1.352, 1.795e-3
-1.351, 1.724e-3
-1.350, 1.653e-3
-1.349, 1.585e-3
-1.348, 1.514e-3
-1.347, 1.443e-3
-1.346, 1.372e-3
-1.345, 1.295e-3
-1.344, 1.224e-3
-1.343, 1.153e-3
-1.342, 1.085e-3
-1.341, 1.014e-3
-1.340, 9.467e-4
-1.339, 8.819e-4
-1.338, 8.141e-4
-1.337, 7.463e-4
-1.336, 6.784e-4
-1.335, 6.075e-4
-1.334, 5.397e-4
-1.333, 4.719e-4
-1.332, 4.010e-4
-1.331, 3.331e-4
-1.330, 2.684e-4
-1.329, 2.036e-4
-1.328, 1.420e-4
-1.327, 7.723e-5
-1.326, 1.557e-5
-1.325, -4.301e-5
-1.324, -1.047e-4
-1.323, -1.663e-4
-1.322, -2.280e-4
-1.321, -2.897e-4
-1.320, -3.544e-4
-1.319, -4.161e-4
-1.318, -4.777e-4
-1.317, -5.332e-4
-1.316, -5.949e-4
-1.315, -6.535e-4
-1.314, -7.090e-4
-1.313, -7.706e-4
-1.312, -8.292e-4
-1.311, -8.909e-4
-1.310, -9.494e-4
-1.309, -1.011e-3
-1.308, -1.073e-3
-1.307, -1.134e-3
-1.306, -1.190e-3
-1.305, -1.245e-3
-1.304, -1.301e-3
-1.303, -1.353e-3
-1.302, -1.406e-3
-1.301, -1.458e-3
-1.300, -1.511e-3
-1.299, -1.566e-3
-1.298, -1.622e-3
-1.297, -1.680e-3
-1.296, -1.736e-3
-1.295, -1.791e-3
-1.294, -1.844e-3
-1.293, -1.899e-3
-1.292, -1.948e-3
-1.291, -1.998e-3
-1.290, -2.047e-3
-1.289, -2.099e-3
-1.288, -2.149e-3
-1.287, -2.201e-3
-1.286, -2.251e-3
-1.285, -2.303e-3
-1.284, -2.355e-3
-1.283, -2.405e-3
-1.282, -2.451e-3
-1.281, -2.497e-3
-1.280, -2.546e-3
-1.279, -2.593e-3
-1.278, -2.645e-3
-1.277, -2.694e-3
-1.276, -2.747e-3
-1.275, -2.799e-3
-1.274, -2.852e-3
-1.273, -2.907e-3
-1.272, -2.960e-3
-1.271, -3.009e-3
-1.270, -3.055e-3
-1.269, -3.101e-3
-1.268, -3.148e-3
-1.267, -3.191e-3
-1.266, -3.237e-3
-1.265, -3.280e-3
-1.264, -3.327e-3
-1.263, -3.373e-3
-1.262, -3.425e-3
-1.261, -3.478e-3
-1.260, -3.530e-3
-1.259, -3.576e-3
-1.258, -3.622e-3
-1.257, -3.669e-3
-1.256, -3.712e-3
-1.255, -3.761e-3
-1.254, -3.807e-3
-1.253, -3.851e-3
-1.252, -3.897e-3
-1.251, -3.940e-3
-1.250, -3.986e-3
-1.249, -4.033e-3
-1.248, -4.079e-3
-1.247, -4.119e-3
-1.246, -4.159e-3
-1.245, -4.202e-3
-1.244, -4.245e-3
-1.243, -4.288e-3
-1.242, -4.335e-3
-1.241, -4.378e-3
-1.240, -4.424e-3
-1.239, -4.470e-3
-1.238, -4.517e-3
-1.237, -4.563e-3
-1.236, -4.609e-3
-1.235, -4.652e-3
-1.234, -4.695e-3
-1.233, -4.742e-3
-1.232, -4.788e-3
-1.231, -4.837e-3
-1.230, -4.883e-3
-1.229, -4.936e-3
-1.228, -4.985e-3
-1.227, -5.035e-3
-1.226, -5.084e-3
-1.225, -5.130e-3
-1.224, -5.173e-3
-1.223, -5.216e-3
-1.222, -5.260e-3
-1.221, -5.300e-3
-1.220, -5.343e-3
-1.219, -5.383e-3
-1.218, -5.423e-3
-1.217, -5.466e-3
-1.216, -5.509e-3
-1.215, -5.556e-3
-1.214, -5.602e-3
-1.213, -5.648e-3
-1.212, -5.694e-3
-1.211, -5.734e-3
-1.210, -5.778e-3
-1.209, -5.818e-3
-1.208, -5.861e-3
-1.207, -5.907e-3
-1.206, -5.950e-3
-1.205, -5.996e-3
-1.204, -6.046e-3
-1.203, -6.095e-3
-1.202, -6.148e-3
-1.201, -6.200e-3
-1.200, -6.249e-3
-1.199, -6.302e-3
-1.198, -6.348e-3
-1.197, -6.397e-3
-1.196, -6.450e-3
-1.195, -6.502e-3
-1.194, -6.555e-3
-1.193, -6.607e-3
-1.192, -6.662e-3
-1.191, -6.718e-3
-1.190, -6.773e-3
-1.189, -6.826e-3
-1.188, -6.872e-3
-1.187, -6.912e-3
-1.186, -6.955e-3
-1.185, -6.999e-3
-1.184, -7.045e-3
-1.183, -7.094e-3
-1.182, -7.146e-3
-1.181, -7.199e-3
-1.180, -7.251e-3
-1.179, -7.304e-3
-1.178, -7.359e-3
-1.177, -7.415e-3
-1.176, -7.461e-3
-1.175, -7.507e-3
-1.174, -7.550e-3
-1.173, -7.597e-3
-1.172, -7.640e-3
-1.171, -7.686e-3
-1.170, -7.729e-3
-1.169, -7.775e-3
-1.168, -7.825e-3
-1.167, -7.874e-3
-1.166, -7.920e-3
-1.165, -7.957e-3
-1.164, -7.997e-3
-1.163, -8.038e-3
-1.162, -8.075e-3
-1.161, -8.118e-3
-1.160, -8.167e-3
-1.159, -8.216e-3
-1.158, -8.266e-3
-1.157, -8.312e-3
-1.156, -8.364e-3
-1.155, -8.420e-3
-1.154, -8.475e-3
-1.153, -8.534e-3
-1.152, -8.592e-3
-1.151, -8.651e-3
-1.150, -8.710e-3
-1.149, -8.765e-3
-1.148, -8.821e-3
-1.147, -8.873e-3
-1.146, -8.922e-3
-1.145, -8.972e-3
-1.144, -9.021e-3
-1.143, -9.070e-3
-1.142, -9.120e-3
-1.141, -9.163e-3
-1.140, -9.203e-3
-1.139, -9.249e-3
-1.138, -9.295e-3
-1.137, -9.345e-3
-1.136, -9.391e-3
-1.135, -9.437e-3
-1.134, -9.480e-3
-1.133, -9.533e-3
-1.132, -9.585e-3
-1.131, -9.631e-3
-1.130, -9.678e-3
-1.129, -9.718e-3
-1.128, -9.758e-3
-1.127, -9.798e-3
-1.126, -9.847e-3
-1.125, -9.903e-3
-1.124, -9.958e-3
-1.123, -1.001e-2
-1.122, -1.006e-2
-1.121, -1.012e-2
-1.120, -1.017e-2
-1.119, -1.023e-2
-1.118, -1.028e-2
-1.117, -1.032e-2
-1.116, -1.037e-2
-1.115, -1.042e-2
-1.114, -1.047e-2
-1.113, -1.052e-2
-1.112, -1.056e-2
-1.111, -1.061e-2
-1.110, -1.065e-2
-1.109, -1.068e-2
-1.108, -1.072e-2
-1.107, -1.076e-2
-1.106, -1.080e-2
-1.105, -1.084e-2
-1.104, -1.087e-2
-1.103, -1.091e-2
-1.102, -1.095e-2
-1.101, -1.100e-2
-1.100, -1.104e-2
-1.099, -1.109e-2
-1.098, -1.114e-2
-1.097, -1.119e-2
-1.096, -1.124e-2
-1.095, -1.129e-2
-1.094, -1.135e-2
-1.093, -1.140e-2
-1.092, -1.144e-2
-1.091, -1.149e-2
-1.090, -1.155e-2
-1.089, -1.160e-2
-1.088, -1.166e-2
-1.087, -1.171e-2
-1.086, -1.176e-2
-1.085, -1.181e-2
-1.084, -1.187e-2
-1.083, -1.192e-2
-1.082, -1.197e-2
-1.081, -1.201e-2
-1.080, -1.206e-2
-1.079, -1.210e-2
-1.078, -1.214e-2
-1.077, -1.218e-2
-1.076, -1.221e-2
-1.075, -1.224e-2
-1.074, -1.228e-2
-1.073, -1.231e-2
-1.072, -1.235e-2
-1.071, -1.238e-2
-1.070, -1.242e-2
-1.069, -1.244e-2
-1.068, -1.248e-2
-1.067, -1.251e-2
-1.066, -1.255e-2
-1.065, -1.259e-2
-1.064, -1.263e-2
-1.063, -1.267e-2
-1.062, -1.271e-2
-1.061, -1.275e-2
-1.060, -1.280e-2
-1.059, -1.283e-2
-1.058, -1.286e-2
-1.057, -1.290e-2
-1.056, -1.294e-2
-1.055, -1.298e-2
-1.054, -1.303e-2
-1.053, -1.307e-2
-1.052, -1.312e-2
-1.051, -1.316e-2
-1.050, -1.319e-2
-1.049, -1.323e-2
-1.048, -1.328e-2
-1.047, -1.331e-2
-1.046, -1.335e-2
-1.045, -1.340e-2
-1.044, -1.345e-2
-1.043, -1.349e-2
-1.042, -1.353e-2
-1.041, -1.357e-2
-1.040, -1.362e-2
-1.039, -1.366e-2
-1.038, -1.370e-2
-1.037, -1.374e-2
-1.036, -1.378e-2
-1.035, -1.381e-2
-1.034, -1.383e-2
-1.033, -1.386e-2
-1.032, -1.388e-2
-1.031, -1.391e-2
-1.030, -1.395e-2
-1.029, -1.398e-2
-1.028, -1.402e-2
-1.027, -1.405e-2
-1.026, -1.408e-2
-1.025, -1.411e-2
-1.024, -1.413e-2
-1.023, -1.416e-2
-1.022, -1.419e-2
-1.021, -1.423e-2
-1.020, -1.426e-2
-1.019, -1.429e-2
-1.018, -1.433e-2
-1.017, -1.435e-2
-1.016, -1.438e-2
-1.015, -1.441e-2
-1.014, -1.445e-2
-1.013, -1.449e-2
-1.012, -1.453e-2
-1.011, -1.456e-2
-1.010, -1.458e-2
-1.009, -1.460e-2
-1.008, -1.464e-2
-1.007, -1.467e-2
-1.006, -1.469e-2
-1.005, -1.472e-2
-1.004, -1.475e-2
-1.003, -1.478e-2
-1.002, -1.481e-2
-1.001, -1.485e-2
