Potential V vs RHE, Current mA cm-2
0.013299999999999867,10.541013895294387
0.012299999999999978,9.024443381839069
0.011299999999999866,7.667735245268498
0.010299999999999976,6.444009970885243
0.009299999999999864,5.457956194879311
0.008299999999999974,4.4775612640728415
0.007299999999999862,3.4702868185689346
0.006299999999999972,2.659657243746269
0.00529999999999986,1.9070308322180693
0.0042999999999999705,1.042359285740559
0.0032999999999998586,0.2959576039317657
0.0022999999999999687,-0.34066248100750085
0.0012999999999998568,-1.1060212942344858
0.00029999999999996696,-1.8278069994256272
-0.000700000000000145,-2.3936915193716417
-0.0017000000000000348,-3.0232380478115832
-0.0027000000000001467,-3.710787739545991
-0.0037000000000000366,-4.2526221673943
-0.0047000000000001485,-4.773235925744634
-0.005700000000000038,-5.425417834982416
-0.00670000000000015,-5.97432581933005
-0.00770000000000004,-6.4199598787875365
-0.008700000000000152,-7.012723913430986
-0.009700000000000042,-7.591340835075788
-0.010700000000000154,-8.03273076063368
-0.011700000000000044,-8.532123849486036
-0.012700000000000156,-9.107911348531106
-0.013700000000000045,-9.53656887239021
-0.014700000000000157,-9.980788220547833
-0.015700000000000047,-10.556575719592905
-0.01670000000000016,-11.055968808445261
-0.01770000000000005,-11.442184993308418
-0.01870000000000016,-11.935919236961313
-0.01970000000000005,-12.419750501515157
-0.020700000000000163,-12.769184192581822
-0.021700000000000053,-13.207744695539983
-0.022700000000000164,-13.756652679887615
-0.023700000000000054,-14.144283576050634
-0.024700000000000166,-14.514937936615278
-0.025700000000000056,-15.03838111756534
-0.026700000000000168,-15.462794507524851
-0.027700000000000058,-15.78817810649381
-0.02870000000000017,-16.24088572245062
-0.02970000000000006,-16.736034677403385
-0.03070000000000017,-17.089712502369647
-0.03170000000000006,-17.514125892329155
-0.03270000000000017,-18.08001041227517
-0.03370000000000006,-18.461982463238726
-0.034700000000000175,-18.858101627200938
-0.035700000000000065,-19.381544808151002
-0.03670000000000018,-19.805958198110513
-0.03770000000000007,-20.117194684080822
-0.03870000000000018,-20.555755187038983
-0.03970000000000007,-20.980168576998494
-0.04070000000000018,-21.30555217596745
-0.04170000000000007,-21.772406904922917
-0.04270000000000018,-22.309997198871628
-0.04370000000000007,-22.72026347583249
-0.044700000000000184,-23.102235526796047
-0.045700000000000074,-23.55494314275286
-0.046700000000000186,-23.93691519371642
-0.047700000000000076,-24.27644590568403
-0.04870000000000019,-24.757447747638142
-0.04970000000000008,-25.266743815589557
-0.05070000000000019,-25.592127414558515
-0.05170000000000008,-26.030687917516673
-0.05270000000000019,-26.55413109846674
-0.05370000000000008,-26.921956036431645
-0.05470000000000019,-27.289780974396557
-0.05570000000000008,-27.799077042347974
-0.056700000000000195,-28.237637545306132
-0.057700000000000085,-28.49228557928184
-0.058700000000000196,-28.97328742123595
-0.059700000000000086,-29.581613280177915
-0.0607000000000002,-29.991879557138777
-0.06170000000000009,-30.444587173095588
-0.0627000000000002,-30.953883241047
-0.06370000000000009,-31.350002405009217
-0.0647000000000002,-31.689533116976815
-0.06570000000000009,-32.09979939393769
-0.0667000000000002,-32.439330105905285
-0.0677000000000001,-32.821302156868846
-0.0687000000000002,-33.40133378981351
-0.0697000000000001,-33.910629857764924
-0.07070000000000021,-34.306749021727136
-0.0717000000000001,-34.85848642867451
-0.07270000000000021,-35.38192960962457
-0.0737000000000001,-35.79219588658543
-0.07470000000000021,-36.230756389543586
-0.0757000000000001,-36.69761111849905
-0.07670000000000021,-36.96640626547341
-0.0777000000000001,-37.249348525446415
-0.07870000000000021,-37.90011572338433
-0.0797000000000001,-38.42355890433439
-0.08070000000000022,-38.5650300343209
-0.0817000000000001,-38.791383842299304
-0.08270000000000022,-39.30067991025072
-0.08370000000000011,-39.86656443019674
-0.08470000000000022,-40.29097782015624
-0.08570000000000011,-40.84271522710361
-0.08670000000000022,-41.42274686004827
-0.08770000000000011,-41.77642468501453
-0.08870000000000022,-42.214985187972694
-0.08970000000000011,-42.540368786941656
-0.09070000000000022,-42.766722594920054
-0.09170000000000011,-43.17698887188092
-0.09270000000000023,-43.72872627882828
-0.09370000000000012,-44.16728678178645
-0.09470000000000023,-44.67658284973786
-0.09570000000000012,-45.35564427367308
-0.09670000000000023,-45.83664611562718
-0.09770000000000012,-46.077147036604245
-0.09870000000000023,-46.47326620056646
-0.09970000000000012,-46.86938536452866
-0.10070000000000023,-47.19476896349763
-0.10170000000000012,-47.619182353457134
-0.10270000000000024,-48.156772647405845
-0.10370000000000013,-48.70851005435321
-0.10470000000000024,-49.26024746130057
-0.10570000000000013,-49.88272043324119
-0.10670000000000024,-50.30713382320071
-0.10770000000000013,-50.51934051818046
-0.10870000000000024,-50.84472411714942
-0.10970000000000013,-51.17010771611838
-0.11070000000000024,-51.453049976091386
-0.11170000000000013,-51.962346044042796
-0.11270000000000002,-52.58481901598341
-0.11370000000000013,-53.023379518941574
-0.11470000000000002,-53.447792908901086
-0.11570000000000014,-53.942941863853854
-0.11670000000000003,-54.2966196888201
-0.11770000000000014,-54.59370906179176
-0.11870000000000003,-55.18788780773508
-0.11970000000000014,-55.76791944067975
-0.12070000000000003,-56.164038604641945
-0.12170000000000014,-56.51771642960822
-0.12270000000000003,-56.81480580257987
-0.12370000000000014,-57.05530672355693
-0.12470000000000003,-57.30995475753264
-0.12570000000000014,-57.819250825484055
-0.12670000000000003,-58.34269400643411
-0.12770000000000015,-58.78125450939227
-0.12870000000000004,-59.375433255335594
-0.12970000000000015,-59.92717066228296
-0.13070000000000004,-60.30914271324652
-0.13170000000000015,-60.60623208621817
-0.13270000000000004,-60.832585894196576
-0.13370000000000015,-60.95990991118443
-0.13470000000000004,-61.228705058158795
-0.13570000000000015,-61.80873669110345
-0.13670000000000004,-62.34632698505217
-0.13770000000000016,-62.78488748801033
-0.13870000000000005,-63.350772007956344
-0.13970000000000016,-63.831773849910455
-0.14070000000000005,-64.0439805448902
-0.14170000000000016,-64.27033435286862
-0.14270000000000005,-64.76548330782138
-0.14370000000000016,-65.17574958478224
-0.14470000000000005,-65.52942740974851
-0.14570000000000016,-66.0670177036972
-0.14670000000000005,-66.39240130266617
-0.14770000000000016,-66.68949067563783
-0.14870000000000005,-67.14219829159464
-0.14970000000000017,-67.55246456855551
-0.15070000000000006,-67.76467126353526
-0.15170000000000017,-68.11834908850152
-0.15270000000000006,-68.68423360844753
-0.15370000000000017,-69.1227941114057
-0.15470000000000006,-69.6603844053544
-0.15570000000000017,-70.26871026429637
-0.15670000000000006,-70.65068231525994
-0.15770000000000017,-70.99021302722754
-0.15870000000000006,-71.42877353018571
-0.15970000000000018,-71.69756867716005
-0.16070000000000007,-71.81074558114926
-0.16170000000000018,-72.05124650212633
-0.16270000000000007,-72.51810123108179
-0.16370000000000018,-72.81519060405343
-0.16470000000000007,-73.12642709002374
-0.16570000000000018,-73.62157604497652
-0.16670000000000007,-73.96110675694412
-0.16770000000000018,-74.20160767792116
-0.16870000000000007,-74.58357972888473
-0.16970000000000018,-74.9938460058456
-0.17070000000000007,-75.30508249181591
-0.17170000000000019,-75.84267278576462
-0.17270000000000008,-76.56417554869579
-0.1737000000000002,-76.91785337366204
-0.17470000000000008,-77.14420718164045
-0.1757000000000002,-77.42714944161345
-0.17670000000000008,-77.7242388145851
-0.1777000000000002,-78.03547530055542
-0.17870000000000008,-78.44574157751629
-0.1797000000000002,-78.85600785447714
-0.18070000000000008,-79.08236166245555
-0.1817000000000002,-79.33700969643127
-0.18270000000000008,-79.80386442538673
-0.1837000000000002,-80.27071915434219
-0.1847000000000001,-80.65269120530574
-0.1857000000000002,-80.99222191727335
-0.1867000000000001,-81.16198727325715
-0.1877000000000002,-81.38834108123557
-0.1887000000000001,-81.75616601920048
-0.1897000000000002,-82.15228518316268
-0.1907000000000001,-82.53425723412623
-0.1917000000000001,-83.18502443206415
-0.19269999999999998,-83.79335029100612
-0.1937000000000001,-83.99140987298723
-0.19469999999999998,-84.24605790696293
-0.1957000000000001,-84.6563241839238
-0.19669999999999999,-84.9392664438968
-0.1977000000000001,-85.2222087038698
-0.1987,-85.80224033681448
-0.1997000000000001,-86.41056619575643
-0.2007,-86.75009690772404
-0.2017000000000001,-87.10377473269031
-0.2027,-87.62721791364037
-0.2037000000000001,-87.86771883461743
-0.2047,-88.09407264259583
-0.2057000000000001,-88.5609273715513
-0.2067,-88.97119364851217
-0.2077000000000001,-89.16925323049325
-0.2087,-89.46634260346492
-0.2097000000000001,-89.83416754142982
-0.2107,-90.23028670539205
-0.2117000000000001,-90.76787699934074
-0.2127,-91.23473172829621
-0.2137000000000001,-91.48937976227192
-0.2147,-91.84305758723818
-0.2157000000000001,-92.30991231619365
-0.2167,-92.6070016891653
-0.21770000000000012,-92.84750261014237
-0.2187,-93.24362177410455
-0.21970000000000012,-93.68218227706274
-0.2207,-93.90853608504113
-0.22170000000000012,-94.10659566702225
-0.2227,-94.55930328297906
-0.22370000000000012,-95.05445223793181
-0.2247,-95.60618964487918
-0.22570000000000012,-96.341839520809
-0.2267,-96.95016537975096
-0.22770000000000012,-97.47360856070102
-0.22870000000000001,-97.82728638566729
-0.22970000000000013,-97.89802195066054
-0.23070000000000002,-97.58678546469022
-0.23170000000000013,-97.51604989969698
-0.23270000000000002,-97.72825659467674
-0.23370000000000013,-98.09608153264163
-0.23470000000000002,-98.73270161758091
-0.23570000000000013,-99.44005726751342
-0.23670000000000002,-100.06253023945405
-0.2376999999999999,-100.5293849684095
-0.23870000000000002,-100.95379835836901
-0.2396999999999999,-101.16600505334877
-0.24070000000000003,-101.20844639234473
-0.24169999999999991,-101.5338299913137
-0.24270000000000003,-102.07142028526239
-0.24369999999999992,-102.50998078822056
-0.24470000000000003,-102.90609995218277
-0.24569999999999992,-103.25977777714903
-0.24670000000000003,-103.5568671501207
-0.24769999999999992,-103.6983382801072
-0.24870000000000003,-104.05201610507345
-0.24969999999999992,-104.68863619001272
-0.25070000000000003,-105.19793225796413
-0.2516999999999999,-105.67893409991824
-0.25270000000000004,-106.07505326388046
-0.2536999999999999,-106.3155541848575
-0.25470000000000004,-106.54190799283592
-0.2556999999999999,-106.86729159180487
-0.25670000000000004,-107.13608673877923
-0.25769999999999993,-107.4614703377482
-0.25870000000000004,-107.95661929270095
-0.25969999999999993,-108.5932393776402
-0.26070000000000004,-108.90447586361051
-0.26169999999999993,-109.20156523658218
-0.26270000000000004,-109.55524306154844
-0.26369999999999993,-109.66841996553765
-0.26470000000000005,-109.8240382085228
-0.26569999999999994,-110.2484515984823
-0.26670000000000005,-110.55968808445263
-0.26769999999999994,-110.81433611842832
-0.26870000000000005,-111.29533796038245
-0.26969999999999994,-111.77633980233655
-0.27070000000000005,-112.05928206230955
-0.27169999999999994,-112.34222432228256
-0.27270000000000005,-112.58272524325962
-0.27369999999999994,-112.49784256526772
-0.27470000000000006,-112.69590214724884
-0.27569999999999995,-113.3042280061908
-0.27670000000000006,-113.67205294415571
-0.27769999999999995,-113.85596541313815
-0.27870000000000006,-114.3228201420936
-0.27969999999999995,-114.60576240206663
-0.28070000000000006,-114.81796909704637
-0.28169999999999995,-115.28482382600184
-0.28270000000000006,-115.62435453796945
-0.28369999999999995,-115.7516785549573
-0.28470000000000006,-115.8648554589465
-0.28569999999999995,-116.20438617091412
-0.28670000000000007,-116.34585730090062
-0.28769999999999996,-116.51562265688442
-0.28870000000000007,-116.91174182084664
-0.28969999999999996,-117.26541964581288
-0.29070000000000007,-117.50592056678994
-0.29169999999999996,-117.76056860076565
-0.29270000000000007,-118.04351086073866
-0.29369999999999996,-118.29815889471436
-0.2947000000000001,-118.69427805867657
-0.29569999999999996,-119.23186835262528
-0.2967000000000001,-119.486516386601
-0.29769999999999996,-119.37333948261178
-0.2987000000000001,-119.55725195159425
-0.29969999999999997,-119.88263555056322
-0.3007000000000001,-120.12313647154028
-0.30169999999999997,-120.53340274850112
-0.3027000000000001,-120.84463923447142
-0.30369999999999997,-120.94366902546197
-0.3047000000000001,-120.95781613846064
-0.30569999999999997,-121.09928726844714
-0.3067000000000001,-121.09928726844714
-0.3077,-121.0568459294512
-0.3087000000000001,-121.3680824154215
-0.3097,-121.72176024038777
-0.3107000000000001,-121.86323137037427
-0.3117,-121.97640827436345
-0.3127000000000001,-122.31593898633106
-0.3137,-122.4149687773216
-0.3147000000000001,-122.54229279430947
-0.3157,-123.0232946362636
-0.3167000000000001,-123.29208978323796
-0.3177,-123.3345311222339
-0.3187000000000001,-123.3628253482312
-0.3197,-123.2213542182447
-0.3207000000000001,-123.32038400923526
-0.3217,-123.532590704215
-0.3227000000000001,-123.82968007718667
-0.3237,-124.18335790215292
-0.3247000000000001,-124.40971171013132
-0.3257,-124.55118284011782
-0.3267000000000001,-124.26824058014482
-0.3277,-123.95700409417452
-0.3287000000000001,-124.02773965916778
-0.3297,-124.23994635414752
-0.3307000000000001,-124.72094819610162
-0.3317,-125.18780292505707
-0.3327000000000001,-125.5273336370247
-0.3337,-125.34342116804225
-0.3347000000000001,-125.01803756907329
-0.3357,-124.989743343076
-0.3367000000000001,-124.81997798709217
-0.3377,-124.9614491170787
-0.3387000000000001,-125.4141567330355
-0.3397,-125.90930568798828
-0.3407000000000001,-126.20639506095993
-0.3417,-126.44689598193698
-0.3427000000000001,-126.5317786599289
-0.3437,-126.13565949596666
-0.3447000000000001,-125.59806920201797
-0.3457,-125.62636342801528
-0.3467000000000001,-125.78198167100041
-0.3477,-125.48489229802875
-0.3487000000000001,-125.5273336370247
-0.3497,-125.79612878399907
-0.3507000000000001,-125.83857012299501
-0.3517,-125.99418836598016
-0.3527000000000001,-126.33371907794778
-0.3537,-126.3195719649491
-0.3547000000000001,-126.07907104397206
-0.3557,-126.00833547897882
-0.35670000000000013,-125.88101146199097
-0.3577,-125.7536874450031
-0.35870000000000013,-126.02248259197746
-0.3597,-126.27713062595316
-0.36070000000000013,-126.50348443393159
-0.3617,-126.6732497899154
-0.3626999999999999,-126.84301514589919
-0.3637,-126.80057380690324
-0.3646999999999999,-126.39030752994238
-0.3657,-126.19224794796128
-0.3666999999999999,-126.02248259197746
-0.3677,-125.7536874450031
-0.3686999999999999,-125.99418836598016
-0.36970000000000003,-126.23468928695722
-0.3706999999999999,-126.09321815697072
-0.37170000000000003,-125.90930568798828
-0.3726999999999999,-125.83857012299501
-0.37370000000000003,-125.8102758969977
-0.3746999999999999,-125.7536874450031
-0.37570000000000003,-126.07907104397206
-0.3766999999999999,-126.30542485195048
-0.37770000000000004,-126.39030752994238
-0.3786999999999999,-126.46104309493563
-0.37970000000000004,-126.46104309493563
-0.3806999999999999,-126.36201330394509
-0.38170000000000004,-126.20639506095993
-0.38269999999999993,-126.23468928695722
-0.38370000000000004,-126.22054217395856
-0.38469999999999993,-126.33371907794778
-0.38570000000000004,-126.74398535490863
-0.38669999999999993,-126.71569112891132
-0.38770000000000004,-126.41860175593966
-0.38869999999999993,-126.10736526996938
-0.38970000000000005,-125.73954033200447
-0.39069999999999994,-125.45659807203144
-0.39170000000000005,-125.45659807203144
-0.39269999999999994,-125.76783455800178
-0.39370000000000005,-126.03662970497612
-0.39469999999999994,-126.33371907794778
-0.39570000000000005,-126.70154401591269
-0.39669999999999994,-126.80057380690324
-0.39770000000000005,-126.82886803290056
-0.39869999999999994,-126.68739690291403
-0.39970000000000006,-126.37616041694372
-0.40069999999999995,-126.20639506095993
-0.40170000000000006,-126.51763154693022
-0.40269999999999995,-127.08351606687623
-0.40370000000000006,-127.38060543984788
-0.40469999999999995,-127.56451790883035
-0.40570000000000006,-127.76257749081147
-0.40669999999999995,-127.63525347382362
-0.40770000000000006,-127.36645832684925
-0.40869999999999995,-127.3523112138506
-0.40970000000000006,-127.39475255284657
-0.41069999999999995,-127.19669297086547
-0.41170000000000007,-127.29572276185603
-0.41269999999999996,-127.63525347382362
-0.41370000000000007,-127.76257749081147
-0.41469999999999996,-127.83331305580472
-0.41570000000000007,-128.1304024287764
-0.41669999999999996,-128.41334468874936
-0.41770000000000007,-128.66799272272507
-0.41869999999999996,-128.79531673971292
-0.4197000000000001,-128.72458117471967
-0.42069999999999996,-128.55481581873588
-0.4217000000000001,-128.66799272272507
-0.42269999999999996,-129.31875992066298
-0.4237000000000001,-129.96952711860092
-0.42469999999999997,-130.50711741254963
-0.4257000000000001,-130.7193241075294
-0.42669999999999997,-130.53541163854695
-0.4277000000000001,-130.1534395875834
-0.42869999999999997,-129.77146753661984
-0.4297000000000001,-129.64414351963197
-0.43069999999999997,-129.92708577960497
-0.4317000000000001,-130.5778529775429
-0.4327,-131.5115624354538
-0.4337000000000001,-132.1481825203931
-0.4347,-132.41697766736743
-0.4357000000000001,-132.3462421023742
-0.4367,-132.10574118139715
-0.4377000000000001,-132.10574118139715
-0.4387,-132.3462421023742
-0.4397000000000001,-132.69991992734043
-0.4407,-133.08189197830401
-0.4417000000000001,-133.5911880462554
-0.4427,-133.90242453222572
-0.4437000000000001,-133.83168896723245
-0.4447,-133.88827741922708
-0.4457000000000001,-133.95901298422032
-0.4467,-134.24195524419332
-0.4477000000000001,-134.6239272951569
-0.4487,-135.11907625010966
-0.4497000000000001,-135.6425194310597
-0.4507,-135.85472612603945
-0.4517000000000001,-136.10937416001516
-0.4527,-136.1801097250084
-0.4537000000000001,-136.26499240300032
-0.4547,-136.66111156696255
-0.4557000000000001,-137.1845547479126
-0.4567,-137.52408545988024
-0.4577000000000001,-137.84946905884914
-0.4587,-138.21729399681408
-0.4597000000000001,-138.41535357879516
-0.4607,-138.3163237878046
-0.4617000000000001,-138.40120646579655
-0.4627,-138.61341316077628
-0.4637000000000001,-139.0095323247385
-0.4647,-139.53297550568857
-0.4657000000000001,-140.08471291263592
-0.4667,-140.48083207659815
-0.4677000000000001,-140.48083207659815
-0.4687,-140.66474454558062
-0.4697000000000001,-140.89109835355902
-0.4707,-140.96183391855226
-0.4717000000000001,-141.4003944215104
-0.4727,-141.61260111649017
-0.4737000000000001,-141.61260111649017
-0.4747,-141.75407224647665
-0.4757000000000001,-142.31995676642268
-0.4767,-143.3102546763282
-0.4777000000000001,-143.73466806628772
-0.4787,-144.01761032626072
-0.4797000000000001,-143.87613919627424
-0.4807,-143.73466806628772
-0.48170000000000013,-143.87613919627424
-0.4827,-144.15908145624724
-0.48370000000000013,-144.72496597619326
-0.4847,-145.29085049613926
-0.48570000000000013,-145.9982061460718
-0.4867,-144.58349484620675
-0.48570000000000013,-141.41454153450906
-0.4847,-138.76903140376146
-0.48370000000000013,-136.0527857080206
-0.4827,-133.52045248126214
-0.48170000000000013,-131.4549739834592
-0.4807,-129.3470541466603
-0.4797000000000001,-127.28157564885734
-0.4787,-125.3858625070382
-0.4777000000000001,-123.75894451219342
-0.4767,-121.97640827436345
-0.4757000000000001,-120.08069513254432
-0.4747,-118.45377713769953
-0.4737000000000001,-116.72782935186417
-0.4727,-114.77552775805043
-0.4717000000000001,-112.95055018122453
-0.4707,-111.3094850733811
-0.4697000000000001,-109.7957439825255
-0.4687,-108.40932690865776
-0.4677000000000001,-107.10779251278193
-0.4667,-105.65063987392094
-0.4657000000000001,-103.86810363609099
