Mar. 30, 2025   03:03:01
Linear Sweep Voltammetry
File: c:/users/guazh/data/banditlqround7_x0exp518_r20/2025-03-28-exp985\regeneratedgce-2025-03-30t03_00_02-lsvinkoh\regeneratedgce_lsv_50mvs_efin_-1700mv.bin
Data Source:  Experiment
Instrument Model:  CHI760E
Header: LSV ran at 50 mVs with Efin at -1700mV
Note: 

Init E (V) = -0.6
Final E (V) = -1.7
Scan Rate (V/s) = 0.05
Sample Interval (V) = 0.001
Quiet Time (sec) = 2
Sensitivity (A/V) = 1e-4
Comp R (ohm) = 3.4

Results:

Channel 1:

Potential/V, Current/A

-0.600, 6.736e-7
-0.601, 7.814e-7
-0.602, 8.102e-7
-0.603, 8.238e-7
-0.604, 8.359e-7
-0.605, 8.447e-7
-0.606, 8.547e-7
-0.607, 8.613e-7
-0.608, 8.687e-7
-0.609, 8.747e-7
-0.610, 8.801e-7
-0.611, 8.882e-7
-0.612, 8.941e-7
-0.613, 8.977e-7
-0.614, 9.047e-7
-0.615, 9.108e-7
-0.616, 9.155e-7
-0.617, 9.201e-7
-0.618, 9.230e-7
-0.619, 9.282e-7
-0.620, 9.324e-7
-0.621, 9.380e-7
-0.622, 9.424e-7
-0.623, 9.447e-7
-0.624, 9.501e-7
-0.625, 9.537e-7
-0.626, 9.582e-7
-0.627, 9.632e-7
-0.628, 9.669e-7
-0.629, 9.701e-7
-0.630, 9.745e-7
-0.631, 9.783e-7
-0.632, 9.819e-7
-0.633, 9.857e-7
-0.634, 9.899e-7
-0.635, 9.936e-7
-0.636, 9.998e-7
-0.637, 1.002e-6
-0.638, 1.003e-6
-0.639, 1.008e-6
-0.640, 1.013e-6
-0.641, 1.017e-6
-0.642, 1.019e-6
-0.643, 1.022e-6
-0.644, 1.026e-6
-0.645, 1.029e-6
-0.646, 1.035e-6
-0.647, 1.039e-6
-0.648, 1.039e-6
-0.649, 1.044e-6
-0.650, 1.047e-6
-0.651, 1.052e-6
-0.652, 1.055e-6
-0.653, 1.057e-6
-0.654, 1.061e-6
-0.655, 1.064e-6
-0.656, 1.068e-6
-0.657, 1.071e-6
-0.658, 1.073e-6
-0.659, 1.076e-6
-0.660, 1.078e-6
-0.661, 1.083e-6
-0.662, 1.086e-6
-0.663, 1.089e-6
-0.664, 1.091e-6
-0.665, 1.095e-6
-0.666, 1.100e-6
-0.667, 1.101e-6
-0.668, 1.104e-6
-0.669, 1.107e-6
-0.670, 1.109e-6
-0.671, 1.113e-6
-0.672, 1.115e-6
-0.673, 1.119e-6
-0.674, 1.121e-6
-0.675, 1.123e-6
-0.676, 1.129e-6
-0.677, 1.130e-6
-0.678, 1.134e-6
-0.679, 1.137e-6
-0.680, 1.139e-6
-0.681, 1.145e-6
-0.682, 1.146e-6
-0.683, 1.148e-6
-0.684, 1.151e-6
-0.685, 1.154e-6
-0.686, 1.158e-6
-0.687, 1.160e-6
-0.688, 1.162e-6
-0.689, 1.166e-6
-0.690, 1.168e-6
-0.691, 1.174e-6
-0.692, 1.177e-6
-0.693, 1.178e-6
-0.694, 1.182e-6
-0.695, 1.183e-6
-0.696, 1.186e-6
-0.697, 1.190e-6
-0.698, 1.191e-6
-0.699, 1.195e-6
-0.700, 1.199e-6
-0.701, 1.201e-6
-0.702, 1.205e-6
-0.703, 1.206e-6
-0.704, 1.207e-6
-0.705, 1.213e-6
-0.706, 1.215e-6
-0.707, 1.218e-6
-0.708, 1.220e-6
-0.709, 1.221e-6
-0.710, 1.226e-6
-0.711, 1.229e-6
-0.712, 1.232e-6
-0.713, 1.234e-6
-0.714, 1.237e-6
-0.715, 1.239e-6
-0.716, 1.243e-6
-0.717, 1.246e-6
-0.718, 1.247e-6
-0.719, 1.248e-6
-0.720, 1.252e-6
-0.721, 1.256e-6
-0.722, 1.258e-6
-0.723, 1.261e-6
-0.724, 1.263e-6
-0.725, 1.264e-6
-0.726, 1.269e-6
-0.727, 1.271e-6
-0.728, 1.273e-6
-0.729, 1.276e-6
-0.730, 1.279e-6
-0.731, 1.282e-6
-0.732, 1.286e-6
-0.733, 1.286e-6
-0.734, 1.287e-6
-0.735, 1.291e-6
-0.736, 1.295e-6
-0.737, 1.299e-6
-0.738, 1.299e-6
-0.739, 1.303e-6
-0.740, 1.306e-6
-0.741, 1.310e-6
-0.742, 1.311e-6
-0.743, 1.313e-6
-0.744, 1.316e-6
-0.745, 1.319e-6
-0.746, 1.322e-6
-0.747, 1.325e-6
-0.748, 1.328e-6
-0.749, 1.329e-6
-0.750, 1.332e-6
-0.751, 1.336e-6
-0.752, 1.338e-6
-0.753, 1.340e-6
-0.754, 1.342e-6
-0.755, 1.346e-6
-0.756, 1.351e-6
-0.757, 1.353e-6
-0.758, 1.356e-6
-0.759, 1.358e-6
-0.760, 1.360e-6
-0.761, 1.364e-6
-0.762, 1.366e-6
-0.763, 1.369e-6
-0.764, 1.372e-6
-0.765, 1.372e-6
-0.766, 1.376e-6
-0.767, 1.379e-6
-0.768, 1.382e-6
-0.769, 1.385e-6
-0.770, 1.387e-6
-0.771, 1.391e-6
-0.772, 1.393e-6
-0.773, 1.395e-6
-0.774, 1.399e-6
-0.775, 1.401e-6
-0.776, 1.404e-6
-0.777, 1.407e-6
-0.778, 1.409e-6
-0.779, 1.410e-6
-0.780, 1.414e-6
-0.781, 1.418e-6
-0.782, 1.419e-6
-0.783, 1.421e-6
-0.784, 1.425e-6
-0.785, 1.427e-6
-0.786, 1.430e-6
-0.787, 1.434e-6
-0.788, 1.435e-6
-0.789, 1.438e-6
-0.790, 1.440e-6
-0.791, 1.443e-6
-0.792, 1.445e-6
-0.793, 1.448e-6
-0.794, 1.450e-6
-0.795, 1.454e-6
-0.796, 1.457e-6
-0.797, 1.459e-6
-0.798, 1.462e-6
-0.799, 1.464e-6
-0.800, 1.467e-6
-0.801, 1.472e-6
-0.802, 1.473e-6
-0.803, 1.475e-6
-0.804, 1.478e-6
-0.805, 1.480e-6
-0.806, 1.485e-6
-0.807, 1.488e-6
-0.808, 1.488e-6
-0.809, 1.493e-6
-0.810, 1.493e-6
-0.811, 1.497e-6
-0.812, 1.500e-6
-0.813, 1.503e-6
-0.814, 1.505e-6
-0.815, 1.507e-6
-0.816, 1.512e-6
-0.817, 1.515e-6
-0.818, 1.516e-6
-0.819, 1.522e-6
-0.820, 1.526e-6
-0.821, 1.528e-6
-0.822, 1.529e-6
-0.823, 1.531e-6
-0.824, 1.533e-6
-0.825, 1.537e-6
-0.826, 1.540e-6
-0.827, 1.543e-6
-0.828, 1.544e-6
-0.829, 1.546e-6
-0.830, 1.551e-6
-0.831, 1.554e-6
-0.832, 1.558e-6
-0.833, 1.562e-6
-0.834, 1.563e-6
-0.835, 1.567e-6
-0.836, 1.571e-6
-0.837, 1.571e-6
-0.838, 1.575e-6
-0.839, 1.577e-6
-0.840, 1.578e-6
-0.841, 1.583e-6
-0.842, 1.585e-6
-0.843, 1.588e-6
-0.844, 1.591e-6
-0.845, 1.594e-6
-0.846, 1.598e-6
-0.847, 1.601e-6
-0.848, 1.602e-6
-0.849, 1.605e-6
-0.850, 1.607e-6
-0.851, 1.612e-6
-0.852, 1.613e-6
-0.853, 1.616e-6
-0.854, 1.618e-6
-0.855, 1.622e-6
-0.856, 1.623e-6
-0.857, 1.627e-6
-0.858, 1.629e-6
-0.859, 1.631e-6
-0.860, 1.634e-6
-0.861, 1.638e-6
-0.862, 1.640e-6
-0.863, 1.643e-6
-0.864, 1.647e-6
-0.865, 1.649e-6
-0.866, 1.653e-6
-0.867, 1.655e-6
-0.868, 1.657e-6
-0.869, 1.658e-6
-0.870, 1.663e-6
-0.871, 1.668e-6
-0.872, 1.670e-6
-0.873, 1.672e-6
-0.874, 1.673e-6
-0.875, 1.678e-6
-0.876, 1.682e-6
-0.877, 1.684e-6
-0.878, 1.686e-6
-0.879, 1.688e-6
-0.880, 1.691e-6
-0.881, 1.696e-6
-0.882, 1.698e-6
-0.883, 1.701e-6
-0.884, 1.703e-6
-0.885, 1.706e-6
-0.886, 1.710e-6
-0.887, 1.713e-6
-0.888, 1.714e-6
-0.889, 1.718e-6
-0.890, 1.720e-6
-0.891, 1.724e-6
-0.892, 1.727e-6
-0.893, 1.729e-6
-0.894, 1.733e-6
-0.895, 1.737e-6
-0.896, 1.741e-6
-0.897, 1.744e-6
-0.898, 1.744e-6
-0.899, 1.748e-6
-0.900, 1.751e-6
-0.901, 1.755e-6
-0.902, 1.759e-6
-0.903, 1.760e-6
-0.904, 1.763e-6
-0.905, 1.766e-6
-0.906, 1.769e-6
-0.907, 1.772e-6
-0.908, 1.774e-6
-0.909, 1.778e-6
-0.910, 1.781e-6
-0.911, 1.785e-6
-0.912, 1.788e-6
-0.913, 1.790e-6
-0.914, 1.794e-6
-0.915, 1.797e-6
-0.916, 1.802e-6
-0.917, 1.803e-6
-0.918, 1.806e-6
-0.919, 1.808e-6
-0.920, 1.812e-6
-0.921, 1.818e-6
-0.922, 1.821e-6
-0.923, 1.824e-6
-0.924, 1.827e-6
-0.925, 1.831e-6
-0.926, 1.835e-6
-0.927, 1.836e-6
-0.928, 1.839e-6
-0.929, 1.843e-6
-0.930, 1.846e-6
-0.931, 1.850e-6
-0.932, 1.853e-6
-0.933, 1.855e-6
-0.934, 1.859e-6
-0.935, 1.863e-6
-0.936, 1.867e-6
-0.937, 1.870e-6
-0.938, 1.872e-6
-0.939, 1.874e-6
-0.940, 1.879e-6
-0.941, 1.883e-6
-0.942, 1.887e-6
-0.943, 1.892e-6
-0.944, 1.899e-6
-0.945, 1.903e-6
-0.946, 1.907e-6
-0.947, 1.909e-6
-0.948, 1.911e-6
-0.949, 1.913e-6
-0.950, 1.915e-6
-0.951, 1.919e-6
-0.952, 1.922e-6
-0.953, 1.924e-6
-0.954, 1.927e-6
-0.955, 1.931e-6
-0.956, 1.936e-6
-0.957, 1.939e-6
-0.958, 1.942e-6
-0.959, 1.943e-6
-0.960, 1.948e-6
-0.961, 1.953e-6
-0.962, 1.955e-6
-0.963, 1.959e-6
-0.964, 1.961e-6
-0.965, 1.964e-6
-0.966, 1.970e-6
-0.967, 1.972e-6
-0.968, 1.975e-6
-0.969, 1.977e-6
-0.970, 1.981e-6
-0.971, 1.987e-6
-0.972, 1.989e-6
-0.973, 1.993e-6
-0.974, 1.997e-6
-0.975, 2.001e-6
-0.976, 2.005e-6
-0.977, 2.009e-6
-0.978, 2.010e-6
-0.979, 2.013e-6
-0.980, 2.018e-6
-0.981, 2.022e-6
-0.982, 2.026e-6
-0.983, 2.029e-6
-0.984, 2.031e-6
-0.985, 2.037e-6
-0.986, 2.042e-6
-0.987, 2.045e-6
-0.988, 2.048e-6
-0.989, 2.052e-6
-0.990, 2.054e-6
-0.991, 2.059e-6
-0.992, 2.063e-6
-0.993, 2.066e-6
-0.994, 2.068e-6
-0.995, 2.074e-6
-0.996, 2.079e-6
-0.997, 2.080e-6
-0.998, 2.085e-6
-0.999, 2.087e-6
-1.000, 2.092e-6
-1.001, 2.100e-6
-1.002, 2.101e-6
-1.003, 2.105e-6
-1.004, 2.108e-6
-1.005, 2.110e-6
-1.006, 2.116e-6
-1.007, 2.119e-6
-1.008, 2.121e-6
-1.009, 2.124e-6
-1.010, 2.129e-6
-1.011, 2.134e-6
-1.012, 2.137e-6
-1.013, 2.139e-6
-1.014, 2.145e-6
-1.015, 2.148e-6
-1.016, 2.154e-6
-1.017, 2.156e-6
-1.018, 2.159e-6
-1.019, 2.163e-6
-1.020, 2.168e-6
-1.021, 2.173e-6
-1.022, 2.178e-6
-1.023, 2.180e-6
-1.024, 2.185e-6
-1.025, 2.189e-6
-1.026, 2.192e-6
-1.027, 2.196e-6
-1.028, 2.199e-6
-1.029, 2.202e-6
-1.030, 2.208e-6
-1.031, 2.212e-6
-1.032, 2.217e-6
-1.033, 2.220e-6
-1.034, 2.222e-6
-1.035, 2.226e-6
-1.036, 2.232e-6
-1.037, 2.234e-6
-1.038, 2.238e-6
-1.039, 2.241e-6
-1.040, 2.246e-6
-1.041, 2.252e-6
-1.042, 2.254e-6
-1.043, 2.258e-6
-1.044, 2.261e-6
-1.045, 2.266e-6
-1.046, 2.271e-6
-1.047, 2.273e-6
-1.048, 2.278e-6
-1.049, 2.283e-6
-1.050, 2.286e-6
-1.051, 2.291e-6
-1.052, 2.295e-6
-1.053, 2.296e-6
-1.054, 2.302e-6
-1.055, 2.305e-6
-1.056, 2.311e-6
-1.057, 2.315e-6
-1.058, 2.318e-6
-1.059, 2.322e-6
-1.060, 2.326e-6
-1.061, 2.331e-6
-1.062, 2.335e-6
-1.063, 2.338e-6
-1.064, 2.341e-6
-1.065, 2.346e-6
-1.066, 2.352e-6
-1.067, 2.354e-6
-1.068, 2.359e-6
-1.069, 2.362e-6
-1.070, 2.368e-6
-1.071, 2.373e-6
-1.072, 2.377e-6
-1.073, 2.381e-6
-1.074, 2.384e-6
-1.075, 2.391e-6
-1.076, 2.397e-6
-1.077, 2.399e-6
-1.078, 2.403e-6
-1.079, 2.405e-6
-1.080, 2.408e-6
-1.081, 2.415e-6
-1.082, 2.418e-6
-1.083, 2.421e-6
-1.084, 2.426e-6
-1.085, 2.429e-6
-1.086, 2.436e-6
-1.087, 2.438e-6
-1.088, 2.444e-6
-1.089, 2.448e-6
-1.090, 2.453e-6
-1.091, 2.459e-6
-1.092, 2.463e-6
-1.093, 2.464e-6
-1.094, 2.468e-6
-1.095, 2.471e-6
-1.096, 2.477e-6
-1.097, 2.480e-6
-1.098, 2.481e-6
-1.099, 2.486e-6
-1.100, 2.491e-6
-1.101, 2.495e-6
-1.102, 2.500e-6
-1.103, 2.501e-6
-1.104, 2.506e-6
-1.105, 2.511e-6
-1.106, 2.514e-6
-1.107, 2.519e-6
-1.108, 2.522e-6
-1.109, 2.525e-6
-1.110, 2.531e-6
-1.111, 2.537e-6
-1.112, 2.539e-6
-1.113, 2.545e-6
-1.114, 2.546e-6
-1.115, 2.552e-6
-1.116, 2.557e-6
-1.117, 2.559e-6
-1.118, 2.564e-6
-1.119, 2.568e-6
-1.120, 2.571e-6
-1.121, 2.577e-6
-1.122, 2.579e-6
-1.123, 2.583e-6
-1.124, 2.586e-6
-1.125, 2.590e-6
-1.126, 2.597e-6
-1.127, 2.602e-6
-1.128, 2.604e-6
-1.129, 2.607e-6
-1.130, 2.611e-6
-1.131, 2.616e-6
-1.132, 2.619e-6
-1.133, 2.624e-6
-1.134, 2.629e-6
-1.135, 2.633e-6
-1.136, 2.637e-6
-1.137, 2.641e-6
-1.138, 2.642e-6
-1.139, 2.647e-6
-1.140, 2.652e-6
-1.141, 2.658e-6
-1.142, 2.663e-6
-1.143, 2.666e-6
-1.144, 2.669e-6
-1.145, 2.676e-6
-1.146, 2.680e-6
-1.147, 2.684e-6
-1.148, 2.686e-6
-1.149, 2.688e-6
-1.150, 2.694e-6
-1.151, 2.697e-6
-1.152, 2.701e-6
-1.153, 2.705e-6
-1.154, 2.707e-6
-1.155, 2.712e-6
-1.156, 2.718e-6
-1.157, 2.720e-6
-1.158, 2.724e-6
-1.159, 2.727e-6
-1.160, 2.732e-6
-1.161, 2.737e-6
-1.162, 2.738e-6
-1.163, 2.742e-6
-1.164, 2.747e-6
-1.165, 2.752e-6
-1.166, 2.759e-6
-1.167, 2.760e-6
-1.168, 2.764e-6
-1.169, 2.768e-6
-1.170, 2.772e-6
-1.171, 2.778e-6
-1.172, 2.781e-6
-1.173, 2.783e-6
-1.174, 2.788e-6
-1.175, 2.791e-6
-1.176, 2.797e-6
-1.177, 2.801e-6
-1.178, 2.807e-6
-1.179, 2.809e-6
-1.180, 2.813e-6
-1.181, 2.818e-6
-1.182, 2.821e-6
-1.183, 2.823e-6
-1.184, 2.828e-6
-1.185, 2.833e-6
-1.186, 2.838e-6
-1.187, 2.841e-6
-1.188, 2.844e-6
-1.189, 2.846e-6
-1.190, 2.853e-6
-1.191, 2.856e-6
-1.192, 2.861e-6
-1.193, 2.865e-6
-1.194, 2.869e-6
-1.195, 2.876e-6
-1.196, 2.881e-6
-1.197, 2.885e-6
-1.198, 2.888e-6
-1.199, 2.890e-6
-1.200, 2.894e-6
-1.201, 2.899e-6
-1.202, 2.901e-6
-1.203, 2.906e-6
-1.204, 2.911e-6
-1.205, 2.915e-6
-1.206, 2.920e-6
-1.207, 2.923e-6
-1.208, 2.926e-6
-1.209, 2.930e-6
-1.210, 2.932e-6
-1.211, 2.939e-6
-1.212, 2.941e-6
-1.213, 2.945e-6
-1.214, 2.949e-6
-1.215, 2.952e-6
-1.216, 2.958e-6
-1.217, 2.962e-6
-1.218, 2.964e-6
-1.219, 2.968e-6
-1.220, 2.972e-6
-1.221, 2.977e-6
-1.222, 2.981e-6
-1.223, 2.983e-6
-1.224, 2.985e-6
-1.225, 2.991e-6
-1.226, 2.995e-6
-1.227, 2.998e-6
-1.228, 3.001e-6
-1.229, 3.011e-6
-1.230, 3.014e-6
-1.231, 3.017e-6
-1.232, 3.018e-6
-1.233, 3.023e-6
-1.234, 3.026e-6
-1.235, 3.031e-6
-1.236, 3.037e-6
-1.237, 3.039e-6
-1.238, 3.043e-6
-1.239, 3.045e-6
-1.240, 3.051e-6
-1.241, 3.055e-6
-1.242, 3.058e-6
-1.243, 3.062e-6
-1.244, 3.065e-6
-1.245, 3.068e-6
-1.246, 3.075e-6
-1.247, 3.076e-6
-1.248, 3.081e-6
-1.249, 3.086e-6
-1.250, 3.088e-6
-1.251, 3.094e-6
-1.252, 3.098e-6
-1.253, 3.102e-6
-1.254, 3.106e-6
-1.255, 3.111e-6
-1.256, 3.117e-6
-1.257, 3.120e-6
-1.258, 3.121e-6
-1.259, 3.124e-6
-1.260, 3.129e-6
-1.261, 3.134e-6
-1.262, 3.136e-6
-1.263, 3.139e-6
-1.264, 3.144e-6
-1.265, 3.148e-6
-1.266, 3.152e-6
-1.267, 3.156e-6
-1.268, 3.159e-6
-1.269, 3.161e-6
-1.270, 3.168e-6
-1.271, 3.171e-6
-1.272, 3.173e-6
-1.273, 3.179e-6
-1.274, 3.181e-6
-1.275, 3.187e-6
-1.276, 3.194e-6
-1.277, 3.197e-6
-1.278, 3.201e-6
-1.279, 3.204e-6
-1.280, 3.210e-6
-1.281, 3.216e-6
-1.282, 3.216e-6
-1.283, 3.221e-6
-1.284, 3.223e-6
-1.285, 3.227e-6
-1.286, 3.236e-6
-1.287, 3.236e-6
-1.288, 3.240e-6
-1.289, 3.243e-6
-1.290, 3.245e-6
-1.291, 3.255e-6
-1.292, 3.259e-6
-1.293, 3.261e-6
-1.294, 3.265e-6
-1.295, 3.267e-6
-1.296, 3.274e-6
-1.297, 3.276e-6
-1.298, 3.273e-6
-1.299, 3.277e-6
-1.300, 3.282e-6
-1.301, 3.287e-6
-1.302, 3.292e-6
-1.303, 3.293e-6
-1.304, 3.296e-6
-1.305, 3.302e-6
-1.306, 3.306e-6
-1.307, 3.309e-6
-1.308, 3.313e-6
-1.309, 3.315e-6
-1.310, 3.321e-6
-1.311, 3.325e-6
-1.312, 3.328e-6
-1.313, 3.333e-6
-1.314, 3.334e-6
-1.315, 3.340e-6
-1.316, 3.344e-6
-1.317, 3.346e-6
-1.318, 3.350e-6
-1.319, 3.353e-6
-1.320, 3.358e-6
-1.321, 3.365e-6
-1.322, 3.366e-6
-1.323, 3.370e-6
-1.324, 3.374e-6
-1.325, 3.379e-6
-1.326, 3.385e-6
-1.327, 3.385e-6
-1.328, 3.389e-6
-1.329, 3.393e-6
-1.330, 3.396e-6
-1.331, 3.402e-6
-1.332, 3.406e-6
-1.333, 3.409e-6
-1.334, 3.413e-6
-1.335, 3.416e-6
-1.336, 3.423e-6
-1.337, 3.426e-6
-1.338, 3.429e-6
-1.339, 3.433e-6
-1.340, 3.437e-6
-1.341, 3.441e-6
-1.342, 3.446e-6
-1.343, 3.451e-6
-1.344, 3.455e-6
-1.345, 3.462e-6
-1.346, 3.467e-6
-1.347, 3.470e-6
-1.348, 3.474e-6
-1.349, 3.476e-6
-1.350, 3.481e-6
-1.351, 3.487e-6
-1.352, 3.490e-6
-1.353, 3.493e-6
-1.354, 3.497e-6
-1.355, 3.503e-6
-1.356, 3.511e-6
-1.357, 3.514e-6
-1.358, 3.521e-6
-1.359, 3.523e-6
-1.360, 3.528e-6
-1.361, 3.537e-6
-1.362, 3.540e-6
-1.363, 3.546e-6
-1.364, 3.549e-6
-1.365, 3.556e-6
-1.366, 3.562e-6
-1.367, 3.565e-6
-1.368, 3.570e-6
-1.369, 3.576e-6
-1.370, 3.581e-6
-1.371, 3.589e-6
-1.372, 3.594e-6
-1.373, 3.597e-6
-1.374, 3.603e-6
-1.375, 3.611e-6
-1.376, 3.618e-6
-1.377, 3.623e-6
-1.378, 3.624e-6
-1.379, 3.630e-6
-1.380, 3.635e-6
-1.381, 3.644e-6
-1.382, 3.651e-6
-1.383, 3.658e-6
-1.384, 3.660e-6
-1.385, 3.669e-6
-1.386, 3.675e-6
-1.387, 3.684e-6
-1.388, 3.690e-6
-1.389, 3.693e-6
-1.390, 3.700e-6
-1.391, 3.706e-6
-1.392, 3.709e-6
-1.393, 3.714e-6
-1.394, 3.715e-6
-1.395, 3.724e-6
-1.396, 3.731e-6
-1.397, 3.734e-6
-1.398, 3.741e-6
-1.399, 3.748e-6
-1.400, 3.756e-6
-1.401, 3.764e-6
-1.402, 3.767e-6
-1.403, 3.773e-6
-1.404, 3.777e-6
-1.405, 3.783e-6
-1.406, 3.792e-6
-1.407, 3.795e-6
-1.408, 3.800e-6
-1.409, 3.809e-6
-1.410, 3.815e-6
-1.411, 3.825e-6
-1.412, 3.829e-6
-1.413, 3.832e-6
-1.414, 3.839e-6
-1.415, 3.846e-6
-1.416, 3.850e-6
-1.417, 3.855e-6
-1.418, 3.859e-6
-1.419, 3.866e-6
-1.420, 3.873e-6
-1.421, 3.880e-6
-1.422, 3.885e-6
-1.423, 3.890e-6
-1.424, 3.896e-6
-1.425, 3.905e-6
-1.426, 3.912e-6
-1.427, 3.917e-6
-1.428, 3.924e-6
-1.429, 3.927e-6
-1.430, 3.933e-6
-1.431, 3.940e-6
-1.432, 3.944e-6
-1.433, 3.950e-6
-1.434, 3.957e-6
-1.435, 3.962e-6
-1.436, 3.970e-6
-1.437, 3.973e-6
-1.438, 3.981e-6
-1.439, 3.984e-6
-1.440, 3.990e-6
-1.441, 3.999e-6
-1.442, 4.001e-6
-1.443, 4.007e-6
-1.444, 4.011e-6
-1.445, 4.018e-6
-1.446, 4.026e-6
-1.447, 4.030e-6
-1.448, 4.034e-6
-1.449, 4.040e-6
-1.450, 4.045e-6
-1.451, 4.054e-6
-1.452, 4.059e-6
-1.453, 4.063e-6
-1.454, 4.068e-6
-1.455, 4.074e-6
-1.456, 4.083e-6
-1.457, 4.089e-6
-1.458, 4.091e-6
-1.459, 4.098e-6
-1.460, 4.104e-6
-1.461, 4.109e-6
-1.462, 4.115e-6
-1.463, 4.119e-6
-1.464, 4.122e-6
-1.465, 4.131e-6
-1.466, 4.139e-6
-1.467, 4.143e-6
-1.468, 4.149e-6
-1.469, 4.153e-6
-1.470, 4.158e-6
-1.471, 4.164e-6
-1.472, 4.171e-6
-1.473, 4.176e-6
-1.474, 4.178e-6
-1.475, 4.188e-6
-1.476, 4.195e-6
-1.477, 4.198e-6
-1.478, 4.203e-6
-1.479, 4.206e-6
-1.480, 4.214e-6
-1.481, 4.223e-6
-1.482, 4.225e-6
-1.483, 4.230e-6
-1.484, 4.236e-6
-1.485, 4.245e-6
-1.486, 4.251e-6
-1.487, 4.254e-6
-1.488, 4.260e-6
-1.489, 4.268e-6
-1.490, 4.273e-6
-1.491, 4.280e-6
-1.492, 4.285e-6
-1.493, 4.292e-6
-1.494, 4.300e-6
-1.495, 4.307e-6
-1.496, 4.315e-6
-1.497, 4.321e-6
-1.498, 4.328e-6
-1.499, 4.337e-6
-1.500, 4.346e-6
-1.501, 4.354e-6
-1.502, 4.359e-6
-1.503, 4.363e-6
-1.504, 4.369e-6
-1.505, 4.378e-6
-1.506, 4.384e-6
-1.507, 4.390e-6
-1.508, 4.395e-6
-1.509, 4.399e-6
-1.510, 4.409e-6
-1.511, 4.418e-6
-1.512, 4.424e-6
-1.513, 4.431e-6
-1.514, 4.436e-6
-1.515, 4.445e-6
-1.516, 4.455e-6
-1.517, 4.459e-6
-1.518, 4.467e-6
-1.519, 4.471e-6
-1.520, 4.482e-6
-1.521, 4.492e-6
-1.522, 4.497e-6
-1.523, 4.506e-6
-1.524, 4.514e-6
-1.525, 4.523e-6
-1.526, 4.534e-6
-1.527, 4.539e-6
-1.528, 4.549e-6
-1.529, 4.556e-6
-1.530, 4.565e-6
-1.531, 4.577e-6
-1.532, 4.585e-6
-1.533, 4.592e-6
-1.534, 4.603e-6
-1.535, 4.612e-6
-1.536, 4.624e-6
-1.537, 4.634e-6
-1.538, 4.640e-6
-1.539, 4.652e-6
-1.540, 4.664e-6
-1.541, 4.676e-6
-1.542, 4.684e-6
-1.543, 4.694e-6
-1.544, 4.704e-6
-1.545, 4.718e-6
-1.546, 4.728e-6
-1.547, 4.739e-6
-1.548, 4.750e-6
-1.549, 4.761e-6
-1.550, 4.775e-6
-1.551, 4.789e-6
-1.552, 4.802e-6
-1.553, 4.813e-6
-1.554, 4.823e-6
-1.555, 4.838e-6
-1.556, 4.853e-6
-1.557, 4.864e-6
-1.558, 4.879e-6
-1.559, 4.888e-6
-1.560, 4.907e-6
-1.561, 4.925e-6
-1.562, 4.935e-6
-1.563, 4.951e-6
-1.564, 4.964e-6
-1.565, 4.980e-6
-1.566, 5.000e-6
-1.567, 5.014e-6
-1.568, 5.028e-6
-1.569, 5.047e-6
-1.570, 5.063e-6
-1.571, 5.084e-6
-1.572, 5.100e-6
-1.573, 5.115e-6
-1.574, 5.133e-6
-1.575, 5.153e-6
-1.576, 5.172e-6
-1.577, 5.190e-6
-1.578, 5.208e-6
-1.579, 5.229e-6
-1.580, 5.251e-6
-1.581, 5.273e-6
-1.582, 5.294e-6
-1.583, 5.314e-6
-1.584, 5.334e-6
-1.585, 5.359e-6
-1.586, 5.382e-6
-1.587, 5.405e-6
-1.588, 5.428e-6
-1.589, 5.445e-6
-1.590, 5.474e-6
-1.591, 5.499e-6
-1.592, 5.524e-6
-1.593, 5.550e-6
-1.594, 5.573e-6
-1.595, 5.602e-6
-1.596, 5.629e-6
-1.597, 5.654e-6
-1.598, 5.682e-6
-1.599, 5.709e-6
-1.600, 5.741e-6
-1.601, 5.772e-6
-1.602, 5.799e-6
-1.603, 5.830e-6
-1.604, 5.862e-6
-1.605, 5.891e-6
-1.606, 5.924e-6
-1.607, 5.951e-6
-1.608, 5.985e-6
-1.609, 6.019e-6
-1.610, 6.053e-6
-1.611, 6.093e-6
-1.612, 6.128e-6
-1.613, 6.162e-6
-1.614, 6.198e-6
-1.615, 6.236e-6
-1.616, 6.275e-6
-1.617, 6.316e-6
-1.618, 6.355e-6
-1.619, 6.396e-6
-1.620, 6.441e-6
-1.621, 6.484e-6
-1.622, 6.528e-6
-1.623, 6.571e-6
-1.624, 6.615e-6
-1.625, 6.667e-6
-1.626, 6.712e-6
-1.627, 6.760e-6
-1.628, 6.809e-6
-1.629, 6.859e-6
-1.630, 6.914e-6
-1.631, 6.968e-6
-1.632, 7.022e-6
-1.633, 7.078e-6
-1.634, 7.130e-6
-1.635, 7.191e-6
-1.636, 7.248e-6
-1.637, 7.308e-6
-1.638, 7.372e-6
-1.639, 7.442e-6
-1.640, 7.503e-6
-1.641, 7.570e-6
-1.642, 7.635e-6
-1.643, 7.702e-6
-1.644, 7.771e-6
-1.645, 7.844e-6
-1.646, 7.921e-6
-1.647, 7.993e-6
-1.648, 8.068e-6
-1.649, 8.147e-6
-1.650, 8.232e-6
-1.651, 8.320e-6
-1.652, 8.402e-6
-1.653, 8.486e-6
-1.654, 8.576e-6
-1.655, 8.663e-6
-1.656, 8.762e-6
-1.657, 8.855e-6
-1.658, 8.948e-6
-1.659, 9.048e-6
-1.660, 9.153e-6
-1.661, 9.260e-6
-1.662, 9.366e-6
-1.663, 9.473e-6
-1.664, 9.587e-6
-1.665, 9.704e-6
-1.666, 9.819e-6
-1.667, 9.940e-6
-1.668, 1.006e-5
-1.669, 1.018e-5
-1.670, 1.032e-5
-1.671, 1.044e-5
-1.672, 1.058e-5
-1.673, 1.072e-5
-1.674, 1.086e-5
-1.675, 1.101e-5
-1.676, 1.116e-5
-1.677, 1.130e-5
-1.678, 1.145e-5
-1.679, 1.159e-5
-1.680, 1.176e-5
-1.681, 1.193e-5
-1.682, 1.209e-5
-1.683, 1.226e-5
-1.684, 1.244e-5
-1.685, 1.263e-5
-1.686, 1.282e-5
-1.687, 1.300e-5
-1.688, 1.319e-5
-1.689, 1.339e-5
-1.690, 1.360e-5
-1.691, 1.380e-5
-1.692, 1.395e-5
-1.693, 1.414e-5
-1.694, 1.438e-5
-1.695, 1.461e-5
-1.696, 1.485e-5
-1.697, 1.509e-5
-1.698, 1.534e-5
-1.699, 1.559e-5
