Potential V vs RHE, Current mA cm-2
0.05339999999999995,-0.04091345079209686
0.05239999999999995,-0.04254036878694165
0.051399999999999946,-0.043459931131853924
0.050399999999999945,-0.04416728678178644
0.049399999999999944,-0.04476146552772976
0.04839999999999994,-0.045313202934677124
0.04739999999999994,-0.04586494034162449
0.04639999999999994,-0.046317647957581295
0.04539999999999994,-0.04681279691253406
0.04439999999999994,-0.04730794586748682
0.04339999999999994,-0.04778894770944094
0.04239999999999994,-0.0482558024383964
0.04139999999999994,-0.04869436294135456
0.040399999999999936,-0.04913292344431273
0.039399999999999935,-0.04959977817326818
0.038399999999999934,-0.050024191563227696
0.03739999999999993,-0.050462752066185855
0.03639999999999993,-0.05091545968214267
0.03539999999999993,-0.05138231441109813
0.03439999999999993,-0.05180672780105764
0.03339999999999993,-0.05225943541701446
0.03239999999999993,-0.05274043725896857
0.03139999999999993,-0.05313655642293078
0.030399999999999927,-0.053589264038887585
0.029399999999999926,-0.05411270721983765
0.028399999999999925,-0.05450882638379986
0.027399999999999924,-0.05493323977375937
0.026399999999999924,-0.055428388728712134
0.025399999999999923,-0.05595183190966221
0.024399999999999922,-0.056362098186623064
0.02339999999999992,-0.05677236446358393
0.02239999999999992,-0.05726751341853669
0.02139999999999992,-0.057649485469500245
0.020399999999999918,-0.058102193085457055
0.019399999999999917,-0.05854075358841522
0.018399999999999916,-0.058922725639378774
0.017399999999999916,-0.05934713902933829
0.016399999999999915,-0.05981399375829375
0.015399999999999914,-0.06029499560024786
0.014399999999999913,-0.06079014455520062
0.013399999999999912,-0.06134188196214799
0.012399999999999911,-0.061752148239108844
0.01139999999999991,-0.06209167895107646
0.01039999999999991,-0.06258682790602922
0.009399999999999908,-0.06308197686098199
0.008399999999999908,-0.0635629787029361
0.007399999999999907,-0.06407227477088752
0.006399999999999906,-0.06456742372584028
0.005399999999999905,-0.06504842556779439
0.004399999999999904,-0.06547283895775391
0.003399999999999903,-0.06596798791270667
0.002399999999999902,-0.06646313686765942
0.0013999999999999013,-0.06694413870961352
0.00039999999999990044,-0.06742514055156765
-0.0006000000000001005,-0.06789199528052312
-0.0016000000000001013,-0.06838714423547587
-0.0026000000000001022,-0.06886814607742998
-0.003600000000000103,-0.0693208536933868
-0.004600000000000104,-0.06981600264833956
-0.005600000000000105,-0.07033944582928962
-0.006600000000000106,-0.07106094859222079
-0.007600000000000107,-0.0714287735301857
-0.008600000000000108,-0.07195221671113576
-0.009600000000000108,-0.07237663010109527
-0.01060000000000011,-0.07285763194304938
-0.01160000000000011,-0.07335278089800215
-0.012600000000000111,-0.07390451830494953
-0.013600000000000112,-0.07430063746891173
-0.014600000000000113,-0.07478163931086583
-0.015600000000000114,-0.07531922960481456
-0.016600000000000115,-0.07577193722077137
-0.017600000000000116,-0.07623879194972684
-0.018600000000000116,-0.07669149956568365
-0.019600000000000117,-0.07717250140763775
-0.020600000000000118,-0.07765350324959187
-0.02160000000000012,-0.07823353488253654
-0.02260000000000012,-0.0787569780634866
-0.02360000000000012,-0.0792945683574353
-0.024600000000000122,-0.07983215865138403
-0.025600000000000123,-0.08039804317133004
-0.026600000000000124,-0.081006369030272
-0.027600000000000124,-0.08124686995124906
-0.028600000000000125,-0.08169957756720586
-0.029600000000000126,-0.08222302074815592
-0.030600000000000127,-0.08273231681610735
-0.03160000000000013,-0.08325575999705741
-0.03260000000000013,-0.08366602627401826
-0.03360000000000013,-0.08407629255097913
-0.03460000000000002,-0.08464217707092515
-0.03560000000000002,-0.08522220870386982
-0.03660000000000002,-0.08561832786783201
-0.03760000000000002,-0.08633983063076318
-0.03860000000000002,-0.0867359497947254
-0.039600000000000024,-0.0871037747326903
-0.040600000000000025,-0.08765551213963767
-0.041600000000000026,-0.08819310243358638
-0.04260000000000003,-0.0885043389195567
-0.04360000000000003,-0.08902778210050676
-0.04460000000000003,-0.08950878394246087
-0.04560000000000003,-0.08991905021942173
-0.04660000000000003,-0.09037175783537854
-0.04760000000000003,-0.09073958277334346
-0.04860000000000003,-0.091121554824307
-0.04960000000000003,-0.09151767398826924
-0.050600000000000034,-0.092012822943222
-0.051600000000000035,-0.0923523536551896
-0.052600000000000036,-0.09288994394913831
-0.053600000000000037,-0.09346997558208296
-0.05460000000000004,-0.09378121206805329
-0.05560000000000004,-0.0942056254580128
-0.05660000000000004,-0.0946583330739696
-0.05760000000000004,-0.09506859935093047
-0.05860000000000004,-0.09543642428889539
-0.05960000000000004,-0.09573351366186703
-0.06060000000000004,-0.09621451550382115
-0.061600000000000044,-0.09661063466778336
-0.06260000000000004,-0.096907724040755
-0.06360000000000005,-0.09726140186572127
-0.06460000000000005,-0.09764337391668483
-0.06560000000000005,-0.09799705174165109
-0.06660000000000005,-0.09829414111462276
-0.06760000000000005,-0.09871855450458226
-0.06860000000000005,-0.09912882078154311
-0.06960000000000005,-0.09948249860650937
-0.07060000000000005,-0.0999069119964689
-0.07160000000000005,-0.10026058982143515
-0.07260000000000005,-0.10054353208140815
-0.07360000000000005,-0.10084062145437982
-0.07460000000000006,-0.10119429927934608
-0.07560000000000006,-0.10146309442632043
-0.07660000000000006,-0.1017884780252894
-0.07760000000000006,-0.102128008737257
-0.07860000000000006,-0.1023826567712327
-0.07960000000000006,-0.10267974614420436
-0.08060000000000006,-0.10303342396917063
-0.08160000000000006,-0.1032739248901477
-0.08260000000000006,-0.10362760271511394
-0.08360000000000006,-0.10393883920108424
-0.08460000000000006,-0.10419348723505996
-0.08560000000000006,-0.10433495836504646
-0.08660000000000007,-0.10451887083402892
-0.08760000000000007,-0.1047452246420073
-0.08860000000000007,-0.10495743133698707
-0.08960000000000007,-0.10519793225796412
-0.09060000000000007,-0.10539599183994523
-0.09160000000000007,-0.10562234564792364
-0.09260000000000007,-0.10584869945590204
-0.09360000000000007,-0.10607505326388045
-0.09460000000000007,-0.10630140707185885
-0.09560000000000007,-0.10648531954084133
-0.09660000000000007,-0.10665508489682511
-0.09760000000000008,-0.10678240891381298
-0.09860000000000008,-0.10696632138279542
-0.09960000000000008,-0.10713608673877922
-0.10060000000000008,-0.10724926364276843
-0.10160000000000008,-0.10741902899875223
-0.10260000000000008,-0.10756050012873873
-0.10360000000000008,-0.1076595299197293
-0.10460000000000008,-0.10781514816271445
-0.10560000000000008,-0.10795661929270095
-0.10660000000000008,-0.10809809042268745
-0.10760000000000008,-0.10821126732667666
-0.10860000000000009,-0.10828200289166989
-0.10960000000000009,-0.10840932690865775
-0.11060000000000009,-0.10848006247365101
-0.11160000000000009,-0.10848006247365101
-0.11260000000000009,-0.10856494515164292
-0.11360000000000009,-0.10867812205563213
-0.11460000000000009,-0.10879129895962131
-0.11560000000000009,-0.10886203452461457
-0.11660000000000009,-0.10889032875061187
-0.1176000000000001,-0.10900350565460108
-0.1186000000000001,-0.10900350565460108
-0.1196000000000001,-0.10907424121959435
-0.1206000000000001,-0.10911668255859029
-0.1216000000000001,-0.10913082967158892
-0.1226000000000001,-0.10914497678458758
-0.1236000000000001,-0.10920156523658218
-0.1246000000000001,-0.10918741812358353
-0.1256000000000001,-0.10914497678458758
-0.1266000000000001,-0.10918741812358353
-0.1276000000000001,-0.10925815368857679
-0.1286000000000001,-0.10922985946257947
-0.1296000000000001,-0.10910253544559163
-0.1306000000000001,-0.10908838833259296
-0.1316000000000001,-0.10904594699359701
-0.1326000000000001,-0.10894691720260646
-0.1336000000000001,-0.10900350565460108
-0.1346000000000001,-0.10893277008960783
-0.1356000000000001,-0.10880544607261997
-0.1366000000000001,-0.10872056339462807
-0.1376000000000001,-0.10860738649063886
-0.1386000000000001,-0.10852250381264696
-0.1396000000000001,-0.10864982782963481
-0.1406000000000001,-0.10846591536065237
-0.14160000000000011,-0.10832444423066585
-0.14260000000000012,-0.10826785577867125
-0.14360000000000012,-0.10815467887468207
-0.14460000000000012,-0.1080556490836915
-0.14560000000000012,-0.10794247217970229
-0.14660000000000012,-0.10790003084070635
-0.14760000000000012,-0.1078010010497158
-0.14860000000000012,-0.10774441259772119
-0.14960000000000012,-0.107631235693732
-0.15060000000000012,-0.10747561745074685
-0.15160000000000012,-0.10727755786876574
-0.15260000000000012,-0.10715023385177787
-0.15360000000000013,-0.10696632138279542
-0.15460000000000013,-0.10679655602681161
-0.15560000000000013,-0.10671167334881972
-0.15660000000000013,-0.10664093778382645
-0.15760000000000013,-0.10659849644483052
-0.15860000000000013,-0.10688143870480352
-0.15960000000000002,-0.1065702022188332
-0.16060000000000002,-0.10641458397584806
-0.16160000000000002,-0.1063721426368521
-0.16260000000000002,-0.10631555418485751
-0.16360000000000002,-0.1060326119248845
-0.16460000000000002,-0.10556575719592905
-0.16560000000000002,-0.10536769761394793
-0.16660000000000003,-0.10528281493595604
-0.16760000000000003,-0.10522622648396143
-0.16860000000000003,-0.10509890246697358
-0.16960000000000003,-0.10491498999799112
-0.17060000000000003,-0.10481596020700056
-0.17160000000000003,-0.10484425443299787
-0.17260000000000003,-0.10463204773801811
-0.17360000000000003,-0.10446228238203431
-0.17460000000000003,-0.10430666413904917
-0.17560000000000003,-0.10399542765307884
-0.17660000000000003,-0.10385395652309233
-0.17760000000000004,-0.10378322095809908
-0.17860000000000004,-0.10355686715012069
-0.17960000000000004,-0.10341539602013419
-0.18060000000000004,-0.10309001242116521
-0.18160000000000004,-0.10292024706518142
-0.18260000000000004,-0.10280707016119221
-0.18360000000000004,-0.10267974614420436
-0.18460000000000004,-0.10249583367522191
-0.18560000000000004,-0.10234021543223674
-0.18660000000000004,-0.10239680388423136
-0.18760000000000004,-0.102128008737257
-0.18860000000000005,-0.10195824338127318
-0.18960000000000005,-0.10180262513828804
-0.19060000000000005,-0.10156212421731098
-0.19160000000000005,-0.10139235886132718
-0.19260000000000005,-0.10129332907033663
-0.19360000000000005,-0.10101038681036362
-0.19460000000000005,-0.10085476856737846
-0.19560000000000005,-0.10072744455039061
-0.19660000000000005,-0.10045864940341626
-0.19760000000000005,-0.100387913838423
-0.19860000000000005,-0.10009082446545134
-0.19960000000000006,-0.09992105910946754
-0.20060000000000006,-0.09982202931847699
-0.20160000000000006,-0.09982202931847699
-0.20260000000000006,-0.09973714664048508
-0.20360000000000006,-0.09941176304151612
-0.20460000000000006,-0.09944005726751343
-0.20560000000000006,-0.09919955634653636
-0.20660000000000006,-0.09898734965155662
-0.20760000000000006,-0.09878929006957551
-0.20860000000000006,-0.09866196605258765
-0.20960000000000006,-0.09849220069660385
-0.21060000000000006,-0.09835072956661735
-0.21160000000000007,-0.0981951113236322
-0.21260000000000007,-0.09799705174165109
-0.21360000000000007,-0.09785558061166459
-0.21460000000000007,-0.09778484504667133
-0.21560000000000007,-0.09761507969068753
-0.21660000000000007,-0.09740287299570777
-0.21760000000000007,-0.09734628454371318
-0.21860000000000007,-0.09717651918772936
-0.21960000000000007,-0.09700675383174556
-0.22060000000000007,-0.09680869424976446
-0.22160000000000007,-0.09673795868477121
-0.22260000000000008,-0.09675210579776986
-0.22360000000000008,-0.09661063466778336
-0.22460000000000008,-0.0964267221988009
-0.22560000000000008,-0.0962569568428171
-0.22660000000000008,-0.0960871914868333
-0.22760000000000008,-0.09594572035684679
-0.22860000000000008,-0.09588913190485218
-0.22960000000000008,-0.09581839633985893
-0.23060000000000008,-0.09615792705182655
-0.23160000000000008,-0.09601645592184005
-0.23260000000000008,-0.09570521943586972
-0.23360000000000009,-0.09539398294989941
-0.2346000000000001,-0.09545057140189403
-0.2356000000000001,-0.09529495315890889
-0.2366000000000001,-0.09504030512493315
-0.2376000000000001,-0.09508274646392911
-0.2386000000000001,-0.09515348202892236
-0.2396000000000001,-0.09502615801193452
-0.2406000000000001,-0.0951110406899264
-0.2416000000000001,-0.09498371667293856
-0.2426000000000001,-0.09455930328297905
-0.2436000000000001,-0.0944602734919885
-0.2446000000000001,-0.09436124370099794
-0.2456000000000001,-0.0942056254580128
-0.2466000000000001,-0.09393683031103843
-0.2476000000000001,-0.0940641543280263
-0.2486000000000001,-0.09407830144102494
-0.2496000000000001,-0.09389438897204248
-0.2506000000000001,-0.09385194763304654
-0.2516000000000001,-0.09373877072905733
-0.2526000000000001,-0.09348412269508162
-0.2536000000000001,-0.09325776888710322
-0.2546000000000001,-0.09310215064411806
-0.2556000000000001,-0.09298897374012885
-0.2566000000000001,-0.09288994394913831
-0.2576000000000001,-0.09288994394913831
-0.2586000000000001,-0.09287579683613965
-0.2596000000000001,-0.09288994394913831
-0.2606000000000001,-0.09287579683613965
-0.2616000000000001,-0.09288994394913831
-0.2626000000000001,-0.09315873909611266
-0.2636000000000001,-0.09345582846908432
-0.2646000000000001,-0.09332850445209646
-0.2656000000000001,-0.09303141507912481
-0.2666000000000001,-0.0929182381751356
-0.2676000000000001,-0.09286164972314101
-0.2686000000000001,-0.09273432570615316
-0.2696000000000001,-0.09296067951413156
-0.2706000000000001,-0.09335679867809377
-0.2716000000000001,-0.09310215064411806
-0.2726000000000001,-0.09287579683613965
-0.2736000000000001,-0.09269188436715721
-0.2746000000000001,-0.09273432570615316
-0.2756000000000001,-0.09286164972314101
-0.2766000000000001,-0.09246553055917879
-0.2776000000000001,-0.09236650076818824
-0.2786000000000001,-0.09236650076818824
-0.2796000000000001,-0.0924089421071842
-0.2806000000000001,-0.09246553055917879
-0.28160000000000013,-0.0923523536551896
-0.28260000000000013,-0.0923523536551896
-0.28360000000000013,-0.09236650076818824
-0.2846,-0.09228161809019635
-0.2856,-0.09232405942919229
-0.2866,-0.09250797189817477
-0.2876,-0.0924372363331815
-0.2886,-0.09246553055917879
-0.2896,-0.09262114880216396
-0.2906,-0.09232405942919229
-0.2916,-0.0922674709771977
-0.2926,-0.09232405942919229
-0.2936,-0.09255041323717071
-0.29460000000000003,-0.09397927165003438
-0.29560000000000003,-0.09549301274088996
-0.29660000000000003,-0.0929748266271302
-0.29760000000000003,-0.09272017859315451
-0.29860000000000003,-0.09290409106213696
-0.29960000000000003,-0.09331435733909782
-0.30060000000000003,-0.09272017859315451
-0.30160000000000003,-0.09257870746316801
-0.30260000000000004,-0.0929182381751356
-0.30360000000000004,-0.09301726796612615
-0.30460000000000004,-0.09301726796612615
-0.30560000000000004,-0.0928050612711464
-0.30660000000000004,-0.09264944302816126
-0.30760000000000004,-0.09266359014115991
-0.30860000000000004,-0.09247967767217745
-0.30960000000000004,-0.09255041323717071
-0.31060000000000004,-0.09305970930512211
-0.31160000000000004,-0.09348412269508162
-0.31260000000000004,-0.09320118043510862
-0.31360000000000005,-0.09315873909611266
-0.31460000000000005,-0.09314459198311402
-0.31560000000000005,-0.09290409106213696
-0.31660000000000005,-0.0929465324011329
-0.31760000000000005,-0.09321532754810727
-0.31860000000000005,-0.09356900537307353
-0.31960000000000005,-0.09378121206805329
-0.32060000000000005,-0.09376706495505463
-0.32160000000000005,-0.09395097742403709
-0.32260000000000005,-0.09441783215299256
-0.32360000000000005,-0.09470077441296555
-0.32460000000000006,-0.0948280984299534
-0.32560000000000006,-0.0947432157519615
-0.32660000000000006,-0.09487053976894937
-0.32760000000000006,-0.09535154161090346
-0.32860000000000006,-0.09559204253188053
-0.32960000000000006,-0.09563448387087647
-0.33060000000000006,-0.09557789541888188
-0.33160000000000006,-0.09553545407988592
-0.33260000000000006,-0.09539398294989941
-0.33360000000000006,-0.09573351366186703
-0.33460000000000006,-0.096058897260836
-0.33560000000000006,-0.0965116048767928
-0.33660000000000007,-0.09697845960574826
-0.33760000000000007,-0.09700675383174556
-0.33860000000000007,-0.09714822496173206
-0.33960000000000007,-0.09743116722170508
-0.34060000000000007,-0.09786972772466324
-0.34160000000000007,-0.09813852287163759
-0.34260000000000007,-0.09860537760059306
-0.34360000000000007,-0.09877514295657686
-0.3446000000000001,-0.09894490831256067
-0.3456000000000001,-0.09931273325052556
-0.3466000000000001,-0.09925614479853098
-0.34759999999999996,-0.0995673812845013
-0.3486000000000001,-0.09970885241448779
-0.34959999999999997,-0.10009082446545134
-0.3506000000000001,-0.10045864940341626
-0.35159999999999997,-0.10071329743739196
-0.3526000000000001,-0.10112356371435283
-0.35359999999999997,-0.10143480020032314
-0.3546000000000001,-0.10177433091229074
-0.35559999999999997,-0.10200068472026914
-0.3566000000000001,-0.10250998078822056
-0.3576,-0.10304757108216928
-0.3586000000000001,-0.10351442581112473
-0.3596,-0.10388225074908965
-0.3606000000000001,-0.10433495836504646
-0.3616,-0.10507060824097628
-0.3626000000000001,-0.10546672740493848
-0.3636,-0.10545258029193984
-0.3646000000000001,-0.10590528790789665
-0.3656,-0.10618823016786964
-0.3666000000000001,-0.10700876272179137
-0.3676,-0.10739073477275493
-0.3686000000000001,-0.10761708858073335
-0.3696,-0.10811223753568612
-0.3706000000000001,-0.10839517979565912
-0.3716,-0.10894691720260646
-0.3726000000000001,-0.10947036038355652
-0.3736,-0.10978159686952685
-0.3746000000000001,-0.11044651118046342
-0.3756,-0.11077189477943236
-0.3766000000000001,-0.11102654281340808
-0.3776,-0.11166316289834735
-0.3786000000000001,-0.11211587051430415
-0.3796,-0.11254028390426365
-0.3806000000000001,-0.11312031553720833
-0.3816,-0.1135305818141692
-0.3826000000000001,-0.11420964323810441
-0.3836,-0.11474723353205314
-0.3846000000000001,-0.11525652960000454
-0.3856,-0.1159214439109411
-0.3866000000000001,-0.11699662449883853
-0.3876,-0.11716638985482233
-0.3886000000000001,-0.11767568592277375
-0.3896,-0.11869427805867658
-0.3906000000000001,-0.11903380877064418
-0.3916,-0.1192601625786226
-0.3926000000000001,-0.11920357412662799
-0.3936,-0.11989678266356185
-0.3946000000000001,-0.12159443622339991
-0.3956,-0.12282523505428247
-0.3966000000000001,-0.12251399856831217
-0.3976,-0.12288182350627709
-0.3986000000000001,-0.1227686466022879
-0.3996,-0.12332038400923526
-0.4006000000000001,-0.12401359254616913
-0.4016,-0.1248765664390868
-0.4026000000000001,-0.12582442300999636
-0.4036,-0.12569709899300852
-0.4046000000000001,-0.1263195719649491
-0.4056,-0.12674398535490863
-0.40660000000000013,-0.12732401698785328
-0.4076,-0.1277767246038101
-0.40860000000000013,-0.1282294322197669
-0.4096,-0.12893678786969942
-0.41060000000000013,-0.12907825899968592
-0.4116,-0.12967243774562928
-0.41260000000000013,-0.13039394050856043
-0.4136,-0.1301392924745847
-0.41460000000000014,-0.13095982502850645
-0.4156,-0.13132764996647137
-0.41660000000000014,-0.1311720317234862
-0.4176,-0.13158229800044707
-0.41860000000000014,-0.13185109314742144
-0.41960000000000003,-0.1323462421023742
-0.42060000000000014,-0.1328838323963229
-0.42160000000000003,-0.13352045248126215
-0.42260000000000014,-0.13428439658318927
-0.42360000000000003,-0.13489272244213124
-0.42460000000000014,-0.1345956330691596
-0.42560000000000003,-0.1353029887190921
-0.42660000000000015,-0.13582643190004218
-0.42760000000000004,-0.13602449148202328
-0.42860000000000015,-0.1365903760019693
-0.42960000000000004,-0.1372411431999072
-0.43060000000000015,-0.1383587651268006
-0.43160000000000004,-0.13874073717776414
-0.43260000000000015,-0.13910856211572906
-0.43360000000000004,-0.1391792976807223
-0.43460000000000015,-0.13985835910465752
-0.43560000000000004,-0.14090524546655764
-0.43660000000000015,-0.14141454153450908
