Aug. 4, 2024   04:49:21
Cyclic Voltammetry
File: c:/users/guazh/data/20240802_batch_500/2024-08-02-exp13\exp13-2024-08-04t04_28_45-h2koh\exp13_cv_50mvs_efin_-1800mv.bin
Data Source:  Experiment
Instrument Model:  CHI760E
Header: CV ran at 50 mVs
Note: 

Init E (V) = -1
High E (V) = -1
Low E (V) = -1.8
Final E (V) = -1
Init P/N = N
Scan Rate (V/s) = 0.05
Segment = 7
Sample Interval (V) = 0.001
Quiet Time (sec) = 60
Sensitivity (A/V) = 0.001
Comp R (ohm) = 1.9

Results:

Channel 1:
Segment 1:

Segment 2:

Segment 3:

Segment 4:

Segment 5:

Segment 6:

Segment 7:

Potential/V, Current/A

-1.000, 4.912e-6
-1.001, 6.642e-6
-1.002, 7.426e-6
-1.003, 8.391e-6
-1.004, 9.135e-6
-1.005, 9.080e-6
-1.006, 8.742e-6
-1.007, 9.051e-6
-1.008, 9.754e-6
-1.009, 1.028e-5
-1.010, 1.012e-5
-1.011, 9.673e-6
-1.012, 9.893e-6
-1.013, 1.052e-5
-1.014, 1.101e-5
-1.015, 1.077e-5
-1.016, 1.029e-5
-1.017, 1.044e-5
-1.018, 1.114e-5
-1.019, 1.152e-5
-1.020, 1.125e-5
-1.021, 1.078e-5
-1.022, 1.091e-5
-1.023, 1.156e-5
-1.024, 1.198e-5
-1.025, 1.162e-5
-1.026, 1.124e-5
-1.027, 1.129e-5
-1.028, 1.191e-5
-1.029, 1.233e-5
-1.030, 1.196e-5
-1.031, 1.155e-5
-1.032, 1.161e-5
-1.033, 1.222e-5
-1.034, 1.264e-5
-1.035, 1.226e-5
-1.036, 1.185e-5
-1.037, 1.201e-5
-1.038, 1.250e-5
-1.039, 1.301e-5
-1.040, 1.262e-5
-1.041, 1.208e-5
-1.042, 1.232e-5
-1.043, 1.282e-5
-1.044, 1.323e-5
-1.045, 1.291e-5
-1.046, 1.241e-5
-1.047, 1.260e-5
-1.048, 1.311e-5
-1.049, 1.349e-5
-1.050, 1.318e-5
-1.051, 1.267e-5
-1.052, 1.285e-5
-1.053, 1.342e-5
-1.054, 1.378e-5
-1.055, 1.351e-5
-1.056, 1.297e-5
-1.057, 1.312e-5
-1.058, 1.371e-5
-1.059, 1.409e-5
-1.060, 1.375e-5
-1.061, 1.326e-5
-1.062, 1.340e-5
-1.063, 1.404e-5
-1.064, 1.434e-5
-1.065, 1.398e-5
-1.066, 1.359e-5
-1.067, 1.366e-5
-1.068, 1.428e-5
-1.069, 1.469e-5
-1.070, 1.427e-5
-1.071, 1.393e-5
-1.072, 1.405e-5
-1.073, 1.458e-5
-1.074, 1.507e-5
-1.075, 1.471e-5
-1.076, 1.425e-5
-1.077, 1.437e-5
-1.078, 1.495e-5
-1.079, 1.533e-5
-1.080, 1.498e-5
-1.081, 1.452e-5
-1.082, 1.467e-5
-1.083, 1.525e-5
-1.084, 1.571e-5
-1.085, 1.535e-5
-1.086, 1.484e-5
-1.087, 1.507e-5
-1.088, 1.560e-5
-1.089, 1.601e-5
-1.090, 1.570e-5
-1.091, 1.517e-5
-1.092, 1.543e-5
-1.093, 1.604e-5
-1.094, 1.636e-5
-1.095, 1.615e-5
-1.096, 1.559e-5
-1.097, 1.581e-5
-1.098, 1.644e-5
-1.099, 1.681e-5
-1.100, 1.652e-5
-1.101, 1.607e-5
-1.102, 1.622e-5
-1.103, 1.684e-5
-1.104, 1.721e-5
-1.105, 1.697e-5
-1.106, 1.652e-5
-1.107, 1.672e-5
-1.108, 1.732e-5
-1.109, 1.776e-5
-1.110, 1.735e-5
-1.111, 1.697e-5
-1.112, 1.708e-5
-1.113, 1.767e-5
-1.114, 1.820e-5
-1.115, 1.784e-5
-1.116, 1.743e-5
-1.117, 1.760e-5
-1.118, 1.821e-5
-1.119, 1.869e-5
-1.120, 1.828e-5
-1.121, 1.789e-5
-1.122, 1.812e-5
-1.123, 1.862e-5
-1.124, 1.915e-5
-1.125, 1.879e-5
-1.126, 1.839e-5
-1.127, 1.864e-5
-1.128, 1.915e-5
-1.129, 1.967e-5
-1.130, 1.933e-5
-1.131, 1.888e-5
-1.132, 1.907e-5
-1.133, 1.973e-5
-1.134, 2.016e-5
-1.135, 1.982e-5
-1.136, 1.944e-5
-1.137, 1.957e-5
-1.138, 2.031e-5
-1.139, 2.072e-5
-1.140, 2.047e-5
-1.141, 2.006e-5
-1.142, 2.022e-5
-1.143, 2.090e-5
-1.144, 2.121e-5
-1.145, 2.093e-5
-1.146, 2.054e-5
-1.147, 2.071e-5
-1.148, 2.141e-5
-1.149, 2.176e-5
-1.150, 2.150e-5
-1.151, 2.114e-5
-1.152, 2.129e-5
-1.153, 2.188e-5
-1.154, 2.244e-5
-1.155, 2.207e-5
-1.156, 2.172e-5
-1.157, 2.191e-5
-1.158, 2.248e-5
-1.159, 2.297e-5
-1.160, 2.264e-5
-1.161, 2.223e-5
-1.162, 2.256e-5
-1.163, 2.314e-5
-1.164, 2.359e-5
-1.165, 2.336e-5
-1.166, 2.295e-5
-1.167, 2.323e-5
-1.168, 2.379e-5
-1.169, 2.425e-5
-1.170, 2.404e-5
-1.171, 2.358e-5
-1.172, 2.384e-5
-1.173, 2.449e-5
-1.174, 2.491e-5
-1.175, 2.467e-5
-1.176, 2.425e-5
-1.177, 2.462e-5
-1.178, 2.525e-5
-1.179, 2.565e-5
-1.180, 2.544e-5
-1.181, 2.507e-5
-1.182, 2.527e-5
-1.183, 2.599e-5
-1.184, 2.644e-5
-1.185, 2.619e-5
-1.186, 2.591e-5
-1.187, 2.612e-5
-1.188, 2.686e-5
-1.189, 2.729e-5
-1.190, 2.699e-5
-1.191, 2.678e-5
-1.192, 2.704e-5
-1.193, 2.769e-5
-1.194, 2.826e-5
-1.195, 2.795e-5
-1.196, 2.768e-5
-1.197, 2.800e-5
-1.198, 2.863e-5
-1.199, 2.920e-5
-1.200, 2.891e-5
-1.201, 2.867e-5
-1.202, 2.898e-5
-1.203, 2.968e-5
-1.204, 3.027e-5
-1.205, 3.004e-5
-1.206, 2.980e-5
-1.207, 3.018e-5
-1.208, 3.085e-5
-1.209, 3.135e-5
-1.210, 3.118e-5
-1.211, 3.084e-5
-1.212, 3.117e-5
-1.213, 3.189e-5
-1.214, 3.250e-5
-1.215, 3.231e-5
-1.216, 3.203e-5
-1.217, 3.240e-5
-1.218, 3.318e-5
-1.219, 3.371e-5
-1.220, 3.354e-5
-1.221, 3.332e-5
-1.222, 3.365e-5
-1.223, 3.451e-5
-1.224, 3.504e-5
-1.225, 3.485e-5
-1.226, 3.471e-5
-1.227, 3.507e-5
-1.228, 3.596e-5
-1.229, 3.661e-5
-1.230, 3.636e-5
-1.231, 3.616e-5
-1.232, 3.650e-5
-1.233, 3.732e-5
-1.234, 3.805e-5
-1.235, 3.783e-5
-1.236, 3.765e-5
-1.237, 3.803e-5
-1.238, 3.882e-5
-1.239, 3.957e-5
-1.240, 3.932e-5
-1.241, 3.916e-5
-1.242, 3.958e-5
-1.243, 4.042e-5
-1.244, 4.103e-5
-1.245, 4.097e-5
-1.246, 4.075e-5
-1.247, 4.117e-5
-1.248, 4.197e-5
-1.249, 4.265e-5
-1.250, 4.258e-5
-1.251, 4.239e-5
-1.252, 4.279e-5
-1.253, 4.367e-5
-1.254, 4.435e-5
-1.255, 4.432e-5
-1.256, 4.409e-5
-1.257, 4.450e-5
-1.258, 4.546e-5
-1.259, 4.612e-5
-1.260, 4.600e-5
-1.261, 4.587e-5
-1.262, 4.628e-5
-1.263, 4.721e-5
-1.264, 4.781e-5
-1.265, 4.778e-5
-1.266, 4.767e-5
-1.267, 4.810e-5
-1.268, 4.898e-5
-1.269, 4.974e-5
-1.270, 4.957e-5
-1.271, 4.958e-5
-1.272, 4.998e-5
-1.273, 5.081e-5
-1.274, 5.160e-5
-1.275, 5.150e-5
-1.276, 5.148e-5
-1.277, 5.206e-5
-1.278, 5.294e-5
-1.279, 5.375e-5
-1.280, 5.366e-5
-1.281, 5.352e-5
-1.282, 5.406e-5
-1.283, 5.489e-5
-1.284, 5.564e-5
-1.285, 5.559e-5
-1.286, 5.557e-5
-1.287, 5.610e-5
-1.288, 5.699e-5
-1.289, 5.779e-5
-1.290, 5.780e-5
-1.291, 5.767e-5
-1.292, 5.828e-5
-1.293, 5.923e-5
-1.294, 6.003e-5
-1.295, 6.011e-5
-1.296, 6.005e-5
-1.297, 6.067e-5
-1.298, 6.166e-5
-1.299, 6.247e-5
-1.300, 6.247e-5
-1.301, 6.251e-5
-1.302, 6.304e-5
-1.303, 6.402e-5
-1.304, 6.487e-5
-1.305, 6.490e-5
-1.306, 6.501e-5
-1.307, 6.560e-5
-1.308, 6.665e-5
-1.309, 6.746e-5
-1.310, 6.757e-5
-1.311, 6.764e-5
-1.312, 6.818e-5
-1.313, 6.919e-5
-1.314, 7.010e-5
-1.315, 7.008e-5
-1.316, 7.014e-5
-1.317, 7.078e-5
-1.318, 7.169e-5
-1.319, 7.251e-5
-1.320, 7.253e-5
-1.321, 7.253e-5
-1.322, 7.316e-5
-1.323, 7.405e-5
-1.324, 7.487e-5
-1.325, 7.485e-5
-1.326, 7.480e-5
-1.327, 7.537e-5
-1.328, 7.627e-5
-1.329, 7.695e-5
-1.330, 7.696e-5
-1.331, 7.674e-5
-1.332, 7.729e-5
-1.333, 7.805e-5
-1.334, 7.876e-5
-1.335, 7.869e-5
-1.336, 7.844e-5
-1.337, 7.885e-5
-1.338, 7.973e-5
-1.339, 8.029e-5
-1.340, 8.014e-5
-1.341, 7.991e-5
-1.342, 8.034e-5
-1.343, 8.106e-5
-1.344, 8.158e-5
-1.345, 8.130e-5
-1.346, 8.120e-5
-1.347, 8.138e-5
-1.348, 8.214e-5
-1.349, 8.270e-5
-1.350, 8.238e-5
-1.351, 8.218e-5
-1.352, 8.245e-5
-1.353, 8.315e-5
-1.354, 8.370e-5
-1.355, 8.338e-5
-1.356, 8.321e-5
-1.357, 8.360e-5
-1.358, 8.431e-5
-1.359, 8.494e-5
-1.360, 8.458e-5
-1.361, 8.432e-5
-1.362, 8.472e-5
-1.363, 8.541e-5
-1.364, 8.600e-5
-1.365, 8.577e-5
-1.366, 8.549e-5
-1.367, 8.600e-5
-1.368, 8.667e-5
-1.369, 8.729e-5
-1.370, 8.712e-5
-1.371, 8.687e-5
-1.372, 8.725e-5
-1.373, 8.804e-5
-1.374, 8.862e-5
-1.375, 8.848e-5
-1.376, 8.822e-5
-1.377, 8.866e-5
-1.378, 8.945e-5
-1.379, 9.000e-5
-1.380, 8.976e-5
-1.381, 8.962e-5
-1.382, 9.005e-5
-1.383, 9.092e-5
-1.384, 9.152e-5
-1.385, 9.134e-5
-1.386, 9.112e-5
-1.387, 9.140e-5
-1.388, 9.223e-5
-1.389, 9.279e-5
-1.390, 9.248e-5
-1.391, 9.234e-5
-1.392, 9.263e-5
-1.393, 9.346e-5
-1.394, 9.409e-5
-1.395, 9.385e-5
-1.396, 9.372e-5
-1.397, 9.405e-5
-1.398, 9.481e-5
-1.399, 9.540e-5
-1.400, 9.514e-5
-1.401, 9.497e-5
-1.402, 9.542e-5
-1.403, 9.612e-5
-1.404, 9.678e-5
-1.405, 9.656e-5
-1.406, 9.641e-5
-1.407, 9.681e-5
-1.408, 9.762e-5
-1.409, 9.817e-5
-1.410, 9.804e-5
-1.411, 9.774e-5
-1.412, 9.822e-5
-1.413, 9.903e-5
-1.414, 9.962e-5
-1.415, 9.949e-5
-1.416, 9.931e-5
-1.417, 9.975e-5
-1.418, 1.006e-4
-1.419, 1.012e-4
-1.420, 1.010e-4
-1.421, 1.009e-4
-1.422, 1.013e-4
-1.423, 1.022e-4
-1.424, 1.028e-4
-1.425, 1.026e-4
-1.426, 1.027e-4
-1.427, 1.030e-4
-1.428, 1.040e-4
-1.429, 1.047e-4
-1.430, 1.045e-4
-1.431, 1.045e-4
-1.432, 1.049e-4
-1.433, 1.059e-4
-1.434, 1.066e-4
-1.435, 1.065e-4
-1.436, 1.065e-4
-1.437, 1.071e-4
-1.438, 1.080e-4
-1.439, 1.088e-4
-1.440, 1.087e-4
-1.441, 1.087e-4
-1.442, 1.093e-4
-1.443, 1.102e-4
-1.444, 1.111e-4
-1.445, 1.110e-4
-1.446, 1.111e-4
-1.447, 1.119e-4
-1.448, 1.129e-4
-1.449, 1.137e-4
-1.450, 1.138e-4
-1.451, 1.139e-4
-1.452, 1.145e-4
-1.453, 1.156e-4
-1.454, 1.164e-4
-1.455, 1.165e-4
-1.456, 1.165e-4
-1.457, 1.173e-4
-1.458, 1.185e-4
-1.459, 1.193e-4
-1.460, 1.194e-4
-1.461, 1.196e-4
-1.462, 1.203e-4
-1.463, 1.215e-4
-1.464, 1.224e-4
-1.465, 1.226e-4
-1.466, 1.228e-4
-1.467, 1.236e-4
-1.468, 1.249e-4
-1.469, 1.259e-4
-1.470, 1.260e-4
-1.471, 1.264e-4
-1.472, 1.272e-4
-1.473, 1.285e-4
-1.474, 1.295e-4
-1.475, 1.298e-4
-1.476, 1.302e-4
-1.477, 1.311e-4
-1.478, 1.325e-4
-1.479, 1.337e-4
-1.480, 1.339e-4
-1.481, 1.343e-4
-1.482, 1.353e-4
-1.483, 1.366e-4
-1.484, 1.378e-4
-1.485, 1.382e-4
-1.486, 1.387e-4
-1.487, 1.397e-4
-1.488, 1.411e-4
-1.489, 1.423e-4
-1.490, 1.428e-4
-1.491, 1.433e-4
-1.492, 1.445e-4
-1.493, 1.460e-4
-1.494, 1.471e-4
-1.495, 1.477e-4
-1.496, 1.482e-4
-1.497, 1.494e-4
-1.498, 1.510e-4
-1.499, 1.522e-4
-1.500, 1.529e-4
-1.501, 1.535e-4
-1.502, 1.547e-4
-1.503, 1.564e-4
-1.504, 1.577e-4
-1.505, 1.583e-4
-1.506, 1.591e-4
-1.507, 1.603e-4
-1.508, 1.620e-4
-1.509, 1.635e-4
-1.510, 1.642e-4
-1.511, 1.649e-4
-1.512, 1.662e-4
-1.513, 1.680e-4
-1.514, 1.695e-4
-1.515, 1.702e-4
-1.516, 1.711e-4
-1.517, 1.724e-4
-1.518, 1.743e-4
-1.519, 1.759e-4
-1.520, 1.766e-4
-1.521, 1.775e-4
-1.522, 1.790e-4
-1.523, 1.809e-4
-1.524, 1.826e-4
-1.525, 1.834e-4
-1.526, 1.843e-4
-1.527, 1.860e-4
-1.528, 1.879e-4
-1.529, 1.896e-4
-1.530, 1.907e-4
-1.531, 1.916e-4
-1.532, 1.933e-4
-1.533, 1.954e-4
-1.534, 1.971e-4
-1.535, 1.982e-4
-1.536, 1.993e-4
-1.537, 2.011e-4
-1.538, 2.033e-4
-1.539, 2.050e-4
-1.540, 2.063e-4
-1.541, 2.074e-4
-1.542, 2.092e-4
-1.543, 2.115e-4
-1.544, 2.134e-4
-1.545, 2.146e-4
-1.546, 2.159e-4
-1.547, 2.178e-4
-1.548, 2.202e-4
-1.549, 2.222e-4
-1.550, 2.235e-4
-1.551, 2.249e-4
-1.552, 2.268e-4
-1.553, 2.293e-4
-1.554, 2.315e-4
-1.555, 2.329e-4
-1.556, 2.344e-4
-1.557, 2.365e-4
-1.558, 2.391e-4
-1.559, 2.414e-4
-1.560, 2.430e-4
-1.561, 2.446e-4
-1.562, 2.468e-4
-1.563, 2.494e-4
-1.564, 2.517e-4
-1.565, 2.533e-4
-1.566, 2.550e-4
-1.567, 2.574e-4
-1.568, 2.602e-4
-1.569, 2.627e-4
-1.570, 2.645e-4
-1.571, 2.663e-4
-1.572, 2.688e-4
-1.573, 2.717e-4
-1.574, 2.742e-4
-1.575, 2.763e-4
-1.576, 2.781e-4
-1.577, 2.808e-4
-1.578, 2.840e-4
-1.579, 2.867e-4
-1.580, 2.887e-4
-1.581, 2.907e-4
-1.582, 2.935e-4
-1.583, 2.966e-4
-1.584, 2.994e-4
-1.585, 3.016e-4
-1.586, 3.038e-4
-1.587, 3.070e-4
-1.588, 3.106e-4
-1.589, 3.135e-4
-1.590, 3.157e-4
-1.591, 3.181e-4
-1.592, 3.211e-4
-1.593, 3.244e-4
-1.594, 3.276e-4
-1.595, 3.302e-4
-1.596, 3.327e-4
-1.597, 3.359e-4
-1.598, 3.398e-4
-1.599, 3.433e-4
-1.600, 3.459e-4
-1.601, 3.487e-4
-1.602, 3.523e-4
-1.603, 3.561e-4
-1.604, 3.595e-4
-1.605, 3.626e-4
-1.606, 3.656e-4
-1.607, 3.692e-4
-1.608, 3.734e-4
-1.609, 3.773e-4
-1.610, 3.805e-4
-1.611, 3.837e-4
-1.612, 3.879e-4
-1.613, 3.923e-4
-1.614, 3.963e-4
-1.615, 3.999e-4
-1.616, 4.035e-4
-1.617, 4.078e-4
-1.618, 4.125e-4
-1.619, 4.169e-4
-1.620, 4.208e-4
-1.621, 4.245e-4
-1.622, 4.291e-4
-1.623, 4.343e-4
-1.624, 4.389e-4
-1.625, 4.429e-4
-1.626, 4.473e-4
-1.627, 4.522e-4
-1.628, 4.576e-4
-1.629, 4.629e-4
-1.630, 4.678e-4
-1.631, 4.723e-4
-1.632, 4.775e-4
-1.633, 4.835e-4
-1.634, 4.891e-4
-1.635, 4.939e-4
-1.636, 4.990e-4
-1.637, 5.049e-4
-1.638, 5.113e-4
-1.639, 5.172e-4
-1.640, 5.226e-4
-1.641, 5.282e-4
-1.642, 5.343e-4
-1.643, 5.411e-4
-1.644, 5.478e-4
-1.645, 5.536e-4
-1.646, 5.595e-4
-1.647, 5.667e-4
-1.648, 5.739e-4
-1.649, 5.813e-4
-1.650, 5.884e-4
-1.651, 5.947e-4
-1.652, 6.020e-4
-1.653, 6.099e-4
-1.654, 6.170e-4
-1.655, 6.242e-4
-1.656, 6.313e-4
-1.657, 6.397e-4
-1.658, 6.484e-4
-1.659, 6.564e-4
-1.660, 6.644e-4
-1.661, 6.726e-4
-1.662, 6.814e-4
-1.663, 6.910e-4
-1.664, 7.004e-4
-1.665, 7.093e-4
-1.666, 7.182e-4
-1.667, 7.279e-4
-1.668, 7.384e-4
-1.669, 7.484e-4
-1.670, 7.580e-4
-1.671, 7.680e-4
-1.672, 7.790e-4
-1.673, 7.902e-4
-1.674, 8.016e-4
-1.675, 8.124e-4
-1.676, 8.230e-4
-1.677, 8.344e-4
-1.678, 8.471e-4
-1.679, 8.595e-4
-1.680, 8.712e-4
-1.681, 8.834e-4
-1.682, 8.968e-4
-1.683, 9.103e-4
-1.684, 9.243e-4
-1.685, 9.379e-4
-1.686, 9.514e-4
-1.687, 9.656e-4
-1.688, 9.810e-4
-1.689, 9.964e-4
-1.690, 1.011e-3
-1.691, 1.026e-3
-1.692, 1.042e-3
-1.693, 1.059e-3
-1.694, 1.075e-3
-1.695, 1.092e-3
-1.696, 1.109e-3
-1.697, 1.126e-3
-1.698, 1.145e-3
-1.699, 1.163e-3
-1.700, 1.182e-3
-1.701, 1.200e-3
-1.702, 1.220e-3
-1.703, 1.241e-3
-1.704, 1.261e-3
-1.705, 1.281e-3
-1.706, 1.302e-3
-1.707, 1.324e-3
-1.708, 1.347e-3
-1.709, 1.370e-3
-1.710, 1.393e-3
-1.711, 1.415e-3
-1.712, 1.438e-3
-1.713, 1.464e-3
-1.714, 1.488e-3
-1.715, 1.513e-3
-1.716, 1.539e-3
-1.717, 1.566e-3
-1.718, 1.594e-3
-1.719, 1.622e-3
-1.720, 1.650e-3
-1.721, 1.679e-3
-1.722, 1.708e-3
-1.723, 1.739e-3
-1.724, 1.770e-3
-1.725, 1.799e-3
-1.726, 1.830e-3
-1.727, 1.858e-3
-1.728, 1.888e-3
-1.729, 1.920e-3
-1.730, 1.954e-3
-1.731, 1.986e-3
-1.732, 2.014e-3
-1.733, 2.051e-3
-1.734, 2.087e-3
-1.735, 2.121e-3
-1.736, 2.157e-3
-1.737, 2.196e-3
-1.738, 2.234e-3
-1.739, 2.273e-3
-1.740, 2.311e-3
-1.741, 2.348e-3
-1.742, 2.384e-3
-1.743, 2.423e-3
-1.744, 2.465e-3
-1.745, 2.505e-3
-1.746, 2.545e-3
-1.747, 2.589e-3
-1.748, 2.634e-3
-1.749, 2.675e-3
-1.750, 2.718e-3
-1.751, 2.764e-3
-1.752, 2.809e-3
-1.753, 2.855e-3
-1.754, 2.906e-3
-1.755, 2.954e-3
-1.756, 2.998e-3
-1.757, 3.041e-3
-1.758, 3.080e-3
-1.759, 3.122e-3
-1.760, 3.161e-3
-1.761, 3.209e-3
-1.762, 3.259e-3
-1.763, 3.306e-3
-1.764, 3.354e-3
-1.765, 3.408e-3
-1.766, 3.456e-3
-1.767, 3.501e-3
-1.768, 3.550e-3
-1.769, 3.601e-3
-1.770, 3.648e-3
-1.771, 3.699e-3
-1.772, 3.752e-3
-1.773, 3.799e-3
-1.774, 3.850e-3
-1.775, 3.908e-3
-1.776, 3.957e-3
-1.777, 3.995e-3
-1.778, 4.033e-3
-1.779, 4.079e-3
-1.780, 4.123e-3
-1.781, 4.159e-3
-1.782, 4.208e-3
-1.783, 4.268e-3
-1.784, 4.318e-3
-1.785, 4.363e-3
-1.786, 4.413e-3
-1.787, 4.471e-3
-1.788, 4.525e-3
-1.789, 4.587e-3
-1.790, 4.645e-3
-1.791, 4.695e-3
-1.792, 4.752e-3
-1.793, 4.808e-3
-1.794, 4.861e-3
-1.795, 4.914e-3
-1.796, 4.972e-3
-1.797, 5.025e-3
-1.798, 5.078e-3
-1.799, 5.141e-3
-1.800, 5.154e-3
-1.799, 5.113e-3
-1.798, 5.061e-3
-1.797, 5.016e-3
-1.796, 4.968e-3
-1.795, 4.909e-3
-1.794, 4.863e-3
-1.793, 4.803e-3
-1.792, 4.750e-3
-1.791, 4.697e-3
-1.790, 4.635e-3
-1.789, 4.565e-3
-1.788, 4.508e-3
-1.787, 4.461e-3
-1.786, 4.410e-3
-1.785, 4.358e-3
-1.784, 4.311e-3
-1.783, 4.263e-3
-1.782, 4.216e-3
-1.781, 4.164e-3
-1.780, 4.115e-3
-1.779, 4.067e-3
-1.778, 4.016e-3
-1.777, 3.962e-3
-1.776, 3.919e-3
-1.775, 3.870e-3
-1.774, 3.822e-3
-1.773, 3.777e-3
-1.772, 3.719e-3
-1.771, 3.677e-3
-1.770, 3.633e-3
-1.769, 3.587e-3
-1.768, 3.537e-3
-1.767, 3.499e-3
-1.766, 3.454e-3
-1.765, 3.408e-3
-1.764, 3.362e-3
-1.763, 3.320e-3
-1.762, 3.280e-3
-1.761, 3.242e-3
-1.760, 3.202e-3
-1.759, 3.162e-3
-1.758, 3.120e-3
-1.757, 3.070e-3
-1.756, 3.030e-3
-1.755, 2.989e-3
-1.754, 2.949e-3
-1.753, 2.910e-3
-1.752, 2.875e-3
-1.751, 2.835e-3
-1.750, 2.792e-3
-1.749, 2.753e-3
-1.748, 2.718e-3
-1.747, 2.683e-3
-1.746, 2.648e-3
-1.745, 2.611e-3
-1.744, 2.576e-3
-1.743, 2.540e-3
-1.742, 2.507e-3
-1.741, 2.473e-3
-1.740, 2.436e-3
-1.739, 2.402e-3
-1.738, 2.370e-3
-1.737, 2.339e-3
-1.736, 2.309e-3
-1.735, 2.272e-3
-1.734, 2.238e-3
-1.733, 2.205e-3
-1.732, 2.173e-3
-1.731, 2.143e-3
-1.730, 2.114e-3
-1.729, 2.084e-3
-1.728, 2.059e-3
-1.727, 2.037e-3
-1.726, 2.009e-3
-1.725, 1.979e-3
-1.724, 1.949e-3
-1.723, 1.922e-3
-1.722, 1.895e-3
-1.721, 1.869e-3
-1.720, 1.845e-3
-1.719, 1.821e-3
-1.718, 1.799e-3
-1.717, 1.777e-3
-1.716, 1.751e-3
-1.715, 1.725e-3
-1.714, 1.701e-3
-1.713, 1.678e-3
-1.712, 1.647e-3
-1.711, 1.618e-3
-1.710, 1.593e-3
-1.709, 1.567e-3
-1.708, 1.544e-3
-1.707, 1.523e-3
-1.706, 1.501e-3
-1.705, 1.472e-3
-1.704, 1.449e-3
-1.703, 1.430e-3
-1.702, 1.408e-3
-1.701, 1.388e-3
-1.700, 1.366e-3
-1.699, 1.344e-3
-1.698, 1.324e-3
-1.697, 1.306e-3
-1.696, 1.286e-3
-1.695, 1.265e-3
-1.694, 1.245e-3
-1.693, 1.225e-3
-1.692, 1.206e-3
-1.691, 1.187e-3
-1.690, 1.169e-3
-1.689, 1.148e-3
-1.688, 1.130e-3
-1.687, 1.112e-3
-1.686, 1.094e-3
-1.685, 1.076e-3
-1.684, 1.059e-3
-1.683, 1.041e-3
-1.682, 1.024e-3
-1.681, 1.008e-3
-1.680, 9.908e-4
-1.679, 9.739e-4
-1.678, 9.582e-4
-1.677, 9.430e-4
-1.676, 9.272e-4
-1.675, 9.109e-4
-1.674, 8.957e-4
-1.673, 8.809e-4
-1.672, 8.660e-4
-1.671, 8.516e-4
-1.670, 8.369e-4
-1.669, 8.224e-4
-1.668, 8.081e-4
-1.667, 7.950e-4
-1.666, 7.821e-4
-1.665, 7.681e-4
-1.664, 7.554e-4
-1.663, 7.433e-4
-1.662, 7.305e-4
-1.661, 7.182e-4
-1.660, 7.059e-4
-1.659, 6.935e-4
-1.658, 6.838e-4
-1.657, 6.731e-4
-1.656, 6.613e-4
-1.655, 6.493e-4
-1.654, 6.372e-4
-1.653, 6.272e-4
-1.652, 6.172e-4
-1.651, 6.064e-4
-1.650, 5.957e-4
-1.649, 5.851e-4
-1.648, 5.753e-4
-1.647, 5.661e-4
-1.646, 5.563e-4
-1.645, 5.463e-4
-1.644, 5.365e-4
-1.643, 5.276e-4
-1.642, 5.191e-4
-1.641, 5.100e-4
-1.640, 5.010e-4
-1.639, 4.918e-4
-1.638, 4.833e-4
-1.637, 4.755e-4
-1.636, 4.677e-4
-1.635, 4.592e-4
-1.634, 4.506e-4
-1.633, 4.429e-4
-1.632, 4.347e-4
-1.631, 4.270e-4
-1.630, 4.195e-4
-1.629, 4.122e-4
-1.628, 4.051e-4
-1.627, 3.987e-4
-1.626, 3.918e-4
-1.625, 3.845e-4
-1.624, 3.776e-4
-1.623, 3.715e-4
-1.622, 3.654e-4
-1.621, 3.587e-4
-1.620, 3.523e-4
-1.619, 3.458e-4
-1.618, 3.401e-4
-1.617, 3.344e-4
-1.616, 3.288e-4
-1.615, 3.228e-4
-1.614, 3.170e-4
-1.613, 3.118e-4
-1.612, 3.064e-4
-1.611, 3.010e-4
-1.610, 2.953e-4
-1.609, 2.899e-4
-1.608, 2.848e-4
-1.607, 2.806e-4
-1.606, 2.758e-4
-1.605, 2.702e-4
-1.604, 2.651e-4
-1.603, 2.608e-4
-1.602, 2.567e-4
-1.601, 2.523e-4
-1.600, 2.476e-4
-1.599, 2.430e-4
-1.598, 2.391e-4
-1.597, 2.355e-4
-1.596, 2.313e-4
-1.595, 2.271e-4
-1.594, 2.228e-4
-1.593, 2.192e-4
-1.592, 2.159e-4
-1.591, 2.122e-4
-1.590, 2.082e-4
-1.589, 2.043e-4
-1.588, 2.011e-4
-1.587, 1.981e-4
-1.586, 1.944e-4
-1.585, 1.905e-4
-1.584, 1.872e-4
-1.583, 1.847e-4
-1.582, 1.818e-4
-1.581, 1.787e-4
-1.580, 1.752e-4
-1.579, 1.718e-4
-1.578, 1.692e-4
-1.577, 1.666e-4
-1.576, 1.640e-4
-1.575, 1.606e-4
-1.574, 1.576e-4
-1.573, 1.552e-4
-1.572, 1.530e-4
-1.571, 1.503e-4
-1.570, 1.474e-4
-1.569, 1.445e-4
-1.568, 1.424e-4
-1.567, 1.404e-4
-1.566, 1.379e-4
-1.565, 1.351e-4
-1.564, 1.325e-4
-1.563, 1.306e-4
-1.562, 1.288e-4
-1.561, 1.265e-4
-1.560, 1.240e-4
-1.559, 1.215e-4
-1.558, 1.198e-4
-1.557, 1.185e-4
-1.556, 1.165e-4
-1.555, 1.141e-4
-1.554, 1.118e-4
-1.553, 1.101e-4
-1.552, 1.085e-4
-1.551, 1.062e-4
-1.550, 1.036e-4
-1.549, 1.017e-4
-1.548, 1.003e-4
-1.547, 9.883e-5
-1.546, 9.709e-5
-1.545, 9.486e-5
-1.544, 9.298e-5
-1.543, 9.163e-5
-1.542, 9.030e-5
-1.541, 8.877e-5
-1.540, 8.674e-5
-1.539, 8.481e-5
-1.538, 8.372e-5
-1.537, 8.262e-5
-1.536, 8.130e-5
-1.535, 7.949e-5
-1.534, 7.771e-5
-1.533, 7.675e-5
-1.532, 7.584e-5
-1.531, 7.447e-5
-1.530, 7.264e-5
-1.529, 7.098e-5
-1.528, 6.983e-5
-1.527, 6.913e-5
-1.526, 6.770e-5
-1.525, 6.602e-5
-1.524, 6.453e-5
-1.523, 6.363e-5
-1.522, 6.283e-5
-1.521, 6.153e-5
-1.520, 6.001e-5
-1.519, 5.866e-5
-1.518, 5.770e-5
-1.517, 5.713e-5
-1.516, 5.613e-5
-1.515, 5.449e-5
-1.514, 5.320e-5
-1.513, 5.246e-5
-1.512, 5.188e-5
-1.511, 5.077e-5
-1.510, 4.926e-5
-1.509, 4.811e-5
-1.508, 4.751e-5
-1.507, 4.696e-5
-1.506, 4.601e-5
-1.505, 4.468e-5
-1.504, 4.362e-5
-1.503, 4.303e-5
-1.502, 4.248e-5
-1.501, 4.157e-5
-1.500, 4.026e-5
-1.499, 3.912e-5
-1.498, 3.863e-5
-1.497, 3.812e-5
-1.496, 3.731e-5
-1.495, 3.612e-5
-1.494, 3.509e-5
-1.493, 3.473e-5
-1.492, 3.427e-5
-1.491, 3.344e-5
-1.490, 3.228e-5
-1.489, 3.132e-5
-1.488, 3.098e-5
-1.487, 3.067e-5
-1.486, 2.983e-5
-1.485, 2.870e-5
-1.484, 2.791e-5
-1.483, 2.757e-5
-1.482, 2.731e-5
-1.481, 2.657e-5
-1.480, 2.561e-5
-1.479, 2.474e-5
-1.478, 2.445e-5
-1.477, 2.424e-5
-1.476, 2.357e-5
-1.475, 2.257e-5
-1.474, 2.180e-5
-1.473, 2.153e-5
-1.472, 2.143e-5
-1.471, 2.083e-5
-1.470, 1.987e-5
-1.469, 1.923e-5
-1.468, 1.900e-5
-1.467, 1.883e-5
-1.466, 1.833e-5
-1.465, 1.733e-5
-1.464, 1.664e-5
-1.463, 1.651e-5
-1.462, 1.634e-5
-1.461, 1.585e-5
-1.460, 1.497e-5
-1.459, 1.434e-5
-1.458, 1.429e-5
-1.457, 1.422e-5
-1.456, 1.376e-5
-1.455, 1.291e-5
-1.454, 1.223e-5
-1.453, 1.224e-5
-1.452, 1.217e-5
-1.451, 1.156e-5
-1.450, 1.086e-5
-1.449, 1.025e-5
-1.448, 1.029e-5
-1.447, 1.022e-5
-1.446, 9.747e-6
-1.445, 9.045e-6
-1.444, 8.521e-6
-1.443, 8.433e-6
-1.442, 8.554e-6
-1.441, 8.039e-6
-1.440, 7.303e-6
-1.439, 6.846e-6
-1.438, 6.798e-6
-1.437, 6.933e-6
-1.436, 6.508e-6
-1.435, 5.715e-6
-1.434, 5.258e-6
-1.433, 5.291e-6
-1.432, 5.458e-6
-1.431, 5.074e-6
-1.430, 4.267e-6
-1.429, 3.973e-6
-1.428, 3.957e-6
-1.427, 4.068e-6
-1.426, 3.714e-6
-1.425, 2.979e-6
-1.424, 2.645e-6
-1.423, 2.704e-6
-1.422, 2.797e-6
-1.421, 2.507e-6
-1.420, 1.798e-6
-1.419, 1.398e-6
-1.418, 1.558e-6
-1.417, 1.646e-6
-1.416, 1.365e-6
-1.415, 7.200e-7
-1.414, 3.086e-7
-1.413, 5.336e-7
-1.412, 7.210e-7
-1.411, 3.678e-7
-1.410, -2.005e-7
-1.409, -6.464e-7
-1.408, -4.313e-7
-1.407, -2.567e-7
-1.406, -6.721e-7
-1.405, -1.239e-6
-1.404, -1.551e-6
-1.403, -1.403e-6
-1.402, -1.209e-6
-1.401, -1.533e-6
-1.400, -2.084e-6
-1.399, -2.370e-6
-1.398, -2.278e-6
-1.397, -2.011e-6
-1.396, -2.312e-6
-1.395, -2.965e-6
-1.394, -3.218e-6
-1.393, -3.102e-6
-1.392, -2.784e-6
-1.391, -3.121e-6
-1.390, -3.697e-6
-1.389, -3.901e-6
-1.388, -3.764e-6
-1.387, -3.548e-6
-1.386, -3.799e-6
-1.385, -4.442e-6
-1.384, -4.585e-6
-1.383, -4.489e-6
-1.382, -4.278e-6
-1.381, -4.486e-6
-1.380, -5.063e-6
-1.379, -5.320e-6
-1.378, -5.111e-6
-1.377, -4.883e-6
-1.376, -5.099e-6
-1.375, -5.670e-6
-1.374, -5.962e-6
-1.373, -5.683e-6
-1.372, -5.457e-6
-1.371, -5.718e-6
-1.370, -6.259e-6
-1.369, -6.497e-6
-1.368, -6.308e-6
-1.367, -6.055e-6
-1.366, -6.323e-6
-1.365, -6.835e-6
-1.364, -7.038e-6
-1.363, -6.848e-6
-1.362, -6.550e-6
-1.361, -6.894e-6
-1.360, -7.378e-6
-1.359, -7.586e-6
-1.358, -7.426e-6
-1.357, -7.146e-6
-1.356, -7.397e-6
-1.355, -7.949e-6
-1.354, -8.122e-6
-1.353, -7.926e-6
-1.352, -7.676e-6
-1.351, -7.865e-6
-1.350, -8.527e-6
-1.349, -8.617e-6
-1.348, -8.431e-6
-1.347, -8.204e-6
-1.346, -8.442e-6
-1.345, -9.038e-6
-1.344, -9.174e-6
-1.343, -8.934e-6
-1.342, -8.759e-6
-1.341, -8.981e-6
-1.340, -9.524e-6
-1.339, -9.792e-6
-1.338, -9.471e-6
-1.337, -9.283e-6
-1.336, -9.507e-6
-1.335, -1.011e-5
-1.334, -1.030e-5
-1.333, -1.003e-5
-1.332, -9.844e-6
-1.331, -1.011e-5
-1.330, -1.069e-5
-1.329, -1.089e-5
-1.328, -1.063e-5
-1.327, -1.044e-5
-1.326, -1.074e-5
-1.325, -1.128e-5
-1.324, -1.152e-5
-1.323, -1.129e-5
-1.322, -1.107e-5
-1.321, -1.142e-5
-1.320, -1.195e-5
-1.319, -1.214e-5
-1.318, -1.198e-5
-1.317, -1.170e-5
-1.316, -1.207e-5
-1.315, -1.262e-5
-1.314, -1.287e-5
-1.313, -1.263e-5
-1.312, -1.249e-5
-1.311, -1.281e-5
-1.310, -1.342e-5
-1.309, -1.360e-5
-1.308, -1.340e-5
-1.307, -1.326e-5
-1.306, -1.357e-5
-1.305, -1.425e-5
-1.304, -1.444e-5
-1.303, -1.419e-5
-1.302, -1.409e-5
-1.301, -1.445e-5
-1.300, -1.503e-5
-1.299, -1.538e-5
-1.298, -1.509e-5
-1.297, -1.497e-5
-1.296, -1.534e-5
-1.295, -1.594e-5
-1.294, -1.625e-5
-1.293, -1.604e-5
-1.292, -1.589e-5
-1.291, -1.630e-5
-1.290, -1.691e-5
-1.289, -1.719e-5
-1.288, -1.695e-5
-1.287, -1.686e-5
-1.286, -1.734e-5
-1.285, -1.784e-5
-1.284, -1.816e-5
-1.283, -1.794e-5
-1.282, -1.783e-5
-1.281, -1.826e-5
-1.280, -1.891e-5
-1.279, -1.914e-5
-1.278, -1.903e-5
-1.277, -1.880e-5
-1.276, -1.926e-5
-1.275, -1.992e-5
-1.274, -2.014e-5
-1.273, -1.997e-5
-1.272, -1.988e-5
-1.271, -2.029e-5
-1.270, -2.096e-5
-1.269, -2.112e-5
-1.268, -2.099e-5
-1.267, -2.092e-5
-1.266, -2.129e-5
-1.265, -2.203e-5
-1.264, -2.221e-5
-1.263, -2.205e-5
-1.262, -2.197e-5
-1.261, -2.236e-5
-1.260, -2.302e-5
-1.259, -2.332e-5
-1.258, -2.310e-5
-1.257, -2.307e-5
-1.256, -2.341e-5
-1.255, -2.414e-5
-1.254, -2.439e-5
-1.253, -2.417e-5
-1.252, -2.405e-5
-1.251, -2.455e-5
-1.250, -2.519e-5
-1.249, -2.546e-5
-1.248, -2.523e-5
-1.247, -2.514e-5
-1.246, -2.563e-5
-1.245, -2.626e-5
-1.244, -2.653e-5
-1.243, -2.653e-5
-1.242, -2.638e-5
-1.241, -2.687e-5
-1.240, -2.744e-5
-1.239, -2.768e-5
-1.238, -2.754e-5
-1.237, -2.736e-5
-1.236, -2.785e-5
-1.235, -2.854e-5
-1.234, -2.873e-5
-1.233, -2.857e-5
-1.232, -2.844e-5
-1.231, -2.889e-5
-1.230, -2.958e-5
-1.229, -2.994e-5
-1.228, -2.965e-5
-1.227, -2.953e-5
-1.226, -2.997e-5
-1.225, -3.072e-5
-1.224, -3.085e-5
-1.223, -3.068e-5
-1.222, -3.059e-5
-1.221, -3.103e-5
-1.220, -3.168e-5
-1.219, -3.188e-5
-1.218, -3.169e-5
-1.217, -3.162e-5
-1.216, -3.208e-5
-1.215, -3.271e-5
-1.214, -3.298e-5
-1.213, -3.272e-5
-1.212, -3.259e-5
-1.211, -3.315e-5
-1.210, -3.371e-5
-1.209, -3.397e-5
-1.208, -3.375e-5
-1.207, -3.360e-5
-1.206, -3.420e-5
-1.205, -3.475e-5
-1.204, -3.492e-5
-1.203, -3.483e-5
-1.202, -3.464e-5
-1.201, -3.516e-5
-1.200, -3.576e-5
-1.199, -3.596e-5
-1.198, -3.577e-5
-1.197, -3.557e-5
-1.196, -3.611e-5
-1.195, -3.672e-5
-1.194, -3.692e-5
-1.193, -3.674e-5
-1.192, -3.652e-5
-1.191, -3.705e-5
-1.190, -3.772e-5
-1.189, -3.777e-5
-1.188, -3.761e-5
-1.187, -3.750e-5
-1.186, -3.793e-5
-1.185, -3.862e-5
-1.184, -3.871e-5
-1.183, -3.846e-5
-1.182, -3.842e-5
-1.181, -3.884e-5
-1.180, -3.943e-5
-1.179, -3.964e-5
-1.178, -3.942e-5
-1.177, -3.930e-5
-1.176, -3.973e-5
-1.175, -4.016e-5
-1.174, -4.038e-5
-1.173, -4.013e-5
-1.172, -3.998e-5
-1.171, -4.049e-5
-1.170, -4.104e-5
-1.169, -4.119e-5
-1.168, -4.085e-5
-1.167, -4.074e-5
-1.166, -4.124e-5
-1.165, -4.174e-5
-1.164, -4.186e-5
-1.163, -4.157e-5
-1.162, -4.141e-5
-1.161, -4.193e-5
-1.160, -4.242e-5
-1.159, -4.246e-5
-1.158, -4.225e-5
-1.157, -4.203e-5
-1.156, -4.247e-5
-1.155, -4.302e-5
-1.154, -4.308e-5
-1.153, -4.276e-5
-1.152, -4.257e-5
-1.151, -4.302e-5
-1.150, -4.358e-5
-1.149, -4.354e-5
-1.148, -4.318e-5
-1.147, -4.305e-5
-1.146, -4.338e-5
-1.145, -4.389e-5
-1.144, -4.385e-5
-1.143, -4.347e-5
-1.142, -4.329e-5
-1.141, -4.367e-5
-1.140, -4.408e-5
-1.139, -4.410e-5
-1.138, -4.363e-5
-1.137, -4.348e-5
-1.136, -4.377e-5
-1.135, -4.419e-5
-1.134, -4.413e-5
-1.133, -4.369e-5
-1.132, -4.347e-5
-1.131, -4.381e-5
-1.130, -4.415e-5
-1.129, -4.405e-5
-1.128, -4.351e-5
-1.127, -4.332e-5
-1.126, -4.368e-5
-1.125, -4.390e-5
-1.124, -4.378e-5
-1.123, -4.334e-5
-1.122, -4.299e-5
-1.121, -4.333e-5
-1.120, -4.353e-5
-1.119, -4.338e-5
-1.118, -4.290e-5
-1.117, -4.249e-5
-1.116, -4.279e-5
-1.115, -4.305e-5
-1.114, -4.282e-5
-1.113, -4.234e-5
-1.112, -4.189e-5
-1.111, -4.215e-5
-1.110, -4.241e-5
-1.109, -4.212e-5
-1.108, -4.152e-5
-1.107, -4.125e-5
-1.106, -4.135e-5
-1.105, -4.162e-5
-1.104, -4.129e-5
-1.103, -4.070e-5
-1.102, -4.040e-5
-1.101, -4.050e-5
-1.100, -4.069e-5
-1.099, -4.046e-5
-1.098, -3.978e-5
-1.097, -3.939e-5
-1.096, -3.954e-5
-1.095, -3.973e-5
-1.094, -3.947e-5
-1.093, -3.876e-5
-1.092, -3.843e-5
-1.091, -3.857e-5
-1.090, -3.875e-5
-1.089, -3.851e-5
-1.088, -3.780e-5
-1.087, -3.744e-5
-1.086, -3.763e-5
-1.085, -3.773e-5
-1.084, -3.746e-5
-1.083, -3.680e-5
-1.082, -3.643e-5
-1.081, -3.662e-5
-1.080, -3.676e-5
-1.079, -3.646e-5
-1.078, -3.592e-5
-1.077, -3.561e-5
-1.076, -3.581e-5
-1.075, -3.606e-5
-1.074, -3.567e-5
-1.073, -3.507e-5
-1.072, -3.470e-5
-1.071, -3.483e-5
-1.070, -3.510e-5
-1.069, -3.478e-5
-1.068, -3.416e-5
-1.067, -3.391e-5
-1.066, -3.404e-5
-1.065, -3.432e-5
-1.064, -3.398e-5
-1.063, -3.340e-5
-1.062, -3.315e-5
-1.061, -3.329e-5
-1.060, -3.353e-5
-1.059, -3.329e-5
-1.058, -3.264e-5
-1.057, -3.248e-5
-1.056, -3.261e-5
-1.055, -3.289e-5
-1.054, -3.271e-5
-1.053, -3.210e-5
-1.052, -3.185e-5
-1.051, -3.218e-5
-1.050, -3.237e-5
-1.049, -3.218e-5
-1.048, -3.155e-5
-1.047, -3.133e-5
-1.046, -3.164e-5
-1.045, -3.187e-5
-1.044, -3.164e-5
-1.043, -3.112e-5
-1.042, -3.089e-5
-1.041, -3.120e-5
-1.040, -3.148e-5
-1.039, -3.123e-5
-1.038, -3.076e-5
-1.037, -3.051e-5
-1.036, -3.083e-5
-1.035, -3.116e-5
-1.034, -3.097e-5
-1.033, -3.046e-5
-1.032, -3.022e-5
-1.031, -3.052e-5
-1.030, -3.091e-5
-1.029, -3.066e-5
-1.028, -3.015e-5
-1.027, -3.006e-5
-1.026, -3.036e-5
-1.025, -3.076e-5
-1.024, -3.063e-5
-1.023, -3.006e-5
-1.022, -2.997e-5
-1.021, -3.023e-5
-1.020, -3.057e-5
-1.019, -3.045e-5
-1.018, -2.983e-5
-1.017, -2.981e-5
-1.016, -3.004e-5
-1.015, -3.044e-5
-1.014, -3.035e-5
-1.013, -2.980e-5
-1.012, -2.969e-5
-1.011, -3.012e-5
-1.010, -3.040e-5
-1.009, -3.026e-5
-1.008, -2.972e-5
-1.007, -2.955e-5
-1.006, -2.998e-5
-1.005, -3.032e-5
-1.004, -3.015e-5
-1.003, -2.974e-5
-1.002, -2.954e-5
-1.001, -2.996e-5
-1.000, -2.014e-5
-1.001, -1.455e-5
-1.002, -1.203e-5
-1.003, -1.054e-5
-1.004, -9.734e-6
-1.005, -9.143e-6
-1.006, -8.020e-6
-1.007, -6.705e-6
-1.008, -5.984e-6
-1.009, -5.627e-6
-1.010, -5.341e-6
-1.011, -4.642e-6
-1.012, -3.568e-6
-1.013, -3.024e-6
-1.014, -2.940e-6
-1.015, -2.845e-6
-1.016, -2.272e-6
-1.017, -1.406e-6
-1.018, -8.358e-7
-1.019, -9.217e-7
-1.020, -9.010e-7
-1.021, -4.195e-7
-1.022, 3.560e-7
-1.023, 7.930e-7
-1.024, 6.727e-7
-1.025, 5.681e-7
-1.026, 1.100e-6
-1.027, 1.746e-6
-1.028, 2.146e-6
-1.029, 1.982e-6
-1.030, 1.833e-6
-1.031, 2.327e-6
-1.032, 2.948e-6
-1.033, 3.268e-6
-1.034, 3.095e-6
-1.035, 2.894e-6
-1.036, 3.369e-6
-1.037, 3.993e-6
-1.038, 4.297e-6
-1.039, 4.017e-6
-1.040, 3.853e-6
-1.041, 4.217e-6
-1.042, 4.913e-6
-1.043, 5.096e-6
-1.044, 4.821e-6
-1.045, 4.679e-6
-1.046, 5.009e-6
-1.047, 5.667e-6
-1.048, 5.837e-6
-1.049, 5.531e-6
-1.050, 5.367e-6
-1.051, 5.687e-6
-1.052, 6.278e-6
-1.053, 6.455e-6
-1.054, 6.157e-6
-1.055, 6.026e-6
-1.056, 6.266e-6
-1.057, 6.862e-6
-1.058, 7.067e-6
-1.059, 6.697e-6
-1.060, 6.527e-6
-1.061, 6.820e-6
-1.062, 7.367e-6
-1.063, 7.578e-6
-1.064, 7.171e-6
-1.065, 7.004e-6
-1.066, 7.293e-6
-1.067, 7.835e-6
-1.068, 8.004e-6
-1.069, 7.643e-6
-1.070, 7.402e-6
-1.071, 7.764e-6
-1.072, 8.265e-6
-1.073, 8.383e-6
-1.074, 8.050e-6
-1.075, 7.889e-6
-1.076, 8.113e-6
-1.077, 8.657e-6
-1.078, 8.770e-6
-1.079, 8.474e-6
-1.080, 8.159e-6
-1.081, 8.453e-6
-1.082, 9.036e-6
-1.083, 9.086e-6
-1.084, 8.804e-6
-1.085, 8.504e-6
-1.086, 8.750e-6
-1.087, 9.375e-6
-1.088, 9.429e-6
-1.089, 9.052e-6
-1.090, 8.861e-6
-1.091, 9.106e-6
-1.092, 9.669e-6
-1.093, 9.691e-6
-1.094, 9.370e-6
-1.095, 9.146e-6
-1.096, 9.379e-6
-1.097, 9.885e-6
-1.098, 9.994e-6
-1.099, 9.600e-6
-1.100, 9.413e-6
-1.101, 9.673e-6
-1.102, 1.015e-5
-1.103, 1.030e-5
-1.104, 9.801e-6
-1.105, 9.617e-6
-1.106, 9.932e-6
-1.107, 1.038e-5
-1.108, 1.049e-5
-1.109, 1.011e-5
-1.110, 9.811e-6
-1.111, 1.019e-5
-1.112, 1.061e-5
-1.113, 1.072e-5
-1.114, 1.032e-5
-1.115, 1.007e-5
-1.116, 1.039e-5
-1.117, 1.089e-5
-1.118, 1.096e-5
-1.119, 1.061e-5
-1.120, 1.029e-5
-1.121, 1.062e-5
-1.122, 1.111e-5
-1.123, 1.111e-5
-1.124, 1.079e-5
-1.125, 1.047e-5
-1.126, 1.077e-5
-1.127, 1.138e-5
-1.128, 1.130e-5
-1.129, 1.093e-5
-1.130, 1.069e-5
-1.131, 1.097e-5
-1.132, 1.148e-5
-1.133, 1.148e-5
-1.134, 1.114e-5
-1.135, 1.092e-5
-1.136, 1.119e-5
-1.137, 1.164e-5
-1.138, 1.170e-5
-1.139, 1.131e-5
-1.140, 1.109e-5
-1.141, 1.140e-5
-1.142, 1.185e-5
-1.143, 1.192e-5
-1.144, 1.149e-5
-1.145, 1.123e-5
-1.146, 1.162e-5
-1.147, 1.202e-5
-1.148, 1.208e-5
-1.149, 1.173e-5
-1.150, 1.143e-5
-1.151, 1.182e-5
-1.152, 1.220e-5
-1.153, 1.226e-5
-1.154, 1.191e-5
-1.155, 1.160e-5
-1.156, 1.194e-5
-1.157, 1.239e-5
-1.158, 1.244e-5
-1.159, 1.211e-5
-1.160, 1.180e-5
-1.161, 1.209e-5
-1.162, 1.261e-5
-1.163, 1.259e-5
-1.164, 1.227e-5
-1.165, 1.198e-5
-1.166, 1.232e-5
-1.167, 1.286e-5
-1.168, 1.279e-5
-1.169, 1.240e-5
-1.170, 1.220e-5
-1.171, 1.254e-5
-1.172, 1.297e-5
-1.173, 1.297e-5
-1.174, 1.261e-5
-1.175, 1.240e-5
-1.176, 1.271e-5
-1.177, 1.321e-5
-1.178, 1.323e-5
-1.179, 1.279e-5
-1.180, 1.252e-5
-1.181, 1.290e-5
-1.182, 1.335e-5
-1.183, 1.340e-5
-1.184, 1.296e-5
-1.185, 1.273e-5
-1.186, 1.312e-5
-1.187, 1.352e-5
-1.188, 1.357e-5
-1.189, 1.316e-5
-1.190, 1.296e-5
-1.191, 1.336e-5
-1.192, 1.374e-5
-1.193, 1.374e-5
-1.194, 1.341e-5
-1.195, 1.310e-5
-1.196, 1.354e-5
-1.197, 1.393e-5
-1.198, 1.395e-5
-1.199, 1.361e-5
-1.200, 1.336e-5
-1.201, 1.373e-5
-1.202, 1.418e-5
-1.203, 1.414e-5
-1.204, 1.378e-5
-1.205, 1.359e-5
-1.206, 1.391e-5
-1.207, 1.439e-5
-1.208, 1.433e-5
-1.209, 1.398e-5
-1.210, 1.380e-5
-1.211, 1.410e-5
-1.212, 1.461e-5
-1.213, 1.457e-5
-1.214, 1.421e-5
-1.215, 1.404e-5
-1.216, 1.437e-5
-1.217, 1.485e-5
-1.218, 1.490e-5
-1.219, 1.444e-5
-1.220, 1.431e-5
-1.221, 1.457e-5
-1.222, 1.502e-5
-1.223, 1.507e-5
-1.224, 1.469e-5
-1.225, 1.448e-5
-1.226, 1.487e-5
-1.227, 1.529e-5
-1.228, 1.536e-5
-1.229, 1.505e-5
-1.230, 1.472e-5
-1.231, 1.516e-5
-1.232, 1.558e-5
-1.233, 1.554e-5
-1.234, 1.526e-5
-1.235, 1.499e-5
-1.236, 1.542e-5
-1.237, 1.582e-5
-1.238, 1.581e-5
-1.239, 1.551e-5
-1.240, 1.529e-5
-1.241, 1.563e-5
-1.242, 1.615e-5
-1.243, 1.611e-5
-1.244, 1.578e-5
-1.245, 1.555e-5
-1.246, 1.592e-5
-1.247, 1.643e-5
-1.248, 1.641e-5
-1.249, 1.607e-5
-1.250, 1.590e-5
-1.251, 1.625e-5
-1.252, 1.671e-5
-1.253, 1.674e-5
-1.254, 1.639e-5
-1.255, 1.620e-5
-1.256, 1.657e-5
-1.257, 1.698e-5
-1.258, 1.706e-5
-1.259, 1.665e-5
-1.260, 1.654e-5
-1.261, 1.690e-5
-1.262, 1.733e-5
-1.263, 1.740e-5
-1.264, 1.698e-5
-1.265, 1.681e-5
-1.266, 1.727e-5
-1.267, 1.768e-5
-1.268, 1.770e-5
-1.269, 1.739e-5
-1.270, 1.712e-5
-1.271, 1.764e-5
-1.272, 1.803e-5
-1.273, 1.805e-5
-1.274, 1.777e-5
-1.275, 1.753e-5
-1.276, 1.797e-5
-1.277, 1.840e-5
-1.278, 1.842e-5
-1.279, 1.813e-5
-1.280, 1.800e-5
-1.281, 1.828e-5
-1.282, 1.883e-5
-1.283, 1.882e-5
-1.284, 1.852e-5
-1.285, 1.832e-5
-1.286, 1.875e-5
-1.287, 1.923e-5
-1.288, 1.918e-5
-1.289, 1.884e-5
-1.290, 1.873e-5
-1.291, 1.908e-5
-1.292, 1.960e-5
-1.293, 1.961e-5
-1.294, 1.927e-5
-1.295, 1.917e-5
-1.296, 1.950e-5
-1.297, 1.998e-5
-1.298, 2.001e-5
-1.299, 1.963e-5
-1.300, 1.953e-5
-1.301, 1.998e-5
-1.302, 2.043e-5
-1.303, 2.052e-5
-1.304, 2.015e-5
-1.305, 1.996e-5
-1.306, 2.042e-5
-1.307, 2.080e-5
-1.308, 2.094e-5
-1.309, 2.057e-5
-1.310, 2.041e-5
-1.311, 2.088e-5
-1.312, 2.129e-5
-1.313, 2.132e-5
-1.314, 2.101e-5
-1.315, 2.082e-5
-1.316, 2.125e-5
-1.317, 2.173e-5
-1.318, 2.173e-5
-1.319, 2.154e-5
-1.320, 2.129e-5
-1.321, 2.176e-5
-1.322, 2.225e-5
-1.323, 2.222e-5
-1.324, 2.196e-5
-1.325, 2.178e-5
-1.326, 2.226e-5
-1.327, 2.268e-5
-1.328, 2.272e-5
-1.329, 2.243e-5
-1.330, 2.233e-5
-1.331, 2.277e-5
-1.332, 2.325e-5
-1.333, 2.326e-5
-1.334, 2.302e-5
-1.335, 2.295e-5
-1.336, 2.337e-5
-1.337, 2.381e-5
-1.338, 2.391e-5
-1.339, 2.353e-5
-1.340, 2.342e-5
-1.341, 2.385e-5
-1.342, 2.433e-5
-1.343, 2.444e-5
-1.344, 2.411e-5
-1.345, 2.405e-5
-1.346, 2.456e-5
-1.347, 2.498e-5
-1.348, 2.511e-5
-1.349, 2.478e-5
-1.350, 2.466e-5
-1.351, 2.516e-5
-1.352, 2.561e-5
-1.353, 2.570e-5
-1.354, 2.545e-5
-1.355, 2.531e-5
-1.356, 2.589e-5
-1.357, 2.634e-5
-1.358, 2.643e-5
-1.359, 2.620e-5
-1.360, 2.607e-5
-1.361, 2.659e-5
-1.362, 2.716e-5
-1.363, 2.713e-5
-1.364, 2.690e-5
-1.365, 2.687e-5
-1.366, 2.735e-5
-1.367, 2.796e-5
-1.368, 2.801e-5
-1.369, 2.778e-5
-1.370, 2.779e-5
-1.371, 2.824e-5
-1.372, 2.877e-5
-1.373, 2.887e-5
-1.374, 2.862e-5
-1.375, 2.861e-5
-1.376, 2.911e-5
-1.377, 2.969e-5
-1.378, 2.988e-5
-1.379, 2.958e-5
-1.380, 2.960e-5
-1.381, 3.016e-5
-1.382, 3.074e-5
-1.383, 3.088e-5
-1.384, 3.061e-5
-1.385, 3.064e-5
-1.386, 3.127e-5
-1.387, 3.181e-5
-1.388, 3.198e-5
-1.389, 3.178e-5
-1.390, 3.170e-5
-1.391, 3.233e-5
-1.392, 3.284e-5
-1.393, 3.303e-5
-1.394, 3.289e-5
-1.395, 3.287e-5
-1.396, 3.346e-5
-1.397, 3.407e-5
-1.398, 3.425e-5
-1.399, 3.410e-5
-1.400, 3.408e-5
-1.401, 3.468e-5
-1.402, 3.530e-5
-1.403, 3.548e-5
-1.404, 3.534e-5
-1.405, 3.544e-5
-1.406, 3.603e-5
-1.407, 3.669e-5
-1.408, 3.685e-5
-1.409, 3.673e-5
-1.410, 3.679e-5
-1.411, 3.741e-5
-1.412, 3.802e-5
-1.413, 3.824e-5
-1.414, 3.812e-5
-1.415, 3.823e-5
-1.416, 3.882e-5
-1.417, 3.952e-5
-1.418, 3.978e-5
-1.419, 3.962e-5
-1.420, 3.978e-5
-1.421, 4.039e-5
-1.422, 4.107e-5
-1.423, 4.141e-5
-1.424, 4.118e-5
-1.425, 4.135e-5
-1.426, 4.204e-5
-1.427, 4.268e-5
-1.428, 4.294e-5
-1.429, 4.286e-5
-1.430, 4.295e-5
-1.431, 4.368e-5
-1.432, 4.433e-5
-1.433, 4.463e-5
-1.434, 4.459e-5
-1.435, 4.469e-5
-1.436, 4.542e-5
-1.437, 4.614e-5
-1.438, 4.646e-5
-1.439, 4.641e-5
-1.440, 4.650e-5
-1.441, 4.725e-5
-1.442, 4.799e-5
-1.443, 4.824e-5
-1.444, 4.823e-5
-1.445, 4.837e-5
-1.446, 4.913e-5
-1.447, 4.992e-5
-1.448, 5.021e-5
-1.449, 5.014e-5
-1.450, 5.041e-5
-1.451, 5.109e-5
-1.452, 5.188e-5
-1.453, 5.220e-5
-1.454, 5.224e-5
-1.455, 5.249e-5
-1.456, 5.323e-5
-1.457, 5.401e-5
-1.458, 5.441e-5
-1.459, 5.435e-5
-1.460, 5.456e-5
-1.461, 5.539e-5
-1.462, 5.621e-5
-1.463, 5.691e-5
-1.464, 5.668e-5
-1.465, 5.694e-5
-1.466, 5.777e-5
-1.467, 5.850e-5
-1.468, 5.890e-5
-1.469, 5.888e-5
-1.470, 5.916e-5
-1.471, 5.997e-5
-1.472, 6.077e-5
-1.473, 6.120e-5
-1.474, 6.130e-5
-1.475, 6.154e-5
-1.476, 6.240e-5
-1.477, 6.326e-5
-1.478, 6.365e-5
-1.479, 6.377e-5
-1.480, 6.403e-5
-1.481, 6.492e-5
-1.482, 6.579e-5
-1.483, 6.628e-5
-1.484, 6.639e-5
-1.485, 6.670e-5
-1.486, 6.756e-5
-1.487, 6.853e-5
-1.488, 6.895e-5
-1.489, 6.916e-5
-1.490, 6.945e-5
-1.491, 7.033e-5
-1.492, 7.131e-5
-1.493, 7.184e-5
-1.494, 7.214e-5
-1.495, 7.252e-5
-1.496, 7.332e-5
-1.497, 7.432e-5
-1.498, 7.485e-5
-1.499, 7.498e-5
-1.500, 7.537e-5
-1.501, 7.632e-5
-1.502, 7.729e-5
-1.503, 7.794e-5
-1.504, 7.806e-5
-1.505, 7.851e-5
-1.506, 7.955e-5
-1.507, 8.053e-5
-1.508, 8.112e-5
-1.509, 8.138e-5
-1.510, 8.181e-5
-1.511, 8.286e-5
-1.512, 8.392e-5
-1.513, 8.448e-5
-1.514, 8.487e-5
-1.515, 8.535e-5
-1.516, 8.644e-5
-1.517, 8.752e-5
-1.518, 8.815e-5
-1.519, 8.850e-5
-1.520, 8.894e-5
-1.521, 9.008e-5
-1.522, 9.122e-5
-1.523, 9.188e-5
-1.524, 9.227e-5
-1.525, 9.276e-5
-1.526, 9.390e-5
-1.527, 9.513e-5
-1.528, 9.578e-5
-1.529, 9.616e-5
-1.530, 9.685e-5
-1.531, 9.798e-5
-1.532, 9.922e-5
-1.533, 9.999e-5
-1.534, 1.004e-4
-1.535, 1.011e-4
-1.536, 1.023e-4
-1.537, 1.035e-4
-1.538, 1.044e-4
-1.539, 1.047e-4
-1.540, 1.055e-4
-1.541, 1.068e-4
-1.542, 1.081e-4
-1.543, 1.090e-4
-1.544, 1.094e-4
-1.545, 1.102e-4
-1.546, 1.116e-4
-1.547, 1.129e-4
-1.548, 1.139e-4
-1.549, 1.144e-4
-1.550, 1.153e-4
-1.551, 1.167e-4
-1.552, 1.180e-4
-1.553, 1.190e-4
-1.554, 1.197e-4
-1.555, 1.205e-4
-1.556, 1.220e-4
-1.557, 1.234e-4
-1.558, 1.245e-4
-1.559, 1.252e-4
-1.560, 1.261e-4
-1.561, 1.276e-4
-1.562, 1.292e-4
-1.563, 1.302e-4
-1.564, 1.311e-4
-1.565, 1.320e-4
-1.566, 1.336e-4
-1.567, 1.353e-4
-1.568, 1.365e-4
-1.569, 1.373e-4
-1.570, 1.384e-4
-1.571, 1.401e-4
-1.572, 1.419e-4
-1.573, 1.432e-4
-1.574, 1.441e-4
-1.575, 1.453e-4
-1.576, 1.470e-4
-1.577, 1.489e-4
-1.578, 1.503e-4
-1.579, 1.513e-4
-1.580, 1.525e-4
-1.581, 1.544e-4
-1.582, 1.564e-4
-1.583, 1.579e-4
-1.584, 1.590e-4
-1.585, 1.605e-4
-1.586, 1.624e-4
-1.587, 1.645e-4
-1.588, 1.662e-4
-1.589, 1.674e-4
-1.590, 1.689e-4
-1.591, 1.710e-4
-1.592, 1.732e-4
-1.593, 1.749e-4
-1.594, 1.763e-4
-1.595, 1.778e-4
-1.596, 1.803e-4
-1.597, 1.825e-4
-1.598, 1.845e-4
-1.599, 1.860e-4
-1.600, 1.879e-4
-1.601, 1.902e-4
-1.602, 1.927e-4
-1.603, 1.947e-4
-1.604, 1.963e-4
-1.605, 1.984e-4
-1.606, 2.009e-4
-1.607, 2.036e-4
-1.608, 2.059e-4
-1.609, 2.077e-4
-1.610, 2.100e-4
-1.611, 2.128e-4
-1.612, 2.156e-4
-1.613, 2.181e-4
-1.614, 2.201e-4
-1.615, 2.225e-4
-1.616, 2.255e-4
-1.617, 2.286e-4
-1.618, 2.313e-4
-1.619, 2.336e-4
-1.620, 2.362e-4
-1.621, 2.394e-4
-1.622, 2.427e-4
-1.623, 2.457e-4
-1.624, 2.481e-4
-1.625, 2.510e-4
-1.626, 2.546e-4
-1.627, 2.582e-4
-1.628, 2.614e-4
-1.629, 2.641e-4
-1.630, 2.674e-4
-1.631, 2.712e-4
-1.632, 2.749e-4
-1.633, 2.786e-4
-1.634, 2.817e-4
-1.635, 2.852e-4
-1.636, 2.893e-4
-1.637, 2.934e-4
-1.638, 2.975e-4
-1.639, 3.010e-4
-1.640, 3.048e-4
-1.641, 3.092e-4
-1.642, 3.139e-4
-1.643, 3.181e-4
-1.644, 3.220e-4
-1.645, 3.264e-4
-1.646, 3.314e-4
-1.647, 3.365e-4
-1.648, 3.412e-4
-1.649, 3.455e-4
-1.650, 3.503e-4
-1.651, 3.557e-4
-1.652, 3.611e-4
-1.653, 3.665e-4
-1.654, 3.713e-4
-1.655, 3.767e-4
-1.656, 3.824e-4
-1.657, 3.885e-4
-1.658, 3.944e-4
-1.659, 3.997e-4
-1.660, 4.056e-4
-1.661, 4.123e-4
-1.662, 4.188e-4
-1.663, 4.254e-4
-1.664, 4.315e-4
-1.665, 4.379e-4
-1.666, 4.454e-4
-1.667, 4.525e-4
-1.668, 4.598e-4
-1.669, 4.667e-4
-1.670, 4.740e-4
-1.671, 4.823e-4
-1.672, 4.902e-4
-1.673, 4.984e-4
-1.674, 5.062e-4
-1.675, 5.143e-4
-1.676, 5.231e-4
-1.677, 5.320e-4
-1.678, 5.412e-4
-1.679, 5.497e-4
-1.680, 5.587e-4
-1.681, 5.688e-4
-1.682, 5.783e-4
-1.683, 5.884e-4
-1.684, 5.979e-4
-1.685, 6.080e-4
-1.686, 6.199e-4
-1.687, 6.312e-4
-1.688, 6.422e-4
-1.689, 6.526e-4
-1.690, 6.641e-4
-1.691, 6.762e-4
-1.692, 6.886e-4
-1.693, 7.009e-4
-1.694, 7.130e-4
-1.695, 7.257e-4
-1.696, 7.398e-4
-1.697, 7.532e-4
-1.698, 7.669e-4
-1.699, 7.805e-4
-1.700, 7.948e-4
-1.701, 8.097e-4
-1.702, 8.254e-4
-1.703, 8.413e-4
-1.704, 8.559e-4
-1.705, 8.725e-4
-1.706, 8.887e-4
-1.707, 9.061e-4
-1.708, 9.230e-4
-1.709, 9.403e-4
-1.710, 9.582e-4
-1.711, 9.769e-4
-1.712, 9.963e-4
-1.713, 1.015e-3
-1.714, 1.035e-3
-1.715, 1.054e-3
-1.716, 1.075e-3
-1.717, 1.097e-3
-1.718, 1.119e-3
-1.719, 1.139e-3
-1.720, 1.161e-3
-1.721, 1.183e-3
-1.722, 1.207e-3
-1.723, 1.230e-3
-1.724, 1.254e-3
-1.725, 1.278e-3
-1.726, 1.303e-3
-1.727, 1.330e-3
-1.728, 1.355e-3
-1.729, 1.381e-3
-1.730, 1.408e-3
-1.731, 1.435e-3
-1.732, 1.464e-3
-1.733, 1.493e-3
-1.734, 1.521e-3
-1.735, 1.552e-3
-1.736, 1.582e-3
-1.737, 1.614e-3
-1.738, 1.645e-3
-1.739, 1.675e-3
-1.740, 1.708e-3
-1.741, 1.740e-3
-1.742, 1.775e-3
-1.743, 1.810e-3
-1.744, 1.842e-3
-1.745, 1.878e-3
-1.746, 1.910e-3
-1.747, 1.948e-3
-1.748, 1.984e-3
-1.749, 2.021e-3
-1.750, 2.059e-3
-1.751, 2.097e-3
-1.752, 2.138e-3
-1.753, 2.179e-3
-1.754, 2.218e-3
-1.755, 2.258e-3
-1.756, 2.296e-3
-1.757, 2.337e-3
-1.758, 2.380e-3
-1.759, 2.423e-3
-1.760, 2.468e-3
-1.761, 2.510e-3
-1.762, 2.556e-3
-1.763, 2.603e-3
-1.764, 2.649e-3
-1.765, 2.698e-3
-1.766, 2.746e-3
-1.767, 2.795e-3
-1.768, 2.846e-3
-1.769, 2.892e-3
-1.770, 2.942e-3
-1.771, 2.993e-3
-1.772, 3.041e-3
-1.773, 3.092e-3
-1.774, 3.143e-3
-1.775, 3.188e-3
-1.776, 3.244e-3
-1.777, 3.297e-3
-1.778, 3.348e-3
-1.779, 3.402e-3
-1.780, 3.449e-3
-1.781, 3.501e-3
-1.782, 3.555e-3
-1.783, 3.604e-3
-1.784, 3.662e-3
-1.785, 3.714e-3
-1.786, 3.773e-3
-1.787, 3.832e-3
-1.788, 3.885e-3
-1.789, 3.943e-3
-1.790, 3.997e-3
-1.791, 4.057e-3
-1.792, 4.117e-3
-1.793, 4.166e-3
-1.794, 4.221e-3
-1.795, 4.277e-3
-1.796, 4.335e-3
-1.797, 4.398e-3
-1.798, 4.454e-3
-1.799, 4.524e-3
-1.800, 4.540e-3
-1.799, 4.509e-3
-1.798, 4.476e-3
-1.797, 4.425e-3
-1.796, 4.388e-3
-1.795, 4.347e-3
-1.794, 4.311e-3
-1.793, 4.268e-3
-1.792, 4.216e-3
-1.791, 4.182e-3
-1.790, 4.136e-3
-1.789, 4.092e-3
-1.788, 4.056e-3
-1.787, 4.010e-3
-1.786, 3.968e-3
-1.785, 3.921e-3
-1.784, 3.881e-3
-1.783, 3.840e-3
-1.782, 3.794e-3
-1.781, 3.757e-3
-1.780, 3.713e-3
-1.779, 3.680e-3
-1.778, 3.634e-3
-1.777, 3.586e-3
-1.776, 3.545e-3
-1.775, 3.497e-3
-1.774, 3.458e-3
-1.773, 3.417e-3
-1.772, 3.365e-3
-1.771, 3.325e-3
-1.770, 3.279e-3
-1.769, 3.240e-3
-1.768, 3.200e-3
-1.767, 3.160e-3
-1.766, 3.123e-3
-1.765, 3.076e-3
-1.764, 3.037e-3
-1.763, 2.993e-3
-1.762, 2.955e-3
-1.761, 2.918e-3
-1.760, 2.880e-3
-1.759, 2.837e-3
-1.758, 2.799e-3
-1.757, 2.766e-3
-1.756, 2.728e-3
-1.755, 2.694e-3
-1.754, 2.660e-3
-1.753, 2.624e-3
-1.752, 2.589e-3
-1.751, 2.557e-3
-1.750, 2.515e-3
-1.749, 2.485e-3
-1.748, 2.452e-3
-1.747, 2.417e-3
-1.746, 2.383e-3
-1.745, 2.351e-3
-1.744, 2.309e-3
-1.743, 2.275e-3
-1.742, 2.246e-3
-1.741, 2.213e-3
-1.740, 2.183e-3
-1.739, 2.154e-3
-1.738, 2.124e-3
-1.737, 2.092e-3
-1.736, 2.063e-3
-1.735, 2.034e-3
-1.734, 2.005e-3
-1.733, 1.976e-3
-1.732, 1.949e-3
-1.731, 1.919e-3
-1.730, 1.890e-3
-1.729, 1.864e-3
-1.728, 1.836e-3
-1.727, 1.811e-3
-1.726, 1.786e-3
-1.725, 1.757e-3
-1.724, 1.727e-3
-1.723, 1.700e-3
-1.722, 1.677e-3
-1.721, 1.650e-3
-1.720, 1.627e-3
-1.719, 1.601e-3
-1.718, 1.574e-3
-1.717, 1.549e-3
-1.716, 1.524e-3
-1.715, 1.501e-3
-1.714, 1.478e-3
-1.713, 1.456e-3
-1.712, 1.433e-3
-1.711, 1.405e-3
-1.710, 1.384e-3
-1.709, 1.362e-3
-1.708, 1.340e-3
-1.707, 1.321e-3
-1.706, 1.301e-3
-1.705, 1.279e-3
-1.704, 1.259e-3
-1.703, 1.236e-3
-1.702, 1.216e-3
-1.701, 1.196e-3
-1.700, 1.176e-3
-1.699, 1.157e-3
-1.698, 1.138e-3
-1.697, 1.115e-3
-1.696, 1.090e-3
-1.695, 1.073e-3
-1.694, 1.055e-3
-1.693, 1.037e-3
-1.692, 1.022e-3
-1.691, 1.004e-3
-1.690, 9.863e-4
-1.689, 9.705e-4
-1.688, 9.541e-4
-1.687, 9.378e-4
-1.686, 9.216e-4
-1.685, 9.049e-4
-1.684, 8.894e-4
-1.683, 8.745e-4
-1.682, 8.578e-4
-1.681, 8.414e-4
-1.680, 8.282e-4
-1.679, 8.127e-4
-1.678, 7.985e-4
-1.677, 7.849e-4
-1.676, 7.722e-4
-1.675, 7.587e-4
-1.674, 7.448e-4
-1.673, 7.324e-4
-1.672, 7.193e-4
-1.671, 7.063e-4
-1.670, 6.942e-4
-1.669, 6.824e-4
-1.668, 6.696e-4
-1.667, 6.578e-4
-1.666, 6.454e-4
-1.665, 6.330e-4
-1.664, 6.216e-4
-1.663, 6.115e-4
-1.662, 6.004e-4
-1.661, 5.903e-4
-1.660, 5.792e-4
-1.659, 5.685e-4
-1.658, 5.573e-4
-1.657, 5.472e-4
-1.656, 5.367e-4
-1.655, 5.270e-4
-1.654, 5.184e-4
-1.653, 5.091e-4
-1.652, 5.000e-4
-1.651, 4.900e-4
-1.650, 4.807e-4
-1.649, 4.721e-4
-1.648, 4.638e-4
-1.647, 4.550e-4
-1.646, 4.458e-4
-1.645, 4.376e-4
-1.644, 4.300e-4
-1.643, 4.218e-4
-1.642, 4.138e-4
-1.641, 4.058e-4
-1.640, 3.979e-4
-1.639, 3.927e-4
-1.638, 3.849e-4
-1.637, 3.769e-4
-1.636, 3.692e-4
-1.635, 3.618e-4
-1.634, 3.555e-4
-1.633, 3.492e-4
-1.632, 3.425e-4
-1.631, 3.355e-4
-1.630, 3.291e-4
-1.629, 3.229e-4
-1.628, 3.173e-4
-1.627, 3.112e-4
-1.626, 3.046e-4
-1.625, 2.988e-4
-1.624, 2.933e-4
-1.623, 2.880e-4
-1.622, 2.826e-4
-1.621, 2.769e-4
-1.620, 2.715e-4
-1.619, 2.666e-4
-1.618, 2.616e-4
-1.617, 2.568e-4
-1.616, 2.515e-4
-1.615, 2.466e-4
-1.614, 2.422e-4
-1.613, 2.383e-4
-1.612, 2.331e-4
-1.611, 2.284e-4
-1.610, 2.239e-4
-1.609, 2.199e-4
-1.608, 2.161e-4
-1.607, 2.119e-4
-1.606, 2.075e-4
-1.605, 2.037e-4
-1.604, 1.995e-4
-1.603, 1.962e-4
-1.602, 1.921e-4
-1.601, 1.885e-4
-1.600, 1.847e-4
-1.599, 1.812e-4
-1.598, 1.780e-4
-1.597, 1.745e-4
-1.596, 1.708e-4
-1.595, 1.677e-4
-1.594, 1.646e-4
-1.593, 1.619e-4
-1.592, 1.586e-4
-1.591, 1.551e-4
-1.590, 1.520e-4
-1.589, 1.493e-4
-1.588, 1.468e-4
-1.587, 1.439e-4
-1.586, 1.409e-4
-1.585, 1.381e-4
-1.584, 1.357e-4
-1.583, 1.334e-4
-1.582, 1.308e-4
-1.581, 1.279e-4
-1.580, 1.255e-4
-1.579, 1.233e-4
-1.578, 1.215e-4
-1.577, 1.190e-4
-1.576, 1.165e-4
-1.575, 1.142e-4
-1.574, 1.121e-4
-1.573, 1.105e-4
-1.572, 1.082e-4
-1.571, 1.059e-4
-1.570, 1.039e-4
-1.569, 1.021e-4
-1.568, 1.006e-4
-1.567, 9.863e-5
-1.566, 9.631e-5
-1.565, 9.443e-5
-1.564, 9.309e-5
-1.563, 9.168e-5
-1.562, 8.984e-5
-1.561, 8.765e-5
-1.560, 8.595e-5
-1.559, 8.468e-5
-1.558, 8.342e-5
-1.557, 8.173e-5
-1.556, 7.975e-5
-1.555, 7.831e-5
-1.554, 7.714e-5
-1.553, 7.582e-5
-1.552, 7.439e-5
-1.551, 7.250e-5
-1.550, 7.107e-5
-1.549, 7.007e-5
-1.548, 6.899e-5
-1.547, 6.754e-5
-1.546, 6.588e-5
-1.545, 6.448e-5
-1.544, 6.364e-5
-1.543, 6.273e-5
-1.542, 6.139e-5
-1.541, 5.998e-5
-1.540, 5.872e-5
-1.539, 5.783e-5
-1.538, 5.709e-5
-1.537, 5.589e-5
-1.536, 5.450e-5
-1.535, 5.337e-5
-1.534, 5.263e-5
-1.533, 5.199e-5
-1.532, 5.090e-5
-1.531, 4.945e-5
-1.530, 4.848e-5
-1.529, 4.780e-5
-1.528, 4.724e-5
-1.527, 4.625e-5
-1.526, 4.492e-5
-1.525, 4.404e-5
-1.524, 4.341e-5
-1.523, 4.292e-5
-1.522, 4.201e-5
-1.521, 4.078e-5
-1.520, 3.995e-5
-1.519, 3.948e-5
-1.518, 3.899e-5
-1.517, 3.814e-5
-1.516, 3.702e-5
-1.515, 3.622e-5
-1.514, 3.582e-5
-1.513, 3.540e-5
-1.512, 3.464e-5
-1.511, 3.355e-5
-1.510, 3.275e-5
-1.509, 3.241e-5
-1.508, 3.207e-5
-1.507, 3.134e-5
-1.506, 3.033e-5
-1.505, 2.960e-5
-1.504, 2.933e-5
-1.503, 2.900e-5
-1.502, 2.831e-5
-1.501, 2.740e-5
-1.500, 2.674e-5
-1.499, 2.648e-5
-1.498, 2.632e-5
-1.497, 2.562e-5
-1.496, 2.480e-5
-1.495, 2.419e-5
-1.494, 2.392e-5
-1.493, 2.376e-5
-1.492, 2.313e-5
-1.491, 2.224e-5
-1.490, 2.167e-5
-1.489, 2.146e-5
-1.488, 2.130e-5
-1.487, 2.079e-5
-1.486, 1.990e-5
-1.485, 1.934e-5
-1.484, 1.922e-5
-1.483, 1.908e-5
-1.482, 1.859e-5
-1.481, 1.781e-5
-1.480, 1.734e-5
-1.479, 1.721e-5
-1.478, 1.706e-5
-1.477, 1.663e-5
-1.476, 1.583e-5
-1.475, 1.536e-5
-1.474, 1.534e-5
-1.473, 1.520e-5
-1.472, 1.473e-5
-1.471, 1.403e-5
-1.470, 1.355e-5
-1.469, 1.357e-5
-1.468, 1.347e-5
-1.467, 1.297e-5
-1.466, 1.236e-5
-1.465, 1.187e-5
-1.464, 1.191e-5
-1.463, 1.184e-5
-1.462, 1.135e-5
-1.461, 1.077e-5
-1.460, 1.036e-5
-1.459, 1.033e-5
-1.458, 1.035e-5
-1.457, 9.938e-6
-1.456, 9.319e-6
-1.455, 8.912e-6
-1.454, 8.893e-6
-1.453, 8.943e-6
-1.452, 8.504e-6
-1.451, 7.897e-6
-1.450, 7.549e-6
-1.449, 7.570e-6
-1.448, 7.611e-6
-1.447, 7.217e-6
-1.446, 6.555e-6
-1.445, 6.332e-6
-1.444, 6.400e-6
-1.443, 6.325e-6
-1.442, 5.995e-6
-1.441, 5.388e-6
-1.440, 5.111e-6
-1.439, 5.207e-6
-1.438, 5.188e-6
-1.437, 4.892e-6
-1.436, 4.318e-6
-1.435, 3.984e-6
-1.434, 4.070e-6
-1.433, 4.124e-6
-1.432, 3.788e-6
-1.431, 3.249e-6
-1.430, 2.952e-6
-1.429, 3.055e-6
-1.428, 3.160e-6
-1.427, 2.786e-6
-1.426, 2.273e-6
-1.425, 1.995e-6
-1.424, 2.171e-6
-1.423, 2.254e-6
-1.422, 1.878e-6
-1.421, 1.353e-6
-1.420, 1.114e-6
-1.419, 1.241e-6
-1.418, 1.359e-6
-1.417, 1.009e-6
-1.416, 5.710e-7
-1.415, 3.185e-7
-1.414, 4.023e-7
-1.413, 5.789e-7
-1.412, 2.356e-7
-1.411, -2.557e-7
-1.410, -4.609e-7
-1.409, -3.603e-7
-1.408, -2.123e-7
-1.407, -5.507e-7
-1.406, -1.067e-6
-1.405, -1.188e-6
-1.404, -1.037e-6
-1.403, -9.355e-7
-1.402, -1.204e-6
-1.401, -1.732e-6
-1.400, -1.902e-6
-1.399, -1.716e-6
-1.398, -1.671e-6
-1.397, -1.905e-6
-1.396, -2.383e-6
-1.395, -2.569e-6
-1.394, -2.357e-6
-1.393, -2.249e-6
-1.392, -2.498e-6
-1.391, -2.972e-6
-1.390, -3.247e-6
-1.389, -3.007e-6
-1.388, -2.885e-6
-1.387, -3.159e-6
-1.386, -3.551e-6
-1.385, -3.819e-6
-1.384, -3.552e-6
-1.383, -3.431e-6
-1.382, -3.752e-6
-1.381, -4.161e-6
-1.380, -4.341e-6
-1.379, -4.176e-6
-1.378, -4.001e-6
-1.377, -4.288e-6
-1.376, -4.726e-6
-1.375, -4.876e-6
-1.374, -4.729e-6
-1.373, -4.456e-6
-1.372, -4.794e-6
-1.371, -5.268e-6
-1.370, -5.393e-6
-1.369, -5.220e-6
-1.368, -5.027e-6
-1.367, -5.261e-6
-1.366, -5.824e-6
-1.365, -5.883e-6
-1.364, -5.748e-6
-1.363, -5.585e-6
-1.362, -5.853e-6
-1.361, -6.324e-6
-1.360, -6.423e-6
-1.359, -6.188e-6
-1.358, -6.085e-6
-1.357, -6.317e-6
-1.356, -6.802e-6
-1.355, -6.937e-6
-1.354, -6.708e-6
-1.353, -6.584e-6
-1.352, -6.813e-6
-1.351, -7.280e-6
-1.350, -7.414e-6
-1.349, -7.199e-6
-1.348, -7.001e-6
-1.347, -7.341e-6
-1.346, -7.769e-6
-1.345, -7.929e-6
-1.344, -7.731e-6
-1.343, -7.586e-6
-1.342, -7.862e-6
-1.341, -8.285e-6
-1.340, -8.453e-6
-1.339, -8.247e-6
-1.338, -8.054e-6
-1.337, -8.424e-6
-1.336, -8.789e-6
-1.335, -8.947e-6
-1.334, -8.763e-6
-1.333, -8.543e-6
-1.332, -8.875e-6
-1.331, -9.366e-6
-1.330, -9.472e-6
-1.329, -9.331e-6
-1.328, -9.109e-6
-1.327, -9.392e-6
-1.326, -9.963e-6
-1.325, -1.001e-5
-1.324, -9.867e-6
-1.323, -9.724e-6
-1.322, -1.004e-5
-1.321, -1.055e-5
-1.320, -1.059e-5
-1.319, -1.045e-5
-1.318, -1.037e-5
-1.317, -1.063e-5
-1.316, -1.114e-5
-1.315, -1.131e-5
-1.314, -1.110e-5
-1.313, -1.104e-5
-1.312, -1.133e-5
-1.311, -1.185e-5
-1.310, -1.197e-5
-1.309, -1.178e-5
-1.308, -1.166e-5
-1.307, -1.206e-5
-1.306, -1.253e-5
-1.305, -1.276e-5
-1.304, -1.251e-5
-1.303, -1.244e-5
-1.302, -1.284e-5
-1.301, -1.330e-5
-1.300, -1.346e-5
-1.299, -1.336e-5
-1.298, -1.319e-5
-1.297, -1.363e-5
-1.296, -1.411e-5
-1.295, -1.426e-5
-1.294, -1.414e-5
-1.293, -1.400e-5
-1.292, -1.439e-5
-1.291, -1.489e-5
-1.290, -1.505e-5
-1.289, -1.489e-5
-1.288, -1.480e-5
-1.287, -1.517e-5
-1.286, -1.570e-5
-1.285, -1.587e-5
-1.284, -1.572e-5
-1.283, -1.561e-5
-1.282, -1.603e-5
-1.281, -1.651e-5
-1.280, -1.674e-5
-1.279, -1.653e-5
-1.278, -1.650e-5
-1.277, -1.685e-5
-1.276, -1.736e-5
-1.275, -1.755e-5
-1.274, -1.742e-5
-1.273, -1.735e-5
-1.272, -1.767e-5
-1.271, -1.822e-5
-1.270, -1.842e-5
-1.269, -1.818e-5
-1.268, -1.813e-5
-1.267, -1.855e-5
-1.266, -1.903e-5
-1.265, -1.923e-5
-1.264, -1.902e-5
-1.263, -1.897e-5
-1.262, -1.937e-5
-1.261, -1.987e-5
-1.260, -2.002e-5
-1.259, -1.986e-5
-1.258, -1.976e-5
-1.257, -2.022e-5
-1.256, -2.066e-5
-1.255, -2.085e-5
-1.254, -2.071e-5
-1.253, -2.052e-5
-1.252, -2.099e-5
-1.251, -2.150e-5
-1.250, -2.159e-5
-1.249, -2.147e-5
-1.248, -2.138e-5
-1.247, -2.178e-5
-1.246, -2.234e-5
-1.245, -2.241e-5
-1.244, -2.224e-5
-1.243, -2.217e-5
-1.242, -2.256e-5
-1.241, -2.307e-5
-1.240, -2.317e-5
-1.239, -2.301e-5
-1.238, -2.293e-5
-1.237, -2.331e-5
-1.236, -2.379e-5
-1.235, -2.397e-5
-1.234, -2.371e-5
-1.233, -2.369e-5
-1.232, -2.406e-5
-1.231, -2.451e-5
-1.230, -2.467e-5
-1.229, -2.461e-5
-1.228, -2.442e-5
-1.227, -2.485e-5
-1.226, -2.525e-5
-1.225, -2.538e-5
-1.224, -2.515e-5
-1.223, -2.504e-5
-1.222, -2.545e-5
-1.221, -2.591e-5
-1.220, -2.604e-5
-1.219, -2.582e-5
-1.218, -2.570e-5
-1.217, -2.614e-5
-1.216, -2.654e-5
-1.215, -2.664e-5
-1.214, -2.649e-5
-1.213, -2.634e-5
-1.212, -2.671e-5
-1.211, -2.715e-5
-1.210, -2.726e-5
-1.209, -2.701e-5
-1.208, -2.689e-5
-1.207, -2.727e-5
-1.206, -2.776e-5
-1.205, -2.778e-5
-1.204, -2.754e-5
-1.203, -2.751e-5
-1.202, -2.782e-5
-1.201, -2.833e-5
-1.200, -2.828e-5
-1.199, -2.808e-5
-1.198, -2.803e-5
-1.197, -2.835e-5
-1.196, -2.873e-5
-1.195, -2.881e-5
-1.194, -2.851e-5
-1.193, -2.851e-5
-1.192, -2.877e-5
-1.191, -2.920e-5
-1.190, -2.932e-5
-1.189, -2.901e-5
-1.188, -2.890e-5
-1.187, -2.925e-5
-1.186, -2.961e-5
-1.185, -2.970e-5
-1.184, -2.933e-5
-1.183, -2.932e-5
-1.182, -2.961e-5
-1.181, -2.999e-5
-1.180, -3.001e-5
-1.179, -2.974e-5
-1.178, -2.968e-5
-1.177, -2.996e-5
-1.176, -3.035e-5
-1.175, -3.037e-5
-1.174, -3.010e-5
-1.173, -2.996e-5
-1.172, -3.030e-5
-1.171, -3.066e-5
-1.170, -3.062e-5
-1.169, -3.035e-5
-1.168, -3.021e-5
-1.167, -3.057e-5
-1.166, -3.094e-5
-1.165, -3.090e-5
-1.164, -3.060e-5
-1.163, -3.049e-5
-1.162, -3.076e-5
-1.161, -3.115e-5
-1.160, -3.111e-5
-1.159, -3.078e-5
-1.158, -3.072e-5
-1.157, -3.092e-5
-1.156, -3.132e-5
-1.155, -3.127e-5
-1.154, -3.092e-5
-1.153, -3.081e-5
-1.152, -3.112e-5
-1.151, -3.142e-5
-1.150, -3.144e-5
-1.149, -3.102e-5
-1.148, -3.087e-5
-1.147, -3.119e-5
-1.146, -3.152e-5
-1.145, -3.147e-5
-1.144, -3.108e-5
-1.143, -3.094e-5
-1.142, -3.122e-5
-1.141, -3.151e-5
-1.140, -3.144e-5
-1.139, -3.113e-5
-1.138, -3.093e-5
-1.137, -3.123e-5
-1.136, -3.149e-5
-1.135, -3.141e-5
-1.134, -3.107e-5
-1.133, -3.085e-5
-1.132, -3.111e-5
-1.131, -3.147e-5
-1.130, -3.127e-5
-1.129, -3.098e-5
-1.128, -3.074e-5
-1.127, -3.094e-5
-1.126, -3.135e-5
-1.125, -3.118e-5
-1.124, -3.073e-5
-1.123, -3.058e-5
-1.122, -3.079e-5
-1.121, -3.107e-5
-1.120, -3.091e-5
-1.119, -3.053e-5
-1.118, -3.035e-5
-1.117, -3.053e-5
-1.116, -3.083e-5
-1.115, -3.066e-5
-1.114, -3.021e-5
-1.113, -3.005e-5
-1.112, -3.022e-5
-1.111, -3.047e-5
-1.110, -3.035e-5
-1.109, -2.984e-5
-1.108, -2.964e-5
-1.107, -2.988e-5
-1.106, -3.005e-5
-1.105, -2.995e-5
-1.104, -2.945e-5
-1.103, -2.923e-5
-1.102, -2.952e-5
-1.101, -2.970e-5
-1.100, -2.952e-5
-1.099, -2.910e-5
-1.098, -2.885e-5
-1.097, -2.912e-5
-1.096, -2.929e-5
-1.095, -2.910e-5
-1.094, -2.871e-5
-1.093, -2.845e-5
-1.092, -2.869e-5
-1.091, -2.889e-5
-1.090, -2.867e-5
-1.089, -2.825e-5
-1.088, -2.798e-5
-1.087, -2.818e-5
-1.086, -2.846e-5
-1.085, -2.824e-5
-1.084, -2.778e-5
-1.083, -2.760e-5
-1.082, -2.774e-5
-1.081, -2.808e-5
-1.080, -2.780e-5
-1.079, -2.734e-5
-1.078, -2.719e-5
-1.077, -2.737e-5
-1.076, -2.765e-5
-1.075, -2.752e-5
-1.074, -2.698e-5
-1.073, -2.684e-5
-1.072, -2.702e-5
-1.071, -2.730e-5
-1.070, -2.713e-5
-1.069, -2.665e-5
-1.068, -2.653e-5
-1.067, -2.680e-5
-1.066, -2.703e-5
-1.065, -2.687e-5
-1.064, -2.640e-5
-1.063, -2.624e-5
-1.062, -2.651e-5
-1.061, -2.675e-5
-1.060, -2.659e-5
-1.059, -2.609e-5
-1.058, -2.600e-5
-1.057, -2.628e-5
-1.056, -2.650e-5
-1.055, -2.632e-5
-1.054, -2.596e-5
-1.053, -2.573e-5
-1.052, -2.610e-5
-1.051, -2.635e-5
-1.050, -2.616e-5
-1.049, -2.585e-5
-1.048, -2.562e-5
-1.047, -2.593e-5
-1.046, -2.622e-5
-1.045, -2.602e-5
-1.044, -2.560e-5
-1.043, -2.551e-5
-1.042, -2.580e-5
-1.041, -2.613e-5
-1.040, -2.592e-5
-1.039, -2.552e-5
-1.038, -2.546e-5
-1.037, -2.577e-5
-1.036, -2.599e-5
-1.035, -2.591e-5
-1.034, -2.541e-5
-1.033, -2.539e-5
-1.032, -2.567e-5
-1.031, -2.597e-5
-1.030, -2.584e-5
-1.029, -2.541e-5
-1.028, -2.531e-5
-1.027, -2.573e-5
-1.026, -2.586e-5
-1.025, -2.584e-5
-1.024, -2.543e-5
-1.023, -2.530e-5
-1.022, -2.569e-5
-1.021, -2.595e-5
-1.020, -2.579e-5
-1.019, -2.544e-5
-1.018, -2.535e-5
-1.017, -2.575e-5
-1.016, -2.597e-5
-1.015, -2.581e-5
-1.014, -2.546e-5
-1.013, -2.532e-5
-1.012, -2.566e-5
-1.011, -2.600e-5
-1.010, -2.583e-5
-1.009, -2.554e-5
-1.008, -2.544e-5
-1.007, -2.579e-5
-1.006, -2.614e-5
-1.005, -2.593e-5
-1.004, -2.555e-5
-1.003, -2.549e-5
-1.002, -2.583e-5
-1.001, -2.616e-5
-1.000, -1.692e-5
-1.001, -1.148e-5
-1.002, -9.569e-6
-1.003, -8.647e-6
-1.004, -7.855e-6
-1.005, -6.829e-6
-1.006, -5.631e-6
-1.007, -4.788e-6
-1.008, -4.589e-6
-1.009, -4.326e-6
-1.010, -3.556e-6
-1.011, -2.706e-6
-1.012, -2.153e-6
-1.013, -2.118e-6
-1.014, -1.999e-6
-1.015, -1.359e-6
-1.016, -7.105e-7
-1.017, -2.567e-7
-1.018, -3.307e-7
-1.019, -3.998e-7
-1.020, 1.369e-7
-1.021, 7.999e-7
-1.022, 1.109e-6
-1.023, 1.058e-6
-1.024, 1.060e-6
-1.025, 1.457e-6
-1.026, 2.125e-6
-1.027, 2.286e-6
-1.028, 2.212e-6
-1.029, 2.076e-6
-1.030, 2.527e-6
-1.031, 3.142e-6
-1.032, 3.347e-6
-1.033, 3.111e-6
-1.034, 3.060e-6
-1.035, 3.339e-6
-1.036, 3.956e-6
-1.037, 4.166e-6
-1.038, 3.927e-6
-1.039, 3.857e-6
-1.040, 4.143e-6
-1.041, 4.696e-6
-1.042, 4.917e-6
-1.043, 4.654e-6
-1.044, 4.491e-6
-1.045, 4.824e-6
-1.046, 5.300e-6
-1.047, 5.513e-6
-1.048, 5.215e-6
-1.049, 5.066e-6
-1.050, 5.405e-6
-1.051, 5.875e-6
-1.052, 5.986e-6
-1.053, 5.747e-6
-1.054, 5.566e-6
-1.055, 5.903e-6
-1.056, 6.378e-6
-1.057, 6.489e-6
-1.058, 6.213e-6
-1.059, 6.014e-6
-1.060, 6.326e-6
-1.061, 6.767e-6
-1.062, 6.880e-6
-1.063, 6.654e-6
-1.064, 6.422e-6
-1.065, 6.721e-6
-1.066, 7.220e-6
-1.067, 7.256e-6
-1.068, 7.015e-6
-1.069, 6.775e-6
-1.070, 7.094e-6
-1.071, 7.574e-6
-1.072, 7.618e-6
-1.073, 7.331e-6
-1.074, 7.132e-6
-1.075, 7.476e-6
-1.076, 7.946e-6
-1.077, 7.934e-6
-1.078, 7.637e-6
-1.079, 7.485e-6
-1.080, 7.709e-6
-1.081, 8.163e-6
-1.082, 8.271e-6
-1.083, 7.883e-6
-1.084, 7.731e-6
-1.085, 8.016e-6
-1.086, 8.433e-6
-1.087, 8.511e-6
-1.088, 8.186e-6
-1.089, 7.971e-6
-1.090, 8.325e-6
-1.091, 8.713e-6
-1.092, 8.729e-6
-1.093, 8.416e-6
-1.094, 8.226e-6
-1.095, 8.546e-6
-1.096, 8.925e-6
-1.097, 8.969e-6
-1.098, 8.695e-6
-1.099, 8.458e-6
-1.100, 8.753e-6
-1.101, 9.182e-6
-1.102, 9.178e-6
-1.103, 8.941e-6
-1.104, 8.645e-6
-1.105, 8.974e-6
-1.106, 9.435e-6
-1.107, 9.406e-6
-1.108, 9.148e-6
-1.109, 8.862e-6
-1.110, 9.196e-6
-1.111, 9.623e-6
-1.112, 9.594e-6
-1.113, 9.312e-6
-1.114, 9.102e-6
-1.115, 9.407e-6
-1.116, 9.767e-6
-1.117, 9.809e-6
-1.118, 9.426e-6
-1.119, 9.323e-6
-1.120, 9.596e-6
-1.121, 9.993e-6
-1.122, 1.006e-5
-1.123, 9.639e-6
-1.124, 9.484e-6
-1.125, 9.796e-6
-1.126, 1.012e-5
-1.127, 1.023e-5
-1.128, 9.834e-6
-1.129, 9.618e-6
-1.130, 9.972e-6
-1.131, 1.033e-5
-1.132, 1.039e-5
-1.133, 9.998e-6
-1.134, 9.809e-6
-1.135, 1.019e-5
-1.136, 1.049e-5
-1.137, 1.051e-5
-1.138, 1.020e-5
-1.139, 9.986e-6
-1.140, 1.035e-5
-1.141, 1.069e-5
-1.142, 1.071e-5
-1.143, 1.038e-5
-1.144, 1.015e-5
-1.145, 1.048e-5
-1.146, 1.091e-5
-1.147, 1.083e-5
-1.148, 1.055e-5
-1.149, 1.032e-5
-1.150, 1.064e-5
-1.151, 1.104e-5
-1.152, 1.102e-5
-1.153, 1.061e-5
-1.154, 1.053e-5
-1.155, 1.081e-5
-1.156, 1.119e-5
-1.157, 1.116e-5
-1.158, 1.081e-5
-1.159, 1.069e-5
-1.160, 1.095e-5
-1.161, 1.131e-5
-1.162, 1.132e-5
-1.163, 1.095e-5
-1.164, 1.085e-5
-1.165, 1.112e-5
-1.166, 1.146e-5
-1.167, 1.147e-5
-1.168, 1.108e-5
-1.169, 1.102e-5
-1.170, 1.129e-5
-1.171, 1.163e-5
-1.172, 1.162e-5
-1.173, 1.129e-5
-1.174, 1.112e-5
-1.175, 1.147e-5
-1.176, 1.174e-5
-1.177, 1.180e-5
-1.178, 1.147e-5
-1.179, 1.124e-5
-1.180, 1.160e-5
-1.181, 1.193e-5
-1.182, 1.191e-5
-1.183, 1.159e-5
-1.184, 1.139e-5
-1.185, 1.173e-5
-1.186, 1.208e-5
-1.187, 1.203e-5
-1.188, 1.172e-5
-1.189, 1.156e-5
-1.190, 1.185e-5
-1.191, 1.226e-5
-1.192, 1.213e-5
-1.193, 1.185e-5
-1.194, 1.171e-5
-1.195, 1.200e-5
-1.196, 1.237e-5
-1.197, 1.236e-5
-1.198, 1.196e-5
-1.199, 1.189e-5
-1.200, 1.217e-5
-1.201, 1.258e-5
-1.202, 1.255e-5
-1.203, 1.217e-5
-1.204, 1.208e-5
-1.205, 1.234e-5
-1.206, 1.270e-5
-1.207, 1.268e-5
-1.208, 1.231e-5
-1.209, 1.219e-5
-1.210, 1.254e-5
-1.211, 1.292e-5
-1.212, 1.285e-5
-1.213, 1.248e-5
-1.214, 1.237e-5
-1.215, 1.273e-5
-1.216, 1.303e-5
-1.217, 1.299e-5
-1.218, 1.265e-5
-1.219, 1.253e-5
-1.220, 1.287e-5
-1.221, 1.321e-5
-1.222, 1.313e-5
-1.223, 1.288e-5
-1.224, 1.271e-5
-1.225, 1.302e-5
-1.226, 1.343e-5
-1.227, 1.334e-5
-1.228, 1.309e-5
-1.229, 1.307e-5
-1.230, 1.326e-5
-1.231, 1.367e-5
-1.232, 1.351e-5
-1.233, 1.321e-5
-1.234, 1.316e-5
-1.235, 1.346e-5
-1.236, 1.384e-5
-1.237, 1.373e-5
-1.238, 1.341e-5
-1.239, 1.339e-5
-1.240, 1.360e-5
-1.241, 1.399e-5
-1.242, 1.398e-5
-1.243, 1.360e-5
-1.244, 1.360e-5
-1.245, 1.387e-5
-1.246, 1.421e-5
-1.247, 1.417e-5
-1.248, 1.382e-5
-1.249, 1.372e-5
-1.250, 1.405e-5
-1.251, 1.440e-5
-1.252, 1.433e-5
-1.253, 1.403e-5
-1.254, 1.393e-5
-1.255, 1.433e-5
-1.256, 1.463e-5
-1.257, 1.459e-5
-1.258, 1.423e-5
-1.259, 1.414e-5
-1.260, 1.451e-5
-1.261, 1.484e-5
-1.262, 1.477e-5
-1.263, 1.450e-5
-1.264, 1.436e-5
-1.265, 1.471e-5
-1.266, 1.510e-5
-1.267, 1.503e-5
-1.268, 1.470e-5
-1.269, 1.468e-5
-1.270, 1.496e-5
-1.271, 1.537e-5
-1.272, 1.529e-5
-1.273, 1.493e-5
-1.274, 1.492e-5
-1.275, 1.525e-5
-1.276, 1.562e-5
-1.277, 1.554e-5
-1.278, 1.523e-5
-1.279, 1.519e-5
-1.280, 1.555e-5
-1.281, 1.588e-5
-1.282, 1.583e-5
-1.283, 1.547e-5
-1.284, 1.549e-5
-1.285, 1.579e-5
-1.286, 1.616e-5
-1.287, 1.614e-5
-1.288, 1.573e-5
-1.289, 1.570e-5
-1.290, 1.608e-5
-1.291, 1.643e-5
-1.292, 1.638e-5
-1.293, 1.600e-5
-1.294, 1.601e-5
-1.295, 1.634e-5
-1.296, 1.665e-5
-1.297, 1.657e-5
-1.298, 1.633e-5
-1.299, 1.626e-5
-1.300, 1.665e-5
-1.301, 1.700e-5
-1.302, 1.692e-5
-1.303, 1.663e-5
-1.304, 1.653e-5
-1.305, 1.693e-5
-1.306, 1.732e-5
-1.307, 1.720e-5
-1.308, 1.689e-5
-1.309, 1.686e-5
-1.310, 1.721e-5
-1.311, 1.762e-5
-1.312, 1.747e-5
-1.313, 1.726e-5
-1.314, 1.723e-5
-1.315, 1.758e-5
-1.316, 1.797e-5
-1.317, 1.785e-5
-1.318, 1.753e-5
-1.319, 1.757e-5
-1.320, 1.790e-5
-1.321, 1.821e-5
-1.322, 1.813e-5
-1.323, 1.786e-5
-1.324, 1.786e-5
-1.325, 1.821e-5
-1.326, 1.858e-5
-1.327, 1.850e-5
-1.328, 1.821e-5
-1.329, 1.817e-5
-1.330, 1.861e-5
-1.331, 1.893e-5
-1.332, 1.887e-5
-1.333, 1.860e-5
-1.334, 1.860e-5
-1.335, 1.903e-5
-1.336, 1.933e-5
-1.337, 1.928e-5
-1.338, 1.901e-5
-1.339, 1.902e-5
-1.340, 1.946e-5
-1.341, 1.979e-5
-1.342, 1.977e-5
-1.343, 1.955e-5
-1.344, 1.947e-5
-1.345, 1.991e-5
-1.346, 2.030e-5
-1.347, 2.010e-5
-1.348, 1.988e-5
-1.349, 1.993e-5
-1.350, 2.035e-5
-1.351, 2.070e-5
-1.352, 2.059e-5
-1.353, 2.027e-5
-1.354, 2.041e-5
-1.355, 2.078e-5
-1.356, 2.118e-5
-1.357, 2.107e-5
-1.358, 2.082e-5
-1.359, 2.090e-5
-1.360, 2.132e-5
-1.361, 2.168e-5
-1.362, 2.167e-5
-1.363, 2.134e-5
-1.364, 2.146e-5
-1.365, 2.189e-5
-1.366, 2.227e-5
-1.367, 2.222e-5
-1.368, 2.195e-5
-1.369, 2.203e-5
-1.370, 2.253e-5
-1.371, 2.288e-5
-1.372, 2.283e-5
-1.373, 2.262e-5
-1.374, 2.275e-5
-1.375, 2.318e-5
-1.376, 2.356e-5
-1.377, 2.352e-5
-1.378, 2.333e-5
-1.379, 2.344e-5
-1.380, 2.398e-5
-1.381, 2.435e-5
-1.382, 2.438e-5
-1.383, 2.417e-5
-1.384, 2.426e-5
-1.385, 2.472e-5
-1.386, 2.518e-5
-1.387, 2.511e-5
-1.388, 2.489e-5
-1.389, 2.507e-5
-1.390, 2.555e-5
-1.391, 2.607e-5
-1.392, 2.599e-5
-1.393, 2.581e-5
-1.394, 2.600e-5
-1.395, 2.647e-5
-1.396, 2.695e-5
-1.397, 2.693e-5
-1.398, 2.677e-5
-1.399, 2.697e-5
-1.400, 2.747e-5
-1.401, 2.796e-5
-1.402, 2.797e-5
-1.403, 2.781e-5
-1.404, 2.803e-5
-1.405, 2.856e-5
-1.406, 2.905e-5
-1.407, 2.911e-5
-1.408, 2.902e-5
-1.409, 2.926e-5
-1.410, 2.984e-5
-1.411, 3.031e-5
-1.412, 3.037e-5
-1.413, 3.019e-5
-1.414, 3.038e-5
-1.415, 3.106e-5
-1.416, 3.150e-5
-1.417, 3.155e-5
-1.418, 3.149e-5
-1.419, 3.172e-5
-1.420, 3.235e-5
-1.421, 3.290e-5
-1.422, 3.288e-5
-1.423, 3.289e-5
-1.424, 3.314e-5
-1.425, 3.378e-5
-1.426, 3.440e-5
-1.427, 3.435e-5
-1.428, 3.437e-5
-1.429, 3.465e-5
-1.430, 3.521e-5
-1.431, 3.583e-5
-1.432, 3.583e-5
-1.433, 3.585e-5
-1.434, 3.618e-5
-1.435, 3.679e-5
-1.436, 3.739e-5
-1.437, 3.745e-5
-1.438, 3.742e-5
-1.439, 3.786e-5
-1.440, 3.842e-5
-1.441, 3.908e-5
-1.442, 3.918e-5
-1.443, 3.911e-5
-1.444, 3.950e-5
-1.445, 4.022e-5
-1.446, 4.086e-5
-1.447, 4.098e-5
-1.448, 4.099e-5
-1.449, 4.139e-5
-1.450, 4.212e-5
-1.451, 4.267e-5
-1.452, 4.282e-5
-1.453, 4.287e-5
-1.454, 4.325e-5
-1.455, 4.405e-5
-1.456, 4.459e-5
-1.457, 4.475e-5
-1.458, 4.489e-5
-1.459, 4.521e-5
-1.460, 4.602e-5
-1.461, 4.670e-5
-1.462, 4.680e-5
-1.463, 4.689e-5
-1.464, 4.732e-5
-1.465, 4.808e-5
-1.466, 4.876e-5
-1.467, 4.890e-5
-1.468, 4.903e-5
-1.469, 4.945e-5
-1.470, 5.026e-5
-1.471, 5.097e-5
-1.472, 5.109e-5
-1.473, 5.122e-5
-1.474, 5.168e-5
-1.475, 5.246e-5
-1.476, 5.324e-5
-1.477, 5.336e-5
-1.478, 5.355e-5
-1.479, 5.412e-5
-1.480, 5.486e-5
-1.481, 5.561e-5
-1.482, 5.582e-5
-1.483, 5.601e-5
-1.484, 5.655e-5
-1.485, 5.739e-5
-1.486, 5.815e-5
-1.487, 5.838e-5
-1.488, 5.852e-5
-1.489, 5.907e-5
-1.490, 5.999e-5
-1.491, 6.074e-5
-1.492, 6.097e-5
-1.493, 6.115e-5
-1.494, 6.167e-5
-1.495, 6.266e-5
-1.496, 6.337e-5
-1.497, 6.356e-5
-1.498, 6.394e-5
-1.499, 6.445e-5
-1.500, 6.541e-5
-1.501, 6.614e-5
-1.502, 6.641e-5
-1.503, 6.666e-5
-1.504, 6.728e-5
-1.505, 6.823e-5
-1.506, 6.907e-5
-1.507, 6.932e-5
-1.508, 6.964e-5
-1.509, 7.025e-5
-1.510, 7.121e-5
-1.511, 7.213e-5
-1.512, 7.234e-5
-1.513, 7.263e-5
-1.514, 7.343e-5
-1.515, 7.437e-5
-1.516, 7.514e-5
-1.517, 7.555e-5
-1.518, 7.583e-5
-1.519, 7.659e-5
-1.520, 7.755e-5
-1.521, 7.846e-5
-1.522, 7.886e-5
-1.523, 7.916e-5
-1.524, 7.991e-5
-1.525, 8.096e-5
-1.526, 8.182e-5
-1.527, 8.229e-5
-1.528, 8.267e-5
-1.529, 8.341e-5
-1.530, 8.454e-5
-1.531, 8.543e-5
-1.532, 8.590e-5
-1.533, 8.633e-5
-1.534, 8.712e-5
-1.535, 8.830e-5
-1.536, 8.919e-5
-1.537, 8.971e-5
-1.538, 9.014e-5
-1.539, 9.104e-5
-1.540, 9.218e-5
-1.541, 9.318e-5
-1.542, 9.376e-5
-1.543, 9.428e-5
-1.544, 9.514e-5
-1.545, 9.632e-5
-1.546, 9.742e-5
-1.547, 9.794e-5
-1.548, 9.850e-5
-1.549, 9.949e-5
-1.550, 1.007e-4
-1.551, 1.019e-4
-1.552, 1.024e-4
-1.553, 1.031e-4
-1.554, 1.041e-4
-1.555, 1.053e-4
-1.556, 1.065e-4
-1.557, 1.073e-4
-1.558, 1.080e-4
-1.559, 1.090e-4
-1.560, 1.103e-4
-1.561, 1.115e-4
-1.562, 1.123e-4
-1.563, 1.129e-4
-1.564, 1.142e-4
-1.565, 1.156e-4
-1.566, 1.168e-4
-1.567, 1.176e-4
-1.568, 1.184e-4
-1.569, 1.196e-4
-1.570, 1.212e-4
-1.571, 1.225e-4
-1.572, 1.233e-4
-1.573, 1.242e-4
-1.574, 1.255e-4
-1.575, 1.273e-4
-1.576, 1.285e-4
-1.577, 1.295e-4
-1.578, 1.305e-4
-1.579, 1.318e-4
-1.580, 1.336e-4
-1.581, 1.351e-4
-1.582, 1.362e-4
-1.583, 1.375e-4
-1.584, 1.388e-4
-1.585, 1.406e-4
-1.586, 1.422e-4
-1.587, 1.435e-4
-1.588, 1.448e-4
-1.589, 1.464e-4
-1.590, 1.483e-4
-1.591, 1.501e-4
-1.592, 1.513e-4
-1.593, 1.526e-4
-1.594, 1.545e-4
-1.595, 1.565e-4
-1.596, 1.585e-4
-1.597, 1.600e-4
-1.598, 1.616e-4
-1.599, 1.634e-4
-1.600, 1.655e-4
-1.601, 1.676e-4
-1.602, 1.693e-4
-1.603, 1.708e-4
-1.604, 1.731e-4
-1.605, 1.754e-4
-1.606, 1.775e-4
-1.607, 1.796e-4
-1.608, 1.812e-4
-1.609, 1.834e-4
-1.610, 1.861e-4
-1.611, 1.885e-4
-1.612, 1.905e-4
-1.613, 1.925e-4
-1.614, 1.950e-4
-1.615, 1.977e-4
-1.616, 2.002e-4
-1.617, 2.025e-4
-1.618, 2.047e-4
-1.619, 2.075e-4
-1.620, 2.106e-4
-1.621, 2.133e-4
-1.622, 2.160e-4
-1.623, 2.183e-4
-1.624, 2.212e-4
-1.625, 2.247e-4
-1.626, 2.279e-4
-1.627, 2.306e-4
-1.628, 2.334e-4
-1.629, 2.366e-4
-1.630, 2.404e-4
-1.631, 2.437e-4
-1.632, 2.467e-4
-1.633, 2.498e-4
-1.634, 2.534e-4
-1.635, 2.574e-4
-1.636, 2.613e-4
-1.637, 2.647e-4
-1.638, 2.682e-4
-1.639, 2.722e-4
-1.640, 2.765e-4
-1.641, 2.806e-4
-1.642, 2.847e-4
-1.643, 2.883e-4
-1.644, 2.927e-4
-1.645, 2.977e-4
-1.646, 3.025e-4
-1.647, 3.067e-4
-1.648, 3.107e-4
-1.649, 3.155e-4
-1.650, 3.209e-4
-1.651, 3.258e-4
-1.652, 3.307e-4
-1.653, 3.355e-4
-1.654, 3.413e-4
-1.655, 3.469e-4
-1.656, 3.525e-4
-1.657, 3.576e-4
-1.658, 3.628e-4
-1.659, 3.690e-4
-1.660, 3.754e-4
-1.661, 3.822e-4
-1.662, 3.884e-4
-1.663, 3.941e-4
-1.664, 4.007e-4
-1.665, 4.072e-4
-1.666, 4.141e-4
-1.667, 4.208e-4
-1.668, 4.277e-4
-1.669, 4.354e-4
-1.670, 4.432e-4
-1.671, 4.508e-4
-1.672, 4.583e-4
-1.673, 4.656e-4
-1.674, 4.740e-4
-1.675, 4.827e-4
-1.676, 4.910e-4
-1.677, 5.000e-4
-1.678, 5.084e-4
-1.679, 5.182e-4
-1.680, 5.274e-4
-1.681, 5.363e-4
-1.682, 5.453e-4
-1.683, 5.543e-4
-1.684, 5.642e-4
-1.685, 5.756e-4
-1.686, 5.870e-4
-1.687, 5.972e-4
-1.688, 6.077e-4
-1.689, 6.185e-4
-1.690, 6.302e-4
-1.691, 6.418e-4
-1.692, 6.530e-4
-1.693, 6.650e-4
-1.694, 6.778e-4
-1.695, 6.904e-4
-1.696, 7.037e-4
-1.697, 7.169e-4
-1.698, 7.299e-4
-1.699, 7.439e-4
-1.700, 7.581e-4
-1.701, 7.720e-4
-1.702, 7.868e-4
-1.703, 8.011e-4
-1.704, 8.165e-4
-1.705, 8.321e-4
-1.706, 8.483e-4
-1.707, 8.640e-4
-1.708, 8.802e-4
-1.709, 8.975e-4
-1.710, 9.147e-4
-1.711, 9.316e-4
-1.712, 9.494e-4
-1.713, 9.675e-4
-1.714, 9.865e-4
-1.715, 1.006e-3
-1.716, 1.024e-3
-1.717, 1.042e-3
-1.718, 1.060e-3
-1.719, 1.081e-3
-1.720, 1.102e-3
-1.721, 1.124e-3
-1.722, 1.147e-3
-1.723, 1.168e-3
-1.724, 1.190e-3
-1.725, 1.213e-3
-1.726, 1.235e-3
-1.727, 1.259e-3
-1.728, 1.282e-3
-1.729, 1.305e-3
-1.730, 1.331e-3
-1.731, 1.356e-3
-1.732, 1.382e-3
-1.733, 1.408e-3
-1.734, 1.434e-3
-1.735, 1.461e-3
-1.736, 1.489e-3
-1.737, 1.516e-3
-1.738, 1.542e-3
-1.739, 1.574e-3
-1.740, 1.603e-3
-1.741, 1.632e-3
-1.742, 1.663e-3
-1.743, 1.693e-3
-1.744, 1.725e-3
-1.745, 1.758e-3
-1.746, 1.793e-3
-1.747, 1.825e-3
-1.748, 1.856e-3
-1.749, 1.889e-3
-1.750, 1.922e-3
-1.751, 1.957e-3
-1.752, 1.993e-3
-1.753, 2.027e-3
-1.754, 2.066e-3
-1.755, 2.102e-3
-1.756, 2.140e-3
-1.757, 2.181e-3
-1.758, 2.218e-3
-1.759, 2.256e-3
-1.760, 2.295e-3
-1.761, 2.333e-3
-1.762, 2.375e-3
-1.763, 2.415e-3
-1.764, 2.458e-3
-1.765, 2.501e-3
-1.766, 2.543e-3
-1.767, 2.592e-3
-1.768, 2.638e-3
-1.769, 2.678e-3
-1.770, 2.725e-3
-1.771, 2.768e-3
-1.772, 2.808e-3
-1.773, 2.853e-3
-1.774, 2.897e-3
-1.775, 2.946e-3
-1.776, 2.995e-3
-1.777, 3.045e-3
-1.778, 3.098e-3
-1.779, 3.145e-3
-1.780, 3.197e-3
-1.781, 3.249e-3
-1.782, 3.294e-3
-1.783, 3.337e-3
-1.784, 3.389e-3
-1.785, 3.439e-3
-1.786, 3.492e-3
-1.787, 3.541e-3
-1.788, 3.586e-3
-1.789, 3.640e-3
-1.790, 3.695e-3
-1.791, 3.756e-3
-1.792, 3.810e-3
-1.793, 3.856e-3
-1.794, 3.915e-3
-1.795, 3.969e-3
-1.796, 4.023e-3
-1.797, 4.082e-3
-1.798, 4.132e-3
-1.799, 4.195e-3
-1.800, 4.213e-3
-1.799, 4.178e-3
-1.798, 4.151e-3
-1.797, 4.114e-3
-1.796, 4.087e-3
-1.795, 4.057e-3
-1.794, 4.022e-3
-1.793, 3.986e-3
-1.792, 3.934e-3
-1.791, 3.883e-3
-1.790, 3.845e-3
-1.789, 3.807e-3
-1.788, 3.771e-3
-1.787, 3.728e-3
-1.786, 3.687e-3
-1.785, 3.649e-3
-1.784, 3.606e-3
-1.783, 3.569e-3
-1.782, 3.526e-3
-1.781, 3.482e-3
-1.780, 3.449e-3
-1.779, 3.412e-3
-1.778, 3.369e-3
-1.777, 3.331e-3
-1.776, 3.286e-3
-1.775, 3.246e-3
-1.774, 3.207e-3
-1.773, 3.167e-3
-1.772, 3.134e-3
-1.771, 3.096e-3
-1.770, 3.060e-3
-1.769, 3.023e-3
-1.768, 2.988e-3
-1.767, 2.954e-3
-1.766, 2.917e-3
-1.765, 2.882e-3
-1.764, 2.849e-3
-1.763, 2.812e-3
-1.762, 2.777e-3
-1.761, 2.740e-3
-1.760, 2.702e-3
-1.759, 2.672e-3
-1.758, 2.635e-3
-1.757, 2.599e-3
-1.756, 2.562e-3
-1.755, 2.527e-3
-1.754, 2.494e-3
-1.753, 2.464e-3
-1.752, 2.432e-3
-1.751, 2.400e-3
-1.750, 2.366e-3
-1.749, 2.332e-3
-1.748, 2.302e-3
-1.747, 2.267e-3
-1.746, 2.239e-3
-1.745, 2.207e-3
-1.744, 2.178e-3
-1.743, 2.149e-3
-1.742, 2.119e-3
-1.741, 2.092e-3
-1.740, 2.062e-3
-1.739, 2.030e-3
-1.738, 2.000e-3
-1.737, 1.973e-3
-1.736, 1.944e-3
-1.735, 1.916e-3
-1.734, 1.887e-3
-1.733, 1.860e-3
-1.732, 1.835e-3
-1.731, 1.808e-3
-1.730, 1.780e-3
-1.729, 1.758e-3
-1.728, 1.732e-3
-1.727, 1.705e-3
-1.726, 1.681e-3
-1.725, 1.657e-3
-1.724, 1.633e-3
-1.723, 1.609e-3
-1.722, 1.585e-3
-1.721, 1.559e-3
-1.720, 1.534e-3
-1.719, 1.510e-3
-1.718, 1.486e-3
-1.717, 1.463e-3
-1.716, 1.442e-3
-1.715, 1.422e-3
-1.714, 1.403e-3
-1.713, 1.381e-3
-1.712, 1.358e-3
-1.711, 1.337e-3
-1.710, 1.311e-3
-1.709, 1.290e-3
-1.708, 1.269e-3
-1.707, 1.250e-3
-1.706, 1.230e-3
-1.705, 1.211e-3
-1.704, 1.192e-3
-1.703, 1.166e-3
-1.702, 1.148e-3
-1.701, 1.130e-3
-1.700, 1.111e-3
-1.699, 1.093e-3
-1.698, 1.076e-3
-1.697, 1.058e-3
-1.696, 1.041e-3
-1.695, 1.018e-3
-1.694, 1.004e-3
-1.693, 9.886e-4
-1.692, 9.701e-4
-1.691, 9.547e-4
-1.690, 9.396e-4
-1.689, 9.247e-4
-1.688, 9.112e-4
-1.687, 8.933e-4
-1.686, 8.779e-4
-1.685, 8.614e-4
-1.684, 8.476e-4
-1.683, 8.324e-4
-1.682, 8.165e-4
-1.681, 8.004e-4
-1.680, 7.883e-4
-1.679, 7.750e-4
-1.678, 7.608e-4
-1.677, 7.467e-4
-1.676, 7.325e-4
-1.675, 7.200e-4
-1.674, 7.067e-4
-1.673, 6.949e-4
-1.672, 6.817e-4
-1.671, 6.694e-4
-1.670, 6.576e-4
-1.669, 6.462e-4
-1.668, 6.344e-4
-1.667, 6.235e-4
-1.666, 6.126e-4
-1.665, 6.020e-4
-1.664, 5.899e-4
-1.663, 5.794e-4
-1.662, 5.681e-4
-1.661, 5.570e-4
-1.660, 5.473e-4
-1.659, 5.375e-4
-1.658, 5.276e-4
-1.657, 5.178e-4
-1.656, 5.080e-4
-1.655, 4.995e-4
-1.654, 4.898e-4
-1.653, 4.801e-4
-1.652, 4.711e-4
-1.651, 4.624e-4
-1.650, 4.544e-4
-1.649, 4.459e-4
-1.648, 4.372e-4
-1.647, 4.287e-4
-1.646, 4.207e-4
-1.645, 4.133e-4
-1.644, 4.058e-4
-1.643, 3.981e-4
-1.642, 3.903e-4
-1.641, 3.827e-4
-1.640, 3.760e-4
-1.639, 3.685e-4
-1.638, 3.616e-4
-1.637, 3.544e-4
-1.636, 3.475e-4
-1.635, 3.416e-4
-1.634, 3.352e-4
-1.633, 3.282e-4
-1.632, 3.213e-4
-1.631, 3.150e-4
-1.630, 3.095e-4
-1.629, 3.037e-4
-1.628, 2.976e-4
-1.627, 2.917e-4
-1.626, 2.861e-4
-1.625, 2.810e-4
-1.624, 2.755e-4
-1.623, 2.700e-4
-1.622, 2.645e-4
-1.621, 2.594e-4
-1.620, 2.547e-4
-1.619, 2.501e-4
-1.618, 2.451e-4
-1.617, 2.398e-4
-1.616, 2.351e-4
-1.615, 2.307e-4
-1.614, 2.262e-4
-1.613, 2.216e-4
-1.612, 2.170e-4
-1.611, 2.130e-4
-1.610, 2.092e-4
-1.609, 2.053e-4
-1.608, 2.011e-4
-1.607, 1.967e-4
-1.606, 1.929e-4
-1.605, 1.895e-4
-1.604, 1.861e-4
-1.603, 1.825e-4
-1.602, 1.784e-4
-1.601, 1.749e-4
-1.600, 1.719e-4
-1.599, 1.685e-4
-1.598, 1.650e-4
-1.597, 1.619e-4
-1.596, 1.585e-4
-1.595, 1.558e-4
-1.594, 1.530e-4
-1.593, 1.493e-4
-1.592, 1.465e-4
-1.591, 1.437e-4
-1.590, 1.412e-4
-1.589, 1.385e-4
-1.588, 1.354e-4
-1.587, 1.327e-4
-1.586, 1.303e-4
-1.585, 1.280e-4
-1.584, 1.260e-4
-1.583, 1.231e-4
-1.582, 1.204e-4
-1.581, 1.182e-4
-1.580, 1.162e-4
-1.579, 1.141e-4
-1.578, 1.116e-4
-1.577, 1.093e-4
-1.576, 1.073e-4
-1.575, 1.055e-4
-1.574, 1.036e-4
-1.573, 1.013e-4
-1.572, 9.914e-5
-1.571, 9.737e-5
-1.570, 9.590e-5
-1.569, 9.402e-5
-1.568, 9.193e-5
-1.567, 8.997e-5
-1.566, 8.834e-5
-1.565, 8.711e-5
-1.564, 8.552e-5
-1.563, 8.357e-5
-1.562, 8.165e-5
-1.561, 8.018e-5
-1.560, 7.897e-5
-1.559, 7.766e-5
-1.558, 7.583e-5
-1.557, 7.421e-5
-1.556, 7.281e-5
-1.555, 7.181e-5
-1.554, 7.050e-5
-1.553, 6.884e-5
-1.552, 6.736e-5
-1.551, 6.622e-5
-1.550, 6.522e-5
-1.549, 6.418e-5
-1.548, 6.269e-5
-1.547, 6.120e-5
-1.546, 6.019e-5
-1.545, 5.935e-5
-1.544, 5.844e-5
-1.543, 5.714e-5
-1.542, 5.580e-5
-1.541, 5.482e-5
-1.540, 5.411e-5
-1.539, 5.324e-5
-1.538, 5.199e-5
-1.537, 5.075e-5
-1.536, 4.998e-5
-1.535, 4.936e-5
-1.534, 4.848e-5
-1.533, 4.736e-5
-1.532, 4.627e-5
-1.531, 4.546e-5
-1.530, 4.500e-5
-1.529, 4.422e-5
-1.528, 4.319e-5
-1.527, 4.211e-5
-1.526, 4.133e-5
-1.525, 4.095e-5
-1.524, 4.029e-5
-1.523, 3.922e-5
-1.522, 3.830e-5
-1.521, 3.764e-5
-1.520, 3.730e-5
-1.519, 3.669e-5
-1.518, 3.574e-5
-1.517, 3.488e-5
-1.516, 3.427e-5
-1.515, 3.397e-5
-1.514, 3.345e-5
-1.513, 3.254e-5
-1.512, 3.176e-5
-1.511, 3.118e-5
-1.510, 3.093e-5
-1.509, 3.047e-5
-1.508, 2.962e-5
-1.507, 2.884e-5
-1.506, 2.840e-5
-1.505, 2.817e-5
-1.504, 2.781e-5
-1.503, 2.701e-5
-1.502, 2.626e-5
-1.501, 2.583e-5
-1.500, 2.572e-5
-1.499, 2.538e-5
-1.498, 2.464e-5
-1.497, 2.383e-5
-1.496, 2.354e-5
-1.495, 2.338e-5
-1.494, 2.294e-5
-1.493, 2.229e-5
-1.492, 2.164e-5
-1.491, 2.127e-5
-1.490, 2.115e-5
-1.489, 2.081e-5
-1.488, 2.018e-5
-1.487, 1.954e-5
-1.486, 1.921e-5
-1.485, 1.912e-5
-1.484, 1.885e-5
-1.483, 1.818e-5
-1.482, 1.763e-5
-1.481, 1.732e-5
-1.480, 1.731e-5
-1.479, 1.702e-5
-1.478, 1.641e-5
-1.477, 1.588e-5
-1.476, 1.568e-5
-1.475, 1.562e-5
-1.474, 1.544e-5
-1.473, 1.478e-5
-1.472, 1.426e-5
-1.471, 1.405e-5
-1.470, 1.401e-5
-1.469, 1.380e-5
-1.468, 1.326e-5
-1.467, 1.269e-5
-1.466, 1.250e-5
-1.465, 1.248e-5
-1.464, 1.237e-5
-1.463, 1.178e-5
-1.462, 1.122e-5
-1.461, 1.109e-5
-1.460, 1.103e-5
-1.459, 1.081e-5
-1.458, 1.029e-5
-1.457, 9.730e-6
-1.456, 9.613e-6
-1.455, 9.635e-6
-1.454, 9.434e-6
-1.453, 8.989e-6
-1.452, 8.458e-6
-1.451, 8.321e-6
-1.450, 8.409e-6
-1.449, 8.201e-6
-1.448, 7.762e-6
-1.447, 7.254e-6
-1.446, 7.088e-6
-1.445, 7.165e-6
-1.444, 6.998e-6
-1.443, 6.514e-6
-1.442, 6.097e-6
-1.441, 5.940e-6
-1.440, 6.105e-6
-1.439, 5.956e-6
-1.438, 5.435e-6
-1.437, 5.019e-6
-1.436, 4.887e-6
-1.435, 4.970e-6
-1.434, 4.812e-6
-1.433, 4.345e-6
-1.432, 3.988e-6
-1.431, 3.951e-6
-1.430, 3.985e-6
-1.429, 3.913e-6
-1.428, 3.454e-6
-1.427, 3.060e-6
-1.426, 2.965e-6
-1.425, 3.056e-6
-1.424, 2.997e-6
-1.423, 2.546e-6
-1.422, 2.123e-6
-1.421, 2.104e-6
-1.420, 2.227e-6
-1.419, 2.145e-6
-1.418, 1.722e-6
-1.417, 1.343e-6
-1.416, 1.304e-6
-1.415, 1.469e-6
-1.414, 1.376e-6
-1.413, 1.035e-6
-1.412, 5.967e-7
-1.411, 5.247e-7
-1.410, 6.796e-7
-1.409, 5.809e-7
-1.408, 2.030e-7
-1.407, -1.600e-7
-1.406, -2.242e-7
-1.405, -3.769e-8
-1.404, -9.688e-8
-1.403, -4.787e-7
-1.402, -8.122e-7
-1.401, -9.049e-7
-1.400, -7.401e-7
-1.399, -7.490e-7
-1.398, -1.194e-6
-1.397, -1.464e-6
-1.396, -1.536e-6
-1.395, -1.359e-6
-1.394, -1.383e-6
-1.393, -1.785e-6
-1.392, -2.132e-6
-1.391, -2.107e-6
-1.390, -1.972e-6
-1.389, -1.929e-6
-1.388, -2.334e-6
-1.387, -2.673e-6
-1.386, -2.687e-6
-1.385, -2.486e-6
-1.384, -2.527e-6
-1.383, -2.880e-6
-1.382, -3.263e-6
-1.381, -3.244e-6
-1.380, -3.058e-6
-1.379, -3.069e-6
-1.378, -3.431e-6
-1.377, -3.808e-6
-1.376, -3.740e-6
-1.375, -3.543e-6
-1.374, -3.604e-6
-1.373, -3.911e-6
-1.372, -4.265e-6
-1.371, -4.278e-6
-1.370, -4.070e-6
-1.369, -4.117e-6
-1.368, -4.437e-6
-1.367, -4.729e-6
-1.366, -4.826e-6
-1.365, -4.536e-6
-1.364, -4.584e-6
-1.363, -4.956e-6
-1.362, -5.238e-6
-1.361, -5.288e-6
-1.360, -5.040e-6
-1.359, -5.039e-6
-1.358, -5.430e-6
-1.357, -5.681e-6
-1.356, -5.708e-6
-1.355, -5.516e-6
-1.354, -5.524e-6
-1.353, -5.865e-6
-1.352, -6.156e-6
-1.351, -6.170e-6
-1.350, -6.025e-6
-1.349, -5.992e-6
-1.348, -6.350e-6
-1.347, -6.701e-6
-1.346, -6.689e-6
-1.345, -6.489e-6
-1.344, -6.479e-6
-1.343, -6.817e-6
-1.342, -7.177e-6
-1.341, -7.100e-6
-1.340, -6.928e-6
-1.339, -6.933e-6
-1.338, -7.276e-6
-1.337, -7.609e-6
-1.336, -7.561e-6
-1.335, -7.378e-6
-1.334, -7.413e-6
-1.333, -7.745e-6
-1.332, -8.063e-6
-1.331, -8.100e-6
-1.330, -7.853e-6
-1.329, -7.911e-6
-1.328, -8.210e-6
-1.327, -8.540e-6
-1.326, -8.581e-6
-1.325, -8.333e-6
-1.324, -8.377e-6
-1.323, -8.773e-6
-1.322, -9.035e-6
-1.321, -9.103e-6
-1.320, -8.879e-6
-1.319, -8.937e-6
-1.318, -9.298e-6
-1.317, -9.605e-6
-1.316, -9.628e-6
-1.315, -9.460e-6
-1.314, -9.464e-6
-1.313, -9.839e-6
-1.312, -1.020e-5
-1.311, -1.019e-5
-1.310, -1.002e-5
-1.309, -1.008e-5
-1.308, -1.042e-5
-1.307, -1.075e-5
-1.306, -1.076e-5
-1.305, -1.064e-5
-1.304, -1.062e-5
-1.303, -1.100e-5
-1.302, -1.140e-5
-1.301, -1.135e-5
-1.300, -1.124e-5
-1.299, -1.123e-5
-1.298, -1.163e-5
-1.297, -1.198e-5
-1.296, -1.199e-5
-1.295, -1.183e-5
-1.294, -1.190e-5
-1.293, -1.223e-5
-1.292, -1.263e-5
-1.291, -1.266e-5
-1.290, -1.248e-5
-1.289, -1.251e-5
-1.288, -1.287e-5
-1.287, -1.319e-5
-1.286, -1.329e-5
-1.285, -1.307e-5
-1.284, -1.313e-5
-1.283, -1.349e-5
-1.282, -1.386e-5
-1.281, -1.390e-5
-1.280, -1.374e-5
-1.279, -1.376e-5
-1.278, -1.414e-5
-1.277, -1.446e-5
-1.276, -1.452e-5
-1.275, -1.434e-5
-1.274, -1.436e-5
-1.273, -1.478e-5
-1.272, -1.509e-5
-1.271, -1.512e-5
-1.270, -1.501e-5
-1.269, -1.496e-5
-1.268, -1.536e-5
-1.267, -1.572e-5
-1.266, -1.574e-5
-1.265, -1.561e-5
-1.264, -1.562e-5
-1.263, -1.596e-5
-1.262, -1.635e-5
-1.261, -1.637e-5
-1.260, -1.620e-5
-1.259, -1.624e-5
-1.258, -1.659e-5
-1.257, -1.697e-5
-1.256, -1.697e-5
-1.255, -1.682e-5
-1.254, -1.686e-5
-1.253, -1.719e-5
-1.252, -1.752e-5
-1.251, -1.760e-5
-1.250, -1.741e-5
-1.249, -1.746e-5
-1.248, -1.779e-5
-1.247, -1.812e-5
-1.246, -1.817e-5
-1.245, -1.793e-5
-1.244, -1.799e-5
-1.243, -1.834e-5
-1.242, -1.868e-5
-1.241, -1.873e-5
-1.240, -1.848e-5
-1.239, -1.851e-5
-1.238, -1.889e-5
-1.237, -1.922e-5
-1.236, -1.921e-5
-1.235, -1.906e-5
-1.234, -1.906e-5
-1.233, -1.943e-5
-1.232, -1.968e-5
-1.231, -1.975e-5
-1.230, -1.959e-5
-1.229, -1.970e-5
-1.228, -1.993e-5
-1.227, -2.026e-5
-1.226, -2.027e-5
-1.225, -2.007e-5
-1.224, -2.004e-5
-1.223, -2.038e-5
-1.222, -2.072e-5
-1.221, -2.067e-5
-1.220, -2.047e-5
-1.219, -2.050e-5
-1.218, -2.080e-5
-1.217, -2.113e-5
-1.216, -2.111e-5
-1.215, -2.092e-5
-1.214, -2.090e-5
-1.213, -2.123e-5
-1.212, -2.153e-5
-1.211, -2.155e-5
-1.210, -2.130e-5
-1.209, -2.133e-5
-1.208, -2.160e-5
-1.207, -2.190e-5
-1.206, -2.195e-5
-1.205, -2.166e-5
-1.204, -2.166e-5
-1.203, -2.202e-5
-1.202, -2.227e-5
-1.201, -2.229e-5
-1.200, -2.201e-5
-1.199, -2.201e-5
-1.198, -2.236e-5
-1.197, -2.261e-5
-1.196, -2.257e-5
-1.195, -2.238e-5
-1.194, -2.228e-5
-1.193, -2.263e-5
-1.192, -2.289e-5
-1.191, -2.290e-5
-1.190, -2.266e-5
-1.189, -2.257e-5
-1.188, -2.287e-5
-1.187, -2.321e-5
-1.186, -2.310e-5
-1.185, -2.292e-5
-1.184, -2.278e-5
-1.183, -2.310e-5
-1.182, -2.343e-5
-1.181, -2.334e-5
-1.180, -2.311e-5
-1.179, -2.307e-5
-1.178, -2.341e-5
-1.177, -2.371e-5
-1.176, -2.357e-5
-1.175, -2.334e-5
-1.174, -2.327e-5
-1.173, -2.349e-5
-1.172, -2.381e-5
-1.171, -2.377e-5
-1.170, -2.345e-5
-1.169, -2.345e-5
-1.168, -2.363e-5
-1.167, -2.395e-5
-1.166, -2.394e-5
-1.165, -2.361e-5
-1.164, -2.354e-5
-1.163, -2.388e-5
-1.162, -2.413e-5
-1.161, -2.405e-5
-1.160, -2.372e-5
-1.159, -2.364e-5
-1.158, -2.395e-5
-1.157, -2.418e-5
-1.156, -2.411e-5
-1.155, -2.385e-5
-1.154, -2.374e-5
-1.153, -2.406e-5
-1.152, -2.431e-5
-1.151, -2.421e-5
-1.150, -2.396e-5
-1.149, -2.383e-5
-1.148, -2.410e-5
-1.147, -2.438e-5
-1.146, -2.425e-5
-1.145, -2.396e-5
-1.144, -2.384e-5
-1.143, -2.408e-5
-1.142, -2.441e-5
-1.141, -2.425e-5
-1.140, -2.394e-5
-1.139, -2.387e-5
-1.138, -2.409e-5
-1.137, -2.438e-5
-1.136, -2.425e-5
-1.135, -2.395e-5
-1.134, -2.389e-5
-1.133, -2.405e-5
-1.132, -2.430e-5
-1.131, -2.423e-5
-1.130, -2.391e-5
-1.129, -2.378e-5
-1.128, -2.401e-5
-1.127, -2.424e-5
-1.126, -2.421e-5
-1.125, -2.382e-5
-1.124, -2.372e-5
-1.123, -2.392e-5
-1.122, -2.419e-5
-1.121, -2.412e-5
-1.120, -2.369e-5
-1.119, -2.357e-5
-1.118, -2.389e-5
-1.117, -2.406e-5
-1.116, -2.398e-5
-1.115, -2.363e-5
-1.114, -2.345e-5
-1.113, -2.376e-5
-1.112, -2.392e-5
-1.111, -2.382e-5
-1.110, -2.348e-5
-1.109, -2.331e-5
-1.108, -2.355e-5
-1.107, -2.379e-5
-1.106, -2.367e-5
-1.105, -2.331e-5
-1.104, -2.316e-5
-1.103, -2.339e-5
-1.102, -2.365e-5
-1.101, -2.350e-5
-1.100, -2.319e-5
-1.099, -2.306e-5
-1.098, -2.326e-5
-1.097, -2.352e-5
-1.096, -2.339e-5
-1.095, -2.302e-5
-1.094, -2.294e-5
-1.093, -2.312e-5
-1.092, -2.336e-5
-1.091, -2.335e-5
-1.090, -2.294e-5
-1.089, -2.281e-5
-1.088, -2.307e-5
-1.087, -2.328e-5
-1.086, -2.320e-5
-1.085, -2.280e-5
-1.084, -2.266e-5
-1.083, -2.296e-5
-1.082, -2.315e-5
-1.081, -2.309e-5
-1.080, -2.267e-5
-1.079, -2.255e-5
-1.078, -2.282e-5
-1.077, -2.303e-5
-1.076, -2.293e-5
-1.075, -2.264e-5
-1.074, -2.245e-5
-1.073, -2.273e-5
-1.072, -2.295e-5
-1.071, -2.288e-5
-1.070, -2.257e-5
-1.069, -2.240e-5
-1.068, -2.264e-5
-1.067, -2.295e-5
-1.066, -2.281e-5
-1.065, -2.254e-5
-1.064, -2.239e-5
-1.063, -2.264e-5
-1.062, -2.297e-5
-1.061, -2.285e-5
-1.060, -2.251e-5
-1.059, -2.247e-5
-1.058, -2.273e-5
-1.057, -2.305e-5
-1.056, -2.292e-5
-1.055, -2.257e-5
-1.054, -2.250e-5
-1.053, -2.268e-5
-1.052, -2.300e-5
-1.051, -2.292e-5
-1.050, -2.258e-5
-1.049, -2.252e-5
-1.048, -2.271e-5
-1.047, -2.299e-5
-1.046, -2.300e-5
-1.045, -2.257e-5
-1.044, -2.253e-5
-1.043, -2.276e-5
-1.042, -2.308e-5
-1.041, -2.301e-5
-1.040, -2.265e-5
-1.039, -2.256e-5
-1.038, -2.285e-5
-1.037, -2.310e-5
-1.036, -2.307e-5
-1.035, -2.276e-5
-1.034, -2.260e-5
-1.033, -2.292e-5
-1.032, -2.318e-5
-1.031, -2.316e-5
-1.030, -2.287e-5
-1.029, -2.275e-5
-1.028, -2.303e-5
-1.027, -2.346e-5
-1.026, -2.335e-5
-1.025, -2.310e-5
-1.024, -2.301e-5
-1.023, -2.322e-5
-1.022, -2.359e-5
-1.021, -2.343e-5
-1.020, -2.314e-5
-1.019, -2.304e-5
-1.018, -2.327e-5
-1.017, -2.364e-5
-1.016, -2.352e-5
-1.015, -2.323e-5
-1.014, -2.315e-5
-1.013, -2.335e-5
-1.012, -2.369e-5
-1.011, -2.364e-5
-1.010, -2.327e-5
-1.009, -2.326e-5
-1.008, -2.343e-5
-1.007, -2.381e-5
-1.006, -2.376e-5
-1.005, -2.342e-5
-1.004, -2.335e-5
-1.003, -2.361e-5
-1.002, -2.388e-5
-1.001, -2.386e-5
