Potential V vs RHE, Current mA cm-2
0.013299999999999867,23.724708498736668
0.012299999999999978,21.71581845292831
0.011299999999999866,19.848399537106463
0.010299999999999976,18.009274847281915
0.009299999999999864,16.141855931460068
0.008299999999999974,14.30273124163552
0.007299999999999862,12.603662970497613
0.006299999999999972,10.989477377351605
0.00529999999999986,9.419147834501414
0.0042999999999999705,8.022827781534623
0.0032999999999998586,6.627922439867697
0.0022999999999999687,5.275458437196722
0.0012999999999998568,3.922994434525747
0.00029999999999996696,2.5280890928588207
-0.000700000000000145,1.0446228238203432
-0.0017000000000000348,-0.4384190318281749
-0.0027000000000001467,-1.8334658446250875
-0.0037000000000000366,-3.1859298472960624
-0.0047000000000001485,-4.406825699079589
-0.005700000000000038,-5.585280211867165
-0.00670000000000015,-6.6760226240631075
-0.00770000000000004,-7.853062425550818
-0.008700000000000152,-8.987660888042578
-0.009700000000000042,-10.25241279012192
-0.010700000000000154,-11.517164692201263
-0.011700000000000044,-12.825772644576423
-0.012700000000000156,-14.046668496359947
-0.013700000000000045,-15.222293586547794
-0.014700000000000157,-16.354062626439823
-0.015700000000000047,-17.358507649344002
-0.01670000000000016,-18.320511333252224
-0.01770000000000005,-19.3249563561564
-0.01870000000000016,-20.329401379060574
-0.01970000000000005,-21.461170418952605
-0.020700000000000163,-22.63538079784059
-0.021700000000000053,-23.767149837732617
-0.022700000000000164,-24.95550732961925
-0.023700000000000054,-26.002393691519377
-0.024700000000000166,-27.00683871442355
-0.025700000000000056,-27.912253946337174
-0.026700000000000168,-28.789374952253496
-0.027700000000000058,-29.708937297165768
-0.02870000000000017,-30.670940981073993
-0.02970000000000006,-31.717827342974125
-0.03070000000000017,-32.807155043870196
-0.03170000000000006,-33.89648274476628
-0.03270000000000017,-34.98581044566235
-0.03370000000000006,-35.99025546856653
-0.034700000000000175,-36.89567070048016
-0.035700000000000065,-37.77279170639648
-0.03670000000000018,-38.5650300343209
-0.03770000000000007,-39.42800392723857
-0.03870000000000018,-40.34756627215084
-0.03970000000000007,-41.30956995605907
-0.04070000000000018,-42.31401497896325
-0.04170000000000007,-43.40334267985933
-0.04270000000000018,-44.4077877027635
-0.04370000000000007,-45.36979138667173
-0.044700000000000184,-46.2327652795894
-0.045700000000000074,-47.067444946509774
-0.046700000000000186,-47.84553616143554
-0.047700000000000076,-48.68021582835591
-0.04870000000000019,-49.557336834272235
-0.04970000000000008,-50.46275206618586
-0.05070000000000019,-51.46719708909004
-0.05170000000000008,-52.514083450990164
-0.05270000000000019,-53.476087134898386
-0.05370000000000008,-54.43809081880661
-0.05470000000000019,-55.31521182472294
-0.05570000000000008,-56.093303039648696
-0.056700000000000195,-56.88554136757313
-0.057700000000000085,-57.70607392149485
-0.058700000000000196,-58.583194927411164
-0.059700000000000086,-59.502757272323436
-0.0607000000000002,-60.49305518222897
-0.06170000000000009,-61.53994154412909
-0.0627000000000002,-62.459503889041365
-0.06370000000000009,-63.421507572949594
-0.0647000000000002,-64.29862857886593
-0.06570000000000009,-65.0767197937917
-0.0667000000000002,-65.82651678272015
-0.0677000000000001,-66.64704933664189
-0.0687000000000002,-67.48172900356225
-0.0697000000000001,-68.38714423547587
-0.07070000000000021,-69.39158925838004
-0.0717000000000001,-70.35359294228827
-0.07270000000000021,-71.35803796519245
-0.0737000000000001,-72.27760031010472
-0.07470000000000021,-73.09813286402644
-0.0757000000000001,-73.93281253094682
-0.07670000000000021,-74.66846240687663
-0.0777000000000001,-75.50314207379701
-0.07870000000000021,-76.33782174071737
-0.0797000000000001,-77.243236972631
-0.08070000000000022,-78.24768199553519
-0.0817000000000001,-79.25212701843935
-0.08270000000000022,-80.21413070234757
-0.08370000000000011,-81.1761343862558
-0.08470000000000022,-82.03910827917348
-0.08570000000000011,-82.87378794609386
-0.08670000000000022,-83.70846761301424
-0.08770000000000011,-84.44411748894404
-0.08870000000000022,-85.32123849486035
-0.08970000000000011,-86.28324217876859
-0.09070000000000022,-87.27354008867411
-0.09170000000000011,-88.32042645057423
-0.09270000000000023,-89.32487147347842
-0.09370000000000012,-90.32931649638259
-0.09470000000000023,-91.20643750229891
-0.09570000000000012,-91.98452871722468
-0.09670000000000023,-92.81920838414506
-0.09770000000000012,-93.61144671206948
-0.09870000000000023,-94.47442060498715
-0.09970000000000012,-95.43642428889537
-0.10070000000000023,-96.44086931179956
-0.10170000000000012,-97.4877556736997
-0.10270000000000024,-98.49220069660386
-0.10370000000000013,-99.45420438051207
-0.10470000000000024,-100.31717827342976
-0.10570000000000013,-101.19429927934607
-0.10670000000000024,-101.97239049427183
-0.10770000000000013,-102.84951150018817
-0.10870000000000024,-103.7266325061045
-0.10970000000000013,-104.68863619001272
-0.11070000000000024,-105.69308121291688
-0.11170000000000013,-106.78240891381296
-0.11270000000000002,-107.78685393671715
-0.11370000000000013,-108.77715184662266
-0.11470000000000002,-109.654272852539
-0.11570000000000014,-110.48895251945936
-0.11670000000000003,-111.26704373438514
-0.11770000000000014,-112.10172340130552
-0.11870000000000003,-112.96469729422319
-0.11970000000000014,-113.92670097813141
-0.12070000000000003,-114.97358734003153
-0.12170000000000014,-116.06291504092759
-0.12270000000000003,-117.06736006383179
-0.12370000000000014,-118.02936374774
-0.12470000000000003,-118.99136743164823
-0.12570000000000014,-119.86848843756455
-0.12670000000000003,-120.64657965249035
-0.12770000000000015,-121.52370065840667
-0.12870000000000004,-122.42911589032028
-0.12970000000000015,-123.43356091322445
-0.13070000000000004,-124.52288861412055
-0.13170000000000015,-125.62636342801528
-0.13270000000000004,-126.6732497899154
-0.13370000000000015,-127.66354769982091
-0.13470000000000004,-128.62555138372915
-0.13570000000000015,-129.4602310506495
-0.13670000000000004,-130.37979339556176
-0.13770000000000016,-131.28520862747538
-0.13870000000000005,-132.16232963339172
-0.13970000000000016,-133.1667746562959
-0.14070000000000005,-134.256102357192
-0.14170000000000016,-135.34543005808808
-0.14270000000000005,-136.43475775898415
-0.14370000000000016,-137.43920278188833
-0.14470000000000005,-138.40120646579655
-0.14570000000000016,-139.27832747171286
-0.14670000000000005,-140.14130136463055
-0.14770000000000016,-141.06086370954282
-0.14870000000000005,-142.03701450644968
-0.14970000000000017,-143.0273124163552
-0.15070000000000006,-144.15908145624724
-0.15170000000000017,-145.29085049613926
-0.15270000000000006,-146.4226195360313
-0.15370000000000017,-147.4129174459368
-0.15470000000000006,-148.40321535584232
-0.15570000000000017,-149.25204213576137
-0.15670000000000006,-150.1008689156804
-0.15770000000000017,-150.94969569559944
-0.15870000000000006,-151.93999360550492
-0.15970000000000018,-152.93029151541046
-0.16070000000000007,-154.0620605553025
-0.16170000000000018,-155.19382959519453
-0.16270000000000007,-156.32559863508658
-0.16370000000000018,-157.31589654499206
-0.16470000000000007,-158.3061944548976
-0.16570000000000018,-159.29649236480313
-0.16670000000000007,-160.14531914472215
-0.16770000000000018,-160.99414592464117
-0.16870000000000007,-161.9844438345467
-0.16970000000000018,-162.97474174445222
-0.17070000000000007,-163.96503965435775
-0.17170000000000019,-165.09680869424977
-0.17270000000000008,-166.22857773414182
-0.1737000000000002,-167.21887564404733
-0.17470000000000008,-168.20917355395284
-0.1757000000000002,-169.0580003338719
-0.17670000000000008,-169.9068271137909
-0.1777000000000002,-170.75565389370993
-0.17870000000000008,-171.74595180361547
-0.1797000000000002,-172.87772084350746
-0.18070000000000008,-173.86801875341303
-0.1817000000000002,-174.99978779330505
-0.18270000000000008,-176.27302796318358
-0.1837000000000002,-177.2633258730891
-0.1847000000000001,-178.25362378299462
-0.1857000000000002,-179.24392169290016
-0.1867000000000001,-180.09274847281918
-0.1877000000000002,-181.08304638272472
-0.1887000000000001,-181.93187316264374
-0.1897000000000002,-183.06364220253573
-0.1907000000000001,-184.19541124242778
-0.1917000000000001,-185.3271802823198
-0.19269999999999998,-186.45894932221185
-0.1937000000000001,-187.44924723211736
-0.19469999999999998,-188.4395451420229
-0.1957000000000001,-189.42984305192843
-0.19669999999999999,-190.27866983184742
-0.1977000000000001,-191.268967741753
-0.1987,-192.2592656516585
-0.1997000000000001,-193.3910346915505
-0.2007,-194.52280373144254
-0.2017000000000001,-195.65457277133459
-0.2027,-196.7863418112266
-0.2037000000000001,-198.05958198110514
-0.2047,-199.04987989101065
-0.2057000000000001,-200.04017780091618
-0.2067,-201.03047571082172
-0.2077000000000001,-202.02077362072723
-0.2087,-203.01107153063276
-0.2097000000000001,-204.14284057052478
-0.2107,-205.27460961041683
-0.2117000000000001,-206.40637865030885
-0.2127,-207.5381476902009
-0.2137000000000001,-208.6699167300929
-0.2147,-209.66021463999843
-0.2157000000000001,-210.65051254990397
-0.2167,-211.64081045980947
-0.21770000000000012,-212.631108369715
-0.2187,-213.62140627962054
-0.21970000000000012,-214.61170418952605
-0.2207,-215.7434732294181
-0.22170000000000012,-216.87524226931012
-0.2227,-217.86554017921566
-0.22370000000000012,-218.85583808912116
-0.2247,-219.8461359990267
-0.22570000000000012,-220.6949627789457
-0.2267,-221.68526068885126
-0.22770000000000012,-222.6755585987568
-0.22870000000000001,-223.52438537867582
-0.22970000000000013,-224.65615441856778
-0.23070000000000002,-225.78792345845983
-0.23170000000000013,-226.77822136836537
-0.23270000000000002,-227.9099904082574
-0.23370000000000013,-229.04175944814943
-0.23470000000000002,-230.03205735805497
-0.23570000000000013,-230.880884137974
-0.23670000000000002,-231.729710917893
-0.2376999999999999,-232.72000882779852
-0.23870000000000002,-233.85177786769057
-0.2396999999999999,-234.84207577759608
-0.24070000000000003,-236.1153159474746
-0.24169999999999991,-237.24708498736666
-0.24270000000000003,-238.5203251572452
-0.24369999999999992,-239.65209419713722
-0.24470000000000003,-240.78386323702924
-0.24569999999999992,-241.77416114693477
-0.24670000000000003,-242.76445905684034
-0.24769999999999992,-243.75475696674582
-0.24870000000000003,-244.8865260066378
-0.24969999999999992,-246.01829504652986
-0.25070000000000003,-247.1500640864219
-0.2516999999999999,-248.42330425630044
-0.25270000000000004,-249.5550732961925
-0.2536999999999999,-250.6868423360845
-0.25470000000000004,-251.67714024599002
-0.2556999999999999,-252.66743815589555
-0.25670000000000004,-253.65773606580112
-0.25769999999999993,-254.50656284572008
-0.25870000000000004,-255.49686075562562
-0.25969999999999993,-256.62862979551767
-0.26070000000000004,-257.90186996539614
-0.26169999999999993,-259.0336390052882
-0.26270000000000004,-260.16540804518024
-0.26369999999999993,-261.4386482150588
-0.26470000000000005,-262.42894612496434
-0.26569999999999994,-263.41924403486985
-0.26670000000000005,-264.40954194477536
-0.26769999999999994,-265.39983985468086
-0.26870000000000005,-266.3901377645864
-0.26969999999999994,-267.5219068044785
-0.27070000000000005,-268.65367584437047
-0.27169999999999994,-269.78544488426246
-0.27270000000000005,-271.05868505414105
-0.27369999999999994,-272.1904540940331
-0.27470000000000006,-273.1807520039386
-0.27569999999999995,-274.1710499138441
-0.27670000000000006,-275.1613478237496
-0.27769999999999995,-276.15164573365513
-0.27870000000000006,-277.1419436435607
-0.27969999999999995,-278.2737126834527
-0.28070000000000006,-279.40548172334474
-0.28169999999999995,-280.67872189322327
-0.28270000000000006,-281.8104909331153
-0.28369999999999995,-282.9422599730073
-0.28470000000000006,-284.07402901289936
-0.28569999999999995,-284.9228557928184
-0.28670000000000007,-285.9131537027239
-0.28769999999999996,-287.04492274261594
-0.28870000000000007,-288.176691782508
-0.28969999999999996,-289.3084608224
-0.29070000000000007,-290.5817009922785
-0.29169999999999996,-291.85494116215705
-0.29270000000000007,-292.9867102020491
-0.29369999999999996,-294.11847924194115
-0.2947000000000001,-295.25024828183314
-0.29569999999999996,-296.2405461917387
-0.2967000000000001,-297.23084410164427
-0.29769999999999996,-298.2211420115498
-0.2987000000000001,-299.3529110514418
-0.29969999999999997,-300.48468009133376
-0.3007000000000001,-301.6164491312258
-0.30169999999999997,-302.88968930110434
-0.3027000000000001,-303.87998721100985
-0.30369999999999997,-305.0117562509019
-0.3047000000000001,-306.1435252907939
-0.30569999999999997,-307.1338232006995
-0.3067000000000001,-308.124121110605
-0.3077,-309.1144190205105
-0.3087000000000001,-310.10471693041603
-0.3097,-311.2364859703081
-0.3107000000000001,-312.36825501020013
-0.3117,-313.6414951800786
-0.3127000000000001,-314.77326421997066
-0.3137,-315.9050332598627
-0.3147000000000001,-317.03680229975475
-0.3157,-318.02710020966026
-0.3167000000000001,-318.8759269895793
-0.3177,-320.00769602947133
-0.3187000000000001,-320.9979939393768
-0.3197,-322.12976297926883
-0.3207000000000001,-323.40300314914737
-0.3217,-324.5347721890394
-0.3227000000000001,-325.80801235891795
-0.3237,-326.93978139880994
-0.3247000000000001,-328.071550438702
-0.3257,-329.0618483486075
-0.3267000000000001,-330.05214625851306
-0.3277,-331.0424441684186
-0.3287000000000001,-332.03274207832413
-0.3297,-333.30598224820267
-0.3307000000000001,-334.43775128809466
-0.3317,-335.71099145797325
-0.3327000000000001,-336.9842316278517
-0.3337,-338.1160006677438
-0.3347000000000001,-339.2477697076358
-0.3357,-340.2380676175413
-0.3367000000000001,-341.0868943974603
-0.3377,-342.07719230736586
-0.3387000000000001,-342.92601908728494
-0.3397,-344.057788127177
-0.3407000000000001,-345.1895571670689
-0.3417,-346.3213262069609
-0.3427000000000001,-347.45309524685297
-0.3437,-348.584864286745
-0.3447000000000001,-349.5751621966506
-0.3457,-350.5654601065561
-0.3467000000000001,-351.4142868864751
-0.3477,-352.4045847963807
-0.3487000000000001,-353.3948827062862
-0.3497,-354.3851806161917
-0.3507000000000001,-355.51694965608374
-0.3517,-356.7901898259622
-0.3527000000000001,-357.92195886585426
-0.3537,-359.0537279057463
-0.3547000000000001,-360.0440258156518
-0.3557,-361.0343237255574
-0.35670000000000013,-361.88315050547635
-0.3577,-362.87344841538186
-0.35870000000000013,-364.0052174552739
-0.3597,-364.9955153651795
-0.36070000000000013,-366.12728440507146
-0.3617,-367.2590534449635
-0.3626999999999999,-368.39082248485556
-0.3637,-369.5225915247476
-0.3646999999999999,-370.5128894346531
-0.3657,-371.5031873445586
-0.3666999999999999,-372.35201412447765
-0.3677,-373.2008409043967
-0.3686999999999999,-374.04966768431575
-0.36970000000000003,-375.0399655942212
-0.3706999999999999,-376.17173463411325
-0.37170000000000003,-377.3035036740053
-0.3726999999999999,-378.43527271389735
-0.37370000000000003,-379.56704175378934
-0.3746999999999999,-380.55733966369485
-0.37570000000000003,-381.5476375736004
-0.3766999999999999,-382.3964643535194
-0.37770000000000004,-383.38676226342494
-0.3786999999999999,-384.37706017333045
-0.37970000000000004,-385.367358083236
-0.3806999999999999,-386.499127123128
-0.38170000000000004,-387.63089616302005
-0.38269999999999993,-388.6211940729256
-0.38370000000000004,-389.61149198283107
-0.38469999999999993,-390.4603187627501
-0.38570000000000004,-391.30914554266917
-0.38669999999999993,-390.60178989273663
-0.38570000000000004,-387.065011643074
-0.38469999999999993,-383.6697045233979
-0.38370000000000004,-380.41586853370836
-0.38269999999999993,-377.3035036740053
-0.38170000000000004,-374.4740810742752
-0.3806999999999999,-371.3617162145721
-0.37970000000000004,-368.39082248485556
-0.3786999999999999,-365.419928755139
-0.37770000000000004,-362.3075638954359
-0.3766999999999999,-359.1951990357328
-0.37570000000000003,-356.08283417602973
-0.3746999999999999,-353.11194044631316
-0.37370000000000003,-350.42398897656955
-0.3726999999999999,-347.59456637683957
-0.37170000000000003,-344.90661490709596
-0.3706999999999999,-342.21866343735235
-0.36970000000000003,-339.5307119676088
-0.3686999999999999,-336.70128936787876
-0.3677,-333.87186676814866
-0.3666999999999999,-330.9009730384321
-0.3657,-328.071550438702
-0.3646999999999999,-325.3835989689584
-0.3637,-322.6956474992149
-0.3626999999999999,-320.00769602947133
-0.3617,-317.60268681970075
-0.36070000000000013,-315.0562064799437
-0.3597,-312.36825501020013
-0.35870000000000013,-309.53883241047004
-0.3577,-306.8508809407265
-0.35670000000000013,-304.0214583409964
-0.3557,-301.33350687125284
-0.3547000000000001,-298.6455554015092
-0.3537,-295.9576039317657
-0.3527000000000001,-293.55259472199515
-0.3517,-291.14758551222457
-0.3507000000000001,-288.6011051724675
-0.3497,-286.196095962697
-0.3487000000000001,-283.64961562293985
-0.3477,-280.9616641531963
-0.3467000000000001,-278.4151838134392
-0.3457,-275.86870347368216
-0.3447000000000001,-273.4636942639116
-0.3437,-270.9172139241545
-0.3427000000000001,-268.65367584437047
-0.3417,-266.2486666345999
-0.3407000000000001,-263.84365742482936
-0.3397,-261.4386482150588
-0.3387000000000001,-259.0336390052882
-0.3377,-256.4871586655312
-0.3367000000000001,-253.94067832577412
-0.3357,-251.39419798601702
-0.3347000000000001,-248.9891887762465
-0.3337,-246.5841795664759
-0.3327000000000001,-244.32064148669184
-0.3317,-242.19857453689428
-0.3307000000000001,-239.93503645711021
-0.3297,-237.67149837732615
-0.3287000000000001,-235.40796029754208
-0.3277,-233.1444222177581
-0.3267000000000001,-230.7394130079875
-0.3257,-228.33440379821695
-0.3247000000000001,-226.07086571843288
-0.3237,-223.80732763864881
-0.3227000000000001,-221.68526068885126
-0.3217,-219.5631937390537
-0.3207000000000001,-217.44112678925615
-0.3197,-215.31905983945856
-0.3187000000000001,-213.05552175967455
-0.3177,-210.65051254990397
-0.3167000000000001,-208.3869744701199
-0.3157,-206.12343639033585
-0.3147000000000001,-203.85989831055176
-0.3137,-201.73783136075423
-0.3127000000000001,-199.61576441095667
-0.3117,-197.63516859114563
-0.3107000000000001,-195.65457277133459
-0.3097,-193.532505821537
-0.3087000000000001,-191.41043887173947
-0.3077,-189.1469007919554
-0.3067000000000001,-186.88336271217133
-0.30569999999999997,-184.7612957623738
-0.3047000000000001,-182.49775768258974
-0.30369999999999997,-180.5171618627787
-0.3027000000000001,-178.53656604296762
-0.30169999999999997,-176.55597022315658
-0.3007000000000001,-174.57537440334553
-0.29969999999999997,-172.73624971352098
-0.2987000000000001,-170.75565389370993
-0.29769999999999996,-168.63358694391238
-0.2967000000000001,-166.51151999411482
-0.29569999999999996,-164.38945304431726
-0.2947000000000001,-162.40885722450622
-0.29369999999999996,-160.42826140469515
-0.29270000000000007,-158.5891367148706
-0.29169999999999996,-156.60854089505958
-0.29070000000000007,-154.76941620523502
-0.28969999999999996,-152.78882038542397
-0.28870000000000007,-150.8082245656129
-0.28769999999999996,-148.82762874580186
-0.28670000000000007,-146.7055617960043
-0.28569999999999995,-144.72496597619326
-0.28470000000000006,-142.7443701563822
-0.28369999999999995,-140.70718588457655
-0.28270000000000006,-138.92464964674662
-0.28169999999999995,-137.08552495692206
-0.28070000000000006,-135.3029887190921
-0.27969999999999995,-133.4214226902716
-0.27870000000000006,-131.5115624354538
-0.27769999999999995,-129.50267238964545
-0.27670000000000006,-127.4937823438371
-0.27569999999999995,-125.5273336370247
-0.27470000000000006,-123.6174733822069
-0.27369999999999994,-121.73590735338641
-0.27270000000000005,-120.03825379354835
-0.27169999999999994,-118.29815889471436
-0.27070000000000005,-116.58635822187767
-0.26969999999999994,-114.84626332304367
-0.26870000000000005,-113.00713863321914
-0.26769999999999994,-111.09727837840134
